ecg,gsr,temp,hr,spo2,timest
2.3363,0.2786,39.1900,67,97,261136
2.2581,0.2933,39.0300,67,97,261139
2.1212,0.2786,39.1200,67,97,261143
2.0674,0.2981,38.8700,67,97,261146
1.9355,0.2786,39.0000,67,97,261149
1.8231,0.2786,39.1200,67,97,261153
1.7742,0.2835,39.0600,67,97,261156
1.6618,0.2688,39.1200,67,97,261159
1.6471,0.2981,39.0600,67,97,261164
1.5445,0.2884,39.0000,67,97,261167
1.4858,0.2688,39.0600,67,97,261170
1.4418,0.2786,39.1200,67,97,261174
1.4174,0.2786,39.0900,67,97,261177
1.4321,0.2688,38.9300,67,97,261180
1.3930,0.2835,39.1200,67,97,261183
1.3978,0.2737,39.0000,67,97,261187
1.3832,0.2786,39.0900,67,97,261190
1.3881,0.2786,39.0900,67,97,261193
1.4321,0.2884,39.0300,67,97,261197
1.4321,0.2786,39.0900,67,97,261200
1.4663,0.2835,39.0000,67,97,261203
1.4565,0.2786,39.0900,67,97,261208
1.4809,0.2786,39.0900,67,97,261211
1.5200,0.3030,39.0000,67,97,261214
1.5152,0.2884,39.0900,67,97,261217
1.5640,0.2786,38.9300,67,97,261221
1.5591,0.2786,39.0600,67,97,261224
1.5885,0.3079,39.1200,67,97,261227
1.6227,0.2835,38.9600,67,97,261231
1.6373,0.2786,39.0900,67,97,261234
1.6862,0.2884,38.8700,67,97,261237
1.6618,0.2835,39.1200,67,97,261241
1.6716,0.2786,39.1600,67,97,261244
1.6911,0.2835,39.0900,67,97,261248
1.6960,0.2786,39.1900,67,97,261252
1.7498,0.2981,38.8400,67,97,261255
1.7204,0.2786,39.0600,67,97,261258
1.7449,0.2835,39.1600,67,97,261261
1.7546,0.2688,39.0900,67,97,261265
1.7498,0.2786,39.1200,67,97,261268
1.8084,0.2884,38.8700,67,97,261271
1.7889,0.2884,39.0900,67,97,261275
1.7937,0.2786,39.0000,67,97,261278
1.8035,0.2835,39.0900,67,97,261281
1.8182,0.2786,39.1200,67,97,261285
1.8622,0.2835,38.9000,67,97,261288
1.8719,0.2835,39.0300,67,97,261293
1.8622,0.2786,39.1200,67,97,261296
1.8866,0.2786,39.0600,67,97,261299
1.8475,0.3275,39.0900,67,97,261303
1.8573,0.2786,39.1600,67,97,261306
1.8768,0.3128,39.0600,67,97,261309
1.8768,0.2737,39.1200,67,97,261312
1.9257,0.2835,38.9000,67,97,261316
1.8866,0.2835,39.1200,67,97,261319
1.9110,0.2688,39.0900,67,97,261322
1.9159,0.2884,39.0600,67,97,261326
1.8915,0.2884,39.1900,67,97,261329
1.9404,0.2884,38.8400,67,97,261332
1.9110,0.2835,39.0300,67,97,261337
1.9208,0.2786,39.0900,67,97,261340
1.9013,0.2835,38.9600,67,97,261343
1.9013,0.3079,39.1200,67,97,261347
1.9501,0.2884,38.9300,67,97,261350
1.9062,0.2835,39.0300,67,97,261353
1.9013,0.2786,39.0600,67,97,261356
1.9013,0.2835,39.0900,67,97,261360
1.9062,0.2786,39.0900,67,97,261363
1.9501,0.2884,39.0300,67,97,261366
1.9110,0.2835,39.0600,67,97,261370
1.9501,0.2786,39.0000,67,97,261373
1.8964,0.2786,39.1200,67,97,261377
1.8915,0.2786,39.0900,67,97,261381
1.9159,0.2933,38.8400,67,97,261384
1.9013,0.2786,39.2800,67,97,261387
1.9257,0.2786,39.0000,67,97,261390
1.8964,0.2786,39.0900,67,97,261394
1.9110,0.2786,39.1600,67,97,261397
1.9355,0.2933,39.0000,67,97,261400
1.9062,0.2786,39.0900,67,97,261404
1.9404,0.2786,39.3200,67,97,261407
1.9306,0.2737,39.0300,67,97,261410
1.9208,0.2688,39.0900,67,97,261414
1.9355,0.3030,38.9600,67,97,261417
1.9501,0.2737,39.1200,67,97,261421
1.9697,0.2835,38.9000,67,97,261425
1.9355,0.2786,39.0600,67,97,261428
1.9501,0.2737,39.0900,67,97,261431
1.9648,0.2835,39.0600,67,97,261434
1.9648,0.2786,39.1900,67,97,261438
2.0088,0.2933,38.8400,67,97,261441
1.9550,0.2786,39.0600,67,97,261444
1.9599,0.2786,39.2200,67,97,261448
1.9746,0.2835,39.0900,67,97,261451
1.9453,0.2786,39.2200,67,97,261454
1.9990,0.3030,38.9300,67,97,261458
1.9648,0.2884,39.0300,67,97,261462
1.9599,0.2737,39.0300,67,97,261465
1.9453,0.2786,39.0600,67,97,261468
1.9550,0.2786,39.0900,67,97,261472
1.9941,0.2884,39.0000,67,97,261475
1.9550,0.2884,39.0600,67,97,261478
1.9697,0.2786,39.0000,67,97,261482
1.9453,0.2786,39.1200,67,97,261485
1.9501,0.2786,39.0900,67,97,261488
1.9795,0.2933,39.0000,67,97,261492
1.9501,0.2786,39.0600,67,97,261495
1.9795,0.2835,39.0600,67,97,261498
1.9404,0.2835,39.1200,67,97,261501
1.9453,0.2786,39.1200,67,97,261506
1.9599,0.2933,39.0300,67,97,261509
1.9550,0.2688,39.1200,67,97,261512
1.9844,0.2786,38.9600,67,97,261516
1.9550,0.2786,39.1200,67,97,261519
1.9648,0.2786,39.3200,67,97,261522
1.9990,0.2884,39.0000,67,97,261526
1.9746,0.2786,39.0900,67,97,261529
2.0235,0.2884,39.0900,67,97,261532
2.0039,0.3128,39.0000,67,97,261536
1.9941,0.2786,39.1200,67,97,261539
2.0137,0.2933,39.1200,67,97,261542
1.9941,0.2786,39.0900,67,97,261545
2.0430,0.2933,38.8400,67,97,261550
1.9795,0.2786,39.0300,67,97,261553
1.9697,0.2786,39.0900,67,97,261556
1.9746,0.2786,39.0600,67,97,261560
1.9599,0.2786,39.0900,67,97,261563
2.0137,0.2981,38.9600,67,97,261566
1.9648,0.2786,39.0600,67,97,261570
1.9697,0.2737,39.0300,67,97,261573
1.9550,0.2835,39.2200,67,97,261576
1.9404,0.2786,39.1200,67,97,261579
1.9892,0.2933,38.9600,67,97,261583
1.9648,0.2981,39.0600,67,97,261586
1.9697,0.2786,39.0000,67,97,261590
1.9550,0.2786,39.1200,67,97,261594
1.9599,0.2835,39.0900,67,97,261597
1.9892,0.2884,38.9600,67,97,261600
1.9550,0.3079,39.0900,67,97,261604
1.9844,0.3177,38.9600,67,97,261607
1.9599,0.2786,39.1200,67,97,261610
1.9746,0.2786,39.1600,67,97,261614
1.9941,0.2835,39.0000,67,97,261617
1.9892,0.2786,39.2800,67,97,261620
2.0381,0.2981,39.0000,67,97,261623
2.0186,0.2835,39.0600,67,97,261627
2.0479,0.2786,39.1200,67,97,261630
2.0723,0.2835,39.0600,67,97,261634
2.0723,0.2786,39.1200,67,97,261638
2.1114,0.2981,38.9000,67,97,261641
2.0723,0.2786,39.1600,67,97,261644
2.0919,0.2786,39.1600,67,97,261648
2.1212,0.2933,39.0600,67,97,261651
2.1065,0.2786,39.1600,67,97,261654
2.1603,0.3079,38.8100,67,97,261657
2.1114,0.2786,39.0600,67,97,261661
2.0772,0.2786,39.1600,67,97,261664
2.0674,0.2786,39.0300,67,97,261667
2.0479,0.2786,39.0600,67,97,261671
2.0968,0.2981,38.8400,67,97,261675
2.0430,0.2884,39.0000,67,97,261678
2.0235,0.2786,39.0300,67,97,261682
2.0088,0.2835,39.0900,67,97,261685
1.9990,0.2737,39.1900,67,97,261688
2.0137,0.2981,38.9300,67,97,261691
1.9404,0.2835,39.1200,67,97,261695
1.9550,0.2786,39.0000,67,97,261698
1.8768,0.2786,39.0600,67,97,261701
1.8573,0.2884,39.1600,67,97,261705
1.8768,0.2884,39.0300,67,97,261708
1.8475,0.2786,39.0900,67,97,261711
1.8573,0.2835,38.9600,67,97,261715
1.8231,0.2786,39.0900,67,97,261719
1.8231,0.2786,39.1600,67,97,261722
1.8768,0.2933,38.9600,67,97,261725
1.8084,0.2786,38.9600,67,97,261729
1.8280,0.2835,39.0000,67,97,261732
1.7986,0.2737,39.0000,67,97,261735
1.7986,0.2688,39.1200,67,97,261739
1.8084,0.2933,39.0000,67,97,261742
1.7937,0.2835,39.0900,67,97,261745
1.8328,0.2835,38.9000,67,97,261749
1.7986,0.2786,39.1200,67,97,261752
1.8035,0.2835,39.1900,67,97,261755
1.8133,0.2835,39.0600,67,97,261760
1.8133,0.2786,39.1200,67,97,261763
1.8671,0.3128,38.8400,67,97,261766
1.8280,0.2786,39.0300,67,97,261769
1.8426,0.2737,39.1200,67,97,261773
1.8426,0.2835,39.0900,67,97,261776
1.8328,0.2786,39.0900,67,97,261779
1.8573,0.2981,38.8700,67,97,261783
1.7742,0.2835,39.0300,67,97,261786
1.7107,0.2835,39.0600,67,97,261789
1.6520,0.2835,39.1900,67,97,261793
1.6764,0.2835,39.1200,67,97,261796
1.8964,0.2884,38.9000,67,97,261799
2.2581,0.2835,39.0600,67,97,261804
2.9228,0.2835,39.0000,67,97,261807
3.6461,0.2786,39.0900,67,97,261810
4.2424,0.2786,39.0900,67,97,261813
4.6334,0.2884,39.0000,67,97,261817
4.7703,0.2835,39.1900,67,97,261820
4.9022,0.2835,38.9600,67,97,261823
4.6188,0.2786,39.2200,67,97,261827
4.0225,0.2786,39.0900,67,97,261830
3.2405,0.2835,39.0300,67,97,261833
2.5122,0.2786,39.1200,67,97,261837
1.9990,0.2835,38.9600,67,97,261840
1.6178,0.2786,39.1200,67,97,261843
1.4272,0.2688,39.1200,67,97,261847
1.3441,0.2933,39.0300,67,97,261851
1.2854,0.2835,39.1900,67,97,261854
1.3001,0.2884,38.9000,67,97,261857
1.2757,0.2835,39.0600,67,97,261861
1.2659,0.2786,39.1200,67,97,261864
1.2659,0.2884,39.0600,67,97,261867
1.2512,0.2786,39.1200,67,97,261871
1.2952,0.2933,38.8100,67,97,261874
1.2659,0.2786,39.0600,67,97,261877
1.2854,0.2737,39.1200,67,97,261881
1.3050,0.2786,39.1200,67,97,261884
1.3294,0.2737,39.0900,67,97,261888
1.3930,0.2884,38.8700,67,97,261891
1.3636,0.2835,39.0600,67,97,261895
1.3881,0.2737,39.0300,67,97,261898
1.4076,0.2786,39.1200,67,97,261901
1.5445,0.2835,39.1200,67,97,261905
1.5200,0.2786,39.1200,67,97,261908
1.5591,0.2835,39.0000,67,97,261912
1.5445,0.2688,39.0900,67,97,261915
1.5934,0.2786,38.3300,67,97,261918
1.6325,0.2786,39.0300,67,97,261922
1.6373,0.2786,38.3300,67,97,261925
1.6716,0.2884,38.9600,67,97,261928
1.6960,0.2786,39.1200,67,97,261933
1.7595,0.2835,38.8400,67,97,261936
1.7302,0.2835,39.0900,67,97,261939
1.7546,0.2786,39.0900,67,97,261943
1.7742,0.2835,38.3300,67,97,261946
1.7937,0.2835,39.1200,67,97,261949
1.8671,0.2884,38.8400,67,97,261952
1.8426,0.2835,39.0900,67,97,261956
1.8768,0.2737,39.1200,67,97,261959
1.8817,0.2786,39.1200,67,97,261962
1.9013,0.2737,39.1900,67,97,261966
1.9795,0.2981,38.9300,67,97,261969
1.9599,0.2933,39.0300,67,97,261972
1.9844,0.2786,39.0000,67,97,261977
1.9892,0.2786,39.0900,67,97,261980
2.0088,0.3030,39.1200,67,97,261983
2.0626,0.2933,38.9000,67,97,261986
2.0528,0.2835,39.0600,67,97,261990
2.0919,0.2835,39.0300,67,97,261993
2.0919,0.2786,39.1200,67,97,261996
2.1065,0.2737,39.0900,67,97,262000
2.1505,0.2884,39.0300,67,97,262003
2.1505,0.2786,39.0900,67,97,262006
2.2043,0.2835,38.9600,67,97,262010
2.2043,0.2786,39.0900,67,97,262013
2.2190,0.2737,39.0900,67,97,262017
2.2532,0.2835,39.0600,67,97,262020
2.2678,0.2835,39.0900,67,97,262024
2.3412,0.2786,39.0000,67,97,262027
2.3265,0.2786,39.0900,67,97,262030
2.3705,0.2786,39.1200,67,97,262034
2.4291,0.2786,39.0000,67,97,262037
2.4291,0.2786,38.9000,67,97,262040
2.5024,0.2835,38.8700,67,97,262044
2.5073,0.2786,39.0000,67,97,262047
2.5513,0.2786,39.0900,67,97,262050
2.5855,0.2884,39.0300,67,97,262053
2.5904,0.2884,39.0900,67,97,262057
2.6735,0.2933,38.8400,67,97,262061
2.6246,0.2786,39.0000,67,97,262064
2.6344,0.2737,39.1200,67,97,262068
2.6442,0.2688,39.0600,67,97,262071
2.6295,0.2786,39.0900,67,97,262074
2.6735,0.2933,38.8700,67,97,262078
2.5611,0.2786,39.0600,67,97,262081
2.5024,0.2737,39.0600,67,97,262084
2.4291,0.2835,39.0900,67,97,262087
2.3363,0.2737,39.1900,67,97,262091
2.3118,0.2981,38.9600,67,97,262094
2.1750,0.2835,39.0300,67,97,262097
2.0772,0.2884,39.0000,67,97,262102
1.9550,0.2786,39.0900,67,97,262105
1.8622,0.2786,39.1200,67,97,262108
1.8035,0.2981,38.9000,67,97,262112
1.6813,0.2835,39.0900,67,97,262115
1.6129,0.2835,38.7100,67,97,262118
1.5152,0.2737,39.1200,67,97,262121
1.4565,0.2786,39.1200,67,97,262125
1.4174,0.2933,39.0600,67,97,262128
1.3685,0.2786,39.1200,67,97,262131
1.3539,0.2786,38.9600,67,97,262135
1.3001,0.2786,39.0900,67,97,262138
1.2757,0.2786,39.1200,67,97,262141
1.2708,0.2884,39.0300,67,97,262146
1.2805,0.2786,39.1200,67,97,262149
1.3001,0.2835,38.9600,67,97,262152
1.2903,0.2786,39.1200,67,97,262156
1.3050,0.2688,39.1200,67,97,262159
1.3148,0.2884,39.0000,67,97,262162
1.3099,0.2688,39.1200,67,97,262165
1.3587,0.2884,38.8400,67,97,262169
1.3636,0.2933,38.9600,67,97,262172
1.3734,0.2737,39.0900,67,97,262175
1.4027,0.2884,39.1200,67,97,262179
1.4174,0.2737,39.0900,67,97,262182
1.4614,0.2981,38.8700,67,97,262185
1.4467,0.2786,39.0600,67,97,262190
1.4565,0.2737,39.0600,67,97,262193
1.4809,0.2786,39.0900,67,97,262196
1.5054,0.2786,39.0600,67,97,262200
1.5543,0.2981,38.9300,67,97,262203
1.5249,0.2786,39.0900,67,97,262206
1.5494,0.2786,39.0000,67,97,262209
1.5396,0.2786,39.1600,67,97,262213
1.5591,0.2786,39.1200,67,97,262216
1.5934,0.2884,39.0300,67,97,262219
1.6178,0.2786,39.1200,67,97,262223
1.6373,0.2835,38.9600,67,97,262226
1.6422,0.2786,39.1200,67,97,262230
1.6764,0.2786,39.0900,67,97,262234
1.7302,0.2933,38.9600,67,97,262237
1.7155,0.2786,39.1600,67,97,262240
1.7498,0.2786,38.9600,67,97,262244
1.7498,0.2786,39.0600,67,97,262247
1.7644,0.2786,39.1200,67,97,262250
1.7937,0.2884,39.0000,67,97,262253
1.7889,0.2786,38.9300,67,97,262257
1.8377,0.2835,38.8700,67,97,262260
1.8084,0.2786,39.0600,67,97,262263
1.8280,0.2786,39.0300,67,97,262267
1.8475,0.2835,39.0600,67,97,262270
1.8524,0.2786,39.1200,67,97,262274
1.8964,0.2884,38.8100,67,97,262278
1.8524,0.2786,39.0600,67,97,262281
1.8622,0.2737,39.1600,67,97,262284
1.8671,0.2786,39.1200,67,97,262288
1.8622,0.2786,39.0600,67,97,262291
1.9355,0.2884,38.9000,67,97,262294
1.9013,0.2835,39.0300,67,97,262297
1.9013,0.2737,39.0300,67,97,262301
1.8915,0.2786,39.0900,67,97,262304
1.8866,0.2786,39.1200,67,97,262307
1.9208,0.3030,38.9300,67,97,262311
1.8915,0.2835,39.0600,67,97,262315
1.9208,0.2835,38.9600,67,97,262318
1.8964,0.2786,39.0900,67,97,262322
1.9110,0.2835,39.1200,67,97,262325
1.9110,0.2884,38.5800,67,97,262328
1.8915,0.2786,39.0900,67,97,262332
1.9404,0.2835,39.0000,67,97,262335
1.8964,0.2786,39.0900,67,97,262338
1.9110,0.2786,39.1200,67,97,262341
1.9306,0.2835,39.0300,67,97,262345
1.9355,0.2786,39.0900,67,97,262348
1.9746,0.2835,38.9000,67,97,262351
1.9501,0.2786,39.0900,67,97,262355
1.9599,0.2786,39.0900,67,97,262359
1.9697,0.2884,39.0000,67,97,262362
1.9404,0.2786,39.0900,67,97,262366
1.9990,0.2688,38.8400,67,97,262369
1.9795,0.2835,38.4900,67,97,262372
1.9746,0.2737,39.0900,67,97,262375
1.9844,0.2835,39.0600,67,97,262379
1.9746,0.2786,39.2800,67,97,262382
2.0674,0.2884,38.8100,67,97,262385
1.9892,0.2786,38.9300,67,97,262389
1.9892,0.2737,39.0600,67,97,262392
1.9941,0.2786,39.0900,67,97,262395
1.9990,0.2786,39.2500,67,97,262400
2.0577,0.3275,38.9600,67,97,262403
2.0137,0.2786,39.0600,67,97,262406
2.0332,0.2786,39.0300,67,97,262409
2.0235,0.2786,39.0900,67,97,262413
2.0283,0.2737,39.1200,67,97,262416
2.0723,0.2688,39.0000,67,97,262419
2.0479,0.2835,39.0600,67,97,262423
2.0723,0.2786,38.9600,67,97,262426
2.0577,0.2835,39.1200,67,97,262429
2.0723,0.2737,39.0900,67,97,262433
2.0968,0.2884,38.9300,67,97,262436
2.0626,0.3079,39.1200,67,97,262439
2.0919,0.2884,38.9600,67,97,262443
2.0772,0.2688,39.0900,67,97,262447
2.0919,0.2786,39.0900,67,97,262450
2.1163,0.2835,39.0600,67,97,262453
2.1065,0.3030,39.1200,67,97,262457
2.1554,0.2835,38.9600,67,97,262460
2.1114,0.2786,39.0900,67,97,262463
2.1212,0.2786,39.0900,67,97,262466
2.1408,0.2884,39.0300,67,97,262470
2.1408,0.2737,39.0900,67,97,262473
2.1848,0.2884,38.9000,67,97,262476
2.1310,0.2786,39.1900,67,97,262480
2.1359,0.2835,39.1200,67,97,262483
2.1457,0.2688,39.0600,67,97,262487
2.1261,0.3275,39.1200,67,97,262491
2.1896,0.2933,38.8400,67,97,262494
2.1554,0.2835,39.0300,67,97,262497
2.1408,0.2737,39.0900,67,97,262501
2.1505,0.2835,39.0900,67,97,262504
2.1408,0.2786,39.0600,67,97,262507
2.2092,0.3275,38.8700,67,97,262510
2.2532,0.2884,39.0000,67,97,262514
2.2483,0.2884,39.1900,67,97,262517
2.2874,0.2835,39.0000,67,97,262521
2.2483,0.2786,39.0900,67,97,262524
2.2385,0.2786,39.1200,67,97,262528
2.2483,0.2786,39.0600,67,97,262532
2.2532,0.2786,39.2200,67,97,262535
2.3069,0.2835,39.0000,67,97,262538
2.2874,0.2786,39.0900,67,97,262542
2.2923,0.2786,39.0900,67,97,262545
2.3021,0.2884,38.9300,67,97,262548
2.2581,0.2688,39.0900,67,97,262551
2.2776,0.2786,38.9300,67,97,262555
2.2532,0.2786,39.0000,67,97,262558
2.2581,0.2933,39.0900,67,97,262561
2.2727,0.2835,39.0000,67,97,262565
2.2483,0.2786,38.5800,67,97,262568
2.2776,0.2835,38.9000,67,97,262572
2.1994,0.2688,39.0600,67,97,262576
2.1603,0.2786,39.1200,67,97,262579
2.1261,0.2835,39.1200,67,97,262582
2.1017,0.2835,39.0900,67,97,262585
2.1163,0.2884,38.8400,67,97,262589
2.0381,0.2786,39.0600,67,97,262592
2.0528,0.2737,39.0900,67,97,262595
2.0137,0.2688,39.0900,67,97,262599
1.9844,0.2786,39.1600,67,97,262602
2.0430,0.2933,38.8700,67,97,262605
1.9990,0.2884,39.0300,67,97,262609
2.0088,0.2737,39.0300,67,97,262612
1.9990,0.2786,39.1200,67,97,262616
2.0039,0.2737,39.0900,67,97,262619
2.0626,0.2884,38.9300,67,97,262623
2.0283,0.2835,39.1600,67,97,262626
2.0381,0.2737,39.0000,67,97,262629
2.0332,0.2737,39.0900,67,97,262633
2.0430,0.2786,39.1200,67,97,262636
2.0870,0.2884,39.3200,67,97,262639
2.0626,0.2786,39.0600,67,97,262643
2.1359,0.2835,38.9300,67,97,262646
2.0674,0.2786,39.1600,67,97,262649
2.0723,0.2737,39.0900,67,97,262652
2.0919,0.2835,39.0600,67,97,262657
2.0919,0.2786,39.0900,67,97,262660
2.1310,0.2884,39.0000,67,97,262663
2.0723,0.2786,39.0600,67,97,262667
2.0430,0.2737,39.1200,67,97,262670
2.0088,0.2933,38.9600,67,97,262673
1.9355,0.2786,39.2800,67,97,262676
1.9795,0.2737,38.9300,67,97,262680
2.1163,0.2786,39.1900,67,97,262683
2.4585,0.2835,39.0900,67,97,262686
3.0694,0.2884,39.0300,67,97,262690
3.7634,0.2786,39.1200,67,97,262693
4.4086,0.3128,38.8400,67,97,262696
4.6237,0.2737,39.0600,67,97,262701
4.7898,0.2786,39.0900,67,97,262704
4.8680,0.2835,39.0900,67,97,262707
4.7067,0.2786,39.0900,67,97,262710
4.2864,0.2933,38.8100,67,97,262714
3.4311,0.2786,39.1200,67,97,262717
2.7370,0.2835,39.0900,67,97,262720
2.2287,0.2786,39.0600,67,97,262724
1.8768,0.2786,39.1600,67,97,262727
1.7351,0.2981,38.9300,67,97,262730
1.6031,0.2786,39.0600,67,97,262734
1.5640,0.2786,39.0300,67,97,262737
1.5494,0.2786,39.0900,67,97,262740
1.5591,0.2786,39.1200,67,97,262745
1.5738,0.2884,38.9000,67,97,262748
1.5445,0.2688,39.0600,67,97,262751
1.5640,0.2786,38.9600,67,97,262754
1.5591,0.2786,39.0900,67,97,262758
1.5885,0.2737,39.0900,67,97,262761
1.6178,0.2884,39.0300,67,97,262764
1.6031,0.2786,39.1200,67,97,262768
1.6373,0.3128,39.0000,67,97,262771
1.6129,0.2786,39.0900,67,97,262774
1.6276,0.2786,39.1200,67,97,262778
1.6422,0.2884,39.0600,67,97,262781
1.6422,0.2786,39.0900,67,97,262785
1.6716,0.2786,38.9300,67,97,262788
1.6618,0.2737,39.1200,67,97,262792
1.6862,0.2737,39.1200,67,97,262795
1.7351,0.2786,39.0600,67,97,262798
1.7253,0.2786,39.1900,67,97,262802
1.7840,0.2835,38.8700,67,97,262805
1.7791,0.2835,39.0300,67,97,262808
1.7986,0.2786,38.6500,67,97,262812
1.8280,0.2688,39.0600,67,97,262815
1.8524,0.2786,39.0900,67,97,262818
1.9355,0.2981,38.8400,67,97,262822
1.9110,0.2688,38.9600,67,97,262825
1.9257,0.2737,38.7100,67,97,262829
1.9746,0.2835,39.0900,67,97,262833
1.9795,0.2786,39.1200,67,97,262836
2.0430,0.2933,38.9300,67,97,262839
1.9941,0.2737,39.0600,67,97,262842
1.9941,0.2688,39.0000,67,97,262846
1.9648,0.2786,39.1200,67,97,262849
1.9746,0.2786,39.0900,67,97,262852
2.0186,0.2884,39.0300,67,97,262856
2.0137,0.2786,39.0900,67,97,262859
2.0528,0.2835,39.1200,67,97,262862
2.0332,0.2786,39.1200,67,97,262866
2.0528,0.2737,39.0900,67,97,262870
2.0919,0.2884,39.0000,67,97,262873
2.0674,0.2786,39.0900,67,97,262876
2.1310,0.2835,38.9600,67,97,262880
2.1114,0.2737,39.1600,67,97,262883
2.1359,0.3030,39.1900,67,97,262886
2.1603,0.2835,39.0000,67,97,262890
2.1554,0.2786,39.1600,67,97,262893
2.2043,0.3324,38.9600,67,97,262896
2.1896,0.2786,39.0600,67,97,262900
2.2190,0.2786,39.1200,67,97,262903
2.2581,0.2981,39.0300,67,97,262906
2.3021,0.2786,39.0900,67,97,262909
2.3656,0.2884,38.8400,67,97,262914
2.3412,0.2981,39.0600,67,97,262917
2.3851,0.2835,39.0900,67,97,262920
2.4340,0.2835,39.0600,67,97,262924
2.4585,0.2786,39.1200,67,97,262927
2.5709,0.2884,38.8100,67,97,262930
2.5464,0.2835,39.0300,67,97,262934
2.5709,0.2737,39.0600,67,97,262937
2.6149,0.2835,39.0900,67,97,262940
2.6442,0.2786,39.0900,67,97,262943
2.7468,0.2981,38.9000,67,97,262947
2.7175,0.2786,39.0300,67,97,262950
2.7419,0.2688,39.0300,67,97,262953
2.7370,0.2786,39.1600,67,97,262958
2.7468,0.2737,39.0900,67,97,262961
2.7859,0.2884,38.9600,67,97,262964
2.7175,0.2786,39.0600,67,97,262968
2.7175,0.2786,39.0000,67,97,262971
2.6393,0.3177,39.0600,67,97,262974
2.5904,0.2786,39.0900,67,97,262977
2.5415,0.2884,39.0600,67,97,262981
2.4389,0.2786,39.0600,67,97,262984
2.3705,0.2835,39.0600,67,97,262987
2.2190,0.2786,39.1200,67,97,262991
2.1163,0.2786,39.1600,67,97,262994
2.0381,0.2933,38.9600,67,97,262998
1.9013,0.2786,39.0900,67,97,263002
1.8426,0.2835,38.9300,67,97,263005
1.7595,0.2786,39.0000,67,97,263008
1.6911,0.2786,39.1200,67,97,263011
1.6422,0.2933,38.9600,67,97,263015
1.5787,0.2786,39.0300,67,97,263018
1.5738,0.2933,38.8400,67,97,263021
1.5005,0.2786,39.1200,67,97,263025
1.4712,0.2786,39.0300,67,97,263028
1.4614,0.2835,39.0900,67,97,263031
1.4321,0.2786,39.1600,67,97,263035
1.4614,0.3030,38.8100,67,97,263038
1.4223,0.2786,39.0600,67,97,263042
1.4321,0.2737,39.0900,67,97,263046
1.4712,0.2835,39.0600,67,97,263049
1.4467,0.2737,39.0300,67,97,263052
1.5103,0.2981,38.9000,67,97,263055
1.5103,0.2835,39.0000,67,97,263059
1.5249,0.2737,39.0300,67,97,263062
1.5347,0.2786,39.0900,67,97,263065
1.5543,0.2737,39.0900,67,97,263069
1.5982,0.2688,38.9300,67,97,263072
1.5787,0.2835,39.0900,67,97,263075
1.6080,0.2884,38.9600,67,97,263079
1.6276,0.2786,39.0900,67,97,263083
1.6373,0.2786,39.0900,67,97,263086
1.6716,0.2884,39.0600,67,97,263089
1.6813,0.2786,39.0900,67,97,263093
1.7253,0.2884,39.0000,67,97,263096
1.7009,0.2786,39.2800,67,97,263099
1.7155,0.2786,39.0900,67,97,263103
1.7400,0.2786,39.0300,67,97,263106
1.7644,0.2786,39.0900,67,97,263109
1.8182,0.2884,38.9300,67,97,263113
1.8231,0.2786,39.0900,67,97,263116
1.8622,0.2786,39.1200,67,97,263119
1.8915,0.2786,38.9300,67,97,263123
1.9501,0.2835,39.0900,67,97,263128
1.9550,0.2786,39.0900,67,97,263132
2.0137,0.2981,38.9000,67,97,263135
1.9697,0.2786,39.0000,67,97,263138
1.9844,0.2737,39.0300,67,97,263141
1.9892,0.2786,39.0900,67,97,263145
2.0137,0.2786,39.1200,67,97,263148
2.0772,0.2933,38.9600,67,97,263151
2.0381,0.2786,39.0600,67,97,263155
2.0674,0.3128,39.0600,67,97,263158
2.0626,0.2737,39.0900,67,97,263161
2.0772,0.2786,39.1900,67,97,263165
2.1163,0.2933,39.0300,67,97,263169
2.1065,0.2835,39.0900,67,97,263172
2.1310,0.2835,38.9600,67,97,263175
2.0870,0.2835,39.0900,67,97,263179
2.1017,0.2737,39.0900,67,97,263182
2.1310,0.2884,38.9600,67,97,263185
2.0968,0.2835,39.0600,67,97,263189
2.1359,0.2835,38.9600,67,97,263192
2.1017,0.2786,39.0600,67,97,263195
2.1065,0.2786,39.0900,67,97,263199
2.1261,0.2786,38.9600,67,97,263202
2.1114,0.2786,39.0900,67,97,263205
2.1603,0.2835,38.9600,67,97,263208
2.1408,0.2737,39.0600,67,97,263213
2.1065,0.2786,39.0900,67,97,263216
2.0968,0.2835,39.0300,67,97,263219
2.0870,0.2786,39.0600,67,97,263223
2.1408,0.2884,38.8100,67,97,263226
2.1065,0.2786,39.0900,67,97,263229
2.1310,0.2786,39.1200,67,97,263233
2.1554,0.2835,39.0900,67,97,263236
2.1603,0.2786,39.0900,67,97,263239
2.2434,0.2933,38.8400,67,97,263242
2.2287,0.2835,39.0300,67,97,263246
2.2581,0.2737,39.0600,67,97,263249
2.2727,0.2835,38.9600,67,97,263252
2.3069,0.2786,39.0900,67,97,263257
2.3949,0.2884,38.9000,67,97,263260
2.3900,0.2835,39.1600,67,97,263263
2.4291,0.2884,39.0300,67,97,263267
2.4682,0.2786,39.0900,67,97,263270
2.4878,0.2786,39.0900,67,97,263273
2.5709,0.2884,38.9600,67,97,263276
2.5758,0.2786,39.0900,67,97,263280
2.6393,0.2737,38.9600,67,97,263283
2.6491,0.2688,39.0900,67,97,263286
2.6735,0.2786,39.1900,67,97,263290
2.7273,0.2835,39.0300,67,97,263293
2.7322,0.2786,39.0900,67,97,263297
2.7761,0.2884,39.0000,67,97,263301
2.7419,0.2884,39.0900,67,97,263304
2.7664,0.2786,39.1200,67,97,263307
2.8104,0.2884,39.0000,67,97,263310
2.7810,0.2737,39.0600,67,97,263314
2.8299,0.2786,38.9000,67,97,263317
2.8104,0.2786,39.0000,67,97,263320
2.8201,0.2786,39.1200,67,97,263324
2.8446,0.2884,39.0300,67,97,263327
2.8397,0.2786,39.1200,67,97,263330
2.9228,0.2884,38.8700,67,97,263334
2.8983,0.2786,39.0900,67,97,263337
2.9423,0.2786,39.0900,67,97,263341
2.9912,0.2835,38.9300,67,97,263344
3.0156,0.2737,39.0900,67,97,263348
3.1232,0.2884,38.8400,67,97,263351
3.0596,0.3079,39.0600,67,97,263354
3.0792,0.2835,39.0900,67,97,263358
3.0987,0.2688,39.0600,67,97,263361
3.1134,0.2786,39.0900,67,97,263364
3.2209,0.3226,38.8400,67,97,263368
3.1574,0.2786,39.0600,67,97,263371
3.1232,0.2737,39.0300,67,97,263374
3.0987,0.2786,39.0900,67,97,263378
3.1036,0.2786,39.0900,67,97,263382
3.1378,0.2884,38.9300,67,97,263385
3.0694,0.2981,39.1200,67,97,263388
3.0890,0.2786,38.9600,67,97,263392
3.0596,0.2786,39.1200,67,97,263395
3.0547,0.2786,39.1200,67,97,263398
3.0645,0.2933,39.0600,67,97,263402
3.0156,0.2786,39.0900,67,97,263405
3.0156,0.2688,38.9600,67,97,263408
2.9374,0.2786,39.0900,67,97,263411
2.9032,0.2835,39.0900,67,97,263415
2.9032,0.2835,39.0300,67,97,263418
2.8641,0.2786,39.0900,67,97,263421
2.8837,0.2786,39.0000,67,97,263426
2.8152,0.2737,39.1200,67,97,263429
2.8104,0.2688,39.0900,67,97,263432
2.8055,0.2884,39.0300,67,97,263436
2.7468,0.2835,39.0900,67,97,263439
2.8006,0.2835,38.9000,67,97,263442
2.7468,0.2786,39.0000,67,97,263445
2.7273,0.2688,39.0900,67,97,263449
2.7322,0.3079,39.0600,67,97,263452
2.6979,0.3030,39.1200,67,97,263455
2.7810,0.2933,38.9300,67,97,263459
2.6979,0.2737,38.8100,67,97,263462
2.6979,0.2835,39.0600,67,97,263465
2.7028,0.2688,39.0600,67,97,263470
2.6979,0.2688,39.0900,67,97,263473
2.7713,0.2933,38.8100,67,97,263476
2.6979,0.2786,39.0600,67,97,263479
2.7175,0.2688,39.0600,67,97,263483
2.7077,0.2835,39.2500,67,97,263486
2.6833,0.2688,39.0900,67,97,263489
2.7273,0.2981,38.9000,67,97,263493
2.6246,0.2933,39.0000,67,97,263496
2.5660,0.2884,39.0000,67,97,263499
2.5073,0.2786,39.0900,67,97,263503
2.5367,0.2786,39.1200,67,97,263506
2.7615,0.2981,38.9000,67,97,263510
3.1036,0.2688,39.0600,67,97,263513
3.6901,0.2786,38.9600,67,97,263517
4.2082,0.2786,39.0900,67,97,263520
4.5601,0.3030,39.0900,67,97,263523
4.8045,0.2884,39.0000,67,97,263527
4.8631,0.2688,39.0900,67,97,263530
4.9560,0.2835,38.9600,67,97,263533
4.6481,0.2786,39.2200,67,97,263536
4.0860,0.2737,39.0900,67,97,263540
3.4360,0.2688,39.0300,67,97,263543
2.7761,0.2786,39.0600,67,97,263546
2.3558,0.2786,38.9000,67,97,263550
2.0235,0.2835,39.0900,67,97,263554
1.8573,0.2688,39.0900,67,97,263557
1.7889,0.2884,39.3500,67,97,263561
1.7498,0.2835,39.0900,67,97,263564
1.7546,0.2835,38.9300,67,97,263567
1.7253,0.3030,39.0000,67,97,263571
1.7009,0.2835,39.0600,67,97,263574
1.6960,0.2884,39.0600,67,97,263577
1.6667,0.2786,39.1600,67,97,263580
1.6960,0.2981,38.8400,67,97,263584
1.6373,0.2786,39.1200,67,97,263587
1.6422,0.3030,39.1900,67,97,263590
1.6373,0.2835,39.0900,67,97,263595
1.6325,0.2786,39.3200,67,97,263598
1.6813,0.2981,38.8700,67,97,263601
1.6325,0.2835,39.0900,67,97,263605
1.6422,0.2737,39.0300,67,97,263608
1.6471,0.2835,39.1200,67,97,263611
1.6227,0.2737,39.1200,67,97,263615
1.6520,0.2884,39.0000,67,97,263618
1.6276,0.2835,39.1200,67,97,263621
1.6618,0.2786,38.9300,67,97,263624
1.6569,0.2835,39.0900,67,97,263628
1.6960,0.2786,39.1900,67,97,263631
1.7449,0.2933,38.9300,67,97,263634
1.7351,0.2786,39.1600,67,97,263639
1.7742,0.2786,39.0000,67,97,263642
1.7693,0.2688,39.1200,67,97,263645
1.7986,0.2786,39.0900,67,97,263649
1.8133,0.2786,39.0000,67,97,263652
1.8035,0.2786,39.0900,67,97,263655
1.8426,0.2786,38.9300,67,97,263658
1.8084,0.2786,39.0600,67,97,263662
1.8377,0.2737,39.1900,67,97,263665
1.8231,0.2835,39.3200,67,97,263668
1.8182,0.2737,39.1200,67,97,263672
1.8524,0.2884,38.9000,67,97,263675
1.7986,0.2737,39.0900,67,97,263678
1.8084,0.2786,39.0900,67,97,263683
1.7986,0.2835,39.0300,67,97,263686
1.7644,0.2786,39.0900,67,97,263689
1.8035,0.2884,38.8100,67,97,263693
1.7644,0.2835,38.9000,67,97,263696
1.7498,0.2786,39.0900,67,97,263699
1.7449,0.2835,39.1600,67,97,263702
1.7498,0.2835,39.0900,67,97,263706
1.8035,0.2981,38.9000,67,97,263709
1.7742,0.2835,39.0000,67,97,263712
1.7742,0.2835,39.0000,67,97,263716
1.7693,0.2835,39.0900,67,97,263719
1.7889,0.2786,39.1200,67,97,263723
1.8377,0.3030,39.0000,67,97,263727
1.8377,0.2835,39.0600,67,97,263730
1.8768,0.2835,38.9600,67,97,263733
1.8622,0.2786,39.2200,67,97,263737
1.9697,0.3079,39.1200,67,97,263741
1.9844,0.2737,39.0900,67,97,263745
1.9990,0.2884,39.0000,67,97,263748
1.9795,0.3079,39.0900,67,97,263751
2.0283,0.3128,38.9000,67,97,263754
2.0186,0.2786,39.0000,67,97,263758
2.0186,0.2786,39.1200,67,97,263761
2.0381,0.2786,39.0300,67,97,263764
2.0430,0.2835,39.0900,67,97,263769
2.0772,0.2884,38.8400,67,97,263772
2.0137,0.2786,39.1200,67,97,263775
1.9990,0.2981,39.0900,67,97,263779
1.9795,0.2835,39.0900,67,97,263782
1.9404,0.2786,39.0900,67,97,263785
1.9501,0.2981,38.8100,67,97,263788
1.8622,0.2884,39.0600,67,97,263792
1.7840,0.2737,39.0300,67,97,263795
1.6911,0.2835,39.0900,67,97,263798
1.5934,0.2688,39.0900,67,97,263802
1.5298,0.2933,39.0600,67,97,263805
1.4125,0.2835,39.0900,67,97,263809
1.3294,0.2835,39.0300,67,97,263813
1.2268,0.2786,39.1900,67,97,263816
1.1437,0.2835,39.1200,67,97,263819
1.0802,0.2884,38.9300,67,97,263822
0.9922,0.2835,38.8400,67,97,263826
0.9433,0.2786,38.9600,67,97,263829
0.8798,0.2688,39.0900,67,97,263832
0.8504,0.2786,39.0900,67,97,263836
0.8260,0.2835,39.0000,67,97,263839
0.8065,0.2786,39.0900,67,97,263842
0.8162,0.3079,39.0300,67,97,263846
0.7918,0.2737,39.0900,67,97,263849
0.8113,0.2688,39.0900,67,97,263853
0.8260,0.2835,39.0300,67,97,263856
0.8407,0.2786,39.0900,67,97,263860
0.8602,0.2835,38.9000,67,97,263863
0.8553,0.2786,39.0900,67,97,263866
0.8798,0.2737,39.0900,67,97,263870
0.9238,0.2884,38.9600,67,97,263873
0.8944,0.2786,39.2200,67,97,263876
0.9335,0.2884,38.8700,67,97,263879
0.9384,0.2933,39.0600,67,97,263883
0.9677,0.2737,39.0900,67,97,263886
0.9873,0.2884,39.0600,67,97,263889
1.0020,0.2835,39.2800,67,97,263894
1.0459,0.2884,38.9000,67,97,263897
1.0411,0.2835,39.0600,67,97,263900
1.0557,0.2786,39.0000,67,97,263903
1.0704,0.2835,39.0600,67,97,263907
1.0704,0.2786,39.0900,67,97,263910
1.1339,0.2933,38.9300,67,97,263913
1.1339,0.2835,39.0300,67,97,263917
1.1437,0.2737,39.0600,67,97,263920
1.1584,0.2835,39.1600,67,97,263923
1.1730,0.2688,39.0900,67,97,263927
1.2219,0.2981,38.9300,67,97,263930
1.2121,0.2835,39.0000,67,97,263933
1.2268,0.2786,39.0000,67,97,263937
1.2072,0.2786,39.0900,67,97,263941
1.2366,0.2786,39.0900,67,97,263944
1.2659,0.3275,38.9000,67,97,263947
1.2512,0.2835,39.0900,67,97,263951
1.2708,0.2835,39.0000,67,97,263954
1.2610,0.2786,39.1200,67,97,263957
1.2854,0.2786,39.0900,67,97,263961
1.3001,0.2884,39.0600,67,97,263964
1.2952,0.2786,38.9600,67,97,263967
1.3245,0.2933,39.0000,67,97,263970
1.2903,0.2786,39.0600,67,97,263974
1.2854,0.2786,39.1600,67,97,263977
1.2854,0.2835,39.0300,67,97,263981
1.2854,0.2786,39.1200,67,97,263985
1.3050,0.2835,38.9000,67,97,263988
1.2805,0.2786,39.0900,67,97,263991
1.2903,0.2786,39.1600,67,97,263995
1.3001,0.2884,39.1600,67,97,263998
1.2805,0.2737,39.0900,67,97,264001
1.2903,0.2884,38.8700,67,97,264005
1.2659,0.2835,38.9300,67,97,264008
1.2561,0.2737,39.1900,67,97,264011
1.2659,0.2835,39.1600,67,97,264014
1.2708,0.2688,39.1200,67,97,264018
1.3099,0.2933,38.8100,67,97,264022
1.2708,0.2786,39.0600,67,97,264025
1.2757,0.2737,39.0600,67,97,264029
1.2854,0.2835,39.0900,67,97,264032
1.2952,0.2786,39.1200,67,97,264035
1.3392,0.2933,38.8400,67,97,264039
1.3050,0.2786,39.0600,67,97,264042
1.3099,0.2786,38.9600,67,97,264045
1.2952,0.2835,39.0900,67,97,264048
1.2854,0.2786,39.0900,67,97,264052
1.3099,0.2884,39.1200,67,97,264055
1.2952,0.2786,39.0600,67,97,264058
1.3196,0.2688,39.0300,67,97,264062
1.2952,0.2786,39.0900,67,97,264066
1.3148,0.2835,39.0900,67,97,264069
1.3294,0.2933,38.9600,67,97,264073
1.3148,0.2884,39.0900,67,97,264076
1.3490,0.2786,39.0000,67,97,264079
1.3294,0.2737,39.0600,67,97,264083
1.3441,0.2786,39.0900,67,97,264086
1.3587,0.2835,38.9600,67,97,264089
1.3636,0.2786,38.3300,67,97,264092
1.4076,0.2737,38.9000,67,97,264096
1.3881,0.2688,39.0900,67,97,264099
1.4076,0.2786,39.0900,67,97,264102
1.4272,0.2835,39.0300,67,97,264107
1.4467,0.2835,39.1900,67,97,264110
1.5103,0.2884,38.8400,67,97,264113
1.5152,0.2835,39.0600,67,97,264117
1.5689,0.2786,39.0900,67,97,264120
1.6031,0.2835,39.0900,67,97,264123
1.6129,0.2737,39.0900,67,97,264126
1.6764,0.2981,38.8100,67,97,264130
1.6569,0.2835,39.1600,67,97,264133
1.6667,0.2737,39.0600,67,97,264136
1.6569,0.2835,38.9600,67,97,264140
1.6618,0.2835,39.1200,67,97,264143
1.7204,0.2884,38.9000,67,97,264146
1.6960,0.2884,39.0600,67,97,264151
1.7009,0.3030,39.0000,67,97,264154
1.6764,0.2835,39.0900,67,97,264157
1.6764,0.2835,39.0900,67,97,264160
1.6569,0.2884,39.0000,67,97,264164
1.6129,0.2786,39.0000,67,97,264167
1.6227,0.2835,38.9600,67,97,264170
1.5934,0.2786,39.0900,67,97,264174
1.5836,0.2933,39.0900,67,97,264177
1.5787,0.2835,39.0600,67,97,264180
1.5249,0.2786,39.0900,67,97,264184
1.5152,0.2884,38.3000,67,97,264187
1.4565,0.2786,39.0900,67,97,264190
1.4321,0.2786,39.0900,67,97,264195
1.4272,0.2933,38.9600,67,97,264198
1.3832,0.2737,39.0900,67,97,264201
1.3881,0.2835,38.9300,67,97,264204
1.3587,0.2835,39.0000,67,97,264208
1.3587,0.2786,39.0900,67,97,264211
1.3685,0.2933,39.0600,67,97,264214
1.3685,0.2786,39.0900,67,97,264218
1.3978,0.2884,38.8400,67,97,264221
1.3636,0.2737,39.1200,67,97,264224
1.3783,0.2835,39.0900,67,97,264228
1.3881,0.2835,39.0600,67,97,264231
1.3930,0.2835,39.0600,67,97,264235
1.4370,0.2933,38.8100,67,97,264238
1.4076,0.2786,39.0600,67,97,264242
1.4272,0.2786,39.0000,67,97,264245
1.4272,0.2786,39.0600,67,97,264248
1.4370,0.2786,38.9600,67,97,264252
1.4858,0.2981,38.9000,67,97,264255
1.4761,0.2835,39.0600,67,97,264258
1.4907,0.2786,38.9600,67,97,264262
1.4809,0.2835,39.0900,67,97,264265
1.4858,0.2786,39.1200,67,97,264268
1.5152,0.3128,38.9000,67,97,264272
1.4809,0.2835,39.0600,67,97,264275
1.4712,0.2835,39.0300,67,97,264279
1.4125,0.2737,39.1200,67,97,264282
1.3783,0.2688,39.1200,67,97,264286
1.3832,0.2835,39.0300,67,97,264289
1.4761,0.2786,39.0900,67,97,264292
1.7742,0.2786,39.0000,67,97,264296
2.1994,0.2786,39.0900,67,97,264299
2.8250,0.2786,39.0300,67,97,264302
3.5924,0.2933,39.0600,67,97,264306
4.1935,0.2786,39.0900,67,97,264309
4.6285,0.2835,38.9000,67,97,264312
4.6676,0.2835,39.0600,67,97,264315
4.4330,0.2835,39.1900,67,97,264320
3.8710,0.2884,39.0000,67,97,264323
3.0254,0.2786,39.0900,67,97,264326
2.3363,0.2884,38.8400,67,97,264330
1.7107,0.2835,39.0000,67,97,264333
1.2952,0.2786,39.1600,67,97,264336
1.0655,0.2884,39.0600,67,97,264340
0.9286,0.2786,39.1900,67,97,264343
0.8993,0.3177,38.8100,67,97,264346
0.8504,0.2933,38.9600,67,97,264351
0.8309,0.2786,39.0600,67,97,264354
0.8407,0.2835,38.9600,67,97,264358
0.8113,0.2786,39.0600,67,97,264361
0.8113,0.2835,39.0900,67,97,264365
0.8065,0.2884,39.0600,67,97,264368
0.8065,0.2835,39.0600,67,97,264372
0.8260,0.2884,39.0000,67,97,264375
0.8065,0.2786,39.0900,67,97,264378
0.8113,0.2786,39.1200,67,97,264382
0.8309,0.2884,39.0000,67,97,264385
0.7967,0.2786,39.0900,67,97,264388
0.8162,0.2786,38.6200,67,97,264391
0.7967,0.2835,39.0600,67,97,264395
0.8260,0.2835,39.1200,67,97,264398
0.8309,0.2835,38.7100,67,97,264401
0.8358,0.3030,39.0600,67,97,264406
0.8602,0.2835,38.9000,67,97,264409
0.8407,0.2884,39.0600,67,97,264412
0.8456,0.2835,39.0900,67,97,264416
0.8456,0.2688,39.0300,67,97,264419
0.8602,0.2786,39.0900,67,97,264422
0.8847,0.2884,38.8700,67,97,264425
0.8700,0.2835,39.1200,67,97,264429
0.8749,0.2737,39.0900,67,97,264432
0.8700,0.2884,39.0600,67,97,264435
0.8553,0.2786,39.0900,67,97,264439
0.8700,0.3030,38.8700,67,97,264442
0.8456,0.2835,39.0300,67,97,264445
0.8553,0.2786,39.0900,67,97,264449
0.8358,0.2835,39.0900,67,97,264453
0.8358,0.2786,39.0900,67,97,264456
0.8651,0.3372,38.8700,67,97,264459
0.8407,0.2884,39.0300,67,97,264463
0.8456,0.2786,39.0300,67,97,264466
0.8504,0.2835,39.1200,67,97,264469
0.8553,0.2786,39.0900,67,97,264472
0.8895,0.3030,38.9000,67,97,264476
0.8700,0.3226,39.1200,67,97,264479
0.9042,0.2786,39.0000,67,97,264482
0.8895,0.2786,39.0900,67,97,264486
0.8847,0.2786,39.0900,67,97,264489
0.9238,0.2933,39.0300,67,97,264493
0.9238,0.2786,39.1900,67,97,264497
0.9433,0.2835,39.0000,67,97,264500
0.9531,0.2786,39.0900,67,97,264503
0.9775,0.2981,39.1200,67,97,264506
1.0215,0.2933,38.9300,67,97,264510
1.0215,0.2786,38.9300,67,97,264513
1.0655,0.2884,39.0000,67,97,264516
1.0802,0.2737,39.0600,67,97,264520
1.1193,0.2786,39.0900,67,97,264523
1.1486,0.2835,39.0000,67,97,264526
1.1681,0.2786,39.0900,67,97,264530
1.2121,0.2786,38.9000,67,97,264534
1.2121,0.2786,39.0600,67,97,264537
1.2463,0.2786,38.3600,67,97,264540
1.2708,0.2835,39.0300,67,97,264544
1.2805,0.2786,39.1200,67,97,264547
1.3196,0.2884,38.9600,67,97,264550
1.2952,0.2688,39.0900,67,97,264554
1.3050,0.2786,39.0900,67,97,264557
1.3001,0.2835,39.0300,67,97,264560
1.2805,0.2688,39.0900,67,97,264564
1.2952,0.2933,38.8100,67,97,264567
1.2366,0.2884,38.9300,67,97,264570
1.1828,0.2737,39.0900,67,97,264573
1.1193,0.2835,39.2200,67,97,264578
1.0508,0.2737,39.0900,67,97,264581
1.0068,0.2981,38.9300,67,97,264584
0.8944,0.2884,39.0300,67,97,264588
0.8113,0.2786,39.0600,67,97,264591
0.7380,0.2737,39.0900,67,97,264594
0.7038,0.2835,39.1900,67,97,264598
0.6256,0.2933,38.9600,67,97,264601
0.5474,0.2835,39.0600,67,97,264604
0.4985,0.2835,39.0000,67,97,264607
0.4448,0.2884,39.0900,67,97,264611
0.4154,0.2688,39.0900,67,97,264614
0.4057,0.2884,39.0300,67,97,264617
0.3812,0.2835,39.0900,67,97,264622
0.3812,0.2835,38.9600,67,97,264625
0.3715,0.2835,39.0900,67,97,264628
0.3666,0.2786,39.0900,67,97,264631
0.4008,0.2933,38.9300,67,97,264635
0.4008,0.3030,39.0600,67,97,264638
0.4301,0.3079,38.9600,67,97,264641
0.4399,0.2737,39.1200,67,97,264645
0.4692,0.2786,39.0900,67,97,264648
0.4985,0.2835,39.0900,67,97,264651
0.5230,0.2786,38.5500,67,97,264654
0.5621,0.2786,38.8700,67,97,264658
0.5816,0.2835,39.0300,67,97,264662
0.6109,0.2786,39.0900,67,97,264665
0.6403,0.2835,39.0300,67,97,264669
0.6647,0.3030,39.0600,67,97,264672
0.7038,0.2835,38.8700,67,97,264675
0.7087,0.2786,39.0900,67,97,264679
0.7478,0.2786,39.0900,67,97,264682
0.7771,0.2884,39.0900,67,97,264685
0.7869,0.2835,39.0900,67,97,264688
0.8309,0.2933,38.8400,67,97,264692
0.8309,0.2835,39.0000,67,97,264695
0.8553,0.2688,39.0900,67,97,264698
0.8749,0.2884,39.0600,67,97,264702
0.8944,0.2981,39.0900,67,97,264706
0.9531,0.2884,38.8100,67,97,264709
0.9335,0.2835,38.9600,67,97,264713
0.9531,0.2786,39.0600,67,97,264716
0.9775,0.2835,39.0900,67,97,264719
1.0117,0.2786,39.0900,67,97,264722
1.0655,0.2981,39.0900,67,97,264726
1.0557,0.3079,39.0600,67,97,264729
1.0802,0.2786,39.0000,67,97,264732
1.0850,0.2835,39.0900,67,97,264736
1.0997,0.2786,39.1600,67,97,264739
1.1437,0.2933,38.7700,67,97,264742
1.1486,0.2933,39.0600,67,97,264745
1.2023,0.2786,39.0000,67,97,264750
1.1681,0.2786,39.1600,67,97,264753
1.1877,0.3030,39.0900,67,97,264756
1.2463,0.2933,38.9300,67,97,264760
1.2072,0.2786,39.0300,67,97,264763
1.2366,0.3079,39.0300,67,97,264766
1.2170,0.2737,39.0600,67,97,264770
1.2317,0.2786,39.0900,67,97,264773
1.2463,0.2835,39.0000,67,97,264776
1.2757,0.2786,39.0900,67,97,264779
1.2903,0.2786,38.9300,67,97,264783
1.2708,0.2786,39.0300,67,97,264786
1.2854,0.2737,39.1900,67,97,264790
1.3001,0.2835,39.0300,67,97,264794
1.3050,0.2786,39.0000,67,97,264797
1.3392,0.2835,38.8400,67,97,264800
1.3196,0.2786,39.1600,67,97,264804
1.3294,0.2786,39.1200,67,97,264807
1.3294,0.2884,39.0600,67,97,264810
1.3196,0.2786,39.0900,67,97,264814
1.3587,0.2981,38.8100,67,97,264817
1.3392,0.2835,39.0000,67,97,264820
1.3392,0.2737,39.1200,67,97,264823
1.3392,0.2835,39.0600,67,97,264827
1.3343,0.2786,39.0900,67,97,264830
1.3734,0.3177,38.9000,67,97,264834
1.3343,0.2884,39.0300,67,97,264838
1.3294,0.2786,39.0000,67,97,264841
1.3245,0.2786,39.0900,67,97,264844
1.3245,0.2835,39.0900,67,97,264848
1.3490,0.2884,38.9600,67,97,264851
1.3245,0.2786,39.1600,67,97,264854
1.3392,0.2835,38.9600,67,97,264857
1.3148,0.2786,39.0600,67,97,264861
1.3196,0.2835,39.0900,67,97,264864
1.3441,0.2688,39.0300,67,97,264867
1.3294,0.2786,39.0600,67,97,264871
1.3490,0.2884,38.9600,67,97,264875
1.3294,0.2835,39.1200,67,97,264878
1.3441,0.2786,39.0600,67,97,264882
1.3636,0.2933,38.9600,67,97,264885
1.3392,0.2786,39.1200,67,97,264888
1.3587,0.2884,38.8700,67,97,264892
1.3490,0.2786,39.0000,67,97,264895
1.3539,0.2786,39.0900,67,97,264898
1.3881,0.2933,39.0000,67,97,264901
1.3539,0.2688,39.0900,67,97,264905
1.4027,0.2884,38.9000,67,97,264908
1.3832,0.2786,39.0600,67,97,264911
1.4125,0.2786,39.1200,67,97,264915
1.4565,0.2835,39.1600,67,97,264919
1.4907,0.2786,39.1200,67,97,264922
1.5640,0.2933,38.8100,67,97,264926
1.5298,0.2884,39.0300,67,97,264929
1.5445,0.2737,39.0600,67,97,264932
1.5396,0.2835,39.0900,67,97,264936
1.5396,0.2737,39.1200,67,97,264939
1.6031,0.2981,38.9300,67,97,264942
1.5885,0.2835,39.0900,67,97,264945
1.6080,0.2884,39.0000,67,97,264949
1.6129,0.2688,39.0900,67,97,264952
1.6227,0.2786,39.0900,67,97,264955
1.6471,0.2884,38.9300,67,97,264960
1.5689,0.3128,39.0600,67,97,264964
1.5445,0.2835,39.0900,67,97,264968
1.5298,0.2835,38.9300,67,97,264971
1.4516,0.2835,39.0300,67,97,264974
1.4174,0.2786,39.0900,67,97,264978
1.3978,0.2835,39.0300,67,97,264981
1.3832,0.2835,39.0600,67,97,264984
1.4027,0.2835,38.8700,67,97,264987
1.3685,0.2786,39.0600,67,97,264991
1.4174,0.2835,39.0900,67,97,264994
1.3832,0.2884,39.0600,67,97,264997
1.3783,0.2835,39.1200,67,97,265001
1.4272,0.2933,38.8100,67,97,265005
1.4027,0.2835,38.9600,67,97,265008
1.4272,0.2737,39.0600,67,97,265012
1.3978,0.2884,39.0900,67,97,265015
1.4223,0.2835,39.0900,67,97,265018
1.4321,0.2688,38.9000,67,97,265022
1.4076,0.2835,39.0300,67,97,265025
1.4076,0.2835,38.9600,67,97,265028
1.4076,0.2786,39.1200,67,97,265032
1.4125,0.2786,39.1200,67,97,265035
1.4370,0.2884,38.9600,67,97,265038
1.4174,0.3079,39.0900,67,97,265041
1.4418,0.3079,39.0000,67,97,265046
1.4223,0.2835,39.1200,67,97,265049
1.4223,0.2786,39.1200,67,97,265052
1.4418,0.2786,39.0600,67,97,265056
1.4418,0.2786,39.1200,67,97,265059
1.4712,0.3079,38.9600,67,97,265062
1.4272,0.2786,39.1600,67,97,265066
1.4076,0.2835,39.0900,67,97,265069
1.3734,0.2884,38.9600,67,97,265072
1.3148,0.2981,39.1200,67,97,265076
1.3294,0.2835,38.8700,67,97,265079
1.4467,0.2737,39.0600,67,97,265082
1.7351,0.2981,39.0900,67,97,265085
2.2532,0.2884,39.0000,67,97,265090
2.8935,0.2786,39.0900,67,97,265093
3.7634,0.2884,38.8400,67,97,265096
4.2669,0.2786,39.0300,67,97,265100
4.6139,0.2786,39.0900,67,97,265103
4.7019,0.2835,39.0900,67,97,265106
4.4526,0.2786,39.1200,67,97,265110
3.9589,0.2981,38.8700,67,97,265113
3.0645,0.3177,39.0300,67,97,265116
2.3509,0.2786,39.0300,67,97,265119
1.7937,0.2835,39.0900,67,97,265123
1.4223,0.2786,39.0600,67,97,265126
1.2561,0.2884,38.9300,67,97,265129
1.1095,0.2835,39.0600,67,97,265134
1.0899,0.2786,38.9300,67,97,265137
1.0655,0.2884,39.0600,67,97,265140
1.0704,0.2786,39.0900,67,97,265144
1.0997,0.2884,38.9300,67,97,265147
1.0802,0.2835,39.1200,67,97,265150
1.0948,0.2884,38.9600,67,97,265153
1.0850,0.2688,39.0900,67,97,265157
1.1095,0.2786,39.0900,67,97,265160
1.1193,0.2884,39.0600,67,97,265163
1.1241,0.2786,39.0900,67,97,265167
1.1681,0.3030,39.0600,67,97,265170
1.1632,0.2835,39.0900,67,97,265174
1.1779,0.2786,39.1200,67,97,265178
1.2023,0.2933,39.0600,67,97,265181
1.2268,0.2786,39.0900,67,97,265184
1.2561,0.2688,38.9300,67,97,265187
1.2610,0.2835,39.1200,67,97,265191
1.3099,0.2786,39.0900,67,97,265194
1.3148,0.2884,39.0300,67,97,265197
1.3196,0.2884,39.0900,67,97,265201
1.3930,0.2884,38.8400,67,97,265204
1.3783,0.2835,39.0000,67,97,265207
1.3881,0.2786,39.1200,67,97,265211
1.4174,0.2884,39.0300,67,97,265214
1.4223,0.2786,39.1600,67,97,265218
1.4809,0.3030,38.7700,67,97,265221
1.4516,0.2786,39.0000,67,97,265225
1.4712,0.2737,39.1200,67,97,265228
1.4858,0.2835,39.0600,67,97,265231
1.5152,0.2688,39.0900,67,97,265235
1.5738,0.2981,38.9000,67,97,265238
1.5445,0.2981,39.0300,67,97,265241
1.5689,0.2737,39.0300,67,97,265245
1.5738,0.2786,39.1200,67,97,265248
1.5934,0.2835,39.0900,67,97,265251
1.6422,0.2884,39.0000,67,97,265255
1.6373,0.2835,39.0600,67,97,265259
1.6667,0.2835,38.9000,67,97,265262
1.6667,0.2688,39.0600,67,97,265265
1.6911,0.2786,39.1200,67,97,265269
1.7351,0.3128,38.9600,67,97,265272
1.7253,0.2786,39.0900,67,97,265275
1.7693,0.2884,38.9600,67,97,265279
1.7595,0.2688,39.0900,67,97,265282
1.7791,0.2786,39.0600,67,97,265285
1.8084,0.2884,39.0000,67,97,265289
1.8133,0.2835,39.0900,67,97,265292
1.8671,0.2835,38.9000,67,97,265295
1.8475,0.2786,39.0600,67,97,265298
1.8719,0.2786,39.0900,67,97,265303
1.9062,0.2884,39.0600,67,97,265306
1.9306,0.2786,39.0600,67,97,265309
2.0088,0.2884,38.8700,67,97,265313
1.9795,0.2786,39.1200,67,97,265316
2.0186,0.2688,39.0900,67,97,265319
2.0479,0.2786,39.0600,67,97,265323
2.0674,0.2786,39.1900,67,97,265326
2.1554,0.3128,38.8100,67,97,265329
2.1457,0.2786,39.0300,67,97,265333
2.1652,0.2737,39.0900,67,97,265336
2.2092,0.2786,39.0600,67,97,265339
2.2092,0.2786,39.0900,67,97,265342
2.2972,0.2981,38.9300,67,97,265347
2.2727,0.2786,39.0300,67,97,265350
2.2874,0.2737,39.0600,67,97,265353
2.2825,0.2786,39.1200,67,97,265357
2.2874,0.2835,39.0600,67,97,265360
2.3509,0.2933,39.0300,67,97,265363
2.2776,0.2835,39.0600,67,97,265367
2.2776,0.2835,39.0600,67,97,265370
2.1994,0.2835,39.0300,67,97,265373
2.1408,0.2786,39.1200,67,97,265376
2.0870,0.2884,39.0600,67,97,265380
1.9844,0.2786,39.1600,67,97,265383
1.9208,0.2933,39.0000,67,97,265387
1.7937,0.2786,39.0600,67,97,265391
1.7009,0.2786,39.0900,67,97,265394
1.6227,0.2884,38.9600,67,97,265397
1.5005,0.2786,39.0900,67,97,265401
1.4321,0.2786,38.8700,67,97,265404
1.3587,0.2786,39.0000,67,97,265407
1.2659,0.2786,39.0900,67,97,265410
1.2121,0.2933,39.0000,67,97,265414
1.1437,0.2786,39.0600,67,97,265417
1.1339,0.2835,38.9000,67,97,265420
1.0704,0.2884,39.0600,67,97,265424
1.0508,0.2737,39.0900,67,97,265427
1.0753,0.2884,39.0600,67,97,265431
1.0459,0.2786,39.0900,67,97,265435
1.0655,0.2884,38.8400,67,97,265438
1.0411,0.2737,39.0600,67,97,265441
1.0606,0.2786,39.1200,67,97,265444
1.0704,0.2835,39.0900,67,97,265448
1.0802,0.2835,39.0600,67,97,265451
1.1290,0.3079,38.8700,67,97,265454
1.1193,0.2786,39.0000,67,97,265458
1.1241,0.2737,39.0300,67,97,265461
1.1437,0.2884,39.0600,67,97,265464
1.1632,0.2786,39.0900,67,97,265468
1.2170,0.2884,38.9300,67,97,265472
1.2317,0.2786,39.0300,67,97,265475
1.2121,0.2786,39.0000,67,97,265478
1.2121,0.2786,39.0900,67,97,265482
1.2219,0.2786,39.1200,67,97,265485
1.2512,0.2884,38.9600,67,97,265488
1.2463,0.2786,39.1600,67,97,265492
1.2805,0.2835,38.9300,67,97,265495
1.2659,0.2786,39.0600,67,97,265498
1.2903,0.2737,39.0900,67,97,265502
1.3196,0.2786,39.0600,67,97,265505
1.3294,0.2786,39.0600,67,97,265508
1.3636,0.2786,39.0000,67,97,265511
1.3441,0.2835,39.0900,67,97,265516
1.3734,0.2786,39.1200,67,97,265519
1.3930,0.2884,39.0300,67,97,265522
1.3832,0.2786,39.0600,67,97,265526
1.4174,0.2835,38.8400,67,97,265529
1.4125,0.2786,38.9600,67,97,265532
1.4076,0.2786,39.0900,67,97,265536
1.4272,0.2884,39.0000,67,97,265539
1.4174,0.2786,39.0900,67,97,265542
1.4761,0.2884,38.9300,67,97,265546
1.4467,0.2786,39.0000,67,97,265549
1.4614,0.2737,39.1200,67,97,265552
1.4663,0.2835,39.1200,67,97,265555
1.4809,0.2737,39.0600,67,97,265560
1.5347,0.2981,38.8700,67,97,265563
1.4956,0.2786,39.0600,67,97,265566
1.5054,0.2688,39.0300,67,97,265570
1.5005,0.2835,39.0600,67,97,265573
1.4956,0.2786,39.0900,67,97,265578
1.5005,0.2786,39.1200,67,97,265581
1.5103,0.2933,38.9300,67,97,265584
1.4761,0.2786,39.0900,67,97,265588
1.5005,0.2835,38.9600,67,97,265591
1.4858,0.2835,39.0300,67,97,265594
1.5005,0.2786,39.0900,67,97,265598
1.5200,0.2835,38.9600,67,97,265602
1.5152,0.2835,39.0900,67,97,265605
1.5543,0.2835,38.8700,67,97,265608
1.5200,0.2786,39.0000,67,97,265612
1.5298,0.2786,38.9600,67,97,265615
1.5591,0.2884,39.0300,67,97,265618
1.5494,0.2688,39.0900,67,97,265622
1.5982,0.2884,38.8700,67,97,265625
1.5640,0.2737,39.0600,67,97,265628
1.5934,0.2688,39.1200,67,97,265632
1.5934,0.2835,38.9600,67,97,265635
1.5982,0.2688,39.1200,67,97,265638
1.6471,0.2981,38.8400,67,97,265641
1.6178,0.2786,39.0300,67,97,265646
1.6178,0.2737,39.0300,67,97,265649
1.6178,0.2786,39.0600,67,97,265652
1.6373,0.2786,39.0900,67,97,265656
1.6764,0.2884,38.9300,67,97,265659
1.6471,0.2786,39.0300,67,97,265662
1.6618,0.2786,39.0000,67,97,265666
1.6520,0.2786,39.0900,67,97,265669
1.6667,0.2786,39.3200,67,97,265672
1.6960,0.2884,39.0000,67,97,265676
1.6813,0.2786,39.0900,67,97,265679
1.7107,0.3030,38.9300,67,97,265682
1.6813,0.2835,39.0600,67,97,265686
1.6960,0.2786,39.0900,67,97,265690
1.7155,0.2835,39.0900,67,97,265693
1.7204,0.2835,39.0900,67,97,265696
1.7644,0.2786,39.0000,67,97,265700
1.7351,0.2786,39.0900,67,97,265703
1.7498,0.2786,39.0600,67,97,265706
1.7889,0.2884,39.0000,67,97,265710
1.7546,0.2786,39.0900,67,97,265713
1.7937,0.2835,39.0000,67,97,265716
1.7742,0.3079,38.9600,67,97,265719
1.7840,0.2786,39.0900,67,97,265723
1.7889,0.2884,39.2500,67,97,265726
1.7693,0.2786,39.0900,67,97,265730
1.8133,0.2884,38.8100,67,97,265734
1.7791,0.2835,39.0300,67,97,265737
1.7889,0.2786,39.0900,67,97,265740
1.7937,0.2835,39.0600,67,97,265744
1.7840,0.2786,39.0900,67,97,265747
1.8328,0.2933,38.8100,67,97,265750
1.7889,0.2786,39.0900,67,97,265753
1.7937,0.2737,39.0300,67,97,265757
1.7840,0.2786,39.0600,67,97,265760
1.7840,0.2786,39.1900,67,97,265763
1.8328,0.3275,38.9000,67,97,265767
1.8084,0.2835,39.0600,67,97,265771
1.7986,0.2786,39.0000,67,97,265774
1.7840,0.2786,39.0300,67,97,265778
1.7937,0.2737,39.0600,67,97,265781
1.8280,0.2884,38.9000,67,97,265784
1.8084,0.2786,38.9600,67,97,265787
1.8426,0.3079,38.9300,67,97,265791
1.8524,0.2786,39.0900,67,97,265794
1.8817,0.2786,39.0600,67,97,265797
1.9208,0.2884,39.0300,67,97,265801
1.9208,0.2786,39.0900,67,97,265804
1.9648,0.2884,38.9600,67,97,265807
1.9208,0.2835,39.1200,67,97,265811
1.9306,0.2786,39.0600,67,97,265815
1.9404,0.2835,39.0900,67,97,265818
1.9453,0.2786,39.0900,67,97,265821
1.9892,0.2835,38.9000,67,97,265825
1.9648,0.2688,39.0900,67,97,265828
1.9648,0.2786,39.0900,67,97,265831
1.9501,0.2884,39.1200,67,97,265835
1.9062,0.2786,39.1200,67,97,265838
1.9404,0.2884,38.8400,67,97,265841
1.8964,0.2835,39.0600,67,97,265845
1.8866,0.2786,39.0900,67,97,265848
1.8866,0.2884,39.0300,67,97,265851
1.8719,0.2835,39.0900,67,97,265856
1.9159,0.2688,38.8100,67,97,265859
1.8328,0.2786,38.9600,67,97,265862
1.8377,0.2737,39.0900,67,97,265865
1.7693,0.2786,39.0600,67,97,265869
1.7449,0.2786,38.5200,67,97,265872
1.7742,0.2884,38.8700,67,97,265875
1.7058,0.2835,39.3200,67,97,265879
1.7009,0.2737,39.0000,67,97,265882
1.6716,0.2737,39.1200,67,97,265885
1.6716,0.2786,39.1200,67,97,265889
1.7253,0.2933,39.0000,67,97,265892
1.6862,0.2786,39.0600,67,97,265895
1.7107,0.2835,38.9600,67,97,265899
1.6960,0.2786,39.0600,67,97,265903
1.7009,0.2688,39.0600,67,97,265906
1.7351,0.2884,38.9600,67,97,265909
1.7204,0.3079,39.1200,67,97,265913
1.7498,0.2884,39.0000,67,97,265916
1.7400,0.2737,39.0600,67,97,265919
1.7595,0.2786,39.1900,67,97,265923
1.7742,0.2835,39.0000,67,97,265926
1.7742,0.2786,39.1200,67,97,265929
1.8133,0.2737,38.9000,67,97,265933
1.7840,0.2786,39.0600,67,97,265936
1.7986,0.2786,38.3600,67,97,265939
1.8133,0.3128,39.0600,67,97,265943
1.8182,0.2786,39.0900,67,97,265947
1.8573,0.2884,38.8400,67,97,265950
1.8328,0.2786,39.0900,67,97,265953
1.7693,0.2786,39.0900,67,97,265957
1.7058,0.2835,39.0300,67,97,265960
1.6471,0.2737,39.0900,67,97,265963
1.7009,0.2884,38.8100,67,97,265967
1.8084,0.2835,38.8400,67,97,265970
2.1408,0.2981,39.0300,67,97,265973
2.6882,0.2835,39.0600,67,97,265976
3.4066,0.2786,39.0300,67,97,265980
4.1838,0.3079,38.9000,67,97,265984
4.5455,0.2884,39.0300,67,97,265987
4.7458,0.2786,39.0000,67,97,265991
4.7752,0.2786,39.0900,67,97,265994
4.5259,0.2884,39.0900,67,97,265997
3.9834,0.2884,38.9300,67,97,266001
3.1525,0.2835,39.0300,67,97,266004
2.4976,0.2737,38.9600,67,97,266007
1.9746,0.2786,39.0900,67,97,266010
1.6569,0.2786,39.1900,67,97,266014
1.4907,0.2933,39.0300,67,97,266017
1.3930,0.2786,39.0600,67,97,266020
1.3832,0.2884,38.7100,67,97,266024
1.3490,0.2786,39.0600,67,97,266028
1.3441,0.2786,39.0600,67,97,266031
1.3539,0.2884,39.0000,67,97,266035
1.3343,0.2688,39.0900,67,97,266038
1.3539,0.2786,38.9000,67,97,266041
1.3392,0.2786,39.4100,67,97,266045
1.3441,0.2835,39.0900,67,97,266048
1.3734,0.2884,39.0000,67,97,266051
1.3783,0.2835,39.0900,67,97,266054
1.4418,0.2884,38.9300,67,97,266058
1.4223,0.2786,39.0300,67,97,266061
1.4516,0.3275,39.0900,67,97,266064
1.4761,0.2688,39.0600,67,97,266068
1.5005,0.2786,39.0900,67,97,266072
1.5689,0.2884,38.8100,67,97,266075
1.5494,0.2835,39.0300,67,97,266079
1.5787,0.2737,39.0900,67,97,266082
1.5934,0.2786,39.0600,67,97,266085
1.6129,0.2786,39.0900,67,97,266088
1.6716,0.2981,38.9000,67,97,266092
1.6422,0.2835,39.0300,67,97,266095
1.6618,0.2639,39.0600,67,97,266098
1.6716,0.2786,39.2200,67,97,266102
1.6960,0.2688,39.0900,67,97,266105
1.7546,0.2884,38.9300,67,97,266108
1.7400,0.2835,39.1900,67,97,266113
1.7742,0.2786,38.9600,67,97,266116
1.7742,0.2786,39.1200,67,97,266119
1.8035,0.2786,39.0900,67,97,266123
1.8377,0.2884,39.0300,67,97,266126
1.8328,0.2786,39.1200,67,97,266129
1.8719,0.2981,38.9600,67,97,266132
1.8573,0.2786,39.0900,67,97,266136
1.8768,0.2786,39.0000,67,97,266139
1.9013,0.2835,39.0300,67,97,266142
1.9159,0.2688,39.0600,67,97,266146
1.9599,0.2835,38.9000,67,97,266149
1.9404,0.2835,39.0900,67,97,266152
1.9697,0.2786,39.0900,67,97,266157
1.9990,0.2835,39.0600,67,97,266160
1.9990,0.2786,39.0600,67,97,266163
2.0577,0.2884,38.8400,67,97,266166
2.0479,0.2884,39.0300,67,97,266170
2.0479,0.2786,39.0900,67,97,266173
2.0772,0.2835,39.0300,67,97,266176
2.0870,0.2835,39.0900,67,97,266180
2.1505,0.2884,38.8100,67,97,266183
2.2825,0.2884,38.9300,67,97,266188
2.2239,0.2786,39.0600,67,97,266191
2.2581,0.2786,39.0300,67,97,266194
2.2385,0.2737,39.0900,67,97,266199
2.2630,0.2786,39.0900,67,97,266202
2.3118,0.2884,39.0300,67,97,266205
2.3069,0.2835,39.0600,67,97,266208
2.3998,0.2786,38.9300,67,97,266212
2.3509,0.2786,39.0600,67,97,266215
2.3803,0.2786,39.0900,67,97,266218
2.4536,0.2884,38.9600,67,97,266222
2.4194,0.2786,39.1200,67,97,266225
2.4731,0.2835,38.9600,67,97,266228
2.4438,0.2786,39.0300,67,97,266232
2.4536,0.2786,39.0900,67,97,266235
2.4780,0.2835,38.9300,67,97,266238
2.4487,0.2786,39.0600,67,97,266243
2.4829,0.2835,38.8700,67,97,266246
2.4145,0.2688,39.0600,67,97,266249
2.3656,0.2786,39.0900,67,97,266252
2.3216,0.2835,39.0900,67,97,266256
2.2483,0.2786,39.0300,67,97,266259
2.2336,0.2933,38.8100,67,97,266262
2.0968,0.2786,39.0300,67,97,266266
2.0186,0.3079,39.1200,67,97,266269
1.9550,0.2786,39.0900,67,97,266272
1.8377,0.2786,39.0900,67,97,266276
1.7986,0.3079,38.8100,67,97,266279
1.7155,0.2835,39.0000,67,97,266283
1.6031,0.2688,39.0600,67,97,266286
1.5396,0.2884,39.0300,67,97,266290
1.4809,0.2737,39.1900,67,97,266293
1.4663,0.2688,38.9300,67,97,266296
1.3978,0.2981,39.0600,67,97,266300
1.3978,0.2835,39.0000,67,97,266303
1.3490,0.2786,39.0900,67,97,266306
1.3441,0.2786,39.0900,67,97,266310
1.3587,0.2884,38.9600,67,97,266313
1.3441,0.2786,39.0900,67,97,266316
1.3734,0.2835,38.9300,67,97,266319
1.3539,0.2786,39.0900,67,97,266323
1.3636,0.2786,39.1600,67,97,266327
1.4174,0.2835,39.0600,67,97,266330
1.3930,0.2786,39.0900,67,97,266334
1.4321,0.2786,38.9600,67,97,266337
1.4223,0.2688,39.0900,67,97,266340
1.4467,0.2786,39.0900,67,97,266344
1.4712,0.3079,38.9600,67,97,266347
1.4614,0.2786,39.0900,67,97,266350
1.5054,0.2835,38.8700,67,97,266354
1.5054,0.2835,39.0600,67,97,266357
1.5152,0.2737,39.1900,67,97,266360
1.5396,0.2884,39.0300,67,97,266363
1.5396,0.2688,39.0900,67,97,266368
1.5982,0.2933,38.8400,67,97,266371
1.5543,0.2786,38.9600,67,97,266374
1.5787,0.2786,39.0900,67,97,266378
1.5836,0.2835,39.0900,67,97,266381
1.5934,0.2786,39.0900,67,97,266384
1.6520,0.2981,38.8400,67,97,266388
1.6276,0.2835,39.0300,67,97,266391
1.6325,0.2737,39.0000,67,97,266394
1.6373,0.2884,39.1900,67,97,266397
1.6422,0.2786,38.4900,67,97,266401
1.6911,0.3079,38.9300,67,97,266404
1.6716,0.2835,39.0600,67,97,266407
1.6862,0.2786,38.9600,67,97,266412
1.6716,0.2786,39.1900,67,97,266415
1.6813,0.2786,39.0900,67,97,266418
1.7155,0.2884,38.9300,67,97,266422
1.6862,0.2835,39.0600,67,97,266425
1.7107,0.2835,38.9300,67,97,266428
1.6911,0.2786,39.0600,67,97,266432
1.7058,0.2835,39.0900,67,97,266435
1.7253,0.2786,39.0000,67,97,266438
1.7253,0.2786,39.0000,67,97,266441
1.7546,0.2835,38.9300,67,97,266445
1.7253,0.2786,39.0600,67,97,266448
1.7302,0.2786,39.1600,67,97,266451
1.7400,0.2884,38.9300,67,97,266456
1.7302,0.2786,39.0900,67,97,266459
1.7693,0.2688,38.8700,67,97,266462
1.7351,0.2786,39.0900,67,97,266466
1.7840,0.2835,39.0900,67,97,266469
1.7644,0.2835,39.0600,67,97,266472
1.7546,0.2737,39.0900,67,97,266475
1.8426,0.2884,38.8400,67,97,266479
1.7889,0.2835,39.0000,67,97,266482
1.7840,0.2786,39.3200,67,97,266485
1.7937,0.2835,39.0600,67,97,266489
1.7937,0.2786,39.0900,67,97,266492
1.8475,0.3030,38.8700,67,97,266496
1.8133,0.2835,39.0000,67,97,266500
1.8084,0.2737,39.0300,67,97,266503
1.8084,0.2835,39.0300,67,97,266506
1.8035,0.2835,39.1200,67,97,266509
1.8475,0.2933,38.9300,67,97,266513
1.8182,0.2835,39.0900,67,97,266516
1.8231,0.2737,38.9600,67,97,266519
1.8084,0.2786,39.0900,67,97,266523
1.8133,0.2786,39.0600,67,97,266526
1.8426,0.2884,39.0000,67,97,266529
1.8182,0.2786,39.0600,67,97,266533
1.8426,0.2835,39.0000,67,97,266536
1.8182,0.2737,39.0600,67,97,266540
1.8328,0.2688,39.0900,67,97,266544
1.8622,0.2884,38.9600,67,97,266547
1.8426,0.2835,39.0900,67,97,266550
1.8671,0.2786,38.9600,67,97,266553
1.8328,0.2786,39.0600,67,97,266557
1.8524,0.2737,39.0600,67,97,266560
1.8622,0.2835,39.1600,67,97,266563
1.8671,0.2786,39.0600,67,97,266567
1.8964,0.2835,38.8700,67,97,266570
1.8573,0.2786,39.0600,67,97,266573
1.8573,0.2786,39.0900,67,97,266577
1.8817,0.2884,39.0300,67,97,266580
1.8622,0.2786,39.0600,67,97,266584
1.9110,0.2933,38.8400,67,97,266587
1.8622,0.2786,39.0300,67,97,266591
1.8671,0.2786,39.0300,67,97,266594
1.8622,0.2884,39.0600,67,97,266597
1.8573,0.2786,39.0600,67,97,266601
1.9110,0.3177,38.8400,67,97,266604
1.8671,0.2835,39.0300,67,97,266607
1.8622,0.2737,39.0000,67,97,266611
1.8671,0.2835,39.0600,67,97,266614
1.8768,0.2786,39.1200,67,97,266617
1.9306,0.3128,38.9000,67,97,266621
1.9159,0.2835,39.0600,67,97,266625
1.9306,0.2786,39.0900,67,97,266628
1.9159,0.2737,39.0900,67,97,266631
1.9306,0.2786,39.0900,67,97,266635
1.9550,0.2884,39.0000,67,97,266638
1.9453,0.2786,39.1200,67,97,266641
1.9844,0.3177,38.9300,67,97,266645
1.9501,0.2786,39.1200,67,97,266648
1.9599,0.2737,39.0900,67,97,266651
1.9746,0.2835,39.0600,67,97,266655
1.9697,0.2786,39.0900,67,97,266658
2.0039,0.2786,38.9000,67,97,266661
1.9844,0.2786,39.1200,67,97,266664
1.9697,0.2786,39.0900,67,97,266669
1.9795,0.3128,39.0000,67,97,266672
1.9550,0.2786,39.1200,67,97,266675
1.9892,0.2835,38.9600,67,97,266679
1.9648,0.3177,39.0000,67,97,266682
1.9599,0.2786,39.1200,67,97,266685
1.9697,0.3079,39.0600,67,97,266689
1.9550,0.2737,39.0900,67,97,266692
2.0381,0.2884,38.9300,67,97,266695
1.9550,0.2786,39.0600,67,97,266699
1.9599,0.2786,39.0900,67,97,266702
1.9648,0.2835,39.0300,67,97,266705
1.9550,0.2786,39.0900,67,97,266708
2.0039,0.2981,38.8700,67,97,266713
1.9501,0.2786,39.0000,67,97,266716
1.9404,0.2737,39.0300,67,97,266719
1.9355,0.2835,39.0600,67,97,266723
1.9648,0.2786,39.0600,67,97,266726
1.9844,0.2981,38.9300,67,97,266729
1.9453,0.2835,39.0300,67,97,266733
1.9599,0.2786,38.9600,67,97,266736
1.9404,0.2786,39.0900,67,97,266739
1.9453,0.3030,39.0900,67,97,266742
1.9697,0.2933,38.9300,67,97,266746
1.9404,0.2786,39.0300,67,97,266749
1.9599,0.3079,38.9300,67,97,266753
1.9208,0.2786,39.0900,67,97,266757
1.9355,0.2786,39.0900,67,97,266760
1.9501,0.2835,39.0000,67,97,266763
1.9404,0.2688,39.0900,67,97,266767
1.9746,0.2786,38.9600,67,97,266770
1.9355,0.2786,39.1200,67,97,266773
1.9599,0.2688,39.0900,67,97,266776
1.9795,0.2835,39.0000,67,97,266780
1.9844,0.2786,39.0600,67,97,266783
2.0430,0.2786,38.9000,67,97,266786
2.0332,0.2786,39.1600,67,97,266790
2.0577,0.2835,39.0900,67,97,266793
2.0870,0.2786,39.0600,67,96,266797
2.0674,0.2835,39.0300,67,96,266802
2.0626,0.2786,39.0900,67,96,266805
2.0919,0.2981,38.9000,67,96,266809
2.0283,0.2835,39.0900,67,96,266812
2.0088,0.2786,38.9600,67,96,266815
1.9892,0.2835,39.0300,67,96,266818
1.9844,0.2786,39.1200,67,96,266822
2.0235,0.2884,38.9300,67,96,266825
2.0088,0.2835,39.0300,67,96,266828
2.0235,0.2688,39.0300,67,96,266832
1.9892,0.2786,39.0600,67,96,266835
1.9697,0.2835,39.1900,67,96,266839
1.9599,0.2884,39.0900,67,96,266843
1.9110,0.2786,39.0900,67,96,266846
1.9110,0.2884,38.9600,67,96,266849
1.8573,0.2786,39.0600,67,96,266852
1.8426,0.2786,39.0600,67,96,266856
1.8524,0.3226,38.9600,67,96,266859
1.8133,0.2786,39.0600,67,96,266862
1.8426,0.2835,38.9000,67,96,266866
1.8475,0.2786,39.0000,67,96,266869
1.8328,0.2688,39.0900,67,96,266872
1.8426,0.2835,38.9600,67,96,266876
1.8231,0.2737,39.0600,67,96,266880
1.8573,0.2884,38.9000,67,96,266883
1.8133,0.2835,39.0900,67,96,266887
1.8133,0.2786,39.1900,67,96,266890
1.8231,0.2884,39.0600,67,96,266893
1.7986,0.2786,39.0900,67,96,266896
1.8426,0.2835,38.8100,67,96,266900
1.8035,0.2786,39.1600,67,96,266903
1.8084,0.2737,39.0900,67,96,266906
1.8426,0.2835,39.0600,67,96,266910
1.8231,0.2786,39.0900,67,96,266913
1.8915,0.2933,38.8700,67,96,266916
1.8426,0.2688,39.0300,67,96,266920
1.8475,0.2786,39.0000,67,96,266924
1.8524,0.2786,39.0900,67,96,266927
1.8182,0.2786,39.0900,67,96,266930
1.8133,0.2884,39.0300,67,96,266934
1.7302,0.2835,39.0600,67,96,266937
1.6911,0.2835,38.9600,67,96,266940
1.6422,0.2835,39.0300,67,96,266944
1.7498,0.2737,39.0600,67,96,266947
2.0674,0.2884,39.0000,67,96,266950
2.5562,0.2786,39.0600,67,96,266954
3.3040,0.2884,38.9600,67,96,266957
3.9638,0.2786,39.0900,67,96,266960
4.4379,0.2786,39.0900,67,96,266964
4.7116,0.2835,38.9300,67,96,266968
4.8240,0.2835,39.0600,67,96,266971
4.6970,0.2688,38.9000,67,96,266974
4.1056,0.2786,39.1600,67,96,266978
3.3627,0.2835,39.0600,67,96,266981
2.6686,0.2884,39.0600,67,96,266984
2.1017,0.2786,39.0300,67,96,266988
1.7742,0.2933,38.8700,67,96,266991
1.5298,0.2884,39.0000,67,96,266994
1.4125,0.2786,39.1600,67,96,266998
1.3734,0.2688,39.0000,67,96,267001
1.3539,0.2786,39.1600,67,96,267004
1.3978,0.2933,38.8100,67,96,267008
1.3636,0.2786,39.0000,67,96,267012
1.3734,0.2835,39.0900,67,96,267015
1.3636,0.2835,39.0300,67,96,267018
1.3587,0.2786,39.1200,67,96,267022
1.4027,0.2933,38.8700,67,96,267025
1.3832,0.2884,39.0600,67,96,267028
1.3930,0.2786,39.0000,67,96,267032
1.3930,0.2835,39.0600,67,96,267035
1.4125,0.2786,39.0900,67,96,267038
1.4516,0.2884,38.9600,67,96,267042
1.4712,0.2786,39.0600,67,96,267045
1.4907,0.2688,38.9600,67,96,267048
1.4907,0.2737,39.1200,67,96,267052
1.5249,0.2835,39.0900,67,96,267056
1.5787,0.2933,38.9600,67,96,267059
1.5787,0.2786,39.0600,67,96,267062
1.6325,0.2835,39.0600,67,96,267066
1.6276,0.2884,39.0300,67,96,267069
1.6911,0.2737,39.1900,67,96,267072
1.6911,0.2835,39.0000,67,96,267076
1.7009,0.2835,39.0900,67,96,267079
1.7449,0.2884,38.9300,67,96,267082
1.7302,0.2786,39.0600,67,96,267086
1.7546,0.2835,39.0600,67,96,267089
1.7889,0.2884,39.0000,67,96,267092
1.7889,0.2786,39.0900,67,96,267096
1.8426,0.2981,38.8100,67,96,267100
1.8133,0.2688,39.0300,67,96,267103
1.8328,0.2786,39.1200,67,96,267106
1.8524,0.2786,39.0600,67,96,267110
1.8524,0.2786,39.0900,67,96,267113
1.9159,0.2981,38.8700,67,96,267116
1.8964,0.2786,39.0000,67,96,267120
1.9013,0.2688,39.0900,67,96,267123
1.9110,0.2835,39.0900,67,96,267126
1.9257,0.2786,39.0600,67,96,267129
2.0039,0.2884,38.9000,67,96,267133
1.9697,0.2884,39.0000,67,96,267137
1.9746,0.2786,39.0000,67,96,267140
1.9697,0.2786,39.0900,67,96,267144
1.9844,0.2835,39.0600,67,96,267147
2.0332,0.2884,38.9600,67,96,267150
2.0235,0.2835,39.0900,67,96,267154
2.0528,0.2835,38.9600,67,96,267157
2.0430,0.2786,39.0900,67,96,267160
2.0723,0.2786,39.0300,67,96,267163
2.1114,0.2933,39.0600,67,96,267167
2.1212,0.2786,39.0600,67,96,267170
2.1701,0.2884,38.9600,67,96,267173
2.1750,0.2786,39.0600,67,96,267177
2.1896,0.2786,39.0900,67,96,267181
2.2287,0.2884,39.0000,67,96,267184
2.2190,0.3226,39.1200,67,96,267188
2.2923,0.2835,38.9300,67,96,267191
2.2678,0.2786,39.0000,67,96,267194
2.2923,0.2786,39.0600,67,96,267197
2.3509,0.2884,38.9600,67,96,267201
2.3460,0.2786,39.0900,67,96,267204
2.4145,0.2835,38.8700,67,96,267207
2.3900,0.2835,39.0600,67,96,267211
2.4145,0.2835,39.0600,67,96,267214
2.4536,0.2933,39.0300,67,96,267217
2.4340,0.2786,39.0600,67,96,267222
2.5024,0.2933,38.9000,67,96,267225
2.4487,0.2786,39.0300,67,96,267228
2.4585,0.2688,39.0900,67,96,267231
2.4536,0.2835,39.1200,67,96,267235
2.4731,0.2786,39.0900,67,96,267238
2.4829,0.3030,38.8400,67,96,267241
2.3900,0.2835,38.9600,67,96,267245
2.3363,0.2835,39.0600,67,96,267248
2.2776,0.2835,39.0600,67,96,267251
2.2043,0.2786,39.0900,67,96,267255
2.1750,0.2981,38.9000,67,96,267258
2.0528,0.2835,39.0300,67,96,267261
1.9746,0.2786,38.9600,67,96,267265
1.8768,0.2835,39.0600,67,96,267269
1.7986,0.2786,39.0900,67,96,267272
1.7546,0.2884,38.6500,67,96,267275
1.6618,0.2786,39.0600,67,96,267279
1.6080,0.2688,39.0000,67,96,267282
1.5200,0.2786,39.0600,67,96,267285
1.4712,0.2786,39.1200,67,96,267289
1.4467,0.2786,39.0300,67,96,267292
1.3930,0.2786,39.1200,67,96,267295
1.3930,0.2835,38.6800,67,96,267298
1.3539,0.2737,39.0600,67,96,267302
1.3539,0.2786,39.1200,67,96,267305
1.3783,0.2933,38.9600,67,96,267309
1.3539,0.2786,39.0900,67,96,267313
1.3832,0.2933,38.9000,67,96,267316
1.3685,0.2835,39.0000,67,96,267319
1.3783,0.2786,39.0600,67,96,267323
1.4027,0.2884,39.0000,67,96,267326
1.4076,0.2786,39.0900,67,96,267329
1.4565,0.2884,38.8700,67,96,267333
1.4272,0.2835,39.0300,67,96,267336
1.4467,0.2688,39.0900,67,96,267339
1.4663,0.2835,39.0900,67,96,267342
1.4712,0.2835,39.0900,67,96,267346
1.5445,0.2981,38.8400,67,96,267350
1.5249,0.2884,39.0000,67,96,267353
1.5396,0.2737,39.0300,67,96,267357
1.5396,0.2835,39.0600,67,96,267360
1.5543,0.3079,39.0900,67,96,267363
1.5982,0.2933,38.9300,67,96,267367
1.5836,0.2835,39.0600,67,96,267370
1.5934,0.2786,38.9600,67,96,267373
1.5885,0.2786,39.0900,67,96,267377
1.6031,0.2737,39.0000,67,96,267380
1.6422,0.2835,38.9000,67,96,267383
1.6276,0.2835,39.0600,67,96,267386
1.6569,0.2835,38.9300,67,96,267390
1.6520,0.2786,39.0900,67,96,267394
1.6471,0.2786,39.1200,67,96,267397
1.6764,0.2981,38.9600,67,96,267401
1.7009,0.2737,39.0900,67,96,267404
1.7107,0.2688,38.9600,67,96,267407
1.6862,0.2786,38.8700,67,96,267411
1.7107,0.2737,39.1200,67,96,267415
1.7155,0.2933,39.0900,67,96,267418
1.7253,0.2884,39.0300,67,96,267422
1.7058,0.2786,39.0600,67,96,267425
1.7498,0.2884,38.7700,67,96,267428
1.7400,0.2786,39.0000,67,96,267432
1.7155,0.2737,39.0600,67,96,267436
1.7204,0.3177,39.0600,67,96,267439
1.7204,0.2688,39.0900,67,96,267443
1.7742,0.2981,38.9000,67,96,267446
1.7302,0.3177,39.0300,67,96,267449
1.7302,0.2737,39.0000,67,96,267452
1.7253,0.2786,39.0900,67,96,267456
1.7351,0.2786,39.1200,67,96,267459
1.7693,0.2933,38.9300,67,96,267462
1.7498,0.2835,39.0600,67,96,267466
1.7595,0.2786,39.0300,67,96,267469
1.7449,0.2933,39.0300,67,96,267472
1.7595,0.2786,38.8100,67,96,267476
1.7840,0.2786,39.0600,67,96,267480
1.8084,0.2835,39.0600,67,96,267483
1.8084,0.2835,38.9300,67,96,267486
1.7693,0.2786,39.0000,67,96,267490
1.7742,0.2835,39.0900,67,96,267493
1.8035,0.2884,38.9600,67,96,267496
1.7742,0.2786,39.0600,67,96,267500
1.7986,0.2786,38.9300,67,96,267503
1.7693,0.2786,39.0000,67,96,267506
1.7693,0.2786,39.1200,67,96,267510
1.7889,0.2884,39.0300,67,96,267513
1.7791,0.2786,39.0900,67,96,267516
1.8182,0.2835,38.8400,67,96,267521
1.7840,0.2835,39.1200,67,96,267524
1.7937,0.2786,39.0900,67,96,267527
1.8084,0.2835,39.0300,67,96,267530
1.8035,0.2786,39.0900,67,96,267534
1.8524,0.2884,38.8400,67,96,267537
1.8084,0.2737,39.0000,67,96,267540
1.8231,0.2786,39.0900,67,96,267544
1.8231,0.2835,39.0600,67,96,267547
1.8231,0.2786,39.0900,67,96,267550
1.8915,0.2981,38.8400,67,96,267554
1.8573,0.2884,39.0300,67,96,267557
1.8573,0.2737,39.0300,67,96,267560
1.8475,0.2786,39.2500,67,96,267565
1.8426,0.2933,39.0900,67,96,267568
1.8768,0.2884,38.9300,67,96,267571
1.8475,0.3030,39.0300,67,96,267574
1.8671,0.2933,38.9600,67,96,267578
1.8426,0.2786,39.0900,67,96,267581
1.8524,0.2786,38.3300,67,96,267584
1.8719,0.2786,39.0000,67,96,267588
1.8671,0.2835,39.0600,67,96,267591
1.8964,0.2884,38.4900,67,96,267594
1.8671,0.2835,39.0900,67,96,267598
1.8622,0.2786,39.0900,67,96,267601
1.8817,0.2835,39.0000,67,96,267604
1.8719,0.2786,38.9600,67,96,267608
1.8915,0.2835,38.9000,67,96,267612
1.8573,0.2786,39.0900,67,96,267615
1.8573,0.3079,39.0900,67,96,267618
1.8671,0.2786,39.0300,67,96,267622
1.8426,0.2786,39.0900,67,96,267625
1.8768,0.2835,38.8700,67,96,267628
1.8524,0.2786,39.0000,67,96,267632
1.8475,0.2786,39.0600,67,96,267635
1.8573,0.2835,39.0600,67,96,267638
1.8475,0.2835,39.0900,67,96,267641
1.9062,0.2884,38.8100,67,96,267645
1.8622,0.3128,38.9600,67,96,267649
1.8671,0.2835,39.0900,67,96,267652
1.8768,0.2835,39.0900,67,96,267656
1.8719,0.2786,39.1200,67,96,267659
1.9404,0.2981,38.9300,67,96,267662
1.8817,0.2884,39.0000,67,96,267666
1.8719,0.2835,39.0000,67,96,267669
1.8573,0.2688,39.0000,67,96,267672
1.8622,0.2786,39.1200,67,96,267676
1.9159,0.2884,39.0300,67,96,267679
1.8768,0.2835,39.0600,67,96,267682
1.8964,0.2786,38.9600,67,96,267685
1.8768,0.2688,39.0600,67,96,267689
1.8915,0.2786,39.1200,67,96,267693
1.9257,0.2835,38.8400,67,96,267696
1.8964,0.2786,39.0900,67,96,267700
1.9257,0.2884,38.9000,67,96,267703
1.8866,0.2786,39.0600,67,96,267706
1.8915,0.2786,39.0900,67,96,267710
1.9013,0.2835,38.9600,67,96,267713
1.8915,0.2835,39.0600,67,96,267716
1.9355,0.2688,38.9300,67,96,267719
1.9110,0.2786,39.0300,67,96,267723
1.9355,0.2786,39.0900,67,96,267726
1.9404,0.2884,38.9300,67,96,267729
1.9208,0.2786,39.0300,67,96,267734
1.9697,0.3030,38.8400,67,96,267737
1.9306,0.2737,39.0600,67,96,267740
1.9501,0.2786,39.0900,67,96,267744
1.9648,0.3030,39.0600,67,96,267747
1.9746,0.2786,39.0900,67,96,267750
2.0479,0.2835,38.8100,67,96,267754
2.0283,0.2835,38.9600,67,96,267757
2.0430,0.2737,39.0900,67,96,267760
2.0674,0.2835,39.0600,67,96,267763
2.0723,0.2786,39.1600,67,96,267767
2.1310,0.3030,38.8700,67,96,267770
2.0772,0.2884,39.0000,67,96,267773
2.0723,0.2737,39.0300,67,96,267778
2.0821,0.2835,39.0300,67,96,267781
2.1017,0.2786,39.0300,67,96,267784
2.1603,0.2933,38.9000,67,96,267787
2.1212,0.2688,39.0600,67,96,267791
2.1163,0.2786,39.0600,67,96,267794
2.0772,0.2835,39.0600,67,96,267797
2.0772,0.2688,39.0900,67,96,267801
2.0968,0.2884,39.0000,67,96,267804
2.0674,0.2835,39.0600,67,96,267807
2.0870,0.2835,38.9300,67,96,267811
2.0479,0.2688,39.0900,67,96,267814
2.0332,0.2786,39.1200,67,96,267817
2.0283,0.2933,38.9600,67,96,267821
1.9599,0.2786,39.0600,67,96,267825
1.9648,0.2835,39.3800,67,96,267828
1.9013,0.2737,39.0300,67,96,267831
1.8817,0.2786,39.0900,67,96,267835
1.8768,0.2786,39.0300,67,96,267838
1.8622,0.2835,39.0900,67,96,267841
1.8768,0.2835,38.8400,67,96,267845
1.8328,0.2786,39.0600,67,96,267848
1.8328,0.2835,39.0900,67,96,267851
1.8524,0.2884,39.0000,67,96,267854
1.8328,0.2786,39.0900,67,96,267858
1.8768,0.2884,38.9000,67,96,267862
1.8328,0.2688,39.0000,67,96,267865
1.8328,0.2786,39.0900,67,96,267869
1.8377,0.2835,39.1600,67,96,267872
1.8377,0.2786,39.0900,67,96,267875
1.8915,0.2933,39.1600,67,96,267879
1.8573,0.2786,39.0300,67,96,267882
1.8426,0.2737,39.0600,67,96,267885
1.8524,0.2981,39.0600,67,96,267889
1.8573,0.2786,39.0600,67,96,267892
1.9159,0.2933,38.8700,67,96,267895
1.9110,0.2786,39.0300,67,96,267898
1.8915,0.2786,39.0000,67,96,267902
1.8768,0.2786,39.2500,67,96,267906
1.8671,0.2737,39.0900,67,96,267909
1.8719,0.2884,38.9600,67,96,267913
1.8084,0.2835,39.0600,67,96,267916
1.7791,0.2835,38.9300,67,96,267919
1.7058,0.2786,39.3500,67,96,267923
1.7546,0.2786,39.0900,67,96,267926
1.9110,0.2786,39.0900,67,96,267929
2.2776,0.2786,39.1600,67,96,267933
2.9081,0.2737,38.9300,67,96,267936
3.6168,0.2884,39.0600,67,96,267939
4.2229,0.2786,39.2800,67,96,267942
4.6139,0.2933,39.0000,67,96,267947
4.7605,0.2786,39.0900,67,96,267950
4.8534,0.2835,38.8700,67,96,267953
4.5064,0.2981,38.9600,67,96,267957
3.8563,0.2786,39.0900,67,96,267960
3.1525,0.3177,39.0600,67,96,267963
2.4731,0.2786,39.0600,67,96,267967
2.0381,0.2933,38.8400,67,96,267970
1.6813,0.2786,39.0000,67,96,267973
1.5005,0.2835,39.0600,67,96,267976
1.4174,0.2786,39.0300,67,96,267980
1.3734,0.2786,39.1200,67,96,267983
1.4125,0.2981,38.8400,67,96,267986
1.3832,0.2835,39.0000,67,96,267991
1.3930,0.2737,39.0000,67,96,267994
1.3978,0.2786,39.0900,67,96,267997
1.4125,0.2786,39.2800,67,96,268001
1.4565,0.2884,38.9300,67,96,268004
1.4370,0.2786,39.0600,67,96,268007
1.4663,0.2786,38.9600,67,96,268011
1.4614,0.2786,39.1200,67,96,268014
1.4907,0.2786,39.0300,67,96,268017
1.5445,0.2688,38.9000,67,96,268020
1.6031,0.2835,38.9600,67,96,268025
1.6031,0.2688,39.0600,67,96,268028
1.6325,0.2835,38.9000,67,96,268033
1.6080,0.2737,39.0000,67,96,268036
1.6276,0.2835,39.0600,67,96,268039
1.6618,0.2688,39.0000,67,96,268043
1.6569,0.2786,39.1200,67,96,268046
1.7204,0.2884,39.0300,67,96,268049
1.7009,0.2688,39.0300,67,96,268053
1.7351,0.2786,39.0900,67,96,268056
1.7498,0.2835,39.0000,67,96,268059
1.7644,0.2786,39.0900,67,96,268062
1.8328,0.2933,38.8100,67,96,268066
1.8084,0.3030,39.0900,67,96,268069
1.8182,0.2835,39.0900,67,96,268072
1.8377,0.2835,39.0900,67,96,268077
1.8524,0.2786,39.0900,67,96,268080
1.9208,0.2981,38.9000,67,96,268083
1.9062,0.2835,39.1900,67,96,268087
1.9257,0.2786,38.9600,67,96,268090
1.9257,0.2786,39.0900,67,96,268093
1.9355,0.2786,39.1600,67,96,268097
1.9746,0.2933,38.9600,67,96,268100
1.9697,0.2835,38.4600,67,96,268103
2.0088,0.2835,38.9300,67,96,268106
1.9941,0.2835,39.0900,67,96,268110
2.0186,0.2786,39.0600,67,96,268113
2.0479,0.2786,38.9600,67,96,268116
2.0577,0.2884,39.0600,67,96,268121
2.1408,0.2835,38.9600,67,96,268124
2.0870,0.2786,39.0900,67,96,268127
2.1065,0.2786,39.1900,67,96,268131
2.1408,0.2933,39.0000,67,96,268134
2.1261,0.2786,39.0900,67,96,268137
2.1848,0.2835,38.5800,67,96,268140
2.1799,0.2737,39.0000,67,96,268144
2.1994,0.2688,39.0900,67,96,268147
2.2336,0.2884,39.0000,67,96,268150
2.2287,0.3030,39.0000,67,96,268154
2.2923,0.2884,38.8400,67,96,268157
2.2678,0.2786,39.0600,67,96,268161
2.2972,0.2786,39.0600,67,96,268165
2.3412,0.2884,38.9300,67,96,268168
2.3803,0.2786,39.0900,67,96,268171
2.4438,0.2884,38.8100,67,96,268174
2.4096,0.2835,39.0300,67,96,268178
2.4340,0.2737,39.0600,67,96,268181
2.4487,0.2786,39.0900,67,96,268184
2.4633,0.2933,39.1200,67,96,268188
2.5513,0.2884,38.8700,67,96,268191
2.4878,0.2835,39.0600,67,96,268194
2.4976,0.2737,38.9600,67,96,268198
2.4878,0.2786,39.0600,67,96,268201
2.4780,0.2786,39.0900,67,96,268205
2.5073,0.2884,39.0300,67,96,268208
2.4438,0.2835,39.0300,67,96,268212
2.4194,0.2786,38.9600,67,96,268215
2.3460,0.2786,39.1200,67,96,268218
2.2923,0.2786,39.0600,67,96,268222
2.2532,0.2884,39.0000,67,96,268225
2.1603,0.2786,39.0600,67,96,268228
2.1065,0.2835,38.9300,67,96,268232
1.9844,0.2737,39.0900,67,96,268235
1.9013,0.2737,39.0900,67,96,268238
1.8280,0.2884,38.9600,67,96,268241
1.7498,0.2786,39.0900,67,96,268246
1.7107,0.2786,38.9000,67,96,268249
1.6276,0.2786,39.0600,67,96,268252
1.5934,0.2786,39.1200,67,96,268256
1.5494,0.2884,39.1200,67,96,268259
1.5005,0.2786,39.0600,67,96,268262
1.5054,0.2835,38.8700,67,96,268266
1.4663,0.2835,38.9000,67,96,268269
1.4565,0.2737,39.0600,67,96,268272
1.4614,0.2884,39.0000,67,96,268276
1.4516,0.2786,39.0900,67,96,268279
1.5005,0.2981,38.8100,67,96,268282
1.4663,0.2786,38.9600,67,96,268285
1.4809,0.2737,39.1200,67,96,268290
1.4956,0.2688,39.0600,67,96,268293
1.4809,0.2786,38.9300,67,96,268296
1.5494,0.2981,38.8700,67,96,268300
1.5200,0.2884,39.0000,67,96,268303
1.5494,0.2737,39.1200,67,96,268306
1.5543,0.2835,39.0600,67,96,268310
1.5689,0.2786,39.0900,67,96,268313
1.6178,0.2884,38.9300,67,96,268316
1.6129,0.2835,39.0600,67,96,268319
1.6373,0.2786,38.9600,67,96,268323
1.6325,0.2835,39.1200,67,96,268326
1.6520,0.2688,39.0900,67,96,268329
1.6862,0.2884,38.9300,67,96,268334
1.6667,0.2835,39.0600,67,96,268337
1.7107,0.2884,39.0000,67,96,268340
1.6764,0.2786,39.0600,67,96,268344
1.7009,0.2786,39.1900,67,96,268347
1.7204,0.2786,39.0000,67,96,268350
1.7204,0.2786,39.0600,67,96,268353
1.7595,0.2786,38.9300,67,96,268357
1.7302,0.2786,39.0600,67,96,268360
1.7400,0.2835,39.0900,67,96,268363
1.7644,0.2884,38.9600,67,96,268367
1.7546,0.2786,39.1900,67,96,268370
1.7937,0.2786,38.8400,67,96,268374
1.7644,0.2737,39.2800,67,96,268378
1.7840,0.2737,39.0900,67,96,268381
1.7986,0.2884,39.0900,67,96,268384
1.7889,0.2884,39.0900,67,96,268388
1.8426,0.2933,38.8400,67,96,268391
1.8182,0.2835,38.9600,67,96,268394
1.8084,0.2688,39.1200,67,96,268397
1.8133,0.2835,39.0300,67,96,268401
1.8133,0.2786,39.0900,67,96,268404
1.9062,0.2884,38.9300,67,96,268407
1.8280,0.2884,39.0000,67,96,268411
1.8231,0.2835,39.0600,67,96,268414
1.8133,0.2786,39.0600,67,96,268418
1.8182,0.2786,39.0600,67,96,268422
1.8573,0.2884,38.9300,67,96,268425
1.8328,0.2835,39.0600,67,96,268428
1.8426,0.2786,38.9000,67,96,268432
1.8328,0.2786,39.0900,67,96,268435
1.8133,0.2786,39.0900,67,96,268438
1.8280,0.2981,39.0600,67,96,268441
1.8377,0.2737,39.0600,67,96,268445
1.8377,0.2884,38.9600,67,96,268448
1.8035,0.2933,39.1200,67,96,268451
1.8426,0.2786,39.0900,67,96,268455
1.8280,0.2884,38.9600,67,96,268459
1.7986,0.2835,39.0600,67,96,268462
1.8231,0.2786,38.9000,67,96,268466
1.8084,0.2786,38.9600,67,96,268469
1.8133,0.3128,39.0900,67,96,268472
1.8377,0.2884,39.0000,67,96,268476
1.8280,0.2786,39.0900,67,96,268479
1.8719,0.2933,38.8400,67,96,268482
1.8328,0.2786,39.0600,67,96,268485
1.8377,0.2786,39.0900,67,96,268489
1.8475,0.2786,39.0300,67,96,268492
1.8377,0.2786,39.0900,67,96,268495
1.8915,0.2884,38.4600,67,96,268499
1.8377,0.2786,38.9600,67,96,268503
1.8426,0.2737,39.0600,67,96,268506
1.8328,0.2835,39.0600,67,96,268510
1.8280,0.2786,39.0900,67,96,268513
1.8719,0.2884,38.8400,67,96,268516
1.8280,0.2835,39.0300,67,96,268519
1.8280,0.2688,39.0000,67,96,268523
1.8084,0.2835,39.0600,67,96,268526
1.8133,0.2737,39.0900,67,96,268529
1.8426,0.2884,38.9300,67,96,268533
1.8133,0.2835,39.0600,67,96,268536
1.8328,0.2835,38.9600,67,96,268539
1.8133,0.2835,39.1200,67,96,268544
1.8231,0.2786,39.0600,67,96,268547
1.8426,0.2884,39.0300,67,96,268550
1.8280,0.2786,39.0600,67,96,268554
1.8475,0.2884,38.9600,67,96,268557
1.8084,0.2786,39.0900,67,96,268560
1.8133,0.2786,39.0600,67,96,268563
1.8280,0.2835,38.9600,67,96,268567
1.8328,0.2835,39.0600,67,96,268570
1.8426,0.2688,38.9300,67,96,268573
1.8182,0.2835,39.0600,67,96,268577
1.8377,0.2786,39.0900,67,96,268580
1.8475,0.2884,39.0000,67,96,268583
1.8280,0.2835,39.0300,67,96,268588
1.8964,0.2884,38.8400,67,96,268591
1.8524,0.2835,38.9600,67,96,268594
1.8377,0.2737,39.0900,67,96,268597
1.8524,0.2835,38.3000,67,96,268601
1.8524,0.2786,39.0600,67,96,268604
1.9110,0.2884,38.8100,67,96,268607
1.8671,0.2786,38.9300,67,96,268611
1.8671,0.2835,39.0600,67,96,268614
1.8719,0.2835,39.0600,67,96,268617
1.8719,0.2786,39.1200,67,96,268621
1.9257,0.2981,38.9000,67,96,268624
1.8915,0.2835,39.0300,67,96,268627
1.8866,0.2786,38.9000,67,96,268632
1.8622,0.2884,39.0600,67,96,268635
1.8475,0.2835,39.0600,67,96,268640
1.8377,0.2786,39.0900,67,96,268643
1.8524,0.2884,38.4000,67,96,268646
1.8426,0.2835,39.0600,67,96,268649
1.8573,0.2786,38.9000,67,96,268653
1.8426,0.2786,38.6500,67,96,268656
1.8475,0.2786,39.0900,67,96,268659
1.8768,0.2884,38.9600,67,96,268663
1.8817,0.2786,39.0000,67,96,268666
1.9501,0.2933,38.8400,67,96,268669
1.9306,0.2786,39.0300,67,96,268674
1.9501,0.2786,39.1200,67,96,268677
1.9697,0.2884,39.0300,67,96,268680
1.9648,0.2786,39.0900,67,96,268684
2.0137,0.2884,38.8100,67,96,268687
1.9844,0.2786,39.0000,67,96,268690
1.9941,0.2737,39.0600,67,96,268693
2.0137,0.3275,39.0900,67,96,268697
2.0186,0.2737,39.0600,67,96,268700
2.0821,0.2981,38.8700,67,96,268703
2.0186,0.2835,39.0000,67,96,268707
1.9990,0.2737,38.5200,67,96,268710
1.9746,0.2835,39.0600,67,96,268713
1.9648,0.2786,39.0900,67,96,268718
1.9941,0.2981,38.9000,67,96,268721
1.9550,0.2786,39.0600,67,96,268724
1.9599,0.2786,38.9600,67,96,268727
1.9110,0.2884,39.0600,67,96,268731
1.8866,0.2786,39.0600,67,96,268734
1.8524,0.2884,39.0600,67,96,268737
1.7986,0.2737,39.0600,67,96,268741
1.7791,0.2884,38.9600,67,96,268744
1.7155,0.2786,39.0900,67,96,268747
1.7107,0.2737,39.0600,67,96,268751
1.7058,0.2786,39.0000,67,96,268754
1.6911,0.2786,39.0900,67,96,268758
1.7107,0.2786,39.0900,67,96,268761
1.6813,0.2688,39.0600,67,96,268765
1.6813,0.2786,38.5800,67,96,268768
1.6911,0.2981,38.9600,67,96,268771
1.6716,0.2786,39.1600,67,96,268775
1.7302,0.2835,38.8400,67,96,268778
1.6862,0.2835,39.0000,67,96,268781
1.6764,0.2786,38.3000,67,96,268785
1.6911,0.2884,39.0300,67,96,268788
1.6911,0.2786,39.1900,67,96,268791
1.7498,0.2835,38.8100,67,96,268795
1.7155,0.2786,39.0900,67,96,268798
1.7253,0.2835,39.0600,67,96,268802
1.7693,0.2786,39.0600,67,96,268805
1.7351,0.2786,39.0600,67,96,268809
1.7937,0.2981,38.8400,67,96,268812
1.7889,0.2786,39.0300,67,96,268815
1.7693,0.2786,39.0000,67,96,268819
1.7400,0.2786,39.1200,67,96,268822
1.7155,0.2737,39.0900,67,96,268825
1.7009,0.2884,39.0000,67,96,268829
1.6227,0.2786,39.0600,67,96,268832
1.5982,0.2786,38.9300,67,96,268835
1.6227,0.2786,39.0600,67,96,268838
1.8280,0.2786,39.1600,67,96,268843
2.2630,0.2981,38.9000,67,96,268846
2.8446,0.2786,39.0900,67,96,268849
3.6657,0.2884,38.9600,67,96,268853
4.2131,0.2737,39.0300,67,96,268856
4.5650,0.2737,39.0900,67,96,268859
4.7898,0.2835,38.9600,67,96,268863
4.7312,0.2786,39.1200,67,96,268866
4.4184,0.2786,38.9000,67,96,268869
3.6852,0.2786,39.0600,67,96,268873
2.9277,0.2786,39.1900,67,96,268876
2.3265,0.2688,39.0000,67,96,268879
1.8622,0.2786,39.0600,67,96,268882
1.6080,0.2884,38.8700,67,96,268887
1.4125,0.2737,39.0600,67,96,268890
1.3587,0.2688,39.0900,67,96,268893
1.3343,0.2835,39.0600,67,96,268897
1.3294,0.2737,39.0600,67,96,268900
1.3685,0.2688,38.8100,67,96,268903
1.3343,0.2835,38.7700,67,96,268907
1.3343,0.2835,39.1200,67,96,268910
1.3392,0.2835,39.0900,67,96,268913
1.3441,0.2786,39.0600,67,96,268916
1.3978,0.2884,38.9000,67,96,268920
1.3734,0.2884,39.0000,67,96,268923
1.3832,0.2737,38.9600,67,96,268926
1.4272,0.2786,39.0900,67,96,268931
1.4125,0.2786,39.0900,67,96,268934
1.4663,0.2884,38.9000,67,96,268937
1.4663,0.2786,39.0300,67,96,268941
1.5005,0.2786,38.9600,67,96,268944
1.4907,0.2786,39.0900,67,96,268947
1.5200,0.2981,39.0600,67,96,268950
1.5640,0.2786,39.0600,67,96,268954
1.5738,0.2688,39.0600,67,96,268957
1.6178,0.2835,38.9300,67,96,268960
1.6373,0.2737,39.0900,67,96,268964
1.6520,0.2786,39.0900,67,96,268967
1.7009,0.2884,38.9600,67,96,268971
1.7009,0.3030,39.0600,67,96,268975
1.7449,0.2786,39.0000,67,96,268978
1.7400,0.2786,39.0300,67,96,268981
1.7595,0.2786,39.0900,67,96,268984
1.7889,0.2737,38.9000,67,96,268988
1.8084,0.2835,39.0600,67,96,268991
1.8475,0.2835,38.8700,67,96,268994
1.8280,0.2981,39.0300,67,96,268998
1.8475,0.2786,39.0900,67,96,269001
1.8817,0.2884,39.0300,67,96,269004
1.8768,0.2835,39.0300,67,96,269008
1.9404,0.2884,38.8100,67,96,269011
1.9159,0.2688,39.0000,67,96,269015
1.9306,0.2737,39.1600,67,96,269018
1.9404,0.2835,39.0600,67,96,269022
1.9550,0.2786,39.1200,67,96,269025
2.0235,0.2981,38.8400,67,96,269028
1.9844,0.2786,39.0000,67,96,269032
1.9941,0.2737,39.0300,67,96,269035
1.9990,0.2835,39.0600,67,96,269038
2.0039,0.2688,39.0600,67,96,269042
2.0577,0.2884,38.9000,67,96,269045
2.0283,0.2835,39.0300,67,96,269048
2.0430,0.2786,38.9600,67,96,269051
2.0674,0.2737,39.0900,67,96,269056
2.0626,0.2737,39.0900,67,96,269059
2.1017,0.2884,38.9600,67,96,269062
2.1017,0.2786,38.9300,67,96,269066
2.1505,0.2884,38.9300,67,96,269069
2.1457,0.2786,39.0900,67,96,269072
2.1799,0.2981,39.0600,67,96,269076
2.2239,0.2786,39.0300,67,96,269079
2.2336,0.2786,39.0900,67,96,269082
2.2923,0.2835,39.0000,67,96,269085
2.2923,0.2786,39.0900,67,96,269089
2.3265,0.2786,39.0900,67,96,269092
2.3754,0.2884,39.0000,67,96,269095
2.3656,0.2981,39.0900,67,96,269100
2.4194,0.2737,38.9000,67,96,269103
2.4047,0.2688,39.0000,67,96,269106
2.4145,0.2786,39.0600,67,96,269110
2.4438,0.2884,38.9300,67,96,269113
2.4291,0.2835,39.0900,67,96,269116
2.4878,0.2835,38.8700,67,96,269119
2.4291,0.2786,39.0300,67,96,269123
2.4242,0.2737,39.0600,67,96,269126
2.4242,0.2884,39.0600,67,96,269129
2.3803,0.2786,38.4000,67,96,269133
2.4096,0.2884,38.9600,67,96,269136
2.3118,0.2786,38.9600,67,96,269139
2.2532,0.2737,39.0300,67,96,269144
2.1799,0.2835,39.1200,67,96,269147
2.0968,0.2786,39.0600,67,96,269150
2.0723,0.2981,38.8400,67,96,269153
1.9404,0.2933,39.0300,67,96,269157
1.8475,0.2737,39.0300,67,96,269160
1.7595,0.3275,39.0900,67,96,269163
1.6813,0.2835,39.0600,67,96,269167
1.6373,0.2884,38.9000,67,96,269170
1.5396,0.2835,39.0300,67,96,269173
1.4907,0.2786,38.9600,67,96,269177
1.4223,0.2786,39.1200,67,96,269180
1.3783,0.2786,39.0600,67,96,269184
1.3539,0.2688,39.0300,67,96,269188
1.3245,0.2786,39.0600,67,96,269191
1.3245,0.2884,38.9300,67,96,269194
1.2952,0.2786,39.0600,67,96,269197
1.2854,0.2786,39.1600,67,96,269201
1.2903,0.2835,39.0000,67,96,269204
1.2903,0.2688,39.0900,67,96,269207
1.3148,0.2786,38.9600,67,96,269211
1.3050,0.2786,39.0900,67,96,269214
1.3294,0.2786,39.0900,67,96,269217
1.3539,0.2884,38.9300,67,96,269221
1.3490,0.2786,39.0900,67,96,269224
1.3978,0.2884,38.8700,67,96,269228
1.3978,0.2835,39.0300,67,96,269231
1.4027,0.2786,39.0600,67,96,269235
1.4321,0.2835,39.0300,67,96,269238
1.4370,0.2786,39.0600,67,96,269241
1.4907,0.2981,38.8100,67,96,269245
1.5396,0.2933,38.9600,67,96,269248
1.5298,0.2835,39.0600,67,96,269252
1.5494,0.2786,39.1600,67,96,269255
1.5396,0.2835,39.0600,67,96,269258
1.5543,0.2786,39.0600,67,96,269262
1.6129,0.2835,39.0600,67,96,269265
1.5982,0.2786,39.0600,67,96,269268
1.6325,0.2884,39.0300,67,96,269273
1.6325,0.2786,39.0600,67,96,269276
1.6520,0.2786,39.1200,67,96,269279
1.6813,0.3226,38.9000,67,96,269282
1.6716,0.2786,39.0900,67,96,269286
1.7009,0.2786,38.9300,67,96,269289
1.6862,0.2786,39.0000,67,96,269292
1.7155,0.2737,39.0600,67,96,269296
1.7204,0.2884,39.0600,67,96,269299
1.7155,0.2786,38.9600,67,96,269302
1.7595,0.2786,38.9300,67,96,269306
1.7155,0.2786,39.0600,67,96,269309
1.7253,0.2737,39.1200,67,96,269313
1.7498,0.2835,39.0000,67,96,269316
1.7351,0.2786,39.0900,67,96,269320
1.7840,0.2884,38.8400,67,96,269323
1.7400,0.2688,39.0000,67,96,269326
1.7449,0.2737,39.0900,67,96,269330
1.7351,0.2835,39.0000,67,96,269333
1.7204,0.2688,39.0600,67,96,269336
1.7742,0.2981,38.8700,67,96,269340
1.7400,0.2884,38.9000,67,96,269343
1.7302,0.2737,39.0300,67,96,269346
1.7204,0.2786,39.0900,67,96,269350
1.7155,0.2786,39.0300,67,96,269353
1.7693,0.2933,38.9000,67,96,269357
1.7302,0.2835,39.0300,67,96,269360
1.7400,0.2835,38.9300,67,96,269364
1.7204,0.2688,39.0600,67,96,269367
1.7204,0.2786,39.0900,67,96,269370
1.7400,0.2933,38.9600,67,96,269374
1.7302,0.2835,39.0900,67,96,269377
1.7546,0.2835,38.9600,67,96,269380
1.7204,0.2786,39.0900,67,96,269384
1.7253,0.2786,39.0600,67,96,269387
1.7302,0.2786,38.9600,67,96,269390
1.7253,0.2786,39.0900,67,96,269393
1.7498,0.2786,38.9000,67,96,269398
1.7204,0.2786,39.0600,67,96,269401
1.7302,0.2786,39.0900,67,96,269404
1.7449,0.2884,39.0600,67,96,269408
1.7351,0.2835,39.0600,67,96,269411
1.7595,0.2835,38.8700,67,96,269414
1.7351,0.2835,39.0300,67,96,269418
1.7351,0.2835,39.0900,67,96,269421
1.7595,0.2884,39.0000,67,96,269424
1.7498,0.2786,39.0900,67,96,269427
1.7986,0.2933,38.8100,67,96,269431
1.7546,0.2786,38.6500,67,96,269434
1.7644,0.2786,39.0900,67,96,269437
1.7791,0.2884,39.0300,67,96,269442
1.7742,0.2786,39.0600,67,96,269445
1.8328,0.2981,38.8400,67,96,269448
1.7986,0.2884,39.0000,67,96,269452
1.7937,0.2737,39.0600,67,96,269455
1.7791,0.2981,39.0600,67,96,269458
1.7742,0.2688,39.0900,67,96,269462
1.8182,0.2884,39.0000,67,96,269465
1.7840,0.2835,39.0000,67,96,269468
1.7937,0.2737,39.0000,67,96,269471
1.7791,0.2786,39.1900,67,96,269475
1.7889,0.2835,39.0600,67,96,269478
1.8280,0.2884,38.9300,67,96,269481
1.7937,0.2835,39.0600,67,96,269486
1.8231,0.2786,38.9300,67,96,269489
1.7840,0.2786,39.1200,67,96,269492
1.7840,0.2786,39.1200,67,96,269496
1.7986,0.2786,39.0000,67,96,269499
1.7889,0.2786,39.1600,67,96,269502
1.8182,0.2835,38.9600,67,96,269505
1.7693,0.2688,39.0600,67,96,269509
1.7791,0.2786,39.1600,67,96,269512
1.7889,0.2835,38.9300,67,96,269515
1.7693,0.2786,39.1900,67,96,269519
1.7986,0.3030,38.8700,67,96,269522
1.7498,0.2737,39.0600,67,96,269526
1.7498,0.2786,39.0900,67,96,269530
1.7546,0.2835,39.0600,67,96,269533
1.7400,0.2786,39.0600,67,96,269536
1.7937,0.2884,38.7700,67,96,269540
1.7644,0.3030,39.0300,67,96,269543
1.7889,0.2737,39.1200,67,96,269546
1.7595,0.2884,39.0600,67,96,269549
1.7546,0.2737,39.0600,67,96,269553
1.8035,0.2981,38.9000,67,96,269556
1.7546,0.3030,39.0300,67,96,269559
1.7498,0.2786,39.0000,67,96,269563
1.7449,0.2688,39.0600,67,96,269566
1.7449,0.2786,39.1900,67,96,269570
1.7791,0.2933,38.9300,67,96,269574
1.7546,0.2835,39.0600,67,96,269577
1.7742,0.2786,39.0900,67,96,269580
1.7498,0.2737,39.0600,67,96,269583
1.7546,0.2786,39.0900,67,96,269587
1.7791,0.2884,39.0300,67,96,269590
1.7644,0.2786,39.0600,67,96,269593
1.7937,0.2884,38.9300,67,96,269597
1.7742,0.2884,39.0600,67,96,269600
1.8182,0.2786,39.0600,67,96,269603
1.8426,0.2884,38.9300,67,96,269607
1.8328,0.2737,39.0600,67,96,269611
1.8866,0.2688,38.9300,67,96,269614
1.8817,0.2786,39.0600,67,96,269618
1.8964,0.2737,39.1200,67,96,269621
1.9208,0.2884,38.9600,67,96,269624
1.9013,0.2786,39.1200,67,96,269627
1.9501,0.2981,38.8700,67,96,269631
1.9306,0.2786,39.0900,67,96,269634
1.9501,0.2786,39.0900,67,96,269637
1.9697,0.2884,39.0300,67,96,269641
1.9404,0.2933,39.0900,67,96,269644
1.9795,0.2933,38.8100,67,96,269647
1.9257,0.2786,39.0000,67,96,269651
1.9159,0.2737,39.0900,67,96,269655
1.9110,0.2688,39.0600,67,96,269658
1.9013,0.2786,38.3300,67,96,269661
1.9550,0.3030,38.9000,67,96,269665
1.9208,0.2884,38.9600,67,96,269668
1.8524,0.2688,39.0000,67,96,269671
1.8133,0.2786,39.0300,67,96,269675
1.7791,0.2786,39.0900,67,96,269678
1.7742,0.2884,38.8700,67,96,269681
1.7204,0.2835,39.0300,67,96,269685
1.7009,0.2786,38.9600,67,96,269688
1.6667,0.2786,39.0900,67,96,269691
1.6618,0.3030,39.0600,67,96,269694
1.6813,0.2884,38.9600,67,96,269699
1.6716,0.2786,39.0600,67,96,269702
1.7009,0.3030,39.0000,67,96,269705
1.6764,0.2835,39.0600,67,96,269709
1.6911,0.2786,39.0900,67,96,269712
1.7009,0.2786,39.0000,67,96,269715
1.7009,0.3128,39.0600,67,96,269719
1.7351,0.2835,38.9300,67,96,269722
1.7058,0.2786,39.1200,67,96,269725
1.7107,0.2737,39.0900,67,96,269728
1.7253,0.2884,38.9600,67,96,269732
1.7107,0.2737,39.0600,67,96,269735
1.7693,0.2835,38.8700,67,96,269739
1.7302,0.2835,39.0000,67,96,269743
1.7253,0.2786,38.3000,67,96,269746
1.7351,0.2884,39.0000,67,96,269749
1.7302,0.2786,39.0900,67,96,269753
1.7742,0.2884,38.8400,67,96,269756
1.7204,0.2786,39.0000,67,96,269759
1.6960,0.2786,39.0600,67,96,269763
1.6569,0.2835,38.9600,67,96,269766
1.5934,0.2639,39.0900,67,96,269769
1.6031,0.2981,38.8100,67,96,269772
1.6129,0.2786,39.0000,67,96,269776
1.8231,0.2786,39.0000,67,96,269779
2.2043,0.2786,39.0600,67,96,269783
2.8055,0.2786,39.0600,67,96,269787
3.6559,0.2981,38.9300,67,96,269790
4.2180,0.2835,39.0600,67,96,269793
4.5943,0.2786,39.0000,67,96,269797
4.7458,0.2835,39.0900,67,96,269800
4.7263,0.2786,39.0600,67,96,269803
4.4477,0.2884,38.9000,67,96,269806
3.6950,0.3030,39.0600,67,96,269810
2.9619,0.3128,38.9300,67,96,269813
2.2874,0.2786,39.0900,67,96,269816
1.8377,0.2786,39.0900,67,96,269820
1.5591,0.2884,39.0000,67,96,269824
1.3734,0.2786,39.0600,67,96,269827
1.3245,0.2835,38.9600,67,96,269831
1.2610,0.2786,39.0600,67,96,269834
1.2708,0.2786,39.0900,67,96,269837
1.2659,0.2835,39.0000,67,96,269840
1.2561,0.2786,39.1200,67,96,269844
1.2708,0.2786,38.9000,67,96,269847
1.2512,0.2786,39.0600,67,96,269850
1.2708,0.2786,39.2800,67,96,269854
1.2903,0.2884,39.0000,67,96,269857
1.3636,0.2786,39.0300,67,96,269861
1.3881,0.2835,39.0900,67,96,269864
1.4418,0.2981,38.7400,67,96,269868
1.4272,0.2688,39.0300,67,96,269872
1.4516,0.2786,39.0000,67,96,269875
1.4614,0.2786,39.0900,67,96,269878
1.4858,0.2933,39.1200,67,96,269881
1.5445,0.2688,38.9600,67,96,269885
1.5396,0.2786,39.0600,67,96,269888
1.6031,0.2786,38.9600,67,96,269891
1.5689,0.2786,39.0600,67,96,269895
1.5982,0.2981,39.0900,67,96,269898
1.6373,0.2786,39.0600,67,96,269901
1.6471,0.2786,39.0600,67,96,269905
1.6862,0.2884,38.9600,67,96,269908
1.6716,0.2835,39.0600,67,96,269912
1.6911,0.2786,39.0900,67,96,269916
1.7204,0.2884,39.0300,67,96,269919
1.7155,0.2835,39.0900,67,96,269922
1.7742,0.2786,38.9000,67,96,269925
1.7644,0.2786,39.0000,67,96,269929
1.7840,0.2786,39.0300,67,96,269932
1.8280,0.2835,38.9300,67,96,269935
1.8280,0.2786,39.0900,67,96,269939
1.8866,0.2835,38.8100,67,96,269942
1.8915,0.2737,39.0600,67,96,269945
1.8817,0.2688,39.0900,67,96,269949
1.9062,0.2884,39.0900,67,96,269953
1.9110,0.2786,38.9600,67,96,269956
1.9795,0.2933,38.7700,67,96,269959
1.9599,0.2786,39.0600,67,96,269963
1.9892,0.2786,39.0900,67,96,269966
2.0137,0.2786,39.0600,67,96,269969
2.0283,0.2786,39.0000,67,96,269973
2.1065,0.2981,38.8400,67,96,269976
2.0723,0.2884,39.0300,67,96,269979
2.0919,0.2737,39.0300,67,96,269983
2.1017,0.2933,39.0300,67,96,269986
2.1212,0.2737,39.0600,67,96,269989
2.1896,0.2884,38.9000,67,96,269992
2.1750,0.2835,39.0000,67,96,269997
2.2043,0.2737,38.9300,67,96,270000
2.1994,0.2786,39.0600,67,96,270003
2.2336,0.2786,39.0900,67,96,270007
2.2825,0.2884,39.0000,67,96,270010
2.2825,0.2835,39.0600,67,96,270013
2.3607,0.2786,38.9300,67,96,270017
2.3069,0.2786,39.1200,67,96,270020
2.3363,0.2737,39.0600,67,96,270023
2.3705,0.2835,38.9600,67,96,270026
2.3803,0.2786,39.0600,67,96,270030
2.4340,0.2786,38.9000,67,96,270033
2.4145,0.2786,39.0600,67,96,270036
2.4242,0.2786,39.0900,67,96,270041
2.4487,0.2884,39.0300,67,96,270044
2.4438,0.2835,39.0600,67,96,270047
2.4633,0.2835,38.9000,67,96,270051
2.4096,0.2786,39.0000,67,96,270054
2.3754,0.2786,39.0000,67,96,270057
2.3558,0.2933,39.0000,67,96,270060
2.2874,0.2786,39.0600,67,96,270064
2.2825,0.2884,38.8400,67,96,270067
2.1554,0.2835,39.0300,67,96,270070
2.0772,0.2786,39.0600,67,96,270074
1.9990,0.2835,39.0300,67,96,270077
1.8964,0.2786,39.0600,67,96,270081
1.8671,0.3177,38.7700,67,96,270084
1.7449,0.2786,38.9600,67,96,270088
1.6667,0.2737,39.0300,67,96,270091
1.6276,0.2786,39.0300,67,96,270094
1.5249,0.2786,39.1900,67,96,270098
1.5396,0.3030,38.9300,67,96,270101
1.4272,0.2688,39.0000,67,96,270104
1.3783,0.2786,39.0000,67,96,270108
1.3294,0.2835,39.0600,67,96,270111
1.3099,0.2786,39.0900,67,96,270114
1.3099,0.2884,38.9000,67,96,270118
1.2708,0.2835,39.1200,67,96,270121
1.2805,0.2786,38.9300,67,96,270125
1.2610,0.2786,39.0900,67,96,270128
1.2659,0.2786,39.1200,67,96,270132
1.3245,0.2786,39.0000,67,96,270135
1.2903,0.2786,39.0600,67,96,270138
1.3245,0.2884,38.9600,67,96,270142
1.3099,0.2884,39.0600,67,96,270145
1.3294,0.2688,39.0600,67,96,270148
1.3539,0.2835,38.8400,67,96,270152
1.3587,0.2884,39.0600,67,96,270155
1.3930,0.2835,38.9000,67,96,270158
1.3832,0.2933,39.1200,67,96,270161
1.4027,0.2835,39.0600,67,96,270166
1.4418,0.2933,38.9600,67,96,270169
1.4516,0.2737,39.0600,67,96,270172
1.4858,0.2884,38.8400,67,96,270176
1.4761,0.2835,39.0000,67,96,270179
1.5103,0.2737,39.0900,67,96,270182
1.5054,0.2835,39.0000,67,96,270186
1.5103,0.2786,39.0900,67,96,270189
1.5640,0.2981,38.8100,67,96,270192
1.5298,0.2786,39.0300,67,96,270196
1.5396,0.2737,39.0300,67,96,270199
1.5543,0.2835,39.0600,67,96,270202
1.5494,0.2786,39.0900,67,96,270205
1.6178,0.2981,38.5200,67,96,270210
1.5885,0.2884,39.0000,67,96,270213
1.5982,0.2835,39.0000,67,96,270216
1.5787,0.2835,39.0600,67,96,270220
1.5787,0.2786,39.0600,67,96,270223
1.6129,0.2933,38.9600,67,96,270226
1.5934,0.2786,39.0000,67,96,270230
1.6031,0.2884,38.9300,67,96,270233
1.5836,0.2835,39.0900,67,96,270236
1.5836,0.2786,39.2500,67,96,270239
1.6031,0.2884,38.9300,67,96,270243
1.5836,0.2786,39.0600,67,96,270246
1.6373,0.2835,38.9600,67,96,270249
1.5885,0.2737,39.0300,67,96,270254
1.5934,0.2786,39.0300,67,96,270257
1.6080,0.2835,38.9600,67,96,270260
1.5982,0.2786,39.0600,67,96,270264
1.6422,0.2835,38.9000,67,96,270267
1.6178,0.2688,39.0300,67,96,270270
1.6276,0.2786,39.0600,67,96,270274
1.6422,0.3030,38.9600,67,96,270277
1.6520,0.2786,39.0600,67,96,270280
1.6813,0.2884,38.8400,67,96,270283
1.6422,0.2737,39.0300,67,96,270287
1.6618,0.2786,39.0600,67,96,270290
1.6667,0.2884,39.0900,67,96,270294
1.6520,0.2786,39.0900,67,96,270298
1.7058,0.2933,38.8100,67,96,270301
1.6862,0.2835,39.0000,67,96,270304
1.6764,0.2737,39.0300,67,96,270308
1.6813,0.2835,39.0600,67,96,270311
1.6862,0.2835,39.1200,67,96,270314
1.7400,0.2688,38.8700,67,96,270318
1.7058,0.2835,38.9300,67,96,270321
1.7155,0.2737,39.0000,67,96,270324
1.7058,0.2737,39.0600,67,96,270327
1.7009,0.2786,39.0900,67,96,270331
1.7204,0.2884,39.0000,67,96,270334
1.6960,0.2884,39.0300,67,96,270338
1.7155,0.2688,38.9300,67,96,270342
1.6862,0.2786,39.0900,67,96,270345
1.6862,0.2786,39.0900,67,96,270348
1.7107,0.2786,38.9600,67,96,270352
1.7058,0.2835,39.0600,67,96,270355
1.7400,0.2835,39.0000,67,96,270358
1.7107,0.2786,39.0900,67,96,270361
1.7204,0.2786,39.0300,67,96,270365
1.7400,0.2884,38.9600,67,96,270368
1.7107,0.2786,39.0600,67,96,270371
1.7351,0.2884,38.8700,67,96,270375
1.7155,0.2786,38.9600,67,96,270379
1.7155,0.2786,39.1200,67,96,270382
1.7351,0.2884,39.0000,67,96,270386
1.7204,0.2786,39.0600,67,96,270389
1.7595,0.3177,38.8400,67,96,270392
1.7155,0.2786,39.0600,67,96,270396
1.7204,0.2786,39.0600,67,96,270399
1.7302,0.2786,39.0600,67,96,270402
1.7351,0.2786,39.0900,67,96,270405
1.7742,0.2981,38.8100,67,96,270409
1.7449,0.2933,38.9300,67,96,270412
1.7449,0.2688,39.0900,67,96,270415
1.7449,0.3030,39.0600,67,96,270419
1.7498,0.2786,39.0600,67,96,270423
1.7986,0.2981,38.9600,67,96,270426
1.7693,0.2835,39.0300,67,96,270430
1.8035,0.2737,39.0000,67,96,270433
1.7595,0.2786,39.0600,67,96,270436
1.7742,0.2786,39.0900,67,96,270439
1.8182,0.2933,38.9000,67,96,270443
1.7791,0.2835,39.0900,67,96,270446
1.7986,0.2884,38.9000,67,96,270449
1.7742,0.2737,39.0900,67,96,270453
1.7840,0.2688,39.0900,67,96,270456
1.8035,0.2884,38.9300,67,96,270459
1.7937,0.2884,39.0600,67,96,270464
1.8328,0.2835,38.9300,67,96,270467
1.7937,0.2786,38.3300,67,96,270470
1.8035,0.2737,39.0300,67,96,270474
1.7986,0.2786,39.0600,67,96,270477
1.7937,0.2884,39.0000,67,96,270480
1.7986,0.2688,39.0900,67,96,270484
1.8280,0.2884,38.8100,67,96,270487
1.8035,0.2933,38.9600,67,96,270490
1.7986,0.2737,39.0600,67,96,270494
1.8035,0.2835,39.1200,67,96,270497
1.7986,0.2884,39.1200,67,96,270500
1.8524,0.2981,38.8700,67,96,270504
1.8035,0.2981,39.0300,67,96,270508
1.8084,0.2835,39.0000,67,96,270511
1.7986,0.2688,39.0600,67,96,270514
1.8084,0.2786,39.1200,67,96,270518
1.8426,0.2884,39.0000,67,96,270521
1.8084,0.2835,39.0600,67,96,270524
1.8280,0.2786,38.9600,67,96,270528
1.8035,0.2786,39.0900,67,96,270531
1.8475,0.2786,39.0600,67,96,270534
1.8475,0.2884,39.0300,67,96,270538
1.8475,0.2786,39.1600,67,96,270541
1.8964,0.2884,38.9600,67,96,270544
1.8915,0.2786,39.1200,67,96,270548
1.9159,0.2786,39.0600,67,96,270552
1.9501,0.2884,38.9600,67,96,270555
1.9159,0.2737,39.0600,67,96,270558
1.9501,0.2786,38.9300,67,96,270562
1.9208,0.2786,39.0000,67,96,270565
1.9355,0.2786,39.1900,67,96,270568
1.9746,0.2884,38.9600,67,96,270572
1.9697,0.2786,39.1900,67,96,270575
2.0039,0.2933,38.8400,67,96,270578
1.9501,0.2786,39.0600,67,96,270582
1.9404,0.2786,38.9300,67,96,270585
1.9550,0.2786,39.0000,67,96,270588
1.9257,0.2737,39.0600,67,96,270592
1.9892,0.2933,38.8100,67,96,270596
1.9501,0.2786,38.9600,67,96,270599
1.9453,0.2737,39.0600,67,96,270602
1.9208,0.2835,39.0600,67,96,270606
1.8817,0.2590,39.0900,67,96,270609
1.9013,0.2981,38.8700,67,96,270612
1.8280,0.2884,39.1200,67,96,270616
1.7840,0.2737,39.0000,67,96,270619
1.7498,0.2786,39.0600,67,96,270622
1.7351,0.2786,39.0600,67,96,270626
1.7546,0.2884,38.8700,67,96,270629
1.7253,0.2835,39.0300,67,96,270632
1.7351,0.2786,38.9600,67,96,270636
1.7155,0.2786,39.0600,67,96,270640
1.7107,0.2786,39.0900,67,96,270643
1.7204,0.3226,39.0000,67,96,270646
1.7155,0.2737,39.0600,67,96,270650
1.7400,0.2884,38.9600,67,96,270653
1.7058,0.2786,39.0900,67,96,270656
1.7107,0.3079,39.0900,67,96,270660
1.7204,0.2933,38.9600,67,96,270663
1.7204,0.2688,39.0600,67,96,270666
1.7546,0.2786,38.9300,67,96,270669
1.7400,0.2884,39.0600,67,96,270673
1.7644,0.2786,39.0600,67,96,270676
1.7889,0.2884,38.9300,67,96,270680
1.7742,0.2786,39.0600,67,96,270684
1.8231,0.2688,38.8400,67,96,270687
1.8084,0.2835,39.0000,67,96,270690
1.8035,0.2835,39.0600,67,96,270694
1.8035,0.2884,39.0000,67,96,270697
1.7546,0.2786,39.1200,67,96,270700
1.7449,0.3079,38.8100,67,96,270703
1.6422,0.2786,39.0000,67,96,270707
1.6276,0.2737,39.0300,67,96,270710
1.7155,0.2786,39.0600,67,96,270713
1.9599,0.2786,39.0900,67,96,270717
2.4927,0.2981,38.8400,67,96,270721
3.1232,0.2884,39.0000,67,96,270724
3.8661,0.2737,39.0000,67,96,270728
4.3646,0.2835,39.1600,67,96,270731
4.6432,0.2688,39.0600,67,96,270734
4.8680,0.2933,38.9300,67,96,270737
4.6921,0.2835,39.0300,67,96,270741
4.2375,0.2835,38.9600,67,96,270744
3.4604,0.2786,39.2200,67,96,270747
2.7322,0.2835,39.0600,67,96,270751
2.1994,0.2688,38.9000,67,96,270754
1.7644,0.2786,39.0900,67,96,270757
1.5396,0.3030,38.9300,67,96,270761
1.3978,0.2786,39.0900,67,96,270765
1.3392,0.2688,39.0900,67,96,270768
1.3441,0.2933,39.0600,67,96,270772
1.3392,0.2835,39.0600,67,96,270775
1.3685,0.2786,38.9300,67,96,270778
1.3294,0.2786,39.0300,67,96,270781
1.3343,0.2737,39.0900,67,96,270785
1.3490,0.2835,39.0000,67,96,270788
1.3441,0.2786,39.0300,67,96,270791
1.4125,0.2786,38.8400,67,96,270795
1.3636,0.2933,39.0300,67,96,270798
1.3881,0.2688,39.0600,67,96,270801
1.4027,0.2884,39.0900,67,96,270806
1.4125,0.2835,39.0600,67,96,270809
1.4663,0.2884,38.8100,67,96,270812
1.4614,0.2835,38.9600,67,96,270816
1.4761,0.2737,39.0600,67,96,270819
1.4956,0.2835,39.0600,67,96,270822
1.5152,0.2737,39.0600,67,96,270825
1.5934,0.2981,38.9000,67,96,270829
1.5787,0.2786,39.0000,67,96,270832
1.6080,0.2786,39.0000,67,96,270835
1.6178,0.2786,39.0600,67,96,270839
1.6373,0.2786,39.0900,67,96,270842
1.6813,0.2981,38.9600,67,96,270845
1.6764,0.2786,39.0300,67,96,270850
1.7058,0.2981,39.0000,67,96,270853
1.7009,0.2786,39.0600,67,96,270856
1.7302,0.2688,39.0600,67,96,270859
1.7693,0.2884,39.0300,67,96,270863
1.7742,0.2786,39.1200,67,96,270866
1.8182,0.2884,38.9600,67,96,270869
1.8084,0.2835,39.0900,67,96,270873
1.8328,0.3030,39.0600,67,96,270876
1.8719,0.2884,38.9600,67,96,270879
1.8671,0.2786,39.0900,67,96,270883
1.9110,0.2933,38.9000,67,96,270886
1.9110,0.2688,39.0000,67,96,270889
1.9306,0.2786,39.0900,67,96,270893
1.9599,0.2835,38.9600,67,96,270897
1.9648,0.2786,39.0600,67,96,270900
2.0186,0.2835,38.8700,67,96,270903
2.0039,0.2786,38.9600,67,96,270907
2.0283,0.2786,39.0600,67,96,270910
2.0772,0.2884,39.0000,67,96,270913
2.0674,0.2688,39.0600,67,96,270917
2.1310,0.2688,38.8100,67,96,270920
2.1017,0.2786,39.0300,67,96,270923
2.1505,0.2737,39.0600,67,96,270926
2.1457,0.2835,39.0600,67,96,270930
2.1457,0.2786,39.0600,67,96,270934
2.2336,0.2981,38.8100,67,96,270937
2.1994,0.2835,39.0600,67,96,270941
2.2043,0.2737,39.0600,67,96,270944
2.2239,0.2786,39.0600,67,96,270947
2.2434,0.2786,39.0600,67,96,270951
2.3265,0.2884,38.8700,67,96,270954
2.3118,0.2786,39.0000,67,96,270957
2.3363,0.2786,39.0000,67,96,270960
2.3363,0.2786,39.2500,67,96,270964
2.3558,0.2835,39.0600,67,96,270967
2.4096,0.2688,38.9600,67,96,270970
2.3998,0.2786,38.9600,67,96,270974
2.4438,0.3079,38.9300,67,96,270978
2.4242,0.2786,39.0600,67,96,270981
2.4438,0.2981,39.1200,67,96,270985
2.4976,0.2835,39.0000,67,96,270988
2.4731,0.2786,39.0600,67,96,270991
2.5171,0.2835,39.0600,67,96,270994
2.4829,0.2786,39.0600,67,96,270998
2.4780,0.2786,39.0900,67,96,271001
2.4829,0.2884,38.9300,67,96,271004
2.4242,0.2688,39.0600,67,96,271008
2.4291,0.2884,38.9000,67,96,271011
2.3509,0.2786,38.9600,67,96,271014
2.2972,0.2737,39.0900,67,96,271019
2.2336,0.2884,39.0600,67,96,271022
2.1359,0.2786,39.0600,67,96,271025
2.1065,0.2933,38.8100,67,96,271029
1.9648,0.2737,39.0300,67,96,271032
1.8817,0.2786,39.0600,67,96,271035
1.8035,0.2835,39.0600,67,96,271038
1.7253,0.2786,39.0900,67,96,271042
1.6960,0.2981,38.7700,67,96,271045
1.5982,0.2688,38.9600,67,96,271048
1.5396,0.2737,39.0600,67,96,271052
1.4907,0.2835,39.0900,67,96,271055
1.4467,0.2786,39.0600,67,96,271058
1.4418,0.3030,38.1500,67,96,271063
1.3930,0.3079,39.0600,67,96,271066
1.3734,0.2786,39.0000,67,96,271069
1.3539,0.2786,39.0600,67,96,271072
1.3539,0.2786,39.0900,67,96,271076
1.3881,0.2884,38.9000,67,96,271079
1.4174,0.2786,38.9600,67,96,271083
1.4321,0.2786,39.0600,67,96,271086
1.4565,0.3177,38.8400,67,96,271089
1.4370,0.2786,39.0600,67,96,271093
1.4516,0.2786,39.0600,67,96,271096
1.4858,0.2981,39.0000,67,96,271099
1.5298,0.2835,39.0600,67,96,271104
1.5494,0.2884,38.8400,67,96,271107
1.5396,0.2737,39.0600,67,96,271110
1.5738,0.2688,39.0900,67,96,271114
1.5982,0.2835,39.0300,67,96,271117
1.6080,0.2786,39.0600,67,96,271120
1.6667,0.2933,38.7700,67,96,271123
1.6471,0.2835,38.9300,67,96,271127
1.6471,0.2737,39.0600,67,96,271130
1.6569,0.2786,38.9300,67,96,271133
1.6667,0.2786,39.0600,67,96,271137
1.7253,0.2884,38.8700,67,96,271140
1.6960,0.2884,39.0300,67,96,271143
1.7107,0.2786,39.0000,67,96,271148
1.7009,0.2786,39.0900,67,96,271151
1.7107,0.2786,39.1200,67,96,271154
1.7449,0.2884,38.9600,67,96,271158
1.7400,0.2835,39.0600,67,96,271161
1.7644,0.2884,38.9000,67,96,271164
1.7351,0.2688,39.0600,67,96,271167
1.7449,0.2786,39.0000,67,96,271171
1.7644,0.2835,39.0000,67,96,271174
1.7644,0.2786,39.1200,67,96,271177
1.7986,0.2835,38.9000,67,96,271181
1.7644,0.2688,39.0600,67,96,271184
1.7840,0.2786,39.0900,67,96,271187
1.7986,0.2884,38.9300,67,96,271192
1.7742,0.2786,39.0600,67,96,271195
1.8084,0.2835,38.9300,67,96,271198
1.7937,0.2835,38.9600,67,96,271202
1.7986,0.2688,39.0600,67,96,271205
1.8084,0.2835,38.9600,67,96,271208
1.7889,0.2786,39.0600,67,96,271211
1.8426,0.2884,38.8100,67,96,271215
1.8133,0.2835,39.0000,67,96,271218
1.8035,0.2786,39.0900,67,96,271221
1.8231,0.2835,39.1200,67,96,271225
1.8133,0.2737,39.0600,67,96,271228
1.8671,0.2981,38.8700,67,96,271232
1.8280,0.2884,38.9600,67,96,271236
1.8280,0.2737,39.0300,67,96,271239
1.8280,0.2786,39.0600,67,96,271242
1.8524,0.2786,39.0600,67,96,271246
1.8768,0.2884,38.9300,67,96,271249
1.8475,0.2835,39.0900,67,96,271252
1.8524,0.2737,38.9600,67,96,271255
1.8328,0.2786,39.1200,67,96,271259
1.8377,0.2933,39.0600,67,96,271262
1.8768,0.2933,38.9300,67,96,271265
1.8377,0.2835,39.0600,67,96,271269
1.9013,0.2981,38.9300,67,96,271272
1.8328,0.2786,39.0600,67,96,271276
1.8377,0.2786,39.0900,67,96,271280
1.8475,0.2639,38.9600,67,96,271283
1.8377,0.2786,39.0900,67,96,271286
1.8622,0.2786,39.0000,67,96,271289
1.8231,0.2786,39.0300,67,96,271293
1.8280,0.2688,39.1200,67,96,271296
1.8426,0.2884,38.9300,67,96,271299
1.8182,0.2786,39.0600,67,96,271303
1.8622,0.2835,38.8400,67,96,271306
1.8182,0.2786,39.0600,67,96,271309
1.8280,0.2688,39.0600,67,96,271313
1.8328,0.2835,39.0600,67,96,271316
1.8035,0.2835,39.0600,67,96,271320
1.8524,0.2884,38.8100,67,96,271324
1.8133,0.2835,38.2400,67,96,271327
1.8231,0.2737,39.0600,67,96,271330
1.8035,0.2835,39.0300,67,96,271333
1.7986,0.2786,39.0600,67,96,271337
1.8622,0.2933,38.9000,67,96,271340
1.8231,0.2835,38.9600,67,96,271343
1.8133,0.2737,39.0000,67,96,271347
1.7937,0.2786,38.9600,67,96,271350
1.7889,0.2737,39.0600,67,96,271353
1.8231,0.2884,38.9600,67,96,271357
1.8035,0.2786,39.0300,67,96,271361
1.8328,0.2835,38.9300,67,96,271364
1.7937,0.2786,39.1600,67,96,271368
1.8084,0.2688,39.0600,67,96,271371
1.8280,0.2835,39.0000,67,96,271374
1.8231,0.2786,38.4600,67,96,271377
1.8573,0.2835,39.0600,67,96,271381
1.8328,0.2786,39.1200,67,96,271384
1.8426,0.3030,39.1200,67,96,271387
1.8964,0.2933,38.9600,67,96,271391
1.8377,0.2786,39.0300,67,96,271394
1.8817,0.2835,38.8700,67,96,271397
1.8475,0.2786,38.9600,67,96,271401
1.8426,0.2786,39.0300,67,96,271405
1.8573,0.2884,38.9600,67,96,271408
1.8426,0.2786,39.0900,67,96,271412
1.8915,0.2786,38.8400,67,96,271415
1.8524,0.2737,39.0000,67,96,271418
1.8573,0.2737,38.9600,67,96,271421
1.8622,0.2835,39.0300,67,96,271425
1.8426,0.2786,39.0600,67,96,271428
1.9062,0.2884,38.8100,67,96,271431
1.8671,0.2786,38.9600,67,96,271435
1.8671,0.2737,39.1200,67,96,271438
1.8671,0.2835,39.0600,67,96,271441
1.8768,0.2786,39.0600,67,96,271446
1.9306,0.2884,38.9000,67,96,271449
1.9110,0.2786,39.0600,67,96,271452
1.9159,0.2688,38.9600,67,96,271456
1.8964,0.3079,39.0600,67,96,271459
1.9159,0.2737,39.0900,67,96,271462
1.9501,0.2884,38.9000,67,96,271465
1.9257,0.2835,39.0600,67,96,271469
1.9697,0.2786,38.9600,67,96,271472
1.9599,0.2786,39.0600,67,96,271475
1.9844,0.2786,39.0900,67,96,271479
2.0332,0.2835,39.0000,67,96,271482
2.0137,0.2786,39.0600,67,96,271485
2.0479,0.2835,38.9600,67,96,271490
2.0039,0.2786,39.0300,67,96,271493
2.0235,0.2737,39.0600,67,96,271496
2.0626,0.2835,38.9600,67,96,271499
2.0577,0.2786,39.1200,67,96,271503
2.0821,0.2835,38.8700,67,96,271506
2.0283,0.2786,39.0600,67,96,271509
2.0186,0.2737,39.0600,67,96,271513
2.0235,0.2933,38.8700,67,96,271516
1.9941,0.2786,39.0600,67,96,271519
2.0381,0.2884,38.7700,67,96,271523
2.0088,0.2933,38.9600,67,96,271526
1.9892,0.2737,39.0900,67,96,271529
1.9892,0.2835,39.1600,67,96,271533
1.9501,0.2786,39.0900,67,96,271537
1.9599,0.2884,38.7700,67,96,271540
1.8817,0.3030,38.9300,67,96,271543
1.8475,0.2835,39.0600,67,96,271547
1.8133,0.2835,39.0600,67,96,271550
1.7937,0.2786,39.0900,67,96,271553
1.8328,0.2884,38.8700,67,96,271557
1.7937,0.2835,39.0000,67,96,271560
1.7889,0.2737,38.9000,67,96,271563
1.7742,0.2835,39.0300,67,96,271566
1.7791,0.2737,39.0600,67,96,271570
1.8084,0.2884,39.0900,67,96,271574
1.7840,0.2835,39.0300,67,96,271577
1.8035,0.2835,38.9300,67,96,271581
1.7840,0.2786,39.1200,67,96,271584
1.7986,0.2737,39.0600,67,96,271587
1.8328,0.2884,38.9000,67,96,271591
1.8084,0.2786,39.0300,67,96,271594
1.8426,0.2786,38.9600,67,96,271597
1.8084,0.2688,39.0300,67,96,271601
1.8133,0.2786,38.4900,67,96,271604
1.8328,0.2835,38.9600,67,96,271607
1.8328,0.2786,39.1600,67,96,271610
1.8671,0.2786,38.9000,67,96,271614
1.8524,0.2786,39.0600,67,96,271618
1.8671,0.2786,39.0900,67,96,271621
1.8817,0.2981,39.0000,67,96,271625
1.8280,0.2786,39.0600,67,96,271628
1.8280,0.2884,38.8700,67,96,271631
1.7351,0.2688,39.0300,67,96,271635
1.7204,0.2737,39.0900,67,96,271638
1.7742,0.2835,39.0300,67,96,271641
1.9697,0.2835,39.0600,67,96,271645
2.4389,0.2884,38.8100,67,96,271648
3.0254,0.2835,39.0600,67,96,271651
3.7634,0.2737,39.0900,67,96,271654
4.3109,0.2786,39.0300,67,96,271659
4.6188,0.2786,39.0900,67,96,271662
4.8974,0.2981,38.8700,67,96,271665
4.7752,0.2835,39.0000,67,96,271669
4.3891,0.2737,39.0600,67,96,271672
3.7048,0.2786,39.0300,67,96,271675
2.9814,0.3030,39.0600,67,96,271679
2.4438,0.2933,38.9300,67,96,271682
1.9648,0.2835,39.0600,67,96,271685
1.6960,0.2835,39.0000,67,96,271688
1.5445,0.2786,39.0600,67,96,271692
1.4370,0.2737,39.0600,67,96,271695
1.4370,0.2737,39.0900,67,96,271699
1.4516,0.2835,38.9600,67,96,271703
1.4370,0.2737,39.0600,67,96,271706
1.4809,0.2835,38.8400,67,96,271710
1.4712,0.2884,39.0000,67,96,271713
1.5005,0.2737,39.0900,67,96,271716
1.5152,0.2884,39.0600,67,96,271720
1.5200,0.2786,39.1200,67,96,271723
1.5836,0.2933,38.8100,67,96,271726
1.5591,0.2786,38.9300,67,96,271729
1.5836,0.2737,39.0900,67,96,271733
1.6080,0.2835,39.0300,67,96,271736
1.6178,0.2786,39.0600,67,96,271739
1.6862,0.2933,38.9000,67,96,271744
1.6716,0.2884,39.0000,67,96,271747
1.6862,0.2737,39.0600,67,96,271750
1.6862,0.2835,39.0600,67,96,271754
1.6911,0.2737,39.0600,67,96,271757
1.7351,0.2933,38.9300,67,96,271760
1.7302,0.2688,39.0300,67,96,271764
1.7644,0.2786,38.9300,67,96,271767
1.7693,0.2786,39.0600,67,96,271770
1.7937,0.2786,39.0600,67,96,271773
1.8426,0.2884,38.9000,67,96,271777
1.8182,0.2688,39.0300,67,96,271780
1.8768,0.2835,38.9300,67,96,271783
1.8671,0.2737,38.9600,67,96,271788
1.8866,0.2737,39.0600,67,96,271791
1.9110,0.2835,38.9600,67,96,271794
1.9110,0.2835,39.0600,67,96,271798
1.9550,0.2786,38.9300,67,96,271801
1.9257,0.2786,39.1200,67,96,271804
1.9404,0.2737,39.0900,67,96,271808
1.9697,0.2884,38.9600,67,96,271811
1.9697,0.2786,39.0300,67,96,271814
2.0283,0.2835,38.8400,67,96,271817
2.0039,0.2737,39.0300,67,96,271821
2.0332,0.2737,39.0900,67,96,271824
2.0626,0.2884,39.0300,67,96,271827
2.0626,0.2688,39.0600,67,96,271832
2.1457,0.2884,38.8100,67,96,271835
2.1212,0.3177,38.9600,67,96,271838
2.1261,0.2835,39.0600,67,96,271842
2.1457,0.2884,39.0300,67,96,271845
2.1554,0.2835,39.0600,67,96,271848
2.2336,0.2981,38.8700,67,96,271851
2.1994,0.2884,39.0000,67,96,271855
2.2141,0.2786,39.0000,67,96,271858
2.2287,0.2786,39.0600,67,96,271861
2.2532,0.2786,38.3300,67,96,271865
2.3216,0.2933,38.9300,67,96,271868
2.3118,0.2835,39.0300,67,96,271872
2.3460,0.2835,39.0000,67,96,271876
2.3363,0.2835,39.1200,67,96,271879
2.3607,0.2786,39.1600,67,96,271882
2.4096,0.2884,39.0000,67,96,271885
2.4389,0.2737,39.0600,67,96,271889
2.4682,0.2884,38.9300,67,96,271892
2.4438,0.2835,39.0600,67,96,271895
2.4585,0.2737,39.0900,67,96,271899
2.4927,0.2884,39.0000,67,96,271902
2.4633,0.2786,39.0600,67,96,271905
2.5024,0.2835,38.9000,67,96,271909
2.4633,0.2835,39.0000,67,96,271912
2.4536,0.2786,39.0600,67,96,271916
2.4536,0.2786,38.9600,67,96,271920
2.4096,0.2786,39.0600,67,96,271923
2.4194,0.2835,38.8400,67,96,271926
2.3167,0.2737,39.0300,67,96,271929
2.2776,0.2737,39.0900,67,96,271933
2.2043,0.2884,39.0000,67,96,271936
2.1017,0.2786,39.1900,67,96,271939
2.0723,0.2835,38.8100,67,96,271943
1.9453,0.2737,39.0000,67,96,271946
1.8671,0.2737,39.0300,67,96,271949
1.8084,0.2835,39.0300,67,96,271953
1.7107,0.2737,38.6500,67,96,271956
1.6960,0.2933,38.8400,67,96,271960
1.6080,0.2835,39.0300,67,96,271963
1.5445,0.2737,39.0000,67,96,271967
1.5298,0.2835,39.0300,67,96,271970
1.4614,0.2688,39.0600,67,96,271973
1.4467,0.2884,38.8700,67,96,271977
1.3978,0.2884,39.0600,67,96,271980
1.3881,0.2688,38.9600,67,96,271983
1.3636,0.2835,39.0600,67,96,271987
1.3587,0.2737,39.0600,67,96,271990
1.3734,0.2835,38.3000,67,96,271993
1.3636,0.2786,38.9600,67,96,271996
1.3930,0.2786,38.9300,67,96,272001
1.3636,0.2786,39.1200,67,96,272004
1.3881,0.2835,39.0900,67,96,272007
1.4076,0.2786,39.0000,67,96,272011
1.4076,0.2786,39.0600,67,96,272014
1.4370,0.2786,38.9000,67,96,272017
1.4516,0.2786,39.0600,67,96,272021
1.4565,0.2737,39.0900,67,96,272024
1.4858,0.2884,38.3000,67,96,272027
1.5103,0.2737,39.0600,67,96,272031
1.5298,0.2835,38.8400,67,96,272034
1.5249,0.2835,38.9600,67,96,272037
1.5445,0.2688,39.0600,67,96,272040
1.5689,0.2835,38.9600,67,96,272045
1.5738,0.2933,39.0600,67,96,272048
1.6325,0.2884,38.8100,67,96,272051
1.5934,0.2933,39.0000,67,96,272055
1.6080,0.2737,39.0600,67,96,272058
1.6129,0.2835,39.0300,67,96,272061
1.6178,0.2786,39.0600,67,96,272065
1.6764,0.3275,38.8400,67,96,272068
1.6520,0.2884,38.9600,67,96,272071
1.6569,0.2737,38.4900,67,96,272074
1.6471,0.2835,39.0600,67,96,272078
1.6471,0.2786,39.2500,67,96,272081
1.6862,0.2933,38.9600,67,96,272084
1.6716,0.2835,39.0300,67,96,272089
1.6911,0.3079,38.9000,67,96,272092
1.6716,0.2786,39.0600,67,96,272095
1.6862,0.2737,39.1600,67,96,272099
1.7155,0.2835,38.8700,67,96,272102
1.6911,0.2786,39.0300,67,96,272105
1.7204,0.2933,38.9600,67,96,272109
1.6960,0.2737,39.0300,67,96,272112
1.7058,0.2737,39.1600,67,96,272115
1.7253,0.2835,38.9600,67,96,272119
1.7253,0.2786,39.2800,67,96,272122
1.7644,0.2786,38.8400,67,96,272125
1.7400,0.2786,39.0600,67,96,272129
1.7498,0.2737,39.1600,67,96,272133
1.7889,0.2884,38.9600,67,96,272136
1.7644,0.2786,39.0600,67,96,272139
1.8035,0.2835,38.8400,67,96,272143
1.7693,0.2737,39.0600,67,96,272146
1.7742,0.2737,39.0600,67,96,272149
1.7742,0.2835,39.0300,67,96,272153
1.7595,0.2786,39.0600,67,96,272156
1.8084,0.2884,38.8100,67,96,272159
1.7742,0.2835,39.0000,67,96,272162
1.7693,0.2737,39.0300,67,96,272166
1.7742,0.2835,39.1600,67,96,272169
1.7742,0.2786,39.0600,67,96,272173
1.8231,0.2933,38.8700,67,96,272177
1.7889,0.2884,39.0600,67,96,272180
1.8084,0.2786,38.9600,67,96,272183
1.7791,0.2786,39.0600,67,96,272187
1.7742,0.2737,39.0600,67,96,272190
1.8084,0.2933,38.9300,67,96,272193
1.7644,0.2786,39.0600,67,96,272197
1.7840,0.2786,38.9300,67,96,272200
1.7498,0.2737,39.1900,67,96,272203
1.7546,0.2786,39.1600,67,96,272206
1.7742,0.2737,39.0000,67,96,272210
1.7644,0.2786,39.0600,67,96,272214
1.7937,0.2835,39.0300,67,96,272217
1.7693,0.2786,39.0900,67,96,272221
1.7742,0.2737,39.0600,67,96,272224
1.7986,0.2884,39.0000,67,96,272227
1.7693,0.2786,39.0600,67,96,272231
1.8035,0.2786,38.8700,67,96,272234
1.7742,0.2786,38.9300,67,96,272237
1.7742,0.2737,39.0600,67,96,272241
1.7791,0.2884,38.9600,67,96,272244
1.7840,0.2835,39.0600,67,96,272247
1.8133,0.2688,38.8100,67,96,272250
1.7595,0.2737,39.0000,67,96,272254
1.7546,0.2737,39.0900,67,96,272258
1.7595,0.2835,39.0300,67,96,272261
1.7546,0.2737,38.9600,67,96,272265
1.8377,0.2933,38.8100,67,96,272268
1.7644,0.2786,38.9600,67,96,272271
1.7742,0.2737,39.0300,67,96,272275
1.7644,0.2786,39.0600,67,96,272278
1.7742,0.2786,39.0600,67,96,272281
1.8231,0.2933,38.9300,67,96,272285
1.7986,0.2835,38.8700,67,96,272288
1.8084,0.2786,38.9300,67,96,272291
1.7937,0.2786,39.1600,67,96,272294
1.8035,0.2786,39.0600,67,96,272299
1.8524,0.2884,38.9000,67,96,272302
1.8280,0.2688,38.9600,67,96,272306
1.8084,0.2786,39.1600,67,96,272309
1.8328,0.2933,38.8700,67,96,272312
1.7937,0.2786,39.0600,67,96,272316
1.7986,0.2786,39.0900,67,96,272319
1.8573,0.2884,39.0000,67,96,272322
1.8133,0.2786,39.0600,67,96,272326
1.8768,0.2884,39.0000,67,96,272329
1.8426,0.2737,39.0000,67,96,272332
1.8622,0.2737,39.0900,67,96,272336
1.8719,0.2835,39.1600,67,96,272339
1.8719,0.2688,39.0600,67,96,272343
1.9355,0.2981,38.9600,67,96,272346
1.9062,0.2835,38.9600,67,96,272350
1.9062,0.2737,39.0300,67,96,272353
1.9062,0.2835,39.0600,67,96,272356
1.9208,0.2737,39.0900,67,96,272360
1.9599,0.2884,38.9000,67,96,272363
1.9404,0.2835,39.0300,67,96,272366
1.9648,0.2786,38.9600,67,96,272370
1.9746,0.2786,39.0000,67,96,272373
1.9990,0.2737,39.0600,67,96,272376
2.0381,0.2835,38.9600,67,96,272380
2.0283,0.2786,39.1600,67,96,272384
2.0528,0.2933,38.9000,67,96,272387
2.0137,0.2688,39.0600,67,96,272390
2.0186,0.2737,39.0600,67,96,272394
2.0430,0.2835,39.0000,67,96,272397
2.0528,0.2835,39.0600,67,96,272400
2.0919,0.2835,38.9300,67,96,272404
2.0479,0.2786,39.0600,67,96,272407
2.0430,0.2737,39.0900,67,96,272410
2.0528,0.2884,39.0300,67,96,272413
2.0186,0.2786,39.0300,67,96,272417
2.0381,0.2835,38.8700,67,96,272420
