ecg,gsr,temp,hr,spo2,timest
1.7155,0.1075,39.0900,73,98,318566
1.7449,0.1075,39.0000,73,98,318570
1.7351,0.0929,39.0600,73,98,318573
1.7595,0.1124,38.9600,73,98,318576
1.7595,0.1124,39.1200,73,98,318580
1.7498,0.1075,39.1200,73,98,318583
1.7840,0.1173,39.0000,73,98,318586
1.7595,0.1075,39.0900,73,98,318590
1.7889,0.1124,38.9600,73,98,318594
1.7693,0.1075,39.0300,73,98,318597
1.7742,0.1075,39.0900,73,98,318601
1.7937,0.1173,39.0000,73,98,318604
1.7791,0.1173,39.0900,73,98,318607
1.8133,0.1124,38.9000,73,98,318610
1.8035,0.1075,39.0000,73,98,318614
1.8280,0.0929,39.0900,73,98,318617
1.8231,0.1124,39.0000,73,98,318620
1.8035,0.1075,38.9600,73,98,318624
1.8475,0.1222,38.8700,73,98,318627
1.8084,0.1075,38.9000,73,98,318630
1.8231,0.1075,39.1200,73,98,318635
1.8426,0.1124,39.0600,73,98,318638
1.8426,0.1173,39.1200,73,98,318641
1.8915,0.1124,38.8400,73,98,318644
1.8622,0.1124,39.0300,73,98,318648
1.8866,0.1075,39.0900,73,98,318651
1.8622,0.1124,39.2200,73,98,318654
1.8622,0.1124,39.0900,73,98,318658
1.9159,0.1222,38.9300,73,98,318661
1.8866,0.1026,39.0600,73,98,318664
1.8964,0.1075,39.0300,73,98,318668
1.8915,0.1124,39.0300,73,98,318671
1.9013,0.1075,39.0900,73,98,318674
1.9404,0.1173,38.9600,73,98,318679
1.9306,0.1271,39.0600,73,98,318682
1.9599,0.1173,38.9300,73,98,318685
1.9306,0.1124,38.8100,73,98,318688
1.9501,0.1124,39.0900,73,98,318692
1.9648,0.1124,39.2800,73,98,318695
1.9599,0.1124,39.0900,73,98,318698
1.9941,0.1124,38.9600,73,98,318702
1.9746,0.1026,39.0900,73,98,318705
1.9795,0.1075,39.0900,73,98,318708
2.0137,0.1173,39.0600,73,98,318712
2.0186,0.1173,39.1900,73,98,318715
2.0577,0.1124,38.8700,73,98,318718
2.0430,0.1124,39.0000,73,98,318723
2.0283,0.1369,39.0900,73,98,318726
2.0381,0.1173,39.0600,73,98,318729
2.0283,0.1075,39.0900,73,98,318732
2.0870,0.1173,38.7700,73,98,318736
2.0723,0.1173,39.0600,73,98,318739
2.0479,0.1075,39.1600,73,98,318742
2.0577,0.1124,39.0900,73,98,318746
2.0381,0.1320,39.0900,73,98,318749
2.0870,0.1222,38.8100,73,98,318752
2.0381,0.1124,38.9300,73,98,318755
2.0137,0.1026,39.2500,73,98,318759
1.9990,0.1075,39.1200,73,98,318763
1.9697,0.1075,39.0000,73,98,318766
1.9990,0.1466,38.9300,73,98,318770
1.9501,0.1173,39.0600,73,98,318773
1.9110,0.1075,39.0000,73,98,318776
1.9062,0.1124,39.0600,73,98,318780
1.8573,0.0929,39.0900,73,98,318783
1.8573,0.1222,38.9300,73,98,318786
1.8231,0.1124,39.0900,73,98,318790
1.7986,0.1124,38.9600,73,98,318793
1.7595,0.1320,39.0900,73,98,318796
1.7449,0.1075,39.0900,73,98,318799
1.7546,0.1173,39.0000,73,98,318803
1.7155,0.1124,39.0600,73,98,318807
1.7302,0.1124,38.9600,73,98,318810
1.7009,0.1075,38.9000,73,98,318814
1.6960,0.1075,39.0600,73,98,318818
1.7107,0.1075,39.0900,73,98,318822
1.7253,0.1173,39.0300,73,98,318825
1.7107,0.1026,39.0900,73,98,318828
1.7595,0.1173,38.8100,73,98,318831
1.7302,0.1124,38.9600,73,98,318835
1.7204,0.1075,39.0900,73,98,318838
1.7253,0.1124,39.0600,73,98,318841
1.7253,0.1026,39.0900,73,98,318845
1.7840,0.1222,38.9300,73,98,318849
1.7400,0.1222,38.9300,73,98,318852
1.7400,0.1026,39.0300,73,98,318856
1.7351,0.1124,39.0600,73,98,318859
1.7449,0.1564,39.0900,73,98,318862
1.7889,0.1124,38.9600,73,98,318866
1.7742,0.1124,39.0300,73,98,318869
1.7791,0.1026,38.9600,73,98,318872
1.7644,0.1124,39.0900,73,98,318875
1.7644,0.1075,39.0900,73,98,318879
1.7937,0.1124,39.0600,73,98,318882
1.7840,0.1124,39.1200,73,98,318885
1.8084,0.1271,39.0000,73,98,318889
1.7791,0.1075,39.0900,73,98,318893
1.7742,0.1075,39.1200,73,98,318896
1.7986,0.1173,38.9600,73,98,318900
1.7693,0.1124,39.1200,73,98,318903
1.7889,0.1124,38.9000,73,98,318906
1.7840,0.1075,39.0300,73,98,318910
1.7791,0.1075,39.1200,73,98,318913
1.7937,0.1124,39.0300,73,98,318916
1.7840,0.1124,39.0900,73,98,318919
1.8280,0.1075,38.8400,73,98,318923
1.8035,0.1124,39.0600,73,98,318926
1.7986,0.1075,39.0900,73,98,318929
1.8133,0.1222,39.0300,73,98,318934
1.7937,0.1075,39.0900,73,98,318937
1.8377,0.1173,38.8100,73,98,318940
1.8084,0.1075,39.0300,73,98,318944
1.7937,0.1026,39.0900,73,98,318947
1.7986,0.1124,39.0900,73,98,318950
1.7986,0.1124,39.0900,73,98,318953
1.8475,0.1271,38.9000,73,98,318957
1.8133,0.1173,39.0000,73,98,318960
1.8035,0.1075,39.0300,73,98,318963
1.8035,0.1124,39.0600,73,98,318967
1.7986,0.1124,39.1200,73,98,318970
1.8328,0.1222,38.9300,73,98,318973
1.8328,0.1173,39.0600,73,98,318978
1.8182,0.1124,39.0000,73,98,318981
1.8035,0.1124,39.1600,73,98,318984
1.8035,0.1173,39.1200,73,98,318988
1.8231,0.1222,39.0000,73,98,318991
1.7986,0.1124,39.0300,73,98,318994
1.8182,0.1222,39.0000,73,98,318997
1.7937,0.1075,39.0600,73,98,319001
1.7986,0.1075,39.0300,73,98,319004
1.8475,0.0929,38.9600,73,98,319007
1.8084,0.1124,39.0900,73,98,319011
1.8280,0.1124,38.8700,73,98,319014
1.8084,0.1075,39.1200,73,98,319017
1.8084,0.1075,39.0300,73,98,319022
1.8328,0.1173,39.0000,73,98,319025
1.8133,0.1075,39.1600,73,98,319028
1.8475,0.1173,38.8700,73,98,319032
1.8182,0.1124,39.0000,73,98,319035
1.7986,0.1075,38.9000,73,98,319038
1.8084,0.1173,39.0600,73,98,319041
1.7986,0.1075,39.0900,73,98,319045
1.8475,0.1222,38.0500,73,98,319048
1.8377,0.1026,39.0000,73,98,319051
1.7986,0.1026,39.0600,73,98,319055
1.8084,0.1124,39.0600,73,98,319058
1.8035,0.1075,39.0900,73,98,319062
1.8622,0.1320,38.8700,73,98,319065
1.8280,0.1173,39.0000,73,98,319069
1.8084,0.1075,39.0900,73,98,319072
1.8035,0.1124,39.0600,73,98,319075
1.7986,0.1075,39.0900,73,98,319079
1.8377,0.1222,39.0300,73,98,319082
1.8084,0.1124,39.0600,73,98,319085
1.8280,0.1124,38.9600,73,98,319089
1.8035,0.1124,39.1200,73,98,319092
1.7937,0.1075,39.0900,73,98,319095
1.8377,0.1124,38.9000,73,98,319098
1.8133,0.1124,39.0900,73,98,319102
1.8426,0.1124,38.9600,73,98,319106
1.8377,0.1124,39.1600,73,98,319109
1.8524,0.1075,39.0900,73,98,319113
1.8817,0.1173,39.0000,73,98,319116
1.8719,0.1271,39.0900,73,98,319119
1.8964,0.1075,38.9300,73,98,319123
1.8866,0.1075,39.1200,73,98,319126
1.8964,0.1026,39.1200,73,98,319129
1.9159,0.1124,38.9600,73,98,319133
1.8964,0.1124,39.0900,73,98,319136
1.9453,0.1173,38.9300,73,98,319139
1.9159,0.1026,39.0600,73,98,319143
1.9355,0.1075,39.0900,73,98,319147
1.9550,0.1124,38.9600,73,98,319150
1.9501,0.1075,39.0900,73,98,319153
1.9892,0.1222,38.8100,73,98,319157
1.9404,0.1320,39.0600,73,98,319160
1.9062,0.1075,39.0900,73,98,319163
1.8915,0.1124,39.0600,73,98,319167
1.8671,0.1075,39.1200,73,98,319170
1.9062,0.1271,38.9000,73,98,319173
1.8328,0.1173,39.0900,73,98,319177
1.8133,0.1075,38.9600,73,98,319180
1.7986,0.1124,39.0900,73,98,319183
1.7840,0.1075,39.2800,73,98,319186
1.8035,0.1222,38.9600,73,98,319191
1.7693,0.1124,39.0900,73,98,319194
1.7644,0.1124,38.9600,73,98,319197
1.7449,0.1124,39.0900,73,98,319201
1.7351,0.1466,39.0900,73,98,319204
1.7546,0.1173,39.0300,73,98,319207
1.7253,0.1124,39.2200,73,98,319211
1.7498,0.1271,38.9600,73,98,319214
1.7155,0.1173,39.1200,73,98,319217
1.7204,0.1075,39.0900,73,98,319221
1.7449,0.1173,39.0600,73,98,319224
1.7253,0.1075,39.1200,73,98,319227
1.7546,0.1124,38.9000,73,98,319230
1.7400,0.1124,38.9600,73,98,319235
1.7302,0.1026,39.0900,73,98,319238
1.7449,0.1173,39.0600,73,98,319241
1.7253,0.1075,39.0900,73,98,319245
1.7986,0.1271,38.8400,73,98,319248
1.7644,0.1124,39.1200,73,98,319251
1.7986,0.1026,39.1200,73,98,319255
1.8866,0.1124,39.0600,73,98,319258
1.9795,0.1075,39.1200,73,98,319261
2.1652,0.1173,38.8400,73,98,319265
2.2825,0.1173,38.9600,73,98,319268
2.4536,0.1026,39.0600,73,98,319271
2.6246,0.1124,39.0900,73,98,319275
2.6588,0.1124,39.1200,73,98,319279
2.6149,0.1222,38.9600,73,98,319282
2.3803,0.1124,39.0600,73,98,319285
2.1848,0.0929,39.0000,73,98,319289
1.9746,0.1124,39.1600,73,98,319292
1.8328,0.1026,39.0900,73,98,319295
1.7791,0.1222,38.9300,73,98,319299
1.7107,0.1075,39.0600,73,98,319302
1.7107,0.1173,38.9300,73,98,319305
1.6764,0.1124,38.3300,73,98,319309
1.6667,0.1320,39.1200,73,98,319312
1.6764,0.1173,39.0000,73,98,319315
1.6569,0.1124,39.0300,73,98,319319
1.6764,0.1173,38.9300,73,98,319323
1.6520,0.1075,39.0600,73,98,319326
1.6471,0.1075,39.0600,73,98,319329
1.6911,0.1222,38.9600,73,98,319333
1.6471,0.1124,39.1600,73,98,319336
1.6813,0.1222,38.9000,73,98,319339
1.6618,0.1075,39.1200,73,98,319343
1.6667,0.1026,39.0900,73,98,319346
1.6862,0.1124,39.0900,73,98,319349
1.6764,0.1075,39.0600,73,98,319353
1.7155,0.1173,38.8400,73,98,319356
1.6960,0.1124,39.0600,73,98,319360
1.6862,0.1075,39.1200,73,98,319363
1.7009,0.1124,39.0900,73,98,319367
1.7058,0.1075,39.1900,73,98,319370
1.7546,0.1271,38.8700,73,98,319373
1.7155,0.1124,39.0300,73,98,319377
1.7155,0.1075,39.0300,73,98,319380
1.7302,0.1124,39.0600,73,98,319383
1.7400,0.1075,39.1900,73,98,319387
1.7840,0.1222,38.9300,73,98,319390
1.7644,0.1124,39.0600,73,98,319393
1.7595,0.1124,39.0300,73,98,319396
1.7449,0.1173,39.0900,73,98,319400
1.7546,0.1075,39.0000,73,98,319404
1.7791,0.1173,39.0300,73,98,319407
1.7889,0.1075,39.0900,73,98,319411
1.7840,0.1124,38.9300,73,98,319414
1.7595,0.1124,39.0600,73,98,319417
1.7693,0.0929,39.0900,73,98,319421
1.8084,0.1222,39.0000,73,98,319424
1.8035,0.1124,39.1200,73,98,319429
1.7986,0.1124,39.0600,73,98,319432
1.8475,0.1173,38.9300,73,98,319435
1.8182,0.1173,39.0600,73,98,319439
1.8328,0.1026,39.0900,73,98,319442
1.8328,0.1124,39.0600,73,98,319446
1.8280,0.1075,39.1600,73,98,319449
1.9110,0.1271,38.8400,73,98,319453
1.8622,0.1124,38.9000,73,98,319456
1.8524,0.1466,39.0600,73,98,319459
1.8622,0.1124,39.0900,73,98,319463
1.8671,0.1124,39.1200,73,98,319466
1.9257,0.1222,38.9300,73,98,319469
1.8964,0.1124,39.0600,73,98,319473
1.9208,0.1026,38.9600,73,98,319476
1.9110,0.1124,39.1600,73,98,319479
1.9110,0.1124,39.0900,73,98,319483
1.9501,0.1222,38.9300,73,98,319486
1.9208,0.1124,39.0600,73,98,319490
1.9599,0.1124,38.9600,73,98,319493
1.9404,0.1124,39.0600,73,98,319497
1.9501,0.1026,39.1600,73,98,319500
1.9746,0.1271,39.0000,73,98,319503
1.9648,0.1026,39.0900,73,98,319507
1.9892,0.1124,38.9300,73,98,319510
1.9648,0.1075,39.0300,73,98,319513
1.9746,0.1075,39.0900,73,98,319517
1.9795,0.1173,38.9300,73,98,319520
1.9550,0.1124,39.1200,73,98,319523
1.9844,0.1173,38.8700,73,98,319527
1.9404,0.1075,39.0600,73,98,319531
1.9648,0.1026,39.0900,73,98,319534
1.9306,0.1173,39.0600,73,98,319537
1.8866,0.1075,39.0900,73,98,319541
1.9062,0.1222,38.8100,73,98,319544
1.8573,0.1124,39.0300,73,98,319547
1.8182,0.1026,39.0900,73,98,319551
1.7986,0.1124,39.0900,73,98,319554
1.7693,0.1271,39.1200,73,98,319557
1.7889,0.1320,38.9000,73,98,319561
1.7155,0.1417,39.0300,73,98,319564
1.6862,0.0929,39.0300,73,98,319567
1.6667,0.1124,39.0900,73,98,319571
1.6471,0.1124,39.1200,73,98,319575
1.6667,0.1222,38.9300,73,98,319578
1.6325,0.1173,39.0300,73,98,319581
1.6276,0.1124,38.9600,73,98,319585
1.6080,0.1124,39.0900,73,98,319588
1.6031,0.1075,39.1200,73,98,319591
1.6178,0.1173,39.0900,73,98,319595
1.6080,0.1124,39.0900,73,98,319598
1.6227,0.1173,39.0000,73,98,319601
1.5934,0.1075,39.1200,73,98,319605
1.5982,0.1026,39.1200,73,98,319608
1.6227,0.1173,38.9600,73,98,319611
1.6031,0.0929,39.1200,73,98,319616
1.6276,0.1124,38.9000,73,98,319619
1.6129,0.1173,39.0600,73,98,319622
1.6080,0.1075,39.0900,73,98,319625
1.6178,0.1173,39.0600,73,98,319629
1.6129,0.1026,39.0900,73,98,319632
1.6569,0.1124,38.8400,73,98,319635
1.6325,0.1075,39.0600,73,98,319639
1.6276,0.0929,39.0900,73,98,319642
1.6471,0.1124,39.0300,73,98,319645
1.6373,0.1369,39.0900,73,98,319649
1.6911,0.1222,38.8100,73,98,319652
1.6618,0.1369,38.9000,73,98,319655
1.6520,0.1026,39.0600,73,98,319660
1.6569,0.1124,39.1200,73,98,319663
1.6520,0.0929,39.0900,73,98,319666
1.7058,0.1271,38.9600,73,98,319669
1.6764,0.1124,39.0300,73,98,319673
1.6764,0.1026,39.0000,73,98,319676
1.6667,0.1124,39.0900,73,98,319679
1.6667,0.1466,39.1200,73,98,319683
1.6862,0.1124,38.9300,73,98,319686
1.6667,0.1173,39.0600,73,98,319689
1.6813,0.1173,38.9300,73,98,319693
1.6667,0.1124,39.0900,73,98,319696
1.6667,0.0978,39.0900,73,98,319699
1.6862,0.1173,39.0000,73,98,319704
1.6716,0.1124,39.0000,73,98,319707
1.6960,0.1466,38.9600,73,98,319710
1.6716,0.1075,39.0900,73,98,319713
1.6764,0.1075,38.3300,73,98,319717
1.6862,0.1173,38.9600,73,98,319720
1.6667,0.1075,39.0600,73,98,319723
1.6862,0.1124,38.9000,73,98,319727
1.6667,0.1075,39.1600,73,98,319730
1.6716,0.1075,39.1600,73,98,319733
1.6862,0.1124,39.0300,73,98,319737
1.6667,0.1075,39.0300,73,98,319740
1.7058,0.1222,38.8400,73,98,319744
1.6764,0.1124,39.0300,73,98,319748
1.6618,0.1075,39.0600,73,98,319751
1.6667,0.1124,39.0600,73,98,319754
1.6569,0.1124,39.1200,73,98,319757
1.7009,0.1124,38.9300,73,98,319761
1.6569,0.1515,39.0300,73,98,319764
1.6569,0.1026,39.0300,73,98,319767
1.6569,0.1124,39.0900,73,98,319771
1.6569,0.1124,39.0900,73,98,319774
1.6960,0.1271,38.9300,73,98,319777
1.6667,0.1124,39.0600,73,98,319781
1.6618,0.1222,38.9600,73,98,319784
1.6471,0.1124,39.0900,73,98,319788
1.6520,0.1075,39.0300,73,98,319791
1.6813,0.1222,39.0300,73,98,319795
1.6618,0.1124,39.0900,73,98,319798
1.6764,0.1124,38.9600,73,98,319801
1.6520,0.1075,38.5500,73,98,319805
1.6569,0.1466,39.1200,73,98,319808
1.6911,0.1173,39.0000,73,98,319811
1.6667,0.1124,39.1200,73,98,319815
1.6911,0.1124,38.9300,73,98,319818
1.6667,0.1075,38.9600,73,98,319821
1.6569,0.1026,39.0600,73,98,319825
1.6716,0.1124,38.5800,73,98,319828
1.6569,0.1026,39.0900,73,98,319832
1.6960,0.1124,38.9300,73,98,319836
1.6618,0.1124,39.0300,73,98,319839
1.6520,0.1075,39.1200,73,98,319842
1.6716,0.1173,39.1200,73,98,319845
1.6569,0.1075,39.0900,73,98,319849
1.7058,0.1173,38.7700,73,98,319852
1.6716,0.1075,38.9600,73,98,319855
1.6618,0.1026,39.0900,73,98,319859
1.6667,0.1124,39.1200,73,98,319862
1.6618,0.1124,39.0900,73,98,319865
1.7155,0.1271,38.9000,73,98,319869
1.6862,0.1124,39.0300,73,98,319873
1.6862,0.1124,39.0300,73,98,319876
1.6764,0.1124,39.1200,73,98,319880
1.6960,0.0929,39.1200,73,98,319883
1.7107,0.1222,39.0000,73,98,319886
1.6960,0.1026,39.0900,73,98,319889
1.7351,0.1124,38.9600,73,98,319893
1.7204,0.1124,39.0900,73,98,319896
1.7302,0.1026,39.0900,73,98,319899
1.7595,0.1222,39.0600,73,98,319903
1.7449,0.1124,39.0600,73,98,319906
1.7742,0.1173,39.0000,73,98,319909
1.7498,0.1075,39.0900,73,98,319913
1.7498,0.1075,39.0900,73,98,319917
1.7644,0.1026,38.8400,73,98,319920
1.7595,0.1075,39.1200,73,98,319923
1.7937,0.1124,38.9000,73,98,319927
1.7791,0.1075,39.0900,73,98,319930
1.7937,0.1075,39.1600,73,98,319933
1.8133,0.1173,39.0300,73,98,319937
1.7840,0.1075,39.0900,73,98,319940
1.8133,0.1173,38.8400,73,98,319943
1.7693,0.1124,38.9300,73,98,319947
1.7400,0.1369,39.1900,73,98,319950
1.7302,0.1124,39.0600,73,98,319953
1.7058,0.1026,39.0900,73,98,319958
1.7498,0.1222,38.8400,73,98,319961
1.6911,0.1124,39.0300,73,98,319964
1.6911,0.1026,39.0600,73,98,319967
1.6716,0.1124,39.0900,73,98,319971
1.6471,0.1417,39.0900,73,98,319974
1.6764,0.1271,38.9300,73,98,319977
1.6373,0.1124,39.0600,73,98,319981
1.6276,0.1075,39.0000,73,98,319984
1.6129,0.0929,39.0600,73,98,319987
1.5982,0.1075,39.0300,73,98,319991
1.6178,0.1173,39.0300,73,98,319994
1.5982,0.1124,39.1200,73,98,319997
1.6080,0.1026,38.9300,73,98,320002
1.5787,0.1075,39.0900,73,98,320005
1.5885,0.1075,39.0900,73,98,320008
1.6276,0.1222,38.9600,73,98,320011
1.6080,0.1124,39.0900,73,98,320015
1.6325,0.1075,38.9600,73,98,320018
1.6031,0.1075,39.0300,73,98,320021
1.5934,0.1075,39.1900,73,98,320025
1.5982,0.1124,39.1200,73,98,320028
1.5982,0.1173,39.0900,73,98,320031
1.6862,0.1173,38.9300,73,98,320035
2.2874,0.1222,38.8100,74,98,320039
2.4438,0.1026,39.0000,74,98,320044
2.5269,0.1417,39.0600,74,98,320047
2.5171,0.1026,39.1200,74,98,320050
2.3167,0.1075,39.3200,74,98,320053
2.1701,0.1271,38.9000,74,98,320057
1.9257,0.1173,39.0600,74,98,320060
1.7644,0.1075,39.0000,74,98,320063
1.6618,0.1026,39.0600,74,98,320067
1.6129,0.1075,39.1200,74,98,320070
1.6227,0.1124,38.9300,74,98,320073
1.6227,0.1026,39.0600,74,98,320077
1.5885,0.1124,39.0000,74,98,320080
1.5591,0.1124,39.0900,74,98,320083
1.5494,0.1075,39.0900,74,98,320087
1.5689,0.1173,39.0000,74,98,320091
1.5347,0.1124,39.0600,74,98,320094
1.5543,0.1173,39.1900,74,98,320097
1.5543,0.1124,39.0900,74,98,320101
1.5396,0.1075,39.1900,74,98,320104
1.5494,0.1075,39.0600,74,98,320107
1.5787,0.1075,39.0900,74,98,320111
1.5640,0.1075,38.9300,74,98,320114
1.5494,0.1320,39.0900,74,98,320117
1.5591,0.1075,39.0900,74,98,320120
1.5836,0.1173,39.0300,74,98,320124
1.5640,0.1075,39.0900,74,98,320128
1.6031,0.1613,38.8400,74,98,320131
1.5982,0.1173,39.0000,74,98,320135
1.5934,0.1075,39.2200,74,98,320138
1.6129,0.1173,39.0600,74,98,320141
1.6129,0.1075,39.0900,74,98,320145
1.6520,0.1173,38.9000,74,98,320148
1.6227,0.1026,39.0000,74,98,320151
1.6520,0.0929,39.0900,74,98,320154
1.6422,0.1173,39.0600,74,98,320158
1.6422,0.1075,39.0600,74,98,320161
1.6960,0.1271,39.0300,74,98,320164
1.6716,0.1124,39.0000,74,98,320168
1.6618,0.1026,39.1200,74,98,320172
1.6716,0.1222,39.0600,74,98,320175
1.6764,0.1075,39.0900,74,98,320179
1.7253,0.1222,39.0900,74,98,320182
1.6960,0.1173,39.0600,74,98,320185
1.6960,0.1075,39.0000,74,98,320188
1.6960,0.1124,39.2200,74,98,320192
1.6960,0.1173,39.0900,74,98,320195
1.7400,0.1173,38.9300,74,98,320198
1.7155,0.1124,39.1900,74,98,320202
1.7449,0.1026,38.9300,74,98,320205
1.7253,0.1075,39.1200,74,98,320208
1.7253,0.1466,39.1200,74,98,320212
1.7595,0.1124,39.0000,74,98,320216
1.7498,0.1124,39.1600,74,98,320219
1.7840,0.1369,38.9600,74,98,320222
1.7693,0.1075,39.0600,74,98,320226
1.7693,0.1075,39.0900,74,98,320229
1.7889,0.1369,39.0000,74,98,320232
1.7791,0.0929,39.0900,74,98,320236
1.8182,0.1124,38.9000,74,98,320239
1.8035,0.1466,39.1200,74,98,320242
1.8084,0.1026,39.0900,74,98,320246
1.8426,0.1124,39.0600,74,98,320249
1.8328,0.1173,39.0900,74,98,320252
1.8817,0.1173,38.8400,74,98,320256
1.8719,0.1124,38.5200,74,98,320260
1.8671,0.1222,39.1200,74,98,320263
1.8817,0.1124,39.0600,74,98,320266
1.8817,0.1075,39.0900,74,98,320270
1.9404,0.1075,38.8100,74,98,320273
1.9062,0.1075,39.0300,74,98,320276
1.9062,0.1026,39.0600,74,98,320280
1.9257,0.1124,39.0600,74,98,320283
1.9550,0.1026,39.0900,74,98,320286
1.9795,0.1271,38.9300,74,98,320289
1.9453,0.1124,39.0300,74,98,320293
1.9404,0.1026,39.0000,74,98,320296
1.9306,0.1075,39.0900,74,98,320300
1.9355,0.1075,39.1200,74,98,320304
1.9648,0.1173,39.0000,74,98,320307
1.9306,0.1124,39.0600,74,98,320310
1.9306,0.1075,39.1900,74,98,320314
1.9013,0.1075,39.0900,74,98,320317
1.8817,0.1075,39.0900,74,98,320320
1.9013,0.1222,38.8400,74,98,320323
1.8377,0.1075,39.0600,74,98,320327
1.8377,0.1124,39.0000,74,98,320330
1.7840,0.1026,39.0600,74,98,320333
1.7546,0.1075,39.0900,74,98,320337
1.7546,0.1124,39.0000,74,98,320340
1.7155,0.1075,39.0900,74,98,320344
1.7107,0.1075,38.6200,74,98,320348
1.6667,0.1320,39.0600,74,98,320351
1.6520,0.1075,39.0900,74,98,320354
1.6569,0.1124,38.9300,74,98,320357
1.6276,0.1124,39.0600,74,98,320361
1.6520,0.1124,38.9300,74,98,320364
1.6080,0.1320,39.0300,74,98,320367
1.5982,0.1026,39.0900,74,98,320371
1.6080,0.1173,39.0300,74,98,320374
1.5885,0.1075,39.0900,74,98,320377
1.6276,0.1173,38.8400,74,98,320381
1.6080,0.1075,38.9600,74,98,320385
1.5934,0.1075,39.1900,74,98,320388
1.5982,0.1173,39.0900,74,98,320392
1.5934,0.1075,39.0900,74,98,320395
1.6471,0.1320,38.8400,74,98,320398
1.6178,0.1173,39.0300,74,98,320401
1.6227,0.1026,39.0300,74,98,320405
1.6373,0.1026,39.1200,74,98,320408
1.6178,0.1075,39.0900,74,98,320411
1.6667,0.1173,38.9300,74,98,320415
1.6520,0.1124,39.0600,74,98,320418
1.6618,0.1075,39.0000,74,98,320421
1.6520,0.1075,39.0900,74,98,320425
1.6520,0.1271,39.0900,74,98,320429
1.6764,0.1173,39.0600,74,98,320432
1.6667,0.1124,39.0600,74,98,320435
1.6911,0.1124,38.9600,74,98,320439
1.6813,0.1075,39.0900,74,98,320442
1.6813,0.1026,39.1600,74,98,320445
1.7107,0.1173,38.9300,74,98,320449
1.6862,0.1075,39.0900,74,98,320452
1.7155,0.1369,38.9300,74,98,320455
1.7058,0.1075,39.0300,74,98,320459
1.7009,0.1026,38.3300,74,98,320462
1.7155,0.1075,39.0600,74,98,320465
1.7058,0.0929,39.0900,74,98,320468
1.7400,0.1124,38.8700,74,98,320473
1.7107,0.1075,38.9600,74,98,320476
1.7107,0.1026,39.0900,74,98,320479
1.7400,0.1124,39.0300,74,98,320483
1.7155,0.1075,39.0900,74,98,320486
1.7546,0.1124,38.9000,74,98,320489
1.7155,0.1026,39.0300,74,98,320493
1.7155,0.1026,39.1200,74,98,320496
1.7155,0.1124,39.0900,74,98,320499
1.7204,0.1075,39.0900,74,98,320502
1.7644,0.1222,38.8400,74,98,320506
1.7302,0.1124,39.0000,74,98,320509
1.7155,0.0978,39.0600,74,98,320513
1.7204,0.1075,39.0000,74,98,320517
1.7253,0.1075,39.0900,74,98,320520
1.7742,0.1271,38.9000,74,98,320523
1.7351,0.1124,39.0600,74,98,320527
1.7302,0.1026,38.9300,74,98,320530
1.7204,0.1124,39.0600,74,98,320533
1.7302,0.1075,39.0900,74,98,320536
1.7595,0.1173,38.9600,74,98,320540
1.7498,0.1075,39.0600,74,98,320543
1.7595,0.1075,38.9600,74,98,320546
1.7351,0.1075,39.0900,74,98,320550
1.7302,0.1026,39.0900,74,98,320553
1.7498,0.1173,39.0300,74,98,320557
1.7449,0.1075,39.1600,74,98,320561
1.7693,0.1173,38.9600,74,98,320564
1.7400,0.1075,39.0600,74,98,320567
1.7400,0.1124,39.1200,74,98,320570
1.7986,0.1173,38.9600,74,98,320574
1.7449,0.1075,39.0000,74,98,320577
1.7742,0.1173,38.9000,74,98,320580
1.7595,0.1075,39.0000,74,98,320584
1.7498,0.1026,39.1200,74,98,320587
1.7546,0.1173,39.0300,74,98,320590
1.7498,0.1075,39.0900,74,98,320594
1.7840,0.1124,38.8700,74,98,320598
1.7595,0.1222,39.0300,74,98,320601
1.7595,0.1026,39.0900,74,98,320604
1.7644,0.1124,39.0600,74,98,320608
1.7546,0.1075,39.1600,74,98,320611
1.7986,0.1173,38.8100,74,98,320614
1.7644,0.1075,39.0600,74,98,320618
1.7595,0.0978,39.0600,74,98,320621
1.7595,0.1026,39.0600,74,98,320624
1.7595,0.1026,39.1200,74,98,320628
1.8084,0.1320,38.9000,74,98,320631
1.7693,0.0929,39.0300,74,98,320634
1.7644,0.1026,39.0600,74,98,320637
1.7644,0.1075,39.0900,74,98,320642
1.7595,0.1075,39.0900,74,98,320645
1.7986,0.1124,38.9000,74,98,320648
1.7986,0.1173,39.0000,74,98,320653
1.7742,0.1075,39.0900,74,98,320656
1.7937,0.1075,38.5500,74,98,320660
1.7693,0.1124,39.0600,74,98,320663
1.7791,0.1026,39.1200,74,98,320666
1.7986,0.1075,38.9300,74,98,320670
1.7937,0.1026,39.0900,74,98,320673
1.8328,0.1075,38.9000,74,98,320676
1.8133,0.1075,39.1200,74,98,320679
1.8377,0.1026,39.0900,74,98,320684
1.8622,0.1124,39.0300,74,98,320687
1.8524,0.1124,39.0900,74,98,320690
1.9159,0.1124,38.8400,74,98,320694
1.8817,0.1124,38.9600,74,98,320697
1.8768,0.1075,39.0900,74,98,320700
1.8817,0.1075,39.0300,74,98,320704
1.8817,0.1075,39.0900,74,98,320707
1.9453,0.1222,38.8400,74,98,320710
1.9062,0.1075,39.0600,74,98,320714
1.9159,0.1026,39.0600,74,98,320717
1.9159,0.1075,39.0600,74,98,320720
1.9110,0.1075,39.0900,74,98,320723
1.9599,0.1222,38.9000,74,98,320728
1.9257,0.1124,39.0300,74,98,320731
1.8964,0.1026,39.0000,74,98,320734
1.8573,0.1075,39.1200,74,98,320738
1.8328,0.1124,39.0900,74,98,320741
1.8426,0.1173,39.0000,74,98,320744
1.8084,0.1075,39.2200,74,98,320747
1.8231,0.1222,39.0000,74,98,320751
1.7889,0.1075,39.0900,74,98,320754
1.7791,0.1026,39.1200,74,98,320757
1.7937,0.1173,38.9300,74,98,320761
1.7546,0.1075,39.0900,74,98,320764
1.7791,0.1173,38.9600,74,98,320768
1.7400,0.1026,39.0300,74,98,320772
1.7302,0.1026,39.1200,74,98,320775
1.7400,0.1124,39.0600,74,98,320778
1.7155,0.1075,39.0600,74,98,320782
1.7449,0.1075,38.9000,74,98,320785
1.7253,0.1026,39.0300,74,98,320788
1.7253,0.1026,39.0900,74,98,320791
1.7449,0.1173,39.0000,74,98,320795
1.7595,0.0929,39.0900,74,98,320798
1.7742,0.1124,38.8400,74,98,320801
1.7302,0.1026,39.0300,74,98,320805
1.7400,0.0929,39.0900,74,98,320808
1.7400,0.1124,39.0600,74,98,320812
1.7204,0.1026,39.1200,74,98,320816
1.7742,0.1173,38.8100,74,98,320819
1.7791,0.1124,39.0600,74,98,320822
1.8328,0.1173,39.0900,74,98,320825
1.9306,0.1075,39.1200,74,98,320829
2.0430,0.1026,39.0300,74,98,320832
2.2385,0.1369,38.9000,74,98,320835
2.3558,0.1075,39.0900,74,98,320839
2.5464,0.1026,39.0300,74,98,320842
2.6393,0.1026,39.1200,74,98,320845
2.6051,0.1026,39.0900,74,98,320849
2.4682,0.1124,38.9600,74,98,320852
2.2287,0.1124,39.0300,74,98,320856
2.0674,0.1075,38.9600,74,98,320859
1.8719,0.1075,39.0900,74,98,320863
1.7937,0.1515,39.1200,74,98,320866
1.7742,0.1124,39.0300,74,98,320869
1.7351,0.1075,38.4300,74,98,320873
1.7400,0.1173,38.9600,74,98,320876
1.6960,0.1026,39.2800,74,98,320879
1.6813,0.1124,39.1200,74,98,320883
1.7009,0.1124,39.0000,74,98,320886
1.6667,0.1075,39.1600,74,98,320889
1.6813,0.1026,38.9000,74,98,320893
1.6667,0.1075,39.0300,74,98,320897
1.6569,0.1026,39.1200,74,98,320900
1.6667,0.1124,39.0600,74,98,320903
1.6667,0.1026,39.0900,74,98,320907
1.7107,0.1026,38.1500,74,98,320910
1.6960,0.1026,39.0300,74,98,320913
1.6862,0.1026,39.0900,74,98,320917
1.7107,0.1124,39.1200,74,98,320920
1.6960,0.0978,39.0900,74,98,320923
1.7693,0.1222,38.8400,74,98,320927
1.7253,0.1173,38.9600,74,98,320930
1.7302,0.0978,39.0600,74,98,320933
1.7302,0.1075,39.1200,74,98,320936
1.7253,0.1124,39.0900,74,98,320941
1.7840,0.1124,38.8700,74,98,320944
1.7546,0.1075,39.0000,74,98,320947
1.7595,0.1026,39.0000,74,98,320951
1.7644,0.1075,39.0600,74,98,320954
1.7644,0.1026,39.0300,74,98,320957
1.7986,0.1124,39.0000,74,98,320961
1.7791,0.1075,39.0600,74,98,320964
1.7937,0.1075,38.7400,74,98,320967
1.7889,0.1075,39.0600,74,98,320970
1.8035,0.1026,39.0900,74,98,320974
1.8133,0.1124,38.9600,74,98,320977
1.8035,0.1222,39.0300,74,98,320980
1.8524,0.0929,38.9600,74,98,320985
1.8133,0.1075,39.1600,74,98,320988
1.8231,0.1026,39.0900,74,98,320991
1.8377,0.1075,39.0000,74,98,320995
1.8280,0.1075,39.0900,74,98,320998
1.8573,0.1075,38.2700,74,98,321001
1.8377,0.1075,39.0900,74,98,321004
1.8475,0.1026,39.0900,74,98,321008
1.8719,0.1124,38.8100,74,98,321011
1.8573,0.1075,39.0900,74,98,321014
1.8964,0.1124,38.9000,74,98,321018
1.8817,0.1124,39.0000,74,98,321021
1.8768,0.1075,39.0900,74,98,321025
1.9062,0.1124,39.0600,74,98,321029
1.9013,0.1026,39.0900,74,98,321032
1.9501,0.1173,38.8100,74,98,321035
1.9110,0.1075,38.8400,74,98,321038
1.9062,0.1564,39.1200,74,98,321042
1.9208,0.1124,39.0600,74,98,321045
1.9257,0.1075,39.0900,74,98,321048
1.9892,0.1320,38.8700,74,98,321052
1.9648,0.1173,39.0600,74,98,321055
1.9599,0.1222,39.0300,74,98,321058
1.9648,0.1075,39.0600,74,98,321062
1.9795,0.1026,39.0600,74,98,321065
2.0381,0.1271,38.9300,74,98,321069
2.0235,0.1026,39.0600,74,98,321073
2.0332,0.1026,38.9600,74,98,321076
2.0186,0.1075,39.0600,74,98,321079
2.0235,0.1075,39.1200,74,98,321082
2.0577,0.1124,38.9300,74,98,321086
2.0381,0.1173,39.1200,74,98,321089
2.0674,0.1026,38.9600,74,98,321092
2.0381,0.1075,39.1200,74,98,321096
2.0381,0.1026,39.0900,74,98,321099
2.0772,0.1173,39.0000,74,98,321102
2.0381,0.1075,39.0900,74,98,321106
2.0674,0.1075,38.9600,74,98,321110
2.0235,0.1026,39.0000,74,98,321113
2.0137,0.1417,39.0900,74,98,321116
2.0283,0.1075,38.9600,74,98,321120
1.9795,0.1075,39.0900,74,98,321123
1.9795,0.1075,39.0000,74,98,321126
1.9599,0.1075,39.0900,74,98,321130
1.8964,0.0929,39.0600,74,98,321133
1.8915,0.1124,39.0000,74,98,321136
1.8377,0.1271,39.1200,74,98,321139
1.8475,0.1124,38.8400,74,98,321143
1.8035,0.1124,38.9600,74,98,321146
1.7644,0.0929,39.0900,74,98,321149
1.7595,0.1075,39.1900,74,98,321154
1.7302,0.1026,39.1900,74,98,321157
1.7644,0.1173,38.8100,74,98,321160
1.7107,0.1075,39.0900,74,98,321164
1.7009,0.0929,39.0600,74,98,321167
1.7058,0.1075,39.0600,74,98,321170
1.6911,0.1026,39.0900,74,98,321173
1.7351,0.1222,38.8400,74,98,321177
1.6960,0.1124,38.9300,74,98,321180
1.6813,0.1026,39.0600,74,98,321183
1.6813,0.1124,39.1200,74,98,321187
1.6813,0.1075,39.0000,74,98,321190
1.7204,0.1173,38.9600,74,98,321193
1.7107,0.1124,39.0600,74,98,321198
1.7204,0.1075,38.9600,74,98,321201
1.7058,0.1417,39.1200,74,98,321204
1.7155,0.0929,39.0600,74,98,321208
1.7546,0.1124,38.9300,74,98,321211
1.7546,0.1075,39.0900,74,98,321214
1.7498,0.1124,39.0000,74,98,321217
1.7302,0.1026,39.1600,74,98,321221
1.7351,0.0978,39.0900,74,98,321224
1.7546,0.1124,39.0300,74,98,321227
1.7595,0.1075,39.0900,74,98,321231
1.7840,0.1369,38.9000,74,98,321234
1.7595,0.0929,39.0300,74,98,321238
1.7644,0.1026,39.1900,74,98,321242
1.7840,0.1320,38.9600,74,98,321245
1.7742,0.1026,39.0900,74,98,321248
1.8133,0.1124,38.8700,74,98,321251
1.7791,0.0929,39.0300,74,98,321255
1.7840,0.1026,39.0000,74,98,321258
1.7986,0.1173,39.0300,74,98,321261
1.7937,0.1075,39.0900,74,98,321266
1.7986,0.1026,39.0900,74,98,321269
1.8426,0.1124,38.9000,74,98,321273
1.8133,0.1124,39.0600,74,98,321276
1.8280,0.1075,39.0000,74,98,321280
1.8133,0.1075,39.0900,74,98,321284
1.8035,0.1026,39.0900,74,98,321287
1.8328,0.1173,38.9300,74,98,321290
1.8182,0.1075,39.0600,74,98,321293
1.8328,0.1075,38.9600,74,98,321297
1.8084,0.1124,39.0600,74,98,321300
1.8035,0.1026,39.0900,74,98,321303
1.8182,0.1026,39.0300,74,98,321307
1.8084,0.1026,39.1200,74,98,321310
1.8328,0.1075,38.9600,74,98,321313
1.8084,0.1026,39.0300,74,98,321317
1.8084,0.1124,39.0600,74,98,321320
1.8231,0.1124,38.9600,74,98,321324
1.8035,0.0978,39.0900,74,98,321327
1.8328,0.1173,38.8700,74,98,321331
1.8133,0.1075,38.9600,74,98,321334
1.8133,0.1026,39.0000,74,98,321337
1.8280,0.1124,39.0300,74,98,321341
1.8133,0.1026,39.0900,74,98,321344
1.8524,0.1124,39.1600,74,98,321347
1.8182,0.1026,39.0300,74,98,321351
1.8182,0.1026,39.1600,74,98,321354
1.8328,0.1173,39.0900,74,98,321357
1.8231,0.1026,39.0900,74,98,321360
1.8768,0.1124,38.8100,74,98,321364
1.8377,0.1075,38.9600,74,98,321368
1.8280,0.1026,39.0600,74,98,321371
1.8377,0.1075,39.0600,74,98,321375
1.8328,0.0978,39.0900,74,98,321378
1.8915,0.1222,38.9300,74,98,321381
1.8426,0.1124,39.1600,74,98,321385
1.8719,0.0978,39.0000,74,98,321388
1.8377,0.1075,39.0300,74,98,321391
1.8377,0.0978,39.0300,74,98,321395
1.8768,0.1173,38.9300,74,98,321398
1.8426,0.1369,39.1200,74,98,321401
1.8573,0.1075,38.9300,74,98,321404
1.8280,0.1075,39.2200,74,98,321409
1.8328,0.1026,39.0900,74,98,321412
1.8573,0.1124,39.0000,74,98,321415
1.8426,0.1075,39.0900,74,98,321419
1.8719,0.1075,38.9600,74,98,321422
1.8573,0.1075,39.0900,74,98,321425
1.8328,0.1026,39.1600,74,98,321429
1.8622,0.1075,38.9600,74,98,321432
1.8573,0.1026,39.0900,74,98,321435
1.8866,0.1075,38.8700,74,98,321438
1.8524,0.1222,39.0900,74,98,321442
1.8573,0.0929,39.1200,74,98,321445
1.8622,0.1124,38.4900,74,98,321448
1.8426,0.1026,39.0900,74,98,321453
1.8768,0.1124,38.8700,74,98,321456
1.8573,0.1124,39.1200,74,98,321459
1.8377,0.1026,39.0900,74,98,321463
1.8475,0.1124,39.0600,74,98,321466
1.8426,0.1026,39.1200,74,98,321469
1.8964,0.1173,38.8100,74,98,321473
1.8622,0.1124,39.0000,74,98,321476
1.8768,0.0978,39.0600,74,98,321479
1.8671,0.1075,39.0600,74,98,321482
1.8671,0.1026,39.1600,74,98,321486
1.9404,0.1173,38.9300,74,98,321489
1.9110,0.1124,39.1600,74,98,321492
1.9159,0.1026,39.0000,74,98,321497
1.9159,0.1075,39.0900,74,98,321500
1.9208,0.1026,39.2800,74,98,321503
1.9550,0.1124,39.0000,74,98,321507
1.9306,0.1026,39.0600,74,98,321510
1.9599,0.1173,38.9600,74,98,321513
1.9501,0.1075,39.0900,74,98,321516
1.9697,0.0929,39.0900,74,98,321520
2.0088,0.1173,38.9600,74,98,321523
1.9844,0.1075,39.0900,74,98,321526
2.0137,0.1173,39.0000,74,98,321530
1.9795,0.0733,39.0600,74,98,321533
1.9746,0.1026,39.0900,74,98,321537
1.9795,0.1271,39.0000,74,98,321541
1.9453,0.1075,39.0900,74,98,321544
1.9453,0.1075,38.9300,74,98,321547
1.9013,0.1026,39.0300,74,98,321550
1.8866,0.1026,39.0900,74,98,321554
1.8964,0.1124,38.9600,74,98,321557
1.8671,0.1075,39.1900,74,98,321560
1.8915,0.1124,38.8700,74,98,321564
1.8377,0.0978,39.0600,74,98,321567
1.8524,0.1026,39.0900,74,98,321570
1.8280,0.1124,39.0900,74,98,321574
1.8133,0.1026,39.0900,74,98,321577
1.8573,0.1173,38.8100,74,98,321581
1.8133,0.1124,39.0600,74,98,321584
1.7937,0.0978,39.1900,74,98,321588
1.8035,0.1075,39.0900,74,98,321591
1.8035,0.0733,39.1200,74,98,321594
1.8622,0.1222,38.8400,74,98,321598
1.8133,0.1075,39.0600,74,98,321601
1.8133,0.1026,39.0600,74,98,321604
1.8084,0.1075,39.1200,74,98,321608
1.8133,0.1075,39.0900,74,98,321611
1.8573,0.1173,39.0000,74,98,321614
1.8280,0.1124,38.9000,74,98,321617
1.8231,0.1222,38.9600,74,98,321622
1.8084,0.1075,39.0900,74,98,321625
1.8328,0.1026,39.0000,74,98,321628
1.9110,0.1222,39.0600,74,98,321632
1.9746,0.0929,39.0600,74,98,321635
2.1163,0.1124,38.9600,74,98,321638
2.2190,0.1026,39.0900,74,98,321642
2.3705,0.1075,39.0900,74,98,321645
2.6100,0.1173,39.0000,74,98,321648
2.7273,0.1075,39.0900,74,98,321651
2.7859,0.1026,38.9600,74,98,321655
2.6588,0.0929,39.0300,74,98,321658
2.4438,0.1026,39.0900,74,98,321661
2.2434,0.1124,38.9600,74,98,321666
2.0332,0.1026,39.0300,74,98,321669
1.9306,0.1026,38.8700,74,98,321672
1.8280,0.1075,38.9600,74,98,321676
1.7889,0.1026,39.0900,74,98,321679
1.7937,0.1173,39.0000,74,98,321682
1.7546,0.1026,39.0900,74,98,321685
1.7840,0.1124,38.8400,74,98,321689
1.7302,0.1026,39.0300,74,98,321692
1.7253,0.1026,39.1200,74,98,321695
1.7204,0.1417,39.0600,74,98,321699
1.7155,0.1075,39.0900,74,98,321702
1.7644,0.1222,38.8100,74,98,321705
1.7449,0.1075,39.0000,74,98,321710
1.7351,0.1026,39.0300,74,98,321713
1.7449,0.1124,39.1200,74,98,321716
1.7498,0.0929,39.0900,74,98,321719
1.7986,0.1222,38.8700,74,98,321723
1.7644,0.1026,39.0600,74,98,321726
1.7693,0.1026,38.9600,74,98,321729
1.7693,0.1075,39.1200,74,98,321733
1.7742,0.1075,39.0600,74,98,321736
1.8133,0.1173,38.9600,74,98,321739
1.7937,0.1124,39.1900,74,98,321743
1.8133,0.1417,39.0600,74,98,321746
1.8035,0.1075,39.1200,74,98,321750
1.8084,0.1075,39.1200,74,98,321753
1.8328,0.1173,39.0000,74,98,321757
1.8231,0.1075,39.0900,74,98,321760
1.8524,0.1124,39.0000,74,98,321763
1.8231,0.1026,39.0600,74,98,321767
1.8280,0.1075,39.0900,74,98,321770
1.8524,0.1173,39.2800,74,98,321773
1.8426,0.1075,39.0900,74,98,321777
1.8719,0.1075,38.9000,74,98,321780
1.8524,0.1075,39.0900,74,98,321783
1.8475,0.1026,39.0900,74,98,321786
1.8671,0.1124,39.0300,74,98,321790
1.8622,0.1075,39.0300,74,98,321794
1.9110,0.1369,38.8400,74,98,321797
1.8817,0.1075,39.0600,74,98,321801
1.8768,0.1075,39.0900,74,98,321804
1.8964,0.1173,39.0300,74,98,321807
1.9159,0.1026,39.0900,74,98,321811
1.9453,0.1124,38.8100,74,98,321814
1.9110,0.0978,38.9600,74,98,321817
1.9110,0.0929,39.0900,74,98,321820
1.9159,0.1075,39.0900,74,98,321824
1.9110,0.0978,39.0900,74,98,321827
1.9795,0.1271,38.9000,74,98,321830
1.9355,0.1124,39.0300,74,98,321835
1.9404,0.1026,39.0300,74,98,321838
1.9404,0.1075,39.1900,74,98,321841
1.9404,0.1075,39.0000,74,98,321845
1.9892,0.1271,39.0000,74,98,321848
1.9648,0.1026,39.0900,74,98,321851
1.9892,0.1124,39.3200,74,98,321855
1.9844,0.1026,39.0900,74,98,321858
1.9990,0.1075,39.0900,74,98,321861
2.0332,0.1124,39.0900,74,98,321864
2.0235,0.1124,39.0600,74,98,321868
2.0577,0.1075,38.9000,74,98,321871
2.0381,0.1124,39.0900,74,98,321874
2.0919,0.1075,39.0900,74,98,321880
2.1065,0.1026,39.0900,74,98,321883
2.1114,0.1124,39.0300,74,98,321887
2.0870,0.1075,39.0900,74,98,321890
2.1261,0.1417,38.8400,74,98,321893
2.0968,0.1124,39.0000,74,98,321896
2.0772,0.1075,39.0900,74,98,321900
2.0870,0.1124,39.0600,74,98,321903
2.0674,0.1124,39.0600,74,98,321906
2.1310,0.1124,38.9300,74,98,321910
2.0430,0.1075,39.0300,74,98,321913
2.0186,0.1026,39.0600,74,98,321916
2.0186,0.1124,39.0600,74,98,321920
1.9844,0.1026,39.1200,74,98,321924
2.0137,0.1271,38.9000,74,98,321927
1.9501,0.1173,39.0300,74,98,321930
1.9062,0.1026,39.0000,74,98,321934
1.8768,0.1124,39.0900,74,98,321937
1.8524,0.1075,39.0900,74,98,321940
1.8768,0.1173,39.0000,74,98,321944
1.8328,0.1124,39.0600,74,98,321947
1.8133,0.1075,38.9600,74,98,321950
1.7791,0.1173,39.0600,74,98,321953
1.7546,0.1075,39.0900,74,98,321957
1.7840,0.1124,38.9000,74,98,321960
1.7546,0.1075,39.0900,74,98,321964
1.7693,0.1124,39.0600,74,98,321968
1.7400,0.1271,39.1200,74,98,321971
1.7546,0.1026,39.0900,74,98,321974
1.7546,0.1124,39.0600,74,98,321978
1.7400,0.1124,39.0900,74,98,321981
1.7791,0.1026,39.0300,74,98,321984
1.7449,0.1075,39.0600,74,98,321987
1.7498,0.1075,39.0900,74,98,321991
1.7742,0.1173,38.9300,74,98,321994
1.7595,0.1075,39.0900,74,98,321997
1.7937,0.1124,38.8400,74,98,322001
1.7742,0.1075,39.1200,74,98,322004
1.7742,0.1075,39.0300,74,98,322008
1.8133,0.1173,39.0300,74,98,322012
1.7889,0.1124,39.1600,74,98,322015
1.8426,0.1124,38.8400,74,98,322018
1.8231,0.1124,39.0000,74,98,322022
1.8133,0.1026,39.1900,74,98,322025
1.8133,0.1124,39.0300,74,98,322028
1.8084,0.1075,39.1200,74,98,322031
1.8719,0.1271,38.8700,74,98,322035
1.8280,0.1173,39.0300,74,98,322038
1.8573,0.0929,39.0300,74,98,322041
1.8280,0.1075,39.0900,74,98,322045
1.8280,0.1075,39.0900,74,98,322049
1.8671,0.1271,38.9600,74,98,322052
1.8426,0.1124,39.0900,74,98,322056
1.8524,0.1320,39.0000,74,98,322059
1.8622,0.1026,39.0900,74,98,322062
1.8426,0.1075,39.0900,74,98,322066
1.8622,0.1320,38.9000,74,98,322069
1.8426,0.1075,39.0600,74,98,322072
1.8573,0.1124,38.9300,74,98,322075
1.8377,0.1124,39.0600,74,98,322079
1.8426,0.0929,39.0900,74,98,322082
1.8817,0.1173,38.9600,74,98,322085
1.8475,0.1075,39.0900,74,98,322089
1.8671,0.1075,38.9600,74,98,322093
1.8377,0.1075,39.0900,74,98,322096
1.8426,0.1222,39.1200,74,98,322100
1.8622,0.1124,39.0000,74,98,322103
1.8524,0.1075,39.0600,74,98,322106
1.8817,0.1124,38.8400,74,98,322109
1.8524,0.1075,39.0600,74,98,322113
1.8426,0.1075,39.1900,74,98,322116
1.8671,0.1173,39.0000,74,98,322119
1.8426,0.1075,39.0900,74,98,322123
1.8915,0.1173,38.8400,74,98,322126
1.8573,0.0929,39.0300,74,98,322129
1.8475,0.1075,39.1200,74,98,322134
1.8573,0.1222,39.0600,74,98,322137
1.8475,0.1075,39.1600,74,98,322140
1.9013,0.1320,38.8700,74,98,322144
1.8622,0.1124,39.0000,74,98,322147
1.8475,0.1026,38.3000,74,98,322150
1.8671,0.1026,39.0900,74,98,322153
1.8475,0.1075,39.0900,74,98,322157
1.8915,0.1173,39.0000,74,98,322160
1.8622,0.0929,39.0600,74,98,322163
1.8768,0.1075,39.0000,74,98,322167
1.8622,0.1075,39.0900,74,98,322170
1.8573,0.1075,39.2800,74,98,322173
1.8915,0.1173,38.9600,74,98,322178
1.8671,0.1124,39.1900,74,98,322181
1.8866,0.1173,38.9600,74,98,322184
1.8573,0.1075,39.1600,74,98,322187
1.8622,0.1075,39.0900,74,98,322191
1.8622,0.1075,39.0000,74,98,322194
1.8573,0.1075,39.1200,74,98,322197
1.8817,0.1075,38.9300,74,98,322201
1.8573,0.1075,39.0900,74,98,322204
1.8573,0.1075,39.0900,74,98,322207
1.9110,0.1173,38.9600,74,98,322211
1.8524,0.1075,39.0900,74,98,322214
1.8866,0.1124,38.9300,74,98,322217
1.8915,0.1124,39.0000,74,98,322221
1.8622,0.1075,39.0900,74,98,322225
1.8719,0.1369,39.0300,74,98,322228
1.8475,0.1075,39.1200,74,98,322231
1.9013,0.1173,38.2700,74,98,322235
1.8671,0.1075,39.0600,74,98,322238
1.8573,0.1075,39.2200,74,98,322241
1.8719,0.1173,39.0600,74,98,322245
1.8671,0.0733,39.1200,74,98,322248
1.9159,0.1271,38.8400,74,98,322251
1.8817,0.1173,38.9600,74,98,322255
1.8719,0.1075,39.0300,74,98,322258
1.8719,0.0929,39.1200,74,98,322262
1.8719,0.1075,39.2200,74,98,322265
1.9110,0.1222,38.9600,74,98,322269
1.8719,0.1124,39.1600,74,98,322272
1.8817,0.1075,39.0300,74,98,322275
1.8622,0.1075,39.0900,74,98,322279
1.8719,0.1075,39.0300,74,98,322282
1.9062,0.1222,38.9300,74,98,322285
1.8817,0.1075,39.2200,74,98,322289
1.9110,0.1124,39.0000,74,98,322292
1.8964,0.1026,39.0600,74,98,322295
1.9062,0.1075,39.0900,74,98,322299
1.9404,0.1173,39.0300,74,98,322302
1.9355,0.1075,39.0900,74,98,322306
1.9599,0.1075,38.9300,74,98,322309
1.9453,0.1075,39.0600,74,98,322313
1.9550,0.1075,39.0900,74,98,322316
1.9697,0.1124,38.9300,74,98,322319
1.9550,0.1173,39.0900,74,98,322323
2.0332,0.1173,38.8700,74,98,322326
1.9697,0.1026,39.0600,74,98,322329
1.9746,0.1124,39.0900,74,98,322333
1.9990,0.1124,39.0600,74,98,322336
1.9795,0.1075,39.0300,74,98,322339
2.0332,0.1222,38.8400,74,98,322342
1.9941,0.1124,39.0300,74,98,322347
1.9550,0.1026,39.0600,74,98,322350
1.9257,0.1124,39.0600,74,98,322353
1.8964,0.1075,39.0900,74,98,322357
1.9355,0.1466,38.8400,74,98,322360
1.8768,0.1124,39.0600,74,98,322363
1.8622,0.1026,39.0300,74,98,322367
1.8817,0.0929,39.0600,74,98,322370
1.8328,0.1075,39.0900,74,98,322373
1.8622,0.1173,38.9600,74,98,322376
1.8377,0.1173,39.0600,74,98,322380
1.8231,0.1075,38.9600,74,98,322383
1.7937,0.1075,38.9600,74,98,322386
1.7889,0.1026,39.1200,74,98,322391
1.7937,0.1173,39.0900,74,98,322394
1.7742,0.1173,39.0900,74,98,322397
1.7986,0.1173,38.9300,74,98,322401
1.7742,0.1417,39.0900,74,98,322404
1.7791,0.1075,39.0900,74,98,322407
1.8182,0.1173,39.0000,74,98,322411
1.7791,0.1075,39.0600,74,98,322414
1.8084,0.1173,38.9600,74,98,322417
1.7937,0.1075,39.0000,74,98,322420
1.7889,0.1075,39.2200,74,98,322424
1.8133,0.1173,39.0000,74,98,322427
1.7644,0.1075,39.0900,74,98,322430
1.7937,0.1124,38.9600,74,98,322435
1.8084,0.1124,39.0300,74,98,322438
1.8622,0.1075,39.1200,74,98,322441
1.9844,0.1173,39.0000,74,98,322445
2.0870,0.1026,39.0900,74,98,322448
2.2678,0.1173,38.8400,74,98,322451
2.3656,0.1075,39.0600,74,98,322454
2.5513,0.1320,39.0900,74,98,322458
2.6931,0.1124,39.0600,74,98,322461
2.6344,0.1075,39.0900,74,98,322464
2.5464,0.1271,38.8400,74,98,322468
2.2825,0.1124,39.0300,74,98,322471
2.0674,0.1026,39.0300,74,98,322475
1.9208,0.1173,39.0900,74,98,322479
1.8328,0.1026,39.0600,74,98,322482
1.8328,0.1124,38.9300,74,98,322485
1.7155,0.1173,39.0000,74,98,322490
1.6960,0.1173,39.0900,74,98,322493
1.7449,0.1173,38.9600,74,98,322496
1.6764,0.1075,39.1200,74,98,322500
1.6764,0.1075,39.1200,74,98,322503
1.6911,0.1124,38.9300,74,98,322506
1.6862,0.1320,39.0900,74,98,322510
1.7351,0.1026,38.9000,74,98,322513
1.6960,0.1075,39.1600,74,98,322516
1.6960,0.1124,39.1200,74,98,322521
1.7155,0.1173,39.0600,74,98,322524
1.7058,0.1417,39.0900,74,98,322527
1.7449,0.1173,38.8400,74,98,322531
1.7302,0.1124,39.0600,74,98,322534
1.7155,0.1075,39.0300,74,98,322537
1.7253,0.1124,39.0600,74,98,322540
1.7204,0.1075,39.2500,74,98,322544
1.7742,0.1515,38.8100,74,98,322547
1.7449,0.1075,39.0300,74,98,322550
1.7498,0.1075,39.0600,74,98,322554
1.7546,0.1124,39.0600,74,98,322557
1.7546,0.1075,39.0900,74,98,322561
1.8035,0.1369,38.9300,74,98,322565
1.7840,0.1124,39.0600,74,98,322568
1.7840,0.1075,39.0000,74,98,322571
1.7791,0.1075,39.1600,74,98,322574
1.7791,0.1075,39.0900,74,98,322578
1.8035,0.1222,39.0300,74,98,322581
1.7889,0.1124,39.0300,74,98,322584
1.8133,0.1173,38.9600,74,98,322588
1.8035,0.1075,39.1200,74,98,322591
1.8084,0.1075,39.1900,74,98,322594
1.8426,0.1124,38.9300,74,98,322598
1.8084,0.1075,39.0600,74,98,322601
1.8475,0.1173,38.9600,74,98,322605
1.8182,0.1026,39.0900,74,98,322609
1.8280,0.1075,39.1200,74,98,322612
1.8475,0.1173,39.0300,74,98,322615
1.8328,0.1075,39.0000,74,98,322618
1.8622,0.1320,38.9000,74,98,322622
1.8524,0.1075,39.0600,74,98,322625
1.8475,0.1075,39.0900,74,98,322628
1.8817,0.1222,39.0300,74,98,322632
1.8671,0.1124,39.0900,74,98,322635
1.9159,0.1124,38.8700,74,98,322638
1.8817,0.1271,39.0300,74,98,322642
1.9062,0.1075,39.0900,74,98,322646
1.9208,0.1124,39.0600,74,98,322649
1.9159,0.1075,39.0900,74,98,322652
1.9746,0.1222,38.8100,74,98,322656
1.9404,0.1124,39.0300,74,98,322659
1.9306,0.1026,39.0600,74,98,322662
1.9453,0.1124,39.0600,74,98,322666
1.9501,0.1075,39.1200,74,98,322669
2.0186,0.1515,38.9000,74,98,322672
1.9795,0.1124,39.0600,74,98,322676
1.9844,0.1075,39.0000,74,98,322679
1.9795,0.1075,39.0600,74,98,322682
1.9795,0.1075,39.0900,74,98,322685
2.0235,0.1124,38.9600,74,98,322690
2.0039,0.1124,39.1200,74,98,322693
2.0137,0.1075,38.9600,74,98,322696
2.0039,0.0929,39.0900,74,98,322700
1.9941,0.1075,39.0900,74,98,322703
2.0186,0.1124,39.0900,74,98,322706
1.9941,0.1124,39.0300,74,98,322709
2.0088,0.0929,38.9600,74,98,322713
1.9697,0.1075,39.0300,74,98,322716
1.9501,0.1075,39.1200,74,98,322719
1.9648,0.1173,38.9600,74,98,322723
1.9453,0.1075,39.1900,74,98,322726
1.9159,0.1075,38.9600,74,98,322729
1.8768,0.1075,39.0600,74,98,322734
1.8622,0.0929,39.1900,74,98,322737
1.8231,0.1124,38.2700,74,98,322740
1.7791,0.1173,39.0900,74,98,322744
1.7937,0.1124,38.8700,74,98,322747
1.7400,0.1124,39.0300,74,98,322750
1.7204,0.1026,39.1200,74,98,322753
1.7155,0.1124,39.0300,74,98,322757
1.6716,0.1075,39.1200,74,98,322760
1.6911,0.1173,38.8400,74,98,322763
1.6471,0.1075,38.9600,74,98,322767
1.6716,0.1026,39.0900,74,98,322770
1.6422,0.1124,39.1600,74,98,322774
1.6227,0.1075,39.0900,74,98,322778
1.6716,0.1271,38.8100,74,98,322781
1.6373,0.1075,39.0600,74,98,322784
1.6373,0.1026,39.0000,74,98,322788
1.6276,0.1075,39.1900,74,98,322791
1.6276,0.1124,39.0900,74,98,322794
1.6569,0.1173,38.9300,74,98,322797
1.6325,0.1124,39.0900,74,98,322801
1.6471,0.1075,38.9600,74,98,322804
1.6373,0.1075,39.1200,74,98,322807
1.6422,0.1124,39.1200,74,98,322811
1.6716,0.1173,39.0000,74,98,322814
1.6520,0.1124,39.1200,74,98,322818
1.7009,0.1173,38.9600,74,98,322822
1.6520,0.1075,39.0300,74,98,322825
1.6618,0.1124,39.1200,74,98,322828
1.6813,0.1124,38.9600,74,98,322832
1.6813,0.1369,39.1200,74,98,322835
1.7155,0.1075,38.9300,74,98,322838
1.6862,0.1075,39.0600,74,98,322841
1.6960,0.1026,39.0900,74,98,322845
1.7351,0.1222,38.9600,74,98,322848
1.7107,0.1075,39.0900,74,98,322851
1.7791,0.1173,38.8400,74,98,322855
1.7302,0.1124,39.0600,74,98,322859
1.7155,0.1417,39.1900,74,98,322862
1.7204,0.1124,38.8100,74,98,322866
1.7155,0.1369,39.1200,74,98,322869
1.7742,0.1222,38.8400,74,98,322872
1.7546,0.0929,39.0000,74,98,322876
1.7204,0.1026,39.0600,74,98,322879
1.7302,0.1124,39.0900,74,98,322882
1.7302,0.1369,39.0600,74,98,322885
1.8035,0.1320,38.9300,74,98,322889
1.7693,0.1124,38.7700,74,98,322892
1.7595,0.1075,39.0000,74,98,322895
1.7498,0.0929,39.0900,74,98,322899
1.7449,0.1075,39.1600,74,98,322903
1.7742,0.1222,39.0600,74,98,322906
1.7595,0.1124,39.0600,74,98,322910
1.7693,0.1075,38.9600,74,98,322913
1.7644,0.1026,39.0900,74,98,322916
1.7498,0.1075,39.1200,74,98,322919
1.7742,0.1173,39.0000,74,98,322923
1.7498,0.1075,39.0900,74,98,322926
1.7791,0.1124,38.9600,74,98,322929
1.7449,0.1075,39.0600,74,98,322933
1.7498,0.1075,39.0900,74,98,322936
1.7498,0.1124,39.0300,74,98,322939
1.7302,0.1026,39.0900,74,98,322944
1.7498,0.1173,38.9000,74,98,322947
1.7351,0.1124,39.0300,74,98,322950
1.7400,0.1075,39.0900,74,98,322954
1.7595,0.1222,39.0300,74,98,322957
1.7400,0.1075,39.0900,74,98,322960
1.7742,0.1124,38.8400,74,98,322963
1.7351,0.1026,39.0300,74,98,322967
1.7498,0.1075,39.0600,74,98,322970
1.7595,0.0929,39.0600,74,98,322973
1.7546,0.1075,39.1200,74,98,322977
1.7986,0.1173,38.8100,74,98,322980
1.7693,0.1124,39.0000,74,98,322983
1.7595,0.1026,39.0900,74,98,322988
1.7693,0.1075,39.0600,74,98,322991
1.7644,0.1075,39.0900,74,98,322994
1.8084,0.1271,38.9600,74,98,322997
1.7644,0.0929,39.0600,74,98,323001
1.7595,0.1026,39.0000,74,98,323004
1.7595,0.1075,39.1900,74,98,323007
1.7595,0.1320,39.1200,74,98,323011
1.7937,0.1124,39.0000,74,98,323014
1.7693,0.1124,38.9600,74,98,323017
1.7889,0.1075,38.9600,74,98,323021
1.7546,0.1075,39.1200,74,98,323024
1.7693,0.1026,39.0900,74,98,323027
1.7791,0.1173,39.0300,74,98,323031
1.7644,0.1075,39.0900,74,98,323035
1.7889,0.1075,38.9600,74,98,323038
1.7546,0.1075,39.0900,74,98,323041
1.7595,0.1075,39.0900,74,98,323045
1.7889,0.1173,38.9600,74,98,323048
1.7742,0.1075,39.0900,74,98,323051
1.7986,0.1026,38.9000,74,98,323055
1.7986,0.0929,39.0000,74,98,323058
1.7742,0.0733,39.1200,74,98,323061
1.7840,0.1369,39.0000,74,98,323064
1.7840,0.0978,39.0900,74,98,323068
1.7986,0.1075,38.8700,74,98,323072
1.7840,0.1075,39.0000,74,98,323075
1.7791,0.1026,39.1200,74,98,323079
1.8133,0.1075,39.0000,74,98,323082
1.7791,0.1026,39.0900,74,98,323085
1.8377,0.1124,38.8700,74,98,323089
1.7986,0.1075,39.0000,74,98,323092
1.7937,0.0978,39.0600,74,98,323095
1.7937,0.1075,39.0600,75,98,323098
1.8475,0.1026,38.4900,75,98,323103
1.8622,0.1075,39.0900,75,98,323106
1.9062,0.1124,38.9300,75,98,323110
1.8915,0.1026,39.2800,75,98,323113
1.9159,0.1124,38.9600,75,98,323117
1.8964,0.1026,39.1200,75,98,323121
1.8964,0.0978,39.0900,75,98,323124
1.9208,0.1124,39.0000,75,98,323127
1.8964,0.1026,39.1900,75,98,323131
1.9306,0.1026,38.9300,75,98,323134
1.9110,0.1075,39.0600,75,98,323137
1.9208,0.0978,39.0900,75,98,323140
1.9306,0.1026,39.0000,75,98,323144
1.9110,0.0978,39.1900,75,98,323147
1.9257,0.0978,38.9000,75,98,323150
1.8817,0.1026,39.0600,75,98,323154
1.8622,0.1026,39.0900,75,98,323158
1.8573,0.1320,39.0000,75,98,323161
1.8377,0.1026,39.0900,75,98,323165
1.8426,0.1075,38.9000,75,98,323168
1.8084,0.1075,38.3600,75,98,323171
1.7840,0.0978,39.0600,75,98,323174
1.7889,0.1075,39.0600,75,98,323178
1.7693,0.1026,39.0600,75,98,323181
1.7986,0.1124,38.7700,75,98,323184
1.7400,0.0929,39.0300,75,98,323188
1.7253,0.0978,39.0900,75,98,323191
1.7302,0.1075,39.0900,75,98,323194
1.7253,0.1026,39.0900,75,98,323197
1.7693,0.1173,38.8700,75,98,323202
1.7351,0.1124,39.0000,75,98,323205
1.7204,0.0978,39.0300,75,98,323208
1.7058,0.1026,39.0900,75,98,323212
1.7155,0.1026,39.0900,75,98,323215
1.7595,0.1173,38.9600,75,98,323218
1.7253,0.1026,39.0600,75,98,323222
1.7400,0.1026,38.9600,75,98,323225
1.7302,0.1026,39.0600,75,98,323228
1.7204,0.1026,39.1200,75,98,323231
1.7546,0.1124,39.1600,75,98,323235
1.7498,0.1026,39.0600,75,98,323238
1.8133,0.1026,38.9300,75,98,323241
1.8573,0.1026,39.0900,75,98,323246
1.9550,0.0929,39.0900,75,98,323249
2.1114,0.0929,39.0000,75,98,323252
2.2336,0.1026,39.0900,75,98,323256
2.4438,0.1026,39.0600,75,98,323259
2.5953,0.1075,39.0300,75,98,323262
2.6540,0.1026,39.0900,75,98,323265
2.6100,0.0733,38.9600,75,98,323269
2.4145,0.1026,39.0900,75,98,323272
2.2434,0.1026,38.8700,75,98,323275
2.0186,0.1075,39.0900,75,98,323279
1.8768,0.0929,39.0900,75,98,323282
1.7840,0.1075,39.0600,75,98,323286
1.7204,0.1026,39.1200,75,98,323289
1.7302,0.1075,38.8700,75,98,323293
1.7058,0.1124,39.0000,75,98,323296
1.6813,0.0978,39.0900,75,98,323299
1.6764,0.1124,39.0300,75,98,323303
1.6569,0.0929,39.0900,75,98,323306
1.6862,0.1124,38.8400,75,98,323309
1.6520,0.0978,39.0300,75,98,323313
1.6471,0.0929,39.0900,75,98,323316
1.6618,0.1075,39.0900,75,98,323319
1.6520,0.1026,39.0900,75,98,323322
1.7009,0.1222,38.9000,75,98,323326
1.6716,0.1124,39.0000,75,98,323330
1.6716,0.0929,39.0600,75,98,323333
1.6813,0.1369,39.1200,75,98,323337
1.6911,0.1026,39.0900,75,98,323340
1.7302,0.1173,38.9300,75,98,323343
1.7302,0.0929,39.0900,75,98,323347
1.7155,0.1026,38.9600,75,98,323350
1.7009,0.0978,39.0900,75,98,323353
1.7400,0.0929,39.1200,75,98,323356
1.7546,0.1124,38.9000,75,98,323360
1.7302,0.1222,39.1200,75,98,323363
1.7449,0.1075,38.9600,75,98,323366
1.7351,0.1026,39.1600,75,98,323371
1.7595,0.0978,39.0900,75,98,323374
1.7693,0.1075,39.0000,75,98,323377
1.7546,0.1026,39.0600,75,98,323381
1.7840,0.1075,38.9600,75,98,323384
1.7546,0.1026,39.0600,75,98,323387
1.7595,0.0978,39.0900,75,98,323390
1.7889,0.1075,38.9600,75,98,323394
1.7840,0.1173,39.1200,75,98,323397
1.8182,0.0978,38.9300,75,98,323400
1.7937,0.1026,39.1200,75,98,323404
1.7889,0.1075,39.0900,75,98,323407
1.8133,0.1075,39.0900,75,98,323410
1.8084,0.0978,39.1900,75,98,323415
1.8719,0.1124,38.8400,75,98,323418
1.8426,0.1075,39.0300,75,98,323421
1.8328,0.1026,39.1200,75,98,323425
1.8377,0.1026,39.0600,75,98,323428
1.8328,0.1026,39.1200,75,98,323431
1.9306,0.1222,38.8100,75,98,323434
1.8622,0.1026,38.9300,75,98,323438
1.8768,0.0978,39.0300,75,98,323441
1.8768,0.1026,39.0600,75,98,323444
1.8719,0.1026,39.0900,75,98,323448
1.9257,0.1173,38.9300,75,98,323451
1.9013,0.1075,39.0300,75,98,323454
1.9110,0.0978,38.9600,75,98,323459
1.9062,0.1369,39.0600,75,98,323462
1.9159,0.1026,39.0600,75,98,323465
1.9501,0.1124,38.9000,75,98,323468
1.9355,0.1075,39.0600,75,98,323472
1.9697,0.1075,38.9600,75,98,323475
1.9599,0.1026,39.0900,75,98,323478
1.9697,0.0929,39.1200,75,98,323482
2.0186,0.1124,38.9300,75,98,323485
1.9892,0.1075,39.0900,75,98,323488
2.0235,0.1026,39.0000,75,98,323492
2.0039,0.0978,39.0300,75,98,323495
2.0137,0.0978,39.0900,75,98,323499
2.0332,0.1173,39.0000,75,98,323502
2.0137,0.1075,39.1900,75,98,323506
2.0528,0.0929,38.9000,75,98,323509
2.0235,0.1026,39.1200,75,98,323512
2.0283,0.0880,39.1200,75,98,323516
2.0626,0.1124,38.9600,75,98,323519
2.0332,0.1026,39.1600,75,98,323522
2.0723,0.1173,38.8700,75,98,323526
2.0235,0.0978,39.0300,75,98,323529
2.0088,0.0978,39.1600,75,98,323532
2.0137,0.1173,39.1200,75,98,323535
1.9844,0.0733,39.0900,75,98,323539
2.0137,0.1075,38.9300,75,98,323543
1.9550,0.1320,39.0000,75,98,323546
1.9110,0.0978,39.0600,75,98,323550
1.8866,0.1075,39.0600,75,98,323553
1.8573,0.1026,39.0300,75,98,323556
1.9062,0.1222,38.9300,75,98,323560
1.8133,0.1026,39.0300,75,98,323563
1.7791,0.0978,39.0600,75,98,323566
1.7595,0.0929,39.0900,75,98,323569
1.7351,0.1026,39.1200,75,98,323573
1.7595,0.1173,38.9300,75,98,323576
1.7253,0.1075,39.0600,75,98,323579
1.7204,0.1026,39.0300,75,98,323584
1.6911,0.1026,39.0900,75,98,323587
1.6764,0.1026,39.0900,75,98,323590
1.6960,0.1075,39.0600,75,98,323594
1.6813,0.0978,39.0300,75,98,323597
1.7009,0.1075,39.0000,75,98,323600
1.6764,0.1026,39.0300,75,98,323603
1.6764,0.0978,39.0900,75,98,323607
1.7107,0.1124,38.9300,75,98,323610
1.6862,0.1075,39.0600,75,98,323613
1.7155,0.0929,38.9300,75,98,323617
1.7009,0.0978,39.0000,75,98,323620
1.6960,0.1026,39.0900,75,98,323623
1.7107,0.1075,39.0000,75,98,323628
1.6911,0.1026,39.1900,75,98,323631
1.7351,0.1026,38.8700,75,98,323634
1.7155,0.1075,39.0600,75,98,323637
1.7107,0.0978,39.0900,75,98,323641
1.7449,0.1124,39.0000,75,98,323644
1.7204,0.1075,39.0600,75,98,323647
1.7644,0.1075,38.8400,75,98,323651
1.7302,0.0978,38.9600,75,98,323654
1.7351,0.1026,39.1200,75,98,323657
1.7595,0.1075,39.0600,75,98,323661
1.7400,0.1075,39.0900,75,98,323664
1.7889,0.1222,38.8400,75,98,323667
1.7644,0.1075,39.0300,75,98,323671
1.7546,0.0978,39.0300,75,98,323675
1.7644,0.1026,39.0600,75,98,323678
1.7644,0.0978,39.0600,75,98,323681
1.8133,0.1124,38.9600,75,98,323685
1.7791,0.1026,39.0600,75,98,323688
1.7742,0.0978,39.0300,75,98,323691
1.7693,0.0978,39.0900,75,98,323695
1.7937,0.1026,39.0900,75,98,323698
1.8035,0.1075,39.0000,75,98,323701
1.7791,0.1026,39.2200,75,98,323704
1.7986,0.1075,38.9300,75,98,323708
1.7742,0.1026,39.0600,75,97,323712
1.7742,0.1026,39.0900,75,97,323716
1.7791,0.0978,39.0300,75,97,323719
1.8280,0.1026,39.0000,75,97,323722
1.7889,0.1026,39.0900,75,97,323726
1.8182,0.1075,38.9000,75,97,323729
1.7889,0.1075,39.0000,75,97,323732
1.7791,0.0978,39.0600,75,97,323736
1.7742,0.1075,39.0600,75,97,323739
1.7644,0.1026,39.1200,75,97,323742
1.8133,0.1124,38.8100,75,97,323745
1.7742,0.1026,39.0300,75,97,323749
1.7595,0.1026,39.0900,75,97,323752
1.7644,0.1026,39.0900,75,97,323756
1.7595,0.0733,39.0600,75,97,323760
1.8133,0.1222,38.9300,75,97,323763
1.7644,0.1026,39.0900,75,97,323766
1.7693,0.0978,39.0000,75,97,323770
1.7595,0.1075,39.0600,75,97,323773
1.7498,0.0929,39.0900,75,97,323776
1.7889,0.1124,38.9600,75,97,323779
1.7693,0.1026,39.0300,75,97,323783
1.8035,0.0929,39.0000,75,97,323786
1.7644,0.1026,39.1200,75,97,323789
1.7595,0.1026,39.0600,75,97,323793
1.7889,0.1124,38.9300,75,97,323796
1.7693,0.1222,39.1200,75,97,323800
1.8084,0.1075,39.0000,75,97,323804
1.7840,0.0978,39.0600,75,97,323807
1.7840,0.1026,38.5200,75,97,323810
1.8035,0.1124,39.0000,75,97,323813
1.8084,0.0978,39.0900,75,97,323817
1.8280,0.0978,38.9600,75,97,323820
1.7889,0.0978,39.0600,75,97,323823
1.7937,0.0978,39.0900,75,97,323827
1.7986,0.1075,39.0300,75,97,323830
1.7889,0.1026,39.0900,75,97,323833
1.8182,0.1026,38.9300,75,97,323837
1.7937,0.1320,39.1200,75,97,323841
1.7986,0.0978,39.0900,75,97,323844
1.8133,0.1124,38.9300,75,97,323847
1.7986,0.0929,39.0900,75,97,323851
1.8377,0.1124,38.8400,75,97,323854
1.8133,0.1124,39.0000,75,97,323857
1.8035,0.1026,39.0900,75,97,323861
1.8084,0.1026,39.0900,75,97,323864
1.7986,0.0978,39.1200,75,97,323867
1.8768,0.1173,38.9300,75,97,323871
1.8133,0.1026,38.9600,75,97,323874
1.8035,0.0978,39.0300,75,97,323877
1.8035,0.1026,39.0900,75,97,323880
1.8084,0.0929,39.0900,75,97,323885
1.8768,0.1173,38.9000,75,97,323888
1.8280,0.1026,39.0600,75,97,323891
1.8280,0.1026,39.0600,75,97,323895
1.8377,0.0929,39.0600,75,97,323898
1.8426,0.0978,39.0900,75,97,323901
1.8915,0.1222,38.9300,75,97,323905
1.8915,0.1026,39.0600,75,97,323908
1.9013,0.1026,38.9600,75,97,323911
1.8915,0.1075,39.0600,75,97,323914
1.8915,0.0929,39.0900,75,97,323918
1.9404,0.1124,38.9300,75,97,323921
1.9159,0.0978,39.0600,75,97,323924
1.9648,0.1075,38.9600,75,97,323929
1.9208,0.0978,39.0900,75,97,323932
1.9208,0.0978,38.5200,75,97,323935
1.9599,0.1075,39.0000,75,97,323939
1.9599,0.1075,39.0900,75,97,323942
1.9941,0.0978,38.9000,75,97,323945
1.9746,0.0978,39.0600,75,97,323948
1.9648,0.1124,39.1900,75,97,323952
1.9697,0.1026,39.0300,75,97,323955
1.9404,0.0978,39.0600,75,97,323958
1.9550,0.1075,38.8700,75,97,323962
1.9013,0.0978,39.3800,75,97,323965
1.8817,0.1026,39.0900,75,97,323969
1.8768,0.1075,39.0600,75,97,323973
1.8524,0.0978,39.1200,75,97,323976
1.8915,0.1026,38.8400,75,97,323979
1.8524,0.1026,39.0000,75,97,323982
1.8426,0.0978,39.0300,75,97,323986
1.8377,0.1026,39.0900,75,97,323989
1.8133,0.0978,39.1200,75,97,323992
1.8524,0.1222,38.8700,75,97,323996
1.8035,0.1026,39.0300,75,97,323999
1.7937,0.0978,39.0300,75,97,324002
1.7889,0.1026,39.0900,75,97,324006
1.7889,0.1075,39.0900,75,97,324009
1.8280,0.1124,38.9300,75,97,324013
1.7986,0.0978,39.0900,75,97,324016
1.8084,0.1222,39.0000,75,97,324020
1.7986,0.0929,39.0900,75,97,324023
1.7986,0.0978,39.1600,75,97,324026
1.8328,0.1124,39.0000,75,97,324030
1.7986,0.0929,39.0900,75,97,324033
1.8084,0.1026,39.0000,75,97,324036
1.7742,0.1075,39.0900,75,97,324040
1.7840,0.0978,39.0900,75,97,324043
1.8377,0.1124,38.9300,75,97,324046
1.8622,0.1369,39.1900,75,97,324049
1.9648,0.0733,39.0000,75,97,324054
2.0381,0.0978,39.0300,75,97,324057
2.1701,0.0978,39.0600,75,97,324060
2.3509,0.1075,39.0300,75,97,324064
2.5073,0.0978,39.0600,75,97,324067
2.7126,0.1026,38.9000,75,97,324070
2.7126,0.1075,39.0300,75,97,324074
2.6002,0.0929,39.0900,75,97,324077
2.4291,0.0733,39.0600,75,97,324080
2.2092,0.0978,39.1600,75,97,324083
2.0723,0.1320,38.8400,75,97,324087
1.9062,0.0978,39.0600,75,97,324090
1.8377,0.0978,39.1600,75,97,324093
1.8328,0.1026,39.0600,75,97,324098
1.7889,0.0978,39.0900,75,97,324101
1.8231,0.1124,38.7700,75,97,324104
1.7791,0.1026,39.0000,75,97,324108
1.7595,0.0929,39.0900,75,97,324111
1.7302,0.1026,39.1200,75,97,324114
1.7204,0.1026,39.0600,75,97,324117
1.7693,0.1173,38.9000,75,97,324121
1.7204,0.1124,39.0300,75,97,324124
1.7253,0.0929,39.0000,75,97,324127
1.7204,0.1026,39.0900,75,97,324131
1.7155,0.0978,39.0900,75,97,324134
1.7644,0.1124,38.9600,75,97,324137
1.7449,0.1026,39.1200,75,97,324142
1.7644,0.1026,39.0000,75,97,324145
1.7644,0.1026,39.0900,75,97,324148
1.7595,0.0978,39.1200,75,97,324151
1.7791,0.0978,39.0300,75,97,324155
1.7644,0.1026,39.0600,75,97,324158
1.7986,0.1075,39.0000,75,97,324161
1.7791,0.1271,39.0900,75,97,324165
1.7889,0.0978,39.0900,75,97,324168
1.8182,0.1075,39.0000,75,97,324171
1.7889,0.1026,39.0600,75,97,324175
1.8280,0.1026,38.9300,75,97,324178
1.8035,0.0733,39.0300,75,97,324182
1.8084,0.0978,38.9000,75,97,324185
1.8622,0.0978,39.0300,75,97,324189
1.8231,0.0978,39.0900,75,97,324192
1.8622,0.1026,38.8400,75,97,324195
1.8622,0.1026,39.0300,75,97,324199
1.8426,0.0978,39.1200,75,97,324202
1.8573,0.1320,39.0300,75,97,324205
1.8475,0.0929,39.1200,75,97,324209
1.8964,0.1075,38.8400,75,97,324212
1.8866,0.1026,39.1200,75,97,324215
1.8573,0.0978,39.0900,75,97,324218
1.8719,0.1026,39.0900,75,97,324222
1.8719,0.0978,39.1900,75,97,324226
1.9306,0.1222,38.8700,75,97,324229
1.8915,0.1026,39.0300,75,97,324233
1.8915,0.0978,39.0300,75,97,324236
1.8915,0.1026,39.0900,75,97,324239
1.8964,0.0978,39.0600,75,97,324243
1.9453,0.1075,38.9000,75,97,324246
1.9159,0.1026,39.0600,75,97,324249
1.9257,0.0978,39.0000,75,97,324252
1.9159,0.1026,39.0600,75,97,324256
1.9257,0.0978,39.1200,75,97,324259
1.9697,0.1075,39.0000,75,97,324262
1.9550,0.1026,39.0300,75,97,324267
1.9795,0.1026,39.0000,75,97,324270
1.9697,0.0978,39.1200,75,97,324273
1.9697,0.0978,39.0900,75,97,324277
1.9941,0.1075,39.0300,75,97,324280
1.9990,0.0929,39.0900,75,97,324283
2.0332,0.1026,39.0000,75,97,324286
2.0088,0.0978,39.0900,75,97,324290
2.0137,0.0978,39.2800,75,97,324293
2.0479,0.1075,39.0000,75,97,324296
2.0283,0.0978,39.0900,75,97,324300
2.0674,0.0978,38.9300,75,97,324303
2.0528,0.0978,39.0300,75,97,324306
2.0528,0.0978,39.2500,75,97,324310
2.0674,0.1026,39.0000,75,97,324314
2.0528,0.0978,39.0900,75,97,324317
2.0919,0.1026,38.9000,75,97,324320
2.0919,0.1173,38.8700,75,97,324324
2.0332,0.0978,39.0000,75,97,324327
2.0137,0.0929,39.0300,75,97,324331
1.9990,0.0978,39.0600,75,97,324334
1.9746,0.0978,39.0900,75,97,324337
1.9941,0.1124,39.2800,75,97,324341
1.9550,0.1026,39.0300,75,97,324344
1.9062,0.0733,39.0000,75,97,324347
1.8719,0.1026,39.1200,75,97,324350
1.8426,0.1026,39.0600,75,97,324355
1.8524,0.1075,38.9000,75,97,324358
1.7937,0.1369,39.0600,75,97,324361
1.7840,0.1026,38.9600,75,97,324365
1.7449,0.0978,39.0900,75,97,324368
1.7351,0.0978,39.0900,75,97,324371
1.7449,0.1124,38.9600,75,97,324374
1.7204,0.0929,39.0600,75,97,324378
1.7253,0.1075,39.0300,75,97,324381
1.6911,0.0929,39.0900,75,97,324384
1.6911,0.0929,39.0900,75,97,324388
1.7009,0.1026,38.9000,75,97,324391
1.6911,0.1026,39.1200,75,97,324395
1.7400,0.0978,38.9000,75,97,324399
1.6813,0.0978,39.0900,75,97,324402
1.6862,0.0978,39.0900,75,97,324405
1.7155,0.1271,38.9600,75,97,324408
1.6960,0.1075,39.0600,75,97,324412
1.7351,0.1026,38.8700,75,97,324415
1.7253,0.0929,39.0000,75,97,324418
1.7058,0.0978,39.0600,75,97,324422
1.7204,0.1026,39.0900,75,97,324425
1.7107,0.1075,39.0900,75,97,324428
1.7693,0.1075,38.8400,75,97,324432
1.7400,0.1026,39.0300,75,97,324435
1.7351,0.0978,39.0900,75,97,324439
1.7400,0.0929,39.0900,75,97,324442
1.7351,0.0978,39.1200,75,97,324446
1.7840,0.1173,38.9000,75,97,324449
1.7498,0.1026,39.0600,75,97,324452
1.7498,0.0929,39.0300,75,97,324456
1.7693,0.0978,39.0600,75,97,324459
1.7449,0.0978,39.0900,75,97,324462
1.7840,0.1124,38.9600,75,97,324466
1.7889,0.0929,39.0600,75,97,324469
1.7742,0.0733,38.9600,75,97,324472
1.7595,0.1026,39.0900,75,97,324476
1.7595,0.0929,39.0900,75,97,324480
1.7840,0.1075,38.9300,75,97,324483
1.7595,0.0978,39.1200,75,97,324486
1.7889,0.0929,38.9300,75,97,324490
1.7693,0.0978,38.7100,75,97,324493
1.7693,0.1075,39.1900,75,97,324496
1.7840,0.1075,39.0300,75,97,324500
1.7644,0.0978,39.1900,75,97,324503
1.7889,0.1271,38.9600,75,97,324506
1.7693,0.0978,39.0900,75,97,324510
1.7693,0.0978,39.1200,75,97,324513
1.7791,0.1026,39.0300,75,97,324516
1.7644,0.0978,39.0600,75,97,324519
1.7937,0.1026,38.9300,75,97,324524
1.7693,0.0929,39.0900,75,97,324527
1.7693,0.0978,39.0900,75,97,324530
1.7889,0.1075,39.0300,75,97,324534
1.7742,0.1075,39.1200,75,97,324537
1.8035,0.1075,38.8100,75,97,324540
1.7742,0.1124,38.9600,75,97,324544
1.7644,0.1026,39.0900,75,97,324547
1.7742,0.1026,39.0300,75,97,324550
1.7693,0.1173,39.1200,75,97,324553
1.8182,0.1173,38.9000,75,97,324557
1.7742,0.1075,39.0600,75,97,324560
1.7693,0.1026,39.0300,75,97,324563
1.7742,0.1026,39.0600,75,97,324568
1.7791,0.0978,38.3300,75,97,324571
1.8231,0.1173,38.9300,75,97,324574
1.7840,0.1026,39.1900,75,97,324578
1.7889,0.0978,39.0000,75,97,324581
1.7791,0.0929,39.0900,75,97,324584
1.7742,0.0978,38.5200,75,97,324588
1.7986,0.1026,39.0600,75,97,324591
1.7693,0.0929,39.0900,75,97,324594
1.7889,0.0929,38.9300,75,97,324597
1.7644,0.1026,39.0600,75,97,324601
1.7693,0.1075,39.0900,75,97,324604
1.8035,0.1124,38.9600,75,97,324608
1.7742,0.1026,39.0600,75,97,324612
1.8084,0.0978,38.9600,75,97,324615
1.7644,0.0978,39.0300,75,97,324618
1.7644,0.0978,39.1600,75,97,324622
1.7791,0.1026,39.0000,75,97,324625
1.7644,0.0978,39.0900,75,97,324628
1.7986,0.1026,39.0000,75,97,324631
1.7742,0.1271,39.0600,75,97,324635
1.7644,0.0929,39.0900,75,97,324638
1.7791,0.1026,39.0300,75,97,324641
1.7693,0.0929,39.0600,75,97,324645
1.8133,0.1075,38.8400,75,97,324648
1.7791,0.0978,39.1200,75,97,324652
1.7840,0.0978,39.0600,75,97,324656
1.7889,0.1026,39.0300,75,97,324659
1.7742,0.0978,38.4900,75,97,324662
1.8182,0.1124,38.8100,75,97,324665
1.7889,0.1026,39.0000,75,97,324669
1.7791,0.0929,39.0600,75,97,324672
1.8133,0.1026,39.0900,75,97,324675
1.7791,0.0978,39.0900,75,97,324679
1.8280,0.1173,38.9000,75,97,324682
1.7840,0.1075,39.0600,75,97,324685
1.7889,0.0978,39.0000,75,97,324688
1.7840,0.0733,39.0900,75,97,324692
1.7840,0.0978,39.0900,75,97,324696
1.8133,0.1124,38.8700,75,97,324699
1.7840,0.1026,39.0900,75,97,324703
1.8035,0.0929,38.9600,75,97,324706
1.7986,0.1026,38.9600,75,97,324709
1.8084,0.0929,39.0600,75,97,324713
1.8475,0.1075,39.0300,75,97,324716
1.8377,0.1026,39.0300,75,97,324719
1.8671,0.1075,38.9600,75,97,324722
1.8524,0.0978,39.1200,75,97,324726
1.8622,0.0978,39.1900,75,97,324729
1.8964,0.1075,38.9600,75,97,324732
1.8719,0.0929,39.1900,75,97,324737
1.9013,0.0929,38.9600,75,97,324740
1.8817,0.0978,38.8400,75,97,324743
1.8866,0.0880,39.0900,75,97,324747
1.9110,0.1026,39.0000,75,97,324750
1.9110,0.0978,39.1200,75,97,324753
1.9550,0.0978,38.8700,75,97,324757
1.9159,0.1026,39.0600,75,97,324760
1.9013,0.0978,39.0900,75,97,324763
1.9013,0.1026,39.0300,75,97,324766
1.8719,0.0978,39.1200,75,97,324770
1.8866,0.1075,38.8400,75,97,324773
1.8231,0.0978,39.0900,75,97,324776
1.8035,0.1026,39.0900,75,97,324781
1.7986,0.1026,39.0600,75,97,324784
1.7840,0.1075,39.0600,75,97,324787
1.8475,0.1173,38.8400,75,97,324791
1.7840,0.1026,39.0900,75,97,324794
1.7644,0.0978,39.0300,75,97,324797
1.7498,0.1026,39.0900,75,97,324800
1.7351,0.0978,39.1200,75,97,324804
1.7644,0.1369,38.9000,75,97,324807
1.7253,0.1026,39.0600,75,97,324810
1.7302,0.0978,38.9600,75,97,324814
1.7107,0.1075,39.1900,75,97,324817
1.7155,0.0929,39.0600,75,97,324820
1.7400,0.1173,39.0000,75,97,324825
1.7204,0.1075,39.0600,75,97,324828
1.7498,0.0929,38.9600,75,97,324831
1.7302,0.0978,39.0900,75,97,324834
1.7351,0.1222,39.1200,75,97,324838
1.7351,0.1026,39.0300,75,97,324841
1.7253,0.1026,39.0900,75,97,324844
1.7400,0.0978,38.9300,75,97,324848
1.7107,0.0978,39.0900,75,97,324851
1.7302,0.0978,39.0900,75,97,324854
1.7937,0.1075,38.9600,75,97,324858
1.8475,0.0929,39.0900,75,97,324861
1.9892,0.1026,38.9000,75,97,324865
2.1017,0.1026,38.9600,75,97,324868
2.2385,0.0978,39.0900,75,97,324872
2.4389,0.1075,39.0300,75,97,324875
2.5904,0.0978,39.0900,75,97,324878
2.6931,0.1075,38.8400,75,97,324882
2.5806,0.1075,39.0300,75,97,324885
2.3509,0.0978,39.0900,75,97,324888
2.1652,0.1026,39.0600,75,97,324891
1.9697,0.0978,39.0900,75,97,324895
1.8915,0.1124,38.8700,75,97,324898
1.7840,0.0978,39.0600,75,97,324901
1.7449,0.0929,39.0900,75,97,324905
1.7302,0.1026,38.7700,75,97,324909
1.7302,0.1026,39.1200,75,97,324912
1.7546,0.1222,38.9000,75,97,324916
1.7009,0.1026,39.0600,75,97,324919
1.6813,0.0978,38.9300,75,97,324922
1.6716,0.0929,39.0900,75,97,324925
1.6667,0.0978,39.0300,75,97,324929
1.6960,0.1173,38.9000,74,97,324932
1.6911,0.1075,39.0300,74,97,324936
1.6862,0.0978,39.0900,74,97,324939
1.7155,0.0978,39.0000,74,97,324942
1.6960,0.0978,39.1200,74,97,324946
1.7107,0.0978,39.0900,74,97,324950
1.7155,0.1026,39.0000,74,97,324953
1.7155,0.0978,39.1200,74,97,324957
1.7498,0.0978,38.8700,74,97,324960
1.7302,0.0978,39.0900,74,97,324963
1.7351,0.1075,39.0300,74,97,324966
1.7546,0.1124,39.0300,74,97,324970
1.7449,0.1026,39.1600,74,97,324973
1.7937,0.1026,38.8400,74,97,324976
1.7791,0.1026,39.0000,74,97,324980
1.7644,0.0978,39.0900,74,97,324983
1.8084,0.0929,39.0600,74,97,324986
1.7693,0.0929,39.0900,74,97,324990
1.8231,0.1124,38.8100,74,97,324994
1.7889,0.1075,39.0000,74,97,324997
1.7889,0.0929,39.0300,74,97,325001
1.7937,0.1026,38.5200,74,97,325004
1.7937,0.0978,39.0900,74,97,325007
1.8475,0.1173,38.9300,74,97,325010
1.8133,0.1026,39.0900,74,97,325014
1.8231,0.1222,38.9300,74,97,325017
1.8133,0.0978,39.0600,74,97,325020
1.8231,0.0978,39.0900,74,97,325024
1.8524,0.1124,39.0000,74,97,325027
1.8377,0.1026,39.0600,74,97,325030
1.8671,0.1026,38.9600,74,97,325033
1.8426,0.1026,39.1200,74,97,325038
1.8768,0.0978,39.0900,74,97,325041
1.8915,0.1124,38.9600,74,97,325044
1.8719,0.0978,39.0600,74,97,325048
1.8964,0.1026,38.9600,74,97,325051
1.8719,0.0978,38.9600,74,97,325054
1.8866,0.1026,39.0600,74,97,325058
1.9110,0.1026,39.0600,74,97,325061
1.8964,0.0978,39.1900,74,97,325064
1.9306,0.1075,38.9000,74,97,325068
1.9159,0.0978,39.0300,74,97,325071
1.9257,0.0978,39.0900,74,97,325074
1.9453,0.1075,39.0300,74,97,325078
1.9453,0.0929,39.0900,74,97,325082
1.9941,0.1075,38.8700,74,97,325085
1.9648,0.0978,39.0900,74,97,325088
1.9844,0.0978,39.0900,74,97,325092
2.0088,0.1075,39.0600,74,97,325095
2.0039,0.0978,39.2200,74,97,325098
2.0577,0.1124,38.8100,74,97,325102
2.0235,0.0929,39.0300,74,97,325105
2.0039,0.0929,39.0600,74,97,325108
2.0137,0.1222,39.0600,74,97,325111
2.0088,0.1075,39.0900,74,97,325115
2.0772,0.1173,38.8700,74,97,325118
2.0332,0.1026,39.1600,74,97,325122
2.0283,0.0978,39.0300,74,97,325126
2.0186,0.1075,39.0600,74,97,325129
2.0137,0.0978,39.0600,74,97,325132
2.0577,0.1173,38.9300,74,97,325135
1.9990,0.1026,39.2800,74,97,325139
1.9844,0.1124,39.0600,74,97,325142
1.9453,0.0929,39.0600,74,97,325145
1.9110,0.0978,39.3200,74,97,325149
1.9062,0.1222,38.9600,74,97,325152
1.8622,0.1026,39.0900,74,97,325155
1.8573,0.1026,39.0000,74,97,325159
1.8084,0.1026,39.0900,74,97,325163
1.7986,0.1075,39.0900,74,97,325166
1.7937,0.1075,38.9300,74,97,325169
1.7449,0.0929,39.0900,74,97,325173
1.7595,0.1026,38.9600,74,97,325176
1.7155,0.0929,39.0600,74,97,325179
1.7009,0.1075,39.0900,74,97,325183
1.6960,0.1026,39.0000,74,97,325186
1.6667,0.0978,39.0900,74,97,325189
1.6862,0.1026,39.0900,74,97,325193
1.6618,0.0978,39.0300,74,97,325196
1.6764,0.0978,39.0600,74,97,325199
1.6764,0.1075,39.1200,74,97,325202
1.6667,0.0978,39.0900,74,97,325207
1.6911,0.0929,38.8400,74,97,325210
1.6569,0.0929,39.0600,74,97,325213
1.6667,0.0978,39.0600,74,97,325217
1.6911,0.1075,39.0300,74,97,325220
1.6764,0.0978,39.1200,74,97,325223
1.7253,0.1124,38.8100,74,97,325227
1.6960,0.1026,38.9600,74,97,325230
1.6813,0.0978,39.0300,74,97,325233
1.6960,0.1026,39.0900,74,97,325236
1.7009,0.0978,39.0600,74,97,325240
1.7595,0.1173,38.4600,74,97,325243
1.7351,0.1026,39.0600,74,97,325246
1.7204,0.0978,39.0900,74,97,325251
1.7155,0.1026,38.9600,74,97,325254
1.7155,0.1075,39.0600,74,97,325257
1.7546,0.1075,38.9300,74,97,325261
1.7155,0.1026,39.0600,74,97,325264
1.7351,0.1173,38.9600,74,97,325267
1.7253,0.1026,39.0900,74,97,325270
1.7302,0.1026,39.1200,74,97,325274
1.7449,0.1075,39.0300,74,97,325277
1.7449,0.1026,39.0300,74,97,325280
1.7693,0.1124,39.0000,74,97,325284
1.7449,0.0978,39.0000,74,97,325287
1.7498,0.0978,39.0600,74,97,325291
1.7791,0.1026,38.9600,74,97,325295
1.7595,0.0978,39.0900,74,97,325298
1.7791,0.0978,38.9000,74,97,325301
1.7840,0.1026,39.0000,74,97,325305
1.7498,0.0978,39.0900,74,97,325308
1.7742,0.1026,39.0300,74,97,325311
1.7644,0.1124,39.1900,74,97,325314
1.8084,0.1026,38.8700,74,97,325318
1.7840,0.1026,39.0300,74,97,325321
1.7693,0.0978,39.1900,74,97,325324
1.7840,0.1026,39.0600,74,97,325328
1.7644,0.0978,39.1200,74,97,325331
1.8084,0.1173,38.8400,74,97,325335
1.7644,0.0978,38.9300,74,97,325339
1.7644,0.0929,39.0900,74,97,325342
1.7693,0.1026,39.0600,74,97,325345
1.7595,0.0978,39.1900,74,97,325348
1.8182,0.1417,38.9000,74,97,325352
1.7840,0.0733,39.0300,74,97,325355
1.7791,0.0978,39.0600,74,97,325358
1.7986,0.0929,39.0600,74,97,325362
1.7693,0.0978,39.0900,74,97,325365
1.7986,0.1124,38.9000,74,97,325368
1.7693,0.1124,39.0300,74,97,325372
1.7889,0.1026,38.9600,74,97,325376
1.7693,0.0978,39.0600,74,97,325379
1.7644,0.0978,39.1200,74,97,325382
1.7889,0.1075,38.9300,74,97,325386
1.7644,0.0978,39.0600,74,97,325389
1.7889,0.1124,39.0000,74,97,325392
1.7693,0.0978,39.0900,74,97,325396
1.7693,0.0978,39.0900,74,97,325399
1.7791,0.1026,39.0300,74,97,325402
1.7693,0.0978,39.1900,74,97,325406
1.7937,0.0978,38.9300,74,97,325409
1.7644,0.0978,39.0900,74,97,325412
1.7791,0.0978,39.0900,74,97,325415
1.7986,0.1075,39.0000,74,97,325420
1.7742,0.0978,38.9600,74,97,325423
1.8035,0.0978,38.8700,74,97,325426
1.7840,0.1026,39.0000,74,97,325430
1.7742,0.0978,39.0900,74,97,325433
1.7889,0.1075,39.0600,74,97,325436
1.7791,0.0929,39.0600,74,97,325440
1.8231,0.1075,38.8400,74,97,325443
1.7840,0.1075,39.0600,74,97,325446
1.7742,0.0978,39.0900,74,97,325449
1.7840,0.1026,39.0600,74,97,325453
1.7791,0.0978,38.6800,74,97,325456
1.8328,0.1173,38.8100,74,97,325459
1.7889,0.0978,39.0600,74,97,325464
1.7791,0.1075,39.0300,74,97,325467
1.7840,0.0978,39.0600,74,97,325470
1.7791,0.0978,39.0900,74,97,325474
1.8328,0.1124,38.9300,74,97,325477
1.7986,0.1075,39.0900,74,97,325480
1.7986,0.0978,39.0000,74,97,325483
1.7840,0.1075,39.1200,74,97,325487
1.8084,0.1026,39.1200,74,97,325490
1.8182,0.1075,38.9300,74,97,325493
1.7986,0.0978,39.1200,74,97,325497
1.8280,0.1026,38.9600,74,97,325500
1.8133,0.0978,39.0900,74,97,325504
1.8231,0.0978,39.3500,74,97,325508
1.8622,0.1075,39.0300,74,97,325511
1.8524,0.0978,39.1600,74,97,325514
1.8964,0.1075,39.0600,74,97,325517
1.8768,0.0978,39.0900,74,97,325521
1.8768,0.0978,39.0600,74,97,325524
1.8817,0.1026,38.9600,74,97,325527
1.8719,0.0978,39.1900,74,97,325531
1.9013,0.1026,38.9000,74,97,325534
1.8866,0.0978,39.0900,74,97,325537
1.9257,0.0978,39.0900,74,97,325541
1.9306,0.1075,39.0300,74,97,325544
1.8866,0.1026,39.0900,74,97,325549
1.8573,0.0978,39.1600,74,97,325552
1.8915,0.1222,38.8700,74,97,325555
1.8280,0.1026,38.9000,74,97,325559
1.8133,0.0978,39.0300,74,97,325562
1.8231,0.1026,39.0600,74,97,325565
1.7937,0.0978,39.0900,74,97,325568
1.8133,0.1222,38.9300,74,97,325572
1.7644,0.1026,39.0600,74,97,325575
1.7644,0.1026,39.0300,74,97,325578
1.7400,0.1173,39.0900,74,97,325582
1.7351,0.0978,39.0900,74,97,325585
1.7449,0.1075,38.9000,74,97,325588
1.7253,0.1173,39.0900,74,97,325593
1.7400,0.0929,38.9300,74,97,325596
1.7204,0.1026,39.0000,74,97,325599
1.7253,0.0978,39.0600,74,97,325602
1.7595,0.1124,38.9600,74,97,325606
1.7302,0.0978,39.1900,74,97,325609
1.7546,0.1026,39.0000,74,97,325612
1.7400,0.0978,39.0300,74,97,325616
1.7400,0.0978,39.0600,74,97,325619
1.7498,0.1026,39.0900,74,97,325622
1.7400,0.1124,39.0900,74,97,325625
1.7546,0.0978,38.9000,74,97,325629
1.7400,0.0929,39.0000,74,97,325633
1.7742,0.0978,39.0900,74,97,325636
1.8475,0.1026,39.0000,74,97,325640
1.9404,0.1173,39.1200,74,97,325643
2.1163,0.1075,38.8400,74,97,325646
2.2190,0.1173,39.0600,74,97,325650
2.4047,0.0978,39.1200,74,97,325653
2.6100,0.1026,39.0900,74,97,325656
2.6882,0.1026,39.1200,74,97,325659
2.7028,0.1124,38.8100,74,97,325663
2.4927,0.1026,39.0000,74,97,325666
2.2678,0.0929,39.0600,74,97,325669
2.0577,0.0978,39.0600,74,97,325673
1.8817,0.1075,39.0900,74,97,325677
1.8328,0.1222,38.9300,74,97,325680
1.7351,0.1075,39.0300,74,97,325684
1.7107,0.0929,39.0300,74,97,325687
1.6813,0.1026,39.2200,74,97,325690
1.6618,0.0880,39.1200,74,97,325693
1.7107,0.1026,38.9300,74,97,325697
1.6471,0.1026,39.0900,74,97,325700
1.6569,0.1026,38.9000,74,97,325703
1.6373,0.1026,39.0600,74,97,325707
1.6276,0.0733,39.0900,74,97,325710
1.6471,0.1075,39.0000,74,97,325713
1.6325,0.1026,39.0300,74,97,325718
1.6813,0.1026,38.9600,74,97,325721
1.6373,0.0978,39.0900,74,97,325724
1.6422,0.0978,39.0900,74,97,325727
1.6618,0.0929,38.9300,74,97,325731
1.6520,0.0978,39.0900,74,97,325734
1.6813,0.1026,38.9000,74,97,325737
1.6960,0.0929,39.0300,74,97,325741
1.6813,0.0929,39.0900,74,97,325744
1.7009,0.1222,39.0000,74,97,325747
1.6911,0.0978,39.0900,74,97,325751
1.7204,0.1026,38.9300,74,97,325754
1.7009,0.1026,39.0900,74,97,325757
1.7058,0.0978,39.0900,74,97,325761
1.7253,0.1124,39.0300,74,97,325765
1.7107,0.0978,39.0900,74,97,325768
1.7595,0.1075,38.8700,74,97,325771
1.7400,0.0978,39.0600,74,97,325775
1.7302,0.0929,39.0900,74,97,325778
1.7449,0.1026,39.0600,74,97,325781
1.7449,0.1417,39.0900,74,97,325784
1.7986,0.1173,38.9300,74,97,325788
1.7693,0.1026,39.0300,74,97,325791
1.7595,0.1124,39.0300,74,97,325794
1.7644,0.1026,39.0600,74,97,325798
1.7595,0.0978,39.1200,74,97,325801
1.8133,0.1075,38.9000,74,97,325805
1.7840,0.1026,39.0600,74,97,325809
1.7937,0.0978,38.9600,74,97,325812
1.8035,0.1026,39.0600,74,97,325815
1.7937,0.0733,39.0900,74,97,325819
1.8280,0.1075,38.9600,74,97,325822
1.8182,0.1026,39.0600,74,97,325825
1.8328,0.1026,38.9600,74,97,325828
1.8231,0.1026,39.0900,74,97,325832
1.8280,0.0929,39.0900,74,97,325835
1.8475,0.1026,39.0300,74,97,325838
1.8475,0.1026,39.0600,74,97,325842
1.8866,0.1075,38.9600,74,97,325846
1.8622,0.0978,39.0000,74,97,325849
1.8671,0.0978,39.0600,74,97,325853
1.8866,0.0929,39.0000,74,97,325856
1.8866,0.0978,38.9600,74,97,325859
1.9306,0.1075,38.8700,74,97,325862
1.9257,0.0929,38.9600,74,97,325866
1.9257,0.0978,39.0900,74,97,325869
1.9453,0.1026,39.0000,74,97,325872
1.9404,0.0978,39.0900,74,97,325876
1.9990,0.1075,38.8400,74,97,325879
1.9697,0.1026,38.9300,74,97,325882
1.9697,0.1271,39.0600,74,97,325886
1.9844,0.1026,39.0600,74,97,325890
1.9697,0.0978,39.0600,74,97,325893
2.0235,0.1124,38.8100,74,97,325896
1.9795,0.0978,39.0300,74,97,325900
1.9844,0.0929,39.0300,74,97,325903
1.9941,0.0929,39.0600,74,97,325906
1.9892,0.0978,39.1200,74,97,325910
2.0430,0.1222,38.9300,74,97,325913
2.0039,0.1075,39.0600,74,97,325916
1.9941,0.0978,39.0300,74,97,325920
1.9844,0.1271,39.0900,74,97,325923
1.9795,0.1026,39.1200,74,97,325926
2.0039,0.1124,38.9000,74,97,325929
1.9550,0.1075,39.0900,74,97,325934
1.9501,0.1075,38.9600,74,97,325937
1.9062,0.1026,39.0900,74,97,325940
1.8817,0.0978,39.1200,74,97,325944
1.9159,0.1075,39.0000,74,97,325947
1.8328,0.1026,39.0900,74,97,325950
1.8231,0.1075,38.9600,74,97,325954
1.7742,0.1173,39.1200,74,97,325957
1.7546,0.0978,39.0900,74,97,325960
1.7449,0.1026,39.1900,74,97,325963
1.7204,0.1173,39.0900,74,97,325967
1.7302,0.0929,38.9300,74,97,325970
1.6862,0.1075,39.1900,74,97,325974
1.6667,0.0929,39.0900,74,97,325978
1.6960,0.1124,39.0900,74,97,325981
1.6716,0.1026,39.1900,74,97,325984
1.6960,0.1026,38.8400,74,97,325988
1.6716,0.1026,39.0600,74,97,325991
1.6618,0.0978,39.1200,74,97,325994
1.6716,0.1026,39.1200,74,97,325998
1.6667,0.1075,39.0900,74,97,326001
1.7253,0.1124,38.8400,74,97,326004
1.6862,0.1173,39.0300,74,97,326007
1.6716,0.0929,39.0600,74,97,326011
1.6813,0.1026,39.1600,74,97,326014
1.6813,0.0978,39.0900,74,97,326018
1.7449,0.1124,38.8700,74,97,326022
1.7009,0.1026,39.0300,74,97,326025
1.7058,0.0978,39.0000,74,97,326028
1.7058,0.1124,39.0600,74,97,326032
1.7107,0.0978,39.0900,74,97,326035
1.7449,0.1124,38.9600,74,97,326038
1.7253,0.1026,39.0600,74,97,326041
1.7253,0.0929,38.9600,74,97,326045
1.7204,0.1075,39.0900,74,97,326048
1.7351,0.0929,39.0900,74,97,326051
1.7595,0.1075,38.9000,74,97,326055
1.7449,0.0978,39.0900,74,97,326059
1.7742,0.1075,39.0000,74,97,326062
1.7546,0.0978,39.0900,74,97,326066
1.7546,0.0978,39.0900,74,97,326069
1.7693,0.1026,39.0300,74,97,326072
1.7595,0.0978,39.1200,74,97,326075
1.7889,0.0978,38.9000,74,97,326079
1.7693,0.0978,39.0600,74,97,326082
1.7791,0.0978,39.0900,74,97,326085
1.7840,0.1026,39.0300,74,97,326089
1.7742,0.0978,38.9300,74,97,326092
1.7986,0.1124,38.8700,74,97,326095
1.7693,0.0978,38.9600,74,97,326099
1.7742,0.1075,39.1900,74,97,326103
1.7986,0.1075,39.0600,74,97,326106
1.7791,0.0978,39.0900,74,97,326109
1.8182,0.1075,38.8100,74,97,326113
1.7937,0.1026,38.9600,74,97,326116
1.7742,0.0978,39.0300,74,97,326119
1.7791,0.0733,39.0600,74,97,326123
1.7742,0.0978,39.0900,74,97,326126
1.8231,0.1173,38.8400,74,97,326129
1.7840,0.0733,39.0300,74,97,326133
1.7742,0.0929,39.0300,74,97,326136
1.7840,0.0978,39.0900,74,97,326139
1.7791,0.0978,39.0900,74,97,326142
1.8231,0.1124,38.9300,74,97,326147
1.7840,0.0978,39.0600,74,97,326150
1.7889,0.0978,38.9600,74,97,326153
1.7791,0.1026,39.1200,74,97,326157
1.7840,0.1026,39.0900,74,97,326160
1.7840,0.0978,39.0900,74,97,326164
1.8084,0.1075,39.0000,74,97,326167
1.7937,0.0978,39.0900,74,97,326170
1.8182,0.1026,38.9000,74,97,326174
1.7986,0.1173,39.0600,74,97,326177
1.7986,0.0929,39.0900,74,97,326180
1.8084,0.1075,39.0900,74,97,326183
1.8035,0.0978,39.0900,74,97,326188
1.8377,0.1271,38.8400,74,97,326191
1.8133,0.1026,39.0900,74,97,326194
1.8035,0.0978,39.1200,74,97,326198
1.8182,0.0929,39.0600,74,97,326201
1.8035,0.0978,39.0900,74,97,326204
1.8524,0.1075,38.8100,74,97,326208
1.8084,0.1075,39.0600,74,97,326211
1.8133,0.0929,39.0900,74,97,326214
1.8133,0.1026,39.0600,74,97,326217
1.8035,0.1271,39.0900,74,97,326221
1.8671,0.1124,38.8700,74,97,326224
1.8182,0.1075,39.1200,74,97,326227
1.8133,0.1075,39.0300,74,97,326232
1.8133,0.1026,38.9300,74,97,326235
1.8133,0.1124,39.0900,74,97,326238
1.8475,0.1124,38.9300,74,97,326242
1.8182,0.0929,39.0600,74,97,326245
1.8328,0.0978,38.9600,74,97,326248
1.8182,0.0978,39.0900,74,97,326252
1.8182,0.0978,39.0300,74,97,326255
1.8426,0.1026,38.9600,74,97,326258
1.8182,0.0978,39.1200,74,97,326261
1.8426,0.1075,39.0000,74,97,326265
1.8231,0.1026,39.0900,74,97,326268
1.8328,0.0978,39.0900,74,97,326272
1.8524,0.1026,39.0300,74,97,326276
1.8622,0.1173,39.0900,74,97,326279
1.9062,0.0978,38.9300,74,97,326282
1.8915,0.0978,39.2800,74,97,326286
1.9013,0.1026,39.0900,74,97,326289
1.9306,0.1075,38.9600,74,97,326292
1.9159,0.0978,39.0600,74,97,326295
1.9501,0.1124,38.8400,74,97,326299
1.9257,0.1026,39.0000,74,97,326302
1.9159,0.0978,39.0900,74,97,326305
1.9501,0.1026,39.0000,74,97,326309
1.9404,0.0978,39.0900,74,97,326312
1.9990,0.1075,38.8100,74,97,326316
1.9648,0.1075,39.0600,74,97,326320
1.9599,0.1075,39.1600,74,97,326323
1.9648,0.1026,39.0600,74,97,326326
1.9550,0.0978,38.6800,74,97,326329
1.9941,0.1222,38.8100,74,97,326333
1.9257,0.1026,38.9300,74,97,326336
1.8964,0.1173,39.0600,74,97,326339
1.8768,0.1026,39.0900,74,97,326343
1.8573,0.0978,39.0900,74,97,326346
1.8915,0.1173,38.9300,74,97,326349
1.8524,0.1026,39.0600,74,97,326353
1.8524,0.0978,39.0600,74,97,326356
1.8328,0.0929,39.0900,74,97,326360
1.8182,0.0978,39.0900,74,97,326363
1.8426,0.1124,38.9300,74,97,326367
1.8328,0.1075,39.0600,74,97,326370
1.8182,0.1026,38.9300,74,97,326373
1.7840,0.1026,39.0900,74,97,326377
1.7791,0.0978,39.0900,74,97,326380
1.7986,0.1075,39.0000,74,97,326383
1.7840,0.0978,39.1900,74,97,326387
1.8133,0.1026,38.9600,74,97,326390
1.7889,0.0978,39.0600,74,97,326393
1.7889,0.0978,39.1600,74,97,326396
1.7986,0.1075,39.0300,74,97,326401
1.7840,0.0929,39.0900,74,97,326404
1.8182,0.1026,38.9000,74,97,326407
1.7840,0.0978,39.0600,74,97,326411
1.7791,0.1026,39.0600,74,97,326414
1.7937,0.1075,39.0000,74,97,326417
1.7889,0.0978,39.0900,74,97,326421
1.8719,0.1075,38.7700,74,97,326424
1.9257,0.1075,38.9600,74,97,326427
2.0528,0.0978,39.0900,74,97,326430
2.1603,0.1026,39.1200,74,97,326434
2.2923,0.1026,39.0900,74,97,326437
2.5318,0.1124,38.8100,74,97,326440
2.6588,0.1026,39.0000,74,97,326445
2.6979,0.0929,39.0900,74,97,326448
2.6100,0.1075,39.1200,74,97,326451
2.4242,0.0978,39.0900,74,97,326454
2.2776,0.1173,38.8700,74,97,326458
2.0332,0.1124,39.0600,74,97,326461
1.9062,0.0978,39.0300,74,97,326464
1.8377,0.1026,39.0600,74,97,326468
1.8035,0.0978,39.1900,74,97,326471
1.8231,0.1124,38.9300,74,97,326474
1.7791,0.1026,39.0600,74,97,326478
1.7693,0.0978,38.9600,74,97,326481
1.7449,0.0978,39.0600,74,97,326484
1.7253,0.0929,39.0900,74,97,326488
1.7546,0.1075,38.9300,74,97,326492
1.7498,0.1026,39.0600,74,97,326495
1.7302,0.1026,38.9300,74,97,326498
1.7107,0.0978,39.1600,74,97,326502
1.7155,0.0929,39.0600,74,97,326505
1.7400,0.1075,39.0300,74,97,326508
1.7302,0.0978,39.1900,74,97,326512
1.7644,0.1369,38.9300,74,97,326515
1.7449,0.0978,39.0600,74,97,326518
1.7449,0.0978,39.0300,74,97,326521
1.7595,0.1075,39.0000,74,97,326525
1.7595,0.0929,39.0600,74,97,326529
1.7937,0.1026,38.9000,74,97,326532
1.7693,0.1026,39.0900,74,97,326536
1.7742,0.0978,39.0900,74,97,326539
1.7986,0.1075,39.0300,74,97,326542
1.7889,0.0978,39.1200,74,97,326546
1.8377,0.1075,38.8400,74,97,326549
1.8328,0.1075,39.0900,74,97,326552
1.8182,0.0978,39.0900,74,97,326555
1.8377,0.0978,39.0600,74,97,326559
1.8084,0.0978,39.0900,74,97,326562
1.8768,0.1124,38.8100,74,97,326565
1.8426,0.0929,38.9600,74,97,326569
1.8573,0.0929,39.0600,74,97,326573
1.8524,0.1026,39.0900,74,97,326576
1.8475,0.0978,39.1900,74,97,326580
1.9062,0.1271,38.9000,74,97,326583
1.8671,0.1026,39.0600,74,97,326586
1.8768,0.0978,38.9300,74,97,326589
1.8768,0.0978,39.0900,74,97,326593
1.8719,0.0978,39.0900,74,97,326596
1.9062,0.1124,39.2200,74,97,326599
1.8817,0.1075,39.0600,74,97,326603
1.9110,0.0978,39.0000,74,97,326606
1.8915,0.1026,38.6200,74,97,326609
1.9013,0.0978,39.0600,74,97,326614
1.9453,0.1026,38.9300,74,97,326617
1.9208,0.0978,39.1200,74,97,326620
1.9550,0.1075,38.9600,74,97,326623
1.9355,0.1075,39.0600,74,97,326627
1.9453,0.0929,39.0900,74,97,326630
1.9746,0.1075,39.0300,74,97,326633
1.9550,0.1075,39.0600,74,97,326637
2.0039,0.0929,38.9300,74,97,326640
1.9599,0.0978,39.0600,74,97,326643
1.9697,0.1124,39.1200,74,97,326647
1.9941,0.1075,39.0300,74,97,326650
1.9990,0.0978,39.1200,74,97,326653
2.0430,0.1564,38.8400,74,97,326657
2.0137,0.0733,39.0600,74,97,326661
2.0283,0.0978,39.0900,74,97,326664
2.0528,0.1075,39.0900,74,97,326667
2.0772,0.0978,39.0900,74,97,326671
2.1114,0.1026,38.8400,74,97,326674
2.0772,0.1026,39.0600,74,97,326677
2.0626,0.0978,39.1200,74,97,326680
2.0870,0.0929,39.0600,74,97,326684
2.0674,0.1075,39.0900,74,97,326687
2.1212,0.1124,38.8100,74,97,326690
2.0821,0.0978,39.0000,74,97,326694
2.0674,0.0978,39.0300,74,97,326697
2.0577,0.0978,39.0600,74,97,326701
2.0577,0.0929,39.0900,74,97,326705
2.1114,0.1173,38.9000,74,97,326708
2.0577,0.1026,39.0300,74,97,326711
2.0528,0.1173,39.0000,74,97,326714
2.0332,0.1026,39.0900,74,97,326718
2.0137,0.0978,39.0300,74,97,326721
2.0381,0.1369,39.0600,74,97,326724
1.9941,0.0978,39.0600,74,97,326728
1.9795,0.0978,38.9600,74,97,326731
1.9306,0.1075,39.0900,74,97,326734
1.8915,0.0929,39.0900,74,97,326737
1.9062,0.1075,38.9300,74,97,326742
1.8475,0.1026,39.0600,74,97,326745
1.8426,0.1075,38.9600,74,97,326748
1.7986,0.0733,39.0900,74,97,326752
1.7791,0.0978,39.1600,74,97,326755
1.7840,0.1075,39.0000,74,97,326758
1.7546,0.1075,39.0600,74,97,326762
1.7644,0.0978,38.9600,74,97,326765
1.7351,0.1075,38.8400,74,97,326768
1.7155,0.0978,38.9600,74,97,326772
1.7253,0.0978,39.0900,74,97,326775
1.7400,0.1026,39.0300,74,97,326778
1.7302,0.0978,39.2500,74,97,326782
1.7791,0.1173,38.8100,74,97,326786
1.7449,0.1026,39.2200,74,97,326789
1.7351,0.0929,39.1200,74,97,326793
1.7498,0.0978,39.0600,74,97,326796
1.7546,0.0978,39.1900,74,97,326799
1.8035,0.1075,38.9000,74,97,326803
1.7693,0.1026,39.0300,74,97,326806
1.7693,0.0978,39.0300,74,97,326809
1.7595,0.0978,39.0600,74,97,326813
1.7693,0.0978,39.0900,74,97,326816
1.7986,0.1075,38.9600,74,97,326819
1.7791,0.0978,39.0300,74,97,326822
1.7986,0.1075,38.9600,74,97,326827
1.7840,0.0978,39.1200,74,97,326830
1.8231,0.0978,39.0900,74,97,326833
1.8084,0.1026,39.0300,74,97,326837
1.8035,0.1026,39.1600,74,97,326840
1.8328,0.1369,38.9600,74,97,326843
1.8035,0.0978,38.9000,74,97,326847
1.8084,0.0978,39.0600,74,97,326850
1.8377,0.1173,39.0600,74,97,326853
1.8133,0.0978,39.0900,74,97,326856
1.8377,0.0978,39.0300,74,97,326860
1.8182,0.1075,39.0000,74,97,326863
1.8182,0.0929,39.0600,74,97,326866
1.8231,0.1075,38.9600,74,97,326871
1.8133,0.0880,39.0900,74,97,326874
1.8573,0.1075,38.8400,74,97,326877
1.8328,0.1026,39.0600,74,97,326881
1.8231,0.0978,39.1600,74,97,326884
1.8524,0.0929,39.0600,74,97,326887
1.8182,0.0978,39.0900,74,97,326890
1.8671,0.1075,38.8100,74,97,326894
1.8182,0.1026,39.0600,74,97,326897
1.8182,0.0733,39.0600,74,97,326900
1.8280,0.1026,39.0600,74,97,326904
1.8182,0.0929,39.0900,74,97,326907
1.8719,0.1124,38.8700,74,97,326910
1.8377,0.1075,39.0300,74,97,326915
1.8280,0.1026,39.0600,74,97,326918
1.8280,0.1026,39.0900,74,97,326921
1.8231,0.0978,39.0900,74,97,326924
1.8768,0.1026,38.9000,74,97,326928
1.8328,0.1026,39.0600,74,97,326931
1.8426,0.0978,39.0000,74,97,326934
1.8280,0.1026,39.0900,74,97,326938
1.8622,0.0978,39.1900,74,97,326941
1.8573,0.1075,39.0000,74,97,326944
1.8280,0.0978,39.0600,74,97,326948
1.8524,0.1075,38.9300,74,97,326951
1.8328,0.1026,39.1200,74,97,326955
1.8328,0.0978,39.0900,74,97,326958
1.8426,0.1026,39.0000,74,97,326962
1.8328,0.0978,39.0900,74,97,326965
1.8573,0.0978,39.0000,74,97,326968
1.8328,0.1075,39.0900,74,97,326972
1.8328,0.0978,39.0900,74,97,326975
1.8622,0.1075,39.0300,74,97,326978
1.8475,0.1026,39.0900,74,97,326982
1.8719,0.1026,38.8700,74,97,326985
1.8426,0.0978,38.9300,74,97,326988
1.8328,0.0978,39.0600,74,97,326991
1.8475,0.1026,39.1200,74,97,326995
1.8377,0.1173,39.0900,74,97,326999
1.8768,0.1075,38.8400,74,97,327002
1.8475,0.1026,39.0300,74,97,327006
1.8328,0.0978,39.0900,74,97,327009
1.8426,0.1026,39.0600,74,97,327012
1.8426,0.0978,39.0900,74,97,327016
1.8964,0.1173,38.8400,74,97,327019
1.8524,0.0978,39.0600,74,97,327022
1.8426,0.0929,39.0000,74,97,327025
1.8426,0.0929,39.1200,74,97,327029
1.8426,0.0978,39.0900,74,97,327032
1.8866,0.1124,38.9300,74,97,327035
1.8573,0.1026,39.0300,74,97,327040
1.8622,0.0733,39.0000,74,97,327043
1.8426,0.1075,39.0300,74,97,327046
1.8524,0.0978,39.0900,74,97,327050
1.9013,0.1075,38.9600,74,97,327053
1.8964,0.0929,39.0900,74,97,327056
1.9208,0.0929,38.9300,74,97,327059
1.9062,0.0978,39.0900,74,97,327063
1.9062,0.0978,39.0600,74,97,327066
1.9404,0.1124,39.0000,74,97,327069
1.9306,0.1075,39.1200,74,97,327073
1.9648,0.1075,39.0000,74,97,327076
1.9404,0.0978,39.1900,74,97,327079
1.9453,0.0978,39.0600,74,97,327084
1.9599,0.1026,39.0300,74,97,327087
1.9501,0.0978,39.0900,74,97,327090
1.9844,0.0978,38.9000,74,97,327093
1.9697,0.0978,39.1200,74,97,327097
1.9746,0.0978,39.0900,74,97,327100
1.9892,0.1026,39.0000,74,97,327103
1.9697,0.0978,39.0900,74,97,327107
1.9892,0.1026,38.2400,74,97,327110
1.9453,0.1075,38.9600,74,97,327113
1.9062,0.0929,39.0900,74,97,327117
1.8915,0.1026,39.0900,74,97,327120
1.8622,0.1026,39.1200,74,97,327123
1.8964,0.1075,38.8400,74,97,327127
1.8475,0.1026,39.0600,74,97,327131
1.8524,0.0978,39.0900,74,97,327134
1.8231,0.1026,39.0600,74,97,327137
1.8084,0.0978,38.9300,74,97,327141
1.8475,0.1417,38.8700,74,97,327144
1.7889,0.1026,38.2700,74,97,327147
1.7791,0.0978,39.0000,74,97,327151
1.7937,0.0978,39.0900,74,97,327154
1.7644,0.0978,39.0900,74,97,327157
1.8035,0.1124,38.9600,74,97,327160
1.7742,0.0978,39.0600,74,97,327164
1.8035,0.1075,38.9600,74,97,327168
1.7742,0.0978,39.0900,74,97,327171
1.7840,0.0929,39.0600,74,97,327175
1.8524,0.1124,38.9300,74,97,327178
1.7937,0.0978,39.1200,74,97,327181
1.8182,0.1026,38.9600,74,97,327185
1.7742,0.0978,39.0900,74,97,327188
1.7644,0.0978,39.0900,74,97,327191
1.7937,0.1075,38.9600,74,97,327194
1.8035,0.0978,39.0900,74,97,327198
1.8817,0.0978,38.9000,74,97,327201
1.9306,0.0978,39.2200,74,97,327204
2.0626,0.0978,39.0900,74,97,327208
2.1896,0.1026,39.0300,74,97,327212
2.3314,0.0978,39.0900,74,97,327215
2.5611,0.1026,38.8700,74,97,327219
2.6833,0.0978,39.0900,74,97,327222
2.6979,0.0978,39.0900,74,97,327225
2.5953,0.1075,39.0300,74,97,327228
2.3803,0.0978,39.0900,74,97,327232
2.2287,0.1075,38.8400,74,97,327235
2.0137,0.1026,39.0900,74,97,327238
1.8671,0.0978,38.6800,74,97,327242
1.7986,0.1026,39.0600,74,97,327245
1.7449,0.0978,39.0600,74,97,327248
1.7791,0.1075,38.8400,74,97,327252
1.7302,0.0929,39.0000,74,97,327256
1.7058,0.0929,39.0900,74,97,327259
1.6960,0.1026,39.1600,74,97,327262
1.6813,0.1075,39.0900,74,97,327266
1.7204,0.1124,38.9300,74,97,327269
1.6862,0.0978,38.9000,74,97,327272
1.6911,0.0978,39.0000,74,97,327276
1.6911,0.1075,39.0600,74,97,327279
1.6862,0.0978,39.2800,74,97,327282
1.7155,0.1271,39.0600,74,97,327286
1.6960,0.1026,39.0600,74,97,327289
1.7155,0.0978,38.9600,74,97,327292
1.7155,0.0978,39.0900,74,97,327296
1.7155,0.0978,39.0900,74,97,327300
1.7498,0.1075,39.3500,74,97,327303
1.7546,0.0978,39.0600,74,97,327306
1.7498,0.1075,38.9600,74,97,327310
1.7302,0.0929,39.0000,74,97,327313
1.7351,0.1124,39.1200,74,97,327316
1.7644,0.1026,39.0000,74,97,327320
1.7498,0.0978,38.9600,74,97,327323
1.7742,0.0978,38.9600,74,97,327326
1.7546,0.0978,39.0600,74,97,327329
1.7644,0.0978,39.1600,74,97,327333
1.7791,0.1026,39.0300,74,97,327336
1.7742,0.0929,39.0600,74,97,327340
1.8133,0.1026,38.8700,74,97,327344
1.7693,0.0978,39.0600,74,97,327347
1.7889,0.0978,39.0900,74,97,327350
1.8035,0.1026,39.2800,74,97,327354
1.8133,0.0978,39.0600,74,97,327357
1.8475,0.1075,38.8700,74,97,327360
1.8182,0.1515,39.0600,74,97,327363
1.8182,0.0929,39.0600,74,97,327367
1.8133,0.1026,39.1600,74,97,327370
1.8133,0.1075,39.0900,74,97,327373
1.8768,0.1124,38.8700,75,97,327377
1.8768,0.1075,39.0600,75,97,327380
1.8622,0.0978,39.2500,75,97,327385
1.8915,0.1026,38.9300,75,97,327388
1.8719,0.0978,39.0900,75,97,327391
1.8768,0.1075,39.1200,75,97,327395
1.8866,0.1075,39.0300,75,97,327398
1.8915,0.0978,39.1200,75,97,327401
1.9257,0.0978,38.9300,75,97,327405
1.9013,0.0978,39.0900,75,97,327408
1.9062,0.0978,39.0900,75,97,327411
1.9306,0.1075,39.0000,75,97,327414
1.9208,0.0733,39.0600,75,97,327418
1.9648,0.1026,38.8100,75,97,327421
1.9599,0.1075,39.0000,75,97,327425
1.9599,0.0929,39.0600,75,97,327429
1.9795,0.1026,39.0000,75,97,327432
1.9648,0.1124,39.0900,75,97,327435
2.0430,0.0929,38.8100,75,97,327439
1.9941,0.0978,39.0600,75,97,327442
1.9941,0.0978,39.2500,75,97,327445
2.0430,0.1075,39.0600,75,97,327448
2.0039,0.0929,39.0900,75,97,327452
2.0577,0.1075,38.8100,75,97,327455
2.0186,0.0880,39.0000,75,97,327458
2.0186,0.0978,39.0900,75,97,327462
2.0283,0.0978,39.0300,75,97,327465
2.0137,0.0733,39.0600,75,97,327469
2.0577,0.1124,38.9300,75,97,327472
2.0039,0.1026,39.0300,75,97,327476
1.9795,0.1026,39.0600,75,97,327479
1.9648,0.0978,39.0600,75,97,327482
1.9404,0.0978,39.1600,75,97,327486
1.9550,0.1075,38.9000,75,97,327489
1.8964,0.1026,39.0900,75,97,327492
1.8768,0.0978,38.9600,75,97,327496
1.8328,0.0978,39.1200,75,97,327499
1.8133,0.0929,39.0600,75,97,327502
1.8133,0.1075,39.0000,75,97,327505
1.7693,0.1075,39.0900,75,97,327510
1.7595,0.1026,38.9600,75,97,327513
1.7204,0.0978,39.1200,75,97,327516
1.7058,0.0978,39.1200,75,97,327520
1.7009,0.0929,39.0300,75,97,327523
1.6813,0.0733,39.0600,75,97,327526
1.6911,0.0978,39.0000,75,97,327529
1.6520,0.1026,39.0900,75,97,327533
1.6520,0.0929,39.0900,75,97,327536
1.6569,0.1075,39.0000,75,97,327539
1.6422,0.1026,39.0900,75,97,327543
1.6813,0.0978,38.8700,75,97,327546
1.6422,0.0978,39.0300,75,97,327549
1.6373,0.0978,39.1200,75,97,327554
1.6520,0.1026,39.0600,75,97,327557
1.6422,0.0978,39.2200,75,97,327560
1.6911,0.0978,38.8400,75,97,327564
1.6716,0.0978,39.4100,75,97,327567
1.6667,0.0978,39.0900,75,97,327570
1.6813,0.0929,39.0300,75,97,327573
1.6813,0.0978,39.1600,75,97,327577
1.7351,0.1173,38.8400,75,97,327580
1.7009,0.1026,39.0000,75,97,327583
1.7058,0.0929,39.0300,75,97,327587
1.7009,0.0978,39.0900,75,97,327590
1.6960,0.0978,39.0900,75,97,327593
1.7498,0.1124,38.9300,75,97,327598
1.7302,0.1075,39.0300,75,97,327601
1.7351,0.0978,39.0000,75,97,327604
1.7253,0.0978,39.0900,75,97,327607
1.7204,0.0929,39.0900,75,97,327611
1.7498,0.1075,38.9000,75,97,327614
1.7253,0.0978,39.0900,75,97,327617
1.7449,0.0978,38.9300,75,97,327621
1.7351,0.0978,39.0900,75,97,327624
1.7302,0.0978,39.0600,75,97,327627
1.7546,0.1369,39.0000,75,97,327631
1.7351,0.0978,39.0900,75,97,327634
1.7449,0.1026,38.9600,75,97,327638
1.7302,0.0929,39.0300,75,97,327641
1.7351,0.0929,39.0900,75,97,327645
1.7498,0.1026,38.9600,75,97,327648
1.7302,0.0880,39.0600,75,97,327651
1.7498,0.0978,38.9000,75,97,327655
1.7253,0.0978,39.0900,75,97,327658
1.7302,0.0978,39.1900,75,97,327661
1.7546,0.1173,39.0000,75,97,327665
1.7351,0.0978,38.5800,75,97,327668
1.7742,0.0978,38.8400,75,97,327671
1.7498,0.1026,39.0000,75,97,327674
1.7351,0.0978,39.0900,75,97,327678
1.7546,0.1124,39.0600,75,97,327682
1.7351,0.0978,39.0900,75,97,327685
1.7840,0.1075,38.5800,75,97,327689
1.7400,0.1026,39.0600,75,97,327692
1.7302,0.0978,39.0600,75,97,327695
1.7351,0.1026,39.0600,75,97,327699
1.7302,0.0978,39.0900,75,97,327702
1.7840,0.1320,38.8700,75,97,327705
1.7449,0.1026,39.0300,75,97,327708
1.7302,0.0929,39.0000,75,97,327712
1.7253,0.1026,39.0600,75,97,327715
1.7302,0.0978,39.0900,75,97,327718
1.7693,0.1124,39.0000,75,97,327723
1.7449,0.0978,39.0300,75,97,327726
1.7546,0.0978,39.0000,75,97,327729
1.7351,0.0978,39.0900,75,97,327733
1.7302,0.0929,39.0900,75,97,327736
1.7644,0.1417,38.9000,75,97,327739
1.7449,0.0978,39.0600,75,97,327742
1.7693,0.1026,38.4900,75,97,327746
1.7449,0.0929,39.1900,75,97,327749
1.7400,0.0733,39.0900,75,97,327752
1.7595,0.1026,38.9600,75,97,327756
1.7400,0.1026,39.0900,75,97,327759
1.7840,0.0929,38.9600,75,97,327762
1.7449,0.0733,39.0900,75,97,327766
1.7546,0.0929,39.0600,75,97,327770
1.7644,0.1271,39.0000,75,97,327773
1.7693,0.0929,39.0600,75,97,327776
1.7791,0.0978,38.9000,75,97,327780
1.7498,0.0978,39.0900,75,97,327783
1.7498,0.0880,39.0900,75,97,327786
1.7693,0.1075,39.0000,75,97,327790
1.7449,0.0978,39.1600,75,97,327793
1.7791,0.1369,38.8400,75,97,327796
1.7595,0.0978,39.0300,75,97,327799
1.7449,0.0929,39.0900,75,97,327803
1.7546,0.1075,39.0300,75,97,327806
1.7498,0.0929,39.0900,75,97,327810
1.8035,0.1075,38.8100,75,97,327814
1.7791,0.1320,39.0600,75,97,327817
1.7840,0.0831,39.0600,75,97,327820
1.8133,0.1075,39.1600,75,97,327824
1.8231,0.0978,39.0900,75,97,327827
1.8768,0.1124,38.8700,75,97,327830
1.8524,0.1026,39.0300,75,97,327833
1.8377,0.0782,39.0000,75,97,327837
1.8426,0.0978,39.0900,75,97,327840
1.8426,0.0929,39.0600,75,97,327843
1.8866,0.1124,38.9600,75,97,327847
1.8719,0.1026,39.0600,75,97,327851
1.8915,0.0978,39.0000,75,97,327854
1.8817,0.0978,39.0600,75,97,327858
1.8915,0.0929,39.0900,75,97,327861
1.9208,0.1075,38.9300,75,97,327864
1.8817,0.0978,39.0600,75,97,327867
1.8817,0.0978,38.9600,75,97,327871
1.8377,0.0978,39.0900,75,97,327874
1.8182,0.0978,39.0600,75,97,327877
1.8280,0.0978,39.0000,75,97,327881
1.7986,0.0929,39.0900,75,97,327884
1.8035,0.0978,38.9000,75,97,327887
1.7742,0.0733,39.0600,75,97,327890
1.7595,0.0929,39.0300,75,97,327895
1.7644,0.1222,38.9600,75,97,327898
1.7400,0.0978,39.0900,75,97,327901
1.7546,0.0978,38.8700,75,97,327905
1.7155,0.0880,39.0900,75,97,327908
1.7107,0.0978,39.0900,75,97,327911
1.7058,0.1075,39.0000,75,97,327915
1.6911,0.0978,39.1600,75,97,327918
1.7302,0.1026,38.8400,75,97,327921
1.7058,0.1026,39.0000,75,97,327924
1.7009,0.0929,39.0900,75,97,327928
1.7058,0.1075,39.0300,75,97,327931
1.6960,0.1026,39.0600,75,97,327934
1.7498,0.0929,38.8100,75,97,327939
1.7155,0.0929,39.0000,75,97,327942
1.7155,0.0831,39.0600,75,97,327945
1.7155,0.1026,39.0600,75,97,327949
1.6960,0.0929,39.0900,75,97,327952
1.7498,0.1124,38.9000,75,97,327955
1.7449,0.1026,39.0000,75,97,327958
1.7889,0.0929,39.0600,75,97,327962
1.8719,0.0978,39.0900,75,97,327965
1.9746,0.0929,39.0900,75,97,327968
2.1603,0.1124,38.9600,75,97,327972
2.2825,0.1026,39.0300,75,97,327975
2.4927,0.1369,38.9300,75,97,327979
2.6246,0.0978,38.5500,75,97,327983
2.6295,0.0978,39.1200,75,97,327986
2.5660,0.0929,38.9300,75,98,327989
1.7400,0.1026,39.0300,75,98,327993
1.7009,0.0929,39.0900,75,98,327996
1.7107,0.0978,38.8400,75,98,327999
1.6764,0.1026,39.0300,75,98,328003
1.6618,0.0929,39.0900,75,98,328006
1.6716,0.1075,39.0000,75,98,328009
1.6373,0.0978,38.9600,75,98,328013
1.6716,0.1075,38.9300,75,98,328016
1.6276,0.0929,39.0300,75,98,328019
1.6325,0.1222,39.0900,75,98,328024
1.6471,0.1026,39.0600,75,98,328027
1.6422,0.0978,39.0900,75,98,328030
1.6911,0.1075,38.8100,75,98,328033
1.6569,0.0929,39.0000,75,98,328037
1.6471,0.0929,39.0300,75,98,328040
1.6569,0.1026,39.0600,75,98,328043
1.6667,0.0929,39.0900,75,98,328047
1.7253,0.1124,38.9300,75,98,328050
1.7058,0.0978,39.0600,75,98,328053
1.7107,0.0929,39.0000,75,98,328057
1.6960,0.0978,39.0600,75,98,328060
1.7009,0.0978,39.0900,75,98,328064
1.7400,0.1075,39.1200,75,98,328067
1.7302,0.1222,39.0300,75,98,328071
1.7546,0.0929,38.9600,75,98,328074
1.7302,0.0978,39.1200,75,98,328077
1.7253,0.0978,39.0900,75,98,328081
1.7546,0.1026,39.0300,75,98,328084
1.7498,0.0978,38.9600,75,98,328087
1.7791,0.1026,38.9600,75,98,328090
1.7595,0.0978,39.0900,75,98,328094
1.7644,0.0978,39.1200,75,98,328097
1.7889,0.1026,39.0300,75,98,328100
1.7693,0.0978,39.2800,75,98,328104
1.7986,0.0978,38.9000,75,98,328108
1.8280,0.0929,39.0300,75,98,328111
1.7986,0.0929,39.0900,75,98,328115
1.8133,0.1026,39.2200,75,98,328118
1.8035,0.1075,39.1900,75,98,328121
1.8524,0.1026,38.8700,75,98,328124
1.8231,0.1026,38.9000,75,98,328128
1.8280,0.0929,39.0900,75,98,328131
1.8573,0.1026,39.0000,75,98,328134
1.8377,0.0929,39.0900,75,98,328138
1.8866,0.1075,38.8100,75,98,328141
1.8475,0.0978,39.0000,75,98,328144
1.8768,0.0929,39.0900,75,98,328148
1.8671,0.1026,39.0900,75,98,328152
1.8573,0.0978,39.0600,75,98,328155
1.9159,0.1173,38.8100,75,98,328158
1.8817,0.1026,39.0300,75,98,328162
1.8817,0.0929,38.9600,75,98,328165
1.8964,0.0978,39.0600,75,98,328168
1.9062,0.0978,39.0900,75,98,328172
1.9648,0.1075,38.7400,75,98,328175
1.9306,0.0978,39.0300,75,98,328178
1.9453,0.0733,39.0000,75,98,328182
1.9453,0.0978,39.0900,75,98,328185
1.9550,0.0929,39.0900,75,98,328188
1.9990,0.1173,38.9600,75,98,328192
1.9844,0.0929,39.0600,75,98,328196
1.9990,0.0978,38.9600,75,98,328199
1.9795,0.0978,39.0900,75,98,328202
1.9941,0.0978,39.0900,75,98,328206
2.0088,0.1026,39.0000,75,98,328209
2.0039,0.0978,39.0000,75,98,328212
2.0332,0.1026,38.9600,75,98,328215
1.9990,0.0978,39.0600,75,98,328219
1.9990,0.0978,39.0900,75,98,328222
2.0332,0.1075,38.9600,75,98,328225
1.9990,0.0978,39.2800,75,98,328229
2.0235,0.0978,38.9000,75,98,328232
2.0137,0.0929,39.0000,75,98,328236
1.9648,0.0929,39.1200,75,98,328240
1.9648,0.1271,38.9600,75,98,328243
1.9257,0.0978,39.1200,75,98,328246
1.9404,0.1026,38.9300,75,98,328249
1.8866,0.0978,39.0300,75,98,328253
1.8573,0.0978,39.0900,75,98,328256
1.8524,0.1075,39.0000,75,98,328259
1.7937,0.0978,39.1900,75,98,328263
1.8182,0.1075,38.8400,75,98,328266
1.7546,0.0929,39.0000,75,98,328269
1.7351,0.0929,39.1600,75,98,328273
1.7302,0.0929,39.0600,75,98,328276
1.7009,0.0929,39.1900,75,98,328280
1.7302,0.1222,38.8100,75,98,328283
1.6862,0.1026,39.0000,75,98,328287
1.6667,0.0929,39.0600,75,98,328290
1.6618,0.1075,39.0900,75,98,328293
1.6569,0.0929,39.0900,75,98,328297
1.6862,0.1075,38.9000,75,98,328300
1.6569,0.1222,39.0300,75,98,328303
1.6667,0.0978,38.9600,75,98,328307
1.6569,0.0978,39.0600,75,98,328310
1.6569,0.0929,38.9300,75,98,328313
1.6862,0.1026,38.9300,75,98,328316
1.6764,0.0978,39.0600,75,98,328321
1.6911,0.0978,39.0000,75,98,328324
1.6813,0.1026,39.0900,75,98,328327
1.6911,0.0929,39.0900,75,98,328331
1.7058,0.0978,39.1600,75,98,328334
1.6960,0.1466,39.0600,75,98,328337
1.7155,0.1075,39.0000,75,98,328341
1.6960,0.0929,39.0600,75,98,328344
1.7058,0.0929,39.0900,75,98,328347
1.7400,0.1369,38.9300,75,98,328350
1.7204,0.0978,39.0900,75,98,328354
1.7449,0.0978,38.9300,75,98,328357
1.7253,0.0978,38.9600,75,98,328360
1.7302,0.0929,39.0900,75,98,328365
1.7498,0.1026,39.0600,75,98,328368
1.7449,0.0929,39.0000,75,98,328371
1.7791,0.1173,38.8400,75,98,328374
1.7498,0.1026,39.0600,75,98,328378
1.7449,0.0929,39.0900,75,98,328381
1.7644,0.0978,39.0300,75,98,328384
1.7498,0.0978,39.0900,75,98,328388
1.7986,0.1075,38.8400,75,98,328391
1.7546,0.0929,39.0600,75,98,328394
1.7546,0.0880,39.0900,75,98,328398
1.7546,0.0929,39.0600,75,98,328401
1.7498,0.0929,39.1600,75,98,328404
1.8328,0.1173,38.8400,75,98,328408
1.7889,0.1026,39.0000,75,98,328412
1.7693,0.1222,39.0000,75,98,328415
1.7644,0.0978,39.0600,75,98,328418
1.7644,0.0929,39.0900,75,98,328422
1.8035,0.1124,38.8700,75,98,328425
1.7742,0.1026,39.0600,75,98,328428
1.7791,0.0929,38.9600,75,98,328432
1.7693,0.0929,39.0300,75,98,328435
1.7644,0.0978,39.0900,75,98,328438
1.7937,0.1026,38.9300,75,98,328441
1.7791,0.0978,39.1600,75,98,328445
1.7986,0.1026,38.9300,75,98,328449
1.7791,0.0978,39.1200,75,98,328452
1.7791,0.0978,39.0600,75,98,328456
1.7840,0.0978,39.0000,75,98,328459
1.7791,0.0978,39.0900,75,98,328462
1.8035,0.0978,39.0000,75,98,328466
1.7791,0.0978,39.0600,75,98,328469
1.7840,0.0929,39.0900,75,98,328472
1.8035,0.1026,39.0000,75,98,328475
1.7791,0.0929,39.1200,75,98,328479
1.8280,0.0978,38.9000,75,98,328482
1.7840,0.0929,39.0000,75,98,328485
1.7742,0.0733,39.0600,75,98,328489
1.7986,0.0978,39.0600,75,98,328493
1.7791,0.0978,39.0900,75,98,328496
1.8035,0.1026,38.8400,75,98,328500
1.7840,0.1026,38.9600,75,98,328503
1.7791,0.0929,39.0900,75,98,328506
1.8035,0.1026,39.0300,75,98,328509
1.7840,0.0929,39.1200,75,98,328513
1.8280,0.1026,38.8700,75,98,328516
1.7840,0.0978,38.9600,75,98,328519
1.7889,0.0929,39.0900,75,98,328523
1.7889,0.1026,38.9600,75,98,328526
1.7986,0.0978,39.0900,75,98,328529
1.8426,0.1124,38.8700,75,98,328532
1.7986,0.1075,39.0300,75,98,328537
1.7840,0.0831,39.0300,75,98,328540
1.7889,0.0978,39.1200,75,98,328543
1.7889,0.0880,39.0900,75,98,328547
1.8622,0.0929,38.9300,75,98,328550
1.8035,0.0978,39.1200,75,98,328553
1.8084,0.0978,38.9600,75,98,328557
1.8280,0.0929,39.0900,75,98,328560
1.7937,0.0929,39.0900,75,98,328563
1.8182,0.1026,38.9300,75,98,328567
1.8231,0.1075,39.0600,75,98,328570
1.8328,0.0978,38.9300,75,98,328573
1.8133,0.0978,39.0900,75,98,328577
1.8280,0.0929,39.0900,75,98,328581
1.8475,0.0978,39.0000,75,98,328584
1.8573,0.0978,39.1900,75,98,328587
1.8915,0.1075,38.9600,75,98,328591
1.8768,0.0929,39.1200,75,98,328594
1.8817,0.0880,39.1900,75,98,328597
1.9062,0.1026,38.9300,75,98,328601
1.9208,0.0733,39.0900,75,98,328604
1.9208,0.0929,39.0900,75,98,328608
1.9844,0.1075,38.3000,75,98,328611
1.9453,0.0978,39.0300,75,98,328614
1.9355,0.0880,39.0900,75,98,328617
1.9257,0.1026,39.1600,75,98,328622
1.8964,0.0978,39.0900,75,98,328625
1.9404,0.0929,38.8700,75,98,328628
1.8671,0.1026,39.0300,75,98,328632
1.8377,0.0929,39.0000,75,98,328635
1.8182,0.0978,39.0900,75,98,328638
1.8035,0.0929,39.0600,75,98,328642
1.8280,0.1075,39.0000,75,98,328645
1.7937,0.0978,39.1600,75,98,328648
1.7889,0.1026,38.9600,75,98,328651
1.7644,0.0978,39.0600,75,98,328655
1.7595,0.0929,39.0600,75,98,328658
1.7742,0.1026,38.9300,75,98,328662
1.7351,0.0978,38.9600,75,98,328666
1.7546,0.1271,38.9300,75,98,328669
1.7351,0.0929,39.0600,75,98,328672
1.7400,0.0929,39.1600,75,98,328676
1.7595,0.1026,39.0000,75,98,328679
1.7449,0.0929,39.0600,75,98,328682
1.7742,0.0929,39.0300,75,98,328685
1.7498,0.0978,39.0300,75,98,328689
1.7546,0.0929,39.0900,75,98,328692
1.7742,0.0978,38.9600,75,98,328695
1.7498,0.0880,39.1200,75,98,328699
1.7693,0.0978,38.8400,75,98,328702
1.7302,0.1124,39.0600,75,98,328706
1.7693,0.0978,39.0600,75,98,328710
1.8035,0.1026,39.0300,75,98,328713
1.8622,0.0978,39.0600,75,98,328716
2.0186,0.0929,38.8100,75,98,328719
2.1114,0.0978,39.0300,75,98,328723
2.2385,0.0929,39.0900,75,98,328726
2.4438,0.0978,39.0600,75,98,328729
2.5953,0.0929,39.0900,75,98,328733
2.7468,0.1124,38.9000,75,98,328736
2.6100,0.1075,39.0300,75,98,328739
2.4242,0.0880,39.0300,75,98,328743
2.2141,0.0733,39.0600,75,98,328747
2.0137,0.0929,38.3000,75,98,328750
1.9208,0.1124,38.9600,75,98,328753
1.8182,0.1026,39.0000,75,98,328757
1.7791,0.0929,39.0000,75,98,328760
1.7351,0.0978,39.0900,75,98,328763
1.7155,0.1222,39.0900,75,98,328767
1.7302,0.1075,39.0000,75,98,328770
1.6960,0.0978,39.0600,75,98,328773
1.7009,0.0978,38.9600,75,98,328776
1.6716,0.0978,39.0900,75,98,328780
1.6960,0.0978,39.0600,75,98,328783
1.6862,0.1026,38.9300,75,98,328786
1.6569,0.0978,39.1200,75,98,328791
1.6813,0.1075,39.0600,75,98,328794
1.6667,0.0929,39.0600,75,98,328797
1.6716,0.0929,39.0900,75,98,328801
1.6960,0.0978,39.0300,75,98,328804
1.7058,0.1026,39.0900,75,98,328807
1.7058,0.0978,38.9000,75,98,328810
1.6764,0.0929,39.0600,75,98,328814
1.6960,0.0929,39.0900,75,98,328817
1.7204,0.1075,38.9300,75,98,328820
1.7058,0.0978,39.1900,75,98,328824
1.7400,0.0929,38.9300,75,98,328827
1.7155,0.0929,39.0900,75,98,328830
1.7204,0.1026,39.0900,75,98,328834
1.7693,0.1026,39.0900,75,98,328838
1.7351,0.0929,39.1900,75,98,328841
1.7791,0.1173,38.8400,75,98,328844
1.7644,0.1026,39.0000,75,98,328848
1.7498,0.0929,39.0900,75,98,328851
1.7693,0.0978,39.0600,75,98,328854
1.7742,0.0978,39.0900,75,98,328858
1.8231,0.1075,38.8100,75,98,328861
1.7986,0.0978,39.0300,75,98,328864
1.7742,0.0929,39.0300,75,98,328867
1.7889,0.0978,39.0600,75,98,328871
1.7889,0.0929,39.0600,75,98,328875
1.8426,0.1075,38.9000,75,98,328878
1.8182,0.1026,39.0000,75,98,328882
1.8084,0.0929,39.0000,75,98,328885
1.8035,0.0978,39.1200,75,98,328888
1.8231,0.0978,39.0900,75,98,328892
1.8475,0.1075,39.0000,75,98,328895
1.8280,0.0978,39.0600,75,98,328898
1.8426,0.0978,39.0000,75,98,328901
1.8280,0.0929,39.0900,75,98,328905
1.8328,0.0929,39.1200,75,98,328908
1.8719,0.1075,38.9000,75,98,328911
1.8524,0.0733,39.0900,75,98,328915
1.8817,0.1026,39.0600,75,98,328919
1.8622,0.0978,39.0300,75,98,328922
1.8671,0.1026,39.0600,75,98,328925
1.8915,0.1026,39.0000,75,98,328929
1.8817,0.0929,39.1900,75,98,328932
1.9159,0.0978,38.9000,75,98,328935
1.9062,0.0929,39.0600,75,98,328939
1.9159,0.0929,39.1600,75,98,328942
1.9453,0.0978,38.9300,75,98,328945
1.9208,0.0929,39.0900,75,98,328949
1.9746,0.0978,38.8700,75,98,328952
1.9550,0.0978,39.0600,75,98,328955
1.9599,0.0929,39.0900,75,98,328958
1.9844,0.1026,39.0300,75,98,328963
1.9697,0.1026,39.0600,75,98,328966
2.0235,0.0978,38.8400,75,98,328969
1.9941,0.0929,39.0000,75,98,328973
1.9941,0.0929,39.1600,75,98,328976
1.9941,0.0929,39.0600,75,98,328979
1.9941,0.0929,39.0900,75,98,328983
2.0479,0.1124,38.8400,75,98,328986
1.9990,0.1026,39.0300,75,98,328989
1.9941,0.0880,39.0300,75,98,328992
1.9941,0.0978,39.1600,75,98,328996
1.9844,0.0880,39.0900,75,98,328999
2.0235,0.1026,38.9300,75,98,329003
1.9844,0.1026,39.0000,75,98,329007
1.9453,0.0929,39.0000,75,98,329010
1.9110,0.0978,38.9600,75,98,329013
1.8866,0.0929,39.0900,75,98,329017
1.8964,0.1075,39.0000,75,98,329020
1.8426,0.0978,38.4300,75,98,329023
1.8231,0.0978,38.9300,75,98,329026
1.7791,0.0929,39.3200,75,98,329030
1.7546,0.1026,39.0900,75,98,329033
1.7595,0.1026,38.9300,75,98,329036
1.7155,0.0929,39.0900,75,98,329040
1.7155,0.0880,38.9600,75,98,329043
1.6618,0.0831,39.0600,75,98,329047
1.6618,0.0929,39.0900,75,98,329051
1.6667,0.0929,39.0000,75,98,329054
1.6471,0.0978,39.0900,75,98,329057
1.6716,0.0929,38.9300,75,98,329060
1.6373,0.0929,39.0300,75,98,329064
1.6325,0.1075,39.0900,75,98,329067
1.6520,0.0929,38.9600,75,98,329070
1.6422,0.0929,39.0900,75,98,329074
1.6716,0.0978,38.8700,75,98,329077
1.6716,0.0978,39.0600,75,98,329080
1.6520,0.0733,39.0900,75,98,329083
1.6716,0.1026,39.0000,75,98,329088
1.6520,0.1026,39.0900,75,98,329091
1.7009,0.1075,38.8400,75,98,329094
1.6862,0.0929,38.9600,75,98,329098
1.6716,0.0929,38.7100,75,98,329101
1.6813,0.0733,39.0600,75,98,329104
1.6764,0.0929,39.1900,75,98,329108
1.7302,0.1124,38.8400,75,98,329111
1.7009,0.0978,39.0600,75,98,329114
1.7009,0.0880,39.0300,75,98,329117
1.7058,0.0978,39.0300,75,98,329121
1.7009,0.0929,39.0600,75,98,329124
1.7449,0.1173,38.9300,75,98,329127
1.7204,0.0978,39.1900,75,98,329132
1.7204,0.0880,38.9300,75,98,329135
1.7155,0.0978,39.0600,75,98,329138
1.7155,0.0929,39.0600,75,98,329142
1.7400,0.1026,39.0000,75,98,329145
1.7155,0.0929,39.0300,75,98,329148
1.7400,0.0929,38.9600,75,98,329151
1.7155,0.0929,39.0900,75,98,329155
1.7253,0.0978,39.0600,75,98,329158
1.7595,0.1026,38.9300,75,98,329161
1.7302,0.0929,39.0900,75,98,329165
1.7546,0.0978,38.9600,75,98,329168
1.7351,0.0880,39.0300,75,98,329171
1.7400,0.0929,39.0900,75,98,329176
1.7595,0.1026,39.0000,75,98,329179
1.7498,0.0929,39.0900,75,98,329182
1.7693,0.0929,38.9000,75,98,329185
1.7498,0.0929,39.0300,75,98,329189
1.7546,0.0929,39.0900,75,98,329192
1.7693,0.0733,38.9300,75,98,329195
1.7546,0.0929,39.0900,75,98,329199
1.7889,0.0978,38.8400,75,98,329202
1.7546,0.0831,39.0600,75,98,329205
1.7546,0.0929,39.0300,75,98,329209
1.7644,0.1026,39.0600,75,98,329212
1.7742,0.0978,39.0600,75,98,329217
1.7595,0.0978,39.0900,75,98,329220
1.7986,0.1026,38.9000,75,98,329223
1.7693,0.1271,39.0300,75,98,329226
1.7840,0.0929,38.9600,75,98,329230
1.7595,0.0929,39.1200,75,98,329233
1.7595,0.0929,39.0300,75,98,329236
1.8133,0.0929,38.9600,75,98,329240
1.7742,0.0929,39.0600,75,98,329243
1.7889,0.0929,39.0600,75,98,329246
1.7644,0.1026,39.0900,75,98,329249
1.7693,0.0929,39.0900,75,98,329253
1.7840,0.0880,39.0000,75,98,329256
1.7742,0.0929,39.0900,75,98,329260
1.8035,0.0978,38.9600,75,98,329264
1.7889,0.0929,39.0900,75,98,329267
1.7791,0.0880,39.0900,75,98,329270
1.7986,0.1026,38.9600,75,98,329274
1.8035,0.0978,39.0600,75,98,329277
1.7986,0.0929,38.9300,75,98,329280
1.7840,0.0929,39.0000,75,98,329283
1.7791,0.0880,39.2500,75,98,329287
1.7889,0.0978,39.0300,75,98,329290
1.7791,0.0929,39.0600,75,98,329293
1.8133,0.0978,38.8700,75,98,329297
1.7937,0.1124,39.0600,75,98,329300
1.8035,0.0831,39.0900,75,98,329304
1.8084,0.1026,39.0000,75,98,329308
1.7791,0.0733,39.0900,75,98,329311
1.8182,0.0978,38.9000,75,98,329314
1.8035,0.0929,39.0000,75,98,329317
1.7840,0.0880,39.0900,75,98,329321
1.7986,0.0929,39.0300,75,98,329324
1.7889,0.1124,39.0900,75,98,329327
1.8426,0.1075,38.8100,75,98,329331
1.8133,0.0929,39.0600,75,98,329334
1.8133,0.0880,38.9600,75,98,329337
1.8328,0.0978,39.0600,75,98,329340
1.8475,0.0929,39.0900,75,98,329345
1.9062,0.1026,38.9000,75,98,329348
1.9110,0.0929,39.0900,75,98,329351
1.8866,0.0978,38.9600,75,98,329355
1.8817,0.0929,39.0300,75,98,329358
1.8866,0.1271,39.0900,75,98,329361
1.9208,0.0929,38.9300,75,98,329365
1.9062,0.0929,39.0300,75,98,329368
1.9257,0.0929,38.9300,75,98,329371
1.9110,0.0929,39.1200,75,98,329374
1.9159,0.0880,39.0900,75,98,329378
1.9355,0.0978,39.0000,75,98,329381
1.9355,0.0831,39.0600,75,98,329384
1.9453,0.0978,38.9600,75,98,329389
1.8964,0.1222,39.0900,75,98,329392
1.8719,0.0880,39.0900,75,98,329395
1.8768,0.0978,39.0000,75,98,329399
1.8377,0.0880,38.9300,75,98,329402
1.8475,0.0978,38.9000,75,98,329405
1.8280,0.0880,39.0000,75,98,329408
1.8084,0.0831,39.0900,75,98,329412
1.8133,0.0929,39.0600,75,98,329415
1.7937,0.0929,39.0900,75,98,329418
1.8182,0.0978,38.8700,75,98,329422
1.7791,0.0929,39.0000,75,98,329425
1.7644,0.0880,39.0600,75,98,329428
1.7742,0.0978,39.2500,75,98,329432
1.7351,0.0929,39.1900,75,98,329436
1.7742,0.0978,38.8400,75,98,329439
1.7351,0.0978,39.0000,75,98,329442
1.7498,0.0880,39.0900,75,98,329446
1.7498,0.0929,39.0600,75,98,329449
1.7449,0.0880,39.0600,75,98,329452
1.7937,0.1026,38.8100,75,98,329456
1.7595,0.0929,39.0000,75,98,329459
1.7546,0.0831,39.0300,75,98,329462
1.7644,0.0978,39.0600,75,98,329465
1.7449,0.0733,39.0900,75,98,329469
1.7889,0.0978,38.9000,75,98,329473
1.7498,0.1026,39.0600,75,98,329476
1.7791,0.0880,39.0000,75,98,329480
1.8133,0.0929,39.0600,75,98,329483
1.8866,0.0880,38.9300,75,98,329486
2.0186,0.0978,38.9300,75,98,329490
2.1212,0.0929,39.0600,75,98,329493
2.2776,0.0880,38.9000,75,98,329496
2.4340,0.0880,39.2800,75,98,329499
2.6246,0.0831,39.0900,75,98,329503
2.7322,0.0929,39.0000,75,98,329506
2.6393,0.0880,39.1200,75,98,329509
2.4976,0.0929,38.9600,75,98,329513
2.2581,0.0880,39.0900,75,98,329517
2.0626,0.0880,39.1200,75,98,329520
1.9404,0.0978,38.9300,75,98,329523
1.8328,0.0880,39.0900,75,98,329527
1.7791,0.0831,38.9000,75,98,329530
1.7351,0.0831,39.0000,75,98,329533
1.7155,0.0880,39.1600,75,98,329537
1.7204,0.0929,39.0000,75,98,329540
1.7155,0.0880,39.0600,75,98,329543
1.7351,0.0929,38.8700,75,98,329547
1.7351,0.0929,39.0300,75,98,329550
1.6960,0.0733,39.1200,75,98,329553
1.7155,0.0929,38.9000,75,98,329556
1.6911,0.1173,39.0600,75,98,329561
1.7546,0.0978,38.8400,75,98,329564
1.7009,0.0831,38.9600,75,98,329567
1.7058,0.0782,39.1900,75,98,329571
1.7155,0.0733,39.0900,75,98,329574
1.7155,0.0831,39.1200,75,98,329577
1.7693,0.1075,38.8700,75,98,329581
1.7498,0.0929,39.0300,75,98,329584
1.7449,0.0831,39.0600,75,98,329587
1.7498,0.0880,39.0600,75,98,329591
1.7498,0.0880,39.2800,75,98,329594
1.7937,0.1026,38.9000,75,98,329597
1.7742,0.0880,39.0300,75,98,329601
1.7986,0.0880,38.9600,75,98,329605
1.7889,0.0831,39.0900,75,98,329608
1.7986,0.0880,39.0900,75,98,329611
1.8280,0.0978,39.0000,75,98,329615
1.8133,0.0880,39.0600,75,98,329618
1.8328,0.0880,38.9600,75,98,329621
1.8182,0.0929,39.1900,75,98,329624
1.8231,0.0880,39.0900,75,98,329628
1.8426,0.1075,39.0000,75,98,329631
1.8280,0.0880,39.0600,75,98,329634
1.8768,0.1026,38.9600,75,98,329638
1.8328,0.0880,39.1200,75,98,329641
1.8475,0.0880,39.0600,75,98,329645
1.8719,0.0978,38.9600,75,98,329649
1.8524,0.0880,39.2800,75,98,329652
1.8817,0.0880,38.8700,75,98,329655
1.8866,0.0831,39.0000,75,98,329658
1.8719,0.0831,39.1200,75,98,329662
1.8915,0.0978,39.0000,75,98,329665
1.8866,0.0831,39.0900,75,98,329668
1.9208,0.0929,38.8400,75,98,329672
1.8915,0.1173,39.0300,75,98,329675
1.9062,0.0831,39.0600,75,98,329678
1.9208,0.0929,39.1200,75,98,329682
1.9110,0.0831,38.6200,75,98,329686
1.9697,0.0978,38.8100,75,98,329689
1.9306,0.0733,39.0000,75,98,329692
1.9306,0.0831,39.1200,75,98,329696
1.9404,0.0880,39.0600,75,98,329699
1.9453,0.0831,39.0900,75,98,329702
2.0186,0.1075,38.8400,75,98,329706
1.9795,0.0929,39.0300,75,98,329709
1.9746,0.0831,39.0300,75,98,329712
1.9844,0.0880,39.1200,75,98,329716
1.9941,0.0831,39.0600,75,98,329719
2.0430,0.0978,38.9000,75,98,329722
2.0283,0.0733,39.0300,75,98,329725
2.0479,0.0831,38.9300,75,98,329730
2.0381,0.0880,39.0600,75,98,329733
2.0430,0.0831,39.0300,75,98,329736
2.0870,0.0978,38.9300,75,98,329740
2.0772,0.0831,39.0600,75,98,329743
2.0919,0.0880,38.9300,75,98,329746
2.0674,0.0880,39.0000,75,98,329749
2.0723,0.0831,39.0900,75,98,329753
2.0919,0.0978,39.0000,75,98,329756
2.0821,0.0880,39.0600,75,98,329759
2.1065,0.0978,38.9000,75,98,329763
2.0674,0.0831,39.0600,75,98,329766
2.0674,0.0831,39.0600,75,98,329769
2.0870,0.0929,39.2200,75,98,329773
2.0430,0.0929,39.0600,75,98,329777
2.0479,0.0880,38.9300,75,98,329780
2.0088,0.0831,39.0300,75,98,329783
1.9844,0.0831,39.0900,75,98,329787
1.9746,0.1026,39.0000,75,98,329790
1.9257,0.0880,39.0600,75,98,329793
1.9208,0.0880,38.9000,75,98,329796
1.8768,0.0880,39.0300,75,98,329800
1.8524,0.0831,39.0900,75,98,329803
1.8524,0.0978,38.9600,75,98,329806
1.8182,0.0880,39.0900,75,98,329810
1.8182,0.0929,38.8700,75,98,329814
1.7693,0.0782,39.0300,75,98,329817
1.7644,0.0782,39.0900,75,98,329821
1.7693,0.0733,39.0300,75,98,329824
1.7400,0.0831,39.0900,75,98,329829
1.7449,0.0831,39.0900,75,98,329832
1.7889,0.0929,38.9300,75,98,329835
1.7595,0.0880,39.0600,75,98,329838
1.7644,0.0831,38.9600,75,98,329842
