ecg,gsr,temp,hr,spo2,timest
2.1848,0.2737,39.8600,97,97,63234
2.1505,0.2688,39.8000,97,97,63237
2.1163,0.2688,39.8300,97,97,63240
2.0968,0.2590,39.8600,97,97,63244
2.1408,0.2835,39.6700,97,97,63247
2.0870,0.2786,39.7700,97,97,63250
2.0577,0.2688,39.8600,97,97,63253
2.0577,0.2737,39.8300,97,97,63257
2.0381,0.3030,39.8900,97,97,63260
2.0919,0.2688,39.6700,97,97,63263
2.0479,0.2737,39.8300,97,97,63266
2.0039,0.2688,39.8600,97,97,63270
1.9844,0.2688,39.8600,97,97,63273
2.0332,0.2786,39.8600,97,97,63277
2.1212,0.2884,39.9600,97,97,63280
2.1848,0.2786,39.7300,97,97,63284
2.3314,0.2639,39.8300,97,97,63287
2.5709,0.3079,39.8900,97,97,63290
2.8397,0.2688,39.8600,97,97,63293
3.2014,0.2835,39.6400,97,97,63297
3.3871,0.2786,39.8300,97,97,63300
3.5337,0.2688,39.8300,97,97,63303
3.5777,0.2688,39.8600,97,97,63306
3.4848,0.2981,39.8600,97,97,63310
3.4115,0.2884,39.6400,97,97,63313
3.1134,0.2737,39.8000,97,97,63316
2.8690,0.2639,39.8300,97,97,63320
2.6246,0.2737,39.9300,97,97,63324
2.3754,0.2688,39.8900,97,97,63327
2.2336,0.2884,39.6700,97,97,63330
2.0137,0.2737,39.8000,97,97,63333
1.8768,0.2639,39.8300,97,97,63337
1.7986,0.2688,39.8300,97,97,63340
1.7302,0.2786,39.8600,97,97,63343
1.7302,0.2884,39.1900,97,97,63346
1.6618,0.2786,39.7700,97,97,63350
1.6373,0.2737,39.8300,97,97,63353
1.6178,0.2835,39.8000,97,97,63356
1.6178,0.2688,39.8900,97,97,63360
1.6716,0.2884,39.6400,97,97,63364
1.6276,0.2737,39.8000,97,97,63367
1.6276,0.2639,39.8300,97,97,63370
1.6422,0.2688,39.9600,97,97,63373
1.6471,0.2688,39.8300,97,97,63377
1.7155,0.2884,39.6400,97,97,63380
1.6911,0.2737,40.0600,97,97,63383
1.6960,0.2639,39.8000,97,97,63386
1.7449,0.2737,39.8300,97,97,63390
1.7155,0.2688,39.8600,97,97,63393
1.7937,0.2884,39.6700,97,97,63396
1.7644,0.2688,39.7700,97,97,63399
1.7791,0.2590,39.8300,97,97,63404
1.7937,0.2737,39.1600,97,97,63407
1.8182,0.2688,39.8600,97,97,63410
1.8719,0.2884,39.6400,97,97,63413
1.8426,0.2786,39.8600,97,97,63417
1.8524,0.2639,39.8300,97,97,63420
1.8671,0.2737,39.8600,97,97,63423
1.8817,0.2737,39.8600,97,97,63426
1.9501,0.2884,39.6400,97,97,63430
1.9208,0.2737,39.8300,97,97,63433
1.9257,0.2493,39.8000,97,97,63436
1.9453,0.2737,39.8300,97,97,63439
1.9550,0.2688,39.8600,97,97,63443
2.0332,0.2884,39.6400,97,97,63447
1.9892,0.2786,39.8000,97,97,63450
1.9990,0.2639,39.8000,97,97,63453
2.0235,0.2688,39.8300,97,97,63457
2.0381,0.2639,39.8600,97,97,63460
2.1114,0.2884,39.6400,97,97,63463
2.0723,0.2688,39.8300,97,97,63466
2.0821,0.2786,39.8000,97,97,63470
2.1017,0.2688,39.8600,97,97,63473
2.1408,0.2737,39.8600,97,97,63476
2.1848,0.3030,39.6700,97,97,63479
2.1505,0.2688,39.8000,97,97,63483
2.1505,0.2639,39.8000,97,97,63486
2.1652,0.2737,39.8300,97,97,63490
2.1701,0.2737,39.8600,97,97,63493
2.2385,0.2933,39.6000,97,97,63497
2.2043,0.2639,39.8300,97,97,63500
2.1994,0.2639,39.8600,97,97,63503
2.2287,0.2737,39.8300,97,97,63506
2.1945,0.2688,39.8900,97,97,63510
2.2581,0.2884,39.6000,97,97,63513
2.1945,0.2688,39.8600,97,97,63516
2.1848,0.2737,39.8600,97,97,63519
2.1799,0.2737,39.8600,97,97,63523
2.1554,0.2688,39.9600,97,97,63526
2.1945,0.2884,39.6000,97,97,63529
2.1212,0.2981,39.8000,97,97,63533
2.0821,0.2639,39.8300,97,97,63537
2.0528,0.2688,39.8000,97,97,63540
2.0039,0.2688,39.8600,97,97,63543
2.0235,0.2786,39.5700,97,97,63546
1.9453,0.2737,39.7700,97,97,63550
1.8817,0.2786,39.8900,97,97,63553
1.8475,0.2688,39.8300,97,97,63556
1.8084,0.2688,39.8600,97,97,63559
1.8280,0.2786,39.5400,97,97,63563
1.7498,0.2737,39.8600,97,97,63566
1.7253,0.2688,39.8300,97,97,63569
1.7009,0.2737,39.8600,97,97,63572
1.6764,0.2688,39.8000,97,97,63577
1.7204,0.2786,39.5700,97,97,63580
1.6764,0.2737,39.7700,97,97,63583
1.6618,0.2688,39.8600,97,97,63586
1.6618,0.2737,39.8300,97,97,63590
1.6618,0.2737,39.8600,97,97,63593
1.7058,0.2884,39.6000,97,97,63596
1.6716,0.2688,39.7300,97,97,63599
1.6716,0.2639,39.8600,97,97,63603
1.6764,0.2786,39.8300,97,97,63606
1.6716,0.2737,39.8300,97,97,63609
1.7253,0.2835,39.6400,97,97,63612
1.6911,0.2688,39.8000,97,97,63617
1.7351,0.2590,39.8600,97,97,63620
1.7155,0.2835,39.8000,97,97,63623
1.7107,0.2688,39.8600,97,97,63626
1.7595,0.2786,39.6000,97,97,63630
1.7400,0.2737,39.7700,97,97,63633
1.7351,0.2688,39.8600,97,97,63636
1.7498,0.2688,39.8900,97,97,63639
1.7449,0.2737,39.8600,97,97,63643
1.8084,0.2786,39.4100,97,97,63646
1.8231,0.2786,39.7300,97,97,63651
1.7986,0.2737,39.8300,97,97,63654
1.8182,0.2737,39.7300,97,97,63657
1.7986,0.2737,39.8000,97,97,63661
1.7937,0.2737,39.8000,97,97,63665
1.8475,0.2835,39.7300,97,97,63668
1.8280,0.2835,39.8300,97,97,63671
1.8280,0.2688,39.7700,97,97,63674
1.8133,0.2688,39.9600,97,97,63678
1.8133,0.2737,39.8600,97,97,63681
1.8524,0.2786,39.6700,97,97,63684
1.8328,0.2737,39.8000,97,97,63687
1.8426,0.2688,39.7300,97,97,63691
1.8280,0.2737,39.8600,97,97,63694
1.8231,0.2688,39.6000,97,97,63697
1.8671,0.2835,39.7700,97,97,63700
1.8328,0.2737,39.8300,97,97,63705
1.8426,0.2737,39.7300,97,97,63708
1.8280,0.2737,39.8600,97,97,63711
1.8231,0.2688,39.8600,97,97,63714
1.8671,0.2786,39.7300,97,97,63718
1.8426,0.2737,40.0000,97,97,63721
1.8426,0.2688,39.7300,97,97,63724
1.8426,0.2688,39.8300,97,97,63727
1.8377,0.2737,39.8600,97,97,63731
1.8817,0.2786,39.6700,97,97,63734
1.8622,0.2737,39.7700,97,97,63737
1.8768,0.2737,39.7300,97,97,63740
1.8768,0.2786,39.8300,97,97,63745
1.9013,0.2688,39.8900,97,97,63748
1.9648,0.2786,39.7000,97,97,63751
1.9355,0.2786,39.8600,97,97,63754
1.9599,0.2737,39.8000,97,97,63758
1.9501,0.2688,39.8600,97,97,63761
1.9599,0.2737,39.8900,97,97,63764
2.0137,0.2835,39.6400,97,97,63767
2.0088,0.2737,39.8300,97,97,63771
2.0332,0.2688,39.7300,97,97,63774
2.0332,0.2981,39.8900,97,97,63777
2.0381,0.2688,39.8600,97,97,63780
2.0821,0.2981,39.6000,97,97,63784
2.0479,0.2786,39.7700,97,97,63788
2.0528,0.2737,39.7700,97,97,63791
2.0283,0.2688,39.9300,97,97,63794
2.0186,0.2688,39.8600,97,97,63798
2.0381,0.3226,39.8300,97,97,63801
1.9648,0.2737,39.8000,97,97,63804
1.9453,0.2688,39.7700,97,97,63807
1.8964,0.2737,39.8900,97,97,63811
1.8524,0.2688,39.8900,97,97,63814
1.8622,0.2835,39.7300,97,97,63817
1.8182,0.2688,39.8300,97,97,63820
1.7840,0.2688,39.8000,97,97,63824
1.7644,0.2737,39.8000,97,97,63827
1.7498,0.2737,39.8300,97,97,63831
1.7889,0.2835,39.6700,97,97,63834
1.7498,0.2786,39.7700,97,97,63838
1.7400,0.2688,39.7700,97,97,63841
1.7351,0.2786,39.8600,97,97,63844
1.7400,0.2688,39.9300,97,97,63847
1.7889,0.2786,39.7000,97,97,63851
1.7546,0.2737,39.8000,97,97,63854
1.7595,0.2688,39.8000,97,97,63857
1.7595,0.2786,39.8300,97,97,63860
1.7400,0.2786,39.8900,97,97,63864
1.7986,0.2884,39.6700,97,97,63867
1.8133,0.2737,39.8000,97,97,63870
1.8768,0.2688,39.7700,97,97,63874
2.0039,0.2737,39.8600,97,97,63878
2.2092,0.2737,39.8600,97,97,63881
2.5513,0.2884,39.6700,97,97,63884
2.8055,0.2786,38.9600,97,97,63887
3.0743,0.2688,39.8000,97,97,63891
3.2747,0.2737,39.9300,97,97,63894
3.3871,0.2688,39.8600,97,97,63897
3.4800,0.2933,39.7000,97,97,63900
3.2551,0.2786,39.8600,97,97,63904
3.0596,0.2688,39.8000,97,97,63907
2.8299,0.2737,39.8300,97,97,63910
2.5806,0.2737,39.8600,97,97,63913
2.4096,0.2884,39.6700,97,97,63918
2.1408,0.2737,39.8300,97,97,63921
1.9550,0.2688,39.2200,97,97,63924
1.8182,0.2737,39.8600,97,97,63927
1.7009,0.2688,39.8600,97,97,63931
1.6813,0.2884,39.6000,97,97,63934
1.5885,0.2786,39.7700,97,97,63937
1.5494,0.2688,39.8000,97,97,63940
1.5200,0.2933,39.8600,97,97,63944
1.5054,0.2688,39.8600,97,97,63947
1.5494,0.2835,39.6400,97,97,63950
1.5103,0.2737,39.8300,97,97,63953
1.5152,0.2639,39.9300,97,97,63958
1.5298,0.2688,39.8600,97,97,63961
1.5494,0.2688,39.8600,97,97,63964
1.6178,0.3079,39.6400,97,97,63967
1.5982,0.2737,39.8000,97,97,63971
1.6031,0.2639,39.7700,97,97,63974
1.6227,0.2737,39.8300,97,97,63977
1.6325,0.2688,39.0900,97,97,63980
1.7009,0.2688,39.6700,97,97,63984
1.7155,0.2786,39.7700,97,97,63987
1.6960,0.2933,39.8000,97,97,63990
1.7107,0.2737,39.9300,97,97,63993
1.7302,0.2737,39.8300,97,97,63997
1.7937,0.2884,39.6400,97,97,64001
1.7595,0.2737,39.8000,97,97,64004
1.7791,0.2688,39.8600,97,97,64007
1.7937,0.2835,39.8300,97,97,64011
1.7986,0.2688,39.7000,97,97,64014
1.8768,0.2688,39.6400,97,97,64017
1.8377,0.2737,39.8300,97,97,64020
1.8475,0.2688,39.8300,97,97,64024
1.8719,0.2737,39.9600,97,97,64027
1.8768,0.2639,39.8900,97,97,64030
1.9501,0.2884,39.7000,97,97,64033
1.9208,0.2688,39.7300,97,97,64037
1.9306,0.2737,39.8300,97,97,64040
1.9550,0.2688,39.8600,97,97,64044
1.9697,0.2737,39.8600,97,97,64047
2.0479,0.2835,39.7000,97,97,64051
2.0137,0.2737,39.8000,97,97,64054
2.0283,0.2639,39.8000,97,97,64057
2.0528,0.2737,39.8300,97,97,64060
2.0674,0.2737,39.8900,97,97,64064
2.1457,0.2786,39.5700,97,97,64067
2.1359,0.2737,39.8000,97,97,64070
2.1212,0.2688,39.8000,97,97,64073
2.1457,0.2737,39.8000,97,97,64077
2.1457,0.2786,39.8300,97,97,64080
2.2141,0.2981,39.5700,97,97,64083
2.1848,0.2737,39.7700,97,97,64087
2.1799,0.2688,39.8600,97,97,64091
2.1896,0.2737,39.8300,97,97,64094
2.1896,0.2688,39.8900,97,97,64097
2.2532,0.2786,39.5700,97,97,64100
2.2141,0.2737,39.8000,97,97,64104
2.1896,0.2688,39.9300,97,97,64107
2.1945,0.2835,39.8300,97,97,64110
2.2043,0.2737,39.8600,97,97,64113
2.2141,0.2786,39.5400,97,97,64117
2.1554,0.2737,39.7700,97,97,64120
2.1212,0.2737,39.8600,97,97,64123
2.1114,0.2786,39.8300,97,97,64126
2.0674,0.2688,39.8600,97,97,64131
2.0919,0.2835,39.7000,97,97,64134
2.0137,0.2786,39.7300,97,97,64137
1.9648,0.2688,39.8600,97,97,64140
1.9355,0.2737,39.8300,97,97,64144
1.8964,0.2688,39.7700,97,97,64147
1.9062,0.2786,39.6400,97,97,64150
1.8280,0.2688,39.8300,97,97,64153
1.7986,0.2786,39.8600,97,97,64157
1.7791,0.2737,39.8300,97,97,64160
1.7449,0.2688,39.8600,97,97,64163
1.7742,0.2835,39.5400,97,97,64166
1.7351,0.2737,39.8600,97,97,64171
1.7058,0.2688,39.9300,97,97,64174
1.7204,0.2786,39.8000,97,97,64177
1.7009,0.2688,39.8900,97,97,64180
1.7449,0.2786,39.6700,97,97,64184
1.7155,0.2786,39.7700,97,97,64187
1.7058,0.2933,39.8900,97,97,64190
1.7155,0.2737,39.8300,97,97,64193
1.7253,0.2737,39.8300,97,97,64197
1.7546,0.3079,39.5700,97,97,64200
1.7155,0.2737,39.8600,97,97,64203
1.7302,0.2688,39.8900,97,97,64206
1.7546,0.2737,39.8300,97,97,64210
1.7449,0.2786,39.8600,97,97,64214
1.7986,0.2786,39.6000,97,97,64217
1.7742,0.2737,39.7300,97,97,64220
1.7644,0.2688,39.9300,97,97,64224
1.7889,0.2786,40.0300,97,97,64227
1.7693,0.2737,39.8300,97,97,64230
1.8328,0.2786,39.6400,97,97,64233
1.7986,0.2737,39.7700,97,97,64237
1.7937,0.2688,39.8900,97,97,64240
1.8426,0.2688,39.8300,97,97,64243
1.8133,0.2688,39.8600,97,97,64246
1.8719,0.2786,39.6000,97,97,64250
1.8231,0.2737,39.8300,97,97,64253
1.8280,0.2737,39.8900,97,97,64257
1.8426,0.2786,39.8900,98,97,64260
1.8377,0.2737,39.9300,98,97,64265
1.8377,0.2737,39.8600,98,97,64268
1.8915,0.2884,39.7000,98,97,64272
1.8622,0.2737,39.7300,98,97,64275
1.8475,0.2688,39.8000,98,97,64278
1.8524,0.2737,39.8600,98,97,64281
1.8328,0.2688,39.9600,98,97,64285
1.8915,0.2884,39.6700,98,97,64288
1.8426,0.2737,39.7700,98,97,64291
1.8524,0.2639,39.8300,98,97,64294
1.8573,0.2737,39.9300,98,97,64299
1.8524,0.2688,39.8900,98,97,64302
1.9013,0.2884,39.6700,98,97,64305
1.8671,0.2884,39.7700,98,97,64308
1.8573,0.2688,39.7700,98,97,64312
1.8622,0.2737,39.8300,98,97,64315
1.8573,0.2737,39.8600,98,97,64318
1.9159,0.2933,39.6700,98,97,64321
1.8719,0.2688,39.8000,98,97,64325
1.8622,0.2688,39.8000,98,97,64328
1.8768,0.2737,39.8600,98,97,64331
1.8768,0.2688,39.7300,98,97,64334
1.9501,0.2884,39.6400,98,97,64338
1.9159,0.2737,39.8000,98,97,64342
1.9306,0.2688,39.8600,98,97,64345
1.9453,0.2737,39.8300,98,97,64348
1.9453,0.2737,39.8900,98,97,64352
2.0137,0.2835,39.7700,98,97,64355
1.9844,0.2786,39.8000,98,97,64358
1.9844,0.2639,39.7700,98,97,64361
2.0137,0.2737,39.8300,98,97,64365
2.0137,0.2688,39.9600,98,97,64368
2.1065,0.2786,39.7000,98,97,64371
2.0772,0.3030,39.8300,98,97,64374
2.0723,0.2688,39.8000,98,97,64378
2.0674,0.2786,39.8900,98,97,64381
2.0577,0.2688,39.8600,98,97,64385
2.1017,0.3079,39.6700,98,97,64388
2.0283,0.2737,39.8000,98,97,64391
1.9990,0.2737,39.8300,98,97,64395
1.9844,0.2786,39.8300,98,97,64398
1.9501,0.2688,39.3800,98,97,64401
1.9844,0.2884,39.6000,98,97,64404
1.8964,0.2786,39.7700,98,97,64408
1.8573,0.2639,39.8300,98,97,64411
1.8377,0.2737,39.8300,98,97,64414
1.8133,0.2786,39.8300,98,97,64417
1.8475,0.2786,39.6700,98,97,64421
1.7937,0.2737,39.8000,98,97,64424
1.7840,0.2590,39.8300,98,97,64428
1.7742,0.2737,39.8600,98,97,64431
1.7791,0.2737,39.8600,98,97,64435
1.8280,0.2835,39.6400,98,97,64438
1.7840,0.2737,39.8300,98,97,64441
1.7791,0.2688,39.8600,98,97,64444
1.8035,0.2737,39.8300,98,97,64448
1.7742,0.2737,39.8900,98,97,64451
1.8231,0.2884,39.5700,98,97,64454
1.7840,0.2737,39.7700,98,97,64457
1.7644,0.2884,39.8600,98,97,64461
1.8035,0.2737,39.8600,98,97,64464
1.8671,0.2688,39.8300,98,97,64467
2.0430,0.2737,39.5700,98,97,64471
2.1896,0.2737,39.7000,98,97,64475
2.4340,0.2688,39.8600,98,97,64478
2.7126,0.2737,39.8600,98,97,64481
2.9765,0.2737,39.8600,98,97,64484
3.2893,0.2737,39.5700,98,97,64488
3.3382,0.2737,39.7700,98,97,64491
3.3284,0.2688,39.8600,98,97,64494
3.2160,0.2737,39.8300,98,97,64497
3.0205,0.2737,39.8300,98,97,64501
2.8837,0.2835,39.5700,98,97,64504
2.6051,0.2884,39.8300,98,97,64507
2.3754,0.2688,39.8600,98,97,64510
2.1848,0.2786,39.8300,98,97,64515
1.9941,0.2884,39.8300,98,97,64518
1.9013,0.2786,39.5700,98,97,64521
1.7449,0.2688,39.7300,98,97,64524
1.6569,0.2786,39.8300,98,97,64528
1.6129,0.2737,39.8300,98,97,64531
1.5787,0.2688,39.8300,98,97,64534
1.5934,0.2786,39.5700,98,97,64537
1.5396,0.2688,39.9300,98,97,64541
1.5689,0.2737,39.8300,98,97,64544
1.5396,0.2737,39.8000,98,97,64547
1.5347,0.2688,39.9600,98,97,64550
1.5982,0.2786,39.6000,98,97,64555
1.5591,0.3030,39.8000,98,97,64558
1.5640,0.2737,39.8600,98,97,64561
1.6178,0.2786,39.8300,98,97,64564
1.5885,0.2688,39.8900,98,97,64568
1.6471,0.2786,39.5400,98,97,64571
1.6325,0.2688,39.7300,98,97,64574
1.6373,0.2737,39.8600,98,97,64577
1.6569,0.2737,39.8900,98,97,64581
1.6618,0.2737,39.8600,98,97,64584
1.7204,0.2835,39.5400,98,97,64587
1.6911,0.2688,39.7300,98,97,64590
1.7058,0.2688,39.8600,98,97,64594
1.7351,0.2835,39.8300,98,97,64598
1.7351,0.3226,39.8600,98,97,64601
1.7889,0.2786,39.6000,98,97,64604
1.8084,0.2786,39.8000,98,97,64608
1.7742,0.2688,39.9600,98,97,64611
1.8084,0.2786,39.8000,98,97,64614
1.8035,0.2737,39.8900,98,97,64617
1.8671,0.2786,39.5700,98,97,64621
1.8426,0.2688,39.7700,98,97,64624
1.8475,0.2737,39.8600,98,97,64627
1.8719,0.2737,39.8300,98,97,64630
1.8817,0.2688,39.8600,98,97,64634
1.9404,0.2786,39.6000,98,97,64637
1.9110,0.2688,39.0900,98,97,64641
1.9306,0.2737,39.8900,98,97,64644
1.9550,0.2786,39.7700,98,97,64648
1.9599,0.2737,39.7700,98,97,64651
2.0283,0.2786,39.6400,98,97,64654
2.0137,0.2786,39.7700,98,97,64657
2.0088,0.2688,39.8600,98,97,64661
2.0430,0.2786,39.8000,98,97,64664
2.0283,0.2688,39.8600,98,97,64667
2.0919,0.2786,39.6400,98,97,64670
2.0674,0.2786,39.8300,98,97,64674
2.0723,0.2688,39.8600,98,97,64677
2.1261,0.2737,39.8600,98,97,64680
2.0870,0.2737,39.8900,98,97,64684
2.1359,0.2786,39.6400,98,97,64688
2.1065,0.2737,39.8300,98,97,64691
2.1017,0.2737,39.8000,98,97,64694
2.1212,0.2688,39.8300,98,97,64697
2.0870,0.2737,39.8600,98,97,64701
2.1261,0.2786,39.6400,98,97,64704
2.0919,0.2688,39.7700,98,97,64707
2.0674,0.2688,39.7300,98,97,64710
2.0821,0.2835,39.6400,98,97,64714
2.0626,0.2737,39.8600,98,97,64717
2.0577,0.2737,39.7000,98,97,64720
1.9990,0.2737,39.8900,98,97,64723
1.9599,0.2737,39.8600,98,97,64728
1.9404,0.2737,40.0000,98,97,64731
1.8915,0.2737,39.8300,98,97,64734
1.9013,0.3030,39.6000,98,97,64737
1.8280,0.2737,39.8600,98,97,64740
1.8182,0.2786,39.8600,98,97,64744
1.7742,0.2786,39.7300,98,97,64747
1.7204,0.2737,39.8900,98,97,64750
1.7204,0.2737,39.6400,98,97,64753
1.6764,0.2688,38.9600,98,97,64757
1.6618,0.2737,39.8300,98,97,64760
1.6667,0.2786,39.7000,98,97,64763
1.6325,0.2688,39.9300,98,97,64766
1.6471,0.2737,39.6700,98,97,64771
1.6276,0.2737,39.8000,98,97,64774
1.6227,0.2884,39.8900,98,97,64777
1.6178,0.2737,39.8000,98,97,64780
1.6129,0.2737,39.8600,98,97,64784
1.6373,0.2737,39.7000,98,97,64787
1.6129,0.2737,39.8600,98,97,64790
1.6325,0.2737,39.8600,98,97,64793
1.6520,0.2884,39.7300,98,97,64797
1.6422,0.2737,39.8900,98,97,64800
1.6716,0.2737,39.6700,98,97,64803
1.6618,0.2737,39.7700,98,97,64806
1.6667,0.2737,39.8900,98,97,64811
1.7009,0.2786,39.8000,98,97,64814
1.7009,0.2737,39.8900,98,97,64817
1.7107,0.2737,39.7000,98,97,64820
1.6911,0.2737,39.8000,98,97,64824
1.6960,0.2933,39.8900,98,97,64827
1.7204,0.2737,39.8300,98,97,64830
1.7107,0.2737,39.8600,98,97,64833
1.7400,0.2737,39.7700,98,97,64837
1.7204,0.2688,39.8600,98,97,64840
1.7253,0.2688,39.8300,98,97,64843
1.7546,0.2786,39.7300,98,97,64846
1.7302,0.2737,39.8300,98,97,64850
1.7595,0.2737,39.7000,98,97,64854
1.7400,0.2688,39.8600,98,97,64857
1.7449,0.2737,39.8600,98,97,64860
1.7595,0.2737,39.7300,98,97,64864
1.7351,0.2737,39.8600,98,97,64867
1.7644,0.2737,39.7300,98,97,64870
1.7351,0.2786,39.6400,98,97,64873
1.7595,0.2737,39.8900,98,97,64878
1.7351,0.2688,39.8000,98,97,64881
1.7546,0.2786,39.8000,98,97,64885
1.7595,0.2737,39.8600,98,97,64888
1.7595,0.2786,39.5700,98,97,64891
1.7253,0.2737,39.7700,98,97,64894
1.7253,0.2737,39.8600,98,97,64899
1.7498,0.2835,39.7700,98,97,64902
1.7302,0.2737,40.0000,98,97,64905
1.7742,0.2786,39.6700,98,97,64908
1.7498,0.2835,39.8000,98,97,64912
1.7302,0.2737,39.2200,98,97,64915
1.7449,0.2786,39.8600,98,97,64918
1.7449,0.2786,39.8600,98,97,64921
1.7937,0.2786,39.7000,98,97,64925
1.7644,0.2737,39.8300,98,97,64928
1.7791,0.2786,39.8600,98,97,64931
1.8133,0.2786,39.9300,98,97,64934
1.8133,0.2737,39.8300,98,97,64939
1.8622,0.2786,39.6400,98,97,64942
1.8524,0.2786,39.7700,98,97,64945
1.8524,0.2737,39.9300,98,97,64948
1.8915,0.2786,39.7700,98,97,64952
1.8768,0.2688,39.8600,98,97,64955
1.9355,0.2835,39.6000,98,97,64958
1.9208,0.2835,39.7700,98,97,64961
1.9306,0.2737,39.3200,98,97,64965
1.9453,0.2688,39.8300,98,97,64968
1.9306,0.2737,39.8600,98,97,64971
1.9648,0.2786,39.6700,98,97,64974
1.9062,0.2688,39.8300,98,97,64978
1.9110,0.2737,39.8600,98,97,64982
1.8817,0.2786,39.8000,98,97,64985
1.8377,0.2737,39.8600,98,97,64988
1.8475,0.2688,39.6400,98,97,64992
1.7986,0.2737,39.7700,98,97,64995
1.7595,0.2688,39.9600,98,97,64998
1.7546,0.2786,39.8600,98,97,65001
1.7009,0.2737,39.8600,98,97,65005
1.7204,0.2786,39.6700,98,97,65008
1.6764,0.2786,39.8000,98,97,65011
1.6520,0.2737,39.8300,98,97,65014
1.6569,0.2786,39.7300,98,97,65018
1.6471,0.2688,39.8300,98,97,65021
1.6813,0.2737,39.6400,98,97,65025
1.6422,0.2786,39.8300,98,97,65028
1.6471,0.2737,39.9300,98,97,65032
1.6667,0.2786,39.8000,98,97,65035
1.6471,0.2737,39.8600,98,97,65038
1.6813,0.2786,39.6000,98,97,65041
1.6471,0.2786,39.7700,98,97,65045
1.6325,0.2737,39.8600,98,97,65048
1.6667,0.2786,39.7700,98,97,65051
1.6960,0.2737,39.8900,98,97,65054
1.8231,0.2786,39.6700,98,97,65058
1.9697,0.2737,39.8300,98,97,65061
2.1701,0.2688,39.8600,98,97,65064
2.4633,0.2786,39.8300,98,97,65068
2.7273,0.2737,39.8600,98,97,65072
3.0401,0.2786,39.6400,98,97,65075
3.1427,0.2688,39.8600,98,97,65078
3.1867,0.2786,39.8900,98,97,65081
3.1281,0.2786,39.8600,98,97,65085
2.9521,0.2737,39.8300,98,97,65088
2.8006,0.2786,39.6400,98,97,65091
2.5513,0.2786,39.7700,98,97,65094
2.3216,0.2688,39.8600,98,97,65098
2.1505,0.2688,39.7700,98,97,65101
1.9355,0.2737,39.8900,98,97,65104
1.8133,0.2786,39.6400,98,97,65107
1.6618,0.2786,39.7700,98,97,65112
1.5689,0.2835,39.8600,98,97,65115
1.5200,0.2786,39.8300,98,97,65118
1.4907,0.2737,39.8300,98,97,65121
1.4712,0.2786,39.6400,98,97,65125
1.4223,0.2737,39.8600,98,97,65128
1.4174,0.2737,39.8600,98,97,65131
1.4272,0.2786,39.8300,98,97,65134
1.4223,0.2737,39.8300,98,97,65138
1.4565,0.2786,39.6700,98,97,65141
1.4467,0.2786,39.8000,98,97,65144
1.4467,0.2737,39.8900,98,97,65147
1.4712,0.3128,39.7700,98,97,65152
1.4663,0.2737,39.9300,98,97,65155
1.5103,0.2786,39.6400,98,97,65158
1.5103,0.2835,39.8000,98,97,65161
1.5249,0.2981,39.8300,98,97,65165
1.5494,0.2786,39.8000,98,97,65168
1.5543,0.2737,39.8600,98,97,65171
1.6031,0.2786,39.7300,98,97,65174
1.5885,0.2737,39.9600,98,97,65178
1.6178,0.2737,39.8300,98,97,65181
1.6422,0.2835,39.8000,98,97,65184
1.6422,0.2737,39.8300,98,97,65187
1.7204,0.2786,39.6700,98,97,65191
1.6764,0.2737,39.8000,98,97,65195
1.6862,0.2737,39.8600,98,97,65198
1.7204,0.2835,39.7700,98,97,65201
1.7155,0.2835,39.8900,98,97,65205
1.7644,0.2786,39.4800,98,97,65208
1.7546,0.2737,39.8000,98,97,65211
1.7644,0.2688,39.8600,98,97,65214
1.7889,0.2786,39.8300,98,97,65218
1.8035,0.2737,39.8600,98,97,65221
1.8524,0.2981,39.6400,98,97,65224
1.8280,0.2737,39.8600,98,97,65227
1.8426,0.2737,39.8900,98,97,65231
1.8768,0.2835,39.8000,98,97,65234
1.8768,0.2688,39.8600,98,97,65238
1.9306,0.2786,39.6400,98,97,65241
1.9159,0.2737,39.7700,98,97,65245
1.9257,0.2737,39.8600,98,97,65248
1.9599,0.2786,39.8000,98,97,65251
1.9501,0.2737,39.8300,98,97,65254
2.0039,0.2737,40.0000,98,97,65258
1.9941,0.2688,39.8000,98,97,65261
2.0039,0.2786,39.8600,98,97,65264
2.0235,0.2688,39.8000,98,97,65267
2.0186,0.2737,39.8000,98,97,65271
2.0577,0.2688,39.6700,98,97,65274
2.0235,0.2737,39.8900,98,97,65277
2.0283,0.2737,39.9600,98,97,65281
2.0528,0.2786,39.7700,98,97,65285
2.0235,0.2737,39.8900,98,97,65288
2.0430,0.2737,39.7300,98,97,65291
2.0039,0.2737,39.7700,98,97,65294
1.9941,0.2737,39.8600,98,97,65298
2.0088,0.2786,39.7300,98,97,65301
1.9746,0.2737,39.8600,98,97,65304
1.9892,0.2737,39.2200,98,97,65307
1.9355,0.2737,39.8000,98,97,65311
1.9110,0.2737,39.8600,98,97,65314
1.8915,0.2737,39.8300,98,97,65317
1.8573,0.2688,39.8300,98,97,65320
1.8573,0.2737,39.7000,98,97,65325
1.7889,0.2737,39.8600,98,97,65328
1.7595,0.2737,39.8600,98,97,65331
1.7840,0.2835,39.7000,98,97,65334
1.7009,0.2737,39.8900,98,97,65338
1.6960,0.2737,39.7300,98,97,65341
1.6520,0.2639,39.8000,98,97,65344
1.6373,0.2737,39.7300,98,97,65347
1.6422,0.2737,39.7300,98,97,65351
1.6080,0.2737,39.8600,98,97,65354
1.6325,0.2737,39.6700,98,97,65357
1.6031,0.2688,39.8300,98,97,65360
1.6031,0.2737,39.8300,98,97,65364
1.6129,0.2737,39.7000,98,97,65368
1.6129,0.2737,39.8300,98,97,65371
1.6373,0.2835,39.7300,98,97,65374
1.6178,0.2688,39.8300,98,97,65378
1.6276,0.2639,39.9600,98,97,65381
1.6862,0.2786,39.7300,98,97,65384
1.6325,0.2786,39.8300,98,97,65387
1.6520,0.2737,39.6700,98,97,65391
1.6276,0.2688,39.8300,98,97,65394
1.6373,0.2737,39.8600,98,97,65397
1.6862,0.2737,39.7700,98,97,65400
1.6764,0.2737,39.8300,98,97,65404
1.7107,0.2737,39.7300,98,97,65408
1.7009,0.2737,39.8300,98,97,65411
1.6911,0.3226,39.8300,98,97,65414
1.7058,0.2737,39.8900,98,97,65418
1.7107,0.2688,39.8300,98,97,65421
1.7400,0.2639,39.7300,98,97,65424
1.7155,0.2737,39.5400,98,97,65427
1.7253,0.2737,39.8600,98,97,65431
1.7546,0.2786,39.7300,98,97,65434
1.7351,0.2737,39.8600,98,97,65437
1.7742,0.2737,39.7300,98,97,65440
1.7546,0.2688,39.8300,98,97,65444
1.7644,0.2737,39.8900,98,97,65447
1.7937,0.2835,39.7700,98,97,65451
1.7791,0.2737,39.9300,98,97,65454
1.8035,0.2737,39.7300,98,97,65458
1.7791,0.2737,39.8300,98,97,65461
1.7791,0.2737,40.1300,98,97,65464
1.7937,0.2737,39.8000,98,97,65467
1.7840,0.2737,39.8600,98,97,65471
1.8133,0.2737,39.8000,98,97,65474
1.7889,0.2737,39.8600,98,97,65477
1.8328,0.2737,39.8600,98,97,65480
1.8280,0.2786,39.7300,99,97,65484
1.8231,0.2835,39.7700,99,97,65487
1.8035,0.2737,39.9600,99,97,65491
1.8426,0.2786,39.7000,99,97,65495
1.8133,0.2786,39.8000,99,97,65498
1.8035,0.2688,39.8600,99,97,65501
1.8328,0.2835,39.8000,99,97,65505
1.8426,0.2737,39.8600,99,97,65508
1.8964,0.2688,39.6400,99,97,65511
1.8768,0.2688,39.8600,99,97,65514
1.8915,0.2737,39.8600,99,97,65518
1.9257,0.2835,39.7700,99,97,65521
1.9208,0.2737,39.8600,99,97,65524
1.9697,0.2835,39.7000,99,97,65527
1.9599,0.2737,39.7700,99,97,65531
1.9599,0.2737,39.8600,99,97,65534
1.9892,0.2688,39.7700,99,97,65538
1.9844,0.2786,39.8900,99,97,65541
2.0528,0.2786,39.7000,99,97,65545
2.0674,0.2737,39.7700,99,97,65548
2.0430,0.2737,39.8300,99,97,65551
2.0626,0.2786,39.8000,99,97,65554
2.0430,0.2786,39.8300,99,97,65558
2.0821,0.2786,39.6400,99,97,65561
2.0283,0.2835,39.8600,99,97,65564
2.0137,0.2737,39.2500,99,97,65567
2.0137,0.2688,39.7700,99,97,65571
1.9648,0.2737,39.8600,99,97,65574
1.9648,0.2737,39.6000,99,97,65577
1.9110,0.2688,39.7700,99,97,65581
1.8768,0.2737,39.8600,99,97,65584
1.8719,0.2981,39.8300,99,97,65588
1.8280,0.2737,39.9300,99,97,65591
1.8377,0.2786,39.6400,99,97,65594
1.8035,0.2737,39.8000,99,97,65598
1.7742,0.2737,39.7700,99,97,65601
1.7791,0.2786,39.8000,99,97,65604
1.7644,0.2737,39.8600,99,97,65607
1.7937,0.2737,39.6700,99,97,65611
1.7644,0.2737,39.8600,99,97,65614
1.7742,0.2835,39.8600,99,97,65617
1.7889,0.2786,39.7700,99,97,65620
1.7644,0.2737,39.8600,99,97,65625
1.7937,0.2737,39.6700,99,97,65628
1.7595,0.2835,39.7700,99,97,65631
1.7449,0.2737,39.8600,99,97,65634
1.7693,0.2786,39.7000,99,97,65638
1.8035,0.2737,39.8300,99,97,65641
1.8915,0.2786,39.7000,99,97,65644
1.9990,0.2737,39.8300,99,97,65647
2.2043,0.2737,39.8600,99,97,65651
2.4780,0.2737,39.8300,99,97,65654
2.7468,0.2737,39.8600,99,97,65657
3.0547,0.2737,39.6700,99,97,65660
3.2111,0.2737,39.8600,99,97,65665
3.2991,0.2737,39.8600,99,97,65668
3.2845,0.3079,39.7700,99,97,65671
3.1134,0.2737,39.8000,99,97,65674
2.9619,0.2737,39.7000,99,97,65678
2.7126,0.2835,39.8300,99,97,65681
2.4927,0.2737,39.9600,99,97,65684
2.3069,0.2786,39.7300,99,97,65687
2.0919,0.2737,39.8600,99,97,65690
1.9404,0.2737,39.6700,99,97,65694
1.7791,0.2737,39.8300,99,97,65697
1.6813,0.2835,39.8900,99,97,65700
1.6178,0.2786,39.9300,99,97,65703
1.5640,0.2737,39.8300,99,97,65708
1.5543,0.2835,39.6700,99,97,65711
1.5152,0.2737,39.8600,99,97,65714
1.5103,0.2737,39.8900,99,97,65718
1.5249,0.2835,39.8000,99,97,65721
1.5054,0.2737,39.8600,99,97,65724
1.5396,0.2737,39.6700,99,97,65727
1.5347,0.2737,39.7700,99,97,65731
1.5591,0.2786,39.8600,99,97,65734
1.5738,0.2737,39.7300,99,97,65737
1.5689,0.2737,39.8300,99,97,65740
1.6080,0.2737,39.6700,99,97,65744
1.6031,0.2737,39.8000,99,97,65747
1.6227,0.2688,39.8600,99,97,65751
1.6422,0.2737,39.8000,99,97,65754
1.6520,0.2737,39.9600,99,97,65758
1.6862,0.2688,39.7000,99,97,65761
1.6667,0.2688,39.8600,99,97,65764
1.6960,0.2737,39.8600,99,97,65767
1.7351,0.2835,39.7700,99,97,65771
1.7351,0.2688,39.8300,99,97,65774
1.7742,0.2737,39.7000,99,97,65777
1.7644,0.2737,39.3500,99,97,65780
1.7840,0.2688,39.8600,99,97,65784
1.8133,0.2737,39.7300,99,97,65787
1.8231,0.2835,39.8900,99,97,65790
1.8671,0.2737,39.7300,99,97,65794
1.8573,0.2688,39.8300,99,97,65798
1.8719,0.2786,39.8600,99,97,65801
1.9013,0.2786,39.7700,99,97,65804
1.9062,0.2688,39.8600,99,97,65807
1.9453,0.2786,39.7000,99,97,65811
1.9355,0.2835,39.8900,99,97,65814
1.9550,0.2737,39.8600,99,97,65817
1.9990,0.2786,39.7700,99,97,65820
1.9844,0.2737,39.8600,99,97,65824
2.0283,0.2737,39.7000,99,97,65827
2.0186,0.2688,39.8300,99,97,65830
2.0430,0.2737,39.8600,99,97,65833
2.0772,0.2786,39.8300,99,97,65838
2.1017,0.2737,39.8600,99,97,65841
2.1212,0.2737,39.6700,99,97,65844
2.1065,0.2688,39.8900,99,97,65847
2.1603,0.2737,39.8300,99,97,65851
2.1505,0.2786,39.8000,99,97,65854
2.1505,0.2688,39.8600,99,97,65857
2.1848,0.2737,39.7000,99,97,65860
2.1554,0.2737,40.0000,99,97,65864
2.1603,0.2737,39.8600,99,97,65867
2.1896,0.2737,39.7300,99,97,65870
2.1603,0.2786,39.9600,99,97,65873
2.1896,0.2737,39.7700,99,97,65876
2.1457,0.2737,39.8300,99,97,65881
2.1457,0.2737,40.0600,99,97,65884
2.1603,0.2786,39.7300,99,97,65887
2.1212,0.2737,39.8600,99,97,65891
2.1261,0.2639,39.8300,99,97,65894
2.0674,0.2688,39.8600,99,97,65897
2.0528,0.2737,39.8600,99,97,65900
2.0186,0.2737,39.8000,99,97,65904
1.9892,0.2688,39.8600,99,97,65907
1.9795,0.2786,39.8300,99,97,65910
1.9159,0.2737,39.8600,99,97,65913
1.8817,0.2737,39.8300,99,97,65916
1.9062,0.2688,39.7300,99,97,65921
1.8084,0.2737,39.8600,99,97,65924
1.8084,0.2786,39.8000,99,97,65927
1.7595,0.2737,39.8000,99,97,65930
1.7400,0.2737,39.8900,99,97,65934
1.7449,0.2737,39.7700,99,97,65937
1.7107,0.2639,39.8300,99,97,65940
1.7302,0.2835,39.7700,99,97,65943
1.7058,0.2688,39.8600,99,97,65947
1.7058,0.2786,39.8600,99,97,65950
1.7155,0.2737,39.9300,99,97,65953
1.7107,0.2688,39.8300,99,97,65956
1.7302,0.2786,39.7300,99,97,65960
1.7107,0.3079,40.0300,99,97,65964
1.7253,0.2737,39.8300,99,97,65967
1.7644,0.2835,39.7000,99,97,65970
1.7400,0.2786,39.8300,99,97,65974
1.7644,0.2786,39.7300,99,97,65977
1.7400,0.2688,39.8600,99,97,65980
1.7449,0.2737,39.8600,99,97,65983
1.8133,0.2835,39.7700,99,97,65987
1.7644,0.2737,39.8000,99,97,65990
1.7986,0.2786,39.7300,99,97,65993
1.7742,0.2688,39.8600,99,97,65996
1.7791,0.2737,39.8900,99,97,66000
1.8035,0.2786,39.8300,99,97,66003
1.8035,0.2835,39.8300,99,97,66007
1.8231,0.2786,39.6700,99,97,66010
1.8035,0.2737,40.1300,99,97,66014
1.8084,0.2737,39.8600,99,97,66017
1.8377,0.2884,39.7700,99,97,66020
1.8084,0.2737,39.8000,99,97,66023
1.8280,0.2688,39.7300,99,97,66027
1.8133,0.2981,39.8300,99,97,66030
1.8182,0.2737,39.9300,99,97,66033
1.8475,0.2786,39.7300,99,97,66036
1.8280,0.2737,39.8300,99,97,66040
1.8426,0.2786,39.7300,99,97,66043
1.8182,0.2737,39.8300,99,97,66046
1.8182,0.2688,39.8600,99,97,66050
1.8475,0.2737,39.8300,99,97,66054
1.8328,0.2786,39.9300,99,97,66057
1.8671,0.2688,39.7000,99,97,66060
1.8622,0.2737,39.8600,99,97,66063
1.8426,0.2737,39.7000,99,97,66067
1.8768,0.2688,39.7300,99,97,66070
1.8475,0.2688,39.8300,99,97,66073
1.8524,0.2786,39.6700,99,97,66076
1.8231,0.2737,39.8600,99,97,66080
1.8231,0.2737,39.8600,99,97,66083
1.8426,0.2835,39.8300,99,97,66086
1.8231,0.2737,39.8600,99,97,66089
1.8573,0.2688,39.7300,99,97,66094
1.8231,0.2786,39.8600,99,97,66097
1.8817,0.2688,39.8600,99,97,66101
1.8915,0.2786,39.8900,99,97,66104
1.9208,0.2786,39.8000,99,97,66107
1.9013,0.2786,39.8300,99,97,66110
1.9501,0.2688,39.6700,99,97,66114
1.9550,0.2737,39.7700,99,97,66117
1.9990,0.2737,39.8600,99,97,66120
2.0039,0.2737,39.7300,99,97,66123
1.9941,0.2737,39.9600,99,97,66127
2.0283,0.2688,39.7300,99,97,66130
1.9941,0.2981,39.8000,99,97,66134
1.9892,0.2737,39.8600,99,97,66137
2.0137,0.2737,39.8000,99,97,66141
1.9941,0.2737,39.8600,99,97,66144
2.0088,0.2737,39.7300,99,97,66147
1.9550,0.2737,39.8600,99,97,66150
1.9257,0.2737,39.8300,99,97,66154
1.9159,0.2786,39.7300,99,97,66157
1.8426,0.2737,39.8600,99,97,66160
1.8328,0.2737,39.8300,99,97,66163
1.7742,0.2737,39.8000,99,97,66167
1.7449,0.2737,39.8600,99,97,66170
1.7546,0.2835,39.7300,99,97,66173
1.7155,0.2737,39.8600,99,97,66177
1.7253,0.2737,39.7700,99,97,66181
1.7253,0.2688,39.8300,99,97,66184
1.6911,0.2737,39.8600,99,97,66187
1.7009,0.2786,39.7000,99,97,66190
1.7009,0.2688,39.8600,99,97,66194
1.7302,0.2737,39.7000,99,97,66197
1.7058,0.2737,39.8900,99,97,66200
1.7107,0.2737,39.8600,99,97,66203
1.7253,0.2835,39.7300,99,97,66207
1.6960,0.2786,39.8600,99,97,66210
1.7155,0.2737,39.7300,99,97,66213
1.7058,0.2737,39.8000,99,97,66216
1.7546,0.2737,39.8300,99,97,66221
1.8622,0.2786,39.8300,99,97,66224
2.0283,0.2688,39.8300,99,97,66227
2.2483,0.3030,39.7700,99,97,66230
2.4927,0.2688,39.8300,99,97,66234
2.7664,0.2737,39.8600,99,97,66237
3.0401,0.2737,39.8000,99,97,66240
3.1867,0.2737,39.8600,99,97,66243
3.2600,0.2884,39.7700,99,97,66247
3.1232,0.2737,39.8600,99,97,66250
2.9668,0.2737,39.8900,99,97,66253
2.7957,0.2835,39.7700,99,97,66256
2.5367,0.2737,39.8000,99,97,66260
2.3558,0.2737,39.8000,99,97,66264
2.1261,0.2737,39.8000,99,97,66267
1.9599,0.2737,39.9300,99,97,66270
1.8328,0.2737,39.7700,99,97,66274
1.6911,0.2737,39.8600,99,97,66277
1.6276,0.2737,39.7700,99,97,66280
1.5347,0.2737,39.8600,99,97,66283
1.4907,0.2688,39.8600,99,97,66287
1.4761,0.2835,39.8300,99,97,66290
1.4418,0.2737,39.8300,99,97,66293
1.4809,0.2786,39.7700,99,97,66296
1.4370,0.2737,39.8600,99,97,66300
1.4418,0.2737,39.8900,99,97,66304
1.4761,0.2835,39.7700,99,97,66307
1.4614,0.2737,39.8600,99,97,66310
1.5152,0.2737,39.7300,99,97,66314
1.4907,0.2786,39.8000,99,97,66317
1.5054,0.2688,39.8600,99,97,66320
1.5591,0.2786,39.7700,99,97,66323
1.5152,0.2737,39.7000,99,97,66327
1.5591,0.2786,39.7700,99,97,66330
1.5494,0.2737,39.8600,99,97,66333
1.5640,0.2737,39.8900,99,97,66336
1.5787,0.2737,39.3800,99,97,66340
1.5934,0.2688,39.8600,99,97,66343
1.6373,0.2884,39.7700,99,97,66347
1.6276,0.2737,39.8600,99,97,66350
1.6520,0.2737,39.9300,99,97,66354
1.7058,0.2835,39.7700,99,97,66357
1.6960,0.2835,39.8300,99,97,66360
1.7302,0.2737,39.7300,99,97,66363
1.7155,0.2737,39.8300,99,97,66367
1.7302,0.2737,39.9300,99,97,66370
1.7791,0.2737,39.7700,99,97,66373
1.7742,0.2737,39.8600,99,97,66376
1.8524,0.2786,39.7700,99,97,66380
1.8035,0.2981,39.8900,99,97,66383
1.8133,0.2737,39.8900,99,97,66386
1.8328,0.2835,39.8000,99,97,66390
1.8475,0.2737,39.8600,99,97,66394
1.8915,0.2786,39.7700,99,97,66397
1.8768,0.2737,39.8600,99,97,66400
1.8866,0.2737,39.8600,99,97,66403
1.9306,0.2835,39.7700,99,97,66407
1.9257,0.2737,39.8600,99,97,66410
1.9697,0.2835,39.7300,99,97,66413
1.9599,0.2688,39.8000,99,97,66416
2.0039,0.2737,39.8600,99,97,66420
2.0283,0.3030,39.8000,99,97,66423
2.0186,0.2737,39.8900,99,97,66426
2.0626,0.2835,39.7000,99,97,66429
2.0381,0.2737,39.8600,99,97,66434
2.0479,0.2786,39.8600,99,97,66437
2.0723,0.2786,39.8900,99,97,66440
2.0674,0.2737,39.8600,99,97,66443
2.0772,0.2786,40.0300,99,97,66447
2.0430,0.2737,39.8900,99,97,66450
2.0381,0.2786,39.8600,99,97,66453
2.0674,0.2786,39.7700,99,97,66456
2.0283,0.2737,39.8600,99,97,66460
2.0332,0.3030,39.7700,99,97,66463
1.9941,0.2737,39.8600,99,97,66466
1.9795,0.2737,39.8600,99,97,66469
1.9892,0.2884,39.7000,99,97,66473
1.9404,0.2737,39.8300,99,97,66477
1.9306,0.2786,39.7300,99,97,66480
1.8671,0.3030,39.8600,99,97,66483
1.8280,0.2737,40.0600,99,97,66487
1.8182,0.2786,39.8000,99,97,66490
1.7693,0.2737,39.9300,99,97,66493
1.7595,0.2786,39.7300,99,97,66496
1.7155,0.2737,39.8600,99,97,66500
1.6813,0.2786,39.8600,99,97,66503
1.6911,0.2835,39.7300,99,97,66506
1.6471,0.2786,39.8300,99,97,66509
1.6520,0.2688,39.7000,99,97,66513
1.6129,0.2737,39.8900,99,97,66516
1.5982,0.2737,39.9300,99,97,66520
1.6227,0.2786,39.7000,99,97,66523
1.5885,0.2688,39.8300,99,97,66527
1.6080,0.2786,39.7000,99,97,66530
1.6129,0.2737,39.8600,99,97,66533
1.5934,0.2786,39.8600,99,97,66536
1.6227,0.2786,39.8000,99,97,66540
1.6129,0.2688,39.8600,99,97,66543
1.6325,0.2737,39.7700,99,97,66546
1.6178,0.2786,39.8600,99,97,66549
1.6276,0.2737,39.8300,99,97,66553
1.6813,0.2884,39.7000,99,97,66556
1.6520,0.2737,39.8300,99,97,66560
1.6764,0.2737,39.3500,99,97,66563
1.6569,0.2688,39.8600,99,97,66567
1.6667,0.2737,39.8600,99,97,66570
1.7009,0.2786,39.7000,99,97,66573
1.6862,0.2737,39.8300,99,97,66576
1.7107,0.2786,39.7700,99,97,66580
1.6960,0.2737,40.0300,99,97,66583
1.7058,0.2737,39.8600,99,97,66586
1.7449,0.2835,39.8000,99,97,66589
1.7302,0.2786,40.0300,99,97,66593
1.7546,0.2688,39.7700,99,97,66596
1.7302,0.2688,39.8600,99,97,66599
1.7302,0.2737,39.7700,99,97,66603
1.7595,0.2835,39.7000,99,97,66607
1.7351,0.2786,39.8300,99,97,66610
1.7498,0.2786,39.7300,99,97,66613
1.7351,0.2786,39.8600,99,97,66616
1.7449,0.2737,39.8600,99,97,66620
1.7791,0.2688,39.7000,99,97,66623
1.7498,0.3030,39.8600,99,97,66626
1.7693,0.2737,39.7300,99,97,66629
1.7498,0.2737,39.8300,99,97,66633
1.7595,0.2737,39.8600,99,97,66636
1.7889,0.2786,39.7300,99,97,66639
1.7644,0.2688,39.8300,99,97,66642
1.7889,0.3030,39.7000,99,97,66647
1.7742,0.2737,39.8600,99,97,66650
1.7791,0.2737,39.8600,99,97,66653
1.8426,0.2786,39.6700,99,97,66656
1.7840,0.2737,39.8600,99,97,66660
1.7986,0.2737,39.7300,99,97,66663
1.7791,0.2737,39.8600,99,97,66666
1.7986,0.2786,39.8600,99,97,66669
1.8475,0.2786,39.7700,99,97,66673
1.8426,0.2737,39.8300,99,97,66676
1.8671,0.2786,39.7300,99,97,66679
1.8524,0.2786,39.8600,99,97,66682
1.8573,0.2737,39.8600,99,97,66686
1.8915,0.2786,39.7700,99,97,66690
1.9159,0.2737,39.8300,99,97,66693
1.9159,0.2737,39.8000,99,97,66696
1.9208,0.2737,39.7700,99,97,66700
1.9453,0.2688,39.8600,99,97,66703
1.9892,0.2884,39.7000,100,97,66706
1.9795,0.3030,39.7300,100,97,66710
1.9453,0.2835,39.8900,100,97,66713
1.9648,0.2737,39.7000,100,97,66716
1.9062,0.2737,39.8000,100,97,66720
1.8719,0.2737,39.8600,100,97,66723
1.8426,0.2786,39.8000,100,97,66726
1.7937,0.2737,39.9600,100,97,66731
1.7986,0.2786,39.6700,100,97,66734
1.7449,0.2786,39.8300,100,97,66737
1.7204,0.2688,39.9300,100,97,66741
1.7107,0.3079,39.8300,100,97,66744
1.6911,0.2737,39.8600,100,97,66747
1.7253,0.2884,39.5400,100,97,66751
1.6960,0.2737,39.7700,100,97,66754
1.6813,0.2688,39.8300,100,97,66757
1.7155,0.2737,39.8600,100,97,66761
1.6764,0.2688,39.8600,100,97,66764
1.7204,0.2835,39.6700,100,97,66767
1.6862,0.2786,39.8300,100,97,66770
1.6862,0.2737,39.7300,100,97,66775
1.6960,0.2786,39.8600,100,97,66778
1.6618,0.2688,39.8600,100,97,66781
1.7253,0.2786,39.7000,100,97,66785
1.7937,0.2737,39.8600,100,97,66788
1.9257,0.2786,39.7300,100,97,66791
2.0919,0.2737,39.8600,100,97,66795
2.3558,0.2786,39.8600,100,97,66798
2.6735,0.2786,39.7700,100,97,66801
2.9277,0.2737,39.9600,100,97,66805
3.1818,0.2737,39.6700,100,97,66808
3.2405,0.2688,39.8600,100,97,66811
3.2014,0.2688,39.8600,100,97,66814
3.0987,0.2786,39.8600,100,97,66819
2.8739,0.2639,39.8600,100,97,66822
2.7028,0.2786,39.6400,100,97,66825
2.4536,0.2786,39.8000,100,97,66829
2.2239,0.2688,39.8900,100,97,66832
2.0479,0.2786,39.8300,100,97,66835
1.8671,0.2737,39.8900,100,97,66839
1.7840,0.2884,39.6400,100,97,66842
1.6569,0.2688,39.7700,100,97,66845
1.5787,0.2688,39.8600,100,97,66848
1.5347,0.2981,39.8600,100,97,66852
1.4956,0.2737,39.8600,100,97,66855
1.5347,0.2884,39.6400,100,97,66859
1.4907,0.2884,39.8000,100,97,66863
1.4858,0.2737,39.8000,100,97,66866
1.4809,0.2688,39.8300,100,97,66869
1.4809,0.2737,39.9300,100,97,66873
1.5298,0.2884,39.7300,100,97,66876
1.5249,0.2835,39.8300,100,97,66879
1.5494,0.2737,39.8000,100,97,66883
1.5787,0.2737,39.8600,100,97,66886
1.5738,0.2737,39.8600,100,97,66889
1.6129,0.2786,39.7300,100,97,66892
1.6080,0.2737,39.8300,100,97,66896
1.6520,0.2786,39.7700,100,97,66899
1.6422,0.2688,39.8300,100,97,66903
1.6569,0.2737,39.8900,100,97,66907
1.6911,0.2737,39.7300,100,97,66910
1.6862,0.2737,39.9600,100,97,66913
1.7302,0.2737,39.6700,100,97,66917
1.7302,0.2737,39.8000,100,97,66920
1.7498,0.2737,39.8600,100,97,66923
1.7791,0.2786,39.8000,100,97,66927
1.7791,0.2737,39.8600,100,97,66930
1.8280,0.2688,39.6400,100,97,66933
1.8133,0.2786,39.8300,100,97,66936
1.8231,0.2737,39.8600,100,97,66940
1.8573,0.2737,39.8000,100,97,66944
1.8622,0.2737,39.8900,100,97,66947
1.9257,0.2835,39.6000,100,97,66951
1.9013,0.2884,39.8000,100,97,66954
1.9062,0.2835,39.8300,100,97,66957
1.9306,0.2737,39.8300,100,97,66961
1.9404,0.2737,39.8900,100,97,66964
2.0088,0.2884,39.6700,100,97,66967
1.9844,0.2786,39.7000,100,97,66971
1.9941,0.2981,39.7700,100,97,66974
2.0039,0.2737,39.8600,100,97,66977
2.0137,0.2737,39.8600,100,97,66980
2.0577,0.2786,39.6700,100,97,66984
2.0430,0.2688,39.8300,100,97,66988
2.0870,0.2737,39.7000,100,97,66991
2.0772,0.2737,39.8600,100,97,66995
2.0870,0.2688,39.8600,100,97,66998
2.1212,0.2786,39.7000,100,97,67001
2.1065,0.2688,39.8900,100,97,67005
2.1359,0.2884,39.7700,100,97,67008
2.1065,0.2688,39.8900,100,97,67011
2.1065,0.2737,39.8300,100,97,67014
2.1261,0.3079,39.7700,100,97,67018
2.0968,0.2688,39.0900,100,97,67021
2.1163,0.2737,39.7300,100,97,67024
2.0870,0.2737,39.8300,100,97,67028
2.0772,0.2737,39.8600,100,97,67032
2.0821,0.2835,39.7300,100,97,67035
2.0332,0.2737,39.8600,100,97,67039
2.0577,0.2835,39.6700,100,97,67042
1.9941,0.2737,39.7700,100,97,67045
1.9453,0.2688,39.8900,100,97,67049
1.9159,0.2737,39.8600,100,97,67052
1.8671,0.2688,39.8600,100,97,67055
1.8866,0.2835,39.6000,100,97,67058
1.8084,0.2737,39.8000,100,97,67062
1.7693,0.2688,39.8300,100,97,67065
1.7449,0.2737,39.8300,100,97,67068
1.7107,0.2688,39.8900,100,97,67073
1.7449,0.2884,39.7000,100,97,67076
1.6960,0.2786,39.7700,100,97,67079
1.6813,0.2786,39.8000,100,97,67083
1.6716,0.2737,39.8300,100,97,67086
1.6618,0.2884,39.8900,100,97,67089
1.7107,0.2786,39.7000,100,97,67092
1.6667,0.2737,39.7300,100,97,67096
1.6813,0.2786,39.7300,100,97,67099
1.6667,0.2737,39.8600,100,97,67102
1.6667,0.2688,39.8300,100,97,67106
1.6960,0.2688,39.7700,100,97,67109
1.6764,0.2688,39.8600,100,97,67112
1.7155,0.2737,39.7300,100,97,67117
1.7351,0.2786,39.8300,100,97,67120
1.7107,0.2737,39.8600,100,97,67123
1.7253,0.2786,39.8000,100,97,67127
1.7155,0.2737,39.8600,100,97,67130
1.7498,0.2688,39.6400,100,97,67133
1.7253,0.2737,39.8300,100,97,67137
1.7302,0.2737,39.8900,100,97,67140
1.7644,0.2786,39.8600,100,97,67143
1.7498,0.2737,39.8300,100,97,67146
1.8035,0.2786,39.6400,100,97,67150
1.7791,0.2786,39.7700,100,97,67153
1.7693,0.2737,39.8600,100,97,67156
1.7840,0.2737,39.8600,100,97,67161
1.7791,0.2786,39.8600,100,97,67164
1.8426,0.2884,39.7000,100,97,67167
1.8035,0.2786,39.8300,100,97,67171
1.7937,0.2737,39.8000,100,97,67174
1.7937,0.2737,39.9600,100,97,67177
1.7937,0.2737,39.9300,100,97,67181
1.8426,0.2835,39.7300,100,97,67184
1.8231,0.2737,39.9600,100,97,67187
1.8475,0.2737,39.7300,100,97,67190
1.8231,0.2786,39.8600,100,97,67194
1.8231,0.2688,39.8900,100,97,67197
1.8475,0.2737,39.7700,100,97,67201
1.8426,0.2688,39.8600,100,97,67205
1.8671,0.2786,39.8000,100,97,67208
1.8573,0.2737,39.8300,100,97,67211
1.8328,0.2688,39.8600,100,97,67215
1.8573,0.2933,39.7000,100,97,67218
1.8328,0.2688,39.8900,100,97,67221
1.8671,0.2737,39.6400,100,97,67225
1.8524,0.2786,39.7700,100,97,67228
1.8817,0.2737,39.8600,100,97,67231
1.8768,0.2737,39.7000,100,97,67235
1.8964,0.2737,39.8300,100,97,67238
1.9306,0.2786,39.6400,100,97,67241
1.9013,0.2835,39.8000,100,97,67245
1.9013,0.2737,39.8600,100,97,67249
1.9159,0.2737,39.8600,100,97,67252
1.9159,0.2737,39.8600,100,97,67255
1.9746,0.2835,39.6000,100,97,67259
1.9355,0.2737,39.7700,100,97,67262
1.9355,0.2688,39.7300,100,97,67265
1.9550,0.2835,39.8300,100,97,67269
1.9746,0.2688,39.9300,100,97,67272
2.0528,0.3128,39.7700,100,97,67275
2.0479,0.2688,39.8300,100,97,67279
2.0674,0.2737,39.7700,100,97,67282
2.0479,0.2737,39.8300,100,97,67286
2.0430,0.2786,39.8600,100,97,67289
2.1065,0.2835,39.7000,100,97,67293
2.0283,0.2737,39.8300,100,97,67296
2.0430,0.2737,39.7300,100,97,67299
1.9941,0.2737,39.8900,100,97,67303
1.9746,0.2737,39.8600,100,97,67306
1.9599,0.2737,39.7700,100,97,67309
1.8964,0.2737,39.8600,100,97,67313
1.8817,0.2737,39.7300,100,97,67316
1.8182,0.2786,39.6400,100,97,67319
1.7253,0.2737,39.8600,100,97,67323
1.7302,0.2688,39.8600,100,97,67326
1.7400,0.2786,39.7000,100,97,67330
1.7351,0.2737,39.8600,100,97,67334
1.7742,0.2835,39.5700,100,97,67337
1.7546,0.2737,39.9300,100,97,67340
1.7449,0.2737,39.8000,100,97,67344
1.7498,0.2737,39.7700,100,97,67347
1.7400,0.3030,39.8900,100,97,67350
1.7840,0.2786,39.7000,100,97,67354
1.7693,0.2835,39.8000,100,97,67357
1.8231,0.2737,39.8000,100,97,67360
1.9110,0.2786,39.8000,100,97,67364
2.0821,0.2639,39.8600,100,97,67367
2.3509,0.2737,39.7300,100,97,67371
2.6051,0.2737,39.8600,100,97,67374
2.9130,0.2737,39.7300,100,97,67378
3.1623,0.2737,39.8600,100,97,67381
3.2991,0.2737,39.9300,100,97,67384
3.3724,0.2737,39.8300,100,97,67388
3.2796,0.2737,39.8600,100,97,67391
3.1232,0.2688,39.8000,100,97,67394
2.8495,0.2688,39.7700,100,97,67398
2.6197,0.2835,39.8600,100,97,67401
2.4194,0.2786,39.7700,100,97,67404
2.1701,0.2786,39.8600,100,97,67407
2.0137,0.2835,39.6700,100,97,67411
1.8377,0.2688,39.7700,100,97,67415
1.7155,0.2737,39.8600,100,97,67418
1.6569,0.2884,39.7700,100,97,67422
1.5787,0.2737,39.8600,100,97,67425
1.5885,0.2737,39.6000,100,97,67428
1.5396,0.2688,39.7700,100,97,67432
1.5200,0.2737,39.8300,100,97,67435
1.5200,0.2737,39.8300,100,97,67438
1.5152,0.2786,39.8600,100,97,67442
1.5689,0.2884,39.6000,100,97,67445
1.5396,0.2835,39.7700,100,97,67448
1.5494,0.2737,39.8000,100,97,67451
1.5640,0.2737,39.8600,100,97,67456
1.5738,0.2737,39.8300,100,97,67459
1.6325,0.2835,39.7300,100,97,67462
1.6276,0.2688,39.8300,100,97,67466
1.6520,0.2737,39.8900,100,97,67469
1.6569,0.2737,39.8600,100,97,67472
1.6716,0.2737,39.9300,100,97,67476
1.7155,0.2835,39.6700,100,97,67479
1.7107,0.2737,39.8300,100,97,67482
1.7449,0.2786,39.7700,100,97,67486
1.7400,0.2737,39.8300,100,97,67489
1.7595,0.2737,39.8600,100,97,67492
1.7937,0.2737,39.7700,100,97,67496
1.7889,0.2737,39.8600,100,97,67500
1.8328,0.2737,39.3800,100,97,67503
1.8231,0.2737,39.8600,100,97,67506
1.8426,0.2688,39.9600,100,97,67510
1.8719,0.2786,39.8000,100,97,67513
1.8719,0.3079,39.8900,100,97,67516
1.9404,0.2786,39.6400,100,97,67520
1.9208,0.2737,39.8900,100,97,67523
1.9355,0.2835,39.8600,100,97,67526
1.9648,0.2688,39.8300,100,97,67530
1.9648,0.2688,39.8600,100,97,67533
2.0430,0.2786,39.6000,100,97,67536
2.0235,0.2786,39.8000,100,97,67540
2.0186,0.2737,39.8000,100,97,67544
2.0430,0.2786,39.8000,100,97,67547
2.0577,0.2786,39.8600,100,97,67550
2.1359,0.2981,39.6700,100,97,67554
2.1114,0.2786,39.7700,100,97,67557
2.1163,0.2737,39.8000,100,97,67560
2.1212,0.2737,39.8300,100,97,67564
2.1359,0.2737,39.8900,100,97,67567
2.1848,0.2786,39.7300,100,97,67570
2.1652,0.2737,39.8300,100,97,67574
2.1848,0.2688,39.7300,100,97,67577
2.1603,0.2737,39.9600,100,97,67580
2.1652,0.2786,39.8600,100,97,67584
2.1994,0.2688,39.8000,100,97,67588
2.1750,0.2737,39.8600,100,97,67591
2.1994,0.2786,39.8600,100,97,67594
2.1554,0.2737,39.8900,100,97,67598
2.1554,0.2737,39.8600,100,97,67601
2.1750,0.2786,39.6700,100,97,67604
2.1310,0.2688,39.8600,100,97,67608
2.1408,0.2688,39.7000,100,97,67611
2.0968,0.2737,39.8000,100,97,67614
2.0626,0.2737,39.9600,100,97,67617
2.0723,0.2835,39.7300,100,97,67621
1.9990,0.2737,39.8600,100,97,67624
2.0088,0.2786,39.6400,100,97,67628
1.9355,0.2786,39.8000,100,97,67632
1.8915,0.2737,39.8900,100,97,67635
1.8573,0.2786,39.7300,100,97,67638
1.8084,0.2737,39.9300,100,97,67642
1.8231,0.2835,39.5700,100,97,67645
1.7644,0.2786,39.8000,100,97,67648
1.7400,0.2737,39.8300,100,97,67652
1.7253,0.2786,39.8600,100,97,67655
1.7058,0.2737,39.8300,100,97,67658
1.7840,0.2884,39.6700,100,97,67661
1.7204,0.2835,39.8000,100,97,67665
1.7058,0.2737,39.7700,100,97,67668
1.7107,0.3030,39.8600,100,97,67672
1.7107,0.2737,39.8600,100,97,67676
1.7546,0.2786,39.7000,100,97,67679
1.7302,0.2786,39.8000,100,97,67682
1.7498,0.2786,39.7300,100,97,67686
1.7400,0.2737,39.8600,100,97,67689
1.7400,0.2688,39.8600,100,97,67692
1.7742,0.2835,39.7000,100,97,67695
1.7546,0.2688,39.8600,100,97,67699
1.7937,0.2786,39.7700,100,97,67702
1.7791,0.2688,39.8600,100,97,67705
1.8084,0.2737,39.8600,100,97,67709
1.8182,0.2688,39.8300,100,97,67713
1.8035,0.2737,39.8300,100,97,67716
1.8328,0.2639,39.6700,100,97,67720
1.8133,0.2737,39.8300,100,97,67723
1.8182,0.2737,39.8600,100,97,67726
1.8426,0.2786,39.8000,100,97,67730
1.8377,0.2933,39.8900,100,97,67733
1.8964,0.2737,39.7000,100,97,67736
1.8671,0.2688,39.7300,100,97,67740
1.8573,0.2688,39.9300,100,97,67743
1.8719,0.2786,39.8600,100,97,67746
1.8622,0.2688,39.8600,100,97,67749
1.9159,0.2884,39.5700,100,97,67753
1.8768,0.2688,39.7300,100,97,67757
1.8622,0.2688,39.8000,100,97,67760
1.8622,0.3079,39.8900,100,97,67764
1.8671,0.2737,39.8600,100,97,67767
1.9208,0.2835,39.7300,100,97,67770
1.8817,0.2737,39.8900,100,97,67774
1.9110,0.2737,39.7700,100,97,67777
1.8719,0.2737,39.8600,100,97,67780
1.8671,0.2786,39.8600,100,97,67784
1.8964,0.2786,39.7700,100,97,67787
1.8817,0.2737,40.0000,100,97,67790
1.9062,0.2835,39.7700,100,97,67793
1.8817,0.2737,39.8600,100,97,67798
1.8817,0.2737,39.9600,100,97,67801
1.9208,0.2737,39.7300,100,97,67804
1.8915,0.2688,39.8600,100,97,67808
1.9208,0.2737,39.8300,100,97,67811
1.9013,0.2688,39.7700,100,97,67814
1.9110,0.2688,39.8600,100,97,67818
1.9306,0.2786,39.7700,100,97,67821
1.9208,0.2737,39.8600,100,97,67824
1.9746,0.2786,39.6700,100,97,67828
1.9648,0.2786,40.0600,100,97,67831
1.9648,0.2933,39.8900,100,97,67834
1.9844,0.2688,39.8600,100,97,67837
1.9795,0.2737,39.8600,100,97,67842
2.0381,0.2786,39.7000,100,97,67845
2.0088,0.2737,39.8300,100,97,67848
2.0528,0.2737,39.8600,100,97,67852
2.0674,0.2786,39.8300,100,97,67855
2.0772,0.2737,39.8600,100,97,67858
2.1457,0.2884,39.6400,100,97,67862
2.1163,0.2786,39.8000,100,97,67865
2.0968,0.2688,39.8000,100,97,67868
2.0968,0.2737,39.8000,100,97,67871
2.0870,0.2835,39.8600,100,97,67875
2.1261,0.2835,39.6700,100,97,67878
2.0772,0.2786,39.8000,100,97,67881
2.0577,0.2737,39.7000,100,97,67886
2.0088,0.2786,39.8900,100,97,67889
1.9697,0.2786,39.8300,100,97,67892
1.9599,0.2786,39.7300,100,97,67896
1.8915,0.2884,39.8300,100,97,67899
1.8817,0.2786,39.7300,100,97,67902
1.8377,0.2737,39.0600,100,97,67905
1.8231,0.2737,39.8900,100,97,67909
1.8328,0.2786,39.8000,100,97,67912
1.8084,0.2737,39.8600,100,97,67915
1.8182,0.2737,39.7300,100,97,67919
1.7889,0.2737,39.8300,100,97,67922
1.7986,0.2786,39.8900,100,97,67926
1.8231,0.2835,39.7000,100,97,67930
1.7937,0.2737,39.8300,100,97,67933
1.7937,0.2737,39.8600,100,97,67937
1.8964,0.2884,39.6700,100,97,67940
1.9453,0.2688,39.8000,100,97,67943
2.0674,0.2737,39.8000,100,97,67947
2.2776,0.2737,39.8900,100,97,67950
2.5513,0.2737,39.8300,100,97,67953
2.9081,0.2835,39.7000,100,97,67956
3.1281,0.2688,39.8300,100,97,67960
3.3382,0.2737,39.8300,100,97,67963
3.3675,0.2737,39.8600,100,97,67966
3.2845,0.2737,39.8600,100,97,67971
3.1623,0.2786,40.0300,100,97,67974
2.9179,0.2981,39.8600,100,97,67977
2.7175,0.2786,39.7300,100,97,67981
2.4633,0.2737,39.9300,100,97,67984
2.2630,0.2786,39.8600,100,97,67987
2.1114,0.2688,39.7700,100,97,67991
1.9306,0.2737,39.8300,100,97,67994
1.8280,0.2737,39.7300,100,97,67997
1.7107,0.2737,39.8000,100,97,68000
1.6471,0.2737,39.8900,100,97,68004
1.6227,0.2786,39.8300,100,97,68007
1.5787,0.2737,39.8600,100,97,68011
1.5934,0.2786,39.6400,100,97,68015
1.5738,0.2737,39.8000,100,97,68018
1.5543,0.2688,39.8600,100,97,68021
1.5640,0.2786,39.7000,100,97,68025
1.5591,0.2786,39.8300,100,97,68028
1.6276,0.2835,39.6000,100,97,68031
1.6031,0.2737,39.8000,100,97,68035
1.6178,0.2688,39.8300,100,97,68038
1.6325,0.2737,39.8600,100,97,68041
1.6373,0.2737,39.8600,100,97,68044
1.7009,0.2835,39.7000,100,97,68048
1.6813,0.2786,39.8000,100,97,68051
1.6862,0.2737,39.7700,100,97,68055
1.7009,0.2737,39.8600,100,97,68059
1.7351,0.2737,39.8600,100,97,68062
1.7693,0.2835,39.7700,100,97,68065
1.7937,0.2737,39.8300,100,97,68069
1.7937,0.2688,39.7300,100,97,68072
1.7889,0.2737,39.9300,100,97,68075
1.8035,0.2688,39.8600,100,97,68079
1.8426,0.2835,39.8000,100,97,68082
1.8328,0.2737,39.8900,100,97,68085
1.8768,0.2786,39.8000,100,97,68088
1.8671,0.2786,39.8300,100,97,68092
1.8817,0.2688,39.8600,100,97,68096
1.9208,0.2786,40.0300,100,97,68099
1.9257,0.2737,39.8900,100,97,68103
1.9746,0.2786,39.6700,100,97,68106
1.9648,0.2737,39.8300,100,97,68109
1.9746,0.2737,39.8600,100,97,68113
2.0186,0.2786,39.8900,100,97,68116
2.0186,0.2786,39.8600,100,97,68119
2.0919,0.2786,39.6400,100,97,68123
2.0577,0.2786,39.7700,100,97,68126
2.0577,0.2737,39.4100,100,97,68129
2.0870,0.2786,39.8300,100,97,68132
2.0919,0.2737,39.8900,100,97,68136
2.1652,0.2884,39.6000,100,97,68140
2.1359,0.2786,39.7700,100,97,68143
2.1310,0.2688,39.8300,100,97,68147
2.1554,0.2737,39.8000,100,97,68150
2.1701,0.2688,39.8900,100,97,68153
2.2581,0.2786,39.7300,100,97,68157
2.1994,0.2737,39.8600,100,97,68160
2.2092,0.2786,39.7300,100,97,68163
2.2190,0.2737,39.8600,100,97,68167
2.1896,0.2737,39.8900,100,97,68170
2.2141,0.2786,39.7700,100,97,68173
2.2043,0.2737,39.8600,100,97,68176
2.1994,0.2786,39.7000,100,97,68180
2.1457,0.2737,39.7000,100,97,68184
2.1310,0.2737,39.8600,100,97,68187
2.1554,0.2884,39.7300,100,97,68191
2.1065,0.2737,39.8600,100,97,68194
2.1114,0.2981,39.7300,100,97,68197
2.0772,0.2737,39.8000,100,97,68201
2.0332,0.2688,39.8600,100,97,68204
2.0137,0.2786,39.8600,100,97,68207
1.9550,0.2737,39.8600,100,97,68210
1.9550,0.2981,39.7000,100,97,68214
1.8964,0.2737,39.8000,100,97,68217
1.8622,0.2737,39.8600,100,97,68220
1.8426,0.2737,39.8300,100,97,68225
1.8084,0.2688,39.8600,100,97,68228
1.8328,0.2786,39.6400,100,97,68231
1.7840,0.2737,39.8000,100,97,68235
1.7840,0.2688,39.8600,100,97,68238
1.7693,0.2786,39.8300,100,97,68241
1.7595,0.2737,39.8600,100,97,68245
1.8035,0.2884,39.6000,100,97,68248
1.7791,0.2786,39.7300,100,97,68251
1.7693,0.2688,39.9600,100,97,68254
1.7791,0.2688,39.8300,100,97,68258
1.7742,0.2688,39.8600,100,97,68261
1.8231,0.3372,39.6700,100,97,68264
1.7937,0.2786,39.8300,100,97,68269
1.8035,0.2884,39.7300,100,97,68272
1.7986,0.2737,39.8600,100,97,68275
1.8084,0.2737,39.8600,100,97,68279
1.8426,0.3079,39.7300,100,97,68282
1.8426,0.2737,39.8600,100,97,68285
1.8524,0.2786,39.7300,100,97,68289
1.8377,0.2737,39.8900,100,97,68292
1.8475,0.2688,39.8600,100,97,68295
1.8671,0.2786,39.8000,100,97,68298
1.8524,0.2737,39.8600,100,97,68302
1.8817,0.2737,39.7300,100,97,68305
1.8622,0.2737,40.1600,100,97,68308
1.8768,0.2835,39.8600,100,97,68313
1.9208,0.2786,39.7300,100,97,68316
1.8964,0.2737,39.8300,100,97,68319
1.9355,0.2737,39.6400,100,97,68323
1.9159,0.2835,39.8300,100,97,68326
1.9013,0.2786,39.8900,100,97,68329
1.9257,0.2786,39.8000,100,97,68333
1.9110,0.2737,39.8900,100,97,68336
1.9697,0.2835,39.5700,100,97,68339
1.9306,0.2786,39.7700,100,97,68342
1.9159,0.2688,39.8600,100,97,68346
1.9208,0.2737,39.8600,100,97,68349
1.9306,0.2737,39.8600,100,97,68353
1.9795,0.2884,39.6400,100,97,68357
1.9306,0.2737,39.8300,100,97,68360
1.9306,0.2737,39.7700,100,97,68363
1.9208,0.2737,39.8600,100,97,68367
1.9208,0.2933,39.8600,100,97,68370
1.9599,0.2835,39.7700,100,97,68373
1.9355,0.2786,39.8300,100,97,68377
1.9550,0.2737,39.7000,100,97,68380
1.9257,0.2737,39.8900,100,97,68383
1.9208,0.2737,39.9300,100,97,68386
1.9550,0.2884,39.7000,100,97,68390
1.9257,0.2737,39.8300,100,97,68393
1.9599,0.2786,39.7300,100,97,68397
1.9404,0.2737,39.8000,100,97,68401
1.9355,0.2737,39.8900,100,97,68404
1.9599,0.2737,39.7300,100,97,68407
1.9599,0.2737,39.8900,100,97,68411
2.0332,0.2786,39.6700,100,97,68414
1.9795,0.2737,39.8600,100,97,68417
1.9892,0.2737,39.8000,100,97,68421
2.0088,0.2835,39.8000,100,97,68424
1.9990,0.2737,39.8600,100,97,68427
2.0528,0.2786,39.6400,100,97,68430
2.0283,0.2737,39.8000,100,97,68434
2.0381,0.2737,39.8900,100,97,68438
2.0772,0.2786,39.8300,100,97,68441
2.0674,0.2737,39.8900,100,97,68445
2.1310,0.2835,39.6000,100,97,68448
2.0919,0.2737,39.7700,100,97,68451
2.0772,0.2688,39.8600,100,97,68455
2.0723,0.2737,39.8000,100,97,68458
2.0528,0.3079,39.8600,100,97,68461
2.0919,0.2981,39.6700,100,97,68464
2.0283,0.2786,39.8600,100,97,68468
1.9892,0.2737,39.7700,100,97,68471
1.9550,0.2737,39.8600,100,97,68474
1.9208,0.2688,39.8600,100,97,68478
1.9159,0.2835,39.7700,100,97,68482
1.8622,0.2737,39.8900,100,97,68485
1.8475,0.2786,39.7700,100,97,68489
1.7986,0.2786,39.8600,100,97,68492
1.7840,0.2737,39.8600,100,97,68495
1.7889,0.2835,39.8000,100,97,68499
1.7742,0.2786,39.8600,100,97,68502
1.7937,0.2737,39.7300,100,97,68505
1.7595,0.2737,39.8600,100,97,68508
1.7693,0.2737,39.8900,100,97,68512
1.7986,0.2786,39.7700,100,97,68515
1.7742,0.3030,39.8600,100,97,68518
1.8084,0.2835,39.7000,100,97,68523
1.7889,0.2737,39.7700,100,97,68526
1.7791,0.2688,39.8600,100,97,68529
1.7889,0.2835,39.8000,100,97,68533
1.7840,0.2737,39.8600,100,97,68536
1.8768,0.2835,39.6400,100,97,68539
2.9570,0.2884,39.7000,101,97,68543
3.1672,0.2786,39.8300,101,97,68546
3.3431,0.2737,39.7300,101,97,68550
3.4066,0.2688,39.8600,101,97,68553
3.2845,0.2737,39.8600,101,97,68556
3.1720,0.2884,39.7700,101,97,68559
2.9326,0.2737,39.8300,101,97,68563
2.7077,0.2786,39.8000,101,97,68567
2.4291,0.2737,39.8600,101,97,68570
2.2141,0.2737,39.8600,101,97,68574
2.0528,0.2835,40.1300,101,97,68577
1.8622,0.2786,39.8600,101,97,68580
1.7742,0.2688,39.7300,101,97,68584
1.6618,0.2737,39.9300,101,97,68587
1.6031,0.2688,39.8600,101,97,68590
1.5738,0.2737,39.7700,101,97,68594
1.5396,0.2737,39.8600,101,97,68597
1.5640,0.2786,39.7000,101,97,68600
1.5249,0.2688,39.9600,101,97,68603
1.5200,0.2737,40.0000,101,97,68608
1.5347,0.2786,39.8300,101,97,68611
1.5396,0.2737,39.8600,101,97,68614
1.5787,0.2835,39.6400,101,97,68618
1.5982,0.2737,39.8000,101,97,68621
1.5885,0.2688,39.8600,101,97,68624
1.6080,0.2786,39.8600,101,97,68628
1.6178,0.2884,39.8900,101,97,68631
1.6862,0.2884,39.6000,101,97,68634
1.6618,0.2786,39.8600,101,97,68638
1.6764,0.2737,39.8300,101,97,68641
1.6911,0.2737,39.8300,101,97,68644
1.7009,0.2737,39.8600,101,97,68647
1.7546,0.2835,39.6700,101,97,68652
1.7449,0.2786,39.8300,101,97,68655
1.7693,0.2737,39.2800,101,97,68658
1.7742,0.2688,39.8600,101,97,68662
1.7986,0.2737,39.8600,101,97,68665
1.8280,0.2786,39.7700,101,97,68668
1.8182,0.2737,39.8000,101,97,68672
1.8573,0.2884,39.7300,101,97,68675
1.8475,0.2688,39.8600,101,97,68678
1.8671,0.2737,39.9300,101,97,68682
1.9013,0.2835,39.7700,101,97,68685
1.9110,0.2737,39.8600,101,97,68688
1.9404,0.2737,39.7300,101,97,68691
1.9404,0.2737,39.8300,101,97,68696
1.9550,0.2737,39.8600,101,97,68699
1.9844,0.2786,39.8000,101,97,68702
2.0088,0.2786,39.8600,101,97,68706
2.0626,0.2737,39.6000,101,97,68709
2.0283,0.2786,39.7700,101,97,68712
2.0283,0.2737,39.8600,101,97,68716
2.0968,0.2786,39.8300,101,97,68719
2.0626,0.2688,39.8600,101,97,68722
2.1408,0.2688,39.6400,101,97,68725
2.1017,0.2737,39.8600,101,97,68729
2.1114,0.2639,39.8600,101,97,68732
2.1310,0.2688,39.8300,101,97,68736
2.1408,0.2688,39.9600,101,97,68740
2.2141,0.2884,39.3800,101,97,68743
2.1701,0.2737,39.8300,101,97,68746
2.1652,0.2737,39.8000,101,97,68750
2.1603,0.2786,39.7700,101,97,68753
2.1554,0.2737,39.8600,101,97,68756
2.1994,0.2835,39.7300,101,97,68760
2.1603,0.2786,39.8600,101,97,68763
2.1652,0.3226,39.7300,101,97,68766
2.1261,0.2737,39.9600,101,97,68769
2.1065,0.2737,39.7300,101,97,68773
2.1261,0.2835,39.7000,101,97,68776
2.0772,0.2737,39.8600,101,97,68780
2.0821,0.2835,39.7700,101,97,68784
2.0235,0.2737,39.8300,101,97,68787
1.9892,0.2737,39.8600,101,97,68790
1.9697,0.2737,39.6700,101,97,68794
1.9208,0.2835,39.8600,101,97,68797
1.9062,0.2737,39.7000,101,97,68800
1.8475,0.2737,39.8300,101,97,68804
1.8182,0.2737,39.8600,101,97,68807
1.7937,0.2786,39.8000,101,97,68810
1.7546,0.2737,40.0000,101,97,68813
1.7644,0.2835,39.6400,101,97,68817
1.7155,0.2737,39.8300,101,97,68820
1.7009,0.2981,39.9300,101,97,68824
1.7253,0.2835,39.8300,101,97,68828
1.6862,0.2737,39.9600,101,97,68831
1.7351,0.2884,39.5700,101,97,68834
1.7253,0.2786,39.7700,101,97,68838
1.6960,0.2688,39.8900,101,97,68841
1.7058,0.2688,39.8300,101,97,68844
1.7009,0.2688,39.9600,101,97,68848
1.7498,0.2884,39.7300,101,97,68851
1.7155,0.2688,39.8300,101,97,68854
1.7204,0.2737,39.7700,101,97,68857
1.7204,0.2737,39.8600,101,97,68861
1.7302,0.2981,39.8600,101,97,68865
1.7595,0.2786,39.7700,101,97,68868
1.7449,0.2737,39.7700,101,97,68872
1.7742,0.2737,39.7300,101,97,68875
1.7546,0.2737,40.1000,101,97,68878
1.7742,0.2737,39.8600,101,97,68882
1.7986,0.2786,39.7700,101,97,68885
1.7889,0.2786,39.8600,101,97,68888
1.8182,0.2786,39.7000,101,97,68892
1.7986,0.2737,39.8300,101,97,68895
1.8084,0.2737,39.9300,101,97,68898
1.8377,0.2786,39.7300,101,97,68901
1.8084,0.2688,39.8600,101,97,68905
1.8524,0.2786,39.6700,101,97,68909
1.8231,0.2737,39.8600,101,97,68912
1.8133,0.2737,39.8600,101,97,68916
1.8377,0.2786,39.8000,101,97,68919
1.8182,0.3030,39.8300,101,97,68922
1.8964,0.2835,39.6000,101,97,68926
1.8328,0.2737,39.8000,101,97,68929
1.8328,0.3030,39.8900,101,97,68932
1.8426,0.2786,39.8300,101,97,68936
1.8426,0.2688,39.8600,101,97,68939
1.9062,0.2884,39.6400,101,97,68942
1.8671,0.2835,39.8000,101,97,68945
1.8573,0.2737,39.8300,101,97,68950
1.8475,0.2786,39.7300,101,97,68953
1.8475,0.2737,39.8600,101,97,68956
1.8915,0.2835,39.7300,101,97,68960
1.8671,0.2786,39.8900,101,97,68963
1.8817,0.2786,39.7700,101,97,68966
1.8622,0.2737,39.8300,101,97,68970
1.8719,0.2737,39.8600,101,97,68973
1.8964,0.2786,39.7300,101,97,68976
1.8719,0.2835,39.9300,101,97,68980
1.8964,0.2835,39.7300,101,97,68983
1.8671,0.2981,39.8600,101,97,68986
1.8866,0.2737,39.8900,101,97,68990
1.8817,0.2737,39.8000,101,97,68994
1.8768,0.2786,39.8600,101,97,68997
1.9208,0.2737,39.7300,101,97,69000
1.9110,0.2737,39.8300,101,97,69004
1.9257,0.2737,39.8600,101,97,69007
1.9501,0.2884,39.8000,101,97,69010
1.9599,0.2737,39.8600,101,97,69014
2.0088,0.2786,39.6400,101,97,69017
1.9844,0.2737,39.7700,101,97,69020
1.9892,0.2737,39.8600,101,97,69024
2.0039,0.2786,39.8300,101,97,69027
1.9941,0.2737,40.0300,101,97,69030
2.0626,0.2737,39.5700,101,97,69033
2.0381,0.2737,39.7700,101,97,69038
2.0332,0.2688,40.0300,101,97,69041
2.0283,0.2737,39.8000,101,97,69044
2.0088,0.3079,39.8600,101,97,69048
2.0479,0.2884,39.7000,101,97,69051
1.9795,0.2786,39.7700,101,97,69054
1.9550,0.2737,39.7700,101,97,69058
1.9257,0.2835,39.8600,101,97,69061
1.9013,0.2688,39.8600,101,97,69064
1.9110,0.2835,39.8000,101,97,69067
1.8573,0.2884,39.8000,101,97,69071
1.8475,0.2737,39.7300,101,97,69074
1.7986,0.2688,39.8600,101,97,69078
1.7791,0.2786,39.8600,101,97,69082
1.7889,0.2786,39.8000,101,97,69085
1.7595,0.2737,40.0000,101,97,69088
1.7791,0.2786,39.7300,101,97,69092
1.7498,0.2737,39.8600,101,97,69095
1.7546,0.2981,39.8900,101,97,69098
1.7840,0.2835,39.7300,101,97,69102
1.7644,0.2737,39.8900,101,97,69105
1.7937,0.2835,39.6700,101,97,69108
1.7742,0.2786,39.7700,101,97,69112
1.7644,0.2737,39.8300,101,97,69115
1.7791,0.2786,39.8600,101,97,69118
1.7595,0.2737,39.8300,101,97,69122
1.8426,0.2835,39.6400,101,97,69126
1.8671,0.2737,39.8300,101,97,69129
1.9941,0.2737,39.9300,101,97,69132
2.2190,0.2786,39.8600,101,97,69136
2.4585,0.2688,39.8000,101,97,69139
2.8201,0.2884,39.6400,101,97,69142
3.0352,0.2835,39.8000,101,97,69146
3.2502,0.2737,39.7700,101,97,69149
3.3578,0.2737,39.9600,101,97,69152
2.5171,0.2737,39.8600,101,97,69157
2.2825,0.2737,39.8600,101,97,69160
2.1163,0.2835,39.7700,101,97,69165
1.9159,0.2688,39.8600,101,97,69168
1.8084,0.2737,39.8600,101,97,69171
1.6862,0.2737,39.8000,101,97,69174
1.6178,0.2786,39.8900,101,97,69178
1.5836,0.2786,39.7700,101,97,69181
1.5396,0.2737,39.8900,101,97,69184
1.5689,0.2786,39.5700,101,97,69188
1.5152,0.2737,40.0600,101,97,69191
1.5103,0.2737,39.8600,101,97,69194
1.5347,0.2786,39.8300,101,97,69198
1.5152,0.2737,39.9600,101,97,69201
1.5640,0.2835,39.6000,101,97,69204
1.5445,0.2688,39.8300,101,97,69209
1.5543,0.2737,39.8600,101,97,69212
1.5738,0.2981,39.8300,101,97,69215
1.5836,0.2737,39.8300,101,97,69219
1.6471,0.2884,39.6000,101,97,69222
1.6325,0.2835,39.8600,101,97,69225
1.6422,0.2688,39.8000,101,97,69228
1.6667,0.2737,39.8600,101,97,69232
1.6813,0.2835,39.8600,101,97,69235
1.7302,0.2835,39.7000,101,97,69238
1.7253,0.2835,39.8300,101,97,69242
1.7449,0.2688,39.7700,101,97,69245
1.7449,0.2737,39.8300,101,97,69249
1.7595,0.2737,39.8600,101,97,69253
1.7840,0.2786,39.8000,101,97,69256
1.7742,0.2737,39.8900,101,97,69259
1.8182,0.2884,39.7700,101,97,69263
1.8133,0.2737,39.9600,101,97,69266
1.8377,0.2737,39.8600,101,97,69269
1.8817,0.2786,39.8000,101,97,69272
1.8768,0.2737,39.8600,101,97,69276
1.9159,0.2737,39.7300,101,97,69279
1.9062,0.2737,39.8300,101,97,69282
1.9306,0.2688,39.8600,101,97,69286
1.9501,0.2786,40.0600,101,97,69289
1.9501,0.2835,39.8600,101,97,69293
2.0088,0.2786,39.6400,101,97,69297
1.9990,0.2786,39.8000,101,97,69300
1.9990,0.2737,39.9600,101,97,69303
2.0674,0.2786,39.8000,101,97,69307
2.0381,0.2737,39.8600,101,97,69310
2.1017,0.2835,39.5700,101,97,69313
2.0674,0.2737,39.7700,101,97,69316
2.0723,0.2737,39.8600,101,97,69320
2.0919,0.2688,39.8300,101,97,69323
2.1017,0.2737,39.8600,101,97,69326
2.1799,0.2884,39.7000,101,97,69330
2.1359,0.2835,39.8300,101,97,69334
2.1457,0.2737,39.8000,101,97,69337
2.1408,0.2688,39.8300,101,97,69340
2.1359,0.2737,39.8600,101,97,69344
2.1750,0.3030,39.7300,101,97,69347
2.1408,0.2786,39.8300,101,97,69350
2.1505,0.2688,39.7300,101,97,69354
2.1114,0.2737,39.8600,101,97,69357
2.1212,0.2786,39.8600,101,97,69360
2.1212,0.2786,39.6700,101,97,69364
2.0674,0.2688,39.8300,101,97,69367
2.0674,0.2786,39.7700,101,97,69370
2.0088,0.2688,39.8300,101,97,69374
1.9746,0.2688,39.8600,101,97,69378
1.9404,0.2737,39.8000,101,97,69381
1.8915,0.2639,39.8300,101,97,69384
1.8817,0.2688,39.7300,101,97,69388
1.8182,0.2737,39.8300,101,97,69391
1.8035,0.2737,39.8600,101,97,69394
1.7742,0.2786,39.8000,101,97,69398
1.7351,0.2737,39.8000,101,97,69401
1.7498,0.2835,39.6000,101,97,69404
1.7058,0.2737,39.8300,101,97,69408
1.6960,0.2737,39.8000,101,97,69411
1.6911,0.2884,39.8300,101,97,69414
1.6667,0.2737,39.9300,101,97,69419
1.7107,0.2884,39.5400,101,97,69422
1.6764,0.2786,39.7700,101,97,69425
1.6764,0.2688,39.8600,101,97,69428
1.6862,0.2786,39.8300,101,97,69432
1.6862,0.2737,39.9300,101,97,69435
1.7351,0.2884,39.7700,101,97,69438
1.7058,0.2786,39.8000,101,97,69442
1.7107,0.2737,39.7700,101,97,69445
1.7058,0.2981,39.8900,101,97,69448
1.7204,0.2737,39.8600,101,97,69452
1.7400,0.2835,39.8900,101,97,69455
1.7253,0.2786,39.8600,101,97,69458
1.7498,0.2688,39.7000,101,97,69463
1.7400,0.2737,39.8600,101,97,69466
1.7498,0.2835,39.8600,101,97,69469
1.7791,0.2786,39.8000,101,97,69472
1.7644,0.2737,39.8600,101,97,69476
1.7986,0.2737,39.8600,101,97,69479
1.8035,0.2737,39.8300,101,97,69482
1.7937,0.2737,39.9300,101,97,69486
1.8182,0.2933,39.7300,101,97,69489
1.7937,0.2737,39.8600,101,97,69492
1.8328,0.2786,39.6400,101,97,69496
1.8475,0.2786,39.7700,101,97,69499
1.8084,0.2737,39.9300,101,97,69502
1.8622,0.2786,39.8000,101,97,69507
1.8133,0.2737,39.8900,101,97,69510
1.8719,0.2835,39.7000,101,97,69513
1.8280,0.2737,39.7700,101,97,69517
1.8280,0.2737,39.9600,101,97,69520
1.8280,0.2786,39.8900,101,97,69523
1.8231,0.2786,39.8600,101,97,69526
1.8768,0.2884,39.6400,101,97,69530
1.8377,0.2835,39.8000,101,97,69533
1.8377,0.2737,39.7700,101,97,69536
1.8328,0.2786,39.9300,101,97,69540
1.8328,0.2786,39.8600,101,97,69543
1.8671,0.2688,39.7700,101,97,69547
1.8475,0.2786,39.7300,101,97,69551
1.8524,0.2835,39.7300,101,97,69554
1.8231,0.2737,39.8600,101,97,69557
1.8231,0.2737,39.8900,101,97,69561
1.8622,0.2688,39.7300,101,97,69564
1.8280,0.2786,39.8600,101,97,69567
1.8573,0.2835,39.7700,101,97,69570
1.8231,0.2688,39.8300,101,97,69574
1.8328,0.2737,39.9300,101,97,69577
1.8426,0.2786,39.7700,101,97,69580
1.8328,0.2737,39.8300,101,97,69584
1.8671,0.2737,39.6700,101,97,69587
1.8377,0.2737,39.9300,101,97,69591
1.8377,0.2737,39.8300,101,97,69595
1.8524,0.2786,39.8300,101,97,69598
1.8573,0.2737,39.8300,101,97,69601
1.9550,0.2835,39.6000,101,97,69605
1.8915,0.2737,39.8900,101,97,69608
1.9013,0.2786,39.8600,101,97,69611
1.9257,0.2786,39.8300,101,97,69615
1.9257,0.2737,40.0600,101,97,69618
1.9990,0.3226,39.6700,101,97,69621
1.9892,0.2835,39.8000,101,97,69624
1.9795,0.2737,39.8000,101,97,69628
1.9844,0.2786,39.8900,101,97,69632
1.9990,0.2737,39.8300,101,97,69635
2.0479,0.2835,39.7000,101,97,69639
2.0186,0.2737,39.8900,101,97,69642
2.0186,0.2835,39.7700,101,97,69645
1.9795,0.2737,39.9300,101,97,69649
1.9453,0.2737,39.7700,101,97,69652
1.9404,0.2786,39.8000,101,97,69655
1.8915,0.2737,39.8900,101,97,69659
1.9013,0.2835,39.8000,101,97,69662
1.8524,0.2737,39.8600,101,97,69665
1.8426,0.2737,39.8600,101,97,69668
1.8377,0.2786,39.8300,101,97,69672
1.7986,0.2737,39.8900,101,97,69676
1.7986,0.2737,39.7300,101,97,69679
1.7595,0.2737,39.8300,101,97,69683
1.7595,0.2737,39.9600,101,97,69686
1.7693,0.2884,39.8000,101,97,69689
1.7400,0.2737,39.8600,101,97,69693
1.7742,0.2786,39.6400,101,97,69696
1.7449,0.2786,39.8300,101,97,69699
1.7253,0.2737,39.8900,101,97,69703
1.7498,0.3079,39.8000,101,97,69706
1.7449,0.2737,39.8900,101,97,69709
1.7937,0.2786,39.5700,101,97,69712
1.7498,0.2737,39.8300,101,97,69716
1.7595,0.2737,39.8300,101,97,69720
1.7840,0.2786,40.0300,101,97,69723
1.8475,0.2737,39.8900,101,97,69727
2.0235,0.2884,39.7000,101,97,69730
2.1799,0.2786,39.8300,101,97,69733
2.4487,0.2737,39.8300,101,97,69737
2.7175,0.2981,39.8900,101,97,69740
2.9912,0.2737,39.8600,101,97,69743
3.2502,0.2835,39.8000,101,97,69747
3.3089,0.2786,39.8000,101,97,69750
3.2991,0.2786,39.7300,101,97,69753
3.1232,0.2688,39.8600,101,97,69756
2.9228,0.2737,39.8900,101,97,69761
2.7468,0.2835,39.7300,101,97,69764
1.7693,0.2835,39.7700,101,97,69769
1.6569,0.2639,39.8600,101,97,69772
1.6667,0.2688,39.6400,101,97,69775
1.5494,0.2688,39.8300,101,97,69779
1.5200,0.2737,39.8600,101,97,69782
1.5054,0.2737,39.8300,101,97,69785
1.5152,0.2737,39.8600,101,97,69789
1.5445,0.2835,39.5700,101,97,69792
1.5152,0.2835,39.8300,101,97,69795
1.5249,0.2688,39.7000,101,97,69799
1.5396,0.2786,39.9600,101,97,69803
1.5445,0.2737,39.8600,101,97,69806
1.6031,0.2884,39.7000,101,97,69809
1.5787,0.2786,39.9600,101,97,69813
1.5982,0.2737,39.7300,101,97,69816
1.6031,0.2688,39.8900,101,97,69819
1.6276,0.2737,39.8600,101,97,69823
1.6716,0.2884,39.7000,101,97,69826
1.6618,0.2786,39.8600,101,97,69829
1.6960,0.2786,39.7300,101,97,69833
1.6911,0.2786,39.8600,101,97,69836
1.7058,0.2737,39.9600,101,97,69839
1.7302,0.2786,39.8300,101,97,69843
1.7400,0.2737,39.8600,101,97,69847
1.7791,0.2688,39.7700,101,97,69850
1.7644,0.2737,39.9300,101,97,69853
1.7889,0.2786,39.8600,101,97,69857
1.8182,0.2688,39.8000,101,97,69860
1.8231,0.2737,39.8600,101,97,69863
1.8671,0.2786,39.6700,101,97,69867
1.8524,0.2737,39.8300,101,97,69870
1.8719,0.2737,39.8600,101,97,69873
1.9110,0.2786,39.8300,101,97,69877
1.9062,0.2737,39.8300,101,97,69880
1.9648,0.2835,39.7000,101,97,69883
1.9550,0.2786,39.7700,101,97,69888
1.9648,0.2737,39.1200,101,97,69891
1.9844,0.2688,39.8300,101,97,69894
1.9990,0.2737,39.8600,101,97,69897
2.0772,0.2884,39.6400,101,97,69901
2.0430,0.2835,39.8000,101,97,69904
2.0577,0.2688,39.8000,101,97,69907
2.0772,0.2786,39.8600,101,97,69911
2.0870,0.2737,39.8900,101,97,69914
2.1554,0.2884,39.6700,101,97,69917
2.1457,0.2737,39.8300,101,97,69921
2.1408,0.2786,39.7700,101,97,69924
2.1310,0.2737,39.8900,101,97,69927
2.1408,0.2688,39.8900,101,97,69932
2.1750,0.2835,39.5700,101,97,69935
2.1554,0.2786,39.8900,101,97,69938
2.1799,0.2786,39.7300,101,97,69941
2.1457,0.2737,39.6000,101,97,69945
2.1457,0.2835,39.8600,101,97,69948
2.1701,0.2835,39.7700,101,97,69951
2.1310,0.2737,39.8600,101,97,69955
2.1505,0.2737,39.7000,101,97,69958
2.1114,0.2688,39.8000,101,97,69961
2.0821,0.2737,39.5100,101,97,69965
2.0870,0.2737,39.7700,101,97,69968
2.0430,0.2737,39.9300,101,97,69971
2.0479,0.2786,39.6700,101,97,69976
1.9795,0.2835,39.8900,101,97,69979
1.9355,0.2835,39.8900,101,97,69982
1.9110,0.2786,39.8600,101,97,69985
1.8573,0.2737,39.8600,101,97,69989
1.8768,0.2835,39.6000,101,97,69992
1.7986,0.2786,39.8000,101,97,69995
1.7937,0.2737,39.8600,101,97,69999
1.7449,0.2786,39.8300,101,97,70002
1.7155,0.2737,39.8600,101,97,70005
1.7546,0.2884,39.6700,101,97,70009
1.7107,0.2786,39.9600,101,97,70012
1.7009,0.2688,39.8000,101,97,70016
1.6911,0.2786,39.8600,101,97,70020
1.6764,0.2737,39.8600,101,97,70023
1.7204,0.2835,39.6700,101,97,70026
1.6862,0.2786,39.8600,101,97,70029
1.7058,0.2786,39.7300,101,97,70033
1.6960,0.2737,39.8900,101,97,70036
1.7058,0.2835,39.8600,101,97,70039
1.7302,0.2835,39.8300,101,97,70043
1.7204,0.2786,40.0000,101,97,70046
1.7498,0.2835,39.7300,101,97,70049
1.7449,0.2737,39.8600,101,97,70053
1.7400,0.2737,39.8900,101,97,70056
1.7546,0.3275,39.8000,101,97,70060
1.7693,0.2786,39.8300,101,97,70063
1.7791,0.2786,39.7000,101,97,70067
1.7546,0.2737,39.8300,101,97,70070
1.7742,0.2786,39.8600,101,97,70073
1.7986,0.2835,39.8000,101,97,70077
1.7840,0.2688,39.8600,101,97,70080
1.8231,0.2835,39.6400,101,97,70083
1.7986,0.2786,40.2000,101,97,70087
1.7889,0.2737,39.8600,101,97,70090
1.8035,0.2786,39.9600,101,97,70093
1.8035,0.2737,39.8600,101,97,70097
1.8573,0.2688,39.5700,101,97,70100
1.8182,0.2884,39.8300,101,97,70104
1.8182,0.2737,39.8000,101,97,70108
1.8182,0.2786,39.8600,101,97,70111
1.8231,0.2884,39.8900,101,97,70114
1.8768,0.2884,39.7000,101,97,70117
1.8377,0.2786,39.8300,101,97,70121
1.8524,0.2786,39.8300,101,97,70124
1.8231,0.2786,39.8600,101,97,70127
1.8280,0.2981,39.8600,101,97,70131
1.8622,0.2835,39.7700,101,97,70134
1.8426,0.2786,39.8000,101,97,70137
1.8719,0.3079,39.7700,101,97,70141
1.8328,0.2737,39.8600,101,97,70145
1.8377,0.2737,39.8600,101,97,70148
1.8573,0.2835,39.7700,101,97,70152
1.8328,0.2639,39.8600,101,97,70155
1.8719,0.2737,39.7000,101,97,70158
1.8426,0.2737,39.7700,101,97,70162
1.8328,0.2737,39.9600,101,97,70165
1.8524,0.2835,39.8000,101,97,70168
1.8377,0.2737,39.9600,101,97,70171
1.8817,0.2835,39.6400,101,97,70175
1.8475,0.2688,39.8300,101,97,70178
1.8426,0.2737,39.8900,101,97,70181
1.8475,0.2884,39.8300,101,97,70185
1.8377,0.2737,39.8600,101,97,70189
1.9013,0.2884,39.5700,101,97,70192
1.8671,0.2737,39.8600,101,97,70196
1.8671,0.2688,39.8000,101,97,70199
1.8817,0.2835,39.8300,101,97,70202
1.8866,0.2737,39.9600,101,97,70206
1.9404,0.2884,39.6700,101,97,70209
1.9159,0.2737,39.8300,101,97,70212
1.9697,0.2737,39.7700,101,97,70215
1.9404,0.2786,39.8600,101,97,70219
1.9599,0.2786,39.8600,101,97,70222
2.0039,0.2835,39.7000,101,97,70225
1.9844,0.2786,39.7700,101,97,70230
2.0235,0.2835,39.7300,101,97,70233
2.0137,0.2737,39.8900,101,97,70236
2.0186,0.2737,39.7700,101,97,70240
2.0479,0.2786,39.8000,101,97,70243
1.9892,0.2737,39.8600,101,97,70246
1.9990,0.2737,39.7300,101,97,70250
1.9404,0.2737,39.8600,101,97,70253
1.9159,0.2786,39.8600,101,97,70256
1.9062,0.2688,39.7700,101,97,70259
1.8768,0.2737,39.8600,101,97,70263
1.8866,0.2786,39.7000,101,97,70266
1.8671,0.2786,39.8600,101,97,70269
1.8133,0.2737,39.8600,101,97,70274
1.8084,0.2835,39.8300,101,97,70277
1.7693,0.2737,39.9600,101,97,70280
1.7986,0.2835,39.6000,101,97,70284
1.7546,0.2884,39.7700,101,97,70287
1.7351,0.2737,39.8900,101,97,70290
1.7400,0.3177,39.8300,101,97,70294
1.7400,0.2737,39.8600,101,97,70297
1.7986,0.2884,39.6400,101,97,70300
1.7644,0.2835,39.8300,101,97,70303
1.7742,0.2737,39.8000,101,97,70307
1.7546,0.2786,39.8600,101,97,70310
1.7449,0.2737,39.8900,101,97,70313
1.7791,0.2688,39.7300,101,97,70318
1.7546,0.2786,39.9600,101,97,70321
1.8182,0.2786,39.8300,101,97,70324
1.8866,0.2737,39.8600,101,97,70328
2.0381,0.2737,39.8300,101,97,70331
2.3021,0.2786,39.7700,101,97,70334
2.5513,0.2786,39.8600,101,97,70338
2.8690,0.2835,39.7300,101,97,70341
3.0743,0.2737,39.8600,101,97,70344
3.2356,0.2688,39.8600,101,97,70347
3.2942,0.2835,39.8000,101,97,70351
3.1574,0.2835,39.8600,101,97,70354
3.0401,0.2688,39.7000,101,97,70358
2.7957,0.2737,39.8000,101,97,70362
2.5660,0.2737,39.8600,101,97,70365
2.3656,0.2835,39.7700,101,97,70368
2.1408,0.2737,39.8600,101,97,70372
2.0039,0.2835,39.4800,101,97,70375
1.5543,0.2884,39.6700,101,97,70380
1.5005,0.2835,39.8600,101,97,70383
1.4907,0.2737,39.8300,101,97,70386
1.4858,0.2786,39.9600,101,97,70390
1.4809,0.2737,39.8600,101,97,70393
1.5054,0.2688,39.7300,101,97,70396
1.4956,0.2786,39.8600,101,97,70400
1.5152,0.2786,39.7700,101,97,70404
1.5249,0.2688,39.9300,101,97,70407
1.5396,0.2737,39.8600,101,97,70410
1.5836,0.2835,39.7300,101,97,70414
1.5787,0.2688,39.8600,101,97,70417
1.6178,0.2835,39.8900,101,97,70420
1.6129,0.2688,39.8000,101,97,70424
1.6373,0.2835,39.8900,101,97,70427
1.6618,0.2786,39.9300,101,97,70430
1.6618,0.2737,39.8600,101,97,70434
1.7009,0.2786,39.7000,101,97,70437
1.6911,0.2786,39.9300,101,97,70440
1.7107,0.2786,39.8900,101,97,70444
1.7498,0.2786,39.8300,101,97,70448
1.7351,0.2737,39.8600,101,97,70451
1.7937,0.2835,39.6400,101,97,70454
1.7693,0.2786,39.8300,101,97,70458
1.7840,0.2786,39.8900,101,97,70461
1.7986,0.2786,39.8300,101,97,70464
1.8133,0.2786,39.8600,101,97,70468
1.8768,0.2933,39.6000,101,97,70471
1.8573,0.2786,39.8000,101,97,70474
1.8524,0.2737,39.8300,101,97,70478
1.8915,0.2786,39.8300,101,97,70481
1.8964,0.2737,39.8600,101,97,70484
1.9599,0.2835,39.7000,101,97,70489
1.9355,0.2688,39.8300,101,97,70492
1.9599,0.2786,39.7700,101,97,70495
1.9599,0.2981,39.8600,101,97,70498
1.9990,0.2737,39.8600,101,97,70502
2.0283,0.2835,39.7700,101,97,70505
2.0235,0.2737,39.9300,101,97,70508
2.0577,0.2884,39.7300,101,97,70512
2.0332,0.2688,39.8600,101,97,70515
2.0577,0.2737,39.8300,101,97,70518
2.0919,0.3079,39.7700,101,97,70522
2.1017,0.2737,39.8600,101,97,70525
2.1261,0.2688,39.7300,101,97,70529
2.1017,0.2786,39.8300,101,97,70533
2.1065,0.2688,39.8600,101,97,70536
2.1261,0.2786,39.8600,101,97,70539
2.1261,0.2786,39.8600,101,97,70542
2.1554,0.2786,39.6400,101,97,70546
2.1310,0.2786,39.7700,101,97,70549
2.0968,0.2737,39.8900,101,97,70552
2.1017,0.2786,39.8000,101,97,70556
2.0626,0.2737,39.8600,101,97,70559
2.0968,0.2835,39.7000,101,97,70562
2.0381,0.2737,39.8000,101,97,70566
1.9892,0.2737,39.8600,101,97,70569
1.9599,0.2786,39.8300,101,97,70573
1.9110,0.2737,39.9300,101,97,70576
1.9306,0.2884,39.6400,101,97,70580
1.8573,0.2786,39.8300,101,97,70583
1.8231,0.2737,39.8000,101,97,70586
1.7889,0.2786,39.8600,101,97,70590
1.7546,0.2737,39.9600,101,97,70593
1.7693,0.2884,39.7700,101,97,70596
1.7351,0.2786,39.8600,101,97,70600
1.7107,0.2786,39.7700,101,97,70603
1.6667,0.2786,39.8600,101,97,70606
1.6520,0.2688,39.8900,101,97,70610
1.6667,0.2835,39.7300,101,97,70614
1.6325,0.2688,39.8600,101,97,70617
1.6422,0.2835,39.7700,101,97,70620
1.6178,0.2688,39.8300,101,97,70624
1.6569,0.2737,39.8600,101,97,70627
1.6373,0.2786,39.8000,101,97,70630
1.6325,0.2884,39.8600,101,97,70634
1.6618,0.2737,39.7000,101,97,70637
1.6422,0.2737,39.8600,101,97,70640
1.6520,0.2933,39.8900,101,97,70644
1.6667,0.2835,39.8000,101,97,70647
1.6618,0.2786,39.8600,101,97,70650
1.7009,0.2835,40.0000,101,97,70654
1.6813,0.2737,39.8300,101,97,70658
1.6862,0.2737,39.8600,101,97,70661
1.7107,0.2786,39.8000,101,97,70664
1.7107,0.2688,39.8900,101,97,70668
1.7644,0.2835,39.5700,101,97,70671
1.7449,0.2981,39.9600,101,97,70674
1.7400,0.3030,39.8900,101,97,70678
1.7595,0.2688,39.8300,101,97,70681
1.7546,0.2688,39.8600,101,97,70684
1.8231,0.2884,39.7000,101,97,70688
1.7937,0.2835,39.8300,101,97,70691
1.7840,0.2737,39.8000,101,97,70694
1.7742,0.2786,39.8600,101,97,70699
1.7840,0.2835,39.8900,101,97,70702
1.8328,0.2688,39.7700,101,97,70705
1.7986,0.2786,39.8600,101,97,70708
1.8231,0.2835,39.7300,101,97,70712
1.7986,0.2786,39.8600,101,97,70715
1.8035,0.2786,39.8600,101,97,70718
1.8280,0.2835,39.8300,101,97,70722
1.8133,0.2786,39.8600,101,97,70725
1.8328,0.2786,39.7700,101,97,70728
1.7986,0.2737,39.8900,101,97,70732
1.8035,0.2737,39.8300,101,97,70735
1.8328,0.2835,39.7300,101,97,70738
1.8133,0.2786,39.8600,101,97,70743
1.8426,0.2835,39.7300,101,97,70746
1.8280,0.2786,39.7700,101,97,70749
1.8133,0.2737,39.8600,101,97,70752
1.8328,0.2835,39.7300,101,97,70756
1.8182,0.2786,39.8600,101,97,70759
1.8622,0.2835,39.6000,101,97,70762
1.8280,0.2737,39.7700,101,97,70766
1.8182,0.2737,39.9600,101,97,70769
1.8182,0.2737,39.8300,101,97,70772
1.8182,0.2688,39.8600,101,97,70776
1.8671,0.2933,39.5700,101,97,70779
1.8328,0.2786,39.8300,101,97,70782
1.8182,0.2737,39.8000,101,97,70787
1.8133,0.2835,39.8600,101,97,70790
1.8133,0.2737,39.8900,101,97,70793
1.8573,0.2835,39.7700,101,97,70797
1.8377,0.2786,39.8300,101,97,70800
1.8524,0.2786,39.8000,101,97,70803
1.8573,0.2737,39.8600,101,97,70806
1.8671,0.2737,39.8600,101,97,70810
1.9110,0.2933,39.7000,101,97,70813
1.8964,0.2786,39.8600,101,97,70816
1.9404,0.2786,39.7700,101,97,70820
1.9257,0.2737,39.8300,101,97,70823
1.9453,0.2737,39.8600,101,97,70827
1.9746,0.3079,39.7000,101,97,70831
1.9844,0.2786,39.8600,101,97,70834
2.0235,0.2786,39.6700,101,97,70837
2.0137,0.3030,39.7700,101,97,70841
2.0381,0.2835,39.8600,101,97,70844
2.0381,0.2688,39.8300,101,97,70847
2.0137,0.2688,39.8600,101,97,70850
2.0332,0.2835,39.6400,101,97,70854
1.9550,0.2835,39.8300,101,97,70857
1.9355,0.2688,39.8600,101,97,70860
1.9159,0.2786,39.8300,101,97,70864
1.8866,0.2737,39.8900,101,97,70867
1.9257,0.2933,39.6000,101,97,70871
1.8622,0.2786,39.8000,101,97,70875
1.8231,0.2737,39.7300,101,97,70878
1.8084,0.2786,39.8600,101,97,70881
1.7840,0.2737,39.8600,101,97,70885
1.8133,0.3079,39.6700,101,97,70888
1.7693,0.2786,39.8300,101,97,70891
1.7546,0.2786,39.7300,101,97,70894
1.7351,0.2786,39.8600,101,97,70898
1.7351,0.2688,39.8600,101,97,70901
1.7693,0.2835,39.7000,101,97,70904
1.7449,0.2835,39.8600,101,97,70908
1.7693,0.2786,39.7300,101,97,70912
1.7400,0.2786,39.8000,101,97,70915
1.7546,0.2737,39.8900,101,97,70919
1.7498,0.2786,39.8000,101,97,70922
1.7449,0.2786,39.8900,101,97,70925
1.8133,0.2639,39.7300,101,97,70929
1.8671,0.2786,39.7300,101,97,70932
2.0137,0.2933,39.8600,101,97,70935
2.2581,0.2835,39.8000,101,97,70938
2.5024,0.2786,39.9300,101,97,70942
2.8348,0.2786,39.6700,101,97,70945
3.0938,0.2835,39.7700,101,97,70948
3.2258,0.2737,39.8900,101,97,70952
3.2942,0.2786,39.8300,101,97,70956
3.1818,0.2786,39.8600,101,97,70959
3.0987,0.2835,39.6000,101,97,70963
2.8250,0.2737,39.8000,101,97,70966
2.5855,0.2737,39.8600,101,97,70969
2.3754,0.2786,39.8300,101,97,70973
2.1603,0.2786,39.9300,101,97,70976
2.0332,0.3275,39.6400,101,97,70979
1.8280,0.2786,39.8300,101,97,70982
1.7009,0.2737,39.8600,101,97,70986
1.6080,0.3128,39.8900,100,97,70989
1.4565,0.2737,39.9300,100,97,70994
1.4761,0.2835,39.8600,100,97,70998
1.4907,0.2835,39.7300,100,97,71001
1.4712,0.2835,39.8300,100,97,71005
1.5054,0.2737,39.7300,100,97,71008
1.4956,0.2737,39.7700,100,97,71011
1.5103,0.2737,39.8600,100,97,71015
1.5445,0.2786,39.8300,100,97,71018
1.5445,0.2737,39.8600,100,97,71021
1.6031,0.2835,39.6700,100,97,71025
1.5885,0.2786,39.8000,100,97,71028
1.6031,0.2835,39.8900,100,97,71031
1.6373,0.2786,39.8000,100,97,71035
1.6276,0.2737,39.8600,100,97,71038
1.6862,0.2835,39.5700,100,97,71042
1.6618,0.2786,39.8000,100,97,71045
1.6813,0.2737,39.8300,100,97,71049
1.7058,0.2786,39.8900,100,97,71052
1.7204,0.2786,39.8600,100,97,71055
1.7840,0.2933,39.6700,100,97,71059
1.7546,0.2835,39.8600,100,97,71062
1.7889,0.2835,39.8300,100,97,71065
1.7791,0.2786,39.8600,100,97,71069
1.8182,0.2786,39.8600,100,97,71072
1.8475,0.2884,39.8300,100,97,71075
1.8280,0.2786,39.8600,100,97,71079
1.8671,0.2786,39.7300,100,97,71083
1.8622,0.3030,39.8300,100,97,71086
1.8768,0.2786,39.8900,100,97,71089
1.9208,0.2884,39.8000,100,97,71093
1.9110,0.2786,39.9300,100,97,71096
1.9599,0.2835,39.8600,100,97,71099
1.9404,0.2786,39.8900,100,97,71103
1.9550,0.2737,39.8600,100,97,71106
2.0039,0.2786,39.8000,100,97,71109
2.0039,0.2786,39.8600,100,97,71113
2.0479,0.2786,39.7700,100,97,71116
2.0332,0.2737,39.8300,100,97,71119
2.0479,0.2688,39.8600,100,97,71122
2.0723,0.2786,39.9600,100,97,71127
2.0772,0.2737,39.8600,100,97,71130
2.1505,0.2835,39.6700,100,97,71133
2.1017,0.2835,39.8000,100,97,71137
2.0870,0.2737,40.0000,100,97,71140
2.1065,0.2786,39.8000,100,97,71143
2.0919,0.2737,39.8600,100,97,71147
2.1505,0.2835,39.6000,100,97,71150
2.1065,0.2786,39.7700,100,97,71153
2.0919,0.2737,39.8600,100,97,71156
2.0821,0.2737,39.8300,100,97,71160
2.0821,0.2786,39.8600,100,97,71163
2.1065,0.2933,39.6700,100,97,71166
2.0381,0.2981,39.8000,100,97,71171
2.0137,0.2737,39.8300,100,97,71174
1.9795,0.2786,39.8600,100,97,71177
1.9404,0.2933,39.8900,100,97,71181
1.9746,0.2786,39.7300,100,97,71184
1.8768,0.2786,39.8300,100,97,71187
1.8475,0.2786,39.8000,100,97,71190
1.8280,0.2786,39.8600,100,97,71194
1.7644,0.2688,39.9600,100,97,71197
1.7644,0.2835,39.8600,100,97,71200
1.7107,0.2688,39.8600,100,97,71204
1.7058,0.2835,39.7700,100,97,71207
1.6667,0.2737,39.8300,100,97,71211
1.6569,0.2835,39.8600,100,97,71215
1.6667,0.2835,39.7700,100,97,71218
1.6373,0.2786,39.8600,100,97,71221
1.6618,0.2786,39.6700,100,97,71225
1.6422,0.2737,39.8000,100,97,71228
1.6373,0.2835,39.8900,100,97,71231
1.6520,0.2835,39.8300,100,97,71234
1.6422,0.2786,39.8900,100,97,71238
1.6813,0.2835,39.6000,100,97,71241
1.6569,0.2688,39.8300,100,97,71244
1.6667,0.2737,39.9600,100,97,71248
1.6862,0.2981,39.8000,100,97,71251
1.6667,0.2786,39.8600,100,97,71255
1.7155,0.2835,39.6000,100,97,71259
1.6960,0.2737,39.7700,100,97,71262
1.6862,0.2688,39.8300,100,97,71265
1.7058,0.2835,39.8300,100,97,71269
1.7058,0.2688,39.8900,100,97,71272
1.7644,0.2884,39.7300,100,97,71275
1.7253,0.2884,39.8300,100,97,71279
1.7400,0.2786,39.7300,100,97,71282
1.7302,0.2786,39.8900,100,97,71285
1.7449,0.2737,39.8600,100,97,71288
1.7791,0.2835,39.7300,100,97,71292
1.7595,0.2835,39.8600,100,97,71296
1.7889,0.2786,39.7300,100,97,71299
1.7546,0.2786,39.8600,100,97,71303
1.7644,0.2737,39.8600,100,97,71306
1.7889,0.2688,39.8000,100,97,71309
1.7791,0.2786,39.9600,100,97,71313
1.8035,0.2737,39.7300,100,97,71316
1.7889,0.2737,39.8300,100,97,71319
1.7889,0.2737,39.8000,100,97,71323
1.8133,0.2835,39.7000,100,97,71326
1.7937,0.2786,39.8600,100,97,71329
1.8328,0.2835,39.7000,100,97,71332
1.8084,0.2737,39.7700,100,97,71336
1.7937,0.2786,39.8600,100,97,71340
1.8133,0.2884,39.8000,100,97,71343
1.7937,0.2786,39.8900,100,97,71347
1.8475,0.2835,39.6000,100,97,71350
1.8084,0.2737,39.7700,100,97,71353
1.7986,0.2737,39.8600,100,97,71357
1.8035,0.2786,39.7000,100,97,71360
1.8035,0.2786,40.0600,100,97,71363
1.8671,0.2933,39.6400,100,97,71367
1.8231,0.2835,39.7300,100,97,71370
1.8231,0.2737,39.8000,100,97,71373
1.8133,0.2786,39.8300,100,97,71376
1.8035,0.2737,39.8600,100,97,71380
1.8328,0.2884,39.7700,100,97,71384
1.8084,0.2786,39.8300,100,97,71387
1.8231,0.2786,39.2500,100,97,71391
1.7986,0.2786,39.8600,100,97,71394
1.8035,0.2737,39.9600,100,97,71397
1.8328,0.2884,39.7000,100,97,71401
1.8035,0.2786,39.8600,100,97,71404
1.8426,0.2786,39.9600,100,97,71407
1.8182,0.2786,39.8300,100,97,71411
1.8377,0.2737,39.8900,100,97,71414
1.8719,0.2835,39.7300,100,97,71417
1.8768,0.2737,39.8600,100,97,71421
1.9062,0.2786,39.7000,100,97,71425
1.8915,0.2786,39.8300,100,97,71428
1.9062,0.2688,39.8900,100,97,71431
1.9404,0.2835,39.8300,100,97,71435
1.9355,0.2786,39.8900,100,97,71438
1.9990,0.2835,39.6400,100,97,71441
1.9697,0.2786,39.8300,100,97,71445
1.9941,0.2786,39.8600,100,97,71448
2.0137,0.2835,39.8300,100,97,71451
2.0039,0.2786,39.8300,100,97,71455
2.0528,0.2981,39.6400,100,97,71458
1.9844,0.2835,39.8000,100,97,71461
1.9550,0.2737,39.8300,100,97,71465
1.9306,0.2786,39.8300,100,97,71469
1.9062,0.2688,39.8600,100,97,71472
1.9306,0.2835,38.9000,100,97,71475
1.8964,0.2835,39.8300,100,97,71479
1.8671,0.2786,39.7700,100,97,71482
1.8280,0.2786,39.8600,100,97,71485
1.8084,0.2737,39.8600,100,97,71489
1.8231,0.2835,39.7300,100,97,71492
1.7791,0.2786,39.8600,100,97,71495
1.8035,0.2835,39.7700,100,97,71499
1.7546,0.2737,39.8900,100,97,71502
1.7498,0.2688,39.8900,100,97,71505
1.7693,0.2786,39.8000,100,97,71510
1.7546,0.2786,39.8000,100,97,71513
1.7791,0.3030,39.8300,100,97,71516
1.7498,0.2786,39.8600,100,97,71519
1.7498,0.2737,39.8600,100,97,71523
1.7742,0.2786,39.8000,100,97,71526
1.7449,0.2737,40.0000,100,97,71529
1.7937,0.2786,39.6400,100,97,71533
1.8133,0.2835,39.8000,100,97,71536
1.8817,0.2786,39.8900,100,97,71539
2.0479,0.2786,39.8300,100,97,71543
2.1994,0.2786,39.8600,100,97,71546
2.5318,0.2835,39.5700,100,97,71549
2.7664,0.2835,39.7300,100,97,71554
3.0156,0.2688,39.8300,100,97,71557
3.2111,0.2786,39.9600,100,97,71560
3.2845,0.2737,39.8900,100,97,71563
3.3138,0.2933,39.7000,100,97,71567
3.1085,0.2786,39.8300,100,97,71570
2.9179,0.2737,39.8000,100,97,71573
2.6833,0.2884,39.8900,100,97,71577
2.4633,0.2786,39.8600,100,97,71580
2.2874,0.2835,40.0000,100,97,71583
2.0723,0.2786,39.8900,100,97,71587
1.9208,0.2835,39.7700,100,97,71590
1.7742,0.2786,39.7700,100,97,71593
1.6764,0.2835,39.8600,100,97,71598
1.6373,0.2835,39.7300,100,97,71601
1.5298,0.2835,39.8000,100,97,71606
1.5152,0.2786,39.9300,100,97,71609
1.5543,0.3128,39.6700,100,97,71612
1.5396,0.2737,39.7700,100,97,71616
1.5494,0.2737,39.8300,100,97,71619
1.5982,0.2835,39.8300,100,97,71622
1.5787,0.2786,39.9600,100,97,71625
1.6373,0.2884,39.5400,100,97,71629
1.6227,0.2786,39.8000,100,97,71632
1.6276,0.2737,39.8600,100,97,71635
1.6520,0.2786,39.8900,100,97,71640
1.6667,0.2688,39.8600,100,97,71643
1.7253,0.2884,39.8000,100,97,71646
1.7009,0.2786,39.8300,100,97,71650
1.7253,0.2835,39.8000,100,97,71653
1.7351,0.2786,39.8600,100,97,71656
1.7498,0.2786,39.8600,100,97,71660
1.7986,0.2835,39.7000,100,97,71663
1.7840,0.2786,39.8600,100,97,71666
1.8182,0.3079,39.8300,100,97,71669
1.8182,0.2737,39.8900,100,97,71673
1.8377,0.2737,39.8600,100,97,71676
1.8768,0.2786,39.7700,100,97,71680
1.8671,0.2786,39.9600,100,97,71684
1.9062,0.2786,39.7000,100,97,71687
1.8866,0.2786,39.8300,100,97,71690
1.9062,0.2737,39.8600,100,97,71694
1.9355,0.2786,39.8000,100,97,71697
1.9355,0.2786,39.8900,100,97,71700
1.9941,0.2786,39.6700,100,97,71704
1.9746,0.2835,39.8300,100,97,71707
1.9941,0.2688,39.8600,100,97,71710
2.0235,0.2786,39.6700,100,97,71713
2.0332,0.2786,39.8600,100,97,71717
2.1065,0.2835,39.6000,100,97,71720
2.0821,0.2786,39.8000,100,97,71724
2.0821,0.2737,39.9600,100,97,71728
2.1212,0.2835,39.8600,100,97,71731
2.1114,0.2688,39.8900,100,97,71734
2.1848,0.2933,39.6700,100,97,71738
2.1505,0.2835,39.7700,100,97,71741
2.1359,0.2688,39.8300,100,97,71744
2.1359,0.2786,39.9600,100,97,71748
2.1359,0.2786,39.9300,100,97,71751
2.1799,0.2835,39.7300,100,97,71754
2.1408,0.2786,39.8600,100,97,71757
2.1457,0.2786,39.7700,100,97,71761
2.1163,0.3030,39.8600,100,97,71764
2.1065,0.2688,39.8900,100,97,71768
2.1212,0.2835,39.8000,100,97,71772
2.0821,0.2786,39.8000,100,97,71775
2.0919,0.2835,39.8300,100,97,71778
2.0528,0.2688,39.8900,100,97,71782
2.0039,0.2688,39.8900,100,97,71785
1.9990,0.2835,39.7300,100,97,71788
1.9306,0.3128,39.8300,100,97,71791
1.9257,0.2737,39.7300,100,97,71795
1.8573,0.2737,39.8000,100,97,71798
1.8182,0.2786,40.0000,100,97,71801
1.8084,0.2786,39.7000,100,97,71805
1.7595,0.2786,39.9300,100,97,71809
1.7644,0.2835,39.7700,100,97,71812
1.7204,0.2835,39.8300,100,97,71816
1.7009,0.2786,39.8600,100,97,71819
1.6960,0.2835,39.8600,100,97,71822
1.6667,0.2786,39.8600,100,97,71825
1.7009,0.2835,39.6000,100,97,71829
1.6618,0.2786,39.8300,100,97,71832
1.6618,0.3177,39.8900,100,97,71835
1.6667,0.2835,39.8600,100,97,71839
1.6618,0.2786,39.8600,100,97,71842
1.7155,0.2933,39.6400,100,97,71845
1.6862,0.2835,39.8000,100,97,71849
1.6862,0.2737,39.8300,100,97,71853
1.6911,0.2688,39.8600,100,97,71856
1.7009,0.2786,39.8600,100,97,71860
1.7351,0.2835,39.7000,100,97,71863
1.7155,0.2786,39.8600,100,97,71866
1.7253,0.2688,39.7300,100,97,71869
1.7107,0.2786,39.7700,100,97,71873
1.7155,0.2786,39.7700,100,97,71876
1.7498,0.2835,39.8300,100,97,71879
1.7302,0.2737,39.8600,100,97,71883
1.7595,0.2688,39.7700,100,97,71886
1.7400,0.2786,40.2000,100,97,71889
1.7498,0.2933,39.8600,100,97,71894
1.7644,0.2786,39.8000,100,97,71897
1.7546,0.2786,39.8600,100,97,71900
1.7889,0.2786,40.0000,100,97,71904
1.7595,0.2688,39.8600,100,97,71907
1.7693,0.2786,39.8600,100,97,71910
1.7937,0.2835,39.8000,100,97,71913
1.7889,0.2786,39.8600,100,97,71917
1.8328,0.2835,39.6400,100,97,71920
1.8035,0.2786,39.7700,100,97,71923
1.7840,0.2737,39.8900,100,97,71927
1.7986,0.2835,39.8300,100,97,71930
1.7840,0.2786,39.8600,100,97,71933
1.8377,0.2884,39.5700,100,97,71938
1.8035,0.2786,39.9300,100,97,71941
1.7937,0.2737,39.8300,100,97,71944
1.7986,0.2786,39.9600,100,97,71948
1.7986,0.2786,39.8000,100,97,71951
1.8524,0.2933,39.7000,100,97,71954
1.8133,0.2786,39.8300,100,97,71957
1.8182,0.2786,39.8000,100,97,71961
1.8035,0.2786,39.8300,100,97,71964
1.7986,0.2786,39.8900,100,97,71967
1.8231,0.2835,39.8000,100,97,71971
1.8084,0.2835,39.8300,100,97,71974
1.8622,0.2835,39.7300,100,97,71977
1.8035,0.2933,39.8900,100,97,71982
1.8377,0.2786,39.8600,100,97,71985
1.8328,0.2835,39.7700,100,97,71988
1.8182,0.2835,39.8600,100,97,71992
1.8231,0.2786,39.7300,100,97,71995
1.8035,0.2737,39.8000,100,97,71998
1.8084,0.2737,39.8600,100,97,72002
1.8280,0.2786,39.7000,100,97,72005
1.8035,0.2786,39.8900,100,97,72008
1.8426,0.2786,39.6400,100,97,72011
1.8133,0.2786,39.8300,100,97,72015
1.8133,0.2786,40.0300,100,97,72018
1.8328,0.2786,39.8600,100,97,72022
1.8280,0.2786,39.8600,100,97,72026
1.8866,0.2835,39.6400,100,97,72029
1.8524,0.2835,39.8600,100,97,72032
1.8671,0.2688,39.8600,100,97,72036
1.8866,0.2786,39.7300,100,97,72039
1.9062,0.2688,39.8600,100,97,72042
1.9795,0.2933,39.7300,100,97,72046
1.9453,0.3177,39.8300,100,97,72049
1.9648,0.2737,39.7700,100,97,72052
1.9648,0.3030,39.8900,100,97,72055
1.9795,0.2835,39.8600,100,97,72059
2.0332,0.2688,39.7000,100,97,72062
2.0088,0.2786,39.6700,100,97,72066
2.0186,0.2737,39.7300,100,97,72070
1.9844,0.2786,39.8600,100,97,72073
1.9697,0.2786,39.8600,100,97,72076
1.9697,0.2884,39.7300,100,97,72080
1.9110,0.2786,39.8600,100,97,72083
1.9208,0.2835,39.8000,100,97,72086
1.8719,0.2786,39.9600,100,97,72089
1.8524,0.3030,39.8900,100,97,72093
1.8426,0.2835,39.8300,100,97,72096
1.8182,0.2786,39.8900,100,97,72099
1.8133,0.2786,39.7300,100,97,72103
1.7693,0.2786,39.8900,100,97,72107
1.7546,0.2786,39.8600,100,97,72110
1.7644,0.2835,39.8000,100,97,72114
1.7351,0.2786,39.8600,100,97,72117
1.7840,0.2835,39.6700,100,97,72120
1.7595,0.2884,39.8300,100,97,72124
1.7498,0.2688,39.8900,100,97,72127
1.7546,0.2835,39.8300,100,97,72130
1.7498,0.2786,39.8900,100,97,72134
1.7986,0.2884,39.5700,100,97,72137
1.7595,0.2688,39.7300,100,97,72140
1.7400,0.2737,39.8600,100,97,72143
1.7546,0.2786,39.8600,100,97,72147
1.8182,0.2786,39.8900,100,97,72151
1.9697,0.2884,39.7700,100,97,72154
2.0821,0.2786,39.9600,100,97,72158
2.3118,0.2786,39.8000,100,97,72161
2.5660,0.2786,39.8600,100,97,72164
2.8446,0.2786,39.8600,100,97,72168
3.1329,0.2835,39.8000,100,97,72171
3.2600,0.2835,39.8300,100,97,72174
3.3236,0.3079,39.7700,100,97,72177
3.1867,0.2786,39.9600,100,97,72181
3.0156,0.2786,40.0300,100,97,72184
2.8495,0.2933,39.7700,100,97,72187
2.5855,0.2786,39.8600,100,97,72192
2.4047,0.2786,39.7300,100,97,72195
2.1603,0.2835,39.8300,100,97,72198
1.9746,0.2688,39.8600,100,97,72202
1.8475,0.2835,39.8000,100,97,72205
1.7058,0.2786,39.8900,100,97,72208
1.6813,0.2786,39.7000,100,97,72212
1.5347,0.2835,39.5700,99,97,72216
1.5054,0.2737,39.7000,99,97,72220
1.5200,0.2737,39.8900,99,97,72223
1.5347,0.2786,39.8300,99,97,72226
1.5347,0.2786,39.2800,99,97,72229
1.5885,0.2688,39.6000,99,97,72232
1.5689,0.2786,39.8000,99,97,72237
1.5738,0.2688,39.8900,99,97,72240
1.5982,0.2786,39.8000,99,97,72243
1.5982,0.2884,39.8000,99,97,72246
1.6569,0.2835,39.6400,99,97,72250
1.6422,0.2737,39.7700,99,97,72253
1.6716,0.2786,39.9300,99,97,72256
1.6667,0.2786,39.8300,99,97,72259
1.6764,0.2786,39.8600,99,97,72263
1.7351,0.2835,39.6000,99,97,72266
1.7107,0.3030,39.8300,99,97,72269
1.7253,0.2688,39.8600,99,97,72272
1.7449,0.2884,39.8300,99,97,72276
1.7498,0.2639,39.9300,99,97,72280
1.8133,0.2884,38.8100,99,97,72283
1.8035,0.2835,39.7700,99,97,72286
1.7986,0.2786,39.8600,99,97,72290
1.8377,0.2835,39.7000,99,97,72293
1.8328,0.2688,39.8600,99,97,72296
1.8915,0.2835,39.6000,99,97,72299
1.8671,0.2786,39.8300,99,97,72303
1.8768,0.2786,39.8900,99,97,72306
1.8964,0.2786,39.8300,99,97,72309
1.9013,0.2786,39.8900,99,97,72312
1.9648,0.2933,39.6000,99,97,72316
1.9208,0.2737,39.8300,99,97,72320
1.9453,0.2786,39.8600,99,97,72323
1.9795,0.2835,39.8300,99,97,72326
1.9844,0.2688,39.9300,99,97,72330
2.0528,0.2835,39.6000,99,97,72333
2.0381,0.2835,39.8000,99,97,72336
2.0332,0.2786,39.9300,99,97,72339
2.0723,0.2835,39.6000,99,97,72343
2.0626,0.2737,39.8600,99,97,72346
2.1212,0.2835,39.7300,99,97,72349
2.0968,0.2786,39.8000,99,97,72352
2.0821,0.2786,39.8900,99,97,72356
2.1017,0.2835,39.8600,99,97,72359
2.0919,0.2786,39.8600,99,97,72363
2.1408,0.2835,39.6000,99,97,72366
2.0968,0.2688,39.8300,99,97,72370
2.0968,0.2688,39.8900,99,97,72373
2.1017,0.2835,39.8300,99,97,72376
2.0821,0.2688,39.8600,99,97,72379
2.1163,0.2835,39.6700,99,97,72383
2.0772,0.2835,39.8000,99,97,72386
2.0479,0.2737,39.8900,99,97,72389
2.0479,0.2884,39.8000,99,97,72392
1.9844,0.2786,39.8900,99,97,72396
2.0039,0.3128,39.6000,99,97,72399
1.9355,0.2786,39.8300,99,97,72402
1.9257,0.2737,39.8600,99,97,72406
1.8622,0.2786,39.8000,99,97,72410
1.8133,0.2786,39.8600,99,97,72413
1.8133,0.2786,39.6700,99,97,72416
1.7546,0.2737,39.8600,99,97,72419
1.7253,0.2786,39.8600,99,97,72423
1.7204,0.2884,39.8000,99,97,72426
1.6960,0.2835,39.8600,99,97,72429
1.6862,0.2835,39.7000,99,97,72432
1.6422,0.2688,39.7700,99,97,72436
1.6178,0.2786,39.8600,99,97,72439
1.6325,0.2981,39.7700,99,97,72442
1.6080,0.2786,40.0000,99,97,72445
1.6325,0.2786,39.6400,99,97,72450
1.6129,0.2737,39.8000,99,97,72453
1.6031,0.2786,39.7300,99,97,72456
1.6178,0.2786,39.8300,99,97,72459
1.6178,0.2835,39.8600,99,97,72463
1.6520,0.2835,39.6000,99,97,72466
1.6276,0.2786,39.9600,99,97,72469
1.6667,0.2835,39.8600,99,97,72472
1.6667,0.2835,39.8000,99,97,72476
1.6520,0.2786,39.8900,99,97,72479
1.6911,0.2835,39.6700,99,97,72482
1.6911,0.2737,39.7000,99,97,72485
1.6911,0.2786,39.7700,99,97,72489
1.7204,0.2884,39.8300,99,97,72493
1.7107,0.2688,39.8600,99,97,72496
1.7449,0.2835,39.6700,99,97,72499
1.7253,0.2786,39.7000,99,97,72503
1.7302,0.2786,39.8600,99,97,72506
1.7400,0.2884,39.8300,99,97,72509
1.7351,0.2786,39.8600,99,97,72512
1.7742,0.2786,39.6700,99,97,72516
1.7644,0.2737,39.8900,99,97,72519
1.7449,0.2786,39.8300,99,97,72522
1.7742,0.2835,39.7300,99,97,72525
1.7546,0.2786,39.8900,99,97,72529
1.7889,0.2884,39.6400,99,97,72532
1.7693,0.2786,39.7700,99,97,72536
1.7742,0.2786,39.8900,99,97,72539
1.7986,0.2884,39.7300,99,97,72543
1.7791,0.2786,39.8900,99,97,72546
1.8133,0.2835,39.6400,99,97,72549
1.7937,0.2786,39.7700,99,97,72552
1.7840,0.2737,39.8300,99,97,72556
1.7986,0.2786,39.8600,99,97,72559
1.7986,0.2786,39.8600,99,97,72562
1.8328,0.2933,39.7000,99,97,72565
1.7986,0.3079,39.8900,99,97,72569
1.7986,0.2786,39.8900,99,97,72572
1.8280,0.2835,39.7300,99,97,72576
1.7889,0.2737,39.8600,99,97,72579
1.8182,0.2835,39.6700,99,97,72583
1.8035,0.2786,39.7700,99,97,72586
1.7937,0.2786,39.8300,99,97,72589
1.8133,0.2835,39.8900,99,97,72592
1.7937,0.2786,39.8600,99,97,72596
1.8231,0.2835,39.6700,99,97,72599
1.7986,0.2884,39.7700,99,97,72602
1.7937,0.2786,39.8600,99,97,72605
1.8035,0.2786,39.8000,99,97,72609
1.7937,0.2786,39.9600,99,97,72612
1.8280,0.2786,39.6700,99,97,72615
1.8182,0.2786,39.8600,99,97,72619
1.8133,0.2786,40.0300,99,97,72623
1.8377,0.2835,39.7700,99,97,72626
1.8182,0.2688,39.8600,99,97,72629
1.8524,0.2981,39.6400,99,97,72632
1.8328,0.2786,39.8300,99,97,72636
1.8426,0.2688,39.8600,99,97,72639
1.8671,0.2835,39.7700,99,97,72642
1.8524,0.2786,39.7300,99,97,72645
1.8915,0.2786,39.6700,99,97,72649
1.8817,0.2786,39.7700,99,97,72652
1.8915,0.2688,39.8900,99,97,72655
1.9110,0.2786,39.8300,99,97,72658
1.9355,0.2737,39.8600,99,97,72663
1.9550,0.2786,39.6700,99,97,72666
1.9355,0.2786,39.9600,99,97,72669
1.9550,0.2786,39.8600,99,97,72672
1.9844,0.2786,39.7300,99,97,72676
1.9648,0.3030,39.8600,99,97,72679
1.9844,0.2786,39.7000,99,97,72682
1.9453,0.2981,39.8000,99,97,72685
1.9208,0.2786,39.9600,99,97,72689
1.9159,0.2835,39.7300,99,97,72692
1.8671,0.3030,39.8900,99,97,72695
1.8817,0.2786,39.7000,99,97,72698
1.8377,0.2737,39.8600,99,97,72702
1.8133,0.2835,39.8900,99,97,72706
1.7986,0.2786,39.7300,99,97,72709
1.7595,0.2786,39.8900,99,97,72712
1.7644,0.2786,39.6700,99,97,72716
1.7204,0.2786,39.8300,99,97,72719
1.7204,0.2786,39.8900,99,97,72722
1.7351,0.2786,39.7300,99,97,72725
1.7107,0.2884,39.8600,99,97,72729
1.7302,0.2786,39.7000,99,97,72732
1.7107,0.2786,39.8000,99,97,72735
1.7058,0.2786,39.9300,99,97,72738
1.7302,0.2835,39.7300,99,97,72742
1.7155,0.2835,39.8600,99,97,72745
1.7351,0.2786,39.6700,99,97,72749
1.7009,0.2688,39.8300,99,97,72752
1.6960,0.2786,39.8600,99,97,72756
1.7400,0.2737,39.6700,99,97,72759
1.8035,0.2786,39.8600,99,97,72762
1.9550,0.3030,39.7700,99,97,72765
2.1114,0.2786,40.1300,99,97,72769
2.3558,0.2786,39.8900,99,97,72772
2.6588,0.2884,39.8300,99,97,72775
2.8935,0.2786,39.8300,99,97,72778
3.1525,0.2786,39.7300,99,97,72782
3.2649,0.2737,39.8300,99,97,72785
3.2111,0.2786,39.8900,99,97,72788
3.1134,0.2835,39.7300,99,97,72792
2.9032,0.2786,39.8600,99,97,72796
2.7224,0.2737,39.7700,99,97,72799
2.4731,0.2737,39.9300,99,97,72802
2.2630,0.2786,39.8900,99,97,72805
2.0723,0.2835,39.8300,99,97,72809
1.8866,0.2786,39.9300,99,97,72812
1.7693,0.2786,39.7300,99,97,72815
1.6471,0.2786,39.8600,99,97,72818
1.5640,0.2786,39.8900,99,97,72822
1.5298,0.2835,39.0300,99,97,72825
1.4614,0.3177,39.7700,99,97,72830
1.4516,0.2786,39.8900,99,97,72834
1.4956,0.2688,39.6000,99,97,72837
1.4809,0.2786,39.8000,99,97,72840
1.4663,0.2737,39.9300,99,97,72844
1.4956,0.2786,39.8000,99,97,72847
1.4956,0.2835,39.8900,99,97,72850
1.5494,0.2835,39.6400,99,97,72853
1.5200,0.2737,39.8600,99,97,72857
1.5494,0.2786,39.8900,99,97,72860
1.5738,0.2835,39.7300,99,97,72863
1.5787,0.2786,39.8900,99,97,72866
1.6422,0.2786,39.6400,99,97,72870
1.6276,0.2835,39.8000,99,97,72873
1.6373,0.2786,39.8900,99,97,72877
1.6716,0.2884,39.8000,99,97,72880
1.6911,0.2786,39.8600,99,97,72884
1.7155,0.2835,39.6400,99,97,72887
1.6960,0.2786,39.7300,99,97,72890
1.7058,0.2786,39.8600,99,97,72893
1.7302,0.2835,39.8900,99,97,72897
1.7253,0.2786,39.8600,99,97,72900
1.8133,0.2786,39.6400,99,97,72903
1.7693,0.2737,39.8600,99,97,72906
1.7937,0.2786,39.8600,99,97,72910
1.8280,0.2688,39.8300,99,97,72913
1.8622,0.2835,39.8600,99,97,72916
1.8866,0.2835,39.6000,99,97,72920
1.8768,0.2835,39.8000,99,97,72924
1.8719,0.3030,39.8600,99,97,72927
1.9208,0.3079,39.8000,99,97,72930
1.9159,0.2786,39.9300,99,97,72933
1.9746,0.2835,39.7000,99,97,72937
1.9550,0.2835,39.8000,99,97,72940
1.9599,0.2786,39.8600,99,97,72943
1.9795,0.2981,39.8900,99,97,72946
1.9844,0.2786,39.8600,99,97,72950
2.0430,0.2835,39.6400,99,97,72953
2.0137,0.2835,39.8300,99,97,72956
2.0332,0.2786,39.8900,99,97,72960
2.0626,0.2786,39.8000,99,97,72964
2.0430,0.2835,39.8600,99,97,72967
2.0968,0.2835,39.6400,99,97,72970
2.0870,0.2786,39.7700,99,97,72973
2.0674,0.2786,39.8900,99,97,72977
2.0870,0.2884,39.7700,99,97,72980
2.0626,0.2737,39.8900,99,97,72983
2.0968,0.2835,39.6700,99,97,72986
2.0919,0.2786,39.8000,99,97,72990
2.0430,0.2786,39.9300,99,97,72993
2.0430,0.2786,39.8000,99,97,72996
2.0186,0.2786,39.8600,99,97,72999
2.0528,0.2786,39.7000,99,97,73003
1.9648,0.2981,39.8000,99,97,73007
1.9404,0.2786,39.8600,99,97,73010
1.9208,0.2835,39.7700,99,97,73013
1.8573,0.2835,39.8600,99,97,73016
1.8426,0.2786,39.7000,99,97,73020
1.7791,0.2737,39.8000,99,97,73023
1.7400,0.2786,39.8600,99,97,73026
1.7253,0.2835,39.7300,99,97,73029
1.7107,0.2786,39.8600,99,97,73033
1.6813,0.2786,38.9300,99,97,73036
1.6373,0.2786,39.8000,99,97,73039
1.6178,0.2786,39.8900,99,97,73042
1.6178,0.2884,39.8000,99,97,73047
1.6080,0.2786,39.8900,99,97,73050
1.6227,0.2981,39.7000,99,97,73053
1.5934,0.2786,39.8600,99,97,73056
1.5885,0.2688,39.8600,99,97,73060
1.6031,0.2786,39.7700,99,97,73063
1.5787,0.2786,39.8600,99,97,73066
1.5982,0.2786,39.7300,99,97,73069
1.6080,0.2737,39.8000,99,97,73073
1.6080,0.2786,39.8600,99,97,73076
1.6276,0.2835,39.8000,99,97,73079
1.6227,0.2737,39.8600,99,97,73082
1.6471,0.2786,39.7300,99,97,73086
1.6325,0.2737,39.8600,99,97,73090
1.6471,0.2786,39.8900,99,97,73093
1.6569,0.2884,39.8000,99,97,73096
1.6569,0.2786,39.8900,99,97,73100
1.7204,0.2835,39.7300,99,97,73103
1.6618,0.3079,39.8600,99,97,73106
1.6716,0.2786,39.8600,99,97,73109
1.7009,0.2835,39.7300,99,97,73113
1.6862,0.2835,39.8600,99,97,73116
1.7155,0.2786,39.7700,99,97,73119
1.6911,0.2688,39.8300,99,97,73122
1.7058,0.2786,39.8900,99,97,73126
1.7351,0.2884,39.8600,99,97,73129
1.7253,0.2786,39.8600,99,97,73133
1.7546,0.2835,39.7300,99,97,73136
1.7155,0.2737,39.8600,99,97,73140
1.7253,0.2786,39.8900,99,97,73143
1.7400,0.2786,39.8300,99,97,73146
1.7351,0.2786,39.8900,99,97,73149
1.7693,0.2786,39.3500,99,97,73153
1.7449,0.2786,39.8600,99,97,73156
1.7498,0.2786,39.8600,99,97,73159
1.7742,0.2933,39.7700,99,97,73162
1.7449,0.2786,39.8600,99,97,73166
1.7742,0.2786,39.3500,99,97,73169
1.7449,0.2737,39.8300,99,97,73172
1.7546,0.2835,39.8600,99,97,73177
1.7693,0.2884,39.8000,99,97,73180
1.7449,0.2786,39.8600,99,97,73183
1.7693,0.2786,39.7300,99,97,73186
1.7351,0.2835,39.8600,99,97,73190
1.7400,0.2786,39.8300,99,97,73193
1.7595,0.2786,39.8000,99,97,73196
1.7400,0.2786,39.8600,99,97,73199
1.7693,0.2786,39.7700,99,97,73202
1.7400,0.2786,39.8900,99,97,73206
1.7449,0.2786,39.8300,99,97,73209
1.7791,0.2835,39.7300,99,97,73212
1.7498,0.2786,39.8900,99,97,73217
1.7986,0.2786,39.7300,99,97,73220
1.7449,0.2737,39.8300,99,97,73223
1.7498,0.2786,39.8900,99,97,73226
1.7693,0.2835,39.7300,99,97,73230
1.7498,0.2737,39.8600,99,97,73233
1.7791,0.2786,39.7300,99,97,73236
1.7546,0.2737,39.8900,99,97,73239
1.7546,0.2786,39.8900,99,97,73243
1.8035,0.2835,39.8300,99,97,73246
1.7889,0.2786,39.8900,99,97,73249
1.8328,0.2786,39.7300,99,97,73252
1.8133,0.2786,39.8900,99,97,73256
1.8280,0.2737,39.9300,99,97,73260
1.8573,0.2835,39.7700,99,97,73263
1.8426,0.2786,39.8900,99,97,73266
1.8719,0.2786,39.7300,99,97,73270
1.8768,0.2786,39.8300,99,97,73273
1.8719,0.2786,39.9300,99,97,73276
1.9013,0.2835,39.7300,99,97,73279
1.8866,0.2786,39.9300,99,97,73283
1.9208,0.2737,39.7300,99,97,73286
1.8866,0.2737,39.8300,99,97,73289
1.8671,0.2786,39.8600,99,97,73292
1.8768,0.2786,39.8000,99,97,73296
1.8231,0.2786,39.8300,99,97,73299
1.8280,0.2786,39.7300,99,97,73303
1.7840,0.2786,39.8900,99,97,73306
1.7742,0.2786,39.8900,99,97,73310
1.7791,0.2884,39.7700,99,97,73313
1.7302,0.2786,39.8300,99,97,73316
1.7253,0.2786,39.7300,99,97,73319
1.6862,0.2688,39.8300,99,97,73323
1.6667,0.2786,39.9600,99,97,73326
1.6716,0.2835,39.7700,99,97,73329
1.6471,0.2786,39.8600,99,97,73332
1.6569,0.3226,39.7000,99,97,73336
1.6276,0.2688,39.8600,99,97,73339
1.6325,0.2786,39.8600,99,97,73342
1.6422,0.2786,39.8300,99,97,73346
1.6422,0.2786,39.8000,99,97,73350
1.6764,0.2786,39.7300,99,97,73353
1.6373,0.2786,39.8600,99,97,73356
1.6325,0.2786,39.7700,99,97,73359
1.6569,0.2835,39.7700,99,97,73363
1.6716,0.2786,39.8900,99,97,73366
1.7889,0.2786,39.7000,99,97,73369
1.8768,0.2786,39.8000,99,97,73372
2.0723,0.2786,39.8600,99,97,73376
2.3607,0.2786,39.8000,99,97,73379
2.5904,0.2786,39.9600,99,97,73382
2.8983,0.2786,39.7700,99,97,73385
3.0645,0.2737,39.8000,99,97,73390
3.1720,0.2786,39.8600,99,97,73393
3.1867,0.2835,39.8300,99,97,73396
3.0156,0.2786,39.8900,99,97,73399
2.8788,0.2688,39.7300,99,97,73403
2.6246,0.2688,39.8600,99,97,73406
2.4096,0.2737,39.8900,99,97,73409
2.2434,0.2835,39.7300,99,97,73412
2.0088,0.2786,39.9600,99,97,73416
1.8573,0.2884,39.7700,99,97,73419
1.6862,0.2737,39.8900,99,97,73422
1.5836,0.2786,39.8600,99,97,73425
1.5396,0.2786,39.7700,99,97,73430
1.4516,0.2786,39.9300,99,97,73433
1.4418,0.2786,39.8000,99,97,73436
1.3978,0.2688,39.6400,98,97,73439
1.4027,0.2786,39.8900,98,97,73444
1.4174,0.2786,39.8600,98,97,73447
1.4467,0.2835,39.8000,98,97,73451
1.4321,0.2737,39.8300,98,97,73454
1.4761,0.2835,39.6700,98,97,73457
1.4761,0.2688,39.7700,98,97,73460
1.4809,0.2737,39.8900,98,97,73464
1.5152,0.2835,39.8300,98,97,73467
1.5103,0.2786,39.8600,98,97,73470
1.5836,0.2835,39.6400,98,97,73474
1.5640,0.2835,39.8000,98,97,73478
1.5689,0.2786,39.3800,98,97,73481
1.5934,0.2835,39.8600,98,97,73484
1.6031,0.2786,39.8900,98,97,73487
1.6569,0.2835,39.6400,98,97,73491
1.6373,0.2786,39.8600,98,97,73494
1.6667,0.2786,39.8600,98,97,73497
1.6862,0.2884,39.8000,98,97,73500
1.6862,0.2786,39.8300,98,97,73504
1.7351,0.2835,39.6700,98,97,73507
1.7204,0.2786,39.7700,98,97,73510
1.7302,0.2786,40.0600,98,97,73513
1.7693,0.2884,39.7700,98,97,73518
1.7986,0.2786,39.8600,98,97,73521
1.8280,0.2835,39.6700,98,97,73524
1.8133,0.2835,39.7700,98,97,73527
1.8280,0.2786,39.8900,98,97,73531
1.8426,0.2835,39.7700,98,97,73534
1.8524,0.2786,39.9600,98,97,73537
1.9062,0.2786,39.6700,98,97,73540
1.8866,0.2786,39.8600,98,97,73544
1.9110,0.2835,39.8300,98,97,73547
1.9453,0.2835,39.9600,98,97,73550
1.9501,0.2786,39.9300,98,97,73553
2.0088,0.2884,39.6700,98,97,73558
1.9990,0.2786,39.7700,98,97,73561
2.0039,0.2835,39.8300,98,97,73564
2.0381,0.2933,39.7300,98,97,73567
2.0235,0.2786,39.8600,98,97,73571
2.0723,0.2835,39.7000,98,97,73574
2.0479,0.2786,39.8000,98,97,73577
2.0577,0.2688,39.8900,98,97,73580
2.0674,0.2835,39.8000,98,97,73584
2.0577,0.2786,39.8900,98,97,73587
2.0919,0.2835,39.6700,98,97,73590
2.0528,0.2786,39.8600,98,97,73593
2.0479,0.2786,39.8300,98,97,73597
2.0577,0.2786,39.8000,98,97,73601
2.0186,0.2786,39.9300,98,97,73604
2.0332,0.2688,39.7000,98,97,73607
1.9795,0.2786,39.8300,98,97,73611
1.9453,0.2786,39.8600,98,97,73614
1.9404,0.2835,39.7300,98,97,73617
1.8768,0.2786,39.9300,98,97,73620
1.8671,0.2786,39.7300,98,97,73624
1.8035,0.2786,39.8000,98,97,73627
1.7595,0.2786,39.8600,98,97,73630
1.7351,0.2786,39.8300,98,97,73633
1.6960,0.2786,39.9600,98,97,73637
1.7009,0.2835,39.6700,98,97,73640
1.6422,0.2835,39.8900,98,97,73644
1.6276,0.2786,39.8600,98,97,73647
1.6325,0.2688,39.7700,98,97,73651
1.6031,0.2786,39.8900,98,97,73654
1.6080,0.2786,39.6000,98,97,73657
1.5836,0.2688,39.7700,98,97,73660
1.5738,0.2835,39.8900,98,97,73664
1.5934,0.3079,39.7700,98,97,73667
1.5689,0.2786,39.8600,98,97,73670
1.5934,0.2737,39.7000,98,97,73673
1.5738,0.2835,39.8000,98,97,73677
1.5836,0.2786,39.9300,98,97,73680
1.5982,0.2786,39.8300,98,97,73683
1.5982,0.2737,39.8900,98,97,73687
1.6276,0.2786,39.7000,98,97,73691
1.5982,0.2835,39.8600,98,97,73694
1.6276,0.2737,39.8600,98,97,73697
1.6520,0.2835,39.7000,98,97,73700
1.6325,0.2786,39.8600,98,97,73704
1.6667,0.2835,39.7000,98,97,73707
1.6471,0.3030,39.7700,98,97,73710
1.6569,0.2786,39.8600,98,97,73713
1.6813,0.2835,39.7700,98,97,73717
1.6716,0.2737,39.8600,98,97,73720
1.7009,0.2786,39.7000,98,97,73723
1.6813,0.2835,39.8000,98,97,73726
1.6862,0.2688,39.8600,98,97,73731
1.7009,0.2786,39.8300,98,97,73734
1.7107,0.2737,39.8600,98,97,73737
1.7155,0.2786,39.8000,98,97,73740
1.7009,0.2786,39.9300,98,97,73744
1.7107,0.2737,39.8900,98,97,73747
1.7449,0.2933,39.7700,98,97,73750
1.7302,0.2884,39.9300,98,97,73753
1.7644,0.2786,39.7300,98,97,73757
1.7840,0.2786,39.8000,98,97,73760
1.7546,0.2786,39.9300,98,97,73763
1.7693,0.2835,39.7700,98,97,73766
1.7302,0.2786,39.9300,98,97,73771
1.7644,0.2786,39.6700,98,97,73774
1.7351,0.2737,39.8300,98,97,73777
1.7498,0.2786,39.8600,98,97,73780
1.7595,0.2835,39.8300,98,97,73784
1.7546,0.2786,40.0000,98,97,73787
1.7742,0.2688,39.7300,98,97,73790
1.7498,0.2786,39.8600,98,97,73793
1.7546,0.2981,39.8600,98,97,73797
1.7889,0.2835,39.7300,98,97,73800
1.7644,0.2786,39.9300,98,97,73803
1.7840,0.2737,39.7300,98,97,73806
1.7595,0.2786,40.2000,98,97,73810
1.7595,0.2688,39.8900,98,97,73814
1.7791,0.2688,39.7300,98,97,73817
1.7644,0.2835,39.8900,98,97,73820
1.7889,0.2786,39.8600,98,97,73824
1.7644,0.2737,39.8300,98,97,73827
1.7595,0.2737,39.8900,98,97,73830
1.7742,0.2835,39.7700,98,97,73833
1.7742,0.2786,39.9600,98,97,73837
1.8280,0.2737,39.7300,98,97,73840
1.7840,0.2786,39.8900,98,97,73843
1.7937,0.2786,39.9300,98,97,73846
1.8231,0.2835,39.7700,98,97,73850
1.8084,0.2786,39.8600,98,97,73853
1.8377,0.2835,39.7300,98,97,73857
1.8280,0.2786,39.8300,98,97,73860
1.8377,0.2786,39.8600,98,97,73864
1.8768,0.2786,39.8000,98,97,73867
1.8622,0.2688,39.8900,98,97,73870
1.9013,0.2786,39.7000,98,97,73873
1.8866,0.2737,39.8300,98,97,73877
1.9062,0.2786,39.8600,98,97,73880
1.9355,0.2786,39.8300,98,97,73883
1.9355,0.2688,39.8600,98,97,73886
1.9697,0.2786,39.7300,98,97,73890
1.9453,0.2786,39.8900,98,97,73893
1.9404,0.2786,39.8600,98,97,73896
1.9501,0.2786,39.7700,98,97,73900
1.9013,0.2933,39.8300,98,97,73904
1.9013,0.2786,39.7300,98,97,73907
1.8866,0.2688,39.8000,98,97,73910
1.8280,0.2786,39.8000,98,97,73913
1.8231,0.2835,39.8300,98,97,73917
1.7791,0.2786,39.8600,98,97,73920
1.8035,0.2884,39.7300,98,97,73923
1.7302,0.2737,39.8300,98,97,73926
1.7058,0.2688,39.8600,98,97,73930
1.7009,0.2835,39.8300,98,97,73933
1.6764,0.2786,39.8600,98,97,73936
1.7253,0.2835,39.7300,98,97,73939
1.6764,0.2737,39.8600,98,97,73944
1.6764,0.2786,39.8900,98,97,73947
1.6960,0.2835,39.7700,98,97,73950
1.6764,0.2786,39.8600,98,97,73953
1.7107,0.2786,39.7700,98,97,73957
1.6813,0.2688,39.8300,98,97,73960
1.6813,0.2786,39.8600,98,97,73963
1.6911,0.2737,39.7300,98,97,73966
1.6716,0.2786,39.8000,98,97,73970
1.7351,0.2786,39.7300,98,97,73973
1.7791,0.2737,39.8300,98,97,73976
1.9062,0.2835,39.8900,98,97,73979
2.1114,0.2786,39.9300,98,97,73984
2.3509,0.2786,39.8600,98,97,73987
2.6588,0.2786,39.7000,98,97,73990
2.8837,0.2786,39.8900,98,97,73993
3.1232,0.2688,39.8600,98,97,73997
3.2307,0.2786,39.7700,98,97,74000
3.1525,0.2786,39.8300,98,97,74003
3.0547,0.2786,39.7700,98,97,74006
2.8201,0.2737,39.8600,98,97,74010
2.6100,0.2786,39.8900,98,97,74013
2.4340,0.2835,39.7700,98,97,74016
2.2043,0.2786,39.8600,98,97,74019
2.0577,0.2835,39.7700,98,97,74023
1.8573,0.3030,39.8600,98,97,74027
1.7155,0.2786,39.9300,98,97,74030
1.6276,0.2835,39.8300,98,97,74033
1.5640,0.2786,39.8900,98,97,74037
1.5200,0.2835,39.7700,98,97,74040
1.4614,0.2786,40.0000,98,97,74043
1.4370,0.2786,39.8600,98,97,74046
1.4565,0.2884,39.7300,98,97,74050
1.4956,0.2884,39.7700,98,97,74054
1.4614,0.2786,39.8300,98,97,74058
1.5103,0.2835,39.6700,98,97,74061
1.5054,0.2835,39.8600,98,97,74064
1.5152,0.2786,39.8600,98,97,74067
1.5494,0.2835,39.8000,98,97,74072
1.5591,0.2786,39.8600,98,97,74075
1.6129,0.2835,39.7000,98,97,74078
1.5982,0.2786,39.8600,98,97,74081
1.6227,0.2786,39.8600,98,97,74085
1.6520,0.2835,39.8000,98,97,74088
1.6471,0.2884,39.8900,98,97,74091
1.6911,0.2835,39.7700,98,97,74094
1.6911,0.2786,39.8000,98,97,74098
1.6960,0.2786,39.8900,98,97,74101
1.7351,0.3372,39.7700,98,97,74104
1.7302,0.2786,39.8900,98,97,74107
1.7840,0.2835,39.6400,98,97,74112
1.7791,0.2786,39.7700,98,97,74115
1.7693,0.2786,39.8600,98,97,74118
1.7840,0.2835,39.9600,98,97,74121
1.8035,0.2737,39.8600,98,97,74125
1.8328,0.2835,38.9300,98,97,74128
1.8084,0.2786,39.8300,98,97,74131
1.8426,0.2786,39.8900,98,97,74134
1.8622,0.2835,39.8300,98,97,74138
1.8719,0.2835,39.8600,98,97,74141
1.9257,0.2835,39.7700,98,97,74144
1.9208,0.2688,39.7700,98,97,74147
1.9306,0.3275,39.8300,98,97,74151
1.9697,0.2884,39.8000,98,97,74155
1.9599,0.2688,39.8900,98,97,74158
2.0137,0.2933,39.7000,98,97,74161
1.9990,0.2786,39.7300,98,97,74165
2.0088,0.2688,39.8600,98,97,74168
2.0235,0.2835,39.8000,98,97,74171
2.0235,0.2688,39.8900,98,97,74174
2.0674,0.2981,39.6700,98,97,74178
2.0381,0.2786,39.8600,98,97,74181
2.0577,0.2737,39.8900,98,97,74184
2.0723,0.2884,39.8000,98,97,74187
2.0528,0.2786,39.7000,98,97,74191
2.0870,0.2737,39.7000,98,97,74194
2.0430,0.2786,39.8000,98,97,74198
2.0283,0.3030,39.8900,98,97,74201
2.0479,0.2835,38.9600,98,97,74205
2.0235,0.2786,39.8300,98,97,74208
2.0381,0.2786,39.6700,98,97,74211
1.9892,0.2688,39.8000,98,97,74214
1.9697,0.2737,39.8600,98,97,74218
1.9550,0.2786,39.7300,98,97,74221
1.9208,0.2786,39.8600,98,97,74224
1.9159,0.2786,39.7700,98,97,74227
1.8573,0.2884,39.8600,98,97,74231
1.8231,0.2786,39.9600,98,97,74234
1.8035,0.2835,39.7700,98,97,74237
1.7400,0.2786,39.8600,98,97,74241
1.7400,0.2786,39.8000,98,97,74245
1.7058,0.2786,39.8000,98,97,74248
1.6764,0.2786,40.0600,98,97,74251
1.6716,0.2835,39.7700,98,97,74254
1.6276,0.2688,39.8600,98,97,74258
1.6325,0.2786,39.7700,98,97,74261
1.5934,0.2737,39.8300,98,97,74264
1.5885,0.2786,39.8900,98,97,74267
1.5885,0.2737,39.8300,98,97,74271
1.5836,0.2835,39.7700,98,97,74274
1.5982,0.2786,39.7300,98,97,74277
1.5738,0.2786,39.8600,98,97,74280
1.5738,0.2884,39.8900,98,97,74285
1.6129,0.2835,39.7700,98,97,74288
1.5934,0.2786,39.9600,98,97,74291
1.6227,0.2835,39.7300,98,97,74294
1.6178,0.2884,39.8300,98,97,74298
1.6276,0.2786,39.8900,98,97,74301
1.6569,0.2835,39.7300,98,97,74304
1.6813,0.2786,39.8600,98,97,74307
1.6764,0.2835,39.6700,98,97,74311
1.6618,0.2737,39.8300,98,97,74314
1.6667,0.2786,39.8900,98,97,74317
1.6862,0.2835,39.8300,98,97,74320
1.6911,0.2786,39.8000,98,97,74324
1.7302,0.2835,39.7300,98,97,74328
1.7107,0.2786,39.8900,98,97,74331
1.7204,0.2786,39.8900,98,97,74334
1.7498,0.2835,39.8600,98,97,74338
1.7302,0.2786,39.8900,98,97,74341
1.7546,0.2884,39.8300,98,97,74344
1.7449,0.2786,39.8900,98,97,74347
1.7449,0.2786,39.8600,98,97,74351
1.7742,0.2688,39.7300,98,97,74354
1.7400,0.2737,39.8600,98,97,74357
1.7595,0.2786,39.7300,98,97,74360
1.7400,0.2786,39.8300,98,97,74364
1.7400,0.2981,39.8000,98,97,74368
1.7449,0.2786,39.8000,98,97,74371
1.7498,0.2981,39.8600,98,97,74374
1.7791,0.2786,39.8300,98,97,74378
1.7546,0.2786,39.5700,98,97,74381
1.7498,0.2786,39.9300,98,97,74384
1.7840,0.3030,39.8300,98,97,74387
1.7644,0.2786,39.9600,98,97,74391
1.7937,0.2786,39.7700,98,97,74394
1.7595,0.2737,39.8300,98,97,74397
1.7644,0.2786,39.8900,98,97,74400
1.7742,0.2835,39.5400,98,97,74404
1.7546,0.2786,39.8300,98,97,74407
1.7889,0.2786,39.9600,98,97,74411
1.7595,0.2688,39.8300,98,97,74414
1.7546,0.2835,39.8600,98,97,74418
1.7742,0.2786,39.8000,98,97,74421
1.7742,0.2786,39.8900,98,97,74424
1.8084,0.2835,39.8300,98,97,74427
1.7791,0.3079,39.8300,98,97,74431
1.7791,0.2786,39.9600,98,97,74434
1.7986,0.2835,39.7700,98,97,74437
1.8084,0.2786,39.8600,98,97,74440
1.8084,0.2737,39.7300,98,97,74444
1.7840,0.2786,39.8300,98,97,74447
1.7937,0.2835,39.8600,98,97,74450
1.8182,0.2835,39.7300,98,97,74454
1.8084,0.2786,39.9600,98,97,74458
1.8915,0.2737,39.7700,98,97,74461
1.8426,0.2688,39.8300,98,97,74464
1.8622,0.2786,39.7700,98,97,74467
1.8866,0.2835,39.8000,98,97,74471
1.8866,0.2835,39.8300,98,97,74474
1.9257,0.2786,39.8300,98,97,74477
1.9062,0.2786,39.9600,98,97,74480
1.9355,0.2786,39.8600,98,97,74484
1.9795,0.2737,39.7300,98,97,74487
1.9648,0.3079,39.8600,98,97,74490
1.9990,0.2786,39.7700,98,97,74493
1.9550,0.2737,39.8300,98,97,74498
1.9501,0.2835,39.8300,98,97,74501
1.9501,0.2835,39.4400,98,97,74504
1.9062,0.2688,39.8900,98,97,74507
1.9110,0.2835,39.7300,98,97,74511
1.8622,0.2737,39.9600,98,97,74514
1.8524,0.2786,39.8600,98,97,74517
1.8377,0.2884,39.8000,98,97,74520
1.8133,0.2786,39.9600,98,97,74524
1.8182,0.2688,39.7700,98,97,74527
1.7693,0.2786,39.8900,98,97,74530
1.7498,0.2786,39.8000,98,97,74533
1.7644,0.2884,39.7700,98,97,74537
1.7253,0.2786,39.8600,98,97,74541
1.7498,0.2786,39.7700,98,97,74544
1.7204,0.2786,40.2000,98,97,74547
1.7302,0.2835,39.8600,98,97,74551
1.7498,0.2884,39.7300,98,97,74554
1.7253,0.2786,39.8000,98,97,74557
1.7546,0.2835,39.7700,98,97,74560
1.7253,0.2688,39.8600,98,97,74564
1.7253,0.2786,39.9300,98,97,74567
1.7351,0.2786,39.9600,98,97,74570
1.7449,0.2786,39.8900,98,97,74573
1.8280,0.2835,39.8000,98,97,74577
1.8915,0.2786,39.9300,98,97,74580
2.0479,0.2786,39.8900,98,97,74584
2.3069,0.2884,39.7700,98,97,74587
2.5513,0.2786,39.7000,98,97,74591
2.8837,0.2835,39.8000,98,97,74594
3.0841,0.3030,39.8300,98,97,74597
