ecg,gsr,temp,hr,spo2,timest
1.6276,0.2933,40.0600,101,96,62877
1.6813,0.2933,39.6700,101,96,62881
1.6569,0.2933,39.8600,101,96,62884
1.6520,0.2884,39.9300,101,96,62887
1.6618,0.2933,39.8900,101,96,62891
1.6618,0.2981,39.9600,101,96,62895
1.7302,0.3079,39.7700,101,96,62898
1.6960,0.2981,39.8300,101,96,62901
1.6911,0.2933,39.8900,101,96,62905
1.6911,0.2933,40.0300,101,96,62908
1.6960,0.2884,39.9300,101,96,62911
1.7449,0.3030,39.8300,101,96,62915
1.7302,0.3030,39.9300,101,96,62918
1.7546,0.2933,39.8300,101,96,62921
1.7400,0.2933,40.0000,101,96,62925
1.7400,0.2933,39.7700,101,96,62928
1.7546,0.2884,39.8900,101,96,62931
1.7498,0.2933,39.9600,101,96,62935
1.7840,0.2933,39.8000,101,96,62939
1.7546,0.2933,39.9300,101,96,62942
1.7546,0.2933,40.0300,101,96,62945
1.7693,0.2933,39.8000,101,96,62949
1.7498,0.2933,39.9600,101,96,62952
1.7840,0.2933,39.7300,101,96,62955
1.7644,0.2933,39.9600,101,96,62959
1.7742,0.2933,39.9600,101,96,62962
1.7986,0.3030,39.9300,101,96,62965
1.7791,0.2933,39.9300,101,96,62969
1.8231,0.3030,39.6700,101,96,62972
1.7937,0.3030,39.8600,101,96,62976
1.7937,0.2933,39.9300,101,96,62979
1.8035,0.3030,39.8900,101,96,62983
1.7889,0.3030,40.0000,101,96,62986
1.8328,0.3079,39.6700,101,96,62989
1.7937,0.2933,39.8300,101,96,62993
1.7791,0.2884,39.8900,101,96,62996
1.7937,0.2933,40.0600,101,96,62999
1.8084,0.3030,39.9300,101,96,63003
1.8280,0.3079,39.8000,101,96,63006
1.7889,0.2981,39.8900,101,96,63009
1.7889,0.2981,39.8300,101,96,63013
1.7644,0.2933,39.9300,101,96,63016
1.7742,0.2981,39.9600,101,96,63020
1.7986,0.2981,39.8600,101,96,63023
1.7791,0.2933,40.1000,101,96,63027
1.7937,0.3030,39.8600,101,96,63030
1.7742,0.2933,40.0000,101,96,63033
1.7840,0.3079,39.8900,101,96,63037
1.8328,0.2981,39.8600,100,96,63040
1.8915,0.2884,39.8600,100,96,63045
1.8524,0.2933,39.9600,100,96,63048
1.9159,0.2981,39.6700,100,96,63051
1.8964,0.2933,39.8300,100,96,63055
1.9159,0.2884,39.9600,100,96,63058
1.9844,0.2981,39.9300,100,96,63062
1.9501,0.2933,39.9300,100,96,63066
2.0137,0.3079,39.7000,100,96,63069
1.9795,0.3030,39.8600,100,96,63072
1.9648,0.2884,39.9300,100,96,63076
1.9550,0.2835,39.9300,100,96,63079
1.9453,0.2933,40.0300,100,96,63082
1.9941,0.3079,39.8000,100,96,63085
1.9208,0.2981,39.8900,100,96,63089
1.8915,0.2933,39.8300,100,96,63092
1.8768,0.2884,39.9300,100,96,63095
1.8084,0.2933,39.9300,100,96,63099
1.7986,0.2981,39.8300,100,96,63102
1.7351,0.2933,39.9300,100,96,63106
1.7400,0.3275,39.8600,100,96,63110
1.7009,0.2884,39.8900,100,96,63113
1.6862,0.2933,39.9300,100,96,63116
1.7302,0.2981,39.8300,100,96,63120
1.6960,0.2884,39.9300,100,96,63123
1.7058,0.2933,39.8000,100,96,63126
1.6862,0.3030,39.9300,100,96,63129
1.6813,0.2884,39.9600,100,96,63133
1.6960,0.2981,39.8300,100,96,63136
1.6716,0.2688,39.9600,100,96,63139
1.7155,0.2981,39.7300,100,96,63143
1.6862,0.2933,39.8600,100,96,63147
1.6764,0.2933,40.0000,100,96,63150
1.6960,0.2933,39.9300,100,96,63154
1.7302,0.2933,40.1300,100,96,63157
1.8573,0.3128,39.6400,100,96,63160
1.9599,0.2981,39.8600,100,96,63164
2.1505,0.2884,39.8900,100,96,63167
2.4242,0.2933,39.9300,100,96,63170
2.6979,0.2933,39.9600,100,96,63174
3.0254,0.3030,39.8000,100,96,63177
3.1525,0.2981,39.8900,100,96,63180
3.1818,0.2933,39.8600,100,96,63183
3.0596,0.2884,39.9600,100,96,63187
2.8886,0.2933,39.9300,100,96,63191
2.7126,0.2981,39.7000,100,96,63194
2.4536,0.3030,39.9600,100,96,63198
2.2630,0.2981,39.8000,100,96,63201
2.0479,0.2933,39.9600,100,96,63204
1.8817,0.3079,39.9300,100,96,63208
1.7889,0.2933,39.8900,100,96,63211
1.6325,0.2933,39.5700,100,96,63214
1.5689,0.2884,39.8300,100,96,63217
1.4858,0.2933,40.1000,100,96,63221
1.4516,0.2933,39.9300,100,96,63224
1.4663,0.3030,39.8600,100,96,63227
1.4223,0.2933,40.0300,100,96,63232
1.4418,0.3177,39.7300,100,96,63235
1.4223,0.2933,39.8300,100,96,63238
1.4223,0.2933,40.0300,100,96,63242
1.4565,0.2981,39.8600,100,96,63245
1.4516,0.2933,39.9300,100,96,63248
1.5005,0.3226,39.6700,100,96,63252
1.4809,0.2933,39.9600,100,96,63255
1.4858,0.2933,39.8900,100,96,63258
1.5054,0.3030,39.8900,100,96,63261
1.5200,0.2933,39.9600,100,96,63265
1.5885,0.3079,39.7300,100,96,63268
1.5885,0.2981,39.8300,100,96,63271
1.5787,0.2884,39.8900,100,96,63276
1.5982,0.2933,39.9300,100,96,63279
1.6080,0.2933,40.0300,100,96,63282
1.6667,0.3030,39.8900,100,96,63286
1.6520,0.3030,39.9300,100,96,63289
1.6764,0.2981,39.8600,100,96,63292
1.6813,0.2933,39.9600,100,96,63296
1.7009,0.2981,39.9300,100,96,63299
1.7351,0.3030,39.7700,100,96,63302
1.7302,0.3226,39.8900,100,96,63305
1.7986,0.3030,39.8300,100,96,63309
1.7595,0.2933,39.9300,100,96,63312
1.7644,0.2933,40.0600,100,96,63315
1.8084,0.2933,39.8300,100,96,63320
1.7986,0.2933,39.9300,100,96,63323
1.8377,0.2933,39.8000,100,96,63326
1.8280,0.2933,39.8600,100,96,63330
1.8426,0.2933,39.9600,100,96,63333
1.8768,0.2933,39.8900,100,96,63336
1.8671,0.2933,39.9600,100,96,63339
1.9257,0.2981,39.7700,100,96,63343
1.9159,0.2933,39.8900,100,96,63346
1.9257,0.2933,39.2500,100,96,63349
1.9501,0.2933,39.8900,100,96,63353
1.9550,0.2933,40.0000,100,96,63356
2.0186,0.3030,39.6400,100,96,63360
2.0235,0.2884,39.8900,100,96,63364
1.9941,0.2884,39.9300,100,96,63367
2.0186,0.2884,39.8900,100,96,63370
2.0137,0.2884,39.9300,100,96,63374
2.0772,0.3079,39.6700,100,96,63377
2.0723,0.2884,39.8600,100,96,63380
2.0283,0.2933,39.8600,100,96,63383
2.0283,0.2933,39.8000,100,96,63387
2.0235,0.2933,39.9300,100,96,63390
2.0821,0.2884,39.8000,100,96,63393
2.0186,0.2981,39.9600,100,96,63397
2.0186,0.2933,39.8600,100,96,63400
1.9892,0.2884,39.9300,100,96,63404
1.9795,0.2933,39.9600,100,96,63408
1.9844,0.3030,39.9300,100,96,63411
1.9404,0.2981,39.9600,100,96,63414
1.9306,0.3030,39.8300,100,96,63418
1.8964,0.2981,39.9300,100,96,63421
1.8426,0.2981,39.9600,100,96,63424
1.8377,0.2933,39.8000,100,96,63427
1.7742,0.2933,39.9600,100,96,63431
1.7644,0.2933,39.8000,100,96,63434
1.7155,0.2933,39.8900,100,96,63437
1.6911,0.2933,39.9600,100,96,63441
1.6960,0.2981,39.8300,100,96,63444
1.6618,0.2933,40.0300,100,96,63448
1.6862,0.3324,39.7300,100,96,63452
1.6471,0.2933,39.7700,100,96,63455
1.6227,0.2933,39.9300,100,96,63458
1.6373,0.2981,39.8900,100,96,63462
1.6227,0.2933,40.0000,100,96,63465
1.6960,0.2981,39.7000,100,96,63468
1.6471,0.2981,39.8300,100,96,63472
1.6325,0.2884,39.8900,100,96,63475
1.6422,0.2981,39.9300,100,96,63478
1.6373,0.3226,39.9300,100,96,63481
1.6862,0.3079,39.8000,100,96,63485
1.6716,0.2981,40.0000,100,96,63489
1.6764,0.3030,39.8000,100,96,63492
1.6618,0.2884,39.9300,100,96,63496
1.6716,0.2933,40.0000,100,96,63499
1.7058,0.3030,39.7700,100,96,63502
1.6813,0.2981,39.9600,100,96,63506
1.7058,0.2981,39.8000,100,96,63509
1.6960,0.2933,39.9300,100,96,63512
1.7009,0.2933,39.9300,100,96,63516
1.7351,0.2981,39.8300,100,96,63519
1.7253,0.2933,39.9300,100,96,63522
1.7595,0.2933,39.8300,100,96,63525
1.7449,0.2933,39.8900,100,96,63529
1.7449,0.2933,39.9300,100,96,63533
1.7742,0.2981,39.8000,100,96,63536
1.7595,0.2933,39.9600,100,96,63540
1.7840,0.2981,39.7000,100,96,63543
1.7693,0.2933,39.8600,100,96,63546
1.7742,0.2933,40.0000,100,96,63550
1.7937,0.2981,39.9600,100,96,63553
1.7693,0.2884,39.9300,100,96,63556
1.8280,0.3030,38.9000,100,96,63560
1.8035,0.2981,39.8900,100,96,63563
1.7889,0.2933,39.9300,100,96,63566
1.7986,0.3177,39.8900,100,96,63569
1.7937,0.2933,39.9300,100,96,63574
1.8377,0.3079,39.7300,100,96,63577
1.7937,0.2884,39.8600,100,96,63580
1.7889,0.2933,39.8600,100,96,63584
1.7742,0.2981,39.9600,100,96,63587
1.7791,0.2884,39.9600,100,96,63590
1.8035,0.2981,39.8300,100,96,63594
1.7840,0.3275,39.8600,100,96,63597
1.8426,0.2933,39.8000,100,96,63600
1.7889,0.2933,39.8600,100,96,63604
1.7937,0.2933,39.9600,100,96,63607
1.8182,0.2981,39.8300,100,96,63610
1.7986,0.2933,39.9600,100,96,63613
1.8231,0.2933,39.8300,100,96,63618
1.8182,0.2933,39.9300,100,96,63621
1.8035,0.2933,40.0000,100,96,63624
1.8426,0.2981,39.8300,100,96,63628
1.8328,0.2933,39.9300,100,96,63631
1.8768,0.2981,39.7700,100,96,63634
1.8671,0.2884,39.6400,100,96,63638
1.8622,0.2933,40.0000,100,96,63641
1.8915,0.3030,39.8600,100,96,63644
1.8719,0.2933,39.9300,100,96,63648
1.9208,0.2981,39.6400,100,96,63651
2.0039,0.3177,39.8000,100,96,63656
1.9746,0.3275,39.8900,100,96,63660
1.9746,0.2688,39.8300,100,96,63663
1.9550,0.2933,39.8900,100,96,63667
1.9501,0.2933,39.9300,100,96,63670
1.9648,0.2981,39.8300,100,96,63673
1.9257,0.2933,39.9600,100,96,63676
1.9013,0.2981,39.8300,100,96,63680
1.8426,0.2933,39.9300,100,96,63683
1.7937,0.2933,39.9600,100,96,63686
1.7791,0.3030,39.8300,100,96,63690
1.7253,0.2933,39.9600,100,96,63693
1.7155,0.3177,39.7700,100,96,63696
1.6862,0.2884,39.8600,100,96,63700
1.6667,0.2933,40.0000,100,96,63704
1.6911,0.2981,39.7700,100,96,63707
1.6667,0.2933,39.8300,100,96,63711
1.7009,0.3030,39.7300,100,96,63714
1.6813,0.2981,39.8900,100,96,63717
1.6618,0.2884,39.9600,100,96,63721
1.6960,0.3030,39.9300,100,96,63724
1.6667,0.2933,39.9300,100,96,63727
1.7107,0.3030,39.6700,100,96,63730
1.6716,0.2884,39.8300,100,96,63734
1.6618,0.2884,39.9300,100,96,63737
1.6716,0.2933,39.9300,100,96,63740
1.6911,0.2933,39.9300,100,96,63745
1.8280,0.3079,39.7300,100,96,63748
1.9159,0.2981,39.8900,100,96,63751
2.1261,0.2933,39.8300,100,96,63755
2.3900,0.2933,39.9600,100,96,63758
2.6637,0.2933,39.9300,100,96,63761
2.9961,0.2981,39.8000,100,96,63765
3.1281,0.3177,39.8900,100,96,63768
3.2405,0.2933,39.8000,100,96,63771
3.1232,0.2933,39.9600,100,96,63774
2.9619,0.2835,39.9300,100,96,63778
2.7957,0.3030,39.8600,100,96,63781
2.5269,0.2933,40.0300,100,96,63784
2.3265,0.2933,39.8300,100,96,63789
2.0723,0.2884,39.8600,100,96,63792
1.8866,0.2884,39.9300,100,96,63795
1.7889,0.2933,39.8300,100,96,63799
1.6178,0.2933,39.9600,100,96,63802
1.5640,0.2981,39.7300,100,96,63805
1.4809,0.2933,40.0300,100,96,63809
1.4418,0.2933,39.9300,100,96,63812
1.4370,0.2981,39.9600,100,96,63815
1.4125,0.2981,39.9300,100,96,63819
1.4467,0.2884,39.7000,100,96,63822
1.4174,0.2981,39.8300,100,96,63825
1.4125,0.3275,39.9300,100,96,63828
1.4370,0.2933,39.8000,100,96,63833
1.4418,0.2933,39.9300,100,96,63836
1.5005,0.3079,39.7300,100,96,63839
1.4761,0.2981,39.8900,100,96,63843
1.4809,0.2884,39.8600,100,96,63846
1.4809,0.2933,39.7000,100,96,63849
1.5103,0.2933,39.9300,100,96,63853
1.5494,0.2981,39.8000,100,96,63856
1.5543,0.2933,40.1300,100,96,63859
1.5934,0.2933,39.8300,100,96,63863
1.5738,0.2933,39.9300,100,96,63866
1.6129,0.2981,39.9300,100,96,63869
1.6325,0.2981,39.8900,100,96,63874
1.6373,0.2981,39.9300,100,96,63877
1.6764,0.2981,39.8300,100,96,63880
1.6667,0.2835,39.9300,100,96,63883
1.6813,0.2884,39.9300,100,96,63887
1.7204,0.2981,39.8900,100,96,63890
1.7204,0.2933,39.9600,100,96,63893
1.7693,0.2933,39.7300,100,96,63897
1.7644,0.2981,39.8600,100,96,63900
1.7693,0.2884,39.9300,100,96,63903
1.8133,0.2884,39.8600,100,96,63907
1.7986,0.2884,39.9600,100,96,63910
1.8671,0.2981,39.7000,100,96,63913
1.8475,0.2933,39.8300,100,96,63918
1.8573,0.2884,39.9300,100,96,63921
1.8768,0.2933,39.8900,100,96,63924
1.8768,0.2884,39.9300,100,96,63928
1.9550,0.2884,39.7300,100,96,63931
1.9257,0.2981,39.8600,100,96,63934
1.9306,0.2933,39.8600,100,96,63937
1.9453,0.2884,40.0000,100,96,63941
1.9550,0.3177,39.9300,100,96,63944
2.0235,0.3030,39.8000,100,96,63947
1.9941,0.2933,39.9300,100,96,63951
2.0332,0.2933,39.8300,100,96,63954
2.0235,0.2933,39.9300,100,96,63958
2.0332,0.2884,40.0000,100,96,63962
2.0723,0.3128,39.7700,100,96,63965
2.0430,0.2933,39.9600,100,96,63968
2.0723,0.2981,39.8300,100,96,63972
2.0381,0.2835,39.8900,100,96,63975
2.0332,0.2933,39.9300,100,96,63978
2.0528,0.2884,39.8300,100,96,63981
2.0430,0.2884,39.9300,100,96,63985
2.0430,0.2688,39.7700,100,96,63988
2.0137,0.2884,39.8600,100,96,63991
2.0039,0.2981,40.0000,100,96,63995
2.0088,0.2933,39.8300,100,96,63998
1.9599,0.2884,39.9600,100,96,64002
1.9648,0.2981,39.7000,100,96,64006
1.9013,0.2933,39.8600,100,96,64009
1.8573,0.2884,39.9600,100,96,64012
1.8328,0.2981,39.8900,100,96,64015
1.7791,0.2884,39.9300,100,96,64019
1.7791,0.2981,39.8600,100,96,64022
1.7155,0.2933,39.8600,100,96,64025
1.6764,0.2884,39.9600,100,96,64029
1.6618,0.3030,39.8600,100,96,64032
1.6325,0.2884,39.9300,100,96,64035
1.6716,0.3079,39.7300,100,96,64039
1.6227,0.2981,39.8600,100,96,64043
1.6031,0.2884,39.8600,100,96,64046
1.5885,0.2933,39.9300,100,96,64050
1.5885,0.2884,39.8900,100,96,64053
1.6178,0.2981,39.8000,100,96,64056
1.5934,0.2981,39.8900,100,96,64059
1.6373,0.2933,39.8300,100,96,64063
1.5934,0.2933,39.8900,100,96,64066
1.6031,0.2884,39.9300,100,96,64069
1.6325,0.2981,39.8000,100,96,64073
1.6276,0.2981,39.9300,100,96,64076
1.6716,0.2981,39.8300,100,96,64079
1.6471,0.3128,39.9300,100,96,64083
1.6569,0.2884,39.9300,100,96,64087
1.6960,0.2981,39.8600,100,96,64090
1.6716,0.2688,39.9300,100,96,64094
1.7107,0.2933,39.8000,100,96,64097
1.7009,0.3030,39.8300,100,96,64100
1.6960,0.2884,39.8900,100,96,64103
1.7204,0.3030,39.8300,100,96,64107
1.7009,0.2884,39.9300,100,96,64110
1.7449,0.3030,39.7300,100,96,64113
1.7302,0.2933,39.8600,100,96,64117
1.7204,0.2884,39.9600,100,96,64120
1.7302,0.2981,39.8300,100,96,64123
1.7595,0.2933,39.9300,100,96,64128
1.7742,0.2981,39.6400,100,96,64131
1.7546,0.2884,39.8300,100,96,64134
1.7546,0.2884,39.8900,100,96,64138
1.7595,0.2981,39.8600,100,96,64141
1.7546,0.2884,39.9300,100,96,64144
1.8035,0.3079,39.8300,100,96,64147
1.7742,0.2981,39.8600,100,96,64151
1.7742,0.2981,39.8900,100,96,64154
1.7693,0.2933,39.9600,100,96,64157
1.7644,0.2933,39.9300,100,96,64161
1.7986,0.2981,39.7300,100,96,64164
1.7693,0.2933,39.8900,100,96,64167
1.7889,0.2933,39.8000,100,96,64172
1.7644,0.2884,39.9300,100,96,64175
1.7693,0.2981,39.9300,100,96,64178
1.7937,0.2981,39.8300,100,96,64182
1.7693,0.2933,39.9300,100,96,64185
1.8035,0.2884,39.8300,100,96,64188
1.7742,0.2884,39.9300,100,96,64191
1.7791,0.2933,39.8900,100,96,64195
1.7986,0.2933,39.8300,100,96,64198
1.7693,0.2884,39.9300,100,96,64201
1.7986,0.3030,39.7300,100,96,64205
1.7644,0.2884,39.8600,100,96,64208
1.7742,0.2981,40.0000,100,96,64211
1.8035,0.2981,39.8900,100,96,64216
1.7937,0.2933,39.8900,100,96,64219
1.8573,0.2933,39.7000,100,96,64222
1.8426,0.2933,39.8600,100,96,64226
1.8426,0.2884,39.9300,100,96,64229
1.8719,0.2933,40.0000,100,96,64232
1.8671,0.2884,39.9600,100,96,64235
1.9404,0.2884,39.7000,100,96,64239
1.9110,0.3030,39.8600,100,96,64242
1.9159,0.2835,39.8600,100,96,64245
1.9306,0.2884,39.9300,100,96,64249
1.9501,0.2884,39.9600,100,96,64252
1.9990,0.3177,39.8300,100,96,64256
1.9795,0.2933,39.8900,100,96,64260
1.9844,0.2933,39.8900,100,96,64263
1.9892,0.2884,39.9300,100,96,64266
1.8475,0.2933,39.8900,100,96,64271
1.8084,0.2884,39.9600,100,96,64274
1.7889,0.2981,39.8600,100,96,64278
1.7253,0.2933,39.9300,100,96,64281
1.7351,0.2933,39.8000,100,96,64284
1.6813,0.2933,39.8600,100,96,64287
1.6520,0.2688,39.9300,100,96,64291
1.6569,0.2933,39.8300,100,96,64294
1.6276,0.2933,39.8900,100,96,64297
1.6862,0.2933,39.6700,100,96,64302
1.6520,0.2933,39.8300,100,96,64305
1.6422,0.2835,40.0000,100,96,64308
1.6520,0.2981,39.9300,100,96,64312
1.6471,0.2884,39.9300,100,96,64315
1.7058,0.3079,39.7300,100,96,64318
1.6716,0.2981,39.8600,100,96,64322
1.6667,0.2884,39.8600,100,96,64325
1.6471,0.2933,39.9300,100,96,64328
1.6667,0.2884,40.0300,100,96,64332
1.7449,0.3030,39.8300,100,96,64335
1.8328,0.2884,39.9300,100,96,64338
1.9795,0.2933,39.8000,100,96,64342
2.2092,0.2933,39.9300,100,96,64346
2.4389,0.2884,39.9300,100,96,64349
2.7517,0.2981,39.8000,100,96,64352
2.9668,0.2933,39.9300,100,96,64356
3.1720,0.2933,39.9300,100,96,64359
3.1623,0.2884,39.8600,100,96,64362
3.0694,0.2884,39.9300,100,96,64366
2.9277,0.2933,39.8000,100,96,64369
2.6833,0.2981,39.9300,100,96,64372
2.5024,0.2933,39.7700,100,96,64375
2.2434,0.2933,39.8600,100,96,64379
2.0283,0.2835,39.9300,100,96,64382
1.8768,0.2981,39.8300,100,96,64386
1.7009,0.2884,39.9300,100,96,64390
1.6276,0.2981,39.8000,100,96,64393
1.5152,0.2688,39.8900,100,96,64396
1.4712,0.2884,39.9300,100,96,64400
1.4516,0.2933,39.8900,100,96,64403
1.4272,0.2884,39.9600,100,96,64406
1.4516,0.3030,39.7700,100,96,64410
1.4272,0.2933,39.8600,100,96,64413
1.4223,0.2835,39.9300,100,96,64416
1.4418,0.2933,39.8900,100,96,64419
1.4418,0.2884,39.9300,100,96,64423
1.5249,0.2884,39.7300,100,96,64427
1.4809,0.3177,39.8900,100,96,64430
1.5103,0.2884,39.8300,100,96,64434
1.5103,0.2884,39.9600,100,96,64437
1.5298,0.2884,39.8900,100,96,64440
1.5787,0.2884,39.8000,100,96,64444
1.5738,0.2933,39.8900,100,96,64447
1.6031,0.2981,39.7700,100,96,64450
1.5885,0.2884,39.9300,100,96,64454
1.6129,0.2884,39.9600,100,96,64457
1.6422,0.2884,39.8300,100,96,64460
1.6764,0.2933,39.9300,100,96,64463
1.6764,0.2884,39.8900,100,96,64467
1.6569,0.2884,39.9300,100,96,64471
1.6716,0.2884,39.9300,100,96,64474
1.7009,0.2981,39.8600,100,96,64478
1.7009,0.2884,39.9300,100,96,64481
1.7498,0.2933,39.7300,100,96,64484
1.7400,0.3177,39.8300,100,96,64488
1.7400,0.2884,39.9600,100,96,64491
1.7791,0.2981,39.8600,100,96,64494
1.7742,0.2933,39.9300,100,96,64498
1.8377,0.2688,39.7000,100,96,64501
1.8231,0.2835,39.8000,100,96,64504
1.8328,0.2933,39.9300,100,96,64507
1.8524,0.2933,39.8900,100,96,64512
1.8524,0.2884,39.9300,100,96,64515
1.9306,0.3079,39.7000,100,96,64518
1.9110,0.2981,39.8300,100,96,64522
1.9208,0.2933,39.8900,100,96,64525
1.9355,0.2884,39.9300,100,96,64528
1.9453,0.2933,39.9300,100,96,64532
1.9990,0.2981,39.8300,100,96,64535
1.9795,0.2884,39.8600,100,96,64538
2.0137,0.3030,39.8000,100,96,64542
2.0088,0.2884,39.9300,100,96,64545
2.0186,0.2884,39.9600,100,96,64548
2.0577,0.2981,39.8300,100,96,64551
2.0674,0.2981,39.9300,100,96,64556
2.0772,0.2981,39.8300,100,96,64559
2.0479,0.2884,39.9600,100,96,64562
2.0528,0.2884,39.9300,100,96,64566
2.1114,0.2884,39.8000,100,96,64569
2.0479,0.2884,39.9600,100,96,64572
2.0674,0.2884,39.8300,100,96,64576
2.0235,0.2933,39.8900,100,96,64579
2.0039,0.2884,39.9300,100,96,64582
2.0137,0.2933,39.8000,100,96,64585
1.9648,0.2884,39.9600,100,96,64589
1.9648,0.2933,39.7300,100,96,64592
1.9013,0.2884,39.8900,100,96,64595
1.8622,0.2884,39.9300,100,96,64600
1.8426,0.2933,39.8900,100,96,64603
1.7889,0.2884,39.9300,100,96,64606
1.7986,0.2981,39.7000,100,96,64610
1.7302,0.2933,39.8300,100,96,64613
1.6862,0.2933,39.9300,100,96,64616
1.6716,0.2933,39.9600,100,96,64620
1.6764,0.2933,39.9600,100,96,64623
1.6764,0.3079,39.7700,100,96,64626
1.6373,0.2981,39.8900,100,96,64629
1.6031,0.2884,39.8300,100,96,64633
1.5934,0.2884,39.9300,100,96,64636
1.6129,0.2933,39.9300,100,96,64640
1.6178,0.2981,39.8000,100,96,64644
1.5934,0.2981,39.9300,100,96,64647
1.5982,0.2884,39.8000,100,96,64650
1.5885,0.2884,39.9600,100,96,64654
1.5934,0.2981,39.9300,100,96,64657
1.6276,0.2933,39.8600,100,96,64660
1.6178,0.3226,39.9600,100,96,64664
1.6471,0.2933,39.8000,100,96,64667
1.6325,0.2981,39.8900,100,96,64670
1.6325,0.2884,39.9300,100,96,64673
1.6667,0.2981,39.8300,100,96,64677
1.6764,0.2884,39.9300,100,96,64680
1.6862,0.2884,39.7700,100,96,64684
1.6764,0.2884,39.8900,100,96,64688
1.6716,0.2835,39.9300,100,96,64691
1.6960,0.2981,39.8300,100,96,64694
1.6960,0.2933,39.9300,100,96,64698
1.7449,0.2981,39.7000,100,96,64701
1.7204,0.2884,39.8000,100,96,64704
1.7498,0.2884,39.9600,100,96,64708
1.7302,0.2933,39.8900,100,96,64711
1.7155,0.2884,39.9300,100,96,64714
1.7889,0.3030,39.6700,100,96,64717
1.7400,0.2933,39.9600,100,96,64721
1.7302,0.2884,39.8600,100,96,64724
1.7351,0.2884,39.9300,100,96,64728
1.7204,0.3030,40.0300,100,96,64732
1.7693,0.2981,39.7700,100,96,64735
1.7449,0.2688,39.8900,100,96,64738
1.7449,0.2884,39.8900,100,96,64742
1.7498,0.2884,39.9300,100,96,64745
1.7400,0.2884,39.1200,100,96,64748
1.7791,0.3226,39.8000,100,96,64752
1.7449,0.2933,39.9600,100,96,64755
1.7742,0.2933,39.8000,100,96,64758
1.7498,0.2933,39.9600,100,96,64761
1.7498,0.2933,39.9300,100,96,64765
1.7644,0.3030,39.8300,100,96,64769
1.7449,0.2981,39.9300,100,96,64772
1.7644,0.2884,39.8300,100,96,64776
1.7498,0.2884,39.9300,100,96,64779
1.7595,0.2933,39.9300,100,96,64782
1.7791,0.2933,39.8000,100,96,64786
1.7595,0.2981,39.9300,100,96,64789
1.7986,0.2933,39.7300,100,96,64792
1.7595,0.2933,39.8900,100,96,64796
1.7742,0.2884,39.9300,100,96,64799
1.7742,0.2933,39.8300,100,96,64802
1.7595,0.2933,39.8900,100,96,64806
1.8084,0.2981,39.6400,100,96,64809
1.8035,0.2933,39.8300,100,96,64813
1.7840,0.2835,39.9300,100,96,64816
1.8084,0.3030,39.8900,100,96,64820
1.8133,0.2835,39.9300,100,96,64823
1.8768,0.3079,39.7700,100,96,64826
1.8426,0.2933,39.8600,100,96,64830
1.8377,0.2884,39.8600,100,96,64833
1.8426,0.2884,40.1300,100,96,64836
1.8622,0.2933,39.9300,100,96,64840
1.9355,0.2981,39.7700,100,96,64843
1.9404,0.3421,39.8900,100,96,64846
1.9697,0.2933,39.8000,100,96,64849
1.9599,0.2884,39.9300,100,96,64854
1.9648,0.2884,39.9600,100,96,64857
1.9941,0.2981,39.8600,100,96,64860
1.9648,0.2884,39.9600,100,96,64864
1.9892,0.2981,39.5400,100,96,64867
1.9404,0.2884,39.9300,100,96,64870
1.9159,0.2884,39.9600,100,96,64874
1.9110,0.3030,39.8300,100,96,64877
1.7253,0.2981,39.8600,100,96,64882
1.6862,0.2688,39.9300,100,96,64885
1.7204,0.2981,39.7000,100,96,64888
1.6764,0.2933,39.8300,100,96,64892
1.6618,0.2835,39.9300,100,96,64896
1.6520,0.2933,39.9300,100,96,64899
1.6471,0.2933,39.9600,100,96,64902
1.6960,0.3079,39.7700,100,96,64906
1.6716,0.2884,39.8600,100,96,64909
1.6667,0.2884,39.8600,100,96,64912
1.6667,0.2884,39.8600,100,96,64916
1.6667,0.2933,39.9600,100,96,64919
1.7009,0.2981,39.8000,100,96,64922
1.6764,0.2933,39.8900,100,96,64926
1.7058,0.2933,39.8000,100,96,64929
1.7302,0.2884,40.0000,100,96,64932
1.8084,0.2884,40.0300,100,96,64936
1.9795,0.2835,39.8000,100,96,64940
2.1603,0.2884,39.8900,100,96,64943
2.4536,0.2981,39.7000,100,96,64946
2.6931,0.2884,39.8900,100,96,64950
2.9472,0.2884,39.9300,100,96,64953
3.1427,0.2933,39.8000,100,96,64956
3.1525,0.2933,39.9300,100,96,64960
3.1036,0.2884,39.7700,100,96,64963
2.9081,0.2884,39.8600,100,96,64966
2.6979,0.2786,39.9300,100,96,64970
2.5122,0.2688,39.8000,100,96,64973
2.2678,0.2884,39.9600,100,96,64976
2.1065,0.2933,40.1000,100,96,64979
1.8964,0.2933,39.8900,100,96,64984
1.7351,0.2884,39.9600,100,96,64987
1.6422,0.2933,39.8900,100,96,64990
1.5494,0.2884,39.9300,100,96,64994
1.5347,0.3079,39.7000,100,96,64997
1.4712,0.2933,39.9300,100,96,65000
1.4418,0.2835,39.9600,100,96,65004
1.4370,0.2884,39.8900,100,96,65007
1.4321,0.2884,39.9600,100,96,65010
1.4809,0.3030,39.7300,100,96,65014
1.4565,0.2981,39.8600,100,96,65017
1.4565,0.2884,39.9300,100,96,65020
1.4614,0.2884,39.9600,100,96,65025
1.4858,0.2884,39.8600,100,96,65028
1.5249,0.3030,39.8000,100,96,65031
1.5152,0.2884,39.8600,100,96,65034
1.5396,0.2933,39.8300,100,96,65038
1.5298,0.2884,39.9300,100,96,65041
1.5445,0.2884,40.0300,100,96,65044
1.5787,0.2933,39.8300,100,96,65048
1.6129,0.2933,39.9300,100,96,65051
1.6178,0.2933,39.8300,100,96,65054
1.6129,0.2688,39.8900,100,96,65058
1.6276,0.2884,39.9300,100,96,65061
1.6618,0.2933,39.8600,100,96,65064
1.6667,0.2884,40.0000,100,96,65069
1.7107,0.2981,39.7700,100,96,65072
1.7058,0.2933,39.8300,100,96,65075
1.7058,0.2884,39.9300,100,96,65078
1.7400,0.2884,39.8600,100,96,65082
1.7449,0.2884,39.9300,100,96,65085
1.8084,0.2981,39.7000,100,96,65088
1.7889,0.2688,39.8600,100,96,65092
1.7937,0.2835,39.9600,100,96,65095
1.8133,0.2933,39.9300,100,96,65098
1.8133,0.2933,39.9600,100,96,65102
1.8866,0.3079,39.7000,100,96,65105
1.8671,0.3470,39.8300,100,96,65108
1.8768,0.2884,39.8600,100,96,65113
1.8866,0.2884,39.9300,100,96,65116
1.8964,0.2933,39.8000,100,96,65119
1.9550,0.2981,39.8000,100,96,65122
1.9404,0.2884,39.9600,100,96,65126
1.9697,0.2933,39.8000,100,96,65129
1.9697,0.2884,39.9300,100,96,65132
1.9892,0.2933,39.9600,100,96,65136
2.0674,0.2884,39.7700,100,96,65139
2.0283,0.2933,39.9600,100,96,65142
2.0674,0.3030,39.8300,100,96,65146
2.0528,0.2933,39.9300,100,96,65149
2.0577,0.2884,39.9600,100,96,65153
2.0870,0.2933,39.8600,100,96,65156
2.0577,0.2884,39.9300,100,96,65160
2.0821,0.2884,39.8000,100,96,65163
2.0479,0.2884,39.9300,100,96,65166
2.0479,0.2933,39.9300,100,96,65170
2.0723,0.2884,39.8000,100,96,65173
2.0283,0.2884,40.0000,100,96,65176
2.0479,0.2933,39.8000,100,96,65180
1.9990,0.2933,39.8900,100,96,65183
1.9697,0.2884,39.9300,100,96,65186
1.9697,0.2933,39.8300,100,96,65189
1.9257,0.2884,39.9600,100,96,65193
1.9355,0.2981,39.6700,100,96,65197
1.8622,0.2981,39.8900,100,96,65200
1.8133,0.2884,39.9600,100,96,65204
1.7986,0.2933,39.8900,100,96,65207
1.7449,0.2884,39.9600,100,96,65210
1.7595,0.3079,39.7000,100,96,65214
1.6911,0.2981,39.8600,100,96,65217
1.6471,0.2884,39.7000,100,96,65220
1.6276,0.3226,39.8900,100,96,65224
1.6178,0.2688,39.9300,100,96,65227
1.6422,0.2981,39.8000,100,96,65230
1.6227,0.2884,39.8900,100,96,65234
1.6178,0.2933,39.8000,100,96,65238
1.5982,0.3226,39.9300,100,96,65241
1.6031,0.2884,39.9300,100,96,65244
1.6276,0.2981,39.8600,100,96,65248
1.6129,0.3128,39.9300,100,96,65251
1.6422,0.2981,39.8000,100,96,65254
1.6178,0.2884,39.9300,100,96,65258
1.6129,0.2933,39.9600,100,96,65261
1.6471,0.2981,39.8000,100,96,65264
1.6422,0.2688,39.9300,100,96,65268
1.6667,0.2933,39.7700,100,96,65271
1.6618,0.2884,39.8900,100,96,65274
1.6569,0.2933,39.9600,100,96,65278
1.6911,0.3226,39.8000,100,96,65282
1.6813,0.2933,39.9300,100,96,65285
1.7351,0.2981,39.7300,100,96,65288
1.7155,0.2981,39.8300,100,96,65292
1.7107,0.2933,39.9300,100,96,65295
1.7253,0.2933,39.8600,100,96,65298
1.7204,0.2884,39.9300,100,96,65302
1.7644,0.2981,39.6700,100,96,65305
1.7351,0.2933,39.8300,100,96,65308
1.7253,0.2688,39.8900,100,96,65312
1.7351,0.2933,39.9300,100,96,65315
1.7302,0.2884,39.9300,100,96,65318
1.7791,0.3030,39.7700,100,96,65323
1.7791,0.2884,39.8900,100,96,65326
1.7644,0.2884,39.8000,100,96,65329
1.7595,0.2981,39.8900,100,96,65333
1.7937,0.2884,39.9300,100,96,65336
1.7889,0.2981,39.9600,100,96,65339
1.7595,0.2933,39.9300,100,96,65342
1.7791,0.2981,39.8300,100,96,65346
1.7595,0.2981,39.8900,100,96,65349
1.7595,0.2884,39.9300,100,96,65352
1.7791,0.2981,39.8000,100,96,65356
1.7498,0.2933,39.8900,100,96,65359
1.7644,0.2933,39.8000,100,96,65362
1.7351,0.2884,39.8600,100,96,65367
1.7449,0.2933,39.9600,100,96,65370
1.7742,0.2933,39.8600,100,96,65373
1.7546,0.2933,39.8900,100,96,65377
1.7986,0.2981,39.7000,100,96,65380
1.7595,0.2933,39.9300,100,96,65383
1.7595,0.2933,39.8900,100,96,65386
1.7742,0.2933,39.8600,100,96,65390
1.7546,0.2884,39.9600,100,96,65393
1.7937,0.2981,39.7300,100,96,65396
1.7693,0.2835,39.8300,100,96,65400
1.7595,0.2884,39.9300,100,96,65403
1.7791,0.2933,39.8900,100,96,65406
1.7889,0.2884,39.9300,100,96,65411
1.8573,0.3079,39.7700,100,96,65414
1.8328,0.2981,39.8600,100,96,65417
1.8328,0.2835,39.9300,100,96,65421
1.8377,0.2933,39.8900,100,96,65424
1.8426,0.2884,39.9300,100,96,65427
1.8866,0.3324,39.8300,100,96,65431
1.8719,0.2884,39.8900,100,96,65434
1.9013,0.2933,39.7700,100,96,65437
1.9013,0.2933,39.9600,100,96,65440
1.9257,0.2884,40.1300,100,96,65444
1.9795,0.2933,39.8300,100,96,65447
1.9599,0.2884,39.9600,100,96,65451
1.9892,0.2933,39.8000,100,96,65455
1.9550,0.2933,39.9300,100,96,65458
1.9501,0.2884,39.9600,100,96,65461
1.9697,0.3079,39.8300,100,96,65465
1.9355,0.2884,39.9600,100,96,65468
1.9453,0.2933,39.7300,100,96,65471
1.8915,0.2933,39.8300,100,96,65475
1.8426,0.2884,39.9600,100,96,65478
1.8280,0.2981,39.8600,100,96,65481
1.7546,0.2884,39.9300,100,96,65484
1.7791,0.2981,39.7700,100,96,65488
1.7009,0.3030,39.8600,100,95,65492
1.6667,0.2933,39.9300,100,95,65497
1.7009,0.2884,39.8300,100,95,65500
1.6569,0.2884,39.9600,100,95,65503
1.6569,0.2933,39.9300,100,95,65507
1.6862,0.2981,39.8300,100,95,65510
1.6667,0.3421,39.9300,100,95,65513
1.6813,0.2688,39.8000,100,95,65517
1.6569,0.2933,39.9300,100,95,65520
1.6667,0.2884,39.9600,100,95,65523
1.7155,0.2981,39.8000,100,95,65527
1.7595,0.2933,39.9300,100,95,65530
1.9013,0.2884,39.8600,100,95,65533
2.0577,0.3128,39.8900,100,95,65538
2.2923,0.2933,39.9600,100,95,65541
2.6002,0.2933,39.8300,100,95,65544
2.8348,0.2981,39.9300,100,95,65547
3.1134,0.2688,39.7000,100,95,65551
3.1769,0.2981,39.8000,100,95,65554
3.1232,0.2933,39.9300,100,95,65557
3.0156,0.2981,39.8900,100,95,65561
2.8006,0.2884,39.9300,100,95,65564
2.6442,0.2981,39.6400,100,95,65567
2.3754,0.2933,39.8600,100,95,65571
2.1652,0.2884,39.8900,100,95,65574
2.0137,0.2933,39.8900,100,95,65577
1.8133,0.2884,39.9600,100,95,65581
1.7302,0.3030,39.7700,100,95,65585
1.5934,0.3030,39.8600,100,95,65588
1.5249,0.2884,39.9600,100,95,65591
1.4858,0.2933,39.9300,100,95,65595
1.4565,0.2884,39.9300,100,95,65598
1.4663,0.3030,39.8000,100,95,65601
1.4321,0.2933,39.8900,100,95,65605
1.4321,0.2933,39.8000,100,95,65608
1.4223,0.2933,39.9300,100,95,65611
1.4467,0.2884,39.9600,100,95,65615
1.4907,0.3079,39.8300,100,95,65618
1.4809,0.2884,39.9300,100,95,65622
1.5249,0.2688,39.8600,100,95,65625
1.5054,0.2884,39.9300,100,95,65629
1.5200,0.2981,39.9300,100,95,65632
1.5591,0.2933,39.8300,100,95,65635
1.5591,0.2884,39.9300,100,95,65639
1.5885,0.2933,39.7700,100,95,65642
1.5738,0.2884,39.8900,100,95,65645
1.5836,0.2884,39.9300,100,95,65649
1.5982,0.2981,39.8900,100,95,65652
1.6422,0.2884,39.9300,100,95,65655
1.6813,0.2981,39.7000,100,95,65659
1.6813,0.2981,39.8600,100,95,65662
1.6813,0.2933,39.9300,100,95,65666
1.7107,0.2933,39.8300,100,95,65670
1.7107,0.2835,39.9300,100,95,65673
1.7693,0.3030,39.6400,100,95,65676
1.7498,0.2933,39.8600,100,95,65679
1.7498,0.2884,39.8900,100,95,65683
1.7644,0.3128,39.9300,100,95,65686
1.7742,0.2884,39.9300,100,95,65689
1.8377,0.3030,39.7300,100,95,65693
1.8231,0.2884,39.9300,100,95,65696
1.8475,0.2933,39.8300,100,95,65699
1.8573,0.2981,39.9300,100,95,65703
1.8622,0.2884,39.8900,100,95,65707
1.9062,0.2981,39.8600,100,95,65710
1.9013,0.2933,40.0300,100,95,65714
1.9453,0.3030,39.8900,100,95,65717
1.9306,0.2933,39.9300,100,95,65720
1.9453,0.2884,39.9300,100,95,65723
1.9892,0.2933,39.8300,100,95,65727
1.9746,0.2933,39.5700,100,95,65730
2.0283,0.2933,39.7700,100,95,65733
2.0137,0.2933,39.8600,100,95,65737
2.0137,0.2884,39.8900,100,95,65740
2.0381,0.2981,39.8300,100,95,65743
2.0137,0.2933,40.0000,100,95,65747
2.0674,0.2981,39.7300,100,95,65751
2.0430,0.2933,39.8600,100,95,65754
2.0430,0.2884,39.9300,100,95,65758
2.0577,0.2981,39.8900,100,95,65761
2.0283,0.2786,39.9300,100,95,65764
2.0626,0.2981,39.7000,100,95,65767
2.0186,0.2933,39.9600,100,95,65771
1.9990,0.3030,39.8900,100,95,65774
2.0186,0.2933,39.9300,100,95,65777
1.9795,0.2884,39.9300,100,95,65781
2.0235,0.2884,39.7300,100,95,65784
1.9453,0.2933,39.8900,100,95,65787
1.9110,0.2933,39.8300,100,95,65792
1.8719,0.2933,39.9300,100,95,65795
1.8328,0.2933,39.9300,100,95,65798
1.8280,0.2688,39.7700,100,95,65802
1.7693,0.2981,39.8600,100,95,65805
1.7498,0.2933,39.8300,100,95,65808
1.7107,0.2933,39.9300,100,95,65811
1.6813,0.2884,39.9300,100,95,65815
1.6911,0.2981,39.8600,100,95,65818
1.6373,0.2933,39.8300,100,95,65821
1.6569,0.2933,39.8000,100,95,65825
1.6178,0.2835,39.8900,100,95,65828
1.6178,0.2884,39.9300,100,95,65831
1.6471,0.2933,39.8600,100,95,65836
1.6227,0.2884,39.8600,100,95,65839
1.6520,0.2933,39.7700,100,95,65842
1.6276,0.2933,39.8900,100,95,65846
1.6227,0.2933,39.9300,100,95,65849
1.6471,0.2981,39.9600,100,95,65852
1.6325,0.2981,39.8900,100,95,65856
1.6862,0.2981,39.7700,100,95,65859
1.6569,0.3177,39.8000,100,95,65862
1.6667,0.2933,39.9300,100,95,65865
1.6667,0.2933,39.8900,100,95,65869
1.7058,0.2884,39.9300,100,95,65872
1.7302,0.3079,39.7000,100,95,65875
1.7058,0.3128,39.8300,100,95,65880
1.6960,0.2884,39.8300,100,95,65883
1.7009,0.2933,39.8900,100,95,65886
1.6960,0.2981,39.9300,100,95,65890
1.7498,0.2981,39.7700,100,95,65893
1.7253,0.2933,39.9300,100,95,65896
1.7742,0.2933,39.8300,100,95,65900
1.7302,0.2933,39.9600,100,95,65903
1.7351,0.2933,39.9300,100,95,65906
1.7546,0.2981,39.8600,100,95,65909
1.7498,0.2933,39.8300,100,95,65913
1.7840,0.2884,39.8300,100,95,65916
1.7693,0.2933,40.0300,100,95,65920
1.7693,0.2981,39.9300,100,95,65924
1.7889,0.2981,39.8000,100,95,65927
1.7693,0.3030,40.0000,100,95,65930
1.7986,0.2884,39.7700,100,95,65934
1.7937,0.2933,39.8300,100,95,65937
1.7986,0.2884,39.9600,100,95,65940
1.8231,0.2981,39.8300,100,95,65944
1.7986,0.2933,39.8600,100,95,65947
1.8377,0.3275,39.6400,100,95,65950
1.8133,0.2933,39.8600,100,95,65953
1.8035,0.2884,39.9300,100,95,65957
1.8133,0.2884,39.8900,100,95,65960
1.7986,0.2884,40.0300,100,95,65964
1.8426,0.3324,39.7000,100,95,65968
1.7986,0.2933,39.8300,100,95,65971
1.7791,0.2884,39.9300,100,95,65974
1.7791,0.2933,39.9300,100,95,65978
1.7742,0.3030,39.9300,100,95,65981
1.8280,0.3079,39.7700,100,95,65984
1.7889,0.2933,39.8600,100,95,65988
1.7986,0.2933,39.8300,100,95,65991
1.7986,0.2933,39.9600,100,95,65994
1.8426,0.2933,39.9300,100,95,65998
1.8524,0.2981,39.8000,100,95,66001
1.8475,0.2884,39.9300,100,95,66004
1.8671,0.2981,39.8000,100,95,66008
1.8524,0.2884,40.0600,100,95,66012
1.8524,0.2884,39.9300,100,95,66015
1.8817,0.2933,39.8300,100,95,66018
1.8719,0.2933,39.9300,100,95,66022
1.9110,0.2933,39.8000,100,95,66025
1.9062,0.2884,39.8900,100,95,66028
1.9306,0.2884,39.9300,100,95,66032
1.9648,0.2933,39.8300,100,95,66035
1.9501,0.2884,40.0000,100,95,66038
1.9941,0.2933,39.7300,100,95,66042
1.9599,0.2884,39.9300,100,95,66045
1.9501,0.2884,39.8600,100,95,66049
1.9990,0.2981,39.8600,100,95,66052
1.9404,0.2884,39.9600,100,95,66056
1.9697,0.2981,39.2200,100,95,66059
1.9306,0.3030,39.8600,100,95,66062
1.8524,0.2933,40.0000,100,95,66066
1.8133,0.2981,39.8900,100,95,66069
1.7693,0.2884,39.9600,100,95,66072
1.7840,0.3030,39.7000,100,95,66076
1.7204,0.3030,39.8300,100,95,66079
1.7009,0.2884,39.8600,100,95,66082
1.6813,0.2933,39.9300,100,95,66085
1.6667,0.2884,39.8600,100,95,66089
1.7058,0.2981,39.8300,100,95,66093
1.6813,0.2981,39.8900,100,95,66096
1.6911,0.2933,39.8300,100,95,66100
1.6764,0.2688,39.9300,100,95,66103
1.6716,0.2884,39.9300,100,95,66108
1.6764,0.2884,39.9300,100,95,66111
1.7253,0.2981,39.8300,100,95,66114
1.7840,0.2933,39.9300,100,95,66118
1.9501,0.2981,39.7300,100,95,66121
2.1212,0.2981,39.8000,100,95,66124
2.3558,0.3177,39.9600,100,95,66128
2.6686,0.2981,39.8600,100,95,66131
2.8983,0.2884,39.9300,100,95,66135
3.1769,0.2884,39.7000,100,95,66139
3.1965,0.2933,39.9300,100,95,66142
3.1085,0.2884,39.9300,100,95,66145
2.9619,0.2933,39.8900,100,95,66148
2.7419,0.2933,39.8600,100,95,66152
2.6197,0.3079,39.7300,100,95,66155
2.3216,0.2981,39.8600,100,95,66158
2.1212,0.3030,39.8900,100,95,66162
1.9453,0.2884,39.9300,100,95,66165
1.7889,0.2981,39.9300,100,95,66168
1.7009,0.3030,39.8000,100,95,66172
1.5934,0.2933,40.0000,100,95,66176
1.5494,0.2933,39.8000,100,95,66179
1.4907,0.2933,39.9300,100,95,66183
1.4712,0.2884,40.0300,100,95,66186
1.4809,0.3030,39.8300,100,95,66189
1.4565,0.2933,39.9300,100,95,66192
1.4761,0.2981,39.8000,100,95,66196
1.4712,0.2835,39.8900,100,95,66199
1.4663,0.2933,40.0300,100,95,66202
1.4956,0.2981,39.8300,100,95,66206
1.4809,0.2884,39.9600,100,95,66209
1.5152,0.3079,39.7300,100,95,66212
1.5152,0.2933,39.8600,100,95,66216
1.5249,0.2884,39.8600,100,95,66220
1.5640,0.3030,39.8300,100,95,66223
1.5640,0.2884,39.9300,100,95,66227
1.6129,0.2981,39.7300,100,95,66230
1.5982,0.2688,39.8600,100,95,66233
1.6178,0.2884,39.9300,100,95,66236
1.6422,0.2933,39.9300,100,95,66240
1.6618,0.2933,39.9300,100,95,66243
1.7253,0.3324,39.6700,100,95,66246
1.7058,0.2981,39.8600,100,95,66250
1.7107,0.2884,39.8900,100,95,66253
1.7351,0.2688,39.8900,100,95,66256
1.7449,0.2884,40.0000,100,95,66260
1.8084,0.3079,39.7300,100,95,66264
1.7986,0.2981,39.8900,100,95,66267
1.8182,0.2933,39.8300,100,95,66271
1.8133,0.2981,39.9300,100,95,66274
1.8231,0.2884,39.9600,100,95,66277
1.8671,0.2981,39.8000,100,95,66281
1.8622,0.2933,39.9300,100,95,66284
1.9013,0.2981,39.0000,100,95,66287
1.8866,0.2933,39.9300,100,95,66290
1.9013,0.2933,39.9300,100,95,66294
1.9355,0.2933,40.0600,100,95,66297
1.9355,0.2835,39.9300,100,95,66300
1.9892,0.2688,39.8300,100,95,66305
1.9697,0.2884,39.8900,100,95,66308
1.9795,0.2884,40.0000,100,95,66311
2.0088,0.2981,39.8600,100,95,66315
1.9941,0.3128,39.9300,100,95,66318
2.0528,0.2981,39.7300,100,95,66321
2.0430,0.2981,40.0300,100,95,66324
2.0381,0.2884,40.0000,100,95,66328
2.0674,0.2981,39.8900,100,95,66331
2.0577,0.2933,39.9300,100,95,66334
2.1114,0.2981,39.7300,100,95,66338
2.0772,0.2884,39.8900,100,95,66341
2.0723,0.2933,39.9300,100,95,66344
2.0821,0.2933,39.8900,100,95,66349
2.0626,0.2933,39.9600,100,95,66352
2.1114,0.3079,39.7000,100,95,66355
2.0577,0.2933,39.8300,100,95,66359
2.0626,0.2933,39.8600,100,95,66362
2.0283,0.2933,39.9600,100,95,66365
1.9990,0.2933,39.9300,100,95,66368
2.0186,0.3030,39.8300,100,95,66372
1.9550,0.2981,39.9300,100,95,66375
1.9355,0.2981,39.8300,100,95,66378
1.8915,0.2933,39.9300,100,95,66382
1.8573,0.2933,39.9600,100,95,66385
1.8524,0.2981,39.7700,100,95,66388
1.8182,0.2884,39.9300,100,95,66393
1.7791,0.2981,39.8600,100,95,66396
1.7302,0.2933,39.8900,100,95,66399
1.7107,0.2884,39.9600,100,95,66403
1.7155,0.2933,39.8300,100,95,66406
1.6862,0.2933,39.9600,100,95,66409
1.6960,0.2933,39.8600,100,95,66412
1.6618,0.2933,39.8600,100,95,66416
1.6569,0.2933,39.9600,100,95,66419
1.6813,0.2981,39.8300,100,95,66422
1.6716,0.2933,39.9300,100,95,66426
1.7107,0.2981,39.6700,100,95,66429
1.6813,0.2933,39.8600,100,95,66433
1.6862,0.2933,39.9300,100,95,66437
1.7107,0.2981,39.8900,100,95,66440
1.7058,0.2933,40.0300,100,95,66443
1.7546,0.3079,39.7000,100,95,66447
1.7204,0.2981,39.8300,100,95,66450
1.7155,0.2884,39.9300,100,95,66453
1.7302,0.2688,39.9300,100,95,66457
1.7253,0.2933,39.9600,100,95,66460
1.7693,0.3030,39.7300,100,95,66463
1.7400,0.2981,39.8900,100,95,66466
1.7449,0.2933,39.8600,100,95,66470
1.7302,0.2981,39.9300,100,95,66473
1.7351,0.2884,39.9300,100,95,66477
1.7693,0.3030,39.8000,100,95,66481
1.7693,0.2933,39.9300,100,95,66484
1.7840,0.2981,39.8000,100,95,66487
1.7644,0.2981,40.0300,100,95,66491
1.7644,0.2933,39.9300,100,95,66494
1.7937,0.2933,39.8600,100,95,66497
1.7791,0.2981,39.9300,100,95,66501
1.8133,0.2933,39.8000,100,95,66504
1.8231,0.2933,39.8900,100,95,66507
1.7986,0.2884,39.9300,100,95,66510
1.8231,0.2981,39.8000,100,95,66514
1.7986,0.2933,39.9300,100,95,66518
1.8426,0.2981,39.7300,100,95,66521
1.8280,0.3030,39.8300,100,95,66525
1.8182,0.2884,39.9300,100,95,66528
1.8426,0.2933,39.9300,100,95,66531
1.8231,0.2933,39.9300,100,95,66535
1.8719,0.3030,39.6400,100,95,66538
1.8377,0.2884,39.8000,100,95,66541
1.8328,0.2884,39.9600,100,95,66545
1.8377,0.2933,39.9300,100,95,66548
1.8280,0.2981,39.9300,100,95,66551
1.8817,0.3079,39.7700,100,95,66554
1.8426,0.3030,39.8600,100,95,66558
1.8377,0.2884,39.8600,100,95,66562
1.8328,0.2933,39.9300,100,95,66565
1.8377,0.2981,39.9300,100,95,66569
1.8622,0.3030,39.0300,100,95,66572
1.8377,0.2933,39.8900,100,95,66575
1.8622,0.2933,39.8300,100,95,66579
1.8524,0.3079,39.9300,100,95,66582
1.8768,0.2884,39.9300,100,95,66585
1.9159,0.3030,39.8000,100,95,66589
1.8915,0.2884,39.8900,100,95,66592
1.9453,0.2981,39.8300,100,95,66595
1.9062,0.2884,39.8900,100,95,66598
1.9208,0.2933,40.1000,100,95,66603
1.9697,0.2981,39.8300,100,95,66606
1.9746,0.2933,39.9600,100,95,66609
2.0137,0.2933,39.7700,100,95,66613
1.9941,0.2933,39.8600,100,95,66616
1.9844,0.2933,39.9300,100,95,66619
2.0186,0.2981,39.8600,100,95,66623
1.9795,0.2933,39.9300,100,95,66626
2.0235,0.2981,39.7000,100,95,66629
1.9746,0.2688,39.8900,100,95,66633
1.9599,0.2933,39.9300,100,95,66636
1.9453,0.3177,39.8900,100,95,66639
1.9062,0.2933,40.0300,100,95,66642
1.9208,0.3079,39.6700,100,95,66647
1.8377,0.2933,39.8300,100,95,66650
1.7791,0.2884,39.8900,100,95,66653
1.7498,0.2933,39.8900,100,95,66657
1.7204,0.2688,39.9300,100,95,66660
1.7498,0.2981,39.7300,100,95,66663
1.7107,0.2981,39.8600,100,95,66667
1.7009,0.2933,39.8300,100,95,66670
1.6862,0.2933,39.9300,100,95,66673
1.7204,0.2933,39.9300,100,95,66677
1.7155,0.2981,39.4100,100,95,66680
1.7058,0.2933,39.9300,100,95,66683
1.7302,0.2981,39.8000,100,95,66686
1.7058,0.2933,39.9600,100,95,66691
1.7009,0.2933,39.9300,100,95,66694
1.7058,0.2933,39.8600,100,95,66697
1.6862,0.2933,39.9300,100,95,66701
1.7155,0.2933,39.8300,100,95,66704
1.7302,0.2933,39.8900,100,95,66707
1.8133,0.2933,39.9600,100,95,66711
1.9599,0.2981,39.8900,100,95,66714
3.1525,0.3226,39.8900,100,95,66718
3.1965,0.2884,39.9300,100,95,66721
3.2160,0.3079,39.7000,100,95,66724
3.0059,0.3177,39.8300,100,95,66728
2.7810,0.2933,39.8600,100,95,66732
2.5611,0.2933,39.9300,100,95,66735
2.3265,0.2981,39.9300,100,95,66739
2.1652,0.2981,39.8000,100,95,66742
1.9404,0.2981,39.9300,100,95,66745
1.7889,0.2933,39.8000,100,95,66748
1.6618,0.2933,39.9300,100,95,66752
1.5738,0.3128,39.9300,100,95,66755
1.5347,0.2981,39.8600,100,95,66758
1.4809,0.2933,40.0000,100,95,66762
1.4809,0.2981,39.8300,100,95,66765
1.4565,0.2933,39.9300,100,95,66768
1.4565,0.2933,39.9300,100,95,66772
1.4907,0.2884,39.8300,100,95,66776
1.4663,0.2933,39.9300,100,95,66779
1.5005,0.3030,39.7700,100,95,66783
1.4858,0.2933,39.8600,100,95,66786
1.5005,0.2933,39.9300,100,95,66789
1.5396,0.3030,39.8300,100,95,66792
1.5347,0.2933,40.0000,100,95,66796
1.5738,0.2981,39.7700,100,95,66799
1.5640,0.2933,39.8600,100,95,66802
1.5689,0.2933,39.9600,100,95,66806
1.5982,0.3030,39.8600,100,95,66809
1.6080,0.2933,39.9600,100,95,66812
1.6618,0.3030,39.7000,100,95,66817
1.6422,0.3226,39.8900,100,95,66820
1.6471,0.2933,39.9300,100,95,66823
1.6764,0.2981,39.9600,100,95,66826
1.7107,0.2933,39.9300,100,95,66830
1.7546,0.3079,39.7700,100,95,66833
1.7204,0.3177,39.8900,100,95,66836
1.7351,0.2884,39.8600,100,95,66840
1.7351,0.2933,39.9600,100,95,66843
1.7498,0.2933,39.9300,100,95,66846
1.8084,0.3030,39.7700,100,95,66850
1.7986,0.2933,39.8600,100,95,66853
1.8280,0.3030,39.8000,100,95,66856
1.8280,0.2933,39.9300,100,95,66861
1.8328,0.2933,39.9600,100,95,66864
1.9110,0.2884,39.8300,100,95,66867
1.8768,0.2933,39.9300,100,95,66870
1.9159,0.2981,39.8000,100,95,66874
1.8964,0.2933,39.9300,100,95,66877
1.9159,0.2933,40.0000,100,95,66880
1.9453,0.2981,39.8600,100,95,66884
1.9550,0.2933,39.9600,100,95,66887
1.9990,0.2933,39.7700,100,95,66890
1.9941,0.2981,39.8900,100,95,66894
1.9990,0.2933,39.9600,100,95,66897
2.0332,0.3030,39.8900,100,95,66900
2.0283,0.2933,39.9300,100,95,66905
2.0870,0.2981,39.7000,100,95,66908
2.0723,0.2981,39.8600,100,95,66911
2.0577,0.2933,39.9300,100,95,66914
2.0723,0.2981,39.8900,100,95,66918
2.0528,0.2933,39.9600,100,95,66921
2.1114,0.3030,39.6700,100,95,66924
2.0723,0.2933,39.8300,100,95,66928
2.0577,0.2884,39.9300,100,95,66931
2.0577,0.2981,39.8900,100,95,66934
2.0381,0.2884,39.9300,100,95,66938
2.0723,0.3079,39.7700,100,95,66941
2.0137,0.3226,39.8600,100,95,66945
1.9941,0.2933,39.8900,100,95,66948
1.9599,0.2933,39.9600,100,95,66952
1.9306,0.2933,39.9300,100,95,66955
1.9257,0.3030,39.8300,100,95,66958
1.8622,0.2981,39.7700,100,95,66962
1.8426,0.2981,39.8000,100,95,66965
1.7840,0.2933,39.8900,100,95,66968
1.7546,0.2933,39.9300,100,95,66972
1.7546,0.3030,39.8000,100,95,66975
1.6960,0.2933,40.0300,100,95,66978
1.6960,0.3030,39.8300,100,95,66982
1.6618,0.2933,39.8900,100,95,66985
1.6373,0.2933,39.9600,100,95,66989
1.6471,0.2981,39.8300,100,95,66992
1.6276,0.2933,40.1300,100,95,66996
1.6471,0.2835,39.7700,100,95,66999
1.6276,0.2933,39.8000,100,95,67002
1.6227,0.3177,39.9300,100,95,67006
1.6813,0.2884,39.8600,100,95,67009
1.6373,0.2933,39.9600,100,95,67012
1.6813,0.3079,39.7300,100,95,67016
1.6520,0.2933,40.1000,100,95,67019
1.6520,0.3030,39.9300,100,95,67022
1.6716,0.2981,39.8900,100,95,67026
1.6716,0.2981,39.9300,100,95,67030
1.7400,0.3079,39.7000,100,95,67033
1.7058,0.2981,39.8600,100,95,67036
1.6960,0.2884,39.8600,100,95,67040
1.7058,0.2981,39.9300,100,95,67043
1.7058,0.2933,40.0000,100,95,67046
1.7595,0.3030,39.7700,100,95,67050
1.7351,0.2981,39.8900,100,95,67053
1.7449,0.2933,39.8300,100,95,67056
1.7351,0.2884,39.9300,100,95,67060
1.7351,0.2933,39.9300,100,95,67063
1.7742,0.2981,39.7700,100,95,67066
1.7546,0.2933,40.0000,100,95,67070
1.7840,0.3275,39.8000,100,95,67074
1.7595,0.2933,39.9600,100,95,67077
1.7595,0.2933,40.0000,100,95,67081
1.7791,0.2933,39.8300,100,95,67084
1.7791,0.2933,39.9600,100,95,67087
1.8035,0.2933,39.7700,100,95,67090
1.7840,0.2933,39.8900,100,95,67094
1.7889,0.2933,40.0300,100,95,67097
1.8035,0.3079,39.8300,100,95,67100
1.7840,0.2933,39.9300,100,95,67104
1.8231,0.2981,39.8300,100,95,67107
1.8035,0.3030,39.8300,100,95,67110
1.8182,0.2884,39.9300,100,95,67115
1.8133,0.3030,39.8900,100,95,67118
1.7889,0.2884,39.9600,100,95,67121
1.8377,0.3030,39.6700,100,95,67125
1.8231,0.2884,39.8300,100,95,67128
1.7889,0.2884,39.9300,100,95,67131
1.7937,0.3030,39.8900,100,95,67134
1.7840,0.2933,39.8900,100,95,67138
1.8426,0.3079,39.7300,100,95,67141
1.8084,0.3030,39.8900,100,95,67144
1.8035,0.2933,39.8900,100,95,67148
1.8035,0.2933,39.9300,100,95,67151
1.7986,0.3079,39.9300,100,95,67154
1.8280,0.3030,39.8300,100,95,67159
1.8084,0.2981,40.0000,100,95,67162
1.8280,0.2981,39.7700,100,95,67165
1.8280,0.2933,39.9300,100,95,67168
1.8426,0.2981,40.0000,100,95,67172
1.8866,0.2981,39.8000,100,95,67175
1.8622,0.2933,39.8900,100,95,67178
1.8964,0.2981,39.8000,100,95,67182
1.9062,0.2884,39.8900,100,95,67185
1.8866,0.2933,39.9300,100,95,67188
1.9208,0.2933,39.8300,100,95,67192
1.9159,0.2933,39.9600,100,95,67195
1.9648,0.2933,40.1300,100,95,67198
1.9648,0.2688,39.8300,100,95,67203
1.9599,0.2933,39.9600,100,95,67206
1.9892,0.3030,39.8600,100,95,67209
1.9697,0.2981,39.9300,100,95,67212
2.0479,0.3030,39.7000,100,95,67216
1.9697,0.2933,39.8900,100,95,67219
1.9550,0.2933,39.9300,100,95,67222
1.9697,0.2884,39.9300,100,95,67226
1.9062,0.2933,39.9600,100,95,67229
1.9257,0.3079,39.6400,100,95,67232
1.8524,0.2884,39.8300,100,95,67236
1.7937,0.2884,40.2000,100,95,67239
1.7693,0.2933,39.8900,100,95,67243
1.7400,0.2933,39.1900,100,95,67247
1.7644,0.3030,39.7700,100,95,67250
1.7155,0.2981,39.8600,100,95,67253
1.7009,0.2933,39.8300,100,95,67256
1.6813,0.3030,39.9300,100,95,67260
1.6764,0.2933,40.0300,100,95,67263
1.7253,0.3030,39.8000,100,95,67266
1.6960,0.2981,39.9600,100,95,67270
1.7155,0.2981,40.1300,100,95,67273
1.7204,0.2981,39.9300,100,95,67276
1.6862,0.2933,39.9300,100,95,67280
1.6911,0.2981,39.8600,100,95,67283
1.6764,0.2933,40.1000,100,95,67287
1.7009,0.2933,39.7700,100,95,67291
1.6813,0.2933,39.9600,100,95,67294
1.7155,0.2933,39.9300,100,95,67297
1.8133,0.2981,39.8300,100,95,67300
1.9208,0.3177,39.8900,100,95,67304
2.1896,0.2884,39.7300,100,95,67307
2.4096,0.2981,39.8300,100,95,67310
2.6686,0.2933,40.1300,100,95,67314
2.9619,0.3030,39.8600,100,95,67317
3.1134,0.2933,39.8300,100,95,67320
3.2600,0.3128,39.7000,100,95,67324
2.3412,0.3030,40.1300,100,95,67328
2.0919,0.2884,39.8900,100,95,67332
1.9062,0.2981,39.8300,100,95,67335
1.7498,0.2933,39.9600,100,95,67338
1.6325,0.2933,39.9300,100,95,67342
1.5689,0.3030,39.8600,100,95,67345
1.4956,0.2981,39.9300,100,95,67348
1.4809,0.2981,39.8000,100,95,67351
1.4418,0.2933,39.9300,100,95,67355
1.4321,0.2981,39.9300,100,95,67358
1.4467,0.3030,39.8300,100,95,67361
1.4223,0.3128,39.9300,100,95,67365
1.4418,0.3030,39.8000,100,95,67368
1.4467,0.2933,39.8600,100,95,67372
1.4663,0.2933,39.9300,100,95,67376
1.5005,0.2981,39.8600,100,95,67379
1.4956,0.2933,39.8900,100,95,67382
1.5445,0.2981,39.7000,100,95,67386
1.5347,0.3030,39.8600,100,95,67389
1.5494,0.2884,39.9300,100,95,67392
1.5934,0.2688,39.8600,100,95,67395
1.5836,0.2933,39.9300,100,95,67399
1.6373,0.3030,39.7000,100,95,67402
1.6129,0.2933,39.8300,100,95,67405
1.6227,0.2933,40.3300,100,95,67409
1.6471,0.2981,39.9300,100,95,67412
1.6618,0.2933,39.9300,100,95,67416
1.7546,0.2981,39.7300,100,95,67420
1.6960,0.2981,39.8900,100,95,67423
1.7009,0.2933,39.8600,100,95,67426
1.7107,0.2981,39.9300,100,95,67430
1.7204,0.2933,39.9600,100,95,67433
1.7742,0.3030,39.7700,100,95,67436
1.7644,0.2981,39.8900,100,95,67440
1.7937,0.2981,39.8000,100,95,67443
1.7986,0.2933,39.9600,100,95,67446
1.8035,0.2933,39.9300,100,95,67449
1.8475,0.2981,39.7700,100,95,67453
1.8426,0.2884,39.9300,100,95,67457
1.8817,0.3030,39.9300,100,95,67460
1.8622,0.2981,39.9300,100,95,67464
1.8817,0.2933,39.9300,100,95,67467
1.9208,0.2981,39.8600,100,95,67470
1.9257,0.2933,39.9300,100,95,67474
1.9697,0.2981,39.8300,100,95,67477
1.9648,0.2933,39.8900,100,95,67480
1.9795,0.2933,39.9300,100,95,67483
2.0088,0.2981,39.8900,100,95,67487
2.0235,0.2933,39.9300,100,95,67490
2.0674,0.3030,39.7000,100,95,67493
2.0479,0.2981,39.8600,100,95,67497
2.0381,0.2933,39.9300,100,95,67501
2.0479,0.2981,39.8900,100,95,67504
2.0381,0.2933,39.9300,100,95,67508
2.0968,0.3030,39.6400,100,95,67511
2.0626,0.2688,39.8300,100,95,67514
2.0332,0.2933,39.9300,100,95,67518
2.0332,0.2981,39.9300,100,95,67521
2.0283,0.2884,39.9300,100,95,67524
2.0674,0.3079,39.7700,100,95,67527
2.0186,0.2981,39.8600,100,95,67531
1.9990,0.2933,39.8900,100,95,67534
1.9746,0.2981,39.7700,100,95,67537
1.9453,0.2933,39.9300,100,95,67542
1.9453,0.3030,39.8000,100,95,67545
1.8866,0.2981,39.9300,100,95,67548
1.8719,0.2981,40.0600,100,95,67552
1.8231,0.2933,39.9300,100,95,67555
1.7889,0.2933,39.9600,100,95,67558
1.7889,0.2981,39.7700,100,95,67561
1.7302,0.2981,39.9300,100,95,67565
1.7302,0.3030,39.8000,100,95,67568
1.6813,0.2933,39.9300,100,95,67571
1.6764,0.2933,39.9600,100,95,67575
1.6716,0.3079,39.8600,100,95,67578
1.6764,0.2933,39.9300,100,95,67581
1.6569,0.2981,39.7700,100,95,67586
1.6276,0.2933,39.8600,100,95,67589
1.6178,0.2933,39.9600,100,95,67592
1.6373,0.3275,39.8600,100,95,67596
1.6227,0.2688,39.9600,100,95,67599
1.6667,0.3030,40.0000,100,95,67602
1.6325,0.3030,39.8900,100,95,67605
1.6422,0.2933,39.9600,100,95,67609
1.6618,0.3519,39.8900,100,95,67612
1.6471,0.2933,39.9300,100,95,67615
1.7155,0.3079,39.6700,100,95,67619
1.7253,0.2884,39.8300,100,95,67622
1.6813,0.2933,39.9600,100,95,67625
1.6911,0.2884,39.8900,100,95,67630
1.7009,0.2933,39.9300,100,95,67633
1.7546,0.2981,39.7700,100,95,67636
1.7302,0.2981,39.8900,100,95,67640
1.7351,0.2981,39.8000,100,95,67643
1.7351,0.2981,39.9300,100,95,67646
1.7155,0.2933,39.9600,100,95,67649
1.7498,0.3030,39.7700,100,95,67653
1.7351,0.2933,39.8900,100,95,67656
1.7693,0.2981,39.7700,100,95,67659
1.7449,0.2981,39.9300,100,95,67663
1.7449,0.2933,39.9600,100,95,67666
1.7644,0.3030,39.8300,100,95,67670
1.7644,0.2981,39.9300,100,95,67674
1.7742,0.2933,39.8000,100,95,67677
1.7498,0.2981,39.8900,100,95,67680
1.7546,0.2933,39.9600,100,95,67684
1.7742,0.3030,39.8300,100,95,67687
1.7546,0.2933,39.9300,100,95,67690
1.7937,0.3030,39.7000,100,95,67694
1.7742,0.3030,39.8000,100,95,67697
1.7693,0.2981,39.9600,100,95,67700
1.7693,0.2981,39.8900,100,95,67703
1.7449,0.2933,39.9300,100,95,67707
1.7986,0.3030,39.7000,100,95,67710
1.7693,0.2981,39.8000,100,95,67714
1.7644,0.2933,39.9300,100,95,67718
1.7693,0.2981,39.9600,100,95,67721
1.7595,0.2933,39.9300,100,95,67724
1.8377,0.2981,39.7300,100,95,67728
1.7742,0.2981,39.7300,100,95,67731
1.7742,0.2933,39.8600,100,95,67734
1.7693,0.2981,40.0300,100,95,67738
1.7644,0.2933,39.9300,100,95,67741
1.7889,0.3030,39.8300,100,95,67744
1.7644,0.2981,40.0600,100,95,67747
1.7840,0.2933,39.8000,100,95,67751
1.7644,0.2981,39.9600,100,95,67755
1.7693,0.2933,39.2200,100,95,67758
1.7986,0.3030,39.8000,100,95,67762
1.7693,0.2981,39.9600,100,95,67765
1.7889,0.3030,39.5100,100,95,67768
1.7644,0.2981,39.8900,100,95,67772
1.7693,0.2933,39.9300,100,95,67775
1.8084,0.3275,39.8300,100,95,67778
1.7986,0.2981,39.8900,100,95,67781
1.8377,0.2884,39.7700,100,95,67785
1.8231,0.2933,39.8900,100,95,67788
1.8280,0.2981,39.9300,100,95,67791
1.8573,0.3030,39.8600,100,95,67795
1.8475,0.2933,39.9600,100,95,67799
1.8964,0.3324,39.7000,100,95,67802
1.8719,0.2933,39.9300,100,95,67806
1.9062,0.3275,39.9600,100,95,67809
1.9501,0.2981,39.8900,100,95,67812
1.9599,0.2933,39.9300,100,95,67816
2.0235,0.3079,39.6700,100,95,67819
1.9795,0.2981,39.8300,100,95,67822
1.9599,0.3128,39.9300,100,95,67825
1.9501,0.2981,39.9600,100,95,67829
1.9453,0.3177,39.9300,100,95,67832
1.9941,0.3030,39.7700,100,95,67835
1.9404,0.3177,39.8000,100,95,67840
1.9062,0.2981,39.8600,100,95,67843
1.8573,0.2981,39.9300,100,95,67846
1.8133,0.2933,40.1600,100,95,67850
1.8133,0.3030,39.8000,100,95,67853
1.7546,0.2981,39.9600,100,95,67856
1.7498,0.2981,39.8000,100,95,67860
1.7009,0.2981,39.9300,100,95,67863
1.6813,0.2933,39.9600,100,95,67866
1.6716,0.3128,39.8900,100,95,67869
1.6569,0.2981,39.9300,100,95,67873
1.6813,0.2981,39.8000,100,95,67876
1.6520,0.2884,39.9300,100,95,67879
1.6569,0.2933,39.9300,100,95,67884
1.6862,0.3030,39.8900,100,95,67887
1.6667,0.2981,39.9300,100,95,67890
1.7204,0.2981,39.7000,100,95,67894
1.7058,0.3079,39.8300,100,95,67897
1.6960,0.2933,39.9300,100,95,67900
1.7107,0.3226,39.8600,100,95,67904
1.7204,0.2933,39.9300,100,95,67907
1.7986,0.3030,39.7300,100,95,67910
1.8622,0.3030,39.8300,100,95,67913
2.0039,0.2884,39.9600,100,95,67917
2.2287,0.2981,39.1600,100,95,67920
2.4780,0.3177,39.9300,100,95,67923
2.8348,0.2981,39.7000,100,95,67928
3.0108,0.3030,39.7300,100,95,67931
3.1427,0.2933,39.8600,100,95,67934
3.1525,0.2981,39.9300,99,95,67938
2.1994,0.2933,40.0300,99,95,67941
2.0186,0.2933,39.9300,99,95,67944
1.8866,0.3226,39.7700,99,95,67948
1.7204,0.3030,39.8900,99,95,67951
1.6276,0.2981,39.8300,99,95,67954
1.5543,0.2981,39.9300,99,95,67957
1.4858,0.2933,40.0300,99,95,67961
1.4809,0.3030,39.8000,99,95,67964
1.4565,0.2933,39.9300,99,95,67968
1.4467,0.2981,39.9300,99,95,67971
1.4223,0.2981,39.9600,99,95,67975
1.4272,0.2933,39.9300,99,95,67978
1.4565,0.2884,39.8600,99,95,67981
1.4516,0.2933,39.8900,99,95,67984
1.4614,0.2981,39.8300,99,95,67988
1.4663,0.2981,39.9300,99,95,67991
1.4858,0.2884,39.9300,99,95,67994
1.5543,0.2981,39.7700,99,95,67997
1.5298,0.2981,39.9300,99,95,68001
1.5591,0.2981,39.8900,99,95,68004
1.5494,0.2981,39.9300,99,95,68007
1.5689,0.2933,39.9600,99,95,68012
1.6031,0.3030,39.7700,99,95,68015
1.5934,0.2981,39.9600,99,95,68018
1.6373,0.2884,39.8000,99,95,68021
1.6178,0.2981,39.9300,99,95,68025
1.6373,0.2933,40.0000,99,95,68028
1.6764,0.3030,39.8900,99,95,68031
1.6764,0.2981,39.9300,99,95,68034
1.7155,0.2981,39.8300,99,95,68037
1.7155,0.2981,40.0000,99,95,68041
1.7302,0.2884,39.9300,99,95,68044
1.7742,0.3177,39.8000,99,95,68047
1.7644,0.3030,39.8900,99,95,68051
1.7986,0.2981,39.8300,99,95,68055
1.7937,0.2933,39.9300,99,95,68058
1.8084,0.2933,39.9300,99,95,68061
1.8524,0.3030,39.7700,99,95,68064
1.8377,0.2981,39.9300,99,95,68068
1.8622,0.2884,39.8300,99,95,68071
1.8524,0.2981,40.0000,99,95,68074
1.8671,0.2933,40.0600,99,95,68078
1.9208,0.3030,39.8600,99,95,68081
1.9110,0.2981,39.9300,99,95,68084
1.9355,0.2981,39.8600,99,95,68087
1.9306,0.2981,39.9300,99,95,68090
1.9453,0.2933,39.9300,99,95,68094
1.9990,0.3030,39.8000,99,95,68098
1.9990,0.2981,39.9600,99,95,68101
2.0283,0.2933,39.8600,99,95,68104
2.0186,0.2981,40.0600,99,95,68108
2.0430,0.2933,39.9300,99,95,68111
2.0577,0.3030,39.8600,99,95,68114
2.0332,0.2981,39.8900,99,95,68117
2.0430,0.2933,39.8300,99,95,68121
2.0283,0.2981,39.9300,99,95,68124
2.0235,0.2933,39.9300,99,95,68127
2.0626,0.3079,39.8300,99,95,68130
2.0235,0.2981,39.8900,99,95,68134
2.0186,0.2884,39.8300,99,95,68137
2.0088,0.2933,39.9300,99,95,68141
1.9990,0.2933,40.0000,99,95,68144
2.0381,0.3030,39.7700,99,95,68148
1.9746,0.2981,39.8600,99,95,68151
1.9501,0.2933,40.1000,99,95,68154
1.9159,0.2981,40.0600,99,95,68157
1.9159,0.2933,39.9300,99,95,68161
1.9062,0.3128,39.8000,99,95,68164
1.8377,0.2981,39.3500,99,95,68167
1.7986,0.2933,39.8600,99,95,68170
1.7595,0.2933,39.9300,99,95,68174
1.7449,0.2933,39.9300,99,95,68177
1.7351,0.3079,39.8000,99,95,68180
1.6862,0.2981,39.9600,99,95,68184
1.6716,0.2981,39.8600,99,95,68188
1.6764,0.2884,39.9300,99,95,68191
1.6276,0.2933,39.9300,99,95,68194
1.6618,0.3030,39.7700,99,95,68197
1.6276,0.3030,39.8900,99,95,68201
1.6178,0.2981,39.8600,99,95,68204
1.6129,0.2981,40.0300,99,95,68207
1.6080,0.2688,39.9300,99,95,68210
1.6520,0.3177,39.8000,99,95,68214
1.6276,0.2981,39.9300,99,95,68217
1.6276,0.2933,39.8600,99,95,68220
1.6520,0.2884,39.9300,99,95,68224
1.6373,0.2981,39.9300,99,95,68228
1.6764,0.3372,39.8300,99,95,68231
1.6569,0.2981,40.1000,99,95,68234
1.6569,0.2933,39.8900,99,95,68237
1.6618,0.2981,39.9300,99,95,68241
1.6667,0.2933,39.9600,99,95,68244
1.7155,0.3030,39.7700,99,95,68247
1.6911,0.3030,39.9600,99,95,68250
1.7204,0.3030,39.8600,99,95,68254
1.6911,0.2981,39.9300,99,95,68257
1.7009,0.2981,39.9600,99,95,68260
1.7595,0.3079,39.7700,99,95,68263
1.7302,0.3079,39.8900,99,95,68268
1.7253,0.2933,39.8600,99,95,68271
1.7204,0.2981,39.9300,99,95,68274
1.7351,0.2884,39.9300,99,95,68277
1.7693,0.3177,39.7700,99,95,68281
1.7498,0.2981,39.8600,99,95,68284
1.7351,0.2933,39.8600,99,95,68287
1.7400,0.2981,39.8900,99,95,68290
1.7400,0.2933,39.9300,99,95,68294
1.7986,0.3079,39.5400,99,95,68297
1.7791,0.3030,39.9600,99,95,68300
1.7644,0.2933,39.8600,99,95,68303
1.7595,0.2981,39.8900,99,95,68307
1.7498,0.2981,39.9600,99,95,68311
1.8035,0.3079,39.7700,99,95,68314
1.7644,0.3079,39.8600,99,95,68317
1.7693,0.2933,39.9600,99,95,68321
1.7644,0.2981,39.8900,99,95,68324
1.7986,0.2933,39.9300,99,95,68327
1.8182,0.3079,39.7300,99,95,68330
1.7840,0.3030,39.8000,99,95,68334
1.7840,0.2884,39.8900,99,95,68337
1.7889,0.2981,39.9300,99,95,68340
1.7791,0.2933,39.9300,99,95,68343
1.8328,0.3079,39.7700,99,95,68347
1.7937,0.3030,39.9600,99,95,68350
1.7742,0.2933,39.8600,99,95,68354
1.7840,0.3030,39.9300,99,95,68357
1.7937,0.2933,40.0000,99,95,68361
1.8622,0.3226,39.7300,99,95,68364
1.8280,0.2933,39.8600,99,95,68367
1.8231,0.2933,39.9300,99,95,68370
1.8328,0.2981,39.9300,99,95,68374
1.8377,0.2933,39.9300,99,95,68377
1.9062,0.2884,39.7000,99,95,68380
1.8768,0.2981,39.8300,99,95,68383
1.8866,0.2933,39.8900,99,95,68387
1.9110,0.3030,39.8900,99,95,68390
1.9159,0.3030,39.8900,99,95,68393
1.9795,0.3079,39.7300,99,95,68397
1.9453,0.3030,39.8900,99,95,68401
1.9648,0.2981,39.8900,99,95,68404
1.9355,0.2981,39.9300,99,95,68407
1.9257,0.2933,39.9600,99,95,68410
1.9746,0.3079,39.7300,99,95,68414
1.9062,0.2981,39.8900,99,95,68417
1.8719,0.2933,39.8600,99,95,68420
1.8475,0.2981,39.9300,99,95,68423
1.8035,0.2688,39.9300,99,95,68427
1.8133,0.3030,39.7000,99,95,68430
1.7351,0.2981,39.8900,99,95,68433
1.7009,0.2884,39.8900,99,95,68436
1.7107,0.2933,39.8900,99,95,68441
1.6569,0.2933,39.9600,99,95,68444
1.6911,0.3079,39.7300,99,95,68447
1.6471,0.3030,39.8300,99,95,68450
1.6178,0.3030,39.8900,99,95,68454
1.6227,0.2981,39.9300,99,95,68457
1.6178,0.2933,39.9600,99,95,68460
1.6862,0.3128,39.7000,99,95,68463
1.6276,0.2884,39.8600,99,95,68467
1.6178,0.2933,39.8900,99,95,68470
1.6227,0.2981,39.9600,99,95,68473
1.6129,0.2933,39.9300,99,95,68476
1.6618,0.3079,39.7300,99,95,68481
1.6227,0.2981,39.8600,99,95,68484
1.6471,0.2933,39.8300,99,95,68487
1.7155,0.2981,39.8900,99,95,68490
1.8231,0.2933,39.9600,99,95,68494
2.0674,0.3079,39.7300,99,95,68497
2.2678,0.3079,39.8300,99,95,68500
2.5220,0.2884,39.8900,99,95,68503
2.7957,0.2981,39.9600,99,95,68507
3.0010,0.2835,39.9300,99,95,68510
3.2014,0.3079,39.7000,99,95,68513
3.1085,0.2981,39.8600,99,95,68516
2.9619,0.2884,40.1300,99,95,68520
2.7859,0.2981,39.9300,99,95,68524
2.5562,0.2933,39.9300,99,95,68527
2.3998,0.3079,39.7700,99,95,68530
2.1505,0.2981,39.9600,99,95,68534
1.9648,0.2884,39.9300,99,95,68537
1.8377,0.3030,39.9300,99,95,68540
1.6667,0.2933,40.0600,99,95,68543
1.6129,0.3079,39.7000,99,95,68547
1.4174,0.3030,39.8000,99,95,68550
1.3930,0.2981,39.9300,99,95,68554
1.3978,0.2933,39.8000,99,95,68557
1.3881,0.2884,39.9300,99,95,68560
1.3930,0.2933,39.9300,99,95,68563
1.4370,0.3079,39.8000,99,95,68568
1.4321,0.2981,40.1300,99,95,68571
1.4516,0.2933,39.8600,99,95,68574
1.4516,0.2981,39.9600,99,95,68577
1.4663,0.2933,39.9300,99,95,68581
1.5200,0.3030,39.7300,99,95,68584
1.5200,0.2981,40.0000,99,95,68587
1.5543,0.3030,39.8300,99,95,68590
1.5494,0.3128,39.9300,99,95,68594
1.5640,0.2933,39.1900,99,95,68597
1.6080,0.3030,39.7700,99,95,68600
1.6031,0.3030,39.9300,99,95,68603
1.6178,0.2933,39.8600,99,95,68608
1.6325,0.2933,39.9300,99,95,68611
1.6422,0.2933,39.9600,99,95,68614
1.6960,0.3079,39.8000,99,95,68617
1.6716,0.2981,39.8900,99,95,68621
1.6862,0.2933,39.8300,99,95,68624
1.6960,0.2981,39.9600,99,95,68627
1.7155,0.2933,39.9300,99,95,68630
1.7546,0.3079,39.7300,99,95,68634
1.7449,0.2981,39.8300,99,95,68637
1.7595,0.2933,39.8300,99,95,68640
1.7595,0.2981,39.9300,99,95,68643
1.7742,0.2884,39.9300,99,95,68647
1.8328,0.3030,39.6700,99,95,68651
1.8231,0.2981,39.9300,99,95,68654
1.8328,0.2933,39.8300,99,95,68657
1.8377,0.3030,39.9300,99,95,68661
1.8524,0.2933,39.9300,99,95,68664
1.9159,0.3079,39.8300,99,95,68667
1.9062,0.2981,39.9300,99,95,68670
1.9159,0.3177,39.8300,99,95,68674
1.9159,0.3030,39.9300,99,95,68677
1.9208,0.2933,39.9600,99,95,68680
1.9844,0.3030,39.7700,99,95,68683
1.9746,0.2981,39.9300,99,95,68687
1.9844,0.3030,39.8300,99,95,68690
1.9795,0.2981,40.0600,99,95,68694
1.9844,0.2933,39.9300,99,95,68697
2.0235,0.2981,39.8000,99,95,68701
1.9892,0.2981,39.9300,99,95,68704
1.9844,0.2933,39.8600,99,95,68707
1.9697,0.2884,39.8900,99,95,68710
1.9501,0.2981,39.9600,99,95,68714
1.9844,0.3519,39.8000,99,95,68717
1.9355,0.2981,39.8900,99,95,68720
1.9404,0.2933,39.8300,99,95,68723
1.9208,0.2884,39.8900,99,95,68727
1.8817,0.2884,39.9300,99,95,68730
1.9013,0.3030,39.8300,99,95,68733
1.8377,0.2981,39.9600,99,95,68737
1.7937,0.2933,39.8600,99,95,68741
1.7546,0.3030,39.9300,99,95,68744
1.7253,0.2933,39.9600,99,95,68747
1.7400,0.2884,39.8000,99,95,68750
1.6813,0.2981,39.8900,99,95,68754
1.6520,0.2933,39.9600,99,95,68757
1.6325,0.2981,39.9300,99,95,68760
1.5934,0.2933,39.9300,99,95,68763
1.6276,0.3030,39.8300,99,95,68767
1.5885,0.2981,40.1600,99,95,68770
1.5738,0.2884,39.8600,99,95,68773
1.5591,0.2884,39.9300,99,95,68776
1.5543,0.3079,40.0000,99,95,68781
1.6031,0.3030,39.7700,99,95,68784
1.5836,0.2981,39.8300,99,95,68787
1.5885,0.2981,39.8300,99,95,68790
1.5787,0.2981,39.8900,99,95,68794
1.5787,0.2933,39.9600,99,95,68797
1.6325,0.3079,39.8000,99,95,68800
1.6080,0.3030,39.8900,99,95,68803
1.6178,0.2884,39.8600,99,95,68807
1.6373,0.2933,39.9300,99,95,68810
1.6569,0.2981,39.9300,99,95,68813
1.6862,0.3079,38.9600,99,95,68816
1.6569,0.2981,39.8600,99,95,68820
1.6520,0.2835,39.8900,99,95,68824
1.6569,0.3030,39.9300,99,95,68827
1.6569,0.2933,39.9600,99,95,68830
1.7058,0.3079,39.7700,99,95,68834
1.6764,0.2981,39.8600,99,95,68837
1.6667,0.2933,39.8600,99,95,68840
1.6764,0.2981,39.9600,99,95,68843
1.7009,0.2933,40.0000,99,95,68847
1.7400,0.3079,39.7300,99,95,68850
1.7009,0.2981,39.8900,99,95,68853
1.6911,0.2933,39.8900,99,95,68856
1.6960,0.3079,39.8900,99,95,68860
1.7009,0.2933,40.0000,99,95,68864
1.7693,0.3079,39.7300,99,95,68867
1.7400,0.3030,39.8600,99,95,68870
1.7302,0.2933,39.8900,99,95,68874
1.7302,0.2981,39.8900,99,95,68877
1.7204,0.2933,39.9300,99,95,68880
1.7742,0.3079,39.7000,99,95,68883
1.7498,0.3030,39.8300,99,95,68887
1.7400,0.2884,39.8900,99,95,68890
1.7351,0.2981,39.8900,99,95,68893
1.7302,0.2933,39.9600,99,95,68896
1.7742,0.3079,39.7000,99,95,68900
1.7351,0.2981,39.8300,99,95,68903
1.7302,0.2884,40.0000,99,95,68907
1.7449,0.2981,39.9600,99,95,68910
1.7400,0.2933,39.9300,99,95,68914
1.7791,0.3177,39.7000,99,95,68917
1.7449,0.2981,39.8000,99,95,68920
1.7351,0.2933,39.8900,99,95,68923
1.7546,0.2981,39.9300,99,95,68927
1.7546,0.2933,39.9300,99,95,68930
1.8231,0.3079,39.7300,99,95,68933
1.8035,0.2981,39.8600,99,95,68936
1.7986,0.2688,39.8900,99,95,68940
1.8133,0.2884,39.8900,99,95,68943
1.8182,0.3226,39.9600,99,95,68946
1.8817,0.3079,39.7000,99,95,68950
1.8573,0.2884,39.8600,99,95,68954
1.8377,0.2933,39.8600,99,95,68957
1.8622,0.2981,39.8600,99,95,68960
1.8768,0.2933,39.9600,99,95,68963
1.9648,0.3079,39.7000,99,95,68967
1.9355,0.2981,39.8900,99,95,68970
1.9257,0.2884,39.8900,99,95,68973
1.9306,0.2981,39.9600,99,95,68976
1.9159,0.2933,39.9300,99,95,68980
1.9697,0.3079,39.7000,99,95,68983
1.9257,0.2981,39.7300,99,95,68986
1.8964,0.2884,39.8900,99,95,68989
1.8719,0.2933,39.8900,99,95,68994
1.8280,0.2981,39.9300,99,95,68997
1.8426,0.3079,39.7000,99,95,69000
1.7644,0.2933,39.9600,99,95,69003
1.7351,0.2933,39.8900,99,95,69007
1.7009,0.3226,39.8900,99,95,69010
1.6667,0.2933,40.0000,99,95,69013
1.6960,0.3079,39.6700,99,95,69016
1.6422,0.3128,39.8300,99,95,69020
1.6227,0.2884,39.9300,99,95,69023
1.6276,0.2981,39.8900,99,95,69026
1.6129,0.2933,39.9300,99,95,69029
1.6667,0.2981,39.7000,99,95,69033
1.6276,0.2933,39.8300,99,95,69037
1.6031,0.2884,39.8600,99,95,69040
1.6129,0.2981,39.9600,99,95,69043
1.6129,0.2884,39.9300,99,95,69047
1.6569,0.3128,39.7000,99,95,69050
1.6129,0.3079,39.8900,99,95,69053
1.5982,0.2884,39.9300,99,95,69056
1.6227,0.2933,39.8900,99,95,69060
1.6667,0.2933,39.9300,99,95,69063
1.8133,0.3079,39.6700,99,95,69066
1.9453,0.2981,39.8900,99,95,69069
2.1554,0.2884,39.9300,99,95,69073
2.4340,0.2933,39.8900,99,95,69076
2.6882,0.2933,39.9300,99,95,69080
3.0156,0.3079,39.7300,99,95,69083
3.1183,0.2981,39.8000,99,95,69087
3.1183,0.2981,39.9300,99,95,69090
3.0303,0.3030,39.8900,99,95,69093
2.8837,0.2884,39.9300,99,95,69096
2.7126,0.3079,39.6700,99,95,69100
2.4291,0.2981,39.8300,99,95,69103
2.2043,0.2884,39.9600,99,95,69106
2.0137,0.2884,39.8900,99,95,69109
1.8133,0.3128,39.9300,99,95,69113
1.7107,0.3030,40.0300,99,95,69116
1.5640,0.2981,39.8600,99,95,69120
1.4761,0.3030,39.9300,99,95,69123
1.4370,0.3226,39.8900,99,95,69127
1.3930,0.2933,39.9300,99,95,69130
1.4125,0.3030,39.6400,99,95,69133
1.3930,0.2884,39.8300,99,95,69136
1.3441,0.3030,39.9600,99,95,69140
1.3441,0.2981,39.8900,99,95,69143
1.3636,0.2933,39.9300,99,95,69146
1.4125,0.3128,39.6700,99,95,69149
1.3930,0.3030,39.8600,99,95,69153
1.3930,0.2933,39.9300,99,95,69156
1.4076,0.2884,39.8900,99,95,69159
1.4907,0.2933,39.9300,99,95,69164
1.5005,0.2884,39.9300,99,95,69167
1.5591,0.3030,39.8300,99,95,69170
1.5543,0.2981,39.8600,99,95,69174
1.5689,0.2884,39.8600,99,95,69177
1.5689,0.2884,39.9300,99,95,69180
1.5787,0.2933,39.9300,99,95,69183
1.6325,0.3030,39.7700,99,95,69187
1.6276,0.2884,39.8900,99,95,69190
1.6373,0.3177,39.8300,99,95,69193
1.6471,0.2933,39.8300,99,95,69196
1.6569,0.2933,39.9300,99,95,69200
1.7107,0.3079,39.8000,99,95,69203
1.7204,0.3030,39.8900,99,95,69207
1.7204,0.2933,39.8900,99,95,69210
1.7351,0.2933,39.9300,99,95,69214
1.7449,0.2933,39.9300,99,95,69217
1.8084,0.2981,39.7700,99,95,69220
1.7937,0.2981,39.9300,99,95,69223
1.8035,0.2933,39.6000,99,95,69227
1.8133,0.2933,39.9300,99,95,69230
1.8328,0.2884,39.9300,99,95,69233
1.8964,0.3177,39.7700,99,95,69236
1.8817,0.2981,40.0300,99,95,69240
1.8964,0.2933,39.8300,99,95,69243
1.9159,0.2884,39.9300,99,95,69246
1.9208,0.2933,39.9300,99,95,69250
1.9844,0.3030,39.7700,99,95,69254
1.9697,0.2981,39.8900,99,95,69257
1.9795,0.2933,39.8300,99,95,69260
1.9844,0.2981,39.9300,99,95,69263
1.9892,0.2933,39.8600,99,95,69267
2.0479,0.3030,39.7700,99,95,69270
2.0283,0.2981,39.8900,99,95,69273
2.0283,0.2933,39.8300,99,95,69276
2.0235,0.2933,39.9600,99,95,69280
2.0235,0.2981,39.9300,99,95,69283
2.0528,0.3079,39.8000,99,95,69286
2.0088,0.2981,39.9300,99,95,69289
1.9892,0.2933,39.8300,99,95,69294
1.9746,0.2933,39.9300,99,95,69297
1.9453,0.2933,40.0000,99,95,69300
1.9746,0.3079,39.7700,99,95,69303
1.9062,0.3030,39.8600,99,95,69307
1.8671,0.2933,39.3200,99,95,69310
1.8328,0.2933,40.0000,99,95,69313
1.7986,0.2933,39.9600,99,95,69316
1.8377,0.3079,39.7700,99,95,69320
1.7449,0.3030,39.8600,99,95,69323
1.7009,0.2884,39.8600,99,95,69326
1.6716,0.2688,39.8900,99,95,69329
1.6422,0.2933,39.9300,99,95,69334
1.6716,0.3030,39.7700,99,95,69337
1.6178,0.2981,39.8600,99,95,69340
1.5836,0.2933,39.8600,99,95,69343
1.5982,0.2981,39.9300,99,95,69347
1.5543,0.2981,39.9300,99,95,69350
1.5982,0.3079,39.7300,99,95,69353
1.5787,0.2981,39.8600,99,95,69356
1.5738,0.2933,39.8600,99,95,69360
1.5738,0.3030,39.9300,99,95,69363
1.5738,0.2933,39.2200,99,95,69366
1.6325,0.3079,39.7300,99,95,69369
1.6129,0.2688,39.8600,99,95,69373
1.6080,0.2933,39.8300,99,95,69377
1.6080,0.2933,39.9300,99,95,69380
1.6031,0.2884,39.9300,99,95,69383
1.6667,0.3079,39.7300,99,95,69387
1.6373,0.3030,39.8600,99,95,69390
1.6422,0.2884,39.8600,99,95,69393
1.6471,0.2933,39.8900,99,95,69396
1.6520,0.2933,39.9300,99,95,69400
1.6911,0.3079,39.7000,99,95,69403
1.6618,0.2981,39.8300,99,95,69406
1.6569,0.2884,39.8900,99,95,69409
1.6960,0.2981,39.8900,99,95,69413
1.6716,0.2933,40.0000,99,95,69416
1.7302,0.3079,39.7700,99,95,69420
1.6960,0.2981,39.8600,99,95,69423
1.6960,0.2933,39.8900,99,95,69427
1.7009,0.2933,39.8600,99,95,69430
1.6960,0.2933,39.9300,99,95,69433
1.7449,0.3030,39.7300,99,95,69436
1.6960,0.3226,39.8900,99,95,69440
1.6764,0.2884,39.9600,99,95,69443
1.6667,0.2933,39.9300,99,95,69446
1.6569,0.2933,39.9300,99,95,69449
1.6960,0.3226,39.7700,99,95,69453
1.6569,0.2981,40.0000,99,95,69456
1.6373,0.2688,39.8900,99,95,69459
1.6276,0.2981,39.9300,99,95,69463
1.6129,0.2933,39.9300,99,95,69467
1.6618,0.3079,39.7300,99,95,69470
1.6276,0.3030,39.9300,99,95,69473
1.6178,0.2884,39.8600,99,95,69476
1.6129,0.2933,39.9300,99,95,69480
1.6031,0.2884,40.1300,99,95,69483
1.6520,0.3079,39.7000,99,95,69486
1.6520,0.3030,39.8600,99,95,69489
1.6178,0.2884,40.0000,99,95,69493
1.6373,0.2981,39.8900,99,95,69496
1.6373,0.2933,39.9300,99,95,69499
1.6960,0.3079,39.7300,99,95,69502
1.6764,0.2981,39.8300,99,95,69507
1.7058,0.2933,39.8900,99,95,69510
1.7058,0.2981,39.8900,99,95,69513
1.7204,0.2933,39.8900,99,95,69516
1.7840,0.3079,39.7300,99,95,69520
1.7449,0.3030,39.8300,99,95,69523
1.7400,0.2884,40.0000,99,95,69526
1.7693,0.2981,39.9600,99,95,69529
1.7889,0.2933,39.9300,99,95,69533
1.8671,0.3079,39.6700,99,95,69536
1.8426,0.3177,39.8900,99,95,69539
1.8328,0.2884,39.9300,99,95,69542
1.8377,0.2981,39.9300,99,95,69547
1.8280,0.2688,39.9300,99,95,69550
1.8915,0.3177,39.7000,99,95,69553
1.8524,0.2981,39.8900,99,95,69556
1.8280,0.2884,39.8900,99,95,69560
1.8084,0.2981,39.8900,99,95,69563
1.7742,0.2981,39.9300,99,95,69566
1.7986,0.3079,39.7000,99,95,69569
1.7302,0.2981,39.8300,99,95,69573
1.6862,0.2981,39.8900,99,95,69576
1.6569,0.2981,39.8900,99,95,69579
1.6227,0.2933,39.9300,99,95,69582
1.6618,0.3079,39.7000,99,95,69586
1.5982,0.3128,39.8000,99,95,69590
1.5836,0.2884,39.9300,99,95,69593
1.5934,0.2981,39.8900,99,95,69596
1.5885,0.2688,39.9300,99,95,69600
1.6325,0.3372,39.6700,99,95,69603
1.5982,0.2981,40.2000,99,95,69606
1.6178,0.2933,39.9300,99,95,69609
1.6031,0.2884,39.8900,99,95,69613
1.6031,0.2933,39.9300,99,95,69616
1.6471,0.3079,39.8000,99,95,69619
1.6080,0.2981,39.8600,99,95,69622
1.5787,0.2884,39.8900,99,95,69626
1.5982,0.2884,39.9600,99,95,69629
1.6422,0.2933,39.9300,99,95,69633
1.7840,0.3079,39.6400,99,95,69636
1.8915,0.2933,39.8600,99,95,69640
2.0870,0.2884,39.9600,99,95,69643
2.3558,0.3030,39.8900,99,95,69646
2.6246,0.2933,39.9300,99,95,69649
2.9717,0.3030,39.6700,99,95,69653
3.1183,0.2884,39.8600,99,95,69656
3.1672,0.2933,39.9300,99,95,69659
3.1281,0.2981,39.8600,99,95,69662
2.9619,0.2933,40.0000,99,95,69666
2.8348,0.3030,39.6400,99,95,69669
2.5562,0.3030,39.8300,99,95,69672
2.3118,0.2933,39.9600,99,95,69676
2.1065,0.2981,39.8900,99,95,69680
1.8915,0.2933,39.9300,99,95,69683
1.7693,0.3030,38.8700,99,95,69686
1.6080,0.2933,39.8600,99,95,69689
1.5200,0.2933,39.9300,99,95,69693
1.4712,0.2981,39.8600,99,95,69696
1.4272,0.2933,40.0000,99,95,69699
1.4321,0.3030,39.6700,99,95,69702
1.4125,0.2884,39.8600,99,95,69706
1.3881,0.2933,39.9600,99,95,69709
1.4027,0.3030,39.8900,99,95,69712
1.3978,0.2933,39.9300,99,95,69715
1.4761,0.3030,39.6700,99,95,69720
1.4272,0.2981,39.8300,99,95,69723
1.4370,0.2933,40.0000,99,95,69726
1.4712,0.2981,39.8900,99,95,69729
1.4809,0.2933,39.9300,99,95,69733
1.5396,0.3519,39.6400,99,95,69736
1.5249,0.3030,39.8600,99,95,69739
1.5298,0.2933,39.9600,99,95,69742
1.5738,0.2884,39.8900,99,95,69746
1.5543,0.2933,39.9300,99,95,69749
1.6129,0.3226,39.6400,99,95,69752
1.5982,0.2981,40.1000,99,95,69755
1.6080,0.2933,39.9300,99,95,69760
1.6227,0.2884,39.8900,99,95,69763
1.6276,0.3030,39.9300,99,95,69766
1.6911,0.3030,39.7000,99,95,69769
1.7742,0.3079,39.9600,100,95,69773
1.7644,0.3079,39.8900,100,95,69776
1.7889,0.2933,39.9600,100,95,69780
1.7889,0.2933,39.9300,100,95,69783
1.8035,0.2933,39.9600,100,95,69786
1.8426,0.3030,39.8300,100,95,69790
1.8524,0.2884,39.9300,100,95,69793
1.8671,0.2981,39.8600,100,95,69796
1.8573,0.2688,39.9300,100,95,69800
1.8768,0.2933,39.9300,100,95,69804
1.9257,0.2884,39.8300,100,95,69807
1.9110,0.2933,39.8900,100,95,69811
1.9550,0.2933,39.7700,100,95,69814
1.9550,0.2981,39.8600,100,95,69817
1.9697,0.2933,40.0300,100,95,69820
2.0137,0.3030,39.8000,100,95,69824
1.9990,0.2933,39.9600,100,95,69827
2.0528,0.2981,39.8000,100,95,69830
2.0283,0.3421,39.8900,100,95,69834
2.0381,0.2933,39.9600,100,95,69837
2.0626,0.2981,39.9600,100,95,69840
2.0479,0.2933,39.8600,100,95,69844
2.1065,0.3128,39.7000,100,95,69848
2.0626,0.2933,39.8600,100,95,69851
2.0528,0.2933,40.0000,100,95,69854
2.0577,0.2884,39.8600,100,95,69858
2.0528,0.2933,39.9300,100,95,69861
2.1017,0.3079,39.7300,100,95,69864
2.0332,0.2933,39.8600,100,95,69868
2.0088,0.2884,39.8600,100,95,69871
1.9795,0.2981,39.9300,100,95,69874
1.9501,0.2981,40.0000,100,95,69878
1.9697,0.3030,39.7700,100,95,69881
1.9062,0.3079,39.8900,100,95,69884
1.8719,0.2933,39.8300,100,95,69888
1.8133,0.2933,40.0000,100,95,69892
1.7742,0.2933,39.9300,100,95,69895
1.7742,0.3030,39.7700,100,95,69898
1.7204,0.2981,39.9300,100,95,69902
1.7351,0.3030,39.8300,100,95,69905
1.6667,0.2933,39.3800,100,95,69908
1.6471,0.3030,39.9300,100,95,69912
1.6471,0.2981,39.8300,100,95,69915
1.6325,0.2933,39.8900,100,95,69918
1.6471,0.2981,39.7300,100,95,69922
1.6276,0.2933,40.0000,100,95,69925
1.6276,0.3226,39.8900,100,95,69928
1.6422,0.2981,39.8300,100,95,69933
1.6227,0.3275,39.9300,100,95,69936
1.6764,0.2981,39.7000,100,95,69939
1.6520,0.2981,39.8300,100,95,69942
1.6422,0.2933,39.9300,100,95,69946
1.6667,0.2981,39.9600,100,95,69949
1.6618,0.2933,39.9300,100,95,69952
1.7204,0.2981,39.6400,100,95,69956
1.7009,0.2981,39.8000,100,95,69959
1.7009,0.2933,39.8900,100,95,69962
1.7204,0.2981,39.9300,100,95,69966
1.7107,0.2933,39.8900,100,95,69969
1.7693,0.2981,39.7700,100,95,69972
1.7400,0.2981,40.0600,100,95,69977
1.7498,0.2933,39.8900,100,95,69980
1.7449,0.2981,39.9300,100,95,69983
1.7498,0.3226,39.9300,100,95,69986
1.7791,0.3030,39.8300,100,95,69990
1.7644,0.2981,40.0300,100,95,69993
1.7840,0.2933,39.8300,100,95,69996
1.7742,0.2981,39.9600,100,95,70000
1.7791,0.2884,39.9300,100,95,70003
1.8133,0.3030,39.8300,100,95,70006
1.7840,0.2933,39.9300,100,95,70010
1.8280,0.2884,39.8000,100,95,70013
1.7889,0.2933,39.8600,100,95,70017
1.7937,0.2933,39.9300,100,95,70021
1.8182,0.2981,39.8000,100,95,70024
1.7986,0.2933,40.0300,100,95,70027
1.8280,0.2981,39.8000,100,95,70030
1.7937,0.2884,39.8600,100,95,70034
1.7937,0.2933,39.9600,100,95,70037
1.8133,0.3030,39.8300,100,95,70040
1.8084,0.3030,39.9300,100,95,70044
1.8426,0.3030,39.6700,100,95,70047
1.8035,0.2981,39.8600,100,95,70050
1.7986,0.2981,39.9300,100,95,70054
1.8084,0.2981,39.8900,100,95,70057
1.7986,0.3030,39.9300,100,95,70061
1.8524,0.3226,39.7000,100,95,70065
1.8133,0.2981,39.8600,100,95,70068
1.7986,0.2933,39.8600,100,95,70071
1.8084,0.2981,39.9300,100,95,70074
1.8084,0.2933,40.1600,100,95,70078
1.8671,0.3030,39.7700,100,95,70081
1.8475,0.2933,39.9600,100,95,70084
1.8622,0.2884,39.8000,100,95,70088
1.8573,0.2981,39.9300,100,95,70091
1.8622,0.2933,40.1300,100,95,70094
1.9062,0.3030,39.8000,100,95,70098
1.8915,0.2981,39.9300,100,95,70102
1.9159,0.2981,39.8000,100,95,70105
1.9110,0.2981,39.9300,100,95,70109
1.8866,0.2933,39.9600,100,95,70112
1.9257,0.2933,39.8000,100,95,70115
1.9404,0.3030,39.9300,100,95,70118
1.9844,0.2933,39.8000,100,95,70122
1.9697,0.2835,39.8900,100,95,70125
1.9844,0.3030,39.9300,100,95,70128
1.9990,0.2981,39.8900,100,95,70132
1.9990,0.2884,39.9300,100,95,70135
2.0137,0.2981,39.7300,100,95,70138
1.9844,0.3030,39.8900,100,95,70142
1.9501,0.2981,39.9300,100,95,70146
1.9355,0.3226,39.8600,100,95,70149
1.8719,0.2933,39.9300,100,95,70153
1.8866,0.3030,39.6700,100,95,70156
1.8231,0.3030,39.8300,100,95,70159
1.7742,0.2884,39.8900,100,95,70162
1.7449,0.2981,39.9300,100,95,70166
1.7204,0.2884,39.9300,100,95,70169
1.7449,0.3079,39.7700,100,95,70172
1.6960,0.2884,39.8900,100,95,70176
1.6960,0.2933,39.8900,100,95,70179
1.6813,0.2981,39.9300,100,95,70182
1.6764,0.2933,39.9300,100,95,70187
1.7058,0.3030,39.8000,100,95,70190
1.6862,0.2933,39.9300,100,95,70193
1.7058,0.3030,39.8300,100,95,70197
1.7009,0.2981,39.8900,100,95,70200
1.7058,0.3177,39.9300,100,95,70203
1.7253,0.3079,39.8000,100,95,70206
1.6911,0.2981,39.9300,100,95,70210
1.7155,0.2981,39.8600,100,95,70213
1.7302,0.2933,39.8600,100,95,70216
1.8133,0.3030,39.9300,100,95,70220
1.9795,0.2981,39.7700,100,95,70223
2.1652,0.2981,39.9300,100,95,70226
2.4731,0.2981,39.7300,100,95,70231
2.7126,0.2981,39.8600,100,95,70234
2.9668,0.2933,39.9600,100,95,70237
3.1916,0.3030,39.8600,100,95,70241
3.2209,0.2933,40.0000,100,95,70244
3.2209,0.3128,39.6700,100,95,70247
2.9961,0.2981,39.8600,100,95,70250
2.7761,0.2933,39.8900,100,95,70254
2.5611,0.2981,39.9300,100,95,70257
2.3314,0.2933,40.0000,100,95,70260
2.1896,0.2981,39.7000,100,95,70264
1.9404,0.2981,39.8600,100,95,70267
1.7791,0.2933,39.8900,100,95,70270
1.6618,0.2981,39.9600,100,95,70275
1.5787,0.2933,40.0000,100,95,70278
1.5591,0.3030,39.7700,100,95,70281
1.5005,0.2981,39.8900,100,95,70285
1.4809,0.2981,39.8600,100,95,70288
1.4516,0.2981,39.9300,100,95,70291
1.4418,0.2933,39.9300,100,95,70294
1.4761,0.3079,39.8300,100,95,70298
1.4663,0.2933,39.9300,100,95,70301
1.4907,0.3030,40.0300,100,95,70304
1.4712,0.2981,39.9300,100,95,70308
1.4809,0.2933,39.9300,100,95,70311
1.5152,0.2981,40.2600,100,95,70315
1.5200,0.3226,39.9300,100,95,70319
1.5640,0.2933,39.8000,100,95,70322
1.5543,0.2933,40.0000,100,95,70325
1.5689,0.2933,39.9300,100,95,70329
1.5934,0.2981,39.8900,100,95,70332
1.6276,0.2884,39.9300,100,95,70335
1.6471,0.2981,39.7300,100,95,70338
1.6422,0.3030,39.8900,100,95,70342
1.6618,0.2933,39.9300,100,95,70345
1.6716,0.3030,39.8900,100,95,70348
1.6618,0.2884,39.9300,100,95,70352
1.7204,0.3030,39.7300,100,95,70355
1.7009,0.2884,39.8300,100,95,70359
1.7204,0.2884,39.9300,100,95,70363
1.7400,0.2981,39.9300,100,95,70366
1.7498,0.3030,39.9300,100,95,70369
1.8280,0.3079,39.7700,100,95,70373
1.8035,0.3275,39.8900,100,95,70376
1.8182,0.3030,39.8300,100,95,70379
1.8231,0.2688,39.9600,100,95,70382
1.8964,0.2981,39.9600,100,95,70386
1.9159,0.2933,39.8900,100,95,70390
1.9599,0.3030,39.8300,100,95,70393
1.9453,0.2981,39.9600,100,95,70396
2.0039,0.2933,39.7700,100,95,70400
1.9892,0.2981,39.8600,100,95,70404
1.9990,0.2981,39.9300,100,95,70407
2.0430,0.3079,39.8300,100,95,70410
2.0235,0.2884,39.9300,100,95,70414
2.0821,0.3030,39.7300,100,95,70417
2.0674,0.3177,39.8300,100,95,70420
2.0626,0.2884,39.9300,100,95,70424
2.0870,0.3030,39.9300,100,95,70427
2.0723,0.2981,39.9300,100,95,70430
2.1212,0.2981,39.6700,100,95,70433
2.0723,0.2981,39.8900,100,95,70437
2.0479,0.2933,39.9300,100,95,70440
2.0479,0.3030,39.8900,100,95,70444
2.0381,0.2884,39.9300,100,95,70448
2.0919,0.3079,39.7300,100,95,70451
2.0577,0.2981,39.8900,100,95,70454
1.9990,0.2933,39.8600,100,95,70458
1.9746,0.3177,39.9300,100,95,70461
1.9501,0.2933,39.9300,100,95,70464
1.9550,0.3030,39.7700,100,95,70468
1.8915,0.2688,39.8900,100,95,70471
1.8622,0.2981,39.8300,100,95,70474
1.8084,0.3177,39.9300,100,95,70477
1.7889,0.2884,39.9300,100,95,70481
1.7840,0.3030,39.7300,100,95,70484
1.7351,0.2933,39.9300,100,95,70488
1.7302,0.3030,39.8300,100,95,70492
1.6764,0.2933,40.0300,100,95,70495
1.6569,0.2884,39.9600,100,95,70498
1.6569,0.2981,39.8300,100,95,70502
1.6520,0.2981,40.0600,100,95,70505
1.6667,0.2981,39.7700,100,95,70508
1.6471,0.2981,39.9600,100,95,70511
1.6422,0.2933,39.9300,100,95,70515
1.6618,0.3079,39.8300,100,95,70518
1.6373,0.2981,39.8900,100,95,70521
1.7204,0.3030,39.6700,100,95,70525
1.6813,0.2981,39.8300,100,95,70529
1.6716,0.2933,39.9300,100,95,70532
1.6911,0.2981,40.0000,100,95,70536
1.6813,0.2884,39.9300,100,95,70539
1.7400,0.3079,39.7000,100,95,70542
1.7204,0.2981,39.8300,100,95,70546
1.7155,0.2933,39.9300,100,95,70549
1.7253,0.2981,39.8900,100,95,70552
1.7204,0.2981,39.9300,100,95,70556
1.7889,0.3079,39.8000,100,95,70559
1.7351,0.2981,39.8900,100,95,70562
1.7449,0.2981,39.8300,100,95,70565
1.7449,0.2981,39.9300,100,95,70569
1.7449,0.2933,39.8900,100,95,70573
1.7889,0.3030,39.8300,100,95,70576
1.7644,0.2981,39.8900,100,95,70580
1.7937,0.2981,39.8300,100,95,70583
1.8035,0.2884,39.9600,100,95,70586
1.7937,0.2981,39.9600,100,95,70590
1.8231,0.3079,39.7700,100,95,70593
1.7889,0.2981,39.9300,100,95,70596
1.8035,0.2981,39.8000,100,95,70600
1.7840,0.2933,39.8900,100,95,70603
1.7889,0.2981,39.9300,100,95,70606
1.8084,0.3275,39.8000,100,95,70609
1.8084,0.2981,39.9300,100,95,70614
1.8182,0.3030,39.7300,100,95,70617
1.7840,0.2981,40.1300,100,95,70620
1.7791,0.2835,39.9300,100,95,70624
1.8035,0.3030,39.9600,100,95,70627
1.7889,0.2981,39.9300,100,95,70630
1.8377,0.3079,39.7000,100,95,70634
1.7986,0.2981,39.9300,100,95,70637
1.7937,0.3421,39.9300,100,95,70640
1.8084,0.2981,39.9300,100,95,70643
1.7986,0.2981,39.8900,100,95,70647
1.8573,0.3128,39.7300,100,95,70650
1.8133,0.3030,39.8600,100,95,70653
1.8035,0.2933,39.8600,100,95,70658
1.8133,0.2981,39.8900,100,95,70661
1.8133,0.2981,39.9300,100,95,70664
1.8671,0.3030,39.7700,100,95,70668
1.8524,0.3177,39.8900,100,95,70671
1.8671,0.2981,39.8300,100,95,70674
1.8622,0.2981,39.9300,100,95,70678
1.8719,0.2981,39.9300,100,95,70681
1.9159,0.3030,39.8300,100,95,70684
1.8964,0.3226,39.9300,100,95,70688
1.9550,0.3030,39.8300,100,95,70691
1.8964,0.2933,40.0000,100,95,70694
1.9062,0.2933,39.9300,100,95,70697
1.9501,0.2981,39.8600,100,95,70702
1.9599,0.2981,39.9300,100,95,70705
2.0430,0.3030,39.7300,100,95,70708
1.9892,0.2981,39.9300,100,95,70712
1.9892,0.2981,39.9300,100,95,70715
2.0088,0.3030,39.8600,100,95,70718
1.9892,0.2981,39.8900,100,95,70722
2.0332,0.3079,39.6700,100,95,70725
1.9990,0.2933,39.8300,100,95,70728
1.9550,0.2981,39.9300,100,95,70731
1.9404,0.3079,39.8600,100,95,70735
1.8964,0.2933,39.9300,100,95,70738
1.9110,0.3079,39.7700,100,95,70742
1.8426,0.2933,39.8300,100,95,70746
1.7986,0.2933,39.9300,100,95,70749
1.7742,0.3079,39.8900,100,95,70752
1.7400,0.2688,39.9300,100,95,70756
1.7644,0.3079,39.7700,100,95,70759
1.7204,0.3030,39.9300,100,95,70762
1.7058,0.2981,39.8600,100,95,70766
1.7009,0.2688,39.9300,100,95,70769
1.6960,0.2981,39.9300,100,95,70772
1.7253,0.2981,39.8300,100,95,70775
1.7009,0.2981,39.9300,100,95,70779
1.7204,0.2981,39.8900,100,95,70782
1.7009,0.2688,39.9300,100,95,70786
1.6960,0.2981,39.9600,100,95,70790
1.7204,0.3079,39.8000,100,95,70793
1.6960,0.3030,39.9300,100,95,70796
1.7351,0.3030,39.8300,100,95,70800
1.7644,0.2933,39.9600,100,95,70803
1.8622,0.2933,39.8900,100,95,70806
2.0479,0.3030,39.8000,100,95,70810
2.2434,0.3030,39.9300,100,95,70813
2.5513,0.3128,39.7300,100,95,70816
2.8006,0.2981,39.8600,100,95,70819
3.0303,0.2981,40.0300,100,95,70823
3.2111,0.3079,39.8900,100,95,70827
3.2014,0.2884,39.9300,100,95,70830
3.1427,0.3030,39.7000,100,95,70834
2.8935,0.2981,39.8600,100,95,70837
2.6735,0.3030,39.9300,100,95,70840
2.4633,0.2981,39.8900,100,95,70844
2.2434,0.3177,39.9300,100,95,70847
2.1163,0.3079,39.6400,100,95,70850
1.9062,0.2981,40.2000,100,95,70853
1.7546,0.3128,39.8600,100,95,70857
1.6569,0.2981,39.9300,100,95,70860
1.5787,0.2884,39.9300,100,95,70863
1.5836,0.3128,39.8000,100,95,70867
1.5200,0.2981,39.8900,100,95,70871
1.4956,0.3030,39.8300,100,95,70874
1.4712,0.2981,39.9600,100,95,70878
1.4761,0.2981,39.9300,100,95,70881
1.5152,0.2981,39.8000,100,95,70884
1.5054,0.2981,39.9300,100,95,70888
1.5347,0.2981,39.8000,100,95,70891
1.5445,0.2884,39.9300,100,95,70894
1.5298,0.2981,40.0300,100,95,70897
1.5640,0.3030,39.8600,100,95,70901
1.5982,0.2981,39.9300,100,95,70904
1.6129,0.2981,39.8300,100,95,70907
1.6031,0.2981,39.9600,100,95,70912
1.6129,0.2981,39.9600,100,95,70915
1.6422,0.3421,39.8300,100,95,70918
1.6373,0.2981,40.0600,100,95,70922
1.6813,0.3030,39.7700,100,95,70925
1.6911,0.2981,39.8600,100,95,70928
1.6911,0.2981,39.9300,100,95,70932
1.7302,0.3030,39.8600,100,95,70935
1.7204,0.2981,40.0000,100,95,70938
1.7791,0.3030,39.6700,100,95,70941
1.7595,0.2981,39.8300,100,95,70945
1.7693,0.2933,40.0300,100,95,70948
1.7937,0.2933,39.8900,100,95,70951
1.7889,0.2981,39.9300,100,95,70956
1.8573,0.3079,39.6700,100,95,70959
1.8377,0.3030,39.8600,100,95,70962
1.8426,0.2933,39.8600,100,95,70966
1.8524,0.3030,39.9300,100,95,70969
1.8622,0.2981,39.9600,100,95,70972
1.9110,0.3079,39.8300,100,95,70976
1.9159,0.2884,39.9300,100,95,70979
1.9208,0.2981,40.0300,100,95,70982
1.9208,0.3030,39.9300,100,95,70985
1.9404,0.2884,39.9300,100,95,70989
1.9844,0.3030,39.8600,100,95,70992
2.0479,0.3030,39.7300,100,95,70996
2.0381,0.2981,39.9300,100,95,71000
2.0870,0.2933,39.7000,100,95,71003
2.0528,0.3030,39.8900,100,95,71007
2.0430,0.2981,40.1000,100,95,71010
2.0674,0.3030,39.8300,100,95,71013
2.0479,0.2981,40.1600,100,95,71017
2.0919,0.3030,39.7000,100,95,71020
2.0430,0.2981,39.8600,100,95,71023
2.0283,0.2981,39.9600,100,95,71026
2.0332,0.3079,39.9300,100,95,71030
2.0088,0.2688,39.9300,100,95,71033
2.0528,0.3079,39.6700,100,95,71036
1.9892,0.2981,39.8300,100,95,71041
1.9795,0.2884,39.8900,100,95,71044
1.9306,0.3226,39.8900,100,95,71047
1.9013,0.2981,39.9300,100,95,71051
1.9306,0.3079,39.7700,100,95,71054
1.8719,0.3030,39.8600,100,95,71057
1.8377,0.2933,39.8300,100,95,71060
1.7840,0.2981,40.0000,100,95,71064
1.7498,0.2981,39.7700,100,95,71067
1.7595,0.3030,39.8000,100,95,71070
1.7155,0.2981,39.8900,100,95,71074
1.7107,0.2981,39.8300,100,95,71077
1.6716,0.2981,39.9600,100,95,71080
1.6569,0.2933,39.9300,100,95,71085
1.6667,0.2981,39.9600,100,95,71088
1.6520,0.2981,39.9600,100,95,71091
1.6813,0.2981,39.8000,100,95,71095
1.6618,0.2981,40.1000,100,95,71098
1.6618,0.2933,39.9300,100,95,71101
1.6862,0.3030,39.8300,100,95,71105
1.6764,0.2981,39.9300,100,95,71108
1.7302,0.2981,39.7000,100,95,71111
1.7058,0.3030,39.8900,100,95,71114
1.6960,0.2981,39.8600,100,95,71118
1.7204,0.2981,39.8300,100,95,71121
1.6960,0.2981,39.9600,100,95,71124
1.7449,0.3128,39.7000,100,95,71129
1.7204,0.2981,39.8300,100,95,71132
1.7155,0.2933,39.8900,100,95,71135
1.7253,0.3030,39.9300,100,95,71139
1.7204,0.2981,39.9600,100,95,71142
1.7742,0.3177,39.7700,100,95,71145
1.7449,0.3030,39.9600,100,95,71149
1.7546,0.2981,39.8600,100,95,71152
1.7889,0.2981,39.9300,100,95,71155
1.7644,0.2981,39.8900,100,95,71158
1.7986,0.3079,39.8000,100,95,71162
1.7840,0.3030,39.8900,100,95,71165
1.7840,0.2981,39.8300,100,95,71169
1.7889,0.2981,39.9300,100,95,71173
1.8035,0.2981,39.9600,100,95,71176
1.8377,0.3030,39.8000,100,95,71179
1.8182,0.2981,39.9300,100,95,71183
1.8426,0.3030,39.7700,100,95,71186
1.8182,0.2835,39.8900,100,95,71189
1.8231,0.2981,39.9300,100,95,71193
1.8377,0.2933,39.8300,100,95,71196
1.8182,0.2981,39.9300,100,95,71199
1.8377,0.2981,39.8000,100,95,71202
1.8182,0.2981,39.9300,100,95,71206
1.8133,0.2981,39.9600,100,95,71209
1.8377,0.3079,39.8600,100,95,71213
1.8231,0.2981,39.9300,100,95,71217
1.8524,0.3030,39.6700,100,95,71220
1.8035,0.2981,39.8600,100,95,71223
1.7937,0.2981,39.9300,100,95,71227
1.8084,0.3079,39.9300,100,95,71230
1.8084,0.2981,39.9600,100,95,71233
1.8719,0.3079,39.6400,100,95,71237
1.8475,0.2933,39.8900,100,95,71240
1.8426,0.2981,39.8900,100,95,71243
1.8573,0.2981,39.9300,100,95,71247
1.8719,0.2981,39.9300,100,95,71250
1.9257,0.3079,39.7300,100,95,71254
1.9013,0.3030,39.8900,100,95,71257
1.9110,0.2981,39.8300,100,95,71261
1.8915,0.3030,39.9300,100,95,71264
1.8964,0.2933,39.9300,100,95,71267
1.9453,0.3030,40.0000,100,95,71271
1.9550,0.3324,39.8900,100,95,71274
1.9941,0.3030,39.8000,100,95,71277
1.9795,0.2981,39.9300,100,95,71281
1.9746,0.2981,39.9300,100,95,71284
1.9941,0.3030,39.8300,100,95,71287
1.9746,0.2981,39.9600,100,95,71290
2.0039,0.2981,39.8000,100,95,71294
1.9844,0.2884,39.9300,100,95,71298
1.9453,0.2981,39.9600,100,95,71301
1.9404,0.3079,39.8300,100,95,71305
1.8866,0.2981,39.9300,100,95,71308
1.8866,0.3030,39.7700,100,95,71311
1.8280,0.2981,39.8300,100,95,71315
1.7791,0.2981,39.9300,100,95,71318
1.7889,0.3030,39.8300,100,95,71321
1.7204,0.2981,39.9600,100,95,71325
1.7400,0.3030,39.6700,100,95,71328
1.7107,0.2884,39.8600,100,95,71331
1.6813,0.2933,39.9600,100,95,71334
1.6813,0.3030,39.9600,100,95,71339
1.6716,0.3030,39.9300,100,95,71342
1.7302,0.3128,39.7000,100,95,71345
1.6960,0.3079,39.8900,100,95,71349
1.6960,0.2933,39.8900,100,95,71352
1.7058,0.2981,39.9600,100,95,71355
1.7009,0.3030,39.9300,100,95,71359
1.7400,0.2981,39.8000,100,95,71362
1.7009,0.2981,39.8900,100,95,71365
1.6960,0.2981,39.8300,100,95,71368
1.7058,0.2933,39.9300,100,95,71372
1.7644,0.2981,39.9600,100,95,71375
1.8964,0.3030,39.7700,100,95,71378
2.0381,0.2981,39.9300,100,95,71383
2.2972,0.3030,39.8300,100,95,71386
2.5415,0.3030,39.8900,100,95,71389
2.8152,0.2933,39.9300,100,95,71393
3.0694,0.2933,39.9600,100,95,71396
3.1672,0.2981,40.0000,100,95,71399
3.2063,0.2981,39.8000,100,95,71403
3.0254,0.2981,39.9300,100,95,71406
2.8348,0.2981,39.8000,100,95,71409
2.6540,0.3079,39.8300,100,95,71412
2.4145,0.2981,39.9300,100,95,71416
2.2532,0.3030,39.8000,100,95,71419
2.0137,0.2981,39.8600,100,95,71422
1.8426,0.3030,39.9300,100,95,71427
1.7253,0.3030,39.9600,100,95,71430
1.6129,0.3030,39.9300,100,95,71433
1.5836,0.3079,39.7000,100,95,71437
1.5152,0.3030,39.8600,100,95,71440
1.4712,0.2981,39.9300,100,95,71443
1.4614,0.3030,39.8900,100,95,71446
1.4516,0.2981,39.9300,100,95,71450
1.5054,0.3128,39.7700,100,95,71453
1.4663,0.3275,39.8900,100,95,71456
1.4663,0.2884,39.8600,100,95,71460
1.4663,0.2981,39.9600,100,95,71463
1.4761,0.3128,39.9300,100,95,71467
1.5298,0.3079,39.8900,100,95,71471
1.5200,0.3030,39.9300,100,95,71474
1.5640,0.3030,39.8600,100,95,71477
1.5445,0.2981,39.9300,100,95,71481
1.5640,0.2933,39.9300,100,95,71484
1.6031,0.3030,39.8600,100,95,71487
1.6031,0.2981,39.8900,100,95,71490
1.6373,0.3079,39.7700,100,95,71494
1.6373,0.2688,39.9300,100,95,71497
1.6373,0.2981,40.0300,100,95,71500
1.6764,0.3030,39.8300,100,95,71504
1.6667,0.2981,39.9300,100,95,71507
1.7155,0.2981,39.8000,100,95,71511
1.7204,0.2884,39.8600,100,95,71515
1.7253,0.2981,39.9300,100,95,71518
1.7937,0.3079,39.8300,100,95,71521
1.7449,0.2981,39.9300,100,95,71525
1.8084,0.3128,39.6700,100,95,71528
1.7840,0.2933,39.8900,100,95,71531
1.8084,0.2981,39.9600,100,95,71535
1.8328,0.3079,39.8900,100,95,71538
1.8328,0.2884,39.9300,100,95,71541
1.8964,0.3079,39.7300,100,95,71544
1.8671,0.2884,39.8300,100,95,71548
1.8768,0.2933,39.8900,100,95,71552
1.8915,0.3030,39.8900,100,95,71555
1.9013,0.2981,39.9300,100,95,71559
1.9697,0.3079,39.7300,100,95,71562
1.9453,0.2981,39.9300,100,95,71565
1.9599,0.2981,39.9300,100,95,71569
1.9990,0.2884,39.9300,100,95,71572
1.9844,0.2981,39.9600,100,95,71575
2.0332,0.3030,39.8000,100,95,71579
2.0137,0.2981,39.9300,100,95,71582
2.0479,0.2981,39.8000,100,95,71585
2.0283,0.3030,39.9300,100,95,71588
2.0381,0.2981,39.9300,100,95,71592
2.0674,0.3030,39.8600,100,95,71596
2.0528,0.2981,39.9300,100,95,71599
2.0772,0.2981,39.8000,100,95,71603
2.0381,0.2981,39.7300,101,95,71606
2.0088,0.2884,39.8900,101,95,71611
1.9795,0.2981,39.9600,101,95,71614
1.9697,0.3030,39.8900,101,95,71617
1.9355,0.2981,39.8900,101,95,71620
1.9453,0.3128,39.7000,101,95,71624
1.8768,0.3030,39.8300,101,95,71627
1.8182,0.2884,39.9300,101,95,71630
1.7937,0.3030,39.8600,101,95,71634
1.7546,0.3079,39.9300,101,95,71638
1.7840,0.3128,39.7300,101,95,71641
1.7155,0.3372,39.8300,101,95,71645
1.7155,0.2884,39.8600,101,95,71648
1.6569,0.2981,40.1300,101,95,71651
1.6373,0.2933,39.9300,101,95,71655
1.6569,0.3079,39.8300,101,95,71658
1.6373,0.3275,39.8900,101,95,71661
1.6471,0.3030,39.8300,101,95,71664
1.6325,0.2981,40.0000,101,95,71668
1.6276,0.2981,39.9300,101,95,71671
1.6520,0.3030,39.8900,101,95,71674
1.6422,0.2981,39.8600,101,95,71678
1.6764,0.3030,39.8300,101,95,71682
1.6667,0.2981,39.9300,101,95,71685
1.6716,0.3030,39.9300,101,95,71689
1.7058,0.3030,39.8300,101,95,71692
1.6862,0.3030,39.9300,101,95,71695
1.7253,0.2884,39.7700,101,95,71699
1.7107,0.2981,39.9300,101,95,71702
1.7058,0.2981,39.9300,101,95,71705
1.7155,0.3030,39.9300,101,95,71709
1.7155,0.3128,39.9300,101,95,71712
1.7693,0.3079,39.7000,101,95,71715
1.7351,0.3128,39.8900,101,95,71718
1.7546,0.2884,39.9300,101,95,71723
1.7546,0.2981,39.8900,101,95,71726
1.7400,0.2981,40.0300,101,95,71729
1.7889,0.3226,39.7000,101,95,71733
1.7546,0.3030,39.8300,101,95,71736
1.7595,0.2933,39.9300,101,95,71739
1.7693,0.2981,39.9300,101,95,71743
1.7742,0.2981,39.9600,101,95,71746
1.8231,0.3372,39.8000,101,95,71749
1.7986,0.2884,39.8900,101,95,71752
1.8035,0.2981,39.8600,101,95,71756
1.7937,0.2933,39.8900,101,95,71759
1.7986,0.2981,39.9300,101,95,71762
1.8328,0.3030,39.2500,101,95,71767
1.7986,0.2933,39.9300,101,95,71770
1.8280,0.3030,39.8000,101,95,71773
1.8035,0.2981,39.4100,101,95,71777
1.8084,0.2933,39.9300,101,95,71780
1.8280,0.2981,39.8600,101,95,71783
1.8133,0.2981,39.9300,101,95,71787
1.8280,0.3030,39.8000,101,95,71790
1.8084,0.2981,39.9300,101,95,71793
1.8084,0.2981,40.0300,101,95,71796
1.8280,0.3226,39.8600,101,95,71800
1.8133,0.2981,39.9300,101,95,71803
1.8377,0.2981,38.9300,101,95,71806
1.8035,0.3030,39.9300,101,95,71811
1.8084,0.2933,39.9600,101,95,71814
1.8377,0.3030,39.8600,101,95,71817
1.8280,0.2884,39.9300,101,95,71821
1.8817,0.3030,39.7000,101,95,71824
1.8622,0.3030,39.8300,101,95,71827
1.8622,0.2981,39.9300,101,95,71830
1.8817,0.2981,39.8900,101,95,71834
1.8817,0.2981,39.9300,101,95,71837
1.9404,0.3226,39.7000,101,95,71840
1.9062,0.3030,39.9600,101,95,71844
1.9110,0.2933,39.8900,101,95,71847
1.9257,0.2933,39.8900,101,95,71851
1.9501,0.2981,39.9600,101,95,71855
2.0137,0.3079,39.8000,101,95,71858
1.9892,0.2981,39.8900,101,95,71861
1.9941,0.2981,39.8300,101,95,71865
1.9746,0.2981,39.9300,101,95,71868
1.9697,0.2981,39.9300,101,95,71871
1.9941,0.3030,39.8300,101,95,71874
1.9599,0.3030,39.8900,101,95,71878
1.9648,0.3030,39.8000,101,95,71881
1.9110,0.2981,40.0600,101,95,71884
1.8719,0.2981,39.9600,101,95,71888
1.8671,0.3079,39.8000,101,95,71891
1.7986,0.2981,40.0000,101,95,71895
1.7937,0.2981,39.8300,101,95,71899
1.7400,0.2981,39.8600,101,95,71902
1.7204,0.2981,39.9300,101,95,71905
1.7107,0.3079,39.8300,101,95,71908
1.6911,0.3030,39.9300,101,95,71912
1.7107,0.2981,39.7300,101,95,71915
1.6813,0.2933,39.8900,101,95,71918
1.6862,0.2981,39.9300,101,95,71922
1.7009,0.3030,39.8600,101,95,71925
1.6862,0.3226,39.9300,101,95,71928
1.7204,0.3030,39.7000,101,95,71932
1.6911,0.2981,39.8600,101,95,71936
1.6960,0.2981,39.9600,101,95,71939
1.7058,0.2981,40.1300,101,95,71943
1.6960,0.3030,39.9300,101,95,71946
1.7498,0.3128,39.7300,101,95,71949
1.7644,0.3030,39.8000,101,95,71952
1.8426,0.2933,39.8600,101,95,71956
2.0039,0.2981,40.0000,101,95,71959
2.2190,0.2981,39.9600,101,95,71962
2.5415,0.3128,39.7700,101,95,71966
2.7761,0.3030,39.8900,101,95,71969
3.0303,0.2981,39.8300,101,95,71972
3.1769,0.3030,39.8900,101,95,71976
3.2356,0.2933,39.9600,101,95,71980
3.1672,0.3030,39.8300,101,95,71983
2.9668,0.2981,39.8300,101,95,71986
2.7761,0.3030,39.8300,101,95,71990
2.5122,0.2981,39.9300,101,95,71993
2.2923,0.2981,39.9300,101,95,71996
2.1065,0.3030,39.8300,101,95,72000
1.9013,0.2933,39.9300,101,95,72003
1.7791,0.2981,39.8000,101,95,72006
1.6373,0.2933,39.9300,101,95,72010
1.5591,0.2981,39.9600,101,95,72013
1.5249,0.3079,39.8600,101,95,72016
1.4809,0.2981,39.9300,101,95,72020
1.4858,0.3030,39.7300,101,95,72024
1.4663,0.2981,39.8300,101,95,72027
1.4516,0.2884,39.9300,101,95,72030
1.4761,0.3079,39.8600,101,95,72034
1.4663,0.2884,39.9300,101,95,72037
1.5298,0.3030,39.7300,101,95,72040
1.5103,0.2933,39.8600,101,95,72044
1.5249,0.2884,39.9300,101,95,72047
1.5494,0.2981,39.9300,101,95,72050
1.5543,0.2933,39.9300,101,95,72054
1.6178,0.3128,39.7000,101,95,72057
1.6031,0.3079,39.8900,101,95,72060
1.6080,0.3030,39.8600,101,95,72065
1.6422,0.2981,39.9300,101,95,72068
1.6276,0.2981,39.1600,101,95,72071
1.6813,0.2884,39.8000,101,95,72074
1.6667,0.2981,39.9300,101,95,72078
1.6911,0.2981,39.6000,101,95,72081
1.6960,0.2981,39.9300,101,95,72084
1.7058,0.2981,39.9300,101,95,72088
1.7498,0.3030,39.7700,101,95,72091
1.7351,0.2981,40.0300,101,95,72094
1.7742,0.3079,39.8000,101,95,72098
1.7693,0.2835,39.9300,101,95,72101
1.7840,0.2688,39.9600,101,95,72104
1.8133,0.2981,39.8300,101,95,72108
1.8084,0.2981,39.9300,101,95,72112
1.8524,0.2981,39.7700,101,95,72115
1.8524,0.2981,39.8900,101,95,72118
1.8768,0.2981,39.9600,101,95,72122
1.9159,0.3030,39.8300,101,95,72125
1.9062,0.3128,39.9300,101,95,72128
1.9648,0.3030,39.7700,101,95,72132
1.9550,0.2884,39.8000,101,95,72135
1.9746,0.3030,39.9300,101,95,72138
2.0137,0.2884,39.9300,101,95,72142
2.0088,0.2981,39.4400,101,95,72145
2.0772,0.3079,39.6700,101,95,72148
2.0479,0.3030,39.8600,101,95,72152
2.0528,0.2981,39.9300,101,95,72156
2.0723,0.2981,39.8600,101,95,72159
2.0772,0.3079,39.9300,101,95,72162
2.1554,0.3128,39.7000,101,95,72166
2.1017,0.3030,39.8600,101,95,72169
2.0968,0.2933,39.8600,101,95,72172
2.1017,0.3030,39.9300,101,95,72176
2.1114,0.2933,40.0000,101,95,72179
2.1603,0.3079,39.8000,101,95,72182
2.1212,0.3030,40.0600,101,95,72185
2.1163,0.3226,39.8000,101,95,72189
2.0968,0.3030,39.9300,101,95,72193
2.0821,0.3030,39.9600,101,95,72196
2.1065,0.3030,39.9600,101,95,72200
2.0626,0.2981,40.0300,101,95,72203
2.0528,0.3079,39.8000,101,95,72206
1.9941,0.2981,39.9300,101,95,72209
1.9648,0.2981,39.6700,101,95,72213
2.0039,0.3030,39.8000,101,95,72216
1.7840,0.3030,39.8300,101,95,72221
1.7449,0.2933,39.9300,101,95,72224
1.7595,0.3030,39.7700,101,95,72227
1.7058,0.2835,39.8600,101,95,72231
1.6960,0.2981,40.0000,101,95,72235
1.6862,0.3030,39.9600,101,95,72238
1.6569,0.2981,40.0000,101,95,72242
1.6960,0.3324,39.6700,101,95,72245
1.6618,0.2981,39.8300,101,95,72248
1.6569,0.2933,39.8900,101,95,72252
1.6618,0.2981,39.8900,101,95,72255
1.6520,0.3177,39.9300,101,95,72258
1.7155,0.3079,39.7700,101,95,72261
1.6813,0.3030,39.8600,101,95,72265
1.6813,0.2981,39.8600,101,95,72268
1.6813,0.2884,39.9300,101,95,72271
1.6911,0.2981,39.4100,101,95,72275
1.7351,0.3030,39.8300,101,95,72279
1.7204,0.2981,39.8900,101,95,72282
1.7449,0.2981,39.8000,101,95,72286
1.7449,0.2981,39.9300,101,95,72289
1.7351,0.2981,40.0000,101,95,72292
1.7546,0.3030,39.8900,101,95,72296
1.7498,0.2688,39.8900,101,95,72299
1.7742,0.3030,39.9300,101,95,72302
1.7546,0.3226,39.9600,101,95,72305
1.7595,0.2981,39.9600,101,95,72309
1.7840,0.3030,39.8000,101,95,72312
1.7693,0.3128,39.9300,101,95,72315
1.8084,0.3030,39.7700,101,95,72320
1.7840,0.2981,39.8900,101,95,72323
1.8133,0.2981,39.9300,101,95,72326
1.8280,0.3079,39.8300,101,95,72330
1.8133,0.2981,39.9600,101,95,72333
1.8475,0.3030,39.6700,101,95,72336
1.8182,0.3030,40.0600,101,95,72340
1.8084,0.2981,39.9300,101,95,72343
1.8231,0.3030,39.8900,101,95,72346
1.8182,0.2981,40.0000,101,95,72349
1.8719,0.3079,39.7000,101,95,72353
1.8231,0.2981,39.8300,101,95,72356
1.8133,0.2933,39.8600,101,95,72359
1.8182,0.3030,39.9300,101,95,72364
1.8084,0.2981,40.0000,101,95,72367
1.8622,0.3079,39.8300,101,95,72370
1.8280,0.3030,39.8900,101,95,72374
1.8280,0.2981,39.8300,101,95,72377
1.8084,0.2981,39.9300,101,95,72380
1.8084,0.2981,40.1000,101,95,72384
1.8426,0.3128,39.8900,101,95,72387
1.8182,0.2981,39.9600,101,95,72390
1.8426,0.3030,39.8000,101,95,72393
1.8133,0.3030,39.9300,101,95,72397
1.8084,0.2688,39.9300,101,95,72400
1.8524,0.3079,40.0000,101,95,72403
1.8475,0.3030,39.9300,101,95,72408
1.8671,0.2981,39.8300,101,95,72411
1.8524,0.2981,39.8300,101,95,72414
1.8573,0.2933,39.9300,101,95,72418
1.8866,0.3030,39.8600,101,95,72421
1.8866,0.3275,39.9300,101,95,72424
1.9355,0.2884,39.7300,101,95,72427
1.9110,0.2981,39.8600,101,95,72431
1.9159,0.2933,39.9300,101,95,72434
1.9453,0.3030,39.8900,101,95,72437
1.9453,0.2981,39.9600,101,95,72441
2.0235,0.2884,39.6700,101,95,72444
1.9990,0.3372,39.8600,101,95,72448
1.9990,0.2933,39.9300,101,95,72452
2.0039,0.2981,39.9600,101,95,72455
1.9892,0.2981,40.0600,101,95,72458
2.0821,0.3128,39.7000,101,95,72462
2.0039,0.3079,39.8600,101,95,72465
1.9795,0.2933,39.9300,101,95,72468
1.9501,0.3030,39.9300,101,95,72471
1.9062,0.2884,39.9300,101,95,72475
1.9110,0.3079,39.6000,101,95,72478
1.8426,0.2933,39.8600,101,95,72481
1.8084,0.2981,39.8300,101,95,72485
1.7693,0.3030,40.0300,101,95,72488
1.7400,0.3030,39.9300,101,95,72492
1.7498,0.3030,39.8900,101,95,72496
1.7155,0.2981,39.9600,101,95,72499
1.7302,0.3030,39.8300,101,95,72502
1.7155,0.2884,39.9300,101,95,72505
1.7107,0.2981,39.9600,101,95,72509
1.7204,0.2981,39.8300,101,95,72512
1.7058,0.2981,39.9300,101,95,72515
1.7204,0.2981,40.1000,101,95,72519
1.6960,0.3030,39.8900,101,95,72522
1.7107,0.2981,39.9600,101,95,72525
1.7302,0.3030,39.8900,101,95,72529
1.7058,0.3030,39.9300,101,95,72532
1.7400,0.3030,39.7300,101,95,72536
1.7351,0.3030,39.8300,101,95,72540
1.7889,0.2981,40.0600,101,95,72543
1.9257,0.3030,39.8600,101,95,72546
2.0870,0.2981,39.9300,101,95,72549
2.3851,0.3079,39.8000,101,95,72553
2.5953,0.3030,39.8600,101,95,72556
2.8690,0.2688,39.9300,101,95,72559
3.1085,0.3030,39.8900,101,95,72563
3.2209,0.2981,39.8000,101,95,72566
3.2991,0.3079,39.6700,101,95,72569
3.1036,0.3030,39.8600,101,95,72573
2.8983,0.2688,39.8900,101,95,72577
2.6686,0.3030,39.8900,101,95,72580
2.4340,0.2981,39.9300,101,95,72583
2.2727,0.3079,39.7300,101,95,72587
2.0235,0.3030,39.9300,101,95,72590
1.8573,0.2981,39.8300,101,95,72593
1.7058,0.2981,39.9300,101,95,72597
1.6129,0.2884,39.9300,101,95,72600
1.5689,0.3030,40.0000,101,95,72603
1.5005,0.3030,39.8900,101,95,72607
1.5152,0.2981,39.8000,101,95,72610
1.4516,0.2981,39.9600,101,95,72613
1.4418,0.3177,39.9300,101,95,72616
1.4516,0.2981,39.8600,101,95,72621
1.4467,0.2981,39.9300,101,95,72624
1.4907,0.2981,39.8000,101,95,72627
1.4663,0.2981,39.9300,101,95,72631
1.4761,0.2981,39.9300,101,95,72634
1.5054,0.2884,39.8300,101,95,72637
1.5054,0.2981,40.0000,101,95,72641
1.5543,0.3030,39.7300,101,95,72644
1.5543,0.2981,39.8900,101,95,72647
1.5689,0.2981,40.0000,101,95,72651
1.5934,0.3030,39.8900,101,95,72654
1.5934,0.2981,39.9600,101,95,72657
1.6520,0.3079,39.3500,101,95,72660
1.6471,0.3226,39.8900,101,95,72665
1.6520,0.2981,39.9600,101,95,72668
1.6764,0.3030,39.8900,101,95,72671
1.6764,0.2933,39.9300,101,95,72675
1.7400,0.3079,39.7300,101,95,72678
1.7155,0.3079,39.8300,101,95,72681
1.7351,0.2884,39.8600,101,95,72685
1.7449,0.2981,40.0600,101,95,72688
1.7546,0.2933,39.9300,101,95,72691
1.8133,0.3079,39.8900,101,95,72695
1.7986,0.3030,39.9300,101,95,72698
1.8280,0.2981,39.8900,101,95,72701
1.8328,0.2884,39.8300,101,95,72705
1.8524,0.2981,40.0600,101,95,72709
1.8915,0.3226,39.8300,101,95,72712
1.8817,0.2981,39.9300,101,95,72715
1.9159,0.3079,39.8000,101,95,72719
1.9013,0.2981,39.9300,101,95,72722
1.9257,0.2981,39.9600,101,95,72725
1.9795,0.3177,39.8000,101,95,72729
1.9697,0.2981,39.9300,101,95,72732
2.0039,0.2981,39.7700,101,95,72735
1.9990,0.2981,39.8300,101,95,72739
2.0088,0.2981,39.9300,101,95,72742
2.0479,0.3079,39.8000,101,95,72745
2.0479,0.2835,39.9600,101,95,72749
2.1163,0.2981,39.7300,101,95,72753
2.0626,0.2981,39.9300,101,95,72756
2.0626,0.2981,40.0300,101,95,72759
2.0870,0.3030,39.8600,101,95,72763
2.0723,0.2981,39.9600,101,95,72766
2.1261,0.3079,39.7000,101,95,72769
2.0772,0.2981,39.8900,101,95,72772
2.0626,0.2981,39.9300,101,95,72776
2.0919,0.3030,39.8900,101,95,72779
2.0626,0.2981,39.9300,101,95,72782
2.1163,0.3079,39.7000,101,95,72786
2.0528,0.3030,39.8600,101,95,72790
2.0235,0.2933,39.8900,101,95,72793
1.9941,0.3324,39.9300,101,95,72797
1.9599,0.2688,39.9300,101,95,72800
1.9746,0.3079,39.7700,101,95,72803
1.9062,0.3079,39.8900,101,95,72807
1.8671,0.2884,39.8300,101,95,72810
1.8280,0.2981,40.0300,101,95,72813
1.7889,0.2981,39.8600,101,95,72816
1.7791,0.3030,39.8300,101,95,72820
1.7302,0.2981,39.8900,101,95,72823
1.7644,0.3030,39.8300,101,95,72826
1.6862,0.2981,39.9300,101,95,72830
1.6422,0.2981,39.8600,101,95,72835
1.6422,0.2981,39.9600,101,95,72839
1.6618,0.3079,39.8600,101,95,72842
1.6422,0.2981,39.8900,101,95,72845
1.6862,0.3079,39.6700,101,95,72849
1.6764,0.2884,39.8300,101,95,72852
1.6716,0.2981,40.0000,101,95,72855
1.6911,0.3030,39.8900,101,95,72859
1.6813,0.2981,39.9600,101,95,72862
1.7351,0.3421,39.6400,101,95,72865
1.7058,0.3128,39.9600,101,95,72868
1.7107,0.2933,39.9300,101,95,72872
1.7204,0.2981,39.8900,101,95,72876
1.7253,0.2981,40.1600,101,95,72879
1.7644,0.2981,39.8000,101,95,72883
1.7351,0.3030,39.8900,101,95,72886
1.7595,0.2981,39.8300,101,95,72889
1.7546,0.2981,39.9300,101,95,72893
1.7644,0.2981,39.9300,101,95,72896
1.7937,0.3079,39.8300,101,95,72899
1.7742,0.2981,39.8900,101,95,72903
1.7937,0.3079,39.8000,101,95,72906
1.7644,0.2981,39.9600,101,95,72909
1.7840,0.2981,39.9600,101,95,72912
1.8182,0.3372,39.8300,101,95,72916
1.7986,0.2981,39.8600,101,95,72920
1.8280,0.2981,39.7700,101,95,72923
1.8182,0.2884,39.8300,101,95,72927
1.8084,0.2981,39.9600,101,95,72930
1.8328,0.3079,39.8600,101,95,72933
1.8133,0.2981,39.9600,101,95,72937
1.8573,0.3226,39.7300,101,95,72940
1.8133,0.2933,39.9600,101,95,72943
1.8133,0.2981,39.9300,101,95,72947
1.8280,0.3030,39.8900,101,95,72950
1.8182,0.2981,40.1000,101,95,72953
1.8719,0.3079,39.6400,101,95,72957
1.8377,0.3030,39.8300,101,95,72961
1.8231,0.2933,40.2000,101,95,72964
1.8182,0.3030,39.9300,101,95,72967
1.8133,0.2981,40.0300,101,95,72971
1.8622,0.3177,39.8000,101,95,72974
1.8573,0.2884,39.9300,101,95,72977
1.8280,0.2981,39.8600,101,95,72981
1.8377,0.2884,39.8900,101,95,72984
1.8133,0.2981,40.0300,101,95,72987
1.8573,0.3079,39.7700,101,95,72991
1.8328,0.2981,39.9600,101,95,72994
1.8622,0.3030,39.8900,101,95,72997
1.8377,0.2981,40.0300,101,95,73001
1.8475,0.2981,39.9300,101,95,73005
1.8719,0.3372,39.8900,101,95,73008
1.8719,0.2884,39.9300,101,95,73011
1.9110,0.2981,39.8000,101,95,73015
1.8964,0.2981,39.9300,101,95,73018
1.9306,0.2884,39.9300,101,95,73021
1.9208,0.3030,39.8600,101,95,73025
1.9062,0.2981,39.8900,101,95,73028
1.9697,0.2981,39.7300,101,95,73031
1.9501,0.2981,39.9300,101,95,73035
1.9746,0.2933,39.9300,101,95,73038
1.9990,0.3030,39.8900,101,95,73041
1.9844,0.3128,39.9300,101,95,73046
2.0577,0.3079,39.7000,101,95,73049
2.0088,0.3030,39.8600,101,95,73052
1.9844,0.2981,39.9600,101,95,73055
1.9844,0.3079,39.8900,101,95,73059
1.9550,0.2884,39.9300,101,95,73062
1.9746,0.3128,39.7000,101,95,73065
1.8964,0.3079,39.8600,101,95,73069
1.8573,0.2933,39.8600,101,95,73072
1.8182,0.3079,39.8900,101,95,73075
1.7986,0.2884,39.9300,101,95,73079
1.7937,0.3079,39.8000,101,95,73082
1.7400,0.3030,40.0600,101,95,73085
1.7302,0.2981,39.8000,101,95,73089
1.7009,0.2933,39.8900,101,95,73093
1.7009,0.2981,39.9600,101,95,73096
1.7253,0.3079,39.8000,101,95,73099
1.6960,0.2981,39.9300,101,95,73103
1.7107,0.3030,39.8300,101,95,73106
1.6862,0.3030,39.9300,101,95,73109
1.6960,0.2981,39.9300,101,95,73113
1.7351,0.3079,39.8000,101,95,73116
1.7058,0.3030,39.9300,101,95,73119
1.7253,0.2884,39.8000,101,95,73122
1.6911,0.2981,39.8900,101,95,73126
1.7009,0.2981,39.9300,101,95,73129
1.7693,0.3030,39.8300,101,95,73133
1.8475,0.2981,39.9300,101,95,73137
2.0332,0.3030,39.7300,101,95,73140
2.2190,0.2981,39.9300,101,95,73143
2.4731,0.2981,39.8600,101,95,73147
2.7761,0.3030,39.8600,101,95,73150
3.0205,0.2981,39.9300,101,95,73153
3.2307,0.2884,39.7000,101,95,73156
3.2014,0.2981,39.8900,101,95,73160
3.0890,0.3177,39.9300,101,95,73163
2.9374,0.3030,39.8900,101,95,73166
2.7126,0.2981,39.9300,101,95,73170
2.5855,0.3128,39.6700,101,95,73174
2.3021,0.3030,39.8900,101,95,73177
2.0821,0.2933,39.8900,101,95,73181
1.9062,0.3030,39.8900,101,95,73184
1.7498,0.2981,40.0000,101,95,73187
1.6862,0.3079,39.7300,101,95,73191
1.5787,0.3030,39.8900,101,95,73194
1.5396,0.3030,39.8300,101,95,73197
1.4956,0.3079,39.9300,101,95,73200
1.4712,0.2884,39.9300,101,95,73204
1.4809,0.3079,39.8600,101,95,73207
1.4712,0.3128,39.8900,101,95,73210
1.4956,0.3030,39.8000,101,95,73214
1.4809,0.2981,39.9300,101,95,73218
1.4858,0.2933,39.9300,101,95,73221
1.5005,0.3030,39.8300,101,95,73225
1.5103,0.2981,39.1900,101,95,73228
1.5543,0.2981,39.8000,101,95,73231
1.5543,0.2981,39.9600,101,95,73235
1.5787,0.2981,40.0000,101,95,73238
1.6471,0.3030,39.8300,101,95,73241
1.6080,0.2981,39.9600,101,95,73244
1.6471,0.3030,39.7700,101,95,73248
1.6422,0.3079,39.8300,101,95,73251
1.6422,0.2981,39.9600,101,95,73254
1.6764,0.2884,39.8600,101,95,73259
1.6471,0.2981,39.9600,101,95,73262
1.7107,0.3079,39.7300,101,95,73265
1.6911,0.2981,39.8300,101,95,73269
1.7009,0.2981,39.9600,101,95,73272
1.7302,0.3030,39.9300,101,95,73275
1.7351,0.3030,39.9300,101,95,73278
1.7937,0.3177,39.7000,101,95,73282
1.7742,0.3079,39.8000,101,95,73285
1.7791,0.3079,39.8600,101,95,73288
1.7986,0.3030,39.9300,101,95,73292
1.8133,0.2981,39.8600,101,95,73295
1.9062,0.2884,39.8000,101,95,73298
1.8475,0.3030,39.9300,101,95,73303
1.8671,0.3030,39.8000,101,95,73306
1.8671,0.2981,39.9300,101,95,73309
1.8915,0.2981,40.0000,101,95,73313
1.9501,0.3128,39.7700,101,95,73316
1.9453,0.2981,39.9300,101,95,73319
1.9892,0.3079,39.7700,101,95,73322
1.9795,0.2884,39.9300,101,95,73326
1.9990,0.2981,39.9600,101,95,73329
2.0332,0.2981,39.8300,101,95,73332
2.0381,0.2981,39.9300,101,95,73336
2.0723,0.2981,39.8300,101,95,73339
2.0626,0.2981,39.9300,101,95,73342
2.0577,0.2981,39.9600,101,95,73347
2.0821,0.3030,39.6700,101,95,73350
2.0674,0.3030,39.9300,101,95,73353
2.1114,0.3030,39.7300,101,95,73356
2.0772,0.2981,40.0000,101,95,73360
2.0674,0.2981,40.0600,101,95,73363
2.0772,0.3226,39.8900,101,95,73366
2.0577,0.2981,40.0300,101,95,73370
2.1065,0.3079,39.7000,101,95,73373
2.0626,0.3030,39.8600,101,95,73376
2.0674,0.2884,39.9300,101,95,73380
2.0235,0.3030,40.0600,101,95,73383
1.9892,0.2981,39.8300,101,95,73387
2.0283,0.3128,39.7000,101,95,73390
1.9550,0.3079,39.9600,101,95,73394
1.9110,0.2933,39.8900,101,95,73397
1.8768,0.2884,39.9300,101,95,73400
1.8328,0.2981,39.9300,101,95,73404
1.8377,0.3079,39.8300,101,95,73407
1.7840,0.3030,39.8900,101,95,73410
1.7644,0.2981,39.8300,101,95,73414
1.7204,0.3030,39.9300,101,95,73417
1.6960,0.2981,39.9600,101,95,73420
1.6960,0.3030,39.8000,101,95,73424
1.6618,0.3079,39.9300,101,95,73427
1.6862,0.3079,39.7700,101,95,73431
1.6471,0.3079,39.9300,101,95,73434
1.6520,0.2933,39.9300,101,95,73438
1.6667,0.3079,39.8600,101,95,73441
1.6716,0.3030,39.8900,101,95,73446
1.6618,0.3275,39.8900,101,95,73449
1.7107,0.3079,39.6700,101,95,73452
1.6813,0.3079,39.8600,101,95,73456
1.6960,0.3030,39.9300,101,95,73459
1.7058,0.3030,39.9300,101,95,73462
1.7107,0.2981,40.0600,101,95,73466
1.7595,0.3177,39.7000,101,95,73469
1.7302,0.3079,39.9300,101,95,73473
1.7253,0.2981,39.8600,101,95,73477
1.7351,0.2981,39.8900,101,95,73480
1.7351,0.3275,39.9600,101,95,73483
1.7791,0.3079,39.8300,101,95,73487
1.7546,0.3030,40.0600,101,95,73490
1.7644,0.3079,39.8000,101,95,73493
1.7595,0.2981,40.0000,101,95,73496
1.7644,0.2981,39.9600,101,95,73500
1.8035,0.3030,39.7700,101,95,73503
1.7791,0.2981,39.9600,101,95,73506
1.7986,0.3079,39.8000,101,95,73510
1.7693,0.2933,39.8900,101,95,73513
1.7791,0.2981,39.9300,101,95,73517
1.7937,0.3177,39.9300,101,95,73521
1.7937,0.3030,39.9600,101,95,73524
1.8133,0.2981,39.7700,101,95,73527
1.7889,0.2981,39.9300,101,95,73531
1.7889,0.2981,40.0000,101,95,73534
1.8133,0.3079,39.8900,101,95,73537
1.7986,0.2884,39.9600,101,95,73540
1.8426,0.2981,39.7300,101,95,73544
1.8035,0.2981,39.8900,101,95,73547
1.8328,0.2981,39.9300,101,95,73550
1.8133,0.3030,40.1000,101,95,73554
1.8231,0.2981,39.9300,101,95,73558
1.8426,0.3079,39.6400,101,95,73561
1.8133,0.3030,39.8600,101,95,73565
1.7937,0.2933,39.8900,101,95,73568
1.7937,0.3030,39.8600,101,95,73571
1.7889,0.2981,39.9300,101,95,73575
1.8475,0.3128,39.7700,101,95,73578
1.8182,0.2981,39.8900,101,95,73581
1.8182,0.2981,39.8300,101,95,73584
1.8084,0.2981,40.0300,101,95,73588
1.8035,0.2981,39.9300,101,95,73591
1.8475,0.3079,39.8300,101,95,73594
1.8328,0.3030,39.8900,101,95,73598
1.8671,0.3030,39.8000,101,95,73602
1.8817,0.3030,40.0000,101,95,73605
1.8768,0.2981,39.9300,101,95,73609
1.9013,0.3030,40.1300,101,95,73612
1.8866,0.3030,39.9300,101,95,73615
1.9159,0.2981,39.8000,101,95,73618
1.9013,0.2981,40.0000,101,95,73622
1.9208,0.2981,39.9600,101,95,73625
1.9648,0.3079,39.8000,101,95,73628
1.9648,0.2981,39.9300,101,95,73632
2.0088,0.3030,39.7700,101,95,73635
2.0039,0.2981,39.8300,101,95,73638
1.9892,0.2981,40.0000,101,95,73643
2.0088,0.2981,39.8600,101,95,73646
1.9892,0.3030,39.9300,101,95,73649
2.0186,0.3030,39.7000,101,95,73652
1.9599,0.2981,39.9300,101,95,73656
1.9404,0.2981,40.0000,101,95,73659
1.9306,0.3079,39.8600,101,95,73662
1.8964,0.2981,39.8900,101,95,73666
1.8964,0.3128,39.6700,101,95,73669
1.8133,0.3030,39.8600,101,95,73672
1.7986,0.2933,39.9300,101,95,73676
1.7546,0.3030,39.9600,101,95,73679
1.7302,0.3079,39.9300,101,95,73682
1.7693,0.3177,39.7000,101,95,73686
1.7253,0.3079,39.8600,101,95,73690
1.7058,0.2981,39.8900,101,95,73693
1.6960,0.2981,39.9600,101,95,73696
1.6960,0.2981,39.8900,101,95,73700
1.7742,0.2981,39.7700,101,95,73703
1.7155,0.3030,40.0300,101,95,73706
1.7253,0.3079,39.8000,101,95,73710
1.7107,0.3030,39.9300,101,95,73713
1.7009,0.2981,39.9600,101,95,73716
1.7204,0.3030,39.8300,101,95,73720
1.7009,0.2981,39.9300,101,95,73723
1.7498,0.3079,39.8600,101,95,73726
1.7742,0.2981,39.6400,101,95,73730
1.8573,0.3079,39.9300,101,95,73734
2.0186,0.3030,39.8600,101,95,73737
2.2190,0.2981,39.9600,101,95,73740
2.5171,0.2981,39.8300,101,95,73744
2.7615,0.2981,39.9300,101,95,73747
2.9961,0.2981,40.0000,101,95,73750
3.1672,0.3079,39.8900,101,95,73754
3.1427,0.2981,39.8600,101,95,73757
3.0890,0.3030,39.7700,101,95,73760
2.8739,0.3030,39.8000,101,95,73763
2.6344,0.3030,39.9600,101,95,73767
2.4389,0.3079,39.9600,101,95,73771
2.2141,0.2981,39.8000,101,95,73774
2.0821,0.3128,39.7000,101,95,73778
1.8768,0.2981,39.8600,101,95,73781
1.7400,0.2981,39.1600,101,95,73784
1.6422,0.3030,39.8900,101,95,73788
1.5543,0.2688,39.8900,101,95,73791
1.5494,0.3177,39.7300,101,95,73794
1.4858,0.3079,39.8600,101,95,73797
1.4663,0.2981,39.9600,101,95,73801
1.4614,0.3030,39.8900,101,95,73804
1.4565,0.2981,39.9300,101,95,73807
1.4907,0.3372,39.7700,101,95,73811
1.4663,0.3079,39.8900,101,95,73815
1.4858,0.3030,39.8300,101,95,73818
1.4809,0.3030,39.9300,101,95,73822
1.5103,0.2884,39.9300,101,95,73825
1.5396,0.3079,39.7700,101,95,73828
1.5249,0.2981,39.9300,101,95,73832
1.5640,0.3079,39.8300,101,95,73835
1.5591,0.2933,39.8900,101,95,73838
1.5738,0.3177,39.9300,101,95,73841
1.5982,0.2981,39.8600,101,95,73845
1.6031,0.2933,40.0000,101,95,73848
1.6325,0.3030,39.8000,101,95,73851
1.6178,0.2981,39.9600,101,95,73856
1.6373,0.2981,39.9300,101,95,73859
1.6813,0.3079,39.8300,101,95,73862
1.6764,0.2981,40.0300,101,95,73866
1.7546,0.3030,39.7000,101,95,73869
1.7058,0.2981,39.8600,101,95,73872
1.7302,0.2981,40.0600,101,95,73876
1.7595,0.3030,39.9300,101,95,73879
1.7693,0.2981,39.9600,101,95,73882
1.8377,0.3079,39.6700,101,95,73885
1.8182,0.3030,39.8900,101,95,73889
1.8231,0.2933,39.8900,101,95,73892
1.8475,0.2981,39.8900,101,95,73895
1.8524,0.2981,39.9600,101,95,73900
1.9257,0.3226,39.7700,101,95,73903
1.9062,0.3030,39.8600,101,95,73906
1.9110,0.2981,40.0000,101,95,73910
1.9110,0.2933,39.9300,101,95,73913
1.9257,0.2884,39.9300,101,95,73916
1.9746,0.3079,39.8600,101,95,73920
1.9599,0.2884,39.9300,101,95,73923
1.9990,0.3030,39.8000,101,95,73926
1.9795,0.2981,39.9300,101,95,73929
1.9892,0.3030,39.9300,101,95,73933
2.0235,0.3030,39.8600,101,95,73936
2.0235,0.2981,39.9600,101,95,73939
2.0674,0.3079,39.8600,101,95,73944
2.0430,0.2786,39.9300,101,95,73947
2.0479,0.3030,39.9600,101,95,73950
2.0821,0.3079,39.8300,101,95,73954
2.0430,0.2981,39.9300,101,95,73957
2.0674,0.3079,39.7300,101,95,73960
2.0430,0.2981,39.8600,101,95,73963
2.0283,0.2981,39.9600,101,95,73967
2.0332,0.3079,39.8300,101,95,73970
2.0088,0.2884,39.9300,101,95,73973
2.0332,0.3030,39.7300,101,95,73977
1.9795,0.2981,39.9300,101,95,73980
1.9599,0.3030,39.9300,101,95,73984
1.9550,0.3030,39.8600,101,95,73988
1.9062,0.2981,40.1300,101,95,73991
1.9208,0.3079,39.7000,101,95,73994
1.8524,0.3030,39.8600,101,95,73997
1.8084,0.2933,39.9300,101,95,74001
1.7840,0.3079,39.9300,101,95,74004
1.7498,0.2884,39.9300,101,95,74007
1.7742,0.3177,39.7300,101,95,74011
1.7107,0.2884,39.8900,101,95,74014
1.6960,0.2981,39.8300,101,95,74017
1.6813,0.3030,39.9300,101,95,74021
1.6716,0.2981,39.9300,101,95,74024
1.6911,0.3079,39.7700,101,95,74028
1.6520,0.3030,39.9600,101,95,74032
1.6520,0.3030,39.2500,101,95,74035
1.6227,0.3030,39.8900,101,95,74038
1.6227,0.2981,39.8900,101,95,74041
1.6422,0.3079,39.8600,101,95,74045
1.6276,0.2933,39.8900,101,95,74048
1.6520,0.3079,39.8300,101,95,74051
1.6325,0.2981,39.7700,101,95,74055
1.6764,0.2981,39.8900,101,95,74059
1.6764,0.2981,40.0600,101,95,74063
1.7009,0.3275,39.8600,101,95,74066
1.6960,0.2981,39.9600,101,95,74070
1.7546,0.3128,39.7300,101,95,74074
1.7302,0.3030,39.8300,101,95,74077
1.7204,0.2981,39.9300,101,95,74080
1.7351,0.3030,40.0600,101,95,74083
1.7351,0.3030,39.9300,101,95,74087
1.7937,0.3177,39.7000,101,95,74090
1.7644,0.3324,39.8000,101,95,74093
1.7644,0.2981,39.8600,101,95,74097
1.7644,0.2981,39.9300,101,95,74100
1.7644,0.2981,40.0000,101,95,74103
1.8084,0.2981,39.8300,101,95,74107
1.7889,0.3030,39.8900,101,95,74110
1.7986,0.3030,39.8900,101,95,74114
1.7742,0.3030,39.9600,101,95,74117
1.7693,0.2981,39.9300,101,95,74121
1.7986,0.3079,39.8900,101,95,74124
1.7840,0.3030,39.9300,101,95,74127
1.8084,0.3177,39.8300,101,95,74131
1.7840,0.2981,39.9300,101,95,74134
1.7840,0.3030,39.9300,101,95,74137
1.8035,0.3079,39.8300,101,95,74141
1.7791,0.3030,39.9300,101,95,74144
1.8280,0.2981,39.8300,101,95,74147
1.7840,0.2981,39.9300,101,95,74151
1.7742,0.2981,39.9300,101,95,74155
1.7840,0.3079,39.0600,101,95,74158
1.7644,0.2981,39.9300,101,95,74161
1.8182,0.2884,39.7000,101,95,74165
1.7889,0.3275,39.9600,101,95,74168
1.7937,0.2981,39.9600,101,95,74171
1.8084,0.3030,39.8900,101,95,74175
1.7937,0.2981,39.9300,101,95,74178
1.8426,0.3128,39.7000,101,95,74181
1.8182,0.3030,39.8300,101,95,74185
1.8280,0.3226,39.9300,101,95,74188
1.8524,0.3030,39.9600,101,95,74191
1.8622,0.2981,39.9300,101,95,74195
