ecg,gsr,temp,hr,spo2,timest
1.9355,0.0782,37.1000,79,97,257863
1.9257,0.0831,37.2000,79,97,257867
1.9257,0.0831,37.2000,79,97,257870
1.9599,0.1026,37.0300,79,97,257873
1.9306,0.0831,37.2000,79,97,257878
1.9599,0.0733,37.0600,79,97,257881
1.9355,0.0831,37.2000,79,97,257884
1.9453,0.0831,37.2000,79,97,257887
1.9990,0.0880,37.0600,79,97,257891
1.9648,0.0831,37.1600,79,97,257894
1.9697,0.0831,37.0600,79,97,257897
1.9355,0.0782,37.1600,79,97,257901
1.9306,0.0733,37.1600,79,97,257904
1.9355,0.0880,37.1300,79,97,257907
1.9257,0.0831,37.2000,79,97,257911
1.9648,0.0831,37.0300,79,97,257914
1.9306,0.0831,37.2000,79,97,257917
1.9257,0.0733,37.2000,79,97,257921
1.9257,0.0929,37.1000,79,97,257925
1.8866,0.0929,37.1600,79,97,257928
1.9159,0.0880,36.9600,79,97,257931
1.8671,0.0880,37.1600,79,97,257935
1.8328,0.0831,37.2600,79,97,257938
1.8231,0.0733,37.1600,79,97,257941
1.8035,0.0831,37.0300,79,97,257945
1.8426,0.0929,36.9300,79,97,257948
1.7937,0.0733,37.1000,79,97,257951
1.7693,0.0782,37.1600,79,97,257954
1.7595,0.0880,37.2000,79,97,257958
1.7449,0.0831,37.1600,79,97,257961
1.7986,0.0929,37.1000,79,97,257965
1.7204,0.0733,37.1600,79,97,257969
1.7155,0.0831,37.1000,79,97,257972
1.6960,0.0782,37.1600,79,97,257975
1.6911,0.0831,37.2000,79,97,257979
1.7155,0.0929,37.0600,79,97,257982
1.6960,0.0880,37.1600,79,97,257985
1.7107,0.0880,37.0600,79,97,257988
1.6911,0.0880,37.2300,79,97,257992
1.6911,0.0831,37.0600,79,97,257995
1.7155,0.0880,37.0300,79,97,257998
1.6960,0.0831,37.2000,79,97,258002
1.7204,0.0929,37.1000,79,97,258006
1.6960,0.0831,37.1600,79,97,258009
1.7058,0.0929,37.2000,79,97,258012
1.7302,0.0880,37.1000,79,97,258016
1.7155,0.0733,37.1600,79,97,258019
1.7449,0.0831,37.1300,79,97,258022
1.7253,0.0880,37.1300,79,97,258026
1.7351,0.0831,37.2000,79,97,258029
1.7546,0.0880,37.1600,79,97,258032
1.7498,0.0880,37.2300,79,97,258036
1.7791,0.0831,36.9600,79,97,258039
1.7498,0.0831,37.1600,79,97,258042
1.7840,0.0880,37.1600,79,97,258046
1.7791,0.0929,37.1300,79,97,258050
1.7595,0.1124,37.2300,79,97,258053
1.8084,0.0929,36.8900,79,97,258056
1.7840,0.0880,37.0600,79,97,258060
1.7644,0.0831,36.8000,79,97,258063
1.7742,0.0880,37.1600,79,97,258066
1.7937,0.0831,37.2000,79,97,258070
1.8231,0.1026,36.9600,79,97,258073
1.7840,0.0978,37.1300,79,97,258076
1.8084,0.0782,37.1300,79,97,258080
1.7791,0.0880,37.2000,79,97,258083
1.7791,0.0831,37.2000,79,97,258086
1.8231,0.1026,37.1000,79,97,258089
1.7889,0.0831,37.1600,79,97,258094
1.7986,0.0831,37.1000,79,97,258097
1.7791,0.1124,37.1300,79,97,258100
1.7791,0.0733,37.2000,79,97,258104
1.8035,0.0929,37.2000,79,97,258107
1.7889,0.0880,37.1600,79,97,258110
1.8328,0.0880,37.0600,79,97,258114
1.7889,0.0831,37.2000,79,97,258117
1.7889,0.0831,37.2600,79,97,258120
1.8182,0.0978,37.0300,79,97,258123
1.7889,0.0831,37.1600,79,97,258127
1.8084,0.0831,37.0300,79,97,258130
1.7742,0.0880,37.1000,79,97,258134
1.7742,0.0782,37.2000,79,97,258138
1.7937,0.0880,37.1600,79,97,258141
1.7791,0.0831,37.1600,79,97,258144
1.8133,0.0831,37.0000,79,97,258148
1.7840,0.0880,37.2300,79,97,258151
1.7742,0.0831,37.1300,79,97,258154
1.7937,0.0929,37.1300,79,97,258157
1.7742,0.0733,37.2000,79,97,258161
1.8182,0.0880,36.9600,79,97,258164
1.7937,0.0831,37.1300,79,97,258167
1.7889,0.0831,37.2600,79,97,258171
1.7986,0.0880,37.1600,79,97,258174
1.7889,0.0831,37.1600,79,97,258178
1.8426,0.1026,37.1300,79,97,258182
1.8084,0.0831,37.1000,79,97,258185
1.8280,0.0782,37.1300,79,97,258188
1.7937,0.0880,37.1600,79,97,258191
1.7889,0.0831,37.1600,79,97,258195
1.8328,0.0929,37.0000,79,97,258198
1.8035,0.0880,37.1600,79,97,258201
1.8133,0.0831,37.0600,79,97,258205
1.8084,0.0831,37.1600,79,97,258208
1.8377,0.0782,37.2000,79,97,258211
1.8622,0.0929,37.0300,79,97,258215
1.8426,0.0880,37.2300,79,97,258219
1.8671,0.0880,37.0600,79,97,258222
1.8475,0.0880,37.2000,79,97,258225
1.8671,0.0880,37.2300,79,97,258230
1.8964,0.0733,37.2000,79,97,258233
1.9404,0.0929,37.1600,79,97,258237
1.9355,0.0831,37.1600,79,97,258240
1.9795,0.0880,36.9300,79,97,258243
1.9453,0.0880,36.9600,79,97,258247
1.9159,0.0831,37.1600,79,97,258250
1.9110,0.0880,37.1600,79,97,258253
1.8817,0.0880,37.2600,79,97,258257
1.9159,0.0929,36.9300,79,97,258260
1.8622,0.0733,37.1300,79,97,258264
1.8377,0.0831,37.2000,79,97,258267
1.8231,0.0831,37.1000,79,97,258271
1.8035,0.0782,37.2000,79,97,258274
1.8426,0.1026,36.9600,79,97,258277
1.7889,0.0880,37.1300,79,97,258281
1.7742,0.0782,37.2300,79,97,258284
1.7595,0.0880,37.2000,79,97,258287
1.7546,0.0831,37.0000,79,97,258291
1.7840,0.1026,37.0300,79,97,258294
1.7595,0.0880,37.1600,79,97,258297
1.7595,0.0880,37.1000,79,97,258300
1.7351,0.0880,37.2000,79,97,258305
1.7400,0.0831,37.2000,79,97,258308
1.7742,0.0880,37.1000,79,97,258311
1.7449,0.0880,37.1600,79,97,258315
1.7742,0.0880,37.0300,79,97,258318
1.7498,0.0880,37.2000,79,97,258321
1.7546,0.1173,37.1600,79,97,258325
1.7840,0.0929,37.1000,79,97,258328
1.7595,0.0880,37.0300,79,97,258331
1.7937,0.0880,37.0600,79,97,258334
1.7595,0.0929,37.1600,79,97,258338
1.7449,0.0831,37.2000,79,97,258341
1.7155,0.0880,37.1000,79,97,258344
1.6960,0.0880,37.1300,79,97,258349
1.7400,0.0880,37.0600,79,97,258352
1.7595,0.0880,37.1600,79,97,258355
1.8377,0.0831,37.2000,79,97,258358
1.9795,0.0929,37.1300,79,97,258362
2.1457,0.0929,37.1600,79,97,258365
2.4438,0.0733,36.9600,79,97,258368
2.6784,0.0929,36.3200,79,97,258372
2.8886,0.0880,37.2000,79,97,258375
3.0645,0.0978,37.1300,79,97,258378
3.0890,0.0831,37.1600,79,97,258382
3.0694,0.0929,36.9600,79,97,258385
2.8104,0.0880,37.1600,79,97,258388
2.5464,0.0880,37.2000,79,97,258392
2.2776,0.0831,37.2300,79,97,258396
2.0332,0.0831,37.2300,79,97,258399
1.9110,0.1026,37.0000,79,97,258402
1.7498,0.0831,37.1300,79,97,258406
1.6813,0.0733,37.1300,79,97,258409
1.6422,0.0880,37.1300,79,97,258412
1.6178,0.0880,37.2000,79,97,258416
1.6422,0.0978,37.1000,79,97,258419
1.6031,0.0929,37.1300,79,97,258422
1.5934,0.0880,37.2000,79,97,258425
1.6080,0.0831,37.1600,79,97,258429
1.5689,0.0733,37.1600,79,97,258433
1.6080,0.0929,37.0600,79,97,258436
1.5934,0.0978,37.1600,79,97,258440
1.6031,0.0929,37.0300,79,97,258443
1.5885,0.0880,37.2000,79,97,258446
1.5885,0.0880,37.2000,79,97,258449
1.6227,0.0978,36.6000,79,97,258453
1.6080,0.1124,37.1300,79,97,258456
1.6471,0.0978,37.0600,79,97,258459
1.6276,0.0831,37.2300,79,97,258463
1.6373,0.0831,37.1000,79,97,258466
1.6520,0.0880,37.1300,79,97,258469
1.6520,0.0831,37.2300,79,97,258473
1.6862,0.0880,37.0300,79,97,258477
1.6667,0.0880,37.1600,79,97,258480
1.6764,0.0880,37.2000,79,97,258483
1.7155,0.0978,37.1000,79,97,258487
1.6862,0.0880,37.2000,79,97,258490
1.7351,0.0880,36.2500,79,97,258493
1.7253,0.1369,37.0600,79,97,258497
1.7204,0.0880,37.2300,79,97,258500
1.7351,0.0929,37.1300,79,97,258503
1.7400,0.0880,37.2000,79,97,258507
1.7889,0.0929,37.0000,79,97,258510
1.7693,0.0880,37.1000,79,97,258513
1.7693,0.0733,37.2000,79,97,258516
1.7742,0.0880,37.2300,79,97,258521
1.7742,0.0880,37.1300,79,97,258524
1.8328,0.1222,36.9600,79,97,258527
1.7937,0.0831,37.4000,79,97,258531
1.7986,0.0831,37.1300,79,97,258534
1.7986,0.0831,37.1600,79,97,258537
1.8084,0.0880,37.3300,79,97,258541
1.8524,0.1026,37.0000,79,97,258544
1.8280,0.0831,37.1600,79,97,258547
1.8475,0.0880,37.0600,79,97,258550
1.8426,0.0880,37.1600,79,97,258554
1.8524,0.0929,37.2000,79,97,258557
1.9159,0.0929,37.0300,79,97,258561
1.8817,0.0880,37.2600,79,97,258565
1.9062,0.0929,37.0600,79,97,258568
1.8866,0.0831,37.2000,79,97,258571
1.9062,0.0880,37.2300,79,97,258574
1.9306,0.1026,37.1000,79,97,258578
1.9110,0.0880,37.2000,79,97,258581
1.9453,0.0929,37.1300,79,97,258584
1.9257,0.0782,37.2300,79,97,258588
1.9355,0.0880,37.2000,79,97,258591
1.9550,0.0929,37.1600,79,97,258594
1.9501,0.0880,37.1300,79,97,258598
1.9844,0.0880,37.0300,79,97,258601
1.9599,0.0880,37.2000,79,97,258605
1.9746,0.0880,37.2000,79,97,258608
1.9892,0.0929,37.1000,79,97,258612
1.9795,0.0978,37.2000,79,97,258615
2.0235,0.1026,36.9600,79,97,258618
2.0039,0.0978,37.1300,79,97,258622
1.9892,0.0880,37.2000,79,97,258625
2.0039,0.1124,37.1300,79,97,258628
1.9892,0.0929,37.2000,79,97,258631
2.0381,0.0978,36.9300,79,97,258635
1.9990,0.0929,37.1300,79,97,258638
1.9892,0.0880,37.1300,79,97,258641
1.9892,0.1026,37.1600,79,97,258646
1.9844,0.0880,37.2300,79,97,258649
2.0332,0.1026,36.3800,79,97,258652
1.9697,0.0831,37.1600,79,97,258656
1.9599,0.0831,37.1300,79,97,258659
1.9501,0.0880,37.1600,79,97,258662
1.9257,0.0831,37.2000,79,97,258666
1.9599,0.1026,37.0300,79,97,258669
1.9110,0.0929,37.2600,79,97,258672
1.8964,0.0880,37.0600,79,97,258675
1.8573,0.0880,37.2300,79,97,258679
1.8377,0.0880,37.2000,79,97,258682
1.8475,0.0929,37.1000,79,97,258685
1.7937,0.0831,37.1600,79,97,258690
1.7986,0.0733,37.0600,79,97,258693
1.7595,0.0880,37.3000,79,97,258696
1.7498,0.0880,37.1600,79,97,258699
1.7595,0.0978,37.0600,79,97,258703
1.7351,0.0929,37.2300,79,97,258706
1.7546,0.0929,37.0600,79,97,258709
1.7204,0.0880,37.2600,79,97,258713
1.7204,0.0880,37.2600,79,97,258716
1.7351,0.0978,37.1000,79,97,258719
1.7302,0.0733,37.2000,79,97,258723
1.7546,0.0880,37.2300,79,97,258726
1.7253,0.0831,37.1600,79,97,258729
1.7351,0.0880,37.2000,79,97,258733
1.7595,0.0978,36.9300,79,97,258737
1.7644,0.0831,37.1600,79,97,258740
1.7742,0.0929,36.9600,79,97,258743
1.7595,0.0929,37.1300,79,97,258747
1.7546,0.0831,37.2300,79,97,258750
1.7693,0.0929,37.1300,79,97,258753
1.7595,0.0929,37.2300,79,97,258757
1.8084,0.0929,36.8900,79,97,258760
1.7742,0.0929,37.1000,79,97,258763
1.7644,0.0880,37.2000,79,97,258767
1.7889,0.0831,37.2300,79,97,258770
1.7742,0.0880,37.1600,79,97,258774
1.8328,0.1026,37.0000,79,97,258777
1.7937,0.0929,37.2300,79,97,258781
1.8035,0.0880,37.1300,79,97,258784
1.7986,0.0929,37.2600,79,97,258787
1.7986,0.0831,37.2000,79,97,258791
1.8475,0.1026,37.0600,79,97,258794
1.8133,0.0929,37.2000,79,97,258797
1.8280,0.0880,37.0600,79,97,258800
1.8084,0.0880,37.2000,79,97,258804
1.8084,0.0880,37.1600,79,97,258807
1.8377,0.1075,37.0000,79,97,258810
1.8133,0.0929,37.2300,79,97,258814
1.8377,0.0929,37.0600,79,97,258818
1.8133,0.0880,37.2000,79,97,258821
1.8182,0.0929,37.2300,79,97,258825
1.8377,0.0929,36.9600,79,97,258828
1.8231,0.0880,37.1600,79,97,258831
1.8475,0.0880,37.0300,79,97,258834
1.8231,0.0929,36.9600,79,98,258838
1.8231,0.0831,37.1000,79,98,258842
1.8133,0.0880,37.2000,79,98,258846
1.8182,0.0929,37.1300,79,98,258849
1.8084,0.0880,37.2000,79,98,258852
1.8524,0.0978,36.9600,79,98,258856
1.8231,0.0929,37.0600,79,98,258860
1.8182,0.0880,37.1600,79,98,258863
1.8231,0.0929,37.2300,79,98,258867
1.8231,0.1173,37.1600,79,98,258870
1.8719,0.0929,37.0000,79,98,258873
1.8280,0.0929,37.1600,79,98,258876
1.8280,0.0978,37.1000,79,98,258880
1.8524,0.0929,37.1600,79,98,258883
1.8133,0.0880,37.1600,79,98,258886
1.8377,0.0978,37.0000,79,98,258890
1.8182,0.0929,37.1300,79,98,258893
1.8280,0.0880,37.0300,79,98,258896
1.8084,0.0929,37.2000,79,98,258900
1.8084,0.0880,37.2000,79,98,258904
1.8231,0.0929,37.1000,79,98,258907
1.8280,0.0831,37.1600,79,98,258910
1.8426,0.0978,37.1000,79,98,258914
1.8231,0.0880,37.1000,79,98,258917
1.8328,0.0831,37.2000,79,98,258920
1.8768,0.0929,37.0600,79,98,258924
1.8524,0.0929,37.2600,79,98,258927
1.8719,0.0929,37.0300,79,98,258930
1.8671,0.0880,37.1000,79,98,258934
1.8671,0.0880,37.2300,79,98,258937
1.8866,0.0978,37.2300,79,98,258940
1.8817,0.0929,37.1600,79,98,258944
1.9208,0.0929,37.3600,79,98,258948
1.9062,0.0978,37.1300,79,98,258951
1.8866,0.0880,37.2000,79,98,258954
1.9062,0.0978,37.1000,79,98,258958
1.9110,0.0929,37.2300,79,98,258961
1.9844,0.1320,36.9300,79,98,258964
1.9550,0.0880,37.1000,79,98,258968
1.9501,0.0880,37.1300,79,98,258971
1.9550,0.1026,37.1300,79,98,258974
1.9404,0.0880,37.2000,79,98,258977
1.9844,0.1075,36.9600,79,98,258981
1.9306,0.0978,37.1000,79,98,258984
1.8964,0.0831,37.1300,79,98,258988
1.8768,0.0929,37.3300,79,98,258992
1.8524,0.0880,37.1600,79,98,258995
1.8768,0.0929,37.0300,79,98,258998
1.8328,0.0929,37.1300,79,98,259002
1.8280,0.1417,37.0600,79,98,259005
1.7889,0.0929,37.1600,79,98,259008
1.7889,0.0880,37.1600,79,98,259011
1.8084,0.0978,37.1300,79,98,259015
1.7791,0.1173,37.1600,79,98,259018
1.7937,0.0929,37.0300,79,98,259021
1.7644,0.0929,37.2000,79,98,259025
1.7644,0.0929,37.1600,79,98,259028
1.7791,0.0880,37.1000,79,98,259032
1.7644,0.0929,37.2300,79,98,259036
1.7889,0.0880,37.0600,79,98,259039
1.7644,0.0929,37.1600,79,98,259042
1.7693,0.0929,37.2000,79,98,259045
1.7937,0.0978,37.1300,79,98,259049
1.8035,0.0929,37.1600,79,98,259052
1.8133,0.0929,37.0000,79,98,259055
1.7937,0.0929,37.0000,79,98,259059
1.7840,0.0880,37.2000,79,98,259062
1.7937,0.0978,37.2000,79,98,259065
1.7498,0.0880,37.1600,79,98,259069
1.7546,0.0929,36.9600,79,98,259073
1.7155,0.1026,37.1300,79,98,259076
1.7253,0.0831,37.2300,79,98,259079
1.7742,0.0978,37.1300,79,98,259083
1.8377,0.0929,37.1600,79,98,259086
2.0039,0.0978,36.8900,79,98,259089
2.1359,0.0929,37.0300,79,98,259093
2.3509,0.0880,37.2000,79,98,259096
2.6051,0.1173,37.1600,79,98,259099
2.8299,0.0929,37.1600,79,98,259103
3.0743,0.1075,36.2500,79,98,259106
3.0743,0.0978,37.1600,79,98,259109
2.9912,0.0929,37.1000,79,98,259112
2.8006,0.0929,37.3000,79,98,259117
2.5562,0.0929,37.1600,79,98,259120
2.3363,0.0978,37.0300,79,98,259123
2.0723,0.0929,37.2600,79,98,259127
1.9208,0.0880,37.0000,79,98,259130
1.7889,0.0978,37.2000,79,98,259133
1.7155,0.1320,37.2000,79,98,259137
1.7009,0.0978,37.0600,79,98,259140
1.6569,0.0929,37.2300,79,98,259143
1.6618,0.0978,37.1300,79,98,259146
1.6227,0.0978,37.2300,79,98,259150
1.6178,0.0929,37.2600,79,98,259153
1.6129,0.0978,37.1000,79,98,259156
1.6129,0.0929,37.1600,79,98,259161
1.6325,0.0880,37.0300,79,98,259164
1.6178,0.0978,37.1600,79,98,259167
1.6178,0.0880,37.2000,79,98,259171
1.6471,0.0978,37.1600,79,98,259174
1.6422,0.0880,37.2000,79,98,259177
1.6764,0.0978,36.9600,79,98,259180
1.6569,0.0978,37.1300,79,98,259184
1.6520,0.0929,37.2000,79,98,259187
1.6667,0.0978,37.1600,79,98,259190
1.6618,0.0929,37.4300,79,98,259194
1.7107,0.1075,36.8900,79,98,259197
1.6911,0.0929,37.2000,79,98,259201
1.6960,0.0880,37.1300,79,98,259205
1.7155,0.1026,37.1600,79,98,259208
1.7204,0.0929,37.1600,79,98,259211
1.7742,0.1075,36.9600,79,98,259214
1.7498,0.1026,37.1000,79,98,259218
1.7449,0.0880,37.1000,79,98,259221
1.7498,0.0929,37.2000,79,98,259224
1.7546,0.0978,37.2000,79,98,259228
1.7889,0.1026,37.0300,79,98,259231
1.7644,0.0733,37.2000,79,98,259234
1.7889,0.0929,37.0600,79,98,259238
1.7742,0.1026,37.2000,79,98,259241
1.7889,0.0831,37.2000,79,98,259245
1.8231,0.0929,37.0000,79,98,259248
1.7986,0.0929,37.1300,79,98,259252
1.8231,0.0978,37.1000,79,98,259255
1.8035,0.0929,37.2000,79,98,259258
1.8231,0.0929,37.2300,79,98,259262
1.8524,0.1075,37.1000,79,98,259265
1.8475,0.0929,37.1600,79,98,259268
1.8768,0.0929,37.1300,79,98,259272
1.8524,0.0929,37.1300,79,98,259275
1.8671,0.0978,37.2000,79,98,259278
1.8866,0.0929,37.0300,79,98,259282
1.8768,0.1075,37.1600,79,98,259286
1.9306,0.0929,37.0000,79,98,259289
1.8915,0.0929,37.2000,79,98,259292
1.8964,0.0929,37.2600,79,98,259296
1.9453,0.1075,37.1300,79,98,259299
1.9062,0.0929,37.2000,79,98,259302
1.9648,0.1173,36.9300,79,98,259306
1.9355,0.0929,37.1000,79,98,259309
1.9355,0.0929,37.2000,79,98,259312
1.9550,0.0929,37.2300,79,98,259316
1.9648,0.0929,37.1600,79,98,259319
2.0283,0.1075,37.2300,79,98,259322
1.9892,0.0978,37.2000,79,98,259325
1.9892,0.0880,37.1300,79,98,259330
1.9941,0.0978,37.1600,79,98,259333
1.9941,0.1026,37.2000,79,98,259336
2.0626,0.1026,37.0600,79,98,259340
2.0332,0.0978,37.1000,79,98,259343
2.0332,0.0978,37.1000,79,98,259346
2.0186,0.0929,37.2000,79,98,259350
2.0186,0.0929,37.2000,79,98,259353
2.0528,0.1026,37.0600,79,98,259356
2.0235,0.0978,37.1600,79,98,259359
2.0723,0.1026,37.0600,79,98,259363
2.0186,0.0929,37.2000,79,98,259366
2.0186,0.0929,37.1000,79,98,259369
2.0528,0.0978,36.9600,79,98,259374
2.0332,0.0978,37.2300,79,98,259377
2.0332,0.0929,37.0600,79,98,259380
1.9941,0.0929,37.1600,79,98,259383
1.9795,0.0929,37.1600,79,98,259387
1.9892,0.0978,37.1000,79,98,259390
1.9501,0.0929,37.2000,79,98,259393
1.9550,0.0929,36.3200,79,98,259397
1.9062,0.0929,37.1600,79,98,259400
1.9062,0.0978,37.2000,79,98,259403
1.8964,0.0978,37.1000,79,98,259407
1.8573,0.0929,37.1600,79,98,259410
1.8719,0.1026,36.9300,79,98,259414
1.8182,0.0880,37.0300,79,98,259417
1.8084,0.1075,37.2000,79,98,259421
1.8084,0.1075,37.1000,79,98,259424
1.7742,0.0929,37.1600,79,98,259427
1.8133,0.0978,36.5700,79,98,259431
1.7742,0.0880,37.1000,79,98,259434
1.7791,0.0978,37.2300,79,98,259437
1.7498,0.0978,37.2300,79,98,259441
1.7400,0.1026,37.1600,79,98,259444
1.7889,0.1026,36.9300,79,98,259447
1.7546,0.0978,37.1600,79,98,259452
1.7449,0.0978,37.2000,79,98,259456
1.7644,0.1075,37.0600,79,98,259459
1.7449,0.0978,37.2300,79,98,259463
1.7498,0.0880,37.1600,79,98,259466
1.7693,0.1124,37.1300,79,98,259469
1.7644,0.0929,37.1600,79,98,259473
1.8035,0.0929,37.3300,79,98,259476
1.7791,0.0929,37.2000,79,98,259479
1.7840,0.0929,37.2000,79,98,259483
1.8133,0.1026,37.0600,79,98,259486
1.7889,0.0929,37.1600,79,98,259489
1.8133,0.0978,37.0000,79,98,259493
1.8035,0.0929,37.5300,79,98,259496
1.7986,0.0978,37.1600,79,98,259500
1.8133,0.1026,37.1000,79,98,259503
1.8035,0.0929,37.1300,79,98,259507
1.8524,0.0978,36.9300,79,98,259510
1.8280,0.0978,37.1300,79,98,259513
1.8133,0.0929,37.2000,79,98,259517
1.8573,0.0978,37.1300,79,98,259520
1.8133,0.0929,37.1600,79,98,259523
1.8573,0.1075,36.9300,79,98,259527
1.8280,0.0929,37.0600,79,98,259530
1.8133,0.0880,37.1600,79,98,259533
1.8231,0.1026,37.1300,79,98,259536
1.8280,0.0929,37.1600,79,98,259540
1.8671,0.1075,37.0600,79,98,259544
1.8328,0.0978,37.1600,79,98,259547
1.8328,0.0831,37.1000,79,98,259551
1.8231,0.0929,37.1600,79,98,259554
1.8280,0.0929,37.1600,79,98,259557
1.8768,0.1026,37.0300,79,98,259561
1.8426,0.0929,37.2300,79,98,259564
1.8622,0.0929,37.0300,79,98,259567
1.8377,0.0978,37.1600,79,98,259570
1.8426,0.0929,37.2000,79,98,259574
1.8671,0.1026,37.0000,79,98,259577
1.8377,0.0978,37.2000,79,98,259580
1.8622,0.0929,37.0300,79,98,259585
1.8328,0.0929,37.1600,79,98,259588
1.8328,0.0929,37.1600,79,98,259591
1.8426,0.0978,37.0600,79,98,259595
1.8377,0.0929,37.1600,79,98,259598
1.8671,0.0929,36.9600,79,98,259601
1.8377,0.0929,37.2000,79,98,259605
1.8377,0.0929,37.2300,79,98,259608
1.8524,0.1124,37.1000,79,98,259611
1.8328,0.0929,37.1300,79,98,259614
1.8768,0.0978,36.9300,79,98,259618
1.8426,0.0929,37.1000,79,98,259621
1.8328,0.0929,37.1600,79,98,259624
1.8426,0.1075,37.1300,79,98,259629
1.8426,0.0978,37.2300,79,98,259632
1.8915,0.1075,37.0000,79,98,259635
1.8719,0.0978,37.1000,79,98,259639
1.8622,0.0880,37.2000,79,98,259642
1.8622,0.0978,37.2000,79,98,259645
1.8671,0.0929,37.2000,79,98,259648
1.9257,0.1466,37.0300,79,98,259652
1.8964,0.1026,37.1000,79,98,259655
1.8964,0.0733,37.1300,79,98,259658
1.8866,0.0978,37.2000,79,98,259662
1.8915,0.0929,37.2000,79,98,259665
1.9208,0.1026,37.0600,79,98,259668
1.8915,0.0978,37.1600,79,98,259673
1.9013,0.1075,37.0300,79,98,259676
1.8915,0.0929,37.1600,79,98,259679
1.9110,0.0929,37.2300,79,98,259682
1.9746,0.1124,37.0000,79,98,259686
1.9648,0.0978,37.2000,79,98,259689
2.0039,0.1026,37.2600,79,98,259692
1.9746,0.0880,37.1600,79,98,259696
1.9648,0.1026,37.1600,79,98,259699
1.9648,0.0978,37.0600,79,98,259702
1.9257,0.1026,37.1600,79,98,259706
1.9648,0.1026,37.0300,79,98,259709
1.8915,0.0929,37.1300,79,98,259713
1.8719,0.0978,37.2300,79,98,259716
1.8671,0.1026,37.0600,79,98,259720
1.8328,0.0929,37.1600,79,98,259723
1.8671,0.1466,36.9300,79,98,259726
1.8182,0.0880,37.2000,79,98,259730
1.8133,0.0929,37.3000,79,98,259733
1.8133,0.1026,37.2300,79,98,259736
1.7889,0.0929,37.4000,79,98,259740
1.8280,0.1271,36.8600,79,98,259743
1.8133,0.0978,37.1000,79,98,259746
1.7791,0.0733,37.1600,79,98,259750
1.7742,0.1026,37.2300,79,98,259753
1.7742,0.0978,37.2000,79,98,259757
1.8182,0.1075,37.0300,79,98,259760
1.7742,0.0929,37.2000,79,98,259764
1.7791,0.0978,37.2300,79,98,259767
1.7840,0.0978,37.1600,79,98,259770
1.7840,0.0929,37.2000,79,98,259774
1.8133,0.0978,37.0300,79,98,259777
1.7937,0.0978,37.1300,79,98,259780
1.8035,0.0978,37.0600,79,98,259784
1.7791,0.0978,37.1300,79,98,259787
1.7693,0.0978,37.2000,79,98,259790
1.7693,0.1026,37.1600,79,98,259793
1.7253,0.0978,37.1600,79,98,259798
1.7400,0.1075,37.1000,79,98,259801
1.7351,0.0929,37.2300,79,98,259804
1.7840,0.0929,37.2000,79,98,259808
1.8817,0.1075,37.0600,79,98,259811
1.9795,0.0978,37.1600,79,98,259814
2.1896,0.0929,36.9600,79,98,259818
2.4047,0.1075,37.1000,79,98,259821
2.6442,0.0929,37.2300,79,98,259824
2.8739,0.0978,37.1000,79,98,259828
2.9961,0.0978,37.2000,79,98,259831
3.0938,0.0978,36.9300,79,98,259834
2.9521,0.0978,37.1600,79,98,259837
2.7468,0.1222,37.1600,79,98,259842
2.5269,0.0978,37.1300,79,98,259845
2.2434,0.0733,37.1600,79,98,259848
2.0772,0.1026,36.9600,79,98,259852
1.8768,0.0880,37.0600,79,98,259855
1.7791,0.0978,37.1600,79,98,259858
1.7302,0.0978,37.1600,79,98,259861
1.6911,0.0929,37.1600,79,98,259865
1.7155,0.1075,36.9600,79,98,259868
1.6618,0.1026,37.1000,79,98,259871
1.6373,0.0929,37.0600,79,98,259875
1.6227,0.0733,37.1600,79,98,259878
1.6178,0.0929,37.1600,79,98,259881
1.6520,0.1320,37.0000,79,98,259886
1.6276,0.0978,37.1300,79,98,259889
1.6373,0.0978,36.7000,79,98,259892
1.6227,0.0929,37.1600,79,98,259896
1.6276,0.0929,37.2000,79,98,259899
1.6569,0.1026,37.1300,79,98,259902
1.6520,0.1075,37.1600,79,98,259905
1.6813,0.0978,37.0600,79,98,259909
1.6667,0.0978,37.2300,79,98,259912
1.6764,0.0978,37.3000,79,98,259915
1.6960,0.1124,37.0300,79,98,259919
1.6960,0.0978,37.1600,79,98,259922
1.7253,0.0978,37.0600,79,98,259926
1.7107,0.1026,37.1600,79,98,259930
1.7204,0.0929,37.2000,79,98,259933
1.7498,0.1026,37.3000,79,98,259936
1.7449,0.0978,37.1300,79,98,259939
1.7791,0.0978,36.9600,79,98,259943
1.7644,0.1026,37.0600,79,98,259946
1.7595,0.1271,37.2000,79,98,259949
1.7742,0.1026,37.1300,79,98,259953
1.7693,0.0929,37.2000,79,98,259956
1.8231,0.0978,36.8900,79,98,259959
1.7937,0.0978,37.1600,79,98,259963
1.7889,0.0929,37.1600,79,98,259966
1.8231,0.1075,37.1300,79,98,259970
1.7986,0.0929,37.1600,79,98,259973
1.8573,0.1124,37.0000,79,98,259977
1.8328,0.0733,37.1000,79,98,259980
1.8280,0.0929,37.1300,79,98,259983
1.8377,0.1026,37.2000,79,98,259987
1.8524,0.0929,37.2300,79,98,259990
1.9013,0.1124,37.0600,79,98,259993
1.8719,0.1026,37.2300,79,98,259997
1.8866,0.0978,37.0600,79,98,260000
1.8719,0.0978,37.0600,79,98,260003
1.8768,0.0978,37.2300,79,98,260007
1.9208,0.0929,37.0000,79,98,260011
1.9013,0.0978,37.3300,79,98,260014
1.9355,0.1417,37.0600,79,98,260017
1.9453,0.0929,37.1600,79,98,260021
1.9208,0.0978,37.2000,79,98,260024
1.9550,0.1026,37.0600,79,98,260027
1.9404,0.1369,37.1300,79,98,260031
1.9844,0.0978,37.0300,79,98,260034
1.9550,0.0929,37.1300,79,98,260037
1.9648,0.0978,37.2600,79,98,260041
1.9941,0.1026,37.0600,79,98,260044
1.9844,0.0929,37.2000,79,98,260047
2.0283,0.0978,36.9600,79,98,260050
1.9990,0.0978,37.2600,79,98,260055
2.0088,0.1026,37.1600,79,98,260058
2.0332,0.0929,37.1000,79,98,260061
2.0430,0.0978,37.2000,79,98,260066
2.0381,0.0978,37.1600,79,98,260069
2.1017,0.1124,37.0000,79,98,260073
2.0479,0.1026,37.1000,79,98,260076
2.0381,0.1075,37.1000,79,98,260079
2.0332,0.0978,37.1600,79,98,260082
2.0577,0.0978,37.2000,79,98,260086
2.0674,0.1026,37.0600,79,98,260089
2.0283,0.1026,37.1300,79,98,260092
2.0186,0.0978,37.1600,79,98,260097
1.9892,0.1026,37.1600,79,98,260100
1.9697,0.0978,36.3500,79,98,260103
1.9746,0.1075,37.1600,79,98,260107
1.9453,0.0978,37.1600,79,98,260110
1.9355,0.1026,37.0600,79,98,260113
1.8866,0.1026,37.1600,79,98,260116
1.8768,0.0978,37.1600,79,98,260120
1.8817,0.1075,37.0600,79,98,260123
1.8328,0.1271,37.2300,79,98,260126
1.8426,0.0978,37.0300,79,98,260130
1.8035,0.0978,37.1300,79,98,260133
1.7840,0.0978,37.2000,79,98,260136
1.7791,0.0929,36.8600,79,98,260141
1.7644,0.0978,37.1600,79,98,260144
1.7889,0.1026,36.9600,79,98,260147
1.7595,0.1075,37.1000,79,98,260150
1.7546,0.0978,37.2000,79,98,260154
1.7742,0.1075,37.1000,79,98,260157
1.7449,0.1026,37.2000,79,98,260160
1.8231,0.1075,36.9300,79,98,260164
1.7449,0.0978,37.5300,79,98,260167
1.7449,0.1026,37.1600,79,98,260170
1.7595,0.1026,37.1300,79,98,260174
1.7498,0.1075,37.1600,79,98,260177
1.8182,0.0929,36.8900,79,98,260180
1.7791,0.1026,37.1000,79,98,260185
1.7693,0.0929,37.1300,79,98,260188
1.7693,0.1026,37.1600,79,98,260191
1.7693,0.0978,37.3000,79,98,260194
1.8133,0.1173,36.8600,79,98,260198
1.7742,0.1026,37.2300,79,98,260201
1.7840,0.0978,37.0600,79,98,260204
1.7742,0.0978,37.1600,79,98,260208
1.7889,0.0978,37.2000,79,98,260211
1.8133,0.1026,37.0600,79,98,260214
1.7986,0.1075,37.1300,79,98,260218
1.8280,0.0929,37.0600,79,98,260221
1.7986,0.0978,37.2000,79,98,260225
1.7986,0.1075,37.2000,79,98,260228
1.8182,0.0978,37.1000,79,98,260232
1.7986,0.0978,37.1600,79,98,260235
1.8328,0.0978,37.1000,79,98,260238
1.8133,0.0978,37.2300,79,98,260242
1.8231,0.0978,37.1600,79,98,260245
1.8426,0.1026,37.0300,79,98,260248
1.8182,0.0978,37.1600,79,98,260252
1.8475,0.0978,37.0000,79,98,260255
1.8328,0.0978,37.0300,79,98,260258
1.8280,0.0978,37.1600,79,98,260261
1.8426,0.1026,37.1000,79,98,260265
1.8328,0.0978,37.2000,79,98,260269
1.8719,0.1026,36.9300,79,98,260272
1.8524,0.0978,37.1300,79,98,260276
1.8475,0.0978,37.1600,79,98,260279
1.8671,0.1075,37.0300,79,98,260282
1.8426,0.0733,37.1600,79,98,260286
1.8964,0.1124,36.8600,79,98,260289
1.8622,0.0929,37.1000,79,98,260292
1.8475,0.0929,37.1300,79,98,260296
1.8524,0.1124,37.1600,79,98,260299
1.8475,0.0978,37.2300,79,98,260302
1.8866,0.1320,37.0600,79,98,260305
1.8573,0.1075,37.1300,79,98,260310
1.8671,0.0929,37.0600,79,98,260313
1.8426,0.0978,37.1000,79,98,260316
1.8377,0.0929,37.1600,79,98,260320
1.8671,0.1075,37.0300,79,98,260323
1.8426,0.1124,37.2000,79,98,260326
1.8622,0.1026,37.0300,79,98,260330
1.8377,0.0978,37.2600,79,98,260333
1.8426,0.0978,37.4700,79,98,260336
1.8719,0.0978,37.0600,79,98,260339
1.8573,0.0929,37.1600,79,98,260343
1.8768,0.0978,37.0600,79,98,260346
1.8524,0.0978,37.1000,79,98,260349
1.8475,0.1026,37.2000,79,98,260354
1.8671,0.0733,37.0600,79,98,260357
1.8573,0.0978,37.2000,79,98,260360
1.8915,0.0978,37.0600,79,98,260364
1.8671,0.0978,37.2300,79,98,260367
1.8817,0.0978,37.2000,79,98,260370
1.9062,0.1075,36.6700,79,98,260373
1.8964,0.0978,37.1600,79,98,260377
1.9550,0.1026,36.9600,79,98,260380
1.9257,0.1026,37.1000,79,98,260383
1.9062,0.0978,37.1600,79,98,260387
1.9062,0.1026,37.1600,79,98,260390
1.9110,0.0978,37.1600,79,98,260393
1.9892,0.1075,36.8900,79,98,260398
1.9746,0.1026,37.1000,79,98,260401
1.9746,0.0929,37.1600,79,98,260404
1.9795,0.1320,37.1000,79,98,260407
1.9599,0.0929,37.2000,79,98,260411
2.0039,0.1124,37.0000,79,98,260414
1.9550,0.1075,37.1000,79,98,260417
1.9306,0.0978,36.8300,79,98,260421
1.9110,0.1026,37.1600,79,98,260424
1.8866,0.0978,37.2000,79,98,260427
1.9062,0.1124,37.1600,79,98,260431
1.8671,0.1124,37.1600,79,98,260434
1.8719,0.1026,37.0300,79,98,260438
1.8328,0.1026,37.2000,79,98,260441
1.8231,0.0978,37.1600,79,98,260445
1.8377,0.1075,37.0300,79,98,260448
1.7986,0.1026,37.1600,79,98,260451
1.8084,0.1026,37.0600,79,98,260455
1.7791,0.0929,37.1600,79,98,260458
1.7742,0.0978,37.2300,79,98,260461
1.8035,0.1075,37.1000,79,98,260465
1.7742,0.1026,37.1600,79,98,260468
1.7986,0.0978,37.0300,79,98,260471
1.7742,0.0978,37.1300,79,98,260474
1.7742,0.0978,37.2000,79,98,260478
1.7986,0.1075,37.1000,79,98,260482
1.7840,0.0978,37.1600,79,98,260485
1.8280,0.1369,36.9600,79,98,260489
1.7889,0.0929,37.2300,79,98,260492
1.7986,0.0978,37.2000,79,98,260495
1.8182,0.0929,37.1300,79,98,260499
1.7986,0.1026,37.1000,79,98,260502
1.8231,0.1173,36.8900,79,98,260505
1.7595,0.1026,37.1000,79,98,260509
1.7204,0.0978,37.2000,79,98,260512
1.7253,0.1026,37.1300,79,98,260515
1.7498,0.0978,37.1600,79,98,260518
1.8719,0.1124,37.0600,79,98,260523
1.9306,0.1026,37.1300,79,98,260526
2.0723,0.0929,37.1000,79,98,260529
2.2776,0.1026,37.2000,79,98,260533
2.5171,0.0978,37.1600,79,98,260536
2.8055,0.1075,37.0300,79,98,260539
2.9521,0.0929,37.1300,79,98,260543
3.0596,0.0733,37.0600,79,98,260546
3.0010,0.1026,37.2600,79,98,260549
2.8543,0.0978,37.1600,79,98,260552
2.6735,0.1075,37.1000,79,98,260556
2.3900,0.1026,37.1600,79,98,260559
2.1799,0.1026,37.0300,79,98,260562
1.9550,0.1320,37.2000,79,98,260567
1.8328,0.1075,37.2000,79,98,260570
1.7840,0.1075,37.0600,79,98,260573
1.7107,0.1026,37.1600,79,98,260576
1.7058,0.0978,37.0300,79,98,260580
1.6618,0.0929,37.1300,79,98,260583
1.6373,0.1026,37.2000,79,98,260586
1.6325,0.0978,37.0600,79,98,260590
1.6276,0.0929,37.1600,79,98,260593
1.6325,0.1026,37.0000,79,98,260596
1.6080,0.0978,37.0600,79,98,260600
1.6031,0.1026,37.1600,79,98,260603
1.6373,0.1075,37.1000,79,98,260606
1.6178,0.1026,37.1600,79,98,260610
1.6667,0.1075,36.9300,79,98,260614
1.6325,0.0978,37.1300,79,98,260617
1.6422,0.0978,37.2000,79,98,260620
1.6569,0.1124,37.1600,79,98,260624
1.6569,0.1026,37.2000,79,98,260627
1.7155,0.1124,37.4000,79,98,260630
1.6911,0.1075,37.1000,79,98,260634
1.6911,0.0733,37.1300,79,98,260637
1.7058,0.1075,37.1600,79,98,260640
1.7058,0.1075,37.1600,79,98,260644
1.7546,0.1173,37.0000,79,98,260647
1.7204,0.1271,37.1300,79,98,260651
1.7400,0.0978,37.1000,79,98,260654
1.7400,0.1075,37.1600,79,98,260658
1.7400,0.0978,37.2000,79,98,260661
1.7791,0.1075,37.1300,79,98,260664
1.7693,0.0978,37.1600,79,98,260668
1.7840,0.1026,37.0300,79,98,260671
1.7742,0.1026,37.2000,79,98,260674
1.8035,0.1026,37.1600,79,98,260679
1.8084,0.0978,37.1600,79,98,260682
1.8328,0.0978,37.1000,79,98,260686
1.8280,0.1026,37.1600,79,98,260689
1.8768,0.1026,37.0300,79,98,260692
1.8622,0.1075,37.1000,79,98,260696
1.8573,0.0978,37.1600,79,98,260700
1.8768,0.1075,37.1000,79,98,260703
1.8719,0.1320,37.2000,79,98,260706
1.9257,0.1026,36.8900,79,98,260710
1.8915,0.1026,37.1000,79,98,260713
1.8866,0.0978,37.2000,79,98,260716
1.8964,0.0929,37.1300,79,98,260720
1.9013,0.0733,37.2000,79,98,260723
1.9648,0.1173,37.0000,79,98,260726
1.9355,0.1124,37.0600,79,98,260729
1.9306,0.0978,37.1300,79,98,260733
1.9404,0.1026,37.1600,79,98,260737
1.9550,0.0929,37.1600,79,98,260740
1.9990,0.1124,37.0600,79,98,260744
1.9746,0.1026,37.1000,79,98,260747
1.9941,0.1271,37.1000,79,98,260750
1.9844,0.1026,37.1600,79,98,260754
1.9941,0.1026,37.1600,79,98,260757
2.0479,0.1075,37.0300,79,98,260760
2.0137,0.1026,36.9600,79,98,260763
2.0430,0.1075,37.0600,79,98,260767
2.0235,0.1026,37.2000,79,98,260770
2.0235,0.1222,37.1600,79,98,260773
2.0528,0.1075,37.0600,79,98,260777
2.0235,0.1026,37.1600,79,98,260781
2.0479,0.0978,37.0300,79,98,260784
2.0186,0.0978,37.1300,79,98,260788
2.0186,0.0978,37.1600,79,98,260791
2.0332,0.1026,37.0600,79,98,260794
2.0088,0.1026,37.1600,79,98,260797
2.0332,0.1026,37.1000,79,98,260801
1.9892,0.1075,37.2300,79,98,260804
1.9844,0.0929,37.1600,79,98,260807
1.9941,0.1124,37.1000,79,98,260811
1.9746,0.0929,37.2300,79,98,260814
1.9990,0.1075,36.9600,79,98,260817
1.9550,0.1026,37.0600,79,98,260822
1.9159,0.1075,37.1600,79,98,260825
1.9013,0.1026,37.3600,79,98,260828
1.8719,0.1026,37.0600,79,98,260831
1.8964,0.1320,36.8900,79,98,260835
1.8377,0.1026,37.1300,79,98,260838
1.8182,0.0978,37.2000,79,98,260841
1.8084,0.1075,37.1600,79,98,260845
1.8084,0.0978,37.1600,79,98,260848
1.8231,0.1124,37.0300,79,98,260851
1.7840,0.1124,37.1000,79,98,260855
1.7693,0.0978,37.0600,79,98,260858
1.7546,0.1026,37.1600,79,98,260861
1.7546,0.0978,37.2300,79,98,260865
1.7742,0.1124,37.1000,79,98,260869
1.7546,0.1026,37.1000,79,98,260872
1.7644,0.1026,37.0300,79,98,260875
1.7498,0.1026,37.1600,79,98,260879
1.7498,0.1075,36.5700,79,98,260882
1.7840,0.1515,37.0600,79,98,260885
1.7644,0.1026,37.1600,79,98,260889
1.7986,0.1075,37.0600,79,98,260892
1.7644,0.1320,37.2000,79,98,260895
1.7693,0.1026,37.1600,79,98,260898
1.7889,0.1075,37.2000,79,98,260902
1.7742,0.1026,37.2000,79,98,260905
1.7986,0.1075,37.0000,79,98,260909
1.7791,0.1026,37.1600,79,98,260913
1.7840,0.1026,37.0600,79,98,260916
1.8084,0.1369,37.0600,79,98,260919
1.7937,0.0929,37.2000,79,98,260923
1.8231,0.1075,36.9600,79,98,260926
1.7937,0.1222,37.1300,79,98,260929
1.8084,0.0929,37.2600,79,98,260932
1.8133,0.1075,37.1300,79,98,260936
1.8035,0.1075,37.1300,79,98,260939
1.8622,0.1124,36.8900,79,98,260942
1.8280,0.1075,37.0300,79,98,260946
1.8182,0.1271,37.1300,79,98,260950
1.8231,0.1026,37.1600,79,98,260953
1.8182,0.1075,37.1600,79,98,260957
1.8719,0.1173,37.0000,79,98,260960
1.8280,0.1026,37.1300,79,98,260963
1.8328,0.1026,37.1000,79,98,260967
1.8231,0.1026,37.1600,79,98,260970
1.8231,0.1026,37.2600,79,98,260973
1.8573,0.1271,37.0000,79,98,260976
1.8377,0.0733,37.1300,79,98,260980
1.8475,0.1026,37.0600,79,98,260983
1.8280,0.1320,37.2000,79,98,260986
1.8280,0.1026,37.2000,79,98,260990
1.8475,0.1075,37.1300,79,98,260994
1.8280,0.1173,37.2000,79,98,260997
1.8524,0.1173,37.1000,79,98,261001
1.8280,0.1026,37.2000,79,98,261004
1.8377,0.1075,37.2000,79,98,261007
1.8671,0.0978,37.0600,79,98,261010
1.8426,0.1026,37.2000,79,98,261014
1.8719,0.1026,37.0600,79,98,261017
1.8475,0.1026,37.1300,79,98,261020
1.8475,0.0978,37.1600,79,98,261024
1.8622,0.1075,37.1000,79,98,261027
1.8426,0.0978,37.1600,79,98,261030
1.8817,0.1075,36.9600,79,98,261035
1.8475,0.1075,37.1600,79,98,261038
1.8426,0.0978,37.1600,79,98,261041
1.8671,0.1075,37.1000,79,98,261045
1.8573,0.1075,37.2300,79,98,261048
1.9257,0.1124,36.8900,79,98,261051
1.8768,0.1026,37.0300,79,98,261054
1.8768,0.0880,37.1600,79,98,261058
1.8915,0.0929,37.1600,79,98,261061
1.8915,0.1026,37.2000,79,98,261064
1.9501,0.1173,37.0300,79,98,261068
1.9257,0.0929,37.1000,79,98,261071
1.8964,0.0978,37.1000,79,98,261074
1.8768,0.1026,37.1600,79,98,261079
1.8768,0.1026,37.1600,79,98,261082
1.9355,0.1124,37.1000,79,98,261085
1.9453,0.1075,37.1300,79,98,261088
1.9697,0.1026,37.0600,79,98,261092
1.9599,0.1026,37.1600,79,98,261095
1.9648,0.1026,37.2300,79,98,261098
1.9844,0.1124,37.1000,79,98,261102
1.9501,0.1173,37.1600,79,98,261105
1.9599,0.1124,37.1000,79,98,261108
1.9110,0.0978,37.2000,79,98,261112
1.8915,0.1026,37.2000,79,98,261115
1.8817,0.1075,37.0600,79,98,261118
1.8573,0.1075,37.1600,79,98,261122
1.8573,0.1026,37.0000,79,98,261126
1.8182,0.0978,37.1600,79,98,261129
1.8426,0.1026,37.2000,79,98,261132
1.8280,0.1124,37.1000,79,98,261136
1.7986,0.1271,37.1600,79,98,261139
1.8573,0.1075,36.9600,79,98,261142
1.7986,0.1075,37.1000,79,98,261146
1.7742,0.1026,37.2300,79,98,261149
1.7742,0.0929,37.1300,79,98,261152
1.7498,0.1026,37.1600,79,98,261156
1.7937,0.1124,36.8900,79,98,261159
1.7595,0.1026,37.1300,79,98,261163
1.7546,0.0978,36.9600,79,98,261166
1.7644,0.1271,37.1600,79,98,261170
1.7644,0.1026,37.1600,79,98,261173
1.8182,0.1222,37.0300,79,98,261176
1.7840,0.1026,37.0600,79,98,261180
1.7693,0.1026,37.1000,79,98,261183
1.7742,0.1026,37.2000,79,98,261186
1.7742,0.1026,37.3300,79,98,261190
1.8035,0.1173,37.1000,79,98,261193
1.7595,0.1075,37.1600,79,98,261196
1.7351,0.1026,37.1000,79,98,261199
1.6960,0.0929,37.1600,79,98,261203
1.7155,0.1026,37.2000,79,98,261207
1.7889,0.1124,37.0300,79,98,261210
1.8280,0.1026,37.2300,79,98,261214
1.9648,0.1124,37.0600,79,98,261217
2.1065,0.0978,37.1300,79,98,261220
2.3412,0.0978,37.2000,79,98,261224
2.6246,0.1075,37.0600,79,98,261227
2.8348,0.1515,37.1600,79,98,261230
3.0499,0.1075,37.0300,79,98,261234
3.0450,0.1026,37.1300,79,98,261237
2.9619,0.1026,37.2300,79,98,261240
2.8152,0.1124,37.1000,79,98,261243
2.5513,0.1026,37.1600,79,98,261248
2.3363,0.1075,36.9300,79,98,261251
2.0577,0.0978,37.1300,79,98,261254
1.8866,0.1026,37.2600,79,98,261258
1.7937,0.1026,37.1300,79,98,261261
1.7155,0.1026,37.1600,79,98,261264
1.7155,0.1124,36.8600,79,98,261268
1.6569,0.1026,37.1000,79,98,261271
1.6325,0.0978,37.1600,79,98,261274
1.6129,0.1320,37.1600,79,98,261277
1.6031,0.1026,37.2000,79,98,261281
1.6471,0.1173,37.0000,79,98,261284
1.6227,0.1124,37.0300,79,98,261289
1.6129,0.1026,37.1600,79,98,261293
1.6422,0.1124,37.1000,79,98,261296
1.6276,0.1026,37.1300,79,98,261300
1.6422,0.1075,37.1600,79,98,261303
1.6667,0.1075,37.1300,79,98,261306
1.6716,0.1026,37.1300,79,98,261310
1.7058,0.0978,37.0000,79,98,261313
1.6911,0.1026,37.1600,79,98,261316
1.7058,0.1026,37.0300,79,98,261320
1.7204,0.1124,37.1000,79,98,261323
1.7107,0.1026,37.1300,79,98,261326
1.7595,0.1075,36.9600,79,98,261329
1.7449,0.1613,37.1000,79,98,261334
1.7546,0.0929,37.2000,79,98,261337
1.7595,0.1075,37.0300,79,98,261340
1.7546,0.1026,37.1300,79,98,261344
1.7986,0.1124,36.8900,79,98,261347
1.7693,0.1026,36.8000,79,98,261350
1.7644,0.0978,37.1300,79,98,261354
1.7791,0.1026,37.1300,79,98,261357
1.7693,0.1026,37.1600,79,98,261360
1.8280,0.1222,36.1900,79,98,261363
1.7986,0.1124,37.0600,79,98,261367
1.7986,0.0978,37.1000,79,98,261370
1.8035,0.1124,37.1600,79,98,261373
1.8182,0.0733,37.2000,79,98,261378
1.8622,0.1124,37.1600,79,98,261381
1.8231,0.1075,37.2300,79,98,261384
1.8377,0.1026,37.0600,79,98,261388
1.8231,0.1075,37.2600,79,98,261391
1.8328,0.1075,37.2300,79,98,261394
1.8866,0.1124,37.0300,79,98,261398
1.8671,0.1075,37.2300,79,98,261401
1.9013,0.1124,37.0600,79,98,261404
1.8768,0.0978,37.1600,79,98,261407
1.8866,0.1026,37.1300,79,98,261411
1.9208,0.1075,37.1000,79,98,261414
1.9062,0.1026,37.1600,79,98,261417
1.9306,0.1075,37.0300,79,98,261422
1.9355,0.1026,37.1000,79,98,261425
1.9159,0.1026,37.1600,79,98,261428
1.9404,0.1075,37.1000,79,98,261432
1.9306,0.1075,37.1600,79,98,261435
1.9697,0.1075,36.9300,79,98,261438
1.9355,0.1320,37.1600,79,98,261442
1.9453,0.1026,37.1600,79,98,261445
1.9648,0.1075,37.2000,79,98,261448
1.9550,0.0978,37.2300,79,98,261451
2.0137,0.1124,36.8600,79,98,261455
1.9844,0.1075,37.1300,79,98,261458
1.9697,0.0880,37.2000,79,98,261462
1.9746,0.1075,37.1600,79,98,261466
1.9746,0.1026,37.0300,79,98,261469
2.0674,0.1173,37.0000,79,98,261472
1.9892,0.1075,37.2300,79,98,261476
1.9746,0.1026,37.0600,79,98,261479
1.9697,0.1075,37.2000,79,98,261482
1.9550,0.1026,37.1600,79,98,261485
1.9990,0.1124,37.0300,79,98,261489
1.9746,0.1124,37.1000,79,98,261492
1.9844,0.0978,37.0600,79,98,261495
1.9453,0.1075,37.1600,79,98,261499
1.9306,0.1026,37.2000,79,98,261502
1.9501,0.1026,37.1300,79,98,261506
1.8964,0.1075,37.1600,79,98,261510
1.9062,0.1124,37.3300,79,98,261513
1.8524,0.1026,37.1600,79,98,261516
1.8328,0.1026,37.2000,79,98,261519
1.8328,0.1124,37.0300,79,98,261523
1.7791,0.1026,37.1600,79,98,261526
1.7840,0.1026,37.0300,79,98,261529
1.7498,0.1026,37.1000,79,98,261533
1.7351,0.1075,37.2000,79,98,261536
1.7400,0.1075,37.1000,79,98,261539
1.7155,0.1075,37.2300,79,98,261543
1.7351,0.1173,36.9300,79,98,261547
1.7058,0.1124,37.1000,79,98,261550
1.6960,0.1026,37.1600,79,98,261554
1.7155,0.1075,37.1000,79,98,261557
1.6862,0.0733,37.2000,79,98,261560
1.7302,0.1124,37.0300,79,98,261563
1.6862,0.1026,37.0600,79,98,261567
1.6911,0.1026,37.1600,79,98,261570
1.6960,0.1075,37.1300,79,98,261573
1.7058,0.1026,37.1600,79,98,261577
1.7449,0.1124,36.9300,79,98,261580
1.7107,0.1124,37.1000,79,98,261583
1.7107,0.0929,37.1000,79,98,261587
1.7009,0.1075,37.0600,79,98,261591
1.6960,0.1026,37.1000,79,98,261594
1.7351,0.1075,37.0000,79,98,261597
1.7155,0.1075,37.1600,79,98,261601
1.7302,0.1026,37.0300,79,98,261604
1.7204,0.1026,37.1600,79,98,261607
1.7595,0.0929,37.1600,79,98,261611
1.7546,0.1124,37.0300,79,98,261614
1.7351,0.1075,37.2000,79,98,261617
1.7498,0.1075,37.0300,79,98,261621
1.7302,0.1026,37.2000,79,98,261624
1.7302,0.1026,37.1300,79,98,261627
1.7449,0.1026,37.0600,79,98,261630
1.7351,0.1075,37.2000,79,98,261635
1.7742,0.1026,37.0300,79,98,261638
1.7449,0.1075,37.1600,79,98,261641
1.7449,0.1026,37.2300,79,98,261645
1.7742,0.1124,37.0600,79,98,261648
1.7595,0.0929,37.1600,79,98,261651
1.7889,0.1075,36.9600,79,98,261655
1.7693,0.1124,37.0600,79,98,261658
1.7595,0.1026,37.1600,79,98,261661
1.7693,0.1173,37.1300,79,98,261665
1.7595,0.1026,37.2000,79,98,261668
1.8084,0.1124,36.9300,79,98,261671
1.7693,0.1075,37.2300,79,98,261675
1.7595,0.1026,37.2000,79,98,261679
1.7742,0.1124,37.1300,79,98,261682
1.7546,0.1075,37.2300,79,98,261685
1.8084,0.1222,36.9600,79,98,261689
1.7742,0.1124,37.0600,79,98,261692
1.7595,0.1026,37.1000,79,98,261695
1.7644,0.1075,37.2000,79,98,261699
1.7644,0.1124,37.1300,79,98,261702
1.8035,0.1124,37.0600,79,98,261705
1.7742,0.1075,37.2600,79,98,261708
1.7840,0.1222,37.1000,79,98,261712
1.7644,0.1075,37.1600,79,98,261715
1.7595,0.1026,37.1600,79,98,261719
1.7889,0.1124,37.0600,79,98,261723
1.7595,0.1075,37.2000,79,98,261726
1.7840,0.1222,37.0600,79,98,261729
1.7595,0.0929,37.1600,79,98,261733
1.7742,0.1026,37.1600,79,98,261736
1.8133,0.1075,37.0600,79,98,261739
1.7986,0.1075,37.2000,79,98,261743
1.8182,0.0929,37.0300,79,98,261746
1.7937,0.1026,37.0600,79,98,261749
1.8035,0.0978,37.1600,79,98,261752
1.8280,0.1026,37.0300,79,98,261756
1.8035,0.1075,37.2000,79,98,261760
1.8377,0.1075,37.0600,79,98,261763
1.8084,0.1075,37.1600,79,98,261767
1.8280,0.0929,37.1600,79,98,261770
1.8671,0.1124,37.2000,79,98,261773
1.8573,0.1075,37.1600,79,98,261777
1.9159,0.1124,36.9300,79,98,261780
1.8719,0.1075,37.0600,79,98,261783
1.8573,0.0978,37.2600,79,98,261786
1.8622,0.1075,37.0300,79,98,261790
1.8328,0.1271,37.2600,79,98,261793
1.8719,0.1124,36.9600,79,98,261796
1.8182,0.1124,37.1000,79,98,261800
1.8182,0.1075,37.1600,79,98,261804
1.7644,0.1075,37.1300,79,98,261807
1.7449,0.1026,37.1600,79,98,261811
1.7693,0.1124,37.0300,79,98,261814
1.7449,0.1075,37.1000,79,98,261817
1.7449,0.1075,37.0600,79,98,261821
1.7155,0.1075,37.1600,79,98,261824
1.6960,0.1320,37.2300,79,98,261827
1.7058,0.1124,37.1000,79,98,261830
1.6813,0.1075,37.1600,79,98,261834
1.7058,0.1124,37.1000,79,98,261837
1.6862,0.1026,37.1600,79,98,261840
1.6862,0.1026,37.1600,79,98,261844
1.7058,0.1271,37.1000,79,98,261848
1.6911,0.1075,37.1600,79,98,261851
1.7107,0.1075,37.1600,79,98,261855
1.6960,0.1026,37.0600,79,98,261858
1.6960,0.1026,37.1600,79,98,261861
1.7107,0.1222,37.0000,79,98,261865
1.6911,0.1026,37.1600,79,98,261868
1.7302,0.1173,36.9600,79,98,261871
1.7058,0.1026,37.1000,79,98,261874
1.6911,0.1124,37.1600,79,98,261878
1.6764,0.1124,37.1600,79,98,261881
1.6129,0.1320,37.1600,79,98,261884
1.6373,0.1173,36.8900,79,98,261889
1.6178,0.1222,37.0600,79,98,261892
1.6618,0.0929,37.1600,79,98,261895
1.7449,0.1026,37.1600,80,98,261899
2.8446,0.1075,36.4800,80,98,261903
2.9961,0.1124,37.1600,80,98,261907
3.0743,0.1173,37.0300,80,98,261910
2.9130,0.1075,37.1300,80,98,261913
2.7370,0.1320,37.0600,80,98,261917
2.4389,0.0978,37.1600,80,98,261920
2.1701,0.1026,37.1600,80,98,261923
1.9599,0.1075,37.0300,80,98,261926
1.7791,0.1026,37.2300,80,98,261931
1.6862,0.1026,37.0000,80,98,261934
1.6129,0.1369,37.1000,80,98,261937
1.5738,0.1075,37.2000,80,98,261941
1.5738,0.1124,37.1300,80,98,261944
1.5347,0.1124,37.1600,80,98,261947
1.5494,0.1075,36.9600,80,98,261951
1.5054,0.1075,37.2000,80,98,261954
1.5152,0.1075,37.1600,80,98,261957
1.5005,0.1124,37.1300,80,98,261960
1.4858,0.1075,37.1600,80,98,261964
1.5591,0.1173,36.8600,80,98,261967
1.5103,0.1075,37.0300,80,98,261970
1.5103,0.1222,37.1600,80,98,261975
1.5200,0.1075,37.1600,80,98,261978
1.5200,0.1075,37.2600,80,98,261981
1.5591,0.1222,37.0600,80,98,261985
1.5494,0.1124,37.0600,80,98,261988
1.5445,0.1075,37.1000,80,98,261991
1.5494,0.1075,37.0600,80,98,261995
1.5591,0.1075,37.2000,80,98,261998
1.6031,0.1173,37.0300,80,98,262001
1.5934,0.1124,37.1000,80,98,262004
1.6080,0.1075,37.0300,80,98,262008
1.5934,0.1075,37.2300,80,98,262011
1.5982,0.1026,37.2300,80,98,262014
1.6178,0.1222,37.1000,80,98,262019
1.6031,0.1075,37.1600,80,98,262022
1.6325,0.1124,37.1300,80,98,262025
1.6129,0.1075,37.1600,80,98,262029
1.6325,0.1026,37.2300,80,98,262032
1.6667,0.1173,37.0600,80,98,262035
1.6569,0.1075,37.1600,80,98,262039
1.6862,0.1075,37.0300,80,98,262042
1.6960,0.1075,37.1000,80,98,262045
1.6764,0.1075,37.2300,80,98,262048
1.6960,0.1222,37.0300,80,98,262052
1.6813,0.1075,37.1600,80,98,262055
1.7253,0.1124,37.0000,80,98,262059
1.7204,0.1075,37.0600,80,98,262063
1.7009,0.1075,37.2000,80,98,262066
1.7253,0.1124,37.1000,80,98,262069
1.7155,0.1026,37.2600,80,98,262073
1.7644,0.1222,36.9600,80,98,262076
1.7302,0.1075,37.1600,80,98,262079
1.7253,0.1320,37.1600,80,98,262082
1.7302,0.1075,37.1300,80,98,262086
1.7302,0.1075,37.1600,80,98,262089
1.8231,0.1222,37.0000,80,98,262092
1.7644,0.1075,37.1300,80,98,262096
1.7742,0.1026,37.0600,80,98,262099
1.7791,0.1075,37.1600,80,98,262103
1.7889,0.1026,37.3000,80,98,262107
1.8328,0.1124,37.0000,80,98,262110
1.8231,0.1075,37.1300,80,98,262113
1.8475,0.1075,37.1300,80,98,262117
1.8328,0.1271,37.2300,80,98,262120
1.8426,0.1026,37.2000,80,98,262123
1.8768,0.1124,37.0600,80,98,262126
1.8622,0.1075,37.1600,80,98,262130
1.8964,0.1075,37.1000,80,98,262133
1.8719,0.1026,37.1600,80,98,262136
1.8719,0.1369,37.2000,80,98,262140
1.8964,0.1075,37.0600,80,98,262144
1.8768,0.1075,37.2000,80,98,262147
1.9013,0.1075,37.0000,80,98,262151
1.8719,0.1075,37.1600,80,98,262154
1.8719,0.1026,37.1600,80,98,262157
1.8817,0.1124,37.1000,80,98,262160
1.8622,0.1026,37.1600,80,98,262164
1.8915,0.1124,36.8600,80,98,262167
1.8622,0.1271,37.0600,80,98,262170
1.8426,0.0733,37.1600,80,98,262174
1.8524,0.1222,37.1300,80,98,262177
1.8231,0.1026,37.1600,80,98,262180
1.8671,0.1124,36.9600,80,98,262184
1.8280,0.1075,37.0300,80,98,262188
1.7889,0.0978,37.1300,80,98,262191
1.7693,0.1075,37.2000,80,98,262195
1.7498,0.1026,37.1600,80,98,262198
1.7742,0.1222,37.0300,80,98,262201
1.7351,0.1124,37.1000,80,98,262204
1.7107,0.1026,37.1000,80,98,262208
1.6862,0.1075,37.1600,80,98,262211
1.6716,0.1075,37.1600,80,98,262214
1.6764,0.1124,37.1000,80,98,262218
1.6471,0.1075,37.1600,80,98,262221
1.6471,0.1075,37.0300,80,98,262224
1.6178,0.1075,37.2000,80,98,262228
1.6129,0.1026,36.7700,80,98,262232
1.6373,0.1369,37.0000,80,98,262235
1.6080,0.1075,37.1600,80,98,262239
1.6325,0.1075,37.1300,80,98,262242
1.5982,0.1173,37.1300,80,98,262245
1.6031,0.1026,37.1600,80,98,262248
1.6178,0.1271,37.0300,80,98,262252
1.5982,0.1075,37.2300,80,98,262255
1.6276,0.0929,36.8900,80,98,262258
1.6080,0.1173,37.1300,80,98,262262
1.6031,0.1075,37.2300,80,98,262265
1.6227,0.1124,37.0600,80,98,262268
1.6080,0.1026,37.1600,80,98,262273
1.6520,0.1124,36.9300,80,98,262276
1.6227,0.1026,37.2000,80,98,262279
1.6373,0.1026,37.1300,80,98,262282
1.6716,0.1075,37.1300,80,98,262286
1.6373,0.1075,37.3300,80,98,262289
1.6813,0.1222,36.9600,80,98,262292
1.6471,0.1075,37.0600,80,98,262296
1.6325,0.1026,37.2300,80,98,262299
1.6471,0.1075,37.1600,80,98,262302
1.6471,0.1026,37.2600,80,98,262306
1.6960,0.1222,37.0000,80,98,262309
1.6764,0.1124,37.2000,80,98,262312
1.6716,0.1026,37.0600,80,98,262317
1.6716,0.1124,37.1300,80,98,262320
1.6618,0.1026,37.1600,80,98,262323
1.6911,0.1124,37.0300,80,98,262326
1.6813,0.1075,37.1600,80,98,262330
1.7009,0.1075,37.1600,80,98,262333
1.6813,0.1075,37.1600,80,98,262336
1.6862,0.1026,37.1600,80,98,262340
1.6960,0.1026,37.0300,80,98,262343
1.6960,0.1417,37.1600,80,98,262346
1.7204,0.1075,37.0300,80,98,262350
1.6960,0.1075,37.1600,80,98,262353
1.7253,0.1026,37.1600,80,98,262356
1.7204,0.1124,37.1000,80,98,262360
1.7009,0.1124,37.1600,80,98,262364
1.7449,0.0929,36.9600,80,98,262367
1.7155,0.1075,37.1000,80,98,262370
1.7058,0.1124,37.2000,80,98,262374
1.7253,0.1124,37.1000,80,98,262377
1.7155,0.1026,37.0300,80,98,262380
1.7595,0.1320,36.9300,80,98,262384
1.7204,0.1026,37.1600,80,98,262387
1.7155,0.1026,37.2000,80,98,262390
1.7351,0.0929,37.1600,80,98,262394
1.7107,0.1026,37.2000,80,98,262397
1.7595,0.1222,36.9600,80,98,262401
1.7253,0.1075,37.1300,80,98,262404
1.7155,0.1026,37.1000,80,98,262408
1.7107,0.1271,37.2000,80,98,262411
1.7107,0.1026,37.2000,80,98,262414
1.7498,0.1124,37.1300,80,98,262418
1.7155,0.1075,37.2000,80,98,262421
1.7351,0.1026,37.0600,80,98,262424
1.7107,0.1075,37.3600,80,98,262428
1.7155,0.0978,37.1600,80,98,262431
1.7498,0.1173,37.0300,80,98,262434
1.7351,0.1173,37.1300,80,98,262438
1.7595,0.1124,37.0600,80,98,262441
1.7449,0.0978,37.0600,80,98,262445
1.7498,0.1026,37.1600,80,98,262448
1.7644,0.1075,37.0600,80,98,262452
1.7595,0.1026,37.1600,80,98,262455
1.7889,0.1075,37.0000,80,98,262458
1.7693,0.1026,37.1300,80,98,262462
1.7742,0.1026,37.2000,80,98,262465
1.7791,0.1075,37.2000,80,98,262468
1.7791,0.1026,37.1300,80,98,262472
1.8328,0.1075,36.9600,80,98,262475
1.8182,0.1026,36.7000,80,98,262478
1.8426,0.1026,37.0000,80,98,262481
1.8915,0.1075,37.1300,80,98,262486
1.8426,0.1026,37.2300,80,98,262489
1.8768,0.1124,37.0300,80,98,262492
1.8475,0.0929,37.1000,80,98,262496
1.8035,0.1026,37.2300,80,98,262499
1.7937,0.1173,37.1300,80,98,262502
1.7595,0.1075,37.1600,80,98,262506
1.7986,0.1222,36.1600,81,97,262509
1.7107,0.1075,37.0600,81,97,262513
1.6764,0.1124,37.1600,81,97,262516
1.6911,0.1075,37.0300,81,97,262519
1.6569,0.1075,37.3000,81,97,262523
1.6569,0.1026,37.2300,81,97,262526
1.6618,0.1075,37.1300,81,97,262530
1.6520,0.1026,37.2600,81,97,262533
1.6716,0.1026,37.0300,81,97,262537
1.6520,0.1075,37.1600,81,97,262540
1.6569,0.1026,37.2600,81,97,262543
1.6813,0.1075,37.1000,81,97,262547
1.6569,0.1026,37.1600,81,97,262550
1.6911,0.1075,36.9600,81,97,262553
1.6764,0.1124,37.1000,81,97,262557
1.6764,0.1026,37.1600,81,97,262560
1.7009,0.1466,37.1300,81,97,262563
1.6813,0.1075,37.1600,81,97,262566
1.7058,0.1173,36.9300,81,97,262571
1.6422,0.0978,37.2300,81,97,262574
1.6129,0.0929,37.2000,81,97,262577
1.6080,0.1075,37.1600,81,97,262581
1.6325,0.1075,37.2000,81,97,262584
1.7351,0.1271,36.8900,81,97,262587
1.7693,0.1075,37.3000,81,97,262591
1.8915,0.1026,37.1600,81,97,262594
2.0870,0.1075,37.1300,81,97,262597
2.3118,0.1026,37.0600,81,97,262601
2.6002,0.1369,37.1000,81,97,262604
2.7713,0.1075,37.1600,81,97,262607
2.9277,0.1026,37.0300,81,97,262610
2.9277,0.1075,37.1300,81,97,262615
2.8446,0.1026,37.1600,81,97,262618
2.6637,0.1124,37.0000,81,97,262621
2.3656,0.1124,37.1600,81,97,262625
2.1652,0.1075,37.0300,81,97,262628
1.9013,0.1026,37.2000,81,97,262631
1.7644,0.1026,37.2300,81,97,262635
1.6862,0.1124,37.0600,81,97,262638
1.6227,0.1075,37.1600,81,97,262641
1.6080,0.1026,37.0600,81,97,262644
1.5640,0.1026,37.2300,81,97,262648
1.5494,0.1124,37.1600,81,97,262651
1.5494,0.1075,37.1000,81,97,262654
1.5200,0.1026,37.2000,81,97,262659
1.5494,0.1026,36.9600,81,97,262662
1.5200,0.1075,37.2300,81,97,262665
1.5249,0.0929,37.1600,81,97,262669
1.5396,0.1124,37.2300,81,97,262672
1.5396,0.0929,37.1300,81,97,262675
1.5738,0.1124,36.9300,81,97,262678
1.5543,0.1075,37.0600,81,97,262682
1.5738,0.1026,37.1600,81,97,262685
1.5738,0.1124,37.3600,81,97,262688
1.5738,0.0978,37.1600,81,97,262692
1.6667,0.1124,36.9600,81,97,262695
1.6080,0.1075,37.0600,81,97,262699
1.6080,0.1124,37.1600,81,97,262703
1.6178,0.1026,37.1600,81,97,262706
1.6227,0.1026,37.2000,81,97,262709
1.6764,0.1173,37.0000,81,97,262712
1.6520,0.1124,37.1300,81,97,262716
1.6716,0.0929,37.1000,81,97,262719
1.6569,0.1026,37.3300,81,97,262722
1.6716,0.0929,37.2300,81,97,262726
1.7009,0.1124,37.1600,81,97,262729
1.6862,0.1075,37.0300,81,97,262732
1.7107,0.1320,37.0600,81,97,262736
1.6960,0.1075,37.1600,81,97,262739
1.6960,0.1026,37.2000,81,97,262743
1.7449,0.1124,37.0300,81,97,262746
1.7302,0.1075,37.1600,81,97,262750
1.7644,0.1075,37.1300,81,97,262753
1.7400,0.1026,37.1300,81,97,262756
1.7791,0.0978,37.1600,81,97,262760
1.7595,0.1075,37.0600,81,97,262763
1.7546,0.1124,37.1300,81,97,262766
1.7889,0.1026,37.0000,81,97,262770
1.7693,0.1026,37.0000,81,97,262773
1.7693,0.1271,37.2000,81,97,262776
1.7889,0.1075,37.1300,81,97,262780
1.7840,0.1026,37.1600,81,97,262784
1.8377,0.1075,37.0600,81,97,262787
1.8084,0.0929,37.1600,81,97,262790
1.8182,0.0929,37.1600,81,97,262794
1.8377,0.1075,37.1300,81,97,262797
1.8377,0.1026,37.1600,81,97,262800
1.9013,0.1124,36.8600,81,97,262804
1.8671,0.1075,37.0600,81,97,262807
1.8573,0.0929,37.2000,81,97,262810
1.8719,0.1173,37.1600,81,97,262814
1.8719,0.1075,37.1600,81,97,262817
1.9306,0.1124,37.0000,81,97,262820
1.9110,0.0978,37.1000,81,97,262824
1.9208,0.1075,37.1300,81,97,262828
1.9159,0.1075,37.1600,81,97,262831
1.9208,0.1026,37.2600,81,97,262834
1.9453,0.1173,37.1300,81,97,262838
1.9257,0.1075,37.1600,81,97,262841
1.9599,0.1026,37.1000,81,97,262844
1.9697,0.0929,37.2000,81,97,262848
1.9501,0.1026,37.1600,81,97,262851
1.9648,0.1075,37.1600,81,97,262854
1.9697,0.1075,37.1600,81,97,262858
1.9892,0.1075,37.0600,81,97,262861
1.9550,0.1320,37.2300,81,97,262864
1.9550,0.1026,37.1600,81,97,262867
1.9746,0.1124,37.0600,81,97,262872
1.9501,0.1222,37.1600,81,97,262875
2.0039,0.1026,36.9600,81,97,262878
1.9550,0.1075,37.1000,81,97,262882
1.9306,0.1026,37.2000,81,97,262885
1.9404,0.1173,37.1300,81,97,262888
1.8964,0.1075,37.1600,81,97,262892
1.9306,0.1075,36.9600,81,97,262895
1.8671,0.1271,37.1000,81,97,262898
1.8524,0.1075,37.2000,81,97,262901
1.8280,0.1075,37.1600,81,97,262905
1.8084,0.1026,37.2300,81,97,262908
1.8426,0.1124,36.9300,81,97,262912
1.7742,0.1026,37.1300,81,97,262916
1.7644,0.0978,37.2000,81,97,262919
1.7498,0.1026,37.1600,81,97,262922
1.7351,0.1026,37.2600,81,97,262926
1.7693,0.1173,37.0000,81,97,262929
1.7204,0.0929,37.1000,81,97,262932
1.7107,0.1026,37.0600,81,97,262936
1.6911,0.1124,37.2000,81,97,262939
1.6813,0.0978,37.1600,81,97,262942
1.7204,0.1124,37.0000,81,97,262945
1.6960,0.1124,37.1600,81,97,262949
1.7155,0.1075,37.1000,81,97,262952
1.6862,0.1075,37.0300,81,97,262956
1.6862,0.0978,37.2000,81,97,262960
1.7058,0.1173,37.1300,81,97,262963
1.6960,0.1075,37.3300,81,97,262966
1.7253,0.1075,37.0600,81,97,262970
1.7107,0.0929,37.1600,81,97,262973
1.7107,0.1026,37.1600,81,97,262976
1.7155,0.1075,37.1000,81,97,262979
1.7204,0.1026,37.2300,81,97,262983
1.7400,0.1075,36.9600,81,97,262986
1.7107,0.1075,37.2000,81,97,262989
1.7155,0.1026,37.1600,81,97,262993
1.7400,0.1124,37.0600,81,97,262996
1.7253,0.1075,37.1600,81,97,263000
1.7644,0.1075,36.9300,81,97,263004
1.7449,0.1075,37.0600,81,97,263007
1.7400,0.1026,37.3000,81,97,263010
1.7644,0.1124,37.1300,81,97,263013
1.7449,0.1026,37.1600,81,97,263017
1.8035,0.1124,36.8600,81,97,263020
1.7693,0.0929,37.0600,81,97,263023
1.7742,0.0978,37.1600,81,97,263027
1.7937,0.1075,37.2000,81,97,263030
1.8133,0.1124,37.1600,81,97,263033
1.8964,0.1124,37.0000,81,97,263037
1.8817,0.1075,37.2600,81,97,263041
1.9159,0.1320,37.0600,81,97,263044
1.9453,0.1124,37.2000,81,97,263048
1.9746,0.1075,37.1300,81,97,263051
2.0479,0.1173,37.1000,81,97,263054
2.0626,0.1075,37.1600,81,97,263057
2.1212,0.1075,37.0600,81,97,263061
2.1554,0.1075,37.1600,81,97,263064
2.2190,0.0929,37.1600,81,97,263067
2.3412,0.1173,37.0300,81,97,263071
2.3900,0.1075,37.2000,81,97,263074
2.5024,0.1026,37.0600,81,97,263077
2.5611,0.0978,37.1300,81,97,263081
2.6540,0.1026,36.6000,81,97,263085
2.7615,0.1026,37.0300,81,97,263088
2.8250,0.1026,37.1600,81,97,263091
2.9228,0.1026,37.0000,81,97,263095
2.9570,0.1026,37.1600,81,97,263098
3.0547,0.0929,37.1600,81,97,263101
3.2014,0.1075,37.1300,81,97,263105
3.3480,0.1075,37.3300,81,97,263108
3.6022,0.1075,36.9300,81,97,263111
3.7097,0.1026,37.1600,81,97,263115
3.8710,0.1026,37.1600,81,97,263118
3.9883,0.1124,37.1600,82,97,263121
2.7175,0.1124,37.1600,82,97,263126
2.2825,0.1075,37.2300,82,97,263129
1.9306,0.1124,37.0000,82,97,263132
1.5738,0.1124,37.1600,82,97,263136
1.2903,0.1075,37.1600,82,97,263139
1.0899,0.1075,37.1600,82,97,263142
0.9629,0.1026,37.1000,82,97,263146
0.9189,0.1173,37.0300,82,97,263149
0.8504,0.1075,37.1600,82,97,263152
0.8456,0.1075,37.0300,82,97,263156
0.8309,0.1075,37.0600,82,97,263159
0.8456,0.1124,37.1600,82,97,263162
0.8651,0.0929,37.1000,82,97,263165
0.8847,0.0733,37.1600,82,97,263170
0.9286,0.1075,37.0600,82,97,263173
0.9384,0.0978,37.1600,82,97,263176
0.9677,0.1075,37.1600,82,97,263180
1.0117,0.1124,37.0600,82,97,263183
1.0215,0.1075,37.2300,82,97,263186
1.0753,0.1075,37.2000,82,97,263189
1.1095,0.1075,37.0600,82,97,263193
1.1535,0.1026,37.2000,82,97,263196
1.2023,0.1124,37.0600,82,97,263199
1.2072,0.1026,37.1600,82,97,263203
1.2512,0.1075,36.9300,82,97,263206
1.2512,0.1124,37.1300,82,97,263209
1.2512,0.1026,37.2600,82,97,263214
1.2463,0.1124,37.2300,82,97,263217
1.2610,0.1026,37.1600,82,97,263220
1.3001,0.1124,37.0600,82,97,263223
1.2708,0.1026,37.1300,82,97,263227
1.2757,0.1026,37.1600,82,97,263230
1.2854,0.1075,37.2000,82,97,263233
1.2854,0.1124,37.2300,82,97,263237
1.3294,0.1222,36.9600,82,97,263240
1.3050,0.1222,37.1300,82,97,263243
1.3001,0.0929,37.1000,82,97,263247
1.3001,0.1075,37.2300,82,97,263250
1.3050,0.1026,37.1600,82,97,263254
1.3392,0.1173,37.0000,82,97,263258
1.3245,0.1124,37.2300,82,97,263261
1.3294,0.0978,37.1000,82,97,263264
1.3148,0.1075,37.2000,82,97,263267
1.3148,0.1075,37.2000,82,97,263271
1.3343,0.1075,37.0600,82,97,263274
1.3441,0.1075,37.1300,82,97,263277
1.3539,0.1124,37.2000,82,97,263281
1.3343,0.1026,37.1600,82,97,263284
1.3490,0.0929,37.1300,82,97,263287
1.3441,0.1075,37.1300,82,97,263291
1.3490,0.1075,37.2000,82,97,263294
1.3734,0.1124,37.0000,82,97,263298
1.3587,0.1075,37.2600,82,97,263301
1.3587,0.1026,37.1600,82,97,263305
1.3783,0.1124,37.1300,82,97,263308
1.3539,0.0978,37.2000,82,97,263311
1.3832,0.1124,37.0000,82,97,263315
1.3539,0.1075,37.0600,82,97,263318
1.3587,0.1026,37.1600,82,97,263321
1.3734,0.1173,37.1000,82,97,263325
1.3685,0.1075,37.2600,82,97,263328
1.4174,0.1124,36.8900,82,97,263331
1.4076,0.1075,37.0300,82,97,263335
1.4125,0.1026,37.1300,82,97,263339
1.4223,0.1124,37.1300,82,97,263342
1.4370,0.1075,37.1600,82,97,263345
1.5005,0.1222,36.9600,82,97,263349
1.4809,0.1075,37.2000,82,97,263352
1.5103,0.1026,37.1300,82,97,263355
1.5347,0.1124,37.2000,82,97,263359
1.5640,0.1075,37.1600,82,97,263362
1.6178,0.1124,36.8600,82,97,263365
1.6373,0.1075,37.2300,82,97,263369
1.6813,0.1075,37.1000,82,97,263372
1.7009,0.1320,37.1600,82,97,263375
1.7449,0.1075,37.2300,82,97,263379
1.8133,0.1124,37.0600,82,97,263383
1.8280,0.1173,37.1300,82,97,263386
1.8964,0.1075,37.0600,82,97,263389
1.9110,0.1026,37.1300,82,97,263393
1.9599,0.1075,37.1600,82,97,263396
2.0186,0.1173,37.0600,82,97,263399
2.0283,0.1075,37.1600,82,97,263403
2.0772,0.1075,37.1300,82,97,263406
2.0626,0.1124,37.1300,82,97,263409
2.0870,0.1075,37.2000,82,97,263413
2.1114,0.1124,37.1300,82,97,263416
2.1114,0.1075,37.1600,82,97,263419
2.1799,0.1173,36.9300,82,97,263422
2.1114,0.1026,37.0600,82,97,263427
2.1163,0.1026,37.1300,82,97,263430
2.1261,0.1124,37.2000,82,97,263433
2.1065,0.1075,37.2000,82,97,263437
2.1603,0.1173,36.8600,82,97,263440
2.1163,0.1026,37.1300,82,97,263443
2.0968,0.0733,37.1300,82,97,263447
2.0919,0.1075,37.2000,82,97,263450
2.0821,0.1075,37.1600,82,97,263453
2.1359,0.1222,37.0000,82,97,263456
2.0968,0.1124,37.0300,82,97,263460
2.0772,0.1026,37.0600,82,97,263463
2.0626,0.1173,37.1300,82,97,263467
2.0772,0.0929,37.1600,82,97,263471
2.0919,0.1124,37.0300,82,97,263474
2.0528,0.1124,37.1600,82,97,263477
2.1017,0.1075,37.0600,82,97,263481
2.0332,0.1075,37.2300,82,97,263484
2.0235,0.1124,37.1600,82,97,263487
2.0381,0.0929,37.1300,82,97,263490
2.0186,0.1075,37.1600,82,97,263494
2.0430,0.1124,37.0000,82,97,263497
2.0137,0.1026,37.1600,82,97,263500
2.0039,0.1026,37.1600,82,97,263504
2.0332,0.1124,37.0300,82,97,263507
1.9990,0.1075,37.2300,82,97,263511
2.0235,0.0978,37.0300,82,97,263515
1.9892,0.1026,37.1300,82,97,263518
1.9844,0.1075,37.1600,82,97,263521
2.0137,0.1173,37.0300,82,97,263524
1.9892,0.1075,37.1600,82,97,263528
2.0235,0.1124,37.0300,82,97,263531
1.9844,0.1075,37.1300,82,97,263534
1.9746,0.1075,37.1600,82,97,263538
1.9746,0.1466,37.1300,82,97,263541
1.9550,0.0929,37.2000,82,97,263544
2.0088,0.1124,36.9600,82,97,263548
1.9550,0.1320,37.1600,82,97,263552
1.9550,0.1124,37.2000,82,97,263555
1.9599,0.1075,37.2000,82,97,263558
1.9453,0.1075,37.3000,82,97,263562
1.9990,0.1222,36.9600,82,97,263565
1.9648,0.1124,37.1000,82,97,263568
1.9501,0.1026,37.1000,82,97,263572
1.9501,0.1124,37.1600,82,97,263575
1.9404,0.1075,37.1600,82,97,263578
1.9746,0.1124,37.0000,82,97,263582
1.9453,0.1173,37.1000,82,97,263585
1.9453,0.1075,37.2600,82,97,263588
1.9306,0.1026,37.1600,82,97,263592
1.9306,0.1075,37.2000,82,97,263596
1.9599,0.1124,37.1000,82,97,263599
1.9355,0.1026,37.1600,82,97,263602
1.9795,0.1026,37.0600,82,97,263606
1.9208,0.1075,37.2000,82,97,263609
1.9257,0.1075,36.5400,82,97,263612
1.9404,0.1173,37.1300,82,97,263616
1.9355,0.1075,37.1600,82,97,263619
1.9648,0.1075,37.1600,82,97,263622
1.9355,0.1075,37.2000,82,97,263626
1.9306,0.1075,37.2000,82,97,263629
1.9453,0.1417,37.0600,82,97,263632
1.9159,0.1075,37.1600,82,97,263635
1.9501,0.1075,37.3000,82,97,263640
1.9257,0.1124,37.0600,82,97,263643
1.9110,0.1075,37.1600,82,97,263646
1.9306,0.1124,37.1000,82,97,263650
1.8964,0.1075,37.1600,82,97,263653
1.9404,0.1173,36.9300,82,97,263656
1.8964,0.1075,37.2000,82,97,263660
1.8915,0.1320,37.1000,82,97,263663
1.8964,0.1124,37.2000,82,97,263666
1.8964,0.1075,37.1600,82,97,263670
1.9501,0.1222,36.9300,82,97,263673
1.9013,0.1124,37.1300,82,97,263676
1.9062,0.1026,36.6700,82,97,263680
1.9013,0.0978,37.1300,82,97,263684
1.8964,0.1075,37.1600,82,97,263687
1.9355,0.1222,37.1000,82,97,263690
1.8964,0.1124,37.1600,82,97,263694
1.9062,0.1075,37.3600,82,97,263697
1.8866,0.1026,37.2300,82,97,263700
1.8768,0.1075,37.1600,82,97,263704
1.9110,0.1515,37.1000,82,97,263707
1.8817,0.1124,37.1600,82,97,263710
1.9062,0.1124,37.0600,82,97,263714
1.9013,0.0978,37.2300,82,97,263717
1.8866,0.1173,37.2300,82,97,263720
1.9110,0.1026,37.0000,82,97,263724
1.8915,0.1075,37.2000,82,97,263728
1.9208,0.1075,37.0600,82,97,263731
1.8964,0.1222,36.9300,82,97,263734
1.8866,0.1026,37.2000,82,97,263738
1.8964,0.1075,37.2300,82,97,263741
1.9062,0.1124,37.1300,82,97,263745
1.9013,0.1271,37.2000,82,97,263748
1.9795,0.1222,36.8900,82,97,263751
1.9110,0.1124,37.1600,82,97,263755
1.8964,0.1026,37.1600,82,97,263758
1.9013,0.1124,37.1600,82,97,263761
1.9013,0.1075,37.4000,82,97,263764
1.9501,0.1369,36.9600,82,97,263769
1.9208,0.1124,37.1300,82,97,263772
1.9110,0.1075,36.4400,82,97,263775
1.8915,0.1222,37.1600,82,97,263779
1.8915,0.1075,37.1600,82,97,263782
1.9208,0.1320,37.0300,82,97,263785
1.8964,0.1075,37.1600,82,97,263789
1.9257,0.1026,37.0300,82,97,263792
1.9013,0.1075,37.4000,82,97,263795
1.9110,0.1075,37.2300,82,97,263798
1.9208,0.1124,37.1300,82,97,263802
1.9062,0.1075,37.1300,82,97,263805
1.9306,0.1124,37.0600,82,97,263809
1.8964,0.1075,37.2000,82,97,263813
1.8964,0.1075,36.9300,82,97,263816
1.9208,0.1222,37.1300,82,97,263819
1.9013,0.1075,37.0000,82,97,263823
1.9355,0.1075,37.0000,82,97,263826
1.9159,0.0929,37.0600,82,97,263829
1.9110,0.1075,37.2000,82,97,263833
1.9306,0.1173,37.0600,82,97,263836
1.8964,0.1075,37.1600,82,97,263839
1.9404,0.1173,36.9300,82,97,263842
1.8964,0.1124,37.1000,82,97,263846
1.8866,0.1075,37.2000,82,97,263849
1.8964,0.1124,37.1300,82,97,263853
1.8915,0.1075,36.8900,82,97,263857
1.9550,0.1222,36.8900,82,97,263860
1.9110,0.1124,37.1300,82,97,263863
1.9110,0.1320,37.1300,82,97,263867
1.9062,0.0929,37.1600,82,97,263870
1.8964,0.1075,36.9600,82,97,263873
1.9355,0.1173,36.9600,82,97,263876
1.8964,0.1124,37.1600,82,97,263880
1.9110,0.1075,37.2300,82,97,263883
1.9013,0.0929,37.1600,82,97,263886
1.9013,0.1075,37.1600,82,97,263890
1.9355,0.1173,37.0300,82,97,263894
1.9062,0.1124,37.1300,82,97,263897
1.9208,0.1124,37.0300,82,97,263901
1.8866,0.1075,37.3000,82,97,263904
1.9257,0.1075,37.2300,82,97,263907
1.9110,0.1075,37.1300,82,97,263911
1.8915,0.1124,37.1300,82,97,263914
1.9257,0.1173,37.0300,82,97,263917
1.9110,0.1075,37.1300,82,97,263920
1.9208,0.1026,37.1600,82,97,263924
1.9550,0.1124,37.1000,82,97,263927
1.9404,0.1075,37.1600,82,97,263930
1.9746,0.1124,36.9300,82,97,263934
1.9453,0.1075,37.2300,82,97,263938
1.9501,0.1271,37.2000,82,97,263941
1.9550,0.1173,37.1300,82,97,263945
1.9404,0.1124,37.1300,82,97,263948
2.0235,0.1173,36.9300,82,97,263951
1.9599,0.1124,37.1000,82,97,263955
1.9599,0.1026,37.1600,82,97,263958
1.9941,0.1124,37.1300,82,97,263961
1.9990,0.1075,37.2000,82,97,263964
2.0626,0.1271,36.9300,82,97,263968
2.0186,0.1173,37.0600,82,97,263971
1.9941,0.1075,37.0600,82,97,263974
1.9795,0.1124,37.4000,82,97,263979
1.9599,0.1026,37.1600,82,97,263982
1.9697,0.1173,37.0300,82,97,263985
1.9208,0.1124,37.1600,82,97,263989
1.9355,0.1026,37.0600,82,97,263992
1.8866,0.1124,37.1600,82,97,263995
1.8768,0.1124,37.1600,82,97,263999
1.8817,0.1173,37.1300,82,97,264002
1.8573,0.1075,37.3600,82,97,264005
1.8719,0.1124,37.1000,82,97,264008
1.8280,0.1075,37.0600,82,97,264012
1.8182,0.1075,37.1300,82,97,264015
1.8377,0.1173,37.0300,82,97,264018
1.8035,0.1124,37.2300,82,97,264023
1.8280,0.1173,37.0000,82,97,264026
1.8035,0.1075,37.0600,82,97,264029
1.8035,0.1075,37.1600,82,97,264033
1.8280,0.1124,37.0300,82,97,264036
1.8280,0.1026,37.1600,82,97,264039
1.8475,0.1173,36.9300,82,97,264042
1.8280,0.1124,37.1000,82,97,264046
1.8182,0.1124,37.2000,82,97,264049
1.8231,0.1124,37.1600,82,97,264052
1.7937,0.1075,37.2600,82,97,264056
1.8182,0.1466,36.8900,82,97,264059
1.7449,0.1075,37.5000,82,97,264062
1.7351,0.1026,37.1300,82,97,264067
1.7546,0.1173,37.1600,82,97,264070
1.7986,0.1075,37.3300,82,97,264073
1.9257,0.1515,36.9600,82,97,264077
1.9990,0.1124,37.1300,82,97,264080
2.1799,0.1075,37.1000,82,97,264083
2.4096,0.0929,37.1600,82,97,264086
2.6686,0.1075,37.1600,82,97,264090
2.9570,0.1173,37.0600,82,97,264093
3.0890,0.1173,37.1300,82,97,264096
3.1476,0.0929,37.0300,82,97,264100
3.0401,0.1075,37.1600,82,97,264103
2.8592,0.1075,37.2300,82,97,264107
2.6540,0.1173,37.0300,82,97,264111
2.3607,0.1173,37.1300,82,97,264114
2.1505,0.1124,37.0000,82,97,264117
1.9404,0.1173,37.1600,82,97,264120
1.8231,0.1075,37.1600,82,97,264124
1.7546,0.1124,37.2000,82,97,264127
1.7009,0.1613,37.1300,82,97,264130
1.6960,0.0929,37.0000,82,97,264134
1.6373,0.1124,37.1600,82,97,264137
1.6178,0.1124,37.1600,82,97,264140
1.6129,0.1124,37.1000,82,97,264144
1.5836,0.1075,37.1600,82,97,264147
1.6325,0.1173,36.9300,82,97,264151
1.5982,0.1173,37.1000,82,97,264154
1.5982,0.1075,37.2000,82,97,264158
1.6276,0.1124,37.1000,82,97,264161
1.6178,0.1173,37.1600,82,97,264164
1.6618,0.1271,36.9600,82,97,264168
1.6373,0.1075,37.0600,82,97,264171
1.6373,0.1075,37.1600,82,97,264174
1.6520,0.1124,37.1300,82,97,264178
1.6569,0.1075,37.1600,82,97,264181
1.7155,0.1271,36.9600,82,97,264184
1.6862,0.1173,37.2300,82,97,264188
1.6960,0.1075,37.0600,82,97,264192
1.6911,0.1173,37.1600,82,97,264195
1.7009,0.1075,37.2600,82,97,264198
1.7400,0.1222,37.0600,82,97,264202
1.7253,0.1222,37.1300,82,97,264205
1.7400,0.1124,37.0300,82,97,264208
1.7204,0.1222,37.1600,82,97,264212
1.7351,0.1026,37.1600,82,97,264215
1.7644,0.1173,37.0000,82,97,264218
1.7791,0.1173,37.1300,82,97,264222
1.7986,0.1173,37.1000,82,97,264225
1.7742,0.1320,37.1300,82,97,264228
1.8035,0.1026,37.1600,82,97,264232
1.8084,0.1124,36.9600,82,97,264236
1.7986,0.1271,37.2300,82,97,264239
1.8377,0.1124,37.0000,82,97,264242
1.8182,0.1075,37.0600,82,97,264246
1.8280,0.1124,37.1600,82,97,264249
1.8426,0.1124,37.1000,82,97,264252
1.8328,0.1124,36.5400,82,97,264256
1.8719,0.1124,36.9300,82,97,264259
1.8377,0.1075,37.1300,82,97,264262
1.8524,0.1124,37.2300,82,97,264266
1.8671,0.1124,37.1600,82,97,264269
1.8915,0.1124,37.2000,82,97,264272
1.9306,0.1222,36.9600,82,97,264276
1.8964,0.1124,37.0600,82,97,264280
1.8915,0.1075,37.1300,82,97,264283
1.9013,0.1124,37.1300,82,97,264286
1.8915,0.1417,37.1300,82,97,264290
1.9550,0.1124,37.0000,82,97,264293
1.9355,0.1173,37.1600,82,97,264296
1.9453,0.1173,37.0300,82,97,264300
1.9355,0.1124,37.1600,82,97,264303
1.9355,0.1075,37.1600,82,97,264306
1.9648,0.1173,37.0300,82,97,264310
1.9501,0.1124,37.1600,82,97,264313
1.9844,0.1369,37.0300,82,97,264316
1.9746,0.1124,37.1300,82,97,264321
1.9795,0.1222,37.1600,82,97,264324
1.9941,0.1124,37.1600,82,97,264327
1.9892,0.1124,37.1600,82,97,264331
2.0088,0.1173,37.0000,82,97,264334
1.9892,0.1124,37.1600,82,97,264337
1.9941,0.1222,37.1600,82,97,264340
2.0186,0.1124,37.1000,82,97,264344
2.0235,0.1173,37.2000,82,97,264347
2.0137,0.1124,37.2300,82,97,264351
2.0723,0.1271,36.9300,82,97,264354
2.0381,0.1124,37.0300,82,97,264357
2.0137,0.1075,37.1300,82,97,264361
2.0039,0.1124,37.0000,82,97,264365
1.9941,0.1124,37.1600,82,97,264368
2.0381,0.1222,37.0300,82,97,264372
1.9844,0.1124,37.0600,82,97,264375
1.9844,0.1075,37.0600,82,97,264378
1.9599,0.1124,37.1600,82,97,264381
1.9453,0.1124,37.2000,82,97,264385
1.9795,0.1173,37.1000,82,97,264388
1.9159,0.1124,37.2000,82,97,264391
1.9159,0.1124,37.0300,82,97,264395
1.8719,0.1173,37.1600,82,97,264398
1.8573,0.1124,37.2000,82,97,264401
1.8817,0.1173,37.0300,82,97,264406
1.8475,0.1124,37.1600,82,97,264409
1.8524,0.1124,37.0600,82,97,264412
1.8035,0.1124,37.0600,82,97,264416
1.7937,0.1075,37.1600,82,97,264419
1.8035,0.1124,36.9600,82,97,264422
1.7791,0.1075,37.2300,82,97,264425
1.8182,0.1173,36.9600,82,97,264429
1.7791,0.1124,37.1000,82,97,264432
1.7693,0.1026,37.1600,82,97,264435
1.7693,0.1173,37.1300,82,97,264439
1.7595,0.1124,37.1600,82,97,264442
1.7986,0.1173,36.8900,82,97,264445
1.7546,0.1124,37.1300,82,97,264450
1.7546,0.1026,37.2000,82,97,264453
1.7693,0.1124,37.2000,82,97,264456
1.7693,0.1124,37.2300,82,97,264460
1.8280,0.1320,36.9600,82,97,264463
1.7986,0.1124,37.0600,82,97,264466
1.7889,0.1075,37.1300,82,97,264469
1.8035,0.1173,37.1000,82,97,264473
1.7889,0.1124,37.1600,82,97,264476
1.8328,0.1466,37.0300,82,97,264479
1.8084,0.1124,37.1300,82,97,264483
1.8133,0.1124,37.0600,82,97,264486
1.8084,0.1173,37.2300,82,97,264489
1.7986,0.1124,37.2000,82,97,264494
1.8231,0.1222,37.0300,82,97,264497
1.8035,0.1026,37.1600,82,97,264500
1.8328,0.1173,37.0300,82,97,264503
1.8133,0.1124,37.1600,82,97,264507
1.8182,0.1222,37.2000,82,97,264510
1.8231,0.1124,37.1000,82,97,264513
1.8231,0.1124,37.0600,82,97,264517
1.8426,0.1075,37.0300,82,97,264520
1.8133,0.1124,37.1600,82,97,264523
1.8084,0.1124,37.1600,82,97,264527
1.8377,0.1173,37.0300,82,97,264530
1.8231,0.1124,37.1000,82,97,264534
1.8671,0.1222,36.9300,82,97,264538
1.8475,0.1173,37.0000,82,97,264541
1.8328,0.1026,37.1600,82,97,264544
1.8573,0.1173,37.1000,82,97,264547
1.8377,0.1124,37.1000,82,97,264551
1.8866,0.1173,36.8900,82,97,264554
1.8475,0.1124,37.0600,82,97,264557
1.8377,0.1075,37.1300,82,97,264561
1.8426,0.1173,37.1600,82,97,264564
1.8426,0.1124,37.2000,82,97,264567
1.9013,0.1271,36.9300,82,97,264571
1.8475,0.1124,37.1300,82,97,264574
1.8524,0.1075,37.1600,82,97,264578
1.8328,0.1075,37.2300,82,97,264582
1.8280,0.1124,37.2000,82,97,264585
1.8573,0.1320,37.0600,82,97,264588
1.8377,0.1173,37.1300,82,97,264591
1.8475,0.1124,37.1300,82,97,264595
1.8231,0.1124,37.1600,82,97,264598
1.8280,0.1124,36.6000,82,97,264601
1.8573,0.1515,37.0000,82,97,264605
1.8328,0.1124,37.1300,82,97,264608
1.8622,0.1173,37.0300,82,97,264611
1.8280,0.1173,37.1000,82,97,264615
1.8328,0.1124,37.2000,82,97,264619
1.8573,0.1173,37.0300,82,97,264622
1.8524,0.1124,37.1600,82,97,264626
1.8915,0.1173,36.9300,82,97,264629
1.8719,0.1124,37.1600,82,97,264632
1.8622,0.1417,37.2000,82,97,264636
1.8719,0.1173,37.1300,82,97,264639
1.8573,0.1124,37.1600,82,97,264642
1.9110,0.1515,36.8900,82,97,264645
1.8768,0.1124,37.1300,82,97,264649
1.8817,0.1173,37.1600,82,97,264652
1.8964,0.1124,37.1600,82,97,264655
1.8964,0.1124,37.2000,82,97,264659
1.9697,0.1222,36.9600,82,97,264663
1.9501,0.1222,37.2300,82,97,264666
1.9599,0.1369,37.1000,82,97,264670
1.9648,0.1124,37.1300,82,97,264673
1.9599,0.1173,37.1600,82,97,264676
1.9941,0.1222,37.0000,82,97,264680
1.9599,0.1173,37.2300,82,97,264683
1.9599,0.1124,37.0300,82,97,264686
1.9208,0.1124,37.2600,82,97,264690
1.9062,0.1222,37.2000,82,97,264693
1.9062,0.1222,37.0600,82,97,264696
1.8573,0.1124,37.2000,82,97,264699
1.8671,0.1271,37.0600,82,97,264704
1.8182,0.0929,37.1600,82,97,264707
1.8035,0.1124,37.2000,82,97,264710
1.8035,0.1173,37.1000,82,97,264714
1.7889,0.1124,37.1300,82,97,264717
1.8035,0.1124,37.0000,82,97,264720
1.7693,0.1075,37.2300,82,97,264724
1.7644,0.1124,37.1600,82,97,264727
1.7791,0.1222,37.0600,82,97,264730
1.7595,0.1173,37.1600,82,97,264733
1.7986,0.1173,36.2500,82,97,264737
1.7791,0.1271,37.0600,82,97,264740
1.7693,0.1124,37.1600,82,97,264743
1.7889,0.1320,37.2300,82,97,264748
1.7791,0.0929,37.1600,82,97,264751
1.8280,0.1222,36.8600,82,97,264754
1.8084,0.1222,37.0000,82,97,264758
1.7840,0.1075,37.1600,82,97,264761
1.7889,0.1124,37.1600,82,97,264764
1.7889,0.1075,37.1600,82,97,264768
1.8377,0.1271,37.0000,82,97,264771
1.7693,0.1124,37.1300,82,97,264774
1.7400,0.1173,37.1000,82,97,264777
1.7302,0.1124,37.1600,82,97,264781
1.7302,0.1124,37.1600,82,97,264784
1.8231,0.1124,37.1000,82,97,264787
1.8671,0.1124,37.0000,82,97,264792
2.0088,0.1222,37.0300,82,97,264795
2.1750,0.1124,37.1600,82,97,264798
2.4291,0.1075,37.2600,82,97,264802
2.7566,0.1271,37.0300,82,97,264805
2.9814,0.1124,37.2300,82,97,264808
3.1965,0.1173,37.1000,82,97,264812
3.2111,0.1173,37.1000,82,97,264815
3.1183,0.1124,37.2000,82,97,264818
2.9521,0.1173,37.1000,82,97,264821
2.6491,0.1124,37.1600,82,97,264825
2.3998,0.1124,36.9600,82,97,264828
2.1017,0.1222,37.1000,82,97,264832
1.8964,0.1124,37.1600,82,97,264836
1.7742,0.1173,37.2000,82,97,264839
1.6960,0.1320,37.1600,82,97,264842
1.7107,0.1173,36.9300,82,97,264846
1.6373,0.1124,37.1600,82,97,264849
1.6520,0.0929,37.1600,82,97,264852
1.6178,0.1173,37.1300,82,97,264856
1.6227,0.1173,37.1300,82,97,264859
1.6422,0.1320,36.8300,82,97,264862
1.6080,0.1222,37.0600,82,97,264865
1.6031,0.1075,37.1300,82,97,264869
1.6129,0.1173,37.2300,82,97,264872
1.6178,0.1075,37.1600,82,97,264876
1.6618,0.1222,37.0000,82,97,264880
1.6422,0.1173,37.1300,82,97,264883
1.6471,0.1124,37.0600,82,97,264886
1.6422,0.1124,37.1000,82,97,264890
1.6471,0.1222,37.2300,82,97,264893
1.6764,0.1222,37.0600,82,97,264896
1.6618,0.1173,37.2000,82,97,264900
1.7009,0.1271,37.0300,82,97,264903
1.6911,0.1124,37.2000,82,97,264906
1.7058,0.1124,37.1600,82,97,264909
1.7253,0.1173,37.1000,82,97,264913
1.7253,0.1124,37.1300,82,97,264916
1.7546,0.1662,37.0300,82,97,264920
1.7351,0.1124,37.1600,82,97,264924
1.7498,0.1124,37.1300,82,97,264927
1.7791,0.1124,37.1600,82,97,264930
1.7644,0.1075,37.1600,82,97,264934
1.8182,0.1173,36.9300,82,97,264937
1.7840,0.1173,37.1600,82,97,264940
1.7791,0.1075,37.1600,82,97,264944
1.8035,0.1222,37.1000,82,97,264947
1.7986,0.1124,37.1600,82,97,264950
1.8817,0.1271,36.8900,82,97,264953
1.8719,0.1271,37.0300,82,97,264957
1.8524,0.1173,37.1600,82,97,264962
1.8817,0.1124,37.2000,82,97,264965
1.8719,0.1222,37.1600,82,97,264968
1.8817,0.1124,37.2300,82,97,264971
1.9159,0.1271,37.1300,82,97,264975
1.9013,0.1124,37.1000,82,97,264978
1.9306,0.1222,37.0600,82,97,264981
1.9062,0.1124,37.1600,82,97,264985
1.9159,0.1124,37.0300,82,97,264988
1.9501,0.1173,37.1000,82,97,264991
1.9404,0.1124,37.1300,82,97,264995
1.9746,0.1124,36.9300,82,97,264998
1.9648,0.1173,37.0600,82,97,265001
1.9697,0.1124,37.1600,82,97,265006
1.9990,0.1271,37.0600,82,97,265009
1.9746,0.1124,37.1600,82,97,265012
2.0332,0.1173,37.3300,82,97,265015
2.0039,0.1075,37.1300,82,97,265019
1.9990,0.1173,37.2000,82,97,265022
2.0137,0.1173,37.1600,82,97,265025
2.0088,0.1124,37.1600,82,97,265029
2.0674,0.1173,36.8600,82,97,265032
2.0235,0.1124,37.1600,82,97,265035
2.0235,0.1075,37.1600,82,97,265039
2.0283,0.1222,37.1600,82,97,265042
2.0186,0.1124,37.3000,82,97,265046
2.0772,0.1320,37.0300,82,97,265049
2.0381,0.1271,37.1000,82,97,265053
2.0479,0.1026,37.1000,82,97,265056
2.0235,0.1124,37.2600,82,97,265059
2.0137,0.1075,37.2300,82,97,265063
2.0479,0.1222,37.0000,82,97,265066
2.0186,0.1222,37.2600,82,97,265069
2.0235,0.1173,37.1000,82,97,265073
1.9990,0.1124,37.1300,82,97,265076
1.9697,0.1124,37.1300,82,97,265079
2.0088,0.1173,37.0300,82,97,265082
1.9355,0.1124,37.1300,82,97,265086
1.9453,0.1222,36.2800,82,97,265090
1.9062,0.1173,37.1600,82,97,265093
1.8866,0.1124,37.2600,82,97,265097
1.8915,0.1222,37.1000,82,97,265100
1.8426,0.1173,37.2300,82,97,265103
1.8524,0.1124,37.0000,82,97,265107
1.8133,0.1124,37.1600,82,97,265110
1.7937,0.1124,37.1600,82,97,265113
1.8035,0.1222,37.0600,82,97,265117
1.7742,0.1124,37.2000,82,97,265120
1.8035,0.1222,36.8900,82,97,265123
1.7693,0.1173,37.0600,82,97,265126
1.7498,0.1173,37.1600,82,97,265131
1.7546,0.1417,37.1600,82,97,265134
1.7302,0.1124,37.1600,82,97,265137
1.7840,0.1222,36.9600,82,97,265141
1.7498,0.1173,37.0000,82,97,265144
1.7449,0.1124,37.1300,82,97,265147
1.7546,0.1173,37.1600,82,97,265151
1.7595,0.1173,37.1600,82,97,265154
1.8182,0.1320,37.0000,82,97,265157
1.7791,0.1173,37.1600,82,97,265161
1.7889,0.1124,37.1000,82,97,265164
1.7644,0.1369,37.1600,82,97,265167
1.7644,0.1124,37.2000,82,97,265171
1.7889,0.1222,37.0000,82,97,265175
1.7791,0.1075,37.1300,82,97,265178
1.7986,0.1173,37.0000,82,97,265181
1.7840,0.1417,37.1600,82,97,265185
1.7889,0.1075,37.2000,82,97,265188
1.8231,0.1222,37.0600,82,97,265191
1.7986,0.1222,37.1600,82,97,265195
1.8280,0.1173,37.0300,82,97,265198
1.7986,0.1124,37.1000,82,97,265201
1.7937,0.1124,37.1600,82,97,265205
1.8133,0.1173,37.0000,82,97,265208
1.8084,0.1124,37.1600,82,97,265211
1.8524,0.1173,37.0300,82,97,265214
1.8328,0.1173,37.1000,82,97,265219
1.8328,0.1124,37.2300,82,97,265222
1.8475,0.1417,37.1600,82,97,265225
1.8377,0.1173,37.1600,82,97,265229
1.8768,0.1222,37.3300,82,97,265232
1.8328,0.1124,37.1300,82,97,265235
1.8377,0.1124,37.2600,82,97,265239
1.8426,0.1173,37.1300,82,97,265242
1.8328,0.1124,37.1600,82,97,265245
1.9013,0.1320,36.9600,82,97,265249
1.8622,0.1222,36.9600,82,97,265252
1.8573,0.1173,37.1000,82,97,265255
1.8524,0.1173,37.2300,82,97,265260
1.8475,0.1075,37.2300,82,97,265263
1.8817,0.1173,37.0300,82,97,265266
1.8475,0.1124,37.1300,82,97,265269
1.8573,0.1173,37.0300,82,97,265273
1.8328,0.1124,37.2000,82,97,265276
1.8328,0.1222,37.2300,82,97,265279
1.8573,0.1222,37.1300,82,97,265283
1.8328,0.1515,37.1000,82,97,265286
1.8671,0.1124,37.0600,82,97,265289
1.8328,0.1124,37.1300,82,97,265293
1.8328,0.1173,37.2000,82,97,265296
1.8426,0.1124,37.1000,82,97,265299
1.8377,0.1124,37.2000,82,97,265304
1.8622,0.1173,37.0000,82,97,265307
1.8328,0.1173,37.1600,82,97,265310
1.8377,0.1124,37.1600,82,97,265313
1.8573,0.1222,37.0600,82,97,265317
1.8328,0.1124,36.3500,82,97,265320
1.8719,0.1222,36.8900,82,97,265323
1.8475,0.1173,37.0600,82,97,265327
1.8328,0.1124,37.1300,82,97,265330
1.8573,0.1222,37.1300,82,97,265333
1.8573,0.1124,37.2000,82,97,265337
1.9159,0.1320,36.9600,82,97,265340
1.8817,0.1222,37.0000,82,97,265344
1.8671,0.1222,37.1000,82,97,265348
1.8719,0.1124,37.1600,82,97,265351
1.8719,0.1124,37.1300,82,97,265354
1.9159,0.1173,37.0000,82,97,265358
1.8866,0.1173,37.1300,82,97,265361
1.8964,0.1222,37.0300,82,97,265364
1.8866,0.1124,37.1600,82,97,265367
1.9013,0.1124,37.1600,82,97,265371
1.9404,0.1124,37.1300,82,97,265374
1.9550,0.1124,36.7000,82,97,265377
1.9892,0.1271,37.0600,82,97,265381
1.9550,0.1173,37.2300,82,97,265384
1.9453,0.1124,37.0600,82,97,265388
1.9599,0.1271,37.1000,82,97,265392
1.9110,0.1173,37.2000,82,97,265395
1.9208,0.1466,37.1000,82,97,265398
1.8768,0.1173,37.1000,82,97,265402
1.8524,0.1124,37.2300,82,97,265405
1.8573,0.1173,37.0300,82,97,265408
1.8231,0.1173,37.1600,82,97,265411
1.8573,0.1173,36.9300,82,97,265415
1.8231,0.1173,37.1300,82,97,265418
1.8084,0.1124,37.1600,82,97,265421
1.7986,0.1222,37.1600,82,97,265425
1.7840,0.1173,37.2000,82,97,265428
1.8280,0.1222,36.8900,82,97,265432
1.7742,0.1124,37.1300,82,97,265436
1.7693,0.1124,37.1300,82,97,265439
1.7742,0.1173,37.1300,82,97,265442
1.7546,0.1271,37.1600,82,97,265446
1.7986,0.1124,37.0000,82,97,265449
1.7693,0.1222,37.0600,82,97,265452
1.7644,0.1124,36.5400,82,97,265455
1.7595,0.1173,37.1300,82,97,265459
1.7546,0.1173,37.2000,82,97,265462
1.7889,0.1271,37.0000,82,97,265465
1.7595,0.1222,37.1300,82,97,265469
1.7742,0.1173,37.1000,82,97,265473
1.7693,0.1173,37.2300,82,97,265476
1.7449,0.1124,36.6000,82,97,265480
1.7302,0.1271,37.0600,82,97,265483
1.6764,0.1124,37.1600,82,97,265486
1.6960,0.1173,37.2600,82,97,265490
1.6862,0.1124,37.1600,82,97,265493
1.7400,0.1124,37.2000,82,97,265496
1.8231,0.1173,37.2000,82,97,265499
1.9453,0.1222,37.2300,82,97,265503
2.1799,0.1173,36.9600,82,97,265506
2.3949,0.1173,37.2000,82,97,265509
2.6637,0.1124,37.1600,82,97,265513
2.9277,0.1222,37.1300,82,97,265517
3.0694,0.1173,37.1600,82,97,265520
3.1916,0.1222,36.1900,82,97,265524
3.0352,0.1320,37.0300,82,97,265527
2.8104,0.1124,37.2000,82,97,265530
2.5464,0.1222,37.0300,82,97,265534
2.2532,0.1075,37.1600,82,97,265537
2.1017,0.1320,36.8900,82,97,265540
1.8622,0.1222,37.0300,82,97,265543
1.7302,0.1124,37.1000,82,97,265547
1.6667,0.1124,37.2300,82,97,265550
1.6276,0.1173,37.1300,82,97,265553
1.6422,0.1222,37.0300,82,97,265558
1.5885,0.1173,37.2600,82,97,265561
1.6031,0.1173,37.0300,82,97,265564
1.5591,0.1173,37.1600,82,97,265568
1.5591,0.1124,37.0600,82,97,265571
1.5689,0.1124,37.2000,82,97,265575
1.6080,0.1173,37.0600,82,97,265578
1.5836,0.1173,37.2000,82,97,265581
1.6178,0.1173,36.9300,82,97,265585
1.6129,0.1124,37.0600,82,97,265588
1.6080,0.1124,37.4000,82,97,265591
1.6373,0.1271,37.0600,82,97,265594
1.6227,0.1173,37.1600,82,97,265598
1.6716,0.1271,36.8900,82,97,265602
1.6471,0.1173,37.0600,82,97,265605
1.6471,0.1124,37.6000,82,97,265609
1.6569,0.1173,37.1300,82,97,265612
1.6618,0.1124,37.1600,82,97,265615
1.7155,0.1320,37.0000,82,97,265619
1.6813,0.1124,37.1300,82,97,265622
1.6862,0.1124,37.0600,82,97,265625
1.7204,0.1173,37.1600,82,97,265629
1.7009,0.1124,37.1300,82,97,265632
1.7400,0.1271,37.1000,82,97,265635
1.7302,0.1222,37.1300,82,97,265639
1.7351,0.1173,37.0300,82,97,265643
1.7351,0.1222,37.1600,82,97,265646
1.7449,0.1124,37.2000,82,97,265649
1.7791,0.1222,36.9600,82,97,265653
1.7595,0.1124,37.1600,82,97,265656
1.7889,0.1222,37.1000,82,97,265659
1.7644,0.1173,37.1600,82,97,265663
1.7693,0.1124,37.1600,82,97,265666
1.7889,0.1173,37.1000,82,97,265669
1.7986,0.1222,37.1600,82,97,265673
1.8084,0.1173,37.0000,82,97,265676
1.7937,0.1173,37.1300,82,97,265679
1.7986,0.1124,37.2300,82,97,265683
1.8133,0.1222,37.1300,82,97,265687
1.8328,0.1173,37.1600,82,97,265690
1.8622,0.1222,37.1000,82,97,265693
1.8622,0.1173,37.1300,82,97,265697
1.8426,0.1173,37.1600,82,97,265700
1.8573,0.1271,37.1300,82,97,265703
1.8622,0.1173,37.3600,82,97,265707
1.9355,0.1417,36.8900,82,97,265710
1.8915,0.1222,37.1000,82,97,265713
1.8915,0.1124,37.1600,82,97,265717
1.9013,0.1222,37.1600,82,97,265720
1.9013,0.1173,37.2000,82,97,265723
1.9795,0.1222,36.9600,82,97,265728
1.9404,0.1271,37.2300,82,97,265731
1.9453,0.1662,37.0600,82,97,265734
1.9355,0.1173,37.1600,82,97,265738
1.9404,0.1173,37.3000,82,97,265741
1.9697,0.1271,37.1000,82,97,265744
1.9453,0.1173,37.1600,82,97,265747
1.9746,0.1222,37.1600,82,97,265751
1.9501,0.1173,37.2000,82,97,265754
1.9550,0.1124,37.1600,82,97,265757
1.9599,0.1222,37.0600,82,97,265761
1.9404,0.1222,37.1600,82,97,265764
1.9648,0.1124,37.0300,82,97,265767
1.9208,0.1369,37.1600,82,97,265772
1.9159,0.1173,37.1600,82,97,265775
1.9355,0.1222,37.0600,82,97,265778
1.9110,0.1173,37.1600,82,97,265782
1.9355,0.1222,36.9600,82,97,265785
1.9013,0.1222,37.0600,82,97,265788
1.8622,0.1173,37.1300,82,97,265791
1.8671,0.1417,37.1600,82,97,265795
1.8280,0.1124,37.1600,82,97,265798
1.8475,0.1271,36.9600,82,97,265801
1.8231,0.1173,37.0300,82,97,265805
1.7546,0.1124,37.1600,82,97,265808
1.7302,0.1271,37.1600,82,97,265811
1.7155,0.1173,37.1600,82,97,265816
1.7449,0.1320,37.4000,82,97,265819
1.6813,0.1222,37.2300,82,97,265822
1.6667,0.1173,37.0600,82,97,265826
1.6471,0.1173,37.0600,82,97,265829
1.6276,0.1124,37.2000,82,97,265832
1.6667,0.1271,37.0000,82,97,265835
1.6422,0.1222,37.1300,82,97,265839
1.6569,0.1222,37.0600,82,97,265842
1.6325,0.1173,37.1300,82,97,265845
1.6325,0.1173,37.2000,82,97,265849
1.6618,0.1271,37.2000,82,97,265852
1.6471,0.1173,37.1300,82,97,265856
1.6667,0.1173,37.0600,82,97,265860
1.6422,0.1320,37.1600,82,97,265863
1.6716,0.1173,37.2000,82,97,265866
1.6667,0.1222,37.0000,82,97,265870
1.6520,0.1222,37.2300,82,97,265873
1.6911,0.1222,37.0000,82,97,265876
1.6716,0.1173,37.0300,82,97,265879
1.6716,0.1173,37.1600,82,97,265883
1.6813,0.1222,37.1300,82,97,265886
1.6716,0.1173,37.1600,82,97,265889
1.7204,0.1222,36.9300,82,97,265893
1.6813,0.1271,37.1300,82,97,265896
1.7009,0.1173,37.1600,82,97,265900
1.7155,0.1222,37.1600,82,97,265904
1.7204,0.1173,37.2000,82,97,265907
1.7937,0.1369,37.0000,82,97,265910
1.7840,0.1515,37.1000,82,97,265914
1.7889,0.1124,37.1300,82,97,265917
1.8377,0.1320,37.1600,82,97,265920
1.8768,0.1173,37.1600,82,97,265924
1.9599,0.1271,36.3500,82,97,265927
1.9648,0.1222,37.1000,82,97,265930
2.0283,0.1173,37.1000,82,97,265933
2.0626,0.1173,37.2300,82,97,265937
2.1359,0.1173,37.3000,82,97,265940
2.2483,0.1222,37.1000,82,97,265944
2.3118,0.1173,37.0600,82,97,265948
2.4389,0.1466,37.1000,82,97,265951
2.5220,0.1222,37.2300,82,97,265954
2.6197,0.1173,37.1600,82,97,265958
2.7468,0.1466,37.1000,82,97,265961
2.8348,0.1173,37.2000,82,97,265964
2.9521,0.1173,37.0300,82,97,265967
3.0156,0.1173,37.2300,82,97,265971
3.0841,0.1124,37.1600,82,97,265974
3.2356,0.1222,37.0600,82,97,265977
3.3431,0.1124,37.1600,82,97,265981
3.5924,0.1222,37.0000,82,97,265985
3.7243,0.1271,37.1000,82,97,265988
3.8465,0.1124,37.1600,82,97,265992
3.9785,0.1417,37.1000,82,97,265995
3.9492,0.1222,37.1300,82,97,265998
3.9247,0.1271,36.9600,82,97,266002
3.5630,0.1222,37.0600,82,97,266005
3.1525,0.1173,37.1600,82,97,266008
2.6931,0.1222,37.2300,82,97,266011
2.2336,0.1271,37.1600,82,97,266015
1.8671,0.1320,36.9600,82,97,266018
1.4565,0.1369,37.1600,82,97,266021
1.1877,0.1173,37.0600,82,97,266025
0.9824,0.1222,37.2300,82,97,266029
0.8456,0.1173,37.1600,82,97,266032
0.7820,0.1271,37.0600,82,97,266036
0.7185,0.1222,37.1300,82,97,266039
0.6940,0.1173,37.0000,82,97,266042
0.6745,0.1124,37.2600,82,97,266046
0.6843,0.1173,37.1600,82,97,266049
0.7038,0.1271,37.0300,82,97,266052
0.7185,0.1173,37.1600,82,97,266055
0.7429,0.1271,37.0600,82,97,266059
0.7625,0.1124,37.2600,82,97,266062
0.7967,0.1124,37.1600,82,97,266065
0.8358,0.1222,37.0300,82,97,266070
0.8553,0.1173,37.3600,82,97,266073
0.9091,0.1271,37.0300,82,97,266076
0.9286,0.1173,37.1300,82,97,266080
0.9629,0.1173,37.3000,82,97,266083
0.9922,0.1222,37.1000,82,97,266086
1.0117,0.1222,37.1600,82,97,266089
1.0704,0.1222,36.9300,82,97,266093
1.0704,0.1173,37.1600,82,97,266096
1.1144,0.1271,37.1300,82,97,266099
1.1632,0.1222,37.1000,82,97,266103
1.2121,0.1222,37.1600,82,97,266106
1.2366,0.1271,36.8900,82,97,266109
1.2317,0.1222,37.1600,82,97,266114
1.2414,0.1124,37.1600,82,97,266117
1.2463,0.1271,37.1600,82,97,266120
1.2512,0.1173,37.2300,82,97,266124
1.2903,0.1320,36.9600,82,97,266127
1.2610,0.1222,37.1000,82,97,266130
1.2366,0.1124,37.1300,82,97,266133
1.2366,0.1173,37.1600,82,97,266137
1.2463,0.1173,37.2300,82,97,266140
1.2610,0.1271,37.0600,82,97,266143
1.2463,0.1173,37.1300,82,97,266147
1.2561,0.1222,37.0000,82,97,266150
1.2414,0.1173,37.4000,82,97,266153
1.2414,0.1124,37.1600,82,97,266158
1.2463,0.1222,37.1000,82,97,266161
1.2317,0.1222,37.1600,82,97,266164
1.2512,0.1222,37.0600,82,97,266168
1.2121,0.1320,37.2300,82,97,266171
1.2170,0.1173,37.1600,82,97,266174
1.2268,0.1271,37.0600,83,97,266177
1.2463,0.1222,37.1300,83,97,266181
1.2414,0.1173,37.1000,83,97,266184
1.2854,0.1271,36.8600,83,97,266188
1.2659,0.1222,37.0300,83,97,266191
1.2659,0.1124,37.1000,83,97,266194
1.2757,0.1271,37.2000,83,97,266199
1.2757,0.1222,37.1600,83,97,266202
1.3294,0.1320,36.9600,83,97,266205
1.3148,0.1173,37.1300,83,97,266209
1.3245,0.1173,37.0600,83,97,266212
1.3343,0.1564,37.1600,83,97,266215
1.3490,0.1124,37.1600,83,97,266219
1.4027,0.1271,37.1300,83,97,266222
1.4125,0.1222,37.1300,83,97,266225
1.4565,0.1173,37.0300,83,97,266228
1.4614,0.1173,37.2300,83,97,266232
1.4858,0.1173,37.1600,83,97,266235
1.5494,0.1271,37.0300,83,97,266238
1.5640,0.1222,37.1600,83,97,266243
1.6276,0.1173,37.1000,83,97,266246
1.6422,0.1271,37.1000,83,97,266249
1.6813,0.1124,37.1600,83,97,266253
1.7449,0.1222,37.1000,83,97,266256
1.7791,0.1173,37.1600,83,97,266259
1.8377,0.1222,36.9300,83,97,266263
1.8817,0.1222,37.1300,83,97,266266
1.8817,0.1173,37.1600,83,97,266269
1.9208,0.1466,37.1300,83,97,266273
1.9355,0.1173,37.1600,83,97,266276
2.0039,0.1222,36.8600,83,97,266279
1.9795,0.1173,37.1300,83,97,266283
1.9990,0.1173,37.2300,83,97,266287
2.0137,0.1271,37.1300,83,97,266290
2.0137,0.1173,37.1000,83,97,266293
2.0723,0.1320,36.9600,83,97,266297
2.0283,0.1222,37.1300,83,97,266300
2.0137,0.1173,37.1000,83,97,266303
2.0039,0.1124,37.1600,83,97,266307
2.0137,0.1222,37.1600,83,97,266310
2.0332,0.1271,37.0000,83,97,266313
2.0039,0.1271,37.1000,83,97,266317
2.0039,0.1222,37.0300,83,97,266320
1.9746,0.1222,37.1600,83,97,266323
1.9746,0.1173,37.3600,83,97,266327
1.9941,0.1222,37.0300,83,97,266331
1.9599,0.1222,37.1600,83,97,266334
1.9844,0.1271,37.0600,83,97,266337
1.9501,0.1222,37.2300,83,97,266341
1.9453,0.1173,37.0600,83,97,266344
1.9501,0.1320,37.1000,83,97,266347
1.9599,0.1173,37.2300,83,97,266351
1.9648,0.1173,37.0300,83,97,266354
1.9501,0.1173,37.1600,83,97,266357
1.9208,0.1124,37.1600,83,97,266360
1.9404,0.1222,37.0600,83,97,266364
1.9159,0.1173,37.1600,83,97,266368
1.9501,0.1222,36.9600,83,97,266371
1.9159,0.1320,37.1600,83,97,266375
1.9355,0.1173,37.1600,83,97,266378
1.9159,0.1271,37.1600,83,97,266381
1.9062,0.1173,37.1600,83,97,266385
1.9404,0.1271,36.9600,83,97,266388
1.8964,0.1173,37.0300,83,97,266391
1.8817,0.1124,37.1600,83,97,266395
1.8719,0.1222,37.1600,83,97,266398
1.8622,0.1173,37.2300,83,97,266401
1.9159,0.1320,37.0000,83,97,266404
1.8671,0.1222,37.1600,83,97,266408
1.8817,0.1173,37.0600,83,97,266412
1.8622,0.1222,36.5100,83,97,266415
1.8573,0.1124,37.1600,83,97,266419
1.8817,0.1320,37.0600,83,97,266422
1.8573,0.1124,37.1300,83,97,266425
1.8768,0.1124,37.0300,83,97,266429
1.8524,0.1173,37.2300,83,97,266432
1.8524,0.1173,37.1600,83,97,266435
1.8817,0.1320,37.0300,83,97,266439
1.8573,0.1222,37.2000,83,97,266442
1.8768,0.1173,37.0300,83,97,266445
1.8475,0.1173,37.1000,83,97,266449
1.8475,0.1173,37.2300,83,97,266452
1.8622,0.1222,36.2500,83,97,266456
1.8328,0.1173,37.1600,83,97,266459
1.8622,0.1222,37.0000,83,97,266463
1.8377,0.1222,37.1600,83,97,266466
1.8622,0.1173,37.1600,83,97,266469
1.8426,0.1222,37.1300,83,97,266473
1.8182,0.1222,37.2300,83,97,266476
1.8671,0.1271,36.9600,83,97,266479
1.8182,0.1124,37.1300,83,97,266483
1.8182,0.1173,37.2600,83,97,266486
1.8524,0.1222,37.2000,83,97,266489
1.8182,0.1173,37.2600,83,97,266493
1.8768,0.1369,36.9600,83,97,266497
1.8328,0.1222,37.1000,83,97,266500
1.8280,0.1173,37.0600,83,97,266503
1.8280,0.1222,37.1600,83,97,266507
1.8133,0.1173,37.1600,83,97,266510
1.8524,0.1271,37.0000,83,97,266513
1.8280,0.1222,37.1000,83,97,266517
1.8377,0.1222,37.0600,83,97,266520
1.8377,0.1124,37.1600,83,97,266523
1.8133,0.1173,37.1600,83,97,266527
1.8817,0.1222,37.1000,83,97,266530
1.8182,0.1124,37.1600,83,97,266533
1.8377,0.1271,37.0300,83,97,266537
1.8133,0.1173,37.1600,83,97,266541
1.8084,0.1222,37.3300,83,97,266544
1.8182,0.1320,37.1000,83,97,266548
1.8133,0.1124,37.1600,83,97,266551
1.8426,0.1222,36.9300,83,97,266554
1.8133,0.1222,37.2000,83,97,266557
1.8231,0.1173,37.2000,83,97,266561
1.8328,0.1271,37.2300,83,97,266564
1.8231,0.1222,37.0300,83,97,266567
1.8573,0.1222,36.9600,83,97,266571
1.8328,0.1222,37.1000,83,97,266574
1.8182,0.1173,37.1300,83,97,266577
1.8328,0.1271,37.2000,83,97,266582
1.8182,0.1173,37.0600,83,97,266585
1.8671,0.1369,36.8900,83,97,266588
1.8328,0.1271,36.9300,83,97,266592
1.8133,0.1075,37.2300,83,97,266595
1.8035,0.1222,37.1600,83,97,266598
1.8035,0.1222,37.2300,83,97,266601
1.8475,0.1320,37.0300,83,97,266605
1.8084,0.1124,37.1300,83,97,266608
1.8280,0.1173,37.0600,83,97,266611
1.8084,0.1222,37.2000,83,97,266615
1.8133,0.1124,37.1600,83,97,266618
1.8328,0.1271,37.0000,83,97,266621
1.8084,0.1173,37.2300,83,97,266626
1.8280,0.1271,37.0300,83,97,266629
1.8084,0.1124,37.1600,83,97,266632
1.8084,0.1222,37.2000,83,97,266636
1.8328,0.1320,37.0300,83,97,266639
1.8035,0.1564,37.1600,83,97,266642
1.8475,0.1271,37.0600,83,97,266645
1.8084,0.1173,37.0600,83,97,266649
1.8084,0.1173,37.1600,83,97,266652
1.8280,0.1271,37.0300,83,97,266655
1.8133,0.1222,37.1600,83,97,266659
1.8426,0.1369,36.9300,83,97,266662
1.8182,0.1124,37.1300,83,97,266665
1.8084,0.1173,37.1600,83,97,266670
1.8133,0.1222,37.1300,83,97,266673
1.8084,0.1222,37.2600,83,97,266676
1.8573,0.1222,36.8900,83,97,266680
1.8084,0.1222,37.1000,83,97,266683
1.8133,0.1222,37.1600,83,97,266686
1.8133,0.1222,37.1300,83,97,266689
1.8133,0.1271,37.1600,83,97,266693
1.8622,0.1369,37.0000,83,97,266696
1.8231,0.1271,37.1600,83,97,266699
1.8280,0.1222,37.0600,83,97,266703
1.8084,0.1222,37.1600,83,97,266706
1.8133,0.1173,37.1600,83,97,266710
1.8426,0.1271,37.0000,83,97,266714
1.8231,0.1222,37.1300,83,97,266717
1.8377,0.1222,37.0300,83,97,266720
1.8133,0.1222,37.2600,83,97,266724
1.8231,0.1173,37.1600,83,97,266727
1.8377,0.1271,37.0300,83,97,266730
1.8133,0.1271,37.1600,83,97,266734
1.8426,0.1222,37.0600,83,97,266737
1.8084,0.1173,37.1300,83,97,266740
1.8084,0.1173,37.1600,83,97,266743
1.8231,0.1222,37.1000,83,97,266747
1.8084,0.1222,37.1600,83,97,266750
1.8573,0.1222,36.9600,83,97,266754
1.8084,0.1515,37.2300,83,97,266758
1.8084,0.1222,37.2000,83,97,266761
1.8231,0.1271,37.1300,83,97,266764
1.8377,0.1173,37.1600,83,97,266768
1.8622,0.1271,36.9300,83,97,266771
1.8328,0.1271,37.2300,83,97,266774
1.8133,0.1173,37.1600,83,97,266778
1.8426,0.1222,37.1000,83,97,266781
1.8084,0.1222,37.1600,83,97,266784
1.8671,0.1369,36.9600,83,97,266787
1.8377,0.1369,37.0300,83,97,266792
1.8231,0.1173,37.1600,83,97,266797
1.8524,0.1222,37.2000,83,97,266800
1.8328,0.1222,37.1300,83,97,266803
1.8426,0.1222,37.2000,83,97,266806
1.8573,0.1222,37.1300,83,97,266810
1.8573,0.1222,37.1300,83,97,266813
1.8964,0.1222,37.0600,83,97,266816
1.8719,0.1564,37.1600,83,97,266820
1.9013,0.1222,37.1600,83,97,266823
1.9062,0.1271,37.0600,83,97,266826
1.8866,0.1466,37.1600,83,97,266830
1.9208,0.1222,36.9300,83,97,266833
1.9062,0.1271,37.0600,83,97,266836
1.9062,0.1222,37.1300,83,97,266841
1.9453,0.1271,37.1000,83,97,266844
1.9404,0.1222,37.1600,83,97,266847
1.9990,0.1320,36.8900,83,97,266850
1.9501,0.1222,37.1000,83,97,266854
1.9257,0.1173,37.1600,83,97,266857
1.9159,0.1222,37.1300,83,97,266860
1.8964,0.1222,37.1600,83,97,266864
1.9404,0.1369,36.9600,83,97,266867
1.8719,0.1222,37.2000,83,97,266870
1.8573,0.1320,37.0300,83,97,266874
1.8426,0.1173,37.1600,83,97,266877
1.8280,0.1222,37.2000,83,97,266881
1.8426,0.1124,37.0600,83,97,266885
1.8084,0.1222,37.1600,83,97,266888
1.8084,0.1222,37.1000,83,97,266891
1.7742,0.1222,37.1600,83,97,266894
1.7693,0.1222,37.1600,83,97,266898
1.7937,0.1271,37.1000,83,97,266901
1.7546,0.1222,37.2300,83,97,266904
1.7742,0.1271,37.0600,83,97,266908
1.7400,0.1124,37.1000,83,97,266911
1.7498,0.1222,37.1600,83,97,266914
1.7986,0.1173,37.1000,83,97,266918
1.7546,0.1222,37.1600,83,97,266921
1.7840,0.1222,36.9600,83,97,266925
1.7644,0.1271,37.1000,83,97,266929
1.7595,0.1124,37.1600,83,97,266932
1.7693,0.1271,37.3300,83,97,266935
1.7498,0.1222,37.1600,83,97,266938
1.7693,0.1271,36.9600,83,97,266942
1.6911,0.1271,37.1600,83,97,266945
1.6862,0.1222,37.2000,83,97,266948
1.7058,0.1222,37.4000,83,97,266952
1.7351,0.1173,37.1600,83,97,266955
1.8622,0.1320,36.8900,83,97,266958
1.9257,0.1222,37.1300,83,97,266962
2.0772,0.1173,37.1000,83,97,266966
2.2972,0.1222,37.2000,83,97,266969
2.5415,0.1320,37.1600,83,97,266973
2.8495,0.1320,36.9600,83,97,266976
2.9863,0.1320,37.1600,83,97,266979
3.0596,0.1320,37.0600,83,97,266982
3.0156,0.1271,37.1600,83,97,266986
2.8250,0.1222,37.1600,83,97,266989
2.6246,0.1271,37.0600,83,97,266992
2.3265,0.1124,37.1600,83,97,266996
2.1065,0.1222,37.0300,83,97,266999
1.8915,0.1222,37.2300,83,97,267002
1.7889,0.1222,37.1600,83,97,267006
1.7009,0.1222,36.5100,83,97,267010
1.6422,0.1271,37.1600,83,97,267013
1.6373,0.1222,37.0300,83,97,267016
1.5885,0.1222,37.2000,83,97,267020
1.5787,0.1173,37.1600,83,97,267023
1.5787,0.1271,37.1000,83,97,267026
1.5494,0.1466,37.1600,83,97,267030
1.5738,0.1124,36.9600,83,97,267033
1.5640,0.1222,37.0600,83,97,267036
1.5640,0.1271,37.2300,83,97,267040
1.5934,0.1320,37.0600,83,97,267043
1.5738,0.1222,37.0300,83,97,267046
1.6178,0.1222,36.9300,83,97,267051
1.5885,0.1271,37.1000,83,97,267054
1.5885,0.1222,37.2000,83,97,267057
1.6080,0.1271,37.2300,83,97,267060
1.6178,0.1124,37.1600,83,97,267064
1.6764,0.1417,36.8900,83,97,267067
1.6422,0.1222,37.1300,83,97,267070
1.6373,0.1173,37.0600,83,97,267074
1.6471,0.1222,37.2300,83,97,267077
1.6569,0.1222,37.4300,83,97,267080
1.6960,0.1320,37.0600,83,97,267084
1.6813,0.1271,37.1300,83,97,267087
1.7009,0.1222,37.0000,83,97,267090
1.6911,0.1173,37.1300,83,97,267095
1.6960,0.1124,37.1600,83,97,267098
1.7253,0.1369,37.0000,83,97,267101
1.7058,0.1222,37.2000,83,97,267105
1.7302,0.1271,37.0300,83,97,267108
1.7204,0.1124,37.1300,83,97,267111
1.7253,0.1222,37.1600,83,97,267114
1.7693,0.1222,37.0300,83,97,267118
1.7595,0.1222,37.2000,83,97,267121
1.7889,0.1222,36.9600,83,97,267124
1.7693,0.1222,37.1300,83,97,267128
1.7742,0.1222,37.1300,83,97,267131
1.7937,0.1369,37.2300,83,97,267134
1.7937,0.1222,37.1600,83,97,267139
1.8475,0.1271,36.8900,83,97,267142
1.8084,0.1124,37.1000,83,97,267145
1.8133,0.1222,37.1600,83,97,267149
1.8231,0.1515,37.1000,83,97,267152
1.8231,0.1222,37.1600,83,97,267155
1.8817,0.1320,36.9300,83,97,267158
1.8719,0.1222,37.2300,83,97,267162
1.8426,0.1124,37.1300,83,97,267165
1.8524,0.1222,37.1600,83,97,267168
1.8573,0.1222,37.1600,83,97,267172
1.9110,0.1369,37.0000,83,97,267175
1.8915,0.1271,37.1000,83,97,267179
1.8964,0.1222,37.1600,83,97,267183
1.8817,0.1173,37.1600,83,97,267186
1.8964,0.1222,37.2000,83,97,267189
1.9306,0.1222,37.0300,83,97,267193
1.9159,0.1222,37.2000,83,97,267196
1.9501,0.1222,37.1000,83,97,267199
1.9306,0.1271,37.2000,83,97,267202
1.9404,0.1222,37.1600,83,97,267206
1.9599,0.1222,37.1000,83,97,267209
1.9501,0.1222,37.0600,83,97,267212
1.9795,0.1271,37.0300,83,97,267216
1.9550,0.1222,37.3000,83,97,267219
1.9648,0.1417,37.1000,83,97,267223
1.9892,0.1222,37.0600,83,97,267227
1.9746,0.1222,37.2300,83,97,267230
2.0088,0.1320,36.9300,83,97,267233
1.9941,0.1222,37.0600,83,97,267237
1.9746,0.1222,37.1600,83,97,267240
1.9941,0.1320,37.0600,83,97,267243
1.9795,0.1222,37.1600,83,97,267246
2.0283,0.1271,36.8900,83,97,267250
1.9844,0.1222,37.1000,83,97,267253
1.9795,0.1222,37.1600,83,97,267256
1.9746,0.1271,37.1600,83,97,267260
1.9648,0.1222,37.1600,83,97,267264
2.0088,0.1417,36.9600,83,97,267267
1.9550,0.1271,37.1300,83,97,267271
1.9404,0.1173,37.1300,83,97,267274
1.9208,0.1320,37.1600,83,97,267277
1.9062,0.1222,37.1600,83,97,267281
1.9306,0.1369,37.0300,83,97,267284
1.9110,0.1271,37.1000,83,97,267287
1.8768,0.1124,37.0300,83,97,267290
1.8377,0.1173,37.1600,83,97,267294
1.8182,0.1222,37.1600,83,97,267297
1.8377,0.1320,37.0000,83,97,267300
1.7937,0.1124,37.1300,83,97,267304
1.7986,0.1320,37.0600,83,97,267308
1.7595,0.1173,37.1600,83,97,267311
1.7595,0.1222,37.1600,83,97,267315
1.7644,0.1369,37.1000,83,97,267318
1.7498,0.1124,37.1600,83,97,267321
1.7546,0.1222,36.2500,83,97,267325
1.7400,0.1271,37.1300,83,97,267328
1.7204,0.1222,37.1600,83,97,267331
1.7302,0.1271,37.1300,83,97,267334
1.7204,0.1271,37.1600,83,97,267338
1.7595,0.1271,36.9600,83,97,267341
1.7253,0.1320,37.1300,83,97,267344
1.7302,0.1124,37.1600,83,97,267348
1.7498,0.1320,37.2000,83,97,267352
1.7400,0.1173,37.1600,83,97,267355
1.7937,0.1320,36.9600,83,97,267359
1.7644,0.1271,37.0300,83,97,267362
1.7449,0.1222,37.1300,83,97,267365
1.7546,0.1320,37.1300,83,97,267369
1.7546,0.1222,37.1600,83,97,267372
1.8084,0.1320,37.0300,83,97,267375
1.7791,0.1320,37.1000,83,97,267378
1.7937,0.1173,37.0600,83,97,267382
1.7644,0.1222,37.1300,83,97,267385
1.7644,0.1173,37.1300,83,97,267388
1.7986,0.1320,37.1000,83,97,267393
1.7742,0.1222,37.2000,83,97,267396
1.7986,0.1271,37.0000,83,97,267399
1.7791,0.1222,37.2300,83,97,267403
1.7742,0.1222,37.2000,83,97,267407
1.7889,0.1222,37.1300,83,97,267411
1.8182,0.1369,37.1300,83,97,267414
1.7889,0.1222,37.1600,83,97,267417
1.8280,0.1222,36.9300,83,97,267421
1.8084,0.1271,37.1300,83,97,267424
1.7937,0.1271,37.1600,83,97,267427
1.8035,0.1271,37.0000,83,97,267431
1.7840,0.1222,37.1600,83,97,267435
1.8328,0.1369,36.8600,83,97,267438
1.8084,0.1466,37.0300,83,97,267441
1.7986,0.1222,37.1000,83,97,267445
1.7986,0.1222,37.1600,83,97,267448
1.7986,0.1222,37.0600,83,97,267451
1.8524,0.1760,37.0000,83,97,267455
1.8133,0.1271,37.2000,83,97,267458
1.8182,0.1222,37.0300,83,97,267461
1.7986,0.1271,37.1600,83,97,267465
1.7986,0.1222,37.1600,83,97,267468
1.8280,0.1320,37.1300,83,97,267471
1.8084,0.1271,37.1600,83,97,267475
1.8280,0.1271,37.0300,83,97,267479
1.7986,0.1222,37.1600,83,97,267482
1.7937,0.1271,37.1600,83,97,267485
1.8182,0.1369,37.0300,83,97,267489
1.7840,0.1222,37.1300,83,97,267492
1.8084,0.1222,37.0300,83,97,267495
1.7986,0.1222,37.1000,83,97,267499
1.7986,0.1222,37.1600,83,97,267502
1.8231,0.1124,37.0600,83,97,267505
1.8035,0.1222,37.2600,83,97,267509
1.8426,0.1320,36.9300,83,97,267512
1.8133,0.1271,37.1300,83,97,267515
1.8084,0.1222,37.1600,83,97,267520
1.8280,0.1271,37.1300,83,97,267523
1.8182,0.1222,37.1000,83,97,267526
1.8719,0.1271,36.8900,83,97,267529
1.8377,0.1222,37.1600,83,97,267533
1.8426,0.1173,37.1300,83,97,267536
1.8524,0.1271,37.1300,83,97,267539
1.8719,0.1271,37.1600,83,97,267543
1.9110,0.1369,36.9600,83,97,267546
1.8719,0.1662,37.1000,83,97,267549
1.8671,0.1271,37.0600,83,97,267553
1.8524,0.1271,37.2000,83,97,267556
1.8622,0.1760,37.2000,83,97,267559
1.9453,0.1320,37.0000,83,97,267564
1.9257,0.1271,37.0300,83,97,267567
1.9453,0.1320,37.0300,83,97,267570
1.9257,0.1271,37.1600,83,97,267574
1.9110,0.1222,37.1600,83,97,267577
1.9208,0.1369,37.0600,83,97,267580
1.8768,0.1222,37.1600,83,97,267583
1.8866,0.1222,37.2000,83,97,267587
1.8328,0.1173,37.1600,83,97,267590
1.8182,0.1222,37.1600,83,97,267593
1.8133,0.1466,37.1000,83,97,267597
1.8035,0.1271,37.1600,83,97,267600
1.8133,0.1271,36.9300,83,97,267603
1.7889,0.1222,37.2300,83,97,267608
1.7840,0.1222,37.2000,83,97,267611
1.7840,0.1369,37.1000,83,97,267614
1.7546,0.1222,37.2000,83,97,267618
1.7889,0.1320,36.8600,83,97,267621
1.7498,0.1369,37.0600,83,97,267624
1.7400,0.1124,37.2000,83,97,267627
1.7351,0.1271,37.0600,83,97,267631
1.7204,0.1271,37.1300,83,97,267634
1.7791,0.1417,36.9600,83,97,267637
1.7498,0.1320,37.0300,83,97,267641
1.7546,0.1271,37.1300,83,97,267644
1.7351,0.1271,37.1600,83,97,267648
1.7302,0.1222,37.2000,83,97,267652
1.7742,0.1369,37.0000,83,97,267655
1.7351,0.1271,37.1300,83,97,267658
1.7546,0.1222,37.1000,83,97,267661
1.7498,0.1124,37.1300,83,97,267665
1.7449,0.1417,37.1600,83,97,267668
1.7449,0.1320,37.1000,83,97,267671
1.7009,0.1271,37.2000,83,97,267675
1.6960,0.1320,37.0600,83,97,267678
1.6618,0.1124,37.2000,83,97,267681
1.7155,0.1222,37.1600,83,97,267685
1.7889,0.1320,37.0600,83,97,267688
1.8524,0.1124,37.1600,83,97,267692
2.0088,0.1222,37.0000,83,97,267696
2.1848,0.1222,37.0300,83,97,267699
2.4242,0.1271,37.2000,83,97,267702
2.6979,0.1271,36.9600,83,97,267705
2.8592,0.1222,37.1600,83,97,267709
3.0254,0.1124,37.0000,83,97,267712
2.9521,0.1271,37.3000,83,97,267715
2.8006,0.1369,37.1300,83,97,267719
2.5953,0.1222,37.1300,83,97,267722
2.3265,0.1222,37.2000,83,97,267725
2.1359,0.1320,36.9300,83,97,267729
1.9013,0.1173,37.1300,83,97,267732
1.7791,0.1271,37.2000,83,97,267736
1.7155,0.1222,37.1000,83,97,267740
1.6569,0.1222,37.1300,83,97,267743
1.6764,0.1466,36.9600,83,97,267746
1.6129,0.1124,37.1000,83,97,267749
1.5934,0.1222,37.1000,83,97,267753
1.5738,0.1222,37.1600,83,97,267756
1.5738,0.1222,37.2300,83,97,267759
1.6129,0.1222,37.0000,83,97,267763
1.5787,0.1271,37.1000,83,97,267766
1.5934,0.1369,37.0300,83,97,267769
1.5787,0.1222,37.1600,83,97,267773
1.5836,0.1222,37.1300,83,97,267777
1.6129,0.1320,37.1000,83,97,267780
1.6031,0.1222,37.2000,83,97,267784
1.6422,0.1222,37.1000,83,97,267787
1.6227,0.1271,37.1600,83,97,267790
1.6227,0.1222,37.1300,83,97,267793
1.6373,0.1222,37.1000,83,97,267797
1.6325,0.1222,37.2300,83,97,267800
1.6667,0.1271,36.9600,83,97,267803
1.6520,0.1222,37.2300,83,97,267807
1.6618,0.1173,37.1600,83,97,267810
1.6862,0.1320,37.1000,83,97,267813
1.6764,0.1320,37.1600,83,97,267817
1.7204,0.1369,36.8900,83,97,267821
1.7009,0.1271,37.0600,83,97,267824
1.6911,0.1222,37.1600,83,97,267828
1.7058,0.1124,37.1000,83,97,267831
1.6960,0.1222,37.2600,83,97,267834
1.7546,0.1417,36.8600,83,97,267837
1.7253,0.1124,37.0300,83,97,267841
1.7253,0.1173,37.3300,83,97,267844
1.7449,0.1271,37.1600,83,97,267847
1.7351,0.1222,37.2600,83,97,267851
1.7791,0.1369,37.0000,83,97,267854
1.7449,0.1271,37.2000,83,97,267857
1.7546,0.1222,37.1300,83,97,267862
1.7742,0.1222,37.1600,83,97,267865
1.7595,0.1222,37.2000,83,97,267868
1.8280,0.1320,37.1000,83,97,267872
1.7889,0.1271,37.1300,83,97,267875
1.8182,0.1320,37.0000,83,97,267878
1.7986,0.1222,37.1600,83,97,267882
1.8035,0.1222,37.1600,83,97,267885
1.8426,0.1466,37.0300,83,97,267888
1.8280,0.1271,37.1300,83,97,267891
1.8524,0.1222,37.0000,83,97,267895
1.8377,0.1271,37.0600,83,97,267898
1.8426,0.1222,37.1300,83,97,267901
1.8719,0.1320,36.9600,83,97,267906
1.8671,0.1271,37.1600,83,97,267909
1.9159,0.1271,36.8900,83,97,267912
1.8964,0.1222,37.1300,83,97,267916
1.8866,0.1222,37.1600,83,97,267919
1.9013,0.1173,37.2300,83,97,267922
1.9013,0.1271,37.2000,83,97,267926
1.9648,0.1320,36.8600,83,97,267929
1.9257,0.1124,37.1000,83,97,267932
1.9306,0.1173,37.2600,83,97,267935
1.9404,0.1222,37.1300,83,97,267939
1.9453,0.1222,37.2000,83,97,267942
2.0039,0.1369,37.0000,83,97,267945
1.9795,0.1320,37.1300,83,97,267950
1.9795,0.1222,37.1000,83,97,267953
1.9697,0.1222,37.1300,83,97,267956
1.9746,0.1222,37.1600,83,97,267960
2.0088,0.1320,37.0600,83,97,267963
1.9844,0.1271,37.1300,83,97,267966
1.9844,0.1271,37.0600,83,97,267970
1.9550,0.1320,37.1300,83,97,267973
1.9550,0.1222,37.1600,83,97,267976
1.9795,0.1320,37.1600,83,97,267979
1.9453,0.1466,37.1300,83,97,267983
1.9550,0.1271,37.0600,83,97,267986
1.9110,0.1222,37.2000,83,97,267990
1.8964,0.1271,37.1600,83,97,267994
1.8768,0.1271,37.1000,83,97,267997
1.8475,0.1271,37.1600,83,97,268000
1.8524,0.1320,37.0000,83,97,268004
1.8035,0.1271,37.1600,83,97,268007
1.7840,0.1222,37.2000,83,97,268010
1.7840,0.1369,37.0600,83,97,268014
1.7107,0.1320,37.1300,83,97,268018
1.6862,0.1222,37.1600,83,97,268022
1.7351,0.1417,37.0300,83,97,268025
1.7107,0.1320,37.0600,83,97,268028
1.6960,0.1222,37.1000,83,97,268032
1.6862,0.1271,37.1300,83,97,268036
1.6911,0.1271,37.1600,83,97,268039
1.7155,0.1369,36.9600,83,97,268042
1.6911,0.1271,37.1600,83,97,268046
1.7107,0.1271,37.1300,83,97,268049
1.6862,0.1222,37.1600,83,97,268052
1.6862,0.1271,37.0600,83,97,268056
1.7009,0.1271,37.1000,83,97,268059
1.7253,0.1222,37.2300,83,97,268062
1.7204,0.1271,37.0600,83,97,268066
1.7009,0.1173,37.1600,83,97,268069
1.7204,0.1222,37.1600,83,97,268072
1.7498,0.1320,37.0300,83,97,268076
1.7302,0.1271,37.1300,83,97,268080
1.7595,0.1271,36.9600,83,97,268083
1.7351,0.1271,37.0000,83,97,268086
1.7302,0.1124,37.2300,83,97,268090
1.7546,0.1320,37.1000,83,97,268093
1.7351,0.1173,37.1600,83,97,268096
1.7889,0.1320,36.9600,83,97,268100
1.7546,0.1320,37.0600,83,97,268103
1.7546,0.1222,37.2300,83,97,268106
1.7546,0.1271,37.1300,83,97,268110
1.7449,0.1320,37.1600,83,97,268113
1.8084,0.1369,36.9300,83,97,268116
1.7498,0.1271,37.1300,83,97,268120
1.7449,0.1222,37.1300,83,97,268124
1.7498,0.1271,37.2000,83,97,268127
1.7595,0.1222,37.2300,83,97,268130
1.7937,0.1369,37.0300,83,97,268134
1.7693,0.1369,37.1000,83,97,268137
1.7840,0.1320,37.1000,83,97,268140
1.7693,0.1271,37.2300,83,97,268144
1.7742,0.1271,37.2300,83,97,268147
1.8133,0.1320,36.9600,83,97,268150
1.7937,0.1320,37.1300,83,97,268154
1.8133,0.1369,37.1000,83,97,268157
1.7840,0.1222,37.1300,83,97,268161
1.7840,0.1271,37.1600,83,97,268165
1.8084,0.1271,37.4700,83,97,268168
1.8035,0.1466,37.1600,83,97,268171
1.8231,0.1124,37.0000,83,97,268174
1.7937,0.1271,37.1600,83,97,268178
1.7889,0.1222,37.1600,83,97,268181
1.7937,0.1515,37.1600,83,97,268184
1.7889,0.1271,37.1600,83,97,268188
1.8231,0.1320,37.0000,83,97,268191
1.7791,0.1222,37.1600,83,97,268194
1.7889,0.1222,37.1600,83,97,268198
1.7986,0.1271,37.1300,83,97,268201
1.7840,0.1271,37.2300,83,97,268205
1.8377,0.1613,36.8900,83,97,268209
1.8035,0.1271,37.0600,83,97,268212
1.7889,0.1222,37.1300,83,97,268215
1.7889,0.1320,37.1300,83,97,268219
1.7791,0.1222,37.2300,83,97,268222
1.8231,0.1369,36.9600,83,97,268225
1.7937,0.1320,37.1000,83,97,268228
1.8035,0.1271,37.0600,83,97,268232
1.8280,0.1320,37.1600,83,97,268235
1.8084,0.1271,37.1600,83,97,268238
1.8426,0.1320,37.0000,83,97,268242
1.8231,0.1222,37.1300,83,97,268246
1.8524,0.1271,37.0000,83,97,268249
1.8328,0.1222,37.0600,83,97,268253
1.8280,0.1124,37.1600,83,97,268256
1.8573,0.1271,37.1600,83,97,268259
1.8426,0.1173,37.1600,83,97,268262
1.8768,0.1124,37.0300,83,97,268266
1.8377,0.1515,37.1600,83,97,268269
1.8573,0.1222,37.1600,83,97,268272
1.9062,0.1320,37.1600,83,97,268276
1.9110,0.1222,37.1600,83,97,268279
1.9599,0.1320,36.9300,83,97,268282
1.9404,0.1515,37.1000,83,97,268286
1.9208,0.1271,37.1600,83,97,268290
1.9257,0.1271,37.1000,83,97,268293
1.9110,0.1222,37.1600,83,97,268297
1.9257,0.1320,36.9600,83,97,268300
1.8671,0.1271,37.0300,83,97,268303
1.8426,0.1124,37.1600,83,97,268307
1.8328,0.1320,37.1600,83,97,268310
1.8182,0.1320,37.1600,83,97,268313
1.8524,0.1417,37.0000,83,97,268316
1.7889,0.1369,37.1300,83,97,268320
1.7889,0.1124,37.1000,83,97,268323
1.7644,0.1271,37.3600,83,97,268326
1.7693,0.1222,37.1600,83,97,268331
1.7791,0.1320,37.0600,83,97,268334
1.7498,0.1320,37.1300,83,97,268337
1.7595,0.1124,37.0300,83,97,268341
1.7302,0.1417,37.2000,83,97,268344
1.7302,0.1222,37.1600,83,97,268347
1.7595,0.1369,37.0000,83,97,268351
1.7351,0.1271,37.1600,83,97,268354
1.7644,0.1271,37.1000,83,97,268357
1.7302,0.1222,37.2600,83,97,268360
1.7351,0.1271,37.1600,83,97,268364
1.7546,0.1271,37.0300,83,97,268367
1.7449,0.1320,37.1600,83,97,268370
1.7693,0.1271,36.9300,83,97,268375
1.7546,0.1222,37.1000,83,97,268378
1.7498,0.1369,37.1600,83,97,268381
1.7498,0.1124,36.8900,83,97,268385
1.7058,0.1222,37.0300,83,97,268388
1.7204,0.1320,36.9300,83,97,268391
1.6813,0.1222,37.2000,83,97,268395
1.7155,0.1564,37.3000,83,97,268398
1.7742,0.1271,37.1300,83,97,268401
1.8524,0.1320,37.1600,83,97,268404
2.0626,0.1417,36.9300,83,97,268408
2.2434,0.1320,37.2000,83,97,268411
2.5024,0.1222,37.1300,83,97,268414
2.7810,0.1320,37.1300,83,97,268419
3.0010,0.1222,37.2600,83,97,268422
3.1916,0.1417,36.9600,83,97,268425
3.1329,0.1320,37.1000,83,97,268429
2.9765,0.1271,37.0600,83,97,268432
2.7224,0.1271,37.2000,83,97,268435
2.4438,0.1271,37.1600,83,97,268439
2.1994,0.1320,37.0300,83,97,268442
1.9453,0.1271,37.1300,83,97,268445
1.8133,0.1320,37.0000,83,97,268448
1.7009,0.1271,37.1600,83,97,268452
1.6520,0.1271,37.1600,83,97,268455
1.6325,0.1369,37.1600,83,97,268459
1.6031,0.1271,37.1300,83,97,268463
1.6422,0.1271,37.0300,83,97,268466
1.5738,0.1222,37.2600,83,97,268469
1.5689,0.1320,37.2300,83,97,268473
1.5885,0.1320,37.0300,83,97,268476
1.5689,0.1271,37.1000,83,97,268479
1.5934,0.1320,36.9300,83,97,268483
1.5787,0.1271,37.2600,83,97,268486
1.5787,0.1222,37.2000,83,97,268489
1.6080,0.1320,37.1000,83,97,268492
1.5934,0.1222,37.1600,83,97,268496
1.6422,0.1320,36.8900,83,97,268499
1.6178,0.1271,37.0300,83,97,268503
1.6178,0.1222,37.3000,83,97,268507
1.6325,0.1320,37.1300,83,97,268510
1.6373,0.1271,37.1600,83,97,268513
1.6960,0.1417,36.9600,83,97,268517
1.6618,0.1271,37.1300,83,97,268520
1.6716,0.1222,37.1000,83,97,268523
1.6764,0.1271,37.1300,83,97,268527
1.6764,0.1515,37.2000,83,97,268530
1.7400,0.1369,37.0600,83,97,268533
1.7058,0.1271,37.1600,83,97,268536
1.7253,0.1271,37.1000,83,97,268540
1.7155,0.1271,37.1600,83,97,268544
1.7351,0.1222,37.1600,83,97,268547
1.7742,0.1271,37.0600,83,97,268551
1.7546,0.1271,37.1300,83,97,268554
1.7889,0.1417,37.0300,83,97,268557
1.7889,0.1271,37.1000,83,97,268561
1.7693,0.1222,37.1600,83,97,268564
1.8133,0.1320,37.0300,83,97,268567
1.7693,0.1124,37.1600,83,97,268571
1.8084,0.1222,37.0600,83,97,268574
1.7937,0.1320,37.1000,83,97,268577
1.7986,0.1222,37.1600,83,97,268580
1.8133,0.1320,37.2000,83,97,268584
1.8133,0.1369,37.1300,83,97,268588
1.8622,0.1320,36.9600,83,97,268591
1.8231,0.1271,37.1300,83,97,268595
1.8328,0.1222,37.1600,83,97,268598
1.8426,0.1515,37.1000,83,97,268601
1.8426,0.1222,37.1300,83,97,268605
1.9062,0.1417,36.9600,83,97,268608
1.8768,0.1320,37.1000,83,97,268611
1.8817,0.1222,37.1300,83,97,268615
1.8964,0.1320,37.2300,83,97,268618
1.9062,0.1222,37.1600,83,97,268621
1.9648,0.1320,37.0000,83,97,268624
1.9795,0.1320,37.0600,83,97,268630
1.9599,0.1320,37.1600,83,97,268634
2.0088,0.1271,37.0600,83,97,268637
1.9795,0.1173,37.1300,83,97,268640
1.9941,0.1271,37.1300,83,97,268643
2.0186,0.1271,37.1000,83,97,268647
2.0137,0.1271,37.1600,83,97,268650
2.0430,0.1271,36.9600,83,97,268653
2.0088,0.1124,37.1600,83,97,268657
2.0137,0.1222,37.1600,83,97,268660
2.0332,0.1369,37.0600,83,97,268663
2.0137,0.1222,37.1600,83,97,268667
2.0626,0.1320,36.9300,83,97,268670
2.0283,0.1320,37.1000,83,97,268674
2.0039,0.1222,37.2000,83,97,268677
2.0137,0.1320,37.1000,83,97,268681
1.9844,0.1271,37.1300,83,97,268684
2.0430,0.1320,36.8900,83,97,268687
1.9599,0.1271,37.3300,83,97,268691
1.9257,0.1369,37.0600,83,97,268694
1.9159,0.1271,37.1600,83,97,268697
1.8915,0.1271,37.0300,83,97,268701
1.9306,0.1369,37.0000,83,97,268704
1.8671,0.1124,37.1300,83,97,268707
1.8573,0.1222,37.0600,83,97,268711
1.8231,0.1271,37.1600,83,97,268715
1.7986,0.1271,37.2000,83,97,268718
1.8035,0.1369,37.1000,83,97,268721
1.7693,0.1271,37.1600,83,97,268725
1.7693,0.1271,37.0300,83,97,268728
1.7253,0.1271,37.1300,83,97,268731
1.7302,0.1222,37.1000,83,97,268735
1.7595,0.1417,37.0600,83,97,268738
1.7302,0.1271,37.2300,83,97,268741
1.7449,0.1466,37.1000,83,97,268745
1.7155,0.1222,37.1000,83,97,268748
1.7204,0.1222,37.4000,83,97,268751
1.7449,0.1320,37.0000,83,97,268755
1.7253,0.1271,37.1600,83,97,268759
1.7595,0.1662,36.9300,83,97,268762
1.7351,0.1320,37.1300,83,97,268765
1.7253,0.1271,37.3300,83,97,268769
1.7204,0.1222,37.1300,83,97,268772
1.7253,0.1222,37.1600,83,97,268775
1.7791,0.1564,36.8600,83,97,268779
1.7449,0.1271,37.1300,83,97,268782
1.7449,0.1417,37.1600,83,97,268785
1.7449,0.1124,37.1300,83,97,268789
1.7400,0.1271,37.1300,83,97,268792
1.8035,0.1417,36.9600,83,97,268795
1.7644,0.1320,37.2000,83,97,268800
1.7595,0.1222,37.1300,83,97,268803
1.7644,0.1271,37.1300,83,97,268806
1.7693,0.1271,37.1300,83,97,268810
1.8084,0.1369,37.0000,83,97,268813
1.7840,0.1320,37.2000,83,97,268816
1.7937,0.1369,37.0300,83,97,268819
1.7693,0.1222,37.2000,83,97,268823
1.7889,0.1271,37.1600,83,97,268826
1.8182,0.1369,37.0600,83,97,268829
1.7986,0.1222,37.1600,83,97,268833
1.8328,0.1320,37.0600,83,97,268836
1.8084,0.1271,37.1300,83,97,268839
1.8133,0.1271,37.1600,83,97,268844
1.8231,0.1271,37.1600,83,97,268847
1.8182,0.1369,37.2300,83,97,268850
1.8475,0.1271,37.0000,83,97,268853
1.8231,0.1271,37.1600,83,97,268857
1.8426,0.1222,37.1600,83,97,268860
1.8475,0.1369,37.3300,83,97,268863
1.8280,0.1222,37.1600,83,97,268867
1.8719,0.1320,36.9300,83,97,268870
1.8426,0.1320,37.0300,83,97,268873
1.8280,0.1222,37.1600,83,97,268877
1.8573,0.1320,37.1300,83,97,268880
1.8377,0.1417,37.1300,83,97,268883
1.8915,0.1417,36.9600,83,97,268888
1.8524,0.1271,37.1000,83,97,268891
1.8377,0.1222,37.1300,83,97,268894
1.8426,0.1271,37.0600,83,97,268898
1.8328,0.1173,37.1600,83,97,268901
1.8768,0.1417,37.0000,83,97,268904
1.8377,0.1271,37.1300,83,97,268907
1.8622,0.1222,37.0600,83,97,268911
1.8280,0.1271,37.2000,83,97,268914
1.8231,0.1271,37.1300,83,97,268917
1.8475,0.1320,37.1000,83,97,268921
1.8328,0.1271,37.1300,83,97,268924
1.8573,0.1515,37.0000,83,97,268928
1.8328,0.1271,37.1600,83,97,268932
1.8328,0.1320,37.2000,83,97,268935
1.8573,0.1320,37.0300,83,97,268938
1.8280,0.1271,37.0600,83,97,268942
1.8475,0.1320,37.0600,83,97,268945
1.8182,0.1271,37.1000,83,97,268948
1.8280,0.1222,37.1600,83,97,268951
1.8524,0.1613,36.9600,83,97,268955
1.8475,0.1222,37.1600,83,97,268958
1.8817,0.1271,37.0000,83,97,268961
1.8573,0.1320,37.1300,83,97,268965
1.8622,0.1271,37.1600,83,97,268968
1.8719,0.1320,37.1000,83,97,268972
1.8768,0.1124,37.1600,83,97,268976
1.9257,0.1320,36.9300,83,97,268979
1.8817,0.1271,37.1000,83,97,268982
1.8866,0.1271,37.1600,83,97,268985
1.8915,0.1320,37.1600,83,97,268989
1.9404,0.1320,37.2000,83,97,268992
1.9990,0.1466,36.9300,83,97,268995
1.9795,0.1320,36.7300,83,97,268999
1.9795,0.1271,37.1000,83,97,269002
1.9746,0.1271,37.1000,83,97,269005
1.9550,0.1417,37.1300,83,97,269009
1.9795,0.1369,36.9600,83,97,269012
1.9355,0.1320,37.1000,83,97,269016
1.9208,0.1369,37.1000,83,97,269020
1.8817,0.1271,37.1600,83,97,269023
1.8622,0.1271,37.1600,83,97,269026
1.8768,0.1369,37.0300,83,97,269029
1.8328,0.1271,37.2300,83,97,269033
1.8475,0.1369,37.1000,83,97,269036
1.8084,0.1271,37.1600,83,97,269039
1.7986,0.1271,37.2000,83,97,269043
1.7937,0.1222,37.1000,83,97,269046
1.7644,0.1271,37.1300,83,97,269049
1.7889,0.1271,36.9300,83,97,269053
1.7644,0.1271,37.2000,83,97,269057
1.7644,0.1271,36.9600,83,97,269060
1.7840,0.1417,37.0300,83,97,269064
1.7644,0.1271,37.2300,83,97,269067
1.7986,0.1320,36.8900,83,97,269070
1.7791,0.1320,37.2300,83,97,269073
1.7595,0.1222,37.1600,83,97,269077
1.7889,0.1369,37.2300,83,97,269080
1.7693,0.1124,37.1600,83,97,269083
1.8280,0.1369,36.8600,83,97,269087
1.7986,0.1271,37.0600,83,97,269090
1.7840,0.1222,37.1300,83,97,269093
1.7791,0.1173,37.1000,83,97,269097
1.7693,0.1271,37.1600,83,97,269101
1.7840,0.1417,37.2600,83,97,269104
1.7253,0.1271,37.1300,83,97,269108
1.7009,0.1271,37.1300,83,97,269111
1.7058,0.1417,37.1300,83,97,269114
1.7595,0.1271,37.1600,83,97,269117
1.8622,0.1369,37.1600,83,97,269121
1.9648,0.1417,37.2300,83,97,269124
2.1799,0.1271,37.0300,83,97,269127
2.4242,0.1320,37.1300,83,97,269131
2.6784,0.1271,37.2000,83,97,269134
2.9570,0.1369,37.0000,83,97,269137
3.0841,0.1124,37.1600,83,97,269142
3.1574,0.1271,37.0300,83,97,269145
3.0156,0.1515,37.0600,83,97,269148
2.8397,0.1271,37.1600,83,97,269152
2.5709,0.1320,37.1300,83,97,269155
