ecg,gsr,temp,hr,spo2,timest
1.7253,0.2639,39.5100,71,96,12352
1.7058,0.2542,39.5100,71,96,12355
1.7595,0.2688,39.3800,71,96,12358
1.7400,0.2542,39.4400,71,96,12362
1.7644,0.2493,39.5100,71,96,12365
1.7498,0.2590,39.5400,71,96,12368
1.7302,0.2493,39.5400,71,96,12371
1.7742,0.2688,39.4400,71,96,12376
1.7351,0.2542,39.4400,71,96,12379
1.7644,0.2346,39.5100,71,96,12382
1.7644,0.2590,39.5400,71,96,12385
1.7742,0.2542,39.6000,71,96,12389
1.8084,0.2688,39.2800,71,96,12392
1.7400,0.2542,39.4800,71,96,12395
1.7449,0.2444,39.5400,71,96,12398
1.7693,0.2542,39.5400,71,96,12402
1.7742,0.2542,39.5700,71,96,12405
1.8622,0.2737,39.2800,71,96,12408
1.7791,0.2542,39.4400,71,96,12411
1.7693,0.2444,39.5400,71,96,12416
1.7693,0.2542,39.5400,71,96,12419
1.7742,0.2297,39.5700,71,96,12422
1.8475,0.2786,39.2800,71,96,12425
1.8035,0.2590,39.6400,71,96,12429
1.7791,0.2542,39.5400,71,96,12432
1.7644,0.2542,39.5400,71,96,12435
1.7644,0.2444,39.5700,71,96,12438
1.8280,0.2688,39.2800,71,96,12442
1.7840,0.2542,39.9300,71,96,12445
1.7986,0.2493,39.5400,71,96,12448
1.7742,0.2493,39.4800,71,96,12451
1.7498,0.2639,39.5400,71,96,12455
1.8035,0.2639,39.2500,71,96,12459
1.7840,0.2542,39.2500,71,96,12462
1.8084,0.2493,39.5700,71,96,12465
1.8084,0.2639,39.5100,71,96,12469
1.7889,0.2542,39.5400,71,96,12472
1.8280,0.2639,39.1900,71,96,12475
1.7840,0.2297,39.4800,71,96,12478
1.7986,0.2542,39.5400,71,96,12482
1.8280,0.2542,39.5400,71,96,12485
1.8231,0.2542,39.5400,71,96,12488
1.8573,0.2639,39.2500,71,96,12491
1.7840,0.2493,39.5100,71,96,12495
1.8035,0.2444,39.5700,71,96,12498
1.8084,0.2639,39.5100,71,96,12502
1.8133,0.2542,39.5700,71,96,12505
1.8719,0.2688,39.2500,71,96,12509
1.8182,0.2542,39.4800,71,96,12512
1.8133,0.2493,39.5400,71,96,12515
1.8231,0.2542,39.5100,71,96,12518
1.8328,0.2542,39.5400,71,96,12522
1.9159,0.2688,39.2200,71,96,12525
1.8817,0.2590,39.4800,71,96,12528
1.8915,0.2493,39.5400,71,96,12532
1.8671,0.2542,39.5400,71,96,12535
1.8671,0.2542,39.5700,71,96,12538
1.9404,0.2737,39.2800,71,96,12541
1.9062,0.2542,39.5100,71,96,12546
1.9257,0.2493,39.5700,71,96,12549
1.9208,0.2590,39.5100,71,96,12552
1.9013,0.2542,39.5700,71,96,12555
1.9599,0.2590,39.4100,71,96,12559
1.9257,0.2542,39.4800,71,96,12562
1.9355,0.2493,39.5700,71,96,12565
1.9208,0.2590,39.5400,71,96,12568
1.8817,0.2542,39.5700,71,96,12572
1.9062,0.2639,39.2500,71,96,12575
1.8377,0.2542,39.4800,71,96,12578
1.8231,0.2493,39.5700,71,96,12581
1.8328,0.2590,39.5700,71,96,12585
1.8231,0.2639,39.5700,71,96,12589
1.8524,0.2639,39.2800,71,96,12592
1.7742,0.2590,39.5100,71,96,12595
1.7742,0.2444,39.5400,71,96,12599
1.7693,0.2493,39.5400,71,96,12602
1.7693,0.2542,39.5400,71,96,12605
1.8133,0.2688,39.2800,71,96,12608
1.7498,0.2542,39.4100,71,96,12612
1.7351,0.2444,39.5400,71,96,12615
1.7302,0.2542,39.5400,71,96,12618
1.7400,0.2493,39.5700,71,96,12621
1.7937,0.2737,39.3200,71,96,12625
1.7155,0.2639,39.4800,71,96,12628
1.6520,0.2493,39.6000,71,96,12632
1.5738,0.2493,39.5400,71,96,12635
1.5347,0.2493,39.5700,71,96,12639
1.6325,0.2590,39.2800,71,96,12642
1.7449,0.2590,39.5700,71,96,12645
2.0088,0.2493,39.6400,71,96,12648
2.3754,0.2590,39.4400,71,96,12652
2.7517,0.2493,39.5400,71,96,12655
3.2405,0.2590,39.2500,71,96,12658
3.5435,0.2542,39.4800,71,96,12661
3.7928,0.2542,39.5700,71,96,12665
3.8172,0.2590,39.5400,71,96,12668
3.5679,0.2786,39.5400,71,96,12672
3.2356,0.2639,39.2800,71,96,12675
2.6491,0.2493,39.5100,71,96,12679
2.1701,0.2542,39.5400,71,96,12682
1.8084,0.2542,39.5100,71,96,12685
1.5689,0.2542,39.5100,71,96,12688
1.4858,0.2639,39.2500,71,96,12692
1.3832,0.2493,39.5100,71,96,12695
1.4027,0.2395,39.5700,71,96,12698
1.4418,0.2590,39.5100,71,96,12701
1.4858,0.2542,39.5700,71,96,12705
1.5934,0.2688,39.2500,71,96,12708
1.5591,0.2542,39.4800,71,96,12711
1.5591,0.2444,39.5400,71,96,12715
1.5689,0.2493,39.4100,71,96,12719
1.5934,0.2493,39.6000,71,96,12722
1.6667,0.2688,39.2800,71,96,12725
1.6373,0.2493,39.4800,71,96,12728
1.6276,0.2590,39.5400,71,96,12732
1.6276,0.2542,39.5100,71,96,12735
1.6373,0.2444,39.5400,71,96,12738
1.7204,0.2493,39.2500,71,96,12741
1.7107,0.2542,39.5100,71,96,12745
1.7155,0.2493,39.5400,71,96,12748
1.7155,0.2590,39.4800,71,96,12751
1.6960,0.2297,39.5100,71,96,12754
1.7644,0.2639,39.2500,71,96,12759
1.7449,0.2590,39.4800,71,96,12762
1.7791,0.2542,39.4800,71,96,12765
1.7889,0.2590,39.5700,71,96,12768
1.7840,0.2493,39.5700,71,96,12772
1.8280,0.2590,39.2500,71,96,12775
1.7937,0.2542,39.6700,71,96,12778
1.8035,0.2493,39.5700,71,96,12781
1.8377,0.2590,39.5400,71,96,12785
1.8524,0.2542,39.5400,71,96,12788
1.9013,0.2639,39.2800,71,96,12791
1.8377,0.2493,39.5100,71,96,12794
1.8573,0.2297,39.5700,71,96,12798
1.8964,0.2493,39.5100,71,96,12802
1.9013,0.2590,39.5100,71,96,12805
1.9697,0.2639,39.2800,71,96,12808
1.9159,0.2493,39.4800,71,96,12812
1.9257,0.2493,39.5700,71,96,12815
1.9306,0.2542,39.5100,71,96,12818
1.9501,0.2590,39.6400,71,96,12821
2.0381,0.2639,39.2800,71,96,12825
2.0381,0.2590,39.4400,71,96,12828
2.0039,0.2493,39.5700,71,96,12831
2.0088,0.2542,39.5100,71,96,12834
2.0088,0.2395,39.5700,71,96,12838
2.0968,0.2590,39.3200,71,96,12841
2.1554,0.2639,39.3800,71,96,12847
2.1505,0.2590,39.4100,71,96,12850
2.1799,0.2493,39.5100,71,96,12853
2.2190,0.2542,39.5700,71,96,12856
2.1848,0.2737,39.5400,71,96,12860
2.2630,0.2688,39.3500,71,96,12863
2.2287,0.2493,39.5100,71,96,12866
2.2678,0.2493,39.5700,71,96,12869
2.3118,0.2639,39.5700,71,96,12873
2.3412,0.2542,39.5700,71,96,12876
2.4291,0.2688,39.3500,71,96,12879
2.3754,0.2542,39.5100,71,96,12882
2.3998,0.2444,39.5400,71,96,12887
2.4389,0.2542,39.5100,71,96,12890
2.4682,0.2542,39.6000,71,96,12893
2.5660,0.2786,39.3200,71,96,12896
2.4976,0.2493,39.4400,71,96,12900
2.4878,0.2688,39.5400,71,96,12903
2.4829,0.2493,39.6400,71,96,12906
2.4878,0.2493,39.5400,71,96,12909
2.5562,0.2688,39.3200,71,96,12913
2.4585,0.2493,39.5400,71,96,12916
2.3949,0.2493,39.4800,71,96,12919
2.3216,0.2493,39.7300,71,96,12922
2.2532,0.2297,39.5400,71,96,12926
2.2825,0.2786,39.3500,71,96,12930
2.1261,0.2542,39.5100,71,96,12933
2.0430,0.2493,39.4800,71,96,12936
1.9501,0.2542,39.5100,71,96,12940
1.8573,0.2493,39.5700,71,96,12943
1.8133,0.2688,39.3200,71,96,12946
1.7155,0.2542,39.4400,71,96,12949
1.6618,0.2493,39.4800,71,96,12953
1.5982,0.2590,39.6700,71,96,12956
1.5249,0.2493,39.5400,71,96,12959
1.5152,0.2590,39.4400,71,96,12962
1.4418,0.2542,39.4800,71,96,12966
1.4223,0.2444,39.5400,71,96,12969
1.4174,0.2542,39.5400,71,96,12973
1.4125,0.2493,39.5400,71,96,12976
1.4223,0.2835,39.2800,71,96,12980
1.3587,0.2688,39.5700,71,96,12983
1.3587,0.2444,39.5400,71,96,12986
1.3783,0.2542,39.5100,71,96,12989
1.3930,0.2590,39.5700,71,96,12993
1.4516,0.2786,39.3200,71,96,12996
1.4027,0.2542,39.5100,71,96,12999
1.4174,0.2444,39.5400,71,96,13002
1.4272,0.2493,39.5400,71,96,13006
1.4370,0.2493,39.5400,71,96,13009
1.5200,0.2786,39.3500,71,96,13012
1.5005,0.2590,39.4800,71,96,13016
1.5005,0.2444,39.5400,71,96,13020
1.4956,0.2542,39.5400,71,96,13023
1.5054,0.2444,39.5400,71,96,13026
1.5787,0.2688,39.4100,71,96,13029
1.5543,0.2542,39.4800,71,96,13033
1.5738,0.2493,39.5400,71,96,13036
1.5738,0.2639,39.5400,71,96,13039
1.5543,0.2493,39.5100,71,96,13042
1.6129,0.2688,39.2800,71,96,13046
1.6031,0.2542,39.4400,71,96,13049
1.6325,0.2493,39.5400,71,96,13052
1.6422,0.2590,39.5100,71,96,13056
1.6276,0.2444,39.5400,71,96,13060
1.6716,0.2688,39.4100,71,96,13063
1.6422,0.2542,39.4400,71,96,13066
1.6911,0.2493,39.5100,71,96,13069
1.6764,0.2493,39.5400,71,96,13073
1.6960,0.2493,39.5400,71,96,13076
1.7351,0.2688,39.5100,71,96,13079
1.6716,0.2493,38.6200,71,96,13082
1.6813,0.2444,39.5400,71,96,13086
1.7107,0.2493,39.5100,71,96,13089
1.7155,0.2639,39.5700,71,96,13092
1.7742,0.2737,39.2500,71,96,13095
1.7302,0.2542,39.4400,71,96,13100
1.7155,0.2444,39.5400,71,96,13103
1.7107,0.2493,39.5400,71,96,13106
1.7107,0.2493,39.5400,71,96,13109
1.7889,0.2639,39.3200,71,96,13113
1.7498,0.2590,39.5100,71,96,13116
1.7253,0.2444,39.5100,71,96,13119
1.7204,0.2493,39.5400,71,96,13122
1.7400,0.2493,39.5400,71,96,13126
1.7986,0.2688,39.2800,71,96,13129
1.7595,0.2542,39.4800,71,96,13132
1.7742,0.2493,39.5100,71,96,13135
1.7595,0.2493,39.5400,71,96,13139
1.7351,0.2590,39.5400,71,96,13143
1.7986,0.2688,39.3200,71,96,13146
1.7742,0.2542,39.5100,71,96,13149
1.7937,0.2493,39.5400,71,96,13153
1.7889,0.2590,39.5100,71,96,13156
1.7644,0.2542,39.5400,71,96,13159
1.8035,0.2688,39.3500,71,96,13162
1.7595,0.2542,39.4800,71,96,13166
1.7742,0.2395,39.5400,71,96,13169
1.7840,0.2493,39.5400,71,96,13172
1.7840,0.2542,39.5700,71,96,13175
1.8231,0.2688,39.3200,71,96,13179
1.7546,0.2493,39.4800,71,96,13182
1.7644,0.2444,39.5400,71,96,13186
1.7791,0.2542,39.5700,71,96,13189
1.7840,0.2542,39.5400,71,96,13193
1.8475,0.2688,39.2800,71,96,13196
1.7889,0.2542,39.4400,71,96,13199
1.7791,0.2444,39.5400,71,96,13203
1.7693,0.2590,39.5100,71,96,13206
1.7742,0.2590,39.5700,71,96,13209
1.8524,0.2737,38.5200,71,96,13212
1.8035,0.2590,39.4400,71,96,13216
1.7840,0.2444,39.5700,71,96,13219
1.7693,0.2493,39.5400,71,96,13222
1.7742,0.2493,39.5700,71,96,13225
1.8426,0.2688,39.3200,71,96,13229
1.8035,0.2542,39.5100,71,96,13233
1.8084,0.2542,39.6000,71,96,13236
1.7986,0.2542,39.5400,71,96,13239
1.7693,0.2493,39.5700,71,96,13243
1.8280,0.2688,39.3200,71,96,13246
1.8426,0.2493,39.4400,71,96,13249
1.8280,0.2542,39.5400,71,96,13252
1.8280,0.2590,39.4800,71,96,13256
1.8035,0.2493,39.4800,71,96,13259
1.8426,0.2688,39.3200,71,96,13262
1.8035,0.2493,39.4400,71,96,13265
1.8084,0.2444,39.5400,71,96,13270
1.8280,0.2542,39.4800,71,96,13273
1.8328,0.2542,39.5700,71,96,13276
1.8719,0.2737,39.2800,71,96,13279
1.7986,0.2493,39.4800,71,96,13283
1.8035,0.2542,39.5400,71,96,13286
1.8280,0.2542,39.5400,71,96,13289
1.8328,0.2542,39.5700,71,96,13292
1.8964,0.2688,39.2800,71,96,13296
1.8426,0.2542,39.4400,71,96,13299
1.8280,0.2444,39.5100,71,96,13302
1.8231,0.2688,39.7700,71,96,13305
1.8328,0.2493,39.5400,71,96,13309
1.9062,0.2737,39.4400,71,96,13313
1.8622,0.2590,39.4800,71,96,13316
1.8377,0.2493,39.4400,71,96,13319
1.8231,0.2542,39.5400,71,96,13323
1.8231,0.2639,39.5100,71,96,13326
1.8915,0.2688,39.2800,71,96,13329
1.8475,0.2542,39.7300,71,96,13332
1.8524,0.2493,39.5400,71,96,13336
1.8328,0.2493,39.5100,71,96,13339
1.8084,0.2493,39.5700,71,96,13342
1.8671,0.2688,39.2500,71,96,13345
1.8475,0.2542,39.4800,71,96,13349
1.8671,0.2493,39.5100,71,96,13352
1.8719,0.2590,39.5400,71,96,13356
1.8622,0.2493,39.5400,71,96,13359
1.9159,0.2590,39.3200,71,96,13363
1.8817,0.2542,39.7300,71,96,13366
1.9013,0.2444,39.5400,71,96,13369
1.9306,0.2542,39.5700,71,96,13372
1.9404,0.2542,39.5400,71,96,13376
1.9941,0.2688,39.2200,71,96,13379
1.9257,0.2493,39.4100,71,96,13382
1.9355,0.2444,39.5400,71,96,13385
1.9795,0.2493,39.5100,71,96,13389
1.9795,0.2590,39.5100,71,96,13392
2.0528,0.2737,39.6700,71,96,13395
1.9892,0.2542,39.4400,71,96,13399
1.9746,0.2444,39.5100,71,96,13403
1.9599,0.2493,39.5400,71,96,13406
1.9501,0.2444,39.5700,71,96,13409
2.0137,0.2737,39.3800,71,96,13412
1.9453,0.2590,39.4800,71,96,13416
1.8964,0.2444,39.5100,71,96,13419
1.8573,0.2493,39.5700,71,96,13422
1.8426,0.2444,39.6400,71,96,13425
1.9013,0.2688,39.3500,71,96,13429
1.8524,0.2542,39.4800,71,96,13432
1.8377,0.2493,39.5700,71,96,13435
1.8182,0.2590,39.5100,71,96,13438
1.7840,0.2493,39.5400,71,96,13443
1.8231,0.2688,39.2500,71,96,13446
1.7889,0.2493,39.4800,71,96,13449
1.8084,0.2493,39.5100,71,96,13452
1.8035,0.2590,39.6000,71,96,13456
1.6764,0.2542,39.5700,71,96,13460
1.6325,0.2493,39.4800,71,96,13464
1.6325,0.2639,39.4400,71,96,13467
1.6373,0.2493,39.6000,71,96,13470
1.8426,0.2493,39.4400,71,96,13473
2.1554,0.2542,39.5400,71,96,13477
2.5415,0.2639,39.5100,71,96,13480
3.0156,0.2639,39.5100,71,96,13484
3.3529,0.2542,39.5100,71,96,13487
3.6315,0.2493,39.4400,71,96,13491
3.7488,0.2737,39.5400,71,96,13494
3.6804,0.2493,39.5400,71,96,13497
3.4457,0.2688,39.4400,71,96,13500
2.9423,0.2493,39.4800,71,96,13504
2.4536,0.2493,39.4100,71,96,13507
1.9844,0.2737,39.5700,71,96,13510
1.6618,0.2444,39.6000,71,96,13513
1.5152,0.2297,39.3800,71,96,13517
1.4223,0.2297,39.5400,71,96,13520
1.4223,0.2542,39.4400,71,96,13523
1.4027,0.2542,39.5400,71,96,13527
1.4174,0.2493,39.5700,71,96,13531
1.4761,0.2590,39.4400,71,96,13534
1.5200,0.2493,39.5100,71,96,13537
1.5738,0.2542,39.5100,71,96,13540
1.5885,0.2542,39.5400,71,96,13544
1.6031,0.2493,39.5400,71,96,13547
1.6373,0.2493,39.4400,71,96,13550
1.6227,0.2688,39.5100,71,96,13553
1.6618,0.2493,39.4800,71,96,13557
1.6764,0.2542,38.6800,71,96,13560
1.6911,0.2542,39.5400,71,96,13563
1.7253,0.2639,39.3800,71,96,13566
1.6862,0.2444,39.5400,71,96,13571
1.7107,0.2493,39.3800,71,96,13574
1.7253,0.2542,39.5400,71,96,13577
1.7546,0.2542,39.5700,71,96,13580
1.8035,0.2688,39.4100,71,96,13584
1.7791,0.2542,39.5700,71,96,13587
1.7840,0.2297,39.4400,71,96,13590
1.7742,0.2590,39.5700,71,96,13593
1.7986,0.2493,39.5100,71,96,13597
1.8719,0.2688,39.5100,71,96,13600
1.8377,0.2590,39.5400,71,96,13603
1.8426,0.2786,39.4800,71,96,13606
1.8280,0.2493,39.5400,71,96,13611
1.8475,0.2444,39.7700,71,96,13614
1.9159,0.2639,39.3800,71,96,13617
1.8964,0.2493,39.5400,71,96,13620
1.9257,0.2737,39.4800,71,96,13624
1.9062,0.2542,39.6700,71,96,13627
1.9013,0.2297,39.5700,71,96,13630
1.9599,0.2688,39.3800,71,96,13633
1.9599,0.2542,39.4800,71,96,13637
1.9844,0.2493,39.4800,71,96,13640
1.9795,0.2590,39.5100,71,96,13643
1.9844,0.2493,39.5400,71,96,13646
2.0186,0.2639,39.4100,71,96,13650
1.9892,0.2493,39.5100,71,96,13654
2.0235,0.2493,39.4800,71,96,13657
2.0381,0.2297,39.5400,71,96,13660
2.0577,0.2639,39.5700,71,96,13664
2.1065,0.2590,39.3800,71,96,13667
2.0626,0.2493,39.5100,71,96,13670
2.0772,0.2493,39.4800,71,96,13673
2.1017,0.2542,39.5400,71,96,13677
2.1310,0.2297,39.5400,71,96,13680
2.2092,0.2737,39.3800,71,96,13683
2.1750,0.2590,39.4400,71,96,13686
2.1750,0.2444,39.5100,71,96,13690
2.1799,0.2493,39.5400,71,96,13693
2.2092,0.2542,39.5400,71,96,13697
2.3118,0.2737,39.2200,71,96,13700
2.2776,0.2590,39.5400,71,96,13704
2.2874,0.2297,39.4800,71,96,13707
2.2923,0.2493,39.5400,71,96,13710
2.3314,0.2493,39.5400,71,96,13713
2.4242,0.2639,39.3800,71,96,13717
2.3998,0.2590,39.4800,71,96,13720
2.4291,0.2493,39.4800,71,96,13723
2.4291,0.2493,39.5400,71,96,13726
2.4242,0.2444,39.5700,71,96,13730
2.5122,0.2688,39.3200,71,96,13733
2.4927,0.2590,39.4800,71,96,13736
2.5024,0.2542,39.5100,71,96,13740
2.4976,0.2542,39.5400,71,96,13744
2.4731,0.2493,39.6000,71,96,13747
2.5220,0.2688,39.3500,71,96,13750
2.4242,0.2542,39.5700,71,96,13753
2.3998,0.2444,39.5700,71,96,13757
2.3656,0.2542,39.7000,71,96,13760
2.3069,0.2493,39.5400,71,96,13763
2.2923,0.2688,39.3200,71,96,13766
2.1359,0.2444,39.5100,71,96,13770
2.0528,0.2444,39.5700,71,96,13773
1.9844,0.2297,39.5100,71,96,13776
1.9404,0.2493,39.5400,71,96,13779
1.8964,0.2737,39.3200,71,96,13784
1.7644,0.2590,39.4800,71,96,13787
1.6764,0.2444,39.5100,71,96,13790
1.6080,0.2493,39.5100,71,96,13793
1.5738,0.2493,39.5400,71,96,13797
1.5885,0.2737,39.3500,71,96,13800
1.5152,0.2688,39.4800,71,96,13803
1.4663,0.2444,39.6000,71,96,13806
1.4223,0.2493,39.5400,71,96,13810
1.4076,0.2444,39.5400,71,96,13813
1.4516,0.2590,39.3200,71,96,13816
1.4076,0.2590,39.5100,71,96,13819
1.4125,0.2493,39.5100,71,96,13824
1.4027,0.2542,39.5400,71,96,13827
1.3783,0.2542,39.5700,71,96,13830
1.4321,0.2737,39.3500,71,96,13833
1.4223,0.2444,39.4400,71,96,13837
1.4467,0.2542,39.4800,71,96,13840
1.4565,0.2639,39.5400,71,96,13843
1.4516,0.2493,39.5400,71,96,13846
1.5005,0.2688,39.3500,71,96,13850
1.4663,0.2542,39.4400,71,96,13853
1.4858,0.2444,39.4800,71,96,13856
1.5200,0.2542,39.4800,71,96,13859
1.5445,0.2542,39.5400,71,96,13863
1.5934,0.2737,39.3500,71,96,13867
1.5738,0.2542,39.4800,71,96,13870
1.5445,0.2444,39.4400,71,96,13873
1.5738,0.2542,39.7700,71,96,13877
1.5982,0.2542,39.5400,71,96,13880
1.6618,0.2737,39.3200,71,96,13883
1.6227,0.2590,39.4100,71,96,13886
1.6129,0.2444,39.5100,71,96,13890
1.6129,0.2493,39.5100,71,96,13893
1.6178,0.2493,39.5700,71,96,13896
1.7302,0.2737,39.3500,71,96,13899
1.6667,0.2688,39.4400,71,96,13903
1.6373,0.2444,39.4400,71,96,13906
1.6422,0.2493,39.4800,71,96,13910
1.6520,0.2493,39.6400,71,96,13914
1.7253,0.2493,39.3500,71,96,13917
1.6960,0.2590,39.5100,71,96,13920
1.7058,0.2493,39.5100,71,96,13923
1.6960,0.2639,39.5100,71,96,13927
1.6764,0.2493,39.5700,71,96,13930
1.7449,0.2737,39.3500,71,96,13933
1.7204,0.2590,39.4800,71,96,13936
1.7400,0.2542,39.5100,71,96,13940
1.7449,0.2590,39.6400,71,96,13943
1.7253,0.2493,39.5400,71,96,13946
1.7742,0.2688,39.3500,71,96,13949
1.7253,0.2590,39.4400,71,96,13954
1.7302,0.2444,39.5400,71,96,13957
1.7546,0.2542,39.5400,71,96,13960
1.7644,0.2493,39.5400,71,96,13963
1.8084,0.2737,39.3800,71,96,13967
1.7302,0.2542,39.4800,71,96,13970
1.7302,0.2444,39.5400,71,96,13973
1.7449,0.2493,39.5400,71,96,13976
1.7595,0.2493,39.5400,71,96,13980
1.8231,0.2786,39.3500,71,96,13983
1.7693,0.2590,39.4400,71,96,13986
1.7498,0.2444,39.5100,71,96,13989
1.7449,0.2493,39.6000,71,96,13993
1.7546,0.2493,39.5700,71,96,13997
1.8280,0.2688,39.3500,71,96,14000
1.7840,0.2590,39.4400,71,96,14003
1.7644,0.2444,39.5400,71,96,14007
1.7498,0.2493,39.5400,71,96,14010
1.7498,0.2444,39.5400,71,96,14013
1.8231,0.2639,39.3200,71,96,14016
1.7889,0.2639,39.5100,71,96,14020
1.7889,0.2737,39.4800,71,96,14023
1.7742,0.2590,39.5100,71,96,14026
1.7498,0.2297,39.5700,71,96,14029
1.8035,0.2493,39.3200,71,96,14033
1.8133,0.2493,39.4400,71,96,14036
1.7986,0.2542,39.5100,71,96,14040
1.7986,0.2590,39.7700,71,96,14043
1.7791,0.2493,39.5400,71,96,14047
1.8280,0.2688,39.3200,71,96,14050
1.7742,0.2590,39.4800,71,96,14053
1.7840,0.2493,39.4800,71,96,14056
1.8035,0.2542,39.5400,71,96,14060
1.8084,0.2542,39.5400,71,96,14063
1.8573,0.2737,39.3200,71,96,14066
1.8426,0.2688,39.4800,71,96,14071
1.8035,0.2444,39.5100,71,96,14074
1.7986,0.2493,39.4400,71,96,14077
1.7595,0.2493,39.5400,71,96,14082
1.7742,0.2493,39.5700,71,96,14085
1.8328,0.2639,39.4800,71,96,14088
1.7986,0.2542,39.5700,71,96,14091
1.8084,0.2542,39.4100,71,96,14095
1.7791,0.2493,39.4800,71,96,14098
1.7937,0.2444,39.6000,71,96,14101
1.8426,0.2493,39.3800,71,96,14104
1.8280,0.2542,39.5700,71,96,14108
1.8524,0.2542,39.4100,71,96,14111
1.8133,0.2493,39.6400,71,96,14114
1.7986,0.2444,39.5400,71,96,14117
1.8280,0.2590,39.4800,71,96,14121
1.8328,0.2542,39.5100,71,96,14125
1.8719,0.2542,39.4100,71,96,14128
1.8426,0.2542,39.5400,71,96,14131
1.8328,0.2493,39.5400,71,96,14135
1.8475,0.2590,39.4800,71,96,14138
1.8182,0.2542,39.5100,71,96,14141
1.8524,0.2493,39.4100,71,96,14144
1.8475,0.2737,39.5400,71,96,14148
1.8524,0.2493,39.5400,71,96,14151
1.8671,0.2297,39.3800,71,96,14154
1.8084,0.2542,39.5100,71,96,14157
1.8328,0.2542,39.4100,71,96,14161
1.8231,0.2493,39.4400,71,96,14164
1.8426,0.2542,39.5700,71,96,14168
1.8817,0.2639,39.4400,71,96,14171
1.8573,0.2590,39.5400,71,96,14175
1.8719,0.2493,39.5400,71,96,14178
1.8524,0.2493,39.5400,71,96,14181
1.8817,0.2493,39.5400,71,96,14184
1.9306,0.2493,39.4800,71,96,14188
1.9159,0.2737,39.5700,71,96,14191
1.9257,0.2493,39.4100,71,96,14194
1.8964,0.2493,39.5700,71,96,14197
1.9355,0.2444,39.5400,71,96,14201
1.9746,0.2933,39.3800,71,96,14204
1.9599,0.2590,39.5400,71,96,14208
1.9990,0.2542,39.4100,71,96,14211
1.9746,0.2493,39.5400,71,96,14215
1.9550,0.2444,39.5700,71,96,14218
1.9795,0.2590,39.4100,71,96,14221
1.9746,0.2542,39.5400,71,96,14224
1.9990,0.2493,39.4100,71,96,14228
1.9501,0.2590,39.5400,71,96,14231
1.9110,0.2688,39.5700,71,96,14234
1.8915,0.2590,39.4800,71,96,14237
1.8719,0.2542,39.5400,71,96,14241
1.8671,0.2688,39.4100,71,96,14244
1.8475,0.2590,39.5700,71,96,14247
1.8426,0.2493,39.6400,71,96,14251
1.8426,0.2590,39.3800,71,96,14255
1.7693,0.2444,39.5700,71,96,14258
1.8084,0.2395,39.4100,71,96,14261
1.7595,0.2493,39.6000,71,96,14264
1.7693,0.2297,39.5400,71,96,14268
1.8182,0.2590,39.4400,71,96,14271
1.7644,0.2542,39.5100,71,96,14274
1.7595,0.2493,39.4400,71,96,14277
1.7302,0.2297,39.5400,71,96,14281
1.7302,0.2542,39.5400,71,96,14284
1.7449,0.2688,39.4400,71,96,14287
1.6569,0.2542,39.5100,71,96,14290
1.5934,0.2493,39.4400,71,96,14295
1.5494,0.2493,39.5700,71,96,14298
1.6325,0.2493,39.5400,71,96,14301
1.8328,0.2590,39.3800,71,96,14304
2.1114,0.2542,39.5400,71,96,14308
2.5269,0.2542,39.4400,71,96,14311
2.9081,0.2493,39.5700,71,96,14314
3.2845,0.2444,39.5400,71,96,14317
3.6852,0.2590,39.4100,71,96,14321
3.8661,0.2542,39.5400,71,96,14324
3.8465,0.2737,39.5700,71,96,14327
3.5386,0.2542,39.6700,71,96,14330
3.0694,0.2493,39.6000,71,96,14334
2.5953,0.2493,39.4400,71,96,14338
2.0674,0.2444,39.5100,71,96,14341
1.7400,0.2493,39.5100,71,96,14344
1.5298,0.2542,39.5400,71,96,14348
1.4370,0.2542,39.5400,71,96,14351
1.4370,0.2639,39.3800,71,96,14354
1.4027,0.2542,39.5100,71,96,14357
1.4418,0.2444,39.4100,71,96,14361
1.4858,0.2493,39.5100,71,96,14364
1.5396,0.2297,39.5400,71,96,14367
1.6031,0.2542,39.3800,71,96,14370
1.5885,0.2590,39.5100,71,96,14374
1.5885,0.2444,39.4800,71,96,14377
1.5787,0.2493,39.5400,71,96,14381
1.6129,0.2493,39.5400,71,96,14384
1.7009,0.2493,39.4400,71,96,14388
1.6520,0.2542,39.5100,71,96,14391
1.6618,0.2493,39.4400,71,96,14394
1.6471,0.2493,39.5400,71,96,14397
1.6716,0.2395,39.5400,71,96,14401
1.7155,0.2639,39.3800,71,96,14404
1.7107,0.2542,39.5100,71,96,14407
1.7400,0.2542,39.5400,71,96,14410
1.7204,0.2493,39.5400,71,96,14414
1.7107,0.2444,39.5400,71,96,14417
1.7595,0.2590,39.4800,71,96,14420
1.7644,0.2542,39.4800,71,96,14424
1.7937,0.2542,39.4800,71,96,14428
1.7937,0.2542,39.5400,71,96,14431
1.7889,0.2444,39.5700,71,96,14434
1.8280,0.2590,39.4100,71,96,14437
1.7986,0.2493,39.5400,71,96,14441
1.8328,0.2444,39.4400,71,96,14444
1.8475,0.2884,39.5400,71,96,14447
1.8719,0.2493,39.5400,71,96,14450
1.9062,0.2493,39.3500,71,96,14454
1.8622,0.2395,39.5400,71,96,14457
1.8866,0.2493,39.4800,71,96,14460
1.9013,0.2493,39.5400,71,96,14464
1.9257,0.2493,39.5400,71,96,14468
1.9844,0.2639,39.4100,71,96,14471
1.9550,0.2542,39.5100,71,96,14474
1.9501,0.2444,39.5400,71,96,14477
1.9453,0.2493,39.5400,71,96,14481
1.9697,0.2444,39.5400,71,96,14484
2.0674,0.2688,39.3800,71,96,14487
2.0283,0.2542,39.7000,71,96,14490
2.0381,0.2493,39.4800,71,96,14494
2.0381,0.2395,39.5400,71,96,14497
2.0479,0.2444,39.5400,71,96,14500
2.1603,0.2639,39.3500,71,96,14503
2.1457,0.2493,39.5100,71,96,14508
2.1408,0.2884,39.4100,71,96,14511
2.1359,0.2542,39.6000,71,96,14514
2.1408,0.2444,39.5700,71,96,14517
2.2239,0.2835,39.3800,71,96,14521
2.2190,0.2590,39.3200,71,96,14524
2.2581,0.2444,39.5100,71,96,14527
2.2776,0.2493,39.5400,71,96,14530
2.2825,0.2542,39.5400,71,96,14534
2.3607,0.2933,39.3200,71,96,14537
2.3265,0.2493,39.5100,71,96,14540
2.3607,0.2493,39.4800,71,96,14543
2.4242,0.2542,39.5400,71,96,14547
2.4536,0.2590,39.5400,71,96,14551
2.5073,0.2688,39.4100,71,96,14554
2.4438,0.2542,39.5100,71,96,14557
2.4536,0.2444,39.5100,71,96,14561
2.4878,0.2542,39.5100,71,96,14564
2.5073,0.2493,39.6400,71,96,14567
2.6002,0.2688,39.3500,71,96,14570
2.5367,0.2493,39.4400,71,96,14574
2.4927,0.2444,39.5100,71,96,14577
2.4682,0.2493,39.6000,71,96,14580
2.4585,0.2493,39.5700,71,96,14583
2.5122,0.2688,39.3500,71,96,14587
2.3949,0.2542,39.4800,71,96,14590
2.3118,0.2444,39.4800,71,96,14594
2.2287,0.2493,39.5400,71,96,14597
2.1505,0.2444,39.5700,71,96,14601
2.1457,0.2737,39.3200,71,96,14604
2.0137,0.2493,39.5100,71,96,14607
1.9355,0.2493,39.5100,71,96,14610
1.8475,0.2542,39.5700,71,96,14614
1.7449,0.2493,39.5400,71,96,14617
1.7595,0.2590,39.3800,71,96,14620
1.6373,0.2639,39.4400,71,96,14623
1.5934,0.2444,39.6000,71,96,14627
1.5494,0.2542,39.6000,71,96,14630
1.4907,0.2493,39.5400,71,96,14633
1.4907,0.2639,39.2200,71,96,14637
1.4223,0.2493,39.3800,71,96,14641
1.4076,0.2444,39.5100,71,96,14644
1.4174,0.2542,39.5400,71,96,14647
1.4125,0.2542,39.5700,71,96,14650
1.4467,0.2786,39.3200,71,96,14654
1.3930,0.2493,39.5100,71,96,14657
1.3881,0.2395,39.4800,71,96,14660
1.4125,0.2493,39.5400,71,96,14663
1.4370,0.2493,39.5700,71,96,14667
1.4907,0.2737,39.4400,71,96,14670
1.4565,0.2590,39.4400,71,96,14673
1.4418,0.2395,39.5100,71,96,14676
1.4614,0.2493,39.5400,71,96,14681
1.5005,0.2395,39.5700,71,96,14685
1.5005,0.2444,39.5400,71,96,14689
1.5298,0.2590,39.3800,71,96,14692
1.5152,0.2542,39.5100,71,96,14695
1.5445,0.2639,39.4400,71,96,14698
1.5200,0.2444,39.5700,71,96,14702
1.5152,0.2444,39.5400,71,96,14705
1.5591,0.2542,39.4800,71,96,14708
1.5787,0.2493,39.5100,71,96,14711
1.6325,0.2542,39.4400,71,96,14715
1.6178,0.2542,39.5100,71,96,14718
1.6227,0.2395,39.5400,71,96,14722
1.6471,0.2542,39.5100,71,96,14725
1.6373,0.2493,39.6400,71,96,14729
1.6667,0.2493,39.4400,71,96,14732
1.6813,0.2542,39.5400,71,96,14735
1.6960,0.2542,39.5700,71,96,14738
1.7155,0.2590,39.3800,71,96,14742
1.6667,0.2493,39.6700,71,96,14745
1.7009,0.2542,39.4100,71,96,14748
1.7204,0.2395,39.5400,71,96,14751
1.7107,0.2493,39.5400,71,96,14755
1.7449,0.2639,39.5100,71,96,14758
1.7204,0.2542,39.6400,71,96,14761
1.7302,0.2493,39.4100,71,96,14765
1.7058,0.2493,39.5400,71,96,14769
1.7302,0.2395,39.5400,71,96,14772
1.7791,0.2590,39.4400,71,96,14775
1.7644,0.2542,39.5100,71,96,14778
1.7791,0.2493,39.4400,71,96,14782
1.7400,0.2493,39.5400,71,96,14785
1.7449,0.2444,39.5100,71,96,14788
1.7937,0.2590,39.4800,71,96,14792
1.7742,0.2493,39.5400,71,96,14795
1.7986,0.2493,39.4400,71,96,14798
1.7937,0.2542,39.5400,71,96,14801
1.7449,0.2444,39.5400,71,96,14806
1.7742,0.2542,39.4800,71,96,14809
1.7693,0.2493,39.5400,71,96,14812
1.8377,0.2542,39.4100,71,96,14815
1.7791,0.2493,39.5400,71,96,14819
1.7889,0.2493,39.5700,71,96,14822
1.7791,0.2590,39.5100,71,96,14825
1.7546,0.2493,39.4100,71,96,14828
1.7986,0.2493,39.4400,71,96,14832
1.7840,0.2297,39.6400,71,96,14835
1.7986,0.2542,39.5400,71,96,14838
1.8182,0.2688,39.3800,71,96,14841
1.7595,0.2493,38.7100,71,96,14845
1.7840,0.2493,39.4100,71,96,14849
1.8084,0.2493,39.5400,71,96,14852
1.7986,0.2542,39.5400,71,96,14855
1.8328,0.2884,39.4400,71,96,14859
1.8084,0.2493,39.5100,71,96,14862
1.8133,0.2493,39.4400,71,96,14865
1.7791,0.2493,39.5400,71,96,14868
1.7986,0.2493,39.5400,71,96,14872
1.8328,0.2688,39.4400,71,96,14875
1.8084,0.2590,39.5100,71,96,14878
1.8133,0.2542,39.4100,71,96,14881
1.7693,0.2493,39.5700,71,96,14885
1.7791,0.2395,39.5400,71,96,14888
1.8280,0.2590,39.3500,71,96,14892
1.8084,0.2493,39.5100,71,96,14895
1.8328,0.2542,39.3800,71,96,14899
1.8084,0.2542,39.5400,71,96,14902
1.7742,0.2395,39.6700,71,96,14905
1.8084,0.2542,39.6000,71,96,14908
1.8084,0.2493,39.5700,71,96,14912
1.8426,0.2542,39.4100,71,96,14915
1.8182,0.2688,39.5400,71,96,14918
1.8035,0.2590,39.5400,71,96,14921
1.8231,0.2590,39.4800,71,96,14925
1.7986,0.2542,39.5100,71,96,14928
1.8280,0.2444,39.4100,71,96,14931
1.8231,0.2444,39.5700,71,96,14935
1.8328,0.2493,39.6000,71,96,14939
1.8573,0.2542,39.3800,71,96,14942
1.7986,0.2493,39.5100,71,96,14945
1.8573,0.2493,39.4100,71,96,14948
1.8133,0.2786,39.5100,71,96,14952
1.8328,0.2493,39.7300,71,96,14955
1.8671,0.2639,39.5700,71,96,14958
1.8328,0.2542,39.5400,71,96,14961
1.8426,0.2493,39.4400,71,96,14965
1.8035,0.2737,39.5700,71,96,14968
1.8231,0.2542,39.5100,71,96,14971
1.8622,0.2590,39.2500,71,96,14974
1.8328,0.2542,39.5100,71,96,14979
1.8328,0.2493,39.4800,71,96,14982
1.7986,0.2297,39.5400,71,96,14985
1.8035,0.2444,39.5700,71,96,14988
1.8573,0.2590,39.2200,71,96,14992
1.8377,0.2542,39.6000,71,96,14995
1.8622,0.2542,39.4100,71,96,14998
1.8524,0.2542,39.5400,71,96,15001
1.8475,0.2395,39.5400,71,96,15005
1.8964,0.2590,39.4400,71,96,15008
1.9062,0.2493,39.5400,71,96,15011
1.9599,0.2590,39.4400,71,96,15014
1.9110,0.2542,39.5400,71,96,15019
1.9110,0.2444,39.6000,71,96,15022
1.9453,0.2542,39.4400,71,96,15025
1.9355,0.2493,39.5100,71,96,15028
1.9746,0.2590,39.4100,71,96,15032
1.9697,0.2542,39.5700,71,96,15035
1.9795,0.2493,39.5100,71,96,15038
2.0039,0.2590,39.3800,71,96,15041
1.9550,0.2493,39.5700,71,96,15045
1.9697,0.2542,39.4800,71,96,15048
1.9501,0.2493,39.5100,71,96,15051
1.9453,0.2493,39.5100,71,96,15054
1.9404,0.2590,39.4800,71,96,15058
1.9257,0.2590,39.5100,71,96,15062
1.8817,0.2493,39.3500,71,96,15065
1.8426,0.2297,39.5400,71,96,15068
1.8377,0.2493,39.5400,71,96,15072
1.8671,0.2590,39.4400,71,96,15075
1.8231,0.2542,39.5700,71,96,15078
1.8084,0.2493,39.4100,71,96,15081
1.7693,0.2493,39.5400,71,96,15085
1.7693,0.2542,39.5400,71,96,15088
1.8084,0.2639,39.3500,71,96,15091
1.7742,0.2493,39.5100,71,96,15094
1.7937,0.2590,39.5400,71,96,15098
1.7546,0.2493,39.5400,71,96,15101
1.7595,0.2395,39.5700,71,96,15105
1.7498,0.2688,39.5100,71,96,15108
1.7009,0.2542,39.6400,71,96,15112
1.6618,0.2297,39.4100,71,96,15115
1.6129,0.2493,39.5400,71,96,15118
1.5787,0.2395,39.5400,71,96,15122
1.6813,0.2688,39.4800,71,96,15125
1.8671,0.2493,39.5100,71,96,15128
2.2336,0.2493,39.4800,71,96,15131
2.6344,0.2493,39.5700,71,96,15135
3.0499,0.2493,39.6000,71,96,15138
3.4800,0.2590,39.3500,71,96,15141
3.6999,0.2493,39.5400,71,96,15144
3.8856,0.2395,39.4400,71,96,15149
3.6804,0.2444,39.5400,71,96,15152
3.3480,0.2493,39.5400,71,96,15155
2.9374,0.2493,39.4400,71,96,15158
2.3949,0.2639,39.5100,71,96,15161
1.9453,0.2444,39.4400,71,96,15165
1.6178,0.2493,39.5400,71,96,15168
1.4761,0.2493,39.5400,71,96,15171
1.4516,0.2639,39.4400,71,96,15175
1.4174,0.2493,39.5700,71,96,15178
1.4418,0.2493,39.4100,71,96,15181
1.4565,0.2444,39.5400,71,96,15184
1.5054,0.2444,39.5700,71,96,15188
1.5787,0.2297,39.3800,71,96,15192
1.5885,0.2493,39.5400,71,96,15195
1.6227,0.2542,39.4400,71,96,15198
1.5982,0.2737,39.5400,71,96,15202
1.5934,0.2444,39.5700,71,96,15205
1.6325,0.2590,39.4400,71,96,15208
1.6716,0.2542,39.5100,71,96,15211
1.6667,0.2493,39.4100,71,96,15215
1.6569,0.2493,39.5700,71,96,15218
1.6667,0.2444,39.5700,71,96,15221
1.7009,0.2590,39.4800,71,96,15224
1.6862,0.2542,39.5100,71,96,15228
1.7253,0.2493,39.4100,71,96,15232
1.7351,0.2542,39.5400,71,96,15235
1.7546,0.2493,39.7700,71,96,15238
1.7937,0.2590,39.3800,71,96,15242
1.7693,0.2493,39.5400,71,96,15245
1.7986,0.2542,39.4100,71,96,15248
1.8035,0.2493,39.5100,71,96,15251
1.8280,0.2493,39.5400,71,96,15255
1.8768,0.2590,39.4800,71,96,15258
1.8573,0.2542,39.5100,71,96,15261
1.8719,0.2933,39.4100,71,96,15264
1.8622,0.2493,39.4100,71,96,15268
1.8915,0.2493,39.7700,71,96,15271
1.9501,0.2639,39.5100,71,96,15275
1.9208,0.2297,39.5100,71,96,15278
1.9648,0.2542,39.4100,71,96,15282
1.9550,0.2493,39.5400,71,96,15285
1.9501,0.2444,39.5700,71,96,15288
2.0137,0.2590,39.4800,71,96,15291
2.0235,0.2542,39.4800,71,96,15296
2.0283,0.2493,39.4800,71,96,15299
2.0723,0.2590,39.4100,71,96,15303
2.0577,0.2493,39.5400,71,96,15306
2.0430,0.2444,39.5400,71,96,15309
2.0723,0.2444,39.4800,71,96,15312
2.0821,0.2493,39.5400,71,96,15316
2.1457,0.2688,39.4100,71,96,15320
2.1408,0.2590,39.5700,71,96,15323
2.1750,0.2493,39.5700,71,96,15326
2.2190,0.2590,39.4400,71,96,15330
2.1799,0.2590,39.5400,71,96,15333
2.2434,0.2590,39.5400,71,96,15336
2.2385,0.2493,39.5400,71,96,15339
2.2678,0.2590,39.5400,71,96,15342
2.3167,0.2590,39.5100,71,96,15346
2.3167,0.2493,39.5400,71,96,15349
2.3705,0.2590,39.4400,71,96,15352
2.3558,0.2493,39.6000,71,96,15355
2.3949,0.2444,39.7700,71,96,15360
2.4536,0.2590,39.5100,71,96,15363
2.4438,0.2542,39.5100,71,96,15366
2.4927,0.2493,39.6000,71,96,15369
2.4682,0.2493,39.6000,71,96,15373
2.4976,0.2444,39.5400,71,96,15376
2.5562,0.2444,39.3800,71,96,15379
2.5220,0.2688,39.5100,71,96,15382
2.5562,0.2542,39.3800,71,96,15386
2.4976,0.2493,39.5100,71,96,15389
2.4682,0.2737,39.5700,71,96,15392
2.4780,0.2542,39.4800,71,96,15395
2.4291,0.2493,39.5100,71,96,15399
2.4536,0.2542,39.4100,71,96,15403
2.3167,0.2542,39.5400,71,96,15406
2.2434,0.2493,39.5400,71,96,15409
2.1945,0.2542,39.4800,71,96,15413
2.0968,0.2493,39.5100,71,96,15416
2.0577,0.2493,39.4100,71,96,15419
1.9648,0.2444,39.5700,71,96,15422
1.8964,0.2493,39.5400,71,96,15426
1.8475,0.2590,39.3800,71,96,15429
1.7644,0.2395,39.5100,71,96,15432
1.7058,0.2493,39.4100,71,96,15435
1.6422,0.2493,39.6000,71,96,15439
1.6276,0.2493,39.5400,71,96,15442
1.5934,0.2590,39.4400,71,96,15446
1.5396,0.2493,39.4800,71,96,15449
1.5249,0.2493,39.3500,71,96,15453
1.4712,0.2297,39.5400,71,96,15456
1.4809,0.2493,39.5700,71,96,15459
1.4956,0.2639,39.4400,71,96,15462
1.4712,0.2542,39.3500,71,96,15466
1.4809,0.2493,39.4100,71,96,15469
1.4565,0.2444,39.5400,71,96,15472
1.4761,0.2395,39.5400,71,96,15475
1.5200,0.2639,39.3500,71,96,15479
1.5054,0.2493,39.5100,71,96,15482
1.5347,0.2542,38.6800,71,96,15485
1.5103,0.2493,39.5400,71,96,15489
1.5200,0.2444,39.5400,71,96,15493
1.5640,0.2590,39.3800,71,96,15496
1.5738,0.2493,39.5400,71,96,15499
1.6129,0.2493,39.4100,71,96,15502
1.5934,0.2542,39.5100,71,96,15506
1.5934,0.2493,39.5400,71,96,15509
1.6129,0.2542,39.4400,71,96,15512
1.6031,0.2493,39.6000,71,96,15515
1.6422,0.2493,39.4100,71,96,15519
1.6422,0.2493,39.5400,71,96,15522
1.6520,0.2493,39.5400,71,96,15525
1.6764,0.2590,39.3800,71,96,15528
1.6373,0.2493,39.6400,71,96,15533
1.6667,0.2444,39.4400,71,96,15536
1.6618,0.2493,39.5400,71,96,15539
1.6764,0.2493,39.5400,71,96,15542
1.7107,0.2884,39.4100,71,96,15546
1.6911,0.2493,39.5700,71,96,15549
1.7058,0.2297,39.4100,71,96,15552
1.7155,0.2590,39.5400,71,96,15555
1.7009,0.2542,39.5700,71,96,15559
1.7546,0.2590,39.7000,71,96,15562
1.7400,0.2493,39.5100,71,96,15565
1.7546,0.2493,39.3800,71,96,15568
1.7400,0.2493,39.5400,71,96,15572
1.7546,0.2444,39.5400,71,96,15576
1.8035,0.2493,39.3800,71,96,15579
1.7791,0.2542,39.5400,71,96,15582
1.7937,0.2835,39.4100,71,96,15586
1.7595,0.2493,39.5400,71,96,15589
1.7449,0.2297,39.5400,71,96,15592
1.7937,0.2542,39.3800,71,96,15595
1.7791,0.2542,39.5100,71,96,15599
1.8035,0.2493,39.5100,71,96,15602
1.7791,0.2493,39.5700,71,96,15605
1.7644,0.2493,39.5700,71,96,15608
1.7986,0.2590,39.4400,71,96,15612
1.7840,0.2493,39.5100,71,96,15616
1.8035,0.2493,39.4800,71,96,15619
1.7937,0.2493,39.5700,71,96,15622
1.7986,0.2493,39.5400,71,96,15626
1.8231,0.2835,39.3500,71,96,15629
1.7693,0.2542,39.5100,71,96,15632
1.7889,0.2493,39.5700,71,96,15635
1.7889,0.2493,39.5400,71,96,15639
1.7986,0.2493,39.5400,71,96,15642
1.8328,0.2639,39.3800,71,96,15645
1.7986,0.2493,39.6400,71,96,15648
1.8035,0.2493,39.4400,71,96,15652
1.7937,0.2493,39.5100,71,96,15655
1.7937,0.2444,39.5400,71,96,15659
1.8426,0.2688,39.4100,71,96,15662
1.8133,0.2542,39.5400,71,96,15666
1.8084,0.2493,39.4400,71,96,15669
1.7889,0.2493,39.6000,71,96,15672
1.7986,0.2444,39.5400,71,96,15675
1.8426,0.2835,39.3500,71,96,15679
1.8133,0.2542,39.5100,71,96,15682
1.8231,0.2493,39.6700,71,96,15685
1.7986,0.2493,39.7300,71,96,15688
1.7889,0.2444,39.5400,71,96,15692
1.8377,0.2639,39.4100,71,96,15695
1.8231,0.2639,39.5100,71,96,15698
1.8475,0.2493,39.4400,71,96,15702
1.8182,0.2493,39.5100,71,96,15706
1.8035,0.2542,39.5400,71,96,15709
1.8328,0.2493,39.4400,71,96,15712
1.8133,0.2835,39.4800,71,96,15716
1.8280,0.2493,39.3800,71,96,15719
1.8182,0.2493,39.6400,71,96,15722
1.8231,0.2493,39.5700,71,96,15725
1.8475,0.2590,39.3500,71,96,15729
1.7986,0.2493,39.5100,71,96,15732
1.8475,0.2395,39.4400,71,96,15735
1.8182,0.2493,39.5700,71,96,15738
1.8328,0.2493,39.6400,71,96,15742
1.8671,0.2590,39.4100,71,96,15746
1.8328,0.2493,39.5100,71,96,15749
1.8524,0.2542,39.4400,71,96,15752
1.8182,0.2542,39.5100,71,96,15756
1.8328,0.2542,39.5700,71,96,15759
1.8866,0.2590,39.5700,71,96,15762
1.8622,0.2542,39.5100,71,96,15765
1.9013,0.2542,39.4400,71,96,15769
1.8573,0.2493,39.5400,71,96,15772
1.8719,0.2444,39.5700,71,96,15775
1.9306,0.2786,39.3800,71,96,15778
1.9110,0.2542,39.5400,71,96,15782
1.9404,0.2493,39.4100,71,96,15785
1.9159,0.2493,39.5400,71,96,15789
1.9110,0.2542,39.5400,71,96,15792
1.9550,0.2590,39.4800,71,96,15796
1.9550,0.2542,39.5100,71,96,15799
1.9990,0.2542,39.4400,71,96,15802
1.9795,0.2590,39.5400,71,96,15805
1.9746,0.2493,39.5400,71,96,15809
2.0088,0.2590,39.5100,71,96,15812
1.9795,0.2493,39.5400,71,96,15815
2.0088,0.2493,39.4100,71,96,15818
1.9941,0.2493,39.6700,71,96,15822
1.9795,0.2493,38.6800,71,96,15825
1.9844,0.2590,39.3800,71,96,15828
1.9062,0.2493,39.5700,71,96,15832
1.8964,0.2444,39.3500,71,96,15836
1.8768,0.2688,39.5400,71,96,15839
1.8719,0.2493,39.5400,71,96,15842
1.8964,0.2639,39.3800,71,96,15845
1.8524,0.2493,39.4800,71,96,15849
1.8328,0.2444,39.4100,71,96,15852
1.8035,0.2493,39.5400,71,96,15855
1.7986,0.2493,39.5100,71,96,15858
1.8426,0.2639,39.5400,71,96,15862
1.7986,0.2493,39.5100,71,96,15865
1.7986,0.2542,39.4400,71,96,15868
1.7644,0.2542,39.5100,71,96,15872
1.7693,0.2444,39.6400,71,96,15876
1.7986,0.2590,39.3800,71,96,15879
1.7351,0.2297,39.5100,71,96,15882
1.7009,0.2639,39.4400,71,96,15885
1.6276,0.2493,39.5400,71,96,15889
1.6129,0.2444,39.5400,71,96,15892
1.7253,0.2590,39.3800,71,96,15895
1.8866,0.2493,39.5100,71,96,15898
2.1945,0.2542,39.4100,71,96,15902
2.5513,0.2493,39.5400,72,95,15905
3.6168,0.2493,39.5400,72,95,15910
3.2893,0.2493,39.5100,72,95,15913
2.8495,0.2639,39.4100,72,95,15917
2.2923,0.2444,39.5700,72,95,15920
1.8964,0.2542,39.4400,72,95,15924
1.5640,0.2444,39.5400,72,95,15927
1.3978,0.2493,39.5400,72,95,15930
1.3490,0.2639,39.4400,72,95,15933
1.3148,0.2493,39.5400,72,95,15937
1.3587,0.2542,39.4400,72,95,15940
1.3685,0.2444,39.5400,72,95,15943
1.4614,0.2444,39.5400,72,95,15946
1.4956,0.2444,39.4800,72,95,15950
1.5298,0.2493,39.5100,72,95,15953
1.5787,0.2590,39.4400,72,95,15956
1.5689,0.2444,39.5400,72,95,15960
1.5934,0.2542,39.5700,72,95,15964
1.6471,0.2590,39.4100,72,95,15967
1.6373,0.2786,39.5400,72,95,15970
1.6764,0.2590,39.4100,72,95,15973
1.6471,0.2493,39.5100,72,95,15977
1.6520,0.2542,39.5400,72,95,15980
1.6911,0.2590,39.4100,72,95,15983
1.6911,0.2493,39.4100,72,95,15986
1.7449,0.2590,39.4100,72,95,15990
1.7204,0.2493,39.5100,72,95,15993
1.7204,0.2395,39.5400,72,95,15996
1.7351,0.2542,39.5100,72,95,16000
1.7302,0.2493,39.5400,72,95,16004
1.7937,0.2493,39.4100,72,95,16007
1.7742,0.2542,39.5400,72,95,16010
1.7840,0.2542,39.4800,72,95,16013
1.8084,0.2590,39.3500,72,95,16017
1.7791,0.2493,39.5400,72,95,16020
1.8231,0.2542,39.4100,72,95,16023
1.8182,0.2395,39.5700,72,95,16026
1.8377,0.2493,39.5700,72,95,16030
1.8768,0.2639,39.5700,72,95,16033
1.8475,0.2493,39.5400,72,95,16036
1.8817,0.2542,39.4100,72,95,16039
1.8573,0.2542,39.5100,72,95,16044
1.8866,0.2493,39.5400,72,95,16047
1.9208,0.2493,39.4800,72,95,16050
1.9062,0.2493,39.5100,72,95,16053
1.9404,0.2542,39.4100,72,95,16057
1.9062,0.2444,39.5400,72,95,16060
1.9306,0.2444,39.5400,72,95,16063
1.9795,0.2493,39.3800,72,95,16066
1.9746,0.2493,39.5100,72,95,16070
2.0430,0.2639,39.4100,72,95,16073
1.9892,0.2493,39.5100,72,95,16076
1.9990,0.2444,39.5400,72,95,16079
2.0479,0.2639,39.4400,72,95,16083
2.0479,0.2639,39.5100,72,95,16087
2.1017,0.2542,39.3800,72,95,16090
2.0821,0.2297,39.5400,72,95,16093
2.1017,0.2444,39.5400,72,95,16097
2.1310,0.2688,39.5700,72,95,16100
2.1359,0.2493,39.5100,72,95,16103
2.2043,0.2493,39.3800,72,95,16106
2.1896,0.2493,39.5400,72,95,16110
2.2190,0.2590,39.5700,72,95,16113
2.2630,0.2590,39.5100,72,95,16116
2.2336,0.2444,39.5400,72,95,16119
2.2923,0.2542,39.3500,72,95,16123
2.2874,0.2493,39.6700,72,95,16126
2.3216,0.2493,39.5400,72,95,16130
2.3754,0.2590,39.6000,72,95,16133
2.3509,0.2493,39.5100,72,95,16137
2.3900,0.2493,39.4800,72,95,16140
2.3705,0.2542,39.5400,72,95,16143
2.4242,0.2493,39.5100,72,95,16146
2.4487,0.2493,39.4400,72,95,16150
2.4242,0.2493,39.5400,72,95,16153
2.4731,0.2493,39.3800,72,95,16156
2.3998,0.2444,39.5400,72,95,16159
2.3851,0.2590,39.5100,72,95,16163
2.4145,0.2590,39.4400,72,95,16166
2.3412,0.2493,39.5100,72,95,16169
2.3118,0.2542,39.3800,72,95,16173
2.2141,0.2542,39.5100,72,95,16177
2.1359,0.2444,39.6700,72,95,16180
2.0919,0.2542,39.4400,72,95,16183
2.0039,0.2493,39.5400,72,95,16186
1.9501,0.2493,39.3800,72,95,16190
1.8426,0.2493,39.5100,72,95,16193
1.7546,0.2444,39.5400,72,95,16196
1.7058,0.2542,39.4400,72,95,16199
1.6227,0.2590,39.4400,72,95,16203
1.5934,0.2493,39.4100,72,95,16206
1.5445,0.2493,39.6700,72,95,16209
1.5152,0.2493,39.5400,72,95,16212
1.5005,0.2639,39.3800,72,95,16217
1.4467,0.2444,39.5100,72,95,16220
1.4370,0.2493,39.5400,72,95,16223
1.4125,0.2493,39.5100,72,95,16226
1.4076,0.2493,39.5400,72,95,16230
1.4370,0.2493,39.4100,72,95,16233
1.4027,0.2493,39.5400,72,95,16236
1.4125,0.2493,39.4100,72,95,16239
1.3978,0.2444,38.6500,72,95,16243
1.4223,0.2493,39.5400,72,95,16246
1.4663,0.2590,39.4400,72,95,16249
1.4614,0.2542,39.5100,72,95,16252
1.4809,0.2493,39.4800,72,95,16257
1.4614,0.2542,39.5400,72,95,16260
1.4809,0.2444,39.6400,72,95,16263
1.5249,0.2590,39.3800,72,95,16266
1.5347,0.2542,39.5100,72,95,16270
1.5494,0.2493,39.4100,72,95,16273
1.5249,0.2493,39.5400,72,95,16276
1.5249,0.2444,39.5100,72,95,16279
1.5738,0.2542,39.4100,72,95,16283
1.5689,0.2542,39.5100,72,95,16286
1.6129,0.2493,39.3800,72,95,16289
1.5934,0.2542,39.5400,72,95,16292
1.5934,0.2493,39.5400,72,95,16296
1.6227,0.2542,39.4400,72,95,16300
1.6227,0.2493,39.5100,72,95,16303
1.6520,0.2444,39.4100,72,95,16306
1.6471,0.2542,39.5400,72,95,16310
1.6569,0.2493,39.4100,72,95,16313
1.6862,0.2590,39.3800,72,95,16316
1.6422,0.2493,39.5100,72,95,16319
1.6667,0.2542,39.4100,72,95,16323
1.6618,0.2542,39.5400,72,95,16326
1.6862,0.2493,38.7700,72,95,16329
1.7302,0.2590,39.4100,72,95,16332
1.7107,0.2493,39.5100,72,95,16336
1.7253,0.2444,39.4100,72,95,16339
1.6960,0.2493,39.4100,72,95,16343
1.7058,0.2493,39.7700,72,95,16347
1.7449,0.2590,39.4100,72,95,16350
1.7351,0.2542,39.5100,72,95,16353
1.7498,0.2786,39.4100,72,95,16356
1.7204,0.2395,39.5400,72,95,16360
1.7204,0.2444,39.5700,72,95,16363
1.7449,0.2590,39.3800,72,95,16366
1.7058,0.2493,39.5400,72,95,16369
1.7351,0.2542,39.4100,72,95,16373
1.6813,0.2493,39.5400,72,95,16376
1.6764,0.2835,39.5100,72,95,16379
1.7107,0.2542,39.4100,72,95,16382
1.7009,0.2493,39.5100,72,95,16387
1.7351,0.2542,39.4100,72,95,16390
1.7058,0.2542,39.5400,72,95,16393
1.7009,0.2493,39.5100,72,95,16396
1.7302,0.2542,39.6000,72,95,16400
1.7155,0.2493,39.5100,72,95,16403
1.7498,0.2493,39.4400,72,95,16406
1.7400,0.2493,39.5700,72,95,16409
1.7449,0.2493,39.5400,72,95,16413
1.7791,0.2590,39.4400,72,95,16416
1.7449,0.2493,39.5400,72,95,16419
1.7791,0.2493,39.4100,72,95,16422
1.7742,0.2444,39.5100,72,95,16427
1.7986,0.2493,39.5400,72,95,16430
1.8524,0.2590,39.5400,72,95,16433
1.8524,0.2493,39.5100,72,95,16436
1.8817,0.2395,39.4100,72,95,16440
1.8035,0.2395,39.5700,72,95,16443
1.7742,0.2493,39.5400,72,95,16446
1.7840,0.2590,39.5400,72,95,16449
1.7400,0.2542,39.5100,72,95,16453
1.7302,0.2590,39.4100,72,95,16456
1.6960,0.2493,39.5100,72,95,16459
1.7009,0.2444,39.5400,72,95,16462
1.7400,0.2590,39.3800,72,95,16466
1.7302,0.2542,39.5100,72,95,16470
1.7498,0.2493,39.4100,72,95,16473
1.7155,0.2493,39.5400,72,95,16476
1.7155,0.2444,39.5400,72,95,16480
1.7546,0.2493,39.4100,72,95,16483
1.7791,0.2493,39.5100,72,95,16486
1.7889,0.2542,39.4100,72,95,16489
1.7693,0.2493,39.5400,72,95,16493
1.7644,0.2444,39.6000,72,95,16496
1.7742,0.2590,39.4400,72,95,16499
1.7693,0.2395,39.4800,72,95,16502
1.7937,0.2542,39.4100,72,95,16506
1.8035,0.2884,39.5100,72,95,16509
1.8280,0.2493,39.5700,72,95,16513
1.8719,0.2639,39.3800,72,95,16516
1.9110,0.2542,39.4100,72,95,16521
1.8817,0.2493,38.6800,72,95,16524
1.8964,0.2444,39.4100,72,95,16528
1.8915,0.2395,39.5400,72,95,16531
1.8719,0.2590,39.5400,72,95,16534
1.9062,0.2493,39.8300,72,95,16537
1.9013,0.2493,39.5400,72,95,16541
1.9306,0.2542,39.4400,72,95,16544
1.9159,0.2444,39.5700,72,95,16547
1.9159,0.2444,39.3800,72,95,16550
1.9550,0.2590,39.4100,72,95,16555
1.9159,0.2493,39.5100,72,95,16558
1.9453,0.2493,39.4100,72,95,16561
1.8719,0.2444,39.5100,72,95,16564
1.8524,0.2493,39.6400,72,95,16568
1.8573,0.2688,39.4100,72,95,16571
1.8280,0.2493,39.0600,72,95,16574
1.8377,0.2493,39.4400,72,95,16577
1.7889,0.2444,39.5400,72,95,16581
1.7937,0.2444,39.5400,72,95,16584
1.7498,0.2688,39.4100,72,95,16587
1.7449,0.2493,39.5400,72,95,16590
1.7937,0.2297,39.4100,72,95,16594
1.7693,0.2542,39.5700,72,95,16598
1.7742,0.2444,39.5400,72,95,16601
1.7889,0.2590,39.4100,72,95,16604
1.7351,0.2444,39.4800,72,95,16608
1.7546,0.2444,39.4400,72,95,16611
1.7009,0.2542,39.4800,72,95,16614
1.6373,0.2542,39.5700,72,95,16617
1.5934,0.2639,39.4800,72,95,16621
1.5445,0.2493,39.5700,72,95,16624
1.6373,0.2444,39.4100,72,95,16627
1.7986,0.2444,39.5100,72,95,16630
2.1261,0.2444,39.5400,72,95,16634
2.5709,0.2444,39.4100,72,95,16637
2.9961,0.2493,39.6400,72,95,16641
3.4555,0.2493,39.4100,72,95,16644
3.7488,0.2444,39.5400,72,95,16648
3.9443,0.2395,39.5400,72,95,16651
3.9345,0.2590,39.4400,72,95,16654
3.5777,0.2493,39.4400,72,95,16657
3.1525,0.2493,39.4100,72,95,16661
2.5709,0.2395,39.5100,72,95,16664
2.0821,0.2444,39.5400,72,95,16667
1.7595,0.2493,39.4100,72,95,16670
1.5445,0.2493,39.5400,72,95,16674
1.4809,0.2493,39.4400,72,95,16677
1.4272,0.2444,39.5100,72,95,16680
1.4321,0.2444,39.5400,72,95,16684
1.4663,0.2493,39.5100,72,95,16688
1.5005,0.2444,39.5400,72,95,16691
1.5787,0.2493,39.4400,72,95,16694
1.5885,0.2493,39.5400,72,95,16697
1.6129,0.2590,39.5400,72,95,16701
1.6373,0.2590,39.5700,72,95,16704
1.6080,0.2444,39.5400,72,95,16707
1.6569,0.2542,39.4400,72,95,16710
1.6520,0.2444,39.4800,72,95,16714
1.6813,0.2493,39.5400,72,95,16717
1.7107,0.2542,39.4400,72,95,16720
1.6911,0.2493,39.5100,72,95,16723
1.7155,0.2542,39.4100,72,95,16728
1.6960,0.2444,39.6000,72,95,16731
1.7204,0.2297,39.5400,72,95,16734
1.7546,0.2590,39.4400,72,95,16737
1.7498,0.2493,39.4400,72,95,16741
1.7742,0.2542,39.4100,72,95,16744
1.7498,0.2444,39.6400,72,95,16747
1.7644,0.2444,39.5700,72,95,16750
1.8182,0.2590,39.4100,72,95,16754
1.8084,0.2493,39.5700,72,95,16757
1.8524,0.2590,39.4400,72,95,16760
1.8231,0.2297,39.5100,72,95,16763
1.8524,0.2444,39.5100,72,95,16768
1.8719,0.2590,39.4400,72,95,16771
1.8719,0.2493,39.5700,72,95,16774
1.9208,0.2590,39.4400,72,95,16777
1.8915,0.2493,39.7000,72,95,16781
1.8915,0.2444,39.5700,72,95,16784
1.9110,0.2493,39.7300,72,95,16787
1.9013,0.2444,39.5400,72,95,16790
1.9599,0.2444,39.4100,72,95,16794
1.9501,0.2493,39.5700,72,95,16797
1.9746,0.2493,39.5700,72,95,16800
2.0039,0.2590,39.4100,72,95,16803
1.9746,0.2444,39.5400,72,95,16807
2.0235,0.2542,39.5100,72,95,16811
2.0186,0.2493,39.5400,72,95,16814
2.0528,0.2395,39.5400,72,95,16817
2.0870,0.2835,39.4400,72,95,16821
2.0674,0.2493,39.5400,72,95,16824
2.1017,0.2590,39.3800,72,95,16827
2.0772,0.2493,39.5400,72,95,16830
2.1065,0.2444,39.5400,72,95,16834
2.1505,0.2639,39.5400,72,95,16837
2.1505,0.2493,39.4400,72,95,16840
2.1896,0.2493,39.4100,72,95,16843
2.1652,0.2444,39.5400,72,95,16847
2.2190,0.2542,39.5700,72,95,16850
2.2678,0.2835,39.3500,72,95,16854
2.2630,0.2493,39.5100,72,95,16857
2.3216,0.2542,39.3800,72,95,16861
2.2972,0.2493,39.5400,72,95,16864
2.3118,0.2493,39.6000,72,95,16867
2.3705,0.2590,39.4100,72,95,16870
2.3803,0.2493,39.5100,72,95,16874
2.4585,0.2542,39.4400,72,95,16877
2.4194,0.2639,39.5400,72,95,16880
2.4291,0.2786,39.5400,72,95,16883
2.4682,0.2542,39.5400,72,95,16887
2.4585,0.2444,39.5700,72,95,16890
2.5024,0.2444,39.4100,72,95,16893
2.4731,0.2542,39.4800,72,95,16897
2.4682,0.2493,39.6000,72,95,16901
2.4878,0.2590,39.3800,72,95,16904
2.4096,0.2493,39.5100,72,95,16907
2.4096,0.2493,39.3800,72,95,16910
2.3509,0.2493,39.7700,72,95,16914
2.3069,0.2493,39.5400,72,95,16917
2.2727,0.2688,39.4100,72,95,16920
2.1652,0.2493,39.3500,72,95,16923
2.1017,0.2493,39.4100,72,95,16927
2.0039,0.2542,39.5400,72,95,16930
1.9159,0.2444,39.5100,72,95,16933
1.8768,0.2639,39.5100,72,95,16936
1.7791,0.2493,39.6000,72,95,16941
1.7155,0.2542,39.4400,72,95,16944
1.6227,0.2297,39.5100,72,95,16947
1.5738,0.2395,39.5400,72,95,16950
1.5640,0.2981,39.3500,72,95,16954
1.5005,0.2493,39.5100,72,95,16957
1.4858,0.2493,39.4100,72,95,16960
1.4272,0.2493,39.5400,72,95,16963
1.4076,0.2395,39.5400,72,95,16967
1.4223,0.2590,39.3800,72,95,16970
1.4076,0.2493,39.6400,72,95,16973
1.4272,0.2493,39.3800,72,95,16976
1.4076,0.2493,39.5400,72,95,16980
1.4076,0.2444,39.5400,72,95,16984
1.4272,0.2737,39.4100,72,95,16987
1.4223,0.2493,39.4800,72,95,16990
1.4516,0.2493,39.4100,72,95,16994
1.4516,0.2297,39.5400,72,95,16997
1.4761,0.2493,39.5700,72,95,17000
1.5054,0.2639,39.3800,72,95,17003
1.4712,0.2493,39.5400,72,95,17007
1.5054,0.2493,39.4100,72,95,17010
1.5103,0.2493,39.5400,72,95,17013
1.5640,0.2444,39.5400,72,95,17016
1.5689,0.2688,39.4100,72,95,17020
1.5543,0.2493,39.6000,72,95,17024
1.5689,0.2493,39.4100,72,95,17027
1.5591,0.2493,39.5400,72,95,17030
1.5689,0.2444,39.5400,72,95,17034
1.6178,0.2590,39.5700,72,95,17037
1.6080,0.2542,39.7000,72,95,17040
1.6325,0.2493,39.3800,72,95,17043
1.5982,0.2297,39.5400,72,95,17047
1.6129,0.2493,39.5400,72,95,17050
1.6618,0.2590,39.3500,72,95,17053
1.6422,0.2639,39.5100,72,95,17056
1.6716,0.2542,39.5100,72,95,17060
1.6471,0.2493,39.5400,72,95,17063
1.6520,0.2395,39.5400,72,95,17067
1.6862,0.2493,39.4100,72,95,17070
1.6813,0.2542,39.4800,72,95,17074
1.7155,0.2493,39.4400,72,95,17077
1.6862,0.2493,39.5400,72,95,17080
1.6862,0.2444,39.5400,72,95,17083
1.7058,0.2542,39.4800,72,95,17087
1.6911,0.2493,39.5700,72,95,17090
1.7204,0.2493,39.4400,72,95,17093
1.7107,0.2493,39.5400,72,95,17096
1.7449,0.2493,39.5400,72,95,17100
1.7693,0.2639,39.3800,72,95,17103
1.7009,0.2493,39.5100,72,95,17106
1.7253,0.2493,39.4100,72,95,17110
1.7253,0.2493,39.5400,72,95,17114
1.7351,0.2493,39.5700,72,95,17117
1.7791,0.2542,39.4400,72,95,17120
1.7351,0.2493,39.5100,72,95,17124
1.7498,0.2493,38.6200,72,95,17127
1.7253,0.2444,39.5400,72,95,17130
1.7204,0.2395,39.5100,72,95,17135
1.7302,0.2395,39.5400,72,95,17138
1.7546,0.2590,39.4100,72,95,17141
1.7253,0.2493,39.6000,72,95,17144
1.7595,0.2493,39.3800,72,95,17148
1.7204,0.2395,39.4800,72,95,17152
1.7302,0.2444,39.5100,72,95,17155
1.7546,0.2542,39.4100,72,95,17158
1.7595,0.2493,39.5400,72,95,17162
1.8035,0.2542,39.4100,72,95,17165
1.7644,0.2493,39.4800,72,95,17168
1.7595,0.2444,39.6400,72,95,17171
1.7693,0.2493,39.4400,72,95,17175
1.7595,0.2444,39.5100,72,95,17178
1.8035,0.2542,39.3800,72,95,17181
1.7840,0.2786,39.5100,72,95,17184
1.7889,0.2444,39.6000,72,95,17188
1.7986,0.2493,39.4400,72,95,17191
1.7644,0.2297,39.5100,72,95,17195
1.7986,0.2542,39.3800,72,95,17198
1.7791,0.2444,39.4800,72,95,17202
1.7986,0.2493,39.5700,72,95,17205
1.8133,0.2542,39.4400,72,95,17208
1.7889,0.2444,39.5400,72,95,17211
1.8133,0.2444,39.3500,72,95,17215
1.7791,0.2395,39.4800,72,95,17218
1.7986,0.2444,39.5100,72,95,17221
1.8182,0.2493,39.4100,72,95,17224
1.8133,0.2493,39.5700,72,95,17228
1.8524,0.2493,39.6000,72,95,17231
1.8280,0.2493,39.5400,72,95,17234
1.8475,0.2444,39.6000,72,95,17238
1.9013,0.2639,39.4100,72,95,17242
1.8719,0.2444,39.5400,72,95,17245
1.9257,0.2493,39.5400,72,95,17248
1.8866,0.2297,39.4800,72,95,17251
1.9013,0.2493,39.5400,72,95,17255
1.9355,0.2542,39.4400,72,95,17258
1.9355,0.2590,39.5100,72,95,17261
1.9844,0.2493,39.4100,72,95,17264
1.9404,0.2542,39.5100,72,95,17268
1.9501,0.2395,39.5400,72,95,17271
1.9453,0.2542,39.5700,72,95,17274
1.9404,0.2493,39.7300,72,95,17277
1.9795,0.2297,39.4100,72,95,17282
1.9306,0.2493,39.4800,72,95,17285
1.9257,0.2542,39.5400,72,95,17288
1.9208,0.2542,39.4100,72,95,17292
1.8524,0.2493,39.5700,72,95,17295
1.8719,0.2493,39.4100,72,95,17298
1.8328,0.2444,39.4800,72,95,17301
1.8231,0.2444,39.5100,72,95,17305
1.8133,0.2542,39.4800,72,95,17308
1.7791,0.2542,39.5100,72,95,17311
1.7889,0.2542,39.4100,72,95,17314
1.7449,0.2346,39.5100,72,95,17318
1.7498,0.2444,39.5100,72,95,17321
1.7644,0.2493,39.4800,72,95,17325
1.7449,0.2297,39.5400,72,95,17328
1.7644,0.2542,39.4100,72,95,17332
1.7302,0.2395,39.5700,72,95,17335
1.7351,0.2835,39.5100,72,95,17338
1.7351,0.2542,39.4400,72,95,17341
1.6618,0.2493,39.4800,72,95,17345
1.6178,0.2297,39.4100,72,95,17348
1.5591,0.2444,39.4800,72,95,17351
1.5640,0.2493,39.5700,72,95,17354
1.7107,0.2493,39.4400,72,95,17358
1.9501,0.2493,39.5400,72,95,17361
2.3509,0.2297,39.4100,72,95,17364
2.7273,0.2444,39.5100,72,95,17368
3.1378,0.2444,39.5100,72,95,17372
3.5191,0.2688,39.5100,72,95,17375
3.7488,0.2444,39.5400,72,95,17378
3.8612,0.2493,39.3800,72,95,17381
3.5973,0.2493,39.5100,72,95,17385
3.2014,0.2493,39.5400,72,95,17388
2.7224,0.2542,39.4400,72,95,17391
2.1848,0.2639,39.5400,72,95,17394
1.8280,0.2444,39.4400,72,95,17398
1.5494,0.2395,39.4400,72,95,17401
1.4370,0.2493,39.5100,72,95,17404
1.4027,0.2542,39.4800,72,95,17408
1.3881,0.2493,39.5400,72,95,17412
1.4321,0.2297,39.3800,72,95,17415
1.4761,0.2444,39.5100,72,95,17418
1.5298,0.2493,39.5400,72,95,17421
1.5591,0.2542,39.5100,72,95,17425
1.5689,0.2444,39.4400,72,95,17428
1.6080,0.2444,39.4100,72,95,17431
1.5934,0.2493,39.5400,72,95,17434
1.6129,0.2395,39.5400,72,95,17438
1.6813,0.2493,39.4400,72,95,17441
1.6373,0.2493,39.5700,72,95,17444
1.6716,0.2493,39.4800,72,95,17448
1.6471,0.2444,39.4800,72,95,17452
1.6618,0.2444,39.5400,72,95,17455
1.6862,0.2542,39.4400,72,95,17458
1.7155,0.2395,39.5100,72,95,17462
1.7351,0.2639,39.3800,72,95,17465
1.7107,0.2444,39.5100,72,95,17468
1.7155,0.2444,39.5400,72,95,17471
1.7253,0.2493,39.4400,72,95,17475
1.7302,0.2444,39.5100,72,95,17478
1.7791,0.2688,39.0900,72,95,17481
1.7693,0.2493,39.7300,72,95,17484
1.7889,0.2444,39.5400,72,95,17488
1.8182,0.2493,39.4400,72,95,17491
1.8035,0.2542,39.5400,72,95,17495
1.8377,0.2542,39.4100,72,95,17498
1.8328,0.2444,39.4800,72,95,17502
1.8524,0.2444,39.5700,72,95,17505
1.8768,0.2542,39.4400,72,95,17508
1.8622,0.2493,39.6000,72,95,17511
1.9013,0.2542,39.3200,72,95,17515
1.8719,0.2444,39.5100,72,95,17518
1.9013,0.2493,39.5100,72,95,17521
1.9257,0.2542,39.4400,72,95,17524
1.9159,0.2444,39.5100,72,95,17528
1.9501,0.2493,39.3500,72,95,17531
1.9550,0.2444,39.5400,72,95,17534
1.9550,0.2444,39.5400,72,95,17538
1.9892,0.2542,39.4400,72,95,17542
1.9844,0.2493,39.5100,72,95,17545
2.0332,0.2493,39.4100,72,95,17548
2.0088,0.2493,39.4400,72,95,17551
2.0283,0.2444,39.5400,72,95,17555
2.0626,0.2493,39.5100,72,95,17558
2.0626,0.2493,39.5400,72,95,17561
2.1163,0.2493,39.4100,72,95,17564
2.0919,0.2444,39.5700,72,95,17568
2.1114,0.2444,39.5400,72,95,17571
2.1359,0.2590,39.4100,72,95,17574
2.1505,0.2493,39.6000,72,95,17577
2.2141,0.2493,39.4100,72,95,17582
2.2092,0.2493,39.6000,72,95,17585
2.2434,0.2493,39.5400,72,95,17588
2.2776,0.2542,39.3800,72,95,17591
2.2727,0.2444,39.6700,72,95,17595
2.3363,0.2444,39.4100,72,95,17598
2.3460,0.2444,39.4800,72,95,17601
2.3558,0.2444,39.5700,72,95,17604
2.3949,0.2590,39.4400,72,95,17608
2.3949,0.2444,39.5100,72,95,17611
2.4389,0.2493,39.4400,72,95,17614
2.4194,0.2395,39.5100,72,95,17617
2.4389,0.2444,39.5400,72,95,17622
2.4731,0.2493,39.4100,72,95,17625
2.4585,0.2493,39.5400,72,95,17628
2.4829,0.2542,39.4100,72,95,17631
2.4145,0.2346,39.5100,72,95,17635
2.3949,0.2444,39.6000,72,95,17638
2.3900,0.2542,39.4400,72,95,17641
2.3021,0.2297,39.5400,72,95,17644
2.2727,0.2444,39.3800,72,95,17648
2.1603,0.2493,39.4800,72,95,17651
2.0821,0.2444,39.5700,72,95,17654
2.0235,0.2493,39.4400,72,95,17657
1.9208,0.2493,39.5700,72,95,17661
1.8719,0.2493,39.3500,72,95,17665
1.7498,0.2444,39.5400,72,95,17668
1.6764,0.2444,39.4400,72,95,17671
1.6129,0.2542,39.4400,72,95,17675
1.5445,0.2444,39.5100,72,95,17678
1.5249,0.2493,39.9300,72,95,17681
1.4614,0.2493,39.5700,72,95,17684
1.4321,0.2444,39.5400,72,95,17688
1.4272,0.2297,39.4100,72,95,17691
1.3685,0.2493,39.5700,72,95,17694
1.3832,0.2395,39.4100,72,95,17697
1.3490,0.2444,39.4400,72,95,17701
1.3539,0.2297,39.5100,72,95,17704
1.3685,0.2542,39.5100,72,95,17708
1.3539,0.2493,39.5100,72,95,17711
1.3881,0.2444,39.4100,72,95,17715
1.3636,0.2493,39.5700,72,95,17718
1.3832,0.2493,39.5400,72,95,17721
1.4125,0.2493,39.6000,72,95,17724
1.4125,0.2493,39.5100,72,95,17728
1.4565,0.2493,39.4400,72,95,17731
1.4370,0.2395,39.5100,72,95,17734
1.4663,0.2444,39.5400,72,95,17737
1.5054,0.2542,39.3200,72,95,17741
1.5494,0.2542,39.4800,72,95,17744
1.5494,0.2493,39.5400,72,95,17748
1.5885,0.2542,39.3200,72,95,17752
1.5445,0.2493,39.4100,72,95,17755
1.5396,0.2444,39.5400,72,95,17758
1.5689,0.2493,39.4800,72,95,17762
1.5543,0.2395,39.5400,72,95,17765
1.6129,0.2542,39.2800,72,95,17768
1.5885,0.2444,39.6700,72,95,17771
1.6129,0.2444,39.5400,72,95,17775
1.6422,0.2590,39.4400,72,95,17778
1.6129,0.2444,39.5400,72,95,17781
1.6667,0.2493,39.2800,72,95,17784
1.6520,0.2493,39.8000,72,95,17788
1.6569,0.2444,39.5400,72,95,17792
1.6764,0.2542,39.5100,72,95,17795
1.6764,0.2395,39.5400,72,95,17798
1.7009,0.2590,39.2500,72,95,17802
1.6618,0.2493,39.4800,72,95,17805
1.6911,0.2444,39.5700,72,95,17808
1.7009,0.2444,39.5700,72,95,17811
1.6862,0.2493,39.5400,72,95,17815
1.7302,0.2493,39.3200,72,95,17818
1.6813,0.2395,39.5100,72,95,17821
1.6960,0.2786,39.5700,72,95,17824
1.7204,0.2542,39.4800,72,95,17828
1.6960,0.2444,39.5400,72,95,17831
1.7400,0.2493,39.2800,72,95,17835
1.7107,0.2493,39.4100,72,95,17838
1.7058,0.2493,39.6000,72,95,17842
1.7253,0.2542,39.5700,72,95,17845
1.7204,0.2444,39.5400,72,95,17848
1.7595,0.2493,39.2800,72,95,17851
1.7107,0.2493,39.4400,72,95,17855
1.7058,0.2444,39.5100,72,95,17858
1.7155,0.2542,39.4800,72,95,17861
1.7253,0.2493,39.5100,72,95,17864
1.7546,0.2737,39.3200,72,95,17868
1.7253,0.2444,39.5100,72,95,17871
1.7302,0.2444,39.7000,72,95,17874
1.7351,0.2590,39.4800,72,95,17878
1.7058,0.2297,39.5100,72,95,17882
1.7498,0.2590,39.3200,72,95,17885
1.7253,0.2542,39.4100,72,95,17888
1.7155,0.2444,39.5700,72,95,17891
1.7302,0.2542,39.4800,72,95,17895
1.7155,0.2297,39.5400,72,95,17898
1.7595,0.2542,39.2800,72,95,17901
1.7155,0.2444,39.4800,72,95,17904
1.7253,0.2444,39.6400,72,95,17908
1.7546,0.2542,39.4800,72,95,17911
1.7449,0.2493,39.5700,72,95,17914
1.7840,0.2590,39.3200,72,95,17917
1.7400,0.2444,39.5100,72,95,17922
1.7546,0.2444,39.6700,72,95,17925
1.7644,0.2590,39.4800,72,95,17928
1.7498,0.2493,39.5400,72,95,17931
1.7840,0.2590,39.3200,72,95,17935
1.7449,0.2493,39.4100,72,95,17938
1.7351,0.2444,39.5400,72,95,17941
1.7449,0.2542,39.5100,72,95,17945
1.7449,0.2297,39.5400,72,95,17948
1.7840,0.2542,39.3500,72,95,17951
1.7400,0.2590,39.5100,72,95,17954
1.7400,0.2444,39.5400,72,95,17957
1.7644,0.2639,39.4400,72,95,17961
1.7644,0.2444,39.5400,72,95,17965
1.8280,0.2493,39.3200,72,95,17968
1.8084,0.2297,39.5700,72,95,17971
1.8328,0.2590,39.5400,72,95,17975
1.8524,0.2542,39.3800,72,95,17978
1.8280,0.2444,39.6400,72,95,17981
1.8817,0.2493,39.2800,72,95,17984
1.8671,0.2395,39.4400,72,95,17988
1.8671,0.2590,39.5700,72,95,17991
1.8866,0.2444,39.4400,72,95,17994
1.8817,0.2493,39.5400,72,95,17997
1.9355,0.2493,39.3500,72,95,18001
1.8964,0.2444,39.4400,72,95,18004
1.9062,0.2444,39.5700,72,95,18008
1.9257,0.2542,39.4400,72,95,18011
1.9062,0.2493,39.5400,72,95,18015
1.9257,0.2493,39.3200,72,95,18018
1.8719,0.2444,39.5400,72,95,18021
1.8573,0.2444,39.5400,72,95,18024
1.8573,0.2542,39.4400,72,95,18028
1.8084,0.2493,39.1900,72,95,18031
1.8182,0.2542,39.3200,72,95,18034
1.8035,0.2444,39.4800,72,95,18038
1.7400,0.2444,39.4800,72,95,18041
1.7449,0.2542,39.4800,72,95,18044
1.7302,0.2493,39.6000,72,95,18048
1.7644,0.2493,39.3500,72,95,18052
1.7155,0.2493,39.4400,72,95,18055
1.6960,0.2395,39.5400,72,95,18058
1.7107,0.2542,39.4800,72,95,18061
1.7009,0.2444,39.6000,72,95,18065
1.7400,0.2542,39.3200,72,95,18068
1.7058,0.2395,39.5400,72,95,18071
1.6911,0.2444,39.5100,72,95,18074
1.6618,0.2542,39.4400,72,95,18078
1.5640,0.2444,39.5400,72,95,18081
1.5543,0.2542,39.3200,72,95,18084
1.5152,0.2542,39.4800,72,95,18087
1.5689,0.2493,39.5400,72,95,18092
1.7742,0.2737,39.4400,72,95,18095
2.0674,0.2444,39.6000,72,95,18098
2.5073,0.2542,39.3200,72,95,18101
2.9032,0.2444,39.4800,72,95,18105
3.3040,0.2737,39.5100,72,95,18108
3.6755,0.2542,39.5100,72,95,18111
3.8270,0.2297,39.5100,72,95,18114
3.8270,0.2542,39.2800,72,95,18118
3.4506,0.2444,39.5400,72,95,18121
2.9912,0.2444,39.5100,72,95,18124
2.4878,0.2542,39.4400,72,95,18127
2.0137,0.2542,39.5100,72,95,18131
1.6813,0.2444,39.2800,72,95,18135
1.4614,0.2493,39.4100,72,95,18138
1.3636,0.2444,39.6400,72,95,18141
1.3685,0.2542,39.5100,72,95,18145
1.3734,0.2444,39.5400,72,95,18148
1.4516,0.2542,39.3200,72,95,18151
1.4712,0.2542,39.4400,72,95,18154
1.5103,0.2444,39.5400,72,95,18158
1.5494,0.2542,39.4400,72,95,18161
1.5591,0.2297,39.5400,72,95,18164
1.5982,0.2542,39.3200,72,95,18167
1.5787,0.2395,39.5400,72,95,18171
1.5982,0.2493,39.5400,72,95,18174
1.6227,0.2542,39.5400,72,95,18178
1.6178,0.2444,39.6000,72,95,18181
1.6764,0.2542,39.3200,72,95,18185
1.6667,0.2542,39.4100,72,95,18188
1.6813,0.2444,39.4800,72,95,18191
1.7058,0.2933,39.4400,72,95,18194
1.7009,0.2444,39.5400,72,95,18198
1.7498,0.2493,39.3200,72,95,18201
1.7302,0.2395,39.4100,72,95,18204
1.7449,0.2542,39.5100,72,95,18207
1.7742,0.2493,39.5700,72,95,18211
1.7644,0.2493,39.5100,72,95,18214
1.8084,0.2542,39.3200,72,95,18217
1.7791,0.2493,39.5700,72,95,18221
1.7986,0.2639,39.4800,72,95,18225
1.8328,0.2542,39.4400,72,95,18228
1.8182,0.2493,39.7000,72,95,18231
1.8671,0.2542,39.3500,72,95,18234
1.8377,0.2542,39.4400,72,95,18238
1.8426,0.2493,39.5400,72,95,18241
1.8719,0.2542,39.4400,72,95,18244
1.8768,0.2493,39.7000,72,95,18247
1.9355,0.2493,39.3200,72,95,18251
1.9013,0.2493,39.5100,72,95,18254
1.9062,0.2346,39.5400,72,95,18257
1.9306,0.2493,39.4400,72,95,18260
1.9257,0.2444,39.5100,72,95,18265
1.9795,0.2542,39.3200,72,95,18268
1.9648,0.2395,39.5100,72,95,18271
1.9697,0.2444,39.6000,72,95,18274
1.9990,0.2542,39.4400,72,95,18278
1.9844,0.2444,39.5100,72,95,18281
2.0577,0.2493,39.4400,72,95,18284
2.0381,0.2493,39.4100,72,95,18287
2.0528,0.2444,39.5400,72,95,18291
2.0870,0.2493,39.4400,72,95,18294
2.0821,0.2395,39.5400,72,95,18297
2.1359,0.2493,39.3500,72,95,18300
2.1163,0.2444,39.4800,72,95,18305
2.1603,0.2444,39.5400,72,95,18308
2.1799,0.2542,39.4100,72,95,18311
2.1848,0.2493,39.5400,72,95,18314
2.2434,0.2297,39.3800,72,95,18318
2.2287,0.2493,39.5100,72,95,18321
2.2678,0.2542,39.5400,72,95,18324
2.3069,0.2542,39.3800,72,95,18327
2.3021,0.2444,39.8000,72,95,18331
2.3705,0.2493,39.3200,72,95,18334
2.3900,0.2493,39.4400,72,95,18337
2.3803,0.2444,39.4400,72,95,18340
2.4291,0.2542,39.4800,72,95,18344
2.4340,0.2444,39.5400,72,95,18348
2.5073,0.2542,39.3500,72,95,18351
2.4585,0.2542,39.3200,72,95,18354
2.4291,0.2444,39.5100,72,95,18358
2.3900,0.2395,39.5400,72,95,18361
2.3460,0.2737,39.5100,72,95,18365
2.2581,0.2444,39.4100,72,95,18368
2.2581,0.2542,39.2800,72,95,18371
2.1603,0.2542,39.4400,72,95,18374
2.0674,0.2444,39.6000,72,95,18377
1.9990,0.2542,39.4800,72,95,18381
1.9257,0.2444,39.5400,72,95,18384
1.8671,0.2639,39.2800,72,95,18387
1.7498,0.2590,39.4800,72,95,18391
1.6862,0.2444,39.5400,72,95,18395
1.6471,0.2493,39.4800,72,95,18398
1.5738,0.2444,39.5400,72,95,18401
1.5591,0.2542,39.4100,72,95,18404
1.4809,0.2395,39.5100,72,95,18408
1.4614,0.2444,39.5400,72,95,18411
1.4565,0.2542,39.4800,72,95,18414
1.4272,0.2444,39.5400,72,95,18418
1.4467,0.2542,39.2800,72,95,18421
1.4125,0.2786,39.4400,72,95,18424
1.4027,0.2444,39.5400,72,95,18427
1.4174,0.2493,38.8700,72,95,18432
1.4174,0.2297,39.5400,72,95,18435
1.4663,0.2493,39.3200,72,95,18438
1.4321,0.2542,39.4800,72,95,18441
1.4321,0.2444,39.5700,72,95,18445
1.4516,0.2542,39.4800,72,95,18448
1.4516,0.2444,39.5400,72,95,18451
1.5054,0.2542,39.2800,72,95,18454
1.4761,0.2444,39.5100,72,95,18458
1.5103,0.2395,39.5700,72,95,18461
1.5005,0.2542,39.4800,72,95,18464
1.4907,0.2444,39.5400,72,95,18467
1.5445,0.2542,39.2800,72,95,18471
1.5347,0.2493,39.4400,72,95,18475
1.5396,0.2444,39.6000,72,95,18478
1.5591,0.2590,39.6000,72,95,18481
1.5591,0.2444,39.5400,72,95,18485
1.6129,0.2542,39.2800,72,95,18488
1.5787,0.2493,39.4800,72,95,18491
1.5885,0.2542,39.5700,72,95,18494
1.6178,0.2590,39.3500,72,95,18498
1.6080,0.2493,39.5400,72,95,18501
1.6569,0.2493,39.3200,72,95,18504
1.6227,0.2444,39.5700,72,95,18507
1.6422,0.2444,39.5700,72,95,18511
1.6667,0.2542,39.4800,72,95,18514
1.6520,0.2444,39.5700,72,95,18518
1.7009,0.2297,39.2800,72,95,18521
1.6716,0.2542,39.4100,72,95,18525
1.6667,0.2444,39.5100,72,95,18528
1.6862,0.2688,39.4800,72,95,18531
1.6862,0.2444,39.6000,72,95,18534
1.7302,0.2542,39.2800,72,95,18538
1.6862,0.2542,39.5100,72,95,18541
1.6813,0.2639,39.5100,72,95,18544
1.6960,0.2542,39.4800,72,95,18547
1.6813,0.2444,39.5400,72,95,18551
1.7644,0.2542,39.2800,72,95,18554
1.6960,0.2395,39.5100,72,95,18557
1.7058,0.2444,39.4100,72,95,18561
1.7155,0.2542,39.4800,72,95,18565
1.6862,0.2444,39.5400,72,95,18568
1.7498,0.2542,39.3200,72,95,18571
1.7155,0.2542,39.4100,72,95,18574
1.7107,0.2444,39.5400,72,95,18578
1.7253,0.2542,39.4400,72,95,18581
1.7107,0.2444,39.5100,72,95,18584
1.7449,0.2542,39.2800,72,95,18587
1.7155,0.2542,39.4800,72,95,18591
1.7204,0.2444,39.4800,72,95,18594
1.7449,0.2542,39.4800,72,95,18597
1.7302,0.2493,39.5400,72,95,18600
1.7693,0.2542,39.2800,72,95,18605
1.7253,0.2346,39.4800,72,95,18608
1.7449,0.2444,39.4100,72,95,18611
1.7546,0.2542,39.4800,72,95,18614
1.7449,0.2493,39.5700,72,95,18618
1.7889,0.2542,39.2800,72,95,18621
1.7644,0.2542,39.4400,72,95,18624
1.7498,0.2444,39.5400,72,95,18627
1.7693,0.2493,39.3500,72,95,18631
1.7693,0.2444,39.5400,72,95,18634
1.8573,0.2542,39.2800,72,95,18637
1.7791,0.2542,39.4800,72,95,18640
1.7742,0.2444,39.4400,72,95,18644
1.7937,0.2542,39.4400,72,95,18648
1.7644,0.2444,39.5400,72,95,18651
1.8328,0.2542,39.3200,72,95,18654
1.7840,0.2395,39.5100,72,95,18658
1.7937,0.2444,39.6000,72,95,18661
1.7986,0.2542,39.4800,72,95,18664
1.7742,0.2444,39.5400,72,95,18668
1.8426,0.2542,39.3200,72,95,18671
1.8035,0.2639,39.4400,72,95,18674
1.8035,0.2444,39.5400,72,95,18677
1.8133,0.2542,39.5400,72,95,18681
1.7986,0.2297,39.5400,72,95,18684
1.8377,0.2590,39.2800,72,95,18688
1.7986,0.2688,39.5100,72,95,18691
1.8035,0.2444,39.5400,72,95,18695
1.8231,0.2542,39.4800,72,95,18698
1.8182,0.2444,39.5400,72,95,18701
1.8426,0.2542,39.2800,72,95,18704
1.7986,0.2444,39.4800,72,95,18708
1.8182,0.2444,39.4800,72,95,18711
1.8426,0.2542,39.4800,72,95,18714
1.8328,0.2444,39.5400,72,95,18717
1.8915,0.2493,39.3200,72,95,18721
1.8719,0.2639,39.4400,72,95,18724
1.8622,0.2444,39.5400,72,95,18727
1.8817,0.2493,39.4800,72,95,18731
1.8768,0.2444,39.5700,72,95,18735
1.9355,0.2542,39.2800,72,95,18738
1.9257,0.2493,39.4800,72,95,18741
1.9208,0.2639,39.5700,72,95,18744
1.9501,0.2542,39.6400,72,95,18748
1.9355,0.2444,39.5400,72,95,18751
1.9892,0.2493,39.3200,72,95,18754
1.9501,0.2395,39.5100,72,95,18757
1.9453,0.2444,39.5700,72,95,18761
1.9404,0.2542,39.4800,72,95,18764
1.8964,0.2444,39.3200,72,95,18767
1.9208,0.2542,39.2800,72,95,18770
1.8964,0.2542,39.4400,72,95,18775
1.8328,0.2493,39.5400,72,95,18778
1.8231,0.2542,39.5100,72,95,18781
1.7889,0.2444,39.6000,72,95,18784
1.8035,0.2542,39.3500,72,95,18788
1.7595,0.2493,39.4800,72,95,18791
1.7498,0.2346,39.5400,72,95,18794
1.7595,0.2542,39.3500,72,95,18797
1.7302,0.2493,39.5400,72,95,18801
1.7937,0.2542,39.3500,72,95,18804
1.7155,0.2444,39.5100,72,95,18807
1.7302,0.2395,39.5100,72,95,18810
1.7400,0.2737,39.5100,72,95,18814
1.7155,0.2444,39.4100,72,95,18818
1.7351,0.2542,39.2800,72,95,18821
1.6716,0.2493,39.4400,72,95,18824
1.5934,0.2493,39.5400,72,95,18828
1.5787,0.2542,39.4800,72,95,18831
1.5298,0.2493,39.5100,72,95,18834
1.6520,0.2542,39.2800,72,95,18837
1.8133,0.2297,39.5100,72,95,18841
2.1359,0.2444,39.5100,72,95,18844
2.5660,0.2493,39.5700,72,95,18847
2.9765,0.2444,39.5700,72,95,18850
3.4800,0.2542,39.2800,72,95,18854
3.6461,0.2444,39.5100,72,95,18857
3.7537,0.2444,39.4800,72,95,18861
3.6119,0.2542,39.4800,72,95,18864
3.2209,0.2444,39.5700,72,95,18868
2.8006,0.2542,39.3200,72,95,18871
2.2483,0.2542,39.4400,72,95,18874
1.8084,0.2444,39.5100,72,95,18877
1.5298,0.2542,39.5700,72,95,18881
1.3636,0.2444,39.5100,72,95,18884
1.3490,0.2542,39.3200,72,95,18887
1.3343,0.2493,39.4800,72,95,18890
1.3832,0.2444,39.5400,72,95,18894
1.4321,0.2542,39.5100,72,95,18897
1.4614,0.2395,39.5400,72,95,18900
1.5396,0.2542,39.2800,72,95,18904
1.5347,0.2444,39.5400,72,95,18908
1.5689,0.2444,39.5400,72,95,18911
1.5885,0.2493,39.5100,72,95,18914
1.5934,0.2395,39.5400,72,95,18917
1.6422,0.2590,39.2800,72,95,18921
1.6178,0.2542,39.5400,72,95,18924
1.6227,0.2444,39.5400,72,95,18927
1.6471,0.2493,39.4800,72,95,18930
1.6618,0.2395,39.5100,72,95,18934
1.7058,0.2933,39.3200,72,95,18937
1.6813,0.2493,39.4800,72,95,18940
1.6911,0.2444,39.5400,72,95,18944
1.7058,0.2542,39.4800,72,95,18948
1.7498,0.2395,39.5400,72,95,18951
1.7742,0.2884,39.3200,72,95,18954
1.7449,0.2444,39.5100,72,95,18958
1.7644,0.2444,39.5400,72,95,18961
1.7791,0.2542,39.4800,72,95,18964
1.8133,0.2835,39.5100,72,95,18968
1.8084,0.2444,39.5400,72,95,18971
1.8671,0.2688,39.2800,72,95,18974
1.8182,0.2297,39.4800,72,95,18977
1.8280,0.2444,39.5100,72,95,18981
1.8426,0.2493,39.5100,72,95,18984
1.8524,0.2493,39.5400,72,95,18988
1.9550,0.2688,39.2800,72,95,18991
1.8817,0.2444,39.4100,72,95,18995
1.8964,0.2395,39.4800,72,95,18998
1.9110,0.2493,39.5700,72,95,19001
1.9208,0.2444,39.5400,72,95,19004
2.0235,0.2493,39.2500,72,95,19008
1.9501,0.2688,39.5100,72,95,19011
1.9648,0.2395,39.5100,72,95,19014
1.9844,0.2493,39.5400,72,95,19017
2.0039,0.2444,39.5400,72,95,19021
2.0821,0.2590,39.3200,72,95,19024
2.0430,0.2395,39.4400,72,95,19027
2.0479,0.2395,39.5400,72,95,19031
2.0772,0.2542,39.5100,72,95,19035
2.0772,0.2786,39.5400,72,95,19038
2.1652,0.2590,39.2500,72,95,19041
2.1261,0.2297,39.4400,72,95,19044
2.1652,0.2542,39.5400,72,95,19048
2.1554,0.2590,39.5400,72,95,19051
2.1652,0.2444,39.5400,72,95,19054
2.2532,0.2590,39.3200,72,95,19057
2.2287,0.2590,39.4800,72,95,19061
2.2434,0.2444,39.5400,72,95,19064
2.2678,0.2493,39.5700,72,95,19067
2.2776,0.2297,39.5400,72,95,19070
2.3558,0.2590,39.2500,72,95,19075
2.3216,0.2395,39.4800,72,95,19078
2.3460,0.2444,39.5400,72,95,19081
2.3656,0.2444,39.5100,72,95,19084
2.3949,0.2395,39.5400,72,95,19088
2.4340,0.2639,39.2200,72,95,19091
2.3705,0.2444,39.4100,72,95,19094
2.3754,0.2444,39.5700,72,95,19097
2.3803,0.2542,39.5100,72,95,19101
2.3460,0.2493,39.5400,72,95,19104
2.3754,0.2981,39.2500,72,95,19107
2.2727,0.2542,39.4800,72,95,19110
2.1994,0.2395,39.5400,72,95,19115
2.1505,0.2493,39.5400,72,95,19118
2.0674,0.2542,39.5100,72,95,19121
2.0479,0.2590,39.3800,72,95,19124
1.9159,0.2493,39.5100,72,95,19128
1.8475,0.2395,39.5700,72,95,19131
1.7546,0.2493,39.4800,72,95,19134
1.6764,0.2444,39.6000,72,95,19137
1.6618,0.2590,39.2500,72,95,19141
1.5640,0.2444,39.4800,72,95,19144
1.5054,0.2737,39.5400,72,95,19147
1.4614,0.2542,39.5700,72,95,19150
1.4076,0.2444,39.4100,72,95,19154
1.4272,0.2590,39.2500,72,95,19158
1.3734,0.2542,39.4400,72,95,19161
1.3539,0.2493,39.5400,72,95,19164
1.3441,0.2542,39.4800,72,95,19168
1.3245,0.2444,39.5100,72,95,19171
1.3636,0.2590,39.2500,72,95,19174
1.3294,0.2493,39.5100,72,95,19177
1.3441,0.2493,39.5400,72,95,19181
1.3587,0.2542,39.5700,72,95,19184
1.3587,0.2444,39.6400,72,95,19187
1.4125,0.2590,39.2500,72,95,19190
1.3734,0.2395,39.4400,72,95,19194
1.4027,0.2395,39.5400,72,95,19197
1.4223,0.2542,39.4800,72,95,19201
1.4223,0.2493,39.4800,72,95,19204
1.4761,0.2590,39.2500,72,95,19208
1.4565,0.2542,39.4400,72,95,19211
1.4565,0.2542,39.5700,72,95,19214
1.4712,0.2542,39.5700,72,95,19217
1.4809,0.2444,39.6000,72,95,19221
1.5445,0.2590,39.2500,72,95,19224
1.5152,0.2542,39.4400,72,95,19227
1.5103,0.2444,39.5700,72,95,19230
1.5200,0.2542,39.4800,72,95,19234
1.5249,0.2297,39.5400,72,95,19237
1.5787,0.2835,39.3200,72,95,19240
1.5445,0.2444,39.4800,72,95,19244
1.5591,0.2493,39.5700,72,95,19248
1.5591,0.2542,39.3800,72,95,19251
1.5494,0.2493,39.2500,72,95,19254
1.6031,0.2590,39.2500,72,95,19258
1.6129,0.2542,39.4100,72,95,19261
1.5836,0.2444,39.5700,72,95,19264
1.5934,0.2590,39.5400,72,95,19267
1.5885,0.2493,39.5100,72,95,19270
1.6325,0.2542,39.2500,72,95,19274
1.6080,0.2493,39.4800,72,95,19277
1.6031,0.2444,39.5100,72,95,19280
1.6129,0.2493,39.5100,72,95,19283
1.6031,0.2493,39.5400,72,95,19288
1.6422,0.2835,39.2500,72,95,19291
1.5934,0.2933,39.4800,72,95,19294
1.6080,0.2444,39.5100,72,95,19298
1.6178,0.2542,39.5100,72,95,19301
1.6031,0.2493,39.5400,72,95,19304
1.6471,0.2493,39.2800,72,95,19307
1.6080,0.2542,39.4400,72,95,19311
1.5982,0.2444,39.4400,72,95,19314
1.6080,0.2493,39.4800,72,95,19317
1.6080,0.2493,39.5400,72,95,19320
1.6569,0.2542,39.2800,72,95,19324
1.6129,0.2542,39.2200,72,95,19328
1.6080,0.2444,39.5100,72,95,19331
1.6227,0.2542,39.5400,72,95,19334
1.6129,0.2542,39.5100,72,95,19338
1.6667,0.2639,39.2800,72,95,19341
1.6276,0.2542,39.4800,72,95,19344
1.6373,0.2493,39.5100,72,95,19347
1.6325,0.2542,39.6000,72,95,19351
1.6178,0.2493,39.5400,72,95,19354
1.6618,0.2590,39.2800,72,95,19357
1.6276,0.2493,39.4400,72,95,19360
1.6276,0.2444,39.5700,72,95,19364
1.6276,0.2590,39.4800,72,95,19367
1.6178,0.2493,39.5100,72,95,19371
1.6667,0.2590,39.3500,72,95,19374
1.6227,0.2493,39.4800,72,95,19378
1.6325,0.2444,39.5400,72,95,19381
1.6373,0.2542,39.4800,72,95,19384
1.6325,0.2835,39.5400,72,95,19387
1.6764,0.2590,39.3500,72,95,19391
1.6325,0.2444,39.4800,72,95,19394
1.6520,0.2493,39.5400,72,95,19397
1.6667,0.2542,39.4800,72,95,19400
1.6716,0.2590,39.5400,72,95,19404
1.7351,0.2590,39.2200,72,95,19407
1.7058,0.2493,39.5100,72,95,19410
1.7155,0.2542,39.5400,72,95,19414
1.7204,0.2493,39.4800,72,95,19418
1.7302,0.2493,39.5400,72,95,19421
1.7937,0.2590,39.2800,72,95,19424
1.7546,0.2493,39.5700,72,95,19427
1.7644,0.2444,39.5100,72,95,19431
1.7889,0.2542,39.4800,72,95,19434
1.7840,0.2493,39.5700,72,95,19437
1.8377,0.2590,39.2500,72,95,19440
1.7937,0.2493,39.4800,72,95,19444
1.8084,0.2493,39.5400,72,95,19447
1.7937,0.2786,39.4800,72,95,19450
1.7742,0.2493,39.5700,72,95,19453
1.8133,0.2590,39.2800,72,95,19458
1.7644,0.2542,39.4800,72,95,19461
1.7595,0.2395,39.5400,72,95,19464
1.7058,0.2542,39.5100,72,95,19467
1.6667,0.2493,39.4800,72,95,19471
1.6911,0.2590,39.2500,72,95,19474
1.6276,0.2493,39.4800,72,95,19477
1.6178,0.2542,39.5700,72,95,19480
1.6178,0.2542,39.4800,72,95,19484
1.5885,0.2542,39.5100,72,95,19487
1.6276,0.2590,39.2800,72,95,19490
1.5738,0.2493,39.4800,72,95,19493
1.5787,0.2493,39.5400,72,95,19497
1.5934,0.2493,39.5100,72,95,19501
1.5836,0.2493,39.5100,72,95,19504
1.6471,0.2493,39.2800,72,95,19508
1.5591,0.2542,39.4400,72,95,19511
1.5005,0.2444,39.6400,72,95,19514
1.4418,0.2542,39.6700,72,95,19517
1.3881,0.2297,39.5400,72,95,19521
1.4272,0.2639,39.3200,72,95,19524
1.4858,0.2542,39.4800,72,95,19527
1.7155,0.2493,39.5400,72,95,19530
2.0821,0.2542,39.5700,72,95,19534
2.4976,0.2493,39.5400,72,95,19537
3.0254,0.2884,39.2200,72,95,19540
3.3382,0.2493,39.5100,72,95,19544
3.6022,0.2493,39.5400,72,95,19548
3.6510,0.2297,39.5100,72,95,19551
3.4164,0.2542,39.5400,72,95,19554
3.0938,0.2884,39.3200,72,95,19557
2.5269,0.2542,39.5400,72,95,19561
2.0137,0.2493,39.6000,72,95,19564
1.6080,0.2297,39.5100,72,95,19567
1.3392,0.2493,39.5100,72,95,19570
1.2512,0.2590,39.2200,72,95,19574
1.3587,0.2639,39.3800,72,95,19577
1.3636,0.2444,39.4400,72,95,19580
1.3881,0.2444,39.5400,72,95,19585
1.4027,0.2493,39.5400,72,95,19588
1.4174,0.2493,39.5400,72,95,19591
1.5054,0.2688,39.3800,72,95,19594
1.4467,0.2542,39.4800,72,95,19598
1.4663,0.2444,39.4400,72,95,19601
1.4761,0.2493,39.7700,72,95,19604
1.5005,0.2493,39.5400,72,95,19607
1.5591,0.2590,39.3500,72,95,19611
1.5298,0.2542,39.4800,72,95,19614
1.5445,0.2444,39.4100,72,95,19617
1.5494,0.2493,39.5100,72,95,19620
1.5640,0.2542,39.5400,72,95,19624
1.6276,0.2786,39.3800,72,95,19628
1.6080,0.2542,39.4100,72,95,19631
1.6178,0.2444,39.6000,72,95,19634
1.6129,0.2493,39.5100,72,95,19638
1.6422,0.2395,39.5400,72,95,19641
1.6862,0.2639,39.3200,72,95,19644
1.6667,0.2493,39.4800,72,95,19647
1.7058,0.2395,39.4400,72,95,19651
1.6862,0.2493,39.5100,72,95,19654
1.6911,0.2395,39.5400,72,95,19657
1.7449,0.2884,39.3500,72,95,19661
1.7204,0.3030,39.5100,72,95,19664
1.7449,0.2444,39.4800,72,95,19667
1.7595,0.2542,39.5100,72,95,19671
1.7595,0.2542,39.5700,72,95,19675
1.8133,0.2639,39.3500,72,95,19678
1.7889,0.2542,39.4800,72,95,19681
1.8035,0.2444,39.4800,72,95,19684
1.8182,0.2542,39.5100,72,95,19688
1.8182,0.2493,39.5700,72,95,19691
1.8866,0.2639,39.3800,72,95,19694
1.8524,0.2542,39.5100,72,95,19697
1.8671,0.2444,39.4400,72,95,19701
1.8768,0.2493,39.6700,72,95,19704
1.8964,0.2297,39.5400,72,95,19707
1.9697,0.2590,39.4400,72,95,19710
1.9453,0.2542,39.4800,72,95,19715
1.9550,0.2444,39.4400,72,95,19718
1.9648,0.2493,39.4800,72,95,19721
1.9795,0.2493,39.5100,72,95,19724
2.0577,0.2639,39.3800,72,95,19728
2.0577,0.2542,39.4400,72,95,19731
2.0626,0.2493,39.4400,72,95,19734
2.0723,0.2493,39.5400,72,95,19737
2.0919,0.2493,39.5400,72,95,19741
2.1701,0.2688,39.3500,72,95,19744
2.1457,0.2542,39.4800,72,95,19747
2.1750,0.2493,39.4100,72,95,19750
2.1799,0.2542,39.5100,72,95,19755
2.1994,0.2444,39.5400,72,95,19758
2.2727,0.2688,39.3500,72,95,19761
2.2483,0.2786,39.4800,72,95,19764
2.2727,0.2493,39.4400,72,95,19768
2.2825,0.2542,39.5400,72,95,19771
2.2874,0.2542,39.6000,72,95,19774
2.3509,0.2688,39.2200,72,95,19777
2.3021,0.2542,39.4800,72,95,19781
2.3069,0.2395,39.4800,72,95,19784
2.2727,0.2444,39.5700,72,95,19787
2.2434,0.2737,39.5400,72,95,19790
2.2678,0.2639,39.3800,72,95,19794
2.1896,0.2542,39.4800,72,95,19798
2.0968,0.2542,39.4400,72,95,19801
2.0283,0.2786,39.5700,72,95,19804
1.9599,0.2297,39.5100,72,95,19808
1.9453,0.2688,39.3500,72,95,19811
1.8133,0.2542,39.4800,72,95,19814
1.7302,0.2639,39.4800,72,95,19817
1.6569,0.2493,39.6000,72,95,19821
1.5787,0.2493,39.5700,72,95,19824
1.5885,0.2493,39.3500,72,95,19827
1.4858,0.2542,39.4400,72,95,19830
1.4370,0.2444,39.4800,72,95,19834
1.3881,0.2493,39.1900,72,95,19837
1.3539,0.2493,39.5400,72,95,19841
1.3734,0.2688,39.3500,72,95,19844
1.3294,0.2542,39.5400,72,95,19848
1.3196,0.2395,39.4800,72,95,19851
1.3343,0.2542,39.5100,72,95,19854
1.3050,0.2493,39.5400,72,95,19857
1.3539,0.2688,39.3500,72,95,19861
1.3148,0.2542,39.5100,72,95,19864
1.3441,0.2444,39.4800,72,95,19867
1.3392,0.2590,39.5100,72,95,19870
1.3490,0.2493,39.4800,72,95,19874
1.3978,0.2688,39.3800,72,95,19877
1.3685,0.2542,39.4800,72,95,19880
1.3881,0.2493,39.4100,72,95,19884
1.4027,0.2493,39.5400,72,95,19888
1.4174,0.2493,39.2200,72,95,19891
1.4712,0.2688,39.3500,72,95,19894
1.4467,0.2542,39.4400,72,95,19897
1.4516,0.2639,39.4400,72,95,19901
1.4712,0.2542,39.5100,72,95,19904
1.4858,0.2493,39.5400,72,95,19907
1.5445,0.2688,39.3500,72,95,19910
1.5054,0.2542,39.4800,72,95,19914
1.5152,0.2444,39.4400,72,95,19917
1.5054,0.2542,39.5100,72,95,19920
1.5249,0.2493,39.5100,72,95,19923
1.5885,0.2688,38.5200,72,95,19928
1.5591,0.2542,39.4800,72,95,19931
1.5640,0.2444,39.4800,72,95,19934
1.5543,0.2542,39.5100,72,95,19937
1.5543,0.2395,39.5100,72,95,19941
1.6178,0.2590,39.3800,72,95,19944
1.5982,0.2542,39.5700,72,95,19947
1.6031,0.2395,39.4800,72,95,19951
1.6031,0.2493,39.5100,72,95,19954
1.6031,0.2444,39.5100,72,95,19957
1.6520,0.2639,39.3800,72,95,19960
1.6129,0.2542,39.4800,72,95,19964
1.6178,0.2493,39.4400,72,95,19968
1.6325,0.2493,39.5400,72,95,19971
1.6471,0.2542,39.5400,72,95,19974
1.6716,0.2639,39.3500,72,95,19978
1.6373,0.2590,39.4800,72,95,19981
1.6471,0.2444,39.5400,72,95,19984
1.6520,0.2542,39.5100,72,95,19987
1.6471,0.2493,39.5700,72,95,19991
1.7009,0.2688,39.3800,72,95,19994
1.6618,0.2542,39.4800,72,95,19997
1.6569,0.2493,39.5400,72,95,20000
1.6569,0.2493,39.4800,72,95,20004
1.6716,0.2493,39.6000,72,95,20007
1.7204,0.2639,39.3200,72,95,20011
1.6813,0.2542,39.5100,72,95,20014
1.7107,0.2444,39.4400,72,95,20018
1.6716,0.2639,39.4800,72,95,20021
1.6764,0.2493,39.6400,72,95,20024
1.7253,0.2639,39.3800,72,95,20027
1.7009,0.2493,39.4800,72,95,20031
1.6960,0.2444,39.4400,72,95,20034
1.6813,0.2493,39.5400,72,95,20037
1.6813,0.2493,39.6000,72,95,20040
1.7253,0.2639,39.4100,72,95,20044
1.7009,0.2493,39.4400,72,95,20047
1.7058,0.2590,39.4100,72,95,20050
1.6911,0.2542,39.5100,72,95,20054
1.6911,0.2493,39.5400,72,95,20058
1.7400,0.2590,39.3500,72,95,20061
1.7204,0.2493,39.4800,72,95,20064
1.7351,0.2493,39.4400,72,95,20067
1.7449,0.2542,39.6000,72,95,20071
1.7546,0.2493,39.5400,72,95,20074
1.8035,0.2590,39.3800,72,95,20077
1.7791,0.2590,39.6700,72,95,20080
1.7840,0.2444,39.4400,72,95,20084
1.8182,0.2542,39.5400,72,95,20087
1.7937,0.2542,39.5100,72,95,20090
1.8622,0.2688,39.3800,72,95,20093
1.8377,0.2542,39.6000,72,95,20098
1.8524,0.2395,39.4400,72,95,20101
1.8622,0.2542,39.5400,72,95,20104
1.8719,0.2737,39.5100,72,95,20107
1.9257,0.2639,39.3500,72,95,20111
1.8768,0.2542,39.5400,72,95,20114
1.8768,0.2493,39.4800,72,95,20117
1.8671,0.2542,39.5100,72,95,20120
1.8524,0.2493,39.5700,72,95,20124
1.8915,0.2688,39.3500,72,95,20127
1.8328,0.2542,39.5400,72,95,20130
1.7986,0.2493,39.4400,72,95,20133
1.7889,0.2542,39.5100,72,95,20137
1.7644,0.2493,39.5400,72,95,20141
1.7840,0.2688,39.3800,72,95,20144
1.7351,0.2542,39.5100,72,95,20147
1.7107,0.2542,39.4400,72,95,20151
1.7009,0.2542,39.5100,72,95,20154
1.6862,0.2590,39.5700,72,95,20157
1.7253,0.2639,39.3200,72,95,20160
1.6813,0.2542,39.6000,72,95,20164
1.6911,0.2493,39.4400,72,95,20167
1.6960,0.2493,39.5100,72,95,20170
1.6862,0.2444,39.5700,72,95,20173
1.7155,0.2688,39.3800,72,95,20177
1.6471,0.2590,39.4800,72,95,20180
1.5934,0.2444,39.4800,72,95,20184
1.5347,0.2542,39.5100,72,95,20187
2.5709,0.2542,39.5700,72,95,20191
3.0401,0.2493,39.5400,72,95,20194
3.4653,0.2639,39.3800,72,95,20198
3.6852,0.2542,39.5100,72,95,20201
3.8172,0.2542,39.3800,72,95,20204
3.5777,0.2297,39.5400,72,95,20207
3.1769,0.2444,39.5400,72,95,20211
2.7175,0.2639,39.3800,72,95,20214
2.1896,0.2542,39.5100,72,95,20217
1.7986,0.2297,39.3800,72,95,20220
1.4956,0.2542,39.5100,72,95,20225
1.3539,0.2493,39.5100,72,95,20228
1.3392,0.2639,39.4800,72,95,20231
1.3392,0.2493,39.5400,72,95,20234
1.3930,0.2542,39.3800,72,95,20238
1.4076,0.2493,39.5400,72,95,20241
1.4712,0.2493,39.5400,72,95,20244
1.5152,0.2639,39.3800,72,95,20247
1.5249,0.2542,39.5700,72,95,20251
1.5836,0.2542,39.4100,72,95,20254
1.5836,0.2493,39.5100,72,95,20257
1.5934,0.2493,39.5700,72,95,20260
1.6227,0.2688,39.3800,72,95,20264
1.6178,0.2493,39.6400,72,95,20268
1.6471,0.2493,39.3800,72,95,20271
1.6471,0.2493,39.5400,72,95,20274
1.6716,0.2493,39.5400,72,95,20278
1.6960,0.2590,39.4800,72,95,20281
1.6764,0.2493,39.5100,72,95,20284
1.7155,0.2493,39.3800,72,95,20287
1.7498,0.2493,39.5100,72,95,20291
1.7351,0.2590,39.5100,72,95,20294
1.7840,0.2639,39.3800,72,95,20297
1.7546,0.2493,39.5400,72,95,20300
1.7840,0.2542,39.4100,72,95,20304
1.7840,0.2493,39.5100,72,95,20307
1.7840,0.2590,39.5100,72,95,20311
1.8328,0.2590,39.4800,72,95,20314
1.8328,0.2297,39.5400,72,95,20318
1.8524,0.2590,39.3800,72,95,20321
1.8231,0.2493,39.5100,72,95,20324
1.8328,0.2493,39.6000,72,95,20327
1.8719,0.2590,39.4400,72,95,20331
1.8622,0.2542,39.5100,72,95,20334
1.8964,0.2786,39.4100,72,95,20337
1.8719,0.2493,39.3800,72,95,20340
1.8915,0.2444,39.7000,72,95,20344
1.9404,0.2590,39.3800,72,95,20347
1.9355,0.2493,39.5100,72,95,20350
1.9599,0.2542,39.3800,72,95,20354
1.9453,0.2542,39.5400,72,95,20358
1.9550,0.2493,39.7700,72,95,20361
1.9892,0.2590,39.3800,72,95,20364
2.0039,0.2542,39.5100,72,95,20367
2.0137,0.2542,39.4800,72,95,20371
2.0039,0.2493,39.5100,72,95,20374
2.0283,0.2493,39.5400,72,95,20377
2.0772,0.2981,39.5100,72,95,20380
2.0626,0.2493,39.5100,72,95,20384
2.1017,0.2493,39.4100,72,95,20387
2.0870,0.2493,39.5400,72,95,20390
2.1163,0.2493,39.5100,72,95,20393
2.1750,0.2590,39.3800,72,95,20398
2.1457,0.2493,39.5400,72,95,20401
2.1848,0.2590,39.4100,72,95,20404
2.1799,0.2493,39.5100,72,95,20407
2.2043,0.2493,39.5100,72,95,20411
2.2630,0.2639,39.3800,72,95,20414
2.2630,0.2639,39.4800,72,95,20417
2.2972,0.2493,39.4400,72,95,20420
2.2874,0.2542,39.5100,72,95,20424
2.3069,0.2493,39.5400,72,95,20427
2.3705,0.2590,39.4400,72,95,20430
2.3607,0.2542,39.6000,72,95,20433
2.3900,0.2493,39.4400,72,95,20438
2.4145,0.2542,39.5100,72,95,20441
2.3900,0.2542,39.5400,72,95,20444
2.4389,0.2639,39.3500,72,95,20447
2.3949,0.2542,39.5100,72,95,20451
2.3998,0.2542,39.4400,72,95,20454
2.3607,0.2542,39.4800,72,95,20457
2.3216,0.2444,39.5400,72,95,20460
2.3216,0.2590,39.3800,72,95,20464
2.2190,0.2639,39.4800,72,95,20467
2.1603,0.2493,39.4400,72,95,20470
2.0723,0.2493,39.5400,72,95,20473
2.0235,0.2493,39.4800,72,95,20477
1.9697,0.2639,39.4100,72,95,20481
1.8524,0.2542,39.5100,72,95,20484
1.7937,0.2493,39.5100,72,95,20487
1.7204,0.2493,39.5100,72,95,20491
1.6667,0.2542,39.5700,72,95,20494
1.6520,0.2639,39.3500,72,95,20497
1.5689,0.2542,39.6400,72,95,20500
1.5347,0.2493,39.4400,72,95,20504
1.5005,0.2493,39.5400,72,95,20507
1.4712,0.2542,39.5400,72,95,20510
1.5005,0.2639,39.3500,72,95,20513
1.4614,0.2542,39.5100,72,95,20517
1.4858,0.2542,39.4400,72,95,20520
1.4321,0.2542,39.5100,72,95,20524
1.4223,0.2542,39.5100,72,95,20527
1.4712,0.2639,39.3800,72,95,20531
1.4516,0.2542,39.4800,72,95,20534
1.4712,0.2297,39.3800,72,95,20537
1.4712,0.2542,39.5100,72,95,20540
1.4809,0.2542,39.5400,72,95,20544
1.5249,0.2639,39.3200,72,95,20547
1.5005,0.2542,39.5100,72,95,20550
1.5298,0.2493,39.4400,72,95,20553
1.5298,0.2542,39.6000,72,95,20557
1.5494,0.2688,39.5100,72,95,20560
1.5982,0.2639,39.5400,72,95,20563
1.5689,0.2542,39.4400,72,95,20567
1.6276,0.2542,39.4100,72,95,20571
1.5934,0.2835,39.5100,72,95,20574
1.6031,0.2444,39.5100,72,95,20577
1.6520,0.2688,39.4100,72,95,20580
1.6276,0.2542,39.4400,72,95,20584
1.6325,0.2395,39.4800,72,95,20587
1.6422,0.2493,39.5400,72,95,20590
1.6569,0.2493,39.5100,72,95,20593
1.7107,0.2639,39.7700,72,95,20597
1.6764,0.2542,39.5400,72,95,20600
1.6813,0.2493,39.4400,72,95,20603
1.6862,0.2542,39.5100,72,95,20606
1.6813,0.2590,39.5400,72,95,20611
1.7400,0.2688,39.3800,72,95,20614
1.7155,0.2542,39.4800,72,95,20617
1.7253,0.2493,39.4100,72,95,20620
1.7058,0.2493,39.5100,72,95,20624
1.7400,0.2493,39.5400,72,95,20627
1.7546,0.2639,39.3800,72,95,20630
1.7400,0.2542,39.5100,72,95,20633
1.7400,0.2590,39.5700,72,95,20637
1.7351,0.2493,39.5700,72,95,20640
1.7351,0.2493,39.5400,72,95,20643
1.7791,0.2590,39.3500,72,95,20646
1.7351,0.2542,39.5400,72,95,20651
1.7498,0.2542,39.4400,72,95,20654
1.7498,0.2493,39.6000,72,95,20657
1.7449,0.2493,39.4100,72,95,20660
1.7840,0.2493,39.3800,72,95,20664
1.7693,0.2542,39.4100,72,95,20667
1.7498,0.2688,39.4400,72,95,20670
1.7400,0.2542,39.6000,72,95,20673
1.7449,0.2493,39.5400,72,95,20677
1.7889,0.2493,39.3500,72,95,20680
1.7595,0.2835,39.4800,72,95,20683
1.7595,0.2493,39.4400,72,95,20686
1.7546,0.2493,39.5100,72,95,20690
1.7595,0.2493,39.5400,72,95,20694
1.8133,0.2542,39.3800,72,95,20697
1.7644,0.2542,39.5100,72,95,20701
1.7644,0.2493,39.4100,72,95,20704
1.7595,0.2493,39.5100,72,95,20707
1.7644,0.2493,39.4800,72,95,20710
1.8328,0.2688,39.3500,72,95,20714
1.7986,0.2493,39.4800,72,95,20717
1.8084,0.2444,39.4400,72,95,20720
1.7937,0.2835,39.5100,72,95,20723
1.8035,0.2542,39.5100,72,95,20727
1.8671,0.2639,39.2800,72,95,20730
1.8524,0.2542,39.6000,72,95,20733
1.8866,0.2542,39.4400,72,95,20737
1.8671,0.2493,39.5100,72,95,20741
1.8719,0.2493,39.5100,72,95,20744
1.9257,0.2590,39.2800,72,95,20747
1.8964,0.2542,38.6800,72,95,20750
1.9208,0.2493,39.4400,72,95,20754
1.9208,0.2493,39.4100,72,95,20757
1.9306,0.2493,39.5100,72,95,20760
1.9795,0.2639,39.3800,72,95,20763
1.9501,0.2493,39.4800,72,95,20767
1.9404,0.2444,39.4400,72,95,20770
1.9355,0.2493,39.3800,72,95,20773
1.9404,0.2493,39.7300,72,95,20776
1.9844,0.2639,39.3800,72,95,20781
1.9257,0.2542,39.4800,72,95,20784
1.9013,0.2395,39.4400,72,95,20787
1.8719,0.2542,39.5100,72,95,20790
1.8524,0.2493,39.4800,72,95,20794
1.8768,0.2590,39.3500,72,95,20797
1.7595,0.2590,39.3800,72,95,20801
1.7302,0.2493,39.5100,72,95,20804
1.7400,0.2542,39.1600,72,95,20807
1.6911,0.2542,39.5400,72,95,20810
1.6862,0.2493,39.5100,72,95,20814
1.7155,0.2639,39.4400,72,95,20817
1.7058,0.2493,39.3800,72,95,20820
1.7253,0.2542,39.3800,72,95,20824
1.6618,0.2493,39.5400,72,95,20828
1.6227,0.2493,39.5400,72,95,20831
1.6422,0.2493,39.3800,72,95,20834
1.6178,0.2493,39.5100,72,95,20837
1.7546,0.2639,39.3800,72,95,20841
1.9550,0.2493,39.6700,72,95,20844
2.2923,0.2493,39.5400,72,95,20847
2.7419,0.2590,39.4400,72,95,20850
3.1525,0.2590,39.5700,72,95,20854
3.5533,0.2542,39.4100,72,95,20857
3.7439,0.2493,39.5700,72,95,20860
3.8074,0.2493,39.5400,72,95,20864
3.6266,0.2639,39.4400,72,95,20868
3.2160,0.2493,38.7400,72,95,20871
2.7566,0.2493,39.3800,72,95,20874
2.2532,0.2493,39.5400,72,95,20877
1.8524,0.2493,39.5100,72,95,20881
1.6080,0.2590,39.4400,72,95,20884
1.4272,0.2493,39.5100,72,95,20887
1.4027,0.2542,39.4400,72,95,20890
1.3636,0.2493,39.5100,72,95,20894
1.3930,0.2493,39.5400,72,95,20897
1.4516,0.2590,39.4100,72,95,20900
1.4809,0.2542,39.5100,72,95,20903
1.5543,0.2542,39.3500,72,95,20908
1.5689,0.2493,39.5700,72,95,20911
1.6080,0.2493,39.6400,72,95,20914
1.6667,0.2590,39.4400,72,95,20917
1.6764,0.2542,39.5100,72,95,20921
1.7204,0.2542,39.3500,72,95,20924
1.7058,0.2493,39.4800,72,95,20927
1.7204,0.2493,39.5400,72,95,20930
1.7546,0.2590,39.3500,72,95,20934
1.7351,0.2542,39.5100,72,95,20937
1.7742,0.2933,39.4100,72,95,20940
1.7644,0.2493,39.6000,72,95,20943
1.7791,0.2493,39.5400,72,95,20947
1.8182,0.2590,39.4100,72,95,20951
1.7937,0.2639,39.5100,72,95,20954
1.8280,0.2493,39.4400,72,95,20957
1.8133,0.2493,39.5400,72,95,20961
1.8280,0.2493,39.5100,72,95,20964
1.8768,0.2590,39.4800,72,95,20967
1.8328,0.2542,39.5100,72,95,20970
1.8671,0.2493,39.3800,72,95,20974
1.8573,0.2444,39.5100,72,95,20977
1.8817,0.2493,39.5400,72,95,20980
1.9355,0.2590,39.3800,72,95,20983
1.9208,0.2493,39.5100,72,95,20987
1.9306,0.2786,39.3800,72,95,20990
1.9110,0.2493,39.4800,72,95,20994
1.9257,0.2493,39.5100,72,95,20997
1.9746,0.2590,39.3800,72,95,21001
1.9599,0.2444,39.5700,72,95,21004
1.9941,0.2542,39.4100,72,95,21007
1.9648,0.2297,39.5100,72,95,21010
1.9697,0.2297,39.5400,72,95,21014
2.0332,0.2590,39.5100,72,95,21017
2.0039,0.2493,39.5700,72,95,21020
2.0577,0.2493,39.4100,72,95,21023
2.0235,0.2493,39.5400,72,95,21027
2.0332,0.2493,39.5100,72,95,21030
2.0870,0.2590,39.3500,72,95,21033
2.0674,0.2493,39.5400,72,95,21037
2.1114,0.2542,39.3800,72,95,21041
2.1065,0.2493,39.6000,72,95,21044
2.1261,0.2493,39.5100,72,95,21047
2.1652,0.2688,39.4400,72,95,21050
2.1554,0.2542,39.5100,72,95,21054
2.1994,0.2493,39.4800,72,95,21057
2.1945,0.2493,39.5400,72,95,21060
2.2239,0.2493,39.5400,72,95,21063
2.2776,0.2493,39.4400,72,95,21067
2.2630,0.2444,39.5100,72,95,21070
2.3021,0.2493,39.3500,72,95,21073
2.2923,0.2493,39.4400,72,95,21076
2.3216,0.2297,39.5100,72,95,21081
2.3851,0.2493,39.3500,72,95,21084
2.3460,0.2542,39.5100,72,95,21087
2.3900,0.2835,39.3500,72,95,21090
2.3754,0.2493,39.5100,72,95,21094
2.3949,0.2493,39.5100,72,95,21097
2.4438,0.2590,39.4400,72,95,21100
2.4242,0.2542,39.5100,72,95,21103
2.4438,0.2542,39.4100,72,95,21107
2.3998,0.2297,39.5100,72,95,21110
2.3754,0.2493,39.5100,72,95,21113
2.3803,0.2639,39.4400,72,95,21116
2.3167,0.2493,39.5700,72,95,21121
2.2972,0.2493,39.4800,72,95,21124
2.2141,0.2493,39.5100,72,95,21127
2.1457,0.2395,39.5700,72,95,21130
2.1114,0.2590,39.3200,72,95,21134
1.9990,0.2493,39.4400,72,95,21137
1.9550,0.2493,39.4100,72,95,21140
1.8671,0.2542,39.5100,72,95,21143
1.7986,0.2493,39.4800,72,95,21147
1.7644,0.2590,39.4400,72,95,21150
1.6862,0.2493,39.5100,72,95,21153
1.6520,0.2542,39.4400,72,95,21156
1.5934,0.2493,39.5100,72,95,21160
1.5591,0.2590,39.5700,72,95,21164
1.5591,0.2590,39.5100,72,95,21167
1.5054,0.2493,39.5100,72,95,21170
1.5054,0.2444,39.4100,72,95,21174
1.4809,0.2542,39.5700,72,95,21177
1.4858,0.2493,39.6000,72,95,21180
1.5249,0.2493,39.3500,72,95,21183
1.5152,0.2542,39.5100,72,95,21187
1.4907,0.2688,39.4100,72,95,21190
1.4809,0.2444,39.5100,72,95,21193
1.4907,0.2493,39.5100,72,95,21196
1.5347,0.2542,39.4100,72,95,21200
1.5298,0.2786,39.4800,72,95,21203
1.5591,0.2493,39.4100,72,95,21207
1.5396,0.2493,39.5100,72,95,21210
1.5396,0.2493,39.5400,72,95,21214
1.5934,0.2493,39.5100,72,95,21217
1.5738,0.2542,39.4800,72,95,21220
1.6031,0.2493,39.4400,72,95,21223
1.5885,0.2493,39.6400,72,95,21227
1.5934,0.2493,39.5400,72,95,21230
1.6325,0.2590,39.3500,72,95,21233
1.6129,0.2590,39.5100,72,95,21236
1.6422,0.2493,39.3500,72,95,21240
1.6422,0.2493,39.5100,72,95,21243
1.6520,0.2444,39.5100,72,95,21246
1.6862,0.2639,39.3500,72,95,21250
1.6667,0.2590,39.4800,72,95,21254
1.6911,0.2493,39.4100,72,95,21257
1.6813,0.2493,39.5100,72,95,21260
1.6960,0.2493,39.5400,72,95,21263
1.7351,0.2493,39.4400,72,95,21267
1.7058,0.2444,39.4400,72,95,21270
1.7253,0.2493,39.4400,72,95,21273
1.7204,0.2493,39.6000,72,95,21276
1.7400,0.2493,39.5400,72,95,21280
1.7742,0.2590,39.3800,72,95,21283
1.7351,0.2542,39.5400,72,95,21286
1.7351,0.2493,39.4100,72,95,21289
1.7302,0.2493,39.5100,72,95,21294
1.7253,0.2444,39.5100,72,95,21297
1.7644,0.2786,39.3800,72,95,21300
1.7449,0.2542,39.4800,72,95,21303
1.7595,0.2297,39.4100,72,95,21307
1.7302,0.2542,39.5100,72,95,21310
1.7253,0.2493,39.5400,72,95,21313
1.7644,0.2639,39.4100,72,95,21317
1.7449,0.2493,39.5400,72,95,21320
1.7644,0.2493,39.4100,72,95,21323
1.7449,0.2493,39.5100,72,95,21326
1.7595,0.2493,39.5400,72,95,21330
1.7937,0.2590,39.3500,72,95,21334
1.7546,0.2590,39.4800,72,95,21337
1.7791,0.2493,39.3500,72,95,21340
1.7644,0.2493,39.5100,72,95,21344
1.7644,0.2542,39.5100,72,95,21347
1.7889,0.2639,39.3800,72,95,21350
1.7693,0.2542,39.5100,72,95,21353
1.7937,0.2493,39.4100,72,95,21357
1.7742,0.2493,39.5400,72,95,21360
1.7791,0.2297,39.5100,72,95,21363
1.8133,0.2639,39.4100,72,95,21366
1.7840,0.2542,39.4400,72,95,21370
1.7937,0.2493,39.4800,72,95,21373
1.7791,0.2493,39.6000,72,95,21377
1.7889,0.2493,39.5700,72,95,21380
1.8231,0.2590,39.3500,72,95,21384
1.7937,0.2493,39.4800,72,95,21387
1.8035,0.2542,39.4100,72,95,21390
1.7889,0.2493,39.5100,72,95,21393
1.8084,0.2493,39.5400,72,95,21397
1.8671,0.2590,39.3800,72,95,21400
1.8622,0.2639,39.5100,72,95,21403
1.8817,0.2493,39.3500,72,95,21406
1.8671,0.2493,39.5100,72,95,21410
1.9208,0.2542,39.5100,72,95,21413
1.9110,0.2444,39.5400,72,95,21417
1.9355,0.2590,39.4800,72,95,21421
1.8964,0.2493,39.5100,72,95,21424
1.9404,0.2542,39.4100,72,95,21427
1.9159,0.2444,39.5700,72,95,21431
1.9159,0.2493,39.4800,72,95,21434
1.9355,0.2542,39.3800,72,95,21437
1.8964,0.2493,39.5100,72,95,21440
1.9159,0.2493,39.3800,72,95,21444
1.8573,0.2395,39.5400,72,95,21447
1.8475,0.2542,39.5700,72,95,21450
1.8328,0.2493,39.4800,72,95,21453
1.7986,0.2493,39.5100,72,95,21457
1.8475,0.2542,39.4100,72,95,21460
1.7693,0.2542,39.5100,72,95,21464
1.7742,0.2493,39.5400,72,95,21467
1.7986,0.2590,39.4100,72,95,21471
1.7546,0.2493,39.4800,72,95,21474
1.7840,0.2542,39.4100,72,95,21477
1.7498,0.2395,39.4800,72,95,21480
1.7742,0.2444,39.5400,72,95,21484
1.7791,0.2639,39.4400,72,95,21487
1.7546,0.2493,39.7300,72,95,21490
1.7693,0.2542,39.4100,72,95,21493
1.6862,0.2493,39.5100,72,95,21497
1.6227,0.2493,39.5400,72,95,21500
1.5885,0.2542,39.4400,72,95,21504
1.5934,0.2737,39.5100,72,95,21507
1.7351,0.2542,38.7400,72,95,21511
1.9257,0.2542,39.4100,72,95,21514
2.2727,0.2493,39.5100,72,95,21517
2.7322,0.2590,39.4100,72,95,21520
3.1281,0.2493,39.5100,72,95,21524
3.5582,0.2542,39.4100,72,95,21527
3.7830,0.2444,39.4400,72,95,21530
3.8661,0.2542,39.5400,72,95,21533
3.7097,0.2542,39.4400,72,95,21537
3.2942,0.2444,39.4800,72,95,21540
2.8397,0.2493,39.1200,72,95,21543
2.2923,0.2297,39.5100,72,95,21547
1.8817,0.2493,39.5100,72,95,21551
1.6227,0.2542,39.4400,72,95,21554
1.4370,0.2542,39.5400,72,95,21557
1.4076,0.2542,39.4400,72,95,21560
1.3783,0.2493,39.6400,72,95,21564
1.4125,0.2444,39.5700,72,95,21567
1.4761,0.2590,39.4100,72,95,21570
1.5249,0.2493,39.5100,72,95,21573
1.5689,0.2542,39.4100,72,95,21577
1.5787,0.2444,39.4400,72,95,21580
1.6178,0.2493,39.5400,72,95,21583
1.6618,0.2542,39.4800,72,95,21587
1.6618,0.2493,39.5400,72,95,21591
1.6960,0.2590,39.3800,72,95,21594
1.6667,0.2444,39.5700,72,95,21597
1.6764,0.2493,39.5400,72,95,21601
1.7058,0.2493,39.4400,72,95,21604
1.7107,0.2444,39.5100,72,95,21607
1.7546,0.2542,39.3500,72,95,21610
1.7302,0.2493,39.6000,72,95,21614
1.7351,0.2297,39.5100,72,95,21617
1.7840,0.2590,39.3500,72,95,21620
1.7937,0.2542,39.5100,72,95,21623
1.8133,0.2542,39.3500,72,95,21627
1.7937,0.2444,39.5400,72,95,21630
1.8182,0.2493,39.5100,72,95,21634
1.8426,0.2542,39.4400,72,95,21637
1.8328,0.2493,39.5100,72,95,21641
1.8817,0.2493,39.4100,72,95,21644
1.8573,0.2444,39.5100,72,95,21647
1.8768,0.2639,39.6000,72,95,21650
1.8915,0.2542,39.4400,72,95,21654
1.8964,0.2542,39.5100,72,95,21657
1.9306,0.2542,39.4100,72,95,21660
1.9062,0.2542,39.5100,72,95,21663
1.9306,0.2493,39.7300,72,95,21667
1.9697,0.2590,39.4400,72,95,21670
1.9501,0.2493,39.5100,72,95,21673
1.9844,0.2493,39.4100,72,95,21677
1.9550,0.2444,39.4100,72,95,21681
1.9746,0.2493,39.4400,72,95,21684
2.0088,0.2542,39.3200,72,95,21687
1.9941,0.2493,39.5100,72,95,21690
2.0332,0.2590,39.4400,72,95,21694
1.9990,0.2444,39.4800,72,95,21697
2.0186,0.2493,39.5100,72,95,21700
2.0479,0.2493,39.4400,72,95,21703
2.0577,0.2395,39.5100,72,95,21707
2.1114,0.2542,39.3500,72,95,21710
2.0870,0.2493,39.5100,72,95,21713
2.0968,0.2493,39.5400,72,95,21716
2.1457,0.2590,39.3800,72,95,21721
2.1310,0.2542,39.5400,72,95,21724
2.1945,0.2542,39.4100,72,95,21727
2.1750,0.2444,39.5400,72,95,21730
2.1994,0.2493,39.5100,72,95,21734
2.2434,0.2639,39.4400,72,95,21737
2.2385,0.2493,39.5100,72,95,21740
2.3021,0.2297,39.4400,72,95,21743
2.2825,0.2444,39.5400,72,95,21747
2.3069,0.2493,39.5400,72,95,21750
2.3460,0.2493,39.4400,72,95,21753
2.3607,0.2542,39.5100,72,95,21756
2.4047,0.2493,39.4100,72,95,21761
2.3803,0.2493,39.5700,72,95,21764
2.4047,0.2493,39.5100,72,95,21767
2.4585,0.2590,39.4100,72,95,21770
2.4145,0.2493,39.5100,72,95,21774
2.4487,0.2737,39.4100,72,95,21777
2.3998,0.2444,39.4100,72,95,21780
2.3949,0.2493,39.5400,72,95,21783
2.3900,0.2590,39.4100,72,95,21787
2.3314,0.2493,39.6000,72,95,21790
2.3069,0.2590,39.4100,72,95,21793
2.1945,0.2590,39.5400,72,95,21796
2.1261,0.2639,39.5100,72,95,21800
2.0772,0.2493,39.5100,72,95,21804
1.9941,0.2493,39.5400,72,95,21807
1.9501,0.2590,39.3800,72,95,21810
1.8377,0.2493,39.5400,72,95,21814
1.7742,0.2493,39.5400,72,95,21817
1.7302,0.2590,39.4400,72,95,21820
1.6422,0.2493,39.4800,72,95,21823
1.6520,0.2590,39.4100,72,95,21827
1.5494,0.2493,39.4100,72,95,21830
1.5152,0.2493,39.5100,72,95,21833
1.5005,0.2590,39.4400,72,95,21836
1.4516,0.2542,39.4800,72,95,21840
1.4565,0.2493,39.3500,72,95,21843
1.4223,0.2493,39.4100,72,95,21847
1.4223,0.2493,39.1200,72,95,21850
1.4321,0.2493,39.4800,72,95,21854
1.4125,0.2493,39.5100,72,95,21857
1.4370,0.2639,39.4100,72,95,21860
1.4272,0.2493,39.5100,72,95,21863
1.4467,0.2542,39.5700,72,95,21867
1.4809,0.2590,39.3800,72,95,21870
1.4614,0.2493,39.5700,72,95,21873
1.4907,0.2590,39.4100,72,95,21876
1.5152,0.2493,39.5400,72,95,21880
1.5005,0.2737,39.5700,72,95,21883
1.5396,0.2590,39.4400,72,95,21886
1.5347,0.2493,39.5400,72,95,21890
1.5738,0.2639,39.4400,72,95,21894
1.5298,0.2493,39.5100,72,95,21897
1.5347,0.2493,39.5100,72,95,21900
1.5640,0.2884,39.4800,72,95,21903
1.5640,0.2493,39.5400,72,95,21907
1.6031,0.2493,39.4100,72,95,21910
1.5836,0.2493,39.5100,72,95,21913
1.5885,0.2493,39.5100,72,95,21916
1.6227,0.2639,39.3500,72,95,21920
1.5934,0.2884,39.5100,72,95,21923
1.6373,0.2590,39.3500,72,95,21926
1.6129,0.2297,39.5400,72,95,21929
1.6178,0.2444,39.5100,72,95,21934
1.6422,0.2639,39.4100,72,95,21937
1.6276,0.2493,39.5100,72,95,21940
1.6716,0.2493,39.4100,72,95,21943
1.6667,0.2493,39.5100,72,95,21947
1.6520,0.2493,39.5100,72,95,21950
1.6569,0.2542,39.4400,72,95,21953
1.6471,0.2493,39.4400,72,95,21956
1.6764,0.2590,39.4100,72,95,21960
1.6520,0.2493,39.5400,72,95,21963
1.6813,0.2493,39.5100,72,95,21966
1.7107,0.2737,39.3500,72,95,21969
1.6764,0.2493,39.4800,72,95,21974
1.6960,0.2590,39.4100,72,95,21977
1.6667,0.2493,39.5400,72,95,21980
1.6813,0.2542,39.5100,72,95,21983
1.7155,0.2639,39.4100,72,95,21987
1.7058,0.2493,39.6000,72,95,21990
1.7302,0.2590,39.4100,72,95,21993
1.6911,0.2444,39.4800,72,95,21996
1.6911,0.2444,39.5100,72,95,22000
1.7107,0.2639,39.4400,72,95,22003
1.7009,0.2493,39.5100,72,95,22006
1.7253,0.2493,39.3800,72,95,22009
1.7009,0.2493,39.5700,72,95,22013
1.7058,0.2395,39.4800,72,95,22017
1.7302,0.2590,39.8300,72,95,22020
1.7204,0.2542,39.4400,72,95,22024
1.6813,0.2493,39.4800,72,95,22027
1.7009,0.2542,39.3200,72,95,22030
1.6618,0.2493,39.4800,72,95,22034
1.6667,0.2493,39.5400,72,95,22037
1.6813,0.2493,39.4400,72,95,22040
1.6667,0.2542,39.5400,72,95,22043
1.7058,0.2542,39.3200,72,95,22047
1.6862,0.2493,39.5700,72,95,22050
1.7107,0.2297,39.5100,72,95,22053
1.7449,0.2639,39.4100,72,95,22056
1.7253,0.2542,39.5100,72,95,22061
1.7595,0.2542,39.3200,72,95,22064
1.7498,0.2493,39.5700,72,95,22067
1.7644,0.2493,39.5100,72,95,22070
1.8035,0.2542,39.4400,72,95,22074
1.8035,0.2493,39.5100,72,95,22077
1.8475,0.2542,39.2800,72,95,22080
1.8133,0.2493,39.5400,72,95,22083
1.8231,0.2444,39.5100,72,95,22087
1.8426,0.2542,39.4400,72,95,22090
1.8524,0.2493,39.5100,72,95,22093
1.9013,0.2590,39.3200,72,95,22096
1.8768,0.2688,39.5400,72,95,22100
1.8817,0.2493,39.5400,72,95,22104
1.9013,0.2493,39.4100,72,95,22107
1.8719,0.2493,39.5100,72,95,22111
1.9110,0.2542,39.3800,72,95,22114
1.8817,0.2493,39.6000,72,95,22117
1.8719,0.2493,39.5100,72,95,22120
1.8719,0.2542,39.4400,72,95,22124
1.8280,0.2542,39.5100,72,95,22127
1.8573,0.2542,39.3200,72,95,22130
1.7986,0.2542,39.4400,72,95,22133
1.7840,0.2493,39.7700,72,95,22137
1.7791,0.2542,39.4400,72,95,22140
1.7351,0.2395,39.5400,72,95,22144
1.7498,0.2542,39.3800,72,95,22147
1.7058,0.2444,39.5400,72,95,22151
1.7058,0.2493,39.6700,72,95,22154
1.7204,0.2297,39.4400,72,95,22157
1.6911,0.2493,39.5100,72,95,22160
1.7204,0.2542,39.3200,72,95,22164
1.6911,0.2688,39.3800,72,95,22167
1.6911,0.2493,39.4800,72,95,22170
1.7058,0.2590,39.4800,72,95,22173
1.6911,0.2297,39.5100,72,95,22177
1.6911,0.2542,39.3500,72,95,22180
1.6080,0.2542,39.4100,72,95,22183
1.5494,0.2444,39.5400,72,95,22187
1.5200,0.2542,39.4400,72,95,22191
1.5347,0.2542,39.5400,72,95,22194
1.6764,0.2542,39.3800,72,95,22197
1.8817,0.2444,39.5400,72,95,22200
2.2385,0.2493,39.6000,72,95,22204
2.6784,0.2590,39.4400,72,95,22207
3.0596,0.2493,39.5400,72,95,22210
3.5044,0.2542,39.2200,72,95,22213
3.7439,0.2493,39.4400,72,95,22217
3.8172,0.2493,39.5100,72,95,22220
3.6364,0.2493,39.4400,72,95,22223
3.2160,0.2542,39.5700,72,95,22226
2.7615,0.2542,38.4300,72,95,22231
2.2092,0.2493,39.4400,72,95,22234
1.8035,0.2493,39.5100,72,95,22237
1.5347,0.2542,39.4100,72,95,22240
1.3783,0.2542,39.4800,72,95,22244
1.3539,0.2493,38.9600,72,95,22247
1.3392,0.2639,39.5400,72,95,22250
1.3832,0.2493,39.5100,72,95,22253
1.4321,0.2590,39.4400,72,95,22257
1.4516,0.2297,39.5400,72,95,22260
1.5591,0.2542,39.3200,72,95,22263
1.5298,0.2493,39.4100,72,95,22266
1.5543,0.2493,39.6000,72,95,22270
1.5836,0.2542,39.6400,72,95,22274
1.5787,0.2493,39.5700,72,95,22277
1.6227,0.2493,39.3200,72,95,22280
1.5982,0.2493,39.4800,72,95,22284
1.6080,0.2639,39.5400,72,95,22287
1.6373,0.2542,39.5100,72,95,22290
1.6422,0.2493,39.5100,72,95,22293
1.6911,0.2542,39.3200,72,95,22297
1.6862,0.2542,39.5100,72,95,22300
1.6862,0.2395,39.5400,72,95,22303
1.7058,0.2542,39.4800,72,95,22306
1.6960,0.2493,39.5700,72,95,22310
1.7498,0.2542,39.3200,72,95,22313
1.7546,0.2542,39.4100,72,95,22317
1.7400,0.2493,39.5400,72,95,22320
1.7546,0.2542,39.3500,72,95,22324
1.7546,0.2297,39.5100,72,95,22327
1.8182,0.2542,39.3200,72,95,22330
1.7937,0.2542,39.4800,72,95,22333
1.8035,0.2493,39.5100,72,95,22337
1.8231,0.2542,39.5100,72,95,22340
1.8133,0.2493,39.5100,72,95,22343
1.8573,0.2493,39.3500,72,95,22346
1.8377,0.2493,39.5400,72,95,22350
1.8622,0.2542,39.5700,72,95,22353
1.8915,0.2933,39.4100,72,95,22356
1.8768,0.2590,39.5100,72,95,22361
1.9208,0.2542,39.3200,72,95,22364
1.9013,0.2493,39.3800,72,95,22367
1.9110,0.2444,39.5700,72,95,22370
1.9453,0.2639,39.4400,72,95,22374
1.9453,0.2542,39.5100,72,95,22377
1.9941,0.2542,39.2800,72,95,22380
1.9599,0.2493,39.8900,72,95,22383
1.9746,0.2493,39.5100,72,95,22387
2.0283,0.2639,39.4400,72,95,22390
2.0088,0.2493,39.5400,72,95,22393
2.0674,0.2542,39.3200,72,95,22396
2.0381,0.2493,39.5100,72,95,22401
2.0528,0.2542,39.5100,72,95,22404
2.0870,0.2590,39.4100,72,95,22407
2.0821,0.2493,39.5100,72,95,22410
2.1505,0.2542,39.3500,72,95,22414
2.1408,0.2493,39.4100,72,95,22417
2.1554,0.2493,39.5100,72,95,22420
2.1896,0.2590,39.4800,72,95,22423
2.1896,0.2493,39.5100,72,95,22427
2.2581,0.2542,39.3800,72,95,22430
2.2434,0.2493,39.4800,72,95,22433
2.2678,0.2493,39.5400,72,95,22436
2.3069,0.2542,39.3800,72,95,22440
2.2972,0.2590,39.5100,72,95,22444
2.3558,0.2542,39.3500,72,95,22447
2.3314,0.2493,39.6700,72,95,22450
2.3607,0.2493,39.5100,72,95,22454
2.3900,0.2590,39.4400,72,95,22457
2.3607,0.2542,39.5700,72,95,22460
2.3998,0.2542,39.3200,72,95,22463
2.3607,0.2493,39.4100,72,95,22467
2.3412,0.2493,39.5700,72,95,22470
2.3509,0.2590,39.4100,72,95,22473
2.2776,0.2493,39.5100,72,95,22476
2.2532,0.2542,39.3500,72,95,22480
2.1408,0.2835,39.4800,72,95,22483
2.0674,0.2493,39.7300,72,95,22487
2.0137,0.2542,39.4100,72,95,22490
1.9208,0.2493,39.5100,72,95,22493
1.8768,0.2493,39.4400,72,95,22497
1.7693,0.2493,39.5400,72,95,22500
1.7009,0.2493,39.5400,72,95,22503
1.6520,0.2590,39.4100,72,95,22506
1.5640,0.2542,39.4800,72,95,22510
1.5445,0.2493,39.3800,72,95,22513
1.4761,0.2493,39.4400,72,95,22516
1.4370,0.2395,39.5100,72,95,22519
1.4174,0.2542,39.4100,72,95,22523
1.3832,0.2590,39.4800,72,95,22526
1.3832,0.2493,39.4400,72,95,22530
1.3441,0.2493,39.4800,72,95,22534
1.3441,0.2493,39.5100,72,95,22537
1.3539,0.2542,39.4100,72,95,22540
1.3392,0.2493,39.5100,72,95,22543
1.3685,0.2835,39.3500,72,95,22547
1.3587,0.2542,39.5100,72,95,22550
1.3783,0.2493,39.5100,72,95,22553
1.4125,0.2590,39.4400,72,95,22556
1.3930,0.2493,39.7000,72,95,22560
1.4321,0.2542,39.3500,72,95,22563
1.4125,0.2493,39.4400,72,95,22566
1.4321,0.2786,39.6000,72,95,22569
1.4614,0.2688,39.4400,72,95,22574
1.4663,0.2493,39.4800,72,95,22577
1.5005,0.2542,39.3500,72,95,22580
1.4761,0.2542,39.4800,72,95,22583
1.4956,0.2493,39.5100,72,95,22587
1.5249,0.2835,39.4100,72,95,22590
1.5347,0.2493,39.6400,72,95,22593
1.5738,0.2542,39.3500,72,95,22596
1.5494,0.2493,39.5400,72,95,22600
1.5982,0.2493,39.5400,72,95,22603
1.5836,0.2542,39.3800,72,95,22606
1.5640,0.2688,39.5100,72,95,22609
1.6080,0.2542,39.3500,72,95,22614
1.5982,0.2542,39.4400,72,95,22617
1.5982,0.2542,39.5100,72,95,22620
1.6129,0.2590,39.4400,72,95,22623
1.6031,0.2493,39.6000,72,95,22627
1.6422,0.2542,39.3500,72,95,22630
1.6276,0.2639,39.2200,72,95,22633
1.6325,0.2590,39.5100,72,95,22637
1.6471,0.2493,39.5400,72,95,22640
1.6667,0.2590,39.5100,72,95,22643
1.6422,0.2493,39.5100,72,95,22647
1.6813,0.2639,39.2800,72,95,22650
1.6618,0.2933,39.4100,72,95,22653
1.6618,0.2493,39.6000,72,95,22657
1.6862,0.2542,38.8400,72,95,22661
1.6911,0.2493,39.5100,72,95,22664
1.7351,0.2297,39.2500,72,95,22667
1.6960,0.2297,39.4400,72,95,22670
1.6911,0.2493,39.5100,72,95,22674
1.7107,0.2981,39.5100,72,95,22677
1.7058,0.2493,39.6000,72,95,22680
1.7449,0.2590,39.2500,72,95,22683
1.7058,0.2297,39.4800,72,95,22687
1.7155,0.2688,39.5400,72,95,22690
1.7253,0.2590,39.3500,72,95,22693
1.7107,0.2493,39.5400,72,95,22696
1.7693,0.2590,39.2800,72,95,22701
1.7400,0.2639,39.4100,72,95,22704
1.7302,0.2493,39.3500,72,95,22707
1.7351,0.2590,39.4800,72,95,22710
1.7253,0.2493,39.5400,72,95,22714
1.7889,0.2590,39.2500,72,95,22717
1.7351,0.2542,39.4400,72,95,22720
1.7400,0.2542,39.4800,72,95,22723
1.7546,0.2590,39.4800,72,95,22727
1.7302,0.2493,39.5100,72,95,22730
1.7742,0.2639,39.2500,72,95,22733
1.7302,0.2395,39.4800,72,95,22736
1.7449,0.2493,39.5400,72,95,22740
1.7546,0.2590,39.5400,72,95,22744
1.7351,0.2493,39.5100,72,95,22747
1.7889,0.2590,39.3200,72,95,22750
1.7498,0.2542,39.4100,72,95,22754
1.7449,0.2493,39.5100,72,95,22757
1.7595,0.2542,39.4800,72,95,22760
1.7595,0.2493,39.5100,72,95,22763
1.7986,0.2590,39.2800,72,95,22767
1.7595,0.2639,39.4400,72,95,22770
1.7498,0.2493,39.5400,72,95,22773
1.7693,0.2542,38.6800,72,95,22776
1.7595,0.2297,39.5100,72,95,22780
1.8084,0.2639,39.2800,72,95,22784
1.7595,0.2444,39.5100,72,95,22787
1.7644,0.2493,39.7000,72,95,22790
1.7742,0.2590,39.4800,72,95,22794
1.7546,0.2297,39.5400,72,95,22797
1.8084,0.2639,39.3200,72,95,22800
1.7840,0.2542,39.4400,72,95,22803
1.7644,0.2493,39.5100,72,95,22807
1.7840,0.2542,39.4400,72,95,22810
1.8035,0.2444,39.5100,72,95,22813
1.8426,0.2590,39.2500,72,95,22816
1.8182,0.2542,39.4100,72,95,22820
1.8328,0.2493,39.5100,72,95,22823
1.8573,0.2590,39.4400,72,95,22827
1.8426,0.2542,39.5700,72,95,22830
1.8964,0.2590,39.2800,72,95,22834
1.8622,0.2444,39.5700,72,95,22837
1.8866,0.2297,39.5400,72,95,22840
1.9257,0.2590,39.4400,72,95,22843
1.8964,0.2542,39.5100,72,95,22847
1.9404,0.2639,39.2800,72,95,22850
1.9110,0.2542,39.5700,72,95,22853
1.9062,0.2493,39.5100,72,95,22856
1.9208,0.2542,39.5400,72,95,22860
1.9062,0.2737,39.5700,72,95,22863
1.9453,0.2590,39.4100,72,95,22866
1.8866,0.2542,39.4800,72,95,22870
1.8573,0.2493,39.5100,72,95,22874
1.8915,0.2590,39.5100,72,95,22877
1.8280,0.2542,39.5400,72,95,22880
1.8524,0.2590,39.2800,72,95,22883
1.7937,0.2493,39.4800,72,95,22887
1.7889,0.2493,39.5100,72,95,22890
1.7742,0.2835,39.4400,72,95,22893
1.7400,0.2542,39.4800,72,95,22896
1.7791,0.2590,38.4900,72,95,22900
1.7498,0.2590,39.4400,72,95,22903
1.7302,0.2542,39.5700,72,95,22906
1.7351,0.2639,39.4800,72,95,22909
1.7204,0.2493,39.7300,72,95,22914
1.7644,0.2542,39.2800,72,95,22917
1.7253,0.2297,39.4800,72,95,22920
1.7204,0.2542,39.5100,72,95,22923
1.7107,0.2737,39.4800,72,95,22927
1.6422,0.2493,39.4100,72,95,22930
1.6178,0.2590,39.2800,72,95,22933
1.5298,0.2444,39.5100,72,95,22936
1.5445,0.2444,39.5700,72,95,22940
1.6471,0.2590,39.4100,72,95,22943
1.8328,0.2493,39.7300,72,95,22946
2.2092,0.2297,39.2800,72,95,22949
2.5758,0.2639,39.4100,72,95,22953
2.9717,0.2493,39.6400,72,95,22957
3.3724,0.2590,39.5400,72,95,22960
3.6510,0.2297,39.5100,72,95,22963
3.8563,0.2639,39.3200,72,95,22967
3.6559,0.2542,39.4100,72,95,22970
3.3138,0.2493,39.5100,72,95,22973
2.8788,0.2590,39.4400,72,95,22976
2.3509,0.2493,39.5400,72,95,22980
1.9697,0.2590,39.3200,72,95,22983
1.6276,0.2493,39.5100,72,95,22986
1.4565,0.2542,39.5100,72,95,22989
1.4027,0.2639,39.4400,72,95,22993
1.3832,0.2493,39.4800,72,95,22996
1.4418,0.2542,39.4800,72,95,23000
1.4565,0.2542,39.4100,72,95,23003
1.4858,0.2493,39.5400,72,95,23007
1.5543,0.2590,39.4100,72,95,23010
1.5494,0.2835,39.4800,72,95,23013
1.6080,0.2542,39.3200,72,95,23016
1.5836,0.2493,39.4400,72,95,23020
1.5982,0.2493,39.5100,72,95,23023
1.6471,0.2493,39.4400,72,95,23026
1.6080,0.2493,39.5100,72,95,23029
1.6569,0.2297,39.3200,72,95,23033
1.6373,0.2493,39.5400,72,95,23036
1.6862,0.2493,39.5100,72,95,23040
1.6862,0.2639,39.4400,72,95,23043
1.6813,0.2493,39.4800,72,95,23047
1.7253,0.2542,39.3200,72,95,23050
1.7155,0.2542,39.4400,72,95,23053
1.7253,0.2542,39.5700,72,95,23056
1.7449,0.2590,39.4400,72,95,23060
1.7546,0.2590,39.5400,72,95,23063
1.7986,0.2542,39.2800,72,95,23066
1.7889,0.2542,39.4400,72,95,23069
1.7742,0.2542,39.5700,72,95,23073
1.8084,0.2590,39.3500,72,95,23076
1.8084,0.2297,39.5100,72,95,23079
1.8573,0.2786,39.2800,72,95,23083
1.8280,0.2542,39.5100,72,95,23087
1.8426,0.2493,38.6800,72,95,23090
1.8671,0.2590,39.4400,72,95,23093
1.8915,0.2493,39.5100,72,95,23096
1.9159,0.2542,39.3500,72,95,23100
1.9062,0.2542,39.5400,72,95,23103
1.9159,0.2493,39.5400,72,95,23106
1.9404,0.2590,39.4400,72,95,23109
1.9355,0.2493,39.4800,72,95,23113
1.9892,0.2542,39.3200,72,95,23116
1.9697,0.2590,39.5700,72,95,23119
1.9941,0.2493,39.5400,72,95,23122
2.0137,0.2493,39.3800,72,95,23127
2.0039,0.2493,39.5100,72,95,23130
2.0430,0.2542,39.3200,72,95,23133
2.0381,0.2590,39.5100,72,95,23136
2.0626,0.2493,39.4800,72,95,23140
2.1017,0.2590,39.4400,72,95,23143
2.0821,0.2493,39.6000,72,95,23146
2.1359,0.2542,39.4100,72,95,23149
2.1212,0.2493,39.5100,72,95,23153
2.1408,0.2493,39.5100,72,95,23156
2.1799,0.2542,39.4100,72,95,23159
2.1945,0.2542,39.5100,72,95,23162
2.2385,0.2639,39.3500,72,95,23166
2.2141,0.2542,39.4400,72,95,23170
2.2385,0.2493,39.6400,72,95,23173
2.2825,0.2297,39.4100,72,95,23176
2.2923,0.2542,39.5100,72,95,23180
2.3558,0.2542,39.3500,72,95,23183
2.3363,0.2542,39.4800,72,95,23186
2.3607,0.2493,39.5100,72,95,23189
2.4340,0.2590,39.4400,72,95,23193
2.3900,0.2542,39.5400,72,95,23196
2.4487,0.2542,39.3500,72,95,23199
2.4291,0.2493,39.4100,72,95,23202
2.4291,0.2493,39.5100,72,95,23206
2.4585,0.2590,39.4400,72,95,23209
2.4242,0.2542,39.5100,72,95,23213
2.4585,0.2493,39.3500,72,95,23216
2.4047,0.2493,39.4800,72,95,23220
2.3803,0.2542,39.5100,72,95,23223
2.3558,0.2542,39.3800,72,95,23226
2.2776,0.2493,39.5100,72,95,23229
2.2532,0.2542,39.3500,72,95,23233
2.1359,0.2493,39.5100,72,95,23236
2.0772,0.2444,39.4800,72,95,23239
2.0235,0.2590,39.4100,72,95,23242
1.6373,0.2542,39.5100,72,95,23246
1.5738,0.2493,39.6000,72,95,23249
1.5640,0.2590,39.2500,72,95,23254
1.4761,0.2542,39.5100,72,95,23257
1.4516,0.2493,39.5100,72,95,23260
1.4223,0.2542,39.4400,72,95,23263
1.4027,0.2493,38.8400,72,95,23267
1.4467,0.2590,39.2500,72,95,23270
1.4027,0.2493,39.4800,72,95,23273
1.4125,0.2493,39.5700,72,95,23276
1.4223,0.2639,39.4800,72,95,23280
1.4125,0.2542,39.4800,72,95,23283
1.4614,0.2590,39.3800,72,95,23286
1.4516,0.2542,39.4100,72,95,23289
1.4467,0.2590,39.4800,72,95,23293
1.4614,0.2590,39.4800,72,95,23297
1.4614,0.2493,39.6700,72,95,23300
1.5200,0.2590,39.2500,72,95,23303
1.5298,0.2493,39.4800,72,95,23307
1.5054,0.2493,39.6400,72,95,23310
1.5298,0.2590,39.4400,72,95,23313
1.5249,0.2493,39.5400,72,95,23316
1.5738,0.2590,39.2800,72,95,23320
1.5494,0.2493,39.4800,72,95,23323
1.5787,0.2493,39.5100,72,95,23326
1.6129,0.3030,39.5700,72,95,23329
1.5934,0.2542,39.5400,72,95,23333
1.6422,0.2590,39.2800,72,95,23336
1.6276,0.2493,39.4100,72,95,23340
1.6276,0.2493,39.5400,72,95,23343
1.6520,0.2884,39.4400,72,95,23347
1.6569,0.2493,39.6000,72,95,23350
1.7155,0.2493,39.2800,72,95,23353
1.6520,0.2493,39.4800,72,95,23356
1.6520,0.2444,39.4800,72,95,23360
1.6716,0.2590,38.5500,72,95,23363
1.6667,0.2297,39.5100,72,95,23366
1.7302,0.2493,39.2200,72,95,23369
1.7107,0.2395,39.5100,72,95,23373
1.6911,0.2590,39.5100,72,95,23376
1.7009,0.2590,39.5100,72,95,23379
1.6813,0.2297,39.5100,72,95,23383
1.7644,0.2542,39.2500,72,95,23387
1.7107,0.2590,39.4100,72,95,23390
1.7009,0.2542,39.5700,72,95,23393
1.7107,0.2542,39.5100,72,95,23396
1.7155,0.2493,39.5100,72,95,23400
1.7498,0.2639,39.3200,72,95,23403
1.7155,0.2590,39.4400,72,95,23406
1.7204,0.2493,39.5400,72,95,23409
1.7400,0.2590,39.4400,72,95,23413
1.7107,0.2835,39.5700,72,95,23416
1.7546,0.2590,39.2800,72,95,23419
1.7204,0.2444,39.5100,72,95,23422
1.7595,0.2493,39.4800,72,95,23427
1.7546,0.2884,39.4100,72,95,23430
1.7253,0.2542,39.5100,72,95,23433
1.7644,0.2590,39.3500,72,95,23436
1.7400,0.2542,39.4100,72,95,23440
1.7351,0.2395,39.5100,72,95,23443
1.7595,0.2590,39.4800,72,95,23446
1.7498,0.2493,39.5100,72,95,23449
1.7889,0.2590,39.2800,72,95,23453
1.7449,0.2542,39.4800,72,95,23456
1.7498,0.2297,39.6000,72,95,23459
1.7644,0.2590,39.4400,72,95,23462
1.7546,0.2493,39.6000,72,95,23467
1.8084,0.2590,39.2800,72,95,23470
1.7693,0.2542,39.5100,72,95,23473
1.7644,0.2493,39.5700,72,95,23476
1.7840,0.2688,39.2200,72,95,23480
1.7595,0.2493,39.5700,72,95,23483
1.8084,0.2590,39.2800,72,95,23486
1.7840,0.2542,39.4100,72,95,23489
1.7742,0.2297,39.5100,72,95,23493
1.7889,0.2590,39.4800,72,95,23496
1.7791,0.2493,39.5100,72,95,23499
1.8182,0.2542,39.2800,72,95,23502
1.7840,0.2639,39.4800,72,95,23506
1.7889,0.2493,39.4800,72,95,23510
1.7986,0.2590,39.4400,72,95,23513
1.7791,0.2493,39.5100,72,95,23516
1.8133,0.2688,39.2800,72,95,23520
1.7791,0.2444,39.5700,72,95,23523
1.7937,0.2493,39.4400,72,95,23526
1.8133,0.2590,39.4400,72,95,23529
1.7742,0.2493,39.5100,72,95,23533
1.8182,0.2590,39.2800,72,95,23536
1.7937,0.2542,39.4100,72,95,23539
1.7937,0.2493,39.5400,72,95,23542
1.8133,0.2590,39.5400,72,95,23546
1.7986,0.2493,39.5100,72,95,23549
1.8426,0.2639,39.2500,72,95,23553
1.7937,0.2786,39.4400,72,95,23556
1.7937,0.2493,39.6400,72,95,23560
1.8133,0.2590,39.4400,72,95,23563
1.7937,0.2493,39.5400,72,95,23566
1.8426,0.2590,39.2800,72,95,23569
1.8035,0.2737,39.5400,72,95,23573
1.8084,0.2493,39.5100,72,95,23576
1.8377,0.2590,39.4400,72,95,23579
1.8231,0.2542,39.5700,72,95,23582
1.8524,0.2444,39.3200,72,95,23586
1.8328,0.2542,39.8300,72,95,23589
1.8231,0.2493,39.5100,72,95,23592
1.8280,0.2590,39.7300,72,95,23597
1.8182,0.2493,39.5400,72,95,23600
1.8573,0.2542,39.2800,72,95,23603
1.8231,0.2590,39.5700,72,95,23606
1.8280,0.2493,39.5700,72,95,23610
1.8426,0.2590,39.4400,72,95,23613
1.8377,0.2542,39.5100,72,95,23616
1.8622,0.2542,39.3500,72,95,23619
1.8280,0.2493,39.5100,72,95,23623
1.8524,0.2493,39.5400,72,95,23626
1.8768,0.2590,39.5400,72,95,23629
1.8524,0.2493,39.5100,72,95,23632
1.9159,0.2493,39.3200,72,95,23636
1.8915,0.2542,39.5700,72,95,23640
1.9013,0.2493,39.6400,72,95,23643
1.9306,0.2590,39.3200,72,95,23646
1.9257,0.2493,39.5100,72,95,23650
1.9648,0.2590,39.2800,72,95,23653
1.9306,0.2542,39.4400,72,95,23656
1.9404,0.2493,39.4100,72,95,23659
1.9746,0.2590,39.4400,72,95,23663
1.9648,0.2542,39.5100,72,95,23666
2.0186,0.2590,39.2500,72,95,23669
1.9648,0.2493,39.6400,72,95,23672
1.9599,0.2493,39.5100,72,95,23676
1.9697,0.2590,39.4800,72,95,23680
1.9404,0.2493,39.5100,72,95,23683
1.9697,0.2542,39.2800,72,95,23686
1.9208,0.2542,39.4400,72,95,23690
1.8817,0.2493,39.5400,72,95,23693
1.8719,0.2590,39.4800,72,95,23696
1.8573,0.2493,39.5100,72,95,23699
1.8671,0.2542,39.2800,72,95,23703
1.8182,0.2590,39.4400,72,95,23706
1.8084,0.2493,39.4400,72,95,23709
1.8133,0.2590,38.8400,72,95,23712
1.7889,0.2493,39.5100,72,95,23716
1.8084,0.2639,39.2800,72,95,23719
1.7644,0.2542,39.4800,72,95,23723
1.7791,0.2493,39.4100,72,95,23726
1.7937,0.2590,39.2800,72,95,23730
1.7644,0.2493,39.5400,72,95,23733
1.8084,0.2493,39.2800,72,95,23736
1.7498,0.2493,39.4400,72,95,23739
1.7058,0.2493,39.5700,72,95,23743
1.6667,0.2590,39.4800,72,95,23746
1.6031,0.2493,39.5100,72,95,23749
1.6178,0.2639,39.2800,72,95,23752
1.6471,0.2542,39.4400,72,95,23756
1.8231,0.2493,39.4800,72,95,23759
2.1457,0.2590,39.4400,72,95,23762
2.5220,0.2542,39.5100,72,95,23766
2.9961,0.2590,39.2500,72,95,23770
3.3187,0.2590,39.6400,72,95,23773
3.6413,0.2493,39.5100,72,95,23776
