ecg,gsr,temp,hr,spo2,timest
1.5103,0.3128,39.3500,85,98,374117
1.5396,0.2395,39.4400,85,98,374120
1.8182,0.2199,39.4800,85,98,374123
2.0137,0.2688,39.4100,85,98,374127
1.9746,0.3275,39.2800,85,98,374130
1.6569,0.3421,39.4800,85,98,374133
1.4956,0.3030,39.3800,85,98,374137
1.6080,0.2297,39.4400,85,98,374140
1.8817,0.2248,39.4800,85,98,374144
2.1065,0.2884,39.4100,85,98,374147
1.9453,0.3275,39.4100,85,98,374151
1.6862,0.3372,39.3200,85,98,374154
1.5445,0.2688,39.4800,85,98,374157
1.6862,0.2346,39.4800,85,98,374161
2.0137,0.2297,39.3500,85,98,374164
2.1603,0.2835,39.4100,85,98,374167
2.0968,0.3275,39.4400,85,98,374171
1.7742,0.3275,39.7000,85,98,374174
1.6764,0.2933,39.4800,85,98,374177
1.8475,0.2444,39.3200,85,98,374181
2.1017,0.2297,39.4800,85,98,374184
2.2434,0.2981,39.2500,85,98,374188
2.0186,0.3372,39.4800,85,98,374191
1.7449,0.3226,39.4400,85,98,374195
1.6667,0.2835,39.4100,85,98,374198
1.8133,0.2248,39.4400,85,98,374201
2.1114,0.2297,39.1900,85,98,374205
2.1261,0.3128,39.3500,85,98,374208
1.8964,0.3324,39.4400,85,98,374211
1.5934,0.3275,39.4100,85,98,374215
1.5054,0.2737,39.4400,85,98,374218
1.7009,0.2395,39.3200,85,98,374221
1.9110,0.2542,39.4100,85,98,374225
1.9306,0.3568,39.3800,85,98,374228
1.7009,0.3372,39.4400,85,98,374232
1.4467,0.3128,39.6700,85,98,374236
1.4272,0.3275,39.3200,85,98,374239
1.6031,0.2248,39.4400,85,98,374242
1.8768,0.2542,39.3500,85,98,374245
1.8719,0.3079,39.5700,85,98,374249
1.6471,0.3275,39.4400,85,98,374252
1.4370,0.3128,39.3500,85,98,374255
1.4321,0.2786,39.4400,85,98,374259
1.6862,0.2151,39.3800,85,98,374262
1.9013,0.2297,39.4800,85,98,374265
1.8817,0.3128,39.4400,85,98,374269
1.6520,0.3421,39.3800,85,98,374273
1.4125,0.3128,39.4400,85,98,374276
1.4663,0.2493,39.2500,85,98,374280
1.7400,0.2248,39.3500,85,98,374283
2.0528,0.2590,39.4800,85,98,374286
2.1750,0.3421,39.3800,85,98,374290
2.0528,0.3275,39.4800,85,98,374293
2.0723,0.3128,39.1200,85,98,374296
2.2092,0.2395,39.3800,85,98,374299
2.4927,0.2248,39.4400,85,98,374303
2.6051,0.2688,39.4400,85,98,374306
2.3851,0.3177,39.4400,85,98,374309
2.0577,0.3519,39.2500,85,98,374313
1.6862,0.3079,39.2200,85,98,374317
1.6227,0.2395,39.3200,85,98,374320
1.7595,0.2493,39.4100,85,98,374324
1.8524,0.2688,39.4800,85,98,374327
1.7204,0.3372,39.3800,85,98,374330
1.4174,0.3324,39.4400,85,98,374334
1.2854,0.2981,39.3500,85,98,374337
1.3832,0.2444,39.4400,85,98,374340
1.6520,0.2395,39.4400,85,98,374344
1.8573,0.2884,39.3200,85,98,374347
1.7155,0.3275,39.4400,85,98,374350
1.4956,0.3372,39.3800,85,98,374353
1.3636,0.2835,39.3800,85,98,374358
1.5005,0.2346,39.4800,85,98,374361
1.7986,0.2346,39.3500,85,98,374364
1.9159,0.2786,39.4400,85,98,374368
1.7889,0.3324,39.3200,85,98,374371
1.5249,0.3226,39.3800,85,98,374374
1.4370,0.2786,39.4100,85,98,374378
1.6129,0.2493,39.3800,85,98,374381
1.8915,0.2346,39.4400,85,98,374384
2.0186,0.3030,39.2200,85,98,374388
1.7986,0.3324,39.3800,85,98,374391
1.5640,0.3177,39.5100,85,98,374394
1.5054,0.2786,39.4100,85,98,374398
1.6813,0.2297,39.4800,85,98,374402
1.9892,0.2590,39.2200,85,98,374405
2.0186,0.3030,39.4100,85,98,374408
1.8231,0.3226,39.5100,85,98,374412
1.6031,0.3177,39.4400,85,98,374415
1.5640,0.2688,39.4800,85,98,374418
1.7840,0.2346,39.3800,85,98,374422
2.0137,0.2639,39.4100,85,98,374425
2.0723,0.2884,39.3500,85,98,374428
1.8426,0.3275,39.5400,85,98,374432
1.6325,0.2981,39.4400,85,98,374435
1.6373,0.2639,39.3500,85,98,374438
1.8133,0.2297,39.4400,85,98,374443
2.0723,0.2639,39.4800,85,98,374446
2.0528,0.3079,39.5100,85,98,374449
1.8475,0.3275,39.4800,85,98,374452
1.6667,0.3079,39.3800,85,98,374456
1.6911,0.2542,39.4400,85,98,374459
1.9257,0.2346,39.3200,85,98,374462
2.0968,0.2639,39.4800,85,98,374466
2.0772,0.3128,39.5100,85,98,374469
1.8768,0.3324,39.3800,85,98,374472
1.6813,0.3030,39.4800,85,98,374476
1.7546,0.2590,39.1900,85,98,374479
1.9746,0.2346,39.3800,85,98,374482
2.1603,0.2688,39.4400,85,98,374487
2.1261,0.3617,39.3800,85,98,374490
1.8866,0.3226,39.4400,85,98,374493
1.7840,0.3079,39.1600,85,98,374497
1.9355,0.3275,39.3200,85,98,374500
1.7742,0.2933,39.5100,85,98,374504
1.8768,0.2444,39.3200,85,98,374507
2.0919,0.2346,39.4400,85,98,374510
2.2287,0.2737,39.4800,85,98,374513
2.1261,0.3226,39.4100,85,98,374517
1.8768,0.3324,39.4800,85,98,374520
1.7986,0.2884,39.3500,85,98,374523
1.8866,0.2346,39.5100,85,98,374528
2.1163,0.2688,39.4800,85,98,374531
2.2532,0.2884,39.3800,85,98,374534
2.0674,0.3324,39.4400,85,98,374538
1.8622,0.3226,39.2500,85,98,374541
1.7595,0.2786,39.3500,85,98,374544
1.8768,0.2493,39.4400,85,98,374548
2.1163,0.2542,39.3500,85,98,374551
2.1505,0.2981,39.4400,85,98,374554
2.0088,0.3372,39.2500,85,98,374558
1.7302,0.3128,39.3500,85,98,374561
1.6569,0.2688,39.4400,85,98,374564
1.8035,0.2297,39.5100,85,98,374567
2.0039,0.2444,39.4100,85,98,374572
2.0968,0.3226,39.3200,85,98,374575
1.8524,0.3372,39.3800,85,98,374578
1.6178,0.3030,39.4100,85,98,374582
1.5640,0.2639,39.4400,85,98,374585
1.7351,0.2248,39.5400,85,98,374588
1.9844,0.2639,39.3200,85,98,374592
1.9795,0.3128,39.4400,85,98,374595
1.7742,0.3275,39.3500,85,98,374598
1.5494,0.3030,39.4400,85,98,374602
1.5445,0.2590,39.4400,85,98,374605
1.7644,0.2346,39.6000,85,98,374608
1.9550,0.2933,39.4400,85,98,374612
1.9746,0.3177,39.2800,85,98,374616
1.7302,0.3226,39.4100,85,98,374619
1.5640,0.2884,39.4800,85,98,374622
1.5934,0.2542,39.3200,85,98,374626
1.7937,0.2248,39.3800,85,98,374629
2.0332,0.2688,39.2800,85,98,374632
1.9746,0.3177,39.4100,85,98,374636
1.7498,0.3226,39.6700,85,98,374639
1.6178,0.3030,39.3800,85,98,374642
1.6520,0.2542,39.4400,85,98,374646
1.9159,0.2346,39.2200,85,98,374649
2.0528,0.2688,39.5100,85,98,374652
1.9892,0.3226,39.4100,85,98,374657
1.7546,0.3079,39.4400,85,98,374660
1.6031,0.2933,39.4800,85,98,374663
1.7204,0.2590,39.2200,85,98,374667
1.9062,0.2346,39.3800,85,98,374670
2.0626,0.2737,39.4400,85,98,374673
1.9648,0.3226,39.4100,85,98,374676
1.7253,0.3226,39.4800,85,98,374680
1.6422,0.2981,39.3200,85,98,374683
1.7009,0.2444,39.4800,85,98,374686
1.9404,0.2297,39.4100,85,98,374690
2.0626,0.2835,39.4100,85,98,374693
1.9404,0.3226,39.4800,85,98,374696
1.7302,0.3275,39.3200,85,98,374701
1.6080,0.2884,39.3800,85,98,374704
1.7449,0.2395,39.3500,85,98,374707
1.9648,0.2395,39.4100,85,98,374711
2.0870,0.2786,39.4800,85,98,374714
1.9501,0.3226,39.4400,85,98,374717
1.7009,0.3226,39.4400,85,98,374720
1.6373,0.2786,39.3200,85,98,374724
1.7546,0.2297,39.4800,85,98,374727
1.9990,0.2297,39.4800,85,98,374730
2.1359,0.2981,39.3800,85,98,374734
1.9159,0.3275,39.4100,85,98,374737
1.7253,0.3324,39.1900,85,98,374740
1.6373,0.2786,39.4100,85,98,374745
1.7840,0.2248,39.4400,85,98,374748
2.0283,0.2444,39.4100,85,98,374751
2.0821,0.2981,39.4800,85,98,374755
1.9404,0.3372,39.1600,85,98,374758
1.6813,0.3079,39.3500,85,98,374761
1.6227,0.2590,39.4100,85,98,374765
1.7986,0.2248,39.4100,85,98,374768
2.0283,0.2444,39.5100,85,98,374771
2.1554,0.3226,39.3200,85,98,374774
1.8817,0.3324,39.4100,85,98,374778
1.6813,0.3079,39.3500,85,98,374781
1.6569,0.2590,39.4400,85,98,374785
1.8622,0.2542,39.5100,85,98,374789
2.1212,0.2639,39.3800,85,98,374792
2.1163,0.3128,39.4100,85,98,374795
1.9208,0.3519,39.3200,85,98,374799
1.7155,0.2981,39.4800,85,98,374802
1.7449,0.2493,39.4400,85,98,374805
2.0088,0.2542,39.3500,85,98,374809
2.2043,0.2493,39.4800,85,98,374812
2.2239,0.3177,39.3200,85,98,374815
1.9746,0.3275,39.3500,85,98,374819
1.7889,0.2933,39.4800,85,98,374822
1.8475,0.2542,39.3200,85,98,374825
2.0430,0.2248,39.4800,85,98,374829
2.2727,0.2786,39.2200,85,98,374833
2.1750,0.3226,39.4800,85,98,374836
1.9110,0.3275,39.4400,85,98,374839
1.7546,0.2981,39.4100,85,98,374843
1.7791,0.2297,39.5100,85,98,374846
2.0381,0.2297,39.2800,85,98,374849
2.1408,0.2688,39.3800,85,98,374853
2.0332,0.3128,39.4400,85,98,374856
1.7253,0.3226,39.5100,85,98,374859
1.5640,0.2786,39.4400,85,98,374863
1.6471,0.2493,39.2800,85,98,374866
1.8377,0.2248,39.4100,85,98,374870
1.9795,0.2688,39.3800,85,98,374873
1.8524,0.3177,39.4400,85,98,374877
1.5836,0.3177,39.4800,85,98,374880
1.4858,0.2933,39.2500,85,98,374883
1.5738,0.2297,38.6800,85,98,374887
1.8377,0.2248,39.3200,85,98,374890
1.9453,0.2884,39.4400,85,98,374893
1.7986,0.3226,39.4800,85,98,374897
1.5738,0.3226,39.3800,85,98,374900
1.4614,0.2786,39.4800,85,98,374903
1.6129,0.2248,39.3500,85,98,374907
1.8377,0.2199,39.4800,85,98,374910
1.9501,0.2884,39.4800,85,98,374914
1.8035,0.3275,39.3200,85,98,374918
1.5543,0.3079,39.4800,85,98,374921
1.5640,0.2737,39.2500,85,98,374924
1.7644,0.2151,39.7300,85,98,374928
2.1457,0.2297,39.4400,85,98,374931
2.4047,0.2933,39.4400,85,98,374934
2.3216,0.3275,39.4800,85,98,374937
2.2581,0.3226,39.1900,85,98,374941
2.2190,0.2688,39.4400,85,98,374944
2.3558,0.2102,39.1900,85,98,374947
2.4927,0.2444,39.3800,85,98,374951
2.3656,0.2688,39.4800,85,98,374955
2.0674,0.3470,39.2200,85,98,374958
1.6764,0.3128,39.3500,85,98,374962
1.5103,0.2542,39.3800,85,98,374965
1.6080,0.2151,39.4400,85,98,374968
1.7742,0.2395,39.4800,85,98,374972
1.7840,0.3470,39.3200,85,98,374975
1.5445,0.3324,39.4100,85,98,374978
1.3539,0.3275,39.3800,85,98,374981
1.3441,0.2493,39.4400,85,98,374985
1.5738,0.2102,39.7000,85,98,374988
1.8231,0.2493,39.3500,85,98,374991
1.8328,0.3128,39.4800,85,98,374995
1.6178,0.3275,39.3800,85,98,374999
1.4076,0.2933,39.4800,85,98,375002
1.4565,0.2395,39.4400,85,98,375006
1.7107,0.2199,39.5700,85,98,375009
1.9110,0.2884,39.4400,85,98,375012
1.9062,0.3226,39.2500,85,98,375016
1.6276,0.3275,39.3800,85,98,375019
1.4516,0.2933,39.4400,85,98,375022
1.5298,0.2444,39.4100,85,98,375026
1.7546,0.2151,39.4800,85,98,375029
2.0332,0.2835,39.1900,85,98,375032
1.8915,0.3226,39.2800,85,98,375036
1.6618,0.3177,39.4800,85,98,375040
1.4858,0.2884,39.4800,85,98,375043
1.5689,0.2297,39.7300,85,98,375046
1.8768,0.2297,39.0600,85,98,375050
2.0137,0.2688,39.3800,85,98,375053
1.8964,0.3177,39.3800,85,98,375056
1.6325,0.3226,39.4800,85,98,375060
1.5054,0.2835,39.4400,85,98,375063
1.6471,0.2395,39.3500,85,98,375066
1.8866,0.2199,39.5100,85,98,375070
2.0674,0.2786,39.4400,85,98,375073
1.9013,0.3226,39.4800,85,98,375076
1.6520,0.3177,39.4400,85,98,375080
1.6031,0.2933,39.3200,85,98,375084
1.6960,0.2297,39.5100,85,98,375087
1.9795,0.2248,39.3500,85,98,375090
2.0723,0.2786,39.5400,85,98,375094
1.9159,0.3324,39.5100,85,98,375097
1.6911,0.3226,38.8100,85,98,375100
1.5934,0.2835,39.4400,85,98,375104
1.7791,0.2248,39.2800,85,98,375107
1.6911,0.2737,39.2500,86,98,375111
1.8524,0.2199,39.3200,86,98,375114
2.0968,0.2199,39.4100,86,98,375117
2.1554,0.2981,39.5100,86,98,375121
1.9404,0.3275,39.4800,86,98,375124
1.7693,0.3079,39.1900,86,98,375128
1.7155,0.2590,39.4100,86,98,375132
1.9404,0.2151,39.3500,86,98,375135
2.1750,0.2444,39.4400,86,98,375138
2.1945,0.3030,39.4400,86,98,375142
2.0039,0.3372,39.2800,86,98,375145
1.7644,0.3030,39.4400,86,98,375148
1.7840,0.2542,39.3200,86,98,375151
1.9746,0.2102,39.4800,86,98,375155
2.2043,0.2493,39.5100,86,98,375158
2.2239,0.3128,39.3500,86,98,375161
1.9501,0.3275,39.3500,86,98,375165
1.7742,0.3030,39.3200,86,98,375169
1.7693,0.2395,39.4100,86,98,375172
1.9990,0.2102,39.5100,86,98,375176
2.2239,0.2590,39.4100,86,98,375179
2.1457,0.3470,39.4800,86,98,375182
1.9257,0.3324,39.2500,86,98,375186
1.7155,0.2884,39.4400,86,98,375189
1.7400,0.2297,39.4800,86,98,375192
1.9746,0.2199,39.4400,86,98,375195
2.1359,0.2590,39.4400,86,98,375199
2.0919,0.3324,39.1900,86,98,375202
1.7840,0.3275,39.4100,86,98,375205
1.5934,0.2835,39.4400,86,98,375209
1.6569,0.2297,39.4400,86,98,375213
1.8719,0.2199,39.4400,86,98,375216
2.0870,0.2835,39.2800,86,98,375220
1.9306,0.3226,39.3500,86,98,375223
1.6569,0.3079,39.3500,86,98,375226
1.5054,0.2786,39.4100,86,98,375230
1.5885,0.2297,39.4400,86,98,375233
1.8671,0.2297,39.3200,86,98,375236
1.9990,0.2737,39.4800,86,98,375240
1.8817,0.3275,39.3500,86,98,375243
1.6080,0.3177,39.4800,86,98,375246
1.4761,0.2835,39.4400,86,98,375249
1.5934,0.2297,39.3800,86,98,375254
1.8328,0.1906,39.4800,86,98,375257
1.9844,0.2835,39.3500,86,98,375260
1.8035,0.3177,39.4800,86,98,375264
1.5640,0.3128,39.3500,86,98,375267
1.4907,0.2835,39.3500,86,98,375270
1.6178,0.2248,39.4400,86,98,375274
1.9013,0.2297,39.2800,86,98,375277
1.9892,0.2884,39.3800,86,98,375280
1.8182,0.3177,39.4400,86,98,375284
1.6080,0.3226,39.3500,86,98,375287
1.5347,0.2688,39.4400,86,98,375290
1.7498,0.2346,39.1900,86,98,375294
1.9501,0.2297,39.3800,86,98,375298
2.0088,0.2884,39.4800,86,98,375301
1.8328,0.3226,39.3800,86,98,375304
1.5885,0.3079,39.5400,86,98,375308
1.5982,0.2835,39.1900,86,98,375311
1.7546,0.2297,39.4400,86,98,375314
1.9648,0.2346,39.3800,86,98,375318
2.0137,0.2981,39.5700,86,98,375321
1.8133,0.3226,39.4800,86,98,375324
1.6373,0.3079,39.3800,86,98,375328
1.5982,0.2590,39.4100,86,98,375331
1.7986,0.2199,39.3500,86,98,375334
2.0137,0.2444,39.4800,86,98,375339
2.0332,0.2981,39.4400,86,98,375342
1.8426,0.3372,39.3500,86,98,375345
1.6276,0.2981,39.4800,86,98,375349
1.6520,0.2933,39.3200,86,98,375352
1.8622,0.2151,39.4100,86,98,375355
2.0381,0.2493,39.4800,86,98,375358
2.0381,0.3079,39.3200,86,98,375362
1.7986,0.3177,39.4800,86,98,375365
1.6422,0.2933,39.4100,86,98,375368
1.6716,0.2444,39.4400,86,98,375372
1.8768,0.2102,39.4400,86,98,375375
2.0821,0.2688,39.3800,86,98,375378
2.0088,0.3079,39.4800,86,98,375383
1.8182,0.3275,39.2800,86,98,375386
1.6129,0.2688,39.4100,86,98,375389
1.6667,0.2297,39.4800,86,98,375393
1.9013,0.2199,39.4400,86,98,375396
2.0772,0.2737,39.4400,86,98,375399
2.0723,0.3324,39.1900,86,98,375402
1.7889,0.3079,39.4100,86,98,375406
1.6325,0.2884,39.3800,86,98,375409
1.7204,0.2297,39.4400,86,98,375412
1.9550,0.2151,39.4400,86,98,375416
2.1701,0.2786,39.2500,86,98,375419
2.0381,0.3177,39.4100,86,98,375422
1.8035,0.3177,39.3500,86,98,375427
1.6764,0.2786,39.4400,86,98,375430
1.8084,0.2248,39.5100,86,98,375433
2.0968,0.2248,39.3500,86,98,375437
2.2336,0.2737,39.4400,86,98,375440
2.1359,0.3275,39.3200,86,98,375443
1.8671,0.3128,39.2500,86,98,375446
1.7644,0.2786,39.4400,86,98,375450
1.9062,0.2199,39.3800,86,98,375453
2.1505,0.2102,39.4800,86,98,375456
2.2678,0.2786,39.3200,86,98,375460
2.0821,0.3177,39.4800,86,98,375463
1.8231,0.3128,39.5400,86,98,375467
1.7498,0.2639,39.3200,86,98,375471
1.8719,0.2199,39.4400,86,98,375474
2.1408,0.2297,39.2200,86,98,375477
2.1603,0.2933,39.3800,86,98,375481
1.9453,0.3177,39.4800,86,98,375484
1.6520,0.3128,39.4100,86,98,375487
1.5494,0.2639,39.4800,86,98,375491
1.7498,0.2199,39.1900,86,98,375494
1.9404,0.2346,39.2800,86,98,375497
1.9648,0.2884,39.4100,86,98,375501
1.7595,0.3275,39.4400,86,98,375504
1.5152,0.3030,39.4400,86,98,375507
1.5200,0.2786,39.3200,86,98,375511
1.7058,0.2151,39.4100,86,98,375515
1.9257,0.2346,39.3500,86,98,375518
1.9257,0.2981,39.6700,86,98,375521
1.7058,0.3226,39.4800,86,98,375525
1.5200,0.3079,39.3800,86,98,375528
1.5054,0.2493,39.3800,86,98,375531
1.7351,0.2102,39.3200,86,98,375535
1.9453,0.2395,39.4400,86,98,375538
1.9306,0.3128,39.3500,86,98,375541
1.7449,0.3324,39.3500,86,98,375545
1.5103,0.2933,39.4100,86,98,375548
1.6031,0.2493,39.3200,86,98,375552
1.8964,0.2004,39.3800,86,98,375555
2.2385,0.2444,39.4400,86,98,375559
2.3803,0.3177,39.2800,86,98,375562
2.2678,0.3226,39.4400,86,98,375565
2.2678,0.2981,39.2200,86,98,375569
2.3460,0.2395,39.4800,86,98,375572
2.5415,0.2102,39.4400,86,98,375575
2.6393,0.2688,39.3800,86,98,375579
2.3803,0.3128,39.4800,86,98,375582
2.0186,0.3324,39.2200,86,98,375585
1.6618,0.2884,39.3800,86,98,375589
1.5982,0.2248,39.0600,86,98,375592
1.7400,0.2199,39.4400,86,98,375596
1.8377,0.2639,39.4400,86,98,375599
1.7400,0.3372,39.2800,86,98,375603
1.4467,0.3226,39.4100,86,98,375606
1.3050,0.2835,39.3800,86,98,375609
1.4027,0.2297,39.4400,86,98,375613
1.6520,0.2151,38.6200,86,98,375616
1.8573,0.3128,39.2800,86,98,375619
1.7302,0.3079,39.4400,86,98,375623
1.5103,0.3226,39.3500,86,98,375626
1.3881,0.2688,39.4400,86,98,375629
1.5152,0.2297,39.4800,86,98,375633
1.7889,0.2248,39.5100,86,98,375636
1.9208,0.3079,39.4800,86,98,375640
1.8133,0.3226,39.3500,86,98,375644
1.5494,0.3128,39.4400,86,98,375647
1.4858,0.2737,39.4800,86,98,375650
1.6080,0.2297,39.3500,86,98,375653
1.8280,0.2199,39.4400,86,98,375657
1.9892,0.2835,39.2500,86,98,375660
1.8035,0.3128,39.4800,86,98,375663
1.5787,0.3079,39.5700,86,98,375667
1.5200,0.3030,39.4100,86,98,375670
1.6618,0.2199,39.4400,86,98,375673
1.9648,0.2395,39.2200,86,98,375677
2.0137,0.2933,39.4400,86,98,375681
1.8280,0.3226,39.4400,86,98,375684
1.6178,0.3079,39.4400,86,98,375688
1.5591,0.2639,39.5100,86,98,375691
1.7742,0.2395,39.1900,86,98,375694
1.9795,0.2493,39.3800,86,98,375698
2.0332,0.2884,39.3800,86,98,375701
1.8475,0.3568,39.4400,86,98,375704
1.6373,0.3030,39.4400,86,98,375707
1.6373,0.2688,39.3200,86,98,375711
1.8084,0.2248,39.4100,86,98,375714
2.0528,0.2444,39.3500,86,98,375717
2.0674,0.2981,39.4800,87,98,375721
2.0821,0.2493,39.7300,87,98,375725
2.0772,0.3079,39.4400,87,98,375729
1.8817,0.3177,39.3800,87,98,375732
1.6911,0.2981,39.4400,87,98,375735
1.7644,0.2493,39.2800,87,98,375739
1.9599,0.2248,39.3800,87,98,375742
2.1505,0.2542,39.4800,87,98,375745
2.1603,0.3128,39.3800,87,98,375749
1.8915,0.3128,39.4400,87,98,375752
1.7840,0.2981,39.1600,87,98,375755
1.8084,0.2346,39.3500,87,98,375759
2.0235,0.2151,39.4400,87,98,375762
2.2190,0.2590,39.5400,87,98,375766
2.1505,0.3030,39.4800,87,98,375769
2.0186,0.3324,39.2500,87,98,375773
1.8035,0.2884,39.3800,87,98,375776
1.8622,0.2297,39.3500,87,98,375779
2.0772,0.2199,39.4100,87,98,375783
2.2336,0.2639,39.4400,87,98,375786
2.1750,0.3177,39.3500,87,98,375789
1.9159,0.2981,39.4400,87,98,375793
1.8035,0.2786,39.3500,87,98,375796
1.8719,0.2248,39.4800,87,98,375799
2.0919,0.2248,39.4400,87,98,375803
2.2581,0.2688,39.3500,87,98,375806
2.1017,0.3128,39.4100,87,98,375810
1.8915,0.3128,39.3500,87,98,375813
1.7400,0.2688,39.4800,87,98,375817
1.8328,0.2297,39.4100,87,98,375820
2.0626,0.2199,39.3200,87,98,375823
2.1457,0.2737,39.4400,87,98,375827
2.0137,0.3128,39.2800,87,98,375830
1.7351,0.3030,39.4100,87,98,375833
1.6422,0.2688,39.4800,87,98,375837
1.7693,0.2297,39.5100,87,98,375840
1.9501,0.2248,39.4400,87,98,375843
2.0674,0.3128,39.3200,87,98,375847
1.8573,0.3079,39.5100,87,98,375851
1.6276,0.2981,39.4800,87,98,375854
1.5591,0.2688,39.4400,87,98,375857
1.6862,0.2199,39.4800,87,98,375861
1.9550,0.2493,39.2500,87,98,375864
1.9746,0.2933,39.4100,87,98,375867
1.7840,0.3128,39.3800,87,98,375871
1.5787,0.2981,39.4800,87,98,375874
1.5298,0.2542,39.4400,87,98,375877
1.7155,0.2297,39.2800,87,98,375881
1.9159,0.2444,39.4100,87,98,375884
1.9648,0.2933,39.3500,87,98,375887
1.7449,0.3128,39.5400,87,98,375891
1.5445,0.2933,39.4800,87,98,375895
1.5494,0.2590,39.4100,87,98,375898
1.7155,0.2151,39.4400,87,98,375902
1.9599,0.2542,39.3500,87,98,375905
1.9355,0.2981,39.4400,87,98,375908
1.7351,0.3128,39.4800,87,98,375912
1.5640,0.2933,39.3500,87,98,375915
1.5640,0.2444,39.4400,87,98,375918
1.7840,0.2199,39.2800,87,98,375921
1.9648,0.2639,39.5100,87,98,375925
1.9453,0.3030,39.4400,87,98,375928
1.7498,0.3226,39.4100,87,98,375931
1.5640,0.2835,39.4800,87,98,375936
1.6471,0.2493,39.2500,87,98,375939
1.8377,0.2199,39.3800,87,98,375942
2.0137,0.2542,39.5100,87,98,375946
1.9746,0.3079,39.4400,87,98,375949
1.7400,0.3372,39.4400,87,98,375952
1.6422,0.3030,39.2200,87,98,375956
1.6716,0.2444,39.3500,87,98,375959
1.8866,0.2151,39.3500,87,98,375962
2.0674,0.2639,39.4400,87,98,375966
1.9697,0.3079,39.4800,87,98,375969
1.7840,0.3275,39.3500,87,98,375972
1.6227,0.2835,39.4400,87,98,375975
1.7155,0.2346,39.3500,87,98,375980
1.9306,0.2199,39.4400,87,98,375983
2.0772,0.2688,39.4100,87,98,375986
1.9941,0.3177,39.4100,87,98,375990
1.7400,0.3079,39.3800,87,98,375993
1.6422,0.3128,39.3800,87,98,375996
1.7253,0.2297,39.4400,87,98,376000
1.9599,0.2199,39.4800,87,98,376003
2.1163,0.2835,39.3800,87,98,376006
1.9501,0.3079,39.4400,87,98,376010
1.7351,0.3177,39.2800,87,98,376013
1.6227,0.2737,39.3500,87,98,376016
1.7546,0.2199,39.4800,87,98,376019
2.0235,0.2297,39.5700,87,98,376024
2.0968,0.2981,39.3800,87,98,376027
1.9892,0.3226,39.2200,87,98,376030
1.7302,0.3079,39.4400,87,98,376034
1.6569,0.2639,39.4400,87,98,376037
1.8280,0.2199,39.4100,87,98,376040
2.0870,0.2297,39.4800,87,98,376044
2.2141,0.2688,39.1900,87,98,376047
1.9892,0.3177,39.4100,87,98,376050
1.7595,0.3030,39.4100,87,98,376054
1.7253,0.2639,39.3500,87,98,376057
1.9208,0.2102,39.4400,87,98,376060
2.2190,0.2493,39.3200,87,98,376064
2.2483,0.2933,39.4400,87,98,376068
2.0577,0.3226,39.3800,87,98,376071
1.8231,0.3030,39.4400,87,98,376074
1.7986,0.2542,39.7000,87,98,376078
2.0137,0.2199,39.2800,87,98,376081
2.2092,0.2395,39.4100,87,98,376084
2.2287,0.3128,39.3200,87,98,376088
1.9697,0.3177,39.4800,87,98,376091
1.7498,0.2981,39.4400,87,98,376094
1.7644,0.2493,39.3200,87,98,376098
1.9208,0.2102,39.2200,87,98,376101
2.1457,0.2444,39.3200,87,98,376104
2.0870,0.3030,39.4400,87,98,376108
1.8084,0.3177,39.4400,87,98,376112
1.5885,0.2933,39.4400,87,98,376115
1.5787,0.2493,39.4400,87,98,376118
1.8035,0.2248,39.2500,87,98,376122
1.9697,0.2493,39.4400,87,98,376125
1.9208,0.3079,39.4800,87,98,376128
1.6862,0.3226,39.4100,87,98,376132
1.4858,0.2981,39.4800,87,98,376135
1.5738,0.2444,39.1200,87,98,376138
1.7742,0.2199,39.3800,87,98,376142
1.9501,0.2542,39.4400,87,98,376145
1.9013,0.3128,39.4100,87,98,376148
1.6422,0.3177,39.4800,87,98,376153
1.5347,0.2981,39.2500,87,98,376156
1.5787,0.2395,39.6400,87,98,376159
1.8084,0.2151,39.4400,87,98,376163
1.9648,0.3030,39.4400,87,98,376166
1.8671,0.3128,39.4800,87,98,376169
1.6471,0.3226,39.3200,87,98,376172
1.5249,0.2786,39.4400,87,98,376176
1.7204,0.2297,39.3200,87,98,376179
2.0674,0.2199,38.5800,87,98,376182
2.3754,0.2688,39.4800,87,98,376186
2.4487,0.3177,39.4100,87,98,376189
2.3509,0.3128,39.3500,87,98,376193
2.3851,0.2884,39.3200,87,98,376197
2.4927,0.2248,39.4800,87,98,376200
2.6588,0.2199,39.4400,87,98,376203
2.6442,0.2786,39.4100,87,98,376207
2.2825,0.3128,39.4400,87,98,376210
1.8964,0.3275,39.2800,87,98,376213
1.6129,0.2786,39.3800,87,98,376216
1.5836,0.2346,39.4800,87,98,376220
1.7498,0.2297,39.3800,87,98,376223
1.7840,0.2786,38.6500,87,98,376226
1.6667,0.3226,39.2200,87,98,376230
1.4223,0.3079,39.4800,87,98,376233
1.3392,0.2639,39.5100,87,98,376237
1.4809,0.2199,39.4400,87,98,376241
1.7107,0.2346,39.4800,87,98,376244
1.8524,0.3030,39.2800,87,98,376247
1.6520,0.3128,39.4400,87,98,376251
1.4516,0.2981,39.3800,87,98,376254
1.4125,0.2639,38.5800,87,98,376257
1.5689,0.2199,39.4800,87,98,376261
1.8377,0.2590,39.3800,87,98,376264
1.8622,0.2884,39.4400,87,98,376267
1.7058,0.3275,39.3800,87,98,376270
1.4956,0.2981,39.4800,87,98,376274
1.4761,0.2542,38.6800,87,98,376278
1.6716,0.2297,39.3200,87,98,376281
1.8719,0.2493,39.4400,87,98,376285
1.9208,0.2981,39.3500,87,98,376288
1.7204,0.3128,39.3800,87,98,376291
1.5396,0.2884,39.4400,87,98,376295
1.5640,0.2493,39.2800,87,98,376298
1.7253,0.2151,39.4800,87,98,376301
1.9648,0.2590,39.2500,87,98,376305
1.9404,0.3030,39.3500,87,98,376308
1.7400,0.3128,39.4400,87,98,376311
1.5885,0.2884,39.5100,87,98,376315
1.6080,0.2444,39.7000,87,98,376318
1.8426,0.2346,39.1900,87,98,376322
1.9892,0.2639,39.4100,87,98,376325
1.9648,0.3030,39.4400,87,98,376329
1.7693,0.3128,39.4100,88,97,376332
1.9795,0.3079,39.4400,88,97,376336
1.7791,0.3079,39.4400,88,97,376339
1.6862,0.2835,39.3200,88,97,376342
1.7449,0.2297,39.4400,88,97,376346
1.9844,0.2346,39.3200,88,97,376349
2.1017,0.2688,39.3500,88,97,376352
2.0137,0.3128,39.4400,88,97,376356
1.8426,0.3079,39.3500,88,97,376359
1.7155,0.2786,39.3800,88,97,376363
1.8475,0.2590,39.3200,88,97,376367
2.0479,0.2542,39.4100,88,97,376370
2.1848,0.2835,39.4400,88,97,376373
2.0870,0.3079,39.4100,88,97,376376
1.8719,0.3030,39.4800,88,97,376380
1.8182,0.2786,39.2500,88,97,376383
1.9062,0.2297,39.4400,88,97,376386
2.1359,0.2297,39.4800,88,97,376390
2.2532,0.2835,39.4100,88,97,376393
2.1114,0.3079,39.4400,88,97,376396
1.9550,0.3470,39.1900,88,97,376400
1.8622,0.2737,39.3800,88,97,376403
1.9844,0.2248,39.4800,88,97,376407
2.2141,0.2395,39.4400,88,97,376411
2.2776,0.2835,39.5100,88,97,376414
2.1848,0.3275,39.2800,88,97,376417
1.9355,0.2981,39.3800,88,97,376421
1.8622,0.2493,39.3800,88,97,376424
2.0039,0.2248,39.4400,88,97,376427
2.2092,0.2395,39.4800,88,97,376430
2.2874,0.2981,39.3200,88,97,376434
2.0772,0.3128,39.4400,88,97,376437
1.8719,0.2981,39.3500,88,97,376440
1.7937,0.2835,39.5100,88,97,376444
1.9306,0.2102,39.4400,88,97,376448
2.1652,0.2395,39.4400,88,97,376451
2.1261,0.2933,39.4100,88,97,376455
1.9404,0.3226,39.3500,88,97,376458
1.6960,0.2884,39.4800,88,97,376461
1.6618,0.2493,39.4400,88,97,376465
1.8328,0.2151,39.3800,88,97,376468
1.9892,0.2493,39.4800,88,97,376471
1.9990,0.3030,39.2500,88,97,376475
1.7644,0.3128,39.3500,88,97,376478
1.5689,0.2835,39.4800,88,97,376481
1.5885,0.2542,39.3800,88,97,376484
1.7449,0.2199,39.4800,88,97,376488
1.9990,0.2639,39.1900,88,97,376492
1.9013,0.3128,39.3800,88,97,376495
1.6813,0.3030,39.4800,88,97,376499
1.5249,0.2835,39.4800,88,97,376502
1.5494,0.2590,39.4400,88,97,376505
1.7937,0.2493,39.2200,88,97,376509
1.9257,0.2590,39.4100,88,97,376512
1.8768,0.2981,39.3800,88,97,376515
1.6667,0.3079,39.4800,88,97,376519
1.5249,0.2737,39.4100,88,97,376522
1.6129,0.2444,39.3800,88,97,376525
1.8035,0.2590,39.4100,88,97,376528
1.9697,0.2639,39.3500,88,97,376532
1.8768,0.3030,39.5100,88,97,376536
1.6716,0.2933,39.4800,88,97,376539
1.5787,0.2786,39.3200,88,97,376543
1.6325,0.2346,39.4400,88,97,376546
1.8671,0.2444,39.3800,88,97,376549
1.9892,0.2493,39.4100,88,97,376553
1.8817,0.2981,39.4400,88,97,376556
1.6911,0.3079,39.3800,88,97,376559
1.5738,0.2688,38.9300,88,97,376563
1.7009,0.2297,39.2500,88,97,376566
1.8964,0.2248,39.6000,88,97,376569
2.0039,0.2933,39.5100,88,97,376573
1.9062,0.2884,39.4100,88,97,376577
1.6813,0.2981,39.3200,88,97,376580
1.6276,0.2835,39.2200,88,97,376583
1.7058,0.2199,39.4100,88,97,376587
1.9208,0.2199,39.5400,88,97,376590
2.0235,0.2786,39.3800,88,97,376593
1.8768,0.3030,39.4400,88,97,376597
1.7204,0.3079,38.8700,88,97,376600
1.6325,0.2639,39.3500,88,97,376603
1.7449,0.2297,39.4100,88,97,376607
1.9697,0.2297,39.4400,88,97,376610
2.0283,0.2737,39.3800,88,97,376613
1.9159,0.3226,39.3800,88,97,376617
1.6911,0.2933,39.4100,88,97,376621
1.6471,0.2590,39.3500,88,97,376624
1.7840,0.2248,39.4400,88,97,376627
1.9892,0.2639,39.4400,88,97,376631
2.0674,0.2884,39.3200,88,97,376634
1.8671,0.3079,39.5100,88,97,376637
1.7058,0.2884,39.3500,88,97,376641
1.6569,0.2493,39.4800,88,97,376644
1.8231,0.2151,39.4400,88,97,376647
2.0430,0.2346,39.4100,88,97,376651
2.0626,0.2786,39.4800,88,97,376654
1.9062,0.3030,39.3800,88,97,376657
1.7058,0.2786,39.4400,88,97,376662
1.7204,0.2395,39.4800,88,97,376665
1.9355,0.2199,39.3500,88,97,376668
2.1163,0.2444,39.4400,88,97,376671
2.1896,0.3030,39.2500,88,97,376675
1.9501,0.3079,39.4100,88,97,376678
1.7791,0.2884,39.4800,88,97,376681
1.8426,0.2444,39.3800,88,97,376685
2.0332,0.2102,39.4400,88,97,376688
2.2923,0.2590,39.1900,88,97,376691
2.2336,0.2981,39.3200,88,97,376695
2.0088,0.2933,39.4800,88,97,376698
1.8524,0.2737,39.4800,88,97,376701
1.8964,0.2199,39.4400,88,97,376706
2.1212,0.2297,39.3200,88,97,376709
2.2336,0.2542,39.4800,88,97,376712
2.1652,0.3030,39.4400,88,97,376716
1.9355,0.3030,39.4800,88,97,376719
1.7742,0.2639,39.5700,88,97,376722
1.8377,0.2395,39.3800,88,97,376725
2.0137,0.2151,39.4400,88,97,376729
2.1408,0.2590,39.3200,88,97,376732
1.9941,0.2933,39.4400,88,97,376735
1.7498,0.2933,39.4800,88,97,376739
1.6227,0.2786,39.3200,88,97,376742
1.6618,0.2248,39.4400,88,97,376745
1.8719,0.2151,39.3200,88,97,376750
1.9648,0.2590,39.4100,88,97,376753
1.8622,0.2884,39.4800,88,97,376756
1.6520,0.3030,39.3200,88,97,376760
1.5249,0.2590,39.4800,88,97,376763
1.6716,0.2248,39.2500,88,97,376766
1.8377,0.2248,39.4100,88,97,376770
1.9306,0.2639,39.4800,88,97,376773
1.8084,0.2884,39.4100,88,97,376776
1.6080,0.2884,39.4800,88,97,376779
1.5689,0.2688,39.2200,88,97,376783
1.6520,0.2199,39.4400,88,97,376786
1.8671,0.2199,39.4800,88,97,376790
1.9550,0.2688,39.2800,88,97,376794
1.8084,0.2884,39.4400,88,97,376797
1.6764,0.3079,39.1200,88,97,376800
1.6520,0.2542,39.3800,88,97,376804
1.8866,0.2102,39.3800,88,97,376807
2.2776,0.2199,39.4100,88,97,376810
2.4731,0.2688,39.4800,88,97,376814
2.5318,0.3226,39.3200,88,97,376817
2.4291,0.2884,39.2800,88,97,376820
2.4340,0.2493,39.2500,88,97,376824
2.4878,0.2346,39.5100,88,97,376827
2.5415,0.2248,39.4400,88,97,376830
2.4194,0.2688,39.3800,88,97,376834
2.0332,0.2981,39.5100,88,97,376838
1.7155,0.2933,39.3500,88,97,376841
1.5249,0.2346,39.4400,88,97,376844
1.5836,0.2053,39.6000,88,97,376848
1.7351,0.2346,39.4800,88,97,376851
1.7302,0.2835,39.4400,88,97,376854
1.5738,0.2981,39.2500,88,97,376858
1.3978,0.2737,39.4400,88,97,376861
1.4272,0.2346,39.4400,88,97,376864
1.5836,0.1906,39.4100,88,97,376868
1.7644,0.2395,39.5700,88,97,376871
1.8328,0.2981,39.1900,88,97,376875
1.6080,0.2981,39.4100,88,97,376878
1.4467,0.2688,39.5400,88,97,376882
1.4907,0.2346,39.4100,88,97,376885
1.6716,0.2053,39.4400,88,97,376888
1.9159,0.2590,39.2800,88,97,376892
1.8524,0.2981,39.3500,88,97,376895
1.6422,0.2884,39.4100,88,97,376898
1.5005,0.2688,39.4400,88,97,376902
1.5445,0.2248,39.4400,88,97,376905
1.8133,0.2102,39.3200,88,97,376908
1.9110,0.2444,39.4400,88,97,376912
1.8719,0.2884,39.3800,88,97,376915
1.6569,0.2884,39.4400,88,97,376919
1.5298,0.2835,39.4400,88,97,376922
1.6129,0.2248,39.4100,88,97,376926
1.8426,0.2102,39.4400,88,97,376929
1.9941,0.2590,39.3800,88,97,376932
1.8768,0.2884,39.4400,88,97,376936
1.6813,0.2884,39.4800,88,97,376939
1.5982,0.2688,39.3500,88,97,376942
1.7107,0.2884,39.4100,88,97,376946
1.6178,0.2493,39.4800,88,97,376949
1.7840,0.2297,39.1600,88,97,376953
1.9844,0.2102,39.3200,88,97,376956
2.0528,0.2542,39.4100,88,97,376960
1.9257,0.2933,39.5100,88,97,376964
1.7253,0.2786,39.4400,88,97,376967
1.7155,0.2639,39.2800,88,97,376970
1.8231,0.2004,39.4400,88,97,376974
2.0528,0.2151,39.3500,88,97,376977
2.1017,0.2639,39.4800,88,97,376980
1.9501,0.2933,39.4400,88,97,376984
1.7840,0.2884,39.4800,88,97,376987
1.7351,0.2395,39.4100,88,97,376990
1.9110,0.2053,39.2800,88,97,376993
2.1114,0.2248,39.4400,88,97,376997
2.1554,0.2688,39.5100,88,97,377000
2.0235,0.3030,39.3200,88,97,377004
1.8182,0.2737,39.4400,88,97,377008
1.8328,0.2346,39.3500,88,97,377011
1.9746,0.2004,39.3800,88,97,377014
2.1848,0.2248,39.3800,88,97,377018
2.2336,0.2786,39.2800,88,97,377021
2.0235,0.2884,39.5700,88,97,377024
1.8817,0.2737,39.3200,88,97,377028
1.8671,0.2297,39.3800,88,97,377031
2.0381,0.1955,39.5400,88,97,377034
2.2385,0.2297,39.4100,88,97,377037
2.2141,0.2737,39.5100,88,97,377041
2.0723,0.2981,39.1900,88,97,377044
1.8475,0.2786,39.4100,88,97,377048
1.8671,0.2248,39.4800,88,97,377052
2.0479,0.2004,39.4100,88,97,377055
2.2190,0.2346,39.4800,88,97,377058
2.2287,0.2981,39.2200,88,97,377062
1.9648,0.2884,39.4100,88,97,377065
1.7889,0.2297,39.4100,88,97,377068
1.8084,0.2199,39.4400,88,97,377072
1.9746,0.2151,39.4400,88,97,377075
2.1505,0.2444,39.2800,88,97,377078
2.0381,0.2835,39.4100,88,97,377082
1.8035,0.2835,39.3500,88,97,377085
1.6422,0.2542,39.7300,88,97,377089
1.6813,0.2102,39.4400,88,97,377092
1.9159,0.2004,39.3200,88,97,377096
1.9892,0.2444,39.4400,88,97,377099
1.9159,0.2884,39.2500,88,97,377102
1.6911,0.2835,39.4400,88,97,377106
1.5347,0.2493,39.5700,88,97,377109
1.6129,0.2102,39.3800,88,97,377112
1.8035,0.2248,39.4400,88,97,377116
1.9550,0.2493,39.2800,88,97,377119
1.8182,0.2737,39.4800,88,97,377122
1.6227,0.2737,39.4400,88,97,377126
1.5347,0.2542,39.4400,88,97,377129
1.6129,0.2151,39.4400,88,97,377133
1.8671,0.2102,39.2200,88,97,377137
1.9453,0.2493,39.3500,88,97,377140
1.7986,0.2835,39.4800,88,97,377143
1.6080,0.2884,39.4100,88,97,377146
1.5249,0.2395,39.4100,88,97,377150
1.6960,0.2199,39.3200,88,97,377153
1.8817,0.1906,39.3500,88,97,377156
1.9453,0.2493,39.3800,88,97,377160
1.8231,0.2737,39.4400,88,97,377163
1.6080,0.2688,39.4800,88,97,377166
1.5885,0.2395,39.2500,88,97,377170
1.7009,0.1955,39.4800,88,97,377174
1.9257,0.2151,39.3800,88,97,377177
1.9648,0.2542,39.4400,88,97,377181
1.7986,0.2835,39.4400,88,97,377184
1.6276,0.2688,38.5500,88,97,377187
1.5836,0.2248,39.4800,88,97,377191
1.7595,0.1955,39.3500,88,97,377194
1.9648,0.2151,39.4400,88,97,377197
1.9746,0.2542,39.5700,88,97,377200
1.8231,0.2786,39.3500,88,97,377204
1.6227,0.2981,39.5100,88,97,377207
1.6373,0.2248,39.2500,88,97,377210
1.7840,0.1857,39.3500,88,97,377214
1.9844,0.2151,39.4400,88,97,377218
2.0137,0.2737,39.3800,88,97,377221
1.7986,0.2737,39.4800,88,97,377225
1.6716,0.2639,39.2200,88,97,377228
1.6569,0.2102,39.3500,88,97,377231
1.8231,0.1857,39.4800,88,97,377235
2.0088,0.2199,39.4100,88,97,377238
1.9795,0.2639,39.4400,88,97,377241
1.8377,0.2884,39.3500,88,97,377245
1.6716,0.2542,39.4400,88,97,377248
1.6813,0.2004,39.4100,88,97,377251
1.8719,0.1857,39.4400,88,97,377254
2.0283,0.2199,39.4800,88,97,377259
2.0137,0.2737,39.3500,88,97,377262
1.7840,0.2737,39.3800,88,97,377265
1.6520,0.2737,39.3500,88,97,377269
1.6862,0.2004,39.4400,88,97,377272
1.8915,0.1857,39.4800,88,97,377275
2.0919,0.2297,39.3200,88,97,377279
1.9941,0.2639,39.4400,88,97,377282
1.8084,0.2688,39.3500,88,97,377285
1.6764,0.2346,39.4100,88,97,377289
1.7742,0.1955,39.4400,88,97,377292
2.0088,0.1906,39.3200,88,97,377295
2.1261,0.2248,39.4400,88,97,377299
2.0674,0.2737,39.2500,88,97,377303
1.8377,0.2639,39.4100,88,97,377306
1.7449,0.2346,39.4800,88,97,377309
1.8671,0.2004,39.4100,88,97,377313
2.0821,0.1857,39.4400,88,97,377316
2.2630,0.2493,39.2200,88,97,377319
2.1017,0.2639,39.4100,88,97,377323
1.9013,0.2639,39.4800,88,97,377326
1.8231,0.2346,39.5400,88,97,377329
1.9208,0.2004,39.4800,88,97,377333
2.1799,0.2053,39.1900,88,97,377336
2.2287,0.2444,39.3500,88,97,377339
2.0577,0.2639,39.4100,88,97,377344
1.8524,0.2639,39.4400,88,97,377347
1.7644,0.2248,39.4800,88,97,377350
1.9208,0.1955,39.7000,88,97,377353
2.0772,0.2004,39.4100,88,97,377357
2.1065,0.2444,39.3500,88,97,377360
1.9062,0.2688,39.4800,88,97,377363
1.6618,0.2590,39.4800,88,97,377367
1.6129,0.2297,39.3500,88,97,377370
1.7107,0.1808,39.4400,88,97,377373
1.9257,0.2053,39.3200,88,97,377377
1.9257,0.2444,39.6700,88,97,377380
1.7498,0.2688,39.4800,88,97,377383
1.5640,0.2590,39.3800,88,97,377388
1.5200,0.2102,39.4400,88,97,377391
1.6911,0.1857,39.3200,88,97,377394
1.8573,0.2053,39.4800,88,97,377398
1.8817,0.2493,39.6400,88,97,377401
1.7302,0.2786,39.3800,88,97,377404
1.5298,0.2493,39.4800,88,97,377407
1.5543,0.2248,39.0600,88,97,377411
1.7058,0.1906,39.3200,88,97,377414
1.8866,0.2151,39.4800,88,97,377417
1.9013,0.2639,39.2800,88,97,377421
1.6960,0.2737,39.4800,88,97,377424
1.5982,0.2590,39.1900,88,97,377427
1.6471,0.2053,39.3500,88,97,377432
1.9257,0.2004,39.4100,88,97,377435
2.2678,0.2151,39.4400,88,97,377438
2.3851,0.2590,39.4800,88,97,377442
2.4096,0.3079,39.2500,88,97,377445
2.3118,0.2444,39.4400,88,97,377448
2.3803,0.1955,39.3800,88,97,377451
2.4927,0.1808,39.4400,88,97,377455
2.5024,0.2151,39.4800,88,97,377458
2.3021,0.2688,39.3500,88,97,377461
1.9110,0.2688,39.4100,88,97,377465
1.6422,0.2395,39.3200,88,97,377468
1.5445,0.1955,39.3800,88,97,377472
1.6471,0.1808,39.1600,88,97,377476
1.7742,0.2297,39.3200,88,97,377479
1.6569,0.2639,39.4400,88,97,377482
1.4858,0.2835,39.3500,88,97,377486
1.3587,0.2346,39.4100,88,97,377489
1.4467,0.1906,39.4400,88,97,377492
1.6764,0.1857,39.3800,88,97,377496
1.7986,0.2248,39.5100,88,97,377499
1.7498,0.2639,39.2500,88,97,377502
1.5347,0.2639,39.4100,88,97,377505
1.4761,0.2346,39.4400,88,97,377509
1.5591,0.1906,39.4400,88,97,377512
1.7595,0.1857,39.4400,88,97,377516
1.9257,0.2395,39.1900,88,97,377520
1.7693,0.2639,39.4100,88,97,377523
1.5738,0.2981,39.5100,88,97,377526
1.5054,0.2297,39.4400,88,97,377530
1.6227,0.1857,39.0000,88,97,377533
1.8817,0.2053,39.2800,88,97,377536
1.9355,0.2395,39.3800,88,97,377540
1.7937,0.2639,39.3800,88,97,377543
1.5982,0.2639,39.4400,88,97,377546
1.5396,0.2248,39.4400,88,97,377550
1.7058,0.1906,39.3200,89,97,377553
1.6129,0.2151,39.3500,89,97,377559
1.7546,0.1515,39.4800,89,97,377562
1.9892,0.2004,39.3200,89,97,377565
1.9941,0.2444,39.4100,89,97,377568
1.8133,0.2639,39.4800,89,97,377572
1.6569,0.2444,39.4100,89,97,377575
1.6569,0.2053,39.4400,89,97,377578
1.8866,0.1906,39.2200,89,97,377582
2.0235,0.2053,39.4400,89,97,377585
2.0235,0.2493,38.9600,89,97,377588
1.8426,0.2737,39.4100,89,97,377592
1.6716,0.2444,39.7000,89,97,377595
1.7351,0.2151,39.1600,89,97,377598
1.9013,0.1808,39.4400,89,97,377603
2.0772,0.2004,39.4400,89,97,377606
2.0577,0.2590,39.5400,89,97,377609
1.8573,0.2639,39.4400,89,97,377612
1.7595,0.2493,39.2800,89,97,377616
1.7742,0.2053,39.3500,89,97,377619
1.9648,0.1760,39.3500,89,97,377622
2.1261,0.2199,39.4400,89,97,377626
2.0870,0.2542,39.4400,89,97,377629
1.9208,0.2786,39.3200,89,97,377632
1.7693,0.2395,39.4800,89,97,377636
1.8524,0.1906,39.3200,89,97,377639
2.0430,0.1808,39.4400,89,97,377643
2.1945,0.2199,39.4800,89,97,377647
2.1457,0.2639,39.4100,89,97,377650
1.9257,0.2590,39.5400,89,97,377653
1.8328,0.2639,39.3800,89,97,377657
1.8915,0.1906,39.4400,89,97,377660
2.1017,0.1808,39.4400,89,97,377663
2.2532,0.2297,39.3800,89,97,377666
2.1310,0.2590,39.4800,89,97,377670
1.9550,0.2639,39.2500,89,97,377673
1.8475,0.2346,39.0900,89,97,377676
1.9306,0.1857,39.4800,89,97,377680
2.1603,0.2004,39.3800,89,97,377683
2.2385,0.2297,39.4800,89,97,377687
2.1652,0.2737,39.1900,89,97,377691
1.8866,0.2639,39.3500,89,97,377694
1.7644,0.2102,39.4400,89,97,377697
1.8573,0.1857,39.4400,89,97,377701
2.0381,0.1808,39.4400,89,97,377704
2.1652,0.2493,38.4600,89,97,377707
1.9599,0.2493,39.4400,89,97,377710
1.7253,0.2542,39.8600,89,97,377714
1.6325,0.2248,39.4400,89,97,377717
1.7351,0.1808,39.5400,89,97,377720
1.9599,0.2004,39.1900,89,97,377724
1.9844,0.2395,39.4100,89,97,377728
1.8231,0.2639,39.3500,89,97,377731
1.6031,0.2639,39.4100,89,97,377735
1.5494,0.2199,39.4400,89,97,377738
1.7107,0.1906,39.3200,89,97,377741
1.8915,0.1906,39.4400,89,97,377745
1.9550,0.2493,39.3500,89,97,377748
1.7693,0.2590,39.4100,89,97,377751
1.5836,0.2493,39.4800,89,97,377754
1.5885,0.2248,39.3200,89,97,377758
1.7204,0.1760,39.4400,89,97,377761
1.9404,0.2053,39.2800,89,97,377764
1.9257,0.2444,39.3800,89,97,377768
1.7400,0.2639,39.4400,89,97,377772
1.5738,0.2493,39.4400,89,97,377775
1.5591,0.2004,39.5100,89,97,377779
1.7595,0.1760,39.1600,89,97,377782
1.9159,0.1955,39.4400,89,97,377785
1.9159,0.2444,39.4800,89,97,377789
1.7351,0.2639,39.4100,89,97,377792
1.5640,0.2395,39.4800,89,97,377795
1.6862,0.2102,39.2500,89,97,377799
1.8622,0.1662,39.3800,89,97,377802
2.0186,0.2053,39.4100,89,97,377805
1.9795,0.2493,39.6700,89,97,377808
1.7937,0.2590,39.4400,89,97,377812
1.6373,0.2444,39.2800,89,97,377816
1.6422,0.1955,39.4400,89,97,377819
1.8328,0.1857,39.3500,89,97,377823
1.9795,0.2004,39.4400,89,97,377826
1.9355,0.2493,39.4400,89,97,377829
1.7693,0.2639,39.3200,89,97,377833
1.6325,0.2297,39.4800,89,97,377836
1.7840,0.2004,39.3500,89,97,377839
1.9648,0.1760,39.5100,89,97,377843
2.0968,0.2102,39.4400,89,97,377846
1.9990,0.2542,39.3800,89,97,377849
1.7546,0.2590,39.4100,89,97,377852
1.6422,0.2297,39.3200,89,97,377857
1.6862,0.1857,39.4400,89,97,377860
1.8866,0.1711,39.4400,89,97,377863
2.0381,0.2248,39.4800,89,97,377867
1.9110,0.2493,39.4800,89,97,377870
1.7400,0.2639,39.2200,89,97,377873
1.6227,0.2395,39.3800,89,97,377877
1.7253,0.1857,39.4400,89,97,377880
1.9306,0.1808,39.4100,89,97,377883
2.0235,0.2199,39.4800,89,97,377887
1.9550,0.2688,39.1600,89,97,377890
1.7107,0.2590,39.3200,89,97,377893
1.6129,0.2151,39.4100,89,97,377897
1.7302,0.1808,39.4100,89,97,377901
1.9404,0.1711,39.5700,89,97,377904
2.0968,0.2395,39.2800,89,97,377907
1.9110,0.2542,39.4100,89,97,377911
1.7204,0.2542,39.3800,89,97,377914
1.6618,0.2199,39.4400,89,97,377917
1.8035,0.1760,39.4400,89,97,377921
2.0528,0.2053,39.4100,89,97,377924
2.1212,0.2444,39.4100,89,97,377927
1.9892,0.2639,39.3200,89,97,377931
1.7840,0.2542,39.4800,89,97,377934
1.7546,0.2102,39.4800,89,97,377937
1.9501,0.1808,39.3200,89,97,377942
2.1457,0.1906,39.4800,89,97,377945
2.2287,0.2444,39.3200,89,97,377948
2.0283,0.2590,39.4100,89,97,377951
1.8426,0.2444,39.4800,89,97,377955
1.8377,0.2102,39.3200,89,97,377958
1.9746,0.1711,39.4400,89,97,377961
2.2043,0.2004,39.3200,89,97,377965
2.1799,0.2395,39.3800,89,97,377968
1.9746,0.2639,39.4400,89,97,377971
1.7937,0.2444,39.4100,89,97,377975
1.7595,0.2151,39.4800,89,97,377978
1.9892,0.1760,39.2200,89,97,377981
2.0674,0.1955,39.4100,89,97,377986
2.0186,0.2444,39.5400,89,97,377989
1.7986,0.2688,39.4400,89,97,377992
1.5982,0.2395,39.4800,89,97,377996
1.6373,0.2444,39.2200,89,97,377999
1.7742,0.1760,39.3800,89,97,378002
1.9257,0.2053,39.3800,89,97,378005
1.8768,0.2542,39.4100,89,97,378009
1.6667,0.2590,39.4800,89,97,378012
1.5396,0.2444,39.7300,89,97,378015
1.5591,0.2004,39.4400,89,97,378019
1.7546,0.1808,39.3500,89,97,378022
1.9159,0.2102,39.5100,89,97,378025
1.8622,0.2542,39.4800,89,97,378030
1.6911,0.2493,39.3500,89,97,378033
1.5200,0.2297,39.4800,89,97,378036
1.5982,0.1955,39.3500,89,97,378040
1.7595,0.1760,39.6700,89,97,378043
1.9013,0.2248,39.4400,89,97,378046
1.8426,0.2493,39.4100,89,97,378049
1.6569,0.2590,39.5100,89,97,378053
1.6325,0.2346,39.2500,89,97,378056
1.8084,0.1906,39.6700,89,97,378059
2.1701,0.1760,39.5700,89,97,378063
2.5024,0.2297,39.3800,89,97,378066
2.5611,0.2590,39.4800,89,97,378070
2.5171,0.2639,39.2500,89,97,378074
2.4145,0.2346,39.3500,89,97,378077
2.3851,0.1711,39.4800,89,97,378080
2.4487,0.1857,39.4400,89,97,378084
2.3363,0.2248,39.6000,89,97,378087
2.1017,0.2835,39.1600,89,97,378090
1.7107,0.2590,39.3800,89,97,378093
1.4858,0.2199,39.3800,89,97,378097
1.5005,0.1857,39.4100,89,97,378100
1.6471,0.1808,39.4100,89,97,378103
1.7595,0.2395,39.2800,89,97,378107
1.5934,0.2639,39.4100,89,97,378110
1.4663,0.2493,39.3500,89,97,378114
1.3930,0.2199,39.3800,89,97,378118
1.5298,0.1857,39.4400,89,97,378121
1.7889,0.2004,39.4100,89,97,378124
1.8182,0.2346,39.4400,89,97,378128
1.6911,0.2688,39.3200,89,97,378131
1.4907,0.2493,39.5100,89,97,378134
1.4663,0.2102,38.7400,89,97,378138
1.6373,0.1808,39.7700,89,97,378141
1.8182,0.1857,39.4400,89,97,378144
1.8768,0.2297,39.2800,89,97,378147
1.6911,0.2639,39.1900,89,97,378151
1.5298,0.2395,39.4800,89,97,378155
1.5200,0.2199,39.3500,89,97,378158
1.6667,0.1711,39.7000,89,97,378162
1.9062,0.2053,39.5400,89,97,378165
1.7889,0.1906,39.3200,90,97,378170
1.9306,0.2102,39.5100,90,97,378173
1.9159,0.2493,39.3800,90,97,378176
1.7204,0.2639,39.4400,90,97,378180
1.5689,0.2297,39.4400,90,97,378183
1.6716,0.2053,39.3500,90,97,378186
1.8182,0.1760,39.4400,90,97,378190
2.0137,0.2151,39.3500,90,97,378193
1.9453,0.2542,39.4400,90,97,378196
1.7449,0.2590,39.4400,90,97,378201
1.6422,0.2542,39.3200,90,97,378204
1.6764,0.1906,39.4400,90,97,378207
1.9110,0.1857,39.3500,90,97,378210
2.0332,0.2102,39.4400,90,97,378214
1.9697,0.2542,39.4400,90,97,378217
1.7889,0.2639,39.3800,90,97,378220
1.6569,0.2297,39.5100,90,97,378224
1.7644,0.1906,39.2500,90,97,378227
1.9550,0.1857,39.3500,90,97,378230
2.0870,0.2199,39.4800,90,97,378234
2.0039,0.2639,39.4100,90,97,378237
1.7986,0.2590,39.5100,90,97,378241
1.7937,0.2395,39.1900,90,97,378245
1.8182,0.1857,39.4400,90,97,378248
2.0381,0.1808,39.4100,90,97,378251
2.1701,0.2297,39.5100,90,97,378254
2.0528,0.2590,39.4800,90,97,378258
1.9062,0.2737,39.2800,90,97,378261
1.7840,0.2248,39.3800,90,97,378264
1.8866,0.2151,39.4100,90,97,378268
2.1114,0.1857,39.4400,90,97,378271
2.1994,0.2297,39.4800,90,97,378274
2.1163,0.2639,39.2500,90,97,378278
1.8817,0.2639,39.4100,90,97,378281
1.8231,0.2151,39.3500,90,97,378285
1.9501,0.1760,39.4400,90,97,378289
2.1505,0.1808,39.4400,90,97,378292
2.2532,0.2444,39.3200,90,97,378295
2.0674,0.2688,39.4100,90,97,378299
1.9013,0.2542,39.3200,90,97,378302
1.8231,0.2199,39.4800,90,97,378305
1.9746,0.1760,39.4400,90,97,378308
2.1799,0.2297,39.4100,90,97,378312
2.2141,0.2395,39.4400,90,97,378315
2.0332,0.2688,39.4400,90,97,378318
1.8084,0.2493,39.4400,90,97,378322
1.7840,0.2151,39.4400,90,97,378326
1.9306,0.1808,39.4400,90,97,378329
2.0870,0.2004,39.4400,90,97,378333
2.1457,0.2542,39.2500,90,97,378336
1.9208,0.2688,39.3800,90,97,378339
1.7058,0.2444,39.5100,90,97,378343
1.6911,0.2151,39.4100,90,97,378346
1.7986,0.1760,39.4800,90,97,378349
2.0137,0.2151,39.1900,90,97,378352
1.9599,0.2639,39.3500,90,97,378356
1.7253,0.2590,39.3800,90,97,378359
1.5543,0.2493,39.4400,90,97,378362
1.5494,0.1906,39.4800,90,97,378366
1.7742,0.1906,39.3200,90,97,378370
1.9110,0.2102,39.4400,90,97,378373
1.8817,0.2688,39.3800,90,97,378377
1.6764,0.2639,39.4400,90,97,378380
1.5347,0.2444,39.4800,90,97,378383
1.6373,0.2053,39.3800,90,97,378387
1.7742,0.1711,39.4400,90,97,378390
1.9550,0.2199,39.3200,90,97,378393
1.8719,0.2639,39.4800,90,97,378397
1.6667,0.2639,39.4800,90,97,378400
1.5591,0.2542,39.3200,90,97,378403
1.5982,0.1955,39.5100,90,97,378407
1.8182,0.1808,39.3200,90,97,378411
1.9501,0.2199,39.3500,90,97,378414
1.9013,0.2493,39.4800,90,97,378417
1.6911,0.2786,39.3800,90,97,378421
1.5494,0.2346,39.4400,90,97,378424
1.6569,0.1955,39.2200,90,97,378427
1.8426,0.1857,39.5100,90,97,378431
1.9795,0.2248,39.4800,90,97,378434
1.8964,0.2639,39.4400,90,97,378437
1.6813,0.2590,39.4400,90,97,378441
1.6325,0.2395,39.1900,90,97,378444
1.6813,0.1906,39.4100,90,97,378447
1.8915,0.1808,39.6700,90,97,378451
1.9990,0.2346,39.4400,90,97,378455
1.8622,0.2639,39.5700,90,97,378458
1.7155,0.2786,39.3200,90,97,378462
1.6080,0.2297,39.4100,90,97,378465
1.7204,0.1857,39.3500,90,97,378468
1.9208,0.1906,39.4400,90,97,378471
2.0039,0.2297,39.4400,90,97,378475
1.9062,0.2737,39.2800,90,97,378478
1.6862,0.2542,39.4800,90,97,378481
1.6862,0.2297,39.3200,90,97,378485
1.7840,0.1808,39.5100,90,97,378488
1.9892,0.1906,39.4800,90,97,378491
2.0674,0.2493,39.3200,90,97,378496
1.9062,0.2493,39.4400,90,97,378499
1.7058,0.2542,38.6200,90,97,378502
1.6373,0.2493,39.4100,90,97,378506
1.7937,0.1711,39.4400,90,97,378509
2.0039,0.2004,39.4100,90,97,378512
2.0283,0.2297,39.4800,90,97,378515
1.8866,0.2737,39.2500,90,97,378519
1.6764,0.2493,39.4400,90,97,378522
1.6667,0.2102,39.5400,90,97,378525
1.8524,0.1857,39.3500,90,97,378529
2.0430,0.2053,39.4800,90,97,378532
2.1212,0.2639,39.1900,90,97,378535
1.9013,0.2786,39.3500,90,97,378540
1.7204,0.2444,39.4800,90,97,378543
1.7351,0.2102,39.4100,90,97,378546
1.9159,0.2053,39.4400,90,97,378550
2.1750,0.2444,39.2500,90,97,378553
2.1261,0.2639,39.4100,90,97,378556
1.9257,0.2688,39.3800,90,97,378559
1.7840,0.2444,39.4400,90,97,378563
1.8231,0.1906,39.4400,90,97,378566
2.0674,0.1906,39.3500,90,97,378569
2.2190,0.2151,39.4400,90,97,378573
2.1994,0.2737,39.3500,90,97,378576
1.9697,0.2688,39.4800,90,97,378579
1.8133,0.2444,39.4800,90,97,378584
1.8671,0.2053,39.4100,90,97,378587
2.0479,0.1857,39.4400,90,97,378590
2.2190,0.2199,39.3800,90,97,378594
2.1065,0.2835,39.4400,90,97,378597
1.8817,0.2639,39.4400,90,97,378600
1.7449,0.2493,39.5700,90,97,378603
1.7546,0.2053,39.4400,90,97,378607
1.9453,0.1857,39.2200,90,97,378610
2.0381,0.2248,39.3500,90,97,378613
1.9062,0.2639,39.5400,90,97,378617
1.6862,0.2737,39.3800,90,97,378620
1.5396,0.2346,39.5700,90,97,378624
1.6471,0.2004,39.4100,90,97,378628
1.8035,0.1808,39.3200,90,97,378631
1.9208,0.2248,39.6000,90,97,378634
1.8182,0.2688,39.4400,90,97,378638
1.6031,0.2639,39.4400,90,97,378641
1.5738,0.2395,39.1900,90,97,378644
1.6031,0.1906,39.4400,90,97,378648
1.8133,0.1808,39.4800,90,97,378651
1.9257,0.2444,39.4400,90,97,378654
1.7937,0.2639,39.4400,90,97,378657
1.6325,0.2835,39.3200,90,97,378661
1.5249,0.2346,39.4100,90,97,378664
1.6325,0.1857,39.3500,90,97,378668
1.8328,0.1906,39.3500,90,97,378672
1.9501,0.2395,39.5100,90,97,378675
1.9110,0.2786,39.2800,90,97,378678
1.8133,0.2639,39.4100,90,97,378682
1.9892,0.2346,39.3200,90,97,378685
2.2727,0.1857,39.4400,90,97,378688
2.6588,0.1955,39.4800,90,97,378692
2.8495,0.2444,39.3800,90,97,378695
2.6882,0.2688,39.4400,90,97,378698
2.4389,0.2590,39.3200,90,97,378701
2.2092,0.2199,39.4100,90,97,378705
2.1408,0.1808,39.4400,90,97,378708
2.1505,0.2004,39.3800,90,97,378712
2.0039,0.2395,39.4400,90,97,378716
1.7400,0.2688,39.2500,90,97,378719
1.4418,0.2884,39.5100,90,97,378722
1.3881,0.2151,39.4400,90,97,378726
1.5249,0.1857,39.4100,90,97,378729
1.7107,0.2053,39.3800,90,97,378732
1.7791,0.2639,39.1900,90,97,378736
1.5738,0.2737,39.4100,90,97,378739
1.3978,0.2395,39.4100,90,97,378742
1.4027,0.2102,38.5800,90,97,378746
1.5885,0.1515,39.5100,90,97,378749
1.8426,0.2297,39.1200,90,97,378753
1.8133,0.2590,39.4100,90,97,378756
1.6227,0.2688,39.3500,90,97,378760
1.4712,0.2542,39.4400,90,97,378763
1.4956,0.2004,39.4400,90,97,378766
1.7107,0.1906,39.4400,90,97,378770
1.8768,0.2199,39.5100,90,97,378773
1.8671,0.2737,39.3200,90,97,378776
1.6373,0.2688,39.4800,91,97,378780
1.8377,0.2590,39.4800,91,97,378784
1.6471,0.2639,39.4400,91,97,378788
1.5494,0.3030,39.3800,91,97,378791
1.6129,0.1955,39.4400,91,97,378795
1.8622,0.1955,39.2200,91,97,378799
1.9795,0.2346,39.3800,91,97,378802
1.8817,0.2639,39.4800,91,97,378805
1.6813,0.2688,39.4100,91,97,378809
1.6031,0.2346,39.4400,91,97,378812
1.7546,0.2102,39.1900,91,97,378815
1.9110,0.1906,39.3500,91,97,378818
2.0137,0.2297,39.4400,91,97,378822
1.8964,0.2786,39.4400,91,97,378825
1.7009,0.2639,39.4400,91,97,378828
1.6667,0.2444,39.3200,91,97,378832
1.7644,0.1955,39.4400,91,97,378835
1.9746,0.1906,39.3500,91,97,378839
2.0577,0.2395,39.4400,91,97,378843
1.9159,0.2786,39.4400,91,97,378846
1.7498,0.2688,39.4800,91,97,378849
1.6862,0.2199,39.4400,91,97,378853
1.8573,0.1955,39.3500,91,97,378856
2.0479,0.1955,39.4800,91,97,378859
2.1163,0.2444,39.5100,91,97,378863
2.0235,0.2835,39.3800,91,97,378866
1.7742,0.2590,39.4100,91,97,378869
1.7644,0.2199,39.2800,91,97,378872
1.9110,0.1857,39.3800,91,97,378876
2.1163,0.2248,39.4400,91,97,378880
2.1848,0.2590,39.3800,91,97,378883
1.9990,0.2884,39.5700,91,97,378887
1.8671,0.2493,39.2500,91,97,378890
1.8182,0.2151,39.4800,91,97,378893
1.9892,0.1857,39.4400,91,97,378897
2.2336,0.2053,39.4400,91,97,378900
2.2092,0.2493,39.4800,91,97,378903
2.0772,0.2835,39.1600,91,97,378907
1.8524,0.2493,39.4400,91,97,378910
1.8622,0.2053,39.4100,91,97,378913
2.0479,0.1857,39.5100,91,97,378917
2.2287,0.2102,39.4800,91,97,378920
2.2678,0.2786,39.3500,91,97,378924
2.0283,0.2737,39.3800,91,97,378927
1.8622,0.2542,39.4400,91,97,378931
1.8622,0.2053,39.3500,91,97,378934
2.0381,0.1808,39.4100,91,97,378937
2.2336,0.2248,39.2800,91,97,378941
2.1359,0.2639,39.4400,91,97,378944
1.9306,0.2737,39.3500,91,97,378947
1.7351,0.2444,39.4400,91,97,378951
1.7498,0.1906,39.4400,91,97,378954
1.9355,0.1857,39.3800,91,97,378957
2.0528,0.2199,39.4400,91,97,378961
1.9844,0.2835,39.2800,91,97,378964
1.7253,0.2688,39.4400,91,97,378968
1.5738,0.2395,39.5100,91,97,378971
1.6276,0.2053,39.3800,91,97,378975
1.8084,0.2004,39.4400,91,97,378978
1.9795,0.2346,39.2500,91,97,378981
1.8475,0.2884,39.4800,91,97,378985
1.6422,0.2639,39.4400,91,97,378988
1.5347,0.2444,39.3800,91,97,378991
1.5982,0.1955,39.4400,91,97,378995
1.8719,0.1955,39.2200,91,97,378998
1.9404,0.2346,39.3500,91,97,379001
1.8133,0.2639,39.4100,91,97,379005
1.6129,0.2688,39.5100,91,97,379009
1.5152,0.2346,39.4400,91,97,379012
1.6862,0.2053,39.2500,91,97,379016
1.8475,0.1906,39.4100,91,97,379019
1.9501,0.2444,39.3800,91,97,379022
1.8084,0.2786,39.4400,91,97,379025
1.6129,0.2639,39.4400,91,97,379029
1.5591,0.2639,39.3500,91,97,379032
1.6813,0.1906,39.4400,91,97,379035
1.9013,0.1955,39.3200,91,97,379039
1.9599,0.2395,39.4400,91,97,379042
1.8133,0.2786,39.4100,91,97,379045
1.6325,0.2639,39.4100,91,97,379049
1.5738,0.2248,39.4100,91,97,379053
1.7351,0.2199,39.3500,91,97,379056
1.9257,0.1906,39.4400,91,97,379060
1.9795,0.2297,39.4400,91,97,379063
1.8377,0.2835,39.3200,91,97,379066
1.6227,0.2590,39.4400,91,97,379070
1.6178,0.2248,39.2200,91,97,379073
1.7595,0.1906,39.3500,91,97,379076
1.9501,0.2004,39.4400,91,97,379079
1.9990,0.2590,39.4100,91,97,379083
1.8084,0.2688,39.4100,91,97,379086
1.6716,0.2737,39.1900,91,97,379089
1.6276,0.2151,39.3800,91,97,379094
1.7937,0.1515,39.4400,91,97,379097
1.9844,0.2102,39.5100,91,97,379100
1.9795,0.2590,39.4400,91,97,379104
1.8426,0.2933,39.3500,91,97,379107
1.6325,0.2493,39.4400,91,97,379110
1.6422,0.2102,39.3800,91,97,379114
1.8182,0.1808,38.5800,91,97,379117
1.9941,0.2151,39.4400,91,97,379120
2.0088,0.2737,39.3800,91,97,379123
1.7889,0.2737,39.4400,91,97,379127
1.6422,0.2444,39.3500,91,97,379130
1.6618,0.2053,39.4400,91,97,379133
1.8524,0.1857,39.4400,91,97,379138
2.0577,0.2297,39.2800,91,97,379141
1.9844,0.2493,39.4400,91,97,379144
1.8182,0.2786,39.4100,91,97,379148
1.6618,0.2444,39.4100,91,97,379151
1.7400,0.2004,39.4800,91,97,379154
1.9648,0.1906,39.3500,91,97,379158
2.1114,0.2248,39.4400,91,97,379161
2.0821,0.2835,39.2500,91,97,379164
1.8524,0.2688,39.3800,91,97,379168
1.7351,0.2395,39.4400,91,97,379171
1.8475,0.2053,39.4100,91,97,379174
2.0577,0.1857,39.4400,91,97,379177
2.2678,0.2444,39.1900,91,97,379182
2.1310,0.2639,39.4100,91,97,379185
1.9208,0.2688,39.4800,91,97,379188
1.8328,0.2444,38.7700,91,97,379192
1.9062,0.2053,39.4400,91,97,379195
2.1652,0.2053,39.2500,91,97,379198
2.2678,0.2395,39.3800,91,97,379202
2.1017,0.2639,39.4100,91,97,379205
1.8817,0.2737,39.4400,91,97,379208
1.7840,0.2346,39.4800,91,97,379212
1.9110,0.2004,39.2500,91,97,379215
2.0723,0.2151,39.4100,91,97,379218
2.1408,0.2444,39.4400,91,97,379222
1.9501,0.2688,39.4800,91,97,379226
1.7155,0.2639,39.4100,91,97,379229
1.6325,0.2395,39.3500,91,97,379232
1.7058,0.1906,39.4800,91,97,379236
1.9159,0.1906,39.3500,91,97,379239
1.9501,0.2444,39.5100,91,97,379242
1.7937,0.2737,39.4800,91,97,379246
1.5934,0.2884,39.4100,91,97,379249
1.5249,0.2248,39.4800,91,97,379252
1.6764,0.1857,39.2800,91,97,379256
1.8524,0.2004,39.5400,91,97,379259
1.9062,0.2493,39.6400,91,97,379262
1.7595,0.2786,39.3800,91,97,379266
1.5494,0.2590,39.4400,91,97,379270
1.5494,0.2297,39.2500,91,97,379273
1.6862,0.1906,39.2800,91,97,379276
1.8719,0.2004,39.4800,91,97,379280
1.9062,0.2590,39.3500,91,97,379283
1.7253,0.2737,39.4800,91,97,379286
1.5885,0.2688,39.1900,91,97,379290
1.6080,0.2199,39.3500,91,97,379293
1.8671,0.1808,39.4100,91,97,379296
2.2141,0.2102,39.5100,91,97,379300
2.4145,0.2493,39.4800,91,97,379303
2.4682,0.2884,39.2800,91,97,379307
2.4194,0.2542,39.4100,91,97,379310
2.5024,0.2102,39.3500,91,97,379314
2.6344,0.1857,39.4800,91,97,379317
2.6833,0.2151,39.0300,91,97,379320
2.4976,0.2737,39.3500,91,97,379324
2.0772,0.2737,39.5100,91,97,379327
1.7449,0.2542,39.3500,91,97,379330
1.5787,0.2053,39.4400,91,97,379334
1.6569,0.1857,39.4400,91,97,379337
1.8035,0.2297,39.5100,91,97,379340
1.7204,0.2493,39.4800,91,97,379344
1.5445,0.2737,39.3200,91,97,379347
1.4076,0.2444,39.3800,91,97,379351
1.4370,0.1906,39.4800,91,97,379355
1.6471,0.1906,39.3800,91,97,379358
1.7840,0.2248,39.4800,91,97,379361
1.7546,0.2981,39.2800,91,97,379364
1.5396,0.2737,39.4100,91,97,379368
1.4174,0.2395,39.4800,91,97,379371
1.5005,0.2102,39.4400,91,97,379374
1.7009,0.2151,39.4100,91,97,379378
1.8915,0.2395,39.1900,91,97,379381
1.7644,0.2639,39.4100,91,97,379384
1.5689,0.2639,39.4400,91,97,379388
1.4712,0.2639,39.4100,92,97,379392
1.5836,0.2688,39.4800,92,97,379397
1.5152,0.2297,39.6400,92,97,379400
1.6667,0.2004,39.2500,92,97,379403
1.8573,0.2004,39.4100,92,97,379407
1.9892,0.2493,39.3500,92,97,379410
1.8084,0.2737,39.7300,92,97,379413
1.6178,0.2590,39.4400,92,97,379417
1.5787,0.2297,39.4400,92,97,379420
1.7009,0.1906,39.4100,92,97,379423
1.9355,0.2004,39.3200,92,97,379426
1.9746,0.2444,39.6700,92,97,379430
1.8231,0.2737,39.4400,92,97,379433
1.6471,0.2884,39.4100,92,97,379437
1.6080,0.2395,39.4800,92,97,379441
1.8328,0.1955,39.2200,92,97,379444
1.9746,0.2004,39.4400,92,97,379447
2.0235,0.2493,39.4800,92,97,379451
1.8719,0.2786,39.4400,92,97,379454
1.6716,0.2737,39.5100,92,97,379457
1.7155,0.2102,39.1900,92,97,379461
1.8573,0.1955,39.4100,92,97,379464
2.0430,0.2004,39.4400,92,97,379467
2.0674,0.2542,39.4400,92,97,379471
1.8768,0.2688,39.4400,92,97,379474
1.7644,0.2688,39.4100,92,97,379478
1.7498,0.2248,39.4100,92,97,379481
1.9306,0.1857,39.4400,92,97,379485
2.1163,0.2151,39.4400,92,97,379488
2.1065,0.2639,39.4800,92,97,379491
1.9550,0.2786,39.3200,92,97,379495
1.7693,0.2493,39.4400,92,97,379498
1.8280,0.2102,39.2800,92,97,379501
2.0039,0.1857,39.4100,92,97,379505
2.1848,0.2151,39.4400,92,97,379508
2.1652,0.2688,39.4100,92,97,379511
1.9501,0.2835,39.4400,92,97,379515
1.8377,0.2493,39.3500,92,97,379518
1.8622,0.2102,39.4800,92,97,379522
2.0723,0.1857,39.4800,92,97,379525
2.2532,0.2346,39.3800,92,97,379529
2.1652,0.2688,39.0600,92,97,379532
1.9941,0.2835,39.2500,92,97,379535
1.8475,0.2444,39.3800,92,97,379539
1.9013,0.2004,39.5400,92,97,379542
2.1261,0.1955,39.4100,92,97,379545
2.2336,0.2590,39.4400,92,97,379549
2.1994,0.2688,39.2200,92,97,379552
1.9208,0.2737,39.3500,92,97,379555
1.7840,0.2346,39.4400,92,97,379559
1.8426,0.1906,39.4400,92,97,379563
2.0332,0.1906,39.4400,92,97,379566
2.1896,0.2493,39.2500,92,97,379569
1.9941,0.2835,39.4400,92,97,379573
1.7644,0.2688,39.3800,92,97,379576
1.6422,0.2395,39.4100,92,97,379579
1.7204,0.1906,39.4400,92,97,379583
1.9453,0.2004,39.4100,92,97,379586
2.0039,0.2395,39.4400,92,97,379589
1.8719,0.2737,39.3200,92,97,379593
1.6325,0.2688,39.4400,92,97,379596
1.5494,0.2297,39.4100,92,97,379599
1.6862,0.2102,39.3200,92,97,379603
1.8671,0.1906,39.4400,92,97,379607
1.9599,0.2493,39.4100,92,97,379610
1.7791,0.2786,39.3800,92,97,379614
1.5787,0.2639,39.4400,92,97,379617
1.5396,0.2346,39.3500,92,97,379620
1.6569,0.2004,39.4400,92,97,379623
1.8964,0.2004,39.2800,92,97,379627
1.9306,0.2542,39.2800,92,97,379630
1.7644,0.2737,39.4800,92,97,379633
1.6031,0.2688,39.4100,92,97,379637
1.5494,0.2199,39.4800,92,97,379640
1.7400,0.1955,39.3500,92,97,379643
1.9062,0.2053,39.4100,92,97,379648
1.9453,0.2590,39.4400,92,97,379651
1.7791,0.2786,39.5100,92,97,379654
1.5982,0.2639,39.4400,92,97,379658
1.6227,0.2297,39.2500,92,97,379661
1.7595,0.1906,39.2500,92,97,379664
1.9453,0.2102,39.4100,92,97,379667
1.9404,0.2639,39.4400,92,97,379671
1.7546,0.2737,39.4800,92,97,379674
1.6325,0.2639,39.2800,92,97,379677
1.6178,0.2151,39.4400,92,97,379681
1.8035,0.1906,39.4400,92,97,379684
1.9746,0.2151,39.4400,92,97,379687
1.9697,0.2639,39.4400,92,97,379692
1.7840,0.2835,39.2800,92,97,379695
1.6080,0.2737,39.4400,92,97,379698
1.6618,0.2151,39.3500,92,97,379702
1.8182,0.1711,39.4800,92,97,379705
1.9990,0.2199,39.4400,92,97,379708
1.9599,0.2933,39.4100,92,97,379712
1.7498,0.2737,39.5400,92,97,379715
1.6325,0.2590,39.2800,92,97,379718
1.6618,0.2053,39.4400,92,97,379721
1.8719,0.1906,39.4800,92,97,379725
2.0528,0.2297,39.3500,92,97,379728
1.9599,0.2737,39.4400,92,97,379731
1.7937,0.2786,39.2200,92,97,379736
1.6471,0.2493,39.3200,92,97,379739
1.7058,0.2004,39.4800,92,97,379742
1.9306,0.1955,39.4100,92,97,379746
2.0528,0.2346,39.4400,92,97,379749
2.0137,0.2835,39.2200,92,97,379752
1.7644,0.2688,39.3500,92,97,379756
1.6373,0.2346,39.4400,92,97,379759
1.7449,0.2395,39.4100,92,97,379762
1.9599,0.2004,39.4800,92,97,379765
2.1408,0.2542,39.3200,92,97,379769
1.9892,0.2737,39.4400,92,97,379772
1.7986,0.2933,39.3500,92,97,379776
1.7058,0.2297,39.4400,92,97,379780
1.8182,0.1955,39.4800,92,97,379783
2.0674,0.2004,39.3800,92,97,379786
2.1505,0.2444,39.4400,92,97,379790
2.0528,0.2786,39.3200,92,97,379793
1.8280,0.2590,39.4800,92,97,379796
1.7791,0.2346,39.4800,92,97,379800
1.9599,0.2004,39.3200,92,97,379803
2.1554,0.2004,39.5400,92,97,379806
2.2532,0.2444,39.3200,92,97,379810
2.0723,0.2737,39.3800,92,97,379813
1.8622,0.2639,39.5400,92,97,379816
1.8231,0.2346,39.3500,92,97,379820
1.9306,0.1857,39.4400,92,97,379824
2.1750,0.2053,39.2500,92,97,379827
2.1799,0.2542,39.5100,92,97,379830
1.9746,0.2737,39.4400,92,97,379834
1.7742,0.2639,39.4800,92,97,379837
1.7107,0.2688,39.4400,92,97,379840
1.8768,0.2248,39.2200,92,97,379844
2.0039,0.2102,39.4100,92,97,379847
1.9941,0.2542,39.4800,92,97,379850
1.7889,0.2737,39.4100,92,97,379854
1.5836,0.2542,39.6700,92,97,379857
1.6031,0.2297,39.2800,92,97,379860
1.7253,0.1906,39.3800,92,97,379864
1.8964,0.2102,39.3800,92,97,379868
1.8866,0.2639,39.4400,92,97,379871
1.6862,0.2786,39.4400,92,97,379874
1.5396,0.2639,39.2800,92,97,379878
1.5347,0.2151,39.4100,92,97,379881
1.7253,0.1906,39.3200,92,97,379884
1.9062,0.2151,39.4400,92,97,379888
1.8671,0.2639,39.4400,92,97,379891
1.6960,0.2786,39.3800,92,97,379894
1.5249,0.2493,39.4400,92,97,379898
1.5738,0.2102,39.4800,92,97,379901
1.7302,0.1857,39.4400,92,97,379905
1.9013,0.2297,39.5100,92,97,379909
1.9013,0.2688,39.4400,92,97,379912
1.7644,0.2639,39.5100,92,97,379915
1.7840,0.2493,39.2800,92,97,379918
1.9795,0.2053,39.4100,92,97,379922
2.3558,0.1906,39.4400,92,97,379925
2.6931,0.2346,39.4100,92,97,379928
2.6979,0.2688,39.5400,92,97,379932
2.5562,0.2786,39.1600,92,97,379935
2.3118,0.2493,39.3500,92,97,379938
2.2092,0.2004,39.4800,92,97,379942
2.2287,0.2053,38.5800,92,97,379945
2.1652,0.2297,39.5100,92,97,379949
1.9746,0.2933,39.2200,92,97,379953
1.6129,0.2835,39.4100,92,97,379956
1.4125,0.2346,39.4100,92,97,379959
1.4663,0.1955,39.4400,92,97,379962
1.6471,0.1955,39.4400,92,97,379966
1.7937,0.2444,39.3800,92,97,379969
1.6716,0.2737,39.4400,92,97,379972
1.4712,0.2737,39.3200,92,97,379976
1.3783,0.2346,39.5700,92,97,379979
1.4907,0.2004,39.4400,92,97,379982
1.7253,0.2004,39.4400,92,97,379986
1.8133,0.2444,39.6000,92,97,379990
1.7204,0.2786,39.3800,92,97,379993
1.5005,0.2688,39.4800,92,97,379997
1.4418,0.2248,39.4400,92,97,380000
1.5934,0.2004,39.3500,93,97,380003
1.5103,0.2297,39.4100,93,97,380008
1.6520,0.1906,39.4400,93,97,380011
1.9110,0.2151,39.1900,93,97,380015
1.9159,0.2590,39.5100,93,97,380018
1.7400,0.2688,39.4100,93,97,380021
1.5787,0.2590,39.4400,93,97,380024
1.5591,0.2199,39.4400,93,97,380028
1.7840,0.2053,39.2500,93,97,380032
1.9404,0.2151,39.5400,93,97,380035
1.9550,0.2639,39.3500,93,97,380039
1.7644,0.2786,39.3800,93,97,380042
1.6031,0.2542,39.4800,93,97,380045
1.6276,0.2248,39.3500,93,97,380049
1.7986,0.1906,39.4800,93,97,380052
2.0088,0.2199,39.3500,93,97,380055
1.9697,0.2688,39.4400,93,97,380059
1.7840,0.2737,39.4400,93,97,380062
1.6569,0.2639,39.3800,93,97,380065
1.6667,0.2102,39.4400,93,97,380069
1.8915,0.1906,39.3500,93,97,380072
2.0381,0.2199,39.3800,93,97,380076
2.0088,0.2639,39.5100,93,97,380079
1.8231,0.2786,39.3200,93,97,380083
1.6716,0.2493,39.4800,93,97,380086
1.7595,0.2053,39.2500,93,97,380089
1.9355,0.1955,39.3500,93,97,380093
2.1017,0.2248,39.4800,93,97,380096
2.0528,0.2737,39.4100,93,97,380099
1.8328,0.2737,39.4800,93,97,380103
1.7546,0.2542,39.1900,93,97,380106
1.8133,0.2004,39.4400,93,97,380109
2.0186,0.1808,39.4800,93,97,380113
2.1994,0.2346,39.4400,93,97,380116
2.0821,0.2639,39.4400,93,97,380120
1.9599,0.2933,39.2200,93,97,380123
1.7889,0.2493,39.4100,93,97,380127
1.8817,0.1955,39.3500,93,97,380130
2.0919,0.2004,39.4400,93,97,380133
2.2092,0.2590,39.4400,93,97,380137
2.1457,0.2688,39.2800,93,97,380140
1.9013,0.2737,39.4100,93,97,380143
1.8475,0.2395,39.3200,93,97,380147
1.9159,0.1955,39.4400,93,97,380150
2.1261,0.1955,39.4400,93,97,380153
2.2532,0.2493,39.3500,93,97,380157
2.1017,0.2688,39.4400,93,97,380161
1.9110,0.2786,39.2200,93,97,380164
1.8035,0.2346,39.4800,93,97,380167
1.9306,0.1955,39.4400,93,97,380171
2.1554,0.2053,39.3800,93,97,380174
2.1945,0.2444,39.4400,93,97,380177
2.0479,0.2786,39.2800,93,97,380181
1.8035,0.2737,39.4800,93,97,380184
1.7253,0.2297,39.2200,93,97,380187
1.8622,0.2004,39.2800,93,97,380191
2.0235,0.2102,39.4400,93,97,380194
2.0968,0.2590,39.2200,93,97,380197
1.8866,0.2786,39.3500,93,97,380201
1.6569,0.2639,39.4800,93,97,380205
1.6178,0.2297,39.4800,93,97,380208
1.7449,0.1857,39.5100,93,97,380212
1.9844,0.2199,39.1900,93,97,380215
1.9648,0.2590,39.3500,93,97,380218
1.7595,0.2737,39.4100,93,97,380221
1.6031,0.2493,39.4400,93,97,380225
1.5445,0.2151,39.4400,93,97,380228
1.7498,0.2004,39.6000,93,97,380231
1.9013,0.2151,39.4800,93,97,380235
1.9306,0.2493,39.3500,93,97,380238
1.7058,0.2786,39.4100,93,97,380241
1.5347,0.2542,39.4800,93,97,380246
1.5640,0.2199,39.3800,93,97,380249
1.7351,0.1857,39.5100,93,97,380252
1.9404,0.2248,39.3200,93,97,380256
1.8915,0.2639,39.4800,93,97,380259
1.7058,0.2786,39.4400,93,97,380262
1.5738,0.2590,39.3200,93,97,380266
1.5836,0.2102,39.2500,93,97,380269
1.7986,0.1906,39.2500,93,97,380272
1.9550,0.2248,39.3500,93,97,380275
1.9013,0.2639,39.4400,93,97,380279
1.7155,0.2835,39.3200,93,97,380282
1.5591,0.2444,39.4400,93,97,380285
1.6520,0.2102,39.2200,93,97,380290
1.8231,0.1906,39.3800,93,97,380293
1.9746,0.2248,39.5400,93,97,380296
1.9062,0.2737,39.4400,93,97,380300
1.6960,0.2688,39.4100,93,97,380303
1.6178,0.2639,39.1600,93,97,380306
1.6520,0.2053,39.4100,93,97,380310
1.8573,0.1857,39.4400,93,97,380313
1.9990,0.2346,39.4100,93,97,380316
1.9013,0.2688,39.4400,93,97,380320
1.7400,0.2884,39.2800,93,97,380323
1.6080,0.2444,39.3800,93,97,380326
1.6911,0.1955,39.3800,93,97,380329
1.9013,0.1955,39.4400,93,97,380334
2.0430,0.2346,39.4100,93,97,380337
1.9453,0.2786,39.4100,93,97,380340
1.7204,0.2737,39.4400,93,97,380344
1.6471,0.2395,39.3500,93,97,380347
1.7400,0.1955,39.5700,93,97,380350
1.9501,0.1906,39.4800,93,97,380354
2.0723,0.2493,39.4100,93,97,380357
1.9208,0.2737,39.4800,93,97,380360
1.7351,0.2737,39.3500,93,97,380363
1.6373,0.2346,39.4400,93,97,380367
1.7595,0.1906,39.4800,93,97,380370
1.9795,0.2004,39.4100,93,97,380374
2.0381,0.2493,39.4800,93,97,380378
1.9159,0.2884,39.2800,93,97,380381
1.6764,0.2639,39.4800,93,97,380384
1.6373,0.2590,39.4400,93,97,380388
1.7937,0.1955,39.4400,93,97,380391
1.9941,0.2053,39.5100,93,97,380394
2.0968,0.2639,39.2800,93,97,380398
1.8964,0.2737,39.3800,93,97,380401
1.7009,0.2590,39.4800,93,97,380404
1.6862,0.2199,39.4400,93,97,380408
1.8475,0.1857,39.4400,93,97,380411
2.1212,0.2102,39.2500,93,97,380414
2.1163,0.2639,39.3500,93,97,380418
1.9355,0.2737,39.4400,93,97,380422
1.7595,0.2590,39.5700,93,97,380425
1.7693,0.2151,39.6400,93,97,380428
1.9941,0.1955,39.3500,93,97,380432
2.1750,0.2151,39.4400,93,97,380435
2.2092,0.2639,39.3500,93,97,380438
1.9941,0.2835,39.4400,93,97,380442
1.8231,0.2493,39.6000,93,97,380445
1.8475,0.2395,39.4100,93,97,380448
2.0137,0.2248,39.4100,93,97,380452
2.2141,0.2639,39.3800,93,97,380455
2.1457,0.2639,39.5700,93,97,380459
1.9306,0.2737,39.4400,93,97,380463
1.7840,0.2590,39.3500,93,97,380466
1.7742,0.2102,39.4800,93,97,380469
1.9697,0.1906,39.2500,93,97,380472
2.0919,0.2346,39.3800,93,97,380476
1.9941,0.2688,39.4400,93,97,380479
1.7693,0.2835,39.4100,93,97,380482
1.5836,0.2444,39.4800,93,97,380486
1.6471,0.2102,39.2500,93,97,380489
1.7986,0.2199,39.3800,93,97,380492
1.9355,0.2346,39.5100,93,97,380496
1.8524,0.2688,39.4400,93,97,380499
1.6373,0.2786,39.4400,93,97,380503
1.5543,0.2639,39.1900,93,97,380507
1.5787,0.1955,39.4400,93,97,380510
1.7840,0.1955,39.3800,93,97,380513
1.9159,0.2346,39.4400,93,97,380516
1.8182,0.2688,39.4400,93,97,380520
1.6520,0.2835,39.3500,93,97,380523
1.5249,0.2444,39.4100,93,97,380526
1.6276,0.2004,39.5400,93,97,380530
1.8182,0.2102,39.5100,93,97,380533
1.9404,0.2395,39.4800,93,97,380536
1.8280,0.2786,39.3200,93,97,380540
1.6080,0.2737,39.4400,93,97,380544
1.5836,0.2297,39.3800,93,97,380547
1.7595,0.1857,39.4100,93,97,380551
2.1065,0.1906,39.5400,93,97,380554
2.3851,0.2493,39.4400,93,97,380557
2.4047,0.2737,39.4400,93,97,380561
2.3803,0.3177,39.3200,93,97,380564
2.3656,0.2346,39.4100,93,97,380567
2.4731,0.1906,39.4800,93,97,380570
2.5806,0.2053,39.4100,93,97,380574
2.4536,0.2444,38.7700,93,97,380577
2.1652,0.2884,39.2500,93,97,380580
1.7595,0.2590,39.4100,93,97,380584
1.5738,0.2199,39.4400,93,97,380588
1.6325,0.1906,39.4100,93,97,380591
1.7351,0.2053,39.4800,93,97,380595
1.8035,0.2688,39.1600,93,97,380598
1.6080,0.2786,39.3800,93,97,380601
1.4223,0.2542,39.3500,93,97,380605
1.4125,0.2102,39.4400,93,97,380608
1.5640,0.1808,39.4800,93,97,380611
1.8133,0.2199,39.2800,94,97,380615
1.6862,0.1955,39.3800,94,97,380619
1.8573,0.2199,39.4400,94,97,380623
1.8671,0.2639,39.3200,94,97,380626
1.6471,0.2688,39.4100,94,97,380630
1.5005,0.2493,39.4800,94,97,380634
1.5445,0.2199,39.4400,94,97,380637
1.7351,0.1808,39.4400,94,97,380640
1.9453,0.2297,39.2500,94,97,380643
1.8964,0.2590,39.4800,94,97,380647
1.6764,0.2688,39.4400,94,97,380650
1.5494,0.2542,39.4100,94,97,380653
1.5982,0.2053,39.4400,94,97,380657
1.8475,0.1906,39.2200,94,97,380660
1.9746,0.2297,39.3800,94,97,380663
1.8915,0.2786,39.4100,94,97,380667
1.6960,0.2737,39.0900,94,97,380670
1.5738,0.2688,39.4400,94,97,380674
1.7009,0.2493,39.3200,94,97,380678
1.8768,0.1906,39.3800,94,97,380681
2.0186,0.2297,39.3800,94,97,380684
1.9159,0.2688,39.4400,94,97,380688
1.7155,0.2688,39.4400,94,97,380691
1.6422,0.2688,39.3200,94,97,380694
1.7204,0.2004,39.4400,94,97,380697
1.9501,0.1857,39.3200,94,97,380701
2.0430,0.2444,39.4400,94,97,380704
1.9306,0.2688,39.4800,94,97,380707
1.7400,0.2737,39.4100,94,97,380711
1.6618,0.2297,39.4400,94,97,380715
1.8084,0.2004,39.3500,94,97,380718
2.0039,0.1906,39.2800,94,97,380722
2.1065,0.2395,39.4400,94,97,380725
2.0186,0.2835,39.3800,94,97,380728
1.7742,0.2688,39.5100,94,97,380732
1.7400,0.2346,39.2500,94,97,380735
1.8671,0.1955,39.3500,94,97,380738
2.0821,0.1906,39.4400,94,97,380741
2.1750,0.2542,39.2500,94,97,380745
2.0332,0.2737,39.4800,94,97,380748
1.8573,0.2737,39.3200,94,97,380751
1.7986,0.2248,39.3800,94,97,380755
1.9257,0.1857,39.5100,94,97,380759
2.1505,0.2053,39.4400,94,97,380762
2.1945,0.2493,39.4800,94,97,380766
2.0821,0.3079,39.1900,94,97,380769
1.8426,0.2590,39.4400,94,97,380772
1.8182,0.2151,39.5400,94,97,380776
1.9844,0.1857,39.4800,94,97,380779
2.1896,0.2004,39.5100,94,97,380782
2.2581,0.2688,39.3500,94,97,380785
2.0283,0.2786,39.3800,94,97,380789
1.8524,0.2639,39.3800,94,97,380792
1.8377,0.2151,39.4800,94,97,380795
2.0039,0.1808,39.6700,94,97,380800
2.2239,0.2199,39.2500,94,97,380803
2.1848,0.2639,39.4400,94,97,380806
1.9941,0.2786,39.5400,94,97,380810
1.7840,0.2542,39.4400,94,97,380813
1.7840,0.2053,39.5100,94,97,380816
1.9697,0.1857,39.3500,94,97,380820
2.1114,0.2199,39.4400,94,97,380823
2.0870,0.2688,39.3200,94,97,380826
1.8622,0.2737,39.4100,94,97,380829
1.6618,0.2493,39.4400,94,97,380833
1.6813,0.2297,39.3800,94,97,380836
1.8426,0.1955,39.5700,94,97,380839
2.0577,0.2346,39.2500,94,97,380844
1.9257,0.2639,39.6700,94,97,380847
1.7107,0.2590,39.4800,94,97,380850
1.5689,0.2493,39.4400,94,97,380854
1.6031,0.2199,39.4400,94,97,380857
1.8426,0.2151,39.1600,94,97,380860
1.9648,0.2346,39.4400,94,97,380864
1.8622,0.2590,39.5100,94,97,380867
1.6520,0.2737,39.4400,94,97,380870
1.5298,0.2395,39.4400,94,97,380874
1.6520,0.2151,39.2800,94,97,380877
1.8328,0.1857,39.3500,94,97,380880
1.9599,0.2395,39.3800,94,97,380883
1.8524,0.2688,39.4400,94,97,380888
1.6422,0.2639,39.4100,94,97,380891
1.5640,0.2444,39.3200,94,97,380894
1.6373,0.2493,39.4400,94,97,380898
1.8671,0.1906,39.3200,94,97,380901
1.9746,0.2444,39.4400,94,97,380904
1.8426,0.2688,39.5100,94,97,380908
1.6471,0.2688,39.3800,94,97,380911
1.5640,0.2346,39.4800,94,97,380914
1.7058,0.1906,38.9000,94,97,380918
1.8915,0.1906,39.4800,94,97,380921
1.9844,0.2395,39.4400,94,97,380924
1.8719,0.2688,39.3500,94,97,380928
1.6422,0.3030,39.4400,94,97,380932
1.6031,0.2346,39.2500,94,97,380935
1.7302,0.1711,39.3500,94,97,380938
1.9355,0.1955,39.4800,94,97,380942
2.0235,0.2542,39.4400,94,97,380945
1.8524,0.2688,39.4400,94,97,380948
1.6960,0.2737,39.2200,94,97,380952
1.6227,0.2199,39.3500,94,97,380955
1.7644,0.1808,39.4400,94,97,380958
1.9746,0.2004,39.4800,94,97,380962
2.0137,0.2493,39.5100,94,97,380965
1.8964,0.2884,39.2800,94,97,380968
1.6764,0.2590,39.3800,94,97,380973
1.6471,0.2151,39.3800,94,97,380976
1.8084,0.1857,39.4400,94,97,380979
2.0088,0.2102,39.4800,94,97,380982
2.0577,0.2688,39.4400,94,97,380986
1.8426,0.2835,39.4400,94,97,380989
1.6764,0.2542,39.4100,94,97,380992
1.6569,0.2151,39.4400,94,97,380996
1.8280,0.1760,39.4800,94,97,380999
2.0626,0.2248,39.3500,94,97,381002
2.0137,0.2639,39.5400,94,97,381006
1.8426,0.2737,39.3500,94,97,381009
1.6471,0.2444,39.4100,94,97,381012
1.6667,0.2053,39.4100,94,97,381017
1.8719,0.1906,39.3200,94,97,381020
2.0283,0.2102,39.4400,94,97,381023
2.0235,0.2688,39.2800,94,97,381026
1.7937,0.2688,39.3800,94,97,381030
1.6764,0.2493,39.4400,94,97,381033
1.6960,0.2102,39.4100,94,97,381036
1.8719,0.1857,39.4400,94,97,381040
2.0821,0.2297,39.6700,94,97,381043
1.9795,0.2590,39.3800,94,97,381046
1.7693,0.2688,39.6000,94,97,381050
1.6422,0.2542,39.4100,94,97,381053
1.7009,0.2004,39.4400,94,97,381057
1.9648,0.2004,39.2200,94,97,381061
2.0821,0.2297,39.3800,94,97,381064
1.9990,0.2639,39.5400,94,97,381067
1.8133,0.2688,39.4400,94,97,381070
1.6911,0.2297,39.4400,94,97,381074
1.8231,0.2053,39.2800,94,97,381077
2.0235,0.1955,39.4100,94,97,381080
2.1603,0.2346,39.4400,94,97,381084
2.0577,0.2639,39.5700,94,97,381087
1.8622,0.2639,39.4400,94,97,381090
1.8084,0.2444,39.0900,94,97,381094
1.9062,0.2004,39.4400,94,97,381097
2.1359,0.1906,39.3200,94,97,381101
2.2239,0.2297,39.4800,94,97,381105
2.0919,0.2639,39.4800,94,97,381108
1.8915,0.2639,38.5500,94,97,381111
1.7937,0.2297,39.4400,94,97,381114
1.9159,0.2248,39.3500,94,97,381118
2.0821,0.1906,39.4400,94,97,381121
2.1505,0.2297,39.4800,94,97,381124
2.0088,0.2786,39.3500,94,97,381128
1.7546,0.2590,39.4400,94,97,381131
1.6862,0.2346,39.2800,94,97,381134
1.7595,0.1906,39.3500,94,97,381138
1.9257,0.1906,39.4800,94,97,381142
1.9844,0.2493,39.3800,94,97,381145
1.7937,0.2639,39.4800,94,97,381149
1.6227,0.2688,39.1900,94,97,381152
1.5445,0.2199,39.3500,94,97,381155
1.6716,0.2151,39.4100,94,97,381159
1.8719,0.2102,39.4100,94,97,381162
1.9062,0.2444,39.4400,94,97,381165
1.7791,0.2884,39.2800,94,97,381168
1.5640,0.2297,39.3800,94,97,381172
1.5298,0.2151,39.3500,94,97,381175
1.6862,0.1808,39.5100,94,97,381178
1.8817,0.2053,39.4800,94,97,381182
1.9355,0.2639,39.3800,94,97,381186
1.7253,0.3079,39.4400,94,97,381189
1.5591,0.2542,39.3200,94,97,381193
1.5347,0.2493,39.4400,94,97,381196
1.7253,0.1760,39.4400,94,97,381199
2.0088,0.2199,39.3200,94,97,381203
2.0626,0.2590,39.5100,94,97,381206
2.0381,0.2786,39.3200,94,97,381209
2.0137,0.2444,39.3800,94,97,381213
2.2043,0.2004,39.4400,94,97,381216
2.5269,0.1808,39.3500,94,97,381219
2.7175,0.2151,39.4400,94,97,381222
2.6735,0.2688,39.2200,94,97,381227
1.9453,0.2297,39.1900,94,98,381231
1.7400,0.2639,39.3500,94,98,381235
1.4907,0.2590,39.4100,94,98,381238
1.3587,0.2395,39.5400,94,98,381241
1.4272,0.2151,39.4400,94,98,381245
1.6813,0.2053,39.3200,94,98,381248
1.8084,0.2102,39.4400,94,98,381251
1.7400,0.2590,39.3800,94,98,381255
1.5249,0.2639,39.4400,94,98,381258
1.4418,0.2297,39.4800,94,98,381261
1.5689,0.1955,39.1600,94,98,381265
1.7644,0.1857,39.4400,94,98,381268
1.9159,0.2102,39.3500,94,98,381272
1.7742,0.2590,39.3800,94,98,381275
1.6031,0.2590,39.4800,94,98,381279
1.5152,0.2297,39.3500,94,98,381282
1.6080,0.1857,39.3200,94,98,381285
1.8426,0.1808,39.3200,94,98,381289
1.9208,0.2346,39.4100,94,98,381292
1.7986,0.2590,39.4800,94,98,381295
1.6129,0.2639,39.3200,94,98,381299
1.5298,0.2248,39.4400,94,98,381302
1.6911,0.1857,39.2500,94,98,381305
1.8719,0.1808,39.4100,94,98,381309
1.9550,0.2346,39.4800,94,98,381313
1.8182,0.2639,39.4100,94,98,381316
1.6178,0.2542,39.4400,94,98,381320
1.6129,0.2297,39.1900,94,98,381323
1.7351,0.1808,39.3800,94,98,381326
1.9404,0.1857,39.4800,94,98,381329
1.9990,0.2444,39.4400,94,98,381333
1.8377,0.2639,39.4400,94,98,381336
1.7009,0.2688,39.2500,94,98,381339
1.6569,0.2102,39.4400,94,98,381343
1.8084,0.1711,39.4400,94,98,381346
2.0039,0.1955,39.4400,94,98,381349
2.0283,0.2395,39.4400,94,98,381353
1.8817,0.2688,39.3200,94,98,381357
1.6862,0.2493,39.4100,94,98,381360
1.6960,0.2102,39.2800,94,98,381364
1.8475,0.1711,39.4100,94,98,381367
2.0821,0.2053,39.4400,94,98,381370
2.0674,0.2493,39.4800,94,98,381373
1.8622,0.2981,39.4400,94,98,381377
1.7253,0.2444,39.3500,94,98,381380
1.7155,0.2004,39.4400,94,98,381383
1.9062,0.1760,39.4400,94,98,381387
2.1310,0.2199,39.3500,94,98,381390
2.0821,0.2542,39.4800,94,98,381393
1.9159,0.2688,39.2500,94,98,381398
1.7498,0.2395,39.3500,94,98,381401
1.7840,0.1906,39.5700,94,98,381404
2.0088,0.1955,39.3500,94,98,381408
2.1603,0.2102,39.6000,94,98,381411
2.1652,0.2542,39.1900,94,98,381414
1.9208,0.2590,39.4100,94,98,381418
1.7840,0.2346,39.4400,94,98,381421
1.8866,0.1955,39.4400,94,98,381424
2.0528,0.1711,39.4800,94,98,381427
2.2630,0.2297,39.2200,94,98,381431
2.1408,0.2590,39.4400,94,98,381434
1.9062,0.2542,39.4100,94,98,381437
1.7840,0.2297,39.4100,94,98,381442
1.8573,0.1857,39.4800,94,98,381445
2.1114,0.1857,39.3200,94,98,381448
2.2043,0.2199,39.4400,94,98,381452
2.1163,0.2542,39.3200,94,98,381455
1.8817,0.2590,39.4400,94,98,381458
1.7693,0.2248,39.4800,94,98,381462
1.8866,0.2053,39.3200,94,98,381465
2.0772,0.1808,39.4400,94,98,381468
2.1945,0.2297,39.3500,94,98,381471
2.0186,0.2493,39.5100,94,98,381475
1.7937,0.2542,39.4800,94,98,381478
1.6960,0.2248,39.2800,94,98,381481
1.7742,0.1808,39.4800,94,98,381486
1.9941,0.1808,39.2800,94,98,381489
2.0430,0.2199,39.4400,94,98,381492
1.8915,0.2297,39.4800,94,98,381496
1.6911,0.2639,39.3500,94,98,381499
1.5885,0.2151,39.4400,94,98,381502
1.7400,0.1808,39.2200,94,98,381506
1.8964,0.1760,39.4100,94,98,381509
1.9648,0.2297,39.4800,94,98,381512
1.8475,0.2639,39.4100,94,98,381515
1.6031,0.2444,39.5100,94,98,381519
1.6031,0.2102,39.1900,94,98,381522
1.7058,0.1711,39.3800,94,98,381526
1.8915,0.1857,39.4100,94,98,381530
1.9404,0.2444,39.4400,94,98,381533
1.7644,0.2590,39.4400,94,98,381536
1.6227,0.2542,39.3500,94,98,381540
1.5689,0.2102,39.3800,94,98,381543
1.7595,0.1760,39.3800,94,98,381546
1.9159,0.1906,39.4800,94,98,381550
1.9404,0.2395,39.4400,94,98,381553
1.7889,0.2590,39.3500,94,98,381556
1.5982,0.2444,39.4400,94,98,381559
1.6080,0.2053,39.3200,94,98,381563
1.7546,0.1711,39.4800,94,98,381566
1.9501,0.2102,39.5100,94,98,381570
1.9648,0.2395,39.3800,94,98,381574
1.7644,0.2590,39.4400,94,98,381577
1.6227,0.2346,39.3500,94,98,381580
1.6178,0.1955,39.3500,94,98,381584
1.8035,0.1711,39.4800,94,98,381587
2.0088,0.2151,39.3200,94,98,381590
1.9599,0.2493,39.4400,94,98,381594
1.7986,0.2981,39.2200,94,98,381597
1.6276,0.2395,39.3800,94,98,381600
1.6520,0.1906,39.6700,94,98,381604
1.8573,0.1760,39.5700,94,98,381607
2.0088,0.2053,39.4800,94,98,381611
2.0137,0.2639,39.1900,94,98,381614
1.7644,0.2590,39.3800,94,98,381618
1.6227,0.2248,39.4400,94,98,381621
1.6911,0.1906,39.4400,94,98,381624
1.8768,0.1711,39.4400,94,98,381628
2.0870,0.2297,39.2500,94,98,381631
1.9844,0.2639,39.4100,94,98,381634
1.7644,0.2542,39.4100,94,98,381638
1.6325,0.2297,39.4400,94,98,381641
1.7107,0.1711,39.4400,94,98,381644
1.9306,0.1808,39.3500,94,98,381648
2.0528,0.2199,39.4400,94,98,381651
1.9697,0.2542,39.2800,94,98,381655
1.7400,0.2542,39.4400,94,98,381658
1.6325,0.2248,39.3800,94,98,381662
1.7498,0.1857,39.3200,94,98,381665
1.9306,0.1760,39.4400,94,98,381668
2.0723,0.2199,39.3500,94,98,381672
1.9159,0.2444,39.4100,94,98,381675
1.7058,0.2493,39.4800,94,98,381678
1.6422,0.2297,39.3200,94,98,381682
1.7400,0.1808,39.4400,94,98,381685
1.9746,0.1760,39.2500,94,98,381688
2.0381,0.2248,39.4800,94,98,381692
1.8915,0.2737,39.4400,94,98,381696
1.7107,0.2590,39.3800,94,98,381699
1.6178,0.2151,39.4800,94,98,381703
1.7889,0.1857,39.1900,94,98,381706
1.9746,0.1711,39.3800,94,98,381709
2.0283,0.2297,39.4800,94,98,381712
1.8817,0.2542,39.4400,94,98,381716
1.6911,0.2444,39.4400,94,98,381719
1.7155,0.2297,39.2800,94,98,381722
1.8426,0.1711,39.4100,94,98,381726
2.0479,0.1857,39.3800,94,98,381729
2.0821,0.2346,39.4400,94,98,381732
1.9257,0.2493,39.4400,94,98,381736
1.7840,0.2493,39.2500,94,98,381740
1.7791,0.2102,39.4100,94,98,381743
1.9795,0.1760,39.3500,94,98,381747
2.1505,0.1955,39.4800,94,98,381750
2.1799,0.2297,39.4800,94,98,381753
2.0186,0.2786,39.3800,94,98,381757
1.8231,0.2395,39.4400,94,98,381760
1.8426,0.2053,39.4100,94,98,381763
1.9844,0.1662,38.5800,94,98,381766
2.1701,0.1955,39.4400,94,98,381770
2.1701,0.2493,39.3500,94,98,381773
1.9355,0.2590,39.6700,94,98,381776
1.7742,0.2884,39.2500,94,98,381780
1.7449,0.1906,39.4800,94,98,381784
1.8964,0.1515,39.4800,94,98,381787
2.0528,0.2102,39.3500,94,98,381791
1.9746,0.2493,39.4400,94,98,381794
1.7742,0.2688,39.0300,94,98,381797
1.5836,0.2346,39.3500,94,98,381801
1.5982,0.1857,39.4400,94,98,381804
1.7840,0.1515,39.4400,94,98,381807
1.9208,0.2053,39.4400,94,98,381810
1.9110,0.2688,39.1600,94,98,381814
1.6569,0.2639,39.3800,94,98,381817
1.5152,0.2248,39.4100,94,98,381820
1.5787,0.1857,39.4100,94,98,381825
1.7644,0.1711,39.4400,94,98,381828
1.9599,0.2248,39.3500,94,98,381831
1.8524,0.2737,39.4100,94,98,381835
1.6520,0.2590,39.3500,94,98,381838
1.5200,0.2297,39.5400,94,98,381841
1.7302,0.2688,39.4800,94,98,381846
1.7791,0.2102,39.4800,94,98,381849
2.0674,0.1857,39.3500,94,98,381853
2.4145,0.1760,39.3800,94,98,381856
2.6979,0.2297,39.2500,94,98,381859
2.6051,0.2590,39.3500,94,98,381863
2.3558,0.2542,39.6000,94,98,381867
2.2190,0.2199,39.3800,94,98,381870
2.1408,0.1711,39.4800,94,98,381873
2.2239,0.1857,39.2500,94,98,381877
2.0870,0.2297,39.2800,94,98,381880
1.8133,0.2542,39.4800,94,98,381883
1.5298,0.2542,39.4400,94,98,381887
1.3881,0.2151,39.4400,94,98,381890
1.5152,0.1955,39.2500,94,98,381893
1.6813,0.1906,39.4100,94,98,381897
1.7351,0.2297,39.3500,94,98,381900
1.5934,0.2590,39.4800,94,98,381903
1.4125,0.2395,39.4400,94,98,381907
1.4370,0.2151,39.3800,94,98,381911
1.5738,0.1711,39.4800,94,98,381914
1.8084,0.1955,39.2800,94,98,381918
1.8280,0.2395,39.4400,94,98,381921
1.6618,0.2590,39.4800,94,98,381924
1.5298,0.2542,39.3200,94,98,381927
1.5005,0.2004,39.4400,94,98,381931
1.7009,0.1711,39.3500,94,98,381934
1.8622,0.1955,39.4100,94,98,381937
1.8719,0.2444,39.5100,94,98,381941
1.7009,0.2639,38.4900,94,98,381944
1.5249,0.2395,39.4100,94,98,381947
1.5689,0.2053,39.2500,94,98,381952
1.7302,0.1711,39.3800,94,98,381955
1.9355,0.2004,39.4400,94,98,381958
1.9159,0.2590,39.3800,94,98,381962
1.7009,0.2639,39.4800,94,98,381965
1.5934,0.2444,39.2200,94,98,381968
1.5982,0.1857,39.3800,94,98,381972
1.7986,0.1760,39.5700,94,98,381975
1.9746,0.2102,39.4400,94,98,381978
1.9257,0.2493,39.3800,94,98,381981
1.7791,0.2688,39.2200,94,98,381985
1.6080,0.2346,39.4100,94,98,381988
1.6667,0.1857,39.4100,94,98,381991
1.8768,0.1760,39.4400,94,98,381996
2.0332,0.2102,39.4400,94,98,381999
1.9990,0.2639,39.6000,94,98,382002
1.8035,0.2493,39.4400,94,98,382006
1.6618,0.2297,39.3500,94,98,382009
1.7253,0.1857,39.4100,94,98,382012
1.9355,0.1711,39.5100,94,98,382016
2.0968,0.2248,39.3500,94,98,382019
1.9795,0.2542,39.4400,94,98,382022
1.7937,0.2590,39.3800,94,98,382025
1.6862,0.2248,39.4400,94,98,382029
1.7791,0.1808,39.4800,94,98,382032
2.0137,0.1515,39.3500,94,98,382035
2.1163,0.2199,39.5400,94,98,382040
2.0283,0.2639,39.2800,94,98,382043
1.7986,0.2542,38.7700,94,98,382046
1.7204,0.2199,39.4800,94,98,382050
1.8573,0.1760,39.3800,94,98,382053
2.0626,0.1760,39.4400,94,98,382056
2.2043,0.2297,39.3200,94,98,382060
2.0381,0.2737,39.3500,94,98,382063
1.8280,0.2542,39.4400,94,98,382066
1.7791,0.2151,39.4100,94,98,382070
1.9062,0.1760,39.4800,94,98,382073
2.1750,0.1955,39.1900,94,98,382076
2.1994,0.2346,39.4400,94,98,382080
2.0283,0.2835,39.4100,94,98,382084
1.8280,0.2542,39.4400,94,98,382087
1.7889,0.2102,39.4800,94,98,382090
1.9795,0.1857,39.3800,94,98,382094
2.1505,0.1906,39.4100,94,98,382097
2.1848,0.2639,39.3500,94,98,382100
1.9941,0.2590,39.4800,94,98,382104
1.7986,0.2395,39.5100,94,98,382107
1.7986,0.2151,39.3800,94,98,382110
1.9355,0.1711,39.4400,94,98,382114
2.1505,0.1955,39.3500,94,98,382117
2.1212,0.2444,39.4800,94,98,382120
1.9306,0.2590,39.3500,94,98,382124
1.7693,0.2590,39.3500,94,98,382128
1.7253,0.1906,39.4400,94,98,382131
1.9062,0.1711,39.3500,94,98,382134
2.0577,0.1955,39.4100,94,98,382138
2.0283,0.2444,39.5100,94,98,382141
1.8328,0.2639,39.3200,94,98,382144
1.6373,0.2590,39.5100,94,98,382148
1.6618,0.2297,39.2500,94,98,382151
1.8084,0.1760,39.4100,94,98,382154
1.9697,0.2102,39.4400,94,98,382158
1.9453,0.2590,39.4400,94,98,382161
1.7107,0.2590,39.4400,94,98,382164
1.5982,0.2444,39.1900,94,98,382168
1.5885,0.1906,39.3500,94,98,382172
1.7693,0.1613,39.7000,94,98,382175
1.9404,0.2151,39.4100,94,98,382178
1.8768,0.2493,39.5100,94,98,382182
1.7253,0.2737,39.2500,94,98,382185
1.5494,0.2297,39.4100,94,98,382188
1.6031,0.1857,39.3800,94,98,382192
1.7937,0.1760,39.5100,94,98,382195
1.9453,0.2199,39.4800,94,98,382198
1.9062,0.2639,39.3800,94,98,382202
1.6862,0.2590,39.4100,94,98,382205
1.5640,0.2346,39.3500,94,98,382209
1.6325,0.1857,39.0300,94,98,382213
1.8426,0.1711,39.7000,94,98,382216
1.9990,0.2102,39.3500,94,98,382219
1.8817,0.2590,39.5400,94,98,382222
1.7009,0.2639,39.3500,94,98,382226
1.5885,0.2102,39.4400,94,98,382229
1.6813,0.1808,39.4400,94,98,382232
1.9159,0.1711,39.3200,94,98,382236
2.0137,0.2199,39.6000,94,98,382239
1.9208,0.2884,39.2500,94,98,382242
1.6911,0.2542,39.4800,94,98,382246
1.6129,0.2199,39.5100,94,98,382249
1.7840,0.1857,39.3800,94,98,382253
1.9453,0.1515,39.4800,94,98,382257
2.0870,0.2395,39.1600,94,98,382260
1.9110,0.2493,39.3800,94,98,382263
1.7009,0.2542,39.4800,94,98,382266
1.6569,0.2297,39.3800,94,98,382270
1.7742,0.1760,39.4400,94,98,382273
2.0381,0.1955,39.2200,94,98,382276
2.0626,0.2444,39.2500,94,98,382280
1.8866,0.2542,39.4400,94,98,382283
1.6960,0.2493,39.5700,94,98,382286
1.6520,0.2102,39.5100,94,98,382290
1.8377,0.1857,39.3200,94,98,382294
2.0528,0.2004,39.4400,94,98,382297
2.1017,0.2444,39.3200,94,98,382301
1.8671,0.2639,39.6700,94,98,382304
1.6813,0.2444,39.4400,94,98,382307
1.6764,0.2102,39.3800,94,98,382311
1.8280,0.1760,39.4100,94,98,382314
2.0528,0.2053,39.3800,94,98,382317
2.0381,0.2444,39.4400,94,98,382320
1.8524,0.2590,39.4800,94,98,382324
1.7155,0.2542,39.3500,94,98,382327
1.6716,0.2004,39.5100,94,98,382330
1.8671,0.1711,39.2500,94,98,382334
2.0381,0.2346,39.3500,94,98,382338
2.0137,0.2493,39.4800,94,98,382341
1.8328,0.2688,39.3800,94,98,382345
1.6569,0.2395,39.4400,94,98,382348
1.7009,0.2053,39.2200,94,98,382351
1.8573,0.1662,39.4100,94,98,382355
2.0235,0.2053,39.1600,94,98,382358
2.0088,0.2542,39.4100,94,98,382361
1.7889,0.2542,39.4400,94,98,382364
1.6960,0.2444,39.3800,94,98,382368
1.7155,0.1955,39.1900,94,98,382371
1.9257,0.1613,39.4400,94,98,382374
2.0919,0.2151,39.4400,94,98,382379
2.0332,0.2542,39.4400,94,98,382382
1.8817,0.2737,39.3200,94,98,382385
1.7302,0.2395,39.3800,94,98,382389
1.8133,0.1955,39.3800,94,98,382392
2.0332,0.1760,39.4100,94,98,382395
2.1896,0.2151,39.4800,94,98,382399
2.1505,0.2639,39.2500,94,98,382402
1.9110,0.2590,39.4400,94,98,382405
1.8182,0.2346,39.3200,94,98,382409
1.8719,0.1955,39.4400,94,98,382412
2.1114,0.1760,39.4400,94,98,382415
2.2239,0.2248,39.3800,94,98,382418
2.0821,0.2933,39.4400,94,98,382423
1.8768,0.2590,39.3200,94,98,382426
1.7351,0.2297,39.4100,94,98,382429
1.8133,0.1808,39.6000,94,98,382433
2.0137,0.1808,39.2800,94,98,382436
2.0626,0.2248,39.5100,94,98,382439
1.9453,0.2590,39.2200,94,98,382443
1.6618,0.2542,39.4100,94,98,382446
1.5591,0.2248,39.4400,94,98,382449
1.6667,0.1857,39.4100,94,98,382453
1.5054,0.2102,39.4400,94,98,382457
1.6422,0.1711,39.4400,94,98,382461
1.8866,0.2004,39.3500,94,98,382465
1.9110,0.2835,39.4400,94,98,382468
1.7644,0.2639,39.3500,94,98,382472
1.5494,0.2493,39.4800,94,98,382475
1.5200,0.2199,39.4800,94,98,382478
1.6960,0.1760,39.3500,94,98,382481
1.8768,0.1955,39.4100,94,98,382485
1.9306,0.2493,39.3800,94,98,382488
1.7498,0.2639,39.5100,94,98,382491
1.6325,0.2444,39.4400,94,98,382495
1.7449,0.2053,39.3500,94,98,382498
2.0479,0.1711,39.4400,94,98,382501
2.4438,0.2004,39.3800,94,98,382505
2.5855,0.2493,39.4800,94,98,382509
2.5269,0.2639,39.4400,94,98,382512
2.4194,0.2493,39.3800,94,98,382516
2.3705,0.2004,39.4400,94,98,382519
2.4780,0.1515,39.2200,94,98,382522
2.4340,0.2102,39.3800,94,98,382525
2.1945,0.2542,39.5100,94,98,382529
1.8328,0.2688,39.4100,94,98,382532
1.5298,0.2346,39.4400,94,98,382535
1.4858,0.2053,39.1900,94,98,382539
1.5836,0.1760,39.3500,94,98,382542
1.7302,0.2053,39.4100,94,98,382545
1.7009,0.2639,39.4400,94,98,382550
1.5054,0.2590,39.4400,94,98,382553
1.4125,0.2493,39.3200,94,98,382556
1.4418,0.1955,39.3800,94,98,382560
1.6422,0.1808,39.3200,94,98,382563
1.7986,0.2151,39.4400,94,98,382566
1.7400,0.2542,39.2800,94,98,382569
1.5689,0.2737,39.4400,94,98,382573
1.4418,0.2297,39.4400,94,98,382576
1.5347,0.1906,39.3200,94,98,382579
1.7204,0.1760,39.4800,94,98,382583
1.8622,0.2151,39.4400,94,98,382586
1.8035,0.2688,39.4800,94,98,382589
1.5787,0.2590,39.4400,94,98,382594
1.5005,0.2297,39.2800,94,98,382597
1.5787,0.1857,39.3500,94,98,382600
1.7937,0.1760,39.4100,94,98,382604
1.9355,0.2346,39.3500,94,98,382607
1.8084,0.2590,39.5100,94,98,382610
1.6422,0.2688,39.2200,94,98,382614
1.5396,0.2346,39.4100,94,98,382617
1.6471,0.1808,39.4800,94,98,382620
1.8817,0.1906,39.4100,94,98,382623
1.9550,0.2297,39.4400,94,98,382627
1.8719,0.2737,39.3800,94,98,382630
1.6373,0.2590,39.4800,94,98,382633
1.5689,0.2346,39.4400,94,98,382638
1.7009,0.1857,39.4100,94,98,382641
1.9159,0.1857,39.4800,94,98,382644
2.0577,0.2542,38.9300,94,98,382648
1.8671,0.2639,39.4400,94,98,382651
1.6667,0.2542,39.3800,94,98,382654
1.6325,0.2151,39.4400,94,98,382658
1.7791,0.1760,39.4400,94,98,382661
2.0283,0.2004,39.3200,94,98,382664
2.0479,0.2590,39.4100,94,98,382668
1.8964,0.2737,39.4400,94,98,382671
1.6960,0.2493,39.4400,94,98,382674
1.6813,0.2102,39.4400,94,98,382678
1.8671,0.1857,39.3800,94,98,382682
2.0577,0.1955,39.4400,94,98,382685
2.1212,0.2493,39.3500,94,98,382688
1.9110,0.2542,39.4400,94,98,382692
1.7400,0.2444,39.4800,94,98,382695
1.7595,0.2102,39.3800,94,98,382698
1.9208,0.1711,39.5100,94,98,382702
2.1554,0.2297,39.2500,94,98,382705
2.1212,0.2542,39.7000,94,98,382708
1.9501,0.2590,39.4800,94,98,382712
1.8035,0.2444,39.4100,94,98,382715
1.8182,0.2248,39.4400,94,98,382718
2.0626,0.2102,39.1900,94,98,382722
2.2141,0.2151,39.3800,94,98,382726
2.1701,0.2493,39.4800,94,98,382729
1.9746,0.2884,39.4400,94,98,382732
1.8377,0.2395,39.4800,94,98,382736
1.9159,0.2151,39.2800,94,98,382739
2.0772,0.2248,39.3500,94,98,382742
2.2336,0.2151,39.3500,94,98,382746
2.1652,0.2590,39.4800,94,98,382749
1.9550,0.2639,39.4400,94,98,382752
1.8622,0.2493,39.3200,94,98,382756
1.8866,0.2004,39.4100,94,98,382759
2.0968,0.1808,39.3500,94,98,382763
2.2141,0.2199,39.4400,94,98,382766
2.1212,0.2639,39.4400,94,98,382770
1.9208,0.2688,39.5700,94,98,382773
1.7693,0.2639,39.5100,94,98,382776
1.8524,0.2151,39.3500,94,98,382780
2.0137,0.1808,39.4800,94,98,382783
2.1163,0.2248,39.4800,94,98,382786
2.0137,0.2688,39.3500,94,98,382790
1.7546,0.2639,39.5400,94,98,382793
1.6569,0.2346,39.4100,94,98,382796
1.7155,0.1955,39.3800,94,98,382800
1.9013,0.1857,39.4800,94,98,382803
2.0186,0.2395,39.5100,94,98,382807
1.8622,0.2639,39.4400,94,98,382811
1.6862,0.2688,39.2200,94,98,382814
1.5640,0.2199,39.3800,94,98,382817
1.6618,0.2102,39.4400,94,98,382820
1.8768,0.1955,39.4100,94,98,382824
1.9501,0.2444,39.4800,94,98,382827
1.8524,0.2835,39.1900,94,98,382830
1.6129,0.2688,39.3500,94,98,382834
1.5396,0.2199,39.7300,94,98,382837
1.6667,0.1857,39.4400,94,98,382840
1.8671,0.1906,39.4400,94,98,382844
1.9697,0.2542,38.5800,94,98,382848
1.7889,0.2737,39.4100,94,98,382851
1.6031,0.2542,39.2800,94,98,382855
1.5494,0.2248,39.4800,94,98,382858
1.7107,0.1711,39.4400,94,98,382861
1.9404,0.2053,39.3200,94,98,382865
1.9501,0.2542,39.4400,94,98,382868
1.8035,0.2786,39.3800,94,98,382871
1.5934,0.2444,39.5100,94,98,382874
1.5787,0.2102,39.4400,94,98,382878
1.7498,0.1760,39.3500,94,98,382881
1.9550,0.2004,39.4400,94,98,382884
1.9892,0.2297,39.3200,94,98,382888
1.7791,0.2688,39.4100,94,98,382892
1.6080,0.2444,39.5700,94,98,382895
1.6325,0.2199,39.3500,94,98,382899
1.7889,0.1662,39.4400,94,98,382902
2.0235,0.2248,39.2500,94,98,382905
1.9697,0.2542,39.7000,94,98,382909
1.7791,0.2639,39.4800,94,98,382912
1.6373,0.2297,39.4100,94,98,382915
1.6520,0.2004,39.5100,94,98,382919
1.8866,0.1906,39.1600,94,98,382922
2.0332,0.2444,39.3200,94,98,382925
1.9746,0.2493,39.4400,94,98,382928
1.7791,0.2639,39.4400,94,98,382932
1.6276,0.2395,39.5100,94,98,382936
1.7253,0.2053,39.3500,94,98,382939
1.8964,0.1906,39.4100,94,98,382943
2.0577,0.2199,39.3500,94,98,382946
1.9795,0.2639,39.4400,94,98,382949
1.7693,0.2688,39.4400,94,98,382953
1.6667,0.2444,39.3500,94,98,382956
1.7107,0.2004,39.4400,94,98,382959
1.9355,0.1857,39.3200,94,98,382963
2.0528,0.2199,39.4100,94,98,382966
1.9599,0.2639,39.4400,94,98,382969
1.7595,0.2639,39.3200,94,98,382972
1.6373,0.2346,39.4400,94,98,382977
1.7400,0.1955,39.3500,94,98,382980
1.9208,0.1857,39.4400,94,98,382983
2.0479,0.2248,39.4400,94,98,382987
1.9599,0.2981,39.3200,94,98,382990
1.7253,0.2639,39.4800,94,98,382993
1.6618,0.2395,39.2500,94,98,382997
1.7400,0.1955,39.3500,94,98,383000
1.9355,0.1760,39.4400,94,98,383003
2.0626,0.2395,39.6000,94,98,383007
1.9159,0.2639,39.5100,94,98,383010
1.7644,0.2688,39.1900,94,98,383013
1.6569,0.2199,39.3800,94,98,383017
1.7840,0.1857,39.4100,94,98,383021
2.0137,0.1906,39.4400,94,98,383024
2.1065,0.2444,39.4400,94,98,383027
2.0186,0.2884,39.2200,94,98,383031
1.7937,0.2688,39.3800,94,98,383034
1.7351,0.2199,39.3800,94,98,383037
1.8817,0.1857,39.5100,94,98,383041
2.1065,0.1955,39.4400,94,98,383044
2.2190,0.2493,39.3500,94,98,383047
2.0430,0.2688,39.3500,94,98,383051
1.8719,0.2639,39.3800,94,98,383054
1.8133,0.2199,39.4400,94,98,383057
1.9648,0.1808,39.5700,94,98,383062
2.1994,0.2102,39.2500,94,98,383065
1.9550,0.1906,39.3800,94,98,383070
2.0968,0.1906,39.4800,94,98,383073
2.1017,0.2639,39.2200,94,98,383076
1.8377,0.2737,39.4400,94,98,383079
1.6325,0.2444,39.4400,94,98,383083
1.6325,0.2151,39.3800,94,98,383086
1.7742,0.1711,39.4400,94,98,383089
1.9941,0.2248,39.2200,94,98,383093
1.9062,0.2590,39.3200,94,98,383096
1.6911,0.2639,39.4400,94,98,383099
1.5347,0.2590,39.4100,94,98,383104
1.5591,0.2004,39.4400,94,98,383107
1.7889,0.1906,39.2800,94,98,383110
1.9159,0.2248,39.4400,94,98,383114
1.8719,0.2590,39.3200,94,98,383117
1.6569,0.2688,39.5100,94,98,383120
1.5200,0.2737,39.5100,94,98,383124
1.6129,0.2102,39.2800,94,98,383127
1.7889,0.1808,39.4400,94,98,383130
1.9599,0.2102,39.3200,94,98,383133
1.8524,0.2639,38.6500,94,98,383137
1.6520,0.2590,39.4400,94,98,383140
1.5885,0.2395,39.3500,94,98,383143
1.7204,0.1955,39.4800,94,98,383148
2.0723,0.1857,39.3200,94,98,383151
2.3314,0.2248,39.3500,94,98,383154
2.4047,0.2590,39.4400,94,98,383158
2.3851,0.2688,39.2800,94,98,383161
2.3607,0.2444,39.4400,94,98,383164
2.5122,0.1955,39.2800,94,98,383168
2.5904,0.1857,39.4800,94,98,383171
2.5367,0.2297,39.4400,94,98,383174
2.2630,0.2933,39.4100,94,98,383177
1.8475,0.2590,39.3800,94,98,383181
1.6373,0.2493,39.1900,94,98,383184
1.5836,0.1906,39.3800,94,98,383187
1.6911,0.1760,39.4400,94,98,383192
1.7546,0.2395,39.4100,94,98,383195
1.6520,0.2688,39.4800,94,98,383198
1.4809,0.2786,39.2800,94,98,383202
1.3930,0.2346,39.4100,94,98,383205
1.5152,0.1906,39.4100,94,98,383208
1.7302,0.1955,39.4400,94,98,383212
1.8084,0.2395,39.4800,94,98,383215
1.7058,0.2786,39.2800,94,98,383218
1.5152,0.2590,39.4100,94,98,383221
1.4761,0.2248,39.3500,94,98,383225
1.6129,0.1808,39.4800,94,98,383228
1.8231,0.2248,39.4400,94,98,383232
1.8915,0.2444,39.3800,94,98,383236
1.7155,0.3079,39.4400,94,98,383239
1.5543,0.2590,39.3500,94,98,383242
1.5103,0.2151,39.4400,94,98,383246
1.6764,0.1857,39.4400,94,98,383249
1.9062,0.2102,39.4100,94,98,383252
1.9013,0.2493,39.4800,94,98,383256
1.7693,0.2737,39.2800,94,98,383259
1.5689,0.2493,39.3800,94,98,383262
1.5689,0.2151,39.4400,94,98,383266
1.7693,0.1857,39.3800,94,98,383269
1.9453,0.2102,39.4400,94,98,383272
1.9844,0.2981,39.1600,94,98,383277
1.7498,0.2688,39.3500,94,98,383280
1.5934,0.2395,39.4400,94,98,383283
1.6276,0.2053,39.4400,94,98,383286
1.8084,0.1808,39.4400,94,98,383290
2.0479,0.2297,39.2500,94,98,383293
1.9746,0.2688,39.3500,94,98,383296
1.7693,0.2590,39.3800,94,98,383300
1.6276,0.2444,39.5100,94,98,383303
1.6862,0.1955,39.4800,94,98,383306
1.9159,0.1906,39.3800,94,98,383310
2.0479,0.2199,39.4400,94,98,383313
2.0137,0.2639,39.2500,94,98,383316
1.7742,0.2688,39.4800,94,98,383321
1.6618,0.2395,39.4400,94,98,383324
1.7595,0.2053,39.3500,94,98,383327
1.9501,0.1808,39.4800,94,98,383331
2.1261,0.2297,39.3500,94,98,383334
2.0088,0.2590,39.4100,94,98,383337
1.8084,0.2639,39.4800,94,98,383340
1.7204,0.2395,39.6000,94,98,383344
1.7986,0.1906,39.4100,94,98,383347
2.0479,0.1857,39.3800,94,98,383350
2.1554,0.2542,39.3800,94,98,383354
2.0577,0.2639,39.4800,94,98,383357
1.8768,0.2737,39.3800,94,98,383361
1.7644,0.2346,39.4800,94,98,383365
1.9110,0.1955,39.1900,94,98,383368
2.0919,0.1808,39.4100,94,98,383371
2.2043,0.2297,39.5400,94,98,383375
2.0919,0.2737,39.4400,94,98,383378
1.8817,0.2590,39.0900,94,98,383381
1.8622,0.2444,39.1600,94,98,383384
1.9501,0.1955,39.4100,94,98,383388
2.1457,0.1857,39.4400,94,98,383391
2.2336,0.2395,39.4800,94,98,383394
2.0870,0.2737,39.4800,94,98,383398
1.9257,0.2688,39.2800,94,98,383401
1.8328,0.2297,39.1200,94,98,383405
1.9697,0.1906,39.3800,94,98,383409
2.1603,0.1955,39.4100,94,98,383412
2.2092,0.2444,39.4400,94,98,383415
2.0674,0.2786,39.3200,94,98,383419
1.8622,0.2590,39.4100,94,98,383422
1.8182,0.2248,39.3500,94,98,383425
1.9013,0.1808,39.4800,94,98,383428
2.0821,0.1955,39.4400,94,98,383432
2.1065,0.2444,39.3500,94,98,383435
1.8915,0.2737,39.4400,94,98,383438
1.7107,0.2542,38.6200,94,98,383442
1.6520,0.2151,39.4400,94,98,383446
1.7937,0.1711,39.4800,94,98,383449
1.9941,0.2102,39.2500,94,98,383453
1.9746,0.2493,39.4100,94,98,383456
1.7937,0.2786,39.0000,94,98,383459
1.5934,0.2542,39.3800,94,98,383463
1.5738,0.2053,39.4400,94,98,383466
1.7351,0.1857,39.4100,94,98,383469
1.9110,0.2102,39.4400,94,98,383472
1.9404,0.2688,39.1900,94,98,383476
1.7009,0.2688,39.3200,94,98,383479
1.5298,0.2395,39.4100,94,98,383482
1.5591,0.2004,39.4100,94,98,383486
1.7400,0.1808,39.5700,94,98,383490
1.9697,0.2395,39.2800,94,98,383493
1.9062,0.2688,39.3500,94,98,383497
1.6911,0.2737,39.3800,94,98,383500
1.5396,0.2395,39.5400,94,98,383503
1.5787,0.2053,39.4400,94,98,383507
1.7986,0.2004,39.3800,94,98,383510
1.9453,0.2199,39.4100,94,98,383513
1.9110,0.2639,39.2500,94,98,383516
1.6813,0.2542,39.4400,94,98,383520
1.5591,0.2297,39.4400,94,98,383523
1.6569,0.2053,39.4100,94,98,383526
1.8377,0.1808,39.4400,94,98,383531
2.0137,0.2248,39.3200,94,98,383534
1.9062,0.2590,39.4100,94,98,383537
1.7009,0.2639,39.4800,94,98,383541
1.6080,0.2395,39.3500,94,98,383544
1.6764,0.1906,39.4800,94,98,383547
1.9159,0.1857,39.2500,94,98,383551
2.0235,0.2248,39.4100,94,98,383554
1.9159,0.2493,39.4800,94,98,383557
1.7302,0.2737,39.3500,94,98,383561
1.6325,0.2346,39.4800,94,98,383564
1.7595,0.1906,39.2200,94,98,383567
1.9355,0.1808,39.4100,94,98,383570
2.0381,0.2297,39.5100,94,98,383575
1.9257,0.2493,39.4400,94,98,383578
1.7107,0.2933,39.5100,94,98,383581
1.6862,0.2444,39.2500,94,98,383585
1.7742,0.1906,39.5400,94,98,383588
1.9795,0.1857,39.3800,94,98,383591
2.0674,0.2395,39.4400,94,98,383595
1.9110,0.2639,39.5400,94,98,383598
1.7449,0.2737,39.2800,94,98,383601
1.6716,0.2248,39.4100,94,98,383605
1.8133,0.1857,39.3200,94,98,383608
1.9990,0.1906,39.4100,94,98,383611
2.0528,0.2297,39.4800,94,98,383616
1.9110,0.2786,39.2800,94,98,383619
1.6960,0.2493,39.5100,94,98,383622
1.6862,0.2248,39.3500,94,98,383625
1.8084,0.1711,39.4100,94,98,383629
2.0186,0.1906,39.4800,94,98,383632
2.0674,0.2493,39.3500,94,98,383635
1.8719,0.2835,39.4400,94,98,383639
1.7107,0.2542,39.3500,94,98,383642
1.6667,0.2102,39.5400,94,98,383645
1.8426,0.1760,39.4100,94,98,383649
2.0577,0.1906,39.3800,94,98,383652
2.0283,0.2493,39.4100,94,98,383655
1.8768,0.2786,39.2200,94,98,383660
1.6813,0.2493,39.4800,94,98,383663
1.6667,0.2004,39.5400,94,98,383666
1.8573,0.2004,39.4100,94,98,383669
2.0332,0.2199,39.4100,94,98,383673
2.0919,0.2737,39.1900,94,98,383676
2.1359,0.2444,39.3800,94,98,383681
2.0772,0.2590,39.4100,94,98,383684
1.8964,0.2688,39.3200,94,98,383687
1.7498,0.2639,39.4400,94,98,383691
1.8280,0.1906,39.4800,94,98,383694
2.0674,0.1760,39.3500,94,98,383697
2.2141,0.2199,39.4400,94,98,383702
2.1750,0.2590,39.3200,94,98,383705
1.9355,0.2639,39.5400,94,98,383708
1.8182,0.2444,39.4400,94,98,383712
1.9208,0.2004,39.3500,94,98,383715
2.1017,0.1808,39.4400,94,98,383718
2.2581,0.2248,39.2500,94,98,383722
2.1163,0.2786,39.3800,94,98,383725
1.8768,0.2639,39.4800,94,98,383728
1.7644,0.2639,39.4100,94,98,383731
1.8084,0.1857,39.4400,94,98,383735
2.0332,0.1955,39.1900,94,98,383738
2.0626,0.2297,39.3800,94,98,383741
1.9013,0.2590,39.4400,94,98,383746
1.6813,0.2639,39.4100,94,98,383749
1.5640,0.2248,39.4400,94,98,383752
1.7058,0.2004,39.2800,94,98,383756
1.8719,0.1906,39.3800,94,98,383759
1.9404,0.2346,39.4100,94,98,383762
1.7889,0.2639,39.5100,94,98,383766
1.5787,0.2542,39.4400,94,98,383769
1.5445,0.2297,39.4400,94,98,383772
1.6520,0.1808,39.3800,94,98,383776
1.8719,0.1857,39.3200,94,98,383779
1.9208,0.2297,39.4400,94,98,383782
1.7644,0.2639,39.5100,94,98,383785
1.6031,0.2590,39.3200,94,98,383790
1.5347,0.2151,39.4400,94,98,383793
1.6960,0.1808,39.4800,94,98,383796
1.8719,0.1906,39.4400,94,98,383800
1.9306,0.2395,39.5100,94,98,383803
1.8182,0.2688,39.4100,94,98,383806
1.7058,0.2835,39.4400,94,98,383810
1.8475,0.2151,39.2500,94,98,383813
2.1505,0.1711,39.4100,94,98,383816
2.5024,0.1906,39.4400,94,98,383820
2.6784,0.2542,39.4100,94,98,383823
2.5171,0.2639,39.5100,94,98,383826
2.3607,0.2542,39.1900,94,98,383830
2.1896,0.2053,39.3800,94,98,383834
2.1896,0.1711,39.4800,94,98,383837
2.2141,0.2004,39.4400,94,98,383840
2.0235,0.2493,39.4100,94,98,383844
1.7546,0.2786,39.2200,94,98,383847
1.4565,0.2444,39.3800,94,98,383850
1.3881,0.1955,39.3800,94,98,383854
1.5445,0.1711,39.4400,94,98,383857
1.7204,0.2053,39.4400,94,98,383860
1.7498,0.2639,39.2800,94,98,383864
1.5396,0.2737,39.4100,94,98,383867
1.4174,0.2395,39.4100,94,98,383870
1.4614,0.1955,39.4400,94,98,383875
1.6667,0.1760,39.5100,94,98,383878
1.8671,0.2199,39.3800,94,98,383881
1.8133,0.2639,39.4400,94,98,383884
1.6422,0.2688,39.3800,94,98,383888
1.4956,0.2346,39.7300,94,98,383891
1.5591,0.1906,39.5700,94,98,383894
1.7742,0.1662,39.3500,94,98,383898
1.9208,0.2102,39.4400,94,98,383901
1.8622,0.2590,39.3200,94,98,383904
1.6373,0.2590,39.4400,94,98,383908
1.5298,0.2297,39.2500,94,98,383911
1.6227,0.1955,39.4100,94,98,383915
1.8182,0.1711,39.4400,94,98,383919
1.9990,0.2346,39.2200,94,98,383922
1.8719,0.2639,39.3500,94,98,383925
1.6520,0.2590,39.4400,94,98,383929
1.5738,0.2297,39.2500,94,98,383932
1.6667,0.1808,39.4400,94,98,383935
1.9306,0.1906,39.3200,94,98,383938
2.0137,0.2297,39.3500,94,98,383942
1.8817,0.2542,39.4100,94,98,383945
1.6911,0.2688,39.4400,94,98,383948
1.6129,0.2248,39.5100,94,98,383952
1.7742,0.1906,39.6000,94,98,383955
1.9648,0.1857,39.5100,94,98,383959
2.0528,0.2297,39.3500,94,98,383963
1.8964,0.2590,39.4400,94,98,383966
1.7009,0.2542,39.4400,94,98,383969
1.6716,0.2248,39.3800,94,98,383973
1.7937,0.1760,39.4400,94,98,383976
2.0332,0.1906,39.4100,94,98,383979
2.0674,0.2542,39.4400,94,98,383982
1.9159,0.2590,39.4400,94,98,383986
1.7546,0.2590,39.3500,94,98,383989
1.6960,0.2102,39.4400,94,98,383992
1.8915,0.1808,39.2800,94,98,383996
2.0674,0.1906,39.3800,94,98,384000
2.1114,0.2395,39.4400,94,98,384003
1.9599,0.2884,39.3200,94,98,384007
1.7595,0.2444,39.4400,94,98,384010
1.7742,0.2053,39.2500,94,98,384013
1.9306,0.1760,39.4100,94,98,384017
2.1310,0.1955,39.5400,94,98,384020
2.1701,0.2542,39.4100,94,98,384023
1.9648,0.2590,39.4800,94,98,384026
1.8377,0.2493,39.1900,94,98,384030
1.8133,0.2004,39.3800,94,98,384033
1.9795,0.1662,39.4400,94,98,384036
2.1799,0.2053,39.2500,94,98,384040
2.1750,0.2493,39.4400,94,98,384044
2.0283,0.2786,39.2500,94,98,384047
1.8231,0.2590,39.4100,94,98,384051
1.8426,0.2004,39.3800,94,98,384054
2.0235,0.1711,39.4400,94,98,384057
2.1945,0.2053,39.4400,94,98,384061
2.1945,0.2590,39.4100,94,98,384064
1.9599,0.2590,39.4400,94,98,384067
1.8133,0.2395,39.3200,94,98,384070
1.8280,0.1906,39.6000,94,98,384074
2.0186,0.1711,39.4800,94,98,384077
2.1945,0.2199,39.3800,94,98,384080
2.1457,0.2542,39.4400,94,98,384084
1.9110,0.2688,39.4400,94,98,384088
1.7302,0.2493,39.4400,94,98,384091
1.7791,0.1906,39.4400,94,98,384095
1.9746,0.1760,39.3800,94,98,384098
2.0870,0.2151,39.4800,94,98,384101
2.0186,0.2542,39.2200,94,98,384105
1.7595,0.2590,39.4400,94,98,384108
1.6325,0.2297,39.4800,94,98,384111
1.7058,0.2053,39.3800,94,98,384114
1.8768,0.1808,39.4400,94,98,384118
2.0381,0.2248,39.2500,94,98,384121
1.8964,0.2590,39.2800,94,98,384124
1.6618,0.2542,39.4400,94,98,384129
1.5591,0.2297,39.4400,94,98,384132
1.6325,0.2199,39.4800,94,98,384135
1.8817,0.2004,39.1900,94,98,384139
1.9550,0.2248,39.3500,94,98,384142
1.8182,0.2542,39.3500,94,98,384145
1.6227,0.2542,39.4800,94,98,384149
1.5347,0.2199,39.4800,94,98,384152
1.6911,0.1906,39.3200,94,98,384155
1.8817,0.2199,39.4100,94,98,384159
1.9746,0.2346,39.3500,94,98,384162
1.8231,0.2590,39.4800,94,98,384165
1.6227,0.2493,39.4800,94,98,384168
1.5885,0.2248,39.4100,94,98,384173
1.7058,0.1760,39.4100,94,98,384176
1.9306,0.1857,39.3200,94,98,384179
1.9746,0.2395,39.4800,94,98,384183
1.8231,0.2590,39.4800,94,98,384186
1.6618,0.2688,39.3500,94,98,384189
1.5982,0.2102,39.4400,94,98,384193
1.7644,0.1711,39.3200,94,98,384196
1.9550,0.1857,39.3800,94,98,384199
1.9941,0.2395,39.5100,94,98,384203
1.8426,0.2688,39.1900,94,98,384206
1.6422,0.2493,39.4400,94,98,384209
1.6569,0.2102,39.2200,94,98,384212
1.7889,0.1711,39.4100,94,98,384217
1.9844,0.1955,39.4800,94,98,384220
2.0235,0.2444,39.4400,94,98,384223
1.8231,0.2590,39.3800,94,98,384227
1.6911,0.2688,39.1900,94,98,384230
1.6618,0.2004,39.3500,94,98,384233
1.8280,0.1662,39.4400,94,98,384237
2.0332,0.2053,39.4400,94,98,384240
2.0088,0.2786,39.4800,94,98,384243
1.8719,0.2688,39.3200,94,98,384247
1.6764,0.2444,39.3800,94,98,384250
1.6862,0.1955,39.3500,94,98,384253
1.8622,0.1711,39.4100,94,98,384258
2.0332,0.2053,39.4400,94,98,384261
2.0332,0.2590,39.2500,94,98,384264
1.7986,0.2590,39.4400,94,98,384267
1.6569,0.2346,39.3500,94,98,384271
1.6813,0.1906,39.4400,94,98,384274
1.8719,0.1711,39.5100,94,98,384277
2.1017,0.2151,39.3800,94,98,384281
1.9844,0.2493,39.4800,94,98,384284
1.8280,0.2542,39.3200,94,98,384287
1.6373,0.2297,39.2500,93,98,384291
1.7351,0.2786,39.5100,93,98,384295
1.6569,0.2248,39.4800,93,98,384300
1.7253,0.1857,39.4100,93,98,384303
1.9306,0.1711,39.4400,93,98,384306
2.1114,0.2786,39.1600,93,98,384309
1.9697,0.2542,39.3500,93,98,384313
1.7546,0.2737,39.4100,93,98,384316
1.6764,0.2248,39.4100,93,98,384319
1.7840,0.1760,39.4800,93,98,384323
2.0577,0.1857,39.2500,93,98,384326
2.1408,0.2297,39.3800,93,98,384329
2.0137,0.2493,39.3800,93,98,384333
1.8133,0.2493,39.6400,93,98,384336
1.7595,0.2102,39.4400,93,98,384339
1.9306,0.1808,39.3200,93,98,384344
2.1359,0.1808,39.4100,93,98,384347
2.2385,0.2297,39.3200,93,98,384350
2.0674,0.2542,39.5100,93,98,384353
1.8671,0.2444,39.4800,93,98,384357
1.8182,0.2053,39.4800,93,98,384360
1.9453,0.1711,39.4100,93,98,384363
2.1799,0.1808,39.3800,93,98,384367
2.1896,0.2297,39.4400,93,98,384370
2.0137,0.2542,39.4100,93,98,384373
1.8231,0.2590,39.3800,93,98,384377
1.7351,0.2053,39.4400,93,98,384380
1.8768,0.1711,39.2200,93,98,384384
2.0235,0.1857,39.3500,93,98,384388
2.0088,0.2346,39.4400,93,98,384391
1.8231,0.2639,39.3200,93,98,384394
1.5982,0.2395,39.4800,93,98,384398
1.6031,0.1906,39.1900,93,98,384401
1.7155,0.1662,39.4800,93,98,384404
1.8915,0.1906,39.4800,93,98,384407
1.9062,0.2444,39.4100,93,98,384411
1.7058,0.2542,39.4400,93,98,384414
1.5738,0.2542,39.2200,93,98,384417
1.5689,0.2004,39.3500,93,98,384421
1.7107,0.1662,39.4100,93,98,384424
1.9013,0.1955,39.4400,93,98,384428
1.8866,0.2444,39.4800,93,98,384432
1.7253,0.2688,39.3800,93,98,384435
1.5445,0.2346,39.4100,93,98,384438
1.5689,0.1955,39.3500,93,98,384442
1.7351,0.1662,39.4800,93,98,384445
1.9110,0.2004,39.5700,93,98,384448
1.9306,0.2542,39.4100,93,98,384451
1.7644,0.2542,39.4400,93,98,384455
1.7546,0.2395,39.3500,93,98,384458
1.9306,0.1760,39.4100,93,98,384461
2.2874,0.1613,39.4800,93,98,384465
2.6295,0.2102,39.3200,93,98,384468
2.6393,0.2444,39.4800,93,98,384472
2.4780,0.2493,39.2800,93,98,384476
2.2190,0.2248,39.3500,93,98,384479
2.1261,0.1808,39.4400,93,98,384482
2.1701,0.1808,39.7300,93,98,384486
2.1212,0.2102,39.4100,93,98,384489
1.9453,0.2542,39.2200,93,98,384492
1.5934,0.2542,39.3800,93,98,384495
1.4370,0.2248,39.4800,93,98,384499
1.4223,0.1857,39.4100,93,98,384502
1.5982,0.1711,39.4400,93,98,384505
1.7791,0.2199,39.1900,93,98,384509
1.6667,0.2542,39.3800,93,98,384513
1.4663,0.2444,39.4100,93,98,384516
1.3930,0.2199,39.3200,93,98,384520
1.5054,0.1760,39.2800,93,98,384523
1.7693,0.1808,39.2800,93,98,384526
1.8915,0.2248,39.4400,93,98,384530
1.7498,0.2542,39.4100,93,98,384533
1.5591,0.2542,39.4400,93,98,384536
1.4858,0.1906,39.4400,93,98,384540
1.6373,0.1808,39.4400,93,98,384543
1.8328,0.1760,39.4400,93,98,384546
1.9404,0.2297,39.2800,93,98,384549
1.7791,0.2542,39.4800,93,98,384553
1.5885,0.2542,39.4400,93,98,384557
1.5445,0.1906,39.3800,93,98,384560
1.6764,0.1711,39.4800,93,98,384564
1.9110,0.1808,39.3200,93,98,384567
1.9648,0.2297,39.4400,93,98,384570
1.7986,0.2542,39.5100,93,98,384574
1.6276,0.2542,39.3800,93,98,384577
1.5787,0.2053,39.5100,93,98,384580
1.7791,0.1711,39.7000,93,98,384584
1.9697,0.1906,39.3800,93,98,384587
1.9892,0.2444,39.4800,93,98,384590
1.8328,0.2639,39.4400,93,98,384594
1.6667,0.2346,39.4800,93,98,384598
1.6813,0.2151,39.1600,93,98,384601
1.8231,0.1662,39.3500,93,98,384605
2.0088,0.1857,39.4400,93,98,384608
2.0137,0.2444,39.4800,93,98,384611
1.8182,0.2590,39.4400,93,98,384614
1.7302,0.2493,39.3200,93,98,384618
1.6911,0.2004,39.4100,93,98,384621
1.8719,0.1662,39.3500,93,98,384624
2.0430,0.2004,39.3500,93,98,384628
2.0283,0.2444,39.4400,93,98,384631
1.8622,0.2639,39.4100,93,98,384634
1.6911,0.2639,39.4400,93,98,384638
1.7644,0.1955,39.3200,93,98,384642
1.9257,0.1662,39.4800,93,98,384645
2.0968,0.2004,39.4800,93,98,384649
2.0919,0.2590,39.3800,93,98,384652
1.8817,0.2493,39.4400,93,98,384655
1.7498,0.2346,39.3500,93,98,384658
1.7840,0.2102,39.3800,93,98,384662
1.9892,0.1662,39.5100,93,98,384665
2.1750,0.2102,39.3200,93,98,384668
2.0919,0.2493,39.5400,93,98,384672
1.9257,0.2933,39.2500,93,98,384675
1.7791,0.2297,39.6000,93,98,384678
1.8475,0.1808,39.5100,93,98,384683
2.0772,0.1760,39.4400,93,98,384686
2.1896,0.2102,39.4800,93,98,384689
2.1554,0.2639,39.1900,93,98,384693
1.8964,0.2542,39.3800,93,98,384696
1.7840,0.2248,39.4800,93,98,384699
1.8719,0.1857,39.4400,93,98,384702
2.0772,0.1662,39.4800,93,98,384706
2.2532,0.2297,39.4800,93,98,384709
2.0870,0.2493,39.4400,93,98,384712
1.8719,0.2493,39.4100,93,98,384716
1.7791,0.2199,39.4400,93,98,384719
1.8671,0.1711,39.4400,93,98,384722
2.1114,0.1808,39.2800,93,98,384727
2.1652,0.2248,39.3800,93,98,384730
2.0430,0.2493,39.3500,93,98,384733
1.7889,0.2493,39.4800,93,98,384737
1.7009,0.2151,39.5100,93,98,384740
1.8280,0.1808,39.3800,93,98,384743
1.9990,0.1857,39.4400,93,98,384746
2.0821,0.2346,39.3500,93,98,384750
1.8866,0.2542,39.4400,93,98,384753
1.6764,0.2395,39.4800,93,98,384756
1.6227,0.2102,39.3800,93,98,384760
1.7253,0.1711,39.4800,93,98,384763
1.9501,0.1857,39.2500,93,98,384766
1.9648,0.2297,39.4800,93,98,384771
1.7889,0.2639,39.4400,93,98,384774
1.6031,0.2493,39.4800,93,98,384777
1.5445,0.2248,39.4400,93,98,384781
1.7644,0.1760,39.2800,93,98,384784
1.9062,0.2004,39.3800,93,98,384787
1.9208,0.2346,39.4800,93,98,384791
1.7449,0.2590,39.4400,93,98,384794
1.5591,0.2395,39.4400,93,98,384797
1.5885,0.2199,39.2500,93,98,384800
1.7302,0.1760,39.3800,93,98,384804
1.9110,0.1906,39.3200,93,98,384807
1.9404,0.2395,39.4400,93,98,384811
1.7253,0.2590,39.4400,93,98,384815
1.5934,0.2444,39.3200,93,98,384818
1.5836,0.2004,39.4400,93,98,384821
1.7644,0.1711,39.3500,93,98,384825
1.9404,0.2004,39.4400,93,98,384828
1.9208,0.2444,39.4100,93,98,384831
1.7546,0.2493,39.4400,93,98,384835
1.5787,0.2346,39.2800,93,98,384838
1.6373,0.2004,39.2800,93,98,384841
1.7986,0.1906,39.5100,93,98,384844
1.9795,0.2199,39.4400,93,98,384848
1.9697,0.2542,39.3500,93,98,384851
1.7693,0.2590,39.4400,93,98,384855
1.6178,0.2297,39.2800,93,98,384859
1.6569,0.1857,39.3500,93,98,384862
1.8524,0.1711,39.5100,93,98,384865
2.0381,0.2248,39.3800,93,98,384869
1.9453,0.2493,39.5400,93,98,384872
1.7791,0.2639,39.2200,93,98,384875
1.6276,0.2297,39.3500,93,98,384879
1.6911,0.1857,39.7000,93,98,384882
1.9208,0.1808,39.3800,93,98,384885
2.0381,0.2102,39.4800,93,98,384888
2.0088,0.2639,39.1200,93,98,384892
1.7595,0.2542,39.3500,93,98,384896
1.6422,0.2248,39.1900,93,98,384899
1.7302,0.1808,39.4400,93,98,384903
1.6373,0.2199,39.4400,93,98,384907
1.7449,0.1760,39.5100,93,98,384911
1.9844,0.1857,39.2800,93,98,384914
2.0528,0.2102,39.4400,93,98,384917
1.9306,0.2639,39.3800,93,98,384921
1.7009,0.2444,39.4100,93,98,384924
1.6373,0.2151,39.4400,93,98,384927
1.7791,0.1808,39.3500,93,98,384931
1.9648,0.1808,39.4800,93,98,384934
2.0626,0.2346,38.9300,93,98,384937
1.8817,0.2493,39.4100,93,98,384942
1.6813,0.2493,39.5100,93,98,384945
1.6569,0.2248,39.3500,93,98,384948
1.7889,0.1711,39.4400,93,98,384951
2.0479,0.1955,39.2200,93,98,384955
2.0626,0.2297,39.3200,93,98,384958
1.9062,0.2639,39.4400,93,98,384961
1.7400,0.2493,39.4100,93,98,384965
1.7155,0.2053,39.5700,93,98,384968
1.9306,0.1808,39.5400,93,98,384971
2.1114,0.1955,39.3800,93,98,384975
2.1310,0.2493,39.4100,93,98,384978
1.9746,0.2639,38.5800,93,98,384982
1.8084,0.2395,39.4800,93,98,384985
1.8719,0.2297,39.2500,93,98,384989
2.0235,0.1760,39.4100,93,98,384992
2.2092,0.1955,39.3800,93,98,384995
2.1896,0.2493,39.4400,93,98,384999
1.9892,0.2835,39.4400,93,98,385002
1.8475,0.2297,39.3500,93,98,385005
1.8328,0.2004,39.3500,93,98,385009
2.0088,0.1711,39.4400,93,98,385012
2.1457,0.2004,39.5100,93,98,385015
2.1017,0.2395,39.4800,93,98,385019
1.8866,0.2590,39.3800,93,98,385022
1.6862,0.2444,39.4400,93,98,385026
1.7009,0.2053,39.3200,93,98,385029
1.8328,0.1711,39.4800,93,98,385033
1.9795,0.2053,39.4400,93,98,385036
1.9306,0.2688,39.3800,93,98,385039
1.6862,0.2590,39.4400,93,98,385043
1.5591,0.2346,39.2500,93,98,385046
1.5885,0.1955,39.5100,93,98,385049
1.7644,0.1760,39.4800,93,98,385053
1.9355,0.2199,39.4100,93,98,385056
1.8426,0.2444,39.4400,93,98,385059
1.6764,0.2688,39.1900,93,98,385063
1.5200,0.2346,39.3500,93,98,385067
1.5885,0.1857,39.4400,93,98,385070
1.8035,0.1760,39.4400,93,98,385074
1.9355,0.2102,39.4400,93,98,385077
1.8964,0.2688,39.2500,93,98,385080
1.6471,0.2688,39.3800,93,98,385083
1.5249,0.2248,39.3800,93,98,385087
1.6129,0.1808,39.4400,93,98,385090
1.8964,0.1711,39.4800,93,98,385093
2.1065,0.2297,39.3500,93,98,385097
2.1017,0.2542,39.4100,93,98,385100
2.1065,0.2542,39.3500,93,98,385103
2.1603,0.2248,39.4800,93,98,385107
2.4096,0.1760,39.4100,93,98,385111
2.7273,0.1857,39.2800,93,98,385114
2.7517,0.2199,39.4800,93,98,385118
2.5513,0.2688,39.3500,93,98,385121
2.1505,0.2884,39.4100,93,98,385124
1.9062,0.2151,39.4800,93,98,385127
1.8475,0.1808,39.3500,93,98,385131
1.8817,0.1760,39.5700,93,98,385134
1.8573,0.2346,39.5400,93,98,385137
1.6276,0.2590,39.4400,93,98,385141
1.4174,0.2493,39.7000,93,98,385144
1.4027,0.2199,39.3500,93,98,385147
1.5103,0.1711,39.4400,93,98,385152
1.7546,0.1955,39.2200,93,98,385155
1.7693,0.2346,39.3800,93,98,385158
1.6227,0.2590,39.4400,93,98,385162
1.4565,0.2493,39.3800,93,98,385165
1.4272,0.2053,39.5100,93,98,385168
1.6422,0.1857,39.1900,93,98,385172
1.8035,0.1955,39.4400,93,98,385175
1.8328,0.2346,39.5100,93,98,385178
1.6667,0.2639,39.4400,93,98,385181
1.4907,0.2444,39.3800,93,98,385185
1.5249,0.2151,39.2500,93,98,385188
1.6764,0.1760,39.3800,93,98,385191
1.8768,0.2004,39.3500,93,98,385196
1.8671,0.2493,39.4400,93,98,385199
1.7058,0.2639,39.4400,93,98,385202
1.5494,0.2493,39.3200,93,98,385206
1.5494,0.2102,39.4800,93,98,385209
1.7546,0.1808,39.3200,93,98,385212
1.9404,0.2004,39.4800,93,98,385216
1.9013,0.2493,39.4800,93,98,385219
1.7155,0.2639,39.3200,93,98,385222
1.5640,0.2346,39.4800,93,98,385225
1.6227,0.1906,39.3200,93,98,385229
1.7937,0.2004,39.5100,93,98,385232
1.9697,0.2151,39.4800,93,98,385235
1.9453,0.2590,39.3800,93,98,385240
1.7302,0.2590,39.4800,93,98,385243
1.6276,0.2395,39.2500,93,98,385246
1.6667,0.1955,39.3500,93,98,385250
1.8573,0.1760,39.5100,93,98,385253
2.0283,0.2102,39.4100,93,98,385256
1.9404,0.2542,39.4800,93,98,385260
1.7840,0.2786,39.1900,93,98,385263
1.6373,0.2346,39.3500,93,98,385266
1.7107,0.1857,39.5100,93,98,385270
1.9306,0.1808,39.4400,93,98,385273
2.0626,0.2199,39.4400,93,98,385276
2.0332,0.2688,39.2800,93,98,385280
1.7937,0.2688,39.3800,93,98,385284
1.6813,0.2346,39.3800,93,98,385287
1.7693,0.1808,39.4400,93,98,385290
1.9941,0.1760,39.5100,93,98,385294
2.1457,0.2297,39.3500,93,98,385297
2.0137,0.2590,39.4400,93,98,385300
1.8231,0.2590,39.3200,93,98,385304
1.7204,0.2199,39.4400,93,98,385307
1.8719,0.1808,39.4400,93,98,385310
2.1065,0.1906,39.3500,93,98,385314
2.1750,0.2346,39.4800,93,98,385317
2.0723,0.2688,39.3500,93,98,385320
1.8475,0.2542,39.4100,93,98,385324
1.7889,0.2199,39.4400,93,98,385328
1.9453,0.2102,39.3200,93,98,385331
2.1408,0.1857,39.4400,93,98,385334
2.2483,0.2346,39.2500,93,98,385338
2.0674,0.2590,39.4100,93,98,385341
1.8573,0.2835,39.4100,93,98,385344
1.8377,0.2199,39.3800,93,98,385348
1.9501,0.1711,38.8400,93,98,385351
2.2092,0.1955,39.1600,93,98,385354
2.2092,0.2346,39.3800,93,98,385358
2.0332,0.2590,39.4800,93,98,385361
1.8328,0.2444,39.4400,93,98,385364
1.7889,0.2053,39.4800,93,98,385368
1.9941,0.1906,39.3800,93,98,385372
2.1310,0.2004,39.4400,93,98,385375
2.1261,0.2395,39.3500,93,98,385378
1.9257,0.2639,39.4400,93,98,385382
1.7155,0.2737,39.4400,93,98,385385
1.7204,0.1906,39.2800,93,98,385388
1.8475,0.1760,39.4400,93,98,385392
2.0283,0.2004,39.3500,93,98,385395
1.9844,0.2493,39.4800,93,98,385398
1.7693,0.2493,39.4400,93,98,385402
1.6080,0.2493,39.3500,93,98,385405
1.5885,0.2297,39.4100,93,98,385409
1.7791,0.1808,39.3500,93,98,385413
1.9208,0.2151,39.4400,93,98,385416
1.8915,0.2493,39.4800,93,98,385419
1.6960,0.2639,39.3500,93,98,385422
1.5249,0.2346,39.4400,93,98,385426
1.5787,0.1955,39.2800,93,98,385429
