ecg,gsr,temp,hr,spo2,timest
3.8465,0.2199,38.6200,99,99,135102
3.5973,0.2102,38.6800,99,99,135106
3.2356,0.2297,38.9600,99,99,135109
2.7517,0.2199,38.7100,99,99,135112
2.3998,0.2248,38.4900,99,99,135116
2.0381,0.2248,38.6200,99,99,135119
1.7986,0.2151,38.6500,99,99,135122
1.6520,0.2248,38.6500,99,99,135127
1.5396,0.2199,38.6800,99,99,135130
1.5200,0.2737,38.4300,99,99,135133
1.4565,0.2199,38.6200,99,99,135136
1.4516,0.2151,38.7400,99,99,135140
1.4516,0.2199,38.7100,99,99,135143
1.4565,0.2444,38.7100,99,99,135146
1.5054,0.2346,38.5200,99,99,135150
1.4858,0.2248,38.6500,99,99,135153
1.5054,0.2199,38.5800,99,99,135156
1.5200,0.2199,38.7100,99,99,135160
1.5347,0.2199,38.5800,99,99,135163
1.5787,0.2297,38.5500,99,99,135166
1.5689,0.2248,38.9000,99,99,135171
1.5885,0.2297,38.6200,99,99,135174
1.6031,0.2199,38.7100,99,99,135177
1.5689,0.2199,38.7100,99,99,135180
1.5982,0.2248,38.6500,99,99,135184
1.5934,0.2199,38.7100,99,99,135187
1.6276,0.2297,38.5500,99,99,135190
1.6031,0.2248,38.6800,99,99,135194
1.6325,0.2199,38.2700,99,99,135197
1.6960,0.2248,38.5500,99,99,135200
1.6569,0.2199,38.7100,99,99,135204
1.6911,0.2199,38.4900,99,99,135207
1.6716,0.2199,38.7100,99,99,135211
1.6862,0.2199,38.7100,99,99,135215
1.7058,0.2248,38.6500,99,99,135218
1.7009,0.2199,38.6800,99,99,135221
1.7253,0.2248,38.5500,99,99,135224
1.6862,0.2297,38.6200,99,99,135228
1.6667,0.2199,38.7100,99,99,135231
1.6764,0.2248,38.6800,99,99,135234
1.6764,0.2199,38.7700,99,99,135238
1.7351,0.2395,38.4300,99,99,135241
1.7107,0.2248,38.6200,99,99,135244
1.7107,0.2151,38.6500,99,99,135248
1.7302,0.2199,38.7400,99,99,135251
1.7546,0.2199,38.6500,99,99,135255
1.8182,0.2346,38.5500,99,99,135259
1.7937,0.2248,38.5800,99,99,135262
1.7937,0.2248,38.5800,99,99,135265
1.7693,0.2102,38.7100,99,99,135268
1.7644,0.2199,38.7100,99,99,135272
1.8133,0.2297,38.6500,99,99,135275
1.8035,0.2199,38.8100,99,99,135278
1.8426,0.2248,38.5800,99,99,135282
1.8328,0.2199,38.6800,99,99,135285
1.8573,0.2199,38.6800,99,99,135288
1.8915,0.2102,38.5800,99,99,135292
1.9257,0.2297,38.6200,99,99,135296
1.8964,0.2199,38.7100,99,99,135300
1.9550,0.2297,38.4900,99,99,135303
1.9404,0.2199,38.5800,99,99,135306
1.9501,0.2199,38.7100,99,99,135310
1.9697,0.2297,38.6500,99,99,135313
1.9648,0.2102,38.7100,99,99,135316
2.0332,0.2395,38.4300,99,99,135319
1.9990,0.2786,38.6800,99,99,135323
2.0186,0.2199,38.6500,99,99,135326
2.0283,0.2199,38.6200,99,99,135329
2.0381,0.2199,38.7100,99,99,135333
2.0479,0.2297,38.5500,99,99,135336
1.9941,0.2248,38.6200,99,99,135340
1.9844,0.2102,38.5800,99,99,135344
1.9550,0.2199,38.7100,99,99,135347
1.9501,0.2248,38.7100,99,99,135350
1.9844,0.2297,38.5500,99,99,135354
1.9550,0.2199,38.6800,99,99,135357
1.9599,0.2248,38.5500,99,99,135360
1.9159,0.2199,38.7700,99,99,135363
1.8964,0.2493,38.7100,99,99,135367
1.9110,0.2248,38.5800,99,99,135370
1.8768,0.2199,38.7400,99,99,135373
1.8964,0.2248,38.5800,99,99,135377
1.8524,0.2199,38.7400,99,99,135380
1.8426,0.2395,38.7400,99,99,135384
1.8377,0.2248,38.5800,99,99,135388
1.8084,0.2199,38.6800,99,99,135391
1.8328,0.2248,38.4300,99,99,135394
1.8035,0.2199,38.7100,99,99,135398
1.8133,0.2199,38.9600,99,99,135401
1.8768,0.2346,38.6200,99,99,135404
1.8231,0.2199,38.7400,99,99,135407
1.8622,0.2248,38.4000,99,99,135411
1.8280,0.2102,38.6200,99,99,135414
1.8182,0.2199,38.7400,99,99,135417
1.8622,0.2297,38.6800,99,99,135421
1.8231,0.2199,38.7100,99,99,135425
1.8817,0.2395,38.4600,99,99,135428
1.8426,0.2297,38.6200,99,99,135432
1.8328,0.2199,39.1600,99,99,135435
1.8622,0.2248,38.6800,99,99,135438
1.8231,0.2199,38.7100,99,99,135442
1.8622,0.2346,38.4900,99,99,135445
1.8377,0.2248,38.6800,99,99,135448
1.8426,0.2199,38.5800,99,99,135451
1.8084,0.2199,38.7100,99,99,135455
1.8182,0.2199,38.6500,99,99,135458
1.8328,0.2297,38.6800,99,99,135461
1.8280,0.2248,38.6800,99,99,135465
1.8573,0.2297,38.6800,99,99,135469
1.8475,0.2199,38.7100,99,99,135472
1.8426,0.2199,38.5500,99,99,135476
1.8622,0.2297,38.6800,99,99,135479
1.8133,0.2199,38.8400,99,99,135482
1.8133,0.2199,38.5200,99,99,135486
1.7791,0.2199,38.6200,99,99,135489
1.7791,0.2199,37.8700,99,99,135492
1.8084,0.2346,38.6200,99,99,135495
1.7937,0.2199,38.7100,99,99,135499
1.8328,0.2297,38.4300,99,99,135502
1.7937,0.2248,38.6200,99,99,135505
1.7742,0.2248,38.5800,99,99,135510
1.7791,0.2151,38.6800,99,99,135513
1.7693,0.2199,38.7100,99,99,135516
1.8182,0.2297,38.4000,99,99,135520
1.7889,0.2248,38.5800,99,99,135523
1.7889,0.2151,38.6800,99,99,135526
1.7889,0.2248,38.7100,99,99,135530
1.7840,0.2199,38.6800,99,99,135533
1.8280,0.2346,38.5500,99,99,135536
1.7986,0.2248,38.6800,99,99,135539
1.7986,0.2199,38.5500,99,99,135543
1.7986,0.2199,38.7400,99,99,135546
1.8231,0.2199,38.6200,99,99,135549
1.8817,0.2297,38.5500,99,99,135554
1.8719,0.2248,38.6200,99,99,135557
1.8915,0.2297,38.5500,99,99,135560
1.8671,0.2199,38.7100,99,99,135564
1.8671,0.2199,38.7100,99,99,135567
1.8866,0.2248,38.6200,99,99,135570
1.8671,0.2199,38.5800,99,99,135574
1.9110,0.2395,38.5800,99,99,135577
1.9062,0.2199,38.6500,99,99,135580
1.9453,0.2199,38.9300,99,99,135583
1.9990,0.2199,38.5800,99,99,135587
1.9990,0.2199,38.6800,99,99,135590
2.0235,0.2248,38.5200,99,99,135593
1.9550,0.2199,38.7100,99,99,135598
1.9355,0.2248,38.7100,99,99,135601
1.9159,0.2297,38.6500,99,99,135604
1.8768,0.2199,38.7100,99,99,135608
1.8915,0.2346,38.4000,99,99,135611
1.8573,0.2297,38.6200,99,99,135614
1.7742,0.2199,38.7700,99,99,135618
1.7449,0.2102,38.6800,99,99,135621
1.7204,0.2199,38.6800,99,99,135624
1.7546,0.2395,38.4900,99,99,135627
1.7204,0.2297,38.5800,99,99,135631
1.7155,0.2199,38.1500,99,99,135634
1.7400,0.2199,38.7100,99,99,135638
1.7009,0.2199,38.7100,99,99,135642
1.7155,0.2297,38.4900,99,99,135645
1.6667,0.2199,38.6800,99,99,135648
1.6520,0.2248,38.6200,99,99,135652
1.6325,0.2346,38.6800,99,99,135655
1.6471,0.2199,38.7100,99,99,135658
1.6813,0.2297,38.6500,99,99,135662
1.6716,0.2395,38.6800,99,99,135665
1.6911,0.2297,38.5800,99,99,135668
1.6520,0.2199,38.7100,99,99,135671
1.6569,0.2199,38.6800,99,99,135675
1.6862,0.2297,38.5800,99,99,135678
1.6667,0.2199,38.7100,99,99,135682
1.6764,0.2248,38.4900,99,99,135686
1.6325,0.2248,38.5800,99,99,135689
1.5738,0.2199,38.7100,99,99,135692
1.5494,0.2346,38.5800,99,99,135696
1.5054,0.2199,38.7100,99,99,135699
1.5836,0.2297,38.5200,99,99,135702
1.6960,0.2248,38.6800,99,99,135706
1.9795,0.2199,38.7100,99,99,135709
2.4096,0.2297,38.6500,99,99,135712
2.8837,0.2248,38.7100,99,99,135715
3.4848,0.2199,38.4300,99,99,135719
3.7097,0.2199,38.6500,99,99,135723
3.7586,0.2395,38.6500,99,99,135726
3.5484,0.2248,38.6800,99,99,135730
3.1427,0.2542,38.7100,99,99,135733
2.7713,0.2395,38.4900,99,99,135736
2.2923,0.2248,38.6800,99,99,135740
1.9404,0.2199,38.6200,99,99,135743
1.6764,0.2248,38.6800,99,99,135746
1.5103,0.2199,38.8100,99,99,135749
1.4467,0.2395,38.5500,99,99,135753
1.3930,0.2248,38.6800,99,99,135756
1.3978,0.2248,38.5800,99,99,135759
1.3930,0.2248,38.7100,99,99,135763
1.3978,0.2199,38.7400,99,99,135767
1.4125,0.2248,38.6200,99,99,135770
1.3881,0.2248,38.7100,99,99,135774
1.4027,0.2297,38.7400,99,99,135777
1.3978,0.2199,38.7100,99,99,135780
1.4174,0.2199,38.7700,99,99,135784
1.4467,0.2297,38.5800,99,99,135787
1.4614,0.1906,38.7100,99,99,135790
1.5054,0.2248,38.5800,99,99,135793
1.4956,0.2102,38.7100,99,99,135797
1.5249,0.2199,38.7700,99,99,135800
1.5494,0.2248,38.6500,99,99,135803
1.5591,0.2199,38.7100,99,99,135808
1.6129,0.2493,38.4600,99,99,135811
1.6080,0.2248,38.6200,99,99,135814
1.5836,0.2199,38.8100,99,99,135818
1.5836,0.2248,38.6800,99,99,135821
1.5689,0.2199,38.7100,99,99,135824
1.6080,0.2493,38.4300,99,99,135828
1.5738,0.2248,38.5800,99,99,135831
1.5689,0.2151,38.6500,99,99,135834
1.6031,0.2199,38.6800,99,99,135837
1.5982,0.2199,38.7400,99,99,135841
1.6471,0.2395,38.5500,99,99,135844
1.6276,0.2248,38.6500,99,99,135847
1.6422,0.2199,38.6200,99,99,135852
1.6520,0.2102,38.7100,99,99,135855
1.6569,0.2199,38.6800,99,99,135858
1.7253,0.2199,38.6500,99,99,135862
1.6862,0.2248,38.6800,99,99,135865
1.7155,0.2248,38.5200,99,99,135868
1.6911,0.2248,38.7100,99,99,135872
1.6911,0.2248,38.8400,99,99,135875
1.7302,0.2297,38.6200,99,99,135878
1.6960,0.2248,38.6800,99,99,135882
1.7253,0.2199,38.5500,99,99,135885
1.7107,0.2199,38.6200,99,99,135888
1.7204,0.2199,38.7400,99,99,135891
1.7595,0.2297,38.5800,99,99,135896
1.7644,0.2248,38.6800,99,99,135899
1.8328,0.2248,38.4600,99,99,135902
1.8328,0.2395,38.4600,99,99,135906
1.8084,0.2297,38.7100,99,99,135909
1.8182,0.2151,38.6500,99,99,135913
1.8328,0.2248,38.7100,99,99,135916
1.8475,0.2248,38.7100,99,99,135919
1.8964,0.2297,38.5800,99,99,135923
1.8768,0.2248,38.7400,99,99,135926
1.8964,0.2346,38.5500,99,99,135929
1.8915,0.2248,38.7100,99,99,135933
1.9013,0.2248,38.7100,99,99,135937
1.9404,0.2297,38.5200,99,99,135940
1.9208,0.2444,38.6800,99,99,135943
1.9550,0.2297,38.6200,99,99,135947
1.9306,0.2199,38.8100,99,99,135950
1.9501,0.2199,38.6800,99,99,135953
1.9844,0.2248,38.5800,99,99,135957
1.9648,0.2248,38.7700,99,99,135960
1.9746,0.2590,38.5200,99,99,135963
1.9355,0.2199,38.6500,99,99,135967
1.9257,0.2199,38.5500,99,99,135970
1.9599,0.2199,38.5800,99,99,135973
1.8817,0.2248,38.7100,99,99,135977
1.9110,0.2297,38.4000,99,99,135981
1.8573,0.2102,38.6800,99,99,135984
1.8426,0.2199,38.7100,99,99,135987
1.8377,0.2248,38.6800,99,99,135991
1.8133,0.2199,38.6800,99,99,135994
1.8524,0.2297,38.4000,99,99,135997
1.8328,0.2199,38.6200,99,99,136001
1.8035,0.2151,38.6800,99,99,136004
1.8035,0.2248,38.6800,99,99,136007
1.7889,0.2199,38.7100,99,99,136011
1.8328,0.2395,38.4900,99,99,136014
1.7986,0.2297,38.6200,99,99,136017
1.7742,0.2199,38.6200,99,99,136022
1.7693,0.2395,38.7100,99,99,136025
1.7693,0.2199,38.7100,99,99,136028
1.8035,0.2297,38.6500,99,99,136031
1.7791,0.2297,38.6800,99,99,136035
1.7889,0.2248,38.5800,99,99,136038
1.7595,0.2248,38.6500,99,99,136041
1.7693,0.2199,38.7100,99,99,136045
1.7986,0.2248,38.5800,99,99,136048
1.8035,0.2248,38.6800,99,99,136051
1.8377,0.2297,38.5800,99,99,136055
1.8084,0.2248,38.6800,99,99,136058
1.8084,0.2199,38.7100,99,99,136061
1.8182,0.2297,38.5800,99,99,136065
1.7693,0.2248,38.6800,99,99,136069
1.7840,0.2102,38.5200,99,99,136072
1.7693,0.2248,38.5800,99,99,136075
1.7742,0.2297,38.6800,99,99,136079
1.8035,0.2297,38.6200,99,99,136082
1.7937,0.2248,38.6500,99,99,136085
1.8426,0.2346,38.4600,99,99,136089
1.8231,0.2199,38.6200,99,99,136092
1.8035,0.2248,38.7400,99,99,136095
1.8035,0.2297,38.6200,99,99,136099
1.7840,0.2248,38.7100,99,99,136102
1.8328,0.2297,38.4300,99,99,136105
1.7840,0.2248,38.6200,99,99,136109
1.7840,0.2199,38.7400,99,99,136113
1.7840,0.2199,38.6800,99,99,136116
1.7791,0.2248,38.7100,99,99,136119
1.8280,0.2395,38.4600,99,99,136123
1.7986,0.2248,38.6800,99,99,136126
1.7937,0.2248,38.6200,99,99,136129
1.7742,0.2297,38.7100,99,99,136133
1.7644,0.2199,38.7100,99,99,136136
1.7791,0.2297,38.5200,99,99,136139
1.7498,0.2248,38.6800,99,99,136143
1.7742,0.2248,38.5800,99,99,136146
1.7595,0.2395,38.7100,99,99,136150
1.7791,0.2248,38.7100,99,99,136153
1.8084,0.2297,38.5800,99,99,136157
1.7889,0.2248,38.6800,99,99,136160
1.8231,0.2297,38.5800,99,99,136163
1.7937,0.2199,38.8100,99,99,136167
1.8133,0.2248,38.7100,99,99,136170
1.8426,0.2248,38.5800,99,99,136173
1.8573,0.2248,38.7100,99,99,136177
1.9110,0.2297,38.4900,99,99,136180
1.8915,0.2248,38.5800,99,99,136183
1.9110,0.2346,38.7400,99,99,136186
1.9355,0.2395,38.6500,99,99,136190
1.9404,0.2248,38.7100,99,99,136194
1.9941,0.2346,38.4300,99,99,136197
1.9844,0.2297,38.7400,99,99,136201
1.9795,0.2248,38.7100,99,99,136204
1.9844,0.2248,38.6800,99,99,136207
1.9550,0.2248,38.8100,99,99,136211
1.9795,0.2493,38.4600,99,99,136214
1.9110,0.2248,38.5500,99,99,136217
1.8719,0.2444,38.6200,99,99,136221
1.8426,0.2248,38.6800,99,99,136224
1.8182,0.2248,38.7400,99,99,136227
1.8328,0.2395,38.5200,99,99,136230
1.7889,0.2297,38.6800,99,99,136235
1.7546,0.2248,38.5800,99,99,136238
1.7302,0.2248,38.7100,99,99,136241
1.7155,0.2248,38.8400,99,99,136245
1.7155,0.2199,38.6500,99,99,136248
1.6813,0.2248,38.6800,99,99,136251
1.6813,0.2297,38.5200,99,99,136255
1.6471,0.2248,38.7100,99,99,136258
1.6667,0.2199,38.8700,99,99,136261
1.7107,0.2688,38.6200,99,99,136265
1.7009,0.2248,38.7100,99,99,136268
1.7204,0.2248,38.5200,99,99,136271
1.6862,0.2297,38.6800,99,99,136274
1.6862,0.2248,38.7100,99,99,136279
1.7009,0.2493,38.6200,99,99,136282
1.6862,0.2248,38.6800,99,99,136285
1.7253,0.2297,38.4900,99,99,136289
1.7009,0.2346,38.6500,99,99,136292
1.7009,0.2248,38.7100,99,99,136295
1.7009,0.2297,38.6500,99,99,136299
1.6520,0.2199,38.6800,99,99,136302
1.6471,0.2639,38.4300,99,99,136305
1.5640,0.2199,38.6200,99,99,136308
1.5396,0.2199,38.6200,99,99,136312
1.5934,0.2199,38.6800,99,99,136315
1.7204,0.2199,38.6800,99,99,136318
2.0577,0.2395,38.4600,99,99,136323
2.4291,0.2297,38.6500,99,99,136326
2.9081,0.2199,37.7400,99,99,136329
3.4164,0.2297,38.6800,99,99,136333
3.7048,0.2248,38.7100,99,99,136336
3.8319,0.2297,38.4900,99,99,136339
3.5484,0.2297,38.6800,99,99,136343
3.1329,0.2248,38.5500,99,99,136346
2.6393,0.2199,38.6800,99,99,136349
2.2092,0.2199,38.7100,99,99,136352
1.8915,0.2297,38.5200,99,99,136356
1.6276,0.2248,38.6800,99,99,136359
1.5152,0.2297,38.5500,99,99,136363
1.4272,0.2248,38.7100,99,99,136367
1.3930,0.2199,38.7100,99,99,136370
1.3930,0.2248,38.6200,99,99,136373
1.3978,0.2248,38.7100,99,99,136377
1.4076,0.2248,38.5200,99,99,136380
1.3930,0.2248,38.6800,99,99,136383
1.4272,0.2199,38.7100,99,99,136387
1.4712,0.2297,38.6200,99,99,136390
1.4956,0.2248,38.7100,99,99,136393
1.5543,0.2297,38.5800,99,99,136396
1.5445,0.2346,38.6200,99,99,136400
1.5347,0.2248,38.7100,99,99,136403
1.5396,0.2346,38.6800,99,99,136407
1.5249,0.2297,38.7100,99,99,136411
1.5689,0.2346,38.4000,99,99,136414
1.5445,0.2248,38.5800,99,99,136417
1.5445,0.2199,38.6800,99,99,136421
1.5591,0.2297,38.6800,99,99,136424
1.5689,0.2102,38.7100,99,99,136427
1.6373,0.2395,38.5800,99,99,136431
1.6080,0.2346,38.6200,99,99,136434
1.6227,0.2199,38.6200,99,99,136437
1.5982,0.2248,38.9300,99,99,136440
1.6373,0.2248,38.7100,99,99,136444
1.6520,0.2297,38.6200,99,99,136448
1.6422,0.2248,38.6800,99,99,136451
1.6667,0.2248,38.5500,99,99,136455
1.6569,0.2248,38.7400,99,99,136458
1.6862,0.2248,38.6800,99,99,136461
1.7107,0.2297,38.5500,99,99,136465
1.6960,0.2297,38.6800,99,99,136468
1.7351,0.2297,38.5800,99,99,136471
1.7107,0.2199,38.2700,99,99,136475
1.7107,0.2297,38.7400,99,99,136478
1.7351,0.2297,38.6800,99,99,136481
1.7302,0.2248,38.6500,99,99,136484
1.7986,0.2248,38.4900,99,99,136488
1.7449,0.2248,38.6500,99,99,136492
1.7498,0.2248,38.7400,99,99,136495
1.7840,0.2346,38.6200,99,99,136499
1.7742,0.2248,38.7100,99,99,136502
1.8280,0.2297,38.4600,99,99,136505
1.7889,0.2199,38.6500,99,99,136509
1.7937,0.2248,38.7700,99,99,136512
1.7937,0.2199,38.6500,99,99,136515
1.8622,0.2199,38.7100,99,99,136519
1.8671,0.2248,38.7400,99,99,136522
1.9062,0.2395,38.5200,99,99,136526
1.8915,0.2297,38.6800,99,99,136529
1.9159,0.2248,38.5500,99,99,136532
1.9013,0.2248,38.7100,99,99,136536
1.9110,0.2248,38.7100,99,99,136540
1.9404,0.2395,38.6200,99,99,136543
1.9208,0.2102,38.7100,99,99,136546
1.9599,0.2297,38.6200,99,99,136550
1.9404,0.2297,38.6800,99,99,136553
1.9501,0.2248,38.7100,99,99,136556
1.9648,0.2248,38.6200,99,99,136560
1.9648,0.2297,38.6800,99,99,136563
1.9941,0.2248,38.5200,99,99,136566
1.9599,0.2248,38.7100,99,99,136570
1.9550,0.2248,38.7100,99,99,136573
1.9599,0.2297,38.6200,99,99,136577
1.9306,0.2248,38.7100,99,99,136580
1.9599,0.2297,38.4600,99,99,136584
1.9550,0.2199,38.6200,99,99,136587
1.8817,0.2248,38.7100,99,99,136590
1.8915,0.2199,38.6500,99,99,136594
1.8719,0.2248,38.7100,99,99,136597
1.9062,0.2395,38.5500,99,99,136600
1.8817,0.2102,38.5800,99,99,136604
1.8133,0.2199,38.6500,99,99,136607
1.7937,0.2297,38.6800,99,99,136610
1.7791,0.2248,38.7100,99,99,136613
1.8280,0.2346,38.6800,99,99,136617
1.7986,0.2395,38.6500,99,99,136621
1.7986,0.2248,38.6200,99,99,136624
1.7791,0.2248,38.6500,99,99,136628
1.7693,0.2248,38.7100,99,99,136631
1.7840,0.2297,38.6500,99,99,136634
1.7595,0.2297,38.7100,99,99,136638
1.7791,0.2346,38.5500,99,99,136641
1.7449,0.2444,38.7100,99,99,136644
1.7595,0.2248,38.7100,99,99,136648
1.7986,0.2297,38.6800,99,99,136651
1.7986,0.2102,38.7100,99,99,136654
1.8426,0.2248,38.6500,99,99,136658
1.8182,0.2297,38.6200,99,99,136662
1.8084,0.2248,38.7100,99,99,136665
1.8182,0.2248,38.5500,99,99,136668
1.8280,0.2102,38.7100,99,99,136672
1.8280,0.2297,38.4900,99,99,136675
1.8035,0.2297,38.6200,99,99,136678
1.8035,0.2248,38.7100,99,99,136682
1.8231,0.2297,38.9000,99,99,136685
1.8133,0.2493,38.6500,99,99,136688
1.8719,0.2346,38.4300,99,99,136692
1.8231,0.2248,38.6200,99,99,136695
1.8280,0.2248,38.7100,99,99,136698
1.8280,0.2297,38.6800,99,99,136701
1.8231,0.2248,38.7100,99,99,136706
1.8524,0.2395,38.5800,99,99,136709
1.8084,0.2297,38.6200,99,99,136712
1.7840,0.2199,38.6200,99,99,136716
1.7693,0.2297,38.8400,99,99,136719
1.7644,0.2297,38.7100,99,99,136722
1.8035,0.2297,38.5200,99,99,136726
1.7889,0.2346,38.6500,99,99,136729
1.8231,0.2297,38.5500,99,99,136732
1.7889,0.2248,38.8400,99,99,136736
1.8133,0.2297,38.7100,99,99,136739
1.8182,0.2297,38.4900,99,99,136742
1.7937,0.2248,38.7400,99,99,136747
1.8084,0.2346,38.4900,99,99,136750
1.7742,0.2248,38.7100,99,99,136753
1.7742,0.2297,38.7100,99,99,136756
1.7937,0.2297,38.5800,99,99,136760
1.7889,0.2248,38.7100,99,99,136763
1.8231,0.2248,38.5200,99,99,136766
1.8084,0.2248,38.6800,99,99,136770
1.8280,0.2199,38.7400,99,99,136773
1.8573,0.2346,38.6200,99,99,136776
1.8475,0.2248,38.7400,99,99,136780
1.8964,0.2346,38.4600,99,99,136783
1.8768,0.2297,38.6200,99,99,136786
1.8622,0.2248,38.7100,99,99,136790
1.8719,0.2297,38.6800,99,99,136794
1.8768,0.2248,38.8100,99,99,136797
1.9550,0.2542,38.4000,99,99,136800
1.9501,0.2297,38.5800,99,99,136804
1.9599,0.2199,38.6500,99,99,136807
2.0088,0.2199,38.6800,99,99,136810
1.9892,0.2248,38.7100,99,99,136814
2.0577,0.2395,38.5200,99,99,136817
2.0088,0.2248,38.6800,99,99,136820
1.9795,0.2248,38.6200,99,99,136823
1.9453,0.2248,38.7100,99,99,136827
1.9159,0.2248,38.7100,99,99,136830
1.9208,0.2346,38.6200,99,99,136834
1.8622,0.2297,38.6800,99,99,136838
1.8377,0.2297,38.5200,99,99,136841
1.7791,0.2248,38.7100,99,99,136844
1.7449,0.2297,38.7700,99,99,136848
1.7889,0.2395,38.5500,99,99,136851
1.7107,0.2248,38.8100,99,99,136854
1.7302,0.2346,38.5800,99,99,136858
1.6960,0.2199,38.6800,99,99,136861
1.6862,0.2248,38.8700,99,99,136864
1.6862,0.2346,38.5500,99,99,136867
1.6520,0.2248,38.7100,99,99,136871
1.6813,0.2248,38.5200,99,99,136875
1.6618,0.2248,38.6500,99,99,136878
1.6716,0.2248,38.5800,99,99,136882
1.6862,0.2346,38.6800,99,99,136885
1.6813,0.2248,38.7100,99,99,136888
1.7253,0.2297,37.6800,99,99,136892
1.6960,0.2199,38.6500,99,99,136895
1.7107,0.2248,38.7100,99,99,136898
1.7204,0.2639,38.6800,99,99,136902
1.7155,0.2248,38.7100,99,99,136905
1.7644,0.2395,38.4000,99,99,136908
1.7155,0.2297,38.6200,99,99,136911
1.6667,0.2199,38.6800,99,99,136915
1.6227,0.2248,38.6800,99,99,136919
1.5787,0.2248,38.7100,99,99,136922
1.6031,0.2346,38.5200,99,99,136926
1.6569,0.2346,38.6800,99,99,136929
1.8231,0.2248,38.5800,99,99,136932
2.1554,0.2248,38.6800,99,99,136936
2.6051,0.2199,38.6800,99,99,136939
3.1574,0.2297,38.5500,99,99,136942
3.5484,0.2395,38.6500,99,99,136946
3.8074,0.2102,38.5500,99,99,136949
3.6999,0.2248,38.7100,99,99,136952
3.4115,0.2248,38.7100,99,99,136955
3.0059,0.2248,38.8700,99,99,136960
2.5513,0.2248,38.6500,99,99,136963
2.1848,0.2248,38.5800,99,99,136966
1.8377,0.2248,38.9600,99,99,136970
1.6325,0.2151,38.6800,99,99,136973
1.5396,0.2297,38.6200,99,99,136976
1.4712,0.2248,38.7100,99,99,136980
1.4712,0.2297,38.5200,99,99,136983
1.4663,0.2346,38.5800,99,99,136986
1.4663,0.2102,38.7100,99,99,136990
1.4809,0.2542,38.6500,99,99,136993
1.4467,0.2297,38.7100,99,99,136996
1.4809,0.2346,38.4300,99,99,136999
1.4516,0.2151,38.5800,99,99,137004
1.4663,0.2248,38.7100,99,99,137007
1.5005,0.2395,38.7400,99,99,137010
1.5249,0.2297,38.7100,99,99,137014
1.6031,0.2444,38.5200,99,99,137017
1.5836,0.2395,38.6200,99,99,137020
1.5836,0.2248,38.6200,99,99,137024
1.5787,0.2297,38.6800,99,99,137027
1.5787,0.2248,38.7100,99,99,137030
1.6129,0.2346,38.5800,99,99,137034
1.5982,0.2346,38.6500,99,99,137037
1.6178,0.2297,38.5800,99,99,137040
1.6031,0.2248,38.6800,99,99,137043
1.6129,0.2102,38.7100,99,99,137048
1.6373,0.2346,38.5500,99,99,137051
1.6373,0.2297,38.6800,99,99,137054
1.6862,0.2297,38.5800,99,99,137058
1.6813,0.2199,38.6500,99,99,137061
1.6960,0.2248,38.7100,99,99,137064
1.7107,0.2297,38.7100,99,99,137068
1.6960,0.2297,38.7400,99,99,137071
1.7253,0.2199,38.5200,99,99,137074
1.7009,0.2248,38.7400,99,99,137078
1.6960,0.2297,38.7100,99,99,137081
1.7107,0.2297,38.5800,99,99,137084
1.6960,0.2248,38.9600,99,99,137088
1.7449,0.2395,38.4300,99,99,137092
1.7302,0.2199,38.2100,99,99,137095
1.7546,0.2248,38.7100,99,99,137098
1.7742,0.2297,38.6800,99,99,137102
1.7644,0.2199,38.7100,99,99,137105
1.8182,0.2297,38.4000,99,99,137108
1.7791,0.2297,38.7700,99,99,137112
1.7742,0.2199,38.6800,99,99,137115
1.7791,0.2297,38.8400,99,99,137118
1.7791,0.2297,38.7100,99,99,137122
1.8328,0.2346,38.2100,99,99,137125
1.8915,0.2346,38.6200,99,99,137129
1.8915,0.2297,38.7100,99,99,137133
1.9013,0.2297,38.6200,99,99,137136
1.8671,0.2248,38.9600,99,99,137140
1.8768,0.2248,38.7100,99,99,137143
1.9013,0.2297,38.5800,99,99,137146
1.9013,0.2248,38.7100,99,99,137149
1.9550,0.2199,38.4900,99,99,137153
1.9355,0.2248,38.6800,99,99,137156
1.9599,0.2297,38.7100,99,99,137159
1.9941,0.2297,38.6500,99,99,137163
1.9844,0.2248,38.7100,99,99,137166
2.0381,0.2297,38.4300,99,99,137169
2.0039,0.2297,38.6200,99,99,137174
1.9844,0.2395,38.7400,99,99,137177
1.9844,0.2297,38.6800,99,99,137180
1.9648,0.2248,38.8100,99,99,137183
2.0186,0.2444,38.4300,99,99,137187
1.9892,0.2297,38.5800,99,99,137190
1.9795,0.2248,38.6500,99,99,137193
1.9746,0.2297,38.6800,99,99,137197
1.9453,0.2248,38.7100,99,99,137200
1.9746,0.2444,38.5200,99,99,137203
1.9208,0.2297,38.7700,99,99,137207
1.8964,0.2248,38.5800,99,99,137210
1.8524,0.2199,38.7100,99,99,137213
1.8280,0.2248,38.7100,99,99,137218
1.8671,0.2346,38.6200,99,99,137221
1.8231,0.2297,38.7700,99,99,137224
1.8426,0.2639,38.5200,99,99,137227
1.8133,0.2346,38.7100,99,99,137231
1.8133,0.2248,38.7100,99,99,137234
1.8377,0.2297,38.5500,99,99,137237
1.8084,0.2297,38.6800,99,99,137241
1.8328,0.2248,38.5500,99,99,137244
1.7986,0.2248,38.6200,99,99,137247
1.7937,0.2199,38.6800,99,99,137251
1.8231,0.2297,38.5500,99,99,137254
1.7937,0.2248,38.6200,99,99,137257
1.8280,0.2395,38.4600,99,99,137262
1.8035,0.2297,38.6500,99,99,137265
1.8084,0.2248,38.7100,99,99,137268
1.8280,0.2346,38.6800,99,99,137271
1.8182,0.2248,38.7100,99,99,137275
1.8671,0.2346,38.4000,99,99,137278
1.8377,0.2248,38.6200,99,99,137281
1.8475,0.2248,38.6800,99,99,137285
1.8475,0.2346,38.6500,99,99,137288
1.8328,0.2248,38.7100,99,99,137291
1.8719,0.2395,38.4600,99,99,137295
1.8280,0.2346,38.7100,99,99,137298
1.8133,0.2395,38.6200,99,99,137302
1.8035,0.2297,38.8100,99,99,137306
1.8035,0.2248,38.7100,99,99,137309
1.8475,0.2346,38.5200,99,99,137312
1.8231,0.2395,38.6500,99,99,137316
1.8377,0.2346,38.5500,99,99,137319
1.8182,0.2297,38.7100,99,99,137322
1.8182,0.2102,38.7400,99,99,137325
1.8328,0.2395,38.6500,99,99,137329
1.7937,0.2199,38.6800,99,99,137332
1.8133,0.2297,38.5800,99,99,137335
1.7840,0.2248,38.6500,99,99,137339
1.7937,0.2297,38.7100,99,99,137342
1.8084,0.2297,38.7100,99,99,137346
1.7986,0.2542,38.7100,99,99,137350
1.8280,0.2346,38.4900,99,99,137353
1.7937,0.2297,38.6800,99,99,137356
1.7986,0.2248,38.6500,99,99,137360
1.8231,0.2297,38.7100,99,99,137363
1.8133,0.2297,38.7100,99,99,137366
1.8475,0.2346,38.5800,99,99,137369
1.8133,0.2346,38.6200,99,99,137373
1.7840,0.2248,38.7100,99,99,137376
1.7937,0.2346,38.6500,99,99,137379
1.8182,0.2248,38.7100,99,99,137383
1.8622,0.2444,38.4300,99,99,137387
1.8524,0.2346,38.5800,99,99,137390
1.8573,0.2248,38.6500,99,99,137394
1.8719,0.2297,38.6800,99,99,137397
1.8866,0.2248,38.7100,99,99,137400
1.9257,0.2395,38.9000,99,99,137404
1.9062,0.2248,38.6800,99,99,137407
1.9355,0.2248,38.5800,99,99,137410
1.9501,0.2297,38.7700,99,99,137413
2.0137,0.2102,38.7100,99,99,137417
2.0332,0.2346,38.6500,99,99,137420
2.0186,0.2297,38.6800,99,99,137423
2.0332,0.2493,38.5200,99,99,137427
1.9795,0.2297,38.9300,99,99,137431
1.9550,0.2346,38.7100,99,99,137434
1.9599,0.2346,38.5800,99,99,137438
1.9013,0.2248,38.6800,99,99,137441
1.9062,0.2248,38.5500,99,99,137444
1.8573,0.2248,38.5800,99,99,137448
1.8377,0.2199,38.7100,99,99,137451
1.8280,0.2297,38.5200,99,99,137454
1.7791,0.2199,38.7100,99,99,137457
1.7840,0.2297,38.4600,99,99,137461
1.7449,0.2297,38.6500,99,99,137464
1.7351,0.2346,38.7100,99,99,137467
1.7155,0.2346,38.5800,99,99,137472
1.6813,0.2493,38.7100,99,99,137475
1.7107,0.2346,38.4300,99,99,137478
1.6716,0.2444,38.6200,99,99,137482
1.6813,0.2248,38.7100,99,99,137485
1.6911,0.2786,38.6500,99,99,137488
1.6813,0.2248,38.7100,99,99,137492
1.7302,0.2444,38.4600,99,99,137495
1.6911,0.2248,38.6200,99,99,137498
1.6813,0.2248,38.7100,99,99,137501
1.7009,0.2297,38.6800,99,99,137505
1.6716,0.2248,38.7100,99,99,137508
1.7155,0.2493,38.5200,99,99,137511
1.7107,0.2346,38.6800,99,99,137516
1.7253,0.2444,38.5500,99,99,137519
1.7009,0.2297,38.7100,99,99,137522
1.6667,0.2248,38.7100,99,99,137526
1.6422,0.2395,38.5800,99,99,137529
1.5640,0.2297,38.7100,99,99,137532
1.5640,0.2346,38.5800,99,99,137536
1.5982,0.2297,38.6800,99,99,137539
1.7791,0.2248,38.7100,99,99,137542
2.1212,0.2297,38.5500,99,99,137545
2.5660,0.2199,38.7100,99,99,137549
3.1085,0.2346,38.5200,99,99,137552
3.5191,0.2199,38.6800,99,99,137555
3.7928,0.2297,38.7100,99,99,137560
3.8025,0.2346,38.6800,99,99,137563
3.4800,0.2199,38.6800,99,99,137566
3.1378,0.2297,38.4600,99,99,137570
2.6344,0.2297,38.6200,99,99,137573
2.2092,0.2199,38.7100,99,99,137576
1.8964,0.2297,38.5500,99,99,137580
1.6667,0.2297,38.7100,99,99,137583
1.5787,0.2297,38.4300,99,99,137586
1.4858,0.2346,38.5200,99,99,137589
1.4614,0.2199,38.6800,99,99,137593
1.4125,0.2297,38.6800,99,99,137596
1.3978,0.2444,38.7100,99,99,137600
1.4467,0.2395,38.5200,99,99,137604
1.4370,0.2297,38.6800,99,99,137607
1.4565,0.2199,38.5800,99,99,137610
1.4614,0.2297,38.7100,99,99,137614
1.4712,0.2297,38.7400,99,99,137617
1.5103,0.2346,38.6200,99,99,137620
1.4956,0.2297,38.7100,99,99,137624
1.5200,0.2297,38.5800,99,99,137627
1.5054,0.2297,38.7100,99,99,137630
1.5152,0.2248,38.7100,99,99,137633
1.5445,0.2346,38.5800,99,99,137637
1.5347,0.2297,38.6500,99,99,137640
1.5689,0.2297,38.5500,99,99,137644
1.5591,0.2248,38.6500,99,99,137648
1.5787,0.2248,38.6800,99,99,137651
1.6178,0.2297,38.5500,99,99,137654
1.6178,0.2297,38.7100,99,99,137658
1.6520,0.2346,38.4900,99,99,137661
1.6178,0.2248,38.6200,99,99,137664
1.6129,0.2248,38.8100,99,99,137668
1.6422,0.2297,38.6200,99,99,137671
1.6276,0.2297,38.6800,99,99,137674
1.6716,0.2297,38.4000,99,99,137677
1.6422,0.2248,38.6200,99,99,137681
1.6569,0.2248,38.7100,99,99,137684
1.6667,0.2199,38.6800,99,99,137688
1.6716,0.2248,38.7400,99,99,137692
1.7400,0.2444,38.4900,99,99,137695
1.7058,0.2346,38.6500,99,99,137698
1.7058,0.2248,39.0300,99,99,137702
1.7009,0.2102,38.6800,99,99,137705
1.7058,0.2248,38.6800,99,99,137708
1.7449,0.2346,38.4900,99,99,137711
1.7253,0.2297,38.6500,99,99,137715
1.7400,0.2297,38.6800,99,99,137718
1.7351,0.2297,38.6800,99,99,137721
1.7546,0.2248,38.7100,99,99,137725
1.7937,0.2346,38.5500,99,99,137729
1.7791,0.2297,38.6800,99,99,137732
1.8084,0.2297,38.8400,99,99,137736
1.7889,0.2590,38.7100,98,99,137739
1.8280,0.2248,38.8400,98,99,137743
1.8377,0.2297,38.7100,98,99,137746
1.8671,0.2346,38.6800,98,99,137749
1.8524,0.2297,38.7100,98,99,137753
1.9110,0.2346,38.4300,98,99,137756
1.8817,0.2297,38.5800,98,99,137759
1.8817,0.2297,38.7400,98,99,137762
1.9159,0.2297,38.6800,98,99,137766
1.9306,0.2297,38.6500,98,99,137769
2.0039,0.2542,38.4300,98,99,137773
1.9648,0.2297,38.5800,98,99,137777
1.9355,0.2248,38.6500,98,99,137780
1.9404,0.2102,38.6800,98,99,137783
1.9110,0.2297,38.7100,98,99,137787
1.9404,0.2395,38.4900,98,99,137790
1.9404,0.2346,38.6500,98,99,137793
1.9013,0.2297,38.5800,98,99,137797
1.8915,0.2346,38.7100,98,99,137800
1.8915,0.2297,38.7100,98,99,137803
1.9159,0.2395,38.6200,98,99,137806
1.8964,0.2297,38.6800,98,99,137810
1.9062,0.2297,38.5800,98,99,137814
1.8622,0.2297,38.7100,98,99,137817
1.8377,0.2248,38.7400,98,99,137821
1.8426,0.2346,38.5800,98,99,137824
1.7937,0.2297,38.5800,98,99,137827
1.7889,0.2346,38.5200,98,99,137831
1.7595,0.2297,38.6200,98,99,137834
1.7546,0.2297,38.5500,98,99,137837
1.7742,0.2297,38.5800,98,99,137841
1.7546,0.2297,38.6500,98,99,137844
1.7889,0.2346,38.4600,98,99,137847
1.7400,0.2346,38.6200,98,99,137851
1.7155,0.2248,38.7400,98,99,137854
1.7204,0.2346,38.6500,98,99,137858
1.7009,0.2297,38.7100,98,99,137861
1.7351,0.2395,38.3600,98,99,137865
1.6960,0.2297,38.5800,98,99,137868
1.7009,0.2248,38.2700,98,99,137871
1.6960,0.2297,38.6200,98,99,137875
1.6862,0.2297,38.7100,98,99,137878
1.7400,0.2786,38.4900,98,99,137881
1.7253,0.2346,38.6200,98,99,137885
1.7400,0.2248,38.6200,98,99,137888
1.7498,0.2248,38.7100,98,99,137891
1.7546,0.2248,38.7100,98,99,137894
1.7742,0.2346,38.4600,98,99,137899
1.7253,0.2102,38.6800,98,99,137902
1.7351,0.2297,38.5500,98,99,137905
1.7107,0.2297,38.7400,98,99,137909
1.7204,0.2297,38.7100,98,99,137912
1.7546,0.2444,38.5800,98,99,137915
1.7302,0.2199,38.6800,98,99,137919
1.7449,0.2297,38.5800,98,99,137922
1.7107,0.2248,38.6500,98,99,137925
1.7155,0.2297,38.7100,98,99,137929
1.7155,0.2297,37.7100,98,99,137932
1.6911,0.2297,38.7400,98,99,137935
1.7058,0.2346,38.5200,98,99,137938
1.6716,0.2297,38.8400,98,99,137943
1.6862,0.2199,38.7100,98,99,137946
1.6764,0.2346,38.5500,98,99,137949
1.6569,0.2346,38.7100,98,99,137953
1.6960,0.2297,38.4600,98,99,137956
1.6813,0.2297,38.5500,98,99,137959
1.6960,0.2199,38.7100,98,99,137963
1.6862,0.2297,38.6500,98,99,137966
1.6667,0.2297,38.7100,98,99,137969
1.7009,0.2444,38.4300,98,99,137973
1.6569,0.2346,38.5800,98,99,137976
1.6569,0.2102,38.6800,98,99,137979
1.6569,0.2297,38.7400,98,99,137982
1.6520,0.2297,38.7100,98,99,137987
1.7009,0.2395,38.5200,98,99,137990
1.6764,0.2297,38.6200,98,99,137993
1.6911,0.2297,38.5800,98,99,137997
1.6862,0.2297,38.7100,98,99,138000
1.7009,0.2346,38.7100,98,99,138003
1.7204,0.2346,38.6500,98,99,138007
1.7009,0.2297,38.6800,98,99,138010
1.7253,0.2297,38.4900,98,99,138013
1.7107,0.2297,38.7100,98,99,138017
1.7253,0.2248,38.7400,98,99,138020
1.7693,0.2444,38.5500,98,99,138023
1.7742,0.2297,38.7100,98,99,138027
1.8280,0.2346,38.5500,98,99,138031
1.8182,0.2248,38.6500,98,99,138034
1.8377,0.2248,38.6200,98,99,138037
1.8573,0.2346,38.5500,98,99,138041
1.8426,0.2297,38.9300,98,99,138044
1.8622,0.2248,38.4600,98,99,138047
1.8035,0.2297,38.6800,98,99,138051
1.7791,0.2297,38.7400,98,99,138054
1.7595,0.2346,38.6200,98,99,138057
1.7204,0.2297,38.7100,98,99,138061
1.7449,0.2346,38.4300,98,99,138064
1.6862,0.2248,38.6200,98,99,138067
1.6569,0.2297,38.7100,98,99,138071
1.6080,0.2297,38.6800,98,99,138075
1.5640,0.2248,38.8100,98,99,138078
1.5640,0.2493,38.4600,98,99,138081
1.5054,0.2346,38.6500,98,99,138085
1.5005,0.2248,38.6500,98,99,138088
1.5005,0.2297,38.6500,98,99,138091
1.5347,0.2395,38.7100,98,99,138095
1.5200,0.2297,38.5500,98,99,138098
1.5005,0.2688,38.6500,98,99,138101
1.5103,0.2199,38.5800,98,99,138104
1.5103,0.2297,38.7100,98,99,138108
1.5249,0.2248,38.6800,98,99,138112
1.5494,0.2346,38.6200,98,99,138115
1.5298,0.2297,38.7100,98,99,138119
1.5445,0.2248,38.5500,98,99,138122
1.5152,0.2248,38.7100,98,99,138125
1.5200,0.2493,38.7400,98,99,138129
1.5347,0.2199,38.6200,98,99,138132
1.5445,0.2248,38.6800,98,99,138135
1.5494,0.2297,38.5200,98,99,138139
1.4956,0.2297,38.7100,98,99,138142
1.4516,0.2346,38.6800,98,99,138145
1.4321,0.2346,38.5800,98,99,138148
1.4027,0.2297,38.8400,98,99,138152
1.5152,0.2639,38.4600,98,99,138156
1.7155,0.2297,38.5800,98,99,138159
2.0772,0.2248,38.8700,98,99,138163
2.5709,0.2346,38.6500,98,99,138166
3.0499,0.2248,38.7100,98,99,138169
3.5386,0.2395,38.3600,98,99,138173
3.6461,0.2297,38.6200,98,99,138176
3.5191,0.2248,38.8400,98,99,138179
3.2014,0.2297,38.6800,98,99,138183
2.7322,0.2248,38.7100,98,99,138186
2.3460,0.2590,38.4900,98,99,138189
1.9257,0.2346,38.6200,98,99,138192
1.6520,0.2248,38.6500,98,99,138196
1.4761,0.2395,38.7100,98,99,138200
1.3783,0.2248,38.8400,98,99,138203
1.3441,0.2444,38.6200,98,99,138207
1.3001,0.2297,38.6800,98,99,138210
1.2854,0.2297,38.7100,98,99,138213
1.2512,0.2248,38.7100,98,99,138217
1.2414,0.2248,38.7400,98,99,138220
1.2708,0.2395,38.5500,98,99,138223
1.2512,0.2297,38.7700,98,99,138227
1.2757,0.2346,38.5800,98,99,138230
1.2561,0.2199,38.6500,98,99,138233
1.2708,0.2248,38.7100,98,99,138236
1.3099,0.2297,38.5800,98,99,138241
1.3196,0.2297,38.7100,98,99,138244
1.3685,0.2297,38.4900,98,99,138247
1.3734,0.2297,38.6800,98,99,138251
1.3978,0.2248,38.7100,98,99,138254
1.4174,0.2346,38.5500,98,99,138257
1.4027,0.2297,38.6800,98,99,138261
1.4272,0.2346,38.4300,98,99,138264
1.3881,0.2248,38.6500,98,99,138267
1.4076,0.2248,38.8100,98,99,138271
1.4321,0.2346,38.6800,98,99,138274
1.4516,0.2248,38.7700,98,99,138277
1.5200,0.2444,38.4300,98,99,138280
1.5054,0.2346,38.6200,98,99,138285
1.5005,0.2297,38.6500,98,99,138288
1.4907,0.2297,38.7100,98,99,138291
1.4809,0.2297,38.7100,98,99,138295
1.5200,0.2346,38.5200,98,99,138298
1.5152,0.2395,38.6800,98,99,138301
1.5152,0.2297,38.6200,98,99,138305
1.5054,0.2297,38.7100,98,99,138308
1.5152,0.2199,38.6800,98,99,138311
1.5445,0.2346,38.5800,98,99,138315
1.5445,0.2297,38.6800,98,99,138318
1.5885,0.2346,38.5500,98,99,138321
1.5738,0.2297,38.8100,98,99,138324
1.5738,0.2297,38.7100,98,99,138329
1.5738,0.2297,38.7100,98,99,138332
1.5689,0.2297,38.7400,98,99,138335
1.6373,0.2199,38.5500,98,99,138339
1.5982,0.2297,38.7400,98,99,138342
1.6080,0.2248,38.7100,98,99,138345
1.6325,0.2297,38.6200,97,99,138349
1.7009,0.2297,38.7400,97,99,138352
1.6911,0.2248,38.6800,97,99,138356
1.7546,0.2395,38.4300,97,99,138359
1.7204,0.2297,39.0300,97,99,138362
1.7107,0.2199,38.6500,97,99,138366
1.7253,0.2297,38.6800,97,99,138370
1.7302,0.2297,38.9000,97,99,138373
1.7889,0.2590,38.5500,97,99,138376
1.7791,0.2346,38.6500,97,99,138380
1.7889,0.2248,38.5800,97,99,138383
1.7791,0.2395,38.7100,97,99,138386
1.7937,0.2248,38.6500,97,99,138390
1.8328,0.2248,38.6200,97,99,138393
1.8231,0.2297,38.6800,97,99,138396
1.8426,0.2297,38.5200,97,99,138400
1.8084,0.2248,38.7100,97,99,138403
1.8084,0.2248,38.7100,97,99,138406
1.8426,0.2346,38.5500,97,99,138409
1.8133,0.2297,38.7100,97,99,138414
1.8280,0.2297,38.5200,97,99,138417
1.7840,0.2248,38.6500,97,99,138420
1.7742,0.2248,38.7400,97,99,138424
1.7791,0.2346,38.5500,97,99,138427
1.7546,0.2297,38.7100,97,99,138430
1.7742,0.2297,38.4600,97,99,138434
1.7351,0.2297,38.6800,97,99,138437
1.7204,0.2248,38.7400,97,99,138440
1.7204,0.2346,38.6500,97,99,138444
1.6911,0.2248,38.7100,97,99,138447
1.7204,0.2395,38.4300,97,99,138450
1.6716,0.2248,38.6200,97,99,138455
1.6618,0.2248,38.7400,97,99,138458
1.6667,0.2346,38.6800,97,99,138461
1.6569,0.2248,38.6500,97,99,138464
1.7155,0.2444,38.4900,97,99,138468
1.6862,0.2297,38.6200,97,99,138471
1.6813,0.2248,38.6200,97,99,138474
1.6569,0.2346,38.6800,97,99,138478
1.6618,0.2248,38.6800,97,99,138481
1.7253,0.2346,38.5200,97,99,138484
1.6960,0.2297,38.6800,97,99,138488
1.7253,0.2297,38.5500,97,99,138491
1.7009,0.2297,38.6800,97,99,138494
1.6764,0.2248,38.7100,97,99,138499
1.6862,0.2346,38.6500,97,99,138502
1.6667,0.2297,38.6800,97,99,138505
1.6911,0.2346,38.6200,97,99,138508
1.6667,0.2297,38.7100,97,99,138512
1.6764,0.2248,38.7100,97,99,138515
1.6960,0.2346,38.5800,97,99,138518
1.7204,0.2102,38.6800,97,99,138522
1.7302,0.2297,38.5200,97,99,138525
1.7009,0.2297,38.7100,97,99,138528
1.6911,0.2199,38.7100,97,99,138532
1.6960,0.2346,38.6200,97,99,138535
1.6716,0.2297,38.6800,97,99,138539
1.6960,0.2297,38.4300,97,99,138542
1.6716,0.2297,38.8400,97,99,138546
1.6618,0.2248,38.6800,97,99,138549
1.6716,0.2297,38.8400,97,99,138552
1.6569,0.2248,38.7100,97,99,138556
1.7107,0.2346,38.4000,97,99,138559
1.6862,0.2297,38.6200,97,99,138562
1.7009,0.2346,38.6500,97,99,138566
1.6764,0.2297,38.6800,97,99,138569
1.6618,0.2297,38.6800,97,99,138572
1.7058,0.2395,38.5200,97,99,138576
1.6764,0.2346,38.6500,97,99,138579
1.6618,0.2248,38.6500,97,99,138583
1.6471,0.2297,38.6800,97,99,138586
1.6618,0.2297,38.6800,97,99,138590
1.6911,0.2395,38.6200,97,99,138593
1.6862,0.2297,38.6800,97,99,138596
1.7058,0.2297,38.6200,97,99,138600
1.6862,0.2248,38.7100,97,99,138603
1.6862,0.2248,38.6500,97,99,138606
1.7058,0.2639,38.5500,97,99,138610
1.6764,0.2297,38.9000,97,99,138613
1.7155,0.2346,38.5200,97,99,138616
1.7107,0.2248,38.6500,97,99,138620
1.7351,0.2248,38.8400,97,99,138624
1.7840,0.2346,38.5500,97,99,138627
1.7693,0.2297,38.6800,97,99,138630
1.7889,0.2297,38.4600,97,99,138634
1.7595,0.2297,38.5800,97,99,138637
1.7546,0.2248,38.8100,97,99,138640
1.8182,0.2346,38.6200,97,99,138644
1.8426,0.2248,38.6800,97,99,138647
1.9257,0.2346,38.4300,97,99,138650
1.9110,0.2248,38.6500,97,99,138654
1.9306,0.2248,39.0300,97,99,138657
1.9257,0.2395,38.6800,97,99,138660
1.8915,0.2248,38.8100,97,99,138664
1.9062,0.2444,38.4600,97,99,138668
1.8377,0.2346,38.5800,97,99,138671
1.7937,0.2248,38.7400,97,99,138674
1.7644,0.2297,38.6800,97,99,138678
1.7351,0.2248,38.7100,97,99,138681
1.7498,0.2395,38.4900,97,99,138684
1.7107,0.2297,38.7100,97,99,138688
1.6862,0.2248,38.5800,97,99,138691
1.6422,0.2346,38.6800,97,99,138694
1.6178,0.2248,38.7100,97,99,138698
1.6276,0.2346,38.5200,97,99,138701
1.6031,0.2297,38.6200,97,99,138704
1.6227,0.2297,38.5500,97,99,138708
1.5934,0.2297,38.7100,97,99,138712
1.5885,0.2395,38.7100,97,99,138715
1.5982,0.2346,38.6200,97,99,138718
1.5885,0.2297,38.6800,97,99,138722
1.6129,0.2297,38.5200,97,99,138725
1.5934,0.2297,38.7100,97,99,138728
1.6080,0.2199,38.7100,97,99,138732
1.6422,0.2297,38.6200,97,99,138735
1.6422,0.2248,38.7100,97,99,138738
1.7009,0.2346,38.4600,97,99,138742
1.6862,0.2297,38.5800,97,99,138745
1.6764,0.2346,38.7100,97,99,138748
1.6764,0.2297,38.7100,97,99,138753
1.6276,0.2297,38.7100,97,99,138756
1.6080,0.2297,38.4000,97,99,138759
1.5298,0.2297,38.6500,97,99,138763
1.4858,0.2248,38.6800,97,99,138766
1.5005,0.2297,38.6800,97,99,138769
1.6080,0.2297,38.6800,97,99,138772
1.8964,0.2395,38.5200,97,99,138776
2.2483,0.2346,38.6200,97,99,138779
2.7273,0.2248,38.5800,97,99,138782
3.2356,0.2199,38.7100,97,99,138786
3.6022,0.2248,38.6200,97,99,138789
3.8270,0.2346,38.6200,97,99,138792
3.6119,0.2297,38.6800,97,99,138797
3.2893,0.2297,38.5800,97,99,138800
2.8104,0.2248,38.6800,97,99,138803
2.3900,0.2248,38.7100,97,99,138806
2.0674,0.2395,38.5200,97,99,138810
1.7840,0.2102,38.6800,97,99,138813
1.6178,0.2297,38.5800,97,99,138816
1.4858,0.2199,39.0600,97,99,138820
1.4467,0.2199,38.7100,97,99,138823
1.4516,0.2297,39.0300,97,99,138826
1.4516,0.2346,38.6800,97,99,138830
1.5054,0.2346,38.5200,97,99,138833
1.4809,0.2248,38.6500,97,99,138836
1.4907,0.2248,38.6500,97,99,138840
1.5347,0.2346,38.5800,97,99,138844
1.4761,0.2346,38.7400,97,99,138847
1.5200,0.2395,38.4600,97,99,138850
1.5054,0.2248,38.6500,97,99,138854
1.5347,0.2248,38.7100,97,99,138857
1.5591,0.2346,38.6800,97,99,138860
1.5836,0.2248,38.7100,97,99,138864
1.6422,0.2395,38.4000,97,99,138867
1.6227,0.2297,38.6500,97,99,138870
1.6276,0.2199,38.6500,97,99,138874
1.6471,0.2297,38.6800,97,99,138877
1.6569,0.2248,38.8700,97,99,138881
1.7107,0.2395,38.4900,97,99,138884
1.6862,0.2297,38.6200,97,99,138888
1.6862,0.2248,38.7100,97,99,138891
1.6911,0.2297,38.6800,97,99,138894
1.7204,0.2297,38.7100,97,99,138898
1.7693,0.2346,38.5200,97,99,138901
1.7937,0.2199,38.6800,97,99,138904
1.7937,0.2346,38.5500,97,99,138908
1.7742,0.2297,38.4900,97,99,138911
1.7791,0.2248,38.7100,97,99,138914
1.8084,0.2248,38.6200,97,99,138918
1.8084,0.2199,38.6800,97,99,138921
1.8719,0.2346,38.5800,97,99,138925
1.8231,0.2297,38.6800,97,99,138928
1.8426,0.2199,38.7100,97,99,138932
1.8719,0.2297,38.6800,97,99,138935
1.8964,0.2102,38.7100,97,99,138938
1.8964,0.2297,38.4900,97,99,138942
1.8719,0.2639,38.5800,97,99,138945
1.8719,0.2248,38.7100,97,99,138948
1.9013,0.2297,38.5800,97,99,138952
1.9159,0.2199,38.7100,97,99,138955
1.9550,0.2346,38.4900,97,99,138958
2.0626,0.2395,38.5500,96,99,138962
2.0235,0.2297,38.6200,96,99,138966
2.0137,0.2297,38.5800,96,99,138970
2.0137,0.2297,38.7100,96,99,138973
2.0283,0.2248,38.7400,96,99,138976
2.0723,0.2395,38.6200,96,99,138979
2.0674,0.2297,38.6800,96,99,138983
2.1114,0.2297,38.6500,96,99,138986
2.1212,0.2346,38.6800,96,99,138989
2.1505,0.2248,37.8300,96,99,138993
2.2043,0.2639,38.5500,96,99,138996
2.1799,0.2297,38.6800,96,99,138999
2.2092,0.2346,38.5800,96,99,139003
2.1701,0.2199,38.6500,96,99,139006
2.1701,0.2199,38.7100,96,99,139010
2.1945,0.2297,38.6200,96,99,139013
2.1701,0.2248,38.6800,96,99,139017
2.1994,0.2297,38.5200,96,99,139020
2.1750,0.2346,38.6200,96,99,139023
2.1848,0.2248,38.7100,96,99,139027
2.2141,0.2346,38.6500,96,99,139030
2.2092,0.2639,38.6800,96,99,139033
2.2678,0.2346,38.4300,96,99,139037
2.2190,0.2248,38.6500,96,99,139040
2.2141,0.2346,38.7100,96,99,139043
2.1994,0.2297,38.6800,96,99,139047
2.1505,0.2248,38.7100,96,99,139051
2.2043,0.2346,38.4300,96,99,139054
2.1163,0.2297,38.5800,96,99,139057
2.0870,0.2199,38.6500,96,99,139061
2.1163,0.2199,38.6800,96,99,139064
2.0772,0.2297,38.7100,96,99,139067
2.1359,0.2444,38.7700,96,99,139071
2.1017,0.2346,38.6200,96,99,139074
2.0968,0.2248,38.6500,96,99,139077
2.0772,0.2297,38.6500,96,99,139081
2.0577,0.2199,38.6800,96,99,139084
2.0870,0.2346,38.5500,96,99,139087
2.0772,0.2297,38.1100,96,99,139090
2.1065,0.2297,38.5800,96,99,139095
2.0968,0.2199,38.7100,96,99,139098
2.0870,0.2248,38.8100,96,99,139101
2.0968,0.2395,38.6500,96,99,139105
2.0772,0.2346,38.6800,96,99,139108
2.0968,0.2297,38.5800,96,99,139111
2.0674,0.2346,38.6800,96,99,139115
2.0870,0.2297,38.7100,96,99,139118
2.1163,0.2297,38.5500,96,99,139121
2.0968,0.2248,38.7100,96,99,139124
2.1359,0.2297,38.5200,96,99,139128
2.1212,0.2248,38.1800,96,99,139131
2.1163,0.2493,38.6800,96,99,139134
2.1408,0.2395,38.6200,96,99,139139
2.1163,0.2297,38.7100,96,99,139142
2.1799,0.2346,38.4600,96,99,139145
2.1261,0.2297,37.8000,96,99,139149
2.1212,0.2590,38.7400,96,99,139152
2.1408,0.2346,38.6500,96,99,139155
2.1310,0.2297,38.7100,96,99,139158
2.1848,0.2346,38.3600,96,99,139162
2.1359,0.2297,38.6200,96,99,139165
2.1261,0.2248,38.6500,96,99,139168
2.1261,0.2346,38.6800,96,99,139172
2.0919,0.2297,38.7400,96,99,139175
2.1457,0.2395,38.4900,96,99,139179
2.1017,0.2297,38.6500,96,99,139183
2.0968,0.2395,38.6200,96,99,139186
2.0919,0.2297,38.6800,96,99,139189
2.0968,0.2297,38.6500,96,99,139193
2.1359,0.2297,38.5200,96,99,139196
2.1017,0.2297,38.7400,96,99,139199
2.1163,0.2297,38.5200,96,99,139202
2.0919,0.2199,38.6800,96,99,139206
2.1114,0.2248,38.7100,96,99,139209
2.1554,0.2297,38.5800,96,99,139212
2.1603,0.2297,38.6800,96,99,139216
2.1994,0.2346,38.5800,96,99,139219
2.1750,0.2297,38.6500,96,99,139223
2.1945,0.2248,38.7100,96,99,139227
2.2190,0.2297,38.4900,96,99,139230
2.2141,0.2346,38.6800,96,99,139233
2.2581,0.2297,38.5200,96,99,139237
2.2336,0.2297,38.8400,96,99,139240
2.2483,0.2297,38.7100,96,99,139243
2.2825,0.2346,38.6200,96,99,139246
2.2923,0.2199,38.7100,96,99,139250
2.3363,0.2346,38.4600,96,99,139253
2.3118,0.2297,38.7700,96,99,139256
2.2972,0.2297,38.7100,96,99,139260
2.3021,0.2395,38.6500,96,99,139264
2.2678,0.2199,38.7100,96,99,139267
2.3069,0.2297,38.4300,96,99,139271
2.2239,0.2297,38.5200,96,99,139274
2.1848,0.2248,38.6800,96,99,139277
2.1408,0.2297,38.6800,96,99,139281
2.1065,0.2248,38.7100,96,99,139284
2.1701,0.2395,38.5500,96,99,139287
2.0821,0.2297,38.6500,96,99,139290
2.0674,0.2248,38.6200,96,99,139294
2.0577,0.2199,38.7100,96,99,139297
2.0283,0.2248,38.6500,96,99,139300
2.0381,0.2639,38.6200,96,99,139304
2.0088,0.2102,38.6800,96,99,139308
2.0039,0.2346,38.5500,96,99,139311
1.9697,0.2297,38.6800,96,99,139315
1.9795,0.2102,38.7100,96,99,139318
2.0137,0.2395,38.5500,96,99,139321
1.9844,0.2248,38.6800,96,99,139324
2.0088,0.2346,38.5800,96,99,139328
1.9697,0.2199,38.6500,96,99,139331
1.9746,0.2248,38.7400,96,99,139334
1.9990,0.2346,38.5500,96,99,139338
1.9892,0.2248,38.6800,96,99,139341
2.0235,0.2248,38.5200,96,99,139344
1.9990,0.2248,38.6200,96,99,139348
1.9892,0.2248,38.8100,96,99,139352
1.9844,0.2346,38.6200,96,99,139355
1.9306,0.2248,38.7100,96,99,139358
1.9355,0.2346,38.4600,96,99,139362
1.8377,0.2248,38.6500,96,99,139365
1.8328,0.2248,38.7700,96,99,139368
1.9208,0.2346,38.6500,96,99,139372
2.1359,0.2297,38.7700,96,99,139375
2.5758,0.2395,38.4000,96,99,139378
3.0059,0.2346,38.6200,96,99,139382
3.5093,0.2248,38.6800,96,99,139385
3.9150,0.2444,38.6500,96,99,139388
4.0714,0.2248,38.7100,96,99,139393
4.0420,0.2297,38.5200,96,99,139396
3.6315,0.2297,38.6200,96,99,139399
3.1720,0.2297,38.6200,96,99,139402
2.7126,0.2297,38.7100,96,99,139406
2.3265,0.2248,38.6200,96,99,139409
2.0723,0.2346,38.5500,96,99,139412
1.8622,0.2297,38.6800,96,99,139416
1.7791,0.2542,38.5500,96,99,139419
1.7107,0.2297,38.7100,96,99,139422
1.6911,0.2248,38.6800,96,99,139426
1.7058,0.2297,38.6200,96,99,139429
1.7155,0.2297,38.5800,96,99,139432
1.7546,0.2346,38.6800,96,99,139436
1.7351,0.2248,38.8100,96,99,139440
1.7449,0.2248,38.6800,96,99,139443
1.7644,0.2346,38.5800,96,99,139446
1.7644,0.2151,38.6800,96,99,139450
1.8182,0.2346,38.4600,96,99,139453
1.8182,0.2297,38.6200,96,99,139456
1.8377,0.2248,38.7100,96,99,139460
1.8671,0.2346,38.6200,96,99,139463
1.8573,0.2297,38.6800,96,99,139466
1.9159,0.2346,38.4300,96,99,139470
1.8817,0.2346,38.6800,96,99,139473
1.8866,0.2248,38.7100,96,99,139476
1.8964,0.2297,38.5500,96,99,139481
1.9013,0.2248,38.7100,96,99,139484
1.9599,0.2444,38.4000,96,99,139487
1.9159,0.2297,38.6200,96,99,139490
1.9013,0.2151,38.6500,96,99,139494
1.8915,0.2297,38.6800,96,99,139497
1.8915,0.2199,38.7100,96,99,139500
1.9404,0.2395,38.5800,96,99,139504
1.9208,0.2297,38.6800,96,99,139507
1.9746,0.2346,38.5500,96,99,139510
1.9453,0.2248,38.7100,96,99,139514
1.9599,0.2199,38.7100,96,99,139517
1.9844,0.2346,38.5800,96,99,139521
1.9941,0.2102,38.6800,96,99,139525
1.9892,0.2297,38.6200,96,99,139528
1.9697,0.2199,38.6500,96,99,139531
1.9892,0.2248,38.6500,96,99,139534
2.0039,0.2297,38.6800,96,99,139538
1.9892,0.2297,38.6800,96,99,139541
2.0235,0.2346,38.5200,96,99,139544
2.0039,0.2248,38.6500,96,99,139548
2.0283,0.2248,38.7700,96,99,139551
2.0723,0.2297,38.5500,96,99,139554
2.0674,0.2248,38.7100,96,99,139558
2.1212,0.2346,38.4600,96,99,139561
2.0772,0.2346,38.6800,96,99,139565
2.0968,0.2199,38.7100,96,99,139568
2.0968,0.2297,38.6800,96,99,139572
2.1163,0.2297,38.6800,96,99,139576
2.1310,0.2248,38.7100,96,99,139580
2.2141,0.2346,38.4900,96,99,139583
2.1505,0.2297,38.6500,96,99,139586
2.1554,0.2542,38.5500,96,99,139590
2.1554,0.2248,38.6500,96,99,139593
2.1701,0.2248,38.8100,96,99,139596
2.2190,0.2346,38.5200,96,99,139600
2.1994,0.2297,38.6800,96,99,139603
2.2239,0.2297,38.5500,96,99,139607
2.1896,0.2248,38.7100,96,99,139611
2.1945,0.2248,38.7400,96,99,139614
2.2092,0.2199,38.6200,96,99,139617
2.1994,0.2346,38.7100,96,99,139620
2.2239,0.2248,38.5200,96,99,139624
2.1848,0.2297,38.6800,96,99,139627
2.1848,0.2248,38.8400,96,99,139630
2.2385,0.2346,38.5800,96,99,139634
2.1945,0.2248,38.6200,96,99,139637
2.2385,0.2346,38.4600,96,99,139640
2.1994,0.2297,38.6200,96,99,139644
2.1505,0.2297,38.6500,96,99,139648
2.1408,0.2346,38.6200,96,99,139651
2.0919,0.2248,38.6800,96,99,139655
2.1310,0.2346,38.3600,96,99,139658
2.0772,0.2297,38.6200,96,99,139661
2.0626,0.2248,38.7100,96,99,139664
2.0626,0.2297,38.6500,96,99,139668
2.0577,0.2297,38.6800,96,99,139671
2.1114,0.2444,38.4600,96,99,139674
2.0479,0.2346,38.6800,96,99,139678
2.0430,0.2199,38.6500,96,99,139681
1.9990,0.2297,38.7100,96,99,139684
1.9892,0.2346,38.7100,96,99,139688
2.0235,0.2395,38.5800,96,99,139692
1.9941,0.2248,38.6500,96,99,139695
1.9990,0.2248,38.5200,96,99,139698
1.9892,0.2297,38.6800,96,99,139702
2.0039,0.2248,38.6500,96,99,139705
2.0479,0.2346,38.5500,96,99,139708
2.0332,0.2297,38.6800,96,99,139712
2.0577,0.2297,38.5500,96,99,139715
2.0235,0.2297,38.7400,96,99,139718
2.0283,0.2248,38.6800,96,99,139722
2.0528,0.2346,38.5800,96,99,139725
2.0186,0.2297,38.5200,96,99,139728
2.0381,0.2248,38.5200,96,99,139731
1.9941,0.2248,38.6500,96,99,139736
1.9941,0.2248,38.9300,96,99,139739
2.0039,0.2346,38.5500,96,99,139742
1.9844,0.2297,38.7100,96,99,139746
2.0088,0.2297,38.4000,96,99,139749
1.9697,0.2248,38.7100,96,99,139752
1.9795,0.2248,38.7100,96,99,139756
1.9990,0.2346,38.4900,96,99,139759
1.9746,0.2199,38.6800,96,99,139762
2.0283,0.2346,38.4300,96,99,139765
1.9892,0.2297,38.5800,96,99,139769
1.9746,0.2297,38.6800,96,99,139772
1.9795,0.2297,38.6800,96,99,139776
1.9648,0.2346,38.6800,96,99,139780
2.0381,0.2444,38.4300,96,99,139783
2.0039,0.2297,38.4300,96,99,139786
1.9795,0.2199,38.6500,96,99,139790
1.9648,0.2297,38.6800,96,99,139793
1.9355,0.2248,38.8100,96,99,139796
1.9746,0.2395,38.5500,96,99,139800
1.9453,0.2297,38.8100,96,99,139803
1.9550,0.2297,38.5800,96,99,139806
1.9404,0.2248,38.6800,96,99,139809
1.9404,0.2248,38.7100,96,99,139813
1.9844,0.2395,38.6200,96,99,139816
1.9599,0.2346,38.6800,96,99,139820
1.9941,0.2297,38.5500,96,99,139824
1.9746,0.2297,38.7100,96,99,139827
1.9795,0.2248,38.7700,96,99,139830
2.0088,0.2444,38.5800,96,99,139834
1.9941,0.2346,38.6800,96,99,139837
2.0332,0.2248,38.5200,96,99,139840
2.0186,0.2493,38.6200,96,99,139843
2.0723,0.2297,38.6800,96,99,139847
2.0870,0.2297,38.5500,96,99,139850
2.0821,0.2297,38.7100,96,99,139853
2.1359,0.2346,38.4600,96,99,139857
2.1261,0.2297,38.6200,96,99,139860
2.1261,0.2493,38.7100,96,99,139864
2.1457,0.2346,38.6200,96,99,139868
2.1017,0.2248,38.6800,96,99,139871
2.1261,0.2297,38.4000,96,99,139874
2.0479,0.2248,38.6500,96,99,139878
2.0137,0.2248,38.6200,96,99,139881
1.9795,0.2248,38.6800,96,99,139884
1.9257,0.2248,38.6500,96,99,139887
1.9355,0.2493,38.4300,96,99,139891
1.8524,0.2297,38.6800,96,99,139894
1.8182,0.2248,38.6200,96,99,139897
1.7889,0.2297,38.7100,96,99,139901
1.7693,0.2248,38.6800,96,99,139905
1.8133,0.2346,38.5200,96,99,139908
1.7693,0.2297,38.5200,96,99,139912
1.7693,0.2346,38.5800,96,99,139915
1.7546,0.2297,38.7100,96,99,139918
1.7546,0.2297,38.7100,96,99,139922
1.7889,0.2297,38.5500,96,99,139925
1.7742,0.2297,38.6800,96,99,139928
1.8084,0.2297,38.5800,96,99,139931
1.7840,0.2297,38.7100,96,99,139935
1.7986,0.2248,38.6800,96,99,139938
1.8182,0.2297,38.3600,96,99,139941
1.8182,0.2297,38.7100,96,99,139945
1.8280,0.2297,38.5500,96,99,139949
1.7693,0.2102,38.6800,96,99,139952
1.7644,0.2248,38.8400,96,99,139956
1.7693,0.2346,38.6200,96,99,139959
1.7351,0.2297,38.6500,96,99,139962
1.7400,0.2346,38.4600,96,99,139966
1.6716,0.2297,38.6200,96,99,139969
1.6422,0.2248,38.7100,96,99,139972
1.6569,0.2297,38.6500,96,99,139975
1.7351,0.2297,38.7400,96,99,139979
2.0235,0.2395,38.4000,96,99,139982
2.3754,0.2297,38.6200,96,99,139985
2.8495,0.2248,38.6800,96,99,139990
3.3724,0.2297,38.6800,96,99,139993
3.7439,0.2248,38.6800,96,99,139996
3.9736,0.2444,38.5200,96,99,140000
3.7586,0.2297,38.7400,96,99,140003
3.3920,0.2297,38.5800,96,99,140006
2.9472,0.2297,38.7100,96,99,140010
2.5073,0.2395,38.7100,96,99,140013
2.1652,0.2346,38.5800,96,99,140016
1.8671,0.2297,38.6800,96,99,140019
1.6911,0.2346,38.5500,96,99,140023
1.5640,0.2297,38.7100,96,99,140026
1.5054,0.2248,38.7100,96,99,140029
1.5054,0.2346,38.5800,96,99,140034
1.4761,0.2297,38.6500,96,99,140037
1.5249,0.2297,38.5500,96,99,140040
1.4761,0.2248,38.6500,96,99,140044
1.4956,0.2493,38.7100,96,99,140047
1.5298,0.2346,38.6200,96,99,140050
1.5298,0.2199,38.7100,96,99,140054
1.5689,0.2346,38.4900,96,99,140057
1.5543,0.2297,38.6200,96,99,140060
1.5494,0.2297,38.6800,96,99,140064
1.5738,0.2297,38.6500,96,99,140067
1.5640,0.2297,38.6800,96,99,140070
1.6227,0.2346,38.4300,96,99,140073
1.5934,0.2248,38.6500,96,99,140078
1.6178,0.2248,38.7100,96,99,140081
1.6422,0.2297,38.9000,96,99,140084
1.6764,0.2102,38.7100,96,99,140088
1.7155,0.2444,38.4900,96,99,140091
1.6764,0.2444,38.6500,96,99,140094
1.6716,0.2346,38.6200,96,99,140098
1.6764,0.2248,38.6800,96,99,140101
1.6862,0.2102,38.6800,96,99,140104
1.7155,0.2346,38.5200,96,99,140108
1.7009,0.2346,38.6500,96,99,140111
1.7058,0.2297,38.5800,96,99,140114
1.6911,0.2346,38.7400,96,99,140118
1.6960,0.2297,38.7100,96,99,140122
1.7253,0.2346,38.5200,96,99,140125
1.7107,0.2248,38.6800,96,99,140128
1.7400,0.2346,38.5800,96,99,140132
1.7302,0.2297,38.8100,96,99,140135
1.7546,0.2248,38.6800,96,99,140138
1.7742,0.2297,38.6200,96,99,140142
1.7644,0.2297,38.7100,96,99,140145
1.8133,0.2346,38.4900,96,99,140148
1.7595,0.2297,38.9300,96,99,140152
1.7742,0.2199,38.7100,96,99,140155
1.7986,0.2346,38.6500,96,99,140158
1.7986,0.2297,38.7100,96,99,140162
1.8622,0.2297,38.4300,96,99,140166
1.8524,0.2297,38.6200,96,99,140169
1.8719,0.2199,38.6800,96,99,140172
1.8622,0.2297,38.6500,96,99,140176
1.8622,0.2248,38.6800,96,99,140179
1.9257,0.2395,38.3600,96,99,140182
1.9159,0.2297,38.6200,96,99,140187
1.8964,0.2199,38.6800,96,99,140190
1.9257,0.2346,38.5500,96,99,140194
1.9062,0.2297,38.8400,96,99,140197
1.9159,0.2102,38.7100,96,99,140200
1.9404,0.2297,38.6200,96,99,140205
1.9453,0.2248,38.6800,96,99,140208
1.9844,0.2297,38.5800,96,99,140211
1.9648,0.2346,38.6800,96,99,140214
2.0137,0.2199,38.7100,96,99,140218
2.0137,0.2346,38.5800,96,99,140221
1.9844,0.2346,38.6800,96,99,140224
2.0137,0.2346,38.4900,96,99,140228
1.9795,0.2297,38.5800,96,99,140231
1.9697,0.2248,38.7400,96,99,140234
1.9941,0.2395,38.5800,96,99,140238
1.9648,0.2297,38.8400,96,99,140241
1.9990,0.2346,38.4300,96,99,140244
1.9599,0.2248,38.6200,96,99,140249
1.9404,0.2248,38.6800,96,99,140252
1.9550,0.2346,38.6500,96,99,140255
1.9110,0.2297,38.7100,96,99,140258
1.9404,0.2395,38.3600,96,99,140262
1.8719,0.2297,38.5800,96,99,140265
1.8475,0.2248,38.6500,96,99,140268
1.8719,0.2346,38.6800,96,99,140272
1.8328,0.2639,38.7400,96,99,140275
1.8622,0.2395,38.5200,96,99,140278
1.8328,0.2297,38.6500,96,99,140282
1.8231,0.2346,38.5800,96,99,140285
1.7937,0.2297,38.8400,96,99,140289
1.7937,0.2346,38.6800,96,99,140293
1.8133,0.2297,38.5200,96,99,140296
1.7791,0.2297,38.6500,96,99,140299
1.8133,0.2346,38.5500,96,99,140302
1.7986,0.2297,38.6500,96,99,140306
1.8084,0.2248,38.7100,96,99,140309
1.8328,0.2297,38.5800,96,99,140312
1.8035,0.2297,38.6800,96,99,140316
1.8475,0.2346,38.5500,96,99,140319
1.7986,0.2248,38.6500,96,99,140322
1.8035,0.2297,38.6800,96,99,140326
1.8182,0.2346,38.5500,96,99,140329
1.8133,0.2297,38.9300,96,99,140333
1.8573,0.2346,38.4600,96,99,140337
1.8182,0.2248,38.6500,96,99,140340
1.8426,0.2248,38.6800,96,99,140343
1.8573,0.2297,38.6200,96,99,140346
1.8328,0.2444,38.7100,96,99,140350
1.8915,0.2395,38.4300,96,99,140353
1.8573,0.2297,38.6800,96,99,140356
1.8426,0.2297,38.7400,96,99,140360
1.8426,0.2297,38.6800,96,99,140363
1.8182,0.2297,38.6800,96,99,140366
1.8817,0.2444,38.4900,96,99,140370
1.8182,0.2395,38.6200,96,99,140374
1.8035,0.2590,38.6200,96,99,140377
1.7986,0.2199,38.6800,96,99,140381
1.7791,0.2297,38.8100,96,99,140384
1.8133,0.2493,38.5800,96,99,140387
1.7937,0.2297,38.6500,96,99,140390
1.8035,0.2297,38.5800,96,99,140394
1.7791,0.2297,38.6800,96,99,140397
1.7742,0.2297,38.5500,96,99,140400
1.7840,0.2346,38.6500,96,99,140404
1.7595,0.2297,38.6800,96,99,140407
1.7742,0.2346,38.5200,96,99,140410
1.7498,0.2297,38.6800,96,99,140414
1.7644,0.2297,38.6800,96,99,140418
1.7937,0.2346,38.5800,96,99,140421
1.7840,0.2297,38.7100,96,99,140425
1.8328,0.2346,38.5200,96,99,140428
1.8035,0.2297,38.5800,96,99,140431
1.8182,0.2297,38.7100,96,99,140434
1.8573,0.2297,38.5800,96,99,140438
1.8475,0.2297,38.6800,96,99,140441
1.8915,0.2346,38.4600,96,99,140444
1.8622,0.2297,38.6200,96,99,140448
1.8377,0.2297,38.9000,96,99,140451
1.8475,0.2248,38.6500,96,99,140454
1.8524,0.2102,38.7100,96,99,140459
1.9208,0.2395,38.5800,96,99,140462
1.9453,0.2346,38.5500,96,99,140465
1.9501,0.2248,38.6800,96,99,140469
1.9795,0.2590,38.6500,96,99,140472
1.9892,0.2297,38.7100,96,99,140475
2.0283,0.2444,38.5200,96,99,140478
1.9795,0.2346,38.6800,96,99,140482
1.9550,0.2297,38.6200,96,99,140485
1.9013,0.2590,38.6500,96,99,140488
1.8622,0.2395,38.6800,96,99,140492
1.8622,0.2395,38.6200,96,99,140495
1.8084,0.2346,38.6500,96,99,140498
1.7889,0.2297,38.5800,96,99,140503
1.7253,0.2297,38.6800,96,99,140506
1.6960,0.2102,38.7100,96,99,140509
1.6960,0.2395,38.8100,96,99,140513
1.6716,0.2542,38.6800,96,99,140516
1.7058,0.2346,38.5800,96,99,140519
1.6716,0.2248,38.6500,96,99,140522
1.6716,0.2297,38.7100,96,99,140526
1.6618,0.2297,38.5500,96,99,140529
1.6471,0.2297,38.7100,96,99,140532
1.6618,0.2346,38.4600,96,99,140536
1.6276,0.2102,38.7100,96,99,140539
1.6276,0.2297,38.7400,96,99,140542
1.6422,0.2444,38.6500,96,99,140547
1.6276,0.2297,38.7100,96,99,140550
1.6716,0.2346,38.4000,96,99,140553
1.6813,0.2346,38.5800,96,99,140557
1.6520,0.2297,38.7100,96,99,140560
1.6618,0.2248,38.6500,96,99,140563
1.6716,0.2297,38.7100,96,99,140566
1.7302,0.2493,38.9600,96,99,140570
1.6960,0.2395,38.5800,96,99,140573
1.6325,0.2248,38.6200,96,99,140576
1.5787,0.2346,38.6800,96,99,140580
1.5396,0.2102,38.7100,96,99,140583
1.5494,0.2346,38.5200,96,99,140587
1.6031,0.2395,38.6800,96,99,140591
1.8377,0.2346,38.5800,96,99,140594
2.1945,0.2297,38.5800,96,99,140597
2.6931,0.2297,38.7100,96,99,140601
3.2356,0.2297,38.6500,96,99,140604
3.6315,0.2199,38.6800,96,99,140607
3.8416,0.2297,38.5500,96,99,140610
3.6364,0.2199,38.6800,96,99,140614
3.2796,0.2297,38.7100,96,99,140617
2.8641,0.2395,38.5800,96,99,140620
2.3851,0.2297,38.7100,96,99,140624
2.0430,0.2297,37.6500,96,99,140627
1.7595,0.2248,38.6200,96,99,140631
1.5885,0.2297,38.7100,96,99,140635
1.4956,0.2395,38.5800,96,99,140638
1.4272,0.2297,38.6800,96,99,140641
1.4321,0.2346,38.4600,96,99,140645
1.4076,0.2346,38.6200,96,99,140648
1.4027,0.2297,38.7100,96,99,140651
1.4076,0.2346,38.1500,96,99,140654
1.3881,0.2297,38.7400,96,99,140658
1.4516,0.2395,38.4000,96,99,140661
1.3930,0.2297,38.5500,96,99,140664
1.4125,0.2297,38.6500,96,99,140668
1.4272,0.2346,38.6500,96,99,140672
1.4370,0.2199,38.6800,96,99,140675
1.4809,0.2444,38.5500,96,99,140679
1.4663,0.2297,38.6500,96,99,140682
1.5054,0.2346,38.5800,96,99,140685
1.4614,0.2297,38.6500,96,99,140689
1.4761,0.2199,38.7100,96,99,140692
1.5005,0.2395,38.6500,96,99,140695
1.4809,0.2346,38.6500,96,99,140698
1.4956,0.2346,38.5500,96,99,140702
1.4907,0.2297,38.8100,96,99,140705
1.5103,0.2444,38.7100,96,99,140708
1.5543,0.2346,38.5800,96,99,140712
1.5591,0.2346,38.6800,96,99,140716
1.6031,0.2346,38.5500,96,99,140719
1.5787,0.2248,38.7700,96,99,140723
1.5836,0.2395,38.7100,96,99,140726
1.5982,0.2297,38.5800,96,99,140729
1.5885,0.2297,38.6800,96,99,140733
1.6276,0.2248,38.4900,96,99,140736
1.6031,0.2297,38.6800,96,99,140739
1.6080,0.2346,38.6800,96,99,140742
1.6227,0.2346,38.6500,96,99,140746
1.6178,0.2248,38.7400,96,99,140749
1.6764,0.2346,38.4300,96,99,140752
1.6569,0.2346,38.5500,96,99,140756
1.6471,0.2199,38.7400,96,99,140760
1.6569,0.2346,38.6800,96,99,140763
1.6618,0.2444,38.6800,96,99,140767
1.7204,0.2493,38.4600,96,99,140770
1.6960,0.2297,38.6500,96,99,140773
1.6960,0.2248,38.6800,96,99,140777
1.7058,0.2346,38.6800,96,99,140780
1.7302,0.2297,38.7100,96,99,140783
1.7840,0.2444,38.5500,96,99,140786
1.7644,0.2297,38.6200,96,99,140790
1.7742,0.2297,38.5800,96,99,140793
1.7546,0.2248,38.6800,96,99,140796
1.7889,0.2297,38.6800,96,99,140802
1.8182,0.2297,38.9300,96,99,140805
1.8573,0.2346,38.5800,96,99,140809
1.8426,0.2248,38.6800,96,99,140812
1.8768,0.2248,38.4600,96,99,140815
1.8622,0.2297,38.5800,96,99,140819
1.8524,0.2297,38.5800,96,99,140822
1.8866,0.2395,38.6200,96,99,140825
1.8719,0.2297,37.9600,96,99,140829
1.9208,0.2346,38.4000,96,99,140832
1.8866,0.2297,38.5800,96,99,140835
1.8915,0.2297,38.5800,96,99,140838
1.9110,0.2346,38.6800,96,99,140843
1.8915,0.2297,38.7100,96,99,140846
1.9306,0.2542,38.5500,96,99,140849
1.8622,0.2346,38.6200,96,99,140853
1.8426,0.2297,37.8300,96,99,140856
1.8182,0.2346,38.6800,96,99,140859
1.8035,0.2297,38.7400,96,99,140863
1.8328,0.2444,38.5500,96,99,140866
1.8035,0.2297,38.6800,96,99,140869
1.7937,0.2346,38.5800,96,99,140873
1.7937,0.2346,38.6800,96,99,140876
1.7351,0.2297,38.6800,96,99,140879
1.7498,0.2346,38.5500,96,99,140882
1.7155,0.2297,38.6800,96,99,140887
1.7253,0.2346,38.5500,96,99,140890
1.6911,0.2199,38.7100,96,99,140893
1.6911,0.2297,38.7100,96,99,140897
1.7253,0.2346,38.5500,96,99,140900
1.7058,0.2297,38.7700,96,99,140903
1.7253,0.2297,38.3300,96,99,140907
1.6911,0.2297,38.6200,96,99,140910
1.6764,0.2297,38.8100,96,99,140913
1.7253,0.2346,38.5800,96,99,140917
1.6862,0.2297,38.6800,96,99,140920
1.7302,0.2346,38.4600,96,99,140923
1.7107,0.2102,38.6800,96,99,140926
1.7302,0.2297,38.6800,96,99,140931
1.7546,0.2639,38.6500,96,99,140934
1.7449,0.2297,38.7100,96,99,140937
1.7889,0.2639,38.4000,96,99,140941
1.7449,0.2346,38.5800,96,99,140944
1.7204,0.2248,38.7100,96,99,140947
1.7155,0.2346,38.6500,96,99,140951
1.7204,0.2297,38.6800,96,99,140954
1.7742,0.2444,38.4900,96,99,140957
1.7546,0.2395,38.6200,96,99,140961
1.7595,0.2297,38.7700,96,99,140964
1.7595,0.2346,38.6800,96,99,140967
1.7449,0.2297,38.7100,96,99,140971
1.7498,0.2493,38.5200,96,99,140975
1.7058,0.2346,38.6800,96,99,140978
1.7351,0.2297,38.7400,96,99,140981
1.7302,0.2346,38.6800,96,99,140985
1.7302,0.2297,38.7100,96,99,140988
1.7351,0.2346,38.6200,96,99,140991
1.7204,0.2297,38.7700,96,99,140995
1.7449,0.2346,38.7400,96,99,140998
1.7155,0.2346,38.7100,96,99,141001
1.7107,0.2297,38.7100,96,99,141005
1.7351,0.2444,38.5500,96,99,141008
1.7155,0.2542,38.6800,96,99,141011
1.7595,0.2346,38.4600,96,99,141016
1.7302,0.2297,38.8100,96,99,141019
1.7253,0.2346,38.7100,96,99,141022
1.7351,0.2395,38.9000,96,99,141025
1.7058,0.2346,38.8100,96,99,141029
1.7498,0.2395,38.4300,96,99,141032
1.6862,0.2297,38.6200,96,99,141035
1.6911,0.2199,38.7100,96,99,141039
1.6813,0.2346,38.9000,96,99,141042
1.6813,0.2297,38.6500,96,99,141045
1.7595,0.2493,38.4600,96,99,141049
1.7155,0.2346,38.5800,96,99,141052
1.7302,0.2346,38.6800,96,99,141056
1.7302,0.2297,38.7100,96,99,141060
1.7400,0.2346,38.6800,96,99,141063
1.7889,0.2395,38.5800,96,99,141066
1.7742,0.2346,38.7400,96,99,141069
1.7986,0.2346,38.5500,96,99,141073
1.7937,0.2297,37.9900,96,99,141076
1.7986,0.2493,38.7100,96,99,141079
1.8426,0.2395,38.5200,96,99,141083
1.8328,0.2297,38.6500,96,99,141086
1.8817,0.2395,38.5800,96,99,141089
1.8817,0.2248,38.6800,96,99,141093
1.9013,0.2297,38.6800,96,99,141096
1.9257,0.2346,38.5500,96,99,141100
1.9110,0.2297,38.6800,96,99,141104
1.9599,0.2346,38.5200,96,99,141107
1.8671,0.2297,38.6200,96,99,141110
1.8475,0.2346,38.6800,96,99,141113
1.8377,0.2297,38.6200,96,99,141117
1.8133,0.2542,38.6800,96,99,141120
1.8426,0.2346,38.4300,96,99,141123
1.7595,0.2639,38.6200,96,99,141127
1.7253,0.2102,38.6800,96,99,141130
1.6813,0.2346,38.5200,96,99,141133
1.6618,0.2297,38.6800,96,99,141137
1.6667,0.2395,38.4300,96,99,141140
1.6276,0.2346,38.6200,96,99,141144
1.6178,0.2248,38.6800,96,99,141148
1.5982,0.2346,38.7100,96,99,141151
1.5885,0.2346,38.6800,96,99,141154
1.6373,0.2395,38.4900,96,99,141157
1.6129,0.2395,38.6500,96,99,141161
1.6227,0.2346,38.5800,96,99,141164
1.6129,0.2297,38.6500,96,99,141167
1.6129,0.2297,38.7100,96,99,141171
1.6373,0.2297,38.5500,96,99,141174
1.6178,0.2297,38.6200,96,99,141177
1.6764,0.2346,38.5500,96,99,141181
1.6325,0.2297,38.6800,96,99,141185
1.6325,0.2395,38.7100,96,99,141188
1.6422,0.2297,38.6200,96,99,141192
1.6325,0.2297,38.6800,96,99,141195
1.6618,0.2346,38.5500,96,99,141198
1.6031,0.2297,38.6500,96,99,141201
1.5640,0.2248,38.6800,96,99,141205
1.5396,0.2297,38.5800,96,99,141208
1.4956,0.2444,38.6800,96,99,141211
1.5494,0.2346,38.4600,96,99,141215
1.6618,0.2346,38.5800,96,99,141218
1.9159,0.2297,38.7100,96,99,141221
2.3460,0.2395,38.6200,96,99,141225
2.8152,0.2297,38.8100,96,99,141229
3.3724,0.2493,38.4300,96,99,141232
3.6413,0.2297,38.5800,96,99,141236
3.6657,0.2297,38.6500,96,99,141239
3.4604,0.2346,38.6500,96,99,141242
3.0499,0.2346,38.7100,96,99,141245
2.6833,0.2493,38.4600,96,99,141249
2.2190,0.2346,38.5800,96,99,141252
1.8719,0.2248,38.6500,96,99,141255
1.6373,0.2346,38.6800,96,99,141259
1.4907,0.2297,38.7100,96,99,141262
1.4565,0.2688,38.5500,96,99,141265
1.3978,0.2346,38.6500,96,99,141270
1.3783,0.2297,38.5800,96,99,141273
1.3832,0.2346,38.6800,96,99,141276
1.3392,0.2297,38.7100,96,99,141280
1.3636,0.2395,38.5200,96,99,141283
1.3392,0.2297,38.7100,96,99,141286
1.3587,0.2542,38.5200,96,99,141289
1.3685,0.2346,38.6800,96,99,141293
1.3832,0.2297,38.7100,96,99,141296
1.4272,0.2248,38.5500,96,99,141299
1.4272,0.2346,38.7100,96,99,141303
1.4565,0.2346,38.5200,96,99,141306
1.4467,0.2346,38.6500,96,99,141309
1.4565,0.2297,37.9900,96,99,141314
1.4663,0.2395,38.5800,96,99,141317
1.4565,0.2346,38.6800,96,99,141320
1.5054,0.2297,38.4600,96,99,141323
1.4858,0.2297,38.6500,96,99,141327
1.5103,0.2346,38.7100,96,99,141330
1.5298,0.2297,38.7700,96,99,141333
1.5347,0.2346,38.7100,96,99,141337
1.5934,0.2395,38.4000,96,99,141340
1.5689,0.2395,38.6200,96,99,141343
1.5640,0.2248,38.6800,96,99,141347
1.5787,0.2346,38.5200,96,99,141350
1.5885,0.2346,38.6800,96,99,141353
1.6471,0.2542,38.5200,96,99,141358
1.6325,0.2444,38.6200,96,99,141361
1.6227,0.2248,38.5800,96,99,141364
1.6178,0.2297,38.7700,96,99,141367
1.6227,0.2688,38.6800,96,99,141371
1.6520,0.2395,38.5500,96,99,141374
1.6373,0.2346,38.6200,96,99,141377
1.6569,0.2346,38.5500,96,99,141381
1.6422,0.2346,38.6800,96,99,141384
1.6471,0.2346,38.7100,96,99,141387
1.6667,0.2297,38.6200,96,99,141391
1.6667,0.2346,38.7100,96,99,141394
1.7351,0.2346,38.5800,96,99,141398
1.6813,0.2297,38.5200,96,99,141402
1.7058,0.2542,38.7100,96,99,141405
1.7449,0.2297,38.5800,96,99,141408
1.7937,0.2346,38.6500,96,99,141413
1.7986,0.2444,38.6800,96,99,141416
1.8671,0.2395,38.4300,96,99,141420
1.8182,0.2444,38.5500,96,99,141423
1.8182,0.2248,38.6500,96,99,141426
1.8280,0.2297,38.7700,96,99,141429
1.8328,0.2590,38.7100,96,99,141433
1.9062,0.2493,38.5200,96,99,141436
1.8817,0.2395,38.6500,96,99,141440
1.8866,0.2346,38.5800,96,99,141444
1.8768,0.2346,38.7100,96,99,141447
1.8866,0.2346,38.6800,96,99,141450
1.8964,0.2395,38.6200,96,99,141454
1.8719,0.2346,38.6500,96,99,141457
1.9110,0.2346,38.5500,96,99,141460
1.8915,0.2297,38.6800,96,99,141464
1.9110,0.2346,38.7100,96,99,141467
1.9404,0.2395,38.5500,96,99,141470
1.9453,0.2346,38.6800,96,99,141473
1.9355,0.2297,38.5800,96,99,141477
1.9013,0.2346,38.6500,96,99,141480
1.8915,0.2199,38.7100,96,99,141484
1.9013,0.2346,38.5200,96,99,141488
1.8671,0.2248,38.6800,96,99,141491
1.8866,0.2297,38.4600,96,99,141494
1.8426,0.2297,38.6200,96,99,141498
1.8231,0.2346,38.7100,96,99,141501
1.8231,0.2395,38.6200,96,99,141504
1.7986,0.2346,38.7100,96,99,141508
1.8426,0.2395,38.8400,96,99,141511
1.8035,0.2346,38.6200,96,99,141514
1.7937,0.2297,38.6800,96,99,141518
1.7742,0.2346,38.6500,96,99,141521
1.7351,0.2297,38.7400,96,99,141524
1.7644,0.2542,38.4600,96,99,141528
1.7204,0.2395,38.5800,96,99,141532
1.7107,0.2297,38.5800,96,99,141535
1.7107,0.2297,38.6800,96,99,141538
1.7155,0.2297,38.5200,96,99,141542
1.7546,0.2444,38.5500,96,99,141545
1.7302,0.2346,38.6500,96,99,141548
1.7400,0.2395,38.5500,96,99,141552
1.7498,0.2346,38.6800,96,99,141555
1.7351,0.2297,38.7100,96,99,141558
1.7742,0.2395,38.5800,96,99,141562
1.7693,0.2346,38.6800,96,99,141565
1.7937,0.2395,38.5800,96,99,141569
1.7644,0.2297,38.6800,96,99,141572
1.7693,0.2346,38.7100,96,99,141576
1.7840,0.2346,38.7400,96,99,141579
1.7742,0.2297,38.6800,96,99,141582
1.8035,0.2346,38.5200,96,99,141586
1.7742,0.2297,38.5200,96,99,141589
1.7840,0.2346,38.6800,96,99,141592
1.8133,0.2297,38.5800,96,99,141596
1.8084,0.2346,38.6800,96,99,141599
1.8573,0.2346,38.4300,96,99,141602
1.8035,0.2297,38.5800,96,99,141605
1.7693,0.2297,38.7700,96,99,141609
1.7595,0.2297,38.6500,96,99,141613
1.7253,0.2297,38.7400,96,99,141616
1.7693,0.2493,38.3600,96,99,141620
1.7302,0.2346,38.5500,96,99,141623
1.7155,0.2248,38.7400,96,99,141626
1.7204,0.2346,38.6500,96,99,141630
1.7107,0.2297,38.6800,96,99,141633
1.7693,0.2493,38.5200,96,99,141636
1.7400,0.2395,38.6500,96,99,141640
1.7302,0.2297,38.6200,96,99,141643
1.7107,0.2395,38.6800,96,99,141646
1.7009,0.2297,38.6800,96,99,141649
1.7253,0.2395,38.5500,96,99,141654
1.7009,0.2346,38.6500,96,99,141657
1.7253,0.2346,38.5500,96,99,141660
1.7302,0.2346,38.6800,96,99,141664
1.7546,0.2297,38.7100,96,99,141667
1.7889,0.2395,38.5200,96,99,141670
1.7595,0.2297,38.6800,96,99,141674
1.7791,0.2395,38.6200,96,99,141677
1.7400,0.2346,38.6500,96,99,141680
1.7351,0.2297,38.7100,96,99,141684
1.7644,0.2346,38.5800,96,99,141687
1.7155,0.2297,38.7100,96,99,141690
1.7351,0.2688,38.4600,96,99,141693
1.7058,0.2346,38.6200,96,99,141698
1.7058,0.2297,38.6800,96,99,141701
1.7302,0.2493,38.6800,96,99,141704
1.7204,0.2297,38.7100,96,99,141708
1.7546,0.2395,38.4000,96,99,141711
1.7058,0.2346,38.5800,96,99,141714
1.7009,0.2297,38.7100,96,99,141718
1.7107,0.2395,38.6500,96,99,141721
1.7155,0.2346,38.6800,96,99,141724
1.7742,0.2493,38.4900,96,99,141728
1.7644,0.2395,38.6200,96,99,141731
1.7546,0.2248,38.6500,96,99,141734
1.7693,0.2346,38.6800,96,99,141737
1.7889,0.2346,38.6800,96,99,141742
1.8377,0.2493,38.4900,96,99,141745
1.8231,0.2395,38.6500,96,99,141748
1.8377,0.2346,38.5800,96,99,141752
1.8573,0.2346,38.6800,96,99,141755
1.8671,0.2297,38.7100,96,99,141758
1.9013,0.2248,38.5200,96,99,141762
1.9062,0.2346,38.6800,96,99,141765
1.9110,0.2346,38.5500,96,99,141768
1.9062,0.2395,38.6800,96,99,141772
1.9355,0.2297,38.8100,96,99,141775
1.9648,0.2346,38.5800,96,99,141778
1.9697,0.2297,38.6800,96,99,141782
1.9892,0.2346,38.6500,96,99,141786
1.9453,0.2346,38.6800,96,99,141789
1.9062,0.2297,38.8400,96,99,141792
1.9062,0.2395,38.5800,96,99,141796
1.8377,0.2346,38.8100,96,99,141799
1.8426,0.2346,38.4600,96,99,141802
1.7986,0.2297,38.5800,96,99,141806
1.7546,0.2248,38.7700,96,99,141809
1.7498,0.2395,38.6200,96,99,141812
1.7204,0.2297,38.7100,96,99,141816
1.7449,0.2688,38.3600,96,99,141819
1.6911,0.2346,38.5800,96,99,141822
1.6716,0.2297,38.7100,96,99,141826
1.6960,0.2297,38.6800,96,99,141830
1.6569,0.2297,38.6800,96,99,141833
1.7058,0.2493,38.4900,96,99,141836
1.6813,0.2395,38.6200,96,99,141840
1.6813,0.2297,38.7100,96,99,141843
1.6667,0.2346,38.6800,96,99,141846
1.6667,0.2297,38.7400,96,99,141850
1.6862,0.2395,38.6200,96,99,141853
1.6520,0.2297,38.6500,96,99,141856
1.6569,0.2346,38.5500,96,99,141860
1.6178,0.2297,38.7700,96,99,141863
1.6227,0.2297,38.6800,96,99,141867
1.6520,0.2395,38.5500,96,99,141870
1.6373,0.2346,38.6800,96,99,141874
1.6716,0.2346,38.5500,96,99,141877
1.6276,0.2297,38.5800,96,99,141880
1.6031,0.2346,38.7100,96,99,141884
1.5836,0.2395,38.5800,96,99,141887
1.5396,0.2346,38.7400,96,99,141890
1.5934,0.2346,38.4600,96,99,141894
1.6862,0.2444,38.4600,96,99,141897
1.9306,0.2346,38.7100,96,99,141900
2.3314,0.2395,38.6200,96,99,141904
2.7761,0.2346,38.7100,96,99,141907
3.3284,0.2444,38.4300,96,99,141911
3.5973,0.2297,38.4600,96,99,141915
3.6804,0.2248,38.7100,96,99,141918
3.4995,0.2346,38.6800,96,99,141921
3.1232,0.2297,38.7100,96,99,141924
2.7908,0.2542,38.4300,96,99,141928
2.3167,0.2346,38.6200,96,99,141931
1.9648,0.2297,38.6500,96,99,141934
1.7058,0.2297,38.7100,96,99,141938
1.5347,0.2297,38.6800,96,99,141941
1.4761,0.2395,38.4900,96,99,141944
1.4125,0.2395,38.5200,96,99,141948
1.4027,0.2346,38.5800,96,99,141952
1.3881,0.2297,38.7100,96,99,141955
1.3930,0.2297,38.5800,96,99,141959
1.4467,0.2444,38.5200,96,99,141962
1.4223,0.2346,38.7100,96,99,141965
1.4516,0.2395,38.5500,96,99,141968
1.4370,0.2346,38.6800,96,99,141972
1.4370,0.2297,38.6800,96,99,141975
1.4467,0.2346,38.5800,96,99,141978
1.4370,0.2297,38.8100,96,99,141982
1.4614,0.2346,38.5200,96,99,141985
1.4663,0.2346,38.7400,96,99,141988
1.5200,0.2346,38.6800,96,99,141992
1.5200,0.2297,38.6500,96,99,141996
1.5200,0.2297,38.6800,96,99,141999
1.5591,0.2395,38.4600,96,99,142003
1.5494,0.2395,38.6500,96,99,142006
1.5445,0.2297,38.6800,96,99,142009
1.5591,0.2395,38.6500,96,99,142012
1.5494,0.2297,38.7400,96,99,142016
1.6276,0.2444,38.4000,96,99,142019
1.6227,0.2395,38.5500,96,99,142024
1.6031,0.2346,38.6500,96,99,142027
1.6227,0.2248,38.5800,96,99,142030
1.6178,0.2297,38.7100,96,99,142034
1.6325,0.2346,38.6800,96,99,142038
1.6520,0.2297,38.7400,96,99,142041
1.6325,0.2346,38.6800,96,99,142045
1.6520,0.2395,38.5800,96,99,142048
1.6276,0.2346,38.6800,96,99,142051
1.6422,0.2346,38.7100,96,99,142055
1.6716,0.2395,38.5800,96,99,142058
1.6618,0.2346,38.6800,96,99,142061
1.7351,0.2346,38.5200,96,99,142065
1.6960,0.2346,38.6200,96,99,142068
1.6960,0.2297,38.7400,96,99,142071
1.7204,0.2493,38.5800,96,99,142074
1.7058,0.2297,38.8400,96,99,142078
1.7546,0.2346,38.4300,96,99,142082
1.7498,0.2297,38.6200,96,99,142085
1.7595,0.2297,37.9600,96,99,142089
1.7840,0.2346,38.6500,96,99,142092
1.7840,0.2297,38.7100,96,99,142095
1.8573,0.2444,38.3600,96,99,142099
1.8182,0.2297,38.5800,96,99,142102
1.8182,0.2297,38.7700,96,99,142105
1.8231,0.2346,38.6800,96,99,142108
1.8328,0.2297,38.7100,96,99,142112
1.8915,0.2542,38.5500,96,99,142115
1.8671,0.2395,38.6500,96,99,142118
1.8768,0.2346,38.5500,96,99,142123
1.8671,0.2346,38.7100,96,99,142126
1.8817,0.2297,38.7100,96,99,142129
1.9501,0.2444,38.5200,96,99,142133
1.9208,0.2346,38.9000,96,99,142136
1.9501,0.2444,38.5200,96,99,142139
1.9257,0.2346,38.6800,96,99,142143
1.9110,0.2297,38.7100,96,99,142146
1.9404,0.2444,38.5800,96,99,142149
1.9062,0.2346,38.6800,96,99,142152
1.9306,0.2346,38.6200,96,99,142156
1.8964,0.2493,38.6800,96,99,142159
1.8964,0.2297,38.7100,96,99,142162
1.8964,0.2346,38.6200,96,99,142167
1.8817,0.2346,38.7100,96,99,142170
1.9110,0.2346,38.4900,96,99,142173
1.9062,0.2346,38.7100,96,99,142177
1.8866,0.2346,38.7700,96,99,142180
1.8817,0.2542,38.6200,96,99,142183
1.8328,0.2297,38.7100,96,99,142187
1.8426,0.2444,38.4000,96,99,142190
1.7791,0.2395,38.5800,96,99,142193
1.7400,0.2297,38.7100,96,99,142196
1.7204,0.2346,38.6800,96,99,142200
1.7009,0.2346,38.6800,96,99,142203
1.7498,0.2493,38.5500,96,99,142206
1.7204,0.2395,38.5500,96,99,142211
1.7204,0.2297,38.6800,96,99,142214
1.7302,0.2737,38.6800,96,99,142217
1.7449,0.2346,38.7100,96,99,142221
1.7840,0.2395,38.5200,96,99,142224
1.7644,0.2346,38.6200,96,99,142227
1.7742,0.2297,38.5800,96,99,142231
1.7546,0.2346,38.6800,96,99,142234
1.7498,0.2346,38.6800,96,99,142237
1.7546,0.2444,38.6500,96,99,142240
1.7693,0.2346,38.6800,96,99,142244
1.7546,0.2395,38.5800,96,99,142247
1.7693,0.2346,38.7100,96,99,142251
1.7546,0.2346,38.7700,96,99,142255
1.7937,0.2444,38.5200,96,99,142258
1.7791,0.2346,38.7100,96,99,142261
1.8084,0.2444,38.4900,96,99,142265
1.7986,0.2346,38.6200,96,99,142268
1.7791,0.2297,38.8100,96,99,142271
1.7937,0.2444,38.5500,96,99,142275
1.7595,0.2346,38.5500,96,99,142278
1.7889,0.2395,38.4000,96,99,142281
1.7498,0.2346,38.6200,96,99,142285
1.7253,0.2346,38.7400,96,99,142288
1.7595,0.2346,38.6200,96,99,142291
1.7058,0.2346,38.7100,96,99,142295
1.7498,0.2444,38.4000,96,99,142299
1.7107,0.2297,38.5800,96,99,142302
1.7155,0.2297,38.6500,96,99,142305
1.7253,0.2346,38.6500,96,99,142309
1.7302,0.2346,38.7100,96,99,142312
1.7742,0.2493,38.4600,96,99,142315
1.7498,0.2444,38.7700,96,99,142319
1.7498,0.2346,38.6200,96,99,142322
1.7449,0.2346,38.6800,96,99,142325
1.7449,0.2346,38.7100,96,99,142329
1.7986,0.2395,38.5200,96,99,142332
1.7400,0.2346,38.5800,96,99,142336
1.7498,0.2395,38.5200,96,99,142339
1.7302,0.2346,38.6800,96,99,142343
1.7302,0.2346,38.8100,96,99,142346
1.7546,0.2346,38.5800,96,99,142349
1.7351,0.2297,38.6800,96,99,142353
1.7595,0.2346,38.5200,96,99,142356
1.7155,0.2346,38.6500,96,99,142359
1.7058,0.2297,38.7100,96,99,142363
1.7155,0.2395,38.5500,96,99,142366
1.7058,0.2346,38.6800,96,99,142369
1.7498,0.2395,38.4600,96,99,142373
1.7253,0.2346,38.7100,96,99,142376
1.7302,0.2346,38.7100,96,99,142380
1.7351,0.2297,38.6500,96,99,142383
1.7058,0.2444,38.6800,96,99,142387
1.7693,0.2395,38.4000,96,99,142390
1.7009,0.2395,38.7400,96,99,142393
1.6862,0.2297,38.7100,96,99,142397
1.6960,0.2297,38.6500,96,99,142400
1.6960,0.2346,38.6800,96,99,142403
1.7693,0.2542,38.4300,96,99,142407
1.7546,0.2444,38.6200,96,99,142410
1.7546,0.2297,38.6500,96,99,142413
1.7498,0.2346,38.6800,96,99,142417
1.7302,0.2297,38.7100,96,99,142420
1.7742,0.2395,38.6200,96,99,142424
1.7693,0.2297,38.6500,96,99,142427
1.7986,0.2395,38.5500,96,99,142431
1.8035,0.2346,38.6800,96,99,142434
1.8377,0.2346,38.7100,96,99,142437
1.8719,0.2786,38.6500,96,99,142441
1.8768,0.2346,38.6800,96,99,142444
1.8817,0.2395,38.5800,96,99,142447
1.8573,0.2395,38.6800,96,99,142451
1.8866,0.2297,38.6800,96,99,142454
1.9355,0.2444,38.5500,96,99,142457
1.9404,0.2297,38.6800,96,99,142461
1.9941,0.2395,38.4900,96,99,142465
1.9941,0.2346,38.7100,96,99,142468
1.9795,0.2346,38.7100,96,99,142471
1.9746,0.2493,38.5800,96,99,142475
1.8964,0.2297,38.6800,96,99,142478
1.8866,0.2395,38.4600,96,99,142481
1.8231,0.2395,38.6200,96,99,142485
1.7791,0.2346,38.6200,96,99,142488
1.7644,0.2395,38.6500,96,99,142491
1.7351,0.2346,38.7100,96,99,142495
1.7693,0.2444,38.4000,96,99,142498
1.7058,0.2346,38.5800,96,99,142501
1.6911,0.2297,38.6800,96,99,142505
1.6667,0.2884,38.6800,96,99,142509
1.6471,0.2346,38.8400,96,99,142512
1.6911,0.2590,38.5200,96,99,142515
1.6716,0.2395,38.6500,96,99,142519
1.6862,0.2346,38.5800,96,99,142522
1.6667,0.2297,38.7100,96,99,142525
1.6618,0.2346,38.4600,96,99,142529
1.6813,0.2444,38.5200,96,99,142532
1.6325,0.2395,38.8700,96,99,142535
1.6422,0.2444,38.5200,96,99,142539
1.6373,0.2346,38.6800,96,99,142542
1.6520,0.2346,38.5500,96,99,142545
1.6960,0.2395,38.5800,96,99,142550
1.6813,0.2297,38.6800,96,99,142553
1.7107,0.2346,38.5500,96,99,142556
1.6667,0.2639,38.6500,96,99,142559
1.6422,0.2297,38.7100,96,99,142563
1.6129,0.2395,38.5500,96,99,142566
1.5787,0.2346,38.6800,96,99,142569
1.5543,0.2297,38.4900,96,99,142573
1.5298,0.2346,38.7100,96,99,142576
1.6227,0.2346,38.7100,96,99,142579
1.8377,0.2395,38.6200,96,99,142583
2.1652,0.2346,38.7100,96,99,142586
2.6735,0.2444,38.4000,96,99,142589
3.1476,0.2395,38.6500,96,99,142594
3.5044,0.2346,38.7400,96,99,142597
3.7195,0.2346,38.6800,96,99,142600
3.6070,0.2346,38.7100,96,99,142603
3.3773,0.2493,38.3600,96,99,142607
2.8935,0.2395,38.5800,96,99,142610
2.4194,0.2297,38.6200,96,99,142613
2.0235,0.2346,38.6800,96,99,142617
1.7155,0.2346,38.7100,96,99,142620
1.5591,0.2444,38.4900,96,99,142623
1.4272,0.2444,38.6800,96,99,142627
1.3881,0.2297,38.5800,96,99,142630
1.3539,0.2395,38.7400,96,99,142633
1.4370,0.2346,38.6800,96,99,142639
1.4418,0.2346,38.7100,96,99,142642
1.4712,0.2395,38.5800,96,99,142646
1.4809,0.2346,38.6800,96,99,142649
1.5103,0.2395,38.4900,96,99,142652
1.5005,0.2346,38.7100,96,99,142655
1.5005,0.2493,38.7100,96,99,142659
1.5347,0.2444,38.6200,96,99,142662
1.5298,0.2346,38.5800,96,99,142665
1.5836,0.2395,38.4300,96,99,142669
1.5689,0.2346,38.6500,96,99,142672
1.5836,0.2493,38.7100,96,99,142675
1.6031,0.2395,38.7400,96,99,142680
1.5982,0.2346,38.6800,96,99,142683
1.6667,0.2493,38.4300,96,99,142686
1.6178,0.2444,38.6200,96,99,142690
1.6227,0.2346,38.6200,96,99,142693
1.5982,0.2346,38.6800,96,99,142696
1.6080,0.2346,38.6800,96,99,142699
1.6667,0.2444,38.5800,96,99,142703
1.6471,0.2395,38.6200,96,99,142706
1.6764,0.2444,38.5500,96,99,142709
1.6764,0.2346,38.6500,96,99,142713
1.6960,0.2346,38.7100,96,99,142716
1.7449,0.2444,38.5200,96,99,142720
1.7204,0.2737,38.6800,96,99,142724
1.7400,0.2395,38.5500,96,99,142727
1.7058,0.2346,38.6800,96,99,142730
1.7155,0.2346,38.7400,96,99,142734
1.7351,0.2395,38.5800,96,99,142737
1.7155,0.2346,38.6800,96,99,142740
1.7546,0.2346,38.5200,96,99,142743
1.7253,0.2346,38.6200,96,99,142747
1.7400,0.2395,38.6500,96,99,142750
1.7791,0.2444,38.5800,96,99,142753
1.7791,0.2346,38.4300,96,99,142757
1.8328,0.2444,38.4300,96,99,142760
1.8035,0.2297,38.6500,96,99,142764
1.8182,0.2444,38.7100,96,99,142768
1.8280,0.2297,38.6500,96,99,142771
1.8182,0.2346,38.6800,96,99,142774
1.8719,0.2395,38.4000,96,99,142778
1.8475,0.2395,38.4600,96,99,142781
1.8524,0.2493,38.6500,96,99,142784
1.8719,0.2395,38.6800,96,99,142787
1.8817,0.2346,38.7100,96,99,142791
1.9501,0.2493,38.4900,96,99,142794
1.9257,0.2395,38.5800,96,99,142797
1.9257,0.2395,38.6200,96,99,142801
1.9257,0.2346,38.6800,96,99,142804
1.9355,0.2346,38.2400,96,99,142808
1.9795,0.2493,38.5200,96,99,142812
1.9844,0.2395,38.6800,96,99,142815
2.0088,0.2395,38.5500,96,99,142818
1.9697,0.2542,38.6800,96,99,142822
1.9453,0.2346,38.7100,96,99,142825
1.9453,0.2395,38.6200,96,99,142828
1.9355,0.2297,38.7100,96,99,142831
1.9795,0.2395,38.8400,96,99,142835
1.9501,0.2346,38.6800,96,99,142838
1.9501,0.2346,38.9000,96,99,142841
1.9550,0.2444,38.5500,96,99,142845
1.9110,0.2346,38.6800,96,99,142849
1.9208,0.2737,38.5500,96,99,142852
1.8817,0.2395,38.5800,96,99,142856
1.8719,0.2346,38.7700,96,99,142859
1.8964,0.2395,38.6200,96,99,142862
1.8524,0.2346,38.7100,96,99,142866
1.8817,0.2444,38.4000,96,99,142869
1.8280,0.2346,38.5800,96,99,142872
1.8035,0.2346,38.4900,96,99,142875
1.8035,0.2493,38.6800,96,99,142879
1.7937,0.2297,38.6800,96,99,142882
1.8426,0.2542,38.4300,96,99,142885
1.7986,0.2297,38.5800,96,99,142889
1.7742,0.2346,38.6200,96,99,142893
1.7742,0.2444,38.6800,96,99,142896
1.7546,0.2346,38.7100,96,99,142900
1.8231,0.2395,38.5800,96,99,142903
1.7693,0.2395,38.7700,96,99,142906
1.7742,0.2590,38.5800,96,99,142910
1.7693,0.2297,38.6500,96,99,142913
1.7889,0.2346,38.6800,96,99,142916
1.8231,0.2395,38.4900,96,99,142919
1.7986,0.2395,38.7100,96,99,142923
1.8035,0.2444,38.5800,96,99,142926
1.7644,0.2297,38.6800,96,99,142929
1.7644,0.2346,38.7400,96,99,142934
1.7889,0.2395,38.5500,96,99,142937
1.7791,0.2346,38.6800,96,99,142940
1.8084,0.2346,38.4900,96,99,142944
1.7889,0.2346,38.6500,96,99,142947
1.7986,0.2444,38.6800,96,99,142950
1.8182,0.2444,38.5800,96,99,142954
1.8084,0.2346,38.7700,96,99,142957
1.8426,0.2395,38.4300,96,99,142960
1.7937,0.2297,38.6800,96,99,142963
1.7986,0.2346,38.2400,96,99,142967
1.8133,0.2444,38.6800,96,99,142970
1.8084,0.2346,38.7700,96,99,142973
1.8573,0.2444,38.3600,96,99,142978
1.8182,0.2395,38.5500,96,99,142981
1.7986,0.2346,38.6200,96,99,142984
1.7937,0.2395,38.6800,96,99,142988
1.7889,0.2346,38.7400,96,99,142991
1.8377,0.2395,38.4900,96,99,142994
1.8084,0.2444,38.6200,96,99,142998
1.8035,0.2444,38.6200,96,99,143001
1.7986,0.2346,38.6800,96,99,143004
1.8035,0.2297,38.6800,96,99,143007
1.8377,0.2444,38.5200,96,99,143011
1.8133,0.2395,38.6500,96,99,143014
1.8084,0.2395,38.6500,96,99,143017
1.7644,0.2395,38.7100,96,99,143022
1.7449,0.2346,38.9000,96,99,143025
1.7498,0.2297,38.6200,96,99,143028
1.7498,0.2346,38.7100,96,99,143032
1.7937,0.2395,38.5500,96,99,143035
1.7791,0.2297,38.6800,96,99,143038
1.7937,0.2346,38.8400,96,99,143042
1.8133,0.2395,38.5800,96,99,143045
1.7889,0.2346,38.6500,96,99,143048
1.8133,0.2493,38.4600,96,99,143052
1.7937,0.2297,38.6200,96,99,143055
1.7840,0.2346,38.7100,96,99,143058
1.8084,0.2444,38.6200,96,99,143062
1.7937,0.2346,38.6200,96,99,143066
1.8475,0.2493,38.5200,96,99,143069
1.8231,0.2346,38.6200,96,99,143072
1.8328,0.2444,38.6800,96,99,143076
1.8524,0.2395,38.6500,96,99,143079
1.8719,0.2346,38.6500,96,99,143082
1.9550,0.2639,38.4600,96,99,143086
1.9159,0.2444,38.6500,96,99,143089
1.9110,0.2297,38.6800,96,99,143092
1.9110,0.2395,38.6800,96,99,143096
1.9013,0.2346,38.7100,96,99,143099
1.9404,0.2493,38.5800,96,99,143102
1.9208,0.2395,38.8100,96,99,143106
1.9648,0.2737,38.5500,96,99,143110
1.9795,0.2346,38.8400,96,99,143113
2.0430,0.2346,38.6800,96,99,143116
2.0772,0.2297,38.5200,96,99,143120
2.0674,0.2395,38.6500,96,99,143123
2.0870,0.2493,38.6800,96,99,143126
2.0381,0.2346,38.6800,96,99,143130
2.0283,0.2346,38.7400,96,99,143133
2.0283,0.2346,38.5500,96,99,143136
1.9941,0.2346,38.6800,96,99,143139
1.9892,0.2297,38.5200,96,99,143143
1.9404,0.2346,38.6500,96,99,143147
1.9159,0.2346,38.7100,96,99,143150
1.9062,0.2395,38.5800,96,99,143154
1.8622,0.2444,38.6800,96,99,143157
1.8768,0.2395,38.4600,96,99,143160
1.8133,0.2346,38.6200,96,99,143164
1.8133,0.2346,38.7100,96,99,143167
1.8182,0.2590,38.6500,96,99,143170
1.8035,0.2346,38.6800,96,99,143174
1.8475,0.2493,38.3600,96,99,143177
1.8084,0.2395,38.6200,96,99,143180
1.7937,0.2297,38.6800,96,99,143184
1.8084,0.2395,38.6500,96,99,143187
1.8035,0.2346,38.7100,96,99,143191
1.8524,0.2493,38.4900,96,99,143194
1.8182,0.2444,38.6200,96,99,143198
1.8133,0.2346,38.5800,96,99,143201
1.8084,0.2346,38.6800,96,99,143204
1.8231,0.2346,38.6800,96,99,143208
1.8622,0.2444,38.4900,96,99,143211
1.8622,0.2395,38.6800,96,99,143214
1.8866,0.2395,38.5500,96,99,143218
1.8573,0.2444,38.7400,96,99,143221
1.8280,0.2297,38.7100,96,99,143224
1.7937,0.2346,39.0600,96,99,143227
1.7449,0.2639,38.6800,96,99,143232
1.7449,0.2444,38.5800,96,99,143235
1.7546,0.2444,38.6800,96,99,143238
1.8768,0.2346,38.6800,96,99,143242
2.1603,0.2444,38.6800,96,99,143245
4.0029,0.2395,38.7700,96,99,143250
3.7683,0.2346,38.7400,96,99,143253
3.4653,0.2395,38.3600,96,99,143256
2.9521,0.2395,38.5800,96,99,143260
2.5220,0.2395,38.6800,96,99,143263
2.1945,0.2395,38.6500,96,99,143266
1.9501,0.2346,38.6800,96,99,143270
1.8426,0.2444,38.4900,96,99,143273
1.7058,0.2395,38.6200,96,99,143277
1.6471,0.2346,38.6200,96,99,143280
1.6325,0.2346,38.7100,96,99,143284
1.6276,0.2346,38.7400,96,99,143287
1.6862,0.2395,38.5800,96,99,143290
1.6618,0.2297,38.6800,96,99,143294
1.6960,0.2395,38.5800,96,99,143297
1.7107,0.2395,38.6800,96,99,143300
1.7009,0.2346,38.7100,96,99,143304
1.7351,0.2444,38.5200,96,99,143307
1.7253,0.2297,38.6800,96,99,143310
1.7595,0.2444,38.2100,96,99,143314
1.7498,0.2346,38.6200,96,99,143318
1.7595,0.2346,38.6800,96,99,143321
1.7986,0.2444,38.5500,96,99,143324
1.8084,0.2346,38.6800,96,99,143328
1.8622,0.2395,38.4900,96,99,143331
1.8524,0.2346,38.6200,96,99,143334
1.8622,0.2297,38.7100,96,99,143338
1.8915,0.2444,38.4900,96,99,143341
1.8915,0.2395,38.6800,96,99,143344
1.9501,0.2395,38.4300,96,99,143348
1.8964,0.2346,38.6500,96,99,143351
1.9013,0.2395,38.6800,96,99,143354
1.9159,0.2395,38.7100,96,99,143358
1.9159,0.2346,38.6800,96,99,143362
1.9892,0.2493,38.4300,96,99,143365
1.9697,0.2737,38.6500,96,99,143368
1.9648,0.2346,38.6500,96,99,143372
1.9844,0.2395,38.6500,96,99,143375
1.9844,0.2346,38.6800,96,99,143378
2.0479,0.2444,38.5200,96,99,143382
2.0235,0.2395,38.5800,96,99,143385
2.0332,0.2395,38.5800,96,99,143388
2.0528,0.2346,38.6800,96,99,143392
2.0332,0.2297,38.6800,96,99,143395
2.0723,0.2444,38.5200,96,99,143398
2.0577,0.2346,38.6200,96,99,143401
2.0919,0.2346,38.5200,96,99,143406
2.0772,0.2346,38.7100,96,99,143409
2.1017,0.2395,38.7100,96,99,143412
2.1359,0.2346,38.6500,96,99,143416
2.1310,0.2395,38.6500,96,99,143419
2.2043,0.2395,38.5800,96,99,143422
2.1408,0.2346,38.6800,96,99,143426
2.1505,0.2346,38.6800,96,99,143429
2.1750,0.2395,38.5800,96,99,143432
2.1554,0.2346,38.7700,96,99,143435
2.1945,0.2346,38.4600,96,99,143439
2.1994,0.2346,38.5800,96,99,143442
2.2141,0.2346,38.7100,96,99,143446
2.2678,0.2590,38.5800,96,99,143450
2.2581,0.2346,38.6800,96,99,143453
2.3069,0.2444,38.4000,96,99,143456
2.2630,0.2346,38.5800,96,99,143460
2.2483,0.2346,38.6800,96,99,143463
2.2727,0.2395,38.6800,96,99,143466
2.2630,0.2346,38.7400,96,99,143469
2.3363,0.2835,38.3600,96,99,143473
2.2923,0.2346,38.5800,96,99,143476
2.2874,0.2297,38.6500,96,99,143479
2.2874,0.2395,38.6800,96,99,143483
2.2874,0.2346,38.5200,96,99,143486
2.3558,0.2542,38.4900,96,99,143490
2.3216,0.2395,38.6800,96,99,143494
2.3265,0.2346,38.5800,96,99,143497
2.3118,0.2297,38.6800,96,99,143500
2.2972,0.2346,38.9000,96,99,143504
2.3216,0.2542,38.5200,96,99,143507
2.2727,0.2395,38.6800,96,99,143510
2.2678,0.2395,38.4300,96,99,143513
2.2287,0.2493,38.7100,96,99,143517
2.2287,0.2346,38.6800,96,99,143520
2.2532,0.2444,38.5800,96,99,143523
2.2092,0.2346,38.6800,96,99,143527
2.2141,0.2444,38.5800,96,99,143531
2.1457,0.2346,38.6500,96,99,143534
2.1310,0.2297,38.6800,96,99,143538
2.1359,0.2395,38.6200,96,99,143541
2.1212,0.2395,38.7100,96,99,143544
2.1408,0.2395,38.5200,96,99,143548
2.0919,0.2346,38.6800,96,99,143551
2.0919,0.2346,38.6800,96,99,143554
2.1114,0.2444,38.4900,96,99,143557
2.0821,0.2346,38.7100,96,99,143561
2.1359,0.2444,38.4300,96,99,143564
2.1114,0.2395,38.6200,96,99,143567
2.1261,0.2346,38.7100,96,99,143571
2.1212,0.2835,38.6500,96,99,143575
2.1457,0.2346,38.7100,96,99,143578
2.1652,0.2493,38.4600,96,99,143582
2.1310,0.2346,38.5800,96,99,143585
2.1017,0.2297,38.6500,96,99,143588
2.1065,0.2395,38.7700,96,99,143592
2.1017,0.2688,38.6800,96,99,143595
2.1554,0.2395,38.5200,96,99,143598
2.1261,0.2395,38.6500,96,99,143601
2.1408,0.2346,38.5500,96,99,143605
2.1359,0.2395,38.6800,96,99,143608
2.1408,0.2346,38.5500,96,99,143611
2.1603,0.2542,38.5800,96,99,143616
2.1554,0.2346,38.6800,96,99,143619
2.1310,0.2395,38.5500,96,99,143622
2.0870,0.2297,38.6500,96,99,143626
2.0919,0.2346,38.7100,96,99,143629
2.1310,0.2444,38.5200,96,99,143632
2.0919,0.2297,38.6800,96,99,143635
2.1163,0.2395,38.5800,96,99,143639
2.0723,0.2297,38.6500,96,99,143642
2.0723,0.2346,38.7100,96,99,143645
2.0968,0.2346,38.5800,96,99,143649
2.0674,0.2346,38.6800,96,99,143652
2.0968,0.2346,38.4900,96,99,143655
2.0577,0.2346,38.6200,96,99,143660
2.0430,0.2346,38.7100,96,99,143663
2.0528,0.2444,38.5800,96,99,143666
2.0283,0.2346,38.6800,96,99,143669
2.0723,0.2444,38.4600,96,99,143673
2.0332,0.2297,38.5800,96,99,143676
2.0381,0.2346,38.6800,96,99,143679
2.0577,0.2444,38.6500,96,99,143683
2.0381,0.2346,38.9300,96,99,143686
2.0870,0.2493,38.4000,96,99,143689
2.0381,0.2346,38.6800,96,99,143693
2.0186,0.2346,38.6800,96,99,143696
2.0186,0.2346,38.6800,96,99,143699
2.0137,0.2346,38.6800,96,99,143703
2.0332,0.2493,38.4900,96,99,143707
1.9844,0.2395,38.9300,96,99,143710
1.9648,0.2346,38.6500,96,99,143713
1.9599,0.2297,38.7400,96,99,143717
1.9550,0.2346,38.7100,96,99,143720
2.0332,0.2395,38.5200,96,99,143723
1.9844,0.2395,38.6500,96,99,143727
2.0186,0.2395,38.5800,96,99,143730
2.0088,0.2346,38.6800,96,99,143733
2.0235,0.2297,38.6500,96,99,143736
2.0479,0.2395,38.6500,96,99,143740
2.0283,0.2395,38.6800,96,99,143744
2.0528,0.2395,38.5500,96,99,143747
2.0235,0.2346,38.6800,96,99,143751
2.0332,0.2346,38.6800,96,99,143754
2.0821,0.2444,38.5500,96,99,143757
2.0723,0.2346,38.7100,96,99,143761
2.1261,0.2444,38.5500,96,99,143764
2.1212,0.2346,38.6200,96,99,143767
2.1310,0.2297,38.6500,96,99,143770
2.1652,0.2297,38.5500,96,99,143774
2.1457,0.2346,38.8100,96,99,143777
2.1701,0.2346,38.4300,96,99,143780
2.1114,0.2297,38.4000,96,99,143784
2.0674,0.2297,38.8100,96,99,143788
2.0430,0.2346,38.6800,96,99,143791
1.9892,0.2346,38.6800,96,99,143795
2.0039,0.2444,38.4300,96,99,143798
1.9208,0.2346,38.6800,96,99,143801
1.8866,0.2346,38.6800,96,99,143804
1.8622,0.2395,38.6800,96,99,143808
1.8475,0.2199,38.7100,96,99,143811
1.8768,0.2493,38.4600,96,99,143814
1.8426,0.2395,38.7100,96,99,143818
1.8328,0.2346,38.6800,96,99,143821
1.8133,0.2346,38.6500,96,99,143824
1.7840,0.2346,38.6800,96,99,143828
1.7937,0.2444,38.4900,96,99,143832
1.7498,0.2346,38.6500,96,99,143835
1.7498,0.2297,38.5800,96,99,143839
1.7351,0.2346,38.8100,96,99,143842
1.7400,0.2346,38.7100,96,99,143845
1.7742,0.2395,38.5500,96,99,143849
1.7546,0.2297,38.6500,96,99,143852
1.8084,0.2444,38.6200,96,99,143855
1.7644,0.2346,38.9300,96,99,143858
1.7253,0.2297,38.7100,96,99,143863
1.6618,0.2346,38.6800,96,99,143866
1.6227,0.2395,38.7700,96,99,143870
1.5787,0.2346,38.7100,96,99,143874
1.6471,0.2395,38.4000,96,99,143877
1.7693,0.2590,38.6200,96,99,143881
2.0577,0.2346,38.7100,96,99,143884
2.4976,0.2346,38.7700,96,99,143887
3.0059,0.2493,38.7100,96,99,143891
3.5728,0.2493,38.4300,96,99,143894
3.8172,0.2395,38.5800,96,99,143897
3.8319,0.2346,38.6200,96,99,143900
3.5875,0.2346,38.8100,96,99,143904
3.1867,0.2395,38.7400,96,99,143907
2.8006,0.2395,38.5200,96,99,143910
2.3607,0.2395,38.7700,96,99,143915
2.0332,0.2346,38.6200,96,99,143918
1.7644,0.2346,38.6800,96,99,143921
1.5982,0.2297,38.7100,96,99,143925
1.5103,0.2444,38.6500,96,99,143928
1.4418,0.2297,37.8300,96,99,143931
1.4565,0.2395,38.4900,96,99,143934
1.4370,0.2346,38.6800,96,99,143938
1.4418,0.2297,38.7100,96,99,143941
1.4663,0.2395,38.5800,96,99,143944
1.4418,0.2395,38.6800,96,99,143948
1.4663,0.2346,38.5500,96,99,143951
1.4614,0.2297,38.5800,96,99,143954
1.4761,0.2297,38.7100,96,99,143959
1.5005,0.2395,38.5800,96,99,143962
1.4809,0.2297,38.8700,96,99,143965
1.5152,0.2444,38.4300,96,99,143969
1.5054,0.2395,38.7100,96,99,143972
1.5152,0.2297,38.6800,96,99,143975
1.5347,0.2395,38.6500,96,99,143979
1.5298,0.2297,38.6500,96,99,143982
1.5738,0.2395,38.4000,96,99,143985
1.5494,0.2346,38.5200,96,99,143988
1.5543,0.2639,38.7100,96,99,143992
1.5591,0.2346,38.7700,96,99,143995
1.5934,0.2346,38.6800,96,99,143998
1.6227,0.2493,38.4600,96,99,144003
1.5885,0.2346,38.6200,96,99,144006
1.6031,0.2297,38.5800,96,99,144009
1.5934,0.2542,38.7100,96,99,144013
1.6031,0.2346,38.6800,96,99,144016
1.6422,0.2395,38.5200,96,99,144019
1.6422,0.2346,38.6800,96,99,144023
1.6813,0.2346,38.5500,96,99,144026
1.6667,0.2297,38.6800,96,99,144029
1.6716,0.2297,38.6800,96,99,144032
1.6911,0.2444,38.5800,96,99,144036
1.6618,0.2346,38.6500,96,99,144039
1.6862,0.2346,38.5500,96,99,144043
1.6569,0.2297,38.6800,96,99,144047
1.6862,0.2297,38.7100,96,99,144050
1.7155,0.2346,38.5800,96,99,144053
1.7009,0.2297,38.6800,96,99,144057
1.7253,0.2346,38.3300,96,99,144060
1.6960,0.2346,38.6800,96,99,144063
1.7009,0.2297,38.6800,96,99,144066
1.7204,0.2395,38.6200,96,99,144070
1.7204,0.2297,38.6800,96,99,144073
1.7693,0.2395,38.1100,96,99,144076
1.7595,0.2395,38.5800,96,99,144080
1.7595,0.2346,38.6800,96,99,144083
1.7791,0.2346,38.6800,96,99,144087
1.7840,0.2297,38.7100,96,99,144091
1.8524,0.2493,38.5200,96,99,144094
1.8328,0.2346,38.5500,96,99,144097
1.8133,0.2346,38.6500,96,99,144101
1.8182,0.2346,38.6200,96,99,144104
1.8426,0.2346,38.7100,96,99,144107
1.8768,0.2444,38.0500,96,99,144110
1.8622,0.2395,38.6200,96,99,144114
1.8768,0.2346,38.5800,96,99,144117
1.8768,0.2297,38.7400,96,99,144120
1.8768,0.2346,38.7100,96,99,144124
1.9013,0.2395,38.8400,96,99,144128
1.8719,0.2493,38.6500,96,99,144131
1.8915,0.2346,38.5200,96,99,144135
1.8475,0.2639,38.6800,96,99,144138
1.8426,0.2346,38.6800,96,99,144141
1.8671,0.2395,38.6800,96,99,144145
1.8377,0.2346,38.6800,96,99,144148
1.8622,0.2297,38.5500,96,99,144151
1.8377,0.2297,38.5800,96,99,144154
1.8280,0.2395,38.6800,96,99,144158
1.8328,0.2395,38.4300,96,99,144161
1.8035,0.2444,38.6800,96,99,144164
1.8328,0.2346,38.4900,96,99,144168
1.7986,0.2346,38.6500,96,99,144172
1.8035,0.2346,38.6800,96,99,144175
1.7791,0.2395,38.6200,96,99,144179
1.7400,0.2297,38.6500,96,99,144182
1.7742,0.2493,38.4000,96,99,144185
1.7107,0.2297,38.6200,96,99,144189
1.6960,0.2248,38.6800,96,99,144192
1.6862,0.2346,38.6500,96,99,144195
1.6618,0.2297,38.6500,96,99,144198
1.7009,0.2444,38.4300,96,99,144202
1.6667,0.2395,38.5800,96,99,144205
1.6569,0.2297,37.8700,96,99,144208
1.6667,0.2346,38.6800,96,99,144212
1.6618,0.2297,38.7400,96,99,144216
1.6911,0.2542,38.5500,96,99,144219
1.6667,0.2346,38.6800,96,99,144223
1.6764,0.2346,38.5500,96,99,144226
1.6716,0.2346,38.6800,96,99,144229
1.6716,0.2297,38.7700,96,99,144233
1.7155,0.2346,38.5200,96,99,144236
1.6862,0.2297,38.6800,96,99,144239
1.7155,0.2395,38.5800,96,99,144242
1.7058,0.2248,38.7100,96,99,144246
1.7204,0.2346,38.7100,96,99,144249
1.7253,0.2346,38.5800,96,99,144252
1.7155,0.2395,38.7100,96,99,144257
1.7400,0.2346,38.5200,96,99,144260
1.7107,0.2346,38.7100,96,99,144263
1.7204,0.2297,38.6800,96,99,144267
1.7400,0.2395,38.5800,96,99,144270
1.7155,0.2346,38.7100,96,99,144273
1.7595,0.2395,38.4600,96,99,144276
1.7400,0.2346,38.5500,96,99,144280
1.7253,0.2346,38.6800,96,99,144283
1.7351,0.2395,38.7400,96,99,144286
1.7107,0.2346,38.6800,96,99,144290
1.7498,0.2297,38.4000,96,99,144293
1.7107,0.2346,38.5800,96,99,144296
1.6960,0.2297,38.6500,96,99,144301
1.7058,0.2346,38.6500,96,99,144304
1.6862,0.2297,38.6500,96,99,144307
1.7595,0.2493,38.4600,96,99,144311
1.6960,0.2395,38.4600,96,99,144314
1.6911,0.2346,38.6200,96,99,144317
1.6862,0.2297,38.7700,96,99,144320
1.6813,0.2346,38.7100,96,99,144324
1.7155,0.2395,38.6800,96,99,144327
1.7009,0.2395,38.6500,96,99,144330
1.7204,0.2346,38.5500,96,99,144334
1.7009,0.2297,38.6500,96,99,144337
1.7009,0.2346,38.7100,96,99,144340
1.7058,0.2444,38.5500,96,99,144345
1.6618,0.2346,38.6500,96,99,144348
1.6960,0.2395,38.5800,96,99,144351
1.6471,0.2248,38.7100,96,99,144355
1.6520,0.2297,38.8700,96,99,144358
1.6764,0.2346,38.5200,96,99,144361
1.6813,0.2297,38.8400,96,99,144364
1.7253,0.2346,38.4600,96,99,144368
1.7058,0.2297,38.7400,96,99,144371
1.6911,0.2493,38.6800,96,99,144374
1.6862,0.2395,38.5800,96,99,144378
1.6569,0.2297,38.7400,96,99,144381
1.6911,0.2346,38.4300,96,99,144385
1.6618,0.2297,38.6500,96,99,144389
1.6960,0.2297,38.6800,96,99,144392
1.7253,0.2346,38.6800,96,99,144395
1.7253,0.2346,38.6800,96,99,144399
1.7840,0.2493,38.4300,96,99,144402
1.7595,0.2346,38.5200,96,99,144405
1.7595,0.2395,38.6500,96,99,144408
1.7742,0.2346,38.6800,96,99,144412
1.7889,0.2297,38.8400,96,99,144415
1.8475,0.2395,38.5200,96,99,144418
1.8280,0.2395,38.4900,96,99,144422
1.8524,0.2346,38.5500,96,99,144425
1.8671,0.2297,38.6800,96,99,144429
1.8964,0.2297,38.9000,96,99,144433
1.9550,0.2395,38.5500,96,99,144436
1.9306,0.2346,38.6800,96,99,144439
1.9306,0.2346,38.5500,96,99,144443
1.9013,0.2346,38.6500,96,99,144446
1.8377,0.2297,38.7400,96,99,144449
1.8035,0.2346,38.6200,96,99,144452
1.7644,0.2297,38.6800,96,99,144456
1.7498,0.2346,38.0500,96,99,144459
1.6862,0.2346,38.7100,96,99,144462
1.6520,0.2297,38.6800,96,99,144466
1.6569,0.2395,38.4900,95,99,144470
1.5982,0.2346,38.6500,95,99,144475
1.5689,0.2346,38.6800,95,99,144478
1.6031,0.2493,38.3600,95,99,144481
1.5640,0.2346,38.5500,95,99,144485
1.5640,0.2248,38.5800,95,99,144488
1.5689,0.2248,38.6800,95,99,144491
1.5836,0.2346,38.7100,95,99,144495
1.6276,0.2444,37.8300,95,99,144498
1.6080,0.2346,38.6500,95,99,144501
1.6618,0.2346,38.5800,95,99,144504
1.6373,0.2297,38.7100,95,99,144508
1.6569,0.2199,38.6800,95,99,144512
1.6862,0.2395,38.7100,95,99,144515
1.6471,0.2297,38.6800,95,99,144519
1.6227,0.2346,38.5200,95,99,144522
1.5543,0.2297,38.6800,95,99,144525
1.5152,0.2346,38.7100,95,99,144529
1.4907,0.2395,38.4900,95,99,144532
1.4761,0.2346,38.6800,95,99,144535
1.5982,0.2297,38.0800,95,99,144539
1.8133,0.2444,38.6200,95,99,144542
2.1994,0.2346,38.7100,95,99,144545
2.7126,0.2346,38.5500,95,99,144548
3.1867,0.2346,38.6500,95,99,144552
3.6608,0.2346,38.4300,95,99,144556
3.7634,0.2297,38.6500,95,99,144559
3.6119,0.2297,38.7400,95,99,144563
3.2845,0.2395,38.6200,95,99,144566
2.8006,0.2297,38.7400,95,99,144569
2.4242,0.2395,38.4300,95,99,144573
1.9990,0.2297,38.5200,95,99,144576
1.7155,0.2297,38.6800,95,99,144579
1.5445,0.2346,38.6800,95,99,144583
1.4370,0.2346,38.7400,95,99,144586
1.4321,0.2395,38.4300,95,99,144589
1.3832,0.2346,38.7400,95,99,144592
1.3832,0.2248,38.6500,95,99,144596
1.3783,0.2297,38.6800,95,99,144600
1.3734,0.2297,38.7100,95,99,144603
1.4076,0.2395,38.4900,95,99,144607
1.3881,0.2297,38.6500,95,99,144610
1.4027,0.2542,38.5500,95,99,144613
1.3978,0.2297,38.6800,95,99,144617
1.3978,0.2297,38.7100,95,99,144620
1.4125,0.2346,38.5500,95,99,144623
1.4125,0.2297,38.6500,95,99,144627
1.4467,0.2297,38.5500,95,99,144630
1.4467,0.2297,38.7100,95,99,144633
1.4712,0.2297,38.6800,95,99,144636
1.4956,0.2346,38.6200,95,99,144641
1.4956,0.2297,38.7100,95,99,144644
1.5200,0.2395,38.4900,95,99,144647
1.5005,0.2346,38.7100,95,99,144651
1.5249,0.2297,38.7400,95,99,144654
1.5689,0.2346,38.6200,95,99,144657
1.5738,0.2297,38.6200,95,99,144661
1.6178,0.2346,38.4300,95,99,144664
1.5885,0.2297,38.6200,95,99,144667
1.5836,0.2346,38.6800,95,99,144671
1.5982,0.2297,38.7100,95,99,144674
1.6031,0.2297,38.7400,95,99,144677
1.6667,0.2395,38.4000,95,99,144680
1.6373,0.2297,38.5500,95,99,144685
1.6373,0.2248,38.6500,95,99,144688
1.6422,0.2102,38.6800,95,99,144691
1.6520,0.2297,38.7100,95,99,144695
1.7107,0.2444,38.5200,95,99,144698
1.6862,0.2297,38.6500,95,99,144701
1.6862,0.2297,38.5800,95,99,144705
1.6813,0.2297,38.6800,95,99,144708
1.6911,0.2297,38.6500,95,99,144711
1.7546,0.2395,38.6200,95,99,144715
1.7302,0.2297,38.6800,95,99,144718
1.7595,0.2297,38.4900,95,99,144721
1.7400,0.2297,38.6800,95,99,144724
1.7498,0.2297,37.9900,95,99,144729
1.7840,0.2639,38.5500,95,99,144732
1.7644,0.2297,38.6800,95,99,144735
1.8084,0.2297,37.8000,95,99,144739
1.7937,0.2395,38.6200,95,99,144742
1.8475,0.2297,38.7100,95,99,144745
1.8377,0.2297,38.5200,95,99,144749
1.8280,0.2835,38.6800,95,99,144752
1.8622,0.2297,38.4900,95,99,144755
1.8475,0.2297,38.5800,95,99,144758
1.8573,0.2199,38.6800,95,99,144762
1.8915,0.2346,38.6200,95,99,144765
1.8817,0.2737,38.6800,95,99,144769
1.9306,0.2395,38.4300,95,99,144773
1.9013,0.2297,38.6500,95,99,144776
1.9110,0.2297,38.7400,95,99,144779
1.9257,0.2297,38.6800,95,99,144783
1.9208,0.2102,38.6800,95,99,144786
1.9892,0.2444,38.4300,95,99,144789
1.9550,0.2297,38.6200,95,99,144793
1.9501,0.2297,38.6800,95,99,144796
1.9404,0.2297,38.6800,95,99,144799
1.9257,0.2248,38.7100,95,99,144802
1.9648,0.2395,38.4900,95,99,144806
1.9257,0.2297,38.6500,95,99,144809
1.9159,0.2199,38.5800,95,99,144813
1.8964,0.2297,38.6800,95,99,144817
1.8915,0.2297,38.6800,95,99,144820
1.9110,0.2297,38.5500,95,99,144823
1.8768,0.2297,38.6200,95,99,144827
1.8866,0.2395,38.5500,95,99,144830
1.8475,0.2297,38.6800,95,99,144833
1.8377,0.2297,38.6800,95,99,144837
1.8280,0.2297,38.5800,95,99,144840
1.7937,0.2297,38.7100,95,99,144843
1.7840,0.2297,38.5500,95,99,144846
1.7302,0.2346,38.6800,95,99,144850
1.7253,0.2297,38.7100,95,99,144854
1.7400,0.2346,38.5500,95,99,144857
1.7204,0.2444,38.7400,95,99,144861
1.7595,0.2346,38.4900,95,99,144864
1.7400,0.2297,38.6500,95,99,144867
1.7351,0.2297,38.6800,95,99,144871
1.7546,0.2297,38.6200,95,99,144874
1.7351,0.2297,38.6200,95,99,144877
1.8182,0.2395,38.3000,95,99,144881
1.7400,0.2297,38.3000,95,99,144884
1.7253,0.2297,38.6500,95,99,144887
1.7204,0.2346,38.6500,95,99,144890
1.7204,0.2297,38.6800,95,99,144894
1.7840,0.2444,38.4600,95,99,144898
1.7595,0.2395,38.6200,95,99,144901
1.7644,0.2248,38.6800,95,99,144905
1.7644,0.2444,38.6800,95,99,144908
1.7693,0.2297,38.5200,95,99,144911
1.7937,0.2444,38.6800,95,99,144915
1.7644,0.2297,38.6500,95,99,144918
1.7742,0.2297,38.5500,95,99,144921
1.7546,0.2297,38.6800,95,99,144925
1.7595,0.2297,38.6800,95,99,144928
1.7889,0.2737,38.5500,95,99,144931
1.7644,0.2297,38.6800,95,99,144934
1.7986,0.2346,38.5800,95,99,144939
1.7889,0.2248,38.6200,95,99,144942
1.7840,0.2297,38.9000,95,99,144945
1.7937,0.2346,38.5500,95,99,144949
1.7498,0.2297,38.6800,95,99,144952
1.7498,0.2297,38.9600,95,99,144955
1.7302,0.2297,38.6200,95,99,144959
1.7302,0.2297,38.9000,95,99,144962
1.7449,0.2395,38.5500,95,99,144965
1.7351,0.2297,38.6500,95,99,144968
1.7742,0.2346,38.5800,95,99,144972
1.7400,0.2102,38.6200,95,99,144975
1.7498,0.2297,38.6800,95,99,144978
1.7595,0.2395,38.6500,95,99,144983
1.7351,0.2297,38.7100,95,99,144986
1.7840,0.2493,38.3600,95,99,144989
1.7498,0.2346,38.5800,95,99,144993
1.7253,0.2248,38.6800,95,99,144996
1.7107,0.2346,38.6800,95,99,144999
1.7107,0.2297,38.7100,95,99,145003
1.7498,0.2395,38.4900,95,99,145006
1.7204,0.2346,38.6200,95,99,145009
1.7204,0.2297,38.5200,95,99,145013
1.7155,0.2346,38.6800,95,99,145016
1.7253,0.2297,38.6800,95,99,145019
1.7644,0.2395,38.4900,95,99,145022
1.7595,0.2346,38.6500,95,99,145027
1.7742,0.2346,38.5500,95,99,145030
1.7546,0.2346,38.6500,95,99,145033
1.7498,0.2297,38.7100,95,99,145037
1.7400,0.2248,38.5500,95,99,145040
1.7155,0.2297,38.6800,95,99,145043
1.7400,0.2297,38.5500,95,99,145047
1.7155,0.2346,38.6800,95,99,145050
1.7253,0.2297,38.7100,95,99,145053
1.7546,0.2346,38.7100,95,99,145057
1.7595,0.2297,38.6800,95,99,145060
1.7742,0.2346,38.1100,95,99,145063
1.7644,0.2590,38.5200,95,99,145067
1.7791,0.2199,38.6800,95,99,145071
1.8182,0.2493,38.6200,95,99,145074
1.8280,0.2297,38.6800,95,99,145077
1.8671,0.2395,38.5200,95,99,145081
1.9697,0.2395,38.5200,95,99,145085
1.9599,0.2346,38.6200,95,99,145089
1.9697,0.2297,38.5500,95,99,145092
1.9453,0.2297,38.6200,95,99,145095
1.9404,0.2297,38.6800,95,99,145099
1.9453,0.2346,38.7400,95,99,145102
1.9159,0.2346,38.6500,95,99,145105
1.8524,0.2297,38.5200,95,99,145110
1.7791,0.2297,38.6800,95,99,145113
1.7498,0.2297,38.6800,95,99,145116
1.7595,0.2444,38.5200,95,99,145119
1.7204,0.2346,38.6800,95,99,145123
1.7253,0.2297,38.4900,95,99,145126
1.6813,0.2248,38.5800,95,99,145129
1.6618,0.2297,38.7100,95,99,145133
1.6618,0.2297,38.5500,95,99,145136
1.6422,0.2297,38.6500,95,99,145139
1.6569,0.2346,38.4600,95,99,145143
1.6227,0.2346,38.6200,95,99,145146
1.6178,0.2297,38.7100,95,99,145149
1.6325,0.2639,38.6200,95,99,145154
1.6227,0.2297,38.6800,95,99,145157
1.6716,0.2395,38.4900,95,99,145160
1.6422,0.2346,38.6200,95,99,145164
1.6471,0.2248,38.6500,95,99,145167
1.6569,0.2395,38.6800,95,99,145170
1.6471,0.2297,38.8100,95,99,145173
1.7009,0.2542,38.4900,95,99,145177
1.6813,0.2297,38.6500,95,99,145180
1.6764,0.2297,38.6200,95,99,145183
1.6862,0.2346,38.6800,95,99,145187
1.6667,0.2297,38.6800,95,99,145190
1.6520,0.2786,38.5500,95,99,145193
1.5640,0.2346,38.6800,95,99,145198
1.5249,0.2297,38.6500,95,99,145201
1.5005,0.2248,38.6800,95,99,145204
1.5836,0.2297,38.7400,95,99,145207
1.8182,0.2395,38.6500,95,99,145211
2.1457,0.2297,38.6500,95,99,145214
2.6491,0.2346,38.5500,95,99,145217
3.1036,0.2297,38.6800,95,99,145221
3.5337,0.2346,38.6800,95,99,145224
3.7781,0.2346,38.5500,95,99,145227
3.6852,0.2297,38.6500,95,99,145231
3.4115,0.2395,38.5200,95,99,145234
2.9277,0.2297,38.7100,95,99,145238
2.4829,0.2346,38.6500,95,99,145242
2.1212,0.2346,38.6200,95,99,145245
1.7986,0.2346,38.6800,95,99,145248
1.6276,0.2346,38.4600,95,99,145251
1.4858,0.2346,38.7400,95,99,145255
1.4076,0.2493,38.7100,95,99,145258
1.3832,0.2346,38.6500,95,99,145261
1.3685,0.2395,38.6500,95,99,145265
1.4272,0.2444,38.4000,95,99,145268
1.4027,0.2444,38.5500,95,99,145271
1.4027,0.2248,38.6500,95,99,145275
1.4076,0.2297,38.6800,95,99,145278
1.4125,0.2297,38.8400,95,99,145282
1.4516,0.2444,38.5200,95,99,145286
1.4418,0.2346,38.6500,95,99,145289
1.4418,0.2346,38.5800,95,99,145292
1.4370,0.2297,38.6800,95,99,145295
1.4516,0.2346,38.6800,95,99,145299
1.4956,0.2395,38.6200,95,99,145302
1.4907,0.2297,38.2100,95,99,145305
1.5200,0.2346,38.5200,95,99,145309
1.5200,0.2297,38.6800,95,99,145312
1.5494,0.2297,38.8100,95,99,145315
1.6080,0.2395,38.5500,95,99,145319
1.5934,0.2297,38.6800,95,99,145323
1.6129,0.2346,38.5500,95,99,145326
1.5738,0.2297,38.5800,95,99,145330
1.5591,0.2297,38.7100,95,99,145333
1.5885,0.2346,38.5200,95,99,145336
1.5836,0.2297,38.6800,95,99,145339
1.6227,0.2346,38.4300,95,99,145343
1.6031,0.2346,38.6500,95,99,145346
1.6325,0.2297,37.8700,95,99,145349
1.6862,0.2444,38.6200,95,99,145353
1.6618,0.2297,38.7100,95,99,145356
1.7107,0.2444,38.4000,95,99,145359
1.6716,0.2297,38.6200,95,99,145363
1.6813,0.2297,38.6800,95,99,145367
1.6862,0.2346,38.6500,95,99,145370
1.6862,0.2297,38.6200,95,99,145374
1.7400,0.2444,38.4600,95,99,145377
1.7155,0.2297,38.6200,95,99,145380
1.7155,0.2297,38.5800,95,99,145383
1.7204,0.2297,38.6500,95,99,145387
1.7253,0.2297,38.7100,95,99,145390
1.7889,0.2395,38.4900,95,99,145393
1.7546,0.2297,38.6200,95,99,145397
1.7791,0.2395,38.5500,95,99,145400
1.7742,0.2297,38.8100,95,99,145403
1.7840,0.2248,38.6800,95,99,145408
1.8182,0.2395,38.5800,95,99,145411
1.8035,0.2297,38.7700,95,99,145414
1.8328,0.2395,38.5800,95,99,145418
1.8280,0.2199,38.6800,95,99,145421
1.8280,0.2297,38.6800,95,99,145424
1.8524,0.2395,38.6200,95,99,145427
1.8622,0.2297,38.6800,95,99,145431
1.9110,0.2297,38.5200,95,99,145434
1.9013,0.2346,38.6800,95,99,145437
1.9159,0.2297,38.7100,95,99,145441
1.9355,0.2395,38.6200,95,99,145444
1.9257,0.2346,38.7100,95,99,145447
1.9795,0.2395,38.5500,95,99,145452
1.9550,0.2346,38.5200,95,99,145455
1.9306,0.2297,38.6800,95,99,145458
1.9501,0.2395,38.6200,95,99,145462
1.9550,0.2346,38.6800,95,99,145465
2.0137,0.2395,38.4600,95,99,145468
1.9844,0.2395,38.5500,95,99,145471
1.9697,0.2346,38.6500,95,99,145475
1.9550,0.2590,38.6500,95,99,145478
1.9257,0.2346,38.6800,95,99,145481
1.9648,0.2493,38.5200,95,99,145485
1.9159,0.2542,38.6800,95,99,145488
1.9062,0.2346,38.5800,95,99,145491
1.8768,0.2297,38.6500,95,99,145496
1.8573,0.2346,38.6800,95,99,145499
1.8671,0.2395,38.6500,95,99,145502
1.8280,0.2395,38.6800,95,99,145506
1.8377,0.2346,38.5500,95,99,145509
1.7889,0.2590,38.6800,95,99,145512
1.7742,0.2346,38.6800,95,99,145515
1.7937,0.2395,38.5200,95,99,145519
1.7546,0.2835,38.6800,95,99,145522
1.7791,0.2395,38.5500,95,99,145525
1.7449,0.2297,38.6500,95,99,145529
1.7693,0.2346,38.6800,95,99,145532
1.7595,0.2346,38.5200,95,99,145536
1.7351,0.2346,38.6800,95,99,145540
1.7595,0.2346,38.4900,95,99,145543
1.7302,0.2444,38.7100,95,99,145546
1.7302,0.2346,38.6800,95,99,145550
1.7351,0.2395,38.5800,95,99,145553
1.7155,0.2346,38.7100,95,99,145556
1.7498,0.2395,38.5200,95,99,145559
1.7155,0.2346,38.6200,95,99,145563
1.7400,0.2297,38.9000,95,99,145566
1.7595,0.2493,38.6500,95,99,145569
1.7351,0.2346,38.8100,95,99,145573
1.7840,0.2590,38.4600,95,99,145576
1.7400,0.2395,38.5800,95,99,145580
1.7155,0.2346,38.6200,95,99,145584
1.7155,0.2346,38.6800,95,99,145587
1.7155,0.2297,38.6800,95,99,145590
1.7546,0.2493,38.4900,95,99,145594
1.7449,0.2346,38.6500,95,99,145597
1.7644,0.2346,38.5500,95,99,145600
1.7644,0.2346,38.6800,95,99,145603
1.7546,0.2297,38.7700,95,99,145607
1.7644,0.2444,38.5500,95,99,145610
1.7449,0.2346,38.6800,95,99,145613
1.7742,0.2395,38.5200,95,99,145617
1.7595,0.2248,38.6800,95,99,145620
1.7644,0.2297,38.7100,95,99,145624
1.7644,0.2346,38.7700,95,99,145628
1.7449,0.2346,38.6800,95,99,145631
1.7449,0.2297,38.5200,95,99,145634
1.7107,0.2346,38.6800,95,99,145638
1.7107,0.2297,38.6500,95,99,145641
1.7351,0.2395,38.5500,95,99,145644
1.7253,0.2297,38.6800,95,99,145647
1.7644,0.2395,38.4000,95,99,145651
1.7449,0.2346,38.5500,95,99,145654
1.7351,0.2297,38.6500,95,99,145657
1.7546,0.2346,38.6800,95,99,145661
1.7253,0.2346,38.6800,95,99,145665
1.7644,0.2444,38.3300,95,99,145668
1.7204,0.2346,38.5800,95,99,145672
1.7204,0.2297,38.6500,95,99,145675
1.7155,0.2590,38.6800,95,99,145678
1.7107,0.2346,38.6800,95,99,145682
1.7498,0.2493,38.4900,95,99,145685
1.7204,0.2395,38.6500,95,99,145688
1.7204,0.2297,38.5800,95,99,145691
1.7204,0.2346,38.7400,94,99,145695
1.7498,0.2297,38.7700,94,99,145698
1.7498,0.2493,38.6800,94,99,145702
1.7840,0.2395,38.5500,94,99,145705
1.7742,0.2346,38.6200,94,99,145709
1.8182,0.2346,38.4900,94,99,145713
1.8182,0.2346,38.7700,94,99,145716
1.8280,0.2346,38.7100,94,99,145719
1.8671,0.2444,38.5200,94,99,145723
1.8768,0.2395,38.6800,94,99,145726
1.9550,0.2297,38.4300,94,99,145729
1.9404,0.2346,38.6200,94,99,145733
1.9501,0.2346,38.6800,94,99,145736
1.9697,0.2395,38.6500,94,99,145739
1.9648,0.2297,38.6500,94,99,145742
2.0088,0.2346,38.3600,94,99,145746
1.9453,0.2346,38.6200,94,99,145750
1.9013,0.2297,38.6500,94,99,145753
1.8719,0.2346,38.6800,94,99,145757
1.8231,0.2346,38.7100,94,99,145760
1.8573,0.2542,38.4900,94,99,145763
1.7986,0.2395,37.8300,94,99,145767
1.7742,0.2444,38.5800,94,99,145770
1.7400,0.2346,38.6800,94,99,145773
1.7204,0.2346,38.6800,94,99,145777
1.7351,0.2444,38.4900,94,99,145780
1.6911,0.2346,38.6500,94,99,145783
1.6960,0.2346,38.5200,94,99,145787
1.6569,0.2297,38.6800,94,99,145790
1.6618,0.2346,38.6800,94,99,145794
1.6813,0.2395,38.5800,94,99,145797
1.6618,0.2346,38.6800,94,99,145801
1.6813,0.2395,38.5800,94,99,145804
1.6422,0.2346,38.6500,94,99,145807
1.6373,0.2346,38.6800,94,99,145811
1.6471,0.2346,38.5500,94,99,145814
1.6422,0.2346,38.6800,94,99,145817
1.6813,0.2346,38.4600,94,99,145821
1.6667,0.2346,38.6800,94,99,145824
1.6813,0.2346,38.6800,94,99,145827
1.6960,0.2395,38.6800,94,99,145830
1.6764,0.2248,38.6800,94,99,145835
1.7155,0.2395,38.4300,94,99,145838
1.6520,0.2395,38.8400,94,99,145841
1.5982,0.2395,38.6800,94,99,145845
1.5591,0.2395,38.5800,94,99,145848
1.5200,0.2346,38.6800,94,99,145851
1.5934,0.2493,38.4000,94,99,145855
1.6911,0.2395,38.5200,94,99,145858
1.9404,0.2346,38.6500,94,99,145861
2.3558,0.2346,38.7100,94,99,145865
2.8495,0.2346,38.6800,94,99,145868
3.4213,0.2395,38.5500,94,99,145871
3.7341,0.2395,38.6500,94,99,145874
3.8416,0.2346,38.5500,94,99,145879
3.6070,0.2297,38.7400,94,99,145882
3.2111,0.2444,38.6800,94,99,145885
2.7908,0.2444,38.6200,94,99,145889
2.3167,0.2297,38.6800,94,99,145892
1.9746,0.2346,38.5200,94,99,145895
1.6862,0.2346,38.6800,94,99,145899
1.5298,0.2346,38.7100,94,99,145902
1.4712,0.2444,38.5500,94,99,145905
1.4076,0.2346,38.6800,94,99,145909
1.4076,0.2395,38.5200,94,99,145912
1.3783,0.2297,38.6200,94,99,145915
1.3832,0.2395,38.5800,94,99,145918
1.4027,0.2395,38.5200,94,99,145923
1.3930,0.2346,38.7100,94,99,145926
1.4321,0.2395,38.4600,94,99,145929
1.4223,0.2297,38.6200,94,99,145933
1.4467,0.2346,38.7400,94,99,145936
1.4761,0.2346,38.6200,94,99,145939
1.4809,0.2346,38.7100,94,99,145943
1.5298,0.2444,38.4000,94,99,145946
1.5005,0.2346,38.5500,94,99,145949
1.5152,0.2346,38.6800,94,99,145952
1.5298,0.2395,38.6500,94,99,145956
1.5445,0.2297,38.6800,94,99,145959
1.6080,0.2493,38.4600,94,99,145963
1.5787,0.2639,38.6200,94,99,145967
1.5836,0.2346,38.6200,94,99,145970
1.5885,0.2346,38.6800,94,99,145973
1.6031,0.2346,38.7100,94,99,145977
1.6373,0.2444,38.4900,94,99,145980
1.6325,0.2395,38.6200,94,99,145983
1.6178,0.2346,38.5200,94,99,145987
1.5934,0.2297,38.6800,94,99,145990
1.6031,0.2346,38.6800,94,99,145993
1.6325,0.2493,38.6200,94,99,145996
1.6373,0.2346,38.6800,94,99,146000
1.6716,0.2444,38.5800,94,99,146003
1.6569,0.2346,38.6500,94,99,146007
1.6764,0.2297,38.7100,94,99,146011
1.6911,0.2346,38.5800,94,99,146014
1.7107,0.2346,38.6800,94,99,146017
1.7107,0.2346,38.4900,94,99,146021
1.6911,0.2346,38.6800,94,99,146024
1.7155,0.2297,38.7100,94,99,146027
1.7449,0.2688,38.5800,94,99,146031
1.7498,0.2346,38.6800,94,99,146034
1.7937,0.2395,38.4000,94,99,146037
1.7742,0.2444,38.6800,94,99,146040
1.7840,0.2346,38.6800,94,99,146044
1.7840,0.2395,38.6500,94,99,146048
1.7791,0.2346,38.6800,94,99,146051
1.8426,0.2297,38.4000,94,99,146055
1.8231,0.2737,38.5800,94,99,146058
1.8280,0.2346,38.6800,94,99,146061
1.8328,0.2395,38.5200,94,99,146065
1.8280,0.2639,38.7100,94,99,146068
1.8768,0.2493,38.4900,94,99,146071
1.8622,0.2395,38.6200,94,99,146075
1.8719,0.2346,38.5800,94,99,146078
1.8817,0.2346,38.6800,94,99,146081
1.9208,0.2346,38.6800,94,99,146084
1.9208,0.2297,38.5800,94,99,146088
1.9062,0.2395,38.6800,94,99,146092
1.9306,0.2395,38.5500,94,99,146095
1.9159,0.2346,38.6800,94,99,146099
1.9257,0.2346,38.6800,94,99,146102
1.9648,0.2444,38.5200,94,99,146105
1.9453,0.2395,38.6200,94,99,146109
1.9795,0.2395,38.5500,94,99,146112
1.9550,0.2346,38.6500,94,99,146115
1.9599,0.2346,38.6500,94,99,146119
1.9795,0.2395,38.5500,94,99,146122
1.9550,0.2346,38.6800,94,99,146125
1.9746,0.2444,38.4600,94,99,146128
1.9355,0.2346,38.7100,94,99,146132
1.9208,0.2444,38.7100,94,99,146136
1.9355,0.2395,38.5800,94,99,146139
1.9062,0.2297,38.6800,94,99,146143
1.9550,0.2493,38.4000,94,99,146146
1.9013,0.2346,38.6500,94,99,146149
1.8915,0.2346,38.6800,94,99,146153
1.9013,0.2346,38.6500,94,99,146156
1.8377,0.2346,38.7100,94,99,146159
1.8573,0.2542,38.4300,94,99,146163
1.7986,0.2395,38.5800,94,99,146166
1.7644,0.2346,38.6200,94,99,146169
1.7546,0.2444,38.6800,94,99,146172
1.7498,0.2346,38.6800,94,99,146177
1.8133,0.2444,38.4900,94,99,146180
1.7644,0.2395,38.6500,94,99,146183
1.7693,0.2542,38.5500,94,99,146187
1.7595,0.2346,38.6800,94,99,146190
1.7693,0.2346,38.7400,94,99,146193
1.8035,0.2395,38.5500,94,99,146197
1.7840,0.2395,38.7700,94,99,146200
1.7986,0.2493,38.5200,94,99,146203
1.7595,0.2346,38.6800,94,99,146207
1.7644,0.2346,38.7100,94,99,146210
1.7840,0.2444,38.5800,94,99,146213
1.8035,0.2395,38.6800,94,99,146216
1.8328,0.2346,38.5200,94,99,146221
1.8035,0.2346,38.6800,94,99,146224
1.8133,0.2297,38.6800,94,99,146227
1.8377,0.2395,38.4900,94,99,146231
1.8084,0.2346,38.6800,94,99,146234
1.8280,0.2395,38.4600,94,99,146237
1.7937,0.2395,38.5500,94,99,146241
1.8035,0.2346,38.7100,94,99,146244
1.7889,0.2444,38.6500,94,99,146247
1.7840,0.2395,38.6800,94,99,146250
1.8719,0.2444,38.4000,94,99,146254
1.7986,0.2395,38.5800,94,99,146257
1.7986,0.2346,38.6800,94,99,146260
1.8035,0.2395,38.6800,94,99,146265
1.7889,0.2395,38.6800,94,99,146268
1.8377,0.2493,38.4600,94,99,146271
1.7937,0.2786,38.5800,94,99,146275
1.7889,0.2395,38.6200,94,99,146278
1.7889,0.2395,38.8100,94,99,146281
1.8182,0.2346,38.6800,94,99,146285
1.8280,0.2444,38.5800,94,99,146288
1.8084,0.2395,38.6500,94,99,146291
1.8182,0.2639,38.5500,94,99,146294
1.7986,0.2346,38.5800,94,99,146298
1.7986,0.2737,38.7100,94,99,146301
1.8280,0.2444,38.5200,93,99,146305
1.7937,0.2395,38.6200,93,99,146309
1.7693,0.2884,38.6500,93,99,146312
1.7986,0.2395,38.4600,93,99,146316
1.7595,0.2395,38.8100,93,99,146319
1.7546,0.2395,38.6800,93,99,146322
1.7644,0.2395,38.6200,93,99,146326
1.7498,0.2346,38.5800,93,99,146329
1.8035,0.2395,38.4300,93,99,146332
1.7546,0.2346,38.7400,93,99,146336
1.7693,0.2590,38.6500,93,99,146339
1.7889,0.2395,38.6500,93,99,146342
1.7986,0.2346,38.6500,93,99,146345
1.8719,0.2542,38.4600,93,99,146350
1.8573,0.2444,38.6200,93,99,146353
1.8671,0.2297,38.6200,93,99,146356
1.8719,0.2395,38.7400,93,99,146360
1.8866,0.2346,38.7100,93,99,146363
1.9453,0.2395,38.5200,93,99,146366
1.9453,0.2395,38.5800,93,99,146370
1.9795,0.2346,38.5500,93,99,146373
1.9795,0.2346,38.5800,93,99,146376
1.9990,0.2737,38.6800,93,99,146380
2.0381,0.2444,38.5800,93,99,146383
2.0088,0.2395,38.6800,93,99,146386
2.0235,0.2444,38.6200,93,99,146390
1.9990,0.2346,38.7100,93,99,146394
1.9306,0.2297,38.6800,93,99,146397
1.9013,0.2395,38.6200,93,99,146400
