ecg,gsr,temp,hr,spo2,timest
1.9697,0.2004,38.6500,97,92,318668
1.9501,0.2102,38.6200,97,92,318671
1.9208,0.2102,38.6800,97,92,318674
1.9746,0.2248,38.4300,97,92,318679
1.9306,0.2102,38.5500,97,92,318682
1.9453,0.2053,38.5200,97,92,318685
1.9208,0.2102,38.6800,97,92,318689
1.9257,0.2004,38.5800,97,92,318692
1.9599,0.2151,38.5200,97,92,318695
1.9501,0.2102,38.6500,97,92,318699
1.9795,0.2199,38.4900,97,92,318702
1.9599,0.2102,38.6800,97,92,318705
1.9257,0.2151,38.6200,97,92,318709
1.9159,0.2199,38.4900,97,92,318712
1.8622,0.2102,38.6200,97,92,318715
1.8817,0.2102,38.5200,97,92,318718
1.8475,0.2004,38.6200,97,92,318723
1.8622,0.2053,38.6800,97,92,318726
1.9062,0.2102,38.8700,97,92,318729
1.9062,0.2346,38.6200,97,92,318733
1.9648,0.2102,38.4000,97,92,318736
1.8866,0.2053,38.7700,97,92,318739
1.8671,0.2053,38.6500,97,92,318743
1.8671,0.2151,38.5500,97,92,318746
1.8524,0.2053,38.5800,97,92,318749
1.9306,0.2151,38.3600,97,92,318753
1.8964,0.2053,38.5500,97,92,318756
1.8866,0.2151,38.6200,97,92,318759
1.8768,0.2102,38.5800,97,92,318763
1.8671,0.2053,38.7400,97,92,318767
1.9306,0.2297,38.3600,97,92,318770
1.8866,0.2102,38.4900,97,92,318773
1.8524,0.2004,38.5500,97,92,318777
1.8524,0.1906,38.6200,97,92,318780
1.8426,0.2053,38.6200,97,92,318783
1.9013,0.2248,38.4300,97,92,318787
1.9013,0.1906,38.5200,97,92,318791
1.8622,0.2053,38.6200,97,92,318795
1.8866,0.2102,38.4600,97,92,318798
1.8719,0.2004,38.6200,97,92,318801
1.8964,0.2053,38.6500,97,92,318806
1.9159,0.2053,38.5200,97,92,318809
1.9208,0.2151,38.6500,97,92,318812
1.9550,0.2102,38.4600,97,92,318815
1.9306,0.2004,38.6500,97,92,318819
1.9355,0.2004,38.6200,97,92,318822
1.9501,0.2151,38.5500,97,92,318825
1.9257,0.2004,38.6800,97,92,318829
1.9648,0.2102,38.3600,97,92,318832
1.9110,0.2102,38.4900,97,92,318835
1.8915,0.2004,38.6200,97,92,318839
1.9306,0.2102,38.5800,97,92,318842
1.9501,0.2053,38.6500,97,92,318845
2.0430,0.2297,38.3300,97,92,318850
2.0381,0.2053,38.4300,97,92,318853
2.0381,0.2053,38.5800,97,92,318856
2.0430,0.2102,38.5500,97,92,318859
2.0332,0.2004,38.6200,97,92,318863
2.0626,0.2199,38.4300,97,92,318866
1.9990,0.2102,38.5500,97,92,318869
1.9599,0.2053,38.8700,97,92,318873
1.9257,0.2053,38.5800,97,92,318876
1.9013,0.2053,38.6500,97,92,318879
1.9159,0.2199,38.5800,97,92,318883
1.8866,0.2053,38.5800,97,92,318886
1.8964,0.2151,38.4900,97,92,318889
1.8622,0.2004,38.6800,97,92,318893
1.8377,0.2004,38.6200,97,92,318897
1.8573,0.2199,38.4900,97,92,318900
1.8280,0.2151,38.6200,97,92,318903
1.8719,0.2102,38.4900,97,92,318907
1.8377,0.2004,38.6500,97,92,318910
1.8133,0.2053,38.6500,97,92,318913
1.8084,0.2102,38.6500,97,92,318917
1.7937,0.2053,38.6200,97,92,318920
1.8280,0.2004,38.4000,97,92,318923
1.8035,0.2053,38.5800,97,92,318926
1.8133,0.2053,38.6200,97,92,318930
1.8377,0.2395,38.5200,97,92,318934
1.8328,0.2004,38.6200,97,92,318937
1.8719,0.2102,38.3600,97,92,318941
1.8377,0.1955,38.5800,97,92,318944
1.8426,0.2053,38.6200,97,92,318947
1.8524,0.2102,38.5500,97,92,318951
1.8377,0.2053,38.6200,97,92,318954
1.9013,0.2248,38.4000,97,92,318957
1.9062,0.2053,38.5500,97,92,318961
1.9501,0.1955,38.5800,97,92,318964
2.0137,0.2102,38.8100,97,92,318967
2.1017,0.2151,38.6800,97,92,318970
2.2972,0.2151,38.4300,97,92,318974
2.4438,0.2053,38.5500,97,92,318978
2.6833,0.2053,38.5200,97,92,318981
2.9326,0.2102,38.7100,97,92,318985
3.2063,0.2053,38.6500,97,92,318988
3.4506,0.2151,38.5200,97,92,318991
3.4409,0.2102,38.7100,97,92,318995
3.3089,0.2248,38.4600,97,92,318998
2.9423,0.2053,38.6200,97,92,319001
2.5562,0.2053,38.5200,97,92,319005
2.2287,0.2053,38.5800,97,92,319008
1.9404,0.2004,38.6200,97,92,319011
1.7693,0.2102,38.4900,97,92,319014
1.5934,0.2053,38.6200,97,92,319019
1.4907,0.2053,38.6200,97,92,319022
1.4467,0.2151,38.4600,97,92,319025
1.3783,0.1906,38.6200,97,92,319029
1.3490,0.2102,38.4600,97,92,319032
1.3148,0.2053,38.5500,97,92,319035
1.3343,0.2053,38.6200,97,92,319039
1.3978,0.2151,38.6200,97,92,319042
1.4223,0.2053,38.6200,97,92,319045
1.4761,0.2151,38.3300,97,92,319049
1.4516,0.2053,38.5200,97,92,319052
1.4614,0.2053,38.5800,97,92,319055
1.4809,0.2053,38.6800,97,92,319058
1.5298,0.2053,38.6200,97,92,319063
1.6031,0.2248,38.4300,97,92,319066
1.5934,0.2151,38.5500,97,92,319069
1.6031,0.2053,38.5500,97,92,319073
1.6031,0.2053,38.6200,97,92,319076
1.6031,0.1906,38.6200,97,92,319079
1.6471,0.2199,38.6500,97,92,319083
1.6422,0.2004,38.6200,97,92,319086
1.6520,0.2053,38.4900,97,92,319089
1.6227,0.2053,38.5800,97,92,319093
1.6129,0.2053,38.6500,97,92,319096
1.6422,0.2102,38.4600,97,92,319099
1.6325,0.2053,38.6200,97,92,319102
1.6764,0.2151,38.5200,97,92,319107
1.6618,0.2053,38.5800,97,92,319110
1.6813,0.2004,38.6500,97,92,319113
1.6960,0.2102,38.5800,97,92,319117
1.6862,0.2053,38.5800,97,92,319120
1.7058,0.2004,38.4900,97,92,319123
1.6813,0.2053,38.6200,97,92,319127
1.7009,0.2053,38.6200,97,92,319130
1.7498,0.2199,38.5200,97,92,319133
1.7351,0.2053,38.6200,97,92,319137
1.7644,0.2102,38.4600,97,92,319140
1.7204,0.2004,38.6200,97,92,319143
1.7058,0.2053,38.6200,97,92,319147
1.7107,0.2102,38.8400,97,92,319151
1.7204,0.2053,38.6200,97,92,319154
1.7840,0.2151,38.3300,97,92,319157
1.7595,0.2053,38.5500,97,92,319161
1.7400,0.2004,38.5800,97,92,319164
1.7449,0.2102,38.4900,97,92,319167
1.7449,0.2248,38.6200,97,92,319171
1.7937,0.2248,38.4300,97,92,319174
1.7546,0.2248,38.5500,97,92,319177
1.7498,0.2053,38.5500,97,92,319180
1.7595,0.2102,38.6200,97,92,319184
1.7693,0.2053,38.6200,97,92,319187
1.8035,0.2151,38.5200,97,92,319191
1.7840,0.2102,38.5800,97,92,319195
1.7937,0.2102,38.4900,97,92,319198
1.7546,0.2102,38.6200,97,92,319201
1.7498,0.2053,38.8700,97,92,319205
1.7644,0.2102,38.5500,97,92,319208
1.7546,0.2053,38.6200,97,92,319211
1.7791,0.2151,38.5500,97,92,319215
1.7595,0.2053,38.6200,97,92,319218
1.7693,0.2053,38.6200,97,92,319221
1.7937,0.2102,38.5200,97,92,319224
1.7742,0.1906,38.6200,97,92,319228
1.7986,0.2102,38.4300,97,92,319232
1.7889,0.2395,38.4900,97,92,319235
1.8035,0.2004,38.6200,97,92,319239
1.8182,0.2151,38.5500,97,92,319242
1.8035,0.2151,38.6500,97,92,319245
1.8719,0.2151,38.4300,97,92,319249
1.8084,0.2004,38.5200,97,92,319252
1.8133,0.2053,38.6500,97,92,319255
1.8426,0.2151,38.5800,97,92,319259
1.8475,0.2053,38.7100,97,92,319262
1.9159,0.2297,38.3300,97,92,319265
1.8817,0.2053,37.7700,97,92,319268
1.8719,0.2053,38.5500,97,92,319272
1.8719,0.2102,38.6200,97,92,319276
1.8719,0.2053,38.6200,97,92,319279
1.9208,0.2199,38.4600,97,92,319283
1.8915,0.2102,38.6500,97,92,319286
1.8866,0.2053,38.5500,97,92,319289
1.8768,0.2102,38.6200,97,92,319293
1.8719,0.2053,38.5500,97,92,319296
1.8866,0.2151,38.4300,97,92,319299
1.8426,0.2102,38.5500,97,92,319303
1.8573,0.2151,38.4900,97,92,319306
1.8231,0.2053,38.6500,97,92,319309
1.8280,0.2053,38.6800,97,92,319312
1.8475,0.2053,38.5200,97,92,319316
1.8231,0.2053,38.6200,97,92,319320
1.8573,0.2053,38.4900,97,92,319323
1.8231,0.2004,38.5800,97,92,319327
1.8182,0.2053,38.6200,97,92,319330
1.8182,0.2102,38.4900,97,92,319333
1.7937,0.2102,38.6200,97,92,319337
1.8231,0.2102,38.4000,97,92,319340
1.7937,0.2053,38.6200,97,92,319343
1.7986,0.1906,38.6500,97,92,319347
1.8231,0.2151,38.5500,97,92,319350
1.7986,0.2053,38.6200,97,92,319353
1.8377,0.2151,38.2700,97,92,319356
1.8035,0.2053,38.5500,97,92,319361
1.7889,0.2053,38.6500,97,92,319364
1.7889,0.2542,38.6200,97,92,319367
1.7840,0.2053,38.6200,97,92,319371
1.8328,0.1906,38.4600,97,92,319374
1.7840,0.2151,38.5500,97,92,319377
1.7791,0.2004,38.5200,97,92,319381
1.7742,0.2102,38.5800,97,92,319384
1.7840,0.2053,38.6500,97,92,319387
1.8231,0.2199,38.4900,97,92,319391
1.7937,0.2102,38.6200,97,92,319394
1.7986,0.2004,38.5500,97,92,319397
1.7693,0.2102,38.6200,97,92,319400
1.7840,0.2053,38.7100,97,92,319406
1.7937,0.2053,38.8100,97,92,319409
1.8328,0.2102,38.6800,97,92,319413
1.8231,0.2053,37.8700,97,92,319416
1.8671,0.2248,38.4000,97,92,319419
1.8524,0.2102,38.4900,97,92,319423
1.8328,0.2053,38.8400,97,92,319426
1.8622,0.2102,38.5200,97,92,319429
1.8377,0.2053,38.6200,97,92,319433
1.8964,0.2151,38.3000,97,92,319436
1.8671,0.2053,38.5200,97,92,319439
1.8768,0.2004,38.5500,97,92,319443
1.8964,0.2297,38.5800,97,92,319447
1.9013,0.2053,38.6200,97,92,319450
1.9501,0.2248,38.4300,97,92,319453
1.9208,0.2151,38.5500,97,92,319457
1.9306,0.2053,38.5200,97,92,319460
1.9355,0.2102,38.7100,97,92,319463
1.9501,0.2102,38.6200,97,92,319467
1.9844,0.2199,38.6200,97,92,319470
1.9404,0.2053,38.6200,97,92,319473
1.9501,0.2102,38.4900,97,92,319477
1.8768,0.2102,38.6500,97,92,319480
1.8426,0.2004,38.6500,97,92,319483
1.8377,0.2199,38.4600,97,92,319488
1.8035,0.2102,38.5800,97,92,319491
1.8231,0.2151,38.5200,97,92,319494
1.7986,0.2004,38.5800,97,92,319497
1.7937,0.2053,38.6500,97,92,319501
1.7986,0.2102,38.4900,97,92,319504
1.7742,0.2053,38.7100,97,92,319507
1.7840,0.2053,38.4300,97,92,319511
1.7449,0.2053,38.6200,97,92,319514
1.7400,0.2053,38.7100,97,92,319517
1.7400,0.2102,38.5500,97,92,319521
1.7204,0.2004,38.6200,97,92,319524
1.7449,0.2102,38.3600,97,92,319527
1.7204,0.2053,38.6800,97,92,319532
1.7155,0.2053,38.6200,97,92,319535
1.7302,0.2102,38.4300,97,92,319538
1.7302,0.2053,38.6200,97,92,319541
1.7742,0.2199,38.3300,97,92,319545
1.7449,0.2297,38.5200,97,92,319548
1.7302,0.2004,38.6200,97,92,319551
1.7400,0.2151,38.6200,97,92,319555
1.7351,0.2493,38.6200,97,92,319558
1.7937,0.2248,38.4300,97,92,319561
1.7693,0.2151,38.5500,97,92,319565
1.7889,0.1906,38.5200,97,92,319568
1.8231,0.2102,38.6200,97,92,319571
1.8719,0.2004,38.6800,97,92,319576
1.9844,0.2151,38.4900,97,92,319579
2.0919,0.2102,38.6200,97,92,319582
2.2825,0.2151,38.4900,97,92,319585
2.4829,0.2053,38.6500,97,92,319589
2.7370,0.2053,38.6200,97,92,319592
3.0254,0.2004,38.5800,97,92,319595
3.2063,0.2151,38.6200,97,92,319599
3.3236,0.2151,38.5200,97,92,319602
3.1769,0.2102,38.6800,97,92,319605
2.9130,0.2053,38.8400,97,92,319609
2.6002,0.2151,38.4900,97,92,319612
2.2385,0.2102,38.6200,97,92,319616
1.9844,0.2102,38.7700,97,92,319619
1.7351,0.2151,38.5200,97,92,319623
1.5494,0.2053,38.6200,97,92,319626
1.4614,0.2102,38.5500,97,92,319629
1.3392,0.2102,38.6200,97,92,319633
1.3245,0.2151,38.3300,97,92,319636
1.2757,0.2053,38.5500,97,92,319639
1.2708,0.2102,38.6500,97,92,319643
1.3099,0.2151,38.6200,97,92,319646
1.2952,0.2053,38.6200,97,92,319649
1.3587,0.2297,38.3300,97,92,319653
1.3490,0.2102,38.5500,97,92,319656
1.3587,0.2053,38.9600,97,92,319660
1.3783,0.2053,38.6200,97,92,319663
1.3832,0.2053,38.6500,97,92,319667
1.4516,0.2199,38.4600,97,92,319670
1.4418,0.2151,38.6200,97,92,319673
1.4712,0.2102,38.5200,97,92,319677
1.4663,0.2004,38.6200,97,92,319680
1.4858,0.2053,38.6500,97,92,319683
1.5249,0.2151,38.4000,97,92,319687
1.5152,0.2102,38.6200,97,92,319690
1.5494,0.2151,38.4900,97,92,319693
1.5347,0.2151,38.6800,97,92,319697
1.5494,0.2053,38.6200,97,92,319700
1.5689,0.2151,38.5200,97,92,319704
1.5689,0.2053,38.6200,97,92,319708
1.5982,0.2102,38.5200,97,92,319711
1.5982,0.2102,38.5800,97,92,319714
1.5885,0.1906,38.6200,97,92,319717
1.6178,0.2151,38.6200,97,92,319721
1.6031,0.2053,38.6800,97,92,319724
1.6422,0.2102,38.4000,97,92,319727
1.6129,0.2004,38.9600,97,92,319731
1.6227,0.2102,38.6200,97,92,319734
1.6276,0.2102,38.5800,97,92,319737
1.6227,0.2053,38.6800,97,92,319741
1.6716,0.1906,38.3300,97,92,319745
1.6422,0.2102,38.6200,97,92,319748
1.6618,0.2053,38.5800,97,92,319752
1.6569,0.2102,38.6500,97,92,319755
1.6618,0.2102,38.6200,97,92,319758
1.7058,0.2199,38.4600,97,92,319761
1.6911,0.2151,38.5500,97,92,319765
1.6862,0.2053,38.5200,97,92,319768
1.6716,0.2248,38.6200,97,92,319771
1.7009,0.2053,38.6200,97,92,319775
1.6960,0.2199,38.6200,97,92,319778
1.6813,0.2053,38.6200,97,92,319781
1.7107,0.2102,38.4900,97,92,319785
1.6862,0.2102,38.6500,97,92,319789
1.7253,0.2004,38.6800,97,92,319792
1.7058,0.2102,38.5500,97,92,319796
1.6960,0.2004,38.6200,97,92,319799
1.7253,0.2151,38.5500,97,92,319802
1.7058,0.2102,38.7700,97,92,319805
1.7107,0.2053,38.6500,97,92,319809
1.7449,0.2151,38.5200,97,92,319812
1.7155,0.2102,38.6200,97,92,319815
1.7498,0.2151,38.4000,97,92,319819
1.7351,0.2102,38.5200,97,92,319822
1.7302,0.2297,38.5800,97,92,319825
1.7498,0.2102,38.5500,97,92,319830
1.7351,0.2102,38.6500,97,92,319833
1.7791,0.2102,38.3600,97,92,319836
1.7351,0.2053,38.4900,97,92,319840
1.7400,0.2053,38.6800,97,92,319843
1.7498,0.1906,38.6200,97,92,319846
1.7595,0.2053,38.6200,97,92,319849
1.8280,0.2297,38.3600,97,92,319853
1.8035,0.2102,38.5500,97,92,319856
1.8084,0.2053,38.5800,97,92,319859
1.8182,0.2151,38.6200,97,92,319863
1.8231,0.2053,38.5800,97,92,319866
1.8719,0.2199,38.5200,97,92,319869
1.8475,0.1906,38.5800,97,92,319874
1.8573,0.2102,38.5500,97,92,319877
1.8426,0.2102,38.6200,97,92,319880
1.8377,0.2053,38.7400,97,92,319884
1.8671,0.2248,38.4600,97,92,319887
1.8328,0.2102,38.6200,97,92,319890
1.8524,0.2297,38.5200,97,92,319894
1.8280,0.2053,38.5800,97,92,319897
1.8231,0.2053,38.6500,97,92,319900
1.8426,0.2004,38.5200,97,92,319903
1.8280,0.2102,38.6200,97,92,319907
1.8475,0.2053,38.4600,97,92,319910
1.8182,0.2004,38.6800,97,92,319913
1.8231,0.2004,38.6500,97,92,319918
1.8377,0.2248,38.6500,97,92,319921
1.8231,0.2053,38.6200,97,92,319924
1.8671,0.2151,38.3600,97,92,319928
1.8231,0.2151,38.5800,97,92,319931
1.8231,0.2053,38.6200,97,92,319934
1.8231,0.2493,38.6200,97,92,319938
1.7986,0.2102,38.6200,97,92,319941
1.8377,0.2199,38.3600,97,92,319944
1.8084,0.2102,38.4900,97,92,319947
1.7889,0.1906,38.6200,97,92,319951
1.7840,0.2151,38.5800,97,92,319954
1.7693,0.2102,38.6500,97,92,319958
1.8182,0.2199,38.5200,97,92,319962
1.7791,0.2102,38.5800,97,92,319965
1.7742,0.2102,38.5500,97,92,319968
1.7644,0.2199,38.6500,97,92,319972
1.7742,0.2053,38.6200,97,92,319975
1.7742,0.2151,38.6200,97,92,319978
1.7546,0.2053,38.5800,97,92,319982
1.7693,0.2102,38.4600,97,92,319985
1.7449,0.2102,38.7400,97,92,319988
1.7498,0.2004,38.6200,97,92,319991
1.7546,0.2102,38.5500,97,92,319995
1.7449,0.2102,38.7100,97,92,319998
1.8035,0.2053,38.4900,97,92,320002
1.7498,0.2102,38.6800,97,92,320006
1.7546,0.2297,38.7400,97,92,320009
1.7791,0.2102,38.4900,97,92,320012
1.7840,0.2102,38.5800,97,92,320017
1.7840,0.2053,38.6200,97,92,320020
1.8377,0.2199,38.3000,97,92,320024
1.8133,0.1906,38.4900,97,92,320027
1.8133,0.2004,38.6500,97,92,320030
1.8182,0.2102,38.5500,97,92,320034
1.8328,0.2053,38.6200,97,92,320037
1.8768,0.2248,38.4600,97,92,320040
1.8524,0.2248,38.5800,97,92,320044
1.8524,0.2053,38.5200,97,92,320048
1.8524,0.2102,38.6500,97,92,320051
1.8573,0.2053,38.6200,97,92,320054
1.9013,0.2199,38.5500,97,92,320058
1.8866,0.2102,38.5800,97,92,320061
1.9062,0.2102,38.4900,97,92,320064
1.8964,0.2102,38.6200,97,92,320068
1.9110,0.2053,38.5800,97,92,320071
1.9599,0.2151,38.4900,97,92,320074
1.9453,0.2053,38.6200,97,92,320077
1.9795,0.2151,38.5200,97,92,320081
1.9404,0.2053,38.5200,97,92,320084
1.9306,0.2102,38.6800,97,92,320088
1.9159,0.2151,38.4900,97,92,320092
1.8817,0.2102,38.6200,97,92,320095
1.8866,0.2102,38.4000,97,92,320098
1.8328,0.2053,38.5800,97,92,320102
1.8231,0.1906,38.6800,97,92,320105
1.8280,0.2151,38.4600,97,92,320108
1.8231,0.2053,38.6200,97,92,320112
1.8426,0.2151,38.3600,97,92,320115
1.7937,0.2004,38.5500,97,92,320118
1.7937,0.2151,38.6200,97,92,320121
1.7840,0.2102,38.8400,97,92,320125
1.7693,0.2102,38.6800,97,92,320129
1.8133,0.2297,38.4000,97,92,320132
1.7742,0.2199,38.5500,97,92,320136
1.7644,0.2004,38.5500,97,92,320139
1.7595,0.2395,38.5500,97,92,320142
1.7498,0.2102,38.6200,97,92,320146
1.7889,0.2199,38.4300,97,92,320149
1.7644,0.2248,38.5800,97,92,320152
1.7937,0.2102,38.5200,97,92,320156
1.7595,0.2102,38.6800,97,92,320159
1.7595,0.2053,38.6200,97,92,320162
1.7840,0.2151,38.5200,97,92,320165
1.7693,0.2053,38.5500,97,92,320169
1.7986,0.2102,38.4900,97,92,320173
1.7937,0.1906,38.6200,97,92,320176
1.8231,0.2053,38.6200,97,92,320180
1.8671,0.2199,38.5500,97,92,320183
1.9159,0.2102,38.6800,97,92,320186
2.0186,0.2102,38.4900,97,92,320190
2.1065,0.2102,38.6200,97,92,320193
2.2581,0.2053,38.5200,97,92,320196
2.4780,0.2151,38.4900,97,92,320200
2.6833,0.2102,38.6200,97,92,320203
2.9863,0.2151,38.4000,97,92,320206
3.1916,0.2151,38.5200,97,92,320209
3.2600,0.2053,38.6500,97,92,320214
3.2405,0.2199,38.6200,97,92,320217
3.0010,0.2004,38.6200,97,92,320220
2.7761,0.2199,38.3300,97,92,320224
2.4047,0.2053,38.5800,97,92,320227
2.1359,0.2102,38.6800,97,92,320230
1.9159,0.2151,38.5800,97,92,320234
1.7253,0.2102,38.6500,97,92,320237
1.6276,0.2297,38.3600,97,92,320240
1.4907,0.2102,38.5500,97,92,320243
1.4174,0.2053,38.5800,97,92,320247
1.3783,0.2102,38.6200,97,92,320250
1.3490,0.2053,38.6200,97,92,320253
1.3734,0.2248,38.5200,97,92,320258
1.3587,0.2151,38.5800,97,92,320261
1.3734,0.2102,38.5200,97,92,320264
1.3783,0.2199,38.6800,97,92,320268
1.3978,0.2053,38.6200,97,92,320271
1.4370,0.2199,38.4000,97,92,320274
1.4272,0.2102,38.6200,97,92,320278
1.4663,0.2151,38.5200,97,92,320281
1.4614,0.2102,38.5800,97,92,320284
1.5005,0.1906,38.6200,97,92,320287
1.5103,0.2102,37.7700,97,92,320291
1.5152,0.2102,38.6200,97,92,320294
1.5689,0.2151,38.4600,97,92,320297
1.5445,0.2102,38.6200,97,92,320302
1.5543,0.2053,38.5800,97,92,320305
1.5738,0.2102,38.5200,97,92,320308
1.5689,0.2102,38.7100,97,92,320312
1.6031,0.2102,38.4000,97,92,320315
1.5787,0.2053,38.6200,97,92,320318
1.5934,0.2102,38.6500,97,92,320322
1.6129,0.2151,38.6800,97,92,320325
1.6031,0.2102,38.6200,97,92,320328
1.6862,0.2151,38.3000,97,92,320331
1.6325,0.2102,38.5500,97,92,320335
1.6227,0.2004,38.6200,97,92,320338
1.6373,0.2102,38.5800,97,92,320342
1.6373,0.2102,38.5200,97,92,320346
1.6862,0.2248,38.4900,97,92,320349
1.6618,0.2102,38.5800,97,92,320352
1.6618,0.2053,38.5500,97,92,320356
1.6569,0.2102,38.6500,97,92,320359
1.6569,0.2102,38.8400,97,92,320362
1.6862,0.2248,38.5200,97,92,320366
1.6667,0.2102,38.5800,97,92,320369
1.6911,0.2102,37.8700,97,92,320372
1.6764,0.2151,38.6500,97,92,320375
1.6862,0.2102,38.6200,97,92,320379
1.7107,0.2444,38.6200,97,92,320382
1.6960,0.2004,38.6200,97,92,320386
1.7400,0.2151,38.5200,97,92,320390
1.7107,0.2102,38.6200,97,92,320393
1.7498,0.2004,38.6200,97,92,320396
1.7449,0.2199,38.5200,97,92,320400
1.7204,0.2151,38.6200,97,92,320403
1.7498,0.2102,38.4300,97,92,320406
1.7351,0.2102,38.4600,97,92,320410
1.7302,0.2053,38.5800,97,92,320413
1.7546,0.2199,38.5200,97,92,320416
1.7498,0.2102,38.5800,97,92,320419
1.7937,0.2199,38.3600,97,92,320423
1.7644,0.2053,38.5500,97,92,320427
1.7693,0.2053,38.6200,97,92,320430
1.7889,0.2151,38.5800,97,92,320434
1.7840,0.2102,38.7400,97,92,320437
1.8377,0.2297,38.3300,97,92,320440
1.7986,0.1906,38.6200,97,92,320444
1.7889,0.2053,38.5500,97,92,320447
1.7889,0.2102,38.6200,97,92,320450
1.7889,0.2102,38.6200,97,92,320454
1.8377,0.2444,38.4600,97,92,320457
1.8084,0.2151,38.6200,97,92,320460
1.8280,0.2102,37.7400,97,92,320463
1.8475,0.2102,38.6500,97,92,320467
1.8377,0.2102,38.6200,97,92,320471
1.8817,0.2248,38.4600,97,92,320474
1.8622,0.2102,38.6200,97,92,320478
1.8866,0.2151,38.5500,97,92,320481
1.8671,0.2102,38.6500,97,92,320484
1.8671,0.2102,38.6200,97,92,320488
1.8817,0.2151,38.5500,97,92,320491
1.8719,0.2102,38.6200,97,92,320494
1.9013,0.2102,38.4600,97,92,320498
1.8768,0.2102,38.5800,97,92,320501
1.8817,0.2102,38.7100,97,92,320504
1.8964,0.2102,38.5200,97,92,320507
1.8964,0.2151,38.6200,97,92,320512
1.9110,0.2151,38.7700,97,92,320515
1.8719,0.2053,38.5800,97,92,320518
1.8671,0.2053,38.6500,97,92,320522
1.8671,0.2151,38.5800,97,92,320525
1.8475,0.2102,38.6800,97,92,320528
1.8915,0.2542,38.3600,97,92,320532
1.8573,0.2151,38.4900,97,92,320535
1.8377,0.2053,38.5800,97,92,320538
1.8377,0.2102,38.6200,97,92,320542
1.8231,0.2102,38.0500,97,92,320545
1.8719,0.2590,38.4000,97,92,320548
1.8328,0.1906,38.5500,97,92,320551
1.8231,0.2053,38.5500,97,92,320556
1.8133,0.2102,38.6200,97,92,320559
1.8182,0.2053,38.6200,97,92,320562
1.8377,0.2199,38.6200,97,92,320566
1.8231,0.2151,38.5800,97,92,320569
1.8377,0.2102,38.4900,97,92,320572
1.8182,0.2102,38.6200,97,92,320576
1.8182,0.2102,38.6200,97,92,320579
1.8280,0.2102,38.6200,97,92,320582
1.8133,0.2102,38.6500,97,92,320586
1.8328,0.1906,38.5200,97,92,320589
1.7986,0.2248,38.6800,97,92,320592
1.8035,0.2053,38.6200,97,92,320595
1.8231,0.2199,38.5200,97,92,320600
1.7986,0.2102,38.6200,97,92,320603
1.8280,0.1906,38.4300,97,92,320606
1.8084,0.2102,38.5800,97,92,320610
1.8035,0.2102,38.5800,97,92,320613
1.8280,0.2199,38.5500,97,92,320616
1.8035,0.2102,38.7100,97,92,320620
1.8426,0.2151,38.3300,97,92,320623
1.8915,0.2199,38.4600,97,92,320628
1.8426,0.2151,38.5800,97,92,320631
1.8377,0.2053,38.5200,97,92,320634
1.8426,0.2151,38.6200,97,92,320638
1.8377,0.2102,38.6200,97,92,320642
1.8719,0.2248,38.5500,97,92,320645
1.8524,0.2102,38.5800,97,92,320648
1.8768,0.2102,38.4300,97,92,320652
1.8622,0.2151,38.6200,97,92,320655
1.8671,0.2102,38.6200,97,92,320658
1.9355,0.2199,38.4900,97,92,320662
1.8915,0.2102,38.6800,97,92,320665
1.9257,0.2297,38.5500,97,92,320668
1.9013,0.2053,38.5800,97,92,320672
1.9110,0.2102,38.6800,97,92,320675
1.9355,0.2151,38.4900,97,92,320678
1.9306,0.2102,38.6200,97,92,320683
1.9746,0.2151,38.4000,97,92,320686
1.9453,0.2053,38.6200,97,92,320689
1.9404,0.2102,38.6200,97,92,320692
1.9501,0.2151,38.5800,97,92,320696
1.9208,0.2053,38.6800,97,92,320699
1.9550,0.2151,38.3600,97,92,320702
1.8866,0.2053,38.5200,97,92,320706
1.8719,0.2053,38.6200,97,92,320709
1.8817,0.2151,38.5800,97,92,320712
1.8475,0.2102,38.6200,97,92,320716
1.8915,0.2346,38.3600,97,92,320719
1.8426,0.2151,38.5200,97,92,320722
1.8182,0.2053,38.5800,97,92,320727
1.8084,0.2102,38.6200,97,92,320730
1.7937,0.2102,38.7400,97,92,320733
1.8280,0.2297,38.4300,97,92,320736
1.7889,0.2102,38.5800,97,92,320740
1.7889,0.2102,38.5200,97,92,320743
1.7791,0.2102,38.6200,97,92,320746
1.7840,0.2102,38.5800,97,92,320750
1.8084,0.2199,38.5200,97,92,320753
1.8035,0.2151,38.5800,97,92,320756
1.8035,0.2102,38.4600,97,92,320760
1.7791,0.2102,38.6500,97,92,320763
1.8084,0.2053,38.6200,97,92,320766
1.7889,0.2102,38.5200,97,92,320770
1.7742,0.2102,38.6200,97,92,320774
1.7937,0.2151,38.4900,97,92,320777
1.7693,0.2102,38.6200,97,92,320780
1.8133,0.2004,38.6200,97,92,320784
1.8328,0.2151,38.5500,97,92,320787
1.8524,0.2053,38.6200,97,92,320790
1.9208,0.2151,38.4000,97,92,320794
1.9648,0.2102,38.5200,97,92,320797
2.0430,0.2102,38.6200,97,92,320800
2.1994,0.2151,38.5500,97,92,320804
2.3460,0.2102,38.8100,97,92,320807
2.6197,0.2199,38.3600,97,92,320811
2.8055,0.2004,38.5500,97,92,320814
3.0352,0.2102,38.6500,97,92,320818
3.2258,0.2102,38.5800,97,92,320821
3.2649,0.2102,38.6200,97,92,320824
3.2405,0.2102,38.3600,97,92,320828
2.9130,0.2102,38.5800,97,92,320831
2.5904,0.2248,38.5800,97,92,320834
2.3069,0.2102,38.5800,97,92,320838
2.0332,0.2102,38.7100,97,92,320841
1.8573,0.2199,38.4900,97,92,320844
1.6520,0.2151,38.5800,97,92,320847
1.5054,0.2102,38.5200,97,92,320851
1.4076,0.2199,38.6200,97,92,320855
1.3636,0.1906,38.6200,97,92,320858
1.3734,0.2199,38.5200,97,92,320862
1.3636,0.2151,38.5800,97,92,320865
1.3685,0.2151,38.4600,97,92,320868
1.3636,0.2395,38.6500,97,92,320872
1.3881,0.2102,38.6200,97,92,320875
1.4027,0.2102,38.5800,97,92,320878
1.4076,0.2151,38.6200,97,92,320882
1.4565,0.2102,38.4900,97,92,320885
1.4467,0.2102,37.8700,97,92,320888
1.4809,0.2199,38.6800,97,92,320891
1.5152,0.2151,38.5200,97,92,320896
1.5200,0.2102,38.6200,97,92,320899
1.5591,0.2151,38.4000,97,92,320902
1.5543,0.2102,38.6500,97,92,320906
1.5640,0.2102,38.7700,97,92,320909
1.5787,0.2199,38.5800,97,92,320912
1.5738,0.2102,38.6800,97,92,320916
1.6276,0.2199,38.3300,97,92,320919
1.6129,0.2151,38.5500,97,92,320922
1.6080,0.2102,38.6500,97,92,320926
1.6178,0.2395,38.5800,97,92,320929
1.6422,0.2102,38.6200,97,92,320932
1.6569,0.2297,38.4000,97,92,320935
1.6129,0.2151,38.5500,97,92,320940
1.6031,0.1906,38.5500,97,92,320943
1.6129,0.2102,38.6200,97,92,320946
1.6129,0.2102,38.6200,97,92,320950
1.6569,0.2248,38.4600,97,92,320953
1.6373,0.2151,38.5800,97,92,320956
1.6569,0.2102,38.5200,97,92,320960
1.6569,0.2102,38.6200,97,92,320963
1.6618,0.2102,38.6500,97,92,320966
1.6862,0.2199,38.5500,97,92,320969
1.6618,0.2151,38.6200,97,92,320973
1.6911,0.2102,38.4900,97,92,320976
1.6813,0.2102,38.6500,97,92,320979
1.6716,0.2102,38.6200,97,92,320984
1.7009,0.2151,38.5500,97,92,320987
1.6764,0.2102,38.6500,97,92,320990
1.7107,0.2102,38.4900,97,92,320994
1.6960,0.2053,38.5200,97,92,320997
1.7107,0.2102,38.6500,97,92,321000
1.7302,0.2199,38.5200,97,92,321004
1.7204,0.2102,38.6200,97,92,321007
1.7546,0.2151,38.4900,97,92,321010
1.7498,0.2151,38.6800,97,92,321013
1.7351,0.2102,38.7400,97,92,321017
1.7595,0.2199,38.6200,97,92,321020
1.7595,0.2004,38.6200,97,92,321024
1.7986,0.2199,38.3300,97,92,321028
1.7546,0.2004,38.5500,97,92,321031
1.7595,0.2053,38.6200,97,92,321034
1.7644,0.2151,38.6800,97,92,321038
1.7693,0.2151,38.6200,97,92,321041
1.8328,0.2297,38.4300,97,92,321044
1.7937,0.2199,38.6200,97,92,321048
1.7937,0.2102,38.5500,97,92,321051
1.7840,0.2151,38.6200,97,92,321054
1.7791,0.2102,38.6500,97,92,321058
1.8133,0.2151,38.4300,97,92,321061
1.7986,0.2102,38.5800,97,92,321064
1.8231,0.2102,38.6500,97,92,321068
1.7986,0.2151,38.6200,97,92,321072
1.7986,0.2102,38.6200,97,92,321075
1.8182,0.2053,38.5500,97,92,321078
1.8182,0.2102,38.6200,97,92,321082
1.8475,0.2151,38.5500,97,92,321085
1.8182,0.2151,38.6200,97,92,321088
1.8328,0.2053,38.6200,97,92,321092
1.8622,0.2444,38.5500,97,92,321095
1.9062,0.2151,38.6200,97,92,321098
1.9062,0.2151,38.4300,97,92,321102
1.8964,0.2102,38.6200,97,92,321105
1.8915,0.2102,38.6800,97,92,321108
1.9110,0.2688,38.5200,97,92,321112
1.8866,0.2151,38.6200,97,92,321116
1.9355,0.2199,38.3600,97,92,321119
1.9013,0.2151,38.5200,97,92,321122
1.8866,0.2102,38.6500,97,92,321126
1.8915,0.2151,38.5800,97,92,321129
1.8817,0.2102,38.6500,97,92,321132
1.9208,0.2297,38.4000,97,92,321136
1.8671,0.2199,38.5500,97,92,321139
1.8377,0.2053,38.5200,97,92,321142
1.8231,0.2151,38.6200,97,92,321146
1.8182,0.2102,38.6500,97,92,321149
1.8475,0.2248,38.4600,97,92,321153
1.8182,0.2102,38.5800,97,92,321156
1.8328,0.2102,38.5200,97,92,321160
1.8182,0.2151,38.6200,97,92,321163
1.8231,0.2102,38.6800,97,92,321166
1.8377,0.2151,38.5500,97,92,321170
1.8182,0.2151,38.6200,97,92,321173
1.8280,0.2199,38.4600,97,92,321176
1.7986,0.2151,38.6800,97,92,321180
1.8182,0.2102,38.6200,97,92,321183
1.8426,0.2248,38.4900,97,92,321186
1.8035,0.2102,38.5800,97,92,321190
1.8133,0.2102,38.4300,97,92,321193
1.7742,0.2102,38.5200,97,92,321197
1.7742,0.2102,38.6500,97,92,321201
1.8084,0.2199,38.5200,97,92,321204
1.7693,0.2102,38.6200,97,92,321207
1.8133,0.2248,38.4600,97,92,321210
1.7889,0.2151,38.5800,97,92,321214
1.7889,0.2102,38.7400,97,92,321217
1.8035,0.2102,38.5800,97,92,321220
1.7889,0.2102,38.6200,97,92,321224
1.8524,0.2248,38.4000,97,92,321227
1.8231,0.2151,38.5200,97,92,321230
1.8035,0.2053,38.5500,97,92,321234
1.8133,0.2102,38.5800,97,92,321238
1.8231,0.2151,38.6800,97,92,321243
1.8231,0.1906,38.6800,97,92,321246
1.8524,0.2199,38.4600,97,92,321249
1.8328,0.2102,38.6200,97,92,321253
1.8573,0.2151,38.4900,97,92,321256
1.8328,0.2053,38.5800,97,92,321259
1.8377,0.2102,38.6500,97,92,321262
1.8622,0.2297,38.5200,97,92,321266
1.8524,0.2102,38.6500,97,92,321269
1.8915,0.2151,38.4000,97,92,321272
1.8622,0.2151,38.5800,97,92,321276
1.8622,0.2102,38.6200,97,92,321280
1.8964,0.2199,38.5800,97,92,321283
1.8964,0.2199,38.6800,97,92,321287
1.9599,0.2199,38.3600,97,92,321290
1.9355,0.2053,38.5800,97,92,321293
1.9550,0.2102,38.6500,97,92,321297
1.9599,0.2151,38.5200,97,92,321300
1.9453,0.2102,38.6200,97,92,321303
1.9795,0.2297,38.4300,97,92,321306
1.9208,0.2248,38.5500,97,92,321310
1.8768,0.2053,38.5800,97,92,321313
1.8573,0.2102,38.6500,97,92,321316
1.8328,0.2004,38.6200,97,92,321320
1.8573,0.2199,38.4300,97,92,321324
1.8133,0.2151,38.6200,97,92,321327
1.8084,0.2102,38.4900,97,92,321331
1.7937,0.2102,38.6800,97,92,321334
1.7840,0.2151,38.6200,97,92,321337
1.7986,0.2199,38.5500,97,92,321341
1.7742,0.2102,38.6200,97,92,321344
1.7937,0.2199,38.4900,97,92,321347
1.7546,0.2102,38.6200,97,92,321350
1.7498,0.2053,38.6200,97,92,321354
1.7595,0.1906,38.5500,97,92,321357
1.7449,0.2102,38.5800,97,92,321360
1.7595,0.2151,38.4600,97,92,321364
1.7253,0.2102,38.6200,97,92,321368
1.7400,0.2151,38.6800,97,92,321371
1.7644,0.2199,38.5200,97,92,321375
1.7546,0.2199,38.6200,97,92,321378
1.7986,0.1906,38.3600,97,92,321381
1.7791,0.2151,38.4900,97,92,321385
1.7742,0.2151,38.6200,97,92,321388
1.7840,0.2199,38.5500,97,92,321391
1.7889,0.2151,38.6200,97,92,321395
1.8524,0.2199,38.4600,97,92,321398
1.8524,0.2151,38.5200,97,92,321401
1.8817,0.2053,38.6200,97,92,321404
1.9453,0.2102,38.5800,97,92,321409
2.0479,0.2102,38.6200,97,92,321412
2.2776,0.2297,38.4300,97,92,321415
2.4487,0.2151,38.5200,97,92,321419
2.6882,0.2248,38.5500,97,92,321422
2.9326,0.1906,38.6200,97,92,321425
3.1769,0.2199,38.6200,97,92,321429
3.3822,0.2102,38.5200,97,92,321432
3.3333,0.2102,38.6800,97,92,321435
3.1476,0.2102,38.5500,97,92,321439
2.7810,0.2102,38.7100,97,92,321442
2.4438,0.2102,38.6500,97,92,321445
2.1994,0.2248,38.4600,97,92,321448
1.9208,0.2102,38.6200,97,92,321453
1.7595,0.2053,38.4900,97,92,321456
1.5885,0.2053,38.5800,97,92,321459
1.4761,0.2102,38.6200,97,92,321463
1.3978,0.2151,38.5200,97,92,321466
1.3392,0.2102,38.6200,97,92,321469
1.3343,0.2151,38.4000,97,92,321473
1.3099,0.2102,38.6200,97,92,321476
1.3441,0.2102,38.6800,97,92,321479
1.3930,0.2444,38.5500,97,92,321483
1.3978,0.1906,38.6200,97,92,321486
1.4516,0.2199,38.3600,97,92,321489
1.4565,0.2102,38.5800,97,92,321492
1.4418,0.2102,38.6500,97,92,321497
1.4663,0.2199,38.6200,97,92,321500
1.4858,0.2102,38.6500,97,92,321503
1.5494,0.2493,38.3600,97,92,321507
1.5445,0.2151,38.5500,97,92,321510
1.5591,0.2053,38.5500,97,92,321513
1.5689,0.2151,38.6200,97,92,321517
1.5836,0.2102,38.6500,97,92,321520
1.6276,0.2248,38.4300,97,92,321523
1.6080,0.2151,38.6800,97,92,321527
1.6178,0.2102,38.4900,97,92,321530
1.5982,0.2102,38.6200,97,92,321533
1.6129,0.2102,38.6200,97,92,321537
1.6422,0.2297,38.4900,97,92,321541
1.6227,0.2102,38.5800,97,92,321544
1.6422,0.2151,38.4900,97,92,321547
1.6325,0.2444,38.6500,97,92,321551
1.6520,0.2102,38.6500,97,92,321554
1.6764,0.2102,38.5500,97,92,321557
1.6716,0.2151,38.6200,97,92,321561
1.6764,0.2102,38.4600,97,92,321564
1.6667,0.2004,38.6200,97,92,321567
1.6618,0.2102,38.6200,97,92,321571
1.6960,0.2151,38.5500,97,92,321574
1.6911,0.1906,38.6200,97,92,321577
1.7302,0.2151,38.3600,97,92,321581
1.7058,0.2151,38.5200,97,92,321585
1.6862,0.2004,38.6200,97,92,321588
1.6764,0.2151,38.5500,97,92,321591
1.6618,0.2102,38.6200,97,92,321595
1.7058,0.2199,38.3300,97,92,321598
1.6813,0.2199,38.4900,97,92,321601
1.6911,0.2053,38.6200,97,92,321605
1.7155,0.2102,38.6500,97,92,321608
1.7253,0.2395,38.6200,97,92,321611
1.7791,0.2297,38.4600,97,92,321615
1.7400,0.2151,38.5500,97,92,321618
1.7351,0.2151,38.5200,97,92,321622
1.7351,0.2102,38.6500,97,92,321625
1.7400,0.2151,38.6200,97,92,321629
1.7693,0.2199,38.5500,97,92,321632
1.7449,0.2102,38.7700,97,92,321635
1.7742,0.2151,38.4900,97,92,321639
1.7693,0.2102,38.6500,97,92,321642
1.7644,0.2053,38.6200,97,92,321645
1.7889,0.2248,38.4900,97,92,321649
1.7595,0.2248,38.5800,97,92,321652
1.8182,0.2102,38.4900,97,92,321655
1.7546,0.2102,38.6800,97,92,321659
1.7693,0.2346,38.6200,97,92,321662
1.7937,0.2151,38.4900,97,92,321666
1.7840,0.2151,38.6200,97,92,321670
1.8133,0.2102,38.4000,97,92,321673
1.7791,0.2102,38.6200,97,92,321676
1.7840,0.2248,38.6500,97,92,321679
1.8280,0.2151,38.5800,97,92,321683
1.8328,0.2102,38.6200,97,92,321686
1.9013,0.2199,38.5500,97,92,321689
1.8719,0.2102,38.5800,97,92,321693
1.8866,0.2102,38.1500,97,92,321696
1.8964,0.2102,38.5800,97,92,321699
1.8866,0.2102,38.6200,97,92,321703
1.9453,0.2297,38.4000,97,92,321707
1.9208,0.2199,38.5500,97,92,321710
1.9453,0.2151,38.5800,97,92,321713
1.9257,0.2493,38.6200,97,92,321717
1.9159,0.1906,38.6200,97,92,321720
1.9648,0.2199,38.4000,97,92,321723
1.9501,0.2199,38.5500,97,92,321727
1.9599,0.1906,38.4600,97,92,321730
1.9306,0.2102,38.4900,97,92,321733
1.9062,0.2248,38.6200,97,92,321737
1.9013,0.2199,38.5500,97,92,321740
1.8817,0.2102,38.7100,97,92,321743
1.8964,0.2248,38.4600,97,92,321747
1.8671,0.2102,38.6200,97,92,321751
1.8622,0.2102,38.6500,97,92,321754
1.8671,0.2151,38.4900,97,92,321757
1.8426,0.2102,38.6200,97,92,321761
1.8768,0.2102,38.4600,97,92,321764
1.8671,0.2102,38.6200,97,92,321767
1.8671,0.2102,38.6500,97,92,321771
1.8817,0.2199,38.5200,97,92,321774
1.8524,0.2102,38.8100,97,92,321777
1.8719,0.2493,38.4300,97,92,321781
1.8524,0.2151,38.5500,97,92,321784
1.8280,0.2053,38.6200,97,92,321787
1.8426,0.2151,38.5800,97,92,321792
1.8280,0.2102,38.5200,97,92,321795
1.8719,0.2395,38.3300,97,92,321798
1.8328,0.2102,38.5200,97,92,321801
1.8280,0.2053,38.8100,97,92,321805
1.8231,0.2102,38.5800,97,92,321808
1.8133,0.1906,38.6200,97,92,321811
1.8622,0.2297,38.4000,97,92,321815
1.8426,0.2102,38.5500,97,92,321818
1.8231,0.2102,38.5500,97,92,321821
1.8182,0.2395,38.6200,97,92,321825
1.8182,0.2102,38.6200,97,92,321828
1.8524,0.2297,38.5200,97,92,321831
1.8377,0.2102,38.6200,97,92,321836
1.8426,0.2102,38.4900,97,92,321839
1.8231,0.2151,38.6200,97,92,321842
1.8231,0.2199,38.7400,97,92,321846
1.8671,0.2248,38.4900,97,92,321849
1.8964,0.2102,38.5200,97,92,321854
1.8671,0.1906,38.6200,97,92,321857
1.9062,0.2151,38.4000,97,92,321860
1.8866,0.2151,38.5500,97,92,321863
1.8768,0.2102,38.6200,97,92,321867
1.9013,0.2151,38.5800,97,92,321870
1.8915,0.2102,38.6200,97,92,321873
1.9453,0.2346,38.3600,97,92,321878
1.8915,0.2102,38.5200,97,92,321881
1.8964,0.2151,38.5800,97,92,321884
1.9062,0.2151,38.6200,97,92,321888
1.9062,0.2199,38.6200,97,92,321891
1.9746,0.2248,38.4600,97,92,321894
1.9599,0.2151,38.6500,97,92,321898
1.9746,0.2444,38.5500,97,92,321901
1.9697,0.2102,38.6500,97,92,321904
1.9697,0.2151,38.6200,97,92,321908
1.9941,0.2199,38.4600,97,92,321911
1.9599,0.2199,38.6200,97,92,321914
1.9550,0.2102,38.4900,97,92,321917
1.8915,0.2102,38.6500,97,92,321922
1.8671,0.2102,38.6200,97,92,321925
1.8768,0.2102,38.4900,97,92,321928
1.8426,0.2102,38.6200,97,92,321932
1.8622,0.2151,38.4900,97,92,321935
1.8231,0.2053,38.5800,97,92,321938
1.8133,0.2102,38.6200,97,92,321942
1.8133,0.2248,38.4900,97,92,321945
1.7840,0.2102,38.6200,97,92,321948
1.8084,0.2151,38.4600,97,92,321951
1.7791,0.2102,38.6500,97,92,321955
1.7595,0.2102,38.7100,97,92,321958
1.7595,0.2493,38.5800,97,92,321961
1.7253,0.2102,38.6200,97,92,321966
1.7644,0.2199,38.3600,97,92,321969
1.7302,0.2102,38.5500,97,92,321972
1.7253,0.2102,38.6200,97,92,321976
1.7302,0.2102,38.6200,97,92,321979
1.7302,0.2102,38.6200,97,92,321982
1.7840,0.2297,38.4300,97,92,321986
1.7644,0.2102,38.5200,97,92,321989
1.7400,0.2053,38.5500,97,92,321992
1.7351,0.2102,38.6200,97,92,321995
1.7449,0.2199,38.6200,97,92,321999
1.8182,0.2102,38.4600,97,92,322002
1.8035,0.2151,38.5500,97,92,322006
1.8426,0.2151,38.4900,97,92,322010
1.8719,0.2102,38.6200,97,92,322013
1.9404,0.2102,38.6800,97,92,322016
2.0577,0.2199,38.5800,97,92,322020
2.1896,0.2102,38.6500,97,92,322023
2.3949,0.2151,38.4900,97,92,322026
2.5904,0.2102,38.6200,97,92,322030
2.8397,0.2102,38.8400,97,92,322033
3.1378,0.2248,38.4900,97,92,322036
3.2845,0.2102,38.6500,97,92,322039
3.3675,0.2102,38.4600,97,92,322043
3.1916,0.2102,38.5800,97,92,322046
2.9032,0.2102,38.7400,97,92,322050
2.5953,0.2102,38.5200,97,92,322054
2.2678,0.2102,38.6800,97,92,322057
2.0381,0.2151,38.4000,97,92,322060
1.7889,0.2151,38.5200,97,92,322064
1.6080,0.2151,38.6500,97,92,322067
1.4907,0.2151,38.5800,97,92,322070
1.4027,0.2102,38.5800,97,92,322074
1.3930,0.2248,38.3600,97,92,322077
1.3441,0.2102,38.6500,97,92,322080
1.3392,0.2053,38.6200,97,92,322083
1.3636,0.2151,38.5800,97,92,322087
1.3783,0.2199,38.5800,97,92,322091
1.4565,0.2297,38.4300,97,92,322094
1.4418,0.2151,38.4600,97,92,322098
1.4614,0.2151,38.5200,97,92,322101
1.4712,0.2102,38.5800,97,92,322104
1.5152,0.2102,38.6800,97,92,322108
1.5445,0.2199,38.4300,97,92,322111
1.5445,0.2151,38.5800,97,92,322114
1.5738,0.2102,38.4900,97,92,322118
1.5591,0.2102,38.6200,97,92,322121
1.5836,0.2151,38.7100,97,92,322124
1.6178,0.2199,38.4600,97,92,322127
1.6080,0.2199,38.6200,97,92,322131
1.6618,0.2151,38.4900,97,92,322135
1.6227,0.2053,38.6500,97,92,322138
1.6325,0.2004,38.6200,97,92,322142
1.6569,0.2151,38.5200,97,92,322145
1.6520,0.2102,38.6200,97,92,322148
1.6813,0.2151,38.4300,97,92,322152
1.6569,0.2102,38.5500,97,92,322155
1.6911,0.2053,38.6800,97,92,322158
1.6862,0.2151,38.6200,97,92,322162
1.6911,0.2004,38.6200,97,92,322165
1.7351,0.2199,38.3600,97,92,322168
1.7107,0.2151,38.5200,97,92,322171
1.7009,0.2004,38.6500,97,92,322176
1.7204,0.2151,38.5800,97,92,322179
1.7302,0.2102,38.6200,97,92,322182
1.7889,0.2297,38.4300,97,92,322186
1.7498,0.2151,38.5500,97,92,322189
1.7400,0.2151,38.5500,97,92,322192
1.7498,0.2151,38.6200,97,92,322196
1.7400,0.2102,38.6500,97,92,322199
1.7840,0.2444,38.4600,97,92,322202
1.7546,0.2151,38.5800,97,92,322206
1.7644,0.2151,38.4900,97,92,322209
1.7449,0.2102,38.6500,97,92,322212
1.7546,0.2346,38.6200,97,92,322216
1.7693,0.2199,38.6200,97,92,322220
1.7595,0.2102,38.7100,97,92,322223
1.7840,0.2199,38.4900,97,92,322226
1.7595,0.2102,38.7100,97,92,322230
1.7644,0.2053,38.6200,97,92,322233
1.7889,0.2199,38.5200,97,92,322236
1.7644,0.2102,38.5800,97,92,322240
1.7889,0.2199,38.4300,97,92,322243
1.7742,0.2102,38.5200,97,92,322246
1.7791,0.2102,38.6500,97,92,322250
1.8035,0.2199,38.5500,97,92,322253
1.7840,0.2102,38.7100,97,92,322256
1.8231,0.2493,38.3600,97,92,322260
1.7986,0.2151,38.5500,97,92,322264
1.7937,0.2102,38.6800,97,92,322267
1.8280,0.2151,38.6200,97,92,322270
1.8035,0.2102,38.7100,97,92,322274
1.8524,0.2151,38.3000,97,92,322277
1.8133,0.2102,38.5500,97,92,322280
1.8133,0.2053,38.5800,97,92,322284
1.8182,0.2151,38.5800,97,92,322287
1.8328,0.2102,38.6200,97,92,322290
1.8915,0.2199,38.4600,97,92,322294
1.8671,0.2102,38.5800,97,92,322297
1.8817,0.2053,38.5200,97,92,322300
1.8817,0.2151,38.6200,97,92,322305
1.8915,0.2102,38.5800,97,92,322308
1.9355,0.2151,38.4300,97,92,322311
1.9159,0.2248,38.6200,97,92,322315
1.9404,0.2151,38.4900,97,92,322318
1.9208,0.2102,38.6500,97,92,322321
1.9257,0.2102,38.7100,97,92,322324
1.9550,0.2151,38.4900,97,92,322328
1.9404,0.2102,38.6200,97,92,322331
1.9648,0.2102,38.8400,97,92,322334
1.9355,0.2102,38.5800,97,92,322338
1.9306,0.1906,38.6200,97,92,322341
1.9453,0.2102,38.6200,97,92,322344
1.9306,0.2248,38.6200,97,92,322349
1.9648,0.2102,38.4300,97,92,322352
1.9208,0.2102,38.6200,97,92,322355
1.9453,0.2053,38.6200,97,92,322358
1.9404,0.2151,38.6500,97,92,322362
1.9159,0.2004,38.6500,97,92,322365
1.9550,0.2199,38.3600,97,92,322368
1.9208,0.2102,38.5200,97,92,322372
1.9013,0.2102,38.6500,97,92,322375
1.9110,0.2102,38.6800,97,92,322378
1.9013,0.2248,38.6200,97,92,322382
1.9550,0.2297,38.4000,97,92,322385
1.9062,0.2151,38.5500,97,92,322388
1.8964,0.2004,38.5500,97,92,322393
1.8866,0.2102,38.6200,97,92,322396
1.8817,0.2053,38.6500,97,92,322399
1.9599,0.2199,38.4600,97,92,322402
1.8915,0.2102,38.5800,97,92,322406
1.8964,0.2102,38.5200,97,92,322409
1.8768,0.2102,38.6200,97,92,322412
1.8817,0.2053,38.7100,97,92,322416
1.9013,0.2248,38.5800,97,92,322419
1.8866,0.2102,38.5800,97,92,322422
1.8964,0.2151,38.4900,97,92,322426
1.8719,0.2102,38.6200,97,92,322429
1.8768,0.2053,38.6500,97,92,322433
1.9110,0.2248,38.5500,97,92,322437
1.8915,0.2151,38.6800,97,92,322440
1.9159,0.2199,38.5500,97,92,322443
1.9013,0.2053,38.5500,97,92,322446
1.9013,0.2053,38.6800,97,92,322450
1.9257,0.2102,38.5200,97,92,322453
1.9062,0.2102,38.6800,97,92,322456
1.9453,0.2151,38.3300,97,92,322460
1.9892,0.2493,38.4000,96,92,322464
1.9453,0.2102,38.5500,96,92,322468
1.9550,0.2053,38.6500,96,92,322471
1.9599,0.2102,38.6500,96,92,322475
1.9599,0.2053,38.6800,96,92,322479
2.0137,0.2199,38.4900,96,92,322482
1.9941,0.2102,38.5800,96,92,322485
2.0039,0.2004,38.4900,96,92,322489
1.9941,0.2102,38.6200,96,92,322492
1.9990,0.2102,38.6500,96,92,322495
2.0430,0.2248,38.4600,96,92,322498
2.0186,0.2102,38.6500,96,92,322502
2.0430,0.2102,38.5200,96,92,322505
2.0283,0.2102,38.6500,96,92,322508
2.0430,0.2151,38.6500,96,92,322512
2.0870,0.2102,38.5200,96,92,322515
2.0626,0.2102,38.6500,96,92,322519
2.0919,0.2102,38.4600,96,92,322522
2.0528,0.2053,38.6200,96,92,322526
2.0479,0.1906,38.6200,96,92,322529
2.0430,0.2102,38.5200,96,92,322532
1.9990,0.2102,38.6200,96,92,322536
1.9941,0.2151,38.4000,96,92,322539
1.9404,0.2004,38.6200,96,92,322542
1.9306,0.2053,38.4600,96,92,322546
1.9404,0.2199,38.5500,96,92,322549
1.9159,0.2102,38.6500,96,92,322552
1.9550,0.2151,38.5200,96,92,322555
1.9208,0.2151,38.5500,96,92,322560
1.9013,0.1906,38.6500,96,92,322563
1.9062,0.2102,38.5500,96,92,322566
1.8817,0.2102,38.6200,96,92,322570
1.9208,0.2199,38.3300,96,92,322573
1.8719,0.1955,38.4900,96,92,322576
1.8573,0.2004,38.5800,96,92,322580
1.8622,0.2102,38.6200,96,92,322583
1.8524,0.2053,38.6500,96,92,322586
1.9013,0.2248,38.4900,96,92,322590
1.8573,0.2102,38.6200,96,92,322593
1.8573,0.2053,38.5200,96,92,322596
1.8524,0.2053,38.6200,96,92,322599
1.8524,0.2053,38.6500,96,92,322604
1.8915,0.2102,38.5200,96,92,322607
1.8768,0.2102,38.6500,96,92,322610
1.9013,0.2102,38.4600,96,92,322614
1.8866,0.2102,38.6200,96,92,322617
1.9062,0.2053,38.6200,96,92,322620
1.9697,0.2151,38.4600,96,92,322624
1.9892,0.2102,38.6200,96,92,322627
2.0870,0.2004,38.4900,96,92,322630
2.1359,0.2004,38.5500,96,92,322634
2.2630,0.2053,38.7400,96,92,322637
2.4536,0.2151,38.4600,96,92,322640
2.6393,0.2053,38.6200,96,92,322643
2.9228,0.2102,38.4000,96,92,322648
3.1281,0.2151,38.5500,96,92,322651
3.3138,0.1906,38.6200,96,92,322654
3.4164,0.2102,38.5500,96,92,322658
3.2893,0.2151,38.6200,96,92,322661
3.1183,0.2102,38.3300,96,92,322664
2.7370,0.2053,38.5500,96,92,322668
2.4438,0.2053,38.6500,96,92,322671
2.1896,0.2102,38.6200,96,92,322674
1.9599,0.2053,38.6200,96,92,322677
1.8475,0.2248,38.3600,96,92,322681
1.6813,0.2102,38.5800,96,92,322684
1.5787,0.2248,38.5800,96,92,322688
1.5249,0.2102,38.6200,96,92,322692
1.4858,0.1955,38.6200,96,92,322695
1.4956,0.2151,38.4600,96,92,322698
1.4712,0.2151,38.5800,96,92,322702
1.4858,0.2053,38.4900,96,92,322705
1.4907,0.2053,38.5800,96,92,322708
1.5103,0.2053,38.6500,96,92,322712
1.5494,0.2151,38.4600,96,92,322715
1.5445,0.2053,38.7100,96,92,322718
1.5787,0.2102,38.4900,96,92,322721
1.5738,0.2004,38.6500,96,92,322725
1.6031,0.2053,38.6500,96,92,322728
1.6325,0.2053,38.5200,96,92,322732
1.6471,0.2053,38.6500,96,92,322736
1.6764,0.2053,38.4900,96,92,322739
1.6618,0.2199,38.6200,96,92,322742
1.6764,0.1906,38.6500,96,92,322746
1.6960,0.2102,38.5800,96,92,322749
1.6764,0.2151,38.6800,96,92,322752
1.7155,0.2053,38.4000,96,92,322756
1.6960,0.2102,38.5200,96,92,322759
1.6862,0.2053,38.6200,96,92,322762
1.7155,0.2151,38.5500,96,92,322765
1.7009,0.2395,38.6500,96,92,322769
1.7840,0.2199,38.3600,96,92,322772
1.7253,0.2053,38.6500,96,92,322776
1.7253,0.2102,38.6200,96,92,322780
1.7400,0.2053,38.5800,96,92,322783
1.7400,0.2053,38.6200,96,92,322786
1.7937,0.2248,38.3300,96,92,322790
1.7644,0.2102,38.5500,96,92,322793
1.7595,0.2004,38.5800,96,92,322796
1.7595,0.2053,38.5200,96,92,322799
1.7595,0.2004,38.6500,96,92,322803
1.8035,0.2199,38.5500,96,92,322806
1.7742,0.2102,38.5800,96,92,322809
1.7742,0.2004,38.5500,96,92,322813
1.7693,0.2004,38.6200,96,92,322817
1.7693,0.1955,38.6200,96,92,322820
1.8035,0.2102,38.4300,96,92,322824
1.7889,0.2151,38.6200,96,92,322827
1.8133,0.1906,38.4900,96,92,322830
1.7840,0.2053,38.6500,96,92,322834
1.7889,0.2102,38.5800,96,92,322837
1.8133,0.2102,38.4900,96,92,322840
1.7986,0.2004,38.6200,96,92,322843
1.8280,0.2053,38.4600,96,92,322847
1.8328,0.2004,38.5800,96,92,322850
1.8084,0.2004,38.7400,96,92,322853
1.8328,0.2053,37.7400,96,92,322857
1.8231,0.2199,38.6500,96,92,322861
1.8671,0.2004,38.4000,96,92,322864
1.8280,0.2004,38.6500,96,92,322868
1.8328,0.2053,38.6200,96,92,322871
1.8475,0.2151,38.5800,96,92,322874
1.8475,0.2053,38.7400,96,92,322877
1.9208,0.2199,38.4000,96,92,322881
1.8768,0.2053,38.5500,96,92,322884
1.8622,0.2004,38.6500,96,92,322887
1.8964,0.2151,38.6200,96,92,322891
1.8622,0.2004,38.6200,96,92,322894
1.9208,0.2199,38.3600,96,92,322897
1.8866,0.2102,38.5200,96,92,322902
1.8817,0.1955,38.6500,96,92,322905
1.8915,0.2248,38.6800,96,92,322908
1.9013,0.2004,38.6200,96,92,322912
1.9453,0.2102,38.4600,96,92,322915
1.9208,0.1955,38.6800,96,92,322918
1.9453,0.2004,38.4900,96,92,322921
1.9257,0.2004,38.6200,96,92,322925
1.9306,0.2297,38.6200,96,92,322928
1.9648,0.1906,38.5800,96,92,322931
1.9501,0.2053,38.5800,96,92,322935
1.9746,0.2053,38.4600,96,92,322938
1.9453,0.2053,38.6200,96,92,322941
1.9501,0.2004,38.5800,96,92,322946
1.9844,0.2199,38.5200,96,92,322949
1.9550,0.2004,38.6500,96,92,322952
1.9795,0.2004,38.6200,96,92,322955
1.9501,0.2004,38.5500,96,92,322959
1.9501,0.2297,38.6200,96,92,322962
1.9648,0.2053,38.7100,96,92,322965
1.9355,0.2297,38.6200,96,92,322969
1.9697,0.2053,38.3600,96,92,322972
1.9355,0.2004,38.6800,96,92,322975
1.9306,0.2004,38.6200,96,92,322979
1.9404,0.2004,38.5500,96,92,322982
1.9306,0.1906,38.6500,96,92,322985
1.9746,0.2102,38.4300,96,92,322989
1.9355,0.2004,38.5500,96,92,322993
1.9208,0.2004,38.6500,96,92,322996
1.9257,0.2053,38.6500,96,92,322999
1.9013,0.2004,38.6800,96,92,323003
1.9648,0.2199,38.3600,96,92,323006
1.9306,0.2053,38.5200,96,92,323009
1.9159,0.1906,38.5800,96,92,323013
1.9110,0.2004,38.6500,96,92,323016
1.9110,0.2053,38.6500,96,92,323019
1.9501,0.2053,38.4300,96,92,323022
1.9159,0.2053,38.7100,96,92,323026
1.9062,0.2004,38.5200,96,92,323030
1.8964,0.2004,38.6500,96,92,323033
1.8768,0.1955,38.6200,96,92,323037
1.8964,0.2444,38.4300,96,92,323040
1.8719,0.1955,38.6200,96,92,323043
1.9013,0.2004,38.4900,96,92,323047
1.8817,0.2004,38.6500,96,92,323050
1.9159,0.2004,38.6500,96,92,323053
1.9013,0.2004,38.5500,96,92,323057
1.8964,0.2004,38.6500,96,92,323060
1.9306,0.1955,38.4900,96,92,323063
1.9013,0.2004,38.6200,96,92,323066
1.9110,0.2004,38.5800,96,92,323070
1.9355,0.2151,38.4900,96,92,323074
1.9355,0.1906,38.5800,96,92,323079
1.9306,0.2004,38.6800,96,92,323082
1.9892,0.2102,38.4300,96,92,323085
1.9599,0.2004,38.5200,96,92,323089
1.9501,0.1906,38.5800,96,92,323092
1.9550,0.2053,38.6500,96,92,323095
1.9501,0.1906,38.6800,96,92,323099
2.0137,0.2102,38.4900,96,92,323102
1.9795,0.2053,38.5800,96,92,323105
1.9844,0.1955,38.4900,96,92,323108
1.9844,0.2004,38.6800,96,92,323112
1.9941,0.2004,38.4000,96,92,323116
2.0381,0.2199,38.5200,96,92,323119
2.0283,0.2004,38.5800,96,92,323123
2.0430,0.2004,38.4900,96,92,323126
2.0381,0.2004,38.8400,96,92,323129
2.0528,0.2004,38.6200,96,92,323133
2.0919,0.2102,38.4600,96,92,323136
2.0577,0.2004,38.6800,96,92,323139
2.0723,0.2053,38.4900,96,92,323142
2.0235,0.1906,38.6800,96,92,323146
2.0088,0.2004,38.6200,96,92,323149
2.0039,0.2053,38.4900,96,92,323152
1.9599,0.2004,38.8100,96,92,323156
1.9697,0.2102,38.4600,96,92,323160
1.9257,0.1906,38.5800,96,92,323163
1.9208,0.1955,38.6800,96,92,323167
1.9257,0.1955,38.5200,96,92,323170
1.8915,0.2004,38.6200,96,92,323173
1.9208,0.2004,38.4000,96,92,323176
1.8719,0.2004,38.5800,96,92,323180
1.8622,0.1955,38.6200,96,92,323183
1.8622,0.2053,38.6500,96,92,323186
1.8328,0.2004,38.6200,96,92,323190
1.8671,0.2151,38.3600,96,92,323193
1.8328,0.2053,38.5200,96,92,323196
1.8084,0.1955,38.6800,96,92,323201
1.8084,0.2004,38.6800,96,92,323204
1.7986,0.1955,38.6200,96,92,323207
1.8524,0.2248,38.3600,96,92,323210
1.8231,0.2102,38.5500,96,92,323214
1.8133,0.1955,38.5500,96,92,323217
1.8133,0.2004,38.6200,96,92,323220
1.8035,0.1955,38.6500,96,92,323224
1.8377,0.2248,38.4600,96,92,323227
1.8231,0.2004,38.5800,96,92,323230
1.8426,0.2004,38.4900,96,92,323234
1.8475,0.2004,38.6200,96,92,323237
1.8817,0.2004,38.6200,96,92,323240
1.9404,0.2053,38.5500,96,92,323245
1.9892,0.2004,38.6500,96,92,323248
2.0870,0.2053,38.5200,96,92,323251
2.1799,0.1906,38.6200,96,92,323254
2.3363,0.1955,38.6200,96,92,323258
2.5806,0.2102,38.5500,96,92,323261
2.7859,0.2004,38.6200,96,92,323264
3.0645,0.1955,38.4900,96,92,323268
3.2209,0.1955,38.5500,96,92,323271
3.2942,0.1955,38.6200,96,92,323274
3.2502,0.2004,38.4300,96,92,323278
2.9765,0.2004,38.5800,96,92,323281
2.7175,0.2102,38.4000,96,92,323284
2.3851,0.1906,38.5200,96,92,323288
2.1114,0.1955,38.6200,96,92,323292
1.9110,0.2102,38.5500,96,92,323295
1.7498,0.1955,38.6200,96,92,323298
1.6227,0.2053,38.4600,96,92,323302
1.4858,0.1955,38.5500,96,92,323305
1.4370,0.1955,38.6500,96,92,323308
1.4076,0.2053,38.5800,96,92,323312
1.3881,0.2004,38.6800,96,92,323315
1.4223,0.2199,37.8000,96,92,323318
1.4027,0.2004,38.5800,96,92,323321
1.4125,0.2053,38.6200,96,92,323325
1.4370,0.2004,38.5800,96,92,323329
1.4516,0.1955,38.7400,96,92,323332
1.5152,0.1955,38.4300,96,92,323336
1.5054,0.2004,38.5800,96,92,323339
1.5103,0.2004,38.8100,96,92,323342
1.4956,0.2248,38.6200,96,92,323346
1.5103,0.1906,38.6200,96,92,323349
1.5347,0.2053,38.4300,96,92,323352
1.5347,0.1955,38.6800,96,92,323355
1.5640,0.1906,38.4900,96,92,323359
1.5591,0.2004,38.5800,96,92,323362
1.5934,0.1955,38.6800,96,92,323365
1.5836,0.2004,38.5500,96,92,323369
1.5836,0.2004,38.6200,96,92,323373
1.6276,0.2004,38.5200,96,92,323376
1.6080,0.1906,38.6200,96,92,323380
1.6227,0.1955,38.6200,96,92,323383
1.6471,0.2053,38.5200,96,92,323386
1.6373,0.2004,38.6500,96,92,323390
1.6667,0.2004,37.6800,96,92,323393
1.6520,0.2004,38.5500,96,92,323396
1.6569,0.1955,38.6200,96,92,323399
1.6960,0.2102,38.4900,96,92,323403
1.6862,0.2004,38.6200,96,92,323406
1.7351,0.2151,38.3600,96,92,323409
1.7107,0.1955,38.5500,96,92,323414
1.6960,0.1906,38.6200,96,92,323417
1.7009,0.1955,38.5800,96,92,323420
1.6911,0.1906,38.6200,96,92,323424
1.7351,0.2102,38.4000,96,92,323427
1.7009,0.1906,38.5500,96,92,323430
1.7009,0.1955,38.5800,96,92,323433
1.7155,0.2004,38.5800,96,92,323437
1.7253,0.1955,38.6800,96,92,323440
1.7840,0.2102,38.6800,96,92,323443
1.7546,0.2297,38.6200,96,92,323447
1.7595,0.2004,38.4900,96,92,323450
1.7595,0.2004,38.6500,96,92,323453
1.7595,0.1955,38.6500,96,92,323458
1.7986,0.1906,38.4600,96,92,323461
1.7840,0.2004,38.7100,96,92,323464
1.8035,0.2053,38.5800,96,92,323467
1.7889,0.2053,38.6200,96,92,323471
1.8084,0.1955,38.6500,96,92,323474
1.8377,0.2102,38.5200,96,92,323477
1.8133,0.2053,38.6200,96,92,323481
1.8377,0.2053,38.4900,96,92,323484
1.7937,0.1955,38.8400,96,92,323487
1.7840,0.1955,38.6800,96,92,323491
1.7889,0.2004,38.5200,96,92,323494
1.7742,0.1955,38.5800,96,92,323497
1.7937,0.2004,38.4000,96,92,323501
1.7742,0.1955,38.6200,96,92,323505
1.7937,0.1955,38.6200,96,92,323508
1.8280,0.2102,38.5800,96,92,323511
1.8231,0.1955,38.6500,96,92,323515
1.8671,0.2053,38.3300,96,92,323518
1.8475,0.2004,38.5800,96,92,323521
1.8426,0.1906,38.6500,96,92,323525
1.8671,0.2053,38.5800,96,92,323528
1.9062,0.1955,38.6200,96,92,323531
1.9355,0.2102,38.3300,96,92,323535
1.8915,0.2004,38.4900,96,92,323538
1.8768,0.1955,38.5800,96,92,323542
1.8768,0.2004,38.4600,96,92,323545
1.8768,0.1955,38.6200,96,92,323549
1.9453,0.2102,38.4600,96,92,323552
1.9062,0.2004,38.5500,96,92,323555
1.9013,0.2053,38.5200,96,92,323559
1.8915,0.2004,38.6200,96,92,323562
1.8866,0.1955,38.6500,96,92,323565
1.9453,0.2053,38.5200,96,92,323569
1.8964,0.2004,38.5800,96,92,323572
1.9159,0.2004,38.5200,96,92,323575
1.8964,0.1906,38.6200,96,92,323579
1.9013,0.1955,38.4000,96,92,323582
1.9208,0.2346,38.5200,96,92,323586
1.8768,0.2004,38.5800,96,92,323589
1.8964,0.2053,37.7100,96,92,323593
1.8573,0.2248,38.6200,96,92,323596
1.8475,0.1906,38.6200,96,92,323599
1.8719,0.2297,38.4600,96,92,323603
1.8573,0.1955,38.6200,96,92,323606
1.8866,0.2004,38.4300,96,92,323609
1.8524,0.1955,38.5200,96,92,323613
1.8426,0.2004,38.6500,96,92,323616
1.8524,0.2053,38.5500,96,92,323619
1.8328,0.2004,38.6500,96,92,323622
1.8671,0.2053,38.3600,96,92,323627
1.8231,0.1955,38.6800,96,92,323630
1.8280,0.2053,38.6800,96,92,323633
1.8426,0.1906,38.5800,96,92,323637
1.8280,0.2248,38.6500,96,92,323640
1.8768,0.2151,38.3600,96,92,323643
1.8328,0.2053,38.5200,96,92,323647
1.8182,0.1955,38.5500,96,92,323650
1.8231,0.2004,38.6200,96,92,323653
1.8182,0.1955,38.6500,96,92,323657
1.8622,0.2199,38.4000,96,92,323660
1.8280,0.2053,38.6200,96,92,323663
1.8231,0.1955,38.6200,96,92,323666
1.8280,0.2053,38.6200,96,92,323671
1.8084,0.1955,38.6200,96,92,323674
1.8377,0.2053,38.4300,96,92,323677
1.8328,0.2004,38.6200,96,92,323681
1.9013,0.2053,38.4600,96,92,323684
1.8426,0.1955,38.6500,96,92,323687
1.8377,0.2053,38.6500,96,92,323692
1.8475,0.1955,38.6200,96,92,323695
1.8817,0.2053,38.5500,96,92,323699
1.8671,0.1906,38.6200,96,92,323702
1.9208,0.2151,38.4300,96,92,323705
1.8964,0.2004,38.4900,96,92,323709
1.8719,0.2297,38.6800,96,92,323713
1.8866,0.2053,38.7400,96,92,323716
1.8817,0.1955,38.6200,96,92,323719
1.9355,0.2151,38.4300,96,92,323723
1.9013,0.2053,38.5200,96,92,323726
1.8817,0.2053,38.5800,96,92,323729
1.8817,0.2004,38.6200,96,92,323733
1.8817,0.1955,38.6500,96,92,323736
1.9501,0.2151,38.4900,96,92,323739
1.9306,0.2004,38.5500,96,92,323743
1.9550,0.1955,37.7700,96,92,323746
1.9501,0.2297,38.6200,96,92,323749
1.9599,0.1955,38.6200,96,92,323752
1.9892,0.2102,38.6200,96,92,323757
1.9941,0.2004,38.5800,96,92,323760
1.9990,0.2004,38.4900,96,92,323763
1.9648,0.2151,38.6200,96,92,323767
1.9355,0.2053,38.6200,96,92,323770
1.9501,0.2102,38.5200,96,92,323773
1.9062,0.2004,38.6200,96,92,323777
1.9110,0.1955,38.4900,96,92,323780
1.8671,0.1955,38.5200,96,92,323783
1.8573,0.1906,38.6200,96,92,323787
1.8768,0.2053,38.4900,96,92,323790
1.8475,0.2151,38.6200,96,92,323793
1.8671,0.2053,38.4300,96,92,323796
1.8280,0.2004,38.5200,96,92,323801
1.8035,0.1955,38.6200,96,92,323804
1.7986,0.2053,38.5500,96,92,323807
1.7498,0.1955,37.8700,96,92,323811
1.7840,0.2004,38.3600,96,92,323814
1.7595,0.1955,38.5800,96,92,323817
1.7840,0.1955,37.8700,96,92,323821
1.7986,0.2053,38.6200,96,92,323824
1.7742,0.2004,38.6200,96,92,323827
1.8182,0.2199,38.3600,96,92,323831
1.8084,0.2004,38.5500,96,92,323834
1.7840,0.1906,38.5800,96,92,323837
1.7889,0.2297,38.5800,96,92,323841
1.7742,0.1955,38.6200,96,92,323845
1.8133,0.2102,38.4300,96,92,323848
1.8280,0.2004,38.5800,96,92,323851
1.8426,0.2004,38.4900,96,92,323855
1.8426,0.2004,38.6800,96,92,323858
1.8524,0.1955,38.6500,96,92,323861
1.9110,0.2053,38.4900,96,92,323865
1.9453,0.2004,38.6200,96,92,323868
2.0723,0.2004,38.5500,96,92,323871
2.2141,0.2004,38.5800,96,92,323874
2.4291,0.1906,38.6200,96,92,323878
2.6882,0.2004,38.4300,96,92,323881
2.9179,0.2053,38.6200,96,92,323885
3.2014,0.2102,38.5500,96,92,323889
3.3333,0.2004,38.6500,96,92,323892
3.3724,0.1955,38.6200,96,92,323895
3.2502,0.2053,38.5200,96,92,323899
2.9032,0.2004,38.6200,96,92,323902
2.5904,0.2004,38.3000,96,92,323905
2.2483,0.2004,38.7100,96,92,323908
1.9746,0.2004,38.6200,96,92,323912
1.7840,0.2102,38.5200,96,92,323915
1.5934,0.2004,38.7400,96,92,323918
1.5152,0.2248,38.4000,96,92,323922
1.4272,0.2004,38.5500,96,92,323926
1.3734,0.1955,38.6500,96,92,323929
1.3539,0.2151,38.6800,96,92,323933
1.3392,0.2004,38.6500,96,92,323936
1.3832,0.2102,38.6800,96,92,323939
1.3783,0.1906,38.5200,96,92,323942
1.3930,0.1955,38.5800,96,92,323946
1.4174,0.2297,38.6200,96,92,323949
1.4418,0.2004,38.6200,96,92,323952
1.5200,0.2151,38.4600,96,92,323956
1.5152,0.2004,38.5800,96,92,323959
1.5200,0.1955,38.5500,96,92,323962
1.5152,0.1955,38.6200,96,92,323966
1.5347,0.1906,38.6200,96,92,323970
1.5885,0.2102,38.6200,96,92,323973
1.5934,0.1906,38.6200,96,92,323977
1.6129,0.2004,38.4600,96,92,323980
1.5934,0.2004,38.6500,96,92,323983
1.5885,0.2004,38.6200,96,92,323986
1.6080,0.2102,38.5200,96,92,323990
1.6129,0.2004,38.7700,96,92,323993
1.6569,0.2053,38.4600,96,92,323996
1.6618,0.1955,38.5800,96,92,324000
1.6520,0.1955,38.6500,96,92,324003
1.6764,0.2053,38.5200,96,92,324006
1.6764,0.2053,38.6200,96,92,324011
1.6960,0.2004,38.4600,96,92,324014
1.6667,0.2004,38.6200,96,92,324017
1.6813,0.2004,38.6200,96,92,324020
1.7204,0.2004,38.6200,96,92,324024
1.7204,0.2004,38.6800,96,92,324027
1.7546,0.2053,38.4600,96,92,324030
1.7204,0.2053,38.5500,96,92,324034
1.7009,0.1906,38.6200,96,92,324037
1.7058,0.2053,38.5800,96,92,324040
1.6862,0.2004,38.6200,96,92,324044
1.7351,0.2053,38.3300,96,92,324047
1.7107,0.2004,37.8000,96,92,324050
1.7155,0.1955,38.5800,96,92,324054
1.7546,0.2199,38.5800,96,92,324058
1.7449,0.1955,38.6200,96,92,324061
1.8035,0.2199,38.4600,96,92,324064
1.7546,0.2053,38.5500,96,92,324068
1.7400,0.1906,38.5500,96,92,324071
1.7351,0.2004,38.5500,96,92,324074
1.7498,0.2004,38.6200,96,92,324078
1.8035,0.2102,38.5200,96,92,324081
1.7937,0.2004,38.7100,96,92,324084
1.8182,0.2004,38.5200,96,92,324087
1.8035,0.1906,38.6500,96,92,324091
1.7937,0.2004,38.5200,96,92,324094
1.8182,0.2102,38.4600,96,92,324098
1.7742,0.1955,38.5800,96,92,324102
1.7937,0.2102,38.5200,96,92,324105
1.7840,0.1955,38.6200,96,92,324108
1.7840,0.2004,38.6200,96,92,324112
1.8133,0.2053,38.5200,96,92,324115
1.8035,0.2053,38.6200,96,92,324118
1.8328,0.2004,38.4600,96,92,324121
1.8084,0.2004,38.5200,96,92,324125
1.8182,0.2004,38.6200,96,92,324128
1.8817,0.2053,38.5200,96,92,324131
1.8377,0.2004,38.6500,96,92,324135
1.8719,0.2053,38.3600,96,92,324139
1.8328,0.1955,38.6200,96,92,324142
1.8377,0.2004,38.5200,96,92,324146
1.8475,0.1955,38.5500,96,92,324149
1.8524,0.2004,38.6800,96,92,324152
1.9159,0.2102,38.3600,96,92,324156
1.9110,0.2004,38.5200,96,92,324159
1.8817,0.1955,38.6500,96,92,324162
1.8915,0.2004,38.5800,96,92,324165
1.8915,0.2053,38.6500,96,92,324169
1.9550,0.2199,38.4300,96,92,324172
1.9159,0.2590,38.5200,96,92,324175
1.9013,0.2053,38.5500,96,92,324179
1.8915,0.2004,38.6200,96,92,324183
1.8768,0.2004,38.7100,96,92,324186
1.9110,0.2102,38.5500,96,92,324190
1.8866,0.1906,38.5800,96,92,324193
1.8915,0.2004,38.5500,96,92,324196
1.8719,0.2004,38.5800,96,92,324199
1.8671,0.2004,38.6500,96,92,324203
1.8768,0.2102,38.6200,96,92,324206
1.8622,0.2493,38.6200,96,92,324209
1.8866,0.2053,38.4300,96,92,324213
1.8524,0.2346,38.6200,96,92,324216
1.8573,0.2004,38.6500,96,92,324219
1.8719,0.2102,38.5800,96,92,324224
1.8719,0.1955,38.6200,96,92,324227
1.8524,0.2004,38.4600,96,92,324230
1.8328,0.2004,38.5200,96,92,324234
1.8280,0.2053,38.6200,96,92,324237
1.8524,0.2102,38.5800,96,92,324240
1.8328,0.2004,38.6500,96,92,324243
1.8719,0.2102,38.4300,96,92,324247
1.8524,0.2102,38.5500,96,92,324250
1.8426,0.2297,38.6500,96,92,324253
1.8573,0.1906,38.5800,96,92,324257
1.8231,0.2004,38.6200,96,92,324260
1.8573,0.2199,38.3000,96,92,324263
1.8035,0.2004,38.5500,96,92,324268
1.7986,0.1955,38.6200,96,92,324271
1.8035,0.2102,38.5800,96,92,324274
1.8035,0.2004,38.6200,96,92,324277
1.8622,0.2199,38.4300,96,92,324281
1.8280,0.2053,38.5500,96,92,324284
1.8231,0.2004,38.5500,96,92,324287
1.8280,0.2004,38.6200,96,92,324291
1.8280,0.2004,38.5800,96,92,324294
1.8671,0.2102,38.4900,96,92,324297
1.8817,0.2053,38.4900,96,92,324302
1.8719,0.1955,38.6200,96,92,324305
1.9110,0.2004,38.4900,96,92,324310
1.8817,0.1955,38.5500,96,92,324313
1.8964,0.2004,38.6500,96,92,324316
1.8915,0.2053,38.5200,96,92,324319
1.8817,0.2004,38.2400,96,92,324323
1.9062,0.2004,38.4000,96,92,324326
1.8719,0.2004,38.6500,96,92,324329
1.8768,0.2004,38.6500,96,92,324333
1.8964,0.2053,38.4900,96,92,324336
1.8768,0.2004,38.6500,96,92,324339
1.9257,0.2102,38.3300,96,92,324343
1.9062,0.2102,38.4900,96,92,324346
1.8964,0.2004,38.6500,96,92,324349
1.9110,0.2053,38.6200,96,92,324354
1.9159,0.2004,38.6800,96,92,324357
1.9648,0.2151,38.3300,96,92,324360
1.9453,0.2053,38.5500,96,92,324363
1.9501,0.1955,38.5800,96,92,324367
1.9697,0.2004,38.6500,96,92,324370
1.9648,0.2004,38.6200,96,92,324373
2.0235,0.2102,38.4900,96,92,324377
1.9648,0.2053,38.6500,96,92,324380
1.9501,0.2004,38.5200,96,92,324383
1.9453,0.2004,38.6200,96,92,324387
1.8866,0.2004,38.6500,96,92,324390
1.8915,0.2151,38.5200,96,92,324393
1.8573,0.2053,38.6800,96,92,324397
1.8671,0.2004,38.4900,96,92,324401
1.8328,0.2004,38.6200,96,92,324404
1.8231,0.1906,38.6200,96,92,324407
1.8573,0.2102,38.4900,96,92,324411
1.8182,0.1906,38.5800,96,92,324414
1.8328,0.2004,38.4300,96,92,324417
1.7937,0.2004,38.5500,96,92,324421
1.7937,0.2004,38.6200,96,92,324424
1.8035,0.2053,38.6500,96,92,324427
1.7791,0.2004,38.6800,96,92,324431
1.8084,0.2053,38.4000,96,92,324434
1.7791,0.2004,38.5200,96,92,324438
1.7742,0.2004,37.9000,96,92,324441
1.7889,0.2248,38.5500,96,92,324445
1.7742,0.2004,38.6200,96,92,324448
1.8182,0.1906,38.3300,96,92,324451
1.7742,0.2297,38.5800,96,92,324455
1.7889,0.2053,38.6500,96,92,324458
1.7937,0.2053,38.5800,96,92,324461
1.7889,0.2004,38.6500,96,92,324465
1.8524,0.2151,38.3600,96,92,324468
1.8231,0.2053,38.4600,96,92,324471
1.8280,0.1906,38.5800,96,92,324474
1.8719,0.2004,38.6200,96,92,324478
1.9208,0.2004,38.6800,96,92,324482
2.0577,0.2053,38.4600,96,92,324485
2.1505,0.2004,38.5500,96,92,324489
2.3069,0.2004,38.5200,96,92,324492
2.5122,0.2004,38.6200,96,92,324495
2.7517,0.2004,38.6500,96,92,324498
3.0547,0.2102,38.5200,96,92,324502
3.2356,0.2053,38.5500,96,92,324505
3.3724,0.2004,38.5200,96,92,324508
3.2649,0.2004,38.7100,96,92,324512
3.0352,0.2053,38.6200,96,92,324515
2.7273,0.2053,38.5500,96,92,324518
2.3803,0.2004,38.6200,96,92,324523
2.1261,0.2199,38.4900,96,92,324526
1.8671,0.2004,38.7400,96,92,324529
1.6862,0.2004,38.4900,96,92,324532
1.5738,0.2053,38.4900,96,92,324536
1.4614,0.2004,38.6200,96,92,324539
1.4272,0.2004,38.4600,96,92,324542
1.3783,0.2004,38.5500,96,92,324546
1.3636,0.2004,38.6800,96,92,324549
1.3832,0.2102,38.5500,96,92,324552
1.3832,0.2102,38.6500,96,92,324556
1.4321,0.2053,38.4600,96,92,324559
1.4370,0.2102,38.3600,96,92,324562
1.4467,0.2053,38.6200,96,92,324567
1.4761,0.2053,38.5800,96,92,324570
1.4809,0.2004,38.5200,96,92,324573
1.5445,0.2102,38.3300,96,92,324576
1.5298,0.2004,38.4900,96,92,324580
1.5445,0.1955,38.5800,96,92,324583
1.5640,0.1955,38.6200,96,92,324586
1.5738,0.2004,38.6500,96,92,324590
1.6373,0.2248,38.4900,96,92,324593
1.6178,0.2053,38.6200,96,92,324596
1.6178,0.1955,38.5500,96,92,324600
1.6373,0.2004,38.6200,96,92,324603
1.6422,0.2004,38.6500,96,92,324606
1.6764,0.2102,38.5200,96,92,324610
1.6618,0.2053,38.5800,96,92,324614
1.6813,0.2004,38.4900,96,92,324617
1.6716,0.2004,38.6200,96,92,324620
1.6764,0.2248,38.6200,96,92,324624
1.7058,0.2102,38.4900,96,92,324627
1.6960,0.2004,38.6800,96,92,324630
1.7204,0.2053,38.4900,96,92,324634
1.7009,0.2004,38.6200,96,92,324637
1.7058,0.2004,38.6200,96,92,324640
1.7204,0.2004,38.5500,96,92,324643
1.7204,0.2004,38.6500,96,92,324647
1.7498,0.2004,38.4600,96,92,324651
1.7253,0.1906,38.6200,96,92,324654
1.7302,0.1955,38.7100,96,92,324658
1.7546,0.2053,38.5800,96,92,324661
1.7351,0.2004,38.6500,96,92,324664
1.7693,0.2053,38.3600,96,92,324668
1.7595,0.2004,38.4900,96,92,324671
1.7498,0.1955,38.6200,96,92,324674
1.7693,0.2004,38.5500,96,92,324678
1.7498,0.1906,38.6200,96,92,324681
1.7937,0.2102,38.3600,96,92,324684
1.7742,0.2004,38.5500,96,92,324687
1.7693,0.1955,38.6200,96,92,324691
1.7791,0.2004,38.6200,96,92,324695
1.7742,0.1955,38.6200,96,92,324698
1.8328,0.1906,38.4000,96,92,324702
1.7986,0.2053,38.5500,96,92,324705
1.8328,0.1955,38.5800,96,92,324708
1.7937,0.2004,38.7100,96,92,324712
1.8035,0.2004,38.6200,96,92,324715
1.8328,0.2102,38.5200,96,92,324718
1.8084,0.2004,38.6800,96,92,324721
1.8231,0.2004,38.4900,96,92,324725
1.8035,0.2004,38.6200,96,92,324728
1.8133,0.1906,38.6200,96,92,324731
1.8475,0.2102,38.4000,96,92,324736
1.8328,0.2004,38.6200,96,92,324739
1.8426,0.2053,38.4600,96,92,324742
1.8231,0.2004,38.6200,96,92,324746
1.8426,0.1955,38.6500,96,92,324749
1.8573,0.2004,38.4300,96,92,324752
1.8426,0.2004,38.5800,96,92,324755
1.8671,0.2004,38.4900,96,92,324759
1.8475,0.1955,38.5800,96,92,324762
1.8573,0.2004,38.6500,96,92,324765
1.8817,0.1955,38.5500,96,92,324769
1.8768,0.1955,38.6200,96,92,324772
1.9208,0.2004,38.7100,96,92,324775
1.8915,0.1955,38.6200,96,92,324780
1.9013,0.1906,38.6200,96,92,324783
1.9208,0.2004,38.5500,96,92,324786
1.9159,0.1955,38.6200,96,92,324790
1.9648,0.2053,38.3300,96,92,324793
1.9355,0.2004,38.4900,96,92,324796
1.9355,0.1955,38.6800,96,92,324799
1.9306,0.2004,38.6500,96,92,324803
1.9159,0.1955,38.8400,96,92,324806
1.9648,0.2151,38.4000,96,92,324809
1.9257,0.2053,38.5200,96,92,324813
1.9062,0.2151,38.6800,96,92,324816
1.9013,0.2004,38.6200,96,92,324819
1.8964,0.1955,38.5200,96,92,324824
1.9306,0.2004,38.4900,96,92,324827
1.8915,0.2004,38.5800,96,92,324830
1.9062,0.1955,38.6200,96,92,324833
1.8866,0.2151,38.5800,96,92,324837
1.8866,0.1955,38.6200,96,92,324840
1.9062,0.2053,38.5800,96,92,324843
1.9110,0.1955,38.6200,96,92,324847
1.9062,0.2004,38.4900,96,92,324850
1.8719,0.1857,38.6200,96,92,324853
1.8671,0.1906,38.6200,96,92,324857
1.8964,0.2053,38.4900,96,92,324860
1.8671,0.2053,38.6200,96,92,324864
1.8964,0.1955,38.4600,96,92,324868
1.8671,0.1955,38.5800,96,92,324871
1.8622,0.1955,38.6800,96,92,324874
1.8817,0.2053,38.5800,96,92,324877
1.8573,0.1955,38.4900,96,92,324881
1.8866,0.2053,38.4000,96,92,324884
1.8573,0.2004,38.6200,96,92,324887
1.8524,0.1955,38.6200,96,92,324891
1.8622,0.2053,38.6200,96,92,324894
1.8475,0.1906,38.7100,96,92,324897
1.8964,0.2053,38.4300,96,92,324901
1.8524,0.1955,38.5500,96,92,324904
1.8622,0.1955,38.6500,96,92,324908
1.8671,0.2004,38.7100,96,92,324911
1.8817,0.2004,38.7100,96,92,324916
1.8866,0.1955,38.6200,96,92,324919
1.9306,0.2102,38.4600,96,92,324923
1.9062,0.2004,38.6800,96,92,324926
1.9306,0.2053,38.4600,96,92,324929
1.9306,0.1955,38.6200,96,92,324933
1.9110,0.1955,38.6500,96,92,324936
1.9453,0.2053,38.5200,96,92,324939
1.9208,0.2004,38.6200,96,92,324943
1.9599,0.2004,38.5200,96,92,324946
1.9257,0.1955,38.6500,96,92,324950
1.9257,0.2004,38.6200,96,92,324953
1.9404,0.1955,38.5200,96,92,324957
1.9355,0.2004,38.7700,96,92,324960
1.9648,0.2053,38.4000,96,92,324963
1.9404,0.1955,38.6200,96,92,324967
1.9453,0.1955,38.6500,96,92,324970
1.9795,0.2004,38.5200,96,92,324973
1.9648,0.1955,38.5800,96,92,324977
2.0137,0.2395,38.3600,96,92,324980
1.9941,0.2004,38.5500,96,92,324983
1.9844,0.1955,38.6200,96,92,324987
2.0137,0.2053,38.6200,96,92,324990
2.0137,0.1955,38.5800,96,92,324994
2.0821,0.2102,38.3600,96,92,324997
2.0332,0.1955,38.5200,96,92,325001
1.9990,0.1955,38.5500,96,92,325004
1.9990,0.2004,38.6800,96,92,325007
1.9697,0.1955,38.6500,96,92,325011
1.9990,0.2248,38.4300,96,92,325014
1.9306,0.2004,38.5800,96,92,325017
1.9159,0.1955,38.5200,96,92,325021
1.8964,0.1906,38.5800,96,92,325024
1.8866,0.1955,38.6200,96,92,325027
1.9159,0.2053,38.6200,96,92,325030
1.8817,0.2004,38.6200,96,92,325035
1.8866,0.2004,38.5500,96,92,325038
1.8524,0.2248,38.6800,96,92,325041
1.8328,0.1955,38.6500,96,92,325045
1.8573,0.2102,38.4600,96,92,325048
1.8328,0.1955,38.6200,96,92,325051
1.8475,0.2004,38.5200,96,92,325055
1.8133,0.1906,38.5500,96,92,325058
1.8035,0.2053,38.6200,96,92,325061
1.8280,0.2004,38.6800,96,92,325065
1.8084,0.1955,38.6200,96,92,325068
1.8475,0.2004,38.4300,96,92,325071
1.8182,0.1955,37.9300,96,92,325074
1.8182,0.2004,38.6200,96,92,325079
1.8328,0.2102,38.5200,96,92,325082
1.8280,0.1955,38.6500,96,92,325085
1.8719,0.2053,38.3600,96,92,325089
1.8377,0.2004,38.5500,96,92,325092
1.8573,0.1955,38.6500,96,92,325095
1.8866,0.2053,38.5800,96,92,325099
1.9110,0.1955,38.8100,96,92,325102
2.0186,0.2102,38.3300,96,92,325105
2.0772,0.1955,38.5200,96,92,325108
2.1408,0.1955,38.5800,96,92,325112
2.2874,0.2004,38.6200,96,92,325115
2.4536,0.2053,38.6200,96,92,325118
2.7370,0.1906,38.4300,96,92,325123
2.9374,0.2053,38.5500,96,92,325126
3.1476,0.2004,38.5200,96,92,325129
3.2796,0.1955,38.6200,96,92,325133
3.2845,0.1955,38.6500,96,92,325136
3.1672,0.1955,38.4900,96,92,325139
2.8495,0.1906,38.5800,96,92,325142
2.5709,0.2004,38.5200,96,92,325146
2.2581,0.1955,38.5800,96,92,325149
2.0381,0.1955,38.6200,96,92,325152
1.8377,0.2004,38.5500,96,92,325156
1.6716,0.2004,38.7100,96,92,325159
1.5738,0.2004,38.4900,96,92,325163
1.4761,0.1955,38.6500,96,92,325167
1.4321,0.2297,38.5800,96,92,325170
1.4223,0.2053,38.5200,96,92,325173
1.3930,0.2053,38.6200,96,92,325177
1.4223,0.2004,38.4300,96,92,325180
1.4174,0.1955,38.5200,96,92,325183
1.4370,0.1955,38.5800,96,92,325186
1.4712,0.2102,38.5200,96,92,325190
1.4712,0.1955,38.7100,96,92,325193
1.5249,0.2053,38.3600,96,92,325196
1.5249,0.1955,38.5200,96,92,325200
1.5298,0.1955,38.6200,96,92,325203
1.5787,0.2004,38.5800,96,92,325207
1.5640,0.1955,38.6500,96,92,325211
1.6276,0.2102,38.1500,96,92,325214
1.6129,0.2004,38.5200,96,92,325217
1.6178,0.1906,38.5800,96,92,325220
1.6276,0.2004,38.8400,96,92,325224
1.6422,0.1955,38.6200,96,92,325227
1.6862,0.2102,38.4600,96,92,325230
1.6667,0.2004,38.5800,96,92,325234
1.6716,0.1955,38.5200,96,92,325237
1.6716,0.2004,38.6800,96,92,325240
1.6764,0.1955,38.5200,96,92,325244
1.7155,0.2199,38.4300,96,92,325248
1.6960,0.2004,38.5800,96,92,325251
1.7155,0.2004,38.5200,96,92,325255
1.6960,0.2102,38.6200,96,92,325258
1.7009,0.1955,38.6200,96,92,325261
1.7351,0.2102,38.4600,96,92,325264
1.7351,0.1955,38.6800,96,92,325268
1.7546,0.2053,38.4900,96,92,325271
1.7302,0.1955,38.5800,96,92,325274
1.7400,0.1955,38.6200,96,92,325278
1.7595,0.1906,38.5500,96,92,325281
1.7449,0.2004,38.5800,96,92,325284
1.7742,0.2102,38.4300,96,92,325288
1.7546,0.1955,38.6800,96,92,325292
1.7644,0.2297,38.6800,96,92,325295
1.7840,0.2053,38.6200,96,92,325298
1.7693,0.1955,38.8400,96,92,325302
1.8280,0.2004,38.3600,96,92,325305
1.7937,0.2004,38.5800,96,92,325308
1.7840,0.1955,38.6800,96,92,325312
1.7937,0.2004,38.5500,96,92,325315
1.7889,0.1955,38.6800,96,92,325318
1.8377,0.2102,38.3000,96,92,325322
1.7986,0.2004,38.5200,96,92,325325
1.7889,0.1955,38.5800,96,92,325328
1.7889,0.2004,38.6200,96,92,325332
1.7840,0.1955,38.6500,96,92,325336
1.8377,0.2102,38.4900,96,92,325339
1.8182,0.2004,38.5800,96,92,325342
1.8231,0.1955,38.5500,96,92,325346
1.8231,0.2004,38.6200,96,92,325349
1.8280,0.1955,38.6500,96,92,325352
1.8573,0.2102,38.5500,96,92,325356
1.8475,0.2004,38.6200,96,92,325359
1.8671,0.2004,38.6200,96,92,325362
1.8475,0.2053,38.6800,96,92,325366
1.8622,0.1955,38.6200,96,92,325369
1.9062,0.2395,38.5500,96,92,325372
1.8866,0.2004,38.5800,96,92,325376
1.9208,0.2004,38.5500,96,92,325380
1.8964,0.2004,38.5800,96,92,325383
1.9062,0.2053,38.6800,96,92,325386
1.9306,0.2053,38.4900,96,92,325390
1.9110,0.1955,38.6500,96,92,325393
1.9501,0.1955,38.4300,96,92,325396
1.9355,0.1955,38.5500,96,92,325400
1.9306,0.2151,38.6500,96,92,325403
1.9501,0.2053,38.5500,96,92,325406
1.9404,0.1955,38.6500,96,92,325409
1.9795,0.2053,38.5500,96,92,325413
1.9257,0.1955,38.5800,96,92,325416
1.9208,0.1955,38.6800,96,92,325420
1.9306,0.2395,38.6200,96,92,325424
1.9208,0.1955,38.6500,96,92,325427
1.9844,0.2102,38.4300,96,92,325430
1.9550,0.2199,38.5500,96,92,325434
1.9599,0.1955,38.5800,96,92,325437
1.9306,0.2102,38.6200,96,92,325440
1.9306,0.1955,38.6200,96,92,325444
1.9550,0.1906,38.4300,96,92,325447
1.9110,0.2053,38.5500,96,92,325450
1.9404,0.1955,38.5200,96,92,325453
1.9062,0.2004,38.6200,96,92,325457
1.9062,0.1955,38.6200,96,92,325460
1.9306,0.2053,38.4600,96,92,325464
1.8964,0.2004,37.8700,96,92,325468
1.9110,0.2004,38.4600,96,92,325471
1.8817,0.2053,38.6800,96,92,325474
1.8817,0.1955,38.6200,96,92,325478
1.8866,0.2248,38.5200,96,92,325481
1.9013,0.2004,38.6500,96,92,325484
1.8915,0.2053,38.5200,96,92,325487
1.8671,0.1955,38.6500,96,92,325491
1.8866,0.1955,38.6200,96,92,325494
1.9110,0.2053,38.5200,96,92,325497
1.8817,0.2053,38.6800,96,92,325501
1.9110,0.1906,38.4300,96,92,325505
1.8866,0.2004,38.7100,96,92,325508
1.8671,0.1955,38.6200,96,92,325512
1.8768,0.2102,38.6200,96,92,325515
1.8426,0.2004,38.6200,96,92,325518
1.8866,0.2004,38.3600,96,92,325522
1.9013,0.2199,38.4600,96,92,325525
1.8866,0.2004,38.5500,96,92,325529
1.8915,0.1955,38.6200,96,92,325532
1.8866,0.2248,38.6200,96,92,325535
1.8817,0.1955,38.6200,96,92,325538
1.9110,0.2297,38.5500,96,92,325542
1.8915,0.2053,38.5800,96,92,325545
1.9208,0.2004,38.4900,96,92,325549
1.9110,0.2053,38.6200,96,92,325553
1.9355,0.1906,38.6200,96,92,325556
1.9697,0.2102,38.7100,96,92,325559
1.9501,0.2004,38.5800,96,92,325563
1.9746,0.2053,38.5200,96,92,325566
1.9355,0.1955,38.5800,96,92,325569
1.9257,0.1955,38.6200,96,92,325573
1.9355,0.2053,38.5200,96,92,325576
1.9110,0.2004,38.6200,96,92,325579
1.9453,0.2004,38.4600,96,92,325582
1.9257,0.1955,38.5500,96,92,325586
1.9208,0.2004,38.6500,96,92,325590
1.9355,0.2151,38.5800,96,92,325593
1.9306,0.2004,38.6500,96,92,325597
1.9844,0.2053,38.3600,96,92,325600
1.9648,0.1906,38.5500,96,92,325603
1.9697,0.1955,38.7400,96,92,325607
1.9892,0.2102,38.5800,96,92,325610
1.9892,0.2004,38.6200,96,92,325613
2.0577,0.2102,38.4000,96,92,325616
2.0381,0.2004,38.5200,96,92,325620
2.0235,0.1955,38.6500,96,92,325623
2.0235,0.2053,38.6200,96,92,325626
2.0039,0.2004,38.6800,96,92,325630
2.0479,0.2199,38.4000,96,92,325634
2.0186,0.2102,38.5500,96,92,325637
1.9453,0.1955,38.5500,96,92,325641
1.9110,0.2004,38.7100,96,92,325644
1.8915,0.1955,38.6800,96,92,325647
1.9110,0.2102,38.4900,96,92,325650
1.8768,0.2004,38.5200,96,92,325654
1.8817,0.1955,38.4900,96,92,325657
1.8573,0.2004,38.6200,96,92,325660
1.8475,0.1955,38.6500,96,92,325664
1.8573,0.2004,38.5800,96,92,325667
1.8328,0.1955,38.6200,96,92,325670
1.8475,0.2102,38.5200,96,92,325675
1.8133,0.2004,38.6500,96,92,325678
1.8133,0.1955,37.8300,96,92,325681
1.8475,0.2053,38.4900,96,92,325685
1.8280,0.2004,38.6200,96,92,325688
1.8524,0.2004,38.4600,96,92,325691
1.8280,0.2004,38.5200,96,92,325694
1.8231,0.2004,38.6500,96,92,325698
1.8475,0.2102,38.4900,96,92,325701
1.8280,0.2004,38.6500,96,92,325704
1.8622,0.2151,38.4300,96,92,325708
1.8280,0.2102,38.5800,96,92,325711
1.8084,0.1955,38.6500,96,92,325714
1.8328,0.1955,38.5800,96,92,325719
1.8475,0.1906,38.6200,96,92,325722
1.9257,0.2151,38.3000,96,92,325725
1.9257,0.2004,38.5500,96,92,325728
2.0039,0.1906,38.6200,96,92,325732
2.0674,0.2004,38.6200,96,92,325735
2.1896,0.2004,38.5800,96,92,325738
2.4242,0.2248,38.4000,96,92,325742
2.6002,0.2053,38.5500,96,92,325745
2.8299,0.1955,38.5500,96,92,325748
3.0890,0.2004,38.5800,96,92,325751
3.2747,0.2004,38.8400,96,92,325755
3.4262,0.2199,38.4300,96,92,325758
3.2942,0.2053,38.5200,96,92,325762
3.0303,0.2004,38.6200,96,92,325766
2.6784,0.2004,38.5800,96,92,325769
2.3558,0.2004,38.5800,96,92,325772
2.1114,0.2053,38.4900,96,92,325776
1.8573,0.2004,38.5800,96,92,325779
1.6960,0.2004,38.4900,96,92,325782
1.5543,0.2004,38.5500,96,92,325785
1.5152,0.1955,38.6200,96,92,325789
1.4418,0.2004,38.6500,96,92,325792
1.4076,0.2004,38.6500,96,92,325795
1.4027,0.2004,38.5200,96,92,325799
1.3783,0.2004,38.6200,96,92,325803
1.3930,0.2004,38.4900,96,92,325806
1.4370,0.2346,38.5500,96,92,325809
1.4370,0.2004,38.6200,96,92,325813
1.4663,0.2004,38.4000,96,92,325816
1.4712,0.2004,38.5200,96,92,325819
1.4858,0.1906,38.6200,96,92,325823
1.5249,0.2102,38.4900,96,92,325826
1.5494,0.2053,38.6200,96,92,325829
1.5787,0.2053,38.3600,96,92,325833
1.5787,0.2053,38.4900,96,92,325836
1.5934,0.2004,38.6200,96,92,325839
1.6276,0.2053,38.5800,96,92,325843
1.6276,0.2004,38.5200,96,92,325847
1.6764,0.2199,38.3300,96,92,325850
1.6520,0.1955,38.5200,96,92,325853
1.6764,0.1955,38.5800,96,92,325857
1.6960,0.2102,38.6200,96,92,325860
1.6960,0.2004,38.6500,96,92,325863
1.7400,0.2199,38.4300,96,92,325867
1.7009,0.2053,38.5500,96,92,325870
1.6813,0.1906,38.5500,96,92,325873
1.6813,0.2053,38.6800,96,92,325877
1.7058,0.1906,38.6500,96,92,325880
1.7595,0.2102,38.5200,96,92,325883
1.7449,0.2004,38.5800,96,92,325888
1.7351,0.2053,38.4900,96,92,325891
1.7107,0.2004,38.6500,96,92,325894
1.7204,0.2297,38.6500,96,92,325897
1.7644,0.2102,38.5200,96,92,325901
1.7546,0.2004,38.8100,96,92,325904
1.7889,0.2102,38.5500,96,92,325907
1.7644,0.2004,38.6200,96,92,325911
1.7595,0.1955,38.6200,96,92,325914
1.7644,0.2004,38.5500,96,92,325917
1.7449,0.2004,38.6500,96,92,325921
1.7644,0.2004,38.4300,96,92,325924
1.7449,0.2102,38.6800,96,92,325927
1.7595,0.2004,38.6500,96,92,325931
1.7693,0.2053,38.5800,96,92,325935
1.7546,0.2053,38.6800,96,92,325938
1.8280,0.2102,38.4000,96,92,325941
1.7693,0.2053,38.5200,96,92,325945
1.7595,0.2004,38.6200,96,92,325948
1.7791,0.1906,38.5800,96,92,325951
1.7791,0.2004,38.6500,96,92,325955
1.8475,0.2102,38.3000,96,92,325958
1.8182,0.1906,38.4900,96,92,325961
1.8133,0.1955,38.6200,96,92,325964
1.8280,0.2102,38.5800,96,92,325968
1.8182,0.2053,38.6500,96,92,325971
1.8671,0.2199,38.4300,96,92,325975
1.8231,0.2053,38.5800,96,92,325979
1.8182,0.2004,38.5500,96,92,325982
1.8133,0.2004,38.6800,96,92,325985
1.8280,0.1906,38.6200,96,92,325989
1.8573,0.2102,38.5200,96,92,325992
1.8524,0.2004,38.6500,96,92,325995
1.8719,0.2004,38.5200,96,92,325999
1.8671,0.2004,38.6200,96,92,326002
1.8768,0.2004,38.6500,96,92,326005
1.9062,0.2151,38.4600,96,92,326008
1.8768,0.2004,38.6500,96,92,326012
1.9062,0.2102,38.5800,96,92,326016
1.8866,0.1955,38.6200,96,92,326019
1.9062,0.2004,38.6200,96,92,326023
1.9257,0.2151,38.4900,96,92,326026
1.8964,0.1906,38.6200,96,92,326029
1.9257,0.2053,38.4600,96,92,326033
1.9453,0.1955,38.5500,96,92,326036
1.9355,0.2004,38.5200,96,92,326039
1.9844,0.2102,38.5800,96,92,326042
1.9746,0.2053,38.6800,96,92,326046
2.0186,0.2053,38.4000,96,92,326049
1.9697,0.1955,38.5800,96,92,326052
1.9795,0.2004,38.6200,96,92,326056
1.9208,0.2053,38.6200,96,92,326060
1.8817,0.2102,38.6200,96,92,326063
1.9257,0.2151,38.3300,96,92,326067
1.8915,0.2053,38.5200,96,92,326070
1.8768,0.1955,38.5800,96,92,326073
1.8915,0.2053,38.6800,96,92,326077
1.9062,0.2004,38.6200,96,92,326080
1.9697,0.2199,38.4000,96,92,326083
1.9355,0.2102,38.3600,96,92,326086
1.9013,0.2053,38.5200,96,92,326090
1.8915,0.1955,38.6200,96,92,326093
1.8915,0.2004,38.6500,96,92,326096
1.9306,0.2102,38.3600,96,92,326100
1.9062,0.2004,38.5800,96,92,326104
1.8768,0.2053,38.4900,96,92,326107
1.8475,0.2004,38.7400,96,92,326111
1.8817,0.2004,38.6200,96,92,326114
1.9062,0.2053,38.5500,96,92,326117
1.9013,0.2004,38.6800,96,92,326120
1.9110,0.2102,38.5200,96,92,326124
1.8622,0.2004,38.6200,96,92,326127
1.8475,0.2004,38.6200,96,92,326130
1.8475,0.2053,38.4900,96,92,326134
1.8622,0.2248,38.5500,96,92,326137
1.8573,0.1906,38.6200,96,92,326141
1.9110,0.2102,38.3600,96,92,326145
1.8866,0.2053,38.5200,96,92,326148
1.8719,0.1955,38.6200,96,92,326152
1.8719,0.2102,38.6200,96,92,326155
1.8866,0.1955,38.6200,96,92,326158
1.9404,0.2199,38.4300,96,92,326162
1.9013,0.2004,38.5500,96,92,326165
1.9062,0.2004,38.5500,96,92,326168
1.9110,0.2004,38.6200,96,92,326171
1.9159,0.2053,38.5800,96,92,326175
1.9599,0.2151,38.5200,96,92,326178
1.9355,0.2053,38.7100,96,92,326181
1.9404,0.2395,38.4900,96,92,326185
1.9257,0.2004,38.6500,96,92,326189
1.9257,0.2004,38.6500,96,92,326192
1.9501,0.2102,38.4600,96,92,326196
1.9208,0.2053,38.5500,96,92,326199
1.9501,0.2053,38.5500,96,92,326202
1.9355,0.1906,38.6200,96,92,326206
1.9453,0.2004,38.7100,96,92,326209
1.9795,0.2102,38.4900,96,92,326212
1.9697,0.2004,38.6200,96,92,326215
1.9990,0.2004,38.5200,96,92,326219
1.9697,0.1955,38.5800,96,92,326222
1.9795,0.2004,38.6500,96,92,326225
1.9795,0.2053,38.5200,96,92,326230
1.9746,0.2004,38.6500,96,92,326233
2.0283,0.1955,38.4000,96,92,326236
1.9990,0.2004,38.6200,96,92,326240
2.0088,0.2004,38.6200,96,92,326243
2.0332,0.2102,38.6200,96,92,326246
2.0137,0.2053,38.6800,96,92,326249
2.0528,0.2102,38.3600,96,92,326253
1.9990,0.2053,38.5500,96,92,326256
1.9599,0.2004,38.6500,96,92,326259
1.9550,0.2053,38.6200,96,92,326263
1.9257,0.2004,38.5800,96,92,326266
1.9648,0.2199,38.4000,96,92,326269
1.9159,0.2102,38.5200,96,92,326274
1.8915,0.1955,38.6800,96,92,326277
1.8817,0.2248,38.5800,96,92,326280
1.8719,0.1906,38.6200,96,92,326283
1.9110,0.2102,38.7400,96,92,326287
1.8768,0.2053,38.5800,96,92,326290
1.8817,0.2004,38.4900,96,92,326293
1.8475,0.2053,38.6800,96,92,326297
1.8328,0.2053,38.6800,96,92,326300
1.8573,0.1906,38.5800,96,92,326303
1.8377,0.2004,38.6200,96,92,326307
1.8622,0.2346,38.4600,96,92,326310
1.8377,0.2004,38.7100,96,92,326313
1.8475,0.2004,38.6200,96,92,326317
1.8768,0.2151,38.5200,96,92,326321
1.8524,0.2004,38.7100,96,92,326324
1.8768,0.2053,38.4900,96,92,326327
1.8573,0.2004,38.5500,96,92,326331
1.8622,0.2004,38.6500,96,92,326334
1.8964,0.2053,38.5500,96,92,326337
1.8866,0.2004,38.6800,96,92,326341
1.9648,0.2053,38.4000,96,92,326344
1.9795,0.2151,38.6200,96,92,326347
2.0381,0.2053,38.6200,96,92,326351
2.1554,0.2102,38.5500,96,92,326354
2.2825,0.2004,38.5800,96,92,326358
2.5367,0.2151,38.3600,96,92,326361
2.7224,0.2004,38.8400,96,92,326365
2.9765,0.2053,38.6500,96,92,326368
3.2356,0.2004,38.5800,96,92,326371
3.3871,0.2004,38.6500,96,92,326375
3.4897,0.2199,38.4000,96,92,326378
3.2454,0.2053,38.5500,96,92,326381
2.9130,0.1955,38.5800,96,92,326385
2.5611,0.2004,38.6200,96,92,326388
2.2385,0.2004,38.6200,96,92,326391
2.0137,0.2102,38.9000,96,92,326394
1.7693,0.1955,38.5800,96,92,326398
1.6080,0.2004,38.5200,96,92,326402
1.4907,0.2004,38.6200,96,92,326405
1.4272,0.2004,38.6200,96,92,326409
1.4223,0.2004,38.4900,96,92,326412
1.3930,0.2004,38.6200,96,92,326415
1.4076,0.2053,38.4900,96,92,326419
1.4027,0.2004,38.6800,96,92,326422
1.4223,0.2053,38.6200,96,92,326425
1.4663,0.2004,38.5500,96,92,326428
1.4761,0.2004,37.8700,96,92,326432
1.5298,0.2102,38.4900,96,92,326435
1.5249,0.2004,37.9600,96,92,326438
1.5543,0.2004,38.6500,96,92,326443
1.5982,0.2004,38.5500,96,92,326446
1.6080,0.2004,38.6200,96,92,326449
1.6471,0.2053,38.4000,96,92,326453
1.6422,0.2004,38.6200,96,92,326456
1.6520,0.2053,38.6800,96,92,326459
1.6911,0.2102,38.6800,96,92,326462
1.6764,0.2004,38.6800,96,92,326466
1.7546,0.2151,38.3600,96,92,326469
1.7058,0.2004,38.5200,96,92,326472
1.7009,0.2053,38.6500,96,92,326476
1.7204,0.2053,38.5800,96,92,326479
1.7155,0.2004,38.6500,96,92,326482
1.7693,0.2102,38.3300,96,92,326487
1.7351,0.2053,38.5200,96,92,326490
1.7400,0.1955,38.5800,96,92,326493
1.7498,0.2053,38.4000,96,92,326496
1.7546,0.1955,38.6200,96,92,326500
1.8035,0.2199,38.4600,96,92,326503
1.7742,0.2053,38.5200,96,92,326506
1.7791,0.2151,38.5200,96,92,326510
1.7791,0.2004,38.5500,96,92,326513
1.7791,0.1955,38.6200,96,92,326516
1.8231,0.2102,38.4600,96,92,326520
1.7937,0.2053,38.5800,96,92,326523
1.8084,0.2004,38.4900,96,92,326526
1.8133,0.2004,38.6200,96,92,326531
1.7937,0.2004,38.6200,96,92,326534
1.8182,0.2297,38.4900,96,92,326537
1.8084,0.1955,38.6200,96,92,326540
1.8328,0.2053,38.5200,96,92,326544
1.7986,0.2004,38.7100,96,92,326547
1.7986,0.2053,38.6200,96,92,326550
1.8035,0.2053,38.5200,96,92,326554
1.8035,0.2004,38.6800,96,92,326557
1.8377,0.2004,38.4600,96,92,326560
1.8231,0.2053,38.6200,96,92,326564
1.8182,0.2004,38.6500,96,92,326567
1.8377,0.2102,38.5500,96,92,326571
1.8280,0.2004,38.6200,96,92,326574
1.8866,0.2102,38.3600,96,92,326578
1.8671,0.2102,38.6200,96,92,326581
1.8524,0.1955,38.6500,96,92,326584
1.8719,0.2053,38.5800,96,92,326588
1.8622,0.2053,38.6200,96,92,326591
1.9208,0.1906,38.3300,96,92,326594
1.8817,0.2053,38.4900,96,92,326598
1.8719,0.1955,38.5800,96,92,326601
1.8719,0.2004,38.6200,96,92,326604
1.8671,0.2004,38.8100,96,92,326607
1.9110,0.2199,38.5200,96,92,326611
1.8719,0.2053,38.5500,96,92,326615
1.8622,0.2004,38.5200,96,92,326618
1.8475,0.2053,38.6200,96,92,326622
1.8426,0.2004,38.7400,96,92,326625
1.8768,0.2102,38.5500,96,92,326628
1.8573,0.2053,38.6800,96,92,326632
1.8768,0.2053,38.4900,96,92,326635
1.8573,0.2102,38.6500,96,92,326638
1.8719,0.1906,38.6500,96,92,326642
1.9110,0.2151,38.5200,96,92,326645
1.8964,0.1906,38.5800,96,92,326648
1.9355,0.2053,38.4900,96,92,326651
1.9257,0.1955,38.5800,96,92,326656
1.9355,0.2053,38.6200,96,92,326659
1.9599,0.2053,38.4900,96,92,326662
1.9404,0.2297,38.6800,96,92,326666
1.9648,0.2053,38.4300,96,92,326669
1.9404,0.2004,37.8700,96,92,326672
1.9404,0.2053,38.7400,96,92,326676
1.9599,0.2004,38.5500,96,92,326679
1.9453,0.2004,38.6500,96,92,326682
1.9941,0.2053,38.4000,96,92,326685
1.9501,0.2004,38.5800,96,92,326689
1.9844,0.1955,38.6200,96,92,326692
1.9746,0.2053,38.6800,96,92,326695
1.9599,0.2004,38.6200,96,92,326700
2.0235,0.2151,38.3300,96,92,326703
1.9941,0.2053,38.1500,96,92,326706
1.9795,0.2053,38.5500,96,92,326710
1.9844,0.2102,38.6200,96,92,326713
1.9795,0.2102,38.6200,96,92,326716
2.0430,0.2102,38.4600,96,92,326720
2.0039,0.2102,38.3000,96,92,326723
1.9892,0.2004,38.5500,96,92,326726
1.9844,0.2102,38.6200,96,92,326729
1.9795,0.2053,38.6200,96,92,326733
2.0088,0.2102,38.6500,96,92,326736
1.9795,0.2004,38.5800,96,92,326739
1.9990,0.1955,38.4900,96,92,326744
1.9844,0.1906,38.6200,96,92,326747
2.0137,0.1906,38.6200,96,92,326751
2.0235,0.2004,38.6800,96,92,326754
2.0528,0.2053,38.4900,96,92,326757
2.0283,0.2053,38.6800,96,92,326761
2.1017,0.2053,38.4000,96,92,326764
2.0479,0.2004,38.5200,96,92,326767
2.0430,0.2004,38.6500,96,92,326770
2.0821,0.2102,38.4900,96,92,326774
2.0626,0.1955,38.6500,96,92,326777
2.1505,0.2102,38.3600,96,92,326780
2.0821,0.2004,38.6200,96,92,326785
2.0723,0.1955,38.6200,96,92,326788
2.0968,0.2004,38.5800,96,92,326791
2.0870,0.2004,38.6200,96,92,326794
2.1457,0.2102,38.3300,96,92,326798
2.1065,0.2102,38.5200,96,92,326801
2.1408,0.1955,38.5800,96,92,326804
2.1114,0.2004,38.6200,96,92,326808
2.1065,0.1955,38.6200,96,92,326811
2.1652,0.2151,38.4600,96,92,326814
2.1359,0.2053,38.6200,96,92,326818
2.1261,0.1955,38.5200,96,92,326821
2.1163,0.2004,38.6200,96,92,326824
2.1163,0.1955,38.5500,96,92,326828
2.1603,0.2151,38.4600,96,92,326832
2.1359,0.2004,38.6200,96,92,326835
2.1603,0.2004,38.4900,96,92,326838
2.1408,0.2004,38.5800,96,92,326842
2.1505,0.1955,38.6800,96,92,326845
2.1896,0.2102,38.5200,96,92,326848
2.1799,0.2004,38.7400,96,92,326852
2.2190,0.2053,38.7100,96,92,326855
2.1945,0.2004,38.6200,96,92,326858
2.2092,0.1955,38.6200,96,92,326861
2.2239,0.2004,38.5800,96,92,326865
2.1994,0.2053,38.6200,96,92,326868
2.2141,0.2004,38.4900,96,92,326872
2.1603,0.1955,38.6500,96,92,326876
2.1408,0.2004,38.6200,96,92,326879
2.1310,0.2053,38.5500,96,92,326882
2.0821,0.1906,38.7100,96,92,326886
2.1114,0.2053,38.4000,96,92,326889
2.0772,0.2004,38.5200,96,92,326892
2.0528,0.1955,38.6500,96,92,326895
2.0674,0.2053,38.5800,96,92,326899
2.0381,0.1955,38.4300,96,92,326902
2.0772,0.2053,38.3600,96,92,326905
2.0283,0.1906,38.5200,96,92,326909
2.0137,0.1955,38.6500,96,92,326913
2.0186,0.2004,38.6200,96,92,326916
2.0088,0.2151,38.6800,96,92,326920
2.0723,0.2102,38.4000,96,92,326923
2.0186,0.2004,38.5500,96,92,326926
2.0039,0.1906,38.5800,96,92,326929
2.0088,0.2004,38.6500,96,92,326933
2.0039,0.2004,38.6200,96,92,326936
2.0577,0.2199,38.4600,96,92,326939
2.0088,0.2004,38.5800,96,92,326943
2.0039,0.1955,38.6200,96,92,326946
1.9941,0.1955,38.6500,96,92,326949
1.9941,0.1906,38.6500,96,92,326952
2.0381,0.2053,38.8400,96,92,326957
2.0332,0.2004,38.5800,96,92,326960
2.0577,0.1955,38.4900,96,92,326963
2.0577,0.1955,38.6500,96,92,326967
2.0968,0.1955,38.6500,96,92,326970
2.1848,0.2004,38.5500,96,92,326973
2.2483,0.1906,38.6200,96,92,326977
2.3998,0.2053,38.5200,96,92,326980
2.5220,0.1955,38.6500,96,92,326983
2.7322,0.1955,38.6500,96,92,326986
2.9814,0.2004,38.5500,96,92,326990
3.2063,0.1955,38.5800,96,92,326993
3.4457,0.2004,38.4900,96,92,326996
3.4702,0.2004,38.6500,96,92,327001
3.3773,0.1955,38.6800,96,92,327004
3.1672,0.1955,38.5500,96,92,327007
2.8201,0.1955,38.6500,96,92,327011
2.5806,0.2004,38.4000,96,92,327014
2.2923,0.2004,38.5800,96,92,327017
2.0626,0.2004,38.6800,96,92,327020
1.9110,0.2004,38.5800,96,92,327024
1.7595,0.1955,38.6200,96,92,327027
1.7107,0.2151,38.3300,96,92,327030
1.6129,0.1955,38.5200,96,92,327034
1.5738,0.2004,38.6200,96,92,327037
1.5689,0.2004,38.5800,96,92,327041
1.5494,0.1906,38.6500,96,92,327045
1.6080,0.2102,37.9900,96,92,327048
1.5885,0.1955,38.5500,96,92,327051
1.6031,0.1955,38.5500,96,92,327054
1.6080,0.1955,38.7100,96,92,327058
1.6325,0.1955,38.6800,96,92,327061
1.6667,0.2102,38.6500,96,92,327064
1.6618,0.2297,38.5800,96,92,327068
1.6911,0.1955,38.5200,96,92,327071
1.6911,0.1955,38.6500,96,92,327074
1.7058,0.1955,38.6200,96,92,327078
1.7498,0.2102,38.4900,96,92,327081
1.7351,0.2004,38.5800,96,92,327085
1.7742,0.2004,38.5200,96,92,327089
1.7449,0.1906,38.6200,96,92,327092
1.7546,0.1955,38.7400,96,92,327095
1.7791,0.1906,38.4900,96,92,327098
1.7791,0.1955,38.6200,96,92,327102
1.8084,0.2053,38.4300,96,92,327105
1.8035,0.1955,38.5500,96,92,327108
1.7937,0.1906,38.7100,96,92,327112
1.8182,0.2102,38.5200,96,92,327115
1.8084,0.2004,38.6500,96,92,327118
1.8426,0.2004,38.4000,96,92,327122
1.8084,0.2151,38.6200,96,92,327126
1.8475,0.1955,38.6500,96,92,327129
1.8328,0.2004,38.6500,96,92,327132
1.8231,0.1955,38.6200,96,92,327136
1.8768,0.2053,38.3300,96,92,327139
1.8475,0.2004,38.5800,96,92,327142
1.8280,0.1906,38.8100,96,92,327146
1.8328,0.1955,38.5800,96,92,327149
1.8231,0.1906,38.6200,96,92,327152
1.8719,0.2151,38.4000,96,92,327156
1.8377,0.2004,38.5200,96,92,327159
1.8328,0.1906,38.6500,96,92,327162
1.8280,0.2004,38.6200,96,92,327166
1.8622,0.1955,38.6800,96,92,327170
1.8719,0.2053,38.4900,96,92,327173
1.8475,0.1955,38.5800,96,92,327176
1.8817,0.1955,38.4900,96,92,327180
1.8328,0.1955,38.6200,96,92,327183
1.8377,0.2004,38.6200,96,92,327186
1.8524,0.1906,38.5800,96,92,327190
1.8377,0.1955,38.5200,96,92,327193
1.8671,0.2004,38.5200,96,92,327196
1.8377,0.1906,38.6500,96,92,327200
1.8377,0.1906,38.6200,96,92,327203
1.8866,0.2053,38.5200,96,92,327206
1.8475,0.1906,38.6800,96,92,327211
1.8719,0.1906,38.4000,96,92,327214
1.8426,0.2004,38.5500,96,92,327217
1.8328,0.1955,38.6500,96,92,327220
1.8524,0.2004,38.5800,96,92,327224
1.8328,0.2004,38.6500,96,92,327227
1.8964,0.2004,38.4300,96,92,327230
1.8524,0.1955,38.5500,96,92,327234
1.8524,0.1955,38.6200,96,92,327237
1.8671,0.1955,38.7100,96,92,327240
1.8524,0.1906,38.6500,96,92,327244
1.9110,0.2199,38.3600,96,92,327247
1.8768,0.1906,38.5500,96,92,327250
1.8768,0.1857,38.6800,96,92,327254
1.8915,0.2004,38.5800,96,92,327258
1.8964,0.1906,38.7700,96,92,327261
1.9599,0.2102,38.4300,96,92,327264
1.9257,0.1906,38.5500,96,92,327268
1.9306,0.1857,38.5500,96,92,327271
1.9306,0.1955,38.6200,96,92,327274
1.9404,0.1906,38.6500,96,92,327278
1.9795,0.2004,38.4300,96,92,327281
1.9599,0.1955,38.5800,96,92,327284
1.9697,0.1906,38.5200,96,92,327287
1.9453,0.1906,38.7400,96,92,327291
1.9453,0.1808,38.6200,96,92,327294
1.9648,0.2004,38.5500,96,92,327298
1.9355,0.1906,38.7400,96,92,327302
1.9599,0.2053,38.5200,96,92,327305
1.9306,0.1955,38.6500,96,92,327308
1.9257,0.1906,38.7700,96,92,327312
1.9306,0.2151,38.5800,96,92,327315
1.9062,0.1955,38.6200,96,92,327318
1.9257,0.1955,38.4900,96,92,327321
1.8866,0.2199,38.6200,96,92,327325
1.8768,0.1906,38.6200,96,92,327328
1.8915,0.2004,38.5500,96,92,327331
1.8866,0.1955,38.6800,96,92,327335
1.9013,0.1955,38.4000,96,92,327339
1.8768,0.1955,38.4600,96,92,327342
1.8524,0.2151,38.6200,96,92,327346
1.8671,0.1955,38.5800,96,92,327349
1.8475,0.2004,38.6200,96,92,327352
1.9159,0.1955,38.3300,96,92,327356
1.8719,0.2004,38.4900,95,92,327359
1.8426,0.1906,38.6200,95,92,327363
1.8524,0.1857,38.4600,95,92,327366
1.8377,0.1955,38.6200,95,92,327369
1.8328,0.1906,38.6500,95,92,327373
1.8573,0.1906,38.5800,95,92,327376
1.8426,0.1955,38.6200,95,92,327379
1.8719,0.1955,38.5200,95,92,327383
1.8426,0.1906,38.6500,95,92,327387
1.8475,0.1906,37.9600,95,92,327390
1.8768,0.2199,38.4600,95,92,327393
1.8524,0.1906,38.6500,95,92,327397
1.8817,0.1906,38.5200,95,92,327400
1.8671,0.1955,38.5500,95,92,327403
1.8622,0.1906,38.6200,95,92,327407
1.8915,0.2053,38.5200,95,92,327410
1.8817,0.1906,38.6200,95,92,327413
1.9306,0.1955,38.5200,95,92,327417
1.9062,0.1955,38.5800,95,92,327420
1.9013,0.1906,38.6500,95,92,327424
1.9208,0.1955,38.5800,95,92,327427
1.9062,0.1857,38.6500,95,92,327431
1.9599,0.1906,38.3300,95,92,327434
1.9257,0.1906,38.4900,95,92,327437
1.9306,0.1857,38.6200,95,92,327441
1.9501,0.1906,38.5800,95,92,327444
1.9453,0.1808,38.6500,95,92,327447
2.0088,0.2102,38.4600,95,92,327451
1.9892,0.1955,38.5200,95,92,327454
1.9844,0.1857,38.5200,95,92,327457
1.9844,0.1906,38.6500,95,92,327460
1.9892,0.1906,38.6500,95,92,327464
2.0626,0.2053,38.4300,95,92,327468
2.0088,0.1906,38.6800,95,92,327471
2.0283,0.1906,38.5200,95,92,327475
2.0137,0.1906,38.5800,95,92,327478
2.0283,0.1857,38.6200,95,92,327481
2.0723,0.2004,38.5200,95,92,327485
2.0528,0.1906,38.8400,95,92,327488
2.0821,0.1955,38.4900,95,92,327491
2.0626,0.1906,38.6500,95,92,327494
2.0430,0.1955,38.6200,95,92,327498
2.0332,0.1906,38.8100,95,92,327501
1.9941,0.1906,38.6500,95,92,327504
2.0186,0.1711,38.4900,95,92,327508
1.9355,0.1906,38.6200,95,92,327512
1.9257,0.1857,38.6500,95,92,327515
1.9404,0.1955,38.5200,95,92,327519
1.9110,0.1857,38.6200,95,92,327522
1.9453,0.1955,38.4000,95,92,327525
1.9208,0.1906,38.5200,95,92,327528
1.9013,0.1857,38.7700,95,92,327532
1.9013,0.1955,38.5800,95,92,327535
1.8671,0.1857,38.5500,95,92,327538
1.9013,0.1955,38.4300,95,92,327542
1.8524,0.1906,38.4300,95,92,327545
1.8426,0.1760,38.6500,95,92,327548
1.8524,0.1906,38.6200,95,92,327553
1.8426,0.1906,38.6200,95,92,327556
1.8915,0.2395,38.4000,95,92,327559
1.8524,0.1906,38.5500,95,92,327563
1.8426,0.1857,38.5200,95,92,327566
1.8573,0.1906,38.6200,95,92,327569
1.8377,0.1857,37.8700,95,92,327572
1.8817,0.1955,38.5200,95,92,327576
1.8622,0.1955,38.6200,95,92,327579
1.8768,0.1906,38.4600,95,92,327582
1.8719,0.1906,38.6500,95,92,327586
1.8817,0.1857,38.6200,95,92,327589
1.9404,0.1955,38.5500,95,92,327592
1.9550,0.1906,38.6200,95,92,327597
2.0381,0.1955,38.5800,95,92,327600
2.0870,0.1760,38.6200,95,92,327603
2.2092,0.1711,38.6200,95,92,327607
2.3851,0.1906,38.4600,95,92,327610
2.5709,0.1906,38.6200,95,92,327613
2.8690,0.1711,38.4600,95,92,327616
3.0547,0.1857,38.5800,95,92,327620
3.2551,0.2004,38.6500,95,92,327623
3.3773,0.1955,38.5500,95,92,327626
3.2845,0.1857,38.6500,95,92,327630
3.1183,0.1906,38.3300,95,92,327633
2.7468,0.1808,38.5800,95,92,327636
2.4438,0.1857,38.6800,95,92,327641
2.1848,0.1955,38.5800,95,92,327644
1.9404,0.1857,38.7400,95,92,327647
1.8035,0.2248,38.3300,95,92,327651
1.6325,0.2004,38.5500,95,92,327654
1.5103,0.1808,38.6200,95,92,327657
1.4761,0.1955,38.5800,95,92,327660
1.4076,0.1857,38.6200,95,92,327664
1.4321,0.2004,38.4300,95,92,327667
1.4174,0.1955,38.5500,95,92,327670
1.4223,0.1857,38.5500,95,92,327674
1.4370,0.1808,38.6500,95,92,327677
1.4516,0.1808,38.6500,95,92,327681
1.4858,0.2053,38.4900,95,92,327685
1.4907,0.1906,38.5800,95,92,327688
1.5054,0.1955,38.5200,95,92,327691
1.5152,0.1906,38.6800,95,92,327694
1.5836,0.1857,38.6200,95,92,327698
1.5885,0.1857,38.5500,95,92,327701
1.5934,0.1955,38.6200,95,92,327704
1.6227,0.1955,38.5200,95,92,327708
1.6080,0.1857,38.6500,95,92,327711
1.6129,0.1906,38.6500,95,92,327714
1.6276,0.1906,38.5500,95,92,327718
1.6276,0.2395,38.6200,95,92,327721
1.6764,0.1906,38.4300,95,92,327725
1.6764,0.1906,38.5200,95,92,327729
1.6813,0.1857,38.6500,95,92,327732
1.7107,0.1955,38.5200,95,92,327735
1.6911,0.1857,38.6500,95,92,327738
1.7302,0.1955,38.4000,95,92,327742
1.7204,0.1857,38.5800,95,92,327745
1.7058,0.1857,38.6500,95,92,327748
1.7155,0.1906,38.6200,95,92,327752
1.6960,0.1808,38.6500,95,92,327755
1.7449,0.1906,38.3600,95,92,327758
1.6960,0.1906,38.5200,95,92,327762
1.6911,0.1857,38.5800,95,92,327766
1.6862,0.1906,38.7700,95,92,327769
1.6911,0.1857,38.6200,95,92,327773
1.7595,0.2053,38.4900,95,92,327776
1.7498,0.1906,38.6500,95,92,327779
1.7693,0.2053,38.5200,95,92,327782
1.7546,0.1906,38.6200,95,92,327786
1.7400,0.1906,38.7100,95,92,327789
1.7644,0.1857,38.4600,95,92,327792
1.7351,0.1906,38.6200,95,92,327796
1.7498,0.1906,38.4900,95,92,327799
1.7302,0.1808,38.6500,95,92,327802
1.7204,0.1857,38.6500,95,92,327806
1.7449,0.2248,38.5200,95,92,327810
1.7449,0.1808,38.6200,95,92,327813
1.7693,0.1906,38.4900,95,92,327816
1.7449,0.1857,38.5800,95,92,327820
1.7449,0.1857,38.6200,95,92,327823
1.7546,0.1906,38.5200,95,92,327826
1.7351,0.1857,38.7400,95,92,327830
1.7595,0.2199,38.4300,95,92,327833
1.7351,0.1857,38.6800,95,92,327836
1.7498,0.2102,38.6200,95,92,327840
1.7693,0.1955,38.6500,95,92,327843
1.7595,0.1857,38.6200,95,92,327846
1.7986,0.1906,38.3600,95,92,327851
1.7791,0.1906,38.5500,95,92,327854
1.7693,0.1857,38.6800,95,92,327857
1.7889,0.1906,38.5800,95,92,327860
1.7889,0.2004,38.6200,95,92,327864
1.8475,0.2004,38.4300,95,92,327867
1.8182,0.1906,38.5200,95,92,327870
1.8133,0.1760,38.6200,95,92,327874
1.8084,0.1711,38.6200,95,92,327877
1.8084,0.1857,38.6500,95,92,327880
1.8524,0.2053,38.4600,95,92,327884
1.8426,0.1955,38.6200,95,92,327887
1.8817,0.1857,38.4900,95,92,327890
1.8719,0.2004,38.6200,95,92,327895
1.8817,0.1857,38.6200,95,92,327898
1.9062,0.2004,38.5500,95,92,327901
1.8964,0.1857,38.6200,95,92,327904
1.9159,0.1906,38.4900,95,92,327908
1.8768,0.1906,38.6500,95,92,327911
1.8719,0.1857,38.6800,95,92,327914
1.9062,0.1906,38.4900,95,92,327918
1.8817,0.1906,38.6200,95,92,327921
1.9159,0.1808,38.4900,95,92,327924
1.8866,0.1857,38.5800,95,92,327928
1.8573,0.1857,38.6200,95,92,327931
1.8573,0.1955,38.4900,95,92,327934
1.8377,0.1906,38.6200,95,92,327938
1.8817,0.1906,38.5200,95,92,327942
1.8622,0.2004,38.5800,95,92,327945
1.8622,0.1857,38.6500,95,92,327948
1.8768,0.1955,38.5800,95,92,327952
1.8573,0.1808,38.6500,95,92,327955
1.8964,0.1906,38.3600,95,92,327958
1.8426,0.1857,38.5800,95,92,327962
1.8426,0.1857,38.6200,95,92,327965
1.8524,0.1906,38.4600,95,92,327968
1.7937,0.1906,38.7400,95,92,327972
1.7937,0.1906,38.6200,95,92,327975
1.8426,0.2053,38.4600,95,92,327980
1.8133,0.1906,38.7100,95,92,327983
1.8280,0.2004,38.4600,95,92,327986
1.8035,0.1906,38.6500,95,92,327989
1.8084,0.1857,38.6800,95,92,327993
1.8377,0.1955,38.5200,95,92,327996
1.8231,0.1857,38.6200,95,92,327999
1.8377,0.1906,38.5200,95,92,328003
1.8084,0.1955,38.6200,95,92,328006
1.8182,0.1906,38.6500,95,92,328009
1.8280,0.1906,38.5500,95,92,328013
1.7937,0.1857,38.7100,95,92,328016
1.8280,0.2248,38.4300,95,92,328019
1.8182,0.1857,38.6500,95,92,328023
1.8280,0.1906,38.6500,95,92,328027
1.8573,0.2004,38.5200,95,92,328030
1.8377,0.1906,38.6200,95,92,328033
1.8817,0.1955,37.5900,95,92,328037
1.8524,0.1955,38.5200,95,92,328040
1.8377,0.1711,38.6500,95,92,328043
1.8475,0.1857,38.5800,95,92,328047
1.8622,0.1857,38.6500,95,92,328050
1.9013,0.2053,38.4300,95,92,328053
1.8671,0.1857,38.4900,95,92,328057
1.8622,0.1808,38.5800,95,92,328060
1.8866,0.1906,38.8100,95,92,328064
1.8768,0.2297,38.6200,95,92,328067
1.9501,0.2004,38.4600,95,92,328071
1.8768,0.1906,38.5800,95,92,328074
1.8719,0.1857,38.5200,95,92,328077
1.8964,0.1906,38.6200,95,92,328081
1.8964,0.1857,38.6800,95,92,328084
1.9355,0.2004,38.5800,95,92,328087
1.9257,0.1906,38.6200,95,92,328091
1.9306,0.1906,38.4300,95,92,328094
1.8964,0.1711,38.6500,95,92,328097
1.8964,0.1857,38.7400,95,92,328100
1.9453,0.1955,38.5500,95,92,328104
1.9404,0.1906,38.6200,95,92,328108
1.9795,0.1906,38.5200,95,92,328111
1.9550,0.1906,38.5500,95,92,328115
1.9697,0.1857,38.6200,95,92,328118
1.9892,0.1906,38.4900,95,92,328121
1.9599,0.1906,38.5800,95,92,328125
1.9697,0.1955,38.4300,95,92,328128
1.9257,0.1857,38.5500,95,92,328131
1.9013,0.1857,38.8400,95,92,328134
1.8866,0.1955,38.6200,95,92,328138
1.8671,0.1857,38.6500,95,92,328141
1.8915,0.1955,38.3600,95,92,328144
1.8573,0.1857,38.5800,95,92,328148
1.8426,0.1857,38.6500,95,92,328152
1.8231,0.2004,38.6200,95,92,328155
1.7986,0.1857,38.6200,95,92,328159
1.8426,0.2004,38.3300,95,92,328162
1.8035,0.1955,38.5200,95,92,328165
1.7889,0.1760,38.6200,95,92,328169
1.8084,0.1906,38.5500,95,92,328172
1.8280,0.2199,38.6800,95,92,328175
1.8768,0.2004,38.4300,95,92,328178
1.8426,0.1906,38.5200,95,92,328182
1.8280,0.1906,38.5200,95,92,328185
1.8280,0.1711,38.6200,95,92,328188
1.8328,0.1857,38.6500,95,92,328193
1.8573,0.2004,38.5500,95,92,328196
1.8231,0.1955,38.5800,95,92,328199
1.8377,0.1906,38.5500,95,92,328203
1.8182,0.2053,38.6200,95,92,328206
1.8426,0.1857,38.6500,95,92,328209
1.8719,0.1955,38.5500,95,92,328212
1.8671,0.1711,38.6200,95,92,328216
1.9257,0.1906,38.5500,95,92,328219
1.9453,0.1857,38.6800,95,92,328222
2.0235,0.1857,38.6500,95,92,328226
2.1310,0.1906,38.4900,95,92,328229
2.2336,0.1808,38.6500,95,92,328232
2.4682,0.1906,38.4300,95,92,328237
2.6882,0.1857,38.5800,95,92,328240
2.9374,0.1857,38.6200,95,92,328243
3.2405,0.1955,38.5500,95,92,328247
3.3871,0.1857,38.6500,95,92,328250
3.4995,0.1955,38.3600,95,92,328253
3.2796,0.1857,38.5500,95,92,328256
2.9521,0.1857,38.6500,95,92,328260
2.6491,0.1906,38.6200,95,92,328263
2.3069,0.1857,38.6500,95,92,328266
2.1163,0.2004,38.4000,95,92,328270
1.8377,0.1857,38.5200,95,92,328273
1.6422,0.1711,38.5800,95,92,328276
1.5298,0.1906,38.4600,95,92,328281
1.4712,0.1857,38.6200,95,92,328284
1.4663,0.2004,38.5200,95,92,328287
1.3978,0.1906,37.8000,95,92,328290
1.3783,0.1857,38.5200,95,92,328294
1.3734,0.1906,38.6200,95,92,328297
1.3978,0.1857,38.5200,95,92,328300
1.4565,0.1955,38.4600,95,92,328304
1.4809,0.1906,38.5200,95,92,328307
1.5445,0.1906,38.4900,95,92,328310
1.5689,0.1711,38.6500,95,92,328314
1.6080,0.1906,38.6500,95,92,328317
1.6520,0.1955,38.5500,95,92,328321
1.6471,0.2004,38.6200,95,92,328325
1.6813,0.1906,38.4900,95,92,328328
1.6373,0.1857,38.8400,95,92,328331
1.6178,0.1857,38.6200,95,92,328334
1.6422,0.1906,38.5200,95,92,328338
1.6422,0.1857,38.7400,95,92,328341
1.6862,0.1955,38.4300,95,92,328344
1.6813,0.1857,38.7100,95,92,328348
1.7009,0.1955,38.6800,95,92,328351
1.7253,0.1955,38.5800,95,92,328354
1.7302,0.1808,38.6200,95,92,328358
1.7840,0.1955,38.3600,95,92,328361
1.7546,0.1906,38.5800,95,92,328365
1.7400,0.1857,38.7100,95,92,328368
1.7546,0.1955,38.5800,95,92,328372
1.7351,0.1857,38.6800,95,92,328375
1.7937,0.2297,38.3300,95,92,328378
1.7791,0.1906,38.5200,95,92,328382
1.7742,0.1808,38.6800,95,92,328385
1.7742,0.2102,38.5800,95,92,328388
1.7742,0.1906,38.6200,95,92,328392
1.8231,0.2004,38.4600,95,92,328395
1.7937,0.2004,38.5800,95,92,328398
1.8133,0.1857,38.5200,95,92,328402
1.7595,0.1857,38.7400,95,92,328406
1.7546,0.1808,38.6200,95,92,328409
1.7742,0.1955,38.5800,95,92,328412
1.7595,0.1906,38.6200,95,92,328416
1.7937,0.1906,38.4900,95,92,328419
1.7840,0.1906,38.6200,95,92,328422
1.7889,0.1857,38.6200,95,92,328426
1.8133,0.2053,38.5500,95,92,328429
1.7840,0.1906,38.7100,95,92,328432
1.8133,0.1857,38.4900,95,92,328436
1.7791,0.1857,38.5500,95,92,328439
1.7937,0.1857,38.6500,95,92,328442
1.8133,0.1955,38.4900,95,92,328446
1.7889,0.1955,38.6200,95,92,328450
1.8182,0.1906,38.3300,95,92,328453
1.8133,0.1906,38.5800,95,92,328456
1.7986,0.1857,38.6500,95,92,328460
1.8280,0.1906,38.5500,95,92,328463
1.8231,0.1857,38.6800,95,92,328466
1.8719,0.1906,38.3600,95,92,328470
1.8280,0.1857,38.5500,95,92,328473
1.8231,0.1857,38.6500,95,92,328476
1.8182,0.1906,38.6200,95,92,328480
1.8182,0.1857,38.6500,95,92,328483
1.8671,0.2053,38.4000,95,92,328486
1.8231,0.1955,38.7100,95,92,328489
1.8231,0.1857,38.5500,95,92,328494
1.8231,0.1955,38.6200,95,92,328497
1.8182,0.1711,38.6200,95,92,328500
1.8622,0.1955,38.4900,95,92,328504
1.8475,0.1955,38.5800,95,92,328507
1.8719,0.1906,38.5200,95,92,328510
1.8671,0.1906,38.7400,95,92,328514
1.8866,0.2102,38.6200,95,92,328517
1.9208,0.1955,38.5200,95,92,328520
1.9062,0.1906,38.5800,95,92,328524
1.9355,0.1955,38.4900,95,92,328527
1.9013,0.1857,38.6200,95,92,328530
1.8964,0.1857,38.6500,95,92,328534
1.9013,0.1808,38.5200,95,92,328538
1.8817,0.1906,38.6200,95,92,328541
1.9110,0.1857,38.4600,95,92,328544
1.8817,0.1857,38.6500,95,92,328548
1.8866,0.1857,38.6500,95,92,328551
1.8964,0.1955,38.5500,95,92,328554
1.8622,0.1857,38.7700,95,92,328558
1.8817,0.1955,38.3600,95,92,328561
1.8475,0.1906,38.5500,95,92,328564
1.8280,0.1857,38.6500,95,92,328568
1.8573,0.1906,38.5800,95,92,328571
1.8280,0.1857,38.6200,95,92,328574
1.8768,0.1955,38.3300,95,92,328578
1.8328,0.1955,38.4900,95,92,328582
1.8035,0.1906,38.6200,95,92,328585
1.8084,0.1857,38.4900,95,92,328589
1.7937,0.1808,38.6800,95,92,328592
1.7889,0.1857,38.7400,95,92,328595
1.8084,0.2102,38.5500,95,92,328599
1.7889,0.2004,38.6800,95,92,328602
1.8084,0.1955,38.4600,95,92,328605
1.7840,0.1906,38.8400,95,92,328609
1.7742,0.1955,38.6500,95,92,328612
1.8182,0.1955,38.4900,95,92,328615
1.7644,0.1906,38.6200,95,92,328619
1.7937,0.2004,38.4900,95,92,328623
1.7595,0.1857,38.5800,95,92,328626
1.7449,0.1857,38.6500,95,92,328629
1.7791,0.1955,38.4900,95,92,328633
1.7498,0.1857,38.6200,95,92,328636
1.7889,0.1906,38.4600,95,92,328639
1.7986,0.1955,38.5800,95,92,328643
1.7791,0.1857,38.6200,95,92,328646
1.7986,0.2199,38.5800,95,92,328649
1.7986,0.1906,38.6500,95,92,328653
1.8377,0.1955,38.3600,95,92,328656
1.7986,0.1857,38.5500,95,92,328659
1.8035,0.1857,38.6500,95,92,328663
1.8035,0.1955,38.6500,95,92,328667
1.7889,0.1857,38.6800,95,92,328670
1.8377,0.2102,38.3600,95,92,328673
1.8084,0.1906,38.2100,95,92,328677
1.7986,0.1857,38.5800,95,92,328680
1.8133,0.1906,38.6200,95,92,328683
1.8182,0.1857,38.7100,95,92,328687
1.8817,0.2004,38.5200,95,92,328690
1.8622,0.1906,38.5800,95,92,328693
1.8768,0.1857,38.5200,95,92,328696
1.8622,0.1857,38.6200,95,92,328700
1.8671,0.1906,38.6500,95,92,328704
1.9013,0.1955,38.4600,95,92,328707
1.8866,0.1857,38.6200,95,92,328711
1.9208,0.1906,38.4900,95,92,328714
1.9013,0.1906,38.6500,95,92,328717
1.9404,0.1711,38.6500,95,92,328721
1.9159,0.1906,38.6200,95,92,328724
1.9159,0.2199,38.5800,95,92,328727
1.9550,0.1857,38.4900,95,92,328731
1.9404,0.1906,38.5800,95,92,328734
1.9550,0.1857,38.6200,95,92,328737
1.9697,0.1955,38.5200,95,92,328740
1.9355,0.1857,38.6200,95,92,328744
1.9746,0.1906,38.4000,95,92,328748
1.8964,0.1906,38.5500,95,92,328751
1.8524,0.1857,38.6500,95,92,328755
1.8524,0.1906,38.5500,95,92,328758
1.8133,0.1857,38.6800,95,92,328761
1.8475,0.2004,38.3600,95,92,328765
1.7986,0.1906,38.5200,95,92,328768
1.7889,0.1857,38.7100,95,92,328771
1.7889,0.1906,38.6200,95,92,328774
1.8035,0.1808,38.6500,95,92,328778
1.8084,0.2053,38.3600,95,92,328781
1.7546,0.1906,38.5500,95,92,328784
1.7400,0.1857,38.5800,95,92,328788
1.7351,0.1906,38.6200,95,92,328792
1.7400,0.1808,38.6800,95,92,328795
1.7791,0.2004,38.4900,95,92,328799
1.7595,0.1906,38.5800,95,92,328802
1.7644,0.1857,38.5200,95,92,328805
1.7546,0.1906,38.6200,95,92,328809
1.7546,0.1857,38.6200,95,92,328812
1.7840,0.1955,38.4300,95,92,328815
1.7595,0.1906,38.6200,95,92,328818
1.7693,0.1955,38.4900,95,92,328822
1.7449,0.1857,38.6500,95,92,328825
1.7498,0.1857,38.6200,95,92,328828
1.7889,0.1906,38.6200,95,92,328833
1.7986,0.1906,38.6500,95,92,328836
1.8671,0.2004,38.4600,95,92,328839
1.8866,0.1857,38.6200,95,92,328843
1.9599,0.1906,38.6500,95,92,328846
2.0723,0.1955,38.5200,95,92,328849
2.1994,0.1857,38.6200,95,92,328852
2.4291,0.1906,38.4000,95,92,328856
2.6149,0.1808,38.6500,95,92,328859
2.8788,0.1808,38.6200,95,92,328862
3.1525,0.1955,38.5800,95,92,328866
3.2991,0.1906,38.6200,95,92,328869
3.4115,0.1906,38.3600,95,92,328872
3.2063,0.1906,38.5200,95,92,328877
2.8788,0.1906,38.6500,95,92,328880
2.5562,0.1906,38.6800,95,92,328883
2.2336,0.1857,38.7700,95,92,328886
2.0283,0.2199,38.4000,95,92,328890
1.7791,0.1906,38.5200,95,92,328893
1.6080,0.1857,38.5800,95,92,328896
1.4907,0.1906,38.6200,95,92,328900
1.4076,0.1857,38.6200,95,92,328903
1.3978,0.1906,38.4900,95,92,328906
1.3539,0.1906,38.5200,95,92,328910
1.3490,0.1857,38.5200,95,92,328913
1.3441,0.1906,38.6200,95,92,328916
1.3734,0.1955,38.6200,95,92,328921
1.4321,0.1955,38.5500,95,92,328924
1.4418,0.1906,38.6500,95,92,328927
1.4809,0.1955,38.5500,95,92,328930
1.4858,0.1906,38.6500,95,92,328934
1.5005,0.1857,38.6200,95,92,328937
1.5445,0.2004,38.5500,95,92,328940
1.5347,0.1906,38.6500,95,92,328944
1.5738,0.1906,38.5200,95,92,328947
1.5543,0.1955,38.5500,95,92,328950
1.5640,0.1857,38.6500,95,92,328954
1.5982,0.1955,38.5200,95,92,328957
1.5934,0.1857,38.6500,95,92,328961
1.6276,0.1906,38.4300,95,92,328964
1.6276,0.2151,38.5500,95,92,328968
1.6471,0.1808,38.6200,95,92,328971
1.6716,0.1955,38.5200,95,92,328974
1.6618,0.1808,38.6500,95,92,328978
1.7204,0.1955,38.4000,95,92,328981
1.6764,0.1857,38.5500,95,92,328984
1.6862,0.1857,38.6500,95,92,328988
1.6960,0.1955,38.6200,95,92,328991
1.6911,0.1857,38.5800,95,92,328994
1.7400,0.2102,38.3600,95,92,328998
1.7058,0.1955,38.5800,95,92,329001
1.6960,0.1808,38.6200,95,92,329005
1.7155,0.1808,38.6200,95,92,329008
1.7204,0.1808,38.6200,95,92,329012
1.7742,0.1906,38.4300,95,92,329015
1.7449,0.1906,38.5500,95,92,329018
1.7693,0.1906,38.5200,95,92,329022
1.7351,0.1906,38.6200,95,92,329025
1.7498,0.1857,38.4900,95,92,329028
1.7840,0.1955,38.4900,95,92,329032
1.7693,0.1906,38.6200,95,92,329035
1.7791,0.1906,38.5200,95,92,329038
1.7498,0.1857,38.6500,95,92,329041
1.7498,0.1857,38.7400,95,92,329046
1.7644,0.2151,38.5500,95,92,329049
1.7546,0.1906,38.6500,95,92,329052
1.7937,0.1906,38.5500,95,92,329056
1.7644,0.1955,38.6200,95,92,329059
1.7889,0.1857,38.6500,95,92,329062
1.7937,0.1955,38.5200,95,92,329066
1.7889,0.1906,38.6800,95,92,329069
1.8182,0.1906,38.4000,95,92,329072
1.8035,0.1906,38.5200,95,92,329075
1.8035,0.1857,38.6500,95,92,329079
1.8622,0.2004,38.5200,95,92,329082
1.8133,0.1906,38.6500,95,92,329085
1.8719,0.1955,38.3300,95,92,329090
1.8426,0.1857,38.5500,95,92,329093
1.8328,0.1857,38.7100,95,92,329096
1.8426,0.1955,38.6200,95,92,329100
1.8377,0.1857,38.6500,95,92,329103
1.8964,0.2102,38.3300,95,92,329106
1.8671,0.1955,38.5500,95,92,329110
1.8622,0.1857,38.0500,95,92,329113
1.8671,0.1955,38.5800,95,92,329116
1.8768,0.1906,38.5800,95,92,329119
1.9306,0.2053,38.4600,95,92,329123
1.9110,0.1955,38.6200,95,92,329126
1.9404,0.1711,38.5200,95,92,329129
1.9355,0.1906,38.6200,95,92,329134
1.9599,0.1906,38.6500,95,92,329137
1.9892,0.2004,38.4600,95,92,329140
1.9648,0.1955,38.6200,95,92,329144
1.9941,0.1955,38.4900,95,92,329147
1.9746,0.1906,38.7400,95,92,329150
1.9844,0.1906,38.6500,95,92,329153
2.0186,0.1906,38.5200,95,92,329157
1.9990,0.1906,38.6200,95,92,329160
2.0283,0.1857,37.7400,95,92,329163
1.9941,0.1857,38.5800,95,92,329167
1.9990,0.1955,38.6200,95,92,329170
2.0137,0.1906,38.5800,95,92,329174
1.9941,0.1906,38.6200,95,92,329178
2.0283,0.1955,38.4300,95,92,329181
1.9746,0.1906,38.7100,95,92,329184
1.9746,0.2004,38.6200,95,92,329188
1.9844,0.1955,38.5500,95,92,329191
1.9453,0.1906,38.6200,95,92,329195
1.9355,0.1857,38.6800,95,92,329198
1.9844,0.2053,38.4000,95,92,329201
1.9501,0.1955,38.5800,95,92,329204
1.9404,0.1857,38.5500,95,92,329208
1.9306,0.1955,38.6200,95,92,329211
1.9355,0.1857,38.6500,95,92,329214
1.9599,0.2004,38.4900,95,92,329219
1.9306,0.1906,38.5800,95,92,329222
1.9453,0.1857,38.4900,95,92,329225
1.9208,0.1906,37.8700,95,92,329229
1.9159,0.1808,38.6500,95,92,329232
1.9355,0.1955,38.5500,95,92,329235
1.9159,0.1906,38.6800,95,92,329238
1.9404,0.1955,38.5200,95,92,329242
1.9159,0.1906,38.6500,95,92,329245
1.9159,0.1857,38.6500,95,92,329248
1.9453,0.1955,38.5200,95,92,329252
1.9208,0.1906,38.6200,95,92,329255
1.9501,0.1906,38.4900,95,92,329259
1.9306,0.2102,38.5500,95,92,329263
1.9306,0.1906,38.6500,95,92,329266
1.9501,0.2004,38.4900,95,92,329269
1.9355,0.1906,38.6500,95,92,329272
1.9844,0.1906,38.4000,95,92,329276
1.9550,0.1857,38.4900,95,92,329279
1.9501,0.1906,38.6800,95,92,329282
1.9599,0.1906,38.5800,95,92,329286
1.9550,0.1906,38.7700,95,92,329289
2.0137,0.2004,38.3600,95,92,329292
1.9746,0.1857,38.5500,95,92,329296
1.9746,0.1808,38.5800,95,92,329299
1.9844,0.1955,38.6200,95,92,329303
1.9844,0.1857,38.6500,95,92,329307
2.0430,0.2102,38.4600,95,92,329310
2.0137,0.2053,38.5500,95,92,329313
2.0137,0.1711,38.5200,95,92,329316
2.0088,0.1906,38.6200,95,92,329320
2.0088,0.2004,38.6200,95,92,329323
2.0528,0.2004,38.4600,95,92,329326
2.0186,0.1906,38.6500,95,92,329330
2.0430,0.1906,38.5200,95,92,329333
2.0332,0.1906,38.6800,95,92,329336
2.0479,0.1857,38.6200,95,92,329339
2.0821,0.1955,38.5200,95,92,329344
2.0723,0.1906,38.6200,95,92,329347
2.1065,0.1906,38.4900,95,92,329350
2.0870,0.1857,38.5800,95,92,329354
2.0968,0.1857,38.6200,95,92,329357
2.1114,0.1955,38.5500,95,92,329360
2.0968,0.1906,38.8400,95,92,329364
2.1065,0.1955,38.5200,95,92,329367
2.0577,0.1857,38.6500,95,92,329370
2.0381,0.1857,38.6800,95,92,329373
2.0381,0.1955,38.4600,95,92,329377
1.9941,0.1857,38.6200,95,92,329380
2.0137,0.1906,38.4000,95,92,329383
1.9795,0.2199,38.5200,95,92,329388
1.9550,0.1808,38.6500,95,92,329391
1.9697,0.1955,38.5800,95,92,329394
1.9453,0.2199,38.6500,95,92,329398
1.9844,0.1906,38.3600,95,92,329401
1.9208,0.1906,38.5800,95,92,329404
1.9013,0.1857,38.6500,95,92,329408
1.8964,0.1955,38.5800,95,92,329411
1.8817,0.1857,38.6200,95,92,329414
1.9697,0.2004,38.4300,95,92,329417
1.8964,0.1906,38.4900,95,92,329421
1.8964,0.1808,38.5800,95,92,329424
1.9062,0.1857,38.6200,95,92,329427
1.8964,0.1857,38.7100,95,92,329432
1.9355,0.2102,38.4900,95,92,329435
1.9110,0.1906,38.6200,95,92,329438
1.9159,0.1857,38.5500,95,92,329442
1.9306,0.1906,38.6500,95,92,329445
1.9208,0.1857,38.6500,95,92,329448
1.9599,0.1955,38.4900,95,92,329451
1.9746,0.1808,38.6200,95,92,329455
1.9990,0.1906,38.4900,95,92,329458
1.9941,0.1857,38.7100,95,92,329461
2.0283,0.1857,38.6500,95,92,329465
2.1114,0.1906,38.5200,95,92,329468
2.1701,0.1906,38.6500,95,92,329472
2.3216,0.1857,38.4600,95,92,329476
2.4487,0.1906,38.5800,95,92,329479
2.6540,0.1857,38.6500,95,92,329482
2.9081,0.1906,38.5200,95,92,329485
3.1281,0.1857,38.7700,95,92,329489
3.3822,0.1955,38.4000,95,92,329492
3.4115,0.1857,38.6200,95,92,329495
3.3333,0.1857,38.7100,95,92,329499
3.1476,0.1955,38.5800,95,92,329502
2.7810,0.1857,38.7400,95,92,329505
2.5415,0.2248,38.3600,95,92,329509
2.2385,0.1857,38.5500,95,92,329512
2.0088,0.1857,38.6500,95,92,329516
1.8426,0.1955,38.5800,95,92,329520
1.7009,0.1857,38.6800,95,92,329523
1.6471,0.2053,38.3600,95,92,329526
1.5543,0.1808,38.5200,95,92,329529
1.5103,0.1808,38.5800,95,92,329533
1.4956,0.1906,38.7700,95,92,329536
1.4907,0.1906,38.6200,95,92,329539
1.5640,0.1955,38.4900,95,92,329543
1.5445,0.1906,38.7100,95,92,329546
1.5640,0.2004,38.5500,95,92,329549
1.5836,0.1808,38.6200,95,92,329553
1.5885,0.1857,38.6200,95,92,329556
1.6276,0.2053,38.5500,95,92,329560
1.6227,0.1857,38.6200,95,92,329563
1.6618,0.1906,38.5500,95,92,329567
1.6520,0.1906,38.6800,95,92,329570
1.6667,0.1857,38.6200,95,92,329573
1.7058,0.1906,38.5500,95,92,329577
1.6862,0.1857,38.6200,95,92,329580
1.7155,0.1857,38.4600,95,92,329583
1.7009,0.1711,38.5800,95,92,329587
1.7107,0.1857,38.6200,95,92,329590
1.7546,0.2004,38.4600,95,92,329593
1.7302,0.1711,38.6200,95,92,329597
1.7791,0.1906,38.4600,95,92,329601
1.7644,0.1808,38.5800,95,92,329604
1.7791,0.1857,38.6200,95,92,329607
1.7937,0.1906,38.6500,95,92,329611
1.7889,0.1857,38.7400,95,92,329614
1.8377,0.1955,38.3600,95,92,329617
1.7986,0.1857,38.6500,95,92,329621
1.8035,0.1857,38.6500,95,92,329624
1.8182,0.1808,38.6200,95,92,329627
1.8133,0.1857,38.3000,95,92,329631
1.8768,0.2297,38.4000,95,92,329634
1.8524,0.1906,38.5500,95,92,329637
1.8231,0.1808,38.5800,95,92,329640
1.8280,0.1906,38.6200,95,92,329645
1.8231,0.1808,38.6200,95,92,329648
1.8719,0.1955,38.4900,95,92,329651
1.8475,0.1955,38.5800,95,92,329655
1.8573,0.1857,38.5200,95,92,329658
1.8475,0.1857,38.4900,95,92,329661
1.8524,0.2004,38.6200,95,92,329665
1.8866,0.1906,38.4900,95,92,329668
1.8719,0.1857,38.6500,95,92,329671
1.8964,0.1857,38.4300,95,92,329674
1.8719,0.1906,38.6200,95,92,329678
1.8768,0.1857,38.5200,95,92,329681
1.8915,0.1857,38.5500,95,92,329684
1.8915,0.1857,38.6200,95,92,329689
1.9208,0.1857,38.4900,95,92,329692
1.9062,0.1906,38.6800,95,92,329695
1.9110,0.1808,38.6500,95,92,329699
1.9257,0.1906,38.5500,95,92,329702
1.9306,0.1906,38.6200,95,92,329705
1.9404,0.1906,38.4300,95,92,329709
1.9257,0.1857,38.7100,95,92,329712
1.9159,0.1955,38.6800,95,92,329715
1.9355,0.1906,38.7700,95,92,329718
1.9159,0.2297,38.6500,95,92,329722
1.9599,0.1955,38.4000,95,92,329725
1.9257,0.1857,38.4600,95,92,329729
1.9208,0.1857,38.6500,95,92,329733
1.9306,0.1906,38.6200,95,92,329736
1.9208,0.1857,38.6500,95,92,329739
1.9746,0.2053,38.4000,95,92,329743
1.9257,0.1906,38.5500,95,92,329746
1.9355,0.1808,38.5200,95,92,329749
1.9453,0.1955,38.6800,95,92,329753
1.9550,0.1857,38.8400,95,92,329756
2.0088,0.2053,38.5200,95,92,329759
1.9892,0.1906,38.5800,95,92,329762
2.0039,0.1711,38.5200,95,92,329766
1.9795,0.1906,38.6800,95,92,329769
1.9844,0.2102,38.6200,95,92,329773
2.0235,0.1955,38.4600,95,92,329777
1.9892,0.1857,37.8700,95,92,329780
2.0088,0.2053,38.5500,95,92,329783
1.9844,0.1906,38.6500,95,92,329787
1.9844,0.1857,38.6500,95,92,329790
1.9941,0.2004,38.5200,95,92,329793
1.9648,0.1857,38.6200,95,92,329796
1.9990,0.1857,38.5200,95,92,329800
1.9648,0.1857,38.4000,94,92,329803
1.9501,0.1808,38.6500,94,92,329807
1.9501,0.1857,38.6500,94,92,329810
1.9648,0.1955,38.5800,94,92,329814
1.9404,0.2053,38.6200,94,92,329818
1.9892,0.1955,38.3600,94,92,329821
1.9648,0.1906,38.5200,94,92,329824
1.9453,0.1808,38.6200,94,92,329827
1.9550,0.1906,38.6200,94,92,329831
1.9306,0.1857,38.6500,94,92,329834
1.9941,0.2053,38.4000,94,92,329837
1.9404,0.1906,38.5500,94,92,329841
1.9208,0.1857,38.5500,94,92,329844
1.9062,0.1857,38.6500,94,92,329847
1.9062,0.1857,38.6200,94,92,329851
1.9306,0.1955,38.6800,94,92,329854
1.9062,0.2004,38.6500,94,92,329858
1.9159,0.1857,38.4900,94,92,329862
1.8964,0.1857,38.6200,94,92,329865
1.8964,0.1808,38.6200,94,92,329868
1.9110,0.1906,38.5800,94,92,329871
1.8915,0.1906,38.5800,94,92,329875
1.9110,0.2248,38.4900,94,92,329878
1.8866,0.1808,38.6200,94,92,329881
1.8964,0.1857,38.6800,94,92,329885
1.9257,0.1808,38.5500,94,92,329888
1.9013,0.1857,38.5800,94,92,329891
1.9257,0.1906,38.4900,94,92,329895
1.8964,0.1808,38.5500,94,92,329899
1.8915,0.1857,38.7100,94,92,329902
1.9306,0.1906,38.5200,94,92,329906
1.9013,0.1857,38.6200,94,92,329909
1.9404,0.1906,38.4300,94,92,329912
1.9159,0.1711,38.5800,94,92,329915
1.9110,0.1857,38.7400,94,92,329919
1.9355,0.1857,38.6800,94,92,329922
1.9355,0.1857,38.6500,94,92,329925
1.9892,0.1955,38.3300,94,92,329929
1.9795,0.1857,38.5500,94,92,329932
1.9550,0.1515,38.7400,94,92,329935
1.9746,0.1906,38.5800,94,92,329939
1.9697,0.1857,38.6500,94,92,329943
2.0283,0.2004,38.5200,94,92,329946
1.9990,0.1906,38.5800,94,92,329949
1.9892,0.1906,38.5500,94,92,329953
1.9892,0.1857,38.6800,94,92,329956
1.9990,0.1857,38.7100,94,92,329959
