ecg,gsr,temp,hr,spo2,timest
1.5787,0.2590,38.5800,93,94,323494
1.6031,0.2835,38.4300,93,94,323497
1.5640,0.2639,38.5500,93,94,323501
1.5836,0.2590,38.5500,93,94,323504
1.6031,0.2639,38.6200,93,94,323508
1.6080,0.2590,38.8400,93,94,323511
1.6325,0.2737,38.4600,93,94,323514
1.6031,0.2639,38.5200,93,94,323518
1.6325,0.2933,38.4900,93,94,323521
1.6471,0.2639,38.6200,93,94,323524
1.6618,0.2590,38.6500,93,94,323528
1.6813,0.2737,38.5500,93,94,323531
1.6667,0.2639,38.2700,93,94,323534
1.6960,0.2933,38.5500,93,94,323538
1.6667,0.2590,38.6200,93,94,323542
1.6618,0.2590,38.6500,93,94,323545
1.7009,0.2590,38.5500,93,94,323548
1.6667,0.2639,38.6200,93,94,323552
1.6764,0.2639,38.4600,93,94,323555
1.6569,0.2590,38.6500,93,94,323558
1.6667,0.2590,38.6500,93,94,323562
1.6862,0.2688,38.4600,93,94,323565
1.6813,0.2590,38.6800,93,94,323568
1.7204,0.2688,38.4000,93,94,323572
1.6911,0.2786,38.5500,93,94,323575
1.6716,0.2590,38.6200,93,94,323578
1.6862,0.2737,38.5800,93,94,323581
1.7009,0.2590,38.6800,93,94,323586
1.7449,0.2737,38.3300,93,94,323589
1.7107,0.2688,38.4600,93,94,323592
1.7009,0.2639,38.5800,93,94,323596
1.7058,0.2639,38.6500,93,94,323599
1.7009,0.2590,38.6200,93,94,323602
1.7498,0.2786,38.4600,93,94,323606
1.7155,0.2639,38.5800,93,94,323609
1.7107,0.2590,38.5500,93,94,323612
1.7009,0.2688,38.6200,93,94,323615
1.7009,0.2590,38.6500,93,94,323619
1.7400,0.2688,38.5200,93,94,323622
1.7302,0.2639,38.5800,93,94,323625
1.7840,0.2590,38.4900,93,94,323630
1.7742,0.2639,38.5800,93,94,323633
1.7840,0.2542,38.6200,93,94,323636
1.8182,0.2737,38.4900,93,94,323640
1.7840,0.2786,38.5800,93,94,323643
1.8328,0.2737,38.5500,93,94,323646
1.8084,0.2542,38.5800,93,94,323650
1.8231,0.2590,38.6200,93,94,323653
1.8377,0.2688,38.5200,93,94,323656
1.8084,0.2590,38.6200,93,94,323659
1.8280,0.2639,38.4300,93,94,323663
1.8084,0.2590,38.5800,93,94,323666
1.8133,0.2590,38.6800,93,94,323670
1.8182,0.2884,38.5200,93,94,323674
1.7937,0.2542,38.6200,93,94,323677
1.8328,0.2688,38.3600,93,94,323680
1.7986,0.2590,38.5800,93,94,323684
1.7986,0.2590,38.6500,93,94,323687
1.7889,0.2688,38.6200,93,94,323690
1.7546,0.2590,38.6500,93,94,323694
1.7889,0.2786,38.3600,93,94,323697
1.7644,0.2688,38.5500,93,94,323700
1.7302,0.2542,38.5800,93,94,323703
1.7498,0.2639,38.6800,93,94,323707
1.7204,0.2590,38.6200,93,94,323710
1.7546,0.2737,38.4000,92,94,323714
1.6862,0.2737,38.5500,92,94,323719
1.6569,0.2590,38.6200,92,94,323722
1.6764,0.2688,38.5500,92,94,323726
1.6471,0.2590,38.6200,92,94,323729
1.6520,0.2493,38.6500,92,94,323732
1.6471,0.2639,38.5200,92,94,323736
1.6276,0.2590,38.6200,92,94,323739
1.6031,0.2639,38.4600,92,94,323742
1.5640,0.2688,38.6500,92,94,323746
1.5591,0.2590,38.6200,92,94,323749
1.5885,0.2737,38.5500,92,94,323752
1.5689,0.2493,38.6500,92,94,323756
1.5982,0.2688,38.4000,92,94,323760
1.5640,0.2639,38.4900,92,94,323763
1.5249,0.2688,38.6200,92,94,323766
1.5152,0.2688,38.6500,92,94,323770
1.4956,0.2688,38.5800,92,94,323773
1.5396,0.2737,38.3300,92,94,323776
1.5200,0.2639,38.4900,92,94,323780
1.5249,0.2444,38.6800,92,94,323783
1.5494,0.2639,38.6200,92,94,323786
1.5640,0.2590,38.6500,92,94,323789
1.6276,0.2737,38.4900,92,94,323793
1.6129,0.2639,38.5800,92,94,323796
1.6276,0.2590,38.4900,92,94,323800
1.6178,0.2639,38.6200,92,94,323804
1.6178,0.2590,38.6500,92,94,323807
1.6520,0.2737,38.5500,92,94,323810
1.6178,0.2639,38.6500,92,94,323814
1.6373,0.2639,38.4900,92,94,323817
1.6276,0.2639,38.6500,92,94,323820
1.6471,0.2590,38.6200,92,94,323824
1.7009,0.2737,38.4900,92,94,323827
1.7009,0.2639,38.6800,92,94,323830
1.7400,0.2639,38.4300,92,94,323833
1.7107,0.2493,38.5800,92,94,323837
1.7009,0.2590,38.6200,92,94,323841
1.6960,0.2639,38.5200,92,94,323844
1.6716,0.2639,38.6200,92,94,323848
1.7058,0.2639,38.4300,92,94,323851
1.6960,0.2590,38.6800,92,94,323854
1.7107,0.2590,38.5800,92,94,323858
1.7644,0.2493,38.5500,92,94,323861
1.7253,0.2590,38.6200,92,94,323864
1.7595,0.2981,38.3600,92,94,323867
1.7204,0.2590,38.5800,92,94,323871
1.7253,0.2590,38.6500,92,94,323874
1.7400,0.2590,38.5800,92,94,323877
1.7351,0.2590,38.6800,92,94,323881
1.8035,0.2786,38.4000,92,94,323885
1.8231,0.2590,38.4900,92,94,323888
1.8084,0.2542,38.6500,92,94,323892
1.8377,0.2639,38.6200,92,94,323895
1.8573,0.2590,38.6200,92,94,323898
1.9208,0.2737,38.4300,92,94,323902
1.9110,0.2688,38.5500,92,94,323905
1.8475,0.2590,38.5200,92,94,323908
1.8035,0.2639,38.6200,92,94,323911
1.7693,0.2639,38.6200,92,94,323915
1.7644,0.2688,38.5500,92,94,323918
1.7107,0.2590,38.6200,92,94,323921
1.7107,0.2639,38.4900,92,94,323926
1.6813,0.2639,38.6500,92,94,323929
1.6716,0.2493,38.6500,92,94,323932
1.6764,0.2639,38.5500,92,94,323936
1.6520,0.2590,38.6200,92,94,323939
1.6764,0.2639,38.4900,92,94,323942
1.6373,0.2688,38.6500,92,94,323946
1.6422,0.2493,38.6500,92,94,323949
1.6716,0.2688,38.5500,92,94,323952
1.6667,0.2590,38.6200,92,94,323955
1.7009,0.2688,38.4600,92,94,323959
1.6862,0.2639,38.4900,92,94,323962
1.6862,0.2639,38.6500,92,94,323965
1.7107,0.2688,37.7700,92,94,323970
1.7058,0.2688,38.6200,92,94,323973
1.7644,0.2688,38.3600,92,94,323976
1.7302,0.2639,38.5200,92,94,323980
1.7253,0.2542,38.6200,92,94,323983
1.7204,0.2639,38.5800,92,94,323986
1.7107,0.2688,38.5800,92,94,323989
1.7742,0.2688,38.4000,92,94,323993
1.7595,0.2688,38.5500,92,94,323996
1.8133,0.2542,38.5800,92,94,323999
1.8915,0.2639,38.6800,92,94,324003
1.9941,0.2590,38.6200,92,94,324006
2.1848,0.2737,38.5500,92,94,324009
2.3167,0.2639,38.5800,92,94,324014
2.5220,0.2493,38.5200,92,94,324017
2.7175,0.2639,38.8400,92,94,324020
2.9374,0.2639,38.6800,92,94,324024
3.1574,0.2688,38.4900,92,94,324027
3.1378,0.2639,38.6800,92,94,324030
3.0401,0.2688,38.5500,92,94,324034
2.7370,0.2590,38.5500,92,94,324037
2.4487,0.2542,38.6500,92,94,324040
2.2092,0.2639,38.4900,92,94,324043
1.9599,0.2590,38.6200,92,94,324047
1.7937,0.2542,38.4600,92,94,324050
1.6129,0.2590,38.5800,92,94,324054
1.5005,0.2835,38.6800,92,94,324058
1.4321,0.2737,38.6500,92,94,324061
1.3636,0.2639,38.6500,92,94,324064
1.3539,0.2737,38.4300,92,94,324068
1.3148,0.2590,38.6800,92,94,324071
1.3392,0.2981,38.6500,92,94,324074
1.3881,0.2737,38.5800,92,94,324077
1.4125,0.2688,38.6800,92,94,324081
1.4516,0.2688,38.3300,92,94,324084
1.4321,0.2639,38.5200,92,94,324087
1.4174,0.2542,38.5800,92,94,324091
1.4272,0.2639,38.6800,92,94,324094
1.4418,0.2542,38.6500,92,94,324098
1.5103,0.2786,38.4300,92,94,324102
1.5054,0.2688,38.5800,92,94,324105
1.5054,0.2639,38.5500,92,94,324108
1.5005,0.2688,38.7400,92,94,324112
1.5103,0.2590,38.6200,92,94,324115
1.5543,0.2737,38.4900,92,94,324118
1.5494,0.2639,38.6200,92,94,324121
1.5836,0.2639,38.4900,92,94,324125
1.6080,0.2493,38.6200,92,94,324128
1.6031,0.2590,38.6500,92,94,324131
1.6276,0.2688,38.5500,92,94,324135
1.6178,0.2639,38.6200,92,94,324139
1.6227,0.2688,38.5200,92,94,324142
1.6227,0.2590,38.6200,92,94,324146
1.6080,0.2590,38.5800,92,94,324149
1.6569,0.2688,38.4300,92,94,324152
1.6618,0.2639,38.6800,92,94,324156
1.6764,0.2639,38.4600,92,94,324159
1.6373,0.2639,38.5200,92,94,324162
1.6080,0.2639,38.6800,92,94,324165
1.6080,0.2688,38.5200,92,94,324169
1.5982,0.2590,38.7700,92,94,324172
1.6520,0.2639,38.4300,92,94,324175
1.6422,0.2639,38.5800,92,94,324179
1.6471,0.2590,38.6500,92,94,324183
1.6862,0.2639,38.6800,92,94,324186
1.6471,0.2590,38.6500,92,94,324190
1.6911,0.2737,38.3300,92,94,324193
1.6667,0.2639,38.5500,92,94,324196
1.6911,0.2542,38.6200,92,94,324199
1.7204,0.2786,38.6200,92,94,324203
1.7351,0.2590,38.6500,92,94,324206
1.7889,0.2786,38.4300,92,94,324209
1.7400,0.2639,38.5800,92,94,324213
1.7302,0.2590,38.5800,92,94,324216
1.7351,0.2639,38.6800,92,94,324219
1.7302,0.2590,38.6500,92,94,324224
1.7742,0.2688,38.4600,92,94,324227
1.7742,0.2639,38.6200,92,94,324230
1.8133,0.2639,38.4900,92,94,324234
1.7986,0.2688,38.5800,92,94,324237
1.7742,0.2590,38.6500,92,94,324240
1.7498,0.2639,38.5200,92,94,324243
1.6960,0.2493,38.6200,92,94,324247
1.7009,0.2639,38.5800,92,94,324250
1.6618,0.2590,38.6200,92,94,324253
1.6911,0.2590,38.6200,92,94,324257
1.6862,0.2639,38.5200,92,94,324260
1.6911,0.2542,38.6200,92,94,324263
1.7351,0.2639,38.4300,92,94,324268
1.7351,0.2542,38.6500,92,94,324271
1.7498,0.2590,38.6500,92,94,324274
1.7693,0.2688,38.5800,92,94,324278
1.7595,0.2639,38.6500,92,94,324281
1.8084,0.2688,38.3600,92,94,324284
1.7889,0.2737,38.4300,92,94,324287
1.7889,0.2590,38.6500,92,94,324291
1.8182,0.2835,38.6200,92,94,324294
1.8475,0.2639,38.6200,92,94,324297
1.9257,0.2835,37.9600,92,94,324301
1.9062,0.2590,38.5200,92,94,324304
1.8866,0.2590,38.5500,92,94,324307
1.8768,0.2639,38.6200,92,94,324312
1.8622,0.2639,38.6500,92,94,324315
1.9110,0.2737,38.4900,92,94,324318
1.8817,0.2688,38.6200,92,94,324322
1.9062,0.2639,38.5200,92,94,324325
1.8671,0.2639,38.6200,92,94,324328
1.8768,0.2639,38.6200,92,94,324333
1.9062,0.2639,38.6500,92,94,324336
1.8866,0.2688,38.4900,92,94,324339
1.8524,0.2639,38.6200,92,94,324343
1.8915,0.2639,38.4300,92,94,324346
1.8719,0.2639,38.4600,92,94,324349
1.8622,0.2639,38.6500,92,94,324354
1.8915,0.2688,38.5500,92,94,324357
1.8768,0.2542,38.6200,92,94,324360
1.9208,0.2688,38.3600,92,94,324364
1.8866,0.2639,38.5500,92,94,324367
1.8964,0.2590,38.6500,92,94,324370
1.9013,0.2639,38.5800,92,94,324374
1.8817,0.2639,38.6800,92,94,324377
1.9208,0.2786,38.4000,92,94,324380
1.8768,0.2688,38.5800,92,94,324384
1.8768,0.2590,38.5800,92,94,324387
1.8671,0.2639,38.5200,92,94,324390
1.8524,0.2590,38.6200,92,94,324393
1.8817,0.2786,38.5200,92,94,324398
1.8475,0.2884,38.5800,92,94,324401
1.8524,0.2493,38.4900,92,94,324404
1.8328,0.2884,38.6500,92,94,324408
1.8231,0.2542,38.6200,92,94,324411
1.8524,0.2688,38.6500,92,94,324414
1.8328,0.2590,38.6200,92,94,324418
1.8622,0.2688,38.4900,92,94,324421
1.8426,0.2590,38.5800,92,94,324424
1.8671,0.2737,38.6200,92,94,324427
1.9062,0.2639,38.5500,92,94,324431
1.9110,0.2786,38.6200,92,94,324434
1.9453,0.2639,38.4900,92,94,324438
1.9159,0.2590,38.5200,92,94,324442
1.9355,0.2590,38.6200,92,94,324445
1.9257,0.2688,38.2100,92,94,324448
1.9013,0.2542,38.6500,92,94,324452
1.9355,0.2737,38.3600,92,94,324455
1.9013,0.2639,38.6800,92,94,324458
1.9062,0.2590,38.6200,92,94,324462
1.9404,0.2688,38.6500,92,94,324465
1.9501,0.2493,38.6200,92,94,324468
2.0137,0.2737,38.3600,92,94,324472
1.9501,0.2639,38.5500,92,94,324475
1.9013,0.2493,38.6200,92,94,324478
1.8964,0.2786,38.6200,92,94,324482
1.9062,0.2590,38.6500,92,94,324486
1.9501,0.2786,38.4300,92,94,324489
1.9159,0.2688,38.5500,92,94,324492
1.9208,0.2590,38.5500,92,94,324496
1.9110,0.2639,38.6200,92,94,324499
1.9501,0.2639,38.6800,92,94,324502
2.0235,0.2737,38.5200,92,94,324506
1.9990,0.2639,38.5500,92,94,324509
1.9990,0.2688,38.4900,92,94,324512
1.9599,0.2639,38.6200,92,94,324515
1.9648,0.2688,38.6800,92,94,324519
1.9941,0.2590,38.5500,92,94,324523
2.0039,0.2639,38.6500,92,94,324526
2.0479,0.2688,38.5500,92,94,324530
2.0479,0.2590,38.7100,92,94,324533
2.0772,0.2590,38.6800,92,94,324536
2.1017,0.2688,38.4600,92,94,324540
2.0674,0.2639,38.6200,92,94,324543
2.0772,0.2639,38.4600,92,94,324546
2.0381,0.2639,38.5200,92,94,324549
2.0137,0.2590,38.6500,92,94,324553
2.0332,0.2688,38.5200,92,94,324556
1.9941,0.2590,38.6500,92,94,324559
1.9990,0.2737,38.4000,92,94,324563
1.9110,0.2639,38.5500,92,94,324567
1.8671,0.2590,38.6200,92,94,324570
1.8573,0.2639,38.5800,92,94,324574
1.8573,0.2590,38.6200,92,94,324577
1.9110,0.2688,38.3300,92,94,324580
1.9062,0.2639,38.5500,92,94,324584
1.8622,0.2542,38.6800,92,94,324587
1.8719,0.2639,38.6200,92,94,324590
1.8671,0.2590,38.6500,92,94,324593
1.9208,0.2786,38.4600,92,94,324597
1.8719,0.2688,38.5800,92,94,324600
1.8475,0.2590,38.5500,92,94,324603
1.8328,0.2688,38.6800,92,94,324608
1.8377,0.2590,38.6500,92,94,324611
1.8768,0.2688,38.4600,92,94,324614
1.8866,0.2590,38.5800,92,94,324618
1.9110,0.2639,38.4900,92,94,324621
1.9453,0.2639,38.7100,92,94,324624
1.9648,0.2542,38.6200,92,94,324628
1.9697,0.2688,38.5200,92,94,324631
1.9599,0.2981,38.5800,92,94,324634
2.0381,0.2688,38.5200,92,94,324637
2.0723,0.2590,38.6200,92,94,324641
2.1310,0.2786,38.6200,92,94,324644
2.2630,0.2639,38.5500,92,94,324647
2.4242,0.2590,38.7400,92,94,324652
2.7028,0.2737,38.4900,92,94,324655
2.9326,0.2590,38.6200,92,94,324658
3.1867,0.2590,38.5800,92,94,324662
3.3969,0.2737,38.5800,92,94,324665
3.4066,0.2590,38.7700,92,94,324668
3.3529,0.2688,38.5200,92,94,324671
3.0401,0.2737,38.4900,92,94,324675
2.6833,0.2590,38.6800,92,94,324678
2.3754,0.2688,38.6200,92,94,324681
2.0870,0.2639,38.6500,92,94,324685
1.9306,0.2688,38.3300,92,94,324688
1.7253,0.2639,38.5500,92,94,324691
1.5885,0.2639,38.6500,92,94,324696
1.5005,0.2639,38.5800,92,94,324699
1.4516,0.2590,38.5800,92,94,324702
1.4809,0.2688,38.4300,92,94,324705
1.4467,0.2688,38.5800,92,94,324709
1.4370,0.2590,38.5800,92,94,324712
1.4174,0.2639,38.6800,92,94,324715
1.4125,0.2590,38.7100,92,94,324719
1.4565,0.2688,38.4900,92,94,324722
1.4761,0.2493,38.6200,92,94,324725
1.5298,0.2639,38.4600,92,94,324729
1.5445,0.2590,38.6200,92,94,324732
1.5494,0.2590,38.6200,92,94,324736
1.5885,0.2639,38.5500,92,94,324740
1.5787,0.2639,38.6200,92,94,324743
1.6178,0.2688,38.4600,92,94,324746
1.6129,0.2542,38.6200,92,94,324749
1.6373,0.2590,38.6200,92,94,324753
1.6618,0.2688,38.4900,92,94,324756
1.6569,0.2590,38.6200,92,94,324759
1.7058,0.2639,38.4600,92,94,324763
1.6960,0.2639,38.5800,92,94,324766
1.7058,0.2590,38.6200,92,94,324769
1.7155,0.2688,38.8400,92,94,324773
1.7009,0.2639,38.6500,92,94,324776
1.7400,0.2688,38.3600,92,94,324780
1.7009,0.2590,38.6200,92,94,324784
1.7107,0.2639,38.6800,92,94,324787
1.7204,0.2639,38.5800,92,94,324790
1.7204,0.2688,38.6500,92,94,324793
1.8035,0.2688,38.3300,92,94,324797
1.7351,0.2639,38.5500,92,94,324800
1.7400,0.2542,38.5800,92,94,324803
1.7449,0.2639,38.6200,92,94,324807
1.7400,0.2590,37.9600,92,94,324810
1.7937,0.2737,38.4000,92,94,324813
1.7693,0.2688,38.5500,92,94,324817
1.7693,0.2590,37.7700,92,94,324820
1.7742,0.2835,38.6200,92,94,324824
1.7889,0.2590,38.6500,92,94,324827
1.8328,0.2688,38.4900,92,94,324831
1.8426,0.2639,38.6200,92,94,324834
1.8328,0.2639,38.5200,92,94,324837
1.8182,0.2737,38.6200,92,94,324841
1.8280,0.2590,38.5500,92,94,324844
1.8377,0.2786,38.5200,92,94,324847
1.8182,0.2639,38.6200,92,94,324851
1.8377,0.2639,38.4900,92,94,324854
1.8035,0.2493,38.6200,92,94,324857
1.7986,0.2590,38.6800,92,94,324861
1.8035,0.2688,38.5200,92,94,324865
1.7693,0.2493,38.6500,92,94,324868
1.7840,0.2688,38.4600,92,94,324871
1.7449,0.2884,38.5200,92,94,324875
1.7204,0.2590,38.6200,92,94,324878
1.7351,0.2688,38.5800,92,94,324881
1.7204,0.2639,38.6800,92,94,324885
1.7693,0.2688,38.3600,92,94,324888
1.7449,0.2542,38.5200,92,94,324891
1.7595,0.2590,38.6500,92,94,324895
1.7840,0.2639,38.7400,92,94,324898
1.7840,0.2590,38.6200,92,94,324901
1.8280,0.2835,38.3600,92,94,324905
1.7791,0.2639,38.5800,92,94,324909
1.7791,0.2542,38.5500,92,94,324912
1.7840,0.2639,38.6200,92,94,324915
1.7889,0.2542,38.6500,92,94,324919
1.8426,0.2688,38.4900,92,94,324922
1.8328,0.2639,38.7100,92,94,324925
1.8573,0.2737,38.5200,92,94,324929
1.8475,0.2590,38.5800,92,94,324932
1.8573,0.2884,38.6200,92,94,324935
1.9013,0.2688,38.4600,92,94,324939
1.9599,0.2639,38.4900,92,94,324943
1.9404,0.2590,38.5500,92,94,324947
1.9501,0.2688,38.4300,92,94,324951
1.8866,0.2590,38.5500,92,94,324954
1.8426,0.2590,38.6200,92,94,324958
1.8328,0.2688,38.5500,92,94,324961
1.8084,0.2297,38.6200,92,94,324964
1.8524,0.2688,38.3600,92,94,324967
1.8231,0.2639,38.6200,92,94,324971
1.8231,0.2590,38.5800,92,94,324974
1.8280,0.2639,38.6200,92,94,324977
1.8231,0.2590,38.6800,92,94,324981
1.8768,0.2786,38.4000,92,94,324984
1.8426,0.2590,38.5500,92,94,324987
1.8377,0.2542,38.5800,92,94,324992
1.8377,0.2688,38.6500,92,94,324995
1.8328,0.2590,38.6500,92,94,324998
1.8719,0.2688,38.5200,92,94,325002
1.8475,0.2590,38.5500,92,94,325005
1.8573,0.2590,38.5200,92,94,325008
1.8426,0.2590,38.8100,92,94,325011
1.8426,0.2639,38.6200,92,94,325015
1.8719,0.2688,38.4900,92,94,325018
1.8426,0.2590,38.6200,92,94,325021
1.8671,0.2639,38.4900,92,94,325025
1.8573,0.2590,38.7700,92,94,325028
1.8622,0.2590,38.6200,92,94,325031
1.8768,0.2639,38.5500,92,94,325036
1.8671,0.2590,38.6500,92,94,325039
1.9257,0.2542,38.4900,92,94,325042
1.8719,0.2590,38.6200,92,94,325046
1.8817,0.2639,38.6800,92,94,325049
1.9110,0.2688,38.5200,92,94,325052
1.8866,0.2542,38.5800,92,94,325055
1.9159,0.2639,38.4000,92,94,325059
1.8915,0.2639,38.5200,92,94,325062
1.8964,0.2590,38.6500,92,94,325065
1.9208,0.2688,38.5500,92,94,325069
1.9110,0.2590,38.8100,92,94,325072
1.9648,0.2590,38.3600,92,94,325075
1.9306,0.2590,38.5200,92,94,325080
1.9306,0.2590,38.5800,92,94,325083
1.9404,0.2639,38.6200,92,94,325086
1.9404,0.2590,38.6500,92,94,325089
2.0137,0.2786,38.4600,92,94,325093
1.9697,0.2737,38.5500,92,94,325096
1.9550,0.2542,38.5800,92,94,325099
1.9355,0.2590,38.6500,92,94,325103
1.9110,0.2590,38.6200,92,94,325106
1.9404,0.2688,38.4900,92,94,325109
1.9110,0.2688,38.6200,92,94,325113
1.9355,0.2590,38.4900,92,94,325116
1.8964,0.2590,38.6500,92,94,325120
1.9013,0.2835,38.5500,92,94,325124
1.9501,0.2688,38.4600,92,94,325127
1.9257,0.3079,38.6200,92,94,325130
1.9550,0.2639,38.4600,92,94,325133
1.9257,0.2590,38.6200,92,94,325137
1.9257,0.2590,38.6200,92,94,325140
1.9453,0.2639,38.4900,92,94,325143
1.9306,0.2688,38.6200,92,94,325147
1.9599,0.2590,38.4600,92,94,325150
1.9404,0.2542,38.5800,92,94,325153
1.9453,0.2590,38.6500,92,94,325157
1.9746,0.2590,38.5200,92,94,325160
1.9648,0.2590,38.6200,92,94,325164
2.0137,0.2639,38.4000,92,94,325167
1.9844,0.2542,38.6500,92,94,325171
1.9892,0.2590,38.5500,92,94,325174
1.9892,0.2542,38.5800,92,94,325177
1.9501,0.2590,38.7100,92,94,325181
1.9892,0.2737,38.3300,92,94,325184
1.9746,0.2639,38.5500,92,94,325187
1.9062,0.2542,38.7400,92,94,325191
1.9013,0.2639,38.5800,92,94,325194
1.8817,0.2590,38.6200,92,94,325197
1.9306,0.2786,38.4600,92,94,325201
1.8964,0.2639,38.5500,92,94,325204
1.8866,0.2542,38.9000,92,94,325208
1.8768,0.2639,38.6200,92,94,325211
1.8719,0.2590,38.6800,92,94,325215
1.8915,0.2688,38.4900,92,94,325218
1.8573,0.2542,38.6200,92,94,325221
1.8719,0.2590,38.5200,92,94,325225
1.8426,0.2590,38.6500,92,94,325228
1.8377,0.2737,38.6200,92,94,325231
1.8573,0.2639,38.6200,92,94,325235
1.8475,0.2590,38.4900,92,94,325238
1.8768,0.2590,38.4900,92,94,325241
1.8622,0.2542,38.6200,92,94,325245
1.8719,0.2542,38.6500,92,94,325249
1.8964,0.2639,38.5200,92,94,325252
1.8622,0.2590,38.6200,92,94,325255
1.8719,0.2639,38.4900,92,94,325259
1.8475,0.2590,38.5500,92,94,325262
1.8524,0.2542,38.5800,92,94,325265
1.9062,0.2688,38.5500,92,94,325269
1.9257,0.2590,38.4900,92,94,325272
2.0137,0.2639,38.3600,92,94,325275
2.0332,0.2590,38.5800,92,94,325279
2.1017,0.2542,38.6200,92,94,325282
2.2239,0.2590,38.6200,92,94,325285
2.3754,0.2493,38.6200,92,94,325288
2.6344,0.2688,38.3300,92,94,325293
2.8055,0.2542,38.5500,92,94,325296
3.0499,0.2542,38.6200,92,94,325299
3.2747,0.2590,38.7100,92,94,325303
3.3920,0.2493,38.6500,92,94,325306
3.4409,0.2737,38.4900,92,94,325309
3.1623,0.2639,37.8000,92,94,325313
2.8397,0.2542,38.5200,92,94,325316
2.5122,0.2590,38.6200,92,94,325319
2.2336,0.2542,38.5800,92,94,325323
2.0577,0.2737,38.4600,92,94,325326
1.8573,0.2590,38.5200,92,94,325329
1.7302,0.2639,38.5200,92,94,325332
1.6325,0.2590,38.6800,92,94,325337
1.5445,0.2542,38.6500,92,94,325340
1.5200,0.2590,38.5800,92,94,325343
1.4858,0.2542,38.6200,92,94,325347
1.5103,0.2639,38.5200,92,94,325350
1.4956,0.2542,38.6500,92,94,325353
1.5103,0.2542,38.6500,92,94,325357
1.5396,0.2590,38.6200,92,94,325360
1.5689,0.2590,38.6200,92,94,325363
1.6080,0.2493,38.4600,92,94,325366
1.5738,0.2542,38.6500,92,94,325370
1.5934,0.2542,38.6200,92,94,325373
1.6276,0.2688,38.6200,92,94,325377
1.6178,0.2542,38.6500,92,94,325381
1.6764,0.2639,38.4000,92,94,325384
1.6667,0.2639,38.5200,92,94,325387
1.6520,0.2542,38.6200,92,94,325391
1.6618,0.2688,38.5800,92,94,325394
1.6569,0.2493,38.6500,92,94,325397
1.7009,0.2688,37.6800,92,94,325401
1.6764,0.2639,38.5500,92,94,325404
1.6813,0.2493,38.5800,92,94,325407
1.7009,0.2590,38.6800,92,94,325410
1.7058,0.2590,38.7100,92,94,325414
1.7595,0.2786,38.4600,92,94,325417
1.7253,0.2590,38.5800,92,94,325421
1.7449,0.2542,38.5800,92,94,325425
1.7742,0.2590,38.6200,92,94,325428
1.7546,0.2542,38.8100,92,94,325431
1.7840,0.2639,38.5200,92,94,325435
1.7546,0.2590,38.6200,92,94,325438
1.7693,0.2590,38.5200,92,94,325441
1.7889,0.2542,38.6200,92,94,325445
1.7693,0.2542,38.6500,92,94,325448
1.8084,0.2884,38.4600,92,94,325451
1.7889,0.2590,38.6200,92,94,325454
1.8133,0.2590,38.5200,92,94,325458
1.7889,0.2542,38.5500,92,94,325462
1.7986,0.2542,38.6500,92,94,325465
1.8231,0.2639,38.4900,92,94,325469
1.8035,0.2542,38.6200,92,94,325472
1.8377,0.2590,38.3300,92,94,325475
1.8475,0.2542,38.5500,92,94,325479
1.8133,0.2542,38.6200,92,94,325482
1.8328,0.2542,38.5800,92,94,325485
1.8280,0.2493,38.6200,92,94,325489
1.8768,0.2639,38.3600,92,94,325492
1.8328,0.2493,38.5800,92,94,325495
1.8328,0.2542,38.6500,92,94,325498
1.8377,0.2835,38.6200,92,94,325502
1.8377,0.2542,38.6200,92,94,325506
1.8964,0.2737,38.4000,92,94,325509
1.8573,0.2590,38.5800,92,94,325513
1.8475,0.2542,38.1500,92,94,325516
1.8426,0.2590,38.6200,92,94,325519
1.8426,0.2542,38.6500,92,94,325523
1.8866,0.2688,38.4600,92,94,325526
1.8671,0.2639,38.5800,92,94,325529
1.8768,0.2590,38.5200,92,94,325533
1.8622,0.2590,38.6200,92,94,325536
1.8622,0.2542,38.6500,92,94,325539
1.8866,0.2639,38.4900,92,94,325542
1.8964,0.2493,38.6500,92,94,325547
1.8964,0.2590,38.2100,92,94,325550
1.8719,0.2444,38.6800,92,94,325553
1.9208,0.2542,38.6500,92,94,325558
1.9355,0.2542,38.6200,92,94,325561
1.9648,0.2639,38.6800,92,94,325565
1.9648,0.2590,38.6200,92,94,325568
2.0137,0.2639,38.3600,92,94,325571
1.9941,0.2590,38.5200,92,94,325575
1.9795,0.2542,38.6800,92,94,325578
1.9844,0.2590,38.7100,92,94,325581
1.9648,0.2590,38.4900,92,94,325585
2.0137,0.2737,38.4000,92,94,325588
1.9746,0.2639,38.5200,92,94,325592
1.9648,0.2542,38.6800,92,94,325595
1.9648,0.2297,38.6200,92,94,325599
1.9599,0.2542,38.6500,92,94,325602
2.0137,0.2639,38.4900,92,94,325605
1.9550,0.2590,38.5800,92,94,325609
1.9648,0.2542,38.4900,92,94,325612
1.9453,0.2542,38.6200,92,94,325615
1.9501,0.2542,38.6200,92,94,325619
1.9746,0.2590,38.5800,92,94,325622
1.9404,0.2590,38.6200,92,94,325625
1.9550,0.2590,38.4600,92,94,325628
1.9208,0.2590,38.6500,92,94,325633
1.9208,0.2493,38.6200,92,94,325636
1.9550,0.2639,38.3600,92,94,325639
1.9404,0.2493,38.6200,92,94,325643
1.9404,0.2542,38.5200,92,94,325646
1.9062,0.2835,38.6800,92,94,325649
1.9062,0.2542,38.6500,92,94,325653
1.9257,0.2688,38.4900,92,94,325656
1.9013,0.2542,38.6500,92,94,325659
1.9306,0.2590,38.4000,92,94,325663
1.8964,0.2639,38.5800,92,94,325666
1.9110,0.2542,38.6200,92,94,325669
1.9062,0.2590,38.3300,92,94,325672
1.8964,0.2542,38.6500,92,94,325677
1.9501,0.2590,38.3600,92,94,325680
1.8964,0.2542,38.5800,92,94,325683
1.8964,0.2590,38.6800,92,94,325687
1.9062,0.2590,38.5800,92,94,325690
1.8866,0.2542,38.6200,92,94,325693
1.9550,0.2737,38.4300,92,94,325697
1.9013,0.2639,38.5500,92,94,325700
1.8915,0.2542,38.6200,92,94,325703
1.8915,0.2542,38.6200,92,94,325707
1.8915,0.2639,38.6500,92,94,325710
1.9355,0.2639,38.4600,92,94,325713
1.9159,0.2590,38.5800,92,94,325716
1.9257,0.2590,38.4900,92,94,325721
1.9013,0.2542,38.6200,92,94,325724
1.9110,0.2542,38.5500,92,94,325727
1.9306,0.2639,38.5200,92,94,325731
1.9257,0.2542,38.7100,92,94,325734
1.9599,0.2542,38.5200,92,94,325737
1.9306,0.2542,38.6800,92,94,325741
1.9306,0.2542,38.7100,92,94,325744
1.9453,0.2542,38.5500,92,94,325747
1.9453,0.2542,38.7400,92,94,325751
1.9746,0.2933,38.4600,92,94,325754
1.9501,0.2542,38.6800,92,94,325757
1.9648,0.2639,38.6200,92,94,325761
1.9844,0.2493,38.5500,92,94,325765
1.9697,0.2835,38.6200,92,94,325768
2.0235,0.2639,38.3600,92,94,325771
1.9990,0.2590,38.5200,92,94,325775
1.9795,0.2493,38.6200,92,94,325778
1.9941,0.2590,38.5500,92,94,325781
1.9746,0.2493,38.6500,92,94,325785
2.0381,0.2688,38.3600,92,94,325788
2.0088,0.2737,38.5200,92,94,325791
2.0039,0.2542,38.5800,92,94,325795
2.0137,0.2493,38.6200,92,94,325798
2.0088,0.2542,38.6200,92,94,325801
2.0674,0.2688,38.4600,92,94,325805
2.0235,0.2688,38.6200,92,94,325809
2.0186,0.2590,38.5500,92,94,325812
2.0039,0.2542,38.6200,92,94,325815
1.9892,0.2542,38.6500,92,94,325819
2.0137,0.2688,38.5500,92,94,325822
1.9599,0.2590,38.5800,92,94,325825
1.9501,0.2542,38.5200,92,94,325829
1.9159,0.2542,38.6500,92,94,325832
1.9110,0.2542,38.7100,92,94,325835
1.9355,0.2688,38.4900,92,94,325838
1.8964,0.2542,38.6200,92,94,325842
1.9159,0.2688,38.4900,92,94,325846
1.8768,0.2444,38.6200,92,94,325849
1.8671,0.2542,38.5800,92,94,325853
1.8817,0.2590,38.4600,92,94,325856
1.8524,0.2590,38.6500,92,94,325859
1.8671,0.2590,38.4000,92,94,325863
1.8377,0.2542,38.5800,92,94,325866
1.8377,0.2493,38.6200,92,94,325869
1.8671,0.2884,38.5500,92,94,325873
1.8671,0.2493,38.5800,92,94,325876
1.9062,0.2639,38.4000,92,94,325879
1.8475,0.2493,38.5800,92,94,325882
1.8524,0.2493,38.6200,92,94,325886
1.8573,0.2639,38.6200,92,94,325890
1.8426,0.2493,38.6200,92,94,325893
1.8964,0.2737,38.3300,92,94,325897
1.8671,0.2590,38.5200,92,94,325900
1.8719,0.2493,38.5500,92,94,325903
1.8964,0.2542,38.6200,92,94,325907
1.9306,0.2542,38.6500,92,94,325910
2.0186,0.2639,38.4600,92,94,325913
2.0528,0.2590,38.1100,92,94,325917
2.1408,0.2542,38.4600,92,94,325920
2.2581,0.2639,38.6200,92,94,325923
2.4194,0.2493,38.6500,92,94,325926
2.6686,0.2590,38.4900,92,94,325931
2.8788,0.2542,38.5800,92,94,325934
3.1427,0.2542,38.4900,92,94,325937
3.2551,0.2542,38.6500,92,94,325941
3.2845,0.2542,38.6200,92,94,325944
3.1574,0.2542,38.5800,92,94,325947
2.8739,0.2639,38.6800,92,94,325951
2.6002,0.2542,38.4600,92,94,325954
2.2776,0.2639,38.6200,92,94,325957
2.0430,0.2542,38.6500,92,94,325961
1.8817,0.2590,38.8400,92,94,325964
1.7107,0.2542,38.6200,92,94,325967
1.6422,0.2590,38.5200,92,94,325970
1.5445,0.2542,38.4900,92,94,325975
1.4858,0.2493,38.5800,92,94,325978
1.4614,0.2639,38.5500,92,94,325981
1.4223,0.2542,38.6500,92,94,325985
1.4614,0.2639,38.3600,92,94,325988
1.4614,0.2542,38.5500,92,94,325991
1.4907,0.2493,38.6200,92,94,325995
1.5152,0.2493,38.6200,92,94,325998
1.5005,0.2542,38.5800,92,94,326001
1.5396,0.2884,38.4600,92,94,326005
1.4956,0.2590,38.5800,92,94,326008
1.5054,0.2493,38.7400,92,94,326011
1.5249,0.2884,38.6200,92,94,326014
1.5543,0.2542,38.6500,92,94,326019
1.6129,0.2688,38.5200,92,94,326022
1.6080,0.2542,38.6200,92,94,326025
1.6325,0.2542,38.6200,92,94,326029
1.6178,0.2493,38.6200,92,94,326032
1.6276,0.2493,38.6200,92,94,326035
1.6618,0.2688,38.4900,92,94,326039
1.6569,0.2542,38.5500,92,94,326042
1.6911,0.2590,38.4900,92,94,326045
1.6716,0.2493,38.6800,92,94,326049
1.6813,0.2884,38.6800,92,94,326052
1.7107,0.2590,38.6200,92,94,326055
1.7058,0.2835,38.6500,92,94,326060
1.7498,0.2590,38.4000,92,94,326063
1.7253,0.2542,38.5800,92,94,326066
1.7400,0.2786,38.6800,92,94,326069
1.7693,0.2493,38.5500,92,94,326073
1.7498,0.2542,38.6500,92,94,326076
1.7889,0.2590,38.3600,92,94,326079
1.7498,0.2542,38.5200,92,94,326083
1.7498,0.2542,38.6800,92,94,326086
1.7449,0.2542,38.5800,92,94,326089
1.7302,0.2493,38.6500,92,94,326093
1.7840,0.2688,38.4600,92,94,326096
1.7546,0.2542,38.5500,92,94,326099
1.7498,0.2493,38.5800,92,94,326104
1.7400,0.2639,38.6200,92,94,326107
1.7400,0.2542,38.6200,92,94,326110
1.7840,0.2639,38.4300,92,94,326113
1.7742,0.2835,38.6200,92,94,326117
1.8035,0.2493,38.5200,92,94,326120
1.8035,0.2542,38.6500,92,94,326123
1.8182,0.2542,38.6200,92,94,326127
1.8622,0.2639,38.4900,92,94,326130
1.8524,0.2542,38.6200,92,94,326133
1.9013,0.2590,38.4600,92,94,326137
1.8133,0.2542,38.6500,92,94,326140
1.7840,0.2542,38.6500,92,94,326144
1.7693,0.2493,38.5500,92,94,326148
1.7693,0.2542,38.6200,92,94,326151
1.8084,0.2590,38.4600,92,94,326154
1.7937,0.2542,38.7400,92,94,326157
1.7986,0.2493,38.6200,92,94,326161
1.8182,0.2639,38.5200,92,94,326164
1.8719,0.2590,38.5800,92,94,326169
1.8622,0.2542,38.6800,92,94,326172
1.9110,0.2737,38.4300,92,94,326175
1.8768,0.2639,38.8400,92,94,326179
1.8817,0.2542,38.5500,92,94,326182
1.8915,0.2542,38.6200,92,94,326185
1.9062,0.2639,38.6200,92,94,326190
1.9746,0.2639,38.4600,92,94,326193
1.9306,0.2542,38.5800,92,94,326196
1.9355,0.2590,38.4900,92,94,326200
1.9257,0.2542,38.6200,92,94,326203
1.9746,0.2542,38.6200,92,94,326206
1.9599,0.2590,38.6800,92,94,326210
1.9404,0.2542,38.5800,92,94,326213
1.9550,0.2639,38.4900,92,94,326216
1.9257,0.2542,38.6200,92,94,326219
1.9355,0.2590,38.6500,92,94,326223
1.9648,0.2639,38.5200,92,94,326226
1.9306,0.2542,38.6200,92,94,326230
1.9599,0.2639,38.4300,92,94,326234
1.9306,0.2542,38.3000,92,94,326237
1.9306,0.2493,38.5800,92,94,326240
1.9697,0.2639,38.5500,92,94,326244
1.9501,0.2542,38.6200,92,94,326247
1.9648,0.2542,38.4000,92,94,326250
1.9159,0.2590,38.5800,92,94,326253
1.8915,0.2542,38.6200,92,94,326257
1.8866,0.2590,38.5500,92,94,326260
1.8768,0.2493,38.6200,92,94,326263
1.8915,0.2639,38.4300,92,94,326267
1.8573,0.2542,38.5500,92,94,326270
1.8084,0.2493,38.6200,92,94,326274
1.8182,0.2639,38.6200,92,94,326278
1.8475,0.2542,38.5500,92,94,326281
1.9453,0.2786,38.4300,92,94,326284
1.9208,0.2590,38.5500,92,94,326288
1.8866,0.2542,38.5200,92,94,326291
1.8475,0.2542,38.6200,92,94,326294
1.8475,0.2493,38.6200,92,94,326298
1.8866,0.2639,38.4600,92,94,326301
1.8768,0.2542,38.5800,92,94,326304
1.9013,0.2542,38.4600,92,94,326307
1.8719,0.2542,38.6500,92,94,326311
1.8524,0.2590,38.6500,92,94,326315
1.8573,0.2590,38.5200,92,94,326318
1.8133,0.2542,38.6200,92,94,326322
1.8524,0.2590,38.5200,92,94,326325
1.8475,0.2493,38.6200,92,94,326328
1.8573,0.2542,38.4900,92,94,326332
1.8915,0.2590,38.5200,92,94,326335
1.8866,0.2542,38.6500,92,94,326338
1.9110,0.2590,38.4000,92,94,326341
1.8768,0.2493,38.6500,92,94,326345
1.8573,0.2493,38.6500,92,94,326348
1.8671,0.2737,38.5500,92,94,326351
1.8377,0.2542,38.5800,92,94,326355
1.8817,0.2590,38.4300,92,94,326359
1.8426,0.2542,38.5200,92,94,326362
1.8377,0.2542,38.4600,92,94,326366
1.8475,0.2590,38.5800,92,94,326369
1.8573,0.2542,38.6800,92,94,326372
1.9355,0.2786,38.4000,92,94,326376
1.9062,0.2639,38.5500,92,94,326379
1.8964,0.2493,38.5500,92,94,326382
1.9013,0.2542,38.6200,92,94,326386
1.9013,0.2493,38.6500,92,94,326389
1.9306,0.2639,38.4900,92,94,326392
1.8964,0.2590,38.6200,92,94,326395
1.9013,0.2542,38.5800,92,94,326400
1.9159,0.2542,38.6200,92,94,326403
1.8964,0.2542,38.6500,92,94,326406
1.9404,0.2493,38.5500,92,94,326410
1.9355,0.2542,38.6200,92,94,326413
1.9453,0.2981,38.4900,92,94,326416
1.9013,0.2542,38.6500,92,94,326420
1.9110,0.2493,38.6500,92,94,326423
1.9501,0.2590,38.4900,92,94,326426
1.9306,0.2542,38.6800,92,94,326430
1.9892,0.2884,38.4600,92,94,326433
2.0137,0.2297,38.5500,92,94,326436
2.0186,0.2542,38.6800,92,94,326439
2.0381,0.2639,38.5200,92,94,326444
2.0039,0.2542,38.6200,92,94,326447
2.0479,0.2639,38.4000,92,94,326450
1.9990,0.2542,38.5800,92,94,326454
1.9599,0.2493,38.6500,92,94,326457
1.9306,0.2590,38.4300,92,94,326460
1.8915,0.2590,38.6500,92,94,326464
1.9648,0.2493,38.4300,92,94,326467
1.8915,0.2542,38.9600,92,94,326470
1.9110,0.2542,38.6200,92,94,326473
1.9013,0.2590,38.6200,92,94,326477
1.9013,0.2444,38.6500,92,94,326480
1.9648,0.2688,38.4300,92,94,326483
1.8964,0.2590,38.6200,92,94,326488
1.8475,0.2542,38.5500,92,94,326491
1.8182,0.2542,38.6800,92,94,326494
1.7986,0.2639,38.6200,92,94,326498
1.8280,0.2639,38.4600,92,94,326501
1.7937,0.2590,38.6200,92,94,326504
1.7986,0.2493,38.4900,92,94,326508
1.7840,0.2542,38.7100,92,94,326511
1.7937,0.2542,38.6200,92,94,326514
1.8280,0.2639,38.5500,92,94,326517
1.8133,0.2542,38.5800,92,94,326521
1.8475,0.2737,38.5200,92,94,326524
1.8133,0.2542,38.6200,92,94,326528
1.8084,0.2639,38.6200,92,94,326532
1.8084,0.2590,38.5500,92,94,326535
1.7937,0.2542,38.6200,92,94,326538
1.8328,0.2688,38.4300,92,94,326542
1.8231,0.2542,38.6200,92,94,326545
1.8671,0.2786,38.6200,92,94,326548
1.9599,0.2639,38.5800,92,94,326552
2.0381,0.2542,38.6500,92,94,326555
2.2336,0.2639,38.3600,92,94,326558
2.3900,0.2590,38.5500,92,94,326561
2.6051,0.2542,38.6500,92,94,326565
2.8886,0.2590,38.5800,92,94,326568
3.1085,0.2542,38.6500,92,94,326572
3.3724,0.2688,38.3000,92,94,326576
3.3578,0.2590,38.5200,92,94,326579
3.2063,0.2493,38.5800,92,94,326582
2.9179,0.2542,38.6200,92,94,326586
2.5709,0.2542,38.6200,92,94,326589
2.3069,0.2688,38.4600,92,94,326592
2.0088,0.2590,38.4600,92,94,326595
1.8133,0.2786,38.5200,92,94,326599
1.6471,0.2542,38.6200,92,94,326602
1.5152,0.2493,38.6200,92,94,326605
1.4370,0.2493,38.5500,92,94,326609
1.3441,0.2590,38.6200,92,94,326612
1.3392,0.2542,38.4600,92,94,326616
1.2805,0.2688,38.6200,92,94,326620
1.3001,0.2542,38.6200,92,94,326623
1.3539,0.2639,38.4900,92,94,326626
1.4027,0.2542,38.6200,92,94,326630
1.4418,0.2493,38.4900,92,94,326633
1.4223,0.2542,38.6200,92,94,326636
1.4516,0.2542,38.6200,92,94,326640
1.4761,0.2688,38.5500,92,94,326643
1.4761,0.2493,38.6500,92,94,326646
1.5298,0.2590,38.5800,92,94,326649
1.5249,0.2493,38.5800,92,94,326653
1.5396,0.2297,38.6200,92,94,326657
1.5591,0.2590,38.5800,92,94,326660
1.5543,0.2737,38.6500,92,94,326664
1.5934,0.2688,38.3600,92,94,326667
1.5640,0.2542,38.5500,92,94,326670
1.5885,0.2493,38.6500,92,94,326674
1.6129,0.2590,38.5500,92,94,326677
1.6325,0.2493,38.6200,92,94,326680
1.6862,0.2688,38.4000,92,94,326684
1.6422,0.2590,38.5800,92,94,326687
1.6129,0.2542,38.5500,92,94,326690
1.5982,0.2590,38.6800,92,94,326693
1.5885,0.2542,38.6500,92,94,326697
1.6276,0.2639,38.4900,92,94,326701
1.6178,0.2493,38.5800,92,94,326704
1.6276,0.2590,38.6200,92,94,326708
1.6178,0.2542,38.6200,92,94,326711
1.6227,0.2493,38.6500,92,94,326714
1.6471,0.2639,38.4900,92,94,326718
1.6373,0.2493,38.6800,92,94,326721
1.6422,0.2639,38.5200,92,94,326724
1.6129,0.2542,38.6200,92,94,326728
1.6178,0.2542,38.6500,92,94,326731
1.6325,0.2590,38.5200,92,94,326734
1.6276,0.2590,38.6200,92,94,326737
1.6422,0.2590,38.4300,92,94,326742
1.6227,0.2542,38.6200,92,94,326745
1.6178,0.2542,38.6200,92,94,326748
1.6227,0.2639,38.5500,92,94,326752
1.6031,0.2542,38.6200,92,94,326755
1.6422,0.2639,38.4300,92,94,326758
1.6325,0.2542,38.5200,92,94,326762
1.6373,0.2542,38.6200,92,94,326765
1.6520,0.2590,38.5800,92,94,326768
1.6422,0.2542,38.6800,92,94,326772
1.6862,0.2884,38.3600,92,94,326775
1.7302,0.2639,38.5200,92,94,326780
1.6764,0.2590,38.5800,92,94,326784
1.6764,0.2590,38.4300,92,94,326787
1.6373,0.2639,38.6500,92,94,326791
1.6276,0.2542,38.6500,92,94,326794
1.6373,0.2639,38.5500,92,94,326797
1.6325,0.2297,38.5800,92,94,326800
1.6667,0.2590,38.5200,92,94,326804
1.6471,0.2542,38.6500,92,94,326807
1.6764,0.2542,37.9300,92,94,326810
1.7107,0.2590,38.5200,92,94,326814
1.7009,0.2542,38.7100,92,94,326817
1.7253,0.2639,38.4000,92,94,326820
1.7302,0.2493,38.4900,92,94,326824
1.7107,0.2542,38.6500,92,94,326828
1.7400,0.2542,38.5500,92,94,326831
1.7449,0.2542,38.6200,92,94,326835
1.7889,0.2639,38.4000,92,94,326838
1.7595,0.2542,38.5500,92,94,326841
1.7644,0.2542,38.6200,92,94,326844
1.7840,0.2590,38.6200,92,94,326848
1.7840,0.2542,38.6200,92,94,326851
1.8280,0.2688,38.3600,92,94,326854
1.7693,0.2639,38.5500,92,94,326858
1.7546,0.2542,38.6200,92,94,326861
1.7546,0.2542,38.5500,92,94,326864
1.7644,0.2542,38.6200,92,94,326868
1.8133,0.2688,38.4600,92,94,326872
1.7840,0.2542,38.5500,92,94,326875
1.7791,0.2493,38.5200,92,94,326879
1.7546,0.2639,38.6500,92,94,326882
1.7498,0.2542,38.6200,92,94,326885
1.7889,0.2639,38.4300,92,94,326888
1.7644,0.2590,38.6200,92,94,326892
1.7889,0.2590,38.5200,92,94,326895
1.7693,0.2542,38.5200,92,94,326898
1.7742,0.2590,38.6800,92,94,326902
1.7986,0.2590,38.4900,92,94,326905
1.7742,0.2542,38.6200,92,94,326908
1.7937,0.2884,38.4900,92,94,326913
1.7595,0.2493,38.6200,92,94,326916
1.7498,0.2590,38.5800,92,94,326919
1.7742,0.2590,38.5200,92,94,326922
1.7351,0.2542,38.6800,92,94,326926
1.7595,0.2590,38.4000,92,94,326929
1.7253,0.2542,38.6200,92,94,326932
1.7351,0.2542,38.6500,92,94,326936
1.7595,0.2639,38.5500,92,94,326939
1.7302,0.2542,38.6200,92,94,326942
1.7595,0.2639,38.3600,92,94,326946
1.7400,0.2590,38.5800,92,94,326949
1.7155,0.2542,38.7100,92,94,326952
1.7253,0.2590,38.6200,92,94,326957
1.7400,0.2542,38.8700,92,94,326960
1.8084,0.2786,38.4300,92,94,326963
1.7840,0.2639,38.5500,92,94,326966
1.7840,0.2639,38.5200,92,94,326970
1.7889,0.2590,38.6200,92,94,326973
1.7840,0.2542,38.6500,92,94,326976
1.8133,0.2688,38.4900,92,94,326980
1.7889,0.2590,38.6200,92,94,326983
1.7937,0.2542,38.6200,92,94,326986
1.7937,0.2590,38.6200,92,94,326990
1.7986,0.2542,38.6500,92,94,326993
1.8182,0.2639,38.5500,92,94,326996
1.8084,0.2297,38.6200,92,94,327001
1.8426,0.2639,38.5800,92,94,327004
1.8280,0.2493,38.6500,92,94,327007
1.8426,0.2590,38.6500,92,94,327010
1.8671,0.2688,38.4900,92,94,327014
1.8328,0.2542,38.6800,92,94,327017
1.8426,0.2590,38.5200,92,94,327020
1.8182,0.2493,38.5500,92,94,327024
1.7986,0.2493,38.6200,92,94,327027
1.8035,0.2639,38.5200,92,94,327030
1.7840,0.2542,38.6200,92,94,327034
1.8280,0.2639,38.3300,92,94,327037
1.8084,0.2639,38.5500,92,94,327041
1.8133,0.2542,38.6200,92,94,327045
1.8280,0.2688,38.5800,92,94,327048
1.8231,0.2493,38.6200,92,94,327051
1.8622,0.2688,38.3300,92,94,327054
1.8475,0.2590,38.5500,92,94,327058
1.8280,0.2493,38.6200,92,94,327061
1.8426,0.2639,38.6200,92,94,327064
1.8475,0.2542,38.6500,92,94,327068
1.9062,0.2688,38.4600,92,94,327071
1.9013,0.2493,38.5500,92,94,327074
1.9013,0.2542,38.5500,92,94,327078
1.9208,0.2493,38.6200,92,94,327081
1.8915,0.2542,38.6500,92,94,327085
1.9110,0.2835,38.4600,92,94,327089
1.8671,0.2590,38.6200,92,94,327092
1.8573,0.2590,38.4900,92,94,327095
1.8377,0.2542,38.6800,92,94,327098
1.7937,0.2542,38.6200,92,94,327102
1.8035,0.2639,38.5500,92,94,327105
1.8084,0.2639,38.6500,92,94,327108
1.7986,0.2590,38.5200,92,94,327112
1.7595,0.2542,38.5500,92,94,327115
1.7644,0.2493,38.6200,92,94,327118
1.7546,0.2590,38.4600,92,94,327122
1.7302,0.2737,38.6200,92,94,327126
1.7498,0.2590,38.4000,92,94,327129
1.7204,0.2884,38.6200,92,94,327133
1.7253,0.2542,38.6500,92,94,327136
1.7449,0.2639,37.8300,92,94,327139
1.7302,0.2493,38.5800,92,94,327142
1.7644,0.2639,38.3600,92,94,327146
1.7351,0.2786,38.5500,92,94,327149
1.7204,0.2542,38.6500,92,94,327152
1.7302,0.2639,38.5800,92,94,327156
1.7302,0.2542,38.6200,92,94,327159
1.7937,0.2737,38.3300,92,94,327162
1.7546,0.2639,38.5500,92,94,327166
1.7351,0.2542,38.6500,92,94,327170
1.7253,0.2639,38.6200,92,94,327173
1.7351,0.2542,38.6500,92,94,327177
1.7937,0.2639,38.4900,92,94,327180
1.8084,0.2590,38.5800,92,94,327183
1.8573,0.2542,38.5200,92,94,327186
1.9013,0.2542,38.6200,92,94,327190
1.9844,0.2297,38.6200,92,94,327193
2.1261,0.2639,38.5500,92,94,327196
2.2630,0.2590,38.6200,92,94,327200
2.4878,0.2639,38.4900,92,94,327203
2.6637,0.2444,38.6500,92,94,327206
2.9277,0.2493,38.6500,92,94,327211
3.1183,0.2639,38.5500,92,94,327214
3.1623,0.2493,38.5800,92,94,327217
3.1085,0.2590,38.4600,92,94,327221
2.8397,0.2542,38.5500,92,94,327224
2.5220,0.2493,38.6500,92,94,327227
2.2532,0.2639,38.4900,92,94,327230
1.9697,0.2542,38.6500,92,94,327234
1.8328,0.2639,38.4000,92,94,327237
1.6129,0.2590,38.5200,92,94,327240
1.4809,0.2639,38.6200,92,94,327244
1.4174,0.2590,38.5800,92,94,327247
1.3587,0.2542,38.7400,92,94,327250
1.3734,0.2737,38.4300,92,94,327255
1.3343,0.2542,38.5200,92,94,327258
1.3392,0.2542,38.6200,92,94,327261
1.3587,0.2639,38.7100,92,94,327265
1.3734,0.2493,38.6200,92,94,327268
1.4370,0.2688,38.4600,92,94,327271
1.4223,0.2590,38.5800,92,94,327275
1.4272,0.2297,38.5200,92,94,327278
1.4223,0.2542,38.6200,92,94,327281
1.4272,0.2542,38.6200,92,94,327284
1.4663,0.2590,38.4600,92,94,327288
1.4614,0.2590,38.5800,92,94,327291
1.4858,0.2590,38.4300,92,94,327294
1.4761,0.2590,38.6500,92,94,327299
1.4907,0.2542,38.6500,92,94,327302
1.5249,0.2639,38.5200,92,94,327305
1.5200,0.2542,38.6500,92,94,327309
1.5591,0.2590,38.5200,92,94,327312
1.5445,0.2542,38.6500,92,94,327315
1.5640,0.2542,38.6200,92,94,327319
1.5738,0.2590,38.5800,92,94,327322
1.5640,0.2639,38.6500,92,94,327325
1.5982,0.2639,38.4300,92,94,327328
1.5787,0.2542,38.5500,92,94,327332
1.5934,0.2542,38.6500,92,94,327335
1.5982,0.2590,38.4900,92,94,327339
1.5934,0.2590,38.6500,92,94,327343
1.6325,0.2639,38.3600,92,94,327346
1.6178,0.2639,38.5200,92,94,327349
1.6080,0.2542,38.6500,92,94,327353
1.6276,0.2688,38.5200,92,94,327356
1.6325,0.2542,38.6200,92,94,327359
1.6716,0.2688,38.4000,92,94,327363
1.6422,0.2493,38.5200,92,94,327366
1.6373,0.2542,38.5500,92,94,327369
1.6276,0.2884,38.6200,92,94,327372
1.6227,0.2542,38.6200,92,94,327376
1.6667,0.2639,38.4300,92,94,327379
1.6520,0.2493,38.5800,92,94,327383
1.6618,0.2542,38.5200,92,94,327387
1.6471,0.2493,38.6200,92,94,327390
1.6716,0.2542,38.6500,92,94,327395
1.6764,0.2542,38.6200,92,94,327398
1.7009,0.2639,38.5500,92,94,327401
1.6911,0.2542,38.6200,92,94,327405
1.7302,0.2639,38.4000,92,94,327408
1.7302,0.2590,38.5200,92,94,327411
1.7058,0.2297,38.6500,92,94,327415
1.7351,0.2639,38.5800,92,94,327418
1.7253,0.2542,38.6500,92,94,327421
1.7742,0.2688,38.3000,92,94,327426
1.7400,0.2297,38.5200,92,94,327429
1.7351,0.2542,38.6500,92,94,327432
1.7351,0.2542,38.5800,92,94,327435
1.7253,0.2542,38.6200,92,94,327439
1.7693,0.2933,38.4600,92,94,327442
1.7302,0.2590,38.6500,92,94,327445
1.7351,0.2542,38.5200,92,94,327449
1.7498,0.2493,38.6200,92,94,327452
1.7644,0.2590,38.6500,92,94,327455
1.8182,0.2688,38.5500,92,94,327459
1.7889,0.2590,38.6200,92,94,327462
1.7986,0.2590,38.5200,92,94,327465
1.7742,0.2542,38.6200,92,94,327470
1.7742,0.2542,38.6500,92,94,327473
1.8475,0.2688,38.4900,92,94,327476
1.7937,0.2590,38.7100,92,94,327479
1.8475,0.2933,38.5200,92,94,327483
1.8280,0.2493,38.5800,92,94,327486
1.8426,0.2542,38.3600,92,94,327489
1.8671,0.2297,38.4900,92,94,327493
1.8475,0.2542,38.6500,92,94,327496
1.8719,0.2639,38.4300,92,94,327499
1.8475,0.2542,38.7100,92,94,327503
1.8426,0.2590,38.6200,92,94,327506
1.8719,0.2493,38.5800,92,94,327510
1.8426,0.2542,38.6800,92,94,327514
1.8817,0.2639,38.3600,92,94,327517
1.8328,0.2542,38.5800,92,94,327520
1.8231,0.2542,38.6500,92,94,327523
1.8133,0.2590,38.5800,92,94,327527
1.8035,0.2444,38.6200,92,94,327530
1.8426,0.2737,38.3600,92,94,327533
1.8133,0.2590,38.5200,92,94,327537
1.7986,0.2542,38.5800,92,94,327540
1.7937,0.2590,38.6200,92,94,327543
1.7889,0.2542,38.6200,92,94,327547
1.8280,0.2688,38.4300,92,94,327550
1.7986,0.2933,38.5800,92,94,327554
1.8035,0.2542,38.5200,92,94,327558
1.7840,0.2542,38.7100,92,94,327561
1.7840,0.2590,38.6800,92,94,327564
1.8133,0.2639,38.4900,92,94,327567
1.7889,0.2590,38.5800,92,94,327571
1.8133,0.2590,38.4600,92,94,327574
1.7889,0.2297,38.6200,92,94,327577
1.8084,0.2590,38.6500,92,94,327581
1.8182,0.2590,38.5200,92,94,327584
1.8133,0.2590,38.6200,92,94,327587
1.8280,0.2542,38.6200,92,94,327591
1.7840,0.2542,38.6200,92,94,327595
1.7693,0.2542,38.6500,92,94,327598
1.7791,0.2590,38.5200,92,94,327602
1.7546,0.2542,38.7400,92,94,327605
1.7986,0.2639,38.3600,92,94,327608
1.7889,0.2493,38.5200,92,94,327611
1.7791,0.2542,38.6500,92,94,327615
1.7986,0.2590,38.5800,92,94,327618
1.7791,0.2542,38.7400,92,94,327621
1.8280,0.2639,38.3000,92,94,327625
1.7937,0.2590,38.5200,92,94,327628
1.7937,0.2493,38.6800,92,94,327631
1.8182,0.2639,38.5800,92,94,327635
1.8182,0.2542,38.6200,92,94,327639
1.8719,0.2737,38.4300,92,94,327642
1.8328,0.2639,38.5800,92,94,327646
1.8328,0.2542,38.5500,92,94,327649
1.8377,0.2590,38.6200,92,94,327652
1.8328,0.2542,38.6500,92,94,327655
1.8719,0.2590,38.5200,92,94,327659
1.8426,0.2590,38.5800,92,94,327662
1.8475,0.2590,38.5800,92,94,327665
1.8280,0.2542,38.6200,92,94,327669
1.8182,0.2542,38.4900,92,94,327672
1.8475,0.2737,38.4600,92,94,327675
1.8231,0.2590,38.5800,92,94,327680
1.8524,0.2737,38.4900,92,94,327683
1.8280,0.2542,38.5800,92,94,327686
1.8328,0.2542,38.5200,92,94,327690
1.8622,0.2590,38.4900,92,94,327693
1.8524,0.2542,38.2700,92,94,327696
1.8964,0.2786,38.4900,92,94,327699
1.8817,0.2542,38.5500,92,94,327703
1.8817,0.2542,38.5800,92,94,327706
1.9110,0.2493,38.5500,92,94,327709
1.9013,0.2542,38.6200,92,94,327713
1.9501,0.2639,38.3600,92,94,327716
1.9159,0.2297,38.5800,92,94,327719
1.9257,0.2542,38.5200,92,94,327724
1.9599,0.2493,38.5800,92,94,327727
1.9062,0.2542,38.7700,92,94,327730
1.9453,0.2835,38.4300,92,94,327734
1.8915,0.2590,38.5500,92,94,327737
1.8524,0.2493,38.5800,92,94,327740
1.8328,0.2590,38.6500,92,94,327744
1.8133,0.2542,38.8400,92,94,327747
1.8524,0.2737,38.4300,92,94,327750
1.8231,0.2590,38.5500,92,94,327753
1.8328,0.2542,38.4900,92,94,327757
1.8133,0.2493,38.6200,92,94,327760
1.8084,0.2542,38.6500,92,94,327763
1.8182,0.2639,38.4600,92,94,327768
1.7840,0.2493,38.5800,92,94,327771
1.7937,0.2590,38.4900,92,94,327774
1.7644,0.2542,38.6200,92,94,327778
1.7644,0.2493,38.6200,92,94,327781
1.7742,0.2590,38.5500,92,94,327784
1.8035,0.2590,38.6200,92,94,327787
1.7889,0.2542,38.4900,92,94,327791
1.7546,0.2542,38.6500,92,94,327794
1.7595,0.2542,38.6200,92,94,327797
1.7889,0.2639,38.5800,92,94,327801
1.7791,0.2542,38.6500,92,94,327804
1.8133,0.2639,38.6800,92,94,327808
1.7937,0.2590,38.5200,92,94,327812
1.7937,0.2542,38.6200,92,94,327815
1.8182,0.2688,38.5800,92,94,327818
1.8475,0.2542,38.6200,92,94,327822
1.8915,0.2688,38.3600,92,94,327825
1.8964,0.2590,38.5200,92,94,327828
1.9648,0.2542,38.6200,92,94,327831
2.0674,0.2590,38.6200,92,94,327835
2.1896,0.2542,38.7100,92,94,327838
2.4194,0.2639,38.4000,92,94,327841
2.5709,0.2590,38.5500,92,94,327845
2.7859,0.2542,38.6500,92,94,327848
3.0059,0.2639,38.6800,92,94,327852
3.1623,0.2297,38.6200,92,94,327856
3.2502,0.2688,38.4900,92,94,327859
3.0694,0.2590,38.6500,92,94,327862
2.8055,0.2639,38.5200,92,94,327865
2.4731,0.2590,38.6200,92,94,327869
2.1896,0.2493,38.6200,92,94,327872
1.9990,0.2639,38.4900,92,94,327875
1.7889,0.2542,38.5800,92,94,327879
1.6716,0.2542,38.4900,92,94,327882
1.5396,0.2542,38.6500,92,94,327885
1.4565,0.2639,38.6200,92,94,327889
1.4223,0.2590,38.4900,92,94,327892
1.3783,0.2542,38.5800,92,94,327896
1.3832,0.2786,38.4900,92,94,327900
1.3587,0.2542,38.5800,92,94,327903
1.3783,0.2542,38.6500,92,94,327906
1.4370,0.2542,38.5200,92,94,327909
1.4223,0.2542,38.6200,92,94,327913
1.4614,0.2639,38.5500,92,94,327916
1.4614,0.2542,38.6200,92,94,327919
1.4907,0.2590,38.6200,92,94,327923
1.5347,0.2639,38.5800,92,94,327926
1.5347,0.2542,38.6200,92,94,327929
1.6031,0.2737,38.3300,92,94,327933
1.5885,0.2590,38.4000,92,94,327937
1.5836,0.2542,38.6500,92,94,327940
1.5836,0.2590,38.5800,92,94,327944
1.5689,0.2542,38.7100,92,94,327947
1.6227,0.2835,38.4300,92,94,327950
1.5982,0.2639,38.6200,92,94,327953
1.5982,0.2542,38.5500,92,94,327957
1.6080,0.2590,38.6200,92,94,327960
1.6080,0.2542,38.6200,92,94,327963
1.6422,0.2639,38.4600,92,94,327967
1.6227,0.2493,38.6200,92,94,327970
1.6422,0.2542,38.4900,92,94,327973
1.6227,0.2493,38.6200,92,94,327977
1.6178,0.2835,38.6200,92,94,327981
1.6276,0.2590,38.5500,92,94,327984
1.5982,0.2542,38.6800,92,94,327988
1.6080,0.2639,38.4900,92,94,327991
1.5738,0.2297,38.6200,92,94,327994
1.5738,0.2542,38.6500,92,94,327997
1.6031,0.2688,38.5200,93,94,328001
1.5591,0.2590,38.5800,93,94,328004
1.5640,0.2542,38.6200,93,94,328008
1.5982,0.2639,38.2700,93,94,328011
1.5738,0.2493,38.5200,93,94,328014
1.5543,0.2493,38.6200,93,94,328018
1.5445,0.2590,38.6200,93,94,328022
1.5445,0.2493,38.6200,93,94,328025
1.5836,0.2737,38.4600,93,94,328029
1.5543,0.2639,38.5500,93,94,328032
1.5591,0.2542,38.5800,93,94,328035
1.5640,0.2542,38.6200,93,94,328039
1.5787,0.2542,38.6500,93,94,328042
1.6129,0.2688,38.5200,93,94,328045
1.5934,0.2590,38.6200,93,94,328048
1.5982,0.2590,38.4900,93,94,328052
1.5689,0.2639,38.6800,93,94,328055
1.5738,0.2297,38.6500,93,94,328058
1.6031,0.2688,38.4600,93,94,328062
1.5934,0.2590,38.6200,93,94,328066
1.6178,0.2639,38.5200,93,94,328069
1.6080,0.2444,38.5800,93,94,328073
1.6129,0.2493,38.6200,93,94,328076
1.6471,0.2590,38.4900,93,94,328079
1.6471,0.2493,38.6200,93,94,328083
1.6813,0.2590,38.2700,93,94,328086
1.6667,0.2542,38.5500,93,94,328089
1.6667,0.2542,38.6500,93,94,328092
1.6862,0.2639,38.5800,93,94,328096
1.6764,0.2542,38.6200,93,94,328099
1.7253,0.2639,38.3300,93,94,328102
1.7058,0.2786,38.5800,93,94,328107
1.7351,0.2493,38.6200,93,94,328110
1.7546,0.2590,38.5800,93,94,328113
1.7546,0.2542,38.6200,93,94,328117
1.8133,0.2688,38.3600,93,94,328120
1.8035,0.2688,38.5200,93,94,328123
1.8035,0.2493,38.6200,93,94,328127
1.8084,0.2590,38.6200,93,94,328130
1.7937,0.2542,38.6800,93,94,328133
1.8328,0.2688,38.4300,93,94,328136
1.7937,0.2639,38.5800,93,94,328140
1.8035,0.2542,38.5200,93,94,328143
1.8035,0.2542,38.6200,93,94,328146
1.8182,0.2786,38.5800,93,94,328151
1.8377,0.2639,38.4900,93,94,328154
1.7889,0.2542,38.6500,93,94,328157
1.7791,0.2542,38.4900,93,94,328161
1.7302,0.2542,38.6200,93,94,328164
1.7449,0.2542,38.6200,93,94,328167
1.7302,0.2590,38.5500,93,94,328171
1.7253,0.2639,38.6500,93,94,328174
1.7498,0.2542,38.5200,93,94,328177
1.7253,0.2542,38.6200,93,94,328180
1.7302,0.2835,38.6200,93,94,328184
1.7595,0.2639,38.4900,93,94,328187
1.7449,0.2542,38.6200,93,94,328190
1.7693,0.2590,38.4000,93,94,328195
1.7302,0.2590,38.5800,93,94,328198
1.7058,0.2884,38.6200,93,94,328201
1.7204,0.2639,38.5500,93,94,328205
1.7009,0.2542,38.6200,93,94,328208
1.7449,0.2590,38.4300,93,94,328211
1.7204,0.2542,38.5200,93,94,328214
1.7204,0.2542,38.6500,93,94,328218
1.7498,0.2493,38.6200,93,94,328221
1.7302,0.2542,38.6200,93,94,328224
1.7840,0.2835,38.4000,93,94,328228
1.7595,0.2590,38.5500,93,94,328231
1.7742,0.2493,38.5500,93,94,328235
1.7791,0.2590,38.6200,93,94,328239
1.7791,0.2542,38.6200,93,94,328242
1.8035,0.2688,38.5800,93,94,328245
1.7693,0.2590,38.5800,93,94,328249
1.7644,0.2590,38.4900,93,94,328252
1.7498,0.2493,38.6200,93,94,328255
1.7693,0.2542,38.6200,93,94,328258
1.8133,0.2639,38.6800,93,94,328262
1.8035,0.2590,38.6200,93,94,328265
1.8328,0.2639,38.5500,93,94,328268
1.8133,0.2639,38.6200,93,94,328272
1.8035,0.2297,38.6800,93,94,328275
1.8133,0.2590,38.5200,93,94,328279
1.7937,0.2590,38.6200,93,94,328283
1.8231,0.2542,38.5200,93,94,328286
1.8035,0.2542,38.5500,93,94,328289
1.8084,0.2493,38.6200,93,94,328293
1.8182,0.2590,38.5500,93,94,328296
1.8084,0.2933,38.6500,93,94,328299
1.8719,0.2493,38.4000,93,94,328302
1.8182,0.2542,38.6200,93,94,328306
1.8231,0.2493,38.6200,93,94,328309
1.8280,0.2639,38.4600,93,94,328312
1.8084,0.2493,38.6200,93,94,328316
1.8671,0.2688,38.5800,93,94,328320
1.8426,0.2542,38.4900,93,94,328323
1.8573,0.2493,38.6200,93,94,328327
1.8280,0.2884,38.5800,93,94,328330
1.8182,0.2542,38.6200,93,94,328333
1.8817,0.2688,38.4300,93,94,328337
1.8573,0.2542,38.5500,93,94,328340
1.8719,0.2493,38.5500,93,94,328343
1.8719,0.2590,38.6500,93,94,328346
1.8719,0.2542,38.6200,93,94,328350
1.9208,0.2639,38.5500,93,94,328353
1.9159,0.2590,38.5500,93,94,328356
1.9404,0.2542,38.4900,93,94,328360
1.9159,0.2590,38.6500,93,94,328364
1.9013,0.2737,38.6800,93,94,328367
1.9013,0.2590,38.5800,93,94,328371
1.8622,0.2542,38.6200,93,94,328374
1.8719,0.2639,38.5200,93,94,328377
1.8377,0.2542,38.6200,93,94,328381
1.8573,0.2590,38.6200,93,94,328384
1.8671,0.2639,38.5200,93,94,328387
1.8475,0.2590,38.6200,93,94,328390
1.8964,0.2493,38.4300,93,94,328394
1.9110,0.2590,38.5500,93,94,328397
1.9550,0.2542,38.6500,93,94,328400
2.0577,0.2737,38.5200,93,94,328404
2.0870,0.2493,38.6200,93,94,328408
2.1750,0.2639,38.3600,93,94,328411
2.1652,0.2542,38.5500,93,94,328415
2.1848,0.2542,38.6500,93,94,328418
2.2336,0.2590,38.6500,93,94,328421
2.2483,0.2542,38.6500,93,94,328424
2.3460,0.2590,38.3300,93,94,328428
2.3265,0.2590,38.6800,93,94,328431
2.3803,0.2493,38.6200,93,94,328434
2.4878,0.2590,38.6200,93,94,328438
2.6002,0.2542,38.5800,93,94,328441
2.7517,0.2835,38.4300,93,94,328444
2.6588,0.2639,38.5500,93,94,328449
2.5073,0.2542,38.5200,93,94,328452
2.2483,0.2590,38.6200,93,94,328455
1.8866,0.2542,38.6200,93,94,328458
1.4907,0.2590,38.4600,93,94,328462
1.0704,0.2590,38.5800,93,94,328465
0.7576,0.2590,38.4900,93,94,328468
0.5132,0.2542,38.6500,93,94,328472
0.3617,0.2590,38.7700,93,94,328475
0.2981,0.2639,38.4900,93,94,328478
0.2981,0.2297,38.6500,93,94,328482
0.4448,0.2639,38.4600,93,94,328485
0.6452,0.2542,38.6200,93,94,328488
0.9042,0.2542,38.6200,93,94,328492
1.1632,0.2590,38.5500,93,94,328496
1.3783,0.2542,38.6200,93,94,328499
1.5689,0.2542,38.4900,93,94,328502
1.6667,0.2542,38.7100,93,94,328506
1.7693,0.2542,38.6800,93,94,328509
1.8182,0.2639,38.5800,93,94,328512
1.8328,0.2493,38.6200,93,94,328516
1.8915,0.2639,38.3600,93,94,328519
1.8817,0.2639,38.5500,93,94,328522
1.8768,0.2542,38.6200,93,94,328526
1.8964,0.2590,38.5500,93,94,328529
1.8817,0.2542,38.6200,93,94,328532
1.9257,0.2688,38.3600,93,94,328536
1.8768,0.2688,38.4900,93,94,328540
1.8573,0.2542,38.6200,93,94,328543
1.8524,0.2590,38.6500,93,94,328546
1.8622,0.2542,38.6200,93,94,328550
1.9599,0.2737,38.4300,93,94,328553
1.9110,0.2590,38.4300,93,94,328556
1.8964,0.2590,38.5500,93,94,328560
1.8768,0.2590,38.6200,93,94,328563
1.8573,0.2542,38.6200,93,94,328566
1.8671,0.2688,38.5200,93,94,328570
1.8035,0.2590,38.6200,93,94,328573
1.7889,0.2590,38.4600,93,94,328577
1.7449,0.2542,38.6200,93,94,328580
1.7449,0.2542,38.6500,93,94,328584
1.7595,0.2737,38.4900,93,94,328587
1.7204,0.2542,38.6200,93,94,328590
1.7400,0.2590,38.4900,93,94,328594
1.7155,0.2590,38.5800,93,94,328597
1.7253,0.2542,38.6500,93,94,328600
1.7155,0.2590,38.4000,93,94,328604
1.7155,0.2688,38.6200,93,94,328607
1.7449,0.2542,38.4600,93,94,328610
1.7644,0.2639,38.4000,93,94,328614
1.7302,0.2542,38.6800,93,94,328617
1.7498,0.2493,38.6200,93,94,328621
1.7742,0.2590,38.6200,93,94,328625
1.7742,0.2542,38.5800,93,94,328628
1.8622,0.2786,38.4300,93,94,328631
1.8182,0.2590,38.5800,93,94,328635
1.8328,0.2542,38.0800,93,94,328638
1.8524,0.2590,38.6200,93,94,328641
1.8573,0.2542,38.6200,93,94,328645
1.9013,0.2639,38.4300,93,94,328648
1.8964,0.2590,38.5800,93,94,328651
1.9306,0.2542,38.5500,93,94,328655
1.9501,0.2542,38.6800,93,94,328658
1.9892,0.2542,38.6800,93,94,328662
2.0235,0.2542,38.4900,93,94,328665
2.0235,0.2493,38.6200,93,94,328669
2.0381,0.2639,38.4900,93,94,328672
2.0283,0.2542,38.5800,93,94,328675
2.0577,0.2542,38.6500,93,94,328679
2.0968,0.2590,38.5800,93,94,328682
2.0968,0.2493,38.6200,93,94,328685
2.1310,0.2542,38.5500,93,94,328688
2.1114,0.2493,38.6200,93,94,328692
2.0968,0.2542,37.8700,93,94,328695
2.0919,0.2542,38.5200,93,94,328698
2.0430,0.2542,38.6200,93,94,328702
2.0674,0.2590,38.4000,93,94,328706
2.0381,0.2542,38.5200,93,94,328709
2.0235,0.2590,38.6800,93,94,328713
1.9990,0.2639,38.5200,93,94,328716
1.9453,0.2542,38.5800,93,94,328719
1.9648,0.2639,38.4300,93,94,328723
1.9062,0.2542,38.5800,93,94,328726
1.8817,0.2444,38.6800,93,94,328729
1.8622,0.2297,38.6200,93,94,328732
1.8328,0.2542,38.6500,93,94,328736
1.8671,0.2737,38.3600,93,94,328739
1.8133,0.2590,38.5500,93,94,328742
1.7986,0.2444,38.5800,93,94,328747
1.7791,0.2590,38.6200,93,94,328750
1.7498,0.2590,38.6200,93,94,328753
1.7595,0.2688,38.4300,93,94,328757
1.7155,0.2590,38.6500,93,94,328760
1.7058,0.2590,38.5500,93,94,328763
1.6813,0.2542,38.6800,93,94,328767
1.6764,0.2835,38.6200,93,94,328770
1.7107,0.2639,38.4600,93,94,328773
1.6911,0.2590,38.6200,93,94,328776
1.7449,0.2590,38.5200,93,94,328780
1.7107,0.2542,38.6200,93,94,328783
1.7204,0.2542,38.6200,93,94,328786
1.7351,0.2590,38.5200,93,94,328791
1.7351,0.2542,38.6500,93,94,328794
1.7693,0.2493,38.4600,93,94,328797
1.7644,0.2542,38.6500,93,94,328801
1.7742,0.2542,38.6200,93,94,328804
1.8035,0.2639,38.2400,93,94,328807
1.7791,0.2542,38.6200,93,94,328811
1.7986,0.2639,38.3600,93,94,328814
1.7498,0.2884,38.5800,93,94,328817
1.7644,0.2542,38.6200,93,94,328821
1.7937,0.2590,37.8300,93,94,328824
1.8133,0.2590,38.6200,93,94,328827
1.8768,0.2688,38.3300,93,94,328830
1.8377,0.2590,38.5200,93,94,328835
1.8182,0.2590,38.6200,93,94,328838
1.8133,0.2590,38.6800,93,94,328841
1.8133,0.2542,38.6200,93,94,328845
1.8671,0.2688,38.4300,93,94,328848
1.8426,0.2981,38.5500,93,94,328851
1.8426,0.2493,38.5200,93,94,328855
1.8328,0.2590,38.6200,93,94,328858
1.8280,0.2542,38.6500,93,94,328861
1.8671,0.2590,38.4900,93,94,328864
1.8524,0.2542,38.6200,93,94,328868
1.8866,0.2590,38.4900,93,94,328871
1.8768,0.2542,38.6200,93,94,328875
1.8817,0.2542,38.5200,93,94,328879
1.8866,0.2493,38.5500,93,94,328882
1.8671,0.2590,38.6200,93,94,328885
1.8866,0.2590,38.4900,93,94,328889
1.8524,0.2542,38.6200,93,94,328892
1.8524,0.2542,38.5800,93,94,328895
1.8671,0.2639,38.4900,93,94,328899
1.8328,0.2542,38.6200,93,94,328902
1.8524,0.2590,38.4000,93,94,328905
1.8280,0.2542,38.5200,93,94,328908
1.8182,0.2542,38.6200,93,94,328912
1.8671,0.2688,38.5500,93,94,328915
1.8133,0.2542,38.6500,93,94,328919
1.8524,0.2688,38.3300,93,94,328923
1.7986,0.2542,38.5500,93,94,328926
1.7742,0.2542,38.6500,93,94,328929
1.7840,0.2639,38.5800,93,94,328933
1.7498,0.2493,38.6200,93,94,328936
1.7889,0.2737,38.4000,93,94,328939
1.7449,0.2493,38.5500,93,94,328943
1.7498,0.2542,38.5500,93,94,328946
1.7742,0.2639,38.6200,93,94,328949
1.7693,0.2542,38.6800,93,94,328952
1.8133,0.2639,38.4900,93,94,328956
1.7840,0.2590,38.5800,93,94,328960
1.7791,0.2590,38.5500,93,94,328963
1.7644,0.2493,38.5800,93,94,328967
1.7742,0.2590,38.6800,93,94,328970
1.8328,0.2737,38.4600,93,94,328973
1.8182,0.2737,38.5800,93,94,328977
1.8377,0.2542,38.4600,93,94,328980
1.8280,0.2542,38.7400,93,94,328983
1.8280,0.2542,38.6500,93,94,328986
1.8475,0.2493,38.5200,93,94,328990
1.8133,0.2542,38.6500,93,94,328993
1.8475,0.2688,38.4300,93,94,328996
1.8280,0.2542,38.5800,93,94,329000
1.8573,0.2542,37.9600,93,94,329004
1.8915,0.2639,38.5500,93,94,329007
1.9355,0.2493,38.5800,93,94,329011
1.9501,0.2590,38.4000,93,94,329014
1.9159,0.2542,38.6200,93,94,329017
1.9062,0.2542,38.6500,93,94,329021
1.8964,0.2639,38.4900,93,94,329024
1.8866,0.2542,38.6500,93,94,329027
1.8817,0.2639,38.3600,93,94,329030
1.8377,0.2542,38.5200,93,94,329034
1.8133,0.2542,38.6500,93,94,329037
1.8133,0.2590,38.5200,93,94,329040
1.8035,0.2542,38.6200,93,94,329044
1.8524,0.2688,38.4300,93,94,329048
1.8133,0.2688,38.5200,93,94,329051
1.7986,0.2493,38.5800,93,94,329055
1.7889,0.2590,38.5200,93,94,329058
1.7742,0.2444,38.6200,93,94,329061
1.8035,0.2688,38.4600,93,94,329064
1.7840,0.2590,38.5200,93,94,329068
1.7937,0.2542,38.4900,93,94,329071
1.7840,0.2590,38.6500,93,94,329074
1.7742,0.2542,38.6800,93,94,329078
1.7889,0.2737,38.5500,93,94,329081
1.7644,0.2639,38.6200,93,94,329084
1.7840,0.2590,38.4600,93,94,329089
1.7546,0.2590,38.6500,93,94,329092
1.7644,0.2542,38.6200,93,94,329095
1.8035,0.2688,38.4300,93,94,329099
1.8133,0.2590,38.6200,93,94,329102
1.8328,0.2542,38.4900,93,94,329105
1.8328,0.2542,38.6200,93,94,329108
1.8573,0.2493,38.6200,93,94,329112
1.9110,0.2639,38.5200,93,94,329115
1.9404,0.2493,38.4900,93,94,329118
2.0332,0.2639,38.3000,93,94,329122
2.1065,0.2639,38.5800,93,94,329125
2.2483,0.2542,38.6200,93,94,329128
2.4633,0.2639,38.5800,93,94,329133
2.6686,0.2542,38.6200,93,94,329136
2.9765,0.2493,38.3600,93,94,329139
3.1085,0.2542,38.5800,93,94,329143
3.2454,0.2493,38.6200,93,94,329146
3.2698,0.2590,38.6200,93,94,329149
3.1134,0.2737,38.5800,93,94,329152
2.9081,0.2737,38.4000,93,94,329156
2.5269,0.2590,38.5500,93,94,329159
2.2287,0.2542,38.2400,93,94,329162
1.9844,0.2590,38.6200,93,94,329166
1.8084,0.2542,38.7400,93,94,329169
1.7058,0.2737,38.4300,93,94,329172
1.5787,0.2590,38.7100,93,94,329177
1.5103,0.2590,38.5200,93,94,329180
1.4565,0.2590,38.6200,93,94,329183
1.4321,0.2542,38.6500,93,94,329186
1.4516,0.2639,38.4900,93,94,329190
1.4321,0.2639,38.6200,93,94,329193
1.4516,0.2639,38.4900,93,94,329196
1.4370,0.2590,38.6500,93,94,329200
1.4370,0.2493,38.6200,93,94,329203
1.4663,0.2590,38.4000,93,94,329206
1.4956,0.2835,38.6200,93,94,329210
1.5591,0.2493,38.4600,93,94,329213
1.5640,0.2590,38.6500,93,94,329217
1.5787,0.2639,38.6800,93,94,329221
1.5836,0.2639,38.5500,93,94,329224
1.6471,0.2590,38.5800,93,94,329228
1.6520,0.2542,38.6800,93,94,329231
1.7204,0.2688,38.4000,93,94,329234
1.7009,0.2590,38.5200,93,94,329237
1.7058,0.2542,38.6200,93,94,329241
1.7155,0.2835,38.6200,93,94,329244
1.7204,0.2542,38.6200,93,94,329247
1.7742,0.2688,38.4300,93,94,329251
1.7595,0.2590,38.5800,93,94,329254
1.7840,0.2542,38.5200,93,94,329257
1.7742,0.2688,38.6200,93,94,329262
1.7791,0.2542,38.6500,93,94,329265
1.7986,0.2688,38.5500,93,94,329268
1.8182,0.2493,38.6200,93,94,329272
1.8182,0.2590,38.4900,93,94,329275
1.7986,0.2493,38.6800,93,94,329278
1.7986,0.2297,38.6200,93,94,329281
1.8182,0.2688,38.6500,93,94,329285
1.7986,0.2542,38.6200,93,94,329288
1.8280,0.2542,38.4900,93,94,329291
1.8133,0.2835,38.5500,93,94,329295
1.8231,0.2542,38.6500,93,94,329298
1.8475,0.2688,38.5200,93,94,329302
1.8231,0.2590,38.6200,93,94,329306
1.8573,0.2639,38.4000,93,94,329309
1.8280,0.2590,38.6200,93,94,329312
1.8280,0.2542,38.6500,93,94,329316
1.8426,0.2590,38.5800,93,94,329319
1.8475,0.2542,38.6200,93,94,329322
1.8866,0.2639,38.3300,93,94,329325
1.8524,0.2639,38.5500,93,94,329329
1.8622,0.2493,38.6200,93,94,329332
1.8671,0.2590,38.6200,93,94,329335
1.8622,0.2542,38.6200,93,94,329339
1.9110,0.2786,38.4300,93,94,329342
1.8671,0.2542,38.5800,93,94,329346
1.8524,0.2542,38.5200,93,94,329350
1.8328,0.2590,38.6200,93,94,329353
1.8328,0.2542,38.6200,93,94,329356
1.8622,0.2639,38.4600,93,94,329360
1.8328,0.2590,38.5800,93,94,329363
1.8426,0.2590,38.5200,93,94,329366
1.8231,0.2786,38.6200,93,94,329369
1.8426,0.2542,38.6200,93,94,329373
1.8817,0.2688,38.5200,93,94,329376
1.8768,0.2542,38.6200,93,94,329379
1.9159,0.2639,38.5200,93,94,329383
1.8866,0.2639,38.5800,93,94,329387
1.9013,0.2542,38.6500,93,94,329390
1.9257,0.2590,38.9000,93,94,329394
1.9306,0.2542,38.6200,93,94,329397
1.9648,0.2590,38.4600,93,94,329400
1.9550,0.2590,38.6200,93,94,329404
1.9697,0.2737,38.6500,93,94,329407
1.9941,0.2639,38.5500,93,94,329410
1.9746,0.2737,38.6200,93,94,329413
2.0235,0.2639,38.3600,93,94,329417
2.0039,0.2590,38.5800,93,94,329420
1.9941,0.2542,38.7100,93,94,329423
2.0137,0.2590,38.5800,93,94,329427
1.9990,0.2493,38.6500,93,94,329431
2.0577,0.2639,38.3000,93,94,329434
2.0332,0.2542,38.5200,93,94,329438
2.0039,0.2542,38.6200,93,94,329441
1.9892,0.2590,38.6200,93,94,329444
1.9697,0.2542,38.5200,93,94,329447
2.0186,0.2737,38.4300,93,94,329451
1.9795,0.2590,38.5800,93,94,329454
1.9941,0.2542,38.6200,93,94,329457
2.0381,0.2542,38.6500,93,94,329461
2.0039,0.2542,38.6800,93,94,329464
2.0235,0.2688,38.5200,93,94,329467
1.9844,0.2639,38.5800,93,94,329472
1.9844,0.2493,38.5200,93,94,329475
1.9599,0.2542,38.6200,93,94,329478
1.9550,0.2542,38.6200,93,94,329481
1.9844,0.2688,38.4600,93,94,329485
1.9404,0.2639,38.6200,93,94,329488
1.9599,0.2639,38.5200,93,94,329491
1.9257,0.2493,38.6200,93,94,329495
1.9208,0.2493,38.6800,93,94,329498
1.9306,0.2590,38.5200,93,94,329501
1.8964,0.2590,38.6200,93,94,329505
1.9159,0.2590,38.4600,93,94,329508
1.8817,0.2542,38.5800,93,94,329511
1.9159,0.2542,38.6200,93,94,329516
1.9110,0.2639,38.5500,93,94,329519
1.8964,0.2542,38.6200,93,94,329522
1.9355,0.2639,38.4000,93,94,329525
1.8817,0.2639,38.5800,93,94,329529
1.8866,0.2493,38.6200,93,94,329532
1.8964,0.2639,38.6200,93,94,329535
1.8915,0.2493,38.6200,93,94,329539
1.9501,0.2786,38.3300,93,94,329542
1.9257,0.2639,38.4600,93,94,329545
1.9110,0.2542,38.5800,93,94,329549
1.9257,0.2542,38.5800,93,94,329552
1.9355,0.2542,38.6200,93,94,329555
1.9892,0.2688,38.4000,93,94,329560
1.9599,0.2590,38.5800,93,94,329563
1.9501,0.2542,38.5200,93,94,329566
1.9306,0.2542,38.6200,93,94,329569
1.9453,0.2590,38.6200,93,94,329573
1.9697,0.2639,38.5500,93,94,329576
1.9501,0.2688,38.6200,93,94,329579
1.9746,0.2590,38.4600,93,94,329583
1.9453,0.2542,38.6500,93,94,329586
1.9501,0.2542,38.6500,93,94,329589
1.9599,0.2542,38.4000,93,94,329593
1.9599,0.2542,38.6200,93,94,329596
1.9892,0.2542,38.5200,93,94,329600
1.9648,0.2590,38.6200,93,94,329604
1.9550,0.2542,38.6200,93,94,329607
1.9892,0.2639,38.5200,93,94,329610
1.9550,0.2493,38.4000,93,94,329613
1.9990,0.2297,38.4000,93,94,329617
1.9844,0.2590,38.5800,93,94,329620
1.9746,0.2542,38.6800,93,94,329623
2.0039,0.2639,38.5500,93,94,329627
1.9892,0.2542,38.6500,93,94,329630
2.0479,0.2590,38.3600,93,94,329633
2.0283,0.2884,38.5200,93,94,329637
2.0235,0.2542,38.6500,93,94,329640
2.0430,0.2590,38.6200,93,94,329644
2.0332,0.2542,38.6800,93,94,329647
2.1065,0.2688,38.3600,93,94,329651
2.0821,0.2493,38.5500,93,94,329654
2.0821,0.2493,38.5800,93,94,329657
2.0870,0.2542,38.6200,93,94,329661
2.0674,0.2297,38.6200,93,94,329664
2.0968,0.2688,37.9600,93,94,329667
2.0283,0.2639,38.5800,93,94,329671
1.9844,0.2542,38.5500,93,94,329674
1.9501,0.2542,38.5800,93,94,329677
1.9355,0.2542,38.6200,93,94,329680
1.9599,0.2688,38.4600,93,94,329684
1.9159,0.2493,38.6200,93,94,329688
1.9306,0.2590,38.4900,93,94,329691
1.8964,0.2542,38.6500,93,94,329695
1.8866,0.2590,38.6800,93,94,329698
1.9013,0.2639,38.5500,93,94,329701
1.8671,0.2688,38.6200,93,94,329705
1.9257,0.2493,38.5200,93,94,329708
1.8622,0.2493,38.5800,93,94,329711
1.8671,0.2493,38.6200,93,94,329715
1.8768,0.2590,38.5500,93,94,329718
1.8622,0.2542,38.8400,93,94,329721
1.8866,0.2590,38.4300,93,94,329724
1.8524,0.2590,38.5500,93,94,329729
1.8524,0.2542,38.6800,93,94,329732
1.8719,0.2639,38.5500,93,94,329735
1.8573,0.2590,38.6200,93,94,329739
1.9062,0.2639,38.3300,93,94,329742
1.8915,0.2590,38.5200,93,94,329745
1.8866,0.2542,38.6500,93,94,329749
1.9013,0.2590,38.5800,93,94,329752
1.9062,0.2542,38.7100,93,94,329755
1.9697,0.2688,38.3600,93,94,329758
1.9501,0.2590,38.5200,93,94,329762
1.9648,0.2493,38.7100,93,94,329765
2.0430,0.2590,38.6200,93,94,329768
2.1114,0.2542,38.6200,93,94,329773
2.3069,0.2688,38.4300,93,94,329776
2.4389,0.2590,38.5800,93,94,329779
2.6540,0.2542,38.5200,93,94,329783
2.8592,0.2542,38.7700,93,94,329786
3.0841,0.2542,38.6200,93,94,329789
3.2845,0.2639,38.7700,93,94,329793
3.2942,0.2493,38.6800,93,94,329796
3.2014,0.2590,38.4600,93,94,329799
2.8935,0.2590,38.5800,93,94,329802
2.5855,0.2542,38.6800,93,94,329806
2.3460,0.2639,38.4900,93,94,329809
2.0723,0.2542,38.6200,93,94,329812
1.9110,0.2542,38.4900,93,94,329817
1.7302,0.2493,38.5500,93,94,329820
1.6178,0.2542,38.6200,93,94,329823
1.5591,0.2590,38.5200,93,94,329827
1.5005,0.2542,38.5200,93,94,329830
1.5103,0.2786,38.4000,93,94,329833
1.5787,0.2688,38.3600,93,94,329837
1.5640,0.2542,38.5200,93,94,329840
1.5689,0.2493,38.4300,93,94,329843
1.5787,0.2639,38.6800,93,94,329847
1.5885,0.2542,38.6800,93,94,329850
1.6520,0.2786,38.4900,93,94,329853
1.6373,0.2493,38.5800,93,94,329858
1.6667,0.2542,38.5200,93,94,329861
1.6862,0.2542,38.6200,93,94,329864
1.7058,0.2542,38.6500,93,94,329868
1.7498,0.2688,38.4900,93,94,329871
1.7302,0.2590,38.6200,93,94,329874
1.7498,0.2590,38.4300,93,94,329878
1.7302,0.2542,38.6500,93,94,329881
1.7351,0.2542,38.6200,93,94,329884
1.7937,0.2590,38.5200,93,94,329888
1.7498,0.2493,38.6200,93,94,329891
1.7840,0.2542,38.5800,93,94,329894
1.7644,0.2542,38.5800,93,94,329897
1.7693,0.2493,38.7400,93,94,329902
1.7889,0.2639,38.4900,93,94,329905
1.7889,0.2542,38.6200,93,94,329908
1.8231,0.2590,38.4600,93,94,329912
1.7986,0.2542,38.6200,93,94,329915
1.8084,0.2493,38.7100,93,94,329918
1.8182,0.2590,38.5800,93,94,329922
1.8084,0.2542,38.6200,93,94,329925
1.8573,0.2639,38.3300,93,94,329928
1.8231,0.2493,38.5200,93,94,329932
1.8133,0.2542,38.6200,93,94,329935
1.8231,0.2493,38.6200,93,94,329938
1.8182,0.2542,38.6200,93,94,329942
1.8817,0.2835,38.4000,93,94,329946
1.8475,0.2639,38.5500,93,94,329949
1.8475,0.2493,38.6800,93,94,329952
1.8622,0.2639,38.6200,93,94,329956
1.8915,0.2542,38.6200,93,94,329959
1.9453,0.2639,38.4900,93,94,329962
1.9355,0.2590,38.5800,93,94,329966
1.9404,0.2542,38.5200,93,94,329969
1.9110,0.2542,38.5800,93,94,329972
1.9013,0.2493,38.6200,93,94,329976
1.9110,0.2688,38.5800,93,94,329979
1.9208,0.2639,38.6200,93,94,329982
1.9062,0.2590,38.4900,93,94,329986
1.8719,0.2737,38.6500,93,94,329990
1.8866,0.2493,38.6200,93,94,329993
1.9208,0.2639,38.5500,93,94,329996
1.9062,0.2590,38.6200,93,94,330000
1.9355,0.2542,38.4600,93,94,330003
1.9257,0.2639,38.5200,93,94,330006
1.9306,0.2542,38.6200,93,94,330010
1.9550,0.2884,38.5500,93,94,330013
1.9306,0.2590,38.6200,93,94,330016
1.9746,0.2590,38.4000,93,94,330019
1.9306,0.2688,38.5800,93,94,330023
1.9355,0.2542,38.6200,93,94,330027
1.9746,0.2590,38.5800,93,94,330030
1.9844,0.2542,38.6200,93,94,330034
2.0577,0.2639,38.3300,93,94,330037
2.0235,0.2542,38.5500,93,94,330040
2.0235,0.2493,38.7400,93,94,330044
2.0332,0.2639,38.6800,93,94,330047
2.0283,0.2542,38.7100,93,94,330050
2.0968,0.2688,38.4000,93,94,330054
2.0626,0.2542,38.5500,93,94,330057
2.0577,0.2493,38.5500,93,94,330060
2.0577,0.2639,38.6200,93,94,330063
2.0723,0.2493,38.6200,93,94,330067
2.0968,0.2639,38.4300,93,94,330071
2.0577,0.2590,38.5800,93,94,330074
2.0626,0.2542,38.4900,93,94,330078
2.0332,0.2542,38.6200,93,94,330081
2.0381,0.2542,38.6500,93,94,330084
2.0723,0.2639,38.4600,93,94,330088
2.0723,0.2493,38.6200,93,94,330091
2.0723,0.2590,38.4900,93,94,330094
2.0381,0.2542,38.5500,93,94,330097
2.0283,0.2542,38.6500,93,94,330101
2.0381,0.2493,38.5500,93,94,330104
2.0235,0.2542,38.5800,93,94,330107
2.0528,0.2737,38.4900,93,94,330112
2.0283,0.2542,38.6500,93,94,330115
2.0283,0.2493,38.5800,93,94,330118
2.0479,0.2688,38.4900,93,94,330122
2.0186,0.2493,38.6200,93,94,330125
2.0381,0.2590,38.4300,93,94,330128
2.0088,0.2590,38.4900,93,94,330131
1.9892,0.2493,38.8400,93,94,330135
2.0137,0.2590,38.5200,93,94,330138
1.9990,0.2542,38.8400,93,94,330141
2.0577,0.2590,38.3300,93,94,330145
2.0381,0.2542,38.5500,93,94,330148
2.0137,0.2493,38.6200,93,94,330151
2.0186,0.2639,38.4600,93,94,330155
2.0088,0.2493,38.5800,93,94,330159
2.0626,0.2639,38.3300,93,94,330162
2.0088,0.2542,38.5500,93,94,330165
2.0137,0.2493,38.5800,93,94,330169
2.0186,0.2590,38.6800,93,94,330172
2.0137,0.2493,38.6500,93,94,330175
2.0674,0.2688,38.4300,93,94,330179
2.0332,0.2493,38.5500,93,94,330182
2.0283,0.2493,38.5200,93,94,330185
2.0283,0.2786,38.6200,93,94,330188
2.0381,0.2542,38.6800,93,94,330192
2.0870,0.2639,38.4300,93,94,330195
2.0528,0.2542,38.7100,93,94,330199
2.0626,0.2493,38.5500,93,94,330203
2.0430,0.2493,38.6200,93,94,330206
2.0528,0.2493,38.6500,93,94,330209
2.0919,0.2590,38.5200,93,94,330213
2.0772,0.2542,38.6800,93,94,330216
2.1114,0.2590,38.4900,93,94,330219
2.0821,0.2542,38.6500,93,94,330222
2.0919,0.2493,38.6500,93,94,330226
2.1114,0.2542,38.6800,93,94,330229
2.1065,0.2542,38.5800,93,94,330232
2.1261,0.2542,38.4600,93,94,330236
2.0772,0.2542,38.6200,93,94,330240
2.0772,0.2297,38.6200,93,94,330243
2.0870,0.2590,38.4900,93,94,330247
2.0528,0.2493,38.6200,93,94,330250
2.1212,0.2542,38.4000,93,94,330253
2.0674,0.2542,38.5200,93,94,330256
2.0528,0.2493,38.6200,93,94,330260
2.0821,0.2590,38.5500,93,94,330263
2.0674,0.2493,38.6200,93,94,330266
2.1261,0.2639,38.3300,93,94,330270
2.0968,0.2493,38.5500,93,94,330273
2.0968,0.2493,38.6500,93,94,330276
2.1114,0.2542,38.5800,93,94,330280
2.1212,0.2542,38.6200,93,94,330284
2.1750,0.2688,38.3600,93,94,330287
2.1408,0.2884,38.5500,93,94,330290
2.1457,0.2493,38.5800,93,94,330294
2.1652,0.2542,38.6800,93,94,330297
2.1750,0.2590,38.6200,93,94,330300
2.2336,0.2688,38.4900,93,94,330304
2.1994,0.2590,38.4600,93,94,330307
2.2043,0.2590,38.5500,93,94,330310
2.1896,0.2542,38.6200,93,94,330314
2.1799,0.2493,38.6800,93,94,330317
2.1994,0.2590,38.4300,93,94,330320
2.1554,0.2542,38.6200,93,94,330323
2.1505,0.2542,38.4600,93,94,330328
2.0968,0.2590,38.6200,93,94,330331
2.0772,0.2493,38.6200,93,94,330334
2.0919,0.2590,38.4600,93,94,330338
2.0626,0.2639,38.6500,93,94,330341
2.0919,0.2493,38.4900,93,94,330344
2.0479,0.2444,38.6200,93,94,330348
2.0332,0.2493,38.1100,93,94,330351
2.0283,0.2639,38.5200,93,94,330354
2.0137,0.2542,38.5800,93,94,330357
2.0283,0.2542,38.4600,93,94,330361
1.9892,0.2688,38.6200,93,94,330364
2.0039,0.2542,38.6200,93,94,330368
1.9892,0.2590,38.5500,93,94,330372
1.9648,0.2590,38.6500,93,94,330375
2.0137,0.2590,38.3600,93,94,330378
1.9941,0.2493,38.5500,93,94,330382
1.9795,0.2493,38.5200,93,94,330385
1.9990,0.2590,38.5800,93,94,330388
1.9844,0.2493,38.6200,93,94,330391
2.0430,0.2639,38.4000,93,94,330395
2.0088,0.2493,38.4900,93,94,330398
1.9990,0.2444,38.5800,93,94,330401
2.0137,0.2542,38.6200,93,94,330405
2.0283,0.2786,38.6200,93,94,330408
2.1212,0.2639,38.4600,93,94,330412
2.1261,0.2542,38.6200,93,94,330416
2.1945,0.2542,38.5500,93,94,330419
2.2727,0.2542,38.6200,93,94,330422
2.3803,0.2884,38.6200,93,94,330425
2.5709,0.2590,38.5200,93,94,330429
2.7370,0.2542,38.5800,93,94,330432
2.9717,0.2297,38.4900,93,94,330435
3.1623,0.2590,38.6200,93,94,330439
3.3138,0.2493,38.6800,93,94,330442
3.4018,0.2639,38.5200,93,94,330445
2.1554,0.2542,38.4900,93,94,330449
1.9501,0.2737,38.5500,93,94,330452
1.8524,0.2493,38.4000,93,94,330457
1.7204,0.2542,38.5800,93,94,330460
1.6471,0.2590,38.6200,93,94,330463
1.6227,0.2542,38.5800,93,94,330467
1.5836,0.2493,38.6200,93,94,330470
1.6080,0.2688,38.3300,93,94,330473
1.5738,0.2493,38.5800,93,94,330476
1.5934,0.2688,38.6200,93,94,330480
1.6080,0.2542,38.6200,93,94,330483
1.6227,0.2493,38.6500,93,94,330486
1.7204,0.2688,38.4300,93,94,330490
1.6569,0.2590,38.6500,93,94,330493
1.6618,0.2493,38.5800,93,94,330497
1.6764,0.2542,38.6200,93,94,330501
1.6960,0.2493,38.6500,93,94,330504
1.7498,0.2542,38.4300,93,94,330507
1.7400,0.2542,38.7400,93,94,330511
1.7595,0.2493,38.4600,93,94,330514
1.7742,0.2493,38.6200,93,94,330517
1.7840,0.2493,38.7700,93,94,330520
1.8426,0.2542,38.4900,93,94,330524
1.8035,0.2493,38.6200,93,94,330527
1.8231,0.2590,38.4300,93,94,330530
1.7937,0.2590,38.6500,93,94,330534
1.7937,0.2493,38.6200,93,94,330537
1.8084,0.2590,38.5500,93,94,330541
1.8133,0.2542,38.6200,93,94,330545
1.8377,0.2493,38.4600,93,94,330548
1.8182,0.2297,38.6200,93,94,330551
1.8231,0.2493,38.5500,93,94,330554
1.8377,0.2590,38.5500,93,94,330558
1.8280,0.2493,38.6500,93,94,330561
1.8719,0.2542,38.3600,93,94,330564
1.8524,0.2590,38.5200,93,94,330568
1.8377,0.2493,38.7400,93,94,330571
1.8475,0.2493,38.5800,93,94,330574
1.8426,0.2493,38.6200,93,94,330578
1.9013,0.2639,38.3300,93,94,330582
1.8671,0.2542,38.4900,93,94,330585
1.8622,0.2395,38.6200,93,94,330589
1.8622,0.2542,38.6200,93,94,330592
1.8622,0.2493,38.5500,93,94,330595
1.9110,0.2688,38.4600,93,94,330599
1.8866,0.2542,38.7700,93,94,330602
1.8866,0.2542,38.5200,93,94,330605
1.8671,0.2297,38.6200,93,94,330608
1.8622,0.2444,38.6200,93,94,330612
1.8915,0.2590,38.5800,93,94,330615
1.8866,0.2493,38.7100,93,94,330618
1.9159,0.2493,38.4600,93,94,330622
1.8915,0.2493,38.6200,93,94,330626
1.8866,0.2493,38.6200,93,94,330629
1.9062,0.2590,38.4900,93,94,330633
1.8671,0.2493,38.7400,93,94,330636
1.8915,0.2542,38.4900,93,94,330639
1.8377,0.2493,38.5500,93,94,330643
1.8426,0.2493,38.6500,93,94,330646
1.8768,0.2590,38.5200,93,94,330649
1.8719,0.2493,38.7100,93,94,330652
1.9159,0.2590,38.3600,93,94,330656
1.8915,0.2493,38.5500,93,94,330659
1.8866,0.2493,38.5800,93,94,330662
1.9062,0.2542,38.5800,93,94,330667
1.8866,0.2493,38.6500,93,94,330670
1.9306,0.2590,38.3600,93,94,330673
1.8915,0.2493,38.5500,93,94,330677
1.8915,0.2493,38.6500,93,94,330680
1.9062,0.2493,38.5800,93,94,330683
1.8964,0.2493,38.5800,93,94,330687
1.9501,0.2688,38.4300,93,94,330690
1.9062,0.2590,38.5800,93,94,330693
1.9062,0.2493,38.5500,93,94,330696
1.9110,0.2493,38.6200,93,94,330700
1.9257,0.2493,38.7400,93,94,330703
1.9697,0.2639,38.4300,93,94,330706
1.9453,0.2542,38.5800,93,94,330711
1.9550,0.2444,38.4900,93,94,330714
1.9453,0.2493,38.6500,93,94,330717
1.9550,0.2493,38.6500,93,94,330721
1.9844,0.2639,38.5200,93,94,330724
1.9501,0.2493,38.6200,93,94,330727
1.9697,0.2590,38.4900,93,94,330731
1.9257,0.2542,38.6800,93,94,330734
1.9257,0.2493,38.6200,93,94,330737
1.9257,0.2688,38.5500,93,94,330740
1.9013,0.2493,38.6200,93,94,330744
1.9306,0.2542,37.9300,93,94,330747
1.8964,0.2493,38.6200,93,94,330750
1.8866,0.2493,38.6200,93,94,330755
1.9257,0.2688,38.5200,93,94,330758
1.8671,0.2493,38.7100,93,94,330761
1.9062,0.2835,38.3600,93,94,330765
1.8915,0.2542,38.5200,93,94,330768
1.8866,0.2493,38.6200,93,94,330771
1.9013,0.2542,38.5800,93,94,330775
1.8817,0.2493,38.6200,93,94,330778
1.9306,0.2688,38.3300,93,94,330781
1.8866,0.2542,38.4900,93,94,330784
1.8768,0.2444,38.3000,93,94,330788
1.8768,0.2590,38.6200,93,94,330791
1.8671,0.2542,38.6200,93,94,330795
1.9062,0.2688,38.4000,93,94,330799
1.8671,0.2542,38.6200,93,94,330802
1.8671,0.2542,38.5800,93,94,330805
1.8622,0.2493,38.6200,93,94,330809
1.8573,0.2493,38.6200,93,94,330812
1.8768,0.2590,38.5500,93,94,330815
1.8524,0.2590,38.5800,93,94,330819
1.8573,0.2542,38.4900,93,94,330822
1.8280,0.2493,38.6500,93,94,330825
1.8231,0.2395,38.6800,93,94,330828
1.8622,0.2590,38.6800,93,94,330832
1.8426,0.2542,38.6200,93,94,330835
1.8768,0.2493,38.4900,93,94,330839
1.8524,0.2493,38.7700,93,94,330843
1.8622,0.2444,38.6200,93,94,330846
1.8915,0.2542,38.5500,93,94,330849
1.8817,0.2444,38.6200,93,94,330853
1.9208,0.2542,38.4000,93,94,330856
1.9013,0.2493,38.4900,93,94,330859
1.9159,0.2542,38.6200,93,94,330863
1.9404,0.2590,38.5800,93,94,330866
1.9257,0.2493,38.5200,93,94,330869
1.9550,0.2590,38.4300,93,94,330872
1.9013,0.2493,37.8300,93,94,330876
1.8964,0.2493,38.6200,93,94,330880
1.9208,0.2297,38.5800,93,94,330883
1.9110,0.2493,38.6500,93,94,330887
1.9697,0.2590,38.4000,93,94,330890
1.9355,0.2542,38.5200,93,94,330893
1.9208,0.2444,38.7700,93,94,330897
1.9257,0.2590,38.6200,93,94,330900
1.9159,0.2493,38.6800,93,94,330903
1.9550,0.2933,38.4300,93,94,330906
1.9257,0.2542,38.5500,93,94,330910
1.9306,0.2493,38.4900,93,94,330913
1.9208,0.2493,38.6200,93,94,330916
1.9062,0.2493,38.6800,93,94,330920
1.9257,0.2639,38.4900,93,94,330924
1.9062,0.2493,38.6200,93,94,330927
1.9257,0.2542,38.5200,93,94,330931
1.9062,0.2737,38.6200,93,94,330934
1.9159,0.2493,38.6200,93,94,330937
1.9355,0.2590,38.5200,93,94,330941
1.9501,0.2493,38.6200,93,94,330944
1.9941,0.2493,38.4600,93,94,330947
1.9746,0.2542,38.6200,93,94,330950
1.9697,0.2493,38.5800,93,94,330954
1.9746,0.2542,38.5200,93,94,330957
1.9404,0.2493,38.6200,93,94,330960
1.9844,0.2639,38.3600,93,94,330964
1.9697,0.2297,38.5500,93,94,330968
1.9550,0.2493,38.8100,93,94,330971
1.9453,0.2590,38.5800,93,94,330975
1.9013,0.2493,38.6500,93,94,330978
1.9257,0.2590,38.3000,93,94,330981
1.8768,0.2542,38.5200,93,94,330985
1.8573,0.2444,38.5800,93,94,330988
1.8524,0.2542,38.5800,93,94,330991
1.8231,0.2493,38.6200,93,94,330994
1.8573,0.2688,38.4600,93,94,330998
1.7937,0.2542,38.5800,93,94,331001
1.7644,0.2493,38.5500,93,94,331004
1.7449,0.2590,38.6200,93,94,331009
1.7498,0.2493,38.6500,93,94,331012
1.7889,0.2542,38.5200,93,94,331015
1.7644,0.2493,38.5800,93,94,331019
1.7791,0.2542,37.7400,93,94,331022
1.7498,0.2493,38.6200,93,94,331025
1.7644,0.2493,38.8400,93,94,331029
1.8280,0.2590,38.4900,93,94,331032
1.7742,0.2493,38.5800,93,94,331035
1.8182,0.2493,38.4900,93,94,331039
1.8035,0.2444,38.5800,93,94,331042
1.8280,0.2493,38.6500,93,94,331045
1.8475,0.2542,38.4900,93,94,331048
1.8231,0.2493,38.6200,93,94,331053
1.8622,0.2590,38.4000,93,94,331056
2.2092,0.2884,38.3600,93,94,331060
2.3216,0.2297,38.5500,93,94,331063
2.5024,0.2444,38.7100,93,94,331066
2.7126,0.2493,38.6200,93,94,331070
2.9130,0.2493,38.6500,93,94,331073
3.1720,0.2884,38.4600,93,94,331076
3.2307,0.2493,38.5800,93,94,331080
3.2111,0.2493,38.5800,93,94,331083
3.0156,0.2493,38.6200,93,94,331086
2.7517,0.2493,38.6500,93,94,331090
2.5024,0.2590,38.4000,93,94,331094
2.1994,0.2639,38.5800,93,94,331097
2.0039,0.2542,38.5200,93,94,331100
1.8035,0.2493,38.8100,93,94,331104
1.6618,0.2639,38.6200,93,94,331107
1.5836,0.2590,38.5500,93,94,331110
1.5103,0.2493,38.6200,93,94,331114
1.5200,0.2590,38.4900,93,94,331117
1.4809,0.2297,38.6200,93,94,331120
1.4858,0.2493,38.6500,93,94,331124
1.5152,0.2639,38.5500,93,94,331127
1.5200,0.2493,38.6800,93,94,331130
1.5543,0.2542,38.3600,93,94,331133
1.5396,0.2493,38.6500,93,94,331138
1.5591,0.2639,38.6500,93,94,331141
1.5934,0.2590,38.5500,93,94,331144
1.6031,0.2493,38.6200,93,94,331148
1.6911,0.2639,38.3600,93,94,331151
1.6862,0.2590,38.6800,93,94,331154
1.6911,0.2590,38.6200,93,94,331158
1.7058,0.2590,38.6200,93,94,331161
1.6911,0.2493,38.5200,93,94,331164
1.7498,0.2737,38.3600,93,94,331168
1.7204,0.2639,38.5500,93,94,331171
1.7302,0.2395,38.5800,93,94,331174
1.7107,0.2542,38.6200,93,94,331179
1.7107,0.2639,38.6200,93,94,331182
1.7595,0.2639,38.4900,93,94,331185
1.7400,0.2542,38.8100,93,94,331188
1.7644,0.2542,38.4900,93,94,331192
1.7693,0.2542,38.6200,93,94,331195
1.7889,0.2542,38.6200,93,94,331198
1.8280,0.2590,38.5800,93,94,331202
1.8133,0.2542,38.6800,93,94,331205
1.8377,0.2639,38.4900,93,94,331208
1.8133,0.2493,38.6500,93,94,331212
1.8426,0.2542,38.6200,93,94,331215
1.8426,0.2639,38.4900,93,94,331218
1.8475,0.2542,38.6200,93,94,331223
1.8719,0.2542,38.4600,93,94,331226
1.8719,0.2542,38.5200,93,94,331229
1.8866,0.2493,38.6200,93,94,331232
1.9062,0.2639,38.5200,93,94,331236
1.8866,0.2542,38.6500,93,94,331239
1.9208,0.2590,38.4000,93,94,331242
1.8817,0.2590,38.5800,93,94,331246
1.8817,0.2590,38.6200,93,94,331249
1.9257,0.2590,38.5800,93,94,331252
1.9501,0.2297,38.6200,93,94,331256
2.0137,0.2639,38.3000,93,94,331259
1.9501,0.2493,38.5800,93,94,331262
1.9453,0.2493,38.6800,93,94,331266
1.9501,0.2542,38.5800,93,94,331270
1.9453,0.2297,38.6200,93,94,331273
1.9892,0.2737,38.4000,93,94,331276
1.9257,0.2542,38.5800,93,94,331280
1.9062,0.2493,38.5500,93,94,331283
1.9013,0.2542,38.6200,93,94,331286
1.9013,0.2493,38.6500,93,94,331290
1.9355,0.2639,38.4300,93,94,331293
1.9110,0.2542,38.5800,93,94,331296
1.9257,0.2542,38.4600,93,94,331300
1.9062,0.2542,38.6200,93,94,331303
1.9257,0.2493,38.7100,93,94,331307
1.9795,0.2590,38.5500,93,94,331311
1.9550,0.2297,38.6200,93,94,331314
1.9648,0.2590,38.6200,93,94,331317
1.9208,0.2542,38.5800,93,94,331320
1.9110,0.2493,38.6200,93,94,331324
1.9257,0.2444,38.5500,93,94,331327
1.9110,0.2493,38.6200,93,94,331330
1.9257,0.2542,38.4000,93,94,331334
1.9013,0.2297,38.6500,93,94,331337
1.9159,0.2542,38.6200,93,94,331340
1.9501,0.2493,38.5800,93,94,331344
1.9404,0.2542,38.5800,93,94,331347
1.9844,0.2639,38.4300,93,94,331351
1.9599,0.2590,38.5200,93,94,331355
1.9404,0.2493,38.6200,93,94,331358
1.9355,0.2590,38.5800,93,94,331361
1.8915,0.2542,38.6500,93,94,331364
1.9159,0.2933,38.3600,93,94,331368
1.8573,0.2542,38.4900,93,94,331371
1.8426,0.2884,38.5800,93,94,331374
1.8817,0.2542,38.6200,93,94,331378
1.8964,0.2542,38.6500,93,94,331381
1.9257,0.2639,38.4900,93,94,331384
1.8719,0.2590,38.5800,93,94,331388
1.8671,0.2542,38.4900,93,94,331392
1.8426,0.2493,38.6200,93,94,331395
1.8280,0.2542,38.6500,93,94,331399
1.8182,0.2493,38.5800,93,94,331402
1.7693,0.2542,38.6200,93,94,331405
1.7595,0.2590,38.5500,93,94,331408
1.7351,0.2542,38.6200,93,94,331412
1.7595,0.2542,38.6200,93,94,331415
1.7986,0.2639,38.4900,93,94,331418
1.7791,0.2590,38.6200,93,94,331422
1.8328,0.2542,38.4600,93,94,331425
1.8133,0.2542,38.6200,93,94,331428
1.8133,0.2542,38.6800,93,94,331432
1.8182,0.2884,38.5200,93,94,331436
1.7742,0.2542,38.6200,93,94,331439
1.7791,0.2639,38.4000,93,94,331443
1.7400,0.2639,38.5500,93,94,331446
1.7644,0.2493,38.6200,93,94,331449
1.7351,0.2590,38.5800,93,94,331452
1.7302,0.2542,38.6500,93,94,331456
1.7986,0.2639,38.3300,93,94,331459
1.7791,0.2542,38.5200,93,94,331462
1.8084,0.2444,38.6200,93,94,331466
1.7595,0.2590,38.5800,93,94,331469
1.7351,0.2639,38.6200,93,94,331472
1.7742,0.2688,38.4300,93,94,331476
1.7693,0.2590,38.5200,93,94,331480
1.7693,0.2542,38.5500,93,94,331483
1.7546,0.2542,38.6800,93,94,331487
1.7400,0.2590,38.6500,93,94,331490
1.7693,0.2835,38.4300,93,94,331493
1.7546,0.2590,38.5800,93,94,331496
1.7986,0.2639,38.4600,93,94,331500
1.7937,0.2542,38.6200,93,94,331503
1.8133,0.2542,38.6200,93,94,331506
1.8280,0.2688,38.5200,93,94,331510
1.7986,0.2542,38.6200,93,94,331513
1.8084,0.2639,38.5200,93,94,331516
1.7791,0.2590,38.6500,93,94,331521
1.7889,0.2542,38.6200,93,94,331524
1.7986,0.2590,38.4900,93,94,331527
1.8133,0.2639,38.6200,93,94,331531
1.8768,0.2590,38.4300,93,94,331534
1.8475,0.2933,38.6800,93,94,331537
1.8280,0.2542,38.6200,93,94,331540
1.8231,0.2639,38.5500,93,94,331544
1.7889,0.2542,38.6200,93,94,331547
1.8280,0.2786,38.3600,93,94,331550
1.8231,0.2542,38.5200,93,94,331554
1.8182,0.2493,38.7100,93,94,331557
1.8426,0.2590,38.5800,93,94,331560
1.8475,0.2542,38.7100,93,94,331565
1.9208,0.2981,38.3600,93,94,331568
1.8915,0.2590,38.4900,93,94,331571
1.8719,0.2493,38.5800,93,94,331575
1.8622,0.2590,38.6500,93,94,331578
1.8671,0.2639,38.6200,93,94,331581
1.8671,0.2639,38.4300,93,94,331584
1.8475,0.2639,38.5800,93,94,331588
1.8671,0.2542,38.7400,93,94,331591
1.8768,0.2542,38.6200,93,94,331594
1.8915,0.2542,38.5200,93,94,331598
1.9257,0.2639,38.5500,93,94,331601
1.9110,0.2590,38.6200,93,94,331604
1.9453,0.2590,38.4600,93,94,331609
1.9453,0.2297,38.6200,93,94,331612
1.9599,0.2542,38.6500,93,94,331615
1.9746,0.2590,38.4900,93,94,331619
1.9159,0.2590,38.6800,93,94,331622
1.9110,0.2542,38.4600,93,94,331625
1.8671,0.2542,38.5500,93,94,331628
1.8573,0.2542,38.6500,93,94,331632
1.8817,0.2639,38.4900,93,94,331635
1.8768,0.2542,38.6200,93,94,331638
1.9062,0.2590,38.3600,93,94,331642
1.8377,0.2786,38.5500,93,94,331645
1.7986,0.2297,38.6200,93,94,331649
1.7791,0.2639,38.6200,93,94,331653
1.7498,0.2493,38.5800,93,94,331656
1.8035,0.2639,38.4900,93,94,331659
1.7742,0.2493,38.5500,93,94,331663
1.7840,0.2297,38.6500,93,94,331666
1.7986,0.2639,38.5800,93,94,331669
1.8084,0.2590,38.6200,93,94,331673
1.8133,0.2542,38.6500,93,94,331676
1.8524,0.2639,38.4000,93,94,331679
1.8377,0.2688,38.6200,93,94,331683
1.8622,0.2590,38.4900,93,94,331686
1.8622,0.2542,38.6500,93,94,331689
1.8915,0.2639,38.6200,93,94,331694
1.9208,0.2688,38.5200,93,94,331697
1.9306,0.2542,38.6200,93,94,331700
2.0088,0.2297,38.5200,93,94,331704
2.0577,0.2542,38.9300,93,94,331707
2.1848,0.2542,38.6200,93,94,331710
2.3851,0.2590,38.6200,93,94,331714
2.6002,0.2542,38.6500,93,94,331717
2.9179,0.2639,38.4300,93,94,331720
3.1281,0.2542,37.9600,93,94,331723
3.3382,0.2542,38.6200,93,94,331727
3.4311,0.2542,38.5500,93,94,331730
3.3089,0.2590,38.5800,93,94,331734
3.1281,0.2590,38.4300,93,94,331738
2.7566,0.2639,38.5500,93,94,331741
2.4194,0.2542,38.5800,93,94,331744
2.1505,0.2590,38.6200,93,94,331748
1.9159,0.2542,38.6200,93,94,331751
1.7889,0.2737,38.4000,93,94,331754
1.6227,0.2639,38.5200,93,94,331758
1.5249,0.2737,38.5500,93,94,331761
1.4761,0.2542,38.6200,93,94,331764
1.4370,0.2542,38.6500,93,94,331767
1.4565,0.2688,38.4600,93,94,331771
1.4223,0.2590,38.5800,93,94,331774
1.4614,0.2590,38.5200,93,94,331778
1.5054,0.2639,38.6200,93,94,331782
1.5298,0.2542,38.6200,93,94,331785
1.6129,0.2639,38.5500,93,94,331788
1.6178,0.2590,38.6200,93,94,331792
1.6471,0.2884,38.5200,93,94,331795
1.6129,0.2542,38.6500,93,94,331798
1.6080,0.2542,38.5800,93,94,331802
1.6325,0.2737,38.5200,93,94,331805
1.6178,0.2590,38.6500,93,94,331808
1.6520,0.2688,38.4300,93,94,331811
1.6373,0.2590,38.5200,93,94,331815
1.6471,0.2542,38.6500,93,94,331819
1.6813,0.2737,38.5200,93,94,331822
1.6716,0.2542,38.6200,93,94,331826
1.7155,0.2639,38.7100,93,94,331829
1.7107,0.2542,38.5500,93,94,331832
1.7253,0.2542,38.6200,93,94,331836
1.7742,0.2542,38.5800,93,94,331839
1.7595,0.2590,38.6200,93,94,331842
1.8133,0.2688,38.3000,93,94,331846
1.7791,0.2493,38.5500,93,94,331849
1.7644,0.2493,38.6200,93,94,331852
1.7644,0.2542,38.6200,93,94,331855
1.7644,0.2542,38.6200,93,94,331859
1.8133,0.2737,38.4600,93,94,331863
1.7840,0.2590,38.6200,93,94,331866
1.7889,0.2590,38.4600,93,94,331870
1.7840,0.2590,38.6200,93,94,331873
1.7937,0.2542,38.6200,93,94,331876
1.8328,0.2688,38.4600,93,94,331880
1.8084,0.2590,38.6200,93,94,331883
1.8231,0.2590,38.4600,93,94,331886
1.7937,0.2542,38.6800,93,94,331890
1.7889,0.2297,38.6200,93,94,331893
1.8133,0.2688,38.5200,93,94,331896
1.8133,0.2590,38.6800,93,94,331899
1.8622,0.2590,38.4900,93,94,331904
1.8280,0.2542,38.6200,93,94,331907
1.8084,0.2590,38.6200,93,94,331910
1.7840,0.2590,38.6200,93,94,331914
1.7253,0.2590,38.6200,93,94,331917
1.7107,0.2639,38.4300,93,94,331920
1.6422,0.2542,38.6200,93,94,331924
1.6227,0.2493,38.6200,93,94,331927
1.6080,0.2639,38.3000,93,94,331930
1.5885,0.2542,38.6800,93,94,331934
1.6227,0.2688,38.3300,93,94,331937
1.5836,0.2639,38.5500,93,94,331940
1.5543,0.2493,38.6500,93,94,331943
1.5396,0.2639,38.6200,93,94,331948
1.5103,0.2590,38.6500,93,94,331951
1.5640,0.2786,38.3600,93,94,331954
1.4761,0.2639,38.5200,93,94,331958
1.4565,0.2542,38.5500,93,94,331961
1.4321,0.2590,38.4600,93,94,331964
1.4223,0.2590,38.6800,93,94,331968
1.4467,0.2688,38.4600,93,94,331971
1.4174,0.2786,38.6200,93,94,331974
1.4418,0.2493,38.4900,93,94,331978
1.4272,0.2590,38.5500,93,94,331981
1.4418,0.2493,38.6200,93,94,331984
1.4516,0.2639,38.5800,93,94,331987
1.4370,0.2590,38.5800,93,94,331992
1.4516,0.2639,38.5200,93,94,331995
1.4370,0.2590,38.6800,93,94,331998
1.4467,0.2542,38.6200,93,94,332002
1.4809,0.2639,38.5200,93,94,332005
1.4712,0.2590,38.6200,93,94,332008
1.5054,0.2590,38.4000,93,94,332012
1.4956,0.2835,38.5200,93,94,332015
1.4956,0.2493,38.6200,93,94,332018
1.5249,0.2786,38.5200,93,94,332022
1.5445,0.2542,38.6200,93,94,332025
1.5445,0.2639,38.3600,93,94,332028
1.5103,0.2542,38.5800,93,94,332032
1.5054,0.2542,38.6200,93,94,332036
1.5200,0.2590,38.5500,93,94,332039
1.5152,0.2590,38.5800,93,94,332042
1.5543,0.2493,38.3000,93,94,332046
1.5298,0.2590,38.5200,93,94,332049
1.5249,0.2542,38.6200,93,94,332052
1.5200,0.2590,38.6500,93,94,332056
1.5249,0.2786,38.6200,93,94,332059
1.5836,0.2688,38.4300,93,94,332062
1.5543,0.2639,38.6500,93,94,332066
1.5494,0.2639,38.5200,93,94,332069
1.5298,0.2590,38.6200,93,94,332072
1.5152,0.2542,38.6200,93,94,332076
1.5396,0.2688,38.4600,93,94,332080
1.5152,0.2493,38.5800,93,94,332083
1.5298,0.2590,38.4900,93,94,332086
1.5103,0.2590,38.6500,93,94,332090
1.5054,0.2639,38.6800,93,94,332093
1.5200,0.2688,38.5500,93,94,332096
1.4956,0.2590,38.6800,93,94,332100
1.5152,0.2835,38.4600,93,94,332103
1.4809,0.2297,38.6200,93,94,332106
1.4809,0.2542,38.6200,93,94,332110
1.4858,0.2590,38.5200,93,94,332113
1.4858,0.2590,38.7100,93,94,332116
1.5103,0.2590,38.4000,93,94,332120
1.5005,0.2493,38.6200,93,94,332124
1.5005,0.2297,38.6200,93,94,332127
1.5200,0.2688,38.5200,93,94,332130
1.5103,0.2493,38.6200,93,94,332134
1.5396,0.2639,38.3600,93,94,332137
1.5396,0.2933,38.4900,93,94,332140
1.5249,0.2493,38.6200,93,94,332144
1.5396,0.2542,38.5500,93,94,332147
1.5445,0.2542,38.6500,93,94,332150
1.5836,0.2786,38.3300,93,94,332153
1.5640,0.2590,38.5200,93,94,332157
1.5689,0.2542,38.5800,93,94,332161
1.5787,0.2688,38.6200,93,94,332164
1.6227,0.2493,38.6200,93,94,332168
1.6373,0.2737,38.0200,93,94,332171
1.6227,0.2639,38.5500,93,94,332174
1.6373,0.2542,38.4900,93,94,332178
1.6227,0.2590,38.6200,93,94,332181
1.6227,0.2297,38.6200,93,94,332184
1.6373,0.2688,38.6200,93,94,332188
1.6667,0.2590,38.6500,93,94,332191
1.6569,0.2639,38.4600,93,94,332194
1.6373,0.2542,38.6200,93,94,332198
1.6422,0.2542,38.6500,93,94,332201
1.6618,0.2835,38.4900,93,94,332205
1.6373,0.2590,38.6200,93,94,332208
1.6569,0.2590,38.4600,93,94,332212
1.6276,0.2835,38.5200,93,94,332215
1.6471,0.2542,38.6200,93,94,332218
1.6764,0.2933,38.4900,93,94,332222
1.6813,0.2493,38.6500,93,94,332225
1.7351,0.2639,38.5500,93,94,332228
1.7204,0.2639,38.5800,93,94,332232
1.7155,0.2542,38.6500,93,94,332235
1.7253,0.2639,38.5500,93,94,332238
1.7107,0.2297,38.6200,93,94,332242
1.7546,0.2688,38.3600,93,94,332246
1.7204,0.2590,38.5500,93,94,332249
1.7400,0.2493,38.6500,93,94,332252
1.7742,0.2590,38.6200,93,94,332256
1.7986,0.2542,38.6500,93,94,332259
1.8671,0.2737,38.4000,93,94,332262
1.8280,0.2590,38.5500,93,94,332266
1.8084,0.2542,38.5500,93,94,332269
1.7840,0.2590,38.6200,93,94,332272
1.7693,0.2639,38.6200,93,94,332276
1.7742,0.2590,37.6800,92,94,332279
1.6960,0.2590,38.5800,92,94,332283
1.6667,0.2542,38.6200,92,94,332286
1.6960,0.2542,38.4600,92,94,332290
1.6569,0.2542,38.6200,92,94,332294
1.6667,0.2493,38.5800,92,94,332297
1.6960,0.2590,38.5200,92,94,332300
1.7009,0.2542,38.5800,92,94,332303
1.7302,0.2590,38.4000,92,94,332307
1.6813,0.2493,38.6200,92,94,332310
1.6618,0.2542,38.5800,92,94,332313
1.6569,0.2493,38.5500,92,94,332317
1.6276,0.2542,38.7100,92,94,332320
1.6569,0.2590,38.3300,92,94,332323
1.6373,0.2590,38.5200,92,94,332327
1.6422,0.2542,38.5800,92,94,332331
1.6667,0.2590,38.6200,92,94,332334
1.6569,0.2542,38.6200,92,94,332337
1.6960,0.3079,38.4000,92,94,332341
1.6618,0.2493,38.5500,92,94,332344
1.6618,0.2542,38.5500,92,94,332347
1.6911,0.2542,38.6800,92,94,332351
1.7302,0.2542,38.6200,92,94,332354
1.8231,0.2639,38.4900,92,94,332357
1.8817,0.2590,38.6500,92,94,332361
2.0186,0.2590,38.6200,92,94,332364
2.1554,0.2590,38.6200,92,94,332367
2.3558,0.2542,38.6200,92,94,332371
2.5904,0.2639,38.6200,92,94,332375
2.8055,0.2639,38.6200,92,94,332378
3.0694,0.2590,38.5200,92,94,332381
3.1036,0.2542,38.6200,92,94,332385
3.0596,0.2590,38.6200,92,94,332388
2.8983,0.2737,38.5200,92,94,332391
2.5513,0.2590,38.6200,92,94,332395
2.2727,0.2639,38.4300,92,94,332398
1.9844,0.2297,38.5200,92,94,332401
1.7546,0.2542,38.6500,92,94,332405
1.5982,0.2639,38.4900,92,94,332408
1.4370,0.2542,38.8100,92,94,332411
1.3685,0.2639,38.3600,92,94,332416
1.2805,0.2590,38.5200,92,94,332419
1.2414,0.2542,38.6500,92,94,332422
1.2317,0.2590,38.5800,92,94,332425
1.2072,0.2542,38.6500,92,94,332429
1.2561,0.2688,38.4900,92,94,332432
1.2512,0.2590,38.6200,92,94,332435
1.2659,0.2542,38.3000,92,94,332439
1.3001,0.2639,38.5800,92,94,332442
1.3148,0.2542,38.6500,92,94,332445
1.3685,0.2688,38.4300,92,94,332449
1.3539,0.2590,38.6200,92,94,332452
1.3587,0.2542,38.5500,92,94,332455
1.3685,0.2297,38.6200,92,94,332460
1.3832,0.2884,38.6500,92,94,332463
1.4663,0.2639,38.4300,92,94,332466
1.4321,0.2590,38.7100,92,94,332469
1.4614,0.2639,38.4600,92,94,332473
1.4663,0.2590,38.5800,92,94,332476
1.4761,0.2542,38.6200,92,94,332479
1.5103,0.2639,38.4900,92,94,332483
1.5005,0.2542,38.6500,92,94,332486
1.5396,0.2542,38.5500,92,94,332489
1.5298,0.2542,38.6200,92,94,332493
1.5494,0.2493,38.6800,92,94,332496
1.5885,0.2590,38.5200,92,94,332499
1.5934,0.2590,38.5500,92,94,332504
1.6325,0.2590,38.4000,92,94,332507
1.6080,0.2590,38.6200,92,94,332510
1.6227,0.2590,38.7100,92,94,332513
1.6325,0.2688,38.5500,92,94,332517
1.6178,0.2590,38.6500,92,94,332520
1.6764,0.2688,38.3300,92,94,332523
1.7058,0.2639,38.5500,92,94,332527
1.6862,0.2542,38.6800,92,94,332530
1.7009,0.2590,38.6800,92,94,332533
1.6960,0.2493,38.6200,92,94,332537
1.7400,0.2786,38.2100,92,94,332540
1.7107,0.2639,38.4900,92,94,332544
1.7058,0.2493,38.5800,92,94,332547
1.7058,0.2590,38.7400,92,94,332551
1.7058,0.2590,38.6200,92,94,332554
1.7644,0.2737,38.4600,92,94,332557
1.7351,0.2590,38.7100,92,94,332561
1.7400,0.2639,38.5500,92,94,332564
1.7107,0.2493,38.6200,92,94,332567
1.6911,0.2590,38.6500,92,94,332571
1.7253,0.2493,38.5500,92,94,332574
1.6813,0.2590,38.7100,92,94,332577
1.7058,0.2590,38.4600,92,94,332581
1.6960,0.2590,38.6500,92,94,332584
1.7107,0.2542,38.6200,92,94,332588
1.7644,0.2688,38.4900,92,94,332591
1.7400,0.2590,38.5800,92,94,332595
1.7595,0.2639,38.4900,92,94,332598
1.7058,0.2542,38.5500,92,94,332601
1.7155,0.2542,38.7100,92,94,332605
1.7400,0.2639,38.4600,92,94,332608
1.7302,0.2590,38.6200,92,94,332611
1.7644,0.2639,38.3600,92,94,332615
1.7449,0.2590,38.5500,92,94,332618
1.7351,0.2542,38.6500,92,94,332621
1.7546,0.2737,38.5800,92,94,332625
1.7498,0.2590,38.6200,92,94,332628
1.8084,0.2688,38.3600,92,94,332632
1.7791,0.2590,38.5500,92,94,332635
1.8035,0.2542,38.6200,92,94,332639
1.8182,0.2639,38.6200,92,94,332642
1.8280,0.2590,38.6500,92,94,332645
1.8866,0.2737,38.4300,92,94,332649
1.8524,0.2639,38.5800,92,94,332652
1.8475,0.2542,38.5200,92,94,332655
1.8328,0.2590,38.6200,92,94,332659
1.8231,0.2542,38.5800,92,94,332662
1.8524,0.2737,38.4300,92,94,332665
1.8328,0.2639,38.7700,92,94,332669
1.8475,0.2639,38.4900,92,94,332673
1.8377,0.2590,38.6200,92,94,332676
1.8328,0.2590,38.6200,92,94,332679
1.8622,0.2639,38.4900,92,94,332683
1.8426,0.2590,38.6200,92,94,332686
1.8817,0.2688,38.4900,92,94,332689
1.8524,0.2835,38.5800,92,94,332693
1.8524,0.2590,38.6200,92,94,332696
1.8622,0.2590,38.4900,92,94,332699
1.8475,0.2639,38.6200,92,94,332703
1.8622,0.2590,38.4600,92,94,332706
1.8182,0.2444,38.6200,92,94,332709
1.8133,0.2542,38.6500,92,94,332713
1.8280,0.2688,38.5500,92,94,332717
1.7986,0.2590,38.6200,92,94,332720
1.8280,0.2639,38.3300,92,94,332723
1.7986,0.2639,38.4900,92,94,332727
1.7742,0.2590,38.6500,92,94,332730
1.7742,0.2688,38.5500,92,94,332733
1.7400,0.2590,38.6800,92,94,332737
1.7693,0.2688,38.3300,92,94,332740
1.7302,0.2590,38.4600,92,94,332743
1.7400,0.2542,38.5800,92,94,332747
1.7351,0.2590,38.5800,92,94,332750
1.7400,0.2590,38.5500,92,94,332753
1.7937,0.2835,38.4000,92,94,332756
1.7546,0.2493,38.5500,92,94,332761
1.7253,0.2542,38.5800,92,94,332764
1.7009,0.2639,38.6800,92,94,332767
1.6862,0.2590,38.5500,92,94,332771
1.7058,0.2981,38.5500,92,94,332774
1.6813,0.2590,38.5800,92,94,332777
1.6862,0.2590,38.4900,92,94,332781
1.6716,0.2542,38.6200,92,94,332784
1.6862,0.2542,38.6800,92,94,332787
1.7253,0.2737,38.4600,92,94,332791
1.7107,0.2590,38.5200,92,94,332794
1.7449,0.2639,38.5500,92,94,332797
1.7204,0.2297,38.5800,92,94,332802
1.7253,0.2542,38.2100,92,94,332805
1.7595,0.2639,38.5200,92,94,332808
1.7498,0.2590,38.6500,92,94,332811
1.7889,0.2639,38.3600,92,94,332815
1.7693,0.2590,38.5500,92,94,332818
1.7693,0.2590,38.6500,92,94,332821
1.7791,0.2639,38.6200,92,94,332825
1.7595,0.2884,38.6200,92,94,332828
1.7889,0.2688,38.4000,92,94,332831
1.7498,0.2542,38.4900,92,94,332835
1.7791,0.2542,38.6200,92,94,332838
1.7840,0.2688,38.6500,92,94,332841
1.7742,0.2493,38.6200,92,94,332845
1.8426,0.2786,38.3600,92,94,332849
1.8133,0.2737,38.5200,92,94,332852
1.7791,0.2493,38.5800,92,94,332855
1.7791,0.2590,38.6200,92,94,332859
1.8133,0.2493,38.6200,92,94,332862
1.8377,0.2688,38.4600,92,94,332865
1.8231,0.2639,38.5500,92,94,332869
1.8328,0.2590,38.4900,92,94,332872
1.8133,0.2590,38.6200,92,94,332875
1.8035,0.2639,38.6200,92,94,332879
1.8328,0.2688,38.3300,92,94,332882
1.8133,0.2688,38.6200,92,94,332886
1.8377,0.2639,38.4900,92,94,332889
1.8084,0.2590,38.6500,92,94,332893
1.8475,0.2590,38.6500,92,94,332896
1.8768,0.2542,38.6800,92,94,332900
1.9110,0.2639,38.5500,92,94,332903
1.8915,0.2590,38.7100,92,94,332906
1.9208,0.2639,38.3600,92,94,332910
1.8719,0.2639,38.5500,92,94,332913
1.8182,0.2590,38.8400,92,94,332916
1.8084,0.2639,38.5800,92,94,332920
1.7889,0.2590,38.6200,92,94,332923
1.8377,0.2737,37.8700,92,94,332926
1.7986,0.2493,38.4900,92,94,332931
1.7791,0.2542,38.5800,92,94,332934
1.7693,0.2688,38.5800,92,94,332937
1.7546,0.2542,38.6200,92,94,332940
1.7742,0.2737,38.4600,92,94,332944
1.7302,0.2737,38.5800,92,94,332947
1.7204,0.2493,38.5500,92,94,332950
1.7058,0.2590,38.6500,92,94,332954
1.7009,0.2493,38.6200,92,94,332957
1.7155,0.2737,38.5500,92,94,332960
1.6960,0.2590,38.6200,92,94,332964
1.7107,0.2639,38.4600,92,94,332967
1.7009,0.2590,38.6200,92,94,332971
1.7107,0.2737,38.5800,92,94,332974
1.7449,0.2688,38.4600,92,94,332978
1.7400,0.2639,38.6200,92,94,332981
1.8084,0.2639,38.5200,92,94,332984
1.7498,0.2542,38.5800,92,94,332988
1.7498,0.2590,38.6800,92,94,332991
1.7595,0.2493,38.4600,92,94,332994
1.7449,0.2590,38.6500,92,94,332998
1.7791,0.2639,38.4600,92,94,333001
1.7742,0.2590,38.5500,92,94,333004
1.8182,0.2590,38.6200,92,94,333008
1.9062,0.2639,38.6800,92,94,333011
1.9990,0.2884,38.6800,92,94,333015
2.1994,0.2493,38.3600,92,94,333018
2.3069,0.2590,38.5800,92,94,333022
2.5220,0.2639,38.5800,92,94,333025
2.7664,0.2493,38.5800,92,94,333028
2.9814,0.2590,38.6200,92,94,333032
3.2209,0.2737,38.3600,92,94,333035
3.1818,0.2639,38.5200,92,94,333038
3.0108,0.2542,38.6200,92,94,333042
2.7468,0.2639,38.6200,92,94,333045
2.4340,0.2590,38.5200,92,94,333048
2.2043,0.2737,38.4000,92,94,333051
1.9257,0.2493,38.5500,92,94,333056
1.7009,0.2542,38.6200,92,94,333059
1.5249,0.2639,38.5800,92,94,333062
1.3930,0.2493,38.6500,92,94,333066
1.3392,0.2639,38.5500,92,94,333069
1.2952,0.2542,38.6200,92,94,333072
1.2659,0.2639,38.4600,92,94,333076
1.2512,0.2590,38.6200,92,94,333079
1.2659,0.2590,38.6500,92,94,333082
1.3050,0.2590,38.5800,92,94,333086
1.3245,0.2590,38.5500,92,94,333089
1.3734,0.2639,38.5200,92,94,333092
1.3636,0.2590,38.8100,92,94,333095
1.3832,0.2639,38.6200,92,94,333100
1.4027,0.2688,38.5200,92,94,333103
1.3978,0.2542,38.6800,92,94,333106
1.4467,0.2639,38.4000,92,94,333110
1.4565,0.2590,38.5800,92,94,333113
1.4712,0.2688,38.6200,92,94,333116
1.5152,0.2688,38.5500,92,94,333120
1.5152,0.2590,38.6200,92,94,333123
1.5738,0.2737,38.3600,92,94,333126
1.5494,0.2590,38.5800,92,94,333130
1.5543,0.2542,38.6200,92,94,333133
1.5640,0.2639,38.5800,92,94,333136
1.5640,0.2590,38.8100,92,94,333139
1.6227,0.2786,38.3300,92,94,333144
1.5934,0.2590,38.5500,92,94,333147
1.5982,0.2493,38.5500,92,94,333150
1.6129,0.2590,38.6800,92,94,333154
1.6129,0.2590,38.6500,92,94,333157
1.6520,0.2737,38.4600,92,94,333160
1.6422,0.2639,38.5800,92,94,333164
1.6129,0.2590,38.5500,92,94,333167
1.5885,0.2590,38.6200,92,94,333170
1.5934,0.2590,38.6200,92,94,333173
1.6373,0.2688,38.4600,92,94,333177
1.6276,0.2590,38.5800,92,94,333180
1.6569,0.2639,38.4600,92,94,333184
1.6471,0.2639,38.6500,92,94,333188
1.6520,0.2590,38.6200,92,94,333191
1.6716,0.2737,38.4900,92,94,333194
1.6716,0.2639,38.6200,92,94,333198
1.6471,0.2590,38.5800,92,94,333201
1.6129,0.2493,38.5800,92,94,333204
1.6178,0.2542,38.6500,92,94,333208
1.6471,0.2688,38.5200,92,94,333211
1.6569,0.2542,38.6200,92,94,333214
1.6960,0.2639,38.4000,92,94,333217
1.6569,0.2786,38.6200,92,94,333221
1.6471,0.2639,38.6500,92,94,333224
1.6373,0.2639,38.4000,92,94,333228
1.6325,0.2542,38.5800,92,94,333232
1.6422,0.2688,38.3600,92,94,333235
1.6080,0.2542,38.5200,92,94,333238
1.6129,0.2590,38.6500,92,94,333242
1.6080,0.2639,38.7100,92,94,333245
1.6178,0.2737,38.6200,92,94,333248
1.6960,0.2688,38.4000,92,94,333252
1.6813,0.2688,38.6500,92,94,333255
1.6716,0.2590,38.5500,92,94,333258
1.6667,0.2590,38.6200,92,94,333261
1.6618,0.2542,38.7100,92,94,333265
1.7009,0.2688,38.4600,92,94,333268
1.6813,0.2590,38.5800,92,94,333272
1.6911,0.2590,38.4900,92,94,333276
1.6764,0.2835,38.6200,92,94,333279
1.6813,0.2590,38.6500,92,94,333282
1.7058,0.2737,38.5800,92,94,333286
1.7058,0.2639,38.6800,92,94,333289
1.7498,0.2493,38.4900,92,94,333292
1.7351,0.2590,38.6200,92,94,333295
1.7400,0.2639,38.6200,92,94,333299
1.7693,0.2688,38.4900,92,94,333302
1.7449,0.2639,38.5800,92,94,333305
1.7791,0.2590,38.4600,92,94,333309
1.7546,0.2590,38.5200,92,94,333313
1.7498,0.2688,38.6200,92,94,333316
1.7595,0.2688,38.5200,92,94,333320
1.7253,0.2590,38.5800,92,94,333323
1.7498,0.2590,38.4000,92,94,333326
1.7253,0.2639,38.5800,92,94,333330
1.7302,0.2542,38.5200,92,94,333333
1.7595,0.2688,38.6200,92,94,333336
1.7498,0.2297,38.6200,92,94,333339
1.7889,0.3030,38.3600,92,94,333343
1.7400,0.2590,38.5800,92,94,333346
1.7302,0.2590,38.6200,92,94,333349
1.7302,0.2639,38.6200,92,94,333353
1.7204,0.2590,38.6500,92,94,333357
1.7693,0.2786,38.7100,92,94,333360
1.7253,0.2639,38.5500,92,94,333364
1.7107,0.2542,38.5500,92,94,333367
1.7058,0.2639,38.6200,92,94,333370
1.7253,0.2590,38.6200,92,94,333373
1.7204,0.2688,38.4300,92,94,333377
1.6716,0.2737,38.5500,92,94,333380
1.6471,0.2590,38.4900,92,94,333383
1.6178,0.2590,38.6200,92,94,333387
1.6031,0.2542,38.6200,92,94,333390
1.6276,0.2688,38.4900,92,94,333393
1.6129,0.2639,38.6200,92,94,333398
1.6813,0.2590,38.4900,92,94,333401
1.6325,0.2590,38.6800,92,94,333404
1.6373,0.2933,38.6200,92,94,333408
1.6471,0.2639,38.5200,92,94,333411
1.6325,0.2590,38.6500,92,94,333414
1.6422,0.2639,38.4300,92,94,333417
1.6031,0.2590,38.7700,92,94,333421
1.5934,0.2737,38.6500,92,94,333424
1.6080,0.2688,38.5200,92,94,333427
1.5885,0.2590,38.5800,92,94,333431
1.6178,0.2737,38.4000,92,94,333434
1.5934,0.2639,38.5500,92,94,333437
1.5787,0.2590,38.5800,92,94,333442
1.5934,0.2688,38.5800,92,94,333445
1.5836,0.2590,38.6500,92,94,333448
1.6276,0.2688,38.3300,92,94,333451
1.5934,0.2590,38.5200,92,94,333455
1.5738,0.2542,38.6800,92,94,333458
1.5738,0.2639,38.6200,92,94,333461
1.5640,0.2493,38.6500,92,94,333465
1.6276,0.2786,38.4300,92,94,333468
1.6373,0.2590,38.5800,92,94,333471
1.6031,0.2590,38.5500,92,94,333475
1.5934,0.2590,38.6200,92,94,333478
1.5689,0.2590,38.6800,92,94,333481
1.5738,0.2688,38.5200,92,94,333486
1.5396,0.2639,38.6500,92,94,333489
1.5445,0.2590,38.4900,92,94,333492
1.5347,0.2590,38.6200,92,94,333495
1.5396,0.2590,38.5200,92,94,333499
1.5640,0.2737,38.4600,92,94,333502
1.5836,0.2493,38.4900,92,94,333507
1.5445,0.2590,38.7100,92,94,333510
1.5689,0.2981,38.4000,92,94,333513
1.5445,0.2639,38.5800,92,94,333517
1.5445,0.2590,38.6200,92,94,333520
1.5591,0.2590,38.6200,92,94,333523
1.5494,0.2590,38.6200,92,94,333528
1.6031,0.2737,38.3300,92,94,333531
1.5836,0.2542,38.5500,92,94,333534
1.6031,0.2542,38.6200,92,94,333538
1.6178,0.2542,38.6800,92,94,333541
1.6129,0.2590,38.6200,92,94,333544
1.6716,0.2884,38.4000,92,94,333547
1.6422,0.2688,38.5500,92,94,333551
1.6373,0.2542,38.5500,92,94,333554
1.6373,0.2688,38.6200,92,94,333557
1.6422,0.2590,38.6200,92,94,333561
1.6813,0.2737,38.4300,92,94,333564
1.6471,0.2639,38.5500,92,94,333568
1.6373,0.2639,38.5500,92,94,333572
1.5982,0.2639,38.6200,92,94,333575
1.5787,0.2590,38.6500,92,94,333578
1.5787,0.2981,38.5200,92,94,333582
1.5787,0.2493,38.6200,92,94,333585
1.5591,0.2688,38.5200,92,94,333588
1.5103,0.2688,38.6200,92,94,333591
1.5005,0.2590,38.6500,92,94,333595
1.5005,0.2639,38.6500,92,94,333598
1.4809,0.2542,38.6200,92,94,333601
1.4956,0.2639,38.4300,92,94,333605
1.4663,0.2688,38.6500,92,94,333608
1.4761,0.2639,38.6500,92,94,333612
1.5005,0.2688,38.4900,92,94,333616
1.4956,0.2493,38.6200,92,94,333619
1.5640,0.2688,38.3600,92,94,333622
1.5640,0.2639,38.5200,92,94,333626
1.5689,0.2590,38.6200,92,94,333629
1.5787,0.2639,38.6200,92,94,333632
1.5591,0.2981,38.6500,92,94,333635
1.5934,0.2688,38.3300,92,94,333639
1.5591,0.2639,38.4900,92,94,333642
1.5934,0.2493,38.5800,92,94,333645
1.5934,0.2639,38.7100,92,94,333649
1.6178,0.2493,38.6200,92,94,333652
1.6960,0.2786,38.4600,92,94,333656
1.6862,0.2639,38.5800,92,94,333660
1.7155,0.2493,38.4900,92,94,333663
1.7449,0.2590,38.5800,92,94,333666
1.8231,0.2590,38.6200,92,94,333670
1.9795,0.2688,38.7700,92,94,333673
2.1359,0.2639,38.5500,92,94,333676
2.3851,0.2639,38.4900,92,94,333679
2.6002,0.2639,38.6200,92,94,333683
2.8592,0.2590,38.6200,92,94,333686
3.0645,0.2688,38.4900,92,94,333689
3.0890,0.2542,38.5800,92,94,333693
3.0352,0.2590,38.4600,92,94,333697
2.7468,0.2590,38.6200,92,94,333700
2.4389,0.2590,38.5800,92,94,333704
2.1603,0.2639,38.4600,92,94,333707
1.8768,0.2590,38.6200,92,94,333710
1.7058,0.2639,38.4600,92,94,333713
1.5298,0.2688,38.5500,92,94,333717
1.4174,0.2493,38.6200,92,94,333720
1.3441,0.2688,38.5800,92,94,333723
1.2903,0.2590,38.6500,92,94,333727
1.2757,0.2688,38.3600,92,94,333730
1.2219,0.2639,38.5500,92,94,333733
1.2268,0.2590,38.6200,92,94,333737
1.2561,0.2639,38.6200,92,94,333741
1.3245,0.2542,38.6500,92,94,333744
1.3490,0.2786,38.4600,92,94,333748
1.3294,0.2835,38.5200,92,94,333751
1.3539,0.2542,38.5800,92,94,333754
1.3539,0.2639,38.5800,92,94,333757
1.3783,0.2590,38.6200,92,94,333761
1.4272,0.2737,38.4300,92,94,333764
1.4174,0.2590,38.5500,92,94,333767
1.4516,0.2493,38.4900,92,94,333771
1.4321,0.2590,38.6500,92,94,333774
1.4565,0.2639,38.6200,92,94,333777
1.4809,0.2688,38.5200,92,94,333782
1.4565,0.2639,38.6500,92,94,333785
1.4809,0.2590,38.4600,92,94,333788
1.4761,0.2590,38.6200,92,94,333792
1.4956,0.2639,38.6200,92,94,333795
1.5054,0.2639,38.5200,92,94,333798
1.5103,0.2590,38.6200,92,94,333801
1.5298,0.2639,38.4900,92,94,333805
1.4956,0.2590,38.5800,92,94,333808
1.4956,0.2590,38.8400,92,94,333811
1.5249,0.2737,38.5200,92,94,333815
1.5249,0.2590,38.6500,92,94,333818
1.5591,0.2639,38.4000,92,94,333821
1.5494,0.2493,38.5200,92,94,333826
1.5591,0.2590,38.6200,92,94,333829
1.6178,0.2688,38.5500,92,94,333832
1.5885,0.2590,38.6200,92,94,333835
1.6276,0.2688,38.3300,92,94,333839
1.5885,0.2590,38.5200,92,94,333842
1.5640,0.2590,38.6500,92,94,333845
1.5689,0.2639,38.6800,92,94,333849
1.5689,0.2933,38.6500,92,94,333852
1.6325,0.2786,38.4300,92,94,333855
1.5934,0.2590,38.5500,92,94,333859
1.5738,0.2639,38.5500,92,94,333862
1.5396,0.2639,38.6200,92,94,333865
1.5445,0.2590,38.6200,92,94,333870
1.5543,0.2688,38.4900,92,94,333873
1.5445,0.2639,38.6200,92,94,333876
1.5591,0.2639,38.4900,92,94,333879
1.5640,0.2639,38.6200,92,94,333883
1.5934,0.2688,38.6800,92,94,333886
1.6471,0.2737,38.4600,92,94,333889
1.6325,0.2639,38.6200,92,94,333893
1.6422,0.2688,38.4900,92,94,333896
1.6080,0.2590,38.6500,92,94,333899
1.6178,0.2590,38.5200,92,94,333903
1.6471,0.2639,38.4900,92,94,333906
1.6325,0.2590,38.6200,92,94,333910
1.6520,0.2639,38.4300,92,94,333914
1.6227,0.2590,38.5800,92,94,333917
1.6373,0.2590,38.7100,92,94,333920
1.6520,0.2688,38.5500,92,94,333923
1.6422,0.2590,38.6200,92,94,333927
1.6716,0.2688,38.5500,92,94,333930
1.6227,0.2542,38.5800,92,94,333933
1.6129,0.2590,38.6500,92,94,333937
1.6422,0.2688,38.5800,92,94,333940
1.6227,0.2590,38.6500,92,94,333943
1.6764,0.2737,38.3000,92,94,333947
1.6569,0.2639,38.5500,92,94,333950
1.6618,0.2542,38.6500,92,94,333954
1.6862,0.2639,38.5800,92,94,333958
1.7155,0.2590,38.6200,92,94,333961
1.7937,0.2737,38.4000,92,94,333964
1.7742,0.2737,38.5500,92,94,333967
1.7449,0.2590,38.5200,92,94,333971
1.7253,0.2639,38.5800,92,94,333974
1.6862,0.2590,38.6200,92,94,333977
1.6960,0.2688,38.5200,92,94,333981
1.6569,0.2639,38.5800,92,94,333984
1.6716,0.2639,38.5200,92,94,333987
1.6716,0.2639,38.5800,92,94,333991
1.6960,0.2297,38.6200,92,94,333995
1.7302,0.2639,38.5200,92,94,333998
1.7253,0.2542,38.6200,92,94,334001
1.7351,0.2688,38.5200,92,94,334005
1.7107,0.2542,38.6200,92,94,334008
1.7302,0.2590,38.6200,92,94,334011
1.7693,0.2688,38.1500,92,94,334015
1.7302,0.2639,38.5800,92,94,334018
1.7498,0.2639,38.4300,92,94,334021
1.7302,0.3128,38.5500,92,94,334025
1.7155,0.2493,38.6200,92,94,334028
1.7253,0.2688,38.6200,92,94,334031
1.7107,0.2493,38.6500,92,94,334035
1.7498,0.2688,37.9300,92,94,334039
1.7302,0.2590,38.5500,92,94,334042
1.7302,0.2493,38.6500,92,94,334045
1.7400,0.2639,38.7100,92,94,334049
1.7253,0.2590,38.5800,92,94,334052
1.7791,0.2737,38.3600,92,94,334055
1.7302,0.2639,38.5500,92,94,334059
1.7107,0.2493,38.5800,92,94,334062
1.7107,0.2639,38.7100,92,94,334065
1.7009,0.2542,38.5800,92,94,334069
1.7351,0.2786,38.4900,92,94,334072
1.7009,0.2981,38.5800,92,94,334075
1.7107,0.2542,38.4900,92,94,334080
1.6911,0.2590,38.5800,92,94,334083
1.6960,0.2590,38.6200,92,94,334086
1.7595,0.2737,38.4600,92,94,334089
1.7351,0.2639,38.7100,92,94,334093
1.7302,0.2639,38.4300,92,94,334096
1.6960,0.2590,38.6500,92,94,334099
1.6960,0.2590,38.5800,92,94,334103
1.7058,0.2590,38.5200,92,94,334106
1.6667,0.2590,38.6200,92,94,334109
1.6716,0.2639,38.4900,92,94,334113
1.6422,0.2688,38.4600,92,94,334116
1.7204,0.2542,38.5800,92,94,334121
1.7302,0.2590,38.5800,92,94,334125
1.7644,0.2786,38.5200,92,94,334128
1.7546,0.2590,38.6200,92,94,334131
1.7986,0.2737,38.2700,92,94,334135
1.7498,0.2688,38.5200,92,94,334138
1.7204,0.2542,38.6200,92,94,334141
1.7155,0.2542,38.5800,92,94,334145
1.7253,0.2590,38.6200,92,94,334148
1.7889,0.2786,38.4000,92,94,334151
1.7693,0.2688,38.5500,92,94,334155
1.7546,0.2590,38.5500,92,94,334158
1.7546,0.2835,38.6200,92,94,334161
1.7546,0.2639,38.6200,92,94,334166
1.7791,0.2688,38.4300,92,94,334169
1.7693,0.2493,38.6200,92,94,334172
1.7595,0.2639,38.4900,92,94,334175
1.7449,0.2981,38.5500,92,94,334179
1.7546,0.2590,38.6500,92,94,334182
1.7791,0.2639,38.4600,92,94,334185
1.7791,0.2590,38.5800,92,94,334189
1.8133,0.2688,38.5200,92,94,334192
1.7889,0.2639,38.6200,92,94,334195
1.8084,0.2493,38.6200,92,94,334199
1.8426,0.2688,38.4900,92,94,334202
1.8231,0.2590,38.6200,92,94,334205
1.8328,0.2639,38.4000,92,94,334210
1.8231,0.2639,38.4900,92,94,334213
1.7400,0.2590,38.6500,92,94,334216
1.7253,0.2639,38.5200,92,94,334219
1.6813,0.2590,38.6200,92,94,334223
1.6911,0.2737,38.3300,92,94,334226
1.6520,0.2542,38.5500,92,94,334229
1.6373,0.2590,38.6200,92,94,334233
1.6276,0.2688,38.6800,92,94,334236
1.6129,0.2639,38.6200,92,94,334239
1.6471,0.2786,38.3300,92,94,334243
1.5982,0.2737,38.5200,92,94,334246
1.5836,0.2542,38.5500,92,94,334249
1.5738,0.2639,38.6200,92,94,334254
1.5640,0.2590,38.6200,92,94,334257
1.6031,0.2737,38.3300,92,94,334260
1.5787,0.2590,38.6200,92,94,334263
1.6080,0.2590,38.5200,92,94,334267
1.5640,0.2639,38.8400,92,94,334270
1.5640,0.2933,38.6200,92,94,334273
1.6080,0.2688,38.4600,92,94,334277
1.5982,0.2688,38.5800,92,94,334280
1.6422,0.2688,38.4900,92,94,334283
1.6422,0.2590,38.4600,92,94,334287
1.6520,0.2590,38.6200,92,94,334290
1.6569,0.2639,38.4900,92,94,334294
1.6178,0.2639,38.6800,92,94,334298
1.6325,0.2933,38.5500,92,94,334301
1.6080,0.2590,38.5800,92,94,334304
1.6276,0.2590,38.6200,92,94,334307
1.6911,0.2639,38.4600,92,94,334311
1.8035,0.2493,38.5800,92,94,334314
1.9453,0.2639,38.4300,92,94,334317
2.1065,0.2493,38.6200,92,94,334321
2.3314,0.2590,38.6200,92,94,334324
2.6051,0.2688,38.5800,92,94,334327
2.8397,0.2590,38.5800,92,94,334331
3.1183,0.2688,38.4300,92,94,334334
3.1574,0.3030,38.5200,92,94,334338
3.0499,0.2639,38.6200,92,94,334341
2.8104,0.2639,37.9000,92,94,334345
2.4585,0.2590,38.6500,92,94,334348
2.1896,0.2835,38.3600,92,94,334351
1.8573,0.2688,38.4000,92,94,334355
1.6129,0.2835,38.5500,92,94,334358
1.4418,0.2639,38.6200,92,94,334361
1.3196,0.2590,38.6200,92,94,334365
1.2757,0.2737,38.4600,92,94,334368
1.2023,0.2639,38.6800,92,94,334371
1.1877,0.2639,38.5200,92,94,334375
1.1730,0.2639,38.6200,92,94,334379
1.1730,0.2590,38.5800,92,94,334382
1.2170,0.2786,38.5500,92,94,334385
1.2366,0.2590,38.5800,92,94,334389
1.2854,0.2639,38.4600,92,94,334392
1.2854,0.2688,38.6500,92,94,334395
1.3148,0.2590,38.6500,92,94,334399
1.3587,0.2737,38.6200,92,94,334402
1.3636,0.2590,38.6200,92,94,334405
1.3930,0.2639,38.4900,92,94,334409
1.3783,0.2542,38.5500,92,94,334412
1.3734,0.2590,38.6200,92,94,334415
1.4027,0.2737,38.4900,92,94,334418
1.3930,0.2639,38.6500,92,94,334423
1.4565,0.2688,38.4000,92,94,334426
1.4858,0.2688,38.5500,92,94,334429
1.4516,0.2590,38.6200,92,94,334433
1.4614,0.2688,38.5500,92,94,334436
1.4467,0.2493,38.6800,92,94,334439
1.4858,0.2688,38.3300,92,94,334443
1.4614,0.2737,38.5500,92,94,334446
1.4809,0.2542,38.6500,92,94,334449
1.4956,0.2884,38.5800,92,94,334453
1.5005,0.2590,38.6200,92,94,334456
1.5396,0.2786,38.4000,92,94,334459
1.4907,0.2786,38.5800,92,94,334462
1.4809,0.2590,38.5500,92,94,334467
1.4565,0.2639,38.6500,92,94,334470
1.4516,0.2590,38.6200,92,94,334473
1.4858,0.2688,38.4300,92,94,334477
1.4614,0.2639,38.5800,92,94,334480
1.4565,0.2590,38.4900,92,94,334483
1.4516,0.2590,38.6200,92,94,334487
1.4565,0.2590,38.7100,92,94,334490
1.4712,0.2737,38.4900,92,94,334493
1.4565,0.2639,38.6200,92,94,334497
1.4712,0.2688,38.5500,92,94,334500
1.4467,0.2590,38.6500,92,94,334503
1.4565,0.2590,38.5800,92,94,334507
1.4761,0.2737,38.5200,92,94,334511
1.4761,0.2590,38.6200,92,94,334514
1.4956,0.2639,38.4000,92,94,334517
1.5005,0.2590,38.6800,92,94,334521
1.4761,0.2590,38.5800,92,94,334524
1.5103,0.2688,38.5200,92,94,334527
1.5103,0.2590,38.6800,92,94,334531
1.5445,0.2737,38.3600,92,94,334534
1.5494,0.2688,38.5200,92,94,334537
1.5591,0.2542,38.6500,92,94,334540
1.5787,0.2688,38.6800,92,94,334544
1.5591,0.2688,38.5800,92,94,334547
1.5982,0.2688,38.3000,92,94,334551
1.5591,0.2639,38.6500,92,94,334555
1.5591,0.2542,38.6200,92,94,334558
1.5738,0.2639,38.6200,92,94,334561
1.5787,0.2590,38.6200,92,94,334565
1.6227,0.2835,38.4300,92,94,334568
1.5836,0.2688,38.5200,92,94,334571
1.5787,0.2639,38.5500,92,94,334575
1.5836,0.2639,38.6200,92,94,334578
1.5982,0.2933,38.6200,92,94,334581
1.6520,0.2737,38.5200,92,94,334584
1.6373,0.2639,38.6200,92,94,334588
1.6618,0.2639,38.4600,92,94,334592
1.6569,0.2639,38.6500,92,94,334595
1.6764,0.2590,38.5800,92,94,334599
1.7155,0.2737,38.4600,92,94,334602
1.7058,0.2639,38.5800,92,94,334605
1.7351,0.2786,38.5500,92,94,334609
1.7058,0.2542,38.5200,92,94,334612
1.7204,0.2590,38.7400,92,94,334615
1.7546,0.2688,38.4900,92,94,334619
1.7449,0.2590,38.6200,92,94,334622
1.7791,0.2688,38.4600,92,94,334625
1.7595,0.2590,38.5500,92,94,334628
1.7791,0.2590,38.6200,92,94,334632
1.8084,0.2688,38.5200,92,94,334636
1.7937,0.2688,38.6200,92,94,334639
1.8231,0.2688,38.3600,92,94,334643
1.7742,0.2639,38.5800,92,94,334646
1.7449,0.2590,38.6500,92,94,334649
1.7595,0.2786,38.5200,92,94,334653
1.7498,0.2590,38.6200,92,94,334656
1.7986,0.2786,38.3600,92,94,334659
1.7693,0.2688,38.5200,92,94,334663
1.7595,0.2542,38.6200,92,94,334666
1.7644,0.2688,38.6200,92,94,334669
1.7644,0.2493,38.6200,92,94,334672
1.7986,0.2688,38.4900,92,94,334676
1.7595,0.2688,38.5500,92,94,334680
1.7546,0.2590,38.4900,92,94,334683
1.7351,0.2639,38.6800,92,94,334687
1.7253,0.2639,38.6200,92,94,334690
1.7351,0.2688,38.7400,92,94,334693
1.6911,0.2639,38.5800,92,94,334697
1.6862,0.2737,38.4600,92,94,334700
1.6520,0.2639,38.5800,92,94,334703
1.6520,0.2590,38.6200,92,94,334707
1.6667,0.2639,38.6200,92,94,334710
1.6569,0.2590,38.6200,92,94,334713
1.6813,0.2639,38.4900,92,94,334716
1.6471,0.2688,38.6200,92,94,334721
1.6862,0.2639,38.6200,92,94,334724
1.6764,0.2688,38.8100,92,94,334727
1.6618,0.2688,38.7100,92,94,334732
1.6422,0.2590,38.6200,92,94,334735
1.6764,0.2786,38.3300,92,94,334739
1.6178,0.2933,38.5500,92,94,334742
1.5836,0.2542,38.5800,92,94,334745
1.5640,0.2639,38.6200,92,94,334749
1.5494,0.2542,38.6200,92,94,334752
1.5885,0.2688,38.4600,92,94,334755
1.5543,0.2639,38.6500,92,94,334759
1.5640,0.2590,38.5200,92,94,334763
1.5543,0.2639,38.6200,92,94,334766
1.5543,0.2884,38.6200,92,94,334769
1.5787,0.2688,38.5500,92,94,334773
1.5591,0.2639,38.5800,92,94,334776
1.5982,0.2590,38.4600,92,94,334779
1.5982,0.2639,38.5800,92,94,334783
1.6178,0.2884,38.6200,92,94,334786
1.6520,0.2688,38.4900,92,94,334789
