ecg,gsr,temp,hr,spo2,timest
1.8719,0.1760,38.2400,79,97,80240
1.8719,0.1564,38.2400,79,97,80243
1.9110,0.1662,38.0800,79,97,80247
1.8817,0.1613,38.2100,79,97,80250
1.8964,0.1564,38.3300,79,97,80253
1.8866,0.1515,38.2100,79,97,80257
1.9208,0.1564,38.2400,79,97,80261
1.9355,0.1906,38.1100,79,97,80264
1.9257,0.1564,38.4000,79,97,80267
1.9599,0.1564,38.1100,79,97,80270
1.9404,0.1760,38.3000,79,97,80274
1.9404,0.2004,38.2100,79,97,80277
1.9746,0.1662,38.1100,79,97,80280
1.9404,0.1613,38.2100,79,97,80283
1.9599,0.1711,38.1100,79,97,80287
1.9501,0.1515,38.2400,79,97,80290
1.9599,0.1515,38.1100,79,97,80293
2.0088,0.1515,38.0500,79,97,80296
2.0088,0.1613,38.2100,79,97,80301
2.0039,0.1564,38.1500,79,97,80304
2.0039,0.1564,38.2700,79,97,80307
2.0088,0.1515,38.2700,79,97,80310
2.0528,0.1662,38.0800,79,97,80313
1.9941,0.1564,38.1800,79,97,80317
1.9697,0.1564,38.2100,79,97,80320
1.9355,0.1613,38.2400,79,97,80323
1.9013,0.1564,38.2400,79,97,80326
1.9404,0.1711,38.1800,79,97,80330
1.9062,0.1613,38.1800,79,97,80333
1.9013,0.1564,38.1500,79,97,80336
1.8817,0.1613,38.2100,79,97,80339
1.8719,0.1613,38.2700,79,97,80344
1.9110,0.1662,38.1100,79,97,80347
1.8622,0.1613,38.2400,79,97,80350
1.8475,0.1564,38.1100,79,97,80353
1.8182,0.1662,38.2400,79,97,80357
1.8035,0.1564,38.3000,79,97,80360
1.8426,0.1711,38.0800,79,97,80363
1.8084,0.1564,38.2100,79,97,80366
1.8182,0.1564,38.0800,79,97,80370
1.8182,0.1564,38.2100,79,97,80373
1.8133,0.1564,38.2100,79,97,80376
1.8524,0.2102,38.0800,79,97,80379
1.8280,0.1613,38.1800,79,97,80384
1.8231,0.1564,38.1800,79,97,80387
1.8573,0.1564,38.2400,79,97,80390
1.8133,0.1564,38.2400,79,97,80393
1.8524,0.1662,38.0800,79,97,80397
1.8133,0.1515,38.2400,79,97,80400
1.8231,0.1564,38.1800,79,97,80403
1.8671,0.1564,38.2400,79,97,80406
1.9501,0.1564,38.2100,79,97,80410
2.1212,0.1515,38.0800,79,97,80413
2.2141,0.1564,38.2100,79,97,80416
2.3656,0.1515,38.1500,79,97,80419
2.5513,0.1515,38.3300,79,97,80423
2.7322,0.1564,38.2400,79,97,80427
2.8690,0.1760,38.0500,79,97,80430
2.7517,0.1613,38.0800,79,97,80433
2.5855,0.1564,38.1800,79,97,80437
2.4096,0.1564,38.2400,79,97,80440
2.1896,0.1564,38.2700,79,97,80443
2.0919,0.1711,38.0800,79,97,80446
1.9355,0.1613,38.1800,79,97,80450
1.8622,0.1466,38.1800,79,97,80453
1.8182,0.1564,38.2400,79,97,80456
1.7791,0.1564,38.2400,79,97,80459
1.8035,0.1711,37.9900,79,97,80463
1.7351,0.1613,38.2100,79,97,80466
1.7204,0.1515,38.2100,79,97,80470
1.7204,0.1515,38.2100,79,97,80473
1.7155,0.1564,38.2400,79,97,80477
1.7693,0.1760,37.9900,79,97,80480
1.7302,0.1613,38.1800,79,97,80483
1.7253,0.1564,38.1800,79,97,80486
1.7302,0.1515,38.2400,79,97,80490
1.7253,0.1564,38.2400,79,97,80493
1.7791,0.1711,38.0200,79,97,80496
1.7400,0.1613,38.4900,79,97,80499
1.7302,0.1564,38.1800,79,97,80503
1.7400,0.1711,38.2400,79,97,80506
1.7449,0.1515,38.3600,79,97,80509
1.8133,0.1760,37.9900,79,97,80513
1.7840,0.1564,38.1800,79,97,80517
1.7791,0.1564,38.2100,79,97,80520
1.7889,0.1613,38.0200,79,97,80523
1.7986,0.1564,38.2400,79,97,80526
1.8573,0.1711,38.0200,79,97,80530
1.8182,0.1711,38.1800,79,97,80533
1.7986,0.1515,38.3000,79,97,80536
1.7986,0.1564,38.2100,79,97,80539
1.8231,0.1564,38.2700,79,97,80543
1.8524,0.1711,38.0200,79,97,80546
1.8182,0.1613,38.1500,79,97,80549
1.8133,0.1564,38.2400,79,97,80552
1.8182,0.1564,38.2100,79,97,80557
1.8182,0.1662,38.2400,79,97,80560
1.8768,0.1760,37.9900,79,97,80563
1.8426,0.1564,38.1800,79,97,80566
1.8671,0.1564,38.2100,79,97,80570
1.8964,0.1662,38.2400,79,97,80573
1.8671,0.1613,38.2400,79,97,80576
1.9208,0.1760,37.9600,79,97,80579
1.8866,0.1613,38.1800,79,97,80583
1.8768,0.1760,38.2100,79,97,80586
1.8964,0.1662,38.2100,79,97,80589
1.9110,0.1515,38.3600,79,97,80592
1.9795,0.1711,37.9900,79,97,80596
1.9355,0.1515,38.1800,79,97,80600
1.9501,0.1564,38.2100,79,97,80603
1.9208,0.1564,38.3000,79,97,80606
1.9208,0.1564,38.2400,79,97,80610
1.9844,0.1955,37.9300,79,97,80613
1.9404,0.1760,38.1800,79,97,80616
1.9453,0.1515,38.3000,79,97,80619
1.9599,0.1613,38.2100,79,97,80623
1.9746,0.1564,38.2400,79,97,80626
2.0381,0.1711,37.9300,79,97,80629
2.0088,0.1613,38.1500,79,97,80632
1.9990,0.1613,38.3000,79,97,80636
2.0039,0.1857,38.2100,79,97,80640
2.0039,0.1515,38.2400,79,97,80643
2.0723,0.1613,37.9300,79,97,80646
2.0381,0.1613,38.1500,79,97,80650
2.0332,0.1515,38.2700,79,97,80653
2.0430,0.1564,38.2100,79,97,80656
2.0332,0.1515,38.3000,79,97,80659
2.0968,0.1613,37.9300,79,97,80663
2.0430,0.1564,38.2100,79,97,80666
2.0479,0.1515,38.2700,79,97,80669
2.0723,0.1613,38.1800,79,97,80672
2.0626,0.1564,38.2400,79,97,80676
2.1114,0.1662,37.9300,79,97,80679
2.0772,0.1515,38.2100,79,97,80683
2.0870,0.1564,38.2400,79,97,80686
2.0674,0.1662,38.2100,79,97,80690
2.0528,0.1515,38.2400,79,97,80693
2.1310,0.1662,37.9600,79,97,80696
2.0674,0.1613,38.1500,79,97,80699
2.0088,0.1564,38.1800,79,97,80703
1.9941,0.1613,38.2100,79,97,80706
1.9599,0.1711,38.2100,79,97,80709
1.9844,0.1662,37.9300,79,97,80712
1.9159,0.1564,38.1800,79,97,80716
1.8964,0.1564,38.2700,79,97,80719
1.8817,0.1662,38.1800,79,97,80722
1.8328,0.1808,38.2400,79,97,80726
1.8573,0.1662,37.9600,79,97,80730
1.8182,0.1613,38.1500,79,97,80733
1.7889,0.1564,38.2400,79,97,80736
1.7937,0.1515,38.2100,79,97,80739
1.7644,0.1564,38.4600,79,97,80743
1.8035,0.1515,37.9600,79,97,80746
1.7791,0.1613,38.1500,79,97,80749
1.7644,0.1564,38.3000,79,97,80752
1.7595,0.1613,38.2100,79,97,80756
1.7498,0.1564,38.2400,79,97,80759
1.7742,0.1613,37.9600,79,97,80762
1.7302,0.1417,38.2100,79,97,80765
1.7400,0.1564,38.4000,79,97,80770
1.7644,0.1662,38.1800,79,97,80773
1.7498,0.1613,38.3000,79,97,80776
1.7840,0.1662,37.9300,79,97,80779
1.7644,0.1613,38.1500,79,97,80783
1.7546,0.1564,38.2400,79,97,80786
1.7889,0.1613,38.2100,79,97,80789
1.7644,0.1613,38.2400,79,97,80792
1.8084,0.1613,38.1100,79,97,80796
1.7791,0.1613,38.2100,79,97,80799
1.7595,0.1564,38.2400,79,97,80802
1.7840,0.1662,38.2100,79,97,80805
1.7791,0.1564,38.3600,79,97,80809
1.8231,0.1613,37.9900,79,97,80813
1.7937,0.1515,38.2100,79,97,80816
1.7986,0.1564,38.2700,79,97,80819
1.8231,0.1711,38.1500,79,97,80823
1.8280,0.1613,38.2400,79,97,80827
1.8133,0.1613,38.2400,79,97,80830
1.8573,0.1760,38.0200,79,97,80834
1.8182,0.1613,37.5600,79,97,80837
1.8182,0.1564,38.2100,79,97,80840
1.8280,0.1564,38.2400,79,97,80843
1.8231,0.1564,38.2700,79,97,80847
1.8622,0.1760,37.9900,79,97,80850
1.8231,0.1564,38.2100,79,97,80854
1.8231,0.1613,38.1800,79,97,80857
1.8328,0.1613,38.3300,79,97,80861
1.8280,0.1564,38.4000,79,97,80864
1.8817,0.1760,37.9600,79,97,80867
1.8426,0.1662,38.1100,79,97,80870
1.8231,0.1515,38.2100,79,97,80874
1.8231,0.1613,38.4000,79,97,80877
1.8231,0.1564,38.2400,79,97,80880
1.8768,0.1711,38.0500,79,97,80883
1.8328,0.1613,38.1100,79,97,80887
1.8231,0.1564,38.2100,79,97,80890
1.8231,0.1613,38.2700,79,97,80893
1.8280,0.1564,38.2700,79,97,80897
1.8866,0.1711,37.8700,79,97,80901
1.8328,0.1613,38.1800,79,97,80904
1.8231,0.1564,38.2100,79,97,80907
1.8280,0.1613,38.2400,79,97,80910
1.8231,0.1564,38.2400,79,97,80914
1.8817,0.1760,37.9600,79,97,80917
1.8426,0.1613,38.1500,79,97,80920
1.8328,0.1564,38.2100,79,97,80923
1.8280,0.1662,38.2400,79,97,80927
1.8133,0.1564,38.0800,79,97,80930
1.8768,0.1711,37.9600,79,97,80933
1.8328,0.1662,38.1800,79,97,80936
1.8280,0.1564,38.2100,79,97,80941
1.8377,0.1613,38.2700,79,97,80944
1.8377,0.1564,38.2400,79,97,80947
1.8817,0.1760,37.9300,79,97,80950
1.8280,0.1711,38.1800,79,97,80954
1.8280,0.1564,38.2700,79,97,80957
1.8328,0.1613,38.2100,79,97,80960
1.8182,0.1564,38.3000,79,97,80963
1.8671,0.1711,37.9600,79,97,80967
1.8328,0.1662,38.1100,79,97,80970
1.8280,0.1564,38.2100,79,97,80973
1.8426,0.1613,38.2100,79,97,80977
1.8426,0.1564,38.2400,79,97,80980
1.8964,0.1662,37.9300,79,97,80984
1.8573,0.1906,38.1800,79,97,80987
1.8524,0.1515,38.0500,79,97,80991
1.8719,0.1613,38.2100,79,97,80994
1.8817,0.1564,38.2400,79,97,80997
1.9550,0.1711,37.2500,79,97,81000
1.9159,0.1564,38.0500,79,97,81004
1.9159,0.1564,38.2100,79,97,81007
1.9257,0.1662,38.2400,79,97,81010
1.9159,0.1564,38.2100,79,97,81013
1.9795,0.1515,37.9600,79,97,81017
1.9404,0.1613,38.1800,79,97,81020
1.9257,0.1857,38.2700,79,97,81024
1.9355,0.1613,38.1800,79,97,81027
1.9404,0.1564,38.2700,79,97,81031
2.0039,0.1760,37.9300,79,97,81034
1.9697,0.1564,38.1800,79,97,81037
1.9599,0.1564,38.2400,79,97,81040
1.9550,0.1613,38.2400,79,97,81044
1.9404,0.1613,38.2400,79,97,81047
1.9795,0.1711,37.9000,79,97,81050
1.9159,0.1564,38.1500,79,97,81053
1.8915,0.1515,38.2400,79,97,81057
1.8866,0.1613,38.2100,79,97,81060
1.8671,0.1613,38.2400,79,97,81063
1.9013,0.1808,37.9300,79,97,81067
1.8622,0.1613,38.1500,79,97,81071
1.8328,0.1515,38.2400,79,97,81074
1.8426,0.1515,38.2400,79,97,81077
1.8280,0.1613,38.2400,79,97,81080
1.8622,0.1711,38.1100,79,97,81084
1.8035,0.1613,38.1800,79,97,81087
1.7840,0.1515,38.2700,79,97,81090
1.7840,0.1613,38.2100,79,97,81093
1.7791,0.1564,38.2400,79,97,81097
1.8231,0.1711,38.0500,79,97,81100
1.7791,0.1564,38.2100,79,97,81103
1.7791,0.1564,38.2400,79,97,81106
1.7840,0.1662,38.2100,79,97,81111
1.7791,0.1662,38.2400,79,97,81114
1.8328,0.1711,37.2200,79,97,81117
1.7986,0.1613,38.1500,79,97,81120
1.7840,0.1564,38.2400,79,97,81124
1.7693,0.1662,38.2100,79,97,81127
1.7546,0.1515,38.2400,79,97,81130
1.8182,0.1711,38.0200,79,97,81133
1.8231,0.1613,38.1500,79,97,81137
1.8817,0.1564,38.2400,79,97,81140
1.9892,0.1662,38.2400,79,97,81143
2.1065,0.1564,38.2400,79,97,81146
2.3118,0.1515,37.9600,79,97,81150
2.4291,0.1515,38.1800,79,97,81154
2.6393,0.1564,38.2100,79,97,81157
2.7517,0.1760,38.1100,79,97,81160
2.7077,0.1613,38.2100,79,97,81164
2.6344,0.1711,37.9300,79,97,81167
2.4242,0.1662,38.1800,79,97,81170
2.1750,0.1564,38.2400,79,97,81173
2.0186,0.1613,38.3300,79,97,81177
1.9013,0.1564,38.2700,79,97,81180
1.8768,0.1662,37.9300,79,97,81183
1.7986,0.1613,38.1500,79,97,81186
1.7498,0.1564,38.4300,79,97,81190
1.7351,0.1613,38.2400,79,97,81193
1.7204,0.1613,38.2400,79,97,81197
1.7449,0.1760,37.9300,79,97,81200
1.6862,0.1564,38.1800,79,97,81204
1.6764,0.1564,38.3600,79,97,81207
1.6667,0.1613,38.2400,79,97,81210
1.6618,0.1613,38.2700,79,97,81213
1.7107,0.1662,37.9300,79,97,81217
1.6813,0.1808,38.1500,79,97,81220
1.6716,0.1515,38.2700,79,97,81223
1.6764,0.1613,38.2100,79,97,81226
1.6667,0.1564,38.2400,79,97,81230
1.7204,0.1955,37.9000,79,97,81233
1.6960,0.1613,38.1500,79,97,81236
1.7058,0.1564,38.2700,79,97,81240
1.7351,0.1662,38.2400,79,97,81244
1.7204,0.1613,38.1500,79,97,81247
1.7693,0.1711,37.9300,79,97,81250
1.7253,0.1515,38.2100,79,97,81253
1.7302,0.1613,38.2700,79,97,81257
1.7351,0.1662,38.2100,79,97,81260
1.7253,0.1564,38.3000,79,97,81263
1.7742,0.1515,37.9300,79,97,81266
1.7595,0.1662,38.1800,79,97,81270
1.7546,0.1417,38.2400,79,97,81273
1.7693,0.1564,38.2100,79,97,81276
1.7693,0.1613,38.3000,79,97,81280
1.8182,0.1711,37.9300,79,97,81284
1.7791,0.1613,38.1800,79,97,81287
1.7644,0.1613,38.2400,79,97,81290
1.7742,0.1613,37.4600,79,97,81293
1.7791,0.1564,38.2700,79,97,81297
1.8328,0.1760,37.9300,79,97,81300
1.7937,0.1564,38.1800,79,97,81303
1.7986,0.1613,38.3000,79,97,81306
1.8084,0.1613,38.2100,79,97,81310
1.8182,0.1613,38.2400,79,97,81313
1.8671,0.1613,37.9300,79,97,81316
1.8475,0.1711,38.3000,79,97,81319
1.8426,0.1613,38.2700,79,97,81324
1.8524,0.1613,38.2400,79,97,81327
1.8328,0.1564,38.2400,79,97,81330
1.8866,0.1711,37.9600,79,97,81333
1.8573,0.1662,38.1800,79,97,81337
1.8524,0.1564,38.2400,79,97,81340
1.8671,0.1662,38.2100,79,97,81343
1.8671,0.1613,38.4300,79,97,81346
1.9208,0.1711,37.9300,79,97,81350
1.8915,0.1613,38.2100,79,97,81353
1.9159,0.1613,38.2400,79,97,81356
1.9208,0.1613,38.1800,79,97,81359
1.9159,0.1613,38.2700,79,97,81363
1.9697,0.1711,37.9600,79,97,81367
1.9355,0.1662,38.1800,79,97,81370
1.9355,0.1613,38.2700,79,97,81373
1.9550,0.1613,38.1800,79,97,81377
1.9550,0.1613,38.2700,79,97,81380
2.0283,0.1711,37.9600,79,97,81383
1.9795,0.1613,38.1500,79,97,81386
1.9746,0.1613,38.2700,79,97,81390
1.9941,0.1662,38.3300,79,97,81393
1.9795,0.1613,38.2400,79,97,81396
2.0283,0.1662,37.9600,79,97,81399
1.9746,0.1613,38.2100,79,97,81403
1.9697,0.1613,38.3000,79,97,81406
1.9795,0.1760,38.1800,79,97,81410
1.9648,0.1662,38.2400,79,97,81413
2.0186,0.1711,37.9600,79,97,81417
1.9892,0.1662,38.1500,79,97,81420
1.9892,0.1662,38.2400,79,97,81423
1.9941,0.1662,38.2100,79,97,81426
1.9404,0.1613,38.2400,79,97,81430
1.9746,0.1711,37.9600,79,97,81433
1.8524,0.1760,38.0800,79,97,81438
1.7791,0.1662,38.1100,79,97,81441
1.7644,0.1515,38.1500,79,97,81444
1.7546,0.1613,38.2400,79,97,81447
1.7644,0.1613,38.2700,79,97,81452
1.7595,0.1808,38.0500,79,97,81455
1.6960,0.1711,38.1800,79,97,81458
1.6764,0.1564,38.2100,79,97,81461
1.6667,0.1662,38.2100,79,97,81465
1.6569,0.1613,38.3300,79,97,81468
1.7058,0.1515,38.0500,79,97,81471
1.6618,0.1662,38.1800,79,97,81474
1.6471,0.1564,38.1800,79,97,81478
1.6373,0.1662,38.5200,79,97,81481
1.6325,0.1613,37.4900,79,97,81484
1.6862,0.1711,38.0800,79,97,81487
1.6471,0.1760,38.2100,79,97,81491
1.6520,0.1564,38.2400,79,97,81495
1.6569,0.1613,38.2400,79,97,81498
1.6520,0.1613,38.2400,79,97,81501
1.7155,0.1906,38.0200,79,97,81505
1.6911,0.1711,38.1500,79,97,81508
1.6862,0.1564,38.1800,79,97,81511
1.6813,0.1613,38.2100,79,97,81514
1.6813,0.1564,38.2100,79,97,81518
1.7351,0.1808,38.4000,79,97,81521
1.7058,0.1662,38.2100,79,97,81524
1.7253,0.1564,38.2100,79,97,81527
1.7155,0.1760,38.2100,79,97,81531
1.7155,0.1515,38.2400,79,97,81534
1.7644,0.1808,37.9900,79,97,81538
1.7155,0.1662,38.2100,79,97,81541
1.7204,0.1564,38.2400,79,97,81545
1.7204,0.1662,38.2100,79,97,81548
1.7155,0.1515,38.2400,79,97,81551
1.7693,0.1808,37.9900,79,97,81554
1.7302,0.1711,38.1800,79,97,81558
1.7155,0.1564,38.3000,79,97,81561
1.7204,0.1662,38.2400,79,97,81564
1.7155,0.1564,38.2400,79,97,81567
1.7644,0.1808,38.0200,79,97,81571
1.7302,0.1662,37.5300,79,97,81574
1.7204,0.1564,38.2400,79,97,81577
1.7204,0.1662,38.2400,79,97,81581
1.7155,0.1613,38.4000,79,97,81585
1.7693,0.1808,37.9900,79,97,81588
1.7155,0.1662,38.2100,79,97,81591
1.7155,0.1955,38.2100,79,97,81594
1.7204,0.1662,38.0200,79,97,81598
1.7204,0.1515,38.2700,79,97,81601
1.7791,0.1711,37.9600,79,97,81604
1.7498,0.1760,38.1500,79,97,81607
1.7400,0.1564,38.2100,79,97,81611
1.7351,0.1613,38.2100,79,97,81614
1.7302,0.1613,38.3000,79,97,81617
1.7742,0.1906,37.9900,79,97,81620
1.7351,0.1662,38.1500,79,97,81625
1.7253,0.1564,38.2400,79,97,81628
1.7546,0.1613,38.2700,79,97,81631
1.7253,0.1662,38.2700,79,97,81634
1.7791,0.1808,37.9300,79,97,81638
1.7351,0.1613,38.1800,79,97,81641
1.7302,0.1564,38.2400,79,97,81644
1.7400,0.1711,38.2400,79,97,81647
1.7302,0.1662,38.2400,79,97,81651
1.7693,0.1808,38.0500,79,97,81654
1.7546,0.1711,38.1800,79,97,81657
1.7204,0.1564,38.2400,79,97,81660
1.7302,0.1662,38.2100,79,97,81665
1.7351,0.1515,38.2400,79,97,81668
1.7937,0.1760,37.9600,79,97,81671
1.7546,0.1711,38.1800,79,97,81674
1.7449,0.1564,38.3000,79,97,81678
1.7498,0.1662,38.2400,79,97,81681
1.7546,0.1613,38.2400,79,97,81684
1.7986,0.1760,37.9600,79,97,81687
1.7546,0.1564,38.2100,79,97,81691
1.7400,0.1564,38.4300,79,97,81694
1.7400,0.1760,38.2100,79,97,81697
1.7253,0.1613,38.2400,79,97,81700
1.7840,0.2053,37.9900,79,97,81704
1.7546,0.1662,38.1500,79,97,81708
1.7498,0.1564,38.2400,79,97,81711
1.7791,0.1662,38.2100,79,97,81714
1.7546,0.1515,38.2700,79,97,81718
1.8133,0.1711,37.9300,79,97,81721
1.7889,0.1662,38.1800,79,97,81724
1.8328,0.1564,38.2400,79,97,81727
1.8182,0.1711,38.2400,79,97,81731
1.8231,0.1662,38.2700,79,97,81734
1.8817,0.1711,37.9900,79,97,81737
1.8426,0.1613,38.1800,79,97,81740
1.8524,0.1564,38.2400,79,97,81744
1.8475,0.2004,38.2400,79,97,81747
1.8377,0.1613,38.2400,79,97,81751
1.8866,0.1515,37.9300,79,97,81754
1.8524,0.1760,38.1500,79,97,81758
1.8475,0.1857,38.2100,79,97,81761
1.8671,0.1711,38.2400,79,97,81764
1.8719,0.1613,38.2700,79,97,81767
1.9208,0.1711,37.9300,79,97,81771
1.8719,0.1662,38.1800,79,97,81774
1.8524,0.1564,38.3000,79,97,81777
1.8426,0.1662,38.3000,79,97,81780
1.8133,0.1564,38.2100,79,97,81784
1.8524,0.1662,37.9300,79,97,81787
1.7889,0.1711,38.3000,79,97,81790
1.7742,0.1613,38.2700,79,97,81794
1.7644,0.1662,38.2400,79,97,81798
1.7449,0.1613,38.2400,79,97,81801
1.7889,0.1760,37.9300,79,97,81804
1.7498,0.1662,38.0800,79,97,81807
1.7351,0.1613,38.2400,79,97,81811
1.7253,0.1662,38.2100,79,97,81814
1.7107,0.1564,38.3000,79,97,81817
1.7449,0.1711,37.9300,79,97,81820
1.6960,0.1760,38.0200,79,97,81824
1.6862,0.1613,38.2400,79,97,81827
1.6960,0.1662,38.2100,79,97,81830
1.6764,0.1613,38.2700,79,97,81833
1.7204,0.1711,37.9600,79,97,81838
1.6813,0.1613,38.2100,79,97,81841
1.6862,0.1711,38.2700,79,97,81844
1.7058,0.1662,38.3600,79,97,81847
1.7009,0.1613,38.2400,79,97,81851
1.7400,0.1760,37.9300,79,97,81854
1.6911,0.1711,38.1500,79,97,81857
1.6716,0.1613,38.2700,79,97,81860
1.6960,0.1662,38.2100,79,97,81864
1.7400,0.1613,38.2400,79,97,81867
1.8573,0.1808,37.9900,79,97,81870
1.9306,0.1662,38.1800,79,97,81873
2.0577,0.1613,38.2700,79,97,81878
2.2239,0.1662,38.2400,79,97,81881
2.4047,0.1613,38.2700,79,97,81884
2.6637,0.1711,37.9600,79,97,81887
2.6735,0.1613,38.2100,79,97,81891
2.5855,0.1662,38.2400,79,97,81894
2.4291,0.1662,37.5300,79,97,81897
2.2239,0.1515,38.2400,79,97,81900
2.0870,0.1711,37.9600,79,97,81904
1.9257,0.1613,38.1500,79,97,81907
1.8328,0.1613,38.2400,79,97,81910
1.7889,0.1662,38.2100,79,97,81913
1.7449,0.1613,38.2100,79,97,81917
1.7449,0.1760,38.0500,79,97,81921
1.6813,0.1662,38.1500,79,97,81924
1.6471,0.1515,38.2700,79,97,81927
1.6618,0.1613,38.2400,79,97,81931
1.6031,0.1564,38.2400,79,97,81934
1.6373,0.1711,37.9900,79,97,81937
1.5885,0.1515,38.2100,79,97,81940
1.6178,0.1564,38.2400,79,97,81944
1.6129,0.1564,38.1800,79,97,81947
1.6080,0.1613,38.1800,79,97,81950
1.6520,0.1711,37.9600,79,97,81953
1.6325,0.1808,38.1500,79,97,81957
1.6227,0.1613,38.2700,79,97,81960
1.6373,0.1662,38.2100,79,97,81964
1.6422,0.1613,38.2400,79,97,81967
1.6862,0.1613,37.9900,79,97,81971
1.6618,0.1613,38.1500,79,97,81974
1.6569,0.1613,38.3300,79,97,81977
1.6667,0.1662,38.2400,79,97,81980
1.6764,0.1564,38.2400,79,97,81984
1.7302,0.1711,37.9600,79,97,81987
1.6911,0.1613,38.2100,79,97,81990
1.6960,0.1564,38.2400,79,97,81993
1.7009,0.1662,38.2100,79,97,81997
1.6911,0.1613,38.2700,79,97,82000
1.7400,0.1515,37.9600,79,97,82003
1.7351,0.1711,38.1800,79,97,82007
1.7204,0.1613,38.2100,79,97,82011
1.7302,0.1662,38.2700,79,97,82014
1.7253,0.1613,38.2100,79,97,82017
1.7644,0.1662,37.9600,79,97,82020
1.7449,0.1662,38.1500,79,97,82024
1.7449,0.1613,38.2700,79,97,82027
1.7644,0.1662,38.2100,79,97,82030
1.7546,0.1564,38.2700,79,97,82033
1.7986,0.1711,38.0500,79,97,82037
1.7644,0.1613,38.2100,79,97,82040
1.7791,0.1613,38.2400,79,97,82043
1.7986,0.1564,38.2100,79,97,82046
1.8328,0.1515,38.2100,79,97,82052
1.8377,0.1564,38.2400,79,97,82055
1.8866,0.1808,38.0500,79,97,82059
1.8377,0.1662,38.1800,79,97,82062
1.8475,0.1564,38.2400,79,97,82065
1.8426,0.1662,38.2700,79,97,82068
1.8524,0.1515,38.2700,79,97,82072
1.9306,0.1808,37.9600,79,97,82075
1.8817,0.1613,38.2100,79,97,82078
1.8915,0.1564,38.1800,79,97,82081
1.9013,0.1515,38.2100,79,97,82085
1.8964,0.1613,38.2700,79,97,82088
1.9648,0.1711,37.9300,79,97,82092
1.9355,0.1662,38.1800,79,97,82095
1.9306,0.1515,38.2100,79,97,82099
1.9453,0.1662,38.2100,79,97,82102
1.9453,0.1662,38.2400,79,97,82105
2.0088,0.1808,37.9900,79,97,82108
1.9746,0.1662,38.2100,79,97,82112
1.9746,0.1564,38.2100,79,97,82115
1.9746,0.2004,38.3000,79,97,82118
1.9648,0.1613,38.2400,79,97,82121
2.0137,0.1808,37.9300,79,97,82125
1.9648,0.1711,38.2100,79,97,82128
1.9697,0.1613,38.3000,79,97,82131
1.9795,0.1662,38.2100,79,97,82135
1.9697,0.1613,38.2400,79,97,82139
2.0039,0.1955,37.9300,79,97,82142
1.9550,0.1662,38.1800,79,97,82145
1.9355,0.1662,38.2700,79,97,82148
1.9404,0.1613,38.2100,79,97,82152
1.8915,0.1613,38.3300,79,97,82155
1.9110,0.1711,37.9300,79,97,82158
1.8426,0.1662,38.1800,79,97,82161
1.8035,0.1564,38.2400,79,97,82165
1.7791,0.1662,37.8000,79,97,82168
1.7449,0.1613,38.2400,79,97,82171
1.7791,0.1760,37.9300,79,97,82174
1.7204,0.1613,38.1800,79,97,82179
1.7058,0.1613,38.1500,79,97,82182
1.7058,0.1662,38.2400,79,97,82185
1.6716,0.1613,38.2400,79,97,82188
1.6960,0.1760,37.9300,79,97,82192
1.6520,0.1662,38.2400,79,97,82195
1.6325,0.1613,38.2700,79,97,82198
1.6276,0.1662,38.2100,79,97,82201
1.6373,0.1564,38.2700,79,97,82205
1.6764,0.1711,37.9600,79,97,82208
1.6520,0.1662,38.1100,79,97,82211
1.6520,0.1613,38.2700,79,97,82214
1.6520,0.1662,38.2400,79,97,82219
1.6373,0.1613,38.2400,79,97,82222
1.6862,0.1515,37.9600,79,97,82225
1.6422,0.1613,38.1800,79,97,82228
1.6422,0.1564,38.2700,79,97,82232
1.6569,0.1662,38.2100,79,97,82235
1.6471,0.1613,37.6500,79,97,82238
1.7009,0.1711,37.9600,79,97,82241
1.6716,0.1760,38.1500,79,97,82245
1.6569,0.1613,38.3000,79,97,82248
1.6716,0.1662,38.3000,79,97,82251
1.6716,0.1662,38.2700,79,97,82254
1.7253,0.1711,37.9600,79,97,82258
1.6862,0.1662,38.1800,79,97,82262
1.6764,0.1613,38.3600,79,97,82265
1.6813,0.1515,38.2400,79,97,82268
1.6960,0.1662,38.2400,79,97,82272
1.7302,0.1711,37.9600,79,97,82275
1.6960,0.1613,38.2400,79,97,82278
1.6960,0.1613,38.2400,79,97,82281
1.7155,0.1711,38.2100,79,97,82285
1.7009,0.1662,38.2400,79,97,82288
1.7449,0.1711,37.9900,79,97,82291
1.7204,0.1662,38.1500,79,97,82294
1.7058,0.1613,38.2400,79,97,82298
1.7107,0.1613,38.2100,79,97,82301
1.7155,0.1613,38.2400,79,97,82305
1.7644,0.1760,37.9900,79,97,82308
1.7253,0.1662,38.1800,79,97,82312
1.7204,0.1613,38.2700,79,97,82315
1.7155,0.1711,38.2100,79,97,82318
1.7058,0.1613,38.3300,79,97,82321
1.7400,0.1711,37.9600,79,97,82325
1.6960,0.1613,38.2400,79,97,82328
1.7107,0.1613,38.1500,79,97,82331
1.7253,0.1662,38.2700,79,97,82334
1.7107,0.1613,38.2400,79,97,82338
1.7546,0.1711,37.9600,79,97,82341
1.7155,0.1662,38.1800,79,97,82344
1.7009,0.1613,38.4000,79,97,82348
1.7155,0.1662,38.2100,79,97,82352
1.7107,0.1613,38.2400,79,97,82355
1.7546,0.1857,37.9600,79,97,82358
1.7253,0.1662,38.1500,79,97,82361
1.7155,0.1613,38.2700,79,97,82365
1.7204,0.1662,38.2100,79,97,82368
1.7107,0.1662,38.2700,79,97,82371
1.7498,0.1711,38.0200,79,97,82374
1.7058,0.1613,38.2400,79,97,82378
1.7155,0.1613,38.2700,79,97,82381
1.7253,0.1711,38.1100,79,97,82384
1.7107,0.1662,38.3000,79,97,82387
1.7546,0.1515,37.9900,79,97,82392
1.7595,0.1613,38.1800,79,97,82395
1.7204,0.1857,38.3000,79,97,82398
1.7302,0.1662,38.2100,79,97,82401
1.7155,0.1613,38.2400,79,97,82405
1.7498,0.1760,37.9900,79,97,82408
1.7253,0.1711,38.2100,79,97,82411
1.7155,0.1613,38.1800,79,97,82414
1.7253,0.1662,38.2100,79,97,82418
1.7107,0.1613,38.2400,79,97,82421
1.7498,0.1662,37.9600,79,97,82424
1.7058,0.1857,38.2400,79,97,82427
1.7155,0.1613,38.3000,79,97,82432
1.7351,0.1711,38.2400,79,97,82435
1.7204,0.1613,38.2400,79,97,82438
1.7644,0.1760,37.9600,79,97,82441
1.7449,0.1662,38.1500,79,97,82445
1.7498,0.1613,38.2400,79,97,82448
1.7840,0.1662,38.2100,79,97,82451
1.8133,0.1613,38.2400,79,97,82454
1.8328,0.1662,37.9600,79,97,82458
1.8035,0.1662,38.1500,79,97,82461
1.8035,0.1515,38.2400,79,97,82464
1.8280,0.1662,38.2100,79,97,82467
1.8280,0.1906,38.2400,79,97,82471
1.8719,0.1711,37.9900,79,97,82475
1.8231,0.1515,38.2100,79,97,82478
1.8231,0.1613,38.2700,79,97,82481
1.8377,0.1662,38.2100,79,97,82485
1.8231,0.1662,38.2400,79,97,82488
1.8817,0.1711,38.0200,79,97,82491
1.8622,0.1662,38.1500,79,97,82494
1.8475,0.1564,38.2400,79,97,82498
1.8524,0.1662,38.1800,79,97,82501
1.8280,0.1613,38.3600,79,97,82504
1.8475,0.1711,37.9600,79,97,82507
1.8035,0.1662,38.2100,79,97,82511
1.7791,0.1613,38.2400,79,97,82514
1.7742,0.1662,38.2100,79,97,82518
1.7498,0.1515,38.2700,79,97,82521
1.7840,0.1711,38.0200,79,97,82525
1.7351,0.1613,38.3000,79,97,82528
1.7253,0.1613,38.3000,79,97,82531
1.7253,0.1760,38.1800,79,97,82534
1.7058,0.1662,38.2400,79,97,82538
1.7204,0.1711,37.9600,79,97,82541
1.6862,0.1515,38.1500,79,97,82544
1.6764,0.1613,38.2700,79,97,82547
1.6813,0.1711,38.2400,79,97,82551
1.6716,0.1662,38.3000,79,97,82554
1.7058,0.1711,38.0500,79,97,82557
1.6764,0.1711,38.1800,79,97,82561
1.6569,0.1662,38.2400,79,97,82565
1.6667,0.1662,38.2100,79,97,82568
1.6618,0.1613,38.2400,79,97,82571
1.7009,0.1711,37.9900,79,97,82574
1.6813,0.1613,38.2400,79,97,82578
1.6618,0.1613,38.2700,79,97,82581
1.6569,0.1711,38.1800,79,97,82584
1.6373,0.1613,38.2700,79,97,82587
1.7009,0.1613,37.9900,79,97,82591
1.7204,0.1613,38.0800,79,97,82594
1.7889,0.1613,38.2400,79,97,82597
1.9013,0.1760,38.1800,79,97,82600
2.0235,0.1711,38.2400,79,97,82605
2.2239,0.1662,37.9900,79,97,82608
2.3754,0.1662,38.1800,79,97,82611
2.5513,0.1613,38.2400,79,97,82614
2.6393,0.1662,38.2100,79,97,82618
2.5660,0.1613,38.2400,79,97,82621
2.4536,0.1662,38.0200,79,97,82624
2.2434,0.1711,38.2400,79,97,82627
2.0283,0.1857,38.2700,79,97,82631
1.9013,0.1515,38.1800,79,97,82634
1.7840,0.1613,38.2400,79,97,82637
1.7546,0.1662,38.0200,79,97,82640
1.6862,0.1662,38.2400,79,97,82644
1.6471,0.1613,38.2400,79,97,82648
1.6373,0.1711,38.1800,79,97,82651
1.6031,0.1613,38.2700,79,97,82654
1.6227,0.1662,37.9900,79,97,82658
1.6080,0.1711,37.9600,79,97,82662
1.5787,0.1662,38.2100,79,97,82666
1.5738,0.1613,38.2100,79,97,82669
1.5787,0.1662,38.3600,79,97,82672
1.5738,0.1613,38.2400,79,97,82675
1.6325,0.1711,37.9600,79,97,82679
1.6080,0.1711,38.0800,79,97,82682
1.6129,0.1613,38.2700,79,97,82685
1.6276,0.1662,38.3000,79,97,82689
1.6325,0.1613,38.2100,79,97,82693
1.6862,0.1662,37.9300,79,97,82696
1.6667,0.1711,38.2400,79,97,82699
1.6716,0.1613,38.3000,79,97,82702
1.6862,0.1662,38.2400,79,97,82706
1.6764,0.1564,38.2400,79,97,82709
1.7253,0.1711,37.9300,79,97,82712
1.6813,0.2004,38.1100,79,97,82715
1.6862,0.1515,38.2400,79,97,82719
1.6862,0.1662,38.2100,79,97,82722
1.6862,0.1662,38.2700,79,97,82725
1.7302,0.1857,37.9000,79,97,82728
1.6960,0.1662,38.2400,79,97,82733
1.6911,0.1613,38.2700,79,97,82736
1.7253,0.1613,38.2400,79,97,82739
1.7253,0.1613,38.2400,79,97,82742
1.7840,0.1711,37.9300,79,97,82746
1.7498,0.1662,38.1800,79,97,82749
1.7351,0.1564,38.2400,79,97,82752
1.7449,0.1711,38.3000,79,97,82755
1.7449,0.1613,38.3000,79,97,82759
1.7986,0.1711,37.9600,79,97,82762
1.7546,0.1613,38.2400,79,97,82765
1.7644,0.1711,38.2700,79,97,82768
1.7791,0.1662,38.1500,79,97,82772
1.7840,0.1613,37.8300,79,97,82776
1.8426,0.1711,37.9300,79,97,82779
1.8231,0.1662,38.1800,79,97,82782
1.8084,0.1613,38.2700,79,97,82786
1.8182,0.1662,38.2100,79,97,82789
1.8182,0.1515,38.2700,79,97,82792
1.8768,0.1711,37.9300,79,97,82795
1.8524,0.1662,38.1800,79,97,82799
1.8475,0.1466,38.2400,79,97,82802
1.8573,0.1662,38.3300,79,97,82805
1.8622,0.1515,38.2400,79,97,82808
1.9257,0.1760,37.9300,79,97,82812
1.8915,0.1662,38.2100,79,97,82816
1.9062,0.1613,38.4300,79,97,82819
1.9208,0.1662,38.2400,79,97,82822
1.9208,0.1515,38.2700,79,97,82826
1.9941,0.1760,37.9300,79,97,82829
1.9404,0.1662,38.0200,79,97,82832
1.9306,0.1613,38.2700,79,97,82835
1.9697,0.1613,38.2100,79,97,82839
1.9306,0.1613,38.2400,79,97,82842
1.9892,0.1711,37.9300,79,97,82845
1.9501,0.1662,38.1800,79,97,82848
1.9306,0.1613,38.2700,79,97,82852
1.9355,0.1760,38.2100,79,97,82855
1.9306,0.1613,38.3300,79,97,82859
1.9892,0.1760,37.9300,79,97,82862
1.9306,0.1466,38.2100,79,97,82866
1.9306,0.1613,38.2700,79,97,82869
1.9404,0.1662,38.2100,79,97,82872
1.9208,0.1613,38.2400,79,97,82875
1.9550,0.1760,37.9600,79,97,82879
1.9062,0.1662,38.4000,79,97,82882
1.8671,0.1613,38.2700,79,97,82885
1.8377,0.1662,38.2700,79,97,82888
1.8084,0.1857,38.3000,79,97,82892
1.8328,0.1711,38.0200,79,97,82895
1.7840,0.1662,38.1800,79,97,82898
1.7498,0.1662,38.2400,79,97,82902
1.7351,0.1662,38.2100,79,97,82906
1.7058,0.1515,38.2700,79,97,82909
1.7400,0.1760,37.9900,79,97,82912
1.6618,0.1564,38.2100,79,97,82915
1.6569,0.1613,38.3000,79,97,82919
1.6569,0.1711,38.2100,79,97,82922
1.6276,0.1613,38.2100,79,97,82925
1.6569,0.1760,37.9600,79,97,82928
1.6276,0.1662,38.4600,79,97,82932
1.6178,0.1613,38.2700,79,97,82935
1.6373,0.1662,38.2100,79,97,82938
1.6373,0.1564,38.2700,79,97,82941
1.6862,0.2004,37.9600,79,97,82946
1.6569,0.1662,38.1800,79,97,82949
1.6520,0.1613,38.2700,79,97,82952
1.6716,0.1711,38.2100,79,97,82955
1.6716,0.1613,38.3000,79,97,82959
1.7204,0.1711,37.9900,79,97,82962
1.6764,0.1613,38.2100,79,97,82965
1.6764,0.1564,38.2400,79,97,82968
1.6960,0.1613,38.2100,79,97,82972
1.6813,0.1613,38.3300,79,97,82975
1.7351,0.1711,37.9600,79,97,82978
1.7449,0.1662,38.1500,79,97,82981
1.7155,0.1613,38.2400,79,97,82985
1.7351,0.1662,38.2100,79,97,82989
1.7204,0.1613,38.2400,79,97,82992
1.7644,0.1760,37.9600,79,97,82995
1.7351,0.1662,38.1800,79,97,82999
1.7302,0.1613,38.4600,79,97,83002
1.7546,0.1515,38.2100,79,97,83005
1.7449,0.1564,38.2400,79,97,83008
1.7742,0.1857,37.9600,79,97,83012
1.7302,0.1955,38.2100,79,97,83015
1.7400,0.1515,38.2400,79,97,83018
1.7742,0.1613,38.1800,79,97,83021
1.7351,0.1662,38.2400,79,97,83025
1.7791,0.1906,37.9900,79,97,83028
1.7546,0.1662,38.1500,79,97,83032
1.7351,0.1662,38.2700,79,97,83035
1.7595,0.1662,38.2100,79,97,83039
1.7498,0.1515,38.2700,79,97,83042
1.7937,0.1711,38.0500,79,97,83045
1.7595,0.1662,38.1100,79,97,83048
1.7400,0.1564,38.3000,79,97,83052
1.7644,0.1711,38.1800,79,97,83055
1.7498,0.1613,38.2700,79,97,83058
1.7889,0.1662,37.9600,79,97,83061
1.7498,0.1711,38.3000,79,97,83065
1.7449,0.1613,38.2700,79,97,83068
1.7595,0.1711,38.2100,79,97,83072
1.7449,0.1613,38.2400,79,97,83075
1.7986,0.1808,37.9600,79,97,83079
1.7644,0.1760,38.4000,79,97,83082
1.7498,0.1613,38.2400,79,97,83085
1.7644,0.1711,38.2100,79,97,83088
1.7449,0.1662,38.2400,79,97,83092
1.7889,0.1711,37.9900,79,97,83095
1.7693,0.1662,38.1100,79,97,83098
1.7693,0.1613,38.2700,79,97,83101
1.7986,0.1613,38.1800,79,97,83105
1.7644,0.1760,38.2700,79,97,83108
1.7889,0.1711,37.9900,79,97,83111
1.7400,0.1564,38.2100,79,97,83115
1.7546,0.1711,38.2400,79,97,83119
1.7693,0.1711,38.0800,79,97,83122
1.7595,0.1613,38.2400,79,97,83125
1.7986,0.1760,37.9600,79,97,83128
1.7693,0.1906,38.1800,79,97,83132
1.7498,0.1613,38.2700,79,97,83135
1.7644,0.1711,38.4300,79,97,83138
1.7546,0.1613,38.2400,79,97,83141
1.7986,0.1760,37.9900,79,97,83145
1.7742,0.1662,38.1500,79,97,83148
1.7644,0.1613,38.2400,79,97,83151
1.7986,0.1711,38.1100,79,97,83154
1.7644,0.1857,38.3000,79,97,83159
1.8084,0.1662,38.0200,79,97,83162
1.7840,0.1613,38.2700,79,97,83165
1.7986,0.1662,38.2400,79,97,83168
1.8231,0.1711,38.2400,79,97,83172
1.8182,0.1711,38.2400,79,97,83175
1.8671,0.1711,38.0200,79,97,83178
1.8573,0.1613,38.1500,79,97,83181
1.8524,0.1662,38.2400,79,97,83185
1.8768,0.1760,38.1800,79,97,83188
1.8622,0.1613,38.2400,79,97,83191
1.9013,0.1711,38.0500,79,97,83194
1.8817,0.1613,38.1800,79,97,83198
1.8768,0.1613,38.2400,79,97,83202
1.9110,0.1760,38.1500,79,97,83205
1.8964,0.1613,38.2400,79,97,83208
1.9404,0.1662,38.0200,79,97,83212
1.9062,0.1613,38.2700,79,97,83215
1.9013,0.1613,38.2400,79,97,83218
1.9208,0.1808,38.1500,79,97,83221
1.8915,0.1613,38.4300,79,97,83225
1.9110,0.1515,38.0200,79,97,83228
1.8622,0.1662,38.1500,79,97,83231
1.8280,0.1613,38.2700,79,97,83234
1.8280,0.1760,38.1500,79,97,83238
1.8084,0.1515,38.2700,79,97,83241
1.8426,0.1711,38.0200,79,97,83245
1.8035,0.1613,38.1500,79,97,83248
1.7937,0.1613,38.2700,79,97,83252
1.8035,0.1760,38.0500,79,97,83255
1.7595,0.1613,38.3600,79,97,83258
1.7791,0.1515,38.0500,79,97,83261
1.7400,0.1613,38.2400,79,97,83265
1.7351,0.1857,38.2400,79,97,83268
1.7498,0.1711,37.6500,79,98,83271
1.7498,0.1662,38.2400,79,98,83276
1.7302,0.1662,38.2400,79,98,83279
1.7742,0.1711,38.0200,79,98,83282
1.7400,0.1662,38.1800,79,98,83287
1.7302,0.1662,38.2400,79,98,83290
1.7351,0.1955,38.1800,79,98,83293
1.7204,0.1515,38.3000,79,98,83296
1.8035,0.1760,37.9600,79,98,83300
1.7791,0.1662,38.1800,79,98,83303
1.8573,0.1613,38.3000,79,98,83306
1.9697,0.1662,38.2100,79,98,83309
2.0821,0.1613,38.2400,79,98,83313
2.2825,0.2053,37.9900,79,98,83316
2.4291,0.1662,38.4300,79,98,83319
2.6149,0.1613,38.2700,79,98,83322
2.7322,0.1662,38.2100,79,98,83326
2.6735,0.1662,38.2400,79,98,83330
2.5904,0.1711,38.1500,79,98,83333
2.3363,0.1662,38.1500,79,98,83336
2.1261,0.1613,38.2400,79,98,83340
1.9795,0.1711,38.1800,79,98,83343
1.8524,0.1808,38.2400,79,98,83346
1.8328,0.1711,37.9900,79,98,83349
1.7595,0.1515,38.1800,79,98,83353
1.7595,0.1662,38.2700,79,98,83356
1.7155,0.1662,38.2100,79,98,83359
1.6911,0.1662,38.2400,79,98,83362
1.7204,0.1711,37.9600,79,98,83366
1.6862,0.1662,38.1800,79,98,83369
1.6618,0.1613,38.3000,79,98,83373
1.6569,0.1711,38.2400,79,98,83376
1.6373,0.1613,38.2700,79,98,83380
1.6862,0.1711,37.9600,79,98,83383
1.6618,0.1662,38.1800,79,98,83386
1.6569,0.1613,38.2100,79,98,83389
1.6813,0.1711,37.9000,79,98,83393
1.6667,0.1613,38.3000,79,98,83396
1.7107,0.1662,37.9900,79,98,83399
1.6764,0.1564,38.1800,79,98,83402
1.7009,0.1613,38.2400,79,98,83406
1.7546,0.1711,38.1800,79,98,83409
1.7107,0.1662,38.2700,79,98,83412
1.7546,0.1711,38.0200,79,98,83416
1.7253,0.1711,38.1500,79,98,83420
1.7253,0.1613,38.2700,79,98,83423
1.7498,0.1711,38.2400,79,98,83426
1.7400,0.1662,38.2400,79,98,83429
1.7937,0.1711,37.9900,79,98,83433
1.7791,0.1515,38.2400,79,98,83436
1.8035,0.1613,38.3000,79,98,83439
1.7986,0.1711,38.1800,79,98,83442
1.7840,0.1613,38.3000,79,98,83446
1.8280,0.1711,37.9900,79,98,83449
1.7937,0.1564,38.1800,79,98,83452
1.8035,0.1613,38.3000,79,98,83456
1.8182,0.1711,38.2100,79,98,83460
1.8084,0.1613,38.2400,79,98,83463
1.8524,0.1711,37.9900,79,98,83466
1.8328,0.1711,38.1500,79,98,83469
1.8231,0.1613,38.2400,79,98,83473
1.8328,0.1711,38.2100,79,98,83476
1.8377,0.1613,38.2700,79,98,83479
1.8866,0.1808,38.0200,79,98,83482
1.8671,0.1662,38.1500,79,98,83486
1.8671,0.1613,38.2700,79,98,83489
1.9013,0.1711,38.1800,79,98,83492
1.8719,0.1564,38.2400,79,98,83495
1.9110,0.1711,38.0200,79,98,83500
1.8719,0.1564,38.2100,79,98,83503
1.8817,0.1613,38.2400,79,98,83506
1.9062,0.1613,38.2100,79,98,83509
1.9062,0.1662,38.2400,79,98,83513
1.9550,0.1711,37.9900,79,98,83516
1.9404,0.1515,38.1800,79,98,83519
1.9306,0.1613,38.2700,79,98,83522
1.9550,0.1711,38.2100,79,98,83526
1.9550,0.1613,38.3000,79,98,83529
2.0430,0.1711,37.9900,79,98,83532
1.9795,0.1808,38.1500,79,98,83535
1.9746,0.1613,38.3300,79,98,83539
2.0088,0.1760,38.2100,79,98,83543
1.9892,0.1662,38.2100,79,98,83546
2.0479,0.1515,37.9900,79,98,83549
2.0235,0.1613,38.2100,79,98,83553
2.0332,0.1613,38.2700,79,98,83556
2.0528,0.1760,38.1800,79,98,83559
2.0332,0.1613,38.2700,79,98,83562
2.0674,0.1760,38.0200,79,98,83566
2.0430,0.1662,38.0800,79,98,83569
2.0283,0.1564,38.2400,79,98,83572
2.0430,0.1760,38.1800,79,98,83575
2.0283,0.1662,38.2400,79,98,83578
2.0577,0.1613,38.0800,79,98,83582
2.0332,0.1613,38.2100,79,98,83586
2.0674,0.1613,38.2400,79,98,83589
2.0479,0.1662,38.1500,79,98,83592
2.0137,0.1613,38.2400,79,98,83596
2.0186,0.1613,38.0500,79,98,83599
1.9550,0.1662,38.2700,79,98,83602
1.9355,0.1613,38.2700,79,98,83605
1.9355,0.1760,38.1500,79,98,83609
1.8964,0.1760,38.2700,79,98,83612
1.9013,0.1662,38.1100,79,98,83615
1.8622,0.1613,38.1800,79,98,83618
1.8328,0.1564,38.2400,79,98,83622
1.8280,0.1857,38.1800,79,98,83625
1.7986,0.1662,38.3600,79,98,83629
1.7986,0.1613,38.1100,79,98,83632
1.7546,0.1662,38.2400,79,98,83636
1.7449,0.1662,38.2700,79,98,83639
1.7498,0.1662,38.1500,79,98,83642
1.7302,0.1662,38.2400,79,98,83645
1.7498,0.1564,38.0800,79,98,83649
1.7302,0.1613,38.2700,79,98,83652
1.7400,0.1613,38.2700,79,98,83655
1.7595,0.1760,38.1100,79,98,83658
1.7693,0.1711,38.2400,79,98,83662
1.7595,0.1662,38.0500,79,98,83665
1.7449,0.1613,38.1800,79,98,83668
1.7498,0.1613,38.2700,79,98,83672
1.7693,0.1711,38.1500,79,98,83676
1.7546,0.1808,38.3000,79,98,83679
1.7742,0.1662,38.1100,79,98,83682
1.7546,0.1613,38.2400,79,98,83685
1.7889,0.1613,38.2700,79,98,83689
1.7742,0.1760,38.0800,79,98,83692
1.7644,0.1515,38.2400,79,98,83695
1.7889,0.1662,38.0800,79,98,83698
1.7644,0.1711,38.2400,79,98,83702
1.7742,0.1613,38.2100,79,98,83705
1.8084,0.1711,38.1100,79,98,83708
1.7986,0.1662,38.2400,79,98,83712
1.8280,0.1662,38.1100,79,98,83716
1.8035,0.1613,38.2100,79,98,83719
1.8084,0.1515,38.2700,79,98,83722
1.8280,0.1711,38.1500,79,98,83725
1.8426,0.1662,38.2700,79,98,83729
1.8377,0.1808,37.6500,79,98,83732
1.8035,0.1515,38.3300,79,98,83735
1.7986,0.1613,38.3000,79,98,83738
1.8133,0.1760,38.1100,79,98,83742
1.8133,0.1662,38.2400,79,98,83745
1.8377,0.1613,38.1100,79,98,83748
1.8035,0.1662,38.2700,79,98,83751
1.8084,0.1613,38.2400,79,98,83756
1.8377,0.1711,38.1800,79,98,83759
1.8182,0.1662,38.2700,79,98,83762
1.8573,0.1613,38.1500,79,98,83765
1.8280,0.1564,38.2100,79,98,83769
1.8280,0.1613,38.4600,79,98,83772
1.8377,0.1662,38.2400,79,98,83775
1.8084,0.1613,38.2400,79,98,83778
1.8280,0.1564,38.1100,79,98,83782
1.8084,0.1955,38.2100,79,98,83785
1.8133,0.1613,38.2400,79,98,83788
1.8231,0.1662,38.1500,79,98,83791
1.8133,0.1711,38.2400,79,98,83795
1.8426,0.1662,38.1100,79,98,83799
1.8133,0.1613,38.2700,79,98,83802
1.8133,0.1613,38.2700,79,98,83805
1.8573,0.1760,38.1100,79,98,83809
1.8328,0.1662,38.2400,79,98,83812
1.8524,0.2004,38.1100,79,98,83815
1.8280,0.1613,38.2100,79,98,83818
1.8475,0.1613,38.2400,79,98,83822
1.8573,0.1564,38.1100,79,98,83825
1.8280,0.1662,37.4900,79,98,83828
1.8573,0.1760,38.1500,79,98,83831
1.8231,0.1613,38.2400,79,98,83835
1.8280,0.1662,38.2700,79,98,83838
1.8377,0.1662,38.1500,79,98,83842
1.8328,0.1515,38.2400,79,98,83845
1.8671,0.1760,38.1100,79,98,83849
1.8426,0.1613,38.2400,79,98,83852
1.8328,0.1808,38.2700,79,98,83855
1.8573,0.1515,38.1100,79,98,83858
1.8231,0.1662,38.2400,79,98,83862
1.8426,0.1711,38.1500,79,98,83865
1.8182,0.1564,38.2100,79,98,83868
1.8182,0.1613,38.2700,79,98,83871
1.8426,0.1515,38.1500,79,98,83875
1.8573,0.1662,38.2400,79,98,83878
1.8573,0.1760,38.1500,79,98,83881
1.8328,0.1662,38.3600,80,98,83885
1.8866,0.1662,38.2700,80,98,83890
1.8915,0.1808,38.3000,80,98,83893
1.9110,0.1711,38.1500,80,98,83897
1.9110,0.1613,38.2400,80,98,83900
1.9795,0.1613,38.0200,80,98,83903
1.9257,0.1857,38.1500,80,98,83906
1.9208,0.1613,38.1800,80,98,83910
1.9550,0.1711,38.0800,80,98,83913
1.9404,0.1711,38.2400,80,98,83916
1.9746,0.1662,38.0800,80,98,83919
1.9550,0.1662,38.1800,80,98,83923
1.9501,0.1613,38.2700,80,98,83927
1.9599,0.1711,38.1100,80,98,83930
1.9355,0.1613,38.2400,80,98,83933
1.9501,0.1662,38.0500,80,98,83937
1.9062,0.1613,38.3300,80,98,83940
1.8768,0.1662,38.2700,80,98,83943
1.8866,0.1711,38.1500,80,98,83946
1.8524,0.1613,38.2700,80,98,83950
1.8768,0.1662,38.0500,80,98,83953
1.8622,0.1613,38.1800,80,98,83956
1.8231,0.1613,38.2400,80,98,83959
1.8328,0.1613,38.1100,80,98,83963
1.7986,0.1613,38.3000,80,98,83966
1.8133,0.1662,38.0500,80,98,83970
1.7644,0.1613,38.1800,80,98,83973
1.7644,0.1711,38.2100,80,98,83977
1.7693,0.1662,38.1500,80,98,83980
1.7449,0.1613,38.2700,80,98,83983
1.7546,0.1662,38.0500,80,98,83986
1.7595,0.1613,38.2400,80,98,83990
1.7351,0.1808,38.2400,80,98,83993
1.7595,0.1711,38.1500,80,98,83996
1.7595,0.1613,38.2400,80,98,83999
1.7791,0.1613,38.0500,80,98,84003
1.7498,0.1613,38.1500,80,98,84006
1.7449,0.1613,38.2400,80,98,84009
1.7546,0.1711,38.1100,80,98,84013
1.7302,0.1662,38.2700,80,98,84017
1.7498,0.1760,38.0500,80,98,84020
1.7302,0.1613,38.2100,80,98,84023
1.7693,0.1613,38.2700,80,98,84026
1.8524,0.1613,38.0800,80,98,84030
1.9306,0.1662,38.2100,80,98,84033
2.0919,0.1662,38.0800,80,98,84036
2.2385,0.1613,38.2400,80,98,84039
2.3851,0.1808,38.2400,80,98,84043
2.6002,0.1711,38.1800,80,98,84046
2.6931,0.1662,38.2400,80,98,84049
2.6882,0.1662,38.0800,80,98,84052
2.5122,0.1613,38.2100,80,98,84057
2.3167,0.1613,38.2700,80,98,84060
2.1408,0.1662,38.1100,80,98,84063
1.9697,0.1662,38.2700,80,98,84066
1.9013,0.1662,38.4300,80,98,84070
1.8328,0.1613,38.2100,80,98,84073
1.7986,0.1613,38.2700,80,98,84076
1.7693,0.1662,38.1500,80,98,84079
1.7204,0.1711,38.2400,80,98,84083
1.7107,0.1613,38.0800,80,98,84086
1.6618,0.1613,38.2700,80,98,84089
1.6422,0.1613,38.2400,80,98,84092
1.6520,0.2004,38.1500,80,98,84097
1.6325,0.1613,38.4000,80,98,84100
1.6569,0.1613,38.0800,80,98,84103
1.6276,0.1857,38.1800,80,98,84106
1.6276,0.1613,38.4000,80,98,84110
1.6373,0.1662,38.3300,80,98,84113
1.6422,0.1662,38.2700,80,98,84116
1.6667,0.1662,38.0800,80,98,84119
1.6520,0.1564,38.6200,80,98,84123
1.6618,0.1613,38.2700,80,98,84126
1.6813,0.1662,38.1500,80,98,84129
1.6764,0.1662,38.2400,80,98,84132
1.7107,0.1613,38.1500,80,98,84136
1.6911,0.1613,38.3300,80,98,84140
1.7009,0.1613,38.2700,80,98,84143
1.7302,0.1760,38.1500,80,98,84146
1.7009,0.1711,38.2400,80,98,84150
1.7302,0.1613,38.0500,80,98,84153
1.7107,0.1613,38.2400,80,98,84156
1.7302,0.1662,38.2400,80,98,84159
1.7546,0.1662,38.1100,80,98,84163
1.7400,0.1711,38.2400,80,98,84166
1.7693,0.1515,38.1100,80,98,84169
1.7693,0.1613,38.2400,80,98,84172
1.7498,0.1662,38.2400,80,98,84176
1.7742,0.1662,38.1100,80,98,84179
1.7693,0.1613,38.3000,80,98,84183
1.7986,0.1613,38.1100,80,98,84186
1.8035,0.1613,38.2700,80,98,84190
1.7693,0.1613,38.2100,80,98,84193
1.7937,0.1711,38.1500,80,98,84196
1.7791,0.1662,38.2400,80,98,84199
1.8084,0.1613,38.1100,80,98,84203
1.7840,0.1662,38.1800,80,98,84206
1.7840,0.1613,38.3600,80,98,84209
1.8133,0.1662,38.2400,80,98,84212
1.8133,0.1662,38.2400,80,98,84216
1.8524,0.1711,38.1100,80,98,84219
1.8328,0.1662,38.2400,80,98,84222
1.8328,0.1613,38.3600,80,98,84226
1.8328,0.1613,38.1500,80,98,84230
1.8377,0.1662,38.2400,80,98,84233
1.8719,0.1564,38.1100,80,98,84236
1.8671,0.1662,38.2400,80,98,84239
1.8768,0.1613,38.3000,80,98,84243
1.9159,0.1711,38.1500,80,98,84246
1.8915,0.1662,38.2400,80,98,84249
1.9208,0.1711,38.1100,80,98,84252
1.8964,0.1613,38.3000,80,98,84256
1.9062,0.1613,38.3000,80,98,84259
1.9404,0.1613,38.1100,80,98,84262
1.9257,0.1662,38.2700,80,98,84265
1.9599,0.1711,38.1100,80,98,84270
1.9550,0.1613,38.2400,80,98,84273
1.9355,0.1662,38.2700,80,98,84276
1.9550,0.1613,38.1500,80,98,84279
1.9550,0.1613,38.2700,80,98,84283
1.9844,0.1662,38.1800,80,98,84286
1.9746,0.1613,38.2400,80,98,84289
1.9599,0.1906,38.2400,80,98,84292
2.0039,0.1711,38.1500,80,98,84296
1.9844,0.1613,38.2400,80,98,84299
2.0088,0.1662,38.1800,80,98,84302
1.9746,0.1564,38.0500,80,98,84305
1.9746,0.1613,38.2400,80,98,84310
1.9892,0.1711,38.1500,80,98,84313
1.9550,0.1613,38.2400,80,98,84316
1.9697,0.1711,38.1500,80,98,84319
1.9257,0.1613,38.2400,80,98,84323
1.9062,0.1564,38.2400,80,98,84326
1.8964,0.1613,38.0800,80,98,84329
1.8671,0.1613,38.2400,80,98,84332
1.8622,0.1662,38.1800,80,98,84336
1.8182,0.1564,38.2700,80,98,84339
1.8035,0.1613,38.2400,80,98,84342
1.8084,0.1711,38.1100,80,98,84345
1.7546,0.1613,38.2400,80,98,84349
1.7546,0.1613,38.1100,80,98,84353
1.7107,0.1662,38.2400,80,98,84356
1.7058,0.1515,38.2400,80,98,84359
1.7253,0.1711,38.1500,80,98,84363
1.6960,0.1613,38.2400,80,98,84366
1.7009,0.1711,38.1100,80,98,84369
1.6716,0.1613,38.2700,80,98,84372
1.6667,0.1515,38.2400,80,98,84376
1.6764,0.1613,38.1800,80,98,84379
1.6618,0.2151,38.3000,80,98,84382
1.6813,0.1662,38.1500,80,98,84385
1.6520,0.1613,38.2700,80,98,84389
1.6618,0.1613,38.2400,80,98,84392
1.7107,0.1760,38.1800,80,98,84396
1.6862,0.1613,38.2400,80,98,84399
1.7107,0.1662,38.0200,80,98,84403
1.6862,0.1613,38.2700,80,98,84406
1.6813,0.1613,38.2700,80,98,84409
1.7302,0.1760,38.1800,80,98,84412
1.6813,0.1662,38.3600,80,98,84416
1.7107,0.1662,38.1500,80,98,84419
1.6862,0.1613,38.2400,80,98,84422
1.7107,0.1564,38.2700,80,98,84425
1.7253,0.1760,38.2100,80,98,84429
1.7107,0.1662,38.0800,80,98,84432
1.7400,0.1662,38.0800,80,98,84435
1.7498,0.1662,38.2400,80,98,84439
1.7351,0.1711,38.2400,80,98,84443
1.7693,0.1711,37.3700,80,98,84446
1.7449,0.1662,38.3000,80,98,84449
1.7595,0.1662,38.1500,80,98,84452
1.7400,0.1613,38.2700,80,98,84456
1.7498,0.1613,38.2700,80,98,84459
1.7791,0.1515,38.1500,80,98,84462
1.7546,0.1613,38.2400,80,98,84465
1.7693,0.1711,38.1100,80,98,84469
1.7449,0.1613,38.2400,80,98,84472
1.7498,0.1613,38.2400,80,98,84475
1.7742,0.1662,38.2100,80,98,84478
1.7595,0.1613,38.2400,80,98,84483
1.7693,0.1613,38.0800,80,98,84486
1.7449,0.1955,38.2700,80,98,84489
1.7498,0.1613,37.9600,80,98,84492
1.7840,0.1711,38.0800,80,98,84496
1.7742,0.1662,38.0800,80,98,84500
1.7644,0.1613,38.2400,80,98,84504
1.7986,0.1662,38.0500,80,98,84507
1.7742,0.1564,38.2100,80,98,84510
1.7742,0.1515,38.2400,80,98,84513
1.7840,0.1662,38.1100,80,98,84517
1.7644,0.1662,38.2400,80,98,84520
1.7889,0.1613,38.0500,80,98,84524
1.7644,0.1613,38.1500,80,98,84527
1.7595,0.1613,38.2700,80,98,84531
1.7742,0.1662,38.1500,80,98,84534
1.7449,0.1564,38.2700,80,98,84537
1.7742,0.1613,38.1500,80,98,84540
1.7546,0.1515,38.1800,80,98,84544
1.7693,0.1564,38.2700,80,98,84547
1.7937,0.1955,38.1100,80,98,84550
1.7693,0.1613,38.1800,80,98,84553
1.7840,0.1613,38.1100,80,98,84557
1.7595,0.1662,38.2100,80,98,84560
1.7693,0.1613,37.7100,80,98,84563
1.7889,0.1613,38.2400,80,98,84567
1.7840,0.1613,38.2400,80,98,84571
1.8084,0.1662,38.1100,80,98,84574
1.7840,0.2102,38.2100,80,98,84577
1.7840,0.1613,38.2700,80,98,84580
1.8182,0.1711,38.1500,80,98,84584
1.7889,0.1613,38.2700,80,98,84587
1.8084,0.1857,38.0500,80,98,84590
1.7889,0.1515,38.1800,80,98,84593
1.7889,0.1564,38.2700,80,98,84597
1.8231,0.1613,38.1800,80,98,84600
1.8182,0.1613,38.2100,80,98,84603
1.8622,0.1613,38.0800,80,98,84606
1.8524,0.1564,38.2400,80,98,84611
1.8671,0.1613,38.2400,80,98,84614
1.8719,0.1711,38.1500,80,98,84617
1.8622,0.1613,38.2400,80,98,84620
1.8915,0.1613,38.0800,80,98,84624
1.8719,0.1613,38.2400,80,98,84627
1.8768,0.1662,38.3000,80,98,84630
1.9013,0.1711,38.1100,80,98,84633
1.8817,0.1613,38.2400,80,98,84637
1.9159,0.1613,38.0800,80,98,84640
1.9062,0.1662,38.1500,80,98,84643
1.9208,0.1613,38.1500,80,98,84646
1.9501,0.1711,38.0800,80,98,84651
1.9306,0.1613,38.2400,80,98,84654
1.9501,0.1564,38.1100,80,98,84657
1.9110,0.1564,38.2700,80,98,84660
1.8915,0.1613,38.2700,80,98,84664
1.8964,0.1613,38.1500,80,98,84667
1.8524,0.1662,38.3000,80,98,84670
1.8622,0.1613,38.1500,80,98,84673
1.8231,0.1613,38.1800,80,98,84677
1.8182,0.1613,38.2400,80,98,84680
1.8328,0.1711,38.1100,80,98,84683
1.7986,0.1613,38.2400,80,98,84686
1.8035,0.1613,38.1100,80,98,84690
1.7546,0.1564,38.2100,80,98,84694
1.7498,0.1564,38.2700,80,98,84697
1.7791,0.1613,38.1500,80,98,84700
1.7302,0.1711,38.2400,80,98,84704
1.7546,0.1613,38.1100,80,98,84707
1.7253,0.1564,38.2400,80,98,84710
1.7253,0.1613,38.2700,80,98,84713
1.7351,0.1662,38.1100,80,98,84717
1.7253,0.1613,38.2700,80,98,84720
1.7595,0.1613,38.1100,80,98,84723
1.7400,0.1613,38.2400,80,98,84726
1.7546,0.1613,38.2700,80,98,84730
1.7840,0.1711,38.4000,80,98,84733
1.7595,0.1613,38.2700,80,98,84737
1.7986,0.1564,38.1100,80,98,84740
1.7400,0.1613,38.2100,80,98,84744
1.7546,0.1515,38.2700,80,98,84747
1.8035,0.1515,38.1100,80,98,84750
1.8524,0.1613,38.2400,80,98,84753
1.9550,0.1662,38.1500,80,98,84757
2.0479,0.1613,38.2400,80,98,84760
2.1994,0.1613,38.2700,80,98,84763
2.3754,0.1857,38.1500,80,98,84766
2.5611,0.1613,38.2700,80,98,84770
2.7175,0.1662,38.1500,80,98,84773
2.6442,0.1613,38.2700,80,98,84776
2.5073,0.1613,38.2400,80,98,84780
2.3607,0.1760,38.1500,80,98,84784
2.1408,0.1613,38.2400,80,98,84787
2.0479,0.1662,38.1500,80,98,84790
1.8866,0.1564,38.2400,80,98,84793
1.8231,0.1613,38.2700,80,98,84797
1.8084,0.1662,38.1500,80,98,84800
1.7595,0.1662,38.2400,80,98,84803
1.7546,0.1711,38.2100,80,98,84806
1.7107,0.1515,38.2700,80,98,84810
1.6960,0.1613,38.2700,80,98,84813
1.6862,0.1662,38.1500,80,98,84816
1.6667,0.1613,38.3600,80,98,84819
1.6862,0.1711,38.1500,80,98,84824
1.6618,0.1613,38.2400,80,98,84827
1.6520,0.1613,38.2700,80,98,84830
1.6764,0.1808,38.1100,80,98,84833
1.6520,0.1613,38.4600,80,98,84837
1.6813,0.1515,38.1500,80,98,84840
1.6667,0.1613,38.2400,80,98,84843
1.6862,0.1662,38.2400,80,98,84846
1.7155,0.2053,38.1100,80,98,84850
1.7009,0.1515,38.2700,80,98,84853
1.7253,0.1613,38.1100,80,98,84856
1.7107,0.1808,38.2700,80,98,84859
1.7204,0.1613,38.2400,80,98,84864
1.7400,0.1613,38.2100,80,98,84867
1.7351,0.1564,38.2400,80,98,84870
1.7644,0.1662,38.1500,80,98,84873
1.7449,0.1613,38.2700,80,98,84877
1.7546,0.1613,38.2700,80,98,84880
1.7889,0.1711,38.1100,80,98,84883
1.7889,0.1613,38.2400,80,98,84886
1.7889,0.1711,38.1500,80,98,84890
1.7644,0.1613,38.2700,80,98,84893
1.7693,0.1662,38.2400,80,98,84896
1.8035,0.1808,38.1500,80,98,84899
1.7937,0.1662,37.5900,80,98,84903
1.8231,0.1662,38.1100,80,98,84907
1.7986,0.1613,38.2400,80,98,84910
1.8035,0.1564,38.2700,80,98,84913
1.8182,0.1613,38.1500,80,98,84917
1.8133,0.1613,38.2400,80,98,84920
1.8573,0.1613,38.1500,80,98,84923
1.8377,0.1613,38.2400,80,98,84926
1.8524,0.1711,38.3000,80,98,84930
1.8866,0.1711,38.1100,80,98,84933
1.8622,0.1662,38.2700,80,98,84936
1.8817,0.1711,38.1100,80,98,84939
1.8671,0.1662,38.2700,80,98,84943
1.8817,0.1613,38.2400,80,98,84946
1.9159,0.1711,37.7700,80,98,84950
1.9013,0.1662,38.2700,80,98,84953
1.9306,0.1711,38.1500,80,98,84957
1.9110,0.2053,38.2100,80,98,84960
1.9159,0.1613,38.3600,80,98,84963
1.9453,0.1613,38.1800,80,98,84966
1.9355,0.1613,38.2700,80,98,84970
1.9746,0.1955,38.1500,80,98,84973
1.9550,0.1613,38.2400,80,98,84976
1.9697,0.1613,38.2700,80,98,84979
2.0137,0.1711,38.0800,80,98,84983
2.0039,0.1564,38.2400,80,98,84986
2.0283,0.1662,38.0500,80,98,84989
2.0137,0.1613,38.2700,80,98,84993
2.0088,0.1613,38.2700,80,98,84997
2.0430,0.1711,37.9900,80,98,85000
2.0332,0.1711,38.2400,80,98,85003
2.0528,0.1662,37.3700,80,98,85006
2.0283,0.1613,38.2400,80,98,85010
2.0332,0.1564,38.2400,80,98,85013
2.0577,0.1711,38.0200,80,98,85016
2.0381,0.1662,38.2400,80,98,85019
2.0626,0.2004,38.1100,80,98,85022
2.0430,0.1613,38.2700,80,98,85026
2.0479,0.1613,38.2400,80,98,85029
2.0674,0.1662,38.1100,80,98,85032
2.0332,0.1613,37.7100,80,98,85036
2.0235,0.1613,38.1500,80,98,85040
1.9892,0.1662,38.3000,80,98,85043
1.9746,0.1613,38.2700,80,98,85046
1.9941,0.1711,38.0800,80,98,85049
1.9550,0.1662,38.2400,80,98,85053
1.9208,0.1613,38.1500,80,98,85056
1.8768,0.1613,38.2700,80,98,85059
1.8573,0.1613,38.2700,80,98,85062
1.8817,0.1760,38.1500,80,98,85066
1.8426,0.1662,38.1500,80,98,85069
1.8182,0.1613,38.1500,80,98,85072
1.7742,0.1613,38.2400,80,98,85075
1.7595,0.1613,38.2400,80,98,85080
1.7693,0.1906,38.1100,80,98,85083
1.7449,0.1662,38.4600,80,98,85086
1.7449,0.1613,38.1500,80,98,85089
1.7107,0.1613,38.2400,80,98,85093
1.7107,0.1711,38.2100,80,98,85096
1.7400,0.1711,38.2100,80,98,85099
1.7302,0.1662,38.2400,80,98,85102
1.7351,0.1711,38.1100,80,98,85106
1.7302,0.1613,38.4300,80,98,85109
1.7302,0.1613,38.2700,80,98,85114
1.7351,0.1613,38.2700,80,98,85117
1.7742,0.1711,38.1100,80,98,85121
1.7546,0.1564,38.2700,80,98,85124
1.7840,0.1662,38.1500,80,98,85128
1.7595,0.1564,38.2400,80,98,85131
1.7644,0.1662,38.2400,80,98,85134
1.7889,0.1613,38.1100,80,98,85137
1.7546,0.1613,38.2400,80,98,85141
1.7889,0.1760,38.0800,80,98,85144
1.7644,0.1760,38.2700,80,98,85147
1.7693,0.1613,38.2700,80,98,85150
1.7840,0.1662,38.2100,80,98,85154
1.7889,0.1662,38.2100,80,98,85157
1.8035,0.1711,38.1500,80,98,85160
1.7693,0.1613,38.2700,80,98,85164
1.7644,0.1564,38.2400,80,98,85168
1.8035,0.1760,38.0800,80,98,85171
1.7937,0.1662,38.2400,80,98,85174
1.8328,0.1515,38.1500,80,98,85177
1.8182,0.1613,38.2400,80,98,85181
1.8133,0.1515,38.2700,80,98,85184
1.8377,0.2102,38.1100,80,98,85187
1.8182,0.1515,38.2400,80,98,85190
1.8573,0.1711,38.1100,80,98,85194
1.8133,0.1564,38.2100,80,98,85197
1.8084,0.1613,38.2400,80,98,85200
1.8182,0.1613,38.1800,80,98,85203
1.8035,0.1662,38.2700,80,98,85208
1.8328,0.1711,38.1100,80,98,85211
1.8133,0.1711,38.3000,80,98,85214
1.8182,0.1613,38.0800,80,98,85217
1.8475,0.1711,38.0800,80,98,85221
1.8182,0.1662,38.2100,80,98,85224
1.8426,0.1808,38.1100,80,98,85227
1.8182,0.1613,37.6200,80,98,85230
1.8182,0.1613,38.2400,80,98,85234
1.8475,0.1711,38.1500,80,98,85237
1.8231,0.1662,38.2400,80,98,85240
1.8426,0.1662,38.1100,80,98,85243
1.8133,0.1613,38.2700,80,98,85248
1.8231,0.1613,38.2700,80,98,85251
1.8475,0.1613,38.2100,80,98,85254
1.8426,0.1711,38.2700,80,98,85257
1.8622,0.1711,38.1100,80,98,85261
1.8280,0.1857,38.2700,80,98,85264
1.8231,0.1613,38.2700,80,98,85267
1.8475,0.1711,38.1100,80,98,85270
1.8231,0.1662,38.2400,80,98,85274
1.8524,0.1711,38.1100,80,98,85277
1.8280,0.1613,38.2700,80,98,85280
1.8231,0.1613,38.2400,80,98,85283
1.8573,0.1760,38.1500,80,98,85287
1.8328,0.1808,38.2400,80,98,85291
1.8622,0.1515,38.1100,80,98,85294
1.8426,0.1613,38.2400,80,98,85297
1.8475,0.1613,38.2400,80,98,85301
1.8573,0.1564,38.2100,80,98,85304
1.8475,0.1613,38.2400,80,98,85307
1.8915,0.1711,38.1100,80,98,85310
1.8671,0.1613,38.2700,80,98,85314
1.8719,0.1662,38.3000,80,98,85317
1.9062,0.1711,38.0200,80,98,85320
1.8817,0.1662,38.2400,80,98,85323
1.9208,0.1662,38.0800,80,98,85327
1.9013,0.1613,38.2400,80,98,85330
1.9208,0.1613,38.2700,80,98,85334
1.9746,0.1760,38.1500,80,98,85337
1.9599,0.1662,38.2400,80,98,85341
1.9844,0.1662,38.1800,80,98,85344
1.9550,0.1613,38.2400,80,98,85347
1.9599,0.1613,38.2400,80,98,85350
1.9746,0.1711,38.1800,80,98,85354
1.9697,0.1613,38.3300,80,98,85357
1.9990,0.1515,38.1100,80,98,85360
1.9697,0.1613,38.2400,80,98,85363
1.9648,0.1613,38.2400,80,98,85367
1.9892,0.1808,38.0500,80,98,85370
1.9501,0.1662,38.3300,80,98,85373
1.9404,0.1613,38.1100,80,98,85377
1.8964,0.1613,38.2700,80,98,85381
1.8768,0.1515,38.2100,80,98,85384
1.8964,0.1515,38.0800,80,98,85387
1.8719,0.1564,38.2100,80,98,85390
1.8866,0.1662,38.1100,80,98,85394
1.8671,0.1613,38.2700,80,98,85397
1.8524,0.1613,38.2400,80,98,85400
1.8622,0.1808,38.1800,80,98,85403
1.8328,0.1711,38.2700,80,98,85407
1.8475,0.1662,38.1100,80,98,85410
1.8133,0.1613,38.2400,80,98,85413
1.8133,0.1564,38.2700,80,98,85416
1.8182,0.1711,38.0200,80,98,85421
1.7889,0.1662,38.2700,80,98,85424
1.7889,0.1662,38.1500,80,98,85427
1.7889,0.1662,38.2700,80,98,85430
1.7889,0.1613,38.2700,80,98,85434
1.8231,0.1711,38.1500,80,98,85437
1.8035,0.1613,38.2100,80,98,85440
1.8280,0.1564,38.1100,80,98,85443
1.7986,0.1613,38.4000,80,98,85447
1.7937,0.1613,38.2700,80,98,85450
1.8133,0.1711,38.1800,80,98,85453
1.7791,0.1613,38.2400,80,98,85456
1.7889,0.1662,38.0800,80,98,85460
1.7986,0.1613,37.8300,80,98,85464
1.8573,0.1613,38.2700,80,98,85467
1.9990,0.1711,38.0500,80,98,85470
2.1408,0.1613,38.2400,80,98,85474
2.2776,0.1662,38.1800,80,98,85477
2.4389,0.1515,38.2700,80,98,85480
2.6344,0.1613,38.2400,80,98,85483
2.8006,0.1760,38.0800,80,98,85487
2.7468,0.1662,38.1800,80,98,85490
2.6344,0.1662,38.1100,80,98,85493
2.4145,0.1662,38.2400,80,98,85496
2.2092,0.1613,38.2100,80,98,85500
2.0577,0.1515,38.1800,80,98,85504
1.9110,0.1662,38.2100,80,98,85507
1.8475,0.1662,38.1500,80,98,85510
1.7840,0.1613,38.2700,80,98,85514
1.7546,0.1515,38.2700,80,98,85517
1.7644,0.1760,37.9000,80,98,85520
1.7302,0.1662,38.2100,80,98,85523
1.7253,0.1613,38.1800,80,98,85527
1.7107,0.1662,38.2700,80,98,85530
1.7302,0.1613,38.2700,80,98,85533
1.7351,0.1711,38.1100,80,98,85536
1.7155,0.1662,38.2100,80,98,85540
1.7155,0.1613,38.1500,80,98,85543
1.7009,0.1613,38.2700,80,98,85547
1.7009,0.1662,38.2700,80,98,85550
1.7400,0.1711,38.2100,80,98,85554
1.7204,0.1662,38.2400,80,98,85557
1.7302,0.1564,38.1800,80,98,85560
1.7204,0.1613,38.3000,80,98,85563
1.7204,0.1515,38.2400,80,98,85567
1.7693,0.1711,38.0500,80,98,85570
1.7595,0.1613,38.2400,80,98,85573
1.7742,0.1613,38.1500,80,98,85576
1.7595,0.1613,38.2700,80,98,85580
1.7595,0.1613,38.2700,80,98,85583
1.8035,0.1760,38.1100,80,98,85586
1.7937,0.1613,38.2100,80,98,85590
1.8035,0.1613,38.0800,80,98,85594
1.7986,0.1613,38.2700,80,98,85597
1.7986,0.1613,38.2700,80,98,85600
1.8280,0.1760,38.1800,80,98,85603
1.8035,0.1662,38.3000,80,98,85607
1.8182,0.1564,38.1800,80,98,85610
1.8182,0.1613,38.2400,80,98,85613
1.8328,0.1857,38.2400,80,98,85616
1.8817,0.1711,38.1500,80,98,85620
1.8622,0.1662,38.1800,80,98,85623
1.8622,0.1613,38.1500,80,98,85626
1.8475,0.1711,38.2100,80,98,85629
1.8524,0.1613,38.2400,80,98,85634
1.9013,0.1711,38.1100,80,98,85637
1.8866,0.1711,38.2100,80,98,85640
1.8866,0.1613,38.1500,80,98,85643
1.8768,0.1662,38.2700,80,98,85647
1.8817,0.1662,38.3000,80,98,85650
1.9306,0.1760,38.1100,80,98,85653
1.9110,0.1515,38.2400,80,98,85656
1.9257,0.1662,38.1500,80,98,85660
1.9208,0.1662,38.2400,80,98,85663
1.9159,0.1613,38.2700,80,98,85666
1.9599,0.1711,38.0500,80,98,85669
1.9501,0.1711,38.2100,80,98,85673
1.9404,0.1906,38.1800,80,98,85677
1.9404,0.1662,38.3300,80,98,85680
1.9355,0.1613,38.2400,80,98,85683
1.9990,0.1662,38.0800,80,98,85687
1.9892,0.1711,38.0800,80,98,85690
2.0039,0.1613,38.1800,80,98,85693
2.0039,0.1613,38.2400,80,98,85696
2.0137,0.1613,38.3000,80,98,85700
2.0821,0.1711,38.0800,80,98,85703
2.0430,0.1711,38.1800,80,98,85706
2.0430,0.1613,38.1800,80,98,85709
2.0430,0.1613,38.2400,80,98,85713
2.0381,0.1613,38.2700,80,98,85716
2.0968,0.1808,38.0800,80,98,85720
2.0870,0.1711,38.1100,80,98,85725
2.0723,0.1662,38.2100,80,98,85728
2.0919,0.1760,38.1100,80,98,85731
2.0577,0.1613,38.2700,80,98,85734
2.0577,0.1613,38.2400,80,98,85738
2.0577,0.1760,38.1800,80,98,85741
2.0186,0.1662,38.3300,80,98,85744
2.0235,0.1662,38.1100,80,98,85747
1.9648,0.1613,38.2400,80,98,85751
1.9404,0.1613,38.3300,80,98,85754
1.9599,0.1711,38.0800,80,98,85757
1.9208,0.1515,38.2100,80,98,85761
1.9062,0.1711,38.1500,80,98,85765
1.8524,0.1662,38.2100,80,98,85768
1.8231,0.1515,38.2700,80,98,85771
1.8231,0.1711,38.0500,80,98,85774
1.7840,0.1711,38.2400,80,98,85778
1.7791,0.1613,38.0800,80,98,85781
1.7546,0.1662,38.2400,80,98,85784
1.7498,0.1613,38.2700,80,98,85787
1.7791,0.1711,38.1500,80,98,85791
1.7449,0.1760,38.2100,80,98,85794
1.7546,0.1662,38.2100,80,98,85797
1.7449,0.1662,38.4300,80,98,85800
1.7498,0.1613,38.2700,80,98,85805
1.7791,0.1711,38.0500,80,98,85808
1.7693,0.1711,38.2100,80,98,85811
1.7546,0.1662,38.0800,80,98,85814
1.7400,0.1564,38.2400,80,98,85818
1.7498,0.1613,38.2400,80,98,85821
1.7937,0.1711,38.1800,80,98,85824
1.7840,0.1662,38.2100,80,98,85827
1.7840,0.1613,38.1500,80,98,85831
1.7693,0.1662,38.2400,80,98,85834
1.7742,0.1613,38.1800,80,98,85837
1.8084,0.1711,38.3600,80,98,85840
1.7791,0.1662,38.2100,80,98,85844
1.7986,0.1564,38.1500,80,98,85848
1.7937,0.1662,38.2400,80,98,85851
1.7937,0.1613,38.2700,80,98,85854
1.8328,0.1711,38.0500,80,98,85858
1.8133,0.1613,38.2100,80,98,85861
1.8231,0.1613,38.1500,80,98,85864
1.8133,0.1662,38.2700,80,98,85867
1.8084,0.1613,38.2700,80,98,85871
1.8524,0.1760,38.1800,80,98,85874
1.8231,0.1711,38.1500,80,98,85877
1.8231,0.1613,38.1500,80,98,85880
1.8133,0.1662,38.2700,80,98,85884
1.8084,0.1613,38.2400,80,98,85888
1.8622,0.1857,38.1800,80,98,85891
1.8426,0.1662,38.1500,80,98,85894
1.8426,0.1613,38.1500,80,98,85898
1.8377,0.1662,38.2400,80,98,85901
1.8328,0.1613,38.2400,80,98,85904
1.8671,0.1711,38.0500,80,98,85907
1.8426,0.1662,38.1500,80,98,85911
1.8426,0.1613,38.1500,80,98,85914
1.8377,0.1613,38.2400,80,98,85917
1.8426,0.1613,38.2700,80,98,85920
1.8866,0.1711,38.1500,80,98,85924
1.8524,0.1662,38.1800,80,98,85927
1.8426,0.1613,38.1800,80,98,85931
1.8231,0.1711,38.2400,80,98,85934
1.8231,0.1613,38.2400,80,98,85938
1.8671,0.1760,38.1500,80,98,85941
1.8377,0.1662,38.2100,80,98,85944
1.8475,0.1564,38.1500,80,98,85947
1.8426,0.1711,38.2700,80,98,85951
1.8426,0.1613,38.3300,80,98,85954
1.8817,0.1515,38.0500,80,98,85957
1.8866,0.1711,38.1800,80,98,85960
1.8671,0.1564,38.1500,80,98,85964
1.8573,0.1613,38.3000,80,98,85967
1.8524,0.1613,38.2700,80,98,85970
1.8866,0.1760,38.1100,80,98,85974
1.8573,0.1711,38.2100,80,98,85978
1.8573,0.1613,38.1800,80,98,85981
1.8426,0.1662,38.2700,80,98,85984
1.8671,0.1662,38.2700,80,98,85987
1.8866,0.1760,38.1100,80,98,85991
1.8622,0.1662,38.2700,80,98,85994
1.8671,0.1613,38.1800,80,98,85997
1.8426,0.1613,38.2400,80,98,86000
1.8524,0.1808,38.2700,80,98,86004
1.8915,0.1711,38.1800,80,98,86007
1.8622,0.1662,38.1800,80,98,86010
1.8573,0.1613,38.1500,80,98,86013
1.8573,0.1613,38.2400,80,98,86018
1.8573,0.1613,38.3000,80,98,86021
1.9062,0.1515,38.1100,80,98,86024
1.8866,0.1711,38.2100,80,98,86027
1.8866,0.1613,38.1500,80,98,86031
1.8915,0.1662,38.2700,80,98,86034
1.9062,0.1613,38.2700,80,98,86037
1.9697,0.1711,38.1100,80,98,86040
1.9453,0.1613,38.2100,80,98,86044
1.9550,0.1613,38.3600,80,98,86047
1.9501,0.1662,38.4600,80,98,86050
1.9550,0.1613,38.2700,80,98,86053
2.0088,0.1760,38.0800,80,98,86057
1.9844,0.1711,38.4300,80,98,86061
1.9795,0.1613,38.1800,80,98,86064
1.9746,0.1613,38.2400,80,98,86067
1.9746,0.1613,38.2400,80,98,86071
2.0332,0.1808,38.2100,80,98,86074
2.0235,0.1711,38.1800,80,98,86077
2.0039,0.1613,38.4300,80,98,86080
1.9990,0.1662,38.2700,80,98,86084
1.9844,0.1662,38.2400,80,98,86087
2.0137,0.1906,38.0500,80,98,86090
1.9501,0.1711,38.2100,80,98,86093
1.9110,0.1564,38.1800,80,98,86097
1.9013,0.1662,38.2400,80,98,86100
1.8866,0.1515,38.2400,80,98,86104
1.9404,0.1808,38.0500,80,98,86107
1.8915,0.1760,38.1500,80,98,86111
1.8671,0.1564,38.2100,80,98,86114
1.8671,0.1662,38.2700,80,98,86117
1.8524,0.1564,38.2700,80,98,86120
1.9062,0.2053,38.0500,80,98,86124
1.8475,0.1711,38.2100,80,98,86127
1.8182,0.1564,38.2100,80,98,86130
1.8328,0.1662,38.2400,80,98,86133
1.7937,0.1662,38.2700,80,98,86137
1.8524,0.1808,38.2100,80,98,86140
1.8133,0.1662,38.2100,80,98,86144
1.8280,0.1613,38.2400,80,98,86147
1.7986,0.1613,38.2400,80,98,86151
1.7937,0.1662,38.2700,80,98,86154
1.8524,0.1808,38.0500,80,98,86157
1.8475,0.1711,38.1500,80,98,86160
1.8084,0.1613,38.2100,80,98,86164
1.8035,0.1662,38.2400,80,98,86167
1.7742,0.1613,38.2700,80,98,86170
1.8231,0.1760,37.9900,80,98,86173
1.8084,0.1760,38.1500,80,98,86177
1.8475,0.1564,37.4600,80,98,86180
1.9404,0.1662,38.2700,80,98,86183
2.0528,0.1613,38.2700,80,98,86187
2.2483,0.2004,38.0200,80,98,86191
2.3607,0.1662,38.1800,80,98,86194
2.5367,0.1662,38.2400,80,98,86197
2.7273,0.1955,38.2400,80,98,86200
2.7664,0.1613,38.2700,80,98,86204
2.7615,0.1808,38.0200,80,98,86207
2.5367,0.1662,38.1100,80,98,86210
2.2923,0.1564,38.3000,80,98,86213
2.1163,0.1662,38.2400,80,98,86217
1.9795,0.1711,38.2700,80,98,86220
1.9599,0.1808,37.9900,80,98,86223
1.8768,0.1662,38.1100,80,98,86226
1.8328,0.1564,38.2400,80,98,86231
1.8377,0.1613,38.2400,80,98,86234
1.7644,0.1662,38.2400,80,98,86237
1.7937,0.1857,38.0500,80,98,86240
1.7351,0.1662,38.1800,80,98,86244
1.7058,0.1564,38.2400,80,98,86247
1.6960,0.1613,38.2400,80,98,86250
1.6862,0.1613,38.2700,80,98,86253
1.7351,0.1808,37.9900,80,98,86257
1.7058,0.1613,38.1100,80,98,86260
1.7107,0.1613,38.2700,80,98,86263
1.7302,0.1662,38.2100,80,98,86266
1.7253,0.1613,38.2700,80,98,86270
1.7742,0.1808,37.9900,80,98,86274
1.7595,0.1613,38.1100,80,98,86277
1.7400,0.1711,38.2700,80,98,86280
1.7546,0.1662,38.2700,80,98,86284
1.7644,0.1613,38.2700,80,98,86287
1.8182,0.1711,37.9900,80,98,86290
1.7840,0.1613,38.1800,80,98,86293
1.7791,0.1613,38.3300,80,98,86297
1.7986,0.1662,38.1100,80,98,86300
1.7986,0.1515,38.2700,80,98,86303
1.8573,0.1711,37.9600,80,98,86306
1.8573,0.1613,38.1800,80,98,86310
1.8182,0.1564,38.2700,80,98,86313
1.8280,0.1760,38.2400,80,98,86317
1.8328,0.1613,38.2700,80,98,86320
1.8866,0.2004,37.9600,80,98,86324
1.8573,0.1613,38.1100,80,98,86327
1.8622,0.1515,38.2700,80,98,86330
1.8719,0.1662,38.2400,81,98,86333
1.8524,0.1662,38.2400,81,98,86338
1.8573,0.1613,38.2700,81,98,86341
1.9062,0.1711,38.1100,81,98,86345
1.8915,0.1662,38.2100,81,98,86348
1.9013,0.1662,38.1100,81,98,86351
1.8915,0.1662,38.2700,81,98,86354
1.8964,0.1613,38.2400,81,98,86359
1.9501,0.1808,38.1500,81,98,86362
1.9306,0.1662,37.9600,81,98,86365
1.9355,0.1613,38.1500,81,98,86368
1.9453,0.1613,38.2400,81,98,86372
1.9355,0.1662,38.2700,81,98,86375
1.9746,0.1760,38.1100,81,98,86378
1.9550,0.1662,38.2400,81,98,86381
1.9844,0.1613,38.1800,81,98,86385
2.0039,0.1662,38.2700,81,98,86388
1.9746,0.1613,38.3300,81,98,86391
2.0235,0.1711,38.0500,81,98,86394
2.0039,0.1711,38.2100,81,98,86398
2.0088,0.1955,38.1100,81,98,86402
2.0186,0.1662,38.2700,81,98,86405
2.0235,0.1711,38.2400,81,98,86408
2.0919,0.1808,38.0500,81,98,86412
2.0626,0.1711,38.1800,81,98,86415
2.0577,0.1662,38.2400,81,98,86418
2.0626,0.1662,38.2100,81,98,86421
2.0626,0.1613,38.2700,81,98,86425
2.1261,0.1857,38.0200,81,98,86428
2.0821,0.1515,38.1800,81,98,86431
2.0626,0.1613,38.2100,81,98,86434
2.0577,0.1711,38.3000,81,98,86437
2.0479,0.1613,38.2700,81,98,86441
2.1114,0.1808,38.0200,81,98,86445
2.0723,0.1711,38.1500,81,98,86448
2.0528,0.1613,38.2400,81,98,86451
2.0723,0.1662,38.2100,81,98,86455
2.0186,0.1613,38.1500,81,98,86458
2.0577,0.1808,38.0200,81,98,86461
2.0088,0.1662,38.1800,81,98,86464
1.9648,0.1564,38.2400,81,98,86468
1.9550,0.1662,38.2400,81,98,86471
1.9550,0.1613,38.2700,81,98,86474
1.9501,0.1857,38.0500,81,98,86477
1.8915,0.1662,38.1500,81,98,86481
1.8573,0.1564,38.2400,81,98,86484
1.8524,0.1662,38.2400,81,98,86488
1.8280,0.1662,38.3000,81,98,86491
1.8622,0.1808,38.0200,81,98,86495
1.7986,0.1662,38.1500,81,98,86498
1.7742,0.1613,38.2700,81,98,86501
1.7791,0.1808,38.2400,81,98,86504
1.7644,0.1662,38.2700,81,98,86508
1.8084,0.1711,37.9900,81,98,86511
1.7644,0.1662,38.1800,81,98,86514
1.7498,0.1955,38.2700,81,98,86517
1.7595,0.1662,38.2700,81,98,86521
1.7546,0.1613,38.2400,81,98,86524
1.8084,0.1808,37.9600,81,98,86528
1.7889,0.1662,38.3000,81,98,86531
1.7791,0.1613,38.2700,81,98,86535
1.7840,0.1760,38.2100,81,98,86538
1.7693,0.1760,38.2700,81,98,86541
1.8084,0.1760,38.1100,81,98,86544
1.7693,0.1662,38.1500,81,98,86548
1.7644,0.1613,38.2700,81,98,86551
1.7840,0.1711,38.2100,81,98,86554
1.7742,0.1662,38.2700,81,98,86557
1.8280,0.1760,37.9900,81,98,86561
1.7986,0.1515,38.1100,81,98,86564
1.7937,0.1613,38.2400,81,98,86567
1.8084,0.1662,38.2700,81,98,86571
1.7986,0.1613,38.3600,81,98,86575
1.8524,0.1515,37.9600,81,98,86578
1.8524,0.1613,38.1800,81,98,86581
1.8084,0.1857,38.2400,81,98,86584
1.8280,0.1711,38.2400,81,98,86588
1.8280,0.1613,38.2700,81,98,86591
1.8866,0.1711,37.9600,81,98,86594
1.8671,0.1613,38.1500,81,98,86597
1.8280,0.2004,38.2400,81,98,86601
1.8426,0.1711,38.2100,81,98,86604
1.8377,0.1613,38.2700,81,98,86607
1.8817,0.1662,37.9300,81,98,86610
1.8377,0.1857,38.1500,81,98,86615
1.8328,0.1613,38.3600,81,98,86618
1.8328,0.1662,38.2700,81,98,86621
1.8280,0.1515,38.2700,81,98,86624
1.8817,0.1808,37.9600,81,98,86628
1.8524,0.1662,38.4000,81,98,86631
1.8377,0.1613,38.2700,81,98,86634
1.8524,0.1515,38.2100,81,98,86637
1.8377,0.1564,38.3000,81,98,86641
1.8915,0.1760,37.9900,81,98,86644
1.8475,0.1613,38.2100,81,98,86647
1.8475,0.1613,38.2700,81,98,86650
1.8573,0.2151,38.3000,81,98,86654
1.8426,0.1662,38.2700,81,98,86658
1.8915,0.1760,37.9900,81,98,86661
1.8426,0.1662,38.1800,81,98,86664
1.8524,0.1711,38.2700,81,98,86668
1.8622,0.1711,38.1500,81,98,86671
1.8524,0.1662,38.2700,81,98,86674
1.9013,0.1711,37.9300,81,98,86677
1.8671,0.1613,38.1500,81,98,86681
1.8573,0.1662,38.2700,81,98,86684
1.8719,0.1711,38.2100,81,98,86687
1.8573,0.1515,38.2700,81,98,86690
1.8915,0.1760,37.9600,81,98,86694
1.8573,0.1613,38.1800,81,98,86697
1.8280,0.1613,38.2700,81,98,86701
1.8377,0.1711,38.2100,81,98,86704
1.8328,0.1613,38.2700,81,98,86708
1.8817,0.2151,37.9900,81,98,86711
1.8426,0.2004,38.1500,81,98,86714
1.8328,0.1613,38.3000,81,98,86717
1.8426,0.1711,38.2100,81,98,86721
1.8328,0.1613,38.2700,81,98,86724
1.8915,0.1760,37.9900,81,98,86727
1.8671,0.1711,38.2400,81,98,86730
1.8475,0.1613,38.3000,81,98,86734
1.8622,0.1711,38.2400,81,98,86737
1.8426,0.1564,38.2700,81,98,86740
1.8964,0.1711,37.9900,81,98,86744
1.8622,0.1613,38.1800,81,98,86748
1.8768,0.1613,38.2700,81,98,86751
1.9110,0.1760,38.2100,81,98,86754
1.9062,0.1662,37.4900,81,98,86757
1.9746,0.1760,37.9900,81,98,86761
1.9355,0.1613,38.1800,81,98,86764
1.9697,0.1613,38.2700,81,98,86767
1.9697,0.1711,38.1800,81,98,86770
1.9648,0.1662,38.2700,81,98,86774
2.0186,0.1515,37.9900,81,98,86777
2.0039,0.1662,38.1800,81,98,86780
1.9599,0.1613,38.2700,81,98,86784
1.9697,0.1711,38.3000,81,98,86788
1.9550,0.1613,38.2700,81,98,86791
2.0137,0.1760,37.9900,81,98,86794
1.9648,0.1613,38.1800,81,98,86797
1.9550,0.1613,38.2700,81,98,86801
1.9697,0.1760,38.2100,81,98,86804
1.9501,0.1662,38.2700,81,98,86807
1.9844,0.1711,37.9900,81,98,86810
1.9208,0.1613,38.2100,81,98,86814
1.9062,0.1613,38.3600,81,98,86817
1.9013,0.1711,38.2700,81,98,86820
1.8719,0.1662,38.2700,81,98,86823
1.9110,0.1711,37.9900,81,98,86828
1.8768,0.1662,38.1800,81,98,86831
1.8524,0.1613,38.4000,81,98,86834
1.8524,0.1711,38.2400,81,98,86837
1.8231,0.1662,38.2700,81,98,86841
1.8573,0.1760,37.9900,81,98,86844
1.8084,0.1564,38.2400,81,98,86847
1.8035,0.1515,38.2700,81,98,86850
1.8182,0.1760,38.1800,81,98,86854
1.7742,0.2004,38.2400,81,98,86857
1.8035,0.1515,37.9600,81,98,86860
1.7742,0.1613,38.2400,81,98,86863
1.7840,0.1564,38.2700,81,98,86867
1.8084,0.1711,38.2100,81,98,86871
1.7937,0.1515,38.3000,81,98,86874
1.8328,0.1760,38.0200,81,98,86877
1.8133,0.1711,38.1500,81,98,86881
1.8035,0.1662,38.2700,81,98,86884
1.8280,0.1711,38.1800,81,98,86887
1.8182,0.1662,38.2700,81,98,86890
1.8231,0.1857,38.0200,81,98,86894
1.7937,0.1662,38.3300,81,98,86897
1.8231,0.1613,38.2700,81,98,86900
1.9355,0.1711,38.1800,81,98,86903
1.9892,0.1857,38.2400,81,98,86907
2.1603,0.1711,38.0800,81,98,86910
2.2630,0.1613,38.2100,81,98,86914
2.4633,0.1613,38.2700,81,98,86917
2.6540,0.2053,38.2400,81,98,86921
2.7273,0.1662,38.3000,81,98,86924
2.7322,0.1711,38.0200,81,98,86927
2.5562,0.1613,38.1800,81,98,86930
2.3363,0.1662,38.2100,81,98,86934
2.1652,0.1711,38.1800,81,98,86937
1.9892,0.1662,38.2700,81,98,86940
1.9550,0.1760,37.9900,81,98,86943
1.7840,0.1515,37.9900,81,98,86947
1.7644,0.1662,38.1100,81,98,86950
1.7058,0.1564,38.2400,81,98,86955
1.7009,0.1662,38.2400,81,98,86958
1.6960,0.1662,38.3000,81,98,86961
1.7400,0.1760,37.9600,81,98,86964
1.7107,0.1711,38.2700,81,98,86968
1.7107,0.1515,38.2400,81,98,86971
1.7253,0.1711,38.2400,81,98,86974
1.7155,0.1662,38.2700,81,98,86977
1.7595,0.2004,37.9900,81,98,86981
1.7155,0.1662,38.1500,81,98,86984
1.7204,0.1613,38.2700,81,98,86987
1.7546,0.1760,38.2400,81,98,86990
1.7351,0.1955,38.2400,81,98,86994
1.7937,0.1760,37.9600,81,98,86998
1.7546,0.1711,38.2100,81,98,87001
1.7546,0.1613,38.2700,81,98,87004
1.7937,0.1711,38.2400,81,98,87008
1.7791,0.1662,38.2700,81,98,87011
1.8231,0.2151,37.9900,81,98,87014
1.7937,0.1711,38.2700,81,98,87017
1.7986,0.1613,38.2700,81,98,87021
1.8035,0.1711,38.2400,81,98,87024
1.7986,0.1711,38.2700,81,98,87027
1.8573,0.1808,38.0200,81,98,87030
1.8182,0.1662,38.1500,81,98,87034
1.8231,0.1613,38.2400,81,98,87037
1.8328,0.1711,38.2400,81,98,87041
1.8280,0.1662,38.3300,81,98,87044
1.8866,0.1808,37.9900,81,98,87048
1.8475,0.1662,38.1800,81,98,87051
1.8475,0.1613,38.2400,81,98,87054
1.8622,0.1711,38.2400,81,98,87057
1.8622,0.2102,38.2700,81,98,87061
1.9208,0.1808,37.9900,81,98,87064
1.8817,0.1613,38.1800,81,98,87067
1.8671,0.1613,38.3300,81,98,87070
1.8817,0.1662,38.2400,81,98,87074
1.8768,0.1515,38.2400,81,98,87077
1.9355,0.1760,37.9900,81,98,87080
1.9013,0.1760,38.1800,81,98,87084
1.9013,0.1613,38.3300,81,98,87088
1.9257,0.1711,38.2400,81,98,87091
1.9110,0.1662,38.2700,81,98,87094
1.9795,0.1711,37.9600,81,98,87097
1.9501,0.1662,38.1100,81,98,87101
1.9501,0.1662,38.2700,81,98,87104
1.9550,0.1711,38.2400,81,98,87107
1.9599,0.1662,38.2700,81,98,87110
2.0235,0.1711,37.9600,81,98,87114
1.9990,0.1711,38.1800,81,98,87117
1.9990,0.1662,38.2700,81,98,87120
2.0137,0.1711,38.1800,81,98,87123
2.0137,0.2004,38.2700,81,98,87128
2.0723,0.1760,37.9600,81,98,87131
2.0283,0.1564,38.1800,81,98,87134
2.0283,0.1662,38.3300,81,98,87137
2.0479,0.1711,38.2400,81,98,87141
2.0235,0.1808,38.3000,81,98,87144
2.0772,0.1760,38.0200,81,98,87147
2.0626,0.1613,38.1800,81,98,87150
2.0381,0.1662,38.3300,81,98,87154
2.0577,0.1711,38.2700,81,98,87157
2.0430,0.1662,38.2700,81,98,87160
2.0919,0.1808,37.9900,81,98,87163
2.0577,0.1711,38.1800,81,98,87168
2.0283,0.1662,38.2700,81,98,87171
2.0430,0.1760,38.2100,81,98,87174
2.0137,0.1662,38.2700,81,98,87177
2.0430,0.1760,37.9900,81,98,87180
1.9795,0.1662,38.2100,81,98,87184
1.9550,0.1662,38.2700,81,98,87187
1.9550,0.1760,38.1800,81,98,87190
1.9013,0.1662,38.2400,81,98,87193
1.9208,0.1515,38.0200,81,98,87197
1.8573,0.1613,38.1800,81,98,87200
1.8377,0.1711,38.2700,81,98,87203
1.8328,0.1760,38.3300,81,98,87206
1.7937,0.1662,38.3000,81,98,87211
1.8084,0.1760,38.0500,81,98,87214
1.7644,0.1906,38.1500,81,98,87217
1.7449,0.1662,38.3000,81,98,87220
1.7595,0.1515,38.1800,81,98,87224
1.7546,0.1808,38.3000,81,98,87227
1.7546,0.1711,38.1100,81,98,87230
1.7204,0.1662,38.2400,81,98,87233
1.7155,0.1613,38.3300,81,98,87237
1.7351,0.1711,38.1500,81,98,87240
1.7204,0.1662,38.2400,81,98,87243
1.7498,0.1711,38.0200,81,98,87246
1.7204,0.1662,38.2700,81,98,87250
1.7253,0.1760,38.3000,81,98,87254
1.7449,0.1808,38.1500,81,98,87257
1.7155,0.1711,38.2700,81,98,87260
1.7546,0.1515,38.0500,81,98,87264
1.7400,0.1711,38.0500,81,98,87267
1.7302,0.1662,38.1800,81,98,87270
1.7498,0.1808,38.4000,81,98,87273
1.7400,0.1662,38.2400,81,98,87277
1.7791,0.1711,38.0200,81,98,87280
1.7595,0.1662,38.3000,81,98,87283
1.7791,0.1662,38.2700,81,98,87286
1.8084,0.1711,38.1500,81,98,87290
1.7889,0.1711,38.2400,81,98,87293
1.8182,0.1711,38.0500,81,98,87297
1.7742,0.1515,38.2700,81,98,87300
1.7693,0.1613,38.2400,81,98,87304
1.7937,0.1808,38.1500,81,98,87307
1.7840,0.1662,38.2400,81,98,87310
1.8231,0.1711,38.0200,81,98,87313
1.8035,0.1662,38.1500,81,98,87317
1.7937,0.1662,38.2700,81,98,87320
1.8084,0.1760,38.1100,81,98,87323
1.7889,0.1515,38.2400,81,98,87326
1.8133,0.1760,38.0200,81,98,87330
1.7937,0.1906,38.2400,81,98,87333
1.7986,0.1662,38.2700,81,98,87336
1.8084,0.1711,38.1500,81,98,87340
1.8182,0.1662,38.2700,81,98,87344
1.8084,0.1808,38.0200,81,98,87347
1.7889,0.1662,38.3300,81,98,87350
1.7986,0.1662,38.2700,81,98,87353
1.8328,0.1711,38.1800,81,98,87357
1.7986,0.1662,38.2700,81,98,87360
1.8280,0.1662,38.0200,81,98,87363
1.8035,0.1662,38.1800,81,98,87366
1.8035,0.1613,38.2700,81,98,87370
1.8133,0.1760,38.0800,81,98,87373
1.7986,0.1662,38.2700,81,98,87376
1.8182,0.1760,38.0800,81,98,87379
1.7986,0.1711,38.2100,81,98,87384
1.7986,0.1711,38.2700,81,98,87387
1.8280,0.1711,38.0800,81,98,87390
1.8231,0.1662,38.2700,81,98,87393
1.8524,0.1760,38.0500,81,98,87397
1.8231,0.1760,38.2700,81,98,87400
1.8182,0.1662,38.3000,81,98,87403
1.8426,0.1760,38.1800,81,98,87406
1.8328,0.1711,38.2700,81,98,87410
1.8622,0.1662,38.0500,81,98,87413
1.8426,0.1662,38.1500,81,98,87416
1.8328,0.1613,38.3300,81,98,87419
1.8524,0.1711,38.1100,81,98,87424
1.8377,0.1662,38.2700,81,98,87427
1.8573,0.1662,38.0500,81,98,87430
1.8328,0.1662,38.1800,81,98,87433
1.8280,0.1662,38.3000,81,98,87437
1.8377,0.1711,38.1100,81,98,87440
1.8231,0.1662,38.2700,81,98,87443
1.8475,0.1711,37.7100,81,98,87446
1.8231,0.1711,38.2400,81,98,87450
1.8231,0.1662,38.3000,81,98,87453
1.8475,0.1711,38.1500,81,98,87456
1.8133,0.1662,38.2400,81,98,87459
1.8377,0.1711,38.1100,81,98,87463
1.8280,0.1711,38.1800,81,98,87467
1.8426,0.1662,38.2700,81,98,87470
1.8817,0.1711,38.1100,81,98,87473
1.8817,0.1808,38.3000,81,98,87477
1.9110,0.1711,38.0500,81,98,87480
1.8915,0.1662,38.2100,81,98,87483
1.9110,0.1906,38.2400,81,98,87486
1.9355,0.1711,38.1500,81,98,87490
1.9306,0.1711,38.2700,81,98,87493
1.9599,0.1760,38.1100,81,98,87496
1.9306,0.1613,38.3000,81,98,87499
1.9306,0.1662,38.2700,81,98,87503
1.9697,0.1808,38.1500,81,98,87506
1.9746,0.1613,38.2400,81,98,87510
1.9941,0.1711,38.0800,81,98,87513
1.9844,0.1662,38.2100,81,98,87517
1.9844,0.1613,38.3000,81,98,87520
1.9844,0.1760,38.1100,81,98,87523
1.9501,0.1711,38.2700,81,98,87526
1.9550,0.1711,38.0800,81,98,87530
1.9062,0.1760,38.2400,81,98,87533
1.8866,0.1662,38.3000,81,98,87536
1.8768,0.1711,38.1100,81,98,87539
1.8426,0.1711,38.2700,81,98,87543
1.8671,0.1662,38.1100,81,98,87546
1.8084,0.1711,38.2400,81,98,87549
1.7986,0.1711,38.2700,81,98,87553
1.8133,0.1760,38.1500,82,98,87557
1.7840,0.1760,38.1800,82,98,87560
1.7595,0.1711,38.3300,82,98,87564
1.7986,0.1760,37.9900,82,98,87567
1.7693,0.1711,38.2100,82,98,87570
1.7546,0.1613,38.2700,82,98,87573
1.7889,0.1808,38.2400,82,98,87577
1.7791,0.1711,38.3000,82,98,87580
1.8231,0.1808,37.9300,82,98,87583
1.7791,0.1711,38.3000,82,98,87586
1.7742,0.1711,38.3600,82,98,87590
1.7840,0.1760,38.1800,82,98,87593
1.7644,0.1711,38.3000,82,98,87597
1.8231,0.1857,38.0200,82,98,87600
1.8426,0.1760,38.2700,82,98,87604
1.9013,0.1662,38.2400,82,98,87607
2.0283,0.1808,38.1800,82,98,87610
2.1359,0.1711,38.4600,82,98,87613
2.3509,0.1515,38.0500,82,98,87617
2.5171,0.1711,38.2100,82,98,87620
2.7028,0.1760,38.2400,82,98,87623
2.7957,0.1808,38.1800,82,98,87626
2.6784,0.1711,38.2700,82,98,87630
2.5513,0.2053,38.0500,82,98,87633
2.2874,0.1711,38.3000,82,98,87636
2.0821,0.1662,38.2700,82,98,87640
1.9501,0.1760,38.2100,82,98,87644
1.8280,0.1760,38.3000,82,98,87647
1.8035,0.1760,38.0200,82,98,87650
1.7840,0.1711,38.1800,82,98,87653
1.7253,0.1711,38.2400,82,98,87657
1.7302,0.2004,38.1100,82,98,87660
1.6960,0.1515,38.2700,82,98,87663
1.7058,0.1808,38.0500,82,98,87666
1.6667,0.1711,38.3300,82,98,87669
1.6618,0.1711,38.2400,82,98,87673
1.6813,0.1711,38.1100,82,98,87676
1.6618,0.2004,38.2700,82,98,87680
1.6960,0.1760,38.0500,82,98,87683
1.6960,0.1760,38.2700,82,98,87687
1.6862,0.1711,38.2700,82,98,87690
1.7058,0.1760,38.2700,82,98,87693
1.6862,0.1711,38.2700,82,98,87696
1.7009,0.1857,38.0500,82,98,87700
1.6813,0.1515,38.1800,82,98,87703
1.6813,0.1711,38.2700,82,98,87706
1.7009,0.1711,38.1100,82,98,87709
1.6960,0.1662,38.2700,82,98,87713
1.7351,0.1711,38.0500,82,98,87716
1.7155,0.1760,38.2400,82,98,87719
1.7351,0.1760,38.2700,82,98,87723
1.7546,0.1760,38.1800,82,98,87727
1.7400,0.1760,38.2700,82,98,87730
1.7595,0.1711,38.0800,82,98,87733
1.7400,0.1711,37.5300,82,98,87736
1.7498,0.1711,38.2700,82,98,87740
1.7693,0.1711,38.1500,82,98,87743
1.7889,0.1711,38.2700,82,98,87746
1.7791,0.1711,38.0800,82,98,87749
1.7595,0.1711,38.2100,82,98,87753
1.7693,0.1711,38.2700,82,98,87756
1.8035,0.1760,38.1100,82,98,87759
1.7937,0.1760,38.2700,82,98,87762
1.8231,0.1711,38.1100,82,98,87767
1.8035,0.1711,38.2100,82,98,87770
1.8182,0.1760,38.2700,82,98,87773
1.8231,0.1760,38.1500,82,98,87776
1.8231,0.1711,38.2700,82,98,87780
1.8573,0.1760,38.0800,82,98,87783
1.8377,0.1760,38.2400,82,98,87786
1.8377,0.1711,38.3000,82,98,87789
1.8622,0.1808,38.1500,82,98,87793
1.8328,0.1760,38.2700,82,98,87796
1.8671,0.1760,38.1500,82,98,87799
1.8426,0.1662,38.1800,82,98,87802
1.8573,0.1711,38.2700,82,98,87806
1.8768,0.1760,38.1100,82,98,87810
1.8719,0.1760,38.3000,82,98,87813
1.9062,0.1711,38.1100,82,98,87816
1.8817,0.1662,38.2400,82,98,87820
1.9062,0.1613,38.2700,82,98,87823
1.9159,0.1711,38.1500,82,98,87826
1.9110,0.1711,38.2400,82,98,87829
1.9501,0.1711,38.1500,82,98,87833
1.9159,0.1711,38.2700,82,98,87836
1.9257,0.1662,38.2700,82,98,87839
1.9648,0.1808,38.2100,82,98,87842
1.9501,0.1711,38.3300,82,98,87846
1.9746,0.1760,38.1100,82,98,87849
1.9453,0.1613,38.2100,82,98,87853
1.9501,0.1711,38.2700,82,98,87856
1.9795,0.1760,38.2100,82,98,87860
1.9697,0.1711,38.2400,82,98,87863
1.9990,0.2004,38.1100,82,98,87866
1.9697,0.1711,38.2400,82,98,87869
1.9746,0.1515,38.2700,82,98,87873
1.9941,0.1711,38.1800,82,98,87876
1.9795,0.2053,38.3000,82,98,87879
1.9990,0.1711,38.1500,82,98,87882
1.9648,0.1711,38.2700,82,98,87886
1.9550,0.1711,38.2400,82,98,87889
1.9697,0.1808,38.4600,82,98,87892
1.9257,0.1711,38.2700,82,98,87896
1.9404,0.1711,38.1500,82,98,87900
1.8817,0.1711,38.2400,82,98,87903
1.8524,0.1711,38.4000,82,98,87906
1.8426,0.1760,38.1500,82,98,87909
1.7986,0.1711,38.2700,82,98,87913
1.8133,0.1760,38.1100,82,98,87916
1.7546,0.1711,38.2400,82,98,87919
1.7351,0.1711,38.3000,82,98,87922
1.7302,0.1711,38.1800,82,98,87926
1.7107,0.1711,38.2400,82,98,87929
1.7253,0.1906,38.1500,82,98,87932
1.6862,0.1906,38.2100,82,98,87936
1.6862,0.1711,38.2700,82,98,87940
1.7009,0.1808,38.1100,82,98,87943
1.6667,0.1760,38.2400,82,98,87946
1.6764,0.1808,38.1500,82,98,87949
1.6325,0.1760,38.2400,82,98,87953
1.6373,0.1760,38.2700,82,98,87956
1.6667,0.1711,38.1500,82,98,87959
1.6618,0.1711,38.3300,82,98,87962
1.6862,0.1808,38.1500,82,98,87966
1.6911,0.1613,38.3000,82,98,87969
1.6618,0.1760,38.3000,82,98,87972
1.6764,0.1711,38.1800,82,98,87975
1.6716,0.1711,38.3300,82,98,87980
1.7107,0.1808,38.1800,82,98,87983
1.6667,0.1760,38.2700,82,98,87986
1.6667,0.1711,38.3000,82,98,87989
1.7009,0.1711,38.1100,82,98,87993
1.6862,0.1760,38.2400,82,98,87996
1.7107,0.1808,38.1500,82,98,87999
1.6862,0.1711,38.2700,82,98,88002
1.6813,0.1711,38.2700,82,98,88006
1.7302,0.1857,38.1800,82,98,88009
1.6960,0.1955,38.2700,82,98,88012
1.7204,0.1711,38.1500,82,98,88015
1.7058,0.1711,38.2400,82,98,88019
1.7107,0.1760,38.2700,82,98,88023
1.7351,0.1711,38.2400,82,98,88026
1.7253,0.1711,38.2700,82,98,88029
1.7693,0.1808,38.1500,82,98,88033
1.7155,0.1760,38.2700,82,98,88036
1.7155,0.1711,38.4600,82,98,88039
1.7400,0.1808,38.4000,82,98,88042
1.7204,0.1711,38.2400,82,98,88046
1.7302,0.2004,38.1500,82,98,88049
1.7058,0.1515,38.2700,82,98,88052
1.7253,0.1711,38.2700,82,98,88055
1.7498,0.1760,38.1500,82,98,88059
1.7155,0.1711,38.2100,82,98,88062
1.7302,0.1760,38.1100,82,98,88066
1.7058,0.1711,38.2400,82,98,88069
1.7009,0.1711,38.3300,82,98,88073
1.7253,0.1808,38.2100,82,98,88076
1.7204,0.1711,38.4600,82,98,88079
1.7400,0.1711,38.1100,82,98,88082
1.7155,0.1711,38.2700,82,98,88086
1.7058,0.1711,38.2700,82,98,88089
1.7302,0.1808,38.0800,82,98,88092
1.7058,0.1711,38.2400,82,98,88095
1.7204,0.1760,38.1500,82,98,88099
1.6960,0.1662,38.3000,82,98,88102
1.6960,0.1515,38.2700,82,98,88105
1.7253,0.1808,38.1500,82,98,88109
1.7058,0.1760,38.2400,82,98,88113
1.7204,0.1711,38.1100,82,98,88116
1.7107,0.1711,38.2700,82,98,88119
1.7107,0.1711,38.3000,82,98,88122
1.7253,0.1760,38.3000,82,98,88126
1.7058,0.1711,38.2700,82,98,88129
1.7204,0.1711,38.1100,82,98,88132
1.6862,0.1711,38.2700,82,98,88135
1.7058,0.1662,38.2700,82,98,88139
1.7253,0.1808,38.0800,82,98,88142
1.7058,0.1711,38.1500,82,98,88145
1.7204,0.1711,38.1100,82,98,88148
1.7107,0.1760,38.2700,82,98,88153
1.7009,0.1662,38.3600,82,98,88156
1.7302,0.1808,38.1800,82,98,88159
1.7155,0.1760,38.2400,82,98,88162
1.7302,0.1711,38.3300,82,98,88166
1.7107,0.1711,38.2700,82,98,88169
1.7253,0.1564,38.3000,82,98,88173
1.7449,0.1711,38.2400,82,98,88176
1.7742,0.1808,38.1500,82,98,88179
1.7742,0.1760,38.3000,82,98,88182
1.8084,0.1711,38.1500,82,98,88186
1.7889,0.1662,38.2400,82,98,88189
1.8035,0.1711,38.2700,82,98,88193
1.8231,0.1760,38.1100,82,98,88196
1.8084,0.1711,38.2700,82,98,88200
1.8280,0.1711,38.1100,82,98,88203
1.7937,0.1662,38.2400,82,98,88206
1.7986,0.1711,38.2700,82,98,88209
1.8231,0.1711,38.1500,82,98,88213
1.8182,0.1613,38.2700,82,98,88216
1.8426,0.1711,38.0800,82,98,88219
1.8133,0.1711,38.3000,82,98,88222
1.8084,0.1711,38.2700,82,98,88226
1.8133,0.1711,38.1500,82,98,88229
1.7791,0.1711,38.2700,82,98,88232
1.7644,0.1760,38.1100,82,98,88236
1.7204,0.1662,38.2700,82,98,88240
1.7107,0.1711,38.2700,82,98,88243
1.7204,0.1711,38.2100,82,98,88246
1.7058,0.1662,38.3000,82,98,88249
1.7253,0.1711,38.1100,82,98,88253
1.6813,0.1515,38.3000,82,98,88256
1.6667,0.1760,38.3300,82,98,88259
1.6667,0.1906,38.2400,82,98,88262
1.6471,0.1711,38.2700,82,98,88266
1.6716,0.1662,38.1100,82,98,88269
1.6422,0.1711,38.2700,82,98,88272
1.6325,0.1662,38.2400,82,98,88275
1.6569,0.1808,38.1500,82,98,88280
1.6373,0.1711,38.4000,82,98,88283
1.6618,0.1711,38.1100,82,98,88286
1.6276,0.1662,38.2100,82,98,88289
1.6227,0.1711,38.2700,82,98,88293
1.6373,0.1857,38.1100,82,98,88296
1.6276,0.1711,38.3000,82,98,88299
1.6422,0.1711,38.1100,82,98,88302
1.6325,0.1613,38.2400,82,98,88306
1.6129,0.1857,38.2700,82,98,88309
1.6129,0.1711,38.3300,82,98,88312
1.6178,0.1515,38.2700,82,98,88315
1.6862,0.1711,38.1100,82,98,88320
1.7302,0.1760,38.2700,82,98,88323
1.8426,0.2004,38.3000,82,98,88326
2.0088,0.1760,38.2100,82,98,88329
2.1359,0.1711,38.2700,82,98,88333
2.3412,0.1662,38.1500,82,98,88336
2.4927,0.1662,38.2100,82,98,88339
2.5709,0.1760,38.2700,82,98,88342
2.5318,0.1711,38.1500,82,98,88346
2.3509,0.1711,38.4600,82,98,88349
2.1848,0.1711,38.1500,82,98,88352
1.9453,0.1711,38.2400,82,98,88355
1.7986,0.1662,38.2700,82,98,88359
1.7253,0.1711,38.1100,82,98,88363
1.6764,0.1711,38.2700,82,98,88366
1.6813,0.1760,38.2100,82,98,88369
1.6129,0.1711,38.2700,82,98,88373
1.5885,0.1711,38.2700,82,98,88376
1.5885,0.1760,38.1100,82,98,88379
1.5445,0.1711,38.1800,82,98,88382
1.5543,0.1711,38.1500,82,98,88386
1.5249,0.1662,38.2100,82,98,88389
1.5200,0.1808,38.2400,82,98,88392
1.5347,0.1711,38.2100,82,98,88395
1.5249,0.1711,38.2700,82,98,88399
1.5787,0.1711,38.1500,82,98,88402
1.5347,0.1808,38.2700,82,98,88406
1.5494,0.1662,38.3000,82,98,88409
1.5640,0.1515,38.1800,82,98,88413
1.5591,0.1760,38.2700,82,98,88416
1.5885,0.1760,38.2100,82,98,88419
1.5689,0.1808,38.4900,82,98,88422
1.5836,0.1662,38.2700,82,98,88426
1.6227,0.1760,38.1100,82,98,88429
1.6080,0.1760,38.2700,82,98,88432
1.6325,0.1515,38.1500,82,98,88435
1.6031,0.1662,38.2400,82,98,88439
1.5982,0.1662,38.2700,82,98,88442
1.6276,0.1662,38.1100,82,98,88445
1.6227,0.1711,38.2700,82,98,88449
1.6520,0.1760,38.1800,82,98,88453
1.6569,0.1711,38.2700,82,98,88456
1.6325,0.1613,38.2700,82,98,88459
1.6471,0.1662,38.1500,82,98,88462
1.6422,0.1515,38.2400,82,98,88466
1.6716,0.1711,38.1500,82,98,88469
1.6569,0.1711,38.2700,82,98,88472
1.6618,0.1760,38.3000,82,98,88475
1.6911,0.1808,38.1500,82,98,88479
1.6716,0.1711,38.2700,82,98,88482
1.7058,0.1760,38.1500,82,98,88485
1.6716,0.1662,38.2400,82,98,88488
1.6813,0.1662,38.2100,82,98,88493
1.7107,0.1711,38.4300,82,98,88496
1.7009,0.1711,38.2400,82,98,88499
1.7253,0.1906,38.1800,82,98,88502
1.7058,0.1711,38.2700,82,98,88506
1.7155,0.1662,38.2700,82,98,88509
1.7351,0.1662,38.1500,82,98,88512
1.7302,0.2004,38.3000,82,98,88515
1.7644,0.1711,38.1500,82,98,88519
1.7449,0.1711,38.2700,82,98,88522
1.7400,0.1662,38.2700,82,98,88525
1.7840,0.1808,38.0800,82,98,88528
1.7693,0.1711,38.2400,82,98,88532
1.8035,0.1760,38.1500,82,98,88536
1.7791,0.1613,38.2700,82,98,88539
1.7840,0.1662,38.3000,82,98,88542
1.8133,0.1808,38.1800,82,98,88546
1.8328,0.1711,38.2400,82,98,88549
1.8328,0.1711,38.1500,82,98,88552
1.8182,0.1711,38.4300,82,98,88555
1.8328,0.1662,38.2700,82,98,88559
1.8573,0.1711,38.2100,82,98,88562
1.8475,0.1662,38.2700,82,98,88565
1.8866,0.1808,38.1100,82,98,88568
1.8622,0.1711,38.1100,82,98,88572
1.8622,0.1662,38.2700,82,98,88576
1.8964,0.1808,38.1100,82,98,88579
1.8719,0.1662,38.2700,82,98,88582
1.9013,0.1711,38.1100,82,98,88586
1.8817,0.1711,38.3000,82,98,88589
1.8768,0.1760,38.2400,82,98,88592
1.8964,0.1760,38.1800,82,98,88595
1.8671,0.1711,38.3600,82,98,88599
1.8817,0.1711,38.1800,82,98,88602
1.8426,0.1711,38.2700,82,98,88605
1.8426,0.1662,38.2700,82,98,88608
1.8475,0.1760,38.2100,82,98,88612
1.8035,0.1711,38.1800,82,98,88615
1.7986,0.1711,38.0500,82,98,88619
1.7400,0.1760,38.2700,82,98,88622
1.7302,0.1711,38.4600,82,98,88626
1.7400,0.1760,38.1100,82,98,88629
1.6960,0.1711,38.2700,82,98,88632
1.6960,0.2053,38.1100,82,98,88635
1.6520,0.1711,38.2700,82,98,88639
1.6422,0.1662,38.2700,82,98,88642
1.6373,0.1711,38.1800,82,98,88645
1.6178,0.1662,38.2400,82,98,88648
1.6178,0.1711,37.4600,82,98,88652
1.5885,0.1711,38.2700,82,98,88655
1.5689,0.1662,38.2700,82,98,88658
1.5885,0.1760,38.2100,82,98,88662
1.5738,0.1711,38.2400,82,98,88666
1.5885,0.1515,38.1100,82,98,88669
1.5689,0.1711,38.2400,82,98,88672
1.5689,0.1613,38.2700,82,98,88675
1.5934,0.1760,38.0800,82,98,88679
1.5738,0.1711,38.3300,82,98,88682
1.5982,0.1515,38.1100,82,98,88685
1.6129,0.1711,38.2700,82,98,88688
1.5934,0.1613,38.2700,82,98,88692
1.6227,0.1760,38.0800,82,98,88695
1.6031,0.1711,38.2100,82,98,88698
1.6569,0.1760,38.1100,82,98,88701
1.6080,0.1711,38.2700,82,98,88706
1.6129,0.1662,38.3300,82,98,88709
1.6373,0.1760,38.2100,82,98,88712
1.6276,0.1760,38.2400,82,98,88715
1.6325,0.1711,38.1500,82,98,88719
1.6227,0.1906,38.2400,82,98,88722
1.6373,0.1662,38.3300,82,98,88725
1.6813,0.1711,38.0800,82,98,88728
1.6716,0.1760,38.2400,82,98,88732
1.6813,0.1760,38.1500,82,98,88735
1.6520,0.1711,38.3000,82,98,88738
1.6422,0.1613,38.3000,82,98,88741
1.6764,0.1760,38.1100,82,98,88745
1.6618,0.1711,37.7700,82,98,88749
1.6862,0.1711,38.1500,82,98,88752
1.6716,0.1613,38.2700,82,98,88755
1.6862,0.1662,38.2700,82,98,88759
1.7009,0.1857,38.1800,82,98,88762
1.6862,0.1711,38.2400,82,98,88765
1.7253,0.1760,38.1500,82,98,88768
1.6862,0.1613,38.2700,82,98,88772
1.6862,0.1662,38.2700,82,98,88775
1.7155,0.1808,38.0200,82,97,88778
1.7009,0.1808,38.1500,82,97,88782
1.6911,0.1662,38.3000,82,97,88785
1.7253,0.1711,38.1100,82,97,88788
1.6960,0.1711,38.2400,82,97,88793
1.7058,0.1760,38.2700,82,97,88796
1.7253,0.1711,38.3000,82,97,88799
1.7204,0.1711,38.2700,82,97,88802
1.7449,0.1808,38.1100,82,97,88806
1.7155,0.1662,38.2700,82,97,88809
1.7155,0.1711,38.1800,82,97,88812
1.7400,0.1760,38.3600,82,97,88815
1.7107,0.1711,38.2700,82,97,88819
1.7400,0.1711,38.1100,82,97,88822
1.7009,0.1808,38.2100,82,97,88825
1.7058,0.1515,38.2700,82,97,88828
1.7351,0.1711,38.1100,82,97,88833
1.7302,0.1662,38.2700,82,97,88836
1.7546,0.2053,38.1100,82,97,88839
1.7204,0.1662,38.2700,82,97,88842
1.7155,0.1662,38.2700,82,97,88846
1.7351,0.1711,38.2100,82,97,88849
1.7009,0.1711,38.2400,82,97,88852
1.7302,0.1711,38.1800,82,97,88855
1.7009,0.1711,38.3300,82,97,88859
1.7155,0.1662,38.2700,82,97,88862
1.7351,0.1857,38.1100,82,97,88865
1.7155,0.1662,38.2400,82,97,88868
1.7400,0.1662,37.5600,82,97,88872
1.7107,0.1613,38.2400,82,97,88876
1.7155,0.1955,38.3000,82,97,88879
1.7400,0.1760,38.1100,82,97,88882
1.7253,0.1711,38.2700,82,97,88886
1.7546,0.1711,38.1500,82,97,88889
1.7644,0.1711,38.2700,82,97,88892
1.7400,0.1662,38.2700,82,97,88895
1.7595,0.1711,37.4600,82,97,88899
1.7595,0.1711,38.2400,82,97,88902
1.8084,0.1760,38.1500,82,97,88905
1.7937,0.1662,38.3300,82,97,88908
1.8084,0.1515,38.4000,82,97,88912
1.8426,0.1711,38.1500,82,97,88915
1.8524,0.1613,38.2700,82,97,88919
1.8573,0.1662,38.1500,82,97,88922
1.8377,0.1613,38.1800,82,97,88926
1.8377,0.1662,38.2700,82,97,88929
1.8524,0.1711,38.1500,82,97,88932
1.8426,0.1613,38.2700,82,97,88935
1.8768,0.1711,38.1500,82,97,88939
1.8426,0.1662,38.2700,82,97,88942
1.8426,0.1662,38.2700,82,97,88945
1.8475,0.1760,38.2100,82,97,88948
1.8475,0.1711,38.3000,82,97,88952
1.8719,0.1760,38.1500,82,97,88955
1.8231,0.1711,38.2700,82,97,88958
1.8328,0.1711,38.3000,82,97,88962
1.7986,0.1760,38.1500,82,97,88966
1.7595,0.1711,38.4000,82,97,88969
1.7791,0.1760,38.1500,82,97,88972
1.7449,0.1613,38.2400,82,97,88975
1.7449,0.1662,38.2700,82,97,88979
1.7546,0.1711,38.1500,82,97,88982
1.7204,0.1662,38.2700,82,97,88985
1.7742,0.1760,38.1800,82,97,88988
1.7058,0.1662,38.2700,82,97,88992
1.7058,0.1662,38.4000,82,97,88995
1.7155,0.1711,38.2100,82,97,88998
1.6960,0.1662,38.2700,82,97,89001
1.7107,0.1760,38.2400,82,97,89006
1.6764,0.1711,38.2700,82,97,89009
1.6813,0.1662,38.2700,82,97,89012
1.7058,0.1808,38.1500,82,97,89015
1.6911,0.1662,38.2400,82,97,89019
1.7155,0.1760,37.4300,82,97,89022
1.6960,0.1515,38.2700,82,97,89025
1.7009,0.1760,38.3000,82,97,89028
1.7253,0.1760,38.2400,82,97,89032
1.6960,0.1711,38.2700,82,97,89035
1.7107,0.1711,38.1500,82,97,89038
1.6911,0.1760,38.2700,82,97,89041
1.7302,0.1662,38.2700,82,97,89046
1.8133,0.1711,38.2400,82,97,89049
1.9062,0.1515,38.2700,82,97,89052
2.0723,0.1857,38.1500,82,97,89055
2.1945,0.1760,38.3000,82,97,89059
2.3754,0.1662,38.2700,82,97,89062
2.6100,0.1808,38.1100,82,97,89065
2.6540,0.1613,38.2400,82,97,89068
2.6246,0.1760,38.2100,82,97,89072
2.4340,0.1662,38.3000,82,97,89075
2.2336,0.1564,38.2700,82,97,89078
2.0674,0.2297,38.1500,82,97,89081
1.9013,0.1662,38.3000,82,97,89085
1.8475,0.1711,38.1100,82,97,89089
1.7791,0.1711,38.2700,82,97,89092
1.7449,0.1906,38.3000,82,97,89095
1.7351,0.1760,38.2100,82,97,89099
1.6960,0.1613,38.2700,82,97,89102
1.6911,0.1808,38.1100,82,97,89105
1.6471,0.1955,38.3000,82,97,89108
1.6373,0.1662,38.3000,82,97,89112
1.6667,0.1808,38.1100,82,97,89115
1.6422,0.1711,38.2400,82,97,89118
1.6471,0.1711,38.1100,82,97,89121
1.6227,0.1662,38.3600,82,97,89125
1.6276,0.1662,38.3000,82,97,89128
1.6569,0.1760,38.1800,82,97,89132
1.6471,0.1711,38.2700,82,97,89135
1.6764,0.1760,38.0800,82,97,89139
1.6618,0.1662,38.2700,82,97,89142
1.6667,0.1662,38.2700,82,97,89145
1.6960,0.1760,38.2100,82,97,89148
1.6911,0.1711,38.2400,82,97,89152
1.7155,0.1711,38.1800,82,97,89155
1.7009,0.1711,38.3600,82,97,89158
1.7204,0.1613,38.2700,82,97,89161
1.7351,0.2151,38.0800,82,97,89165
1.7155,0.1711,38.3300,82,97,89168
1.7351,0.1711,38.1100,82,97,89171
1.7253,0.1662,38.2700,82,97,89175
1.7546,0.1613,38.2700,82,97,89179
1.7595,0.2053,38.1800,82,97,89182
1.7449,0.1662,38.3000,82,97,89185
1.7742,0.1711,38.0800,82,97,89188
1.7595,0.1857,38.2700,82,97,89192
1.7644,0.1662,38.2100,82,97,89195
1.7889,0.1760,38.2400,82,97,89198
1.7693,0.1662,38.2700,82,97,89201
1.7840,0.1711,38.0800,82,97,89205
1.7644,0.1662,38.3000,82,97,89208
1.7791,0.1662,38.3000,82,97,89211
1.8133,0.1711,38.1500,82,97,89214
1.8035,0.2004,38.2400,82,97,89219
1.8328,0.1711,38.1100,82,97,89222
1.8377,0.1662,38.2700,82,97,89225
1.8328,0.1711,38.2700,82,97,89228
1.8671,0.1760,38.3300,82,97,89232
1.8426,0.1662,38.2700,82,97,89235
1.8964,0.1662,38.1100,82,97,89238
1.8475,0.2004,38.2700,82,97,89241
1.8524,0.1662,38.4000,82,97,89245
1.8817,0.1515,38.2100,82,97,89248
1.8719,0.1613,38.2400,82,97,89251
1.9013,0.1711,38.1500,82,97,89254
1.8915,0.1906,38.2700,82,97,89259
1.9062,0.1662,38.3300,82,97,89262
1.9697,0.1760,38.1100,82,97,89265
1.9501,0.1760,38.2400,82,97,89268
1.9844,0.1711,38.1500,82,97,89272
1.9697,0.1662,38.3300,82,97,89275
1.9697,0.1515,38.2700,82,97,89278
1.9941,0.1711,38.1100,82,97,89281
1.9648,0.1711,38.3000,82,97,89285
1.9844,0.1711,38.1500,82,97,89288
1.9648,0.1662,38.2700,82,97,89291
1.9941,0.1662,38.2400,82,97,89294
2.0088,0.1857,38.1800,82,97,89298
1.9941,0.1711,38.2400,82,97,89302
2.0235,0.1711,38.1500,82,97,89305
2.0088,0.1662,38.3000,82,97,89308
2.0088,0.1662,38.2100,82,97,89312
2.0528,0.1760,38.0800,82,97,89315
2.0577,0.1760,38.2100,82,97,89318
2.0430,0.1662,38.2700,82,97,89321
2.0283,0.1613,38.3000,82,97,89325
2.0137,0.1662,38.2100,82,97,89328
2.0332,0.1760,38.1100,82,97,89331
1.9844,0.1711,38.2400,82,97,89334
1.9795,0.1760,38.1500,82,97,89338
1.9453,0.1662,38.3000,82,97,89341
1.9208,0.1662,38.3300,82,97,89345
1.9306,0.1808,38.1500,82,97,89348
1.8866,0.1808,38.2400,82,97,89352
1.8719,0.1662,38.1500,82,97,89355
1.8426,0.1711,38.3300,82,97,89358
1.8182,0.1662,38.2700,82,97,89361
1.8231,0.1760,38.0800,82,97,89365
1.7840,0.1760,38.2100,82,97,89368
1.7595,0.1662,38.1800,82,97,89371
1.7351,0.1662,38.3300,82,97,89374
1.7155,0.1662,38.2700,82,97,89378
1.7351,0.1808,38.1100,82,97,89381
1.6960,0.1662,38.2700,82,97,89384
1.7058,0.1760,38.1800,82,97,89388
1.7009,0.1711,38.2400,82,97,89392
1.6862,0.1662,38.3000,82,97,89395
1.7009,0.1613,38.3000,82,97,89399
1.7253,0.1808,38.1100,82,97,89402
1.7107,0.1711,38.2100,82,97,89405
1.7351,0.1515,38.1500,82,97,89408
1.7253,0.1613,38.2700,82,97,89412
1.7253,0.1760,38.3000,82,97,89415
1.7546,0.1760,37.4300,82,97,89418
1.7400,0.1711,38.3000,82,97,89421
1.7644,0.1711,38.1100,82,97,89424
1.7351,0.1711,38.2700,82,97,89428
1.7351,0.1662,38.1500,82,97,89432
1.7595,0.1711,38.2100,82,97,89435
1.7693,0.1711,38.2400,82,97,89439
1.8035,0.2004,38.1500,82,97,89442
1.7889,0.1711,38.2700,82,97,89445
1.7889,0.1515,38.2700,82,97,89448
1.7986,0.1711,38.1100,82,97,89452
1.7791,0.1760,38.2400,82,97,89455
1.8035,0.1808,38.1500,82,97,89458
1.7889,0.1711,38.2700,82,97,89461
1.7986,0.1760,38.3000,82,97,89465
1.8475,0.1808,38.1800,82,97,89468
1.7791,0.1662,38.2700,82,97,89472
1.8035,0.1711,38.1500,82,97,89475
1.7791,0.1662,38.2700,82,97,89479
1.8035,0.1711,38.2700,82,97,89482
1.8084,0.1760,38.2100,82,97,89485
1.7986,0.1711,38.2400,82,97,89488
1.8524,0.1711,38.1800,82,97,89492
1.7889,0.1711,38.3300,82,97,89495
1.8035,0.1662,38.2700,82,97,89498
1.8377,0.1808,38.0500,82,97,89501
1.8133,0.1515,38.2700,82,97,89505
1.8328,0.1711,38.1100,82,97,89508
1.7937,0.1564,38.2700,82,97,89511
1.7937,0.1662,38.4900,82,97,89515
1.8182,0.1808,38.1800,82,97,89519
1.7986,0.1711,38.2700,82,97,89522
1.8328,0.1711,38.1500,82,97,89525
1.7986,0.1711,38.2700,82,97,89528
1.7937,0.1662,38.3300,82,97,89532
1.8084,0.1760,38.2100,82,97,89535
1.7986,0.1613,38.2700,82,97,89538
1.8280,0.1711,38.0500,82,97,89541
1.8035,0.1711,38.2700,82,97,89545
1.8035,0.1662,38.2700,82,97,89548
1.8377,0.1808,38.1800,82,97,89551
1.8133,0.1760,38.2700,82,97,89554
1.8377,0.1711,38.1100,82,97,89559
1.8182,0.1662,38.2700,82,97,89562
1.8182,0.1906,38.2700,82,97,89565
1.8377,0.1760,38.3300,82,97,89568
1.8084,0.1711,38.2700,82,97,89572
1.8573,0.1760,38.1800,82,97,89575
1.7986,0.1808,38.3300,82,97,89578
1.8035,0.1662,38.3300,82,97,89581
1.8328,0.1760,38.2400,82,97,89585
1.8182,0.1711,38.2400,82,97,89588
1.8377,0.1760,38.1100,82,97,89591
1.8133,0.1564,38.2700,82,97,89594
1.8133,0.1662,38.3000,82,97,89598
1.8475,0.1760,38.0800,82,97,89602
1.8231,0.1711,38.2700,82,97,89605
1.8524,0.1760,38.1100,82,97,89608
1.8328,0.1711,38.2700,82,97,89612
1.8231,0.1662,38.2700,82,97,89615
1.8573,0.1711,38.1100,82,97,89618
1.8377,0.1711,38.2400,82,97,89621
1.8622,0.1711,38.2400,82,97,89625
1.8475,0.1711,38.2700,82,97,89628
1.8573,0.1515,38.3000,82,97,89631
1.9257,0.1760,38.2100,82,97,89634
1.8964,0.1662,38.2700,82,97,89638
1.9355,0.1711,38.1100,82,97,89641
1.9208,0.1711,38.2700,82,97,89645
1.9599,0.1662,38.2700,82,97,89648
1.9599,0.2053,38.0800,82,97,89652
1.9306,0.1711,38.2400,82,97,89655
1.9404,0.1711,38.1500,82,97,89658
1.9306,0.1760,38.2700,82,97,89661
1.9404,0.1662,38.3000,82,97,89665
1.9746,0.1760,38.1100,82,97,89668
1.9599,0.1760,38.2700,82,97,89671
1.9844,0.1711,38.0800,82,97,89674
1.9599,0.1711,38.2700,82,97,89678
1.9550,0.1662,38.2700,82,97,89681
1.9648,0.1760,38.1800,82,97,89684
1.9208,0.1711,38.4300,82,97,89688
1.9110,0.1711,38.1500,82,97,89692
1.8719,0.1711,38.2700,82,97,89695
1.8671,0.1662,38.2700,82,97,89698
1.8915,0.1808,38.0800,82,97,89701
1.8719,0.1711,38.2700,82,97,89705
1.8768,0.1711,38.1800,82,97,89708
1.8377,0.1711,38.2700,82,97,89711
1.8280,0.1760,38.3000,82,97,89714
1.8426,0.1760,37.9000,82,97,89718
1.8035,0.1711,38.2700,82,97,89721
1.8084,0.1760,38.1500,82,97,89724
1.7742,0.1711,38.3000,82,97,89728
1.7644,0.1711,38.3300,82,97,89732
1.7889,0.1808,38.1800,82,97,89735
1.7742,0.1760,38.2400,82,97,89738
1.7937,0.1711,38.1100,82,97,89741
1.7840,0.1662,38.2700,82,97,89745
1.7840,0.1662,38.2700,82,97,89748
1.8182,0.1808,38.0800,82,97,89751
1.7986,0.1857,38.2400,82,97,89754
1.8084,0.1711,38.0800,82,97,89758
1.7840,0.1760,38.3000,82,97,89761
1.7742,0.1760,38.2700,82,97,89764
1.7937,0.1760,38.1800,82,97,89767
1.7791,0.1760,38.2400,82,97,89772
1.8182,0.2053,38.1100,82,97,89775
1.8671,0.1711,38.3000,82,97,89778
1.9599,0.1711,38.2700,82,97,89781
2.1212,0.1808,38.1800,82,97,89785
2.2434,0.1711,38.2100,82,97,89788
2.4340,0.1515,38.1800,82,97,89791
2.6197,0.1711,38.2700,82,97,89794
2.7566,0.1760,38.2400,82,97,89798
2.8104,0.1808,38.0500,82,97,89801
2.6588,0.1760,38.2100,82,97,89804
2.4585,0.1760,38.1500,82,97,89807
2.2287,0.1711,38.3600,82,97,89810
2.0430,0.1760,38.2400,82,97,89815
1.9501,0.1808,38.0800,82,97,89818
1.8475,0.1760,38.2700,82,97,89821
1.8084,0.1711,38.1800,82,97,89824
1.7742,0.1711,38.2700,82,97,89828
1.7498,0.1711,38.3300,82,97,89831
1.7791,0.1857,38.1500,82,97,89834
1.7302,0.1760,38.2100,82,97,89837
1.7302,0.1662,38.1500,82,97,89841
1.7204,0.1711,38.2100,82,97,89844
1.6960,0.1711,38.3000,82,97,89847
1.7400,0.1760,38.0500,82,97,89850
1.7155,0.1808,38.3300,82,97,89854
1.7058,0.1662,38.2100,82,97,89858
1.7155,0.1613,38.2700,82,97,89861
1.7155,0.1711,38.3300,82,97,89864
1.7791,0.1857,38.1100,82,97,89868
1.7449,0.1711,38.2400,82,97,89871
1.7498,0.1613,38.2100,82,97,89874
1.7449,0.1711,38.2700,82,97,89877
1.7546,0.1711,38.2700,82,97,89881
1.8084,0.1857,38.1800,82,97,89884
1.8084,0.1711,38.2100,82,97,89887
1.7840,0.1662,38.1500,82,97,89890
1.7791,0.1711,38.2700,82,97,89894
1.7693,0.1711,38.2700,82,97,89897
1.8084,0.1711,38.0800,82,97,89901
1.7986,0.1857,38.1800,82,97,89904
1.7937,0.1662,38.3000,82,97,89908
1.7986,0.1711,38.2700,82,97,89911
1.8035,0.1711,38.3000,82,97,89914
1.8622,0.1906,38.0800,82,97,89917
1.8280,0.1711,38.2400,82,97,89921
1.8377,0.1662,38.2400,82,97,89924
1.8426,0.1711,38.3600,82,97,89927
1.8475,0.1711,38.3600,82,97,89930
1.9013,0.1906,38.0500,82,97,89934
1.8622,0.1760,38.3000,82,97,89937
1.8622,0.1662,38.2100,82,97,89940
1.8719,0.1711,38.2100,82,97,89944
1.8719,0.1711,38.2700,82,97,89948
1.9453,0.1808,38.0500,82,97,89951
1.8915,0.1760,38.0500,82,97,89954
1.8866,0.1662,38.2100,82,97,89957
1.9013,0.1760,38.2400,82,97,89961
1.9159,0.1711,38.4000,82,97,89964
1.9795,0.1906,38.0200,82,97,89967
1.9306,0.1711,38.2100,82,97,89970
1.9306,0.1662,38.2400,82,97,89974
1.9404,0.1808,38.3000,82,97,89977
1.9404,0.1711,38.2700,82,97,89980
2.0039,0.1955,38.0500,82,97,89984
1.9599,0.1711,38.2100,82,97,89988
1.9550,0.1662,38.2400,82,97,89991
1.9648,0.1711,38.2700,82,97,89994
1.9501,0.1662,38.2700,82,97,89997
2.0186,0.1857,38.0200,82,97,90001
2.0626,0.1711,38.1100,82,97,90004
2.0186,0.1711,38.4000,82,97,90008
2.0528,0.1711,38.1500,82,97,90011
2.0381,0.1760,38.2700,82,97,90014
2.0430,0.1906,38.2700,82,97,90017
2.0919,0.1808,38.1500,82,97,90020
2.0577,0.1760,38.2100,82,97,90024
2.0674,0.1711,38.1800,82,97,90028
2.0821,0.1711,38.2700,82,97,90031
2.0577,0.1662,38.1800,82,97,90034
2.1065,0.1808,38.0800,82,97,90038
2.0772,0.1808,38.1800,82,97,90041
2.0626,0.1515,38.2100,82,97,90044
2.0528,0.1711,38.2700,82,97,90047
2.0332,0.1662,38.2700,82,97,90051
2.0674,0.1857,38.0800,82,97,90054
1.9990,0.1760,38.2700,82,97,90057
1.9697,0.1662,38.2100,82,97,90060
1.9501,0.1711,38.2700,82,97,90064
1.9355,0.1515,38.2700,82,97,90067
1.9795,0.1906,38.0800,82,97,90071
1.9159,0.1760,38.1800,82,97,90074
1.8768,0.1662,38.2100,82,97,90078
1.8426,0.1711,38.2700,82,97,90081
1.7986,0.1613,38.2400,82,97,90084
1.8328,0.1906,38.0800,82,97,90087
1.7840,0.1808,38.2400,82,97,90091
1.7595,0.1760,38.2100,82,97,90094
1.7498,0.1711,38.0800,82,97,90097
1.7400,0.1760,38.2700,82,97,90100
1.7889,0.1857,38.0500,82,97,90104
1.7400,0.1711,38.2100,82,97,90107
1.7351,0.1662,38.2400,82,97,90110
1.7351,0.1711,38.2700,82,97,90114
1.7204,0.1711,38.2700,82,97,90118
1.7742,0.1906,38.0500,82,97,90121
1.7449,0.1808,38.1800,82,97,90124
1.7400,0.1613,38.2400,82,97,90127
1.7644,0.1760,38.2400,82,97,90131
1.7644,0.1760,38.2700,82,97,90134
1.8133,0.1906,38.1500,82,97,90137
1.7693,0.1808,38.1800,82,97,90140
1.7546,0.1662,38.2100,82,97,90144
1.7644,0.2004,38.2700,82,97,90147
1.7742,0.1515,38.2700,82,97,90150
1.8280,0.1906,38.0200,82,97,90153
1.7840,0.1662,38.2400,82,97,90158
1.7889,0.1515,38.2400,82,97,90161
1.7986,0.1760,38.2400,82,97,90164
1.7937,0.1711,38.2700,82,97,90167
1.8524,0.2151,38.0200,82,97,90171
1.8182,0.1711,38.1500,82,97,90174
1.7986,0.1662,38.2400,82,97,90177
1.8035,0.1711,38.2400,82,97,90180
1.7937,0.1711,38.3000,82,97,90184
1.8524,0.1906,38.0500,82,97,90187
1.8231,0.1711,38.1100,82,97,90190
1.8231,0.1662,38.2400,82,97,90193
1.8231,0.1760,38.3000,82,97,90198
1.8182,0.1711,37.6200,82,97,90201
1.8671,0.1906,37.9900,82,97,90204
1.8231,0.1711,38.2100,82,97,90207
1.8231,0.1613,38.2400,82,97,90211
1.8280,0.1711,38.3000,82,97,90214
1.8182,0.1711,38.2700,82,97,90217
1.8671,0.1906,38.0200,82,97,90220
1.8280,0.1760,38.1800,82,97,90224
1.8182,0.1613,38.2700,82,97,90227
1.8328,0.1857,38.3000,82,97,90230
1.8328,0.1662,38.3000,82,97,90233
1.8866,0.1711,38.0200,82,97,90237
1.8475,0.1711,38.1100,82,97,90241
1.8231,0.2004,38.2400,82,97,90244
1.8231,0.1515,38.2400,82,97,90247
1.8475,0.1662,38.2700,82,97,90251
1.8671,0.1857,37.9900,82,97,90254
1.8231,0.1711,38.2100,82,97,90257
1.8231,0.1613,38.2700,82,97,90260
1.8280,0.1711,38.2400,82,97,90264
1.8280,0.1711,38.2700,82,97,90267
1.8964,0.1808,38.0200,82,97,90270
1.8671,0.1711,38.1800,82,97,90273
1.8524,0.1515,38.2700,82,97,90277
1.8426,0.1711,38.2400,82,97,90280
1.8182,0.1711,38.3000,82,97,90284
1.8719,0.1906,38.0200,82,97,90287
1.8426,0.1711,38.1100,82,97,90291
1.8328,0.1613,38.2400,82,97,90294
1.8377,0.1711,38.2400,82,97,90297
1.8231,0.1760,38.3000,82,97,90300
1.8768,0.1857,38.1100,82,97,90304
1.8280,0.1711,38.2100,82,97,90307
1.8280,0.1662,38.2700,82,97,90310
1.8328,0.1662,38.3000,82,97,90313
1.8231,0.1760,38.2700,82,97,90317
1.8719,0.1906,37.9900,82,97,90320
1.8426,0.1711,38.1800,82,97,90323
1.8328,0.1857,38.3000,82,97,90327
1.8524,0.1711,38.2100,82,97,90331
1.8426,0.1662,38.3000,82,97,90334
1.8964,0.1857,37.9600,82,97,90337
1.8671,0.1711,38.1500,82,97,90340
1.8328,0.1662,38.3000,82,97,90344
1.8426,0.1711,38.1800,82,97,90347
1.8475,0.1711,38.2700,82,97,90350
1.9062,0.1857,37.9900,82,97,90353
1.8866,0.1760,38.2400,82,97,90357
1.8524,0.1906,38.2700,82,97,90360
1.8573,0.1711,38.2400,82,97,90363
1.8573,0.1711,38.3000,82,97,90366
1.9453,0.1906,37.9900,82,97,90371
1.9208,0.2248,38.1800,82,97,90374
1.9257,0.1662,38.2700,82,97,90377
1.9453,0.1760,38.2400,82,97,90380
1.9453,0.1711,38.3300,82,97,90384
1.9941,0.1808,37.9600,82,97,90387
1.9550,0.1711,38.1800,82,97,90390
1.9404,0.1662,38.2700,82,97,90393
1.9404,0.1662,38.2700,82,97,90397
1.9355,0.1662,38.4000,82,97,90400
2.0039,0.1808,37.9600,82,97,90403
1.9599,0.1662,38.2100,82,97,90406
1.9746,0.1711,38.2700,82,97,90411
1.9892,0.1711,38.1800,82,97,90414
1.9697,0.1662,38.3000,82,97,90417
2.0137,0.1808,37.9600,82,97,90420
1.9697,0.1711,38.1500,82,97,90424
1.9404,0.1515,38.3000,82,97,90427
1.9355,0.1711,38.2100,82,97,90430
1.8964,0.1613,38.2400,82,97,90433
1.9306,0.1906,37.9900,82,97,90437
1.8768,0.1711,38.2700,82,97,90440
1.8671,0.1662,38.3000,82,97,90443
1.8671,0.1760,38.2400,82,97,90446
1.8622,0.1662,38.2700,82,97,90450
1.9013,0.1808,37.9900,82,97,90454
1.8377,0.1662,38.2400,82,97,90457
1.8377,0.1662,38.3000,82,97,90460
1.8280,0.1760,38.2100,82,97,90464
1.8084,0.1662,38.3300,82,97,90467
1.8573,0.1808,37.9600,82,97,90470
1.8182,0.1808,38.1800,82,97,90473
1.7986,0.1662,38.3600,82,97,90477
1.8084,0.1760,38.2700,82,97,90480
1.8231,0.1662,38.2700,82,97,90483
1.8622,0.1857,37.9900,82,97,90486
1.8182,0.1857,38.1500,82,97,90490
1.8133,0.1662,38.3000,82,97,90493
1.8182,0.1711,38.2700,82,97,90497
1.8035,0.1662,38.3000,82,97,90500
1.8328,0.1808,38.0800,82,97,90504
1.7742,0.1662,38.2400,82,97,90507
1.7937,0.1711,38.2700,82,97,90510
1.8328,0.1808,38.2400,82,97,90513
1.8768,0.1662,37.6200,82,97,90517
2.0186,0.1760,37.9900,82,97,90520
2.1017,0.1760,38.1800,82,97,90523
2.2287,0.1662,38.3300,82,97,90526
2.4242,0.1760,38.1500,82,97,90530
2.6002,0.1662,38.3000,82,97,90533
2.7957,0.1760,37.9900,82,97,90536
2.7322,0.1662,38.1800,82,97,90540
2.5904,0.1662,38.2700,82,97,90544
2.4096,0.1760,38.2700,82,97,90547
2.2043,0.1662,38.2700,82,97,90550
2.1212,0.1760,37.9900,82,97,90553
1.9453,0.1613,38.2400,82,97,90557
1.8622,0.1808,38.2400,82,97,90560
1.8328,0.1760,38.2400,82,97,90563
1.7986,0.1662,38.2700,82,97,90566
1.8426,0.1808,38.0200,82,97,90570
1.7791,0.1711,37.9600,82,97,90573
1.7498,0.1662,38.2700,82,97,90576
1.7449,0.1808,38.2100,82,97,90579
1.7107,0.1760,38.2700,82,97,90584
1.7449,0.1760,38.0200,82,97,90587
1.7155,0.1760,37.4600,82,97,90590
1.7155,0.1662,38.2700,82,97,90593
1.7253,0.1760,38.2400,82,97,90597
1.7155,0.1662,38.4000,82,97,90600
1.7546,0.1760,37.9900,82,97,90603
1.7204,0.1662,38.2400,82,97,90606
1.7351,0.1906,38.3000,82,97,90610
1.7546,0.1808,38.4000,82,97,90613
1.7840,0.1662,38.3000,82,97,90616
1.7840,0.1515,38.2700,82,97,90620
1.8671,0.1711,37.9900,82,97,90624
1.7986,0.1711,38.1100,82,97,90627
1.7840,0.1662,38.2400,82,97,90630
1.7937,0.1711,38.2700,82,97,90634
1.8084,0.1662,38.2700,82,97,90637
1.8671,0.1711,37.9900,82,97,90640
1.8231,0.1760,38.2400,82,97,90643
1.8182,0.1662,38.2700,82,97,90647
1.8231,0.1711,38.2400,82,97,90650
1.8182,0.1662,38.2400,82,97,90653
1.8817,0.1808,37.9600,82,97,90656
1.8573,0.1711,38.2100,82,97,90660
1.8475,0.1613,38.2400,82,97,90663
1.8573,0.1711,38.2400,82,97,90667
1.8475,0.1955,38.2700,82,97,90670
1.9062,0.1808,38.0500,82,97,90674
1.8817,0.1515,38.1500,82,97,90677
1.8719,0.1613,38.2700,82,97,90680
1.8817,0.1711,38.2400,82,97,90683
1.8817,0.1711,38.2700,82,97,90687
1.9306,0.1808,37.9600,82,97,90690
1.8964,0.1613,38.2400,82,97,90693
1.8964,0.1662,38.2700,82,97,90696
1.9159,0.1711,38.2400,82,97,90700
1.9159,0.1711,38.2700,82,97,90703
2.0039,0.1711,37.9600,82,97,90706
1.9355,0.1760,38.1100,82,97,90710
1.9306,0.1711,38.2700,82,97,90714
1.9550,0.1515,38.2400,82,97,90717
1.9599,0.1760,38.2700,82,97,90720
2.0283,0.1808,37.9900,82,97,90723
1.9941,0.1711,38.1800,82,97,90727
1.9941,0.1711,38.3000,82,97,90730
2.0088,0.1711,38.2700,82,97,90733
2.0088,0.1711,38.2700,82,97,90736
2.0626,0.1857,37.9900,82,97,90740
2.0137,0.1662,38.2400,82,97,90743
2.0186,0.1662,38.3000,82,97,90746
2.0577,0.1760,38.2700,82,97,90749
2.0332,0.2053,38.3000,82,97,90754
2.0919,0.1808,37.9900,82,97,90757
2.0626,0.1808,38.2100,82,97,90760
2.0479,0.1662,38.3000,82,97,90763
2.0674,0.1808,38.2100,82,97,90767
2.0381,0.1711,38.3000,82,97,90770
2.0968,0.1808,37.9900,82,97,90773
2.0626,0.1760,38.1800,82,97,90776
2.0626,0.1662,38.4000,82,97,90780
2.0626,0.1711,38.2400,82,97,90783
2.0332,0.1711,38.2400,82,97,90786
2.0674,0.1760,38.0800,82,97,90789
2.0137,0.1662,38.2700,82,97,90792
2.0039,0.1613,38.2400,82,97,90797
2.0088,0.1760,38.2400,82,97,90800
1.9599,0.1711,38.2700,82,97,90803
1.9746,0.1857,38.0500,82,97,90806
1.9208,0.1711,38.1800,82,97,90810
1.9062,0.1711,38.2700,82,97,90813
1.9013,0.1711,38.1500,82,97,90816
1.8426,0.1711,38.2700,82,97,90819
1.8573,0.1760,38.0500,82,97,90823
1.7986,0.1711,38.2100,82,97,90826
1.7840,0.1760,38.2700,82,97,90829
1.7742,0.1760,38.2100,82,97,90832
1.7595,0.1711,38.2700,82,97,90836
1.7986,0.1808,38.0500,82,97,90840
1.7449,0.1711,38.2700,82,97,90843
1.7400,0.1711,38.2700,82,97,90846
1.7595,0.1808,38.1500,82,97,90850
1.7400,0.1711,38.2700,82,97,90853
1.7742,0.1760,38.0200,82,97,90856
1.7498,0.1711,38.1500,82,97,90859
1.7400,0.1711,38.3000,82,97,90863
1.7644,0.1760,38.1800,82,97,90866
1.7155,0.1711,38.2100,82,97,90869
1.7546,0.1515,38.0500,82,97,90872
1.7400,0.1711,38.2100,82,97,90876
1.7449,0.1808,38.2700,82,97,90880
1.7546,0.1711,38.2700,82,97,90883
1.7546,0.1711,38.2400,82,97,90886
1.7791,0.1711,38.0500,82,97,90890
1.7595,0.1857,38.2700,82,97,90893
1.7742,0.1711,38.1500,82,97,90896
1.8084,0.1760,38.1500,82,97,90899
1.7889,0.1711,38.2700,82,97,90903
1.8133,0.1662,38.0500,82,97,90906
1.7889,0.1711,38.1500,82,97,90909
1.7791,0.1515,38.2700,82,97,90912
1.8084,0.1760,38.1100,82,97,90916
1.7937,0.1808,38.2700,82,97,90919
1.8182,0.1711,38.1100,82,97,90923
1.7889,0.1711,38.3300,82,97,90926
1.7840,0.1711,38.2700,82,97,90930
1.7937,0.1760,38.1800,82,97,90933
1.7986,0.1711,38.2700,82,97,90936
1.8377,0.1711,38.0800,82,97,90939
1.8133,0.1711,38.2700,82,97,90943
1.8231,0.1711,38.2700,82,97,90946
1.8280,0.1808,38.1800,82,97,90949
1.8084,0.1711,38.4000,82,97,90952
1.8426,0.1711,38.1100,82,97,90956
1.8280,0.1662,38.1800,82,97,90959
1.8182,0.1711,38.3600,82,97,90962
1.8328,0.1760,38.0500,82,97,90966
1.8084,0.1711,38.2700,82,97,90970
1.8280,0.1760,38.0500,82,97,90973
1.8084,0.1711,38.2100,82,97,90976
1.8133,0.1760,38.2700,82,97,90979
1.8280,0.1711,38.2100,82,97,90983
1.8182,0.1711,38.2700,82,97,90986
1.8377,0.1711,38.1100,82,97,90989
1.8084,0.1515,38.2700,82,97,90992
1.8182,0.1808,38.2700,82,97,90996
1.8426,0.1760,38.1500,82,97,90999
1.8280,0.1711,38.3000,82,97,91002
1.8475,0.1711,38.1100,82,97,91005
1.8231,0.1760,38.1800,82,97,91010
1.8280,0.1711,38.2100,82,97,91013
1.8524,0.1760,38.0500,82,97,91016
1.8328,0.1515,38.2700,82,97,91019
1.8719,0.1760,38.0800,82,97,91023
1.8280,0.1711,38.3300,82,97,91026
1.8280,0.1711,38.2700,82,97,91029
1.8377,0.1760,38.1800,82,97,91032
1.8377,0.1711,38.3000,82,97,91036
1.8671,0.1711,38.1800,82,97,91039
1.8426,0.1711,38.4000,82,97,91042
1.8426,0.1711,38.2700,82,97,91045
1.8622,0.1711,38.1800,82,97,91049
1.8475,0.1711,38.2700,82,97,91053
1.8622,0.1760,38.0800,82,97,91056
1.8377,0.1662,38.2100,82,97,91059
1.8377,0.1662,38.2700,82,97,91063
1.8768,0.1711,38.1500,82,97,91066
1.8377,0.2053,38.2700,82,97,91069
1.8768,0.1515,38.1100,82,97,91072
1.8524,0.1711,38.2400,82,97,91076
1.8573,0.1711,38.2700,82,97,91079
1.8524,0.1760,38.2100,82,97,91082
1.8328,0.1711,38.2700,82,97,91085
1.8475,0.1760,38.1500,82,97,91089
1.8280,0.1711,38.2700,82,97,91092
1.8328,0.1711,38.3000,82,97,91096
1.8622,0.1760,37.8000,82,97,91099
1.8426,0.1711,38.2700,82,97,91103
1.8719,0.1711,38.1100,82,97,91106
1.8426,0.1564,38.2100,82,97,91109
1.8671,0.1711,38.2700,82,97,91112
1.9062,0.1760,38.1100,82,97,91116
1.9013,0.1711,38.3000,82,97,91119
1.9453,0.1760,38.1100,82,97,91122
1.9208,0.2004,38.2100,82,97,91125
1.9306,0.1711,38.3000,82,97,91129
1.9453,0.1711,38.2100,82,97,91132
1.9501,0.1662,38.2700,82,97,91136
1.9844,0.1711,38.1800,82,97,91139
1.9550,0.1711,38.3300,82,97,91143
1.9648,0.1760,38.2700,82,97,91146
1.9941,0.1760,38.1500,82,97,91149
1.9746,0.1711,38.2700,82,97,91152
2.0137,0.1711,38.2100,82,97,91156
1.9844,0.1662,38.2100,82,97,91159
1.9697,0.1613,38.2700,82,97,91162
1.9697,0.1760,38.1100,82,97,91165
1.9306,0.1711,38.3000,82,97,91169
1.9453,0.1760,38.1500,82,97,91172
1.9013,0.1662,38.2400,82,97,91175
1.8915,0.1662,38.3000,82,97,91179
1.8915,0.1711,38.1800,82,97,91183
1.8768,0.1711,38.2700,82,97,91186
1.8817,0.1662,38.1500,82,97,91189
1.8328,0.1906,38.2700,82,97,91192
1.8182,0.1711,38.2700,82,97,91196
1.8231,0.1808,38.1500,82,97,91199
1.7889,0.1711,38.2700,82,97,91202
1.7937,0.1760,38.1500,82,97,91205
1.7546,0.1662,38.2400,82,97,91209
1.7498,0.1711,38.2700,82,97,91212
1.7840,0.1711,38.1500,82,97,91215
1.7742,0.1808,38.2700,82,97,91218
1.8084,0.1711,38.1500,82,97,91223
1.7791,0.1711,38.0200,82,97,91226
1.7791,0.1711,38.2700,82,97,91230
1.7644,0.1711,38.2700,82,97,91233
1.7644,0.1760,38.1800,82,97,91236
1.7595,0.1760,38.2700,82,97,91239
1.8328,0.1760,38.0200,82,97,91243
1.8719,0.1711,38.1800,82,97,91246
1.9453,0.1662,38.2700,82,97,91249
2.0870,0.1857,38.1800,82,97,91252
2.1945,0.1711,38.3000,82,97,91256
2.3949,0.1760,38.0500,82,97,91259
2.5513,0.1711,38.2400,82,97,91262
2.6931,0.1515,38.3000,82,97,91266
2.7175,0.1711,38.1800,82,97,91270
2.5758,0.1662,38.2400,82,97,91273
2.4340,0.1760,38.0500,82,97,91276
2.1994,0.1711,38.2700,82,97,91279
2.0332,0.1760,38.3000,82,97,91283
1.9501,0.1760,38.2100,82,97,91286
1.8671,0.1711,38.2700,82,97,91289
1.8475,0.1760,38.0500,82,97,91292
1.7889,0.1711,38.4000,82,97,91296
1.7595,0.1711,38.2700,82,97,91299
1.7644,0.1760,38.1500,82,97,91302
1.7253,0.1760,38.3000,82,97,91305
1.7351,0.1760,38.3300,82,97,91310
1.6911,0.1711,38.2400,82,97,91313
1.6813,0.1711,38.3000,82,97,91316
1.7204,0.1808,38.2100,82,97,91319
1.6813,0.1711,38.3300,82,97,91323
1.7204,0.1711,38.0500,82,97,91326
1.6960,0.1711,38.3000,82,97,91329
1.6960,0.1613,38.2700,82,97,91332
1.7107,0.1808,38.1800,82,97,91336
1.7009,0.1711,38.3000,82,97,91339
1.7400,0.1711,38.0500,82,97,91342
1.7253,0.1711,38.1800,82,97,91345
1.7302,0.1515,38.3000,82,97,91350
1.7546,0.1760,38.1100,82,97,91353
1.7400,0.1760,38.2700,82,97,91356
1.7742,0.1711,38.0800,82,97,91359
1.7791,0.1662,38.2400,82,97,91362
1.7693,0.1711,38.3000,82,97,91366
1.7840,0.1760,37.9600,82,97,91369
1.7644,0.1711,38.2700,82,97,91372
1.7889,0.1760,38.0800,82,97,91375
1.7693,0.2053,38.3000,82,97,91379
1.7840,0.1515,38.2400,82,97,91382
1.8328,0.1808,38.1800,82,97,91385
1.7986,0.1760,38.2700,82,97,91388
1.8231,0.1711,38.0200,82,97,91393
1.7937,0.1711,38.2100,82,97,91396
1.8035,0.1711,38.2700,82,97,91399
1.8573,0.1711,38.1100,82,97,91402
1.8182,0.1662,38.2700,82,97,91406
1.8524,0.1711,38.1500,82,97,91409
1.8231,0.1515,38.2100,82,97,91412
1.8280,0.1711,38.2700,82,97,91415
1.8426,0.1760,38.2400,82,97,91419
1.8426,0.1711,38.3300,82,97,91422
1.8768,0.1711,38.1100,82,97,91425
1.8524,0.1711,38.2700,82,97,91428
1.8622,0.1760,38.2700,82,97,91432
1.8817,0.1857,38.1800,82,97,91436
1.8719,0.1711,38.2700,82,97,91439
1.9110,0.1711,38.1100,82,97,91443
1.8964,0.1711,38.2100,82,97,91446
1.9062,0.1662,38.3000,82,97,91449
1.9208,0.2053,38.1500,82,97,91452
1.9013,0.1711,38.2700,82,97,91456
1.9355,0.1760,38.1100,82,97,91459
1.9159,0.1711,38.3000,82,97,91462
1.9306,0.1711,38.2100,82,97,91465
1.9501,0.1515,38.2400,82,97,91469
1.9746,0.1760,38.2700,82,97,91472
1.9892,0.1711,38.1500,82,97,91475
1.9697,0.1711,38.3000,82,97,91479
1.9844,0.1515,38.2700,82,97,91483
2.0235,0.1711,38.1800,82,97,91486
2.0039,0.1711,38.2400,82,97,91489
2.0283,0.1760,38.1100,82,97,91492
1.9941,0.1760,38.2100,82,97,91495
2.0039,0.1711,38.2700,82,97,91499
2.0430,0.1760,38.2100,82,97,91502
2.0332,0.1711,38.2700,82,97,91505
2.0674,0.1760,38.1500,82,97,91508
2.0381,0.1711,38.3000,82,97,91512
2.0332,0.1760,38.2700,82,97,91515
2.0479,0.1760,38.2100,82,97,91518
2.0332,0.1711,38.2700,82,97,91522
2.0577,0.1808,38.1500,82,97,91526
2.0137,0.1711,38.2400,82,97,91529
2.0088,0.1711,38.2700,82,97,91532
2.0186,0.1906,38.1100,82,97,91535
1.9697,0.1808,38.2100,82,97,91539
1.9795,0.1808,38.1500,82,97,91542
1.9306,0.1760,38.3000,82,97,91545
1.9110,0.1711,38.2400,82,97,91548
1.9110,0.1808,38.1800,82,97,91552
1.8573,0.1808,38.2700,82,97,91555
1.8524,0.1760,38.5200,82,97,91558
1.8084,0.1711,38.2700,82,97,91561
1.7937,0.1515,38.2700,82,97,91566
1.7937,0.1760,38.2100,82,97,91569
1.7449,0.1711,38.2700,82,97,91572
1.7400,0.1760,38.1800,82,97,91575
1.7058,0.1711,38.2700,82,97,91579
1.7155,0.1711,38.2700,82,97,91582
1.7253,0.1808,38.1100,82,97,91585
1.7058,0.1760,38.3000,82,97,91588
1.7107,0.1711,38.1800,82,97,91592
1.6862,0.1711,38.2700,82,97,91595
1.6911,0.1760,38.3000,82,97,91598
1.7253,0.1808,38.1500,82,97,91601
1.7155,0.1711,38.2700,82,97,91606
1.7449,0.1760,38.1100,82,97,91609
1.7107,0.1808,38.2700,82,97,91612
1.7058,0.1711,38.3000,82,97,91615
1.7302,0.1808,38.2700,82,97,91619
1.7204,0.1515,38.2700,82,97,91622
1.7498,0.2053,38.1100,82,97,91625
1.7253,0.1760,38.3000,82,97,91628
1.7204,0.1711,38.3000,82,97,91632
1.7498,0.1808,38.1100,82,97,91635
1.7400,0.1711,38.2400,82,97,91638
1.7595,0.1760,38.1100,82,97,91641
1.7498,0.1711,38.2700,82,97,91645
1.7595,0.1760,38.3000,82,97,91649
1.7791,0.1857,38.1100,82,97,91652
1.7546,0.1760,38.2700,82,97,91655
1.7791,0.1760,38.1500,82,97,91659
