ecg,gsr,temp,hr,spo2,timest
1.4809,0.2981,39.9300,61,96,322919
1.5103,0.2933,39.8600,61,96,322922
1.5396,0.2933,40.0000,61,96,322926
1.5982,0.2835,40.0000,61,96,322929
1.6618,0.2981,39.9300,61,96,322932
1.6618,0.2884,39.7300,61,96,322936
1.6911,0.3030,39.8600,61,96,322939
1.6813,0.2884,40.0000,61,96,322942
1.6862,0.3177,40.0000,61,96,322947
1.7498,0.3030,39.8600,61,96,322950
1.7155,0.2933,40.0300,61,96,322953
1.7546,0.3275,39.8900,61,96,322956
1.7302,0.2688,39.9600,61,96,322960
1.7449,0.2884,40.1300,61,96,322963
1.7693,0.2933,39.8900,61,96,322966
1.7693,0.3128,40.0300,61,96,322970
1.8475,0.3030,39.8000,61,96,322973
1.7986,0.2933,40.0300,61,96,322976
1.8133,0.3030,40.0300,61,96,322980
1.8524,0.2933,39.9600,61,96,322983
1.8182,0.2884,39.4100,61,96,322987
1.8377,0.3079,39.8300,61,96,322991
1.7791,0.2884,40.0000,61,96,322994
1.7742,0.3177,40.0300,61,96,322997
1.8035,0.2884,39.9600,61,96,323000
1.8084,0.2884,40.0000,61,96,323004
1.8817,0.3177,39.7700,61,96,323007
1.8524,0.2981,40.0000,61,96,323010
1.8377,0.2884,39.9300,61,96,323014
1.8133,0.2933,39.9600,61,96,323017
1.7937,0.2884,40.0000,61,96,323020
1.8280,0.2981,39.8600,61,96,323024
1.8084,0.2933,40.2000,61,96,323027
1.8328,0.2933,39.8600,61,96,323031
1.8377,0.2688,40.0000,61,96,323035
1.8573,0.2884,40.0600,61,96,323038
1.8768,0.2981,39.9300,61,96,323041
1.8671,0.2884,40.0300,61,96,323044
1.8866,0.3079,39.8900,61,96,323048
1.8671,0.2933,40.0000,61,96,323051
1.8671,0.2884,40.0300,61,96,323054
1.8866,0.2933,39.8900,61,96,323058
1.8817,0.2884,40.0000,61,96,323061
1.9208,0.2933,39.8000,61,96,323064
1.9110,0.2884,39.9600,61,96,323068
1.9257,0.2884,40.0000,61,96,323072
1.9550,0.2981,39.9600,61,96,323075
1.9355,0.2884,40.0000,61,96,323079
1.9941,0.2933,39.8300,61,96,323082
1.9941,0.2981,39.9600,61,96,323085
1.9941,0.3030,40.0000,61,96,323088
2.0088,0.2981,39.9300,61,96,323092
1.9892,0.2884,40.0600,61,96,323095
2.0430,0.3030,39.6700,61,96,323098
2.1701,0.3030,39.8300,61,96,323102
2.1603,0.3128,39.9300,61,96,323105
2.1848,0.2884,39.8900,61,96,323109
2.1457,0.2933,40.0300,61,96,323112
2.1457,0.2884,40.0600,61,96,323116
2.1505,0.2981,40.0300,61,96,323120
2.1310,0.2933,39.9600,61,96,323123
2.1701,0.2981,39.8900,61,96,323126
2.1554,0.2933,40.0300,61,96,323130
2.1701,0.2884,39.9600,61,96,323133
2.2190,0.2981,39.9600,61,96,323136
2.1896,0.2981,39.9300,61,96,323139
2.2190,0.2933,39.8300,61,96,323143
2.1994,0.2884,39.8600,61,96,323146
2.1945,0.2884,40.0300,61,96,323149
2.2092,0.2981,39.8600,61,96,323153
2.1750,0.2933,40.0000,61,96,323156
2.1896,0.2981,39.7700,61,96,323160
2.1065,0.2933,39.9600,61,96,323164
2.0723,0.2933,40.0300,61,96,323167
2.0626,0.2981,40.0600,61,96,323170
2.0088,0.2933,40.0000,61,96,323174
2.0137,0.3177,39.7300,61,96,323177
1.9110,0.2933,39.9300,61,96,323180
1.8524,0.2786,40.0000,61,96,323183
1.8035,0.2933,40.0000,61,96,323187
1.7693,0.2884,39.9600,61,96,323190
1.8035,0.3079,39.8000,61,96,323193
1.7204,0.2981,39.8900,61,96,323197
1.6911,0.2884,40.0000,61,96,323201
1.6618,0.2933,39.9600,61,96,323204
1.6373,0.2884,40.0600,61,96,323208
1.6618,0.2981,39.8300,61,96,323211
1.6325,0.2933,39.9600,61,96,323214
1.6373,0.2933,39.8900,61,96,323217
1.6178,0.2884,39.9300,61,96,323221
1.6373,0.2884,40.1600,61,96,323224
1.6862,0.2688,39.9300,61,96,323227
1.6569,0.2933,39.9600,61,96,323231
1.6813,0.2981,39.8900,61,96,323234
1.6569,0.2884,40.0300,61,96,323237
1.6569,0.2884,40.2000,61,96,323241
1.6667,0.2933,39.9300,61,96,323245
1.6520,0.2884,40.0000,61,96,323248
1.6764,0.2933,39.8600,61,96,323252
1.6471,0.2688,40.0000,61,96,323255
1.6569,0.2884,39.9600,61,96,323258
1.6764,0.3030,39.8900,61,96,323261
1.6667,0.2688,40.0000,61,96,323265
1.6764,0.2981,39.7300,61,96,323268
1.6667,0.3177,39.8900,61,96,323271
1.6618,0.2688,40.0000,61,96,323275
1.7009,0.2933,39.9300,61,96,323278
1.7351,0.2884,39.9600,61,96,323281
1.7595,0.3030,39.8000,61,96,323286
1.7546,0.2933,39.8600,61,96,323289
1.7204,0.2835,39.9600,61,96,323292
1.7302,0.2933,39.9600,61,96,323296
1.7449,0.2884,39.9600,61,96,323299
1.7986,0.3079,39.8300,61,96,323302
1.7840,0.2981,39.9300,61,96,323305
1.7986,0.2933,39.9300,61,96,323309
1.7791,0.2933,40.0000,61,96,323312
1.7644,0.2933,40.0000,61,96,323315
1.7889,0.2981,39.2800,61,96,323319
1.7644,0.2835,39.9600,61,96,323322
1.7889,0.2933,39.8600,61,96,323325
1.7693,0.2981,40.0000,61,96,323330
1.7791,0.2688,40.0000,61,96,323333
1.7986,0.2981,39.8600,61,96,323336
1.8035,0.2933,40.0000,61,96,323340
1.8035,0.2933,39.8900,61,96,323343
1.7791,0.2884,40.2000,61,96,323346
1.7840,0.2933,39.9600,61,96,323349
1.7986,0.2933,39.8900,61,96,323353
1.7840,0.3079,40.0000,61,96,323356
1.8133,0.2981,39.8600,61,96,323359
1.7791,0.2933,40.2000,61,96,323363
1.7889,0.3030,40.0300,61,96,323366
1.8231,0.2981,39.8900,61,96,323369
1.8035,0.2884,40.0600,61,96,323374
1.8622,0.3030,39.7300,61,96,323377
1.8280,0.2933,39.9300,61,96,323380
1.8377,0.2884,40.0000,61,96,323383
1.8524,0.2981,39.9300,61,96,323387
1.8426,0.2884,40.0000,61,96,323390
1.8915,0.3079,39.7700,61,96,323393
1.8524,0.3030,39.8900,61,96,323397
1.8328,0.2884,40.0000,61,96,323400
1.8280,0.3177,40.0300,61,96,323403
1.8377,0.2933,40.0000,61,96,323407
1.8719,0.2981,39.8300,61,96,323410
1.8328,0.2933,39.9300,61,96,323414
1.8231,0.2933,39.8900,61,96,323418
1.7986,0.3275,40.0300,61,96,323421
1.7889,0.2933,40.0000,61,96,323424
1.8084,0.2981,39.9600,61,96,323427
1.7889,0.3128,39.9600,61,96,323431
1.8084,0.2933,39.8300,61,96,323434
1.7840,0.2884,39.4800,61,96,323437
1.8035,0.2884,40.0300,61,96,323441
1.7937,0.2933,39.9600,61,96,323444
1.7791,0.2884,40.0300,61,96,323447
1.7986,0.2981,39.8600,61,96,323451
1.7693,0.2884,40.0300,61,96,323454
1.7742,0.2835,40.0000,61,96,323458
1.7937,0.2981,39.8900,61,96,323462
1.7742,0.2933,39.9600,61,96,323465
1.8231,0.2688,39.8000,61,96,323468
1.7937,0.2933,39.8900,61,96,323471
1.7937,0.2933,40.0000,61,96,323475
1.8133,0.2981,39.9600,61,96,323478
1.7889,0.2933,39.9600,61,96,323481
1.8328,0.3030,39.7300,61,96,323485
1.7889,0.2933,39.9300,61,96,323488
1.7986,0.2884,39.9600,61,96,323491
1.8084,0.3079,40.0000,61,96,323495
1.8035,0.2835,40.1000,61,96,323499
1.8573,0.3079,39.7700,61,96,323502
1.8280,0.2981,39.9300,61,96,323506
1.8231,0.2981,39.9300,61,96,323509
1.8182,0.2933,40.0600,61,96,323512
1.8475,0.2981,39.9600,61,96,323515
1.8426,0.3030,39.8900,61,96,323519
1.8084,0.2933,39.2200,61,96,323522
1.8182,0.3030,39.8900,61,96,323525
1.7937,0.2933,40.0300,61,96,323529
1.7986,0.2884,40.0000,61,96,323532
1.8524,0.2981,39.8900,61,96,323535
1.7889,0.2933,40.0000,61,96,323539
1.8084,0.3226,39.8900,61,96,323543
1.7791,0.2933,39.9300,61,96,323546
1.7840,0.2884,40.0000,61,96,323550
1.7840,0.2884,39.8900,61,96,323553
1.7693,0.2884,40.0000,61,96,323556
1.7937,0.2933,39.8300,61,96,323559
1.7742,0.2884,39.9600,61,96,323563
1.7840,0.2933,39.9600,61,96,323566
1.8084,0.3030,39.9300,61,96,323569
1.8035,0.2884,40.0000,61,96,323573
1.8573,0.2981,39.0900,61,96,323576
1.8377,0.2884,40.0000,61,96,323579
1.8475,0.2884,40.0000,61,96,323584
1.8622,0.2981,39.9300,61,96,323587
1.8377,0.2933,39.8300,61,96,323590
1.8622,0.3030,39.7000,61,96,323594
1.7937,0.2933,39.9300,61,96,323597
1.7693,0.2884,39.9600,61,96,323600
1.7889,0.2933,40.0000,61,96,323603
1.7595,0.2884,40.0000,61,96,323607
1.8133,0.3079,39.7000,61,96,323610
1.7986,0.2981,39.9600,61,96,323613
1.8035,0.2884,39.9300,61,96,323617
1.8084,0.2981,40.0300,61,96,323620
1.8377,0.2884,40.1000,61,96,323623
1.8475,0.2981,39.8900,61,96,323628
1.8231,0.3079,40.0000,61,96,323631
1.8426,0.2933,39.8600,61,96,323634
1.8133,0.2933,40.0300,61,96,323637
1.8231,0.2884,40.0300,61,96,323641
1.8475,0.2884,39.5100,61,96,323644
1.8475,0.2981,40.0300,61,96,323647
1.8866,0.2933,39.8600,61,96,323651
1.8671,0.2933,40.0000,61,96,323654
1.8915,0.2884,40.0000,61,96,323657
1.9453,0.2981,39.9600,61,96,323661
1.9404,0.2933,40.0000,61,96,323664
1.9990,0.2933,39.8000,61,96,323667
1.9892,0.2933,39.8900,61,96,323672
1.9941,0.2933,40.0000,61,96,323675
2.0137,0.3030,39.9300,61,96,323678
1.9941,0.2933,40.0000,61,96,323682
2.0430,0.2981,39.7700,61,96,323685
1.9844,0.2981,39.8900,61,96,323688
1.9697,0.2884,40.0300,61,96,323691
1.9501,0.2933,40.0300,61,96,323695
1.9110,0.2933,40.0300,61,96,323698
1.9257,0.3079,39.7300,61,96,323701
1.8475,0.2981,39.8600,61,96,323705
1.7986,0.2981,39.9300,61,96,323708
1.7644,0.2933,40.0000,61,96,323712
1.7058,0.2884,40.1000,61,96,323716
1.7058,0.2884,40.0000,61,96,323719
1.7302,0.3030,39.8600,61,96,323723
1.7155,0.2933,40.0300,61,96,323726
1.7400,0.2933,39.8600,61,96,323729
1.7204,0.2884,39.9300,61,96,323733
1.7302,0.2884,40.0000,61,96,323736
1.7449,0.2933,39.8900,61,96,323739
1.7351,0.2884,39.9600,61,96,323742
1.7644,0.2933,39.7700,61,96,323746
1.7644,0.2933,39.9600,61,96,323749
1.8328,0.2933,40.0300,61,96,323752
1.9746,0.2981,39.9600,61,96,323757
2.1017,0.3128,40.0000,61,96,323760
2.3363,0.3030,39.7300,61,96,323763
2.4780,0.2884,39.8900,61,96,323767
2.6393,0.2835,40.0300,61,96,323770
2.7615,0.2933,39.9600,61,96,323773
2.7859,0.2884,40.1300,61,96,323777
2.7615,0.3177,39.7700,61,96,323780
2.4829,0.2981,39.9600,61,96,323783
2.1848,0.2884,39.8900,61,96,323786
1.8915,0.2933,40.1000,61,96,323790
1.6520,0.2884,40.0300,61,96,323793
1.5640,0.2981,39.8300,61,96,323796
1.4321,0.2933,40.0000,61,96,323801
1.4174,0.2981,39.8600,61,96,323804
1.4223,0.2933,40.0000,61,96,323807
1.4516,0.3226,40.0300,61,96,323811
1.5054,0.2981,39.9300,61,96,323814
1.5396,0.2933,39.9600,61,96,323817
1.6227,0.2981,39.8600,61,96,323821
1.6373,0.2884,40.1300,61,96,323824
1.6569,0.2933,40.0000,61,96,323827
1.6667,0.2933,39.9600,61,96,323830
1.6520,0.3030,40.0000,61,96,323834
1.6764,0.2933,39.8000,61,96,323837
1.6716,0.2884,39.9600,61,96,323841
1.6862,0.2933,39.9600,61,96,323845
1.7107,0.2981,39.9600,61,96,323848
1.6960,0.2933,40.0000,61,96,323851
1.7302,0.2981,39.7700,61,96,323855
1.7058,0.2981,40.2600,61,96,323858
1.6960,0.3128,39.9600,61,96,323861
1.7107,0.2981,39.9600,61,96,323865
1.7058,0.2884,40.1600,61,96,323868
1.7644,0.3030,39.7000,61,96,323871
1.7253,0.2933,40.0000,61,96,323874
1.7253,0.2933,39.9600,61,96,323878
1.7302,0.2933,39.9600,61,96,323881
1.7351,0.2884,39.9300,61,96,323885
1.8231,0.3079,39.8300,61,96,323889
1.7644,0.2981,39.8900,61,96,323892
1.7644,0.2933,39.8900,61,96,323895
1.7644,0.2933,40.0000,61,96,323899
1.7889,0.2933,40.0000,61,96,323902
1.8328,0.2981,39.8900,61,96,323905
1.8182,0.2933,40.2600,61,96,323909
1.8377,0.2933,39.8900,61,96,323912
1.8084,0.2981,40.0300,61,96,323915
1.8133,0.2933,39.9600,61,96,323919
1.8524,0.3030,39.8600,61,96,323922
1.8426,0.3079,39.9600,61,96,323926
1.8866,0.2933,39.9300,61,96,323929
1.8817,0.2884,39.9300,61,96,323933
1.8866,0.2933,39.9600,61,96,323936
1.9110,0.2981,39.8600,61,96,323939
1.8719,0.2933,40.0000,61,96,323943
1.8817,0.2981,39.8300,61,96,323946
1.8231,0.2933,39.9600,61,96,323949
1.8182,0.2884,39.9600,61,96,323953
1.8426,0.2981,40.0000,61,96,323956
1.8475,0.2933,40.0000,61,96,323959
1.9159,0.2981,39.7700,61,96,323963
1.8915,0.3226,39.9300,61,96,323966
1.9062,0.2884,40.0000,61,96,323970
1.9208,0.2933,40.0000,61,96,323973
1.9355,0.2933,40.0000,61,96,323977
2.0137,0.3079,39.0300,61,96,323980
1.9892,0.2981,39.9600,61,96,323983
2.0088,0.2884,39.8900,61,96,323987
1.9892,0.2933,39.7700,61,96,323990
1.9941,0.2981,40.0000,61,96,323993
2.0479,0.2981,39.8300,61,96,323997
2.0381,0.2981,39.9300,61,96,324000
2.0968,0.2933,39.8900,61,96,324003
2.0674,0.2884,40.0300,61,96,324006
2.0772,0.2884,40.0000,61,96,324011
2.1017,0.3030,39.9300,61,96,324014
2.0870,0.2688,39.9300,61,96,324017
2.1261,0.2981,39.8000,61,96,324021
2.1114,0.2933,39.9600,61,96,324024
2.1359,0.2933,40.0000,61,96,324027
2.1701,0.2933,39.8000,61,96,324031
2.1750,0.2835,39.9600,61,96,324034
2.2239,0.2884,39.9300,61,96,324037
2.1799,0.2884,40.0300,61,96,324041
2.1799,0.2933,40.0000,61,96,324044
2.2141,0.2981,39.8900,61,96,324047
2.1896,0.2933,39.9600,61,96,324050
2.2287,0.2981,39.8000,61,96,324055
2.1848,0.2981,39.9600,61,96,324058
2.1505,0.2981,40.0000,61,96,324061
2.1505,0.2688,39.9300,61,96,324065
2.1017,0.2884,40.0000,61,96,324068
2.1163,0.2981,39.7000,61,96,324071
2.0186,0.2884,39.9600,61,96,324075
1.9648,0.2884,40.0300,61,96,324078
1.9110,0.2933,40.0300,61,96,324081
1.8377,0.2981,40.0000,61,96,324084
1.8377,0.3030,39.7300,61,96,324088
1.7546,0.3079,39.8600,61,96,324091
1.7155,0.2933,39.9600,61,96,324094
1.7009,0.2933,40.0600,61,96,324099
1.6862,0.2933,40.0000,61,96,324102
1.7155,0.3030,39.8600,61,96,324105
1.6716,0.2981,39.9300,61,96,324109
1.6422,0.2933,39.8600,61,96,324112
1.5982,0.2933,40.0300,61,96,324115
1.5836,0.2884,40.0000,61,96,324119
1.5934,0.2981,39.8300,61,96,324122
1.5689,0.2981,39.9600,61,96,324125
1.5934,0.2981,39.8900,61,96,324128
1.5689,0.2884,39.9300,61,96,324132
1.5885,0.2933,40.0000,61,96,324135
1.5885,0.2933,40.0000,61,96,324139
1.5885,0.2884,40.0300,61,96,324143
1.6520,0.2933,39.8600,61,96,324146
1.6080,0.2933,40.0000,61,96,324149
1.6227,0.2884,40.2300,61,96,324153
1.6373,0.2884,39.8900,61,96,324156
1.6276,0.2884,40.0000,61,96,324159
1.6618,0.2981,39.7300,61,96,324162
1.6373,0.2688,39.9600,61,96,324166
1.6471,0.2884,39.5400,61,96,324169
1.6716,0.3079,39.8900,61,96,324172
1.6667,0.2884,40.2300,61,96,324176
1.7204,0.3226,39.7300,61,96,324179
1.7058,0.2981,39.8900,61,96,324183
1.7009,0.2835,40.0000,61,96,324187
1.7058,0.2688,40.0000,61,96,324190
1.7058,0.2884,40.0000,61,96,324193
1.7644,0.3128,39.8300,61,96,324197
1.7546,0.2688,39.9300,61,96,324200
1.7644,0.2884,39.9300,61,96,324203
1.7889,0.3177,40.1000,61,96,324206
1.8035,0.2884,40.0300,61,96,324210
1.8182,0.3030,39.8600,61,96,324213
1.7644,0.2933,39.9600,61,96,324216
1.7449,0.2933,39.8600,61,96,324220
1.7107,0.2933,39.8900,61,96,324224
1.7058,0.2933,40.0000,61,96,324227
1.7351,0.2981,40.0000,61,96,324231
1.7302,0.2981,39.9600,61,96,324234
1.7595,0.2981,39.8900,61,96,324237
1.7351,0.3030,40.0000,61,96,324241
1.7840,0.2884,40.0000,61,96,324244
1.7644,0.2981,39.8600,61,96,324247
1.7400,0.2884,39.9600,61,96,324250
1.7595,0.2981,39.8300,61,96,324254
1.7400,0.2884,39.9300,61,96,324257
1.7449,0.2884,40.0000,61,96,324260
1.7791,0.2981,39.9300,61,96,324264
1.7693,0.2884,39.2500,61,96,324268
1.7986,0.2933,39.8000,61,96,324271
1.7595,0.2933,40.0000,61,96,324275
1.7644,0.2884,39.8900,61,96,324278
1.7889,0.2884,39.9300,61,96,324281
1.7742,0.2884,40.0300,61,96,324284
1.8231,0.2981,39.7000,61,96,324288
1.7742,0.2884,39.9300,61,96,324291
1.7742,0.2884,40.0000,61,96,324294
1.8084,0.2933,39.9600,61,96,324298
1.7791,0.2884,39.9300,61,96,324301
1.8328,0.3079,39.8900,61,96,324304
1.7937,0.2884,39.9600,61,96,324308
1.7937,0.2884,39.9300,61,96,324312
1.7889,0.2933,40.0000,61,96,324315
1.7889,0.2884,39.9300,61,96,324319
1.8231,0.3079,39.8300,61,96,324322
1.8328,0.2933,39.8900,61,96,324327
1.8133,0.2933,40.2000,61,96,324330
1.8231,0.2981,39.8300,61,96,324333
1.7791,0.2884,39.9300,61,96,324337
1.7791,0.2884,40.0000,61,96,324340
1.7889,0.2981,39.8900,61,96,324343
1.7742,0.2884,40.0300,61,96,324346
1.8231,0.3030,39.7700,61,96,324350
1.7840,0.2884,39.9300,61,96,324354
1.7840,0.2884,40.0000,61,96,324357
1.7791,0.2981,39.9600,61,96,324361
1.7644,0.2933,40.0000,61,96,324364
1.8328,0.3079,39.7300,61,96,324367
1.7791,0.2933,39.9600,61,96,324371
1.7644,0.2884,39.9300,61,96,324374
1.7742,0.2933,39.9600,61,96,324377
1.7742,0.2884,39.9600,61,96,324381
1.8182,0.3030,39.8000,61,96,324384
1.8035,0.2981,39.5700,61,96,324387
1.8084,0.2933,39.8900,61,96,324390
1.8133,0.2884,40.0000,61,96,324395
1.7937,0.2884,40.0000,61,96,324398
1.8084,0.2981,39.8600,61,96,324401
1.7840,0.2933,39.9600,61,96,324405
1.7986,0.2933,39.8600,61,96,324408
1.7791,0.2981,40.0000,61,96,324411
1.7889,0.2884,40.0000,61,96,324415
1.8084,0.3030,39.9300,61,96,324418
1.7986,0.2933,40.0000,61,96,324421
1.8231,0.2933,39.8900,61,96,324424
1.7937,0.2933,40.0000,61,96,324428
1.8084,0.2933,40.0000,61,96,324431
1.8231,0.2981,39.9600,61,96,324434
1.8084,0.2933,39.9600,61,96,324439
1.8328,0.2933,39.8000,61,96,324442
1.8182,0.2884,39.8900,61,96,324445
1.8280,0.2688,40.0000,61,96,324449
1.8426,0.2981,39.8900,61,96,324452
1.8671,0.2884,40.0300,61,96,324455
1.8915,0.3030,39.7700,61,96,324459
1.8377,0.2884,39.9300,61,96,324462
1.8524,0.2884,39.9300,61,96,324465
1.8622,0.2933,39.9600,61,96,324469
1.8524,0.2884,39.9600,61,96,324472
1.8964,0.3079,39.8300,61,96,324475
1.8328,0.3030,39.9600,61,96,324478
1.8084,0.2884,40.0300,61,96,324483
1.7937,0.3421,39.9600,61,96,324486
1.7986,0.2884,40.0000,61,96,324489
1.8475,0.3030,39.8300,61,96,324493
1.8182,0.3030,39.9600,61,96,324496
1.8133,0.2981,39.9300,61,96,324499
1.7791,0.2933,40.0000,61,96,324503
1.7742,0.2884,40.0000,61,96,324506
1.8231,0.2981,39.8300,61,96,324509
1.8377,0.2933,40.0000,61,96,324513
1.8377,0.2688,39.8600,61,96,324516
1.8035,0.2933,40.0300,61,96,324519
1.7937,0.2835,40.1000,61,96,324523
1.7986,0.2933,39.9600,61,96,324527
1.7889,0.2933,39.9600,61,96,324530
1.8426,0.2884,39.8000,61,96,324533
1.7889,0.2884,39.9300,61,96,324537
1.7937,0.2933,40.0000,61,96,324540
1.8084,0.2933,39.8600,61,96,324543
1.7937,0.2884,40.0000,61,96,324547
1.8280,0.2981,39.8300,61,96,324550
1.7986,0.2835,40.0300,61,96,324553
1.8133,0.2884,40.0000,61,96,324556
1.8622,0.2884,39.9600,61,96,324560
1.8231,0.2884,40.1000,61,96,324563
1.8817,0.2981,39.7300,61,96,324567
1.8622,0.2981,39.9600,61,96,324571
1.8622,0.2884,39.9600,61,96,324574
1.8817,0.2933,39.9600,61,96,324577
1.9013,0.2884,40.0000,61,96,324581
1.9990,0.2981,39.8000,61,96,324584
1.9648,0.2981,40.0000,61,96,324587
1.9795,0.2884,39.8900,61,96,324591
1.9795,0.2688,40.0000,61,96,324594
1.9892,0.2884,40.0000,61,96,324597
2.0430,0.2981,39.8600,61,96,324600
2.0381,0.2933,39.9300,61,96,324604
2.0674,0.2933,39.8600,61,96,324608
2.0479,0.2884,40.0000,61,96,324611
2.0381,0.2884,40.0300,61,96,324615
2.0137,0.2981,39.9600,61,96,324618
1.9599,0.2933,40.0300,61,96,324621
1.9453,0.2933,39.8900,61,96,324625
1.8622,0.2884,39.9600,61,96,324628
1.8377,0.2933,40.0300,61,96,324631
1.7791,0.2981,39.8600,61,96,324635
1.7302,0.2933,40.0000,61,96,324638
1.7351,0.2933,39.8300,61,96,324641
1.7107,0.2835,39.8900,61,96,324644
1.6960,0.2884,40.0000,61,96,324648
1.7204,0.3079,39.8900,61,96,324652
1.7155,0.3128,40.0300,61,96,324655
1.7595,0.2981,39.7300,61,96,324659
1.7253,0.2884,39.8900,61,96,324662
1.7253,0.2933,40.0000,61,96,324665
1.7204,0.2933,40.1000,61,96,324669
1.6960,0.3030,40.0000,61,96,324672
1.7302,0.3030,39.7000,61,96,324675
1.7009,0.2933,39.8900,61,96,324679
1.7253,0.2884,40.0000,61,96,324682
1.7937,0.2933,40.0000,61,96,324685
1.9062,0.2884,40.0000,61,96,324688
2.0968,0.3568,39.8300,61,96,324692
2.1994,0.2884,39.9600,61,96,324696
2.3705,0.2884,39.8900,61,96,324699
2.5220,0.2884,39.9600,61,96,324703
2.6344,0.2884,39.9600,61,96,324706
2.7370,0.2981,40.0300,61,96,324709
2.6246,0.2933,39.9600,61,96,324713
2.4536,0.2933,39.8900,61,96,324716
2.1848,0.2981,40.0300,61,96,324719
1.9453,0.2933,40.0000,61,96,324722
1.7742,0.2981,39.9300,61,96,324726
1.6471,0.2981,39.9600,61,96,324729
1.5689,0.2933,39.8300,61,96,324732
1.5103,0.2933,40.0000,61,96,324737
1.5152,0.2884,40.0000,61,96,324740
1.5543,0.3030,39.8600,61,96,324743
1.5738,0.2884,40.0300,61,96,324747
1.6471,0.2933,39.8000,61,96,324750
1.6618,0.2884,40.0300,61,96,324753
1.7058,0.2884,40.0000,61,96,324757
1.7449,0.2981,39.9600,61,96,324760
1.7498,0.2981,39.9600,61,96,324763
1.7546,0.2981,39.7700,61,96,324766
1.6960,0.2981,39.8900,61,96,324770
1.6520,0.2933,40.0000,61,96,324773
1.6422,0.2933,40.0300,61,96,324776
1.6618,0.2933,40.0300,61,96,324781
1.6911,0.3079,39.8600,61,96,324784
1.6716,0.2981,39.8900,61,96,324787
1.6764,0.2884,39.9600,61,96,324791
1.6813,0.2884,40.0300,61,96,324794
1.6911,0.2933,40.0000,61,96,324797
1.7204,0.3030,39.9600,61,96,324801
1.6960,0.2981,39.9600,61,96,324804
1.7204,0.2933,39.8900,61,96,324807
1.7058,0.2933,40.0000,61,96,324810
1.7253,0.2933,39.9600,61,96,324814
1.7546,0.2981,39.9600,61,96,324817
1.7498,0.2933,39.8900,61,96,324820
1.7791,0.2884,39.8600,61,96,324825
1.7595,0.2933,40.0300,61,96,324828
1.7693,0.2884,40.0300,61,96,324831
1.8377,0.3030,39.8900,61,96,324835
1.7742,0.2933,39.9600,61,96,324838
1.8035,0.3128,39.8300,61,96,324841
1.7889,0.2884,39.9300,61,96,324845
1.7986,0.2884,40.0300,61,96,324848
1.8231,0.2933,39.8900,61,96,324851
1.8182,0.2884,39.9600,61,96,324854
1.8573,0.3030,39.7700,61,96,324858
1.8280,0.2933,39.1200,61,96,324861
1.8377,0.2835,40.0000,61,96,324865
1.8622,0.2688,39.9300,61,96,324869
1.8524,0.2884,40.1600,61,96,324872
1.9159,0.3030,39.7300,61,96,324875
1.9013,0.2884,39.9300,61,96,324879
1.9306,0.2981,39.9300,61,96,324882
1.9648,0.2884,39.9600,61,96,324885
1.9746,0.2884,39.9600,61,96,324889
2.0283,0.3079,39.8000,61,96,324892
1.9697,0.2688,40.0000,61,96,324895
1.9453,0.2884,39.9600,61,96,324898
1.9159,0.2981,39.9600,61,96,324902
1.8964,0.2884,40.0000,61,96,324905
1.9306,0.2981,39.8300,61,96,324909
1.9062,0.2933,39.9300,61,96,324913
1.9355,0.2933,39.8600,61,96,324916
1.9257,0.2884,40.0300,61,96,324919
1.9501,0.2884,40.0300,61,96,324923
1.9746,0.2981,40.0000,61,96,324926
1.9795,0.2933,39.9600,61,96,324929
2.0528,0.2884,39.8600,61,96,324932
2.0235,0.2884,40.0000,61,96,324936
2.1212,0.2933,40.0000,61,96,324940
2.1359,0.2933,40.0300,61,96,324944
2.1701,0.2981,39.9300,61,96,324947
2.1652,0.2981,39.9600,61,96,324951
2.2287,0.2884,39.7700,61,96,324955
2.2043,0.2981,40.0000,61,96,324958
2.1896,0.2884,40.0300,61,96,324961
2.2043,0.2933,39.9600,61,96,324965
2.1848,0.2884,40.0600,61,96,324968
2.2385,0.3372,39.7700,61,96,324971
2.1896,0.2933,39.8600,61,96,324974
2.1701,0.3079,39.9300,61,96,324978
2.1505,0.2981,39.9600,61,96,324981
2.1212,0.2884,40.0000,61,96,324984
2.1408,0.3079,39.8000,61,96,324988
2.0772,0.3079,39.9300,61,96,324992
2.0479,0.2884,39.8600,61,96,324995
1.9941,0.2933,39.9600,61,96,324999
1.9501,0.2884,40.0300,61,96,325002
1.9453,0.2981,39.2500,61,96,325005
1.8817,0.3030,39.9600,61,96,325009
1.8719,0.2884,39.8300,61,96,325012
1.8182,0.3030,40.0000,61,96,325015
1.8280,0.2933,40.0000,61,96,325018
1.7937,0.3030,39.9600,61,96,325022
1.7155,0.2981,40.0000,61,96,325025
1.6862,0.2688,39.8300,61,96,325028
1.6080,0.2884,39.9600,61,96,325032
1.5689,0.2884,40.0300,61,96,325036
1.5396,0.2933,39.8900,61,96,325039
1.5200,0.2884,40.0000,61,96,325043
1.5347,0.2933,39.8300,61,96,325046
1.5152,0.2884,39.9600,61,96,325049
1.5249,0.2981,40.0000,61,96,325053
1.5591,0.2981,39.8900,61,96,325056
1.5494,0.2933,40.0300,61,96,325059
1.6080,0.2981,39.7000,61,96,325062
1.5738,0.2884,39.9300,61,96,325066
1.5934,0.2933,40.0000,61,96,325069
1.6129,0.2933,39.9300,61,96,325072
1.6178,0.2884,40.0000,61,96,325076
1.6862,0.3030,39.8000,61,96,325080
1.6520,0.3030,39.8600,61,96,325083
1.6422,0.2884,39.9300,61,96,325087
1.6373,0.3030,40.0000,61,96,325090
1.6422,0.2933,40.0000,61,96,325093
1.6813,0.2981,39.9600,61,96,325097
1.6618,0.2933,39.9300,61,96,325100
1.6813,0.2933,39.8900,61,96,325103
1.6716,0.2933,40.0300,61,96,325106
1.6813,0.2884,40.0000,61,96,325110
1.7107,0.2981,39.9300,61,96,325113
1.7058,0.2933,39.9600,61,96,325116
1.7253,0.2981,39.8900,61,96,325121
1.7107,0.2884,40.0000,61,96,325124
1.7204,0.2933,39.9600,61,96,325127
1.7351,0.2933,39.8900,61,96,325131
1.7400,0.2884,39.9600,61,96,325134
1.8182,0.2933,39.8300,61,96,325137
1.7889,0.2981,40.0000,61,96,325141
1.8377,0.2933,40.0600,61,96,325144
1.8328,0.2981,39.9300,61,96,325147
1.8084,0.3226,40.0300,61,96,325150
1.8671,0.2884,39.7700,61,96,325154
1.7937,0.2933,39.9300,61,96,325157
1.7693,0.2933,40.0000,61,96,325160
1.7889,0.2981,39.9300,61,96,325165
1.7693,0.2884,40.0000,61,96,325168
1.8035,0.3030,39.7300,61,96,325171
1.7498,0.2933,39.8900,61,96,325175
1.7253,0.2884,39.9300,61,96,325178
1.7400,0.2933,39.9600,61,96,325181
1.7742,0.2981,40.0300,61,96,325185
1.7937,0.3079,39.8600,61,96,325188
1.7644,0.2981,39.9300,61,96,325191
1.7937,0.2981,39.9300,61,96,325194
1.7546,0.2933,40.0300,61,96,325198
1.7644,0.2933,40.0000,61,96,325201
1.7889,0.2981,39.9300,61,96,325204
1.7644,0.3275,40.0000,61,96,325209
1.7791,0.2933,39.8300,61,96,325212
1.7595,0.2933,39.9600,61,96,325215
1.7595,0.2933,40.0000,61,96,325219
1.7889,0.2981,39.8300,61,96,325222
1.7595,0.2981,40.0000,61,96,325225
1.7791,0.2933,39.8600,61,96,325229
1.7595,0.3079,39.8900,61,96,325232
1.7693,0.2884,39.9600,61,96,325235
1.7937,0.3030,39.8900,61,96,325239
1.8133,0.2884,40.0000,61,96,325242
1.8231,0.2981,39.8000,61,96,325245
1.7937,0.2933,39.9300,61,96,325249
1.8035,0.2884,40.0000,61,96,325253
1.8133,0.2981,39.9600,61,96,325256
1.7937,0.2884,40.0000,61,96,325259
1.8377,0.3030,39.7300,61,96,325263
1.8035,0.2884,39.8900,61,96,325266
1.8035,0.2835,40.0000,61,96,325269
1.8084,0.2933,39.9300,61,96,325273
1.8035,0.3030,40.0000,61,96,325276
1.8524,0.3128,39.7300,61,96,325279
1.8133,0.2981,39.8900,61,96,325282
1.8133,0.2884,39.9300,61,96,325286
1.8231,0.2933,40.0300,61,96,325289
1.8231,0.2835,39.9600,61,96,325293
1.8622,0.2981,39.8000,61,96,325297
1.8622,0.3030,39.9600,61,96,325300
1.8964,0.2933,39.8900,61,96,325303
1.8915,0.2933,39.9300,61,96,325307
1.8768,0.2933,39.9600,61,96,325310
1.8671,0.2981,39.8900,61,96,325313
1.7986,0.2933,40.0000,61,96,325317
1.7840,0.2981,39.8900,61,96,325320
1.7351,0.3177,40.0000,61,96,325323
1.7302,0.2884,40.0300,61,96,325327
1.7400,0.3275,39.8900,61,96,325330
1.7498,0.2884,39.9600,61,96,325334
1.7693,0.2933,39.8900,61,96,325337
1.7498,0.2884,39.9300,61,96,325341
1.7595,0.2884,40.2000,61,96,325344
1.7840,0.2981,39.8900,61,96,325347
1.7742,0.2884,40.0000,61,96,325351
1.8377,0.3030,39.7700,61,96,325354
1.8133,0.2981,39.9600,61,96,325357
1.8084,0.2884,39.9300,61,96,325361
1.8231,0.2981,39.9600,61,96,325364
1.8182,0.2884,40.0300,61,96,325367
1.8915,0.3079,39.7300,61,96,325371
1.8426,0.2981,39.8900,61,96,325374
1.8328,0.2933,39.9300,61,96,325378
1.8328,0.2933,39.7300,61,96,325382
1.8231,0.3226,39.9600,61,96,325385
1.8622,0.3030,39.8600,61,96,325388
1.8280,0.2981,39.9300,61,96,325391
1.8328,0.2933,39.8900,61,96,325395
1.8133,0.2933,39.9600,61,96,325398
1.8182,0.2688,39.9600,61,96,325401
1.8377,0.2981,39.8600,61,96,325405
1.8231,0.2933,39.9600,61,96,325408
1.8475,0.2981,39.8900,61,96,325411
1.8182,0.2981,40.0000,61,96,325415
1.8328,0.2884,40.0300,61,96,325419
1.8573,0.2981,39.9300,61,96,325422
1.8377,0.2933,39.9600,61,96,325426
1.8768,0.2933,40.2000,61,96,325429
1.8719,0.2981,39.8900,61,96,325432
1.9013,0.2884,40.0000,61,96,325435
1.9501,0.3030,39.8900,61,96,325439
1.9404,0.2933,39.9600,61,96,325442
1.9550,0.2981,39.8300,61,96,325445
1.8671,0.2933,39.9300,61,96,325449
1.7986,0.2884,40.0000,61,96,325452
1.7693,0.2981,40.2000,61,96,325455
1.7351,0.3275,40.1000,61,96,325459
1.7791,0.3030,39.7000,61,96,325463
1.7498,0.3226,39.8900,61,96,325466
1.7693,0.2884,39.9600,61,96,325470
1.7840,0.2933,39.9600,61,96,325473
1.8035,0.2933,39.9600,61,96,325476
1.8719,0.3079,39.8300,61,96,325479
1.8524,0.2981,40.0000,61,96,325483
1.8622,0.2933,39.8900,61,96,325486
1.8671,0.2933,39.9600,61,96,325489
1.9013,0.2933,40.0000,61,96,325493
1.9355,0.2981,39.8600,61,96,325496
1.9306,0.3030,39.9300,61,96,325499
1.9648,0.2981,39.8600,61,96,325504
1.9550,0.2933,40.0000,61,96,325507
1.9697,0.2884,39.9600,61,96,325510
2.0137,0.2688,39.8900,61,96,325514
1.9990,0.2933,39.8900,61,96,325517
2.0332,0.3177,39.8900,61,96,325520
1.9892,0.2933,40.0000,61,96,325523
1.9697,0.2884,40.0000,61,96,325527
1.9550,0.2933,39.8900,61,96,325530
1.9159,0.2688,39.9600,61,96,325533
1.9110,0.2933,39.8300,61,96,325537
1.8622,0.2884,39.9600,61,96,325540
1.8328,0.2884,40.0600,61,96,325543
1.8377,0.3226,39.9300,62,96,325548
1.7595,0.2933,39.9600,62,96,325552
1.7204,0.2884,40.0000,62,96,325556
1.7546,0.3079,39.8000,62,96,325559
1.7253,0.2981,39.9300,62,96,325562
1.7204,0.2884,40.1000,62,96,325566
1.7155,0.2981,40.0000,62,96,325569
1.7107,0.2884,40.0000,62,96,325572
1.7302,0.2981,39.8300,62,96,325575
1.7204,0.2981,39.9300,62,96,325579
1.7546,0.2933,39.8900,62,96,325582
1.7937,0.2835,40.0000,62,96,325585
1.8964,0.2884,40.0000,62,96,325590
2.0332,0.2933,39.8300,62,96,325593
2.1945,0.2884,39.9600,62,96,325596
2.3803,0.2981,39.9600,62,96,325600
2.5122,0.2933,39.9600,62,96,325603
2.6442,0.2884,40.0000,62,96,325606
2.7028,0.3030,39.9300,62,96,325610
2.5806,0.2933,39.9600,62,96,325613
2.4047,0.2933,39.8300,62,96,325616
2.1359,0.2933,39.8900,62,96,325619
1.8964,0.2933,39.9600,62,96,325623
1.7498,0.3030,39.8900,62,96,325626
1.6227,0.2933,39.9600,62,96,325629
1.5787,0.2981,39.7700,62,96,325634
1.5249,0.2884,39.8900,62,96,325637
1.5200,0.2884,40.0000,62,96,325640
1.5543,0.2933,39.8900,62,96,325644
1.5738,0.2933,40.0000,62,96,325647
1.6422,0.3079,39.7300,62,96,325650
1.6373,0.2981,39.8900,62,96,325654
1.6520,0.2688,39.9300,62,96,325657
1.6667,0.2933,40.0300,62,96,325660
1.6813,0.2688,40.0000,62,96,325663
1.7351,0.3079,39.8900,62,96,325667
1.7204,0.3275,40.0300,62,96,325670
1.7400,0.2981,39.8900,62,96,325673
1.7449,0.2933,40.0300,62,96,325678
1.7546,0.3128,39.9600,62,96,325681
1.7889,0.3030,39.8300,62,96,325684
1.7693,0.2981,40.0300,62,96,325688
1.8084,0.2933,39.8600,62,96,325691
1.7644,0.2933,40.0000,62,96,325694
1.7644,0.2884,40.0000,62,96,325697
1.7644,0.2884,39.9300,62,96,325701
1.7204,0.2933,39.9600,62,96,325704
1.7253,0.2933,39.8600,62,96,325707
1.6960,0.2884,39.9600,62,96,325711
1.7302,0.2884,40.0300,62,96,325714
1.7791,0.2884,39.8600,62,96,325718
1.7742,0.2933,40.0300,62,96,325722
1.7986,0.2933,39.7700,62,96,325725
1.7546,0.2884,39.9300,62,96,325728
1.7644,0.2933,40.0000,62,96,325732
1.7546,0.2981,39.9600,62,96,325735
1.7449,0.2981,40.0000,62,96,325738
1.7840,0.3030,39.7700,62,96,325742
1.7693,0.2933,39.9600,62,96,325745
1.7693,0.2933,40.0300,62,96,325748
1.7889,0.2933,39.9300,62,96,325751
1.7889,0.2933,40.0000,62,96,325755
1.8524,0.3079,39.8300,62,96,325758
1.8280,0.3030,39.9300,62,96,325762
1.8671,0.2933,39.9300,62,96,325766
1.8377,0.2933,40.0000,62,96,325769
1.8426,0.2933,40.0300,62,96,325772
1.8817,0.2981,39.8900,62,96,325776
1.8719,0.2981,39.9600,62,96,325779
1.8915,0.2933,39.8600,62,96,325782
1.8817,0.2884,40.1000,62,96,325786
1.8964,0.2884,40.0000,62,96,325789
1.9159,0.3128,39.8900,62,96,325792
1.9159,0.2884,40.0300,62,96,325796
1.9550,0.2933,39.8900,62,96,325799
1.9355,0.2884,40.0000,62,96,325803
1.9550,0.2884,40.0300,62,96,325806
1.9941,0.2981,39.8900,62,96,325810
1.9795,0.2933,39.9600,62,96,325813
2.0283,0.2933,39.8300,62,96,325816
2.0283,0.2933,39.8600,62,96,325820
2.0088,0.2884,40.0300,62,96,325823
2.0528,0.2933,39.8900,62,96,325826
2.0626,0.2933,40.0300,62,96,325830
2.1505,0.2981,40.0000,62,96,325833
2.1554,0.2884,39.9300,62,96,325836
2.1554,0.2933,40.0300,62,96,325840
2.1505,0.2981,39.9600,62,96,325843
2.1114,0.2933,40.0000,62,96,325847
2.1554,0.3079,39.7300,62,96,325850
2.0919,0.2933,39.9300,62,96,325854
2.0772,0.2933,39.9300,62,96,325857
2.0821,0.2933,39.9600,62,96,325860
2.0919,0.2933,39.9600,62,96,325864
2.1603,0.3079,39.8600,62,96,325867
2.1408,0.2981,39.9300,62,96,325870
2.1603,0.3030,39.9300,62,96,325874
2.1554,0.2933,39.3500,62,96,325877
2.1603,0.2835,39.9600,62,96,325880
2.2092,0.2981,39.8300,62,96,325883
2.1750,0.2933,40.0000,62,96,325888
2.1848,0.2933,39.8600,62,96,325891
2.1408,0.2933,40.0600,62,96,325894
2.1163,0.2884,40.1300,62,96,325898
2.1163,0.2884,39.8900,62,96,325901
2.0528,0.2884,39.5100,62,96,325904
2.0430,0.3030,39.8900,62,96,325908
1.9697,0.2933,40.0000,62,96,325911
1.9306,0.2884,40.0300,62,96,325914
1.9062,0.3324,39.8600,62,96,325918
1.8426,0.2884,40.0000,62,96,325921
1.8377,0.2981,39.8000,62,96,325924
1.7644,0.2933,40.0000,62,96,325927
1.7400,0.2884,40.0000,62,96,325932
1.7155,0.3275,39.9300,62,96,325935
1.6667,0.2884,40.0000,62,96,325938
1.6911,0.3030,39.8000,62,96,325942
1.6471,0.3079,39.8900,62,96,325945
1.6325,0.2933,40.0000,62,96,325948
1.6227,0.3030,39.9600,62,96,325952
1.6178,0.2933,40.0300,62,96,325955
1.6667,0.3079,39.7000,62,96,325958
1.6667,0.2981,39.8900,62,96,325962
1.6813,0.2884,39.9600,62,96,325965
1.7107,0.2884,39.9600,62,96,325968
1.7107,0.2688,40.0000,62,96,325971
1.7302,0.2981,39.2800,62,96,325976
1.6716,0.2933,39.9300,62,96,325979
1.6373,0.2981,39.9600,62,96,325982
1.5885,0.2981,39.9600,62,96,325986
1.5591,0.2884,40.1000,62,96,325989
1.5787,0.2933,39.9300,62,96,325992
1.5787,0.2933,39.9600,62,96,325996
1.6227,0.3030,39.8900,62,96,325999
1.6276,0.2884,40.0000,62,96,326002
1.6667,0.2884,39.2500,62,96,326006
1.7302,0.3030,39.8900,62,96,326009
1.6960,0.2933,39.9600,62,96,326012
1.7058,0.2884,39.8300,62,96,326016
1.6716,0.2688,39.8900,62,96,326020
1.6667,0.2884,40.0000,62,96,326023
1.6911,0.2981,39.9300,62,96,326026
1.6813,0.2884,40.0000,62,96,326030
1.7546,0.3030,39.7700,62,96,326033
1.7107,0.2884,39.9300,62,96,326036
1.7155,0.2884,40.0300,62,96,326040
1.7400,0.2981,40.0000,62,96,326043
1.7351,0.2884,40.0000,62,96,326046
1.7937,0.3030,39.7300,62,96,326050
1.7595,0.2884,39.9300,62,96,326053
1.7595,0.2884,39.9600,62,96,326056
1.7644,0.2835,39.9600,62,96,326060
1.7644,0.2933,40.0000,62,96,326064
1.8182,0.3079,39.8900,62,96,326067
1.8035,0.3030,39.9600,62,96,326070
1.7840,0.2933,39.8900,62,96,326074
1.7791,0.3030,39.9600,62,96,326077
1.7889,0.2884,40.0000,62,96,326080
1.8280,0.2981,39.8900,62,96,326084
1.8524,0.2933,39.9600,62,96,326087
1.8768,0.2933,39.8600,62,96,326090
1.8622,0.2933,40.0000,62,96,326094
1.8622,0.2884,39.9600,62,96,326097
1.8622,0.2933,39.8900,62,96,326100
1.8280,0.2933,40.0000,62,96,326104
1.8524,0.2933,39.9600,62,96,326108
1.8231,0.2884,39.9300,62,96,326111
1.8182,0.2933,39.9600,62,96,326114
1.8133,0.2933,39.8900,62,96,326118
1.7889,0.2933,40.0300,62,96,326121
1.8035,0.2933,39.8000,62,96,326124
1.8035,0.2933,40.0300,62,96,326128
1.8035,0.2884,40.0000,62,96,326131
1.8280,0.2981,40.0000,62,96,326134
1.8035,0.2933,40.0000,62,96,326138
1.8328,0.2981,39.7700,62,96,326141
1.7840,0.2933,39.9300,62,96,326145
1.7937,0.2884,40.0000,62,96,326148
1.7644,0.2981,40.1000,62,96,326152
1.7449,0.2933,40.0300,62,96,326155
1.7840,0.3079,39.7700,62,96,326158
1.7937,0.2981,39.9600,62,96,326163
1.7791,0.2981,40.0300,62,96,326166
1.8182,0.2933,39.8600,62,96,326170
1.7840,0.2933,40.1000,62,96,326173
1.8084,0.2933,40.0000,62,96,326176
1.7986,0.2933,39.9600,62,96,326180
1.7937,0.2933,39.9600,62,96,326183
1.8182,0.2933,39.8600,62,96,326187
1.7937,0.2933,40.0000,62,96,326191
1.8035,0.2884,40.0300,62,96,326194
1.8231,0.2981,39.8600,62,96,326197
1.8084,0.2884,40.0000,62,96,326201
1.8426,0.2981,39.8000,62,96,326204
1.8231,0.3030,39.8900,62,96,326207
1.8182,0.2933,40.0000,62,96,326210
1.8426,0.2981,39.9300,62,96,326214
1.8377,0.2933,40.0000,62,96,326217
1.8915,0.3030,39.7000,62,96,326220
1.8671,0.2884,39.8900,62,96,326224
1.8573,0.2884,40.0600,62,96,326227
1.8671,0.2981,39.9300,62,96,326231
1.8719,0.2933,40.0000,62,96,326235
1.9355,0.3079,39.7700,62,96,326238
1.9062,0.2981,39.9600,62,96,326241
1.8915,0.2884,39.8600,62,96,326245
1.8573,0.2933,39.9600,62,96,326248
1.8133,0.2884,40.2000,62,96,326251
1.8133,0.2981,39.8900,62,96,326254
1.7644,0.2933,39.9600,62,96,326258
1.7693,0.2933,39.9300,62,96,326261
1.7546,0.2933,40.1000,62,96,326264
1.7742,0.2933,40.0300,62,96,326268
1.8182,0.3030,39.8900,62,96,326272
1.8084,0.2981,40.0300,62,96,326275
1.8328,0.3226,39.8900,62,96,326279
1.7986,0.2884,39.9600,62,96,326282
1.7937,0.2884,39.9600,62,96,326285
1.8035,0.2981,39.8900,62,96,326289
1.7937,0.2933,40.0000,62,96,326292
1.8231,0.2981,39.8000,62,96,326295
1.8035,0.2933,39.9600,62,96,326298
1.8035,0.2884,40.0300,62,96,326302
1.8280,0.3030,39.8900,62,96,326305
1.8084,0.2884,40.0000,62,96,326308
1.8524,0.2981,39.7300,62,96,326312
1.8133,0.2884,39.9300,62,96,326316
1.8133,0.2884,39.9600,62,96,326319
1.8280,0.2688,39.9600,62,96,326323
1.8182,0.2933,40.0000,62,96,326326
1.8719,0.3079,39.7700,62,96,326329
1.8328,0.2933,40.1300,62,96,326333
1.8280,0.2835,39.9300,62,96,326336
1.8328,0.2933,39.9300,62,96,326339
1.8524,0.2933,40.0000,62,96,326343
1.8817,0.3030,39.8300,62,96,326346
1.8866,0.2933,39.9300,62,96,326349
1.8719,0.2933,39.8900,62,96,326352
1.8622,0.2933,39.9600,62,96,326356
1.8768,0.2933,39.9600,62,96,326360
1.9501,0.3226,39.8300,62,96,326363
1.9795,0.2884,39.9600,62,96,326367
2.0528,0.2981,39.8600,62,96,326370
2.0381,0.2884,40.0000,62,96,326373
2.0283,0.2884,40.0000,62,96,326377
2.0186,0.2933,39.9300,62,96,326380
1.9795,0.2933,40.1300,62,96,326383
1.9892,0.2933,39.8900,62,96,326386
1.9599,0.2884,40.0000,62,96,326390
1.9892,0.2884,40.0000,62,96,326393
1.9795,0.2981,39.8900,62,96,326396
1.9599,0.2981,39.9600,62,96,326401
1.9941,0.2981,39.8600,62,96,326404
1.9550,0.2981,39.9300,62,96,326407
1.9013,0.2933,40.0000,62,96,326411
1.8622,0.2981,40.1600,62,96,326414
1.8182,0.2933,39.9600,62,96,326417
1.7937,0.3030,39.7700,62,96,326421
1.7302,0.2933,39.8900,62,96,326424
1.7155,0.2884,39.9600,62,96,326427
1.7107,0.2981,40.1000,62,96,326431
1.7107,0.2884,40.0000,62,96,326434
1.7546,0.3079,39.8300,62,96,326437
1.7302,0.3275,39.9600,62,96,326440
1.7351,0.2884,39.9300,62,96,326445
1.7253,0.2933,39.9600,62,96,326448
1.7400,0.2884,40.0000,62,96,326451
1.7644,0.3030,39.8300,62,96,326455
1.7400,0.2933,40.0000,62,96,326458
1.7498,0.3030,39.8900,62,96,326461
1.7302,0.2933,40.0000,62,96,326465
1.7498,0.2884,39.5100,62,96,326468
1.8182,0.2981,39.8600,62,96,326471
1.8719,0.2933,39.8300,62,96,326475
2.0088,0.3079,39.8900,62,96,326478
2.1065,0.2688,39.9300,62,96,326481
2.2581,0.2884,40.0600,62,96,326484
2.4340,0.2933,39.8600,62,96,326489
2.5562,0.2884,40.0000,62,96,326492
2.6735,0.2933,39.7700,62,96,326495
2.6246,0.2884,39.9300,62,96,326499
2.4927,0.2884,40.0000,62,96,326502
2.3021,0.3030,39.8900,62,96,326505
2.0626,0.2981,40.0300,62,96,326509
1.9257,0.3030,39.7700,62,96,326512
1.7644,0.2884,39.9300,62,96,326515
1.7009,0.2933,40.0000,62,96,326518
1.6520,0.2884,39.9600,62,96,326522
1.6227,0.2933,40.1000,62,96,326525
1.6471,0.3030,39.7300,62,96,326529
1.6080,0.2933,39.9300,62,96,326533
1.5885,0.2884,39.9600,62,96,326536
1.5787,0.2933,40.0300,62,96,326539
1.5689,0.2933,40.0000,62,96,326543
1.6276,0.3030,39.8300,62,96,326546
1.6129,0.2981,39.9300,62,96,326549
1.6520,0.2933,39.9300,62,96,326553
1.6471,0.2933,40.0300,62,96,326556
1.6618,0.2933,39.9600,62,96,326559
1.7009,0.2981,39.9600,62,96,326562
1.6911,0.2981,39.9600,62,96,326566
1.7107,0.2933,39.8300,62,96,326569
1.7009,0.2884,39.9600,62,96,326573
1.7107,0.2884,40.0000,62,96,326577
1.7253,0.2933,40.2600,62,96,326580
1.7253,0.2933,40.0000,62,96,326583
1.7595,0.2933,39.8900,62,96,326587
1.7498,0.2884,40.0000,62,96,326590
1.7546,0.2884,40.0000,62,96,326593
1.7693,0.2981,40.0000,62,96,326597
1.7595,0.2688,40.0000,62,96,326600
1.7937,0.2981,39.8000,62,96,326603
1.7791,0.2933,39.8600,62,96,326606
1.7693,0.2884,40.0000,62,96,326610
1.7986,0.3372,39.9300,62,96,326614
1.7889,0.2884,40.0300,62,96,326617
1.8328,0.3030,39.7300,62,96,326621
1.8035,0.2933,39.9300,62,96,326624
1.8084,0.2688,40.0000,62,96,326627
1.8231,0.2933,40.0300,62,96,326631
1.8231,0.3079,40.0300,62,96,326634
1.8915,0.3079,39.7700,62,96,326637
1.8817,0.2981,39.9300,62,96,326641
1.9062,0.2884,39.9300,62,96,326644
1.9257,0.2933,40.0000,62,96,326647
1.9355,0.2884,40.0000,62,96,326650
1.9697,0.3030,39.9600,62,96,326654
1.9208,0.2933,40.0000,62,96,326658
1.9208,0.3030,40.1300,62,96,326661
1.8866,0.2884,40.0300,62,96,326665
1.8671,0.2884,40.0300,62,96,326668
1.8817,0.3226,39.8300,62,96,326671
1.8524,0.2933,40.0300,62,96,326675
1.8768,0.3030,39.8600,62,96,326678
1.8768,0.2933,40.0000,62,96,326681
1.9013,0.2884,40.0600,62,96,326685
1.9306,0.2933,39.8900,62,96,326688
1.9159,0.2884,39.9600,62,96,326691
1.9355,0.2933,39.9300,62,96,326694
1.9110,0.2933,39.9300,62,96,326699
1.9306,0.2884,40.0000,62,96,326702
1.9648,0.2981,39.8900,62,96,326705
1.9648,0.2884,39.9600,62,96,326709
2.0283,0.2981,39.8000,62,96,326712
2.0039,0.2835,39.9300,62,96,326715
2.0283,0.2884,40.0000,62,96,326719
2.0479,0.2933,40.0300,62,96,326722
2.0577,0.2933,40.0000,62,96,326725
2.1310,0.3030,39.7300,62,96,326728
2.1163,0.2884,39.9300,62,96,326732
2.1163,0.2884,40.0000,62,96,326735
2.1408,0.2933,39.9600,62,96,326738
2.1408,0.2933,40.0000,62,96,326743
2.2483,0.2981,39.8000,62,96,326746
2.1896,0.2981,39.9600,62,96,326749
2.1848,0.2884,40.0000,62,96,326753
2.1896,0.2688,40.0000,62,96,326756
2.1945,0.2884,40.0000,62,96,326759
2.2434,0.2981,39.8300,62,96,326762
2.2190,0.2981,39.9300,62,96,326766
2.2385,0.2933,39.8900,62,96,326769
2.2287,0.2884,40.0000,62,96,326772
2.1554,0.2981,40.0000,62,96,326777
2.0626,0.2933,40.0000,62,96,326780
1.9990,0.2981,39.8900,62,96,326785
1.8866,0.2981,39.9600,62,96,326788
1.8573,0.2933,39.8000,62,96,326791
1.7986,0.2933,39.8300,62,96,326795
1.7595,0.2884,40.0000,62,96,326798
1.7595,0.2981,39.9600,62,96,326801
1.7546,0.2933,40.0300,62,96,326805
1.7400,0.3030,39.7700,62,96,326808
1.6764,0.2933,39.8900,62,96,326811
1.6471,0.2981,40.0000,62,96,326814
1.6276,0.2933,39.9600,62,96,326818
1.6178,0.2884,39.9600,62,96,326821
1.6716,0.3079,39.7700,62,96,326824
1.6129,0.3275,39.9300,62,96,326829
1.6080,0.2688,39.9300,62,96,326832
1.5982,0.2933,40.0300,62,96,326835
1.6080,0.2933,40.0000,62,96,326839
1.6422,0.3030,39.8900,62,96,326842
1.6276,0.2933,40.0300,62,96,326845
1.6373,0.2933,39.8900,62,96,326849
1.6325,0.3079,40.1000,62,96,326852
1.6422,0.2688,40.0000,62,96,326855
1.6764,0.2981,39.3500,62,96,326859
1.6569,0.2884,40.0000,62,96,326862
1.6813,0.2981,39.9300,62,96,326865
1.6618,0.2884,39.9600,62,96,326868
1.6667,0.2884,40.0000,62,96,326873
1.6862,0.2884,39.8900,62,96,326876
1.6862,0.2933,40.0300,62,96,326879
1.7058,0.2933,39.8300,62,96,326883
1.6960,0.2933,39.9300,62,96,326886
1.6960,0.2884,40.0000,62,96,326889
1.7253,0.3030,39.8000,62,96,326893
1.7253,0.2933,39.9600,62,96,326896
1.7742,0.2981,39.8000,62,96,326899
1.7546,0.3128,39.9600,62,96,326903
1.7840,0.2884,39.8000,62,96,326906
1.7840,0.2688,39.9300,62,96,326909
1.7889,0.2933,39.9600,62,96,326913
1.8573,0.2884,39.7000,62,96,326917
1.8133,0.2933,39.9600,62,96,326920
1.7889,0.3030,39.9600,62,96,326923
1.7693,0.2933,40.0000,62,96,326927
1.7351,0.2884,40.0600,62,96,326930
1.7840,0.3030,39.8000,62,96,326933
1.7302,0.2981,39.8900,62,96,326937
1.7302,0.2933,40.1300,62,96,326940
1.7253,0.2933,40.0000,62,96,326943
1.7302,0.2933,40.0000,62,96,326946
1.7644,0.2981,39.8000,62,96,326950
1.7498,0.2933,39.9300,62,96,326953
1.7644,0.2933,39.8600,62,96,326957
1.7498,0.2884,39.9600,62,96,326961
1.7595,0.2884,40.0000,62,96,326964
1.7791,0.3226,39.9300,62,96,326967
1.7693,0.2933,40.0000,62,96,326971
1.8084,0.2981,39.8900,62,96,326974
1.7840,0.2884,40.0300,62,96,326977
1.7937,0.2884,39.9300,62,96,326981
1.8182,0.2981,39.8600,62,96,326984
1.7986,0.2933,39.9600,62,96,326987
1.8280,0.3226,39.8000,62,96,326990
1.8133,0.2933,39.8900,62,96,326994
1.8035,0.2884,40.0000,62,96,326998
1.8280,0.3030,39.8900,62,96,327001
1.8426,0.2884,40.0000,62,96,327005
1.8524,0.2981,39.7700,62,96,327008
1.8182,0.2933,39.9300,62,96,327011
1.8084,0.2884,40.0000,62,96,327015
1.8182,0.2981,40.0300,62,96,327018
1.8084,0.3275,39.9600,62,96,327021
1.8573,0.3030,39.7300,62,96,327024
1.8280,0.2933,39.1600,62,96,327028
1.8280,0.2835,40.0000,62,96,327031
1.8475,0.2933,39.9600,62,96,327034
1.9013,0.2933,40.0000,62,96,327038
1.9355,0.3079,39.9600,62,96,327042
1.9159,0.2981,39.9600,62,96,327045
1.9062,0.2933,39.8900,62,96,327049
1.8622,0.2933,40.0000,62,96,327052
1.8133,0.3226,40.0000,62,96,327055
1.8035,0.2981,39.8300,62,96,327059
1.7498,0.2933,40.0000,62,96,327062
1.7595,0.2933,39.8600,62,96,327065
1.7400,0.2933,40.0000,62,96,327069
1.7546,0.2981,39.9600,62,96,327072
1.7889,0.2933,39.8900,62,96,327075
1.7791,0.2933,40.0000,62,96,327078
1.8035,0.2884,39.8600,62,96,327083
1.7693,0.2884,39.8300,62,96,327086
1.7742,0.2933,40.0000,62,96,327089
1.7889,0.2933,39.8600,62,96,327093
1.7742,0.2884,40.0000,62,96,327096
1.8475,0.2884,39.8000,62,96,327099
1.7889,0.2884,39.9600,62,96,327103
1.7986,0.2933,40.0000,62,96,327106
1.8133,0.2981,39.9600,62,96,327109
1.8035,0.2981,39.9600,62,96,327113
1.8475,0.3030,39.7300,62,96,327116
1.8182,0.2981,39.9600,62,96,327119
1.8035,0.2835,40.0000,62,96,327122
1.8035,0.2933,39.9600,62,96,327127
1.7937,0.2835,39.9600,62,96,327130
1.8573,0.3079,39.8000,62,96,327133
1.8182,0.2981,39.8300,62,96,327137
1.8084,0.2933,39.9300,62,96,327140
1.8133,0.2933,39.9600,62,96,327143
1.8084,0.2981,40.0000,62,96,327147
1.8377,0.2884,39.8900,62,96,327150
1.8133,0.2933,39.8300,62,96,327153
1.8280,0.2933,39.8900,62,96,327157
1.8182,0.2933,40.1000,62,96,327160
1.8475,0.2933,40.0000,62,96,327163
1.8622,0.2981,39.9300,62,96,327166
1.8719,0.2933,39.9600,62,96,327171
1.9257,0.2981,39.8900,62,96,327174
1.9159,0.3079,39.9600,62,96,327177
1.9159,0.2884,40.0000,62,96,327181
1.9062,0.2981,40.1000,62,96,327184
1.8328,0.2933,39.9600,62,96,327187
1.8328,0.2933,39.8600,62,96,327191
1.7937,0.2933,39.8900,62,96,327194
1.7742,0.2884,40.1000,62,96,327197
1.7889,0.2981,39.8900,62,96,327201
1.7595,0.2884,40.0300,62,96,327204
1.8035,0.3030,39.7700,62,96,327207
1.7791,0.2884,39.9300,62,96,327212
1.7791,0.2884,40.0000,62,96,327215
1.7937,0.2884,39.9600,62,96,327218
1.7889,0.2688,40.0000,62,96,327221
1.8426,0.3079,39.8000,62,96,327225
1.8035,0.2933,39.9300,62,96,327228
1.7986,0.2884,39.9600,62,96,327231
1.8035,0.2933,39.9600,62,96,327235
1.8084,0.2884,40.0000,62,96,327238
1.8573,0.3079,39.8600,62,96,327241
1.8280,0.2933,39.9600,62,96,327245
1.8426,0.2884,39.8900,62,96,327248
1.8280,0.3030,40.0300,62,96,327251
1.8328,0.2981,40.1000,62,96,327255
1.8719,0.2981,39.8300,62,96,327259
1.8426,0.3030,39.9600,62,96,327262
1.8573,0.2884,39.8600,62,96,327265
1.8328,0.2933,40.0000,62,96,327269
1.8328,0.2835,40.0000,62,96,327272
1.8524,0.2933,39.9600,62,96,327275
1.8328,0.2933,40.0000,62,96,327279
1.8622,0.2933,39.8600,62,96,327282
1.8231,0.2884,39.9600,62,96,327285
1.8231,0.2981,40.0000,62,96,327289
1.8328,0.2933,39.8900,62,96,327292
1.8231,0.2884,40.0300,62,96,327296
1.8866,0.2933,39.8000,62,96,327299
1.8964,0.2933,40.0000,62,96,327303
1.9501,0.2884,40.0000,62,96,327306
1.9990,0.2981,39.9300,62,96,327309
1.9892,0.2884,40.0000,62,96,327313
1.9990,0.3030,39.8000,62,96,327316
1.9306,0.2933,39.9300,62,96,327319
1.9013,0.2884,40.0600,62,96,327323
1.9062,0.2884,39.9600,62,96,327326
1.9013,0.2884,40.0000,62,96,327329
1.9746,0.3030,39.8300,62,96,327333
1.9599,0.2981,39.8900,62,96,327336
1.9648,0.2884,39.9300,62,96,327340
1.9795,0.2884,39.9600,62,96,327343
1.9795,0.2884,40.0000,62,96,327347
2.0186,0.2981,39.8900,62,96,327350
1.9941,0.2981,39.9600,62,96,327353
1.9892,0.2933,39.9300,62,96,327357
1.9501,0.2884,40.0000,62,96,327360
1.9110,0.2884,40.0600,62,96,327363
1.8964,0.3030,40.0000,62,96,327367
1.8475,0.2981,39.9600,62,96,327370
1.8671,0.2981,39.8600,62,96,327373
1.8231,0.2835,39.9600,62,96,327377
1.8084,0.2884,40.0000,62,96,327380
1.8133,0.2981,39.8300,62,96,327384
1.7644,0.3030,39.9600,62,96,327389
1.7449,0.2884,40.0000,62,96,327392
1.7791,0.3030,39.7300,62,96,327395
1.7400,0.2835,39.9300,62,96,327399
1.7400,0.2688,40.0000,62,96,327402
1.7498,0.2933,40.0300,62,96,327405
1.7351,0.3226,39.9600,62,96,327409
1.7889,0.3079,39.7700,62,96,327412
1.7498,0.3030,39.8900,62,96,327415
1.7742,0.2933,39.9300,62,96,327419
1.8377,0.2933,40.0300,62,96,327422
1.9404,0.2981,39.9600,62,96,327426
2.1065,0.3030,39.8600,62,96,327430
2.2336,0.2933,40.0300,62,96,327433
2.4389,0.2933,39.8900,62,96,327436
2.6051,0.3421,39.9600,62,96,327439
2.7615,0.2884,40.0000,62,96,327443
2.8152,0.2981,39.8300,62,96,327446
2.6784,0.2933,39.9600,62,96,327449
2.5024,0.2981,39.8900,62,96,327453
2.2092,0.2933,40.0000,62,96,327456
1.9648,0.2884,39.8600,62,96,327459
1.7595,0.2933,39.8600,62,96,327463
1.5934,0.2884,39.9600,62,96,327467
1.5103,0.2933,39.8300,62,96,327470
1.4418,0.2884,39.9300,62,96,327474
1.4467,0.2933,40.0300,62,96,327477
1.4858,0.3030,39.9300,62,96,327480
1.5054,0.2835,40.0000,62,96,327483
1.5689,0.3030,39.7700,62,96,327487
1.5787,0.2884,39.8900,62,96,327490
1.6227,0.2933,40.0000,62,96,327493
1.6422,0.2884,39.9600,62,96,327497
1.6569,0.2933,39.9600,62,96,327500
1.7204,0.3030,39.7700,62,96,327503
1.7009,0.2933,40.0000,62,96,327507
1.7009,0.2981,40.0300,62,96,327511
1.7107,0.2933,40.0000,62,96,327514
1.7107,0.2884,40.0000,62,96,327518
1.7742,0.3079,39.8300,62,96,327521
1.7400,0.2981,39.8900,62,96,327524
1.7400,0.2933,39.8900,62,96,327527
1.7351,0.2933,40.0000,62,96,327531
1.7449,0.2933,40.0300,62,96,327534
1.7791,0.2981,39.8600,62,96,327537
1.7693,0.2933,39.9300,62,96,327541
1.8133,0.2933,39.8600,62,96,327544
1.7742,0.2884,40.0600,62,96,327547
1.7791,0.2884,40.0000,62,96,327552
1.7937,0.2884,40.0000,62,96,327555
1.7889,0.2933,40.0000,62,96,327558
1.8573,0.2933,39.8600,62,96,327562
1.8231,0.2933,40.0000,62,96,327565
1.8524,0.2884,40.0300,62,96,327568
1.8866,0.2981,39.8300,62,96,327571
1.8915,0.2884,39.9600,62,96,327575
1.9013,0.2981,39.8000,62,96,327578
1.8817,0.2981,39.8900,62,96,327581
1.8817,0.2884,40.0000,62,96,327585
1.9013,0.2933,39.8900,62,96,327588
1.8671,0.2884,40.0000,62,96,327591
1.8866,0.3030,39.7000,62,96,327596
1.8231,0.2688,39.9300,62,96,327599
1.8084,0.2884,40.0000,62,96,327602
1.8133,0.2933,40.0300,62,96,327606
1.8133,0.2884,40.0000,62,96,327609
1.8817,0.3079,39.7300,62,96,327612
1.8475,0.2884,39.9300,62,96,327616
1.8573,0.2884,39.9600,62,96,327619
1.8573,0.2884,40.0000,62,96,327622
1.8768,0.2884,40.0000,62,96,327625
1.9550,0.3030,39.8900,62,96,327629
1.9062,0.2933,40.0000,62,96,327632
1.9404,0.2933,39.9600,62,96,327635
1.9550,0.2884,39.9600,62,96,327640
1.9453,0.2884,40.0300,62,96,327643
1.9892,0.3030,39.8300,62,96,327646
1.9746,0.2933,40.0000,62,96,327650
2.0088,0.2981,39.8900,62,96,327653
1.9892,0.2933,39.9600,62,96,327656
1.9990,0.2884,40.1000,62,96,327660
2.0283,0.3226,39.8900,62,96,327663
2.0235,0.2933,40.0000,62,96,327666
2.0674,0.2933,39.8300,62,96,327669
2.0479,0.2933,39.9300,62,96,327673
2.0577,0.2884,40.0000,62,96,327676
2.0919,0.2981,39.8000,62,96,327680
2.0870,0.2933,39.9600,62,96,327684
2.1457,0.2981,39.7700,62,96,327687
2.1163,0.2884,39.9300,62,96,327690
2.1652,0.2884,40.0000,62,96,327694
2.1505,0.2933,39.9600,62,96,327697
2.1603,0.2933,40.0000,62,96,327700
2.2092,0.3030,39.7700,62,96,327703
2.1896,0.2933,39.8900,62,96,327707
2.1848,0.2884,40.0000,62,96,327710
2.2043,0.2933,39.9600,62,96,327713
2.2141,0.2884,40.0600,62,96,327717
2.2923,0.3030,39.8300,62,96,327720
2.2581,0.2981,39.9300,62,96,327724
2.2336,0.2884,39.9300,62,96,327728
2.1896,0.2884,40.0000,62,96,327731
2.1505,0.2884,40.0000,62,96,327734
2.1359,0.2981,39.8300,62,96,327737
2.0674,0.2981,39.9600,62,96,327741
2.0332,0.2933,39.8900,62,96,327744
1.9746,0.2933,39.8600,62,96,327747
1.9355,0.2933,40.0300,62,96,327751
1.9208,0.2933,39.9600,62,96,327754
1.8915,0.2981,40.0000,62,96,327757
1.8622,0.2981,39.8900,62,96,327761
1.7937,0.3128,40.1000,62,96,327764
1.7937,0.2884,40.0000,62,96,327768
1.7546,0.2981,39.9600,62,96,327772
1.7204,0.2933,40.0000,62,96,327775
1.6960,0.2933,39.8300,62,96,327778
1.6716,0.2933,40.2000,62,96,327781
1.6520,0.2933,39.9600,62,96,327785
1.6618,0.3030,39.9600,62,96,327788
1.6373,0.3079,39.9600,62,96,327791
1.6667,0.2981,39.7700,62,96,327795
1.6373,0.2933,40.0000,62,96,327798
1.6276,0.3226,40.0300,62,96,327801
1.6471,0.2981,39.9600,62,96,327805
1.6325,0.2933,40.0000,62,96,327809
1.6813,0.2933,39.7700,62,96,327812
1.6471,0.2933,39.9600,62,96,327816
1.6471,0.2884,39.9300,62,96,327819
1.6569,0.2933,40.0000,62,96,327822
1.6569,0.2981,40.0000,62,96,327825
1.7058,0.3079,39.8000,62,96,327829
1.6911,0.2981,39.9600,62,96,327832
1.7058,0.2933,39.9300,62,96,327835
1.7204,0.2933,40.0000,62,96,327839
1.7449,0.2933,40.0300,62,96,327842
1.8035,0.2884,39.8300,62,96,327845
1.8084,0.2981,39.9600,62,96,327849
1.8426,0.2981,39.8300,62,96,327853
1.7986,0.2884,40.0000,62,96,327856
1.7498,0.2884,39.9300,62,96,327860
1.7107,0.2884,39.8900,62,96,327863
1.6569,0.2933,40.0000,62,96,327866
1.6716,0.2933,39.8600,62,96,327869
1.6471,0.2884,39.9300,62,96,327873
1.6667,0.2884,40.0600,62,96,327876
1.6862,0.2933,39.8900,62,96,327879
1.7058,0.2933,40.0000,62,96,327883
1.7546,0.2933,39.8000,62,96,327886
1.7644,0.2884,40.0000,62,96,327889
1.7595,0.2884,39.9600,62,96,327894
1.7791,0.3030,39.9300,62,96,327897
1.7840,0.2688,39.9600,62,96,327900
1.8084,0.2981,39.8300,62,96,327903
1.7889,0.2933,39.8600,62,96,327907
1.7889,0.2933,40.0000,62,96,327910
1.7889,0.2981,39.9600,62,96,327913
1.7791,0.2981,40.0000,62,96,327917
1.8377,0.3079,39.7300,62,96,327920
1.8084,0.3079,39.8900,62,96,327923
1.8182,0.2933,39.9300,62,96,327927
1.8035,0.2933,40.0300,62,96,327930
1.7986,0.2933,40.0000,62,96,327933
1.8817,0.2981,39.8600,62,96,327938
1.8231,0.2933,39.8600,62,96,327941
1.8475,0.2933,39.8900,62,96,327944
1.8133,0.2933,40.0000,62,96,327947
1.8084,0.3079,39.9600,62,96,327951
1.8426,0.2884,39.9300,62,96,327954
1.8182,0.2933,39.6700,62,96,327957
1.8475,0.2981,39.8600,62,96,327961
1.8328,0.2933,40.0000,62,96,327964
1.8573,0.2933,40.1000,62,96,327967
1.9062,0.3030,39.8900,62,96,327971
1.8964,0.2835,39.9600,62,96,327974
1.9355,0.2933,39.8300,62,96,327977
1.9013,0.2884,39.8600,62,96,327982
1.8671,0.2835,40.1000,62,96,327985
1.8475,0.2981,39.8900,62,96,327988
1.8035,0.2933,39.9300,62,96,327991
1.8280,0.2933,39.8000,62,96,327995
1.8035,0.3079,39.7700,62,96,328000
1.7644,0.2933,39.9600,62,96,328003
1.7546,0.2933,39.9300,62,96,328006
1.7546,0.2933,40.0000,62,96,328009
1.7644,0.2933,40.0000,62,96,328013
1.8133,0.3030,39.8600,62,96,328016
1.7889,0.2981,39.9600,62,96,328019
1.7986,0.2933,39.5700,62,96,328024
1.7840,0.2933,40.0000,62,96,328027
1.7986,0.2884,40.0300,62,96,328030
1.8328,0.3275,39.8300,62,96,328034
1.8133,0.2933,39.9600,62,96,328037
1.8377,0.3030,39.8300,62,96,328040
1.8426,0.2884,40.0000,62,96,328043
1.8182,0.2884,40.0300,62,96,328047
1.8426,0.3324,39.8900,62,96,328050
1.8231,0.2933,39.9600,62,96,328053
1.8524,0.2933,39.8600,62,96,328057
1.8328,0.2933,39.9600,62,96,328060
1.8231,0.2933,40.1000,62,96,328064
1.8377,0.2933,39.8600,62,96,328068
1.8231,0.2884,40.0600,62,96,328071
1.8573,0.2981,39.8000,62,96,328074
1.8231,0.2884,39.9300,62,96,328078
1.8231,0.2884,40.0000,62,96,328081
1.8377,0.2933,39.9600,62,96,328084
1.8280,0.2884,40.0000,62,96,328088
1.8768,0.3030,39.7700,62,96,328091
1.8475,0.2981,39.9300,62,96,328094
1.8475,0.2933,39.9600,62,96,328097
1.8768,0.2981,40.0300,62,96,328101
1.9013,0.2933,40.0000,62,96,328104
1.9844,0.3079,39.8000,62,96,328108
1.9501,0.3275,39.8900,62,96,328112
1.9306,0.2884,39.9300,62,96,328115
1.9013,0.2933,40.0000,62,96,328118
1.8573,0.2933,39.9600,62,96,328122
1.8426,0.2884,39.8300,62,96,328125
1.7742,0.2981,39.9300,62,96,328128
1.7595,0.2884,39.8600,62,96,328131
1.7400,0.2884,40.0000,62,96,328135
1.7498,0.3226,40.0000,62,96,328138
1.7742,0.2884,40.0000,62,96,328141
1.7742,0.2933,40.0300,62,96,328145
1.8084,0.2981,39.8000,62,96,328148
1.7986,0.2688,40.0300,62,96,328152
1.8133,0.2884,40.0000,62,96,328156
1.8426,0.3275,39.8900,62,96,328159
1.8231,0.2933,39.3200,62,96,328162
1.8475,0.2981,39.8600,62,96,328166
1.8328,0.2884,39.9600,62,96,328169
1.8328,0.2884,40.0000,62,96,328172
1.8524,0.2884,39.8600,62,96,328175
1.8426,0.2933,40.0000,62,96,328179
1.8768,0.2981,39.8600,62,96,328182
1.8524,0.2933,40.0000,62,96,328185
1.8475,0.2933,40.0000,62,96,328189
1.8671,0.2981,40.0000,62,96,328193
1.8475,0.2884,40.0000,62,96,328196
1.9013,0.3030,39.7300,62,96,328200
1.8475,0.2884,39.9300,62,96,328203
1.8475,0.2933,40.0000,62,96,328206
1.8524,0.2933,39.9600,62,96,328209
1.8475,0.2933,40.0000,62,96,328213
1.9062,0.3079,39.7700,62,96,328216
1.8671,0.2981,39.8300,62,96,328219
1.8768,0.2786,39.8900,62,96,328223
1.8817,0.2933,39.9600,62,96,328226
1.8964,0.2933,40.0000,62,96,328229
1.9648,0.3030,39.8300,62,96,328233
1.9746,0.3177,39.9300,62,96,328237
2.0186,0.2688,39.8600,62,96,328240
2.0283,0.2933,39.9600,62,96,328244
2.0479,0.2884,40.0000,62,96,328247
2.0772,0.2981,39.8600,62,96,328250
2.0430,0.2933,39.9600,62,96,328253
2.0332,0.2981,39.8900,62,96,328257
1.9697,0.2933,40.0300,62,96,328260
1.9501,0.2933,39.9600,62,96,328263
1.9453,0.2933,39.9600,62,96,328267
1.9306,0.2933,40.0000,62,96,328270
1.9550,0.2884,39.8300,62,96,328273
1.9208,0.2933,40.0300,62,96,328278
1.9257,0.2933,40.0000,62,96,328281
1.9013,0.2981,39.9300,62,96,328284
1.8915,0.2835,40.0000,62,96,328287
1.8915,0.2981,39.8000,62,96,328291
1.8524,0.2981,39.8900,62,96,328294
1.8280,0.2884,40.0000,62,96,328297
1.8133,0.2981,39.9300,62,96,328301
1.7742,0.2884,40.0300,62,96,328304
1.8377,0.3030,39.7300,62,96,328307
1.7595,0.2933,39.1900,62,96,328311
1.7498,0.3128,40.0000,62,96,328314
1.7498,0.2933,40.0000,62,96,328317
1.7400,0.2884,39.8600,62,96,328322
1.7937,0.3079,39.8000,62,96,328325
1.7546,0.2981,39.8900,62,96,328328
1.7498,0.2884,39.9600,62,96,328331
1.7449,0.2981,39.9600,62,96,328335
1.7498,0.2884,40.0000,62,96,328338
1.7840,0.3030,39.8900,62,96,328341
1.7498,0.2981,39.9600,62,96,328345
1.7693,0.2933,39.8600,62,96,328348
1.7644,0.2933,40.0000,62,96,328351
1.8133,0.2933,40.0000,62,96,328355
1.9306,0.2981,39.8300,62,96,328358
2.0186,0.2835,39.9600,62,96,328361
2.1994,0.2933,39.8900,62,96,328365
2.3314,0.2884,39.9600,62,96,328369
2.5171,0.2884,39.4800,62,96,328372
2.6979,0.2884,39.8900,62,96,328375
2.7517,0.2933,40.1000,62,96,328379
2.7273,0.3275,39.8300,62,96,328382
2.5024,0.2884,40.0000,62,96,328385
2.2434,0.2884,40.0300,62,96,328389
2.0039,0.2981,39.8900,62,96,328392
1.7742,0.2933,40.0000,62,96,328395
1.6618,0.2981,39.7700,62,96,328398
1.5396,0.2835,39.9300,62,96,328402
1.5005,0.2884,40.0000,62,96,328406
1.5005,0.2933,39.9300,62,96,328409
1.5494,0.2933,40.0000,62,96,328413
1.5885,0.3030,39.7300,62,96,328416
1.5934,0.2981,40.0000,62,96,328419
1.6129,0.2835,40.0300,62,96,328423
1.6422,0.2933,39.9600,62,96,328426
1.6471,0.3128,40.0000,62,96,328429
1.7155,0.3079,39.8300,62,96,328433
1.6911,0.2981,40.0000,62,96,328436
1.6911,0.2933,39.8900,62,96,328439
1.7009,0.2933,40.0000,62,96,328442
1.7009,0.2884,40.0000,62,96,328446
1.7449,0.2981,39.8900,62,96,328450
1.7400,0.2933,39.9300,62,96,328453
1.7546,0.2933,40.0600,62,96,328457
1.7400,0.2933,40.0000,62,96,328460
1.7449,0.2884,40.0000,62,96,328463
1.7742,0.2981,40.0300,62,96,328467
1.7644,0.2933,39.9600,62,96,328470
1.7986,0.2981,39.8900,62,96,328473
1.7840,0.2933,39.9600,62,96,328476
1.7889,0.2688,40.0000,62,96,328480
1.8133,0.2981,39.8300,62,96,328483
1.7937,0.2884,40.0000,62,96,328486
1.8182,0.2933,39.8300,62,96,328491
1.8084,0.2981,39.9300,62,96,328494
1.8133,0.2884,40.0000,62,96,328497
1.8426,0.3030,39.8900,62,96,328501
1.8768,0.2933,40.0000,62,96,328504
1.9159,0.2981,39.8000,62,96,328507
1.9159,0.2884,39.9300,62,96,328511
1.9257,0.2933,39.9600,62,96,328514
1.9355,0.2981,39.9300,62,96,328517
1.9062,0.2981,39.9600,62,96,328520
1.9257,0.3030,39.7300,62,96,328524
1.8622,0.2933,39.8900,62,96,328527
1.8475,0.2884,39.9600,62,96,328530
1.8426,0.2933,39.9600,62,96,328535
1.8280,0.2933,40.0000,62,96,328538
1.8719,0.3079,39.8000,62,96,328541
1.8280,0.3079,39.8900,62,96,328545
1.8328,0.2981,39.9300,62,96,328548
1.8426,0.2933,40.1000,62,96,328551
1.8573,0.2981,39.9600,62,96,328555
1.9110,0.3030,39.8300,62,96,328558
1.8866,0.2933,40.1000,62,96,328561
1.9110,0.3177,39.8900,62,96,328564
1.8964,0.2884,39.9600,62,96,328568
1.9257,0.2884,40.0000,62,96,328571
1.9697,0.2981,39.8900,62,96,328574
1.9648,0.2884,39.9600,62,96,328579
2.0039,0.2981,39.8900,62,96,328582
1.9844,0.2884,40.0600,62,96,328585
2.0039,0.3177,40.1000,62,96,328589
2.0235,0.2933,39.8900,62,96,328592
2.0283,0.2884,40.0000,62,96,328595
2.0626,0.2933,39.9300,62,96,328598
2.0430,0.2884,39.9600,62,96,328602
2.0674,0.2884,40.0000,62,96,328605
2.1017,0.2981,40.0000,62,96,328608
2.1603,0.2933,40.2000,62,96,328613
2.1603,0.2835,40.0300,62,96,328616
2.2630,0.2981,39.7300,62,96,328621
2.2092,0.2981,40.0000,62,96,328624
2.2141,0.2884,39.9300,62,96,328627
2.2434,0.2933,40.0000,62,96,328631
2.2483,0.2884,40.0000,62,96,328634
2.3069,0.3079,39.8300,62,96,328637
2.2776,0.2981,39.9300,62,96,328640
2.2727,0.2933,39.9600,62,96,328644
2.2532,0.2933,40.0300,62,96,328647
2.2385,0.2884,40.0000,62,96,328650
2.2287,0.2981,39.9600,62,96,328654
2.1505,0.2933,40.0300,62,96,328657
2.1065,0.2981,39.8600,62,96,328660
2.0186,0.2933,40.0000,62,96,328665
1.9648,0.2884,40.1000,62,96,328668
1.9453,0.3030,39.8600,62,96,328671
1.8719,0.2933,39.9600,62,96,328674
1.8524,0.2933,39.8600,62,96,328678
1.7840,0.2933,39.9300,62,96,328681
1.7498,0.2933,39.7700,62,96,328684
1.7351,0.2981,39.8900,62,96,328688
1.6862,0.2884,40.0600,62,96,328691
1.6911,0.2933,39.8300,62,96,328694
1.6471,0.2933,39.9300,62,96,328698
1.6325,0.2933,39.9600,62,96,328701
1.6373,0.2981,39.8900,62,96,328705
1.6080,0.2933,40.0000,62,96,328709
1.6764,0.2884,39.7700,62,96,328712
1.6031,0.2884,39.9300,62,96,328715
1.6031,0.2933,40.0000,62,96,328718
1.6080,0.2933,39.9600,62,96,328722
1.6031,0.2884,40.0300,62,96,328725
1.6471,0.3079,39.7700,62,96,328728
1.6276,0.2981,39.9600,62,96,328732
1.6178,0.2884,39.9300,62,96,328735
1.6276,0.2933,40.0000,62,96,328738
1.6325,0.2884,40.0600,62,96,328742
1.6764,0.3079,39.8000,62,96,328745
1.6618,0.2981,39.9600,62,96,328749
1.6716,0.2933,39.8300,62,96,328753
1.6716,0.2933,40.0000,62,96,328756
1.6862,0.2884,40.0600,62,96,328759
1.7253,0.3177,39.8900,62,96,328762
1.7253,0.2933,39.9600,62,96,328766
1.7546,0.2981,39.8300,62,96,328769
1.7498,0.2933,40.0000,62,96,328772
1.7546,0.2884,40.0300,62,96,328776
1.7742,0.3275,39.9300,62,96,328779
1.7693,0.2884,39.9600,62,96,328782
1.7693,0.2933,39.8600,62,96,328786
1.7204,0.2933,40.0000,62,96,328790
1.6911,0.2884,40.0000,62,96,328793
1.6960,0.3275,39.8000,62,96,328797
1.6764,0.2884,39.9600,62,96,328800
1.7155,0.2981,39.8300,62,96,328803
1.7009,0.2933,39.8900,62,96,328806
1.6911,0.2688,40.0000,62,96,328810
1.7155,0.3030,39.8900,62,96,328813
1.7009,0.2884,40.0000,62,96,328816
1.7644,0.3030,39.7300,62,96,328820
1.7302,0.2835,39.8600,62,96,328823
1.7302,0.2884,40.0000,62,96,328826
1.7351,0.2933,39.9600,62,96,328830
1.7449,0.3030,40.0300,62,96,328834
1.8035,0.3128,39.7700,62,96,328837
1.7791,0.2981,39.4800,62,96,328840
1.7791,0.2884,39.9300,62,96,328844
1.7742,0.2933,39.9600,62,96,328847
1.7791,0.2933,40.0000,62,96,328850
1.8133,0.3030,39.9600,62,96,328854
1.7889,0.2933,39.9600,62,96,328857
1.8084,0.2933,39.8600,62,96,328860
1.7840,0.2933,40.1300,62,96,328864
1.7840,0.2933,40.0000,62,96,328867
1.8133,0.2981,39.8300,62,96,328870
1.7840,0.2933,39.9600,62,96,328875
1.8084,0.2981,39.8900,62,96,328878
1.7840,0.2884,40.2000,62,96,328881
1.7840,0.2884,40.0000,62,96,328884
1.8035,0.2981,39.8600,62,96,328888
1.7889,0.2884,40.0000,62,96,328891
1.8182,0.2933,39.8000,62,96,328894
1.8035,0.2933,40.0300,62,96,328898
1.8231,0.2933,40.0000,62,96,328901
1.8622,0.3030,39.8900,62,96,328904
1.8573,0.2933,40.0000,62,96,328908
1.8964,0.2933,39.7700,62,96,328911
1.8475,0.2884,40.3600,62,96,328914
1.8328,0.2835,40.0000,62,96,328919
1.8182,0.2884,39.9600,62,96,328922
1.7986,0.2933,40.0000,62,96,328925
1.8377,0.3128,39.7000,62,96,328928
1.7889,0.2688,39.8900,62,96,328932
1.7595,0.2884,39.9600,62,96,328935
1.7546,0.2933,40.0000,62,96,328938
1.7253,0.2884,40.0000,62,96,328942
1.7644,0.3030,39.8600,62,96,328945
1.7400,0.2884,39.9300,62,96,328948
1.7449,0.2933,39.8900,62,96,328952
1.7449,0.2933,40.0000,62,96,328955
1.7498,0.2884,40.0000,62,96,328958
1.7937,0.2981,39.8600,62,96,328963
1.7840,0.2933,40.0000,62,96,328966
1.8084,0.2981,39.8600,62,96,328969
1.7840,0.2933,40.0300,62,96,328972
1.7840,0.2933,40.0000,62,96,328976
1.8133,0.2884,40.0000,62,96,328979
1.8084,0.2933,40.0000,62,96,328982
1.8426,0.2981,39.8600,62,96,328986
1.8133,0.2933,40.0000,62,96,328989
1.8182,0.2884,40.2000,62,96,328992
1.8426,0.2933,39.8600,62,96,328996
1.8231,0.2933,40.0000,62,96,328999
1.8524,0.2981,39.8000,62,96,329003
1.8280,0.2933,39.8600,62,96,329006
1.8182,0.2884,40.0000,62,96,329010
1.8622,0.3030,39.8600,62,96,329013
1.8133,0.2933,40.0000,62,96,329016
1.8573,0.2981,39.7300,62,96,329020
1.8280,0.2933,39.9300,62,96,329023
1.8231,0.2884,40.0300,62,96,329026
1.8328,0.2981,39.9600,62,96,329030
1.8280,0.2981,39.9600,62,96,329033
1.8768,0.3079,39.7300,62,96,329036
1.8475,0.2933,39.8900,62,96,329040
1.8622,0.2884,39.9300,62,96,329043
1.8768,0.2884,40.0300,62,96,329047
1.8866,0.2933,40.0000,62,96,329050
1.9355,0.3079,39.8600,62,96,329054
1.8964,0.3275,39.9300,62,96,329057
1.9159,0.2884,39.9300,62,96,329060
1.8524,0.3079,40.1000,62,96,329064
1.8328,0.2933,39.9600,62,96,329067
1.8475,0.2981,39.8300,62,96,329070
1.8377,0.3030,39.9600,62,96,329074
1.8231,0.2933,39.8300,62,96,329077
1.7937,0.2933,40.1000,62,96,329080
1.7986,0.2933,40.0000,62,96,329084
1.8182,0.2933,39.8900,62,96,329088
1.7889,0.2933,39.9300,62,96,329091
1.8133,0.2933,39.8300,62,96,329094
1.7889,0.2884,39.9600,62,96,329098
1.7986,0.2981,40.0000,62,96,329101
1.8182,0.2933,39.8600,62,96,329104
1.8133,0.2933,39.9600,62,96,329108
1.8524,0.2933,39.7700,62,96,329111
1.8328,0.3226,40.0000,62,96,329114
1.8377,0.2933,39.9600,62,96,329118
1.8622,0.2981,39.8000,62,96,329121
1.8573,0.2884,40.0000,62,96,329124
1.8915,0.3030,39.7700,62,96,329128
1.8573,0.2981,39.9300,62,96,329132
1.8768,0.2933,40.0000,62,96,329135
1.8475,0.2933,39.9600,62,96,329138
1.8377,0.2884,40.0000,62,96,329142
1.8964,0.3079,39.9300,62,96,329145
1.8671,0.2981,39.9300,62,96,329148
1.8475,0.2884,39.7700,62,96,329152
1.8426,0.2933,39.9600,62,96,329155
1.8426,0.2884,40.0000,62,96,329158
1.8768,0.3030,39.8600,62,96,329162
1.8719,0.2933,39.9600,62,96,329165
1.8719,0.2933,39.9300,62,96,329168
1.8573,0.2835,40.1000,62,96,329172
1.8768,0.2884,40.0300,62,96,329176
1.9159,0.2933,39.9300,62,96,329179
1.9306,0.2933,39.9600,62,96,329182
1.9648,0.2981,39.8900,62,96,329186
1.9257,0.3079,40.0000,62,96,329189
1.9550,0.2933,39.9600,62,96,329192
1.9697,0.2981,39.9300,62,96,329196
1.9550,0.2933,40.1000,62,96,329199
1.9892,0.2933,39.8300,62,96,329202
1.9550,0.2933,39.8600,62,96,329206
1.9404,0.3030,40.0300,62,96,329209
1.9599,0.3030,39.8900,62,96,329212
1.9550,0.2981,40.0000,62,96,329217
2.0186,0.2981,39.8000,62,96,329220
1.9941,0.3079,39.8000,62,96,329225
1.9355,0.2981,39.9600,62,96,329228
1.9013,0.2884,39.9300,62,96,329231
1.8719,0.2884,39.9600,62,96,329234
1.8573,0.2884,40.0000,62,96,329238
1.8768,0.3030,39.8000,62,96,329241
1.8231,0.2933,39.9300,62,96,329244
1.8182,0.2933,39.8600,62,96,329248
1.7791,0.2933,39.9600,62,96,329251
1.7693,0.2933,40.0000,62,96,329254
1.7840,0.2981,39.8300,62,96,329259
1.7595,0.2884,39.9600,62,96,329262
1.7693,0.2981,39.8900,62,96,329265
1.7449,0.2884,39.9300,62,96,329269
1.7449,0.2933,40.0000,62,96,329272
1.7595,0.2981,39.8600,62,96,329275
1.7449,0.2933,39.9600,62,96,329278
1.7693,0.2933,39.8300,62,96,329282
1.7546,0.3226,39.9600,62,96,329285
1.7595,0.2884,40.0000,62,96,329288
1.7840,0.3030,39.8300,62,96,329292
1.7889,0.2884,40.1000,62,96,329295
1.8866,0.2981,39.7700,62,96,329298
1.9453,0.2884,39.8900,62,96,329303
2.0968,0.2933,40.0000,62,96,329306
2.1994,0.2933,39.9600,62,96,329309
2.3118,0.3079,40.0000,62,96,329313
2.5171,0.3030,39.7000,62,96,329316
2.6002,0.2933,39.9300,62,96,329319
2.6735,0.2835,39.9300,62,96,329322
2.6931,0.2688,39.9600,62,96,329326
2.5562,0.2884,39.9600,62,96,329329
2.3998,0.3079,39.8600,62,96,329332
2.0968,0.2981,39.9300,62,96,329336
1.8377,0.2884,39.8900,62,96,329339
1.6422,0.2884,39.9600,62,96,329342
1.5200,0.2884,39.9600,62,96,329347
1.4858,0.2981,39.8600,62,96,329350
1.4614,0.2933,39.9300,62,96,329353
1.4907,0.2933,39.8600,62,96,329356
1.5103,0.2933,40.0000,62,96,329360
1.5543,0.2884,40.0000,62,96,329363
1.6031,0.2933,39.9300,62,96,329366
1.6227,0.2981,40.0000,62,96,329370
1.6716,0.2884,39.8600,62,96,329373
1.6569,0.2835,40.0000,62,96,329376
1.6716,0.2933,40.0000,62,96,329380
1.7155,0.2981,40.1300,62,96,329383
1.7058,0.2688,40.0000,62,96,329387
1.7449,0.2933,39.8000,62,96,329391
1.7351,0.2933,40.0300,62,96,329394
1.7302,0.2981,40.0000,62,96,329397
1.7546,0.3030,39.9600,62,96,329400
1.7400,0.2884,40.2000,62,96,329404
1.7889,0.2933,39.7700,62,96,329407
1.7644,0.2884,39.9300,62,96,329410
1.7595,0.2981,40.1000,62,96,329414
1.7791,0.2981,39.9300,62,96,329417
1.7742,0.2884,40.0000,62,96,329420
1.8622,0.3079,39.7300,62,96,329424
1.8231,0.2933,39.8600,62,96,329427
1.8328,0.2933,39.9300,62,96,329431
1.8475,0.2933,40.0300,62,96,329435
1.8573,0.2933,40.0000,62,96,329438
1.9110,0.3079,39.9600,62,96,329441
1.8817,0.2933,40.0600,62,96,329444
1.8866,0.2933,39.8900,62,96,329448
1.8622,0.2933,39.9600,62,96,329451
1.8377,0.2933,40.0300,62,96,329454
1.8573,0.3030,39.8300,62,96,329458
1.8182,0.2933,39.9600,62,96,329461
1.8280,0.2884,39.8600,62,96,329464
1.8035,0.2884,39.2200,62,96,329468
1.8084,0.2981,40.0300,62,96,329472
1.8426,0.2933,39.8900,62,96,329475
1.8280,0.2933,40.1600,62,96,329479
1.8573,0.3226,39.8600,62,96,329482
1.8280,0.2884,39.9300,62,96,329485
1.8328,0.2884,40.0300,62,96,329488
1.8524,0.2933,39.8600,62,96,329492
1.8524,0.2933,40.0000,62,96,329495
1.8964,0.2981,39.7300,62,96,329498
1.8768,0.2884,40.0000,62,96,329502
1.8964,0.2884,40.0000,62,96,329505
1.9208,0.3079,39.9300,62,96,329508
1.9159,0.2933,40.0000,62,96,329512
1.9697,0.3030,39.7000,62,96,329516
1.9501,0.2981,39.8900,62,96,329519
1.9550,0.2933,40.0000,62,96,329522
1.9697,0.2981,40.0300,62,96,329526
1.9697,0.2933,40.0000,62,96,329529
2.0430,0.3079,39.7700,62,96,329532
2.0088,0.2981,39.8600,62,96,329536
2.0088,0.2884,39.9300,62,96,329539
2.0235,0.2933,39.9600,62,96,329542
2.0381,0.2933,40.0000,62,96,329546
2.1017,0.3079,39.8300,62,96,329549
2.0821,0.3030,39.9300,62,96,329552
2.0919,0.2688,39.8900,62,96,329555
2.0870,0.2933,40.0000,62,96,329560
2.1017,0.2835,40.0000,62,96,329563
2.1750,0.3079,39.9300,62,96,329566
2.1408,0.2688,39.9600,62,96,329570
2.1799,0.2933,39.8600,62,96,329573
2.1848,0.2933,40.0000,62,96,329576
2.1994,0.2688,40.0300,62,96,329580
2.2630,0.3030,39.8900,62,96,329583
2.2532,0.2933,39.9600,62,96,329586
2.3021,0.2981,39.8900,62,96,329589
2.2630,0.2884,40.1000,62,96,329593
2.2483,0.3030,40.0300,62,96,329596
2.2336,0.2981,39.8600,62,96,329600
2.1603,0.2933,40.1000,62,96,329604
2.1457,0.2933,39.8300,62,96,329607
2.0821,0.2933,39.9300,62,96,329610
2.0528,0.2884,40.0600,62,96,329614
2.0479,0.3030,39.8900,62,96,329617
2.0039,0.2981,40.0300,62,96,329620
2.0137,0.2981,39.7700,62,96,329623
1.9501,0.2835,39.9300,62,96,329627
1.9208,0.2933,40.0000,62,96,329630
1.9013,0.2981,39.9300,62,96,329633
1.8475,0.2933,40.0600,62,96,329637
1.8573,0.3030,39.6700,62,96,329640
1.7986,0.2981,39.8900,62,96,329644
1.7498,0.2884,40.0000,62,96,329648
1.7204,0.2933,39.9600,62,96,329651
1.6911,0.2933,40.0000,62,96,329654
1.7155,0.3372,39.8600,62,96,329657
1.6667,0.2981,39.9600,62,96,329661
1.6471,0.2884,39.9300,62,96,329664
1.6422,0.2933,40.0000,62,96,329667
1.6178,0.2884,40.0000,62,96,329671
1.6373,0.2981,39.8000,62,96,329674
1.6276,0.2933,40.0000,62,96,329677
1.6178,0.2933,39.9300,62,96,329681
1.5982,0.2933,39.9600,62,96,329684
1.6031,0.2933,40.0000,62,96,329688
1.6178,0.2981,40.0300,62,96,329692
1.6080,0.2933,40.0300,62,96,329695
1.6325,0.3079,39.8600,62,96,329698
1.6129,0.2884,40.0000,62,96,329701
1.6227,0.2884,40.0000,62,96,329705
1.6618,0.3030,39.8600,62,96,329708
1.6667,0.2933,40.0000,62,96,329711
1.7204,0.2933,39.8300,62,96,329715
1.7302,0.2933,39.8900,62,96,329718
1.7204,0.2884,40.0000,62,96,329721
1.7253,0.2884,39.8900,62,96,329725
1.7009,0.2884,40.0000,62,96,329729
1.7400,0.2981,39.8000,62,96,329732
1.7155,0.3226,39.9300,62,96,329735
1.7107,0.2884,40.0000,62,96,329739
1.7107,0.2981,40.1000,62,96,329742
1.6862,0.2933,40.0000,62,96,329745
1.7204,0.3030,39.7300,62,96,329749
1.6716,0.2884,39.8900,62,96,329752
1.6618,0.2688,39.9600,62,96,329755
1.6667,0.2933,40.1000,62,96,329759
1.6911,0.2933,40.0300,62,96,329762
1.7302,0.3079,39.8300,62,96,329765
1.7107,0.2981,39.9300,62,96,329769
1.7204,0.2933,39.9300,62,96,329773
1.7204,0.2884,40.0300,62,96,329776
1.7302,0.2933,40.0000,62,96,329779
1.7742,0.2981,39.8300,62,96,329783
1.7546,0.3226,39.9300,62,96,329786
1.7742,0.2688,39.8600,62,96,329789
1.7546,0.2933,39.9600,62,96,329793
1.7546,0.2933,39.9600,62,96,329796
1.7791,0.2981,39.9300,62,96,329799
1.7595,0.3275,39.9600,62,96,329803
1.7937,0.2884,39.9300,62,96,329806
1.7595,0.2884,40.0000,62,96,329809
1.7644,0.2933,40.0000,62,96,329814
1.7791,0.2933,39.8900,62,96,329817
1.7693,0.2933,39.9300,62,96,329820
1.7986,0.2933,39.8000,62,96,329823
1.7693,0.2933,40.0000,62,96,329827
1.7742,0.2933,39.9600,62,96,329830
1.7840,0.2981,39.9300,62,96,329833
1.8622,0.2933,40.0600,62,96,329838
1.8719,0.2933,39.9600,62,96,329841
1.9453,0.2884,39.8300,62,96,329845
1.8573,0.3275,40.0000,62,96,329848
1.8280,0.2933,39.8900,62,96,329851
1.8035,0.2933,39.9600,62,96,329856
1.7840,0.2884,39.9300,62,96,329859
1.7986,0.3079,39.8600,62,96,329862
1.7449,0.2933,39.9600,62,96,329866
1.7400,0.2981,39.8600,62,96,329869
1.7155,0.2884,39.9600,62,96,329872
1.7107,0.2884,40.0000,62,96,329875
1.7253,0.2933,39.8900,62,96,329879
1.7253,0.2933,39.9600,62,96,329882
1.7546,0.2981,39.8900,62,96,329885
1.7351,0.2933,40.0000,62,96,329889
1.7449,0.2884,40.1000,62,96,329892
1.7791,0.2933,39.8900,62,96,329895
1.7693,0.2933,39.9600,62,96,329900
1.8084,0.2981,39.8000,62,96,329903
1.7889,0.2933,39.9600,62,96,329906
1.7889,0.2884,40.0600,62,96,329910
1.8182,0.2981,39.9600,62,96,329913
1.7937,0.2933,39.9600,62,96,329916
1.8377,0.3030,39.7700,62,96,329919
1.8035,0.2933,40.0300,62,96,329923
1.7986,0.2933,40.1000,62,96,329926
1.8280,0.2884,39.9600,62,96,329929
1.8084,0.2884,40.0000,62,96,329933
1.8573,0.3079,39.8300,62,96,329936
1.8231,0.2884,39.8900,62,96,329939
1.8084,0.2884,39.8900,62,96,329944
1.8035,0.2933,40.0000,62,96,329947
1.8035,0.2884,40.0600,62,96,329950
1.8426,0.3226,39.8900,62,96,329954
1.8084,0.2884,39.9600,62,96,329957
1.8133,0.2933,39.9300,62,96,329960
1.8328,0.2981,40.0000,62,96,329963
1.8035,0.2884,39.9600,62,96,329967
1.8475,0.2981,39.8600,62,96,329970
1.8377,0.2933,39.9600,62,96,329973
1.8817,0.3030,39.8600,62,96,329977
1.8768,0.3226,40.1000,62,96,329980
1.8817,0.2884,40.0000,62,96,329984
1.9062,0.2933,40.1300,62,96,329988
1.8622,0.2981,39.9600,62,96,329991
1.8573,0.2933,39.8600,62,96,329994
1.8035,0.2933,39.9300,62,96,329998
1.7889,0.2884,39.9600,62,96,330001
1.7889,0.2933,39.8300,62,96,330004
1.7986,0.2933,39.9600,62,96,330007
1.7986,0.2981,39.8000,62,96,330011
1.7595,0.3177,39.9300,62,96,330014
1.7889,0.2933,40.0000,62,96,330017
1.7840,0.2981,39.9600,62,96,330021
1.7742,0.2933,39.9600,62,96,330024
1.8231,0.3030,39.7300,62,96,330028
1.8035,0.2933,39.9300,62,96,330032
1.7937,0.2933,40.0000,62,96,330035
1.8035,0.2981,39.9600,62,96,330038
1.7986,0.3030,40.0000,62,96,330042
1.8622,0.3079,39.8000,62,96,330045
1.8231,0.2981,39.8300,62,96,330048
1.8133,0.3030,39.9300,62,96,330051
1.8182,0.2933,39.9600,62,96,330055
1.8133,0.2884,40.0300,62,96,330058
1.8426,0.2981,39.8900,62,96,330061
1.8231,0.2933,39.9600,62,96,330065
1.8328,0.2933,39.8900,62,96,330068
1.8133,0.2884,39.6400,62,96,330072
1.8133,0.2884,40.0000,62,96,330076
1.8377,0.2933,39.1200,62,96,330079
1.8280,0.2884,40.0300,62,96,330082
1.8573,0.2981,39.8900,62,96,330086
1.8231,0.2835,39.9600,62,96,330089
1.8280,0.2933,40.0000,62,96,330092
1.8573,0.2981,40.0000,62,96,330095
1.8426,0.2933,39.9600,62,96,330099
1.8866,0.2933,39.8300,62,96,330102
1.8866,0.2981,39.8900,62,96,330105
1.9013,0.2884,40.0000,62,96,330109
1.9355,0.3030,39.9300,62,96,330113
1.9062,0.2981,40.0000,62,96,330116
1.9453,0.2981,39.7700,62,96,330120
1.9110,0.2933,39.9300,62,96,330123
1.9110,0.2688,40.0300,62,96,330126
1.9110,0.2981,39.9600,62,96,330130
1.9257,0.2933,40.0000,62,96,330133
1.9404,0.3079,39.7300,62,96,330136
1.9110,0.3470,39.8600,62,96,330139
1.9355,0.2933,39.9300,62,96,330143
1.9110,0.2933,39.9600,62,96,330146
1.9208,0.2981,40.0000,62,96,330149
1.9746,0.3079,39.8300,62,96,330153
1.9501,0.2933,39.8600,62,96,330157
1.9599,0.2933,39.9300,62,96,330160
1.9550,0.2933,40.0300,62,96,330164
1.9550,0.2884,40.0300,62,96,330167
1.9844,0.2981,39.8300,62,96,330170
1.9404,0.2933,39.9600,62,96,330174
1.9355,0.3030,39.8900,62,96,330177
1.8866,0.2884,40.0000,62,96,330180
1.8719,0.2884,40.0000,62,96,330183
1.8719,0.3079,39.8900,62,96,330187
1.8377,0.2688,39.9600,62,96,330190
1.8426,0.2933,39.8900,62,96,330193
1.7889,0.2933,40.0000,62,96,330198
1.7791,0.2884,40.0300,62,96,330201
1.7693,0.2933,39.8600,62,96,330204
1.7742,0.2884,40.0000,62,96,330208
1.7644,0.2981,39.8300,62,96,330211
1.7253,0.2933,40.0000,62,96,330214
1.7351,0.2884,40.0000,62,96,330218
1.7498,0.3030,39.9300,62,96,330221
1.7400,0.2688,39.9600,62,96,330224
1.7742,0.3030,39.7700,62,96,330227
1.7498,0.2981,39.9600,62,96,330231
1.7302,0.2933,40.0000,62,96,330234
1.7400,0.2981,39.9600,62,96,330237
1.7400,0.2884,40.0000,62,96,330242
1.8182,0.3079,39.7700,62,96,330245
1.8524,0.3226,39.8600,62,96,330248
1.9892,0.2884,39.9300,62,96,330252
2.0870,0.2933,40.0000,62,96,330255
2.2092,0.2835,39.9600,62,96,330258
2.3851,0.2981,39.8300,62,96,330261
2.4731,0.2981,40.0300,62,96,330265
2.5758,0.2933,39.8900,62,96,330268
2.6100,0.2933,40.0000,62,96,330271
2.5709,0.2884,40.0000,62,96,330275
2.4389,0.3030,39.9300,62,96,330278
2.2190,0.2884,40.0000,62,96,330281
1.9746,0.2981,39.8600,62,96,330286
1.7449,0.3079,40.0300,62,96,330289
1.6129,0.2884,40.0000,62,96,330292
1.5494,0.3030,39.8600,62,96,330295
1.4956,0.2933,39.8900,62,96,330299
1.5249,0.2933,39.8600,62,96,330302
1.5103,0.2884,39.8600,62,96,330305
1.5445,0.2933,40.0000,62,96,330309
1.5934,0.2981,39.8600,62,96,330312
1.6129,0.2933,40.0300,62,96,330315
1.6667,0.2981,39.8000,62,96,330319
1.6618,0.2933,39.9300,62,96,330322
1.6716,0.2884,40.0000,62,96,330326
1.6960,0.2981,40.0000,62,96,330330
1.6911,0.2933,39.9300,62,96,330333
1.7498,0.2933,39.7300,62,96,330336
1.7107,0.2933,39.9300,62,96,330340
1.7155,0.2884,40.0000,62,96,330343
1.7155,0.2933,40.0000,62,96,330346
1.7302,0.2688,39.9600,62,96,330349
1.7889,0.3079,39.8600,62,96,330353
1.7498,0.2981,39.9300,62,96,330356
1.7498,0.2688,39.8900,62,96,330359
1.7449,0.2884,39.8900,62,96,330363
1.7498,0.2884,40.0000,62,96,330366
1.7840,0.3030,39.8600,62,96,330370
1.7693,0.2981,39.9300,62,96,330374
1.7840,0.2933,39.8600,62,96,330377
1.7840,0.2933,40.2000,62,96,330380
1.8133,0.2933,40.0000,62,96,330383
1.8671,0.3030,39.5400,62,96,330387
1.8671,0.2884,39.9600,62,96,330390
1.9062,0.2981,39.9600,62,96,330393
1.8622,0.2933,40.0300,62,96,330397
1.8475,0.2933,40.0000,62,96,330400
1.8377,0.2933,39.8900,62,96,330403
1.8133,0.3079,40.0000,62,96,330407
1.8328,0.2933,39.8300,62,96,330411
1.7937,0.2933,39.9600,62,96,330414
1.7937,0.2884,40.0000,62,96,330418
1.8035,0.3030,39.9300,62,96,330421
1.7986,0.2933,40.0000,62,96,330424
1.8426,0.2981,39.7700,62,96,330428
1.8280,0.3030,39.8900,62,96,330431
1.8426,0.2884,40.0000,62,96,330434
1.8573,0.2981,39.9300,62,96,330437
1.8573,0.2884,40.0000,62,96,330441
1.9257,0.3079,39.1600,62,96,330444
1.9501,0.3030,39.8900,62,96,330449
1.9453,0.2884,39.9600,62,96,330452
1.9697,0.2933,39.0900,62,96,330456
1.9599,0.2933,40.0300,62,96,330460
1.9746,0.2884,40.0000,62,96,330463
1.9990,0.3177,39.9300,62,96,330466
1.9990,0.2884,39.9600,62,96,330470
2.0381,0.2981,39.9300,62,96,330473
2.0235,0.2933,39.9600,62,96,330476
2.0283,0.2688,40.0000,62,96,330480
2.0674,0.2981,39.9300,62,96,330483
2.0626,0.2933,39.9600,62,96,330486
2.0821,0.2884,39.8000,62,96,330489
2.0821,0.2933,39.9600,62,96,330493
2.0919,0.2884,40.0300,62,96,330497
2.1408,0.3030,39.8900,62,96,330500
2.1457,0.2884,39.9600,62,96,330504
2.2239,0.3030,39.8000,62,96,330507
2.2141,0.2933,39.8900,62,96,330510
2.2190,0.2884,40.0000,62,96,330514
2.2385,0.2981,40.1000,62,96,330517
2.2190,0.2933,40.0000,62,96,330520
2.2727,0.3030,39.7000,62,96,330523
2.2141,0.2933,39.9600,62,96,330527
2.2043,0.2933,39.9600,62,96,330530
2.2043,0.2933,39.9600,62,96,330533
2.1848,0.2933,40.0000,62,96,330537
2.2092,0.3079,39.8300,62,96,330541
2.1359,0.2981,39.9600,62,96,330544
2.0919,0.2884,39.8900,62,96,330548
2.0479,0.2933,40.0000,62,96,330551
2.0186,0.2884,40.0300,62,96,330554
2.0283,0.3030,39.8000,62,96,330558
1.9697,0.2933,39.9600,62,96,330561
1.9550,0.2933,40.1300,62,96,330564
1.8964,0.3030,39.9600,62,96,330567
1.8622,0.2884,40.0000,62,96,330571
1.8475,0.3030,39.8600,62,96,330574
1.7937,0.2835,39.9600,62,96,330577
1.7840,0.3030,39.8900,62,96,330582
1.7302,0.2933,39.9600,62,96,330585
1.7058,0.3226,40.0000,62,96,330588
1.6862,0.2933,39.9300,62,96,330592
1.6569,0.2933,40.0000,62,96,330595
1.6618,0.2933,39.8300,62,96,330598
1.6325,0.2933,40.0300,62,96,330601
1.6129,0.2933,40.1000,62,96,330605
1.6227,0.3030,39.8900,62,96,330608
1.5982,0.2933,40.0000,62,96,330611
1.6325,0.3030,39.7700,62,96,330615
1.5982,0.2933,40.1000,62,96,330618
1.6031,0.2933,40.0000,62,96,330621
1.6227,0.2981,39.9300,62,96,330626
1.6080,0.2933,40.0300,62,96,330629
1.6618,0.3079,39.7300,62,96,330632
1.6373,0.2933,39.9600,62,96,330636
1.6373,0.2884,39.9300,62,96,330639
1.6618,0.2933,39.9600,62,96,330642
1.6813,0.2884,40.0000,62,96,330645
1.7546,0.2981,39.8600,62,96,330649
1.7449,0.2981,39.8000,62,96,330652
1.7400,0.3177,39.8900,62,96,330655
1.7204,0.2688,40.0300,62,96,330659
1.6960,0.2981,40.0000,62,96,330662
1.7107,0.3079,39.9300,62,96,330665
1.6862,0.2933,39.9600,62,96,330670
1.7009,0.3030,39.8300,62,96,330673
1.6764,0.2688,40.0000,62,96,330676
1.6716,0.2884,40.0000,62,96,330680
1.6911,0.2981,39.8900,62,96,330683
1.6667,0.2933,40.0600,62,96,330686
1.6960,0.3226,39.8600,62,96,330689
1.7058,0.2884,39.9300,62,96,330693
1.6911,0.2884,40.0000,62,96,330696
1.7302,0.2981,39.8600,62,96,330699
1.7253,0.2933,40.0300,62,96,330703
1.7693,0.2981,39.8300,62,96,330706
1.7498,0.2933,39.9300,62,96,330710
1.7546,0.2884,40.0300,62,96,330714
1.7791,0.2981,39.9300,62,96,330717
1.7644,0.2933,40.0000,62,96,330720
1.8084,0.3030,39.7700,62,96,330724
1.7644,0.2884,39.9300,62,96,330727
1.7693,0.2884,40.2300,62,96,330730
1.7791,0.2884,39.9300,62,96,330733
1.7693,0.3079,40.0300,62,96,330737
1.8622,0.2981,39.7700,62,96,330740
1.7986,0.3030,39.9300,62,96,330743
1.7840,0.2884,40.0000,62,96,330747
1.7840,0.2933,39.9600,62,96,330750
1.7791,0.2884,40.0000,62,96,330754
1.8133,0.3030,39.8000,62,96,330758
1.7889,0.3030,39.9300,62,96,330761
1.8035,0.2933,39.8900,62,96,330764
1.7889,0.2933,39.9600,62,96,330768
1.7986,0.2933,40.0000,62,96,330771
1.8426,0.2981,39.8000,62,96,330774
1.8475,0.3030,39.9600,62,96,330777
1.9159,0.2981,39.8300,62,96,330781
1.8622,0.2933,40.0000,62,96,330784
1.8573,0.2981,40.0000,62,96,330787
1.8426,0.2884,39.8900,62,96,330791
1.8084,0.2933,39.8600,62,96,330795
1.8084,0.2933,39.8300,62,96,330798
1.7693,0.2933,39.9600,62,96,330802
1.7644,0.2933,40.0000,62,96,330805
1.7644,0.2981,39.9600,62,96,330808
1.7400,0.2981,39.9600,62,96,330812
1.7791,0.2981,39.7700,62,96,330815
1.7595,0.2981,39.8600,62,96,330818
1.7546,0.2933,39.9600,62,96,330821
1.7644,0.2981,40.0600,62,96,330825
1.7449,0.3079,40.0300,62,96,330828
1.7937,0.3030,39.7000,62,96,330831
1.7449,0.2933,39.8600,62,96,330835
1.7449,0.2884,39.9600,62,96,330839
1.7546,0.2933,39.9600,62,96,330842
1.7546,0.2933,40.0000,62,96,330846
1.8182,0.3079,39.8000,62,96,330849
1.7791,0.2981,39.9600,62,96,330852
1.7791,0.3128,39.8900,62,96,330855
1.7791,0.2933,40.0000,62,96,330859
1.7889,0.2933,40.0000,62,96,330862
1.8133,0.3030,39.8900,62,96,330865
1.7986,0.2933,40.1000,62,96,330869
1.8133,0.2884,39.8600,62,96,330872
1.7937,0.2933,40.1000,62,96,330875
1.7986,0.2884,39.9600,62,96,330880
1.8280,0.2981,39.8300,62,96,330883
1.8035,0.2933,39.9600,62,96,330886
1.8280,0.3324,39.8600,62,96,330890
1.7986,0.2884,39.9300,62,96,330893
1.7986,0.2884,40.0000,62,96,330896
1.8328,0.3030,39.8900,62,96,330899
1.8231,0.2933,40.0000,62,96,330903
1.8426,0.2933,39.8600,62,96,330906
1.8280,0.2933,39.9300,62,96,330909
1.8377,0.2933,40.0300,62,96,330913
1.8719,0.3030,39.8900,62,96,330916
1.8671,0.2933,40.0000,62,96,330919
1.9306,0.2981,39.0600,62,96,330924
1.8915,0.2933,39.9300,62,96,330927
1.8817,0.2884,40.0000,62,96,330930
1.8719,0.3177,39.9300,62,96,330934
1.8377,0.2884,40.0000,62,96,330937
1.8671,0.3275,39.7700,62,96,330940
1.8035,0.2981,39.9300,62,96,330944
1.7644,0.2884,39.9600,62,96,330947
1.7546,0.2933,39.9600,62,96,330950
1.7400,0.2884,40.1600,62,96,330953
1.7791,0.3177,39.8300,62,96,330957
1.7546,0.2981,39.9600,62,96,330960
1.7595,0.2933,39.8600,62,96,330963
1.7498,0.2933,40.0000,62,96,330968
1.7644,0.2884,40.0600,62,96,330971
1.7986,0.3030,39.8600,62,96,330974
1.8231,0.2933,39.9600,62,96,330978
1.8280,0.2981,39.8900,62,96,330981
1.8035,0.2933,40.0000,62,96,330984
1.8133,0.2884,40.0000,62,96,330987
1.8280,0.2933,40.0000,62,96,330991
1.8182,0.2835,40.0000,62,96,330994
1.8475,0.2933,39.8600,62,96,330997
1.8182,0.2933,39.9600,62,96,331001
1.8231,0.2884,40.0000,62,96,331004
1.8328,0.3372,39.8300,62,96,331008
1.8084,0.2933,40.0000,62,96,331012
1.8426,0.2981,39.8000,62,96,331015
1.8573,0.2884,39.8900,62,96,331018
1.8133,0.2884,40.0000,62,96,331022
1.8328,0.3030,39.9300,62,96,331025
1.8182,0.2933,40.0300,62,96,331028
1.8573,0.3079,39.7000,62,96,331032
1.8231,0.2933,39.9300,62,96,331035
1.8182,0.2884,40.0300,62,96,331038
1.8328,0.2933,39.9600,62,96,331041
1.8231,0.2884,39.6000,62,96,331045
1.8915,0.3079,39.8000,62,96,331048
1.8719,0.2981,39.9300,62,96,331052
1.8866,0.2884,39.8900,62,96,331056
1.9208,0.2884,39.9600,62,96,331059
1.8377,0.2884,40.0000,62,96,331064
1.8426,0.2884,40.0300,62,96,331067
1.8671,0.2981,39.8900,62,96,331070
1.8280,0.2933,40.0300,62,96,331074
1.8328,0.2933,39.8000,62,96,331077
1.8035,0.2933,39.9300,62,96,331080
1.8035,0.2884,39.9600,62,96,331084
1.8377,0.3030,39.8600,62,96,331087
1.8475,0.2884,40.0000,62,96,331090
1.9062,0.2981,39.7700,62,96,331094
1.9062,0.3177,39.9600,62,96,331098
1.9306,0.2884,40.0000,62,96,331101
1.9599,0.2981,39.9300,62,96,331104
1.9648,0.2933,39.9300,62,96,331108
2.0332,0.2981,39.7300,62,96,331111
1.9990,0.2933,40.0300,62,96,331114
1.9990,0.3128,40.1000,62,96,331118
2.0039,0.2688,39.9600,62,96,331121
1.9844,0.2884,40.0000,62,96,331124
2.0186,0.3079,39.7700,62,96,331127
1.9550,0.2933,39.9300,62,96,331131
1.9110,0.2884,39.3500,62,96,331134
1.9013,0.2933,39.9600,62,96,331138
1.8622,0.2884,39.9600,62,96,331142
1.8671,0.3030,39.8600,62,96,331145
1.8182,0.2981,39.8300,62,96,331148
1.7986,0.2933,39.8900,62,96,331152
1.7644,0.2933,40.0000,62,96,331155
1.7498,0.2884,40.0300,62,96,331158
1.7693,0.2981,39.8900,62,96,331162
1.7400,0.2933,39.8900,62,96,331165
1.7595,0.2981,39.8900,62,96,331168
1.7351,0.2933,40.0300,62,96,331171
1.7449,0.2981,40.0000,62,96,331175
1.7986,0.2884,39.9300,62,96,331179
1.7693,0.2933,40.0000,62,96,331182
1.8035,0.2933,39.9300,62,96,331186
1.7986,0.2933,40.0000,62,96,331189
1.8182,0.2884,40.2000,62,96,331192
1.8328,0.3030,39.9300,62,96,331196
1.8035,0.2933,40.0000,62,96,331199
1.8377,0.2981,39.8000,62,96,331202
1.8475,0.2933,39.8900,62,96,331206
1.9062,0.2884,40.0000,62,96,331209
2.0332,0.2933,39.9600,62,96,331212
2.1701,0.2688,40.0000,62,96,331215
2.3998,0.3030,39.7000,62,96,331219
2.4976,0.2933,39.8600,62,96,331223
2.5709,0.2884,39.9600,62,96,331226
2.5709,0.2933,39.9600,62,96,331230
2.4194,0.2884,39.9300,62,96,331233
2.2581,0.3079,39.8000,62,96,331236
1.9892,0.2981,39.9300,62,96,331240
1.7889,0.2933,39.8900,62,96,331243
1.6471,0.2933,40.0000,62,96,331246
1.5640,0.2981,39.9600,62,96,331250
1.5494,0.3030,39.9300,62,96,331253
1.5249,0.2884,39.1600,62,96,331256
1.5543,0.2981,39.8600,62,96,331259
1.5689,0.2933,39.9300,62,96,331264
1.6031,0.2933,40.0000,62,96,331267
1.6520,0.3030,39.8900,62,96,331270
1.6471,0.3177,39.9600,62,96,331274
1.6813,0.2981,39.8900,62,96,331277
1.6618,0.2884,39.9300,62,96,331280
1.6813,0.2933,40.0000,62,96,331284
1.7009,0.3030,39.8600,62,96,331287
1.6911,0.2981,40.0000,62,96,331290
1.7253,0.2981,39.8000,62,96,331294
1.7009,0.3030,39.8600,62,96,331297
1.7009,0.2884,40.0000,62,96,331300
1.7302,0.2981,39.8900,62,96,331303
1.7204,0.2884,40.0000,62,96,331308
1.7693,0.2981,39.8000,62,96,331311
1.7498,0.2884,39.9300,62,96,331314
1.7742,0.2884,39.7300,62,96,331318
1.7986,0.2933,40.0000,62,96,331321
1.8084,0.2933,39.9300,62,96,331324
1.8719,0.3079,39.7300,62,96,331328
1.8328,0.2981,39.9600,62,96,331331
1.8133,0.2884,39.8900,62,96,331334
1.7986,0.2933,40.0000,62,96,331338
1.7840,0.2884,39.9600,62,96,331341
1.8182,0.3030,39.8300,62,96,331344
1.7742,0.2981,39.9600,62,96,331347
1.7498,0.3226,39.8600,62,96,331352
1.7302,0.2884,40.0000,62,96,331355
1.7302,0.2933,40.1000,62,96,331358
1.7937,0.2981,39.8600,62,96,331362
1.7742,0.2933,39.9600,62,96,331365
1.8084,0.2981,39.8900,62,96,331368
1.8182,0.2688,40.0000,62,96,331372
1.8084,0.2933,40.0300,62,96,331375
1.8475,0.2933,39.8900,62,96,331378
1.8328,0.2884,39.1900,62,96,331382
1.8719,0.2933,39.8600,62,96,331385
1.8573,0.2933,40.0000,62,96,331388
1.8671,0.2884,40.0000,62,96,331392
1.8964,0.2981,39.9600,62,96,331396
1.8817,0.2933,39.9300,62,96,331399
1.9257,0.2981,39.7700,62,96,331402
1.9110,0.3079,39.8900,62,96,331406
1.9062,0.2933,40.0300,62,96,331409
1.9257,0.3030,39.9300,62,96,331412
1.9257,0.2933,40.0000,62,96,331416
1.9795,0.3030,39.6700,62,96,331419
1.9550,0.2981,39.8900,62,96,331422
1.9599,0.2835,39.9600,62,96,331426
1.9795,0.2933,39.9600,62,96,331429
1.9844,0.2884,40.0000,62,96,331432
2.0479,0.3079,39.8300,62,96,331436
2.0137,0.2981,39.9300,62,96,331440
2.0528,0.2933,39.9300,62,96,331443
2.0235,0.2933,40.0300,62,96,331446
2.0479,0.2835,40.0000,62,96,331450
2.1310,0.3030,39.8900,62,96,331453
2.1359,0.2933,39.9600,62,96,331456
2.1848,0.2933,39.8900,62,96,331460
2.1750,0.2933,40.0600,62,96,331463
2.1799,0.2884,39.9600,62,96,331466
2.2092,0.3030,39.8600,62,96,331470
2.1701,0.2933,39.9300,62,96,331473
2.1848,0.3030,39.8600,62,96,331476
2.1457,0.2884,40.0000,62,96,331480
2.1310,0.2933,39.9300,62,96,331484
2.1457,0.3030,39.8900,62,96,331487
2.1457,0.2933,39.9600,62,96,331490
2.1799,0.2933,39.8000,62,96,331494
2.1603,0.2933,39.9300,62,96,331497
2.1603,0.2884,40.1600,62,96,331500
2.1799,0.3030,39.8900,62,96,331504
2.1457,0.2884,40.0000,62,96,331507
2.1701,0.2981,39.8000,62,96,331510
2.1017,0.3079,39.9300,62,96,331513
2.0919,0.2933,40.0000,62,96,331517
2.0723,0.2981,39.9300,62,96,331521
2.0332,0.2981,40.0300,62,96,331524
2.0528,0.3079,39.7000,62,96,331528
1.9795,0.2981,39.8900,62,96,331531
1.9306,0.2884,40.0000,62,96,331534
1.8915,0.2933,39.9600,62,96,331538
1.8475,0.2884,40.0000,62,96,331541
1.8573,0.3079,39.8900,62,96,331544
1.7889,0.2981,39.8900,62,96,331548
1.7400,0.2884,39.9300,62,96,331551
1.6960,0.2933,39.9600,62,96,331554
1.6667,0.2884,40.0000,62,96,331557
1.6716,0.3030,39.8600,62,96,331561
1.6569,0.3030,39.9600,62,96,331565
1.6276,0.2933,39.8600,62,96,331568
1.6080,0.2981,40.0000,62,96,331572
1.6080,0.2933,39.9600,62,96,331575
1.6129,0.2981,40.0000,62,96,331578
1.6031,0.3030,40.0000,62,96,331582
1.6325,0.3030,39.8600,62,96,331585
1.6227,0.2933,40.0000,62,96,331588
1.6520,0.2884,40.0300,62,96,331591
1.7351,0.3030,39.8900,62,96,331595
1.7058,0.2933,40.0000,62,96,331598
1.7302,0.2933,39.8300,62,96,331601
1.6960,0.2933,39.9300,62,96,331606
1.6618,0.3177,40.0300,62,96,331609
1.6422,0.3030,39.9600,62,96,331612
1.5982,0.2933,40.1600,62,96,331616
1.6325,0.2981,39.7700,62,96,331619
1.6227,0.2933,39.9300,62,96,331622
1.6373,0.2981,40.0000,62,96,331626
1.6618,0.2981,39.9600,62,96,331629
1.6422,0.2933,40.0000,62,96,331632
1.6764,0.3128,39.6400,62,96,331635
1.6325,0.2884,39.8600,62,96,331639
1.6325,0.3079,39.9300,62,96,331642
1.6471,0.2933,40.0300,62,96,331645
1.6667,0.2835,39.9600,62,96,331650
1.7302,0.3079,39.8300,62,96,331653
1.7204,0.2981,40.0000,62,96,331656
1.7253,0.2933,39.8900,62,96,331660
1.7253,0.2933,40.0600,62,96,331663
1.7351,0.2933,40.0000,62,96,331666
1.7791,0.3030,39.8600,62,96,331670
1.7889,0.2933,39.8600,62,96,331674
1.7742,0.2933,39.9600,62,96,331678
1.8377,0.2933,39.8300,62,96,331681
1.7791,0.2933,39.9300,62,96,331684
1.8084,0.2981,39.9600,62,96,331688
1.7986,0.2933,39.7700,62,96,331692
1.7840,0.2933,40.0000,62,96,331695
1.8231,0.2981,39.7300,62,96,331698
1.7840,0.2884,39.9300,62,96,331702
1.7889,0.2884,40.0000,62,96,331705
1.8035,0.2981,40.0600,62,96,331708
1.7986,0.2884,40.0000,62,96,331712
1.8622,0.3079,39.7300,62,96,331715
1.8426,0.2981,39.8900,62,96,331718
1.8573,0.2933,39.9300,62,96,331722
1.8524,0.2884,39.9600,62,96,331725
1.8573,0.2688,39.9600,62,96,331728
1.8964,0.3030,39.0300,62,96,331732
1.8475,0.2933,40.0000,62,96,331736
1.8182,0.2933,39.8900,62,96,331739
1.7644,0.2933,39.4100,62,96,331742
1.7351,0.2933,40.0000,62,96,331746
1.7449,0.2981,39.9300,62,96,331749
1.7204,0.2933,39.9600,62,96,331752
1.7498,0.2981,39.8600,62,96,331756
1.7302,0.2933,40.0300,62,96,331759
1.7400,0.2933,40.0000,62,96,331762
1.7595,0.2933,39.8900,62,96,331766
1.7644,0.3275,40.0000,62,96,331769
1.7986,0.2688,39.8600,62,96,331772
1.7791,0.2933,39.9600,62,96,331777
1.7889,0.2884,39.9600,62,96,331780
1.8084,0.2981,39.8000,62,96,331783
1.8035,0.2981,40.0000,62,96,331786
1.8280,0.2981,39.8000,62,96,331790
1.8084,0.2981,39.8600,62,96,331793
1.8035,0.2884,40.0300,62,96,331796
1.8231,0.2981,39.9600,62,96,331800
1.8084,0.2933,40.1300,62,96,331803
1.8524,0.3079,39.7300,62,96,331806
1.8182,0.2933,39.0900,62,96,331810
1.8133,0.2884,40.0000,62,96,331813
1.8280,0.2688,39.9300,62,96,331816
1.8133,0.2884,39.9600,62,96,331820
1.8671,0.3030,39.7300,62,96,331824
1.8280,0.2981,39.8900,62,96,331827
1.8182,0.2884,39.9300,62,96,331830
1.8133,0.2933,39.9600,62,96,331834
1.8133,0.2981,39.9600,62,96,331837
1.8426,0.3030,39.9600,62,96,331840
1.8182,0.2933,39.8300,62,96,331844
1.8377,0.2933,39.8600,62,96,331847
1.8231,0.2981,40.0000,62,96,331850
1.8671,0.2933,40.0000,62,96,331854
1.8915,0.3030,39.8600,62,96,331857
1.8817,0.2884,39.9600,62,96,331860
1.9257,0.2981,39.8900,62,96,331865
1.8915,0.2884,39.9300,62,96,331868
1.8817,0.2933,40.0000,62,96,331871
1.8622,0.3177,39.8600,62,96,331874
1.8377,0.2981,40.0000,62,96,331878
1.8377,0.2981,39.8000,62,96,331881
1.8084,0.2933,39.9600,62,96,331884
1.8182,0.2884,40.0000,62,96,331888
1.8231,0.2981,40.0300,62,96,331891
1.7986,0.2933,39.9600,62,96,331894
1.8328,0.3030,39.7700,62,96,331898
1.7791,0.2981,39.9300,62,96,331901
1.7742,0.2884,40.0000,62,96,331905
1.7742,0.2933,39.8600,62,96,331909
1.7693,0.2884,40.0000,62,96,331912
1.8280,0.3079,39.7300,62,96,331915
1.8035,0.2981,39.8900,62,96,331918
1.7986,0.2884,39.9300,62,96,331922
1.8035,0.2981,39.9600,62,96,331925
1.8084,0.2884,40.0300,62,96,331928
1.8573,0.3030,39.8300,62,96,331932
1.8328,0.2933,39.9600,62,96,331935
1.8426,0.2933,39.8900,62,96,331938
1.8280,0.2835,39.9600,62,96,331942
1.8328,0.2884,40.0000,62,96,331945
1.8573,0.3275,39.8600,62,96,331949
1.8475,0.2884,39.9600,62,96,331953
1.8671,0.2981,39.8600,62,96,331956
1.8377,0.2981,39.9600,62,96,331959
1.8426,0.2884,40.0000,62,96,331963
1.8475,0.3079,39.8900,62,96,331966
1.8280,0.2884,39.9600,62,96,331969
1.8622,0.2933,39.8600,62,96,331972
1.8622,0.2933,40.0300,62,96,331976
1.8866,0.2884,39.2200,62,96,331979
1.9257,0.3030,39.9300,62,96,331982
1.9159,0.2933,40.0000,62,96,331986
1.9648,0.2981,39.7300,62,96,331990
1.9355,0.2981,39.8900,62,96,331993
1.8964,0.2884,40.1300,62,96,331997
1.8768,0.2981,39.9300,62,96,332000
1.8231,0.2933,40.0000,62,96,332003
1.8475,0.3372,39.7700,62,96,332007
1.8035,0.2933,40.1600,62,96,332010
1.7986,0.2884,39.9300,62,96,332013
1.8182,0.2884,39.9600,62,96,332016
1.8182,0.2933,40.0000,62,96,332020
1.8719,0.3079,39.8000,62,96,332023
1.8328,0.2884,39.9300,62,96,332026
1.8280,0.2884,39.9300,62,96,332030
1.8231,0.2933,39.9600,62,96,332034
1.8377,0.2884,39.4100,62,96,332037
1.8817,0.2981,39.8900,62,96,332041
1.8817,0.2933,39.9600,62,96,332044
1.9208,0.2933,39.8900,62,96,332047
1.9208,0.2933,40.0000,62,96,332051
1.9501,0.2884,39.8300,62,96,332054
2.0039,0.3079,39.8600,62,96,332057
1.9941,0.2933,39.9600,62,96,332060
2.0332,0.2933,39.8600,62,96,332064
1.9990,0.2933,39.9300,62,96,332067
2.0039,0.2884,40.0000,62,96,332070
2.0137,0.3030,39.8600,62,96,332075
2.0137,0.2981,40.0000,62,96,332078
1.9795,0.2933,39.8000,62,96,332081
1.9306,0.2933,39.8900,62,96,332085
1.9013,0.2933,39.9600,62,96,332088
1.8964,0.2884,39.8900,62,96,332091
1.8573,0.2933,40.0000,62,96,332094
1.8768,0.3030,39.8000,62,96,332098
1.8035,0.2884,39.9300,62,96,332101
1.7889,0.2884,40.1300,62,96,332104
1.8035,0.3030,39.9600,62,96,332108
1.7546,0.2884,40.0000,62,96,332111
1.8084,0.3372,39.6700,62,96,332114
1.7937,0.2981,39.8900,62,96,332119
1.7889,0.2884,39.2800,62,96,332122
1.8280,0.2933,40.0300,62,96,332125
1.8231,0.2884,40.0300,62,96,332129
1.8719,0.3030,39.8900,62,96,332132
1.8231,0.2981,39.9300,62,96,332135
1.7840,0.2933,39.8600,62,96,332138
1.7302,0.2981,40.1000,62,96,332142
1.7009,0.2688,40.0300,62,96,332145
1.7058,0.2981,39.8600,62,96,332148
1.6960,0.2835,39.9600,62,96,332152
1.7449,0.2933,39.8300,62,96,332155
1.7937,0.3275,40.0300,62,96,332158
1.9110,0.2884,40.0000,62,96,332163
2.0577,0.2933,40.0000,62,96,332166
2.2043,0.2981,40.0600,62,96,332169
2.4096,0.2933,39.8600,62,96,332172
2.5269,0.2933,40.0000,62,96,332176
2.6197,0.2884,40.0000,62,96,332179
2.6393,0.2933,39.8900,62,96,332182
2.4731,0.2933,39.9600,62,96,332186
2.2923,0.2933,39.7700,62,96,332189
2.0430,0.2688,39.8900,62,96,332192
1.8280,0.2884,40.0600,62,96,332196
1.6960,0.3030,39.8900,62,96,332199
1.5738,0.2884,40.0300,62,96,332203
1.5689,0.2981,39.8000,62,96,332207
1.5347,0.2933,39.9300,62,96,332210
1.5445,0.2884,40.0000,62,96,332213
1.5836,0.2981,40.2000,62,96,332216
1.6031,0.2884,39.9600,62,96,332220
1.6716,0.3079,39.7000,62,96,332223
1.6569,0.3079,39.8600,62,96,332226
1.6716,0.2884,39.9300,62,96,332230
1.6813,0.2933,39.9300,62,96,332233
1.6911,0.2884,40.0300,62,96,332236
1.7351,0.3079,39.2500,62,96,332240
1.7107,0.3030,39.9600,62,96,332243
1.7302,0.2884,39.8900,62,96,332247
1.7204,0.2933,40.0300,62,96,332251
1.7400,0.2981,39.9600,62,96,332254
1.7986,0.3030,39.8300,62,96,332257
1.7986,0.2933,39.9600,62,96,332260
1.8280,0.2933,39.8300,62,96,332264
1.8182,0.2933,39.3800,62,96,332267
1.8182,0.2981,40.0000,62,96,332270
1.8328,0.2933,39.9600,62,96,332274
1.7937,0.3275,40.0300,62,96,332277
1.7986,0.2884,39.8600,62,96,332280
1.7498,0.2981,39.7700,62,96,332284
1.7498,0.2835,39.9300,62,96,332289
1.7937,0.2981,40.0300,62,96,332293
1.7693,0.2933,40.0000,62,96,332296
1.7742,0.2933,40.0000,62,96,332299
1.8280,0.3079,39.7300,62,96,332303
1.8084,0.2981,40.0000,62,96,332306
1.8084,0.2884,40.0000,62,96,332309
1.8182,0.2884,39.9600,62,96,332312
1.8231,0.2884,40.0000,62,96,332316
1.8817,0.3079,39.8000,62,96,332319
1.8622,0.2981,39.9600,62,96,332322
1.8671,0.2933,39.8900,62,96,332326
1.8719,0.2933,39.9600,62,96,332329
1.8719,0.2884,40.0600,62,96,332333
1.9062,0.2981,39.8900,62,96,332337
1.8964,0.2933,39.9300,62,96,332340
1.9208,0.2981,39.9600,62,96,332343
1.9013,0.3226,40.0000,62,96,332346
1.9110,0.2933,40.0000,62,96,332350
1.9306,0.2933,39.8900,62,96,332353
1.9550,0.2933,40.0000,62,96,332356
1.9648,0.2933,39.8600,62,96,332360
1.9453,0.2933,40.0000,62,96,332363
1.9550,0.2933,40.0000,62,96,332366
1.9844,0.2981,39.8900,62,96,332370
1.9746,0.2933,39.9600,62,96,332374
2.0235,0.2981,39.8000,62,96,332377
2.0332,0.2884,39.8900,62,96,332381
2.0479,0.2884,39.9600,62,96,332384
2.1017,0.2884,39.9300,62,96,332387
2.1017,0.2688,39.9600,62,96,332391
2.1701,0.3030,39.6700,62,96,332394
2.1261,0.2933,39.8600,62,96,332397
2.1065,0.2884,40.4700,62,96,332400
2.0968,0.2981,39.9300,62,96,332404
2.0821,0.2933,40.0000,62,96,332407
2.1261,0.3079,39.7700,62,96,332410
2.0870,0.3275,39.8900,62,96,332414
2.1114,0.2884,39.9300,62,96,332418
2.1017,0.2933,40.2000,62,96,332421
2.1163,0.2933,40.0000,62,96,332425
2.1750,0.3030,39.8600,62,96,332428
2.1603,0.2981,39.9600,62,96,332431
2.1750,0.2933,39.8900,62,96,332434
2.1652,0.2884,39.9600,62,96,332438
2.1652,0.2933,39.9300,62,96,332441
2.2336,0.3030,39.8000,62,96,332444
2.1652,0.2933,40.0000,62,96,332448
2.1799,0.3275,39.8900,62,96,332451
2.1310,0.2933,39.9300,62,96,332454
2.1114,0.2884,39.9600,62,96,332459
2.1114,0.2688,39.8600,62,96,332462
2.0528,0.2933,40.1000,62,96,332465
2.0430,0.2933,40.1000,62,96,332469
1.9746,0.3128,40.0000,62,96,332472
1.9355,0.2933,40.0000,62,96,332475
1.9062,0.2981,39.8900,62,96,332478
1.8524,0.2884,39.9600,62,96,332482
1.8426,0.2981,39.7700,62,96,332485
1.7791,0.2933,39.9600,62,96,332488
1.7498,0.2933,40.0000,62,96,332492
1.7253,0.2981,39.9300,62,96,332495
1.6764,0.2933,40.0000,62,96,332498
1.7058,0.3030,39.7000,62,96,332503
1.6667,0.2884,39.8600,62,96,332506
1.6520,0.2884,40.0000,62,96,332509
1.6569,0.2933,39.9600,62,96,332513
1.6520,0.2688,40.0000,62,96,332516
1.7107,0.3079,39.8000,62,96,332519
1.6764,0.2981,39.9300,62,96,332522
1.6813,0.2933,39.9300,62,96,332526
1.6764,0.2981,39.8900,62,96,332529
1.6618,0.2884,39.9600,62,96,332532
1.6764,0.2981,39.8300,62,96,332536
1.6373,0.2933,39.9300,62,96,332539
1.6373,0.2933,39.9600,62,96,332542
1.6129,0.2933,40.0000,62,96,332547
1.6080,0.2933,40.2000,62,96,332550
1.6178,0.2981,39.8900,62,96,332553
1.6031,0.2884,40.0300,62,96,332557
1.6373,0.2981,39.1600,62,96,332560
1.6325,0.2933,39.9600,62,96,332563
1.6471,0.2933,39.9600,62,96,332566
1.6911,0.2884,39.8600,62,96,332570
1.6716,0.2933,40.0000,62,96,332573
1.7253,0.2981,39.8300,62,96,332576
1.6960,0.2933,40.0000,62,96,332580
1.6960,0.2884,40.0000,62,96,332583
1.7302,0.2688,39.9300,62,96,332587
1.7155,0.2933,39.9600,62,96,332591
1.7595,0.3030,39.7300,62,96,332594
1.7351,0.2933,39.9300,62,96,332597
1.7400,0.2981,40.0000,62,96,332601
1.7595,0.2981,39.9600,62,96,332604
1.7498,0.2884,39.9600,62,96,332607
1.8035,0.3079,39.7300,62,96,332610
1.7644,0.2884,39.8900,62,96,332614
1.7595,0.2884,39.8900,62,96,332617
1.7840,0.2884,39.9600,62,96,332620
1.7644,0.2933,39.9600,62,96,332624
1.8084,0.2981,39.8900,62,96,332627
1.7889,0.2933,39.4800,62,96,332631
1.7889,0.3079,39.9300,62,96,332635
1.7742,0.2933,39.9600,62,96,332638
1.7791,0.2884,40.0300,62,96,332641
1.8133,0.2688,39.8600,62,96,332645
1.8035,0.2981,40.0300,62,96,332648
1.8328,0.3079,39.8600,62,96,332651
1.8377,0.2933,40.0000,62,96,332654
1.8671,0.2884,40.0000,62,96,332658
1.9062,0.2933,39.8600,62,96,332661
1.8719,0.2933,39.9600,62,96,332664
1.8573,0.2933,39.8600,62,96,332668
1.7937,0.2884,39.9300,62,96,332672
1.7742,0.2884,40.0000,62,96,332675
1.8133,0.3030,39.8900,62,96,332679
1.7546,0.2933,40.0300,62,96,332682
1.7742,0.2981,39.8000,62,96,332685
1.7351,0.2884,39.9600,62,96,332689
1.7351,0.2884,40.0000,62,96,332692
1.7791,0.2933,39.9300,62,96,332695
1.7400,0.2933,39.9600,62,96,332699
1.7889,0.3079,39.7000,62,96,332702
1.7644,0.2981,39.8900,62,96,332705
1.7546,0.2933,39.9300,62,96,332708
1.7693,0.2933,40.0300,62,96,332712
1.7693,0.2933,40.0000,62,96,332716
1.8231,0.3079,39.8300,62,96,332719
1.7937,0.3079,39.9300,62,96,332723
1.7986,0.2933,39.9300,62,96,332726
1.7840,0.2933,39.7300,62,96,332729
1.7791,0.2933,40.0000,62,96,332733
1.8035,0.2981,39.8600,62,96,332736
1.7889,0.2933,39.8600,62,96,332739
1.8280,0.2884,39.8900,62,96,332743
1.7840,0.2933,40.0000,62,96,332746
1.7937,0.2933,40.0000,62,96,332749
1.8035,0.2933,39.9600,62,96,332752
1.7937,0.2933,39.9600,62,96,332756
1.8280,0.2933,39.8600,62,96,332760
1.7937,0.2933,39.9600,62,96,332763
1.7889,0.2688,40.0300,62,96,332767
1.8133,0.2981,39.9300,62,96,332770
1.8133,0.2933,40.0000,62,96,332773
1.8671,0.2981,39.8000,62,96,332777
1.8671,0.2933,39.8900,62,96,332780
1.8719,0.2884,40.0000,62,96,332783
1.8915,0.2933,39.9300,62,96,332787
1.8866,0.2933,40.0000,62,96,332790
1.9355,0.3030,39.7700,62,96,332793
1.8866,0.2933,39.8600,62,96,332797
1.8573,0.2884,39.9300,62,96,332801
1.8231,0.2933,39.9300,62,96,332804
1.7791,0.2933,40.1000,62,96,332807
1.7986,0.3030,39.8300,62,96,332811
1.7449,0.2981,39.9600,62,96,332814
1.7351,0.2884,40.0000,62,96,332817
1.7400,0.2933,39.9600,62,96,332821
1.7498,0.2933,40.0000,62,96,332824
1.7937,0.3030,39.9300,62,96,332827
1.7742,0.3030,40.0000,62,96,332831
1.7986,0.2884,39.8600,62,96,332834
1.7742,0.2933,40.0300,62,96,332837
1.7791,0.2981,40.0000,62,96,332840
1.8084,0.2981,39.8000,62,96,332845
1.7889,0.2981,39.9600,62,96,332848
1.8084,0.2981,39.8900,62,96,332851
1.7889,0.2933,40.0000,62,96,332855
1.7937,0.3030,39.9600,62,96,332858
1.8280,0.2981,39.8900,62,96,332861
1.8035,0.2933,40.0000,62,96,332865
1.8328,0.2933,39.8900,62,96,332868
1.8182,0.2884,39.9300,62,96,332871
1.8133,0.2884,40.0000,62,96,332875
1.8280,0.2933,39.8900,62,96,332878
1.8182,0.2933,40.0000,62,96,332881
1.8524,0.2981,39.8900,62,96,332884
1.8182,0.2884,39.9600,62,96,332889
1.8231,0.2884,40.0000,62,96,332892
1.8328,0.3030,40.0600,62,96,332895
1.8328,0.2933,40.0600,62,96,332900
1.8475,0.2981,40.0000,62,96,332903
1.9257,0.2884,39.8000,62,96,332907
1.9110,0.2981,40.0300,62,96,332910
1.9257,0.2933,39.8900,62,96,332913
1.9062,0.2933,39.9600,62,96,332917
1.8964,0.2884,39.8900,62,96,332920
1.8964,0.2981,39.8300,62,96,332923
1.8475,0.2933,39.9600,62,96,332926
1.8231,0.2981,39.8300,62,96,332931
1.7791,0.2688,40.0000,62,96,332934
1.7693,0.2884,39.9600,62,96,332937
1.7791,0.2884,39.9300,62,96,332941
1.7693,0.2933,39.9600,62,96,332944
1.7937,0.3177,39.8300,62,96,332947
1.7742,0.2933,40.0300,62,96,332951
1.8231,0.2981,39.9600,62,96,332954
1.8182,0.2981,39.8900,62,96,332957
1.7937,0.2933,40.0000,62,96,332961
1.8231,0.2981,39.8000,62,96,332964
1.7937,0.2981,39.8000,62,96,332967
1.7791,0.3030,40.0000,62,96,332972
1.8035,0.2981,39.9300,62,96,332975
1.7937,0.2933,39.9600,62,96,332978
1.8524,0.2884,39.7000,62,96,332981
1.8328,0.2933,39.8300,62,96,332985
1.8426,0.2981,39.9600,62,96,332988
1.8671,0.2933,39.9600,62,96,332991
1.8719,0.2884,39.8600,62,96,332995
1.9355,0.3079,39.8000,62,96,332998
1.9110,0.2981,39.9600,62,96,333001
1.9159,0.2884,39.8900,62,96,333005
1.9257,0.2884,39.9600,62,96,333008
1.9501,0.2884,39.9600,62,96,333011
2.0332,0.3030,39.8900,62,96,333016
1.9941,0.2884,39.9300,62,96,333019
2.0235,0.2933,39.9600,62,96,333022
2.0235,0.2933,39.9600,62,96,333025
2.0381,0.2884,39.6000,62,96,333029
2.0870,0.3079,39.8600,62,96,333032
2.0674,0.2884,39.9600,62,96,333035
2.0870,0.2981,39.8900,62,96,333039
2.0283,0.2884,40.1000,62,96,333042
1.9892,0.2933,40.0000,62,96,333045
1.9599,0.2981,39.9300,62,96,333049
1.9062,0.3177,40.0300,62,96,333052
1.8915,0.2884,39.8300,62,96,333056
1.8328,0.2933,39.9300,62,96,333059
1.8182,0.2933,39.9600,62,96,333063
1.7937,0.2981,39.8900,62,96,333066
1.7546,0.3079,40.0300,62,96,333069
1.7742,0.3030,39.7700,62,96,333073
1.7204,0.2835,39.9300,62,96,333076
1.7058,0.2933,39.8900,62,96,333079
1.6862,0.2884,39.9600,62,96,333083
1.6716,0.2933,39.2500,62,96,333086
1.7107,0.2981,39.7000,62,96,333089
1.6764,0.2981,39.8900,62,96,333093
1.6813,0.2884,40.0600,62,96,333096
1.6960,0.2933,39.9600,62,96,333100
1.6960,0.2933,40.0300,62,96,333103
1.7546,0.3128,39.8300,62,96,333107
1.7302,0.2981,39.9300,62,96,333110
1.7498,0.2933,39.5700,62,96,333113
1.8084,0.2933,40.0000,62,96,333117
1.8768,0.2884,40.0000,62,96,333120
2.0235,0.2981,39.8300,62,96,333123
2.1310,0.3030,39.9600,62,96,333127
2.3069,0.2933,39.8600,62,96,333130
2.4389,0.2933,40.0000,62,96,333133
2.5758,0.2933,40.0000,62,96,333136
2.6686,0.2981,39.9300,62,96,333140
2.6149,0.2933,40.0000,62,96,333144
2.4927,0.3030,39.8600,62,96,333147
2.2287,0.2933,40.0300,62,96,333151
2.0039,0.3177,39.9600,62,96,333154
1.8475,0.3079,39.8600,62,96,333157
1.6716,0.2933,40.0300,62,96,333161
1.6080,0.3030,39.8300,62,96,333164
1.5494,0.2981,39.9300,62,96,333167
1.5445,0.2884,39.9600,62,96,333170
1.5738,0.3030,39.8600,62,96,333174
1.5885,0.2933,40.0000,62,96,333177
1.6422,0.2981,39.7700,62,96,333180
1.6520,0.3030,39.8900,62,96,333185
1.6667,0.2884,40.0000,62,96,333188
1.7107,0.2981,40.2300,62,96,333191
1.7449,0.2933,39.9600,62,96,333195
1.7742,0.3030,39.7000,62,96,333198
1.7400,0.2933,39.8900,62,96,333201
1.7351,0.2688,40.0000,62,96,333205
1.7253,0.2933,40.0000,62,96,333208
1.7107,0.2884,40.0000,62,96,333211
1.7400,0.3079,39.8300,62,96,333214
1.6911,0.2981,39.8600,62,96,333218
1.7107,0.2933,39.8600,62,96,333221
1.6764,0.2933,40.0000,62,96,333224
1.6960,0.2884,40.0000,62,96,333229
1.7302,0.3030,39.8300,62,96,333232
1.7155,0.2933,39.9600,62,96,333235
1.7302,0.2981,39.8600,62,96,333239
1.7204,0.2688,40.0000,62,96,333242
1.7351,0.2884,40.0000,62,96,333245
1.7742,0.2981,39.8900,62,96,333249
1.7546,0.2933,40.0300,62,96,333252
1.7937,0.3030,39.8900,62,96,333255
1.7693,0.2933,39.9600,62,96,333258
1.7791,0.2884,40.0600,62,96,333262
1.7986,0.3030,39.8600,62,96,333265
1.7986,0.2933,40.0000,62,96,333268
1.8328,0.2933,39.8000,62,96,333273
1.8133,0.2981,39.9600,62,96,333276
1.8328,0.2884,40.0300,62,96,333279
1.8475,0.2981,39.9300,62,96,333283
1.8475,0.2688,40.0000,62,96,333286
1.8964,0.2981,39.8300,62,96,333289
1.8817,0.2981,39.9300,62,96,333292
1.8768,0.2933,40.0000,62,96,333296
1.8915,0.2981,39.8900,62,96,333299
1.9110,0.2884,39.9600,62,96,333302
1.9550,0.3030,39.7300,62,96,333306
1.9355,0.3226,39.8000,62,96,333309
1.9648,0.2884,39.9600,62,96,333313
1.9697,0.2933,39.9600,62,96,333317
1.9746,0.2933,40.0300,62,96,333320
2.0283,0.3079,39.8300,62,96,333323
2.0039,0.2981,40.0000,62,96,333327
2.0137,0.2933,39.8600,62,96,333330
2.0039,0.2933,40.0000,62,96,333333
1.9941,0.2933,40.0000,62,96,333336
2.0088,0.3030,39.8900,62,96,333340
1.9697,0.2981,39.9300,62,96,333343
1.9697,0.2884,39.8600,62,96,333346
1.9501,0.3177,39.9600,62,96,333350
1.9844,0.2933,40.0000,62,96,333353
1.9990,0.3030,39.8300,62,96,333357
1.9990,0.2933,39.9600,62,96,333361
2.0332,0.2981,39.8600,62,96,333364
2.0186,0.2884,40.1300,62,96,333367
2.0332,0.2933,40.0000,62,96,333370
2.0723,0.2981,39.8600,62,96,333374
2.0723,0.2933,40.1000,62,96,333377
2.1163,0.2933,39.8000,62,96,333380
2.1065,0.2933,39.9300,62,96,333384
2.1212,0.2884,40.0300,62,96,333387
2.1603,0.3079,39.8600,62,96,333390
2.1554,0.2933,40.0000,62,96,333394
2.2141,0.2981,39.8000,62,96,333398
2.1750,0.2835,39.9600,62,96,333401
2.1848,0.2884,39.9600,62,96,333404
2.2141,0.2981,39.9600,62,96,333408
2.2043,0.2933,40.0000,62,96,333411
2.2678,0.2884,39.7300,62,96,333414
2.2239,0.2981,39.9600,62,96,333418
2.1945,0.2884,39.9600,62,96,333421
2.1896,0.2981,39.9600,62,96,333424
2.1554,0.2884,40.0000,62,96,333428
2.1896,0.3128,39.8300,62,96,333431
2.1212,0.2981,39.8900,62,96,333434
2.0821,0.2981,39.8900,62,96,333438
2.0577,0.2884,40.0000,62,96,333442
2.0283,0.2884,40.0000,62,96,333445
2.0332,0.2981,39.9600,62,96,333448
1.9746,0.2933,39.9300,62,96,333452
1.9355,0.2933,39.8600,62,96,333455
1.8573,0.2981,40.0300,62,96,333458
1.7986,0.2884,40.0000,62,96,333462
1.7693,0.2933,39.8600,62,96,333465
1.7302,0.3030,40.0600,62,96,333468
1.7009,0.2981,39.8900,62,96,333472
1.6373,0.2933,39.9600,62,96,333475
1.6031,0.2933,40.0000,62,96,333478
1.5982,0.2981,39.8600,62,96,333481
1.5591,0.2933,40.0000,62,96,333486
1.5689,0.2933,39.8300,62,96,333489
1.5543,0.2933,39.8900,62,96,333492
1.5689,0.2884,40.0000,62,96,333496
1.5689,0.3030,39.9600,62,96,333499
1.5591,0.2933,40.0300,62,96,333502
1.6080,0.2981,39.7700,62,96,333506
1.6667,0.3079,39.8300,62,96,333510
1.6422,0.2981,39.8900,62,96,333514
1.6569,0.2933,39.8900,62,96,333517
1.6520,0.2981,39.8900,62,96,333520
1.6667,0.2884,40.0300,62,96,333524
1.6960,0.3030,39.9600,62,96,333528
1.6911,0.2933,39.9300,62,96,333531
1.7155,0.2933,39.8600,62,96,333535
1.7009,0.3030,40.0300,62,96,333538
1.7253,0.2884,40.0000,62,96,333541
1.7400,0.3030,39.9600,62,96,333544
1.7155,0.2933,40.0300,62,96,333548
1.7595,0.2884,39.8900,62,96,333551
1.7253,0.2884,40.0300,62,96,333554
1.7351,0.2933,40.0000,62,96,333558
1.7595,0.2981,39.8900,62,96,333561
1.7498,0.2933,39.9300,62,96,333564
1.8035,0.2981,39.8300,62,96,333569
1.7742,0.2933,39.9300,62,96,333572
1.7986,0.2884,39.9600,62,96,333575
1.8573,0.2981,39.8900,62,96,333578
1.8280,0.2933,40.0000,62,96,333582
1.8622,0.3030,39.7700,62,96,333585
1.8133,0.2884,39.9600,62,96,333588
1.8035,0.2884,40.0000,62,96,333592
1.7986,0.2933,39.9300,62,96,333595
1.7791,0.2933,40.0300,62,96,333598
1.8231,0.2884,39.7300,62,96,333602
1.7742,0.2981,39.8600,62,96,333605
1.7546,0.2933,39.9300,62,96,333608
1.7400,0.2933,39.9300,62,96,333613
1.7253,0.2981,40.0600,62,96,333616
1.7693,0.3030,39.8300,62,96,333619
1.7400,0.2981,40.0300,62,96,333623
1.7498,0.2981,39.8900,62,96,333626
1.7351,0.2933,40.0000,62,96,333629
1.7546,0.2933,39.9600,62,96,333632
1.7840,0.2981,39.8600,62,96,333636
1.7693,0.2933,40.0300,62,96,333639
1.7986,0.2981,39.8600,62,96,333642
1.7742,0.2933,39.9600,62,96,333646
1.7791,0.3079,40.0300,62,96,333649
1.8035,0.2933,39.9300,62,96,333652
1.7937,0.2933,39.9600,62,96,333657
1.8231,0.2884,39.8600,62,96,333660
1.7986,0.2933,40.0000,62,96,333663
1.8035,0.2884,40.0000,62,96,333667
1.8231,0.2933,39.8600,62,96,333670
1.8035,0.2933,40.0000,62,96,333673
1.8377,0.2835,39.8300,62,96,333676
1.8182,0.2981,39.9600,62,96,333680
1.8035,0.2884,40.0300,62,96,333683
1.8280,0.2884,39.9300,62,96,333686
1.7986,0.2933,40.0300,62,96,333690
1.8426,0.3030,39.7000,62,96,333693
1.7986,0.2933,39.9300,62,96,333697
1.7937,0.2884,39.9300,62,96,333701
1.8328,0.2884,39.9600,62,96,333704
1.8280,0.2884,39.9600,62,96,333707
1.9257,0.3079,39.4800,62,96,333710
1.9110,0.2981,39.9300,62,96,333714
1.9159,0.2884,39.9600,62,96,333717
1.8866,0.3030,39.9600,62,96,333720
1.8475,0.2884,40.0000,62,96,333724
1.8475,0.3030,39.8300,62,96,333727
1.8035,0.3030,39.9600,62,96,333730
1.7986,0.2933,39.8900,62,96,333734
1.7693,0.2933,40.0000,62,96,333737
1.7595,0.2933,39.9600,62,96,333741
1.7791,0.3030,39.8600,62,96,333745
1.7498,0.2884,39.9300,62,96,333748
1.7791,0.2981,39.9300,62,96,333751
1.7644,0.2884,40.0000,62,96,333754
1.7791,0.2933,40.1000,62,96,333758
1.7937,0.2981,39.9600,62,96,333761
1.7840,0.2933,40.0000,62,96,333764
1.8231,0.2933,39.8600,62,96,333768
1.7791,0.2884,39.9600,62,96,333771
1.7791,0.2933,40.0000,62,96,333774
1.7937,0.2981,39.9300,62,96,333778
1.7889,0.2933,39.9600,62,96,333782
1.8328,0.2981,39.7700,62,96,333785
1.8035,0.2933,39.9600,62,96,333789
1.8035,0.2884,40.0000,62,96,333792
1.8231,0.2981,39.8600,62,96,333795
1.8231,0.2933,40.0000,62,96,333799
1.8768,0.3079,39.6700,62,96,333802
1.8475,0.3030,39.8900,62,96,333805
1.8280,0.2688,39.9600,62,96,333808
1.8280,0.3030,39.9600,62,96,333812
1.8182,0.2981,40.0000,62,96,333815
1.8622,0.3079,39.8300,62,96,333818
1.8475,0.3079,39.8900,62,96,333822
1.8377,0.2933,39.8900,62,96,333826
1.8328,0.2933,40.0000,62,96,333829
1.8328,0.2933,39.9600,62,96,333833
1.8671,0.2981,39.8900,62,96,333836
1.8475,0.2981,40.0000,62,96,333839
1.8719,0.3226,39.8600,62,96,333842
1.8622,0.2933,39.9600,62,96,333846
1.8915,0.2981,39.9600,62,96,333849
1.9306,0.2933,39.9300,62,96,333852
1.9306,0.2933,40.0000,62,96,333856
1.9355,0.2933,39.8600,62,96,333859
1.8671,0.2933,40.0000,62,96,333862
1.8328,0.2933,39.9600,62,96,333867
1.8133,0.2981,39.8900,62,96,333870
1.7693,0.2933,39.9600,62,96,333873
1.7937,0.2981,39.7700,62,96,333877
1.7889,0.2981,39.8900,62,96,333880
1.7937,0.2884,39.9600,62,96,333883
1.8280,0.3030,39.9300,62,96,333887
1.8231,0.2884,40.0000,62,96,333890
1.8671,0.3030,39.7300,62,96,333893
1.8426,0.2981,39.8900,62,96,333896
1.7986,0.2884,39.9600,62,96,333900
1.7937,0.3079,39.9600,62,96,333903
1.7986,0.2884,39.9600,62,96,333906
1.8524,0.3128,39.7700,62,96,333911
1.8035,0.2981,39.9600,62,96,333914
1.8182,0.2884,40.3300,62,96,333917
1.8280,0.2884,39.9600,62,96,333921
1.8182,0.2884,39.9600,62,96,333924
1.8866,0.3030,39.8900,62,96,333927
1.8475,0.2981,39.9600,62,96,333931
1.8671,0.2933,39.8600,62,96,333934
1.8866,0.2933,39.9600,62,96,333937
1.8768,0.2884,40.0000,62,96,333940
1.9159,0.3030,39.8300,62,96,333944
1.8866,0.2884,40.0000,62,96,333947
1.9306,0.2981,39.9300,62,96,333950
1.9159,0.2835,39.9300,62,96,333955
1.9648,0.2884,39.9600,62,96,333958
1.9844,0.3275,39.8900,62,96,333961
1.9941,0.2884,39.9600,62,96,333965
2.0528,0.2933,39.8300,62,96,333968
2.0577,0.2933,39.9600,62,96,333971
2.0821,0.2884,40.0600,62,96,333975
2.0870,0.2981,39.9600,62,96,333978
2.0528,0.2933,39.9600,62,96,333981
2.0674,0.2981,39.7300,62,96,333984
1.9941,0.2884,39.8300,62,96,333988
1.9746,0.2933,39.9600,62,96,333991
1.9501,0.2933,39.6700,62,96,333995
1.9159,0.2884,39.9600,62,96,333999
1.9257,0.3079,39.7300,62,96,334002
1.8475,0.2981,39.9300,62,96,334005
1.8377,0.2884,39.9300,62,96,334009
1.7889,0.3275,40.0300,62,96,334012
1.7742,0.2933,40.0000,62,96,334015
1.7791,0.3030,39.8000,62,96,334019
1.7155,0.2981,39.8600,62,96,334022
1.6960,0.2981,39.8900,62,96,334025
1.6764,0.2933,40.0000,62,96,334028
1.6813,0.2884,39.9600,62,96,334032
1.7204,0.2884,39.8300,62,96,334035
1.7009,0.2933,39.9600,62,96,334039
1.7302,0.2933,39.8000,62,96,334043
1.7351,0.2884,40.0000,62,96,334046
1.7155,0.2884,39.9300,62,96,334049
1.7546,0.2933,39.9300,62,96,334053
1.7253,0.2933,40.1000,62,96,334056
1.7693,0.3226,39.8000,62,96,334059
1.7889,0.2884,40.0000,62,96,334063
1.8671,0.2981,40.0000,62,96,334066
1.9941,0.2884,39.8900,62,96,334069
2.1163,0.2933,40.0600,62,96,334072
2.3118,0.3030,39.8300,62,96,334076
2.4731,0.2884,39.8600,62,96,334080
2.6100,0.2933,40.0000,62,96,334083
2.7370,0.2981,39.8600,62,96,334087
2.7273,0.2688,39.9600,62,96,334090
2.6686,0.3079,39.7700,62,96,334093
2.4096,0.2933,39.8900,62,96,334097
2.1505,0.2688,40.0000,62,96,334100
1.9159,0.2933,40.0000,62,96,334103
1.7155,0.2933,40.0000,62,96,334106
1.6325,0.3079,39.7300,62,96,334110
1.5103,0.2933,39.9300,62,96,334113
1.4956,0.2786,39.9600,62,96,334116
1.5103,0.2933,40.0000,62,97,334120
1.7058,0.2933,40.1000,62,97,334125
1.6960,0.2981,39.9600,62,97,334129
1.7155,0.3030,39.9600,62,97,334132
1.6862,0.3079,39.9600,62,97,334135
1.7058,0.2884,39.8900,62,97,334139
1.6716,0.2884,39.9300,62,97,334142
1.6862,0.2981,39.9600,62,97,334145
1.7009,0.2981,39.8900,62,97,334149
1.6813,0.2933,40.1000,62,97,334152
1.7058,0.3030,39.8000,62,97,334155
1.6862,0.2933,39.9300,62,97,334159
1.6960,0.2884,40.0000,62,97,334162
1.7155,0.2933,39.9600,62,97,334166
1.7155,0.2933,39.9600,62,97,334169
1.7644,0.3226,39.8300,62,97,334173
1.7302,0.2933,40.0600,62,97,334176
1.7449,0.2981,40.0000,62,97,334179
1.7595,0.2884,40.0000,62,97,334183
1.7595,0.2933,39.8600,62,97,334186
1.8231,0.3030,39.7700,62,97,334189
1.7937,0.2981,39.9600,62,97,334193
1.7937,0.2884,39.8600,62,97,334196
1.8035,0.2933,39.9600,62,97,334199
1.8084,0.2933,40.0000,62,97,334203
1.8524,0.3079,39.8000,62,97,334206
1.8377,0.2981,39.9300,62,97,334210
1.8426,0.2933,39.8900,62,97,334213
1.8182,0.2933,40.0000,62,97,334217
1.8377,0.2884,40.0600,62,97,334220
1.8671,0.3030,39.8300,62,97,334223
