ecg,gsr,temp,hr,spo2,timest
1.6471,0.1906,38.4600,73,96,402189
1.6667,0.1857,38.3000,73,96,402192
1.6227,0.1906,38.5200,73,96,402195
1.6129,0.2053,38.5200,73,96,402199
1.6373,0.1906,38.4300,73,96,402202
1.6227,0.1857,38.4900,73,96,402205
1.6813,0.1955,38.2400,73,96,402209
1.6422,0.1857,38.4000,73,96,402212
1.6716,0.1808,38.5200,73,96,402215
1.6569,0.1906,38.3600,73,96,402219
1.6716,0.1808,38.4900,73,96,402223
1.7058,0.2004,38.2400,73,96,402226
1.6764,0.1906,38.4900,73,96,402229
1.6667,0.1906,38.4600,73,96,402233
1.6764,0.1906,38.4600,73,96,402236
1.6813,0.1857,38.4900,73,96,402239
1.7351,0.1906,38.3000,73,96,402243
1.7058,0.1906,38.4600,73,96,402246
1.7351,0.1808,38.4300,73,96,402249
1.7155,0.1857,38.4900,73,96,402252
1.7107,0.2004,38.5500,73,96,402256
1.7351,0.1906,38.4000,73,96,402259
1.7302,0.1906,38.4900,73,96,402263
1.7546,0.1955,38.3300,73,96,402267
1.7449,0.1857,38.5500,73,96,402270
1.7546,0.1906,38.5500,73,96,402273
1.7742,0.1857,38.4300,73,96,402277
1.7644,0.1808,38.4900,73,96,402280
1.8035,0.1711,38.3600,73,96,402283
1.7791,0.2102,38.7100,73,96,402287
1.8231,0.1808,38.4900,73,96,402290
1.8182,0.1906,38.5800,73,96,402293
1.8035,0.1857,38.5200,73,96,402296
1.8475,0.1955,38.3000,73,96,402300
1.8426,0.1906,38.4600,73,96,402304
1.8377,0.1760,38.5500,73,96,402307
1.8524,0.1906,38.3300,73,96,402311
1.8426,0.1955,38.4900,73,96,402314
1.8866,0.1955,38.2400,73,96,402317
1.8768,0.1857,38.4300,73,96,402321
1.8426,0.1857,38.5200,73,96,402324
1.8573,0.1906,38.4600,73,96,402327
1.8475,0.1906,38.4900,73,96,402331
1.8817,0.2053,37.8000,73,96,402334
1.8426,0.2004,38.4300,73,96,402337
1.8377,0.1857,38.4600,73,96,402340
1.8084,0.1906,38.4600,73,96,402344
1.8133,0.1808,38.4900,73,96,402348
1.8377,0.2004,38.4600,73,96,402351
1.7986,0.2151,38.4900,73,96,402355
1.8084,0.1857,38.3600,73,96,402358
1.7937,0.2151,38.5500,73,96,402361
1.8035,0.1857,38.6200,73,96,402365
1.8426,0.1906,38.3000,73,96,402368
1.8133,0.1906,38.4900,73,96,402371
1.8377,0.1906,38.3000,73,96,402375
1.8182,0.1857,38.4300,73,96,402378
1.8377,0.1857,38.4900,73,96,402381
1.8768,0.1857,38.4000,73,96,402384
1.8671,0.1857,38.4900,73,96,402388
1.9110,0.1857,38.3000,73,96,402392
1.9110,0.1857,38.4300,73,96,402395
1.9110,0.1857,38.5500,73,96,402399
1.9355,0.1906,38.3600,73,96,402402
1.9257,0.1857,38.4900,73,96,402405
1.9648,0.1906,38.2400,73,96,402409
1.9257,0.1857,38.4600,73,96,402412
1.9208,0.1857,38.5500,73,96,402415
1.9306,0.1808,38.4300,73,96,402419
1.9110,0.1857,38.5500,73,96,402422
1.9550,0.2004,38.1800,73,96,402425
1.9159,0.1711,38.4000,73,96,402428
1.8964,0.1808,38.4900,73,96,402433
1.8915,0.1857,38.4900,73,96,402436
1.8817,0.1857,38.4900,73,96,402439
1.9404,0.2004,38.4600,73,96,402443
1.8866,0.1906,38.4600,73,96,402446
1.8817,0.1857,38.4000,73,96,402449
1.8768,0.1906,38.5200,73,96,402453
1.8719,0.1955,38.4900,73,96,402456
1.9110,0.1955,38.3600,73,96,402459
1.8719,0.1857,38.4900,73,96,402462
1.8964,0.1857,38.4000,73,96,402466
1.8817,0.1857,38.4600,73,96,402469
1.8719,0.1857,38.4900,73,96,402472
1.8866,0.1955,38.4900,73,96,402477
1.8671,0.1808,38.4900,73,96,402480
1.8866,0.1906,38.4300,73,96,402483
1.8573,0.1711,38.4900,73,96,402487
1.8524,0.1857,38.5200,73,96,402490
1.8719,0.1955,38.3600,73,96,402493
1.8328,0.1857,38.4600,73,96,402497
1.8475,0.1711,38.3000,73,96,402500
1.8328,0.1906,38.4000,73,96,402503
1.8182,0.1857,38.5500,73,96,402506
1.8377,0.1955,38.4600,73,96,402510
1.8133,0.1857,38.6200,73,96,402513
1.8573,0.1955,38.2400,73,96,402516
1.8328,0.1906,38.4600,73,96,402521
1.8280,0.2102,38.4900,73,96,402524
1.8475,0.1906,38.4600,73,96,402527
1.8280,0.1857,38.4900,73,96,402531
1.9062,0.1906,38.2100,73,96,402534
1.8280,0.1955,38.4000,73,96,402537
1.8133,0.1760,38.4600,73,96,402541
1.8133,0.1906,38.4900,73,96,402544
1.8231,0.1955,38.4900,73,96,402547
1.8817,0.2004,38.3300,73,96,402550
1.8475,0.1906,38.4000,73,96,402554
1.8524,0.2199,38.4000,73,96,402557
1.8426,0.1857,38.1800,73,96,402561
1.8475,0.2151,38.5200,73,96,402565
1.8817,0.1906,38.3300,73,96,402568
1.8475,0.1857,38.5200,73,96,402571
1.8671,0.1906,38.3300,73,96,402575
1.8377,0.1857,38.4900,73,96,402578
1.8280,0.1906,38.5200,73,96,402581
1.8524,0.1955,38.4000,73,96,402585
1.8231,0.1857,38.4900,73,96,402588
1.8524,0.1711,38.4000,73,96,402591
1.8182,0.2102,38.4300,73,96,402594
1.8133,0.1857,38.5200,73,96,402598
1.8328,0.1906,38.3600,73,96,402601
1.8133,0.1857,38.5500,73,96,402605
1.8426,0.1906,38.2100,73,96,402609
1.8035,0.1808,38.4600,73,96,402612
1.8084,0.1857,38.5200,73,96,402615
1.8377,0.2102,38.4300,73,96,402619
1.8377,0.1857,38.5200,73,96,402622
1.8964,0.2199,38.3000,73,96,402625
1.8671,0.1906,38.4300,73,96,402629
1.8573,0.1857,38.4900,73,96,402632
1.8671,0.1906,38.4900,73,96,402635
1.8573,0.1857,38.5200,73,96,402638
1.9110,0.2102,38.2400,73,96,402642
1.8964,0.1955,38.3600,73,96,402647
1.8719,0.1906,38.5200,73,96,402650
1.9013,0.1955,38.4300,73,96,402653
1.8817,0.1857,38.5800,73,96,402656
1.9110,0.1857,38.5500,73,96,402660
1.8915,0.1857,38.4300,73,96,402663
1.8817,0.2004,38.4600,73,96,402666
1.9062,0.1857,38.3600,73,96,402670
1.8768,0.1857,38.4300,73,96,402673
1.8719,0.1857,38.5200,73,96,402676
1.8915,0.1906,38.4300,73,96,402680
1.8573,0.1808,38.4900,73,96,402683
1.8915,0.1906,38.2400,73,96,402686
1.8817,0.1906,38.4000,73,96,402691
1.8768,0.1808,38.4900,73,96,402694
1.8915,0.1906,38.4900,73,96,402697
1.8768,0.1955,38.5500,73,96,402700
1.9257,0.1955,38.2400,73,96,402704
1.8817,0.1808,38.4300,73,96,402707
1.8671,0.1857,38.4900,73,96,402710
1.8622,0.1906,38.4600,73,96,402714
1.8426,0.1808,38.5200,73,96,402717
1.8817,0.2004,38.2400,73,96,402720
1.8426,0.1857,38.4300,73,96,402724
1.8377,0.1857,38.4300,73,96,402727
1.8426,0.2102,38.4900,73,96,402731
1.8426,0.1857,38.4900,73,96,402734
1.8817,0.1955,38.3300,73,96,402738
1.8426,0.1955,38.4900,73,96,402741
1.8426,0.1906,38.4000,73,96,402744
1.8231,0.1808,38.5200,73,96,402748
1.8231,0.1857,38.4600,73,96,402751
1.8768,0.1906,38.3000,73,96,402754
1.8524,0.1906,38.4900,73,96,402758
1.8915,0.1955,38.3600,73,96,402761
1.8671,0.1857,38.4300,73,96,402764
1.8768,0.1857,38.5200,73,96,402768
1.9062,0.1906,38.4300,73,96,402771
1.8915,0.1906,38.4900,73,96,402775
1.9159,0.1955,38.3000,73,96,402778
1.8915,0.1906,38.4600,73,96,402782
1.8768,0.1857,38.4900,73,96,402785
1.8866,0.1955,38.4000,73,96,402788
1.8768,0.1857,38.5500,73,96,402792
1.9159,0.1906,38.2700,73,96,402795
1.8719,0.1857,38.4300,73,96,402798
1.8671,0.1906,38.4900,73,96,402802
1.8915,0.1906,38.4300,73,96,402805
1.8768,0.1857,38.4900,73,96,402808
1.9404,0.1955,38.2100,73,96,402812
1.8964,0.1906,38.4300,73,96,402816
1.8719,0.1808,38.4900,73,96,402819
1.8671,0.1906,38.4900,73,96,402822
1.8426,0.1857,38.4600,73,96,402826
1.8866,0.2004,38.3000,73,96,402829
1.8524,0.1906,38.5800,73,96,402832
1.8573,0.1857,38.4000,73,96,402836
1.8524,0.1906,38.4900,73,96,402839
1.8475,0.1906,38.5500,73,96,402842
1.8768,0.1955,38.3300,73,96,402846
1.8524,0.1906,38.4900,73,96,402849
1.8719,0.1955,38.3600,73,96,402852
1.8524,0.1906,38.4900,73,96,402856
1.8475,0.2248,38.5500,73,96,402860
1.8622,0.1906,38.4300,73,96,402863
1.8475,0.1906,38.4600,73,96,402866
1.8719,0.2004,38.4000,73,96,402870
1.8622,0.1857,38.4900,73,96,402873
1.8671,0.1857,38.4900,73,96,402876
1.8866,0.1906,38.3600,73,96,402880
1.8573,0.1906,38.4900,73,96,402883
1.8817,0.1857,38.2700,73,96,402886
1.8719,0.1906,38.3600,73,96,402890
1.8524,0.1808,38.5500,73,96,402893
1.8768,0.1955,38.4000,73,96,402896
1.8671,0.1808,38.4900,73,96,402900
1.9159,0.1906,38.2400,73,96,402904
1.8866,0.1906,38.4300,73,96,402907
1.8817,0.1857,38.5200,73,96,402910
1.9013,0.1906,38.4600,73,96,402914
1.8915,0.1857,38.4900,73,96,402917
1.9501,0.2004,38.2400,73,96,402920
1.9062,0.2004,38.4000,73,96,402924
1.8866,0.1857,38.4300,73,96,402927
1.8671,0.1906,38.5500,73,96,402930
1.8915,0.1857,38.4900,73,96,402934
1.9110,0.2004,38.3600,73,96,402937
1.8817,0.1906,38.4900,73,96,402940
1.9208,0.1906,38.4000,73,96,402944
1.9697,0.1906,38.4900,73,96,402948
2.0577,0.1857,38.4900,73,96,402951
2.2190,0.2004,38.3000,73,96,402954
2.3021,0.1857,38.4600,73,96,402958
2.4438,0.1906,38.3600,73,96,402961
2.5415,0.1906,38.4900,73,96,402964
2.6295,0.1857,38.4900,73,96,402968
2.7859,0.1955,38.5800,73,96,402971
2.9326,0.1955,38.4900,73,96,402974
3.1427,0.1955,38.4000,73,96,402977
3.1232,0.1857,37.8000,73,96,402981
2.9472,0.1955,38.4900,73,96,402984
2.6833,0.1857,38.4000,73,96,402988
2.3363,0.1857,38.4900,73,96,402992
2.0577,0.1808,38.3000,73,96,402995
1.7840,0.1857,38.4900,73,96,402998
1.6129,0.1955,38.4900,73,96,403002
1.5445,0.1906,38.4600,73,96,403005
1.4956,0.1857,38.4900,73,96,403008
1.5445,0.1955,38.2400,73,96,403011
1.5200,0.1906,38.4000,73,96,403015
1.5494,0.1857,38.6500,73,96,403018
1.5934,0.1906,38.4600,73,96,403021
1.6129,0.1857,38.5200,73,96,403025
1.6764,0.1955,38.1800,73,96,403028
1.6422,0.1906,38.4000,73,96,403032
1.6178,0.1906,38.4600,73,96,403036
1.6031,0.1906,38.4600,73,96,403039
1.5640,0.1857,38.5800,73,96,403042
1.5885,0.2053,38.3000,73,96,403046
1.5494,0.1906,38.4300,73,96,403049
1.5445,0.1857,38.4900,73,96,403052
1.5591,0.1906,38.4900,73,96,403055
1.5494,0.1857,38.4900,73,96,403059
1.5934,0.1955,38.4000,73,96,403062
1.5836,0.1906,38.4900,73,96,403065
1.6178,0.1906,38.3600,73,96,403069
1.6471,0.1857,38.4900,73,96,403073
1.6178,0.1857,38.5800,73,96,403076
1.6471,0.1955,38.3600,73,96,403080
1.6276,0.1857,38.5500,73,96,403083
1.6667,0.1955,38.4300,73,96,403086
1.6569,0.1857,38.0200,73,96,403090
1.6667,0.2102,38.5200,73,96,403093
1.6911,0.1906,38.4000,73,96,403096
1.6667,0.1857,38.4900,73,96,403099
1.6764,0.1808,38.3000,73,96,403103
1.6618,0.1906,38.4600,73,96,403106
1.6716,0.2004,38.4600,73,96,403109
1.7058,0.1955,38.4000,73,96,403113
1.7009,0.1857,38.5500,73,96,403117
1.7498,0.2199,38.2700,73,96,403120
1.7302,0.1857,38.4600,73,96,403124
1.7449,0.1857,38.4900,73,96,403127
1.7644,0.1955,38.4600,73,96,403130
1.7693,0.1857,38.5500,73,96,403133
1.8280,0.1955,38.2100,73,96,403137
1.8035,0.1906,38.5500,73,96,403140
1.7986,0.1808,38.4000,73,96,403143
1.8133,0.1857,38.4900,73,96,403147
1.8133,0.1857,38.5200,73,96,403150
1.8622,0.1955,38.3000,73,96,403153
1.8280,0.1906,38.3000,73,96,403158
1.8426,0.2151,38.4000,73,96,403161
1.8328,0.1857,38.5500,73,96,403164
1.8280,0.1857,38.4900,73,96,403168
1.8622,0.1906,38.3600,73,96,403171
1.8524,0.1906,38.4900,73,96,403174
1.8573,0.1906,38.3000,73,96,403177
1.8426,0.1857,38.4900,73,96,403181
1.8573,0.1955,38.5500,73,96,403184
1.8719,0.1857,38.4300,73,96,403187
1.8524,0.1906,38.4900,73,96,403191
1.8573,0.1857,38.3600,73,96,403194
1.8133,0.1857,38.5200,73,96,403197
1.7986,0.1857,38.5200,73,96,403202
1.8035,0.1955,38.4900,73,96,403205
1.7840,0.1857,38.5200,73,96,403208
1.8182,0.1906,38.3300,73,96,403212
1.8084,0.2004,38.4300,73,96,403215
1.7889,0.1808,38.5200,73,96,403218
1.8084,0.2151,38.4600,73,96,403221
1.7937,0.1808,38.4900,73,96,403225
1.8524,0.1955,38.2400,73,96,403228
1.8328,0.1711,38.4300,73,96,403231
1.8280,0.1857,38.5200,73,96,403235
1.8573,0.1906,38.4600,73,96,403238
1.8671,0.1857,38.4900,73,96,403241
1.9453,0.2102,38.2100,73,96,403246
1.9306,0.1906,38.4900,73,96,403249
1.9306,0.1857,38.4000,73,96,403252
1.9355,0.1808,38.4900,73,96,403256
1.9306,0.1808,38.5200,73,96,403259
1.9257,0.1857,38.5200,73,96,403263
1.9795,0.1955,38.3600,73,96,403266
1.9159,0.1857,38.4900,73,96,403269
1.9404,0.1808,38.3600,73,96,403272
1.9110,0.1711,38.4300,73,96,403276
1.9013,0.1857,38.4900,73,96,403279
1.9159,0.1906,38.4000,73,96,403282
1.8915,0.1857,38.4900,73,96,403287
1.9062,0.1906,38.2700,73,96,403290
1.8671,0.1955,38.4300,73,96,403293
1.8573,0.1857,38.4900,73,96,403297
1.8768,0.2053,38.4300,73,96,403300
1.8524,0.1857,38.5200,73,96,403303
1.8866,0.1906,38.2100,73,96,403307
1.8475,0.1906,38.3600,73,96,403310
1.8280,0.1857,38.8100,73,96,403313
1.8280,0.1955,38.4600,73,96,403316
1.8133,0.1857,38.5200,73,96,403320
1.8573,0.1906,38.2400,73,96,403323
1.8280,0.1906,38.6200,73,96,403326
1.8084,0.1857,38.4900,73,96,403331
1.8133,0.1955,38.4900,73,96,403334
1.8133,0.2053,38.3600,73,96,403337
1.8671,0.1955,38.3000,73,96,403341
1.8328,0.1906,38.5200,73,96,403344
1.8426,0.1808,38.4300,73,96,403347
1.8182,0.1906,38.4900,73,96,403351
1.8084,0.1857,38.5200,73,96,403354
1.8377,0.1955,38.3600,73,96,403357
1.8084,0.1906,37.7400,73,96,403360
1.8280,0.1906,38.3600,73,96,403364
1.8133,0.1808,38.4900,73,96,403367
1.8182,0.1857,38.4900,73,96,403371
1.8377,0.2004,38.4600,73,96,403375
1.8475,0.1906,38.4900,73,96,403378
1.8671,0.1857,38.3600,73,96,403381
1.8622,0.1711,38.4900,73,96,403385
1.8426,0.1857,38.1100,73,96,403388
1.8964,0.1955,38.3600,73,96,403391
1.8573,0.1857,38.4300,73,96,403394
1.9013,0.1955,38.2700,73,96,403398
1.8915,0.1906,38.4000,73,96,403401
1.8719,0.1857,38.4000,73,96,403404
1.8817,0.1955,38.4600,73,96,403408
1.8719,0.1857,38.5200,73,96,403411
1.9208,0.2004,38.3000,73,96,403415
1.8866,0.1906,38.4300,73,96,403419
1.8719,0.1857,38.4900,73,96,403422
1.8719,0.2004,38.4600,73,96,403425
1.8719,0.1711,38.4900,73,96,403428
1.9062,0.2053,38.2400,73,96,403432
1.8964,0.1906,38.4300,73,96,403435
1.8719,0.1857,38.4000,73,96,403438
1.8719,0.1857,38.5200,73,96,403442
1.8622,0.1857,38.5500,73,96,403445
1.9013,0.2053,38.3600,73,96,403448
1.8573,0.1906,38.4600,73,96,403452
1.8622,0.1906,38.3600,73,96,403456
1.8377,0.1857,38.5200,73,96,403459
1.8280,0.2199,38.5500,73,96,403463
1.8524,0.1955,38.3600,73,96,403466
1.8133,0.1955,38.4900,73,96,403469
1.8426,0.1906,38.3600,73,96,403473
1.8182,0.1857,38.2100,73,96,403476
1.8475,0.1857,38.4900,73,96,403479
1.8475,0.1906,38.4300,73,96,403482
1.8280,0.1857,38.4900,73,96,403486
1.8573,0.1857,38.3300,73,96,403489
1.8328,0.1955,38.4300,73,96,403492
1.8231,0.1857,38.4900,73,96,403496
1.8328,0.1906,38.4000,73,96,403500
1.8084,0.1808,38.4900,73,96,403503
1.8426,0.1906,38.2400,73,96,403507
1.8328,0.1808,38.4300,73,96,403510
1.8084,0.1857,38.5200,73,96,403513
1.8231,0.1906,38.1800,73,96,403516
1.8231,0.1711,38.5200,73,96,403520
1.8622,0.1955,38.2400,73,96,403523
1.8328,0.1955,38.4300,73,96,403526
1.8084,0.1808,38.4900,73,96,403530
1.8084,0.2004,38.4600,73,96,403533
1.8084,0.1808,38.5200,73,96,403536
1.8768,0.2053,38.3000,73,96,403540
1.8328,0.2199,38.4600,73,96,403544
1.8671,0.1711,38.4300,73,96,403547
1.8182,0.1906,38.4000,73,96,403551
1.8084,0.1808,38.4900,73,96,403554
1.8622,0.1955,38.3600,73,96,403557
1.8182,0.1906,38.6500,73,96,403560
1.8328,0.2053,38.3600,73,96,403564
1.8133,0.1906,38.5200,73,96,403567
1.8084,0.1857,38.5500,73,96,403570
1.8231,0.1906,38.4300,73,96,403574
1.8084,0.1857,38.4900,73,96,403577
1.8671,0.1955,38.4000,73,96,403580
1.8035,0.2053,38.4900,73,96,403585
1.7986,0.1906,38.5200,73,96,403588
1.8280,0.1906,38.4300,73,96,403591
1.7986,0.1906,38.4900,73,96,403595
1.8280,0.1857,38.3300,73,96,403598
1.8182,0.1906,38.3300,73,96,403601
1.8084,0.1808,38.4900,73,96,403604
1.8231,0.1906,38.4000,73,96,403608
1.8035,0.1857,38.5200,73,96,403611
1.8377,0.1955,38.2400,73,96,403614
1.8035,0.1906,38.4900,73,96,403618
1.7986,0.2053,38.4900,73,96,403621
1.8133,0.1906,38.4300,73,96,403624
1.7937,0.1857,38.6200,73,96,403629
1.8377,0.2004,37.9600,73,96,403632
1.7986,0.1906,38.3300,73,96,403635
1.7937,0.1857,38.5200,73,96,403638
1.7840,0.1906,38.4600,73,96,403642
1.7791,0.1808,38.4900,73,96,403645
1.8231,0.2004,38.3000,73,96,403648
1.7840,0.1857,38.5800,73,96,403652
1.7889,0.1857,38.4000,73,96,403655
1.7840,0.1906,38.3600,73,96,403658
1.7840,0.1857,38.5500,73,96,403662
1.8182,0.1906,38.3000,73,96,403665
1.7840,0.1857,38.5200,73,96,403668
1.8280,0.1808,38.3000,73,96,403673
1.7889,0.1906,38.5200,73,96,403676
1.7889,0.1857,38.4900,73,96,403679
1.8133,0.1955,38.4300,73,96,403682
1.7889,0.1906,38.4900,73,96,403686
1.8182,0.2199,38.4000,73,96,403689
1.7840,0.1857,38.5800,73,96,403692
1.7986,0.1857,38.4600,73,96,403696
1.8182,0.1711,38.4000,73,96,403699
1.8035,0.1857,38.4900,73,96,403702
1.8573,0.1906,38.2700,73,96,403706
1.8035,0.1808,38.7400,73,96,403709
1.8035,0.2004,38.5500,73,96,403713
1.8182,0.1906,38.4300,73,96,403716
1.8084,0.1906,38.5200,73,96,403720
1.8475,0.1857,38.2400,73,96,403723
1.8231,0.1906,38.4300,73,96,403726
1.7986,0.1857,38.6500,73,96,403730
1.8133,0.1955,38.4600,73,96,403733
1.8084,0.1857,38.4000,73,96,403736
1.8573,0.1955,38.2100,73,96,403740
1.8133,0.1906,38.5500,73,96,403743
1.7986,0.2102,38.4900,73,96,403746
1.7986,0.1906,38.4600,73,96,403750
1.7937,0.1857,38.4900,73,96,403753
1.8475,0.1955,38.3300,73,96,403757
1.8133,0.1906,38.6500,73,96,403760
1.8182,0.1955,38.4000,73,96,403764
1.8084,0.1906,38.5500,73,96,403767
1.8084,0.1955,38.5200,73,96,403770
1.8377,0.1955,38.4300,73,96,403774
1.8182,0.1906,38.4600,73,96,403777
1.8426,0.1955,38.4300,73,96,403780
1.8182,0.1906,38.5200,73,96,403784
1.8231,0.1808,38.4900,73,96,403787
1.8524,0.1955,38.4000,73,96,403790
1.8280,0.1808,38.4600,73,96,403794
1.8622,0.1857,38.3600,73,96,403798
1.8426,0.1906,38.4000,73,96,403801
1.8328,0.1808,38.4900,73,96,403804
1.8475,0.1906,38.4300,73,96,403808
1.8280,0.1808,38.4900,73,96,403811
1.8524,0.1955,38.3000,73,96,403814
1.8328,0.1906,38.5200,73,96,403818
1.8231,0.1808,38.5200,73,96,403821
1.8426,0.1955,38.4300,73,96,403824
1.8182,0.1857,38.5200,73,96,403828
1.8866,0.1955,38.2400,73,96,403831
1.8231,0.1857,38.4000,73,96,403834
1.8231,0.1906,38.4900,73,96,403838
1.8280,0.1906,38.4900,73,96,403842
1.8084,0.1857,38.4600,73,96,403845
1.8573,0.2053,38.2400,73,96,403848
1.8182,0.1906,38.4900,73,96,403852
1.8133,0.1760,38.4600,73,96,403855
1.8182,0.1906,38.5500,73,96,403858
1.8280,0.1808,38.5500,73,96,403862
1.8573,0.1955,38.3000,73,96,403865
1.8328,0.1955,38.4900,73,96,403869
1.8084,0.1955,38.4900,73,96,403872
1.8328,0.1955,38.3600,73,96,403875
1.8035,0.1857,38.4600,73,96,403879
1.8328,0.1857,38.4900,73,96,403883
1.8231,0.1906,38.3600,73,96,403886
1.8084,0.1857,38.4600,73,96,403890
1.8475,0.1906,38.2700,73,96,403893
1.8133,0.2102,38.5500,73,96,403896
1.8182,0.1857,38.4900,73,96,403899
1.8377,0.1906,38.3300,73,96,403903
1.8182,0.1955,38.4900,73,96,403906
1.8719,0.1955,38.2400,73,96,403909
1.8377,0.1857,38.4300,73,96,403913
1.8328,0.1857,38.5200,73,96,403916
1.8426,0.1808,38.4900,73,96,403919
1.8524,0.1857,38.4900,73,96,403923
1.9110,0.2053,38.0500,73,96,403927
1.8964,0.1955,38.4300,73,96,403930
1.8622,0.1808,38.4600,73,96,403933
1.8622,0.1906,38.5200,73,96,403937
1.8573,0.1906,38.4900,73,96,403940
1.9062,0.2004,38.3300,73,96,403943
1.8719,0.1906,38.4000,73,96,403947
1.8719,0.1711,38.4000,73,96,403950
1.8475,0.1857,38.1100,73,96,403953
1.8573,0.1906,38.4900,73,96,403957
1.8768,0.1906,38.4600,73,96,403960
1.8524,0.1857,38.4900,73,96,403963
1.8866,0.1906,38.3600,73,96,403968
1.8524,0.2004,38.5500,73,96,403971
1.8524,0.1906,38.4900,73,96,403974
1.8866,0.1955,38.4000,73,96,403977
1.8573,0.1906,38.5200,73,96,403981
1.8768,0.1857,38.3600,73,96,403984
1.8573,0.1857,38.3600,73,96,403987
1.8622,0.1857,38.4900,73,96,403991
1.8524,0.1906,38.4000,73,96,403994
1.8328,0.1857,38.4900,73,96,403997
1.8622,0.1955,38.3000,73,96,404001
1.8426,0.1906,38.4000,73,96,404004
1.8328,0.1955,38.4900,73,96,404007
1.8622,0.1955,38.4900,73,96,404011
1.8280,0.1857,38.4900,73,96,404015
1.8671,0.1955,38.2100,73,96,404018
1.8280,0.1857,38.4600,73,96,404021
1.8084,0.1857,38.5200,73,96,404025
1.8084,0.1711,38.4600,73,96,404028
1.8084,0.1857,38.5200,73,96,404031
1.8866,0.2004,38.2400,73,96,404035
1.9159,0.1906,38.4600,73,96,404038
2.0039,0.1857,38.4000,73,96,404041
2.1212,0.1955,38.4900,73,96,404045
2.2385,0.1857,38.5200,73,96,404048
2.3949,0.2053,38.3300,73,96,404051
2.4291,0.1906,38.4600,73,96,404055
2.5171,0.1857,38.3600,73,96,404059
2.5855,0.1906,38.4900,73,96,404062
2.7126,0.1857,38.4900,73,96,404065
2.8983,0.1857,38.3600,73,96,404069
2.9374,0.1906,38.4900,73,96,404072
2.8641,0.1906,38.4300,73,96,404075
2.5855,0.1906,38.4900,73,96,404079
2.2727,0.1808,38.4900,73,96,404082
1.9795,0.1857,38.4300,73,96,404085
1.7058,0.1906,38.4900,73,96,404088
1.5934,0.1808,38.3600,73,96,404092
1.4565,0.2297,38.4900,73,96,404096
1.4418,0.1711,38.4900,73,96,404099
1.4761,0.1906,38.5500,73,96,404103
1.4956,0.1857,38.4900,73,96,404106
1.5787,0.1906,37.5300,73,96,404109
1.6373,0.1906,38.4000,73,96,404113
1.6716,0.1808,38.4900,73,96,404116
1.7107,0.1906,38.6500,73,96,404119
1.6911,0.1955,38.4900,73,96,404122
1.7107,0.1955,38.2400,73,96,404126
1.6618,0.1906,38.4300,73,96,404129
1.6325,0.1857,38.5200,73,96,404132
1.6276,0.1906,38.4600,73,96,404136
1.6080,0.1955,38.5200,73,96,404140
1.6618,0.1906,38.2400,73,96,404143
1.6227,0.1955,38.4000,73,96,404147
1.6178,0.1857,38.4600,73,96,404150
1.6129,0.1906,38.5500,73,96,404153
1.6080,0.1857,38.5200,73,96,404157
1.6618,0.2004,38.4300,73,96,404160
1.6373,0.1906,38.4900,73,96,404163
1.6618,0.2004,38.4000,73,96,404166
1.6422,0.1906,38.4900,73,96,404170
1.6373,0.2053,38.4900,73,96,404173
1.6716,0.1955,38.3600,73,96,404176
1.6569,0.1955,38.4600,73,96,404180
1.6813,0.1857,38.4000,73,96,404184
1.6764,0.1808,38.4900,73,96,404187
1.6862,0.1906,38.5500,73,96,404191
1.7155,0.1906,38.4300,73,96,404194
1.7058,0.1857,38.4000,73,96,404197
1.7449,0.2102,38.3600,73,96,404201
1.7351,0.1857,38.4300,73,96,404204
1.7449,0.1955,38.4900,73,96,404207
1.7644,0.1906,38.3600,73,96,404210
1.7595,0.1857,38.6200,73,96,404214
1.8035,0.2004,38.2700,73,96,404217
1.7889,0.1857,38.4900,73,96,404220
1.8035,0.1808,38.4900,73,96,404225
1.8475,0.1955,38.4000,73,96,404228
1.8133,0.1857,38.6200,73,96,404231
1.8622,0.2053,38.2400,73,96,404235
1.8231,0.1906,38.4000,73,96,404238
1.8231,0.1857,37.8000,73,96,404241
1.8231,0.1906,38.4900,73,96,404244
1.8182,0.1857,37.9600,73,96,404248
1.8671,0.2004,38.2400,73,96,404251
1.8231,0.1906,38.4600,73,96,404254
1.8182,0.2199,38.4900,73,96,404258
1.8231,0.1906,38.4900,73,96,404261
1.8133,0.1857,38.6800,73,96,404264
1.8719,0.2004,38.3600,73,96,404269
1.8133,0.1906,38.5500,73,96,404272
1.8133,0.2102,38.3300,73,96,404275
1.7937,0.1906,38.4900,73,96,404279
1.7937,0.1906,38.5200,73,96,404282
1.8231,0.1955,38.4600,73,96,404285
1.7937,0.1857,38.3600,73,96,404288
1.8182,0.1857,38.3600,73,96,404292
1.7889,0.1857,38.4600,73,96,404295
1.7889,0.1857,38.4900,73,96,404298
1.8035,0.1955,38.4000,73,96,404302
1.7840,0.1808,38.4900,73,96,404305
1.7840,0.1711,38.4000,73,96,404308
1.7644,0.1906,38.3600,73,96,404313
1.7693,0.1711,38.4900,73,96,404316
1.7742,0.1955,38.4000,73,96,404319
1.7791,0.1711,38.4900,73,96,404323
1.8377,0.1906,38.2400,73,96,404326
1.8280,0.1906,38.4300,73,96,404329
1.8377,0.1857,38.5200,73,96,404332
1.8768,0.1955,38.4300,73,96,404336
1.8719,0.1857,38.5200,73,96,404339
1.9404,0.1955,38.2400,73,96,404342
1.9257,0.1906,38.4300,73,96,404346
1.9306,0.1760,38.4600,73,96,404349
1.9501,0.1906,38.4600,73,96,404353
1.9453,0.1857,38.5200,73,96,404357
2.0137,0.2053,38.3000,73,96,404360
1.9648,0.1906,38.4300,73,96,404363
1.9501,0.1857,38.4000,73,96,404367
1.9648,0.1711,38.4900,73,96,404370
1.9208,0.1857,38.4900,73,96,404373
1.9453,0.1906,38.3000,73,96,404376
1.9062,0.1906,38.4900,73,96,404380
1.9257,0.1906,38.4000,73,96,404383
1.9062,0.1955,38.5200,73,96,404386
1.9062,0.1857,38.5200,73,96,404390
1.9257,0.2004,38.4000,73,96,404393
1.9013,0.1808,38.4600,73,96,404397
1.9208,0.1906,38.4000,73,96,404401
1.8866,0.1857,37.9300,73,96,404404
1.9110,0.1906,38.4900,73,96,404407
1.8719,0.1906,38.4000,73,96,404410
1.8524,0.1857,38.4000,73,96,404414
1.8671,0.2102,38.3300,73,96,404417
1.8377,0.1906,38.4600,73,96,404420
1.8328,0.1857,38.5200,73,96,404424
1.8524,0.1906,38.3600,73,96,404427
1.8231,0.1906,38.5200,73,96,404430
1.8622,0.1906,38.2400,73,96,404434
1.8426,0.1857,38.4000,73,96,404438
1.8280,0.1955,38.4900,73,96,404441
1.8426,0.1906,38.4600,73,96,404445
1.8328,0.1857,38.5200,73,96,404448
1.8768,0.1955,38.1800,73,96,404451
1.8377,0.1906,38.4300,73,96,404454
1.8280,0.1857,38.6500,73,96,404458
1.8426,0.1857,38.4600,73,96,404461
1.8377,0.1906,38.4900,73,96,404464
1.8964,0.2297,38.3300,73,96,404468
1.8622,0.1906,38.4900,73,96,404471
1.8622,0.1857,38.5200,73,96,404474
1.8671,0.1906,38.4900,73,90,404478
1.8524,0.1857,38.4900,73,90,404482
1.8475,0.2053,38.5200,73,90,404486
1.8817,0.1955,38.3600,73,90,404489
1.8426,0.1857,38.4900,73,90,404492
1.9013,0.1857,38.3300,73,90,404496
1.8573,0.1906,38.4000,73,90,404499
1.8426,0.1857,38.4600,73,90,404502
1.8573,0.1906,38.4300,73,90,404505
1.8426,0.1857,38.4600,73,90,404509
1.8964,0.1955,38.2700,73,90,404512
1.8573,0.1955,38.4000,73,90,404515
1.8426,0.1760,38.4900,73,90,404519
1.8524,0.1906,38.5200,73,90,404523
1.8377,0.1955,38.5200,73,90,404526
1.8817,0.1955,38.2100,73,90,404530
1.8524,0.2053,38.4000,73,90,404533
1.8377,0.1760,38.4600,73,90,404536
1.8426,0.1906,38.4900,73,90,404540
1.8328,0.1857,38.4900,73,90,404543
1.8915,0.2004,38.3000,73,90,404546
1.8426,0.1906,38.4600,73,90,404549
1.8475,0.1857,38.4300,73,90,404553
1.8426,0.1857,38.5200,73,90,404556
1.8475,0.1857,38.5500,73,90,404559
1.8866,0.1955,38.3300,73,90,404563
1.8622,0.1906,38.4900,73,90,404567
1.8866,0.1857,38.4300,73,90,404570
1.8671,0.1857,38.4900,73,90,404574
1.8622,0.1955,38.4900,73,90,404577
1.8866,0.1955,38.4000,73,90,404580
1.8622,0.1906,38.4000,73,90,404583
1.8915,0.2395,38.4000,73,90,404587
1.8768,0.1857,38.4600,73,90,404590
1.8768,0.1857,38.5200,73,90,404593
1.9257,0.1711,38.3300,73,90,404597
1.8768,0.1857,38.6800,73,90,404600
1.8964,0.1955,38.3000,73,90,404603
1.8671,0.1857,38.4900,73,90,404608
1.8671,0.1955,38.5200,73,90,404611
1.8866,0.1955,38.4300,73,90,404614
1.8622,0.1808,38.4900,73,90,404618
1.9013,0.1955,38.2700,73,90,404621
1.8671,0.1906,38.4300,73,90,404624
1.8817,0.1711,38.4900,73,90,404627
1.8524,0.1906,38.4900,73,90,404631
1.8475,0.1808,38.4600,73,90,404634
1.8817,0.2004,37.4900,73,90,404637
1.8280,0.1955,38.4300,73,90,404641
1.8182,0.1808,38.4600,73,90,404644
1.8133,0.1906,38.4900,73,90,404647
1.8084,0.1857,38.5200,73,90,404652
1.8524,0.2004,38.3300,73,90,404655
1.8182,0.1906,38.4900,73,90,404658
1.8328,0.1906,38.4600,73,90,404662
1.8231,0.1906,38.4600,73,90,404665
1.8475,0.1857,38.5200,73,90,404668
1.8475,0.1955,38.5200,73,90,404671
1.8182,0.1955,38.4900,73,90,404675
1.8377,0.1906,38.3600,73,90,404678
1.8084,0.1808,38.4900,73,90,404681
1.8084,0.1857,38.5200,73,90,404685
1.8426,0.1955,38.3600,73,90,404688
1.8182,0.1808,38.4900,73,90,404691
1.8524,0.1857,38.3600,73,90,404696
1.8328,0.1906,38.4000,73,90,404699
1.8328,0.1857,38.4900,73,90,404702
1.8475,0.1906,38.4000,73,90,404706
1.8328,0.2151,38.4900,73,90,404709
1.8622,0.1906,38.2700,73,90,404712
1.8426,0.2444,38.4300,73,90,404715
1.8475,0.1857,38.5200,73,90,404719
1.8671,0.1906,38.4600,73,90,404722
1.8475,0.1808,38.4900,73,90,404725
1.9013,0.1906,38.2100,73,90,404729
1.8622,0.1955,38.4300,73,90,404732
1.8573,0.1857,38.5200,73,90,404736
1.8573,0.2199,38.4600,73,90,404740
1.8524,0.1857,38.4900,73,90,404743
1.9110,0.2199,38.2400,73,90,404746
1.8768,0.1955,38.4300,73,90,404749
1.8671,0.1808,38.4600,73,90,404753
1.8622,0.1808,38.4900,73,90,404756
1.8524,0.1857,38.5200,73,90,404759
1.8964,0.2004,38.3000,73,90,404763
1.8622,0.1906,38.4600,73,90,404766
1.8817,0.1857,38.3000,73,90,404769
1.8719,0.1906,38.5200,73,90,404773
1.8622,0.1857,38.4900,73,90,404776
1.8817,0.1955,38.3600,73,90,404780
1.8573,0.1857,38.4600,73,90,404784
1.8719,0.1906,38.4000,73,90,404787
1.8426,0.1857,38.4900,73,90,404790
1.8426,0.1857,38.5200,73,90,404793
1.8524,0.1906,38.4000,73,90,404797
1.8377,0.1711,38.4900,73,90,404800
1.8573,0.1857,38.3300,73,90,404803
1.8622,0.1808,38.4900,73,90,404807
1.8377,0.1857,38.5200,73,90,404810
1.8573,0.1955,38.4300,73,90,404813
1.8328,0.1857,38.4900,73,90,404817
1.8573,0.1955,38.2700,73,90,404820
1.8475,0.1906,38.4000,73,90,404824
1.8280,0.1857,38.4900,73,90,404828
1.8426,0.1906,38.4600,73,90,404831
1.8280,0.1857,38.5500,73,90,404834
1.8719,0.2004,38.2400,73,90,404837
1.8377,0.1906,38.4300,73,90,404841
1.8328,0.1857,37.8300,73,90,404844
1.8475,0.1808,38.4600,73,90,404847
1.8426,0.1857,38.4900,73,90,404851
1.9013,0.2053,38.2700,73,90,404854
1.8671,0.1955,38.4600,73,90,404857
1.8524,0.1857,38.4000,73,90,404861
1.8524,0.1906,38.4900,73,90,404865
1.8524,0.1906,38.4900,73,90,404868
1.9062,0.2053,38.3600,73,90,404872
1.8573,0.1906,38.5500,73,90,404875
1.8622,0.2151,38.3600,73,90,404878
1.8377,0.1857,38.4900,73,90,404881
1.8328,0.1906,38.4900,73,90,404885
1.8671,0.1906,38.3300,73,90,404888
1.8377,0.1808,38.4900,73,90,404891
1.8622,0.1906,38.4000,73,90,404895
1.8231,0.1857,38.4900,73,90,404898
1.8182,0.1808,38.5200,73,90,404901
1.8377,0.1906,38.3000,73,90,404905
1.8328,0.1906,38.4900,73,90,404909
1.9208,0.1857,38.3000,73,90,404912
1.9306,0.1857,38.4300,73,90,404916
2.0137,0.1857,38.5200,73,90,404919
2.1408,0.1906,38.4000,73,90,404922
2.2336,0.1857,38.4900,73,90,404925
2.3803,0.1906,38.2400,73,90,404929
2.4096,0.1857,38.4300,73,90,404932
2.4780,0.1857,38.5200,73,90,404935
2.5562,0.1808,38.4600,73,90,404939
2.6588,0.1857,38.5800,73,90,404942
2.8788,0.1955,38.1800,73,90,404945
2.9228,0.1906,38.4300,73,90,404950
2.8348,0.1808,38.4300,73,90,404953
2.6149,0.1906,38.4900,73,90,404956
2.2972,0.1857,38.4900,73,90,404959
2.0381,0.2004,38.2700,73,90,404963
1.7302,0.1955,38.5200,73,90,404966
1.5738,0.1857,38.4300,73,90,404969
1.5005,0.1857,38.4900,73,90,404973
1.4858,0.1857,38.5500,73,90,404976
1.5396,0.2151,38.3600,73,90,404979
1.5543,0.1906,38.4600,73,90,404983
1.6178,0.1857,38.3600,73,90,404986
1.6813,0.1808,38.5200,73,90,404989
1.7155,0.2102,38.4900,73,90,404994
1.7498,0.1955,38.4300,73,90,404997
1.7302,0.1906,38.4300,73,90,405000
1.7351,0.1906,38.4000,73,90,405003
1.6911,0.1857,38.4900,73,90,405007
1.6667,0.1857,38.5200,73,90,405010
1.6716,0.1955,38.4000,73,90,405013
1.6373,0.1906,38.4900,73,90,405017
1.6569,0.1808,38.3300,73,90,405020
1.6422,0.1906,38.4000,73,90,405023
1.6373,0.1857,38.4600,73,90,405027
1.6618,0.1955,38.4600,73,90,405030
1.6569,0.1808,38.4900,73,90,405033
1.7009,0.1955,38.2400,73,90,405037
1.6764,0.1857,38.5500,73,90,405041
1.6716,0.2004,38.5500,73,90,405044
1.6911,0.1906,38.4600,73,90,405047
1.6813,0.1857,38.5800,73,90,405051
1.7449,0.1955,38.2100,73,90,405054
1.7058,0.1906,38.4000,73,90,405057
1.7058,0.1906,38.4600,73,90,405061
1.7449,0.1906,38.4900,73,90,405064
1.7253,0.1857,38.6800,73,90,405067
1.7889,0.1955,38.3300,73,90,405071
1.7498,0.1906,38.5200,73,90,405074
1.7546,0.1808,38.4000,73,90,405078
1.7498,0.1906,38.5200,73,90,405081
1.7595,0.1857,38.4600,73,90,405085
1.8035,0.1955,38.3300,73,96,405088
1.8084,0.1906,38.0200,73,96,405092
1.8035,0.1857,38.4600,73,96,405095
1.8328,0.1857,38.3300,73,96,405098
1.8182,0.1857,38.4000,73,96,405102
1.8084,0.1808,38.4900,73,96,405105
1.8280,0.1906,38.4300,73,96,405108
1.8084,0.1857,38.4600,73,96,405112
1.8524,0.1955,38.2400,73,96,405115
1.8182,0.1857,38.4000,73,96,405118
1.8133,0.1857,38.4900,73,96,405123
1.8182,0.1906,37.9300,73,96,405126
1.8035,0.1857,38.5200,73,96,405129
1.8622,0.1955,38.2100,73,96,405132
1.8328,0.1906,38.5500,73,96,405136
1.8231,0.1857,38.4600,73,96,405139
1.8231,0.1955,38.4900,73,96,405142
1.8084,0.1857,38.4900,73,96,405146
1.8524,0.2004,38.2700,73,96,405149
1.8084,0.1711,38.5200,73,96,405152
1.8133,0.1857,38.4000,73,96,405156
1.8084,0.1808,38.5500,73,96,405159
1.8133,0.1857,38.4600,73,96,405163
1.8377,0.1906,38.4000,73,96,405167
1.8280,0.1857,38.4600,73,96,405170
1.8475,0.1906,38.3300,73,96,405173
1.8377,0.1857,38.6500,73,96,405176
1.8671,0.1857,38.4900,73,96,405180
1.8671,0.1857,38.6200,73,96,405183
1.8622,0.1711,38.4900,73,96,405186
1.9110,0.1906,38.4300,73,96,405190
1.9062,0.1711,38.5200,73,96,405193
1.9208,0.1857,38.7100,73,96,405196
1.9550,0.1955,38.3600,73,96,405200
1.9306,0.1857,38.4900,73,96,405203
1.9648,0.1955,38.2700,73,96,405207
1.9599,0.1906,38.4300,73,96,405211
1.9501,0.1857,38.5200,73,96,405214
1.9648,0.1955,38.4600,73,96,405217
1.9404,0.1857,38.4900,73,96,405220
1.9844,0.1955,38.2400,73,96,405224
1.9355,0.1906,38.4600,73,96,405227
1.9257,0.1857,38.5200,73,96,405230
1.9355,0.1906,38.4600,73,96,405234
1.9208,0.1906,38.4900,73,96,405237
1.9795,0.2004,38.2100,73,96,405240
1.9355,0.1906,38.4300,73,96,405244
1.9110,0.1711,38.4300,73,96,405248
1.9013,0.1906,38.4300,73,96,405251
1.9013,0.1711,38.5200,73,96,405255
1.9355,0.2004,38.4900,73,96,405258
1.8915,0.1906,38.4900,73,96,405261
1.9110,0.1857,38.3600,73,96,405264
1.8671,0.1906,38.4600,73,96,405268
1.8573,0.1711,38.5200,73,96,405271
1.8866,0.1906,38.2400,73,96,405274
1.8475,0.1857,38.4900,73,96,405278
1.8671,0.1906,38.4300,73,96,405281
1.8328,0.1857,38.4300,73,96,405284
1.8231,0.1857,38.4900,73,96,405288
1.8524,0.2102,38.4000,73,96,405292
1.8719,0.1906,38.4900,73,96,405295
1.8719,0.1857,38.3600,73,96,405299
1.8475,0.1808,38.4300,73,96,405302
1.8426,0.1955,38.4900,73,96,405305
1.8622,0.1906,38.4000,73,96,405308
1.8475,0.1808,38.5200,73,96,405312
1.8866,0.1955,38.3000,73,96,405315
1.8475,0.1857,37.7400,73,96,405318
1.8524,0.1857,38.4900,73,96,405322
1.8768,0.1906,38.4300,73,96,405325
1.8622,0.2199,38.4600,73,96,405328
1.9159,0.1955,38.2100,73,96,405332
1.8817,0.1906,38.3300,73,96,405336
1.8573,0.1857,38.5200,73,96,405339
1.8524,0.1906,38.5500,73,96,405342
1.8475,0.1808,38.5200,73,96,405346
1.9013,0.2053,38.2700,73,96,405349
1.8622,0.1955,38.4600,73,96,405352
1.8768,0.1808,38.4300,73,96,405356
1.8671,0.1906,38.5800,73,96,405359
1.8573,0.1906,38.4600,73,96,405362
1.8866,0.1906,38.3600,73,96,405366
1.8426,0.1906,38.5500,73,96,405369
1.8573,0.1906,38.3600,73,96,405372
1.8377,0.1857,37.9600,73,96,405377
1.8475,0.1857,38.4600,73,96,405380
1.8622,0.1906,38.4000,73,96,405383
1.8524,0.1808,38.4900,73,96,405386
1.8817,0.1906,38.3600,73,96,405390
1.8671,0.2346,38.4900,73,96,405393
1.8817,0.1857,38.4900,73,96,405396
1.9159,0.2297,38.3600,73,96,405400
1.8866,0.1857,38.4900,73,96,405403
1.9062,0.1857,38.2700,73,96,405406
1.8866,0.1808,38.4300,73,96,405410
1.8768,0.1857,38.5200,73,96,405413
1.8866,0.1955,38.4300,73,96,405416
1.8817,0.1857,38.4900,73,96,405421
1.9208,0.1906,38.3300,73,96,405424
1.8915,0.1906,38.4000,73,96,405427
1.8768,0.1857,38.4900,73,96,405430
1.8817,0.1906,38.4300,73,96,405434
1.8573,0.1711,38.4900,73,96,405437
1.9110,0.1955,38.4000,73,96,405440
1.8768,0.1906,38.4000,73,96,405444
1.8671,0.1515,38.4600,73,96,405447
1.8719,0.1906,38.4600,73,96,405450
1.8671,0.1857,38.5200,73,96,405454
1.9257,0.2053,38.3000,73,96,405457
1.8719,0.1906,38.4900,73,96,405460
1.8671,0.1857,38.5800,73,96,405465
1.8573,0.1955,38.4900,73,96,405468
1.8573,0.1906,38.4000,73,96,405471
1.8964,0.1955,38.3300,73,96,405474
1.8622,0.1857,38.4900,73,96,405478
1.8671,0.1906,38.3600,73,96,405481
1.8280,0.1857,38.4900,73,96,405484
1.8231,0.1857,38.5800,73,96,405488
1.8573,0.2004,38.4000,73,96,405491
1.8377,0.1906,38.4600,73,96,405494
1.8719,0.1906,38.3600,73,96,405498
1.8524,0.1857,38.4600,73,96,405501
1.8475,0.1857,38.4900,73,96,405505
1.8719,0.1711,38.3600,73,96,405509
1.8377,0.1906,37.8000,73,96,405512
1.8671,0.1857,38.3000,73,96,405515
1.8377,0.1808,38.4900,73,96,405518
1.8377,0.1857,38.5200,73,96,405522
1.8817,0.1955,38.4300,73,96,405525
1.8475,0.1857,38.5200,73,96,405528
1.8964,0.1955,38.2400,73,96,405532
1.8768,0.1906,38.3300,73,96,405535
1.8573,0.1906,38.4900,73,96,405538
1.8573,0.1906,38.7100,73,96,405542
1.8426,0.1906,38.4900,73,96,405545
1.9062,0.2004,38.2400,73,96,405549
1.8671,0.1857,38.5500,73,96,405553
1.8622,0.1808,38.4300,73,96,405556
1.8671,0.1906,38.4900,73,96,405559
1.8964,0.1857,38.4900,73,96,405562
1.9110,0.2004,38.3300,73,96,405566
1.8719,0.2053,38.4600,73,96,405569
1.8817,0.1857,38.4000,73,96,405572
1.8622,0.1906,38.5200,73,96,405576
1.8622,0.1857,38.4900,73,96,405579
1.8866,0.1955,38.4000,73,96,405582
1.8915,0.1808,38.4000,73,96,405586
1.8866,0.1906,38.3600,73,96,405590
1.8475,0.1955,38.4900,73,96,405593
1.8426,0.1955,38.4900,73,96,405597
1.8622,0.1955,38.4000,73,96,405600
1.8377,0.1857,38.4900,73,96,405603
1.8671,0.1857,38.3300,73,96,405606
1.8524,0.1906,38.4300,73,96,405610
1.8475,0.1857,38.5200,73,96,405613
1.8671,0.1906,38.3600,73,96,405616
1.8524,0.1857,38.4900,73,96,405620
1.8915,0.1906,38.2700,73,96,405623
1.8573,0.1857,38.4300,73,96,405626
1.8524,0.1857,38.5200,73,96,405630
1.8671,0.1906,38.4300,73,96,405634
1.8377,0.1857,38.5500,73,96,405637
1.8671,0.1955,38.2100,73,96,405641
1.8182,0.1857,38.4300,73,96,405644
1.8133,0.1857,38.4600,73,96,405647
1.8377,0.1906,38.4900,73,96,405650
1.8573,0.2053,38.5500,73,96,405654
1.9795,0.2004,38.2700,73,96,405657
2.0137,0.1906,38.4900,73,96,405660
2.1163,0.1857,38.4300,73,96,405664
2.2483,0.1906,38.5200,73,96,405667
2.3705,0.1857,38.5200,73,96,405670
2.5367,0.1906,38.3000,73,96,405675
2.5953,0.1857,38.6800,73,96,405678
2.7175,0.1906,38.4000,73,96,405681
2.8348,0.1711,38.5200,73,96,405684
3.0108,0.1857,38.6200,73,96,405688
3.1965,0.1955,38.4000,73,96,405691
3.1134,0.1857,38.4600,73,96,405694
2.9326,0.1906,38.4000,73,96,405698
2.5904,0.1808,38.3000,72,96,405701
1.5396,0.1711,38.4900,72,96,405705
1.5200,0.1857,38.4600,72,96,405708
1.5445,0.2004,38.4300,72,96,405711
1.5396,0.1857,38.4600,72,96,405715
1.6129,0.1955,38.2100,72,96,405719
1.6227,0.1906,38.4300,72,96,405722
1.6276,0.1857,38.6800,72,96,405725
1.6325,0.1906,38.4600,72,96,405729
1.5982,0.1857,38.5800,72,96,405732
1.6178,0.2004,38.2400,72,96,405735
1.5543,0.1906,38.4600,72,96,405739
1.5347,0.1808,38.4300,72,96,405742
1.5347,0.1711,38.4900,72,96,405745
1.5396,0.1857,38.4900,72,96,405749
1.5885,0.2102,38.3300,72,96,405752
1.5640,0.1906,38.4600,72,96,405755
1.5836,0.1857,37.6500,72,96,405760
1.5836,0.1808,38.4900,72,96,405763
1.5934,0.1857,38.6500,72,96,405766
1.6520,0.2004,38.4300,72,96,405769
1.5982,0.1857,38.4900,72,96,405773
1.6276,0.1906,38.5500,72,96,405776
1.6325,0.1857,38.5200,72,96,405779
1.6422,0.2102,38.4900,72,96,405783
1.6862,0.1955,38.3600,72,96,405786
1.6520,0.2151,38.5500,72,96,405789
1.6667,0.1857,38.4000,72,96,405793
1.6667,0.1857,38.4000,72,96,405796
1.6618,0.1808,38.4900,72,96,405799
1.6862,0.1906,38.5200,72,96,405804
1.6862,0.1955,38.5500,72,96,405807
1.7253,0.1906,38.2700,72,96,405810
1.7253,0.2199,38.4300,72,96,405813
1.7595,0.1808,38.4900,72,96,405817
1.7546,0.1906,38.4300,72,96,405820
1.7302,0.1857,37.8700,72,96,405823
1.7791,0.1906,38.2700,72,96,405827
1.7546,0.1857,38.3300,72,96,405830
1.7546,0.1906,38.4900,72,96,405833
1.7693,0.1906,38.5200,72,96,405837
1.7742,0.1857,38.5500,72,96,405840
1.8377,0.1906,38.2700,72,96,405843
1.8035,0.1906,38.4600,72,96,405847
1.7937,0.1955,38.4600,72,96,405851
1.7937,0.1906,38.5800,72,96,405854
1.8035,0.1808,38.4900,72,96,405857
1.8573,0.1955,38.3000,72,96,405861
1.8426,0.1857,38.4000,72,96,405864
1.8622,0.1760,38.3600,72,96,405867
1.8475,0.1857,38.5200,72,96,405871
1.8377,0.1808,38.5200,72,96,405874
1.8671,0.1955,38.3600,72,96,405877
1.8475,0.1906,38.4600,72,96,405881
1.8915,0.1955,38.3600,72,96,405884
1.8573,0.1857,38.5200,72,96,405888
1.8915,0.1857,38.4900,72,96,405891
1.8671,0.1857,38.4000,72,96,405895
1.8622,0.1857,38.4900,72,96,405898
1.9159,0.1808,38.3300,72,96,405901
1.8719,0.1906,38.5200,72,96,405905
1.8671,0.1955,38.4900,72,96,405908
1.8817,0.1906,38.4600,72,96,405911
1.8622,0.1857,38.4900,72,96,405915
1.8915,0.1906,38.2700,72,96,405918
1.8573,0.1857,38.4000,72,96,405921
1.8475,0.1857,38.5200,72,96,405925
1.8573,0.2004,38.4300,72,96,405928
1.8768,0.1711,38.4900,72,96,405932
1.9404,0.1955,38.5200,72,96,405935
1.9550,0.1808,38.4300,72,96,405939
1.9306,0.1711,38.5200,72,96,405942
1.9404,0.1906,38.4000,72,96,405945
1.9355,0.2151,38.4900,72,96,405949
1.9892,0.2053,38.3000,72,96,405952
1.9355,0.1906,38.4300,72,96,405955
1.9110,0.1857,38.4300,72,96,405959
1.8866,0.1906,38.4600,72,96,405962
1.8671,0.1857,38.4300,72,96,405965
1.8964,0.1955,38.4000,72,96,405969
1.8768,0.1857,38.4900,72,96,405972
1.8768,0.1906,38.3600,72,96,405976
1.8622,0.1808,38.4900,72,96,405979
1.8622,0.1515,38.5200,72,96,405983
1.8964,0.2004,38.3300,72,96,405986
1.8524,0.1857,38.4900,72,96,405989
1.8768,0.1906,38.4000,72,96,405993
1.8573,0.1808,38.4000,72,96,405996
1.8524,0.1857,38.4900,72,96,405999
1.8817,0.2004,38.4000,72,96,406003
1.8573,0.1808,38.4600,72,96,406006
1.8768,0.1857,38.3000,72,96,406009
1.8475,0.1857,38.5500,72,96,406012
1.8426,0.1857,38.4900,72,96,406017
1.8671,0.2102,38.4000,72,96,406020
1.8475,0.1711,38.4900,72,96,406023
1.8866,0.1906,37.8700,72,96,406027
1.8524,0.1808,38.4300,72,96,406030
1.8426,0.1857,38.5200,72,96,406033
1.8573,0.2053,38.4300,72,96,406037
1.8475,0.1857,38.5200,72,96,406040
1.8964,0.2053,38.1800,72,96,406043
1.8524,0.1906,38.4000,72,96,406047
1.8377,0.1808,38.4600,72,96,406050
1.8377,0.1906,38.4900,72,96,406053
1.8426,0.1857,38.5200,72,96,406056
1.9013,0.2004,38.2700,72,96,406061
1.8475,0.1906,38.5200,72,96,406064
1.8524,0.1857,38.4000,72,96,406067
1.8377,0.1906,38.4900,72,96,406071
1.8377,0.1711,38.4900,72,96,406074
1.8719,0.1955,38.3300,72,96,406077
1.8524,0.1906,38.4600,72,96,406081
1.8671,0.1906,38.4000,72,96,406084
1.8328,0.1906,38.4900,72,96,406087
1.8328,0.1857,38.4900,72,96,406091
1.8524,0.1906,38.4300,72,96,406094
1.8426,0.1906,38.4900,72,96,406097
1.8817,0.1955,38.3600,72,96,406100
1.8524,0.2053,38.4900,72,96,406105
1.8426,0.1857,38.4900,72,96,406108
1.8671,0.2199,38.4000,72,96,406111
1.8475,0.1857,38.4900,72,96,406115
1.8817,0.1906,38.3000,72,96,406118
1.8671,0.1955,38.4000,72,96,406121
1.8475,0.1857,38.5200,72,96,406125
1.8622,0.1955,38.4900,72,96,406128
1.8280,0.1857,38.4900,72,96,406131
1.8719,0.1906,38.2100,72,96,406135
1.8426,0.1906,38.4300,72,96,406138
1.8328,0.1857,38.5200,72,96,406141
1.8377,0.1808,38.4600,72,96,406145
1.8231,0.1857,38.4900,72,96,406149
1.8768,0.2053,38.2400,72,96,406152
1.8475,0.1906,38.5500,72,96,406155
1.8426,0.2102,38.4300,72,96,406159
1.8426,0.1906,38.4900,72,96,406162
1.8328,0.1808,38.5500,72,96,406165
1.8719,0.2004,38.3600,72,96,406169
1.8231,0.1906,38.4600,72,96,406172
1.8280,0.1857,38.4000,72,96,406175
1.8231,0.1906,38.4900,72,96,406179
1.8328,0.1857,38.4900,72,96,406182
1.8719,0.1955,38.3300,72,96,406185
1.8328,0.1857,38.4000,72,96,406189
1.8573,0.1906,38.3600,72,96,406193
1.8377,0.1808,38.4900,72,96,406196
1.8377,0.2102,38.5500,72,96,406199
1.8622,0.1906,38.4000,72,96,406203
1.8328,0.1857,38.6200,72,96,406206
1.8622,0.1906,38.3600,72,96,406209
1.8377,0.1857,38.4300,72,96,406213
1.8328,0.2004,38.5500,72,96,406216
1.8524,0.1906,38.3300,72,96,406219
1.8328,0.1857,37.8300,72,96,406222
1.8622,0.2004,38.2700,72,96,406226
1.8231,0.1808,38.4600,72,96,406230
1.8182,0.1857,38.4900,72,96,406233
1.8328,0.1906,38.4600,72,96,406237
1.8328,0.1808,38.5200,72,96,406240
1.8573,0.1906,38.2100,72,96,406243
1.8231,0.1906,38.4600,72,96,406247
1.8035,0.1857,38.4600,72,96,406250
1.8084,0.1906,38.5800,72,96,406253
1.8035,0.2151,38.4900,72,96,406257
1.8573,0.1906,38.2700,72,96,406260
1.8084,0.1955,38.4900,72,96,406263
1.7986,0.1857,38.4300,72,96,406266
1.7889,0.1906,38.4900,72,96,406270
1.7791,0.1857,38.4900,72,96,406274
1.8280,0.1906,38.3300,72,96,406277
1.8035,0.1906,38.4900,72,96,406281
1.8231,0.2004,38.3600,72,96,406284
1.8035,0.1857,38.4900,72,96,406287
1.7986,0.1906,38.5500,72,96,406291
1.8231,0.1906,38.4900,72,96,406294
1.7937,0.1857,38.4600,72,96,406297
1.8524,0.1955,38.3600,72,96,406301
1.8035,0.1857,38.5200,72,96,406304
1.7986,0.1906,38.4900,72,96,406307
1.8231,0.1955,38.4000,72,96,406310
1.8084,0.1906,38.4300,72,96,406315
1.7937,0.1857,38.4900,72,96,406318
1.8719,0.1906,38.2100,72,96,406322
1.8133,0.1906,38.4900,72,96,406325
1.8182,0.1857,38.5200,72,96,406328
1.8280,0.1906,38.4600,72,96,406332
1.8084,0.1906,38.4900,72,96,406335
1.8671,0.2053,38.2400,72,96,406338
1.8280,0.1906,38.4300,72,96,406342
1.8524,0.1857,38.4300,72,96,406345
1.8280,0.1906,38.5200,72,96,406348
1.8524,0.1808,38.5200,72,96,406352
1.8573,0.2004,38.3600,72,96,406355
1.8182,0.2248,38.4900,72,96,406359
1.8182,0.1906,38.4300,72,96,406362
1.8133,0.1857,38.5200,72,96,406366
1.8133,0.1857,38.4900,72,96,406369
1.8426,0.1955,38.1800,72,96,406372
1.7937,0.1857,38.4900,72,96,406376
1.8133,0.1906,38.3600,72,96,406379
1.7889,0.1857,38.4300,72,96,406382
1.8084,0.1857,38.4900,72,96,406386
1.8622,0.1955,38.4300,72,96,406389
1.9159,0.1857,38.4900,72,96,406392
2.0332,0.1857,38.3300,72,96,406396
2.1457,0.1906,38.4000,72,96,406400
2.2385,0.1857,38.4900,72,96,406403
2.3705,0.1906,38.3600,72,96,406406
2.4340,0.1857,38.4600,72,96,406410
2.5660,0.1906,38.2400,72,96,406413
2.6100,0.1857,38.4600,72,96,406416
2.7615,0.1906,38.5200,72,96,406420
2.9619,0.1906,38.4600,72,96,406423
2.9863,0.1857,38.4600,72,96,406426
2.9081,0.1955,38.2400,72,96,406430
2.5806,0.1906,38.4300,72,96,406433
2.2434,0.1857,38.4600,72,96,406436
1.9453,0.1906,38.5200,72,96,406439
1.7009,0.1857,38.5500,72,96,406444
1.5836,0.2004,38.2400,72,96,406447
1.4614,0.1906,38.5200,72,96,406450
1.4370,0.1857,38.4600,72,96,406454
1.4467,0.1906,38.4900,72,96,406457
1.4809,0.1857,38.5200,72,96,406460
1.5591,0.1955,38.3000,72,96,406464
1.5934,0.1906,38.4600,72,96,406467
1.6422,0.1857,38.3300,72,96,406470
1.6520,0.1906,38.4900,72,96,406473
1.6373,0.1857,38.4900,72,96,406477
1.6422,0.1906,38.4600,72,96,406480
1.5982,0.1857,38.3300,72,96,406483
1.6129,0.2102,38.3600,72,96,406488
1.5738,0.1857,38.0800,72,96,406491
1.5640,0.1857,38.4900,72,96,406494
1.5885,0.1955,38.4000,72,96,406498
1.5591,0.1906,38.4600,72,96,406501
1.5836,0.1857,38.3300,72,96,406504
1.5836,0.1906,38.4000,72,96,406508
1.5885,0.1857,38.5200,72,96,406511
1.6080,0.1955,38.4300,72,96,406514
1.6080,0.1857,37.7100,72,96,406517
1.6471,0.1906,38.3000,72,96,406521
1.6373,0.1906,38.4300,72,96,406524
1.6422,0.1857,38.5800,72,96,406528
1.6716,0.1955,38.4300,72,96,406532
1.6569,0.1857,38.4900,72,96,406535
1.7009,0.1955,38.2400,72,96,406538
1.6813,0.1857,38.4000,72,96,406542
1.6813,0.1808,38.8100,72,96,406545
1.6960,0.1857,38.4900,72,96,406548
1.7009,0.1857,38.5500,72,96,406552
1.7546,0.2053,38.3000,72,96,406555
1.7595,0.1955,38.4600,72,96,406558
1.7400,0.1857,38.4300,72,96,406561
1.7498,0.1906,38.4900,72,96,406565
1.7595,0.1857,38.4900,72,96,406568
1.8084,0.1955,38.2700,72,96,406572
1.7840,0.1955,38.4900,72,96,406576
1.8035,0.1906,38.1800,72,96,406579
1.7986,0.1955,38.5500,72,96,406582
1.8133,0.1857,38.5200,72,96,406586
1.8573,0.1906,38.3600,72,96,406589
1.8768,0.1955,38.4900,72,96,406592
1.8671,0.1906,38.4000,72,96,406595
1.8426,0.1857,38.4600,72,96,406599
1.8426,0.1857,38.5200,72,96,406602
1.8573,0.1906,38.4000,72,96,406605
1.8475,0.1906,38.4600,72,96,406609
1.8768,0.1711,38.3300,72,96,406612
1.8426,0.1906,38.4900,72,96,406616
1.8377,0.1857,38.4900,72,96,406620
1.8426,0.1906,38.4600,72,96,406623
1.8280,0.1857,38.4900,72,96,406626
1.8622,0.1906,38.2700,72,96,406630
1.8377,0.1857,38.4000,72,96,406633
1.8133,0.1857,38.4900,72,96,406636
1.8475,0.1906,38.4600,72,96,406639
1.8035,0.1906,38.4900,72,96,406643
1.8475,0.2004,38.2400,72,96,406646
1.8084,0.1906,38.4300,72,96,406649
1.7937,0.1857,38.5200,72,96,406653
1.7889,0.2004,38.4600,72,96,406657
1.7791,0.1906,38.5200,72,96,406660
1.8377,0.2053,38.3000,72,96,406664
1.8182,0.1955,38.4300,72,96,406667
1.8133,0.1857,38.4300,72,96,406670
1.8133,0.1857,38.4900,72,96,406673
1.8182,0.1857,38.4900,72,96,406677
1.8622,0.1857,38.4000,72,96,406680
1.8524,0.1906,38.4900,72,96,406683
1.8915,0.1906,38.3300,72,96,406687
1.8964,0.1906,38.4900,72,96,406690
1.9110,0.1857,38.5500,72,96,406693
1.9550,0.1955,38.3300,72,96,406697
1.9306,0.1906,38.5200,72,96,406701
1.9648,0.1955,38.4000,72,96,406704
1.9404,0.1857,38.4300,72,96,406708
1.9501,0.1857,38.5200,72,96,406711
1.9648,0.1906,38.4300,72,96,406714
1.9453,0.1857,38.4900,72,96,406717
1.9697,0.1906,38.3000,72,96,406721
1.9550,0.1906,38.4300,72,96,406724
1.9501,0.1857,38.5500,72,96,406727
1.9648,0.1955,38.4300,72,96,406731
1.9355,0.1857,38.4900,72,96,406734
1.9648,0.1906,38.2400,72,96,406737
1.9110,0.1857,38.4300,72,96,406742
1.8964,0.1857,38.4900,72,96,406745
1.9013,0.1906,38.4600,72,96,406748
1.8768,0.1857,38.5500,72,96,406752
1.9062,0.2004,38.2100,72,96,406755
1.8671,0.2004,38.4300,72,96,406758
1.8377,0.1857,38.4900,72,96,406761
1.8426,0.1906,38.4900,72,96,406765
1.8328,0.1857,38.2400,72,96,406768
1.8768,0.2053,38.3000,72,96,406771
1.8280,0.1906,38.4000,72,96,406775
1.8280,0.1857,38.4000,72,96,406778
1.8524,0.1955,38.4900,72,96,406781
1.8182,0.1857,38.4900,72,96,406786
1.8426,0.1955,38.3300,72,96,406789
1.8182,0.1906,38.4900,72,96,406792
1.8328,0.1906,38.3600,72,96,406795
1.8133,0.1906,38.4900,72,96,406799
1.8133,0.1857,38.4900,72,96,406802
1.8426,0.1857,38.4300,72,96,406805
1.8328,0.1906,38.4900,72,96,406809
1.8622,0.1906,38.4000,72,96,406812
1.8280,0.1857,38.4900,72,96,406815
1.8426,0.1857,38.5200,72,96,406819
1.8719,0.1906,38.3600,72,96,406822
1.8524,0.1857,38.5200,72,96,406825
1.8866,0.1955,38.2700,72,96,406830
1.8768,0.1906,38.4000,72,96,406833
1.8573,0.1857,38.5500,72,96,406836
1.8719,0.1906,38.4300,72,96,406839
1.8573,0.1857,38.5200,72,96,406843
1.9062,0.2004,38.2400,72,96,406846
1.8671,0.1906,38.4600,72,96,406849
1.8573,0.1808,38.4900,72,96,406853
1.8622,0.1955,38.4900,72,96,406856
1.8377,0.1906,38.4000,72,96,406859
1.8866,0.2004,38.2100,72,96,406863
1.8622,0.1906,38.4300,72,96,406866
1.8475,0.1808,38.4300,72,96,406870
1.8573,0.1955,38.4900,72,96,406874
1.8377,0.1857,38.5200,72,96,406877
1.8768,0.2004,38.3600,72,96,406880
1.8475,0.1906,38.4600,72,96,406883
1.8622,0.1857,38.4000,72,96,406887
1.8475,0.1906,38.5500,72,96,406890
1.8426,0.1857,38.5200,72,96,406893
1.8768,0.1955,38.3300,72,96,406897
1.8377,0.1760,38.5500,72,96,406900
1.8915,0.1906,38.4300,72,96,406903
1.8377,0.1808,38.4900,72,96,406907
1.8328,0.1760,38.4900,72,96,406910
1.8524,0.1906,38.4000,72,96,406914
1.8328,0.1906,38.2100,72,96,406918
1.8622,0.2151,38.3600,72,96,406921
1.8768,0.1955,38.2400,72,96,406926
1.8377,0.1857,38.4000,72,96,406929
1.8377,0.1857,38.4900,72,96,406932
1.8426,0.1906,38.4600,72,96,406935
1.8377,0.1857,38.5200,72,96,406939
1.8866,0.2004,38.4300,72,96,406942
1.8524,0.1955,38.4600,72,96,406945
1.8426,0.1808,38.4300,72,96,406949
1.8426,0.1808,38.4900,72,96,406952
1.8426,0.1857,38.4900,72,96,406956
1.8817,0.1955,38.3300,72,96,406960
1.8377,0.1906,38.4900,72,96,406963
1.8377,0.1857,38.6500,72,96,406966
1.8328,0.1906,38.4900,72,96,406970
1.8280,0.1857,38.4900,72,96,406973
1.8622,0.1955,38.3600,72,96,406976
1.8377,0.1906,38.4900,72,96,406979
1.8524,0.1906,38.6200,72,96,406983
1.8573,0.1857,38.4900,72,96,406986
1.8280,0.1857,38.3600,72,96,406989
1.8377,0.1955,38.4000,72,96,406993
1.8231,0.1857,38.4900,72,96,406996
1.8475,0.1857,38.3300,72,96,407000
1.8133,0.1857,38.4900,72,96,407004
1.8133,0.2248,38.4900,72,96,407007
1.8377,0.1906,38.4000,72,96,407010
1.8133,0.1808,38.5500,72,96,407014
1.8573,0.1906,38.2700,72,96,407017
1.8377,0.1906,38.4000,72,96,407020
1.8231,0.1857,38.4900,72,96,407023
1.8377,0.1906,38.4600,72,96,407027
1.8328,0.1857,38.4900,72,96,407030
1.8915,0.1955,38.2100,72,96,407033
1.8524,0.1857,38.4300,72,96,407037
1.8475,0.1808,38.4900,72,96,407041
1.8475,0.1906,38.6500,72,96,407044
1.8426,0.1857,38.4900,72,96,407048
1.9013,0.2053,38.2700,72,96,407051
1.8622,0.1906,38.4600,72,96,407054
1.8573,0.1711,38.4000,72,96,407058
1.8426,0.1906,38.5200,72,96,407061
1.8328,0.1711,38.4900,72,96,407064
1.8573,0.2004,38.2400,72,96,407067
1.8231,0.2199,38.4900,72,96,407071
1.8377,0.1906,38.3600,72,96,407074
1.8182,0.1857,38.4900,72,96,407077
1.8328,0.1857,38.4900,72,96,407081
1.8964,0.1906,38.3600,72,96,407085
1.9355,0.1906,38.4900,72,96,407088
2.0674,0.1955,38.3300,72,96,407092
2.1554,0.1857,38.4000,72,96,407095
2.2678,0.1955,38.4900,72,96,407098
2.3705,0.1955,38.4300,72,96,407102
2.4145,0.1857,38.4900,72,96,407105
2.5122,0.1857,38.3000,72,96,407108
2.5758,0.1906,38.4300,72,96,407111
2.6833,0.1857,38.4900,72,96,407115
2.8348,0.2004,38.3600,72,96,407118
2.8592,0.1711,38.4900,72,96,407121
2.7957,0.1955,38.2400,72,96,407126
2.4878,0.1857,38.4600,72,96,407129
2.1652,0.1857,38.7100,72,96,407132
1.8719,0.1955,38.4600,72,96,407136
1.6178,0.1857,38.5200,72,96,407139
1.5543,0.2053,38.2100,72,96,407142
1.4467,0.1906,38.4300,72,96,407146
1.4321,0.1857,38.4600,72,96,407149
1.4614,0.1906,38.4900,72,96,407152
1.5200,0.1857,38.6200,72,96,407155
1.6325,0.1906,38.3000,72,96,407159
1.6618,0.1906,38.4900,72,96,407162
1.7107,0.1857,38.3600,72,96,407165
1.7204,0.1906,38.4900,72,96,407170
1.7204,0.1857,38.6800,72,96,407173
1.7546,0.2004,38.3600,72,96,407176
1.6960,0.1906,38.4900,72,96,407180
1.6911,0.1906,38.4600,72,96,407183
1.6520,0.1906,38.5500,72,96,407186
1.6422,0.1857,38.5200,72,96,407190
1.6618,0.1906,38.4300,72,96,407193
1.6422,0.1857,38.4900,72,96,407196
1.6618,0.1906,38.5800,72,96,407199
1.6276,0.1857,38.4900,72,96,407203
1.6325,0.1857,38.4900,72,96,407206
1.6569,0.1955,38.4000,72,96,407209
1.6471,0.1857,38.6200,72,96,407214
1.6813,0.2346,38.3000,72,96,407217
1.6764,0.1955,38.4000,72,96,407220
1.6618,0.1857,38.2400,72,96,407224
1.6862,0.1955,38.3600,72,96,407227
1.6813,0.1857,38.5500,72,96,407230
1.7253,0.2004,38.2400,72,96,407233
1.7009,0.1906,38.4300,72,96,407237
1.6911,0.1857,37.7700,72,96,407240
1.7009,0.1955,38.4600,72,96,407243
1.7107,0.1857,38.4900,72,96,407247
1.7400,0.2004,38.4000,72,96,407250
1.7155,0.2151,38.4000,72,96,407254
1.7107,0.1808,38.4600,72,96,407258
1.7155,0.1906,38.4600,72,96,407261
1.7253,0.1857,38.4900,72,96,407264
1.7742,0.2248,38.3600,72,96,407268
1.7498,0.1955,38.4600,72,96,407271
1.7644,0.1906,38.4000,72,96,407274
1.7644,0.1906,38.5200,72,96,407277
1.7693,0.1857,38.5500,72,96,407281
1.8084,0.1955,38.3000,72,96,407284
1.7840,0.1857,38.5200,72,96,407287
1.8084,0.1906,38.3300,72,96,407291
1.8133,0.1711,38.4900,72,96,407294
1.8035,0.1857,38.5800,72,96,407298
1.8328,0.1955,38.4000,72,96,407302
1.8182,0.1906,38.4900,72,96,407305
1.8524,0.1857,38.3300,72,96,407308
1.8377,0.1857,38.4600,72,96,407312
1.8377,0.1857,38.5200,72,96,407315
1.8671,0.1906,38.3600,72,96,407318
1.8328,0.1906,38.4900,72,96,407321
1.8671,0.2199,38.2700,72,96,407325
1.8280,0.1857,38.5800,72,96,407328
1.8328,0.1808,38.5200,72,96,407331
1.8426,0.1955,38.4600,72,96,407335
1.8231,0.1955,38.5500,72,96,407339
1.8622,0.1906,38.2400,72,96,407342
1.8182,0.1955,38.4000,72,96,407346
1.7937,0.1711,38.4900,72,96,407349
1.8035,0.1808,38.4900,72,96,407352
1.8035,0.1857,38.4900,72,96,407356
1.8622,0.2053,38.4300,72,96,407359
1.8231,0.1906,38.4900,72,96,407362
1.8377,0.1857,38.4000,72,96,407365
1.8524,0.1906,38.4600,72,96,407369
1.8671,0.1857,38.4900,72,96,407372
1.9208,0.2004,38.3600,72,96,407375
1.9257,0.1906,38.4600,72,96,407379
1.9257,0.1906,38.4000,72,96,407383
1.9208,0.1906,38.4900,72,96,407386
1.9355,0.1857,38.4900,72,96,407390
1.9697,0.2102,38.3300,72,96,407393
1.9648,0.1906,38.4900,72,96,407396
1.9990,0.1955,38.4000,72,96,407400
1.9990,0.1711,38.4900,72,96,407403
1.9648,0.1857,38.5500,72,96,407406
1.9844,0.1955,38.3600,72,96,407409
1.9453,0.1906,38.6500,72,96,407413
1.9648,0.1857,38.3000,72,96,407416
1.9453,0.1906,38.3600,72,96,407419
1.9110,0.1857,38.5200,72,96,407424
1.9159,0.1906,38.4300,72,96,407427
1.8964,0.1906,38.4000,72,96,407430
1.9306,0.2199,38.2400,72,96,407434
1.8915,0.1906,38.3300,72,96,407437
1.8719,0.1857,38.5500,72,96,407440
1.8768,0.1906,38.5500,72,96,407444
1.8524,0.1906,38.5200,72,96,407447
1.8964,0.1955,38.1800,72,96,407450
1.8671,0.1955,38.5200,72,96,407453
1.8524,0.1857,38.4600,72,96,407457
1.8524,0.1906,38.4900,72,96,407460
1.8328,0.1955,38.5500,72,96,407463
1.8719,0.2004,38.3300,72,96,407468
1.8328,0.1906,38.5500,72,96,407471
1.8280,0.2151,38.4000,72,96,407474
1.8231,0.1906,38.4600,72,96,407478
1.8280,0.1857,38.4900,72,96,407481
1.8622,0.1955,38.3300,72,96,407484
1.8328,0.1808,38.4900,72,96,407488
1.8622,0.1906,38.3600,72,96,407491
1.8524,0.1857,38.4900,72,96,407494
1.8671,0.1857,38.4900,72,96,407497
1.8866,0.2248,38.4000,72,96,407501
1.8622,0.1857,38.4900,72,96,407504
1.8866,0.1857,38.4600,72,96,407507
1.8719,0.1906,38.4600,72,96,407512
1.8573,0.1857,38.5500,72,96,407515
1.8719,0.1906,38.4300,72,96,407518
1.8524,0.1906,38.4900,72,96,407522
1.8817,0.1906,38.2700,72,96,407525
1.8524,0.1857,38.4600,72,96,407528
1.8622,0.1857,38.7400,72,96,407532
1.9013,0.1906,38.4300,72,96,407535
1.8719,0.1906,38.4900,72,96,407540
1.8719,0.1857,38.5200,72,96,407543
1.9208,0.1906,38.3000,72,96,407546
1.8768,0.1906,38.5200,72,96,407549
1.8866,0.1857,38.4000,72,96,407554
1.8768,0.1857,38.4900,72,96,407557
1.8768,0.1857,38.4000,72,96,407560
1.9110,0.1906,38.3600,72,96,407564
1.8719,0.1906,38.4900,72,96,407567
1.8768,0.1955,38.3600,72,96,407570
1.8426,0.1906,38.4900,72,96,407574
1.8377,0.1808,38.5200,72,96,407577
1.8475,0.1906,38.4000,72,96,407580
1.8328,0.1906,38.4900,72,96,407584
1.8915,0.1906,38.3300,72,96,407587
1.8231,0.1906,38.4900,72,96,407590
1.8280,0.1955,38.5200,72,96,407593
1.8524,0.1955,38.4000,72,96,407598
1.8328,0.1906,38.5200,72,96,407601
1.8866,0.1906,38.2700,72,96,407604
1.8671,0.1906,38.4600,72,96,407608
1.8475,0.1857,38.5200,72,96,407611
1.8622,0.1906,38.5500,72,96,407614
1.8524,0.1955,38.4900,72,96,407618
1.9013,0.1955,38.2400,72,96,407621
1.8622,0.2053,38.4000,72,96,407624
1.8524,0.1808,38.4900,72,96,407628
1.8622,0.1906,38.4600,72,96,407631
1.8475,0.1857,38.4900,72,96,407634
1.9159,0.1906,38.2400,72,96,407638
1.8817,0.1906,38.4600,72,96,407642
1.8719,0.1857,38.4300,72,96,407645
1.8768,0.1906,38.5500,72,96,407648
1.8671,0.1906,38.4900,72,96,407652
1.9110,0.2004,38.4000,72,96,407655
1.8719,0.1906,38.4300,72,96,407658
1.8866,0.1906,38.4000,72,96,407662
1.8817,0.1906,38.4900,72,96,407665
1.8866,0.1857,38.5200,72,96,407668
1.9599,0.1955,38.3300,72,96,407671
1.8915,0.1906,38.4600,72,96,407675
1.9355,0.1955,38.3600,72,96,407678
1.8719,0.1857,38.4000,72,96,407682
1.8573,0.1857,38.4900,72,96,407686
1.8768,0.1906,38.4600,72,96,407689
1.8524,0.1906,38.5200,72,96,407692
1.9013,0.1711,38.3300,72,96,407696
1.8475,0.1857,38.5500,72,96,407699
1.8671,0.1857,38.4900,72,96,407702
1.8426,0.1906,38.3300,72,96,407706
1.8231,0.1906,38.4600,72,96,407709
1.8622,0.1955,38.2700,72,96,407712
1.8280,0.1857,38.4300,72,96,407715
1.8524,0.1906,38.4900,72,96,407719
1.8524,0.1906,38.6200,72,96,407723
1.8377,0.1857,38.4900,72,96,407726
1.8915,0.1955,38.3300,72,96,407730
1.8622,0.1955,38.4300,72,96,407733
1.8524,0.1857,38.4900,72,96,407736
1.8573,0.1808,38.4900,72,96,407740
1.8573,0.1857,38.5200,72,96,407743
1.9062,0.2004,38.3000,72,96,407746
1.8573,0.1906,38.4600,72,96,407750
1.8475,0.1857,38.4300,72,96,407753
1.8671,0.1808,38.5200,72,96,407756
1.8475,0.1857,38.4600,72,96,407759
1.8768,0.1955,38.3000,72,96,407763
1.8475,0.1955,38.4600,72,96,407767
1.8622,0.1906,38.3600,72,96,407770
1.8426,0.1906,38.4900,72,96,407774
1.8475,0.1857,38.4900,72,96,407777
1.8719,0.1906,38.4300,72,96,407780
1.8622,0.1906,38.4900,72,96,407784
1.9013,0.1906,38.4000,72,96,407787
1.8866,0.1955,38.4900,72,96,407790
1.8964,0.1857,38.5200,72,96,407794
1.9208,0.1906,38.3600,72,96,407797
1.8915,0.1857,38.5200,72,96,407800
1.9110,0.1906,38.3000,72,96,407803
1.8915,0.1857,38.4300,72,96,407808
1.8768,0.1857,38.5200,72,96,407811
1.8866,0.1955,38.4300,72,96,407814
1.8768,0.1857,38.4300,72,96,407818
1.9208,0.2248,38.3000,72,96,407821
1.8817,0.1906,38.4300,72,96,407824
1.8671,0.1857,38.4300,72,96,407828
1.8768,0.1955,38.4600,72,96,407831
1.8671,0.1857,38.5500,72,96,407834
1.9208,0.2053,38.2100,72,96,407838
1.8866,0.1906,38.5500,72,96,407841
1.8622,0.1906,38.4300,72,96,407844
1.8573,0.1906,38.4900,72,96,407847
1.8475,0.2004,38.4900,72,96,407852
1.9013,0.2053,38.3300,72,96,407855
1.8622,0.1906,38.5500,72,96,407858
1.8768,0.1857,38.4000,72,96,407862
1.8719,0.1906,38.4900,72,96,407865
1.8671,0.1857,38.5200,72,96,407868
1.9306,0.1955,38.3300,72,96,407872
1.8719,0.1906,38.4900,72,96,407875
1.8964,0.1955,38.3600,72,96,407878
1.8768,0.1808,37.7400,72,96,407882
1.8719,0.1906,38.4900,72,96,407885
1.8915,0.1955,38.4000,72,96,407888
1.8622,0.1906,38.6500,72,96,407891
1.8915,0.1857,38.3600,72,96,407896
1.8719,0.1857,38.4600,72,96,407899
1.8866,0.1808,38.4900,72,96,407902
1.9159,0.1906,38.4000,72,96,407906
1.8964,0.1906,38.7100,72,96,407909
1.9208,0.1955,38.2700,72,96,407912
1.8817,0.1515,38.4900,72,96,407916
1.8719,0.1906,38.4900,72,96,407919
1.8915,0.1906,38.4600,72,96,407922
1.8964,0.1857,38.4900,72,96,407926
1.9355,0.1955,38.2400,72,96,407929
1.9062,0.2053,38.4300,72,96,407932
1.8964,0.1808,38.5200,72,96,407936
1.8964,0.1906,38.5500,72,96,407940
1.8866,0.1955,38.4900,72,96,407943
1.9404,0.2053,38.2400,72,96,407946
1.8817,0.2102,38.4600,72,96,407950
1.8622,0.1808,38.4600,72,96,407953
1.8622,0.1906,38.6800,72,96,407956
1.8524,0.2004,38.4900,72,96,407960
1.8817,0.2004,38.3600,72,96,407963
1.8426,0.1906,38.4300,72,96,407966
1.8328,0.1857,38.3600,72,96,407969
1.8084,0.1906,38.4900,72,96,407973
1.8426,0.1857,38.5200,72,96,407976
1.8475,0.1955,38.4600,72,96,407980
1.8719,0.1906,38.4600,72,96,407984
1.9892,0.1857,38.3600,72,96,407987
2.0772,0.1906,38.4900,72,96,407990
2.2092,0.1857,38.4900,72,96,407994
2.3851,0.1955,38.3600,72,96,407997
2.4633,0.1857,38.4900,72,96,408000
2.6100,0.1857,38.3300,72,96,408004
2.6833,0.1906,38.3600,72,96,408007
2.8055,0.1711,38.4900,72,96,408010
3.0108,0.1906,38.4900,72,96,408013
3.1623,0.1808,38.4900,72,96,408017
3.2307,0.1955,38.2700,72,96,408020
2.9912,0.1906,38.4300,72,96,408024
2.6833,0.1808,38.5200,72,96,408028
2.3803,0.2004,38.4300,72,96,408031
2.0381,0.1857,38.6800,72,96,408034
1.8231,0.2346,38.2100,72,96,408038
1.6178,0.1906,38.4000,72,96,408041
1.5200,0.1857,38.5800,72,96,408044
1.5005,0.1857,38.4600,72,96,408047
1.5005,0.1857,38.4900,72,96,408051
1.5689,0.2053,38.2400,72,96,408054
1.5836,0.1906,38.4300,72,96,408057
1.6080,0.1857,38.4600,72,96,408061
1.6520,0.1906,38.4900,72,96,408065
1.6667,0.1857,38.4900,72,96,408068
1.7155,0.1955,38.3000,72,96,408072
1.6471,0.1906,38.4900,72,96,408075
1.6080,0.1906,38.4000,72,96,408078
1.5591,0.1906,38.4900,72,96,408082
1.5298,0.1857,38.4900,72,96,408085
1.5494,0.1857,38.3600,72,96,408088
1.5445,0.1906,38.4900,72,96,408091
1.5787,0.1906,38.3300,72,96,408095
1.5787,0.1857,38.4900,72,96,408098
1.5934,0.1857,37.9600,72,96,408101
1.6178,0.1955,38.4000,72,96,408105
1.6178,0.1906,38.4900,72,96,408109
1.6471,0.1857,38.3000,72,96,408112
1.6373,0.1906,38.5200,72,96,408116
1.6520,0.2151,38.5500,72,96,408119
1.6813,0.1955,38.4300,72,96,408122
1.6618,0.2151,38.4900,72,96,408126
1.6960,0.1906,38.2700,72,96,408129
1.6764,0.1906,38.4000,72,96,408132
1.6569,0.1906,38.4900,72,96,408135
1.6716,0.1906,38.4300,72,96,408139
1.6667,0.1857,38.4900,72,96,408142
1.7204,0.1955,38.2100,72,96,408145
1.7986,0.1955,38.3300,72,96,408151
1.7791,0.1808,38.4600,72,96,408154
1.7986,0.1857,38.4000,72,96,408158
1.7937,0.1906,38.4900,72,96,408161
1.7986,0.1857,38.4900,72,96,408164
1.8231,0.1906,38.4000,72,96,408168
1.8035,0.1906,38.4900,72,96,408171
1.8133,0.1955,38.3600,72,96,408174
1.7791,0.1808,38.4600,72,96,408178
1.7840,0.1857,38.4900,72,96,408181
1.8133,0.1955,38.4000,72,96,408184
1.7986,0.1906,38.4900,72,96,408187
1.8377,0.1857,38.3600,72,96,408192
1.8377,0.1955,38.4300,72,96,408195
1.8377,0.1808,38.4900,72,96,408198
1.8866,0.1955,38.4300,72,96,408202
1.8377,0.1857,38.5200,72,96,408205
1.8768,0.1906,38.2700,72,96,408208
1.8573,0.1906,38.4300,72,96,408212
1.8426,0.1857,38.5500,72,96,408215
1.8573,0.1906,38.4900,72,96,408218
1.8328,0.1857,38.6200,72,96,408222
1.8915,0.2053,38.2100,72,96,408225
1.8524,0.1906,38.4900,72,96,408228
1.8426,0.1857,38.5200,72,96,408231
1.8524,0.1955,38.5200,72,96,408236
1.8524,0.2151,38.5200,72,96,408239
1.9110,0.2053,38.3000,72,96,408242
1.8719,0.1906,38.3300,72,96,408246
1.8671,0.1857,38.4300,72,96,408249
1.8622,0.1906,38.4900,72,96,408252
1.8719,0.1857,38.5200,72,96,408256
1.9110,0.1906,37.8300,72,96,408259
1.8964,0.1955,38.4600,72,96,408262
1.9306,0.1955,38.3600,72,96,408266
1.9257,0.1906,38.4900,72,96,408269
1.9501,0.1808,38.4900,72,96,408272
1.9746,0.1955,38.4000,72,96,408275
1.9453,0.1857,38.5200,72,96,408280
1.9795,0.1955,38.3600,72,96,408283
1.9501,0.2199,38.4300,72,96,408286
1.9599,0.1857,38.4900,72,96,408290
1.9746,0.1906,38.4000,72,96,408293
1.9501,0.1857,38.4900,72,96,408296
1.9746,0.1906,38.3000,72,96,408300
1.9501,0.1955,38.5200,72,96,408303
1.9453,0.1955,38.4900,72,96,408306
1.9550,0.1955,38.4000,72,96,408310
1.9110,0.1857,38.4900,72,96,408313
1.9453,0.1955,38.2700,72,96,408316
1.9062,0.1955,38.3600,72,96,408320
1.8866,0.1857,38.5500,72,96,408324
1.8866,0.1955,38.4900,72,96,408327
1.8719,0.1906,38.6800,72,96,408330
1.9208,0.2004,38.2400,72,96,408334
1.8719,0.1906,38.4600,72,96,408337
1.8475,0.1857,38.4900,72,96,408340
1.8426,0.1906,38.4900,72,96,408344
1.8377,0.1906,38.5200,72,96,408347
1.8866,0.2493,38.3300,72,96,408350
1.8426,0.1906,38.4600,72,96,408354
1.8573,0.1857,38.4000,72,96,408357
1.8426,0.1906,38.4900,72,96,408360
1.8426,0.1857,38.4900,72,96,408364
1.8768,0.2004,38.4300,72,96,408368
1.8964,0.1906,38.4900,72,96,408371
1.8866,0.1906,38.4300,72,96,408374
1.8817,0.1808,38.4900,72,96,408378
1.8524,0.1857,38.4900,72,96,408381
1.8817,0.1955,38.3600,72,96,408384
1.8573,0.1906,38.4900,72,96,408388
1.8817,0.1857,38.3600,72,96,408391
1.8719,0.1857,38.4300,72,96,408394
1.8573,0.1857,38.5200,72,96,408398
1.8768,0.1906,38.4000,72,96,408401
1.8671,0.1857,38.5200,72,96,408404
1.9062,0.2004,38.2700,72,96,408408
1.8866,0.1906,38.4300,72,96,408412
1.8719,0.1857,38.4000,72,96,408415
1.8719,0.1808,38.3600,72,96,408418
1.8475,0.1906,38.5200,72,96,408422
1.8866,0.1906,38.2400,72,96,408425
1.8573,0.1906,38.4300,72,96,408428
1.8573,0.1857,38.4900,72,96,408432
1.8671,0.1955,38.4600,72,96,408435
1.8573,0.1906,38.4900,72,96,408438
1.9062,0.2053,38.2700,72,96,408442
1.8719,0.1906,38.4600,72,96,408445
1.8524,0.1857,38.4300,72,96,408449
1.8475,0.1906,38.4300,72,96,408452
1.8426,0.1857,38.5500,72,96,408456
1.8768,0.1906,38.3000,72,96,408459
1.8377,0.1857,38.2700,72,96,408462
1.8573,0.1857,38.3600,72,96,408466
1.8377,0.1906,38.4900,72,96,408469
1.8328,0.1906,38.4900,72,96,408472
1.8524,0.1906,38.4000,72,96,408476
1.8426,0.1955,38.4900,72,96,408479
1.8768,0.2004,38.3600,72,96,408482
1.8573,0.1857,38.5200,72,96,408485
1.8573,0.1906,38.5500,72,96,408489
1.8768,0.1906,38.4000,72,96,408493
1.8671,0.1906,38.4300,72,96,408496
1.8817,0.1857,38.3600,72,96,408500
1.8475,0.1906,38.5200,72,96,408503
1.8475,0.1955,38.4900,72,96,408506
1.8622,0.1906,38.4000,72,96,408510
1.8377,0.2004,38.4900,72,96,408513
1.8671,0.1955,38.2700,72,96,408516
1.8475,0.1906,38.7100,72,96,408520
1.8328,0.1955,38.4900,72,96,408523
1.8426,0.1906,38.4600,72,96,408526
1.8328,0.1906,38.4900,72,96,408529
1.8817,0.1906,38.2100,72,96,408534
1.8280,0.1857,38.4300,72,96,408537
1.8084,0.1857,38.4900,72,96,408540
1.8084,0.1906,38.4000,72,96,408544
1.7937,0.1857,38.4600,72,96,408547
1.8475,0.1906,38.3000,72,96,408550
1.8035,0.1906,38.4300,72,96,408554
1.7986,0.1857,38.4300,72,96,408557
1.7937,0.1906,37.7100,72,96,408560
1.8084,0.1955,38.4900,72,96,408564
1.8231,0.1906,38.4000,72,96,408567
1.7986,0.1906,38.4900,72,96,408570
1.8035,0.1906,38.3600,72,96,408573
1.7791,0.1906,38.4900,72,96,408578
1.7644,0.1857,38.5200,72,96,408581
1.8035,0.1955,38.3000,72,96,408584
1.7693,0.1906,38.5200,72,96,408588
1.7937,0.1955,38.4000,72,96,408591
1.7644,0.1857,38.4300,72,96,408594
1.7595,0.1857,38.5200,72,96,408598
1.7693,0.1906,38.4300,72,96,408601
1.7644,0.1906,38.4900,72,96,408604
1.7937,0.1955,38.3300,72,96,408607
1.7742,0.1857,38.3600,72,96,408611
1.7693,0.1857,38.4900,72,96,408614
1.7889,0.1955,38.4000,72,96,408617
1.7644,0.1906,38.4900,72,96,408622
1.8377,0.1955,38.2400,72,96,408625
1.7840,0.1857,38.4000,72,96,408628
1.7889,0.1808,38.4600,72,96,408632
1.8035,0.1906,38.4600,72,96,408635
1.7889,0.1857,38.4900,72,96,408638
1.8328,0.1906,38.2400,72,96,408642
1.7986,0.1906,38.3000,72,96,408645
1.7937,0.1857,38.5500,72,96,408648
1.7986,0.1906,38.4900,72,96,408651
1.7986,0.1857,38.5200,72,96,408655
1.8817,0.2004,38.3000,72,96,408658
1.7986,0.1906,38.6200,72,96,408662
1.8035,0.1760,38.4000,72,96,408666
1.8084,0.1906,38.4900,72,96,408669
1.7986,0.1857,38.5200,72,96,408672
1.8280,0.1906,38.4000,72,96,408676
1.7986,0.1906,38.4900,72,96,408679
1.8182,0.1906,38.4000,72,96,408682
1.7937,0.1955,38.4900,72,96,408685
1.7937,0.1857,38.4900,72,96,408689
1.8035,0.1906,38.4600,72,96,408692
1.7840,0.2004,38.4300,72,96,408695
1.8133,0.1906,38.3600,72,96,408699
1.7840,0.1857,38.4900,72,96,408702
1.7889,0.1711,38.5200,72,96,408706
1.8133,0.1955,38.4000,72,96,408710
1.7889,0.1906,38.5200,72,96,408713
1.8035,0.1906,38.3600,72,96,408716
1.7937,0.1808,38.3600,72,96,408720
1.7742,0.1857,38.4900,72,96,408723
1.7937,0.1955,38.4300,72,96,408726
1.7986,0.1857,38.4900,72,96,408729
1.8426,0.1955,38.3000,72,96,408733
1.8084,0.1857,38.4600,72,96,408736
1.8133,0.1857,38.4900,72,96,408739
1.8231,0.1955,38.4600,72,96,408743
1.8231,0.1906,38.5200,72,96,408747
1.8866,0.2053,38.2100,72,96,408750
1.8377,0.1906,38.4600,72,96,408754
1.8133,0.1857,38.4900,72,96,408757
1.8133,0.1906,38.4600,71,96,408760
1.8377,0.1955,38.4900,71,96,408765
1.9013,0.1955,38.5500,71,96,408768
2.0235,0.2004,38.3300,71,96,408772
2.1017,0.1906,38.4900,71,96,408775
2.2581,0.1955,38.4000,71,96,408778
2.3363,0.1857,38.4000,71,96,408781
2.4340,0.1857,38.4900,71,96,408785
2.5122,0.1906,38.4600,71,96,408788
2.5855,0.1857,38.4900,71,96,408792
2.7615,0.1906,38.3000,71,96,408796
2.8886,0.1906,38.4600,71,96,408799
2.9521,0.1857,38.4900,71,96,408802
2.8543,0.2004,38.4000,71,96,408806
2.5611,0.1906,38.5200,71,96,408809
2.3021,0.2053,38.3000,71,96,408812
1.9599,0.1857,38.4300,71,96,408815
1.7058,0.1857,38.7100,71,96,408819
1.5396,0.1955,38.4600,71,96,408822
1.4370,0.1857,38.4900,71,96,408825
1.4663,0.1906,38.2100,71,96,408829
1.4272,0.1906,38.6800,71,96,408833
1.4516,0.1857,38.4600,71,96,408836
1.5103,0.1906,38.4900,71,96,408840
1.5689,0.1906,38.4900,71,96,408843
1.6667,0.2053,38.3300,71,96,408846
1.6520,0.1857,38.5200,71,96,408850
1.6716,0.1808,38.4000,71,96,408853
1.6520,0.1906,38.5500,71,96,408856
1.6276,0.1906,38.5500,71,96,408859
1.6227,0.1955,38.4000,71,96,408863
1.5934,0.1906,38.5200,71,96,408866
1.5982,0.1955,38.4300,71,96,408869
1.5836,0.1906,38.4900,71,96,408873
1.5885,0.1857,38.5500,71,96,408877
1.6129,0.1857,38.4300,71,96,408880
1.5982,0.1906,38.4900,71,96,408884
1.6276,0.2004,38.3600,71,96,408887
1.5982,0.1857,38.4900,71,96,408890
1.6129,0.1906,38.4900,71,96,408894
1.6422,0.1955,38.4000,71,96,408897
1.6325,0.1808,38.4900,71,96,408900
1.6618,0.1906,38.2700,71,96,408903
1.6520,0.1955,38.5800,71,96,408907
1.6422,0.2004,38.5500,71,96,408910
1.6618,0.1906,38.4600,71,96,408913
1.6569,0.2102,38.4900,71,96,408918
1.7107,0.1906,38.2400,71,96,408921
1.6716,0.1955,38.4600,71,96,408924
1.6716,0.1857,38.5200,71,96,408928
1.6911,0.1857,38.4600,71,96,408931
1.6911,0.1857,38.4900,71,96,408934
1.7498,0.2053,38.2100,71,96,408938
1.7302,0.1906,38.4600,71,96,408941
1.7302,0.1857,38.4600,71,96,408944
1.7400,0.1906,38.5200,71,96,408947
1.7498,0.1857,38.5200,71,96,408951
1.8035,0.2004,38.4300,71,96,408954
1.7889,0.1955,38.4900,71,96,408957
1.8133,0.1906,38.4000,71,96,408962
1.8084,0.1906,38.5200,71,96,408965
1.8035,0.1906,38.5200,71,96,408968
1.8377,0.1955,38.2100,71,96,408972
1.8133,0.1906,38.4900,71,96,408975
1.8426,0.1906,38.2700,71,96,408978
1.8182,0.1857,38.4600,71,96,408982
1.8231,0.1857,38.4900,71,96,408985
1.8280,0.1906,38.4300,71,96,408988
1.8280,0.1711,38.4900,71,96,408991
1.8573,0.1857,38.3600,71,96,408995
1.8377,0.1906,38.4900,71,96,408998
1.8328,0.1857,38.4900,71,96,409001
1.8377,0.2004,38.3600,71,96,409006
1.8133,0.1906,38.4900,71,96,409009
1.8426,0.1906,38.2700,71,96,409012
1.8084,0.1711,38.4600,71,96,409016
1.8084,0.1857,38.4900,71,96,409019
1.8133,0.1857,38.4600,71,96,409022
1.7937,0.1857,38.5200,71,96,409026
1.8280,0.1955,38.2400,71,96,409029
1.7889,0.1955,38.4300,71,96,409032
1.7791,0.1857,38.5500,71,96,409035
1.7791,0.1906,38.4900,71,96,409039
1.7742,0.1906,38.2100,71,96,409042
1.8280,0.2004,38.3000,71,96,409046
1.7889,0.1906,38.4900,71,96,409050
1.8035,0.1857,38.4000,71,96,409053
1.8573,0.2004,38.4600,71,96,409056
1.8426,0.1955,38.4900,71,96,409060
1.9013,0.2004,38.6800,71,96,409063
1.9013,0.1955,38.4600,71,96,409066
1.9110,0.1955,38.4300,71,96,409069
1.9062,0.1906,38.5200,71,96,409073
1.9208,0.1857,38.4900,71,96,409076
1.9501,0.1955,38.4600,71,96,409079
1.9306,0.1808,38.4900,71,96,409083
1.9404,0.1955,38.3600,71,96,409086
1.9159,0.1955,38.4900,71,96,409090
1.9013,0.1857,38.4900,71,96,409094
1.9257,0.2004,38.3300,71,96,409097
1.8915,0.1857,38.4900,71,96,409100
1.9110,0.1955,38.3600,71,96,409104
1.8964,0.1906,38.4000,71,96,409107
1.8915,0.1857,38.5200,71,96,409110
1.9110,0.1906,38.4000,71,96,409113
1.8866,0.1906,38.5200,71,96,409117
1.9208,0.1955,38.2100,71,96,409120
1.8817,0.1857,38.4600,71,96,409123
1.8768,0.1906,38.5800,71,96,409127
1.8915,0.1955,38.4300,71,96,409131
1.8622,0.1857,38.4900,71,96,409134
1.9208,0.2053,38.2100,71,96,409138
1.8915,0.1906,38.4300,71,96,409141
1.8719,0.1857,38.5500,71,96,409144
1.8671,0.1906,38.4600,71,96,409148
1.8573,0.2053,38.4900,71,96,409151
1.9159,0.1906,38.3000,71,96,409154
1.8719,0.1906,38.6200,71,96,409157
1.8671,0.2004,38.4000,71,96,409161
1.8573,0.1906,38.4900,71,96,409164
1.8573,0.1857,38.4900,71,96,409167
1.8964,0.1955,38.3300,71,96,409171
1.8671,0.1955,38.4600,71,96,409175
1.8964,0.1906,38.3600,71,96,409178
1.8768,0.2102,38.5500,71,96,409182
1.8768,0.1906,38.5200,71,96,409185
1.8915,0.1955,38.5200,71,96,409188
1.8719,0.1955,38.4600,71,96,409192
1.9062,0.1955,38.4000,71,96,409195
1.8719,0.1906,38.3600,71,96,409198
1.8671,0.1857,38.4900,71,96,409201
1.8671,0.1857,38.4900,71,96,409205
1.8475,0.1808,38.4900,71,96,409208
1.8622,0.1906,38.3000,71,96,409211
1.8280,0.1857,38.4600,71,96,409216
1.8280,0.1906,38.4900,71,96,409219
1.8475,0.1955,38.4000,71,96,409222
1.8182,0.1906,38.4900,71,96,409226
1.8768,0.1955,38.2700,71,96,409229
1.8524,0.2297,38.4000,71,96,409232
1.8328,0.1857,38.5200,71,96,409236
1.8426,0.1955,38.4600,71,96,409239
1.8377,0.1906,38.5200,71,96,409242
1.8915,0.2004,38.2100,71,96,409245
1.8524,0.1906,38.4600,71,96,409249
1.8524,0.1857,38.5200,71,96,409252
1.8573,0.1711,38.4900,71,96,409255
1.8622,0.1857,38.1500,71,96,409260
1.9159,0.1955,38.3600,71,96,409263
1.8671,0.1906,38.4600,71,96,409266
1.8719,0.2248,38.4000,71,96,409270
1.8622,0.1906,38.5200,71,96,409273
1.8573,0.1955,38.5500,71,96,409276
1.8817,0.2004,38.4300,71,96,409280
1.8573,0.1906,38.4900,71,96,409283
1.8719,0.1955,38.4300,71,96,409286
1.8475,0.1906,38.5200,71,96,409289
1.8426,0.1760,38.4900,71,96,409293
1.8719,0.1906,38.3600,71,96,409296
1.8426,0.1906,38.4900,71,96,409299
1.8671,0.1857,38.3300,71,96,409304
1.8524,0.1906,38.3600,71,96,409307
1.8377,0.1857,38.4900,71,96,409310
1.8475,0.2004,38.4300,71,96,409314
1.8328,0.1906,38.4900,71,96,409317
1.8768,0.1906,38.0500,71,96,409320
1.8377,0.1857,38.4600,71,96,409324
1.8328,0.1857,38.4900,71,96,409327
1.8475,0.1955,38.4600,71,96,409330
1.8328,0.1857,38.5200,71,96,409333
1.8622,0.1906,38.2400,71,96,409337
1.8280,0.1857,38.4000,71,96,409340
1.8133,0.1808,38.4900,71,96,409344
1.8133,0.1955,38.4900,71,96,409348
1.8035,0.1906,38.4900,71,96,409351
1.8622,0.2053,38.2700,71,96,409354
1.8280,0.1955,38.4600,71,96,409358
1.8280,0.1857,38.0500,71,96,409361
1.8280,0.1906,38.4900,71,96,409364
1.8231,0.1857,38.6200,71,96,409368
1.8622,0.2053,38.3000,71,96,409371
1.8377,0.1955,38.4600,71,96,409376
1.8377,0.1906,38.5500,71,96,409379
1.8719,0.2053,38.3300,71,96,409382
1.8622,0.1906,38.5200,71,96,409387
1.8573,0.1906,38.4900,71,96,409390
1.8768,0.1906,38.4000,71,96,409393
1.8475,0.1906,37.7400,71,96,409396
1.8817,0.1906,38.2400,71,96,409400
1.8475,0.1857,38.4300,71,96,409403
1.8524,0.1906,38.4600,71,96,409406
1.8573,0.1955,38.4600,71,96,409410
1.8377,0.2053,38.5200,71,96,409413
1.8915,0.1906,38.2100,71,96,409416
1.8573,0.1906,38.2700,71,96,409420
1.8475,0.1906,38.5500,71,96,409423
1.8524,0.1906,38.5500,71,96,409426
1.8475,0.1760,38.5500,71,96,409431
1.9013,0.1906,38.3000,71,96,409434
1.8426,0.1857,38.5500,71,96,409437
1.8475,0.1857,38.4000,71,96,409440
1.8377,0.1906,38.4600,71,96,409444
1.8377,0.1857,38.5800,71,96,409447
1.8622,0.1955,38.4000,71,96,409450
1.8377,0.2248,38.4600,71,96,409454
1.8475,0.1955,38.3600,71,96,409457
1.8280,0.1906,38.4900,71,96,409460
1.8231,0.1808,38.4900,71,96,409464
1.8426,0.1906,38.4300,71,96,409467
1.8231,0.2199,38.4900,71,96,409470
1.8573,0.1955,38.4000,71,96,409474
1.8231,0.1906,38.5200,71,96,409478
1.8426,0.1711,38.5200,71,96,409481
1.8573,0.1955,38.4000,71,96,409484
1.8377,0.1955,38.5200,71,96,409488
1.8671,0.1906,38.3000,71,96,409491
1.8719,0.1955,38.4000,71,96,409494
1.8328,0.1906,38.5200,71,96,409498
1.8475,0.1955,38.4300,71,96,409501
1.8231,0.1857,38.5200,71,96,409504
1.8768,0.1955,38.2100,71,96,409508
1.8328,0.1906,38.4600,71,96,409511
1.8377,0.1857,38.4900,71,96,409515
1.8426,0.1906,38.4600,71,96,409519
1.8377,0.1906,38.5200,71,96,409522
1.8915,0.2004,38.2400,71,96,409525
1.8573,0.1906,38.4900,71,96,409528
1.8377,0.1955,38.4600,71,96,409532
1.8328,0.1906,38.4900,71,96,409535
1.8280,0.2053,38.4900,71,96,409538
1.8768,0.1906,38.3600,71,96,409542
1.8426,0.1906,38.5200,71,96,409545
1.8524,0.1955,38.4300,71,96,409548
1.8280,0.1906,38.4900,71,96,409552
1.8231,0.1857,38.4900,71,96,409555
1.8524,0.1955,38.4000,71,96,409559
1.8182,0.1906,38.4900,71,96,409563
1.8524,0.1906,38.4000,71,96,409566
1.8182,0.1760,38.4600,71,96,409569
1.8084,0.1711,38.4900,71,96,409572
1.8133,0.1906,38.4900,71,96,409576
1.8182,0.1906,38.4900,71,96,409579
1.8328,0.1857,38.4000,71,96,409582
1.8182,0.1857,38.4900,71,96,409586
1.8182,0.1955,38.4900,71,96,409589
1.8280,0.1955,38.3600,71,96,409592
1.8475,0.1711,38.4900,71,96,409596
1.8573,0.1906,38.3600,71,96,409600
1.8328,0.1857,38.4300,71,96,409603
1.8328,0.1857,38.6200,71,96,409607
1.8377,0.1955,38.4600,71,96,409610
1.8231,0.1857,38.5200,71,96,409613
1.8719,0.1955,38.1800,71,96,409616
1.8475,0.1906,38.4300,71,96,409620
1.8475,0.1857,38.4300,71,96,409623
1.8573,0.1955,38.4900,71,96,409626
1.8524,0.1906,38.5200,71,96,409630
1.9062,0.2053,38.3300,71,96,409633
1.8573,0.1906,38.4600,71,96,409636
1.8768,0.1857,38.4300,71,96,409640
1.9110,0.1857,38.4900,71,96,409644
1.9795,0.1857,38.4900,71,96,409647
2.1114,0.2004,38.5500,71,96,409651
2.1945,0.2004,38.4600,71,96,409654
2.3216,0.1711,38.3600,71,96,409657
2.3803,0.1906,38.4600,71,96,409660
2.4438,0.1711,38.5200,71,96,409664
2.5220,0.1906,38.3300,71,96,409667
2.5709,0.1808,38.4900,71,96,409670
2.7468,0.1955,38.3600,71,96,409674
2.8104,0.1857,38.4900,71,96,409677
2.8543,0.1808,38.4900,71,96,409680
2.7615,0.1955,38.4000,71,96,409684
2.4536,0.2053,38.4900,71,96,409688
2.1505,0.1906,38.3300,71,96,409691
1.8280,0.1906,38.4000,71,96,409694
1.5934,0.1906,38.5200,71,96,409698
1.4761,0.2004,38.4600,71,96,409701
1.4174,0.1906,38.4900,71,96,409704
1.4516,0.1906,38.2700,71,96,409708
1.4565,0.1711,38.4600,71,96,409711
1.5005,0.1857,38.4600,71,96,409714
1.5885,0.1906,38.4300,71,96,409718
1.6276,0.1711,38.4900,71,96,409721
1.7204,0.1955,38.2700,71,96,409724
1.7058,0.1906,38.3600,71,96,409728
1.6960,0.1857,38.5500,71,96,409732
1.6813,0.1906,38.4600,71,96,409735
1.6618,0.1857,38.4900,71,96,409738
1.7009,0.2053,38.0800,71,96,409742
1.6520,0.1906,38.3000,71,96,409745
1.6373,0.1857,38.4300,71,96,409748
1.6373,0.1906,38.5200,71,96,409752
1.6373,0.1906,38.5800,71,96,409755
1.6813,0.2053,38.3000,71,96,409758
1.6520,0.1906,38.4900,71,96,409761
1.6716,0.1906,38.4000,71,96,409765
1.6618,0.1857,38.4900,71,96,409768
1.6716,0.1906,38.5200,71,96,409772
1.6911,0.1955,38.4600,71,96,409776
1.6813,0.1857,38.4900,71,96,409779
1.7009,0.1906,38.3300,71,96,409782
1.6862,0.1906,38.5200,71,96,409786
1.6911,0.1955,38.5500,71,96,409789
1.7058,0.1955,38.4300,71,96,409792
1.6911,0.1906,38.5800,71,96,409795
1.7204,0.2151,38.3600,71,96,409799
1.7009,0.1906,38.4900,71,96,409802
1.7058,0.1906,38.4900,71,96,409805
1.7302,0.1955,38.4000,71,96,409809
1.7058,0.1906,38.4900,71,96,409812
1.7302,0.1906,38.3600,71,96,409816
1.7253,0.2004,38.4000,71,96,409820
1.7253,0.1857,38.4900,71,96,409823
1.7449,0.1857,38.4600,71,96,409826
1.7498,0.1711,38.5200,71,96,409829
1.7937,0.1955,38.2700,71,96,409833
1.7644,0.1906,38.4600,71,96,409836
1.7742,0.1857,38.5800,71,96,409839
1.7986,0.2004,38.4600,71,96,409843
1.8280,0.1906,38.4900,71,96,409846
1.8524,0.2004,38.2700,71,96,409849
1.8280,0.2004,38.4300,71,96,409853
1.8231,0.1808,38.4600,71,96,409857
1.8426,0.1906,38.4600,71,96,409860
1.8475,0.1711,38.4900,71,96,409863
1.9062,0.2004,38.2700,71,96,409867
1.8671,0.1906,38.4900,71,96,409870
1.8817,0.1857,38.4000,71,96,409873
1.8671,0.1906,38.5200,71,96,409877
1.8671,0.1906,38.4900,71,96,409880
1.9013,0.1955,38.3000,71,96,409883
1.8719,0.1906,38.4900,71,96,409887
1.8817,0.1906,38.3600,71,96,409890
1.8524,0.1857,38.5200,71,96,409893
1.8475,0.1906,38.4900,71,96,409897
1.8671,0.1955,38.4900,71,96,409901
1.8475,0.1857,38.4900,71,96,409904
1.8719,0.1906,38.3600,71,96,409907
1.8280,0.1906,38.4900,71,96,409911
1.8182,0.1906,38.4900,71,96,409914
1.8328,0.1906,38.4000,71,96,409917
1.8182,0.1906,38.5200,71,96,409921
1.8524,0.2102,38.3000,71,96,409924
1.8280,0.1857,38.5200,71,96,409927
1.8328,0.1857,38.4900,71,96,409931
1.8573,0.1955,38.4300,71,96,409934
1.8377,0.1906,38.5200,71,96,409937
1.8964,0.1955,38.2400,71,96,409940
1.8817,0.1955,38.4000,71,96,409945
1.8768,0.1906,38.5200,71,96,409948
1.9013,0.1955,38.4900,71,96,409951
1.9013,0.1857,38.4900,71,96,409955
1.9795,0.1955,38.2400,71,96,409958
1.9599,0.1906,38.4600,71,96,409961
1.9599,0.1808,38.5500,71,96,409965
1.9599,0.1906,38.4900,71,96,409968
1.9355,0.1906,38.5200,71,96,409971
1.9795,0.2053,38.3000,71,96,409974
1.9306,0.2004,38.4900,71,96,409978
1.9306,0.1955,38.4300,71,96,409981
1.9208,0.1906,38.4900,71,96,409985
1.8768,0.1906,38.4600,71,96,409990
1.8817,0.1906,38.4900,71,96,409993
1.9453,0.1955,38.4300,71,96,409997
1.8817,0.1906,38.4000,71,96,410000
1.9062,0.1857,38.3300,71,96,410003
1.8915,0.1906,38.3600,71,96,410007
1.8719,0.1857,38.4900,71,96,410010
1.8817,0.1906,38.4300,71,96,410013
1.8719,0.1906,38.4900,71,96,410017
1.9062,0.1955,38.2700,71,96,410020
1.8671,0.1857,38.4600,71,96,410023
1.8573,0.1857,38.5200,71,96,410027
1.9062,0.1955,38.4300,71,96,410031
1.8524,0.1857,38.5200,71,96,410034
1.8915,0.1955,38.3000,71,96,410037
1.8426,0.1906,38.3600,71,96,410041
1.8377,0.1857,38.3000,71,96,410044
1.8426,0.2004,38.4600,71,96,410047
1.8328,0.1857,38.6200,71,96,410051
1.8866,0.2248,38.2700,71,96,410054
1.8426,0.1906,38.4300,71,96,410057
1.8280,0.1857,38.5200,71,96,410060
1.8280,0.1906,38.4900,71,96,410064
1.8328,0.1857,38.5200,71,96,410067
1.8817,0.1955,38.3000,71,96,410071
1.8573,0.1906,38.4900,71,96,410075
1.8768,0.1906,38.3300,71,96,410078
1.8671,0.1906,38.4900,71,96,410081
1.8671,0.1857,38.6800,71,96,410085
1.8915,0.1955,38.4300,71,96,410088
1.8817,0.1906,38.4900,71,96,410091
1.9062,0.1906,38.4600,71,96,410095
1.8671,0.1955,38.4900,71,96,410098
1.8622,0.1857,38.5200,71,96,410101
1.8671,0.2102,38.4000,71,96,410104
1.8671,0.1906,38.4900,71,96,410108
1.8817,0.1857,38.3300,71,96,410112
1.8524,0.1857,38.4900,71,96,410115
1.8475,0.1906,38.5800,71,96,410119
1.8671,0.2102,38.4000,71,96,410122
1.8426,0.1906,38.4900,71,96,410125
1.8866,0.1906,38.2700,71,96,410129
1.8768,0.1857,38.4000,71,96,410132
1.8475,0.1711,38.4900,71,96,410135
1.8573,0.1857,38.4900,71,96,410138
1.8475,0.1711,38.4900,71,96,410142
1.9110,0.1955,38.5800,71,96,410145
1.9159,0.1906,38.4300,71,96,410148
1.8817,0.1857,38.4900,71,96,410152
1.8768,0.2053,38.4900,71,96,410156
1.8573,0.1955,38.5500,71,96,410159
1.9062,0.2053,38.2400,71,96,410163
1.8768,0.1955,38.4600,71,96,410166
1.8866,0.1857,38.4300,71,96,410169
1.8915,0.1906,38.5200,71,96,410173
1.8915,0.1857,38.4900,71,96,410176
1.9208,0.2102,38.4000,71,96,410179
1.8866,0.1955,38.4600,71,96,410182
1.8915,0.1906,38.3600,71,96,410186
1.8866,0.1857,38.4900,71,96,410189
1.8768,0.1955,38.4900,71,96,410192
1.9062,0.2004,38.3300,71,96,410196
1.8671,0.1906,38.5200,71,96,410200
1.8866,0.1955,38.3300,71,96,410203
1.8524,0.1857,38.4600,71,96,410207
1.8475,0.1857,38.5200,71,96,410210
1.8573,0.1955,38.4300,71,96,410213
1.8426,0.1857,38.4900,71,96,410217
1.8671,0.1808,38.2700,71,96,410220
1.8475,0.1808,38.4900,71,96,410223
1.8524,0.1857,38.5200,71,96,410226
1.8719,0.1906,38.4000,71,96,410230
1.8719,0.1808,38.4900,71,96,410233
1.8768,0.1906,38.2400,71,96,410236
1.8328,0.1808,38.4600,71,96,410241
1.8377,0.1857,38.4900,71,96,410244
1.8426,0.1906,38.4900,71,96,410247
1.8328,0.1711,38.5200,71,96,410251
1.8671,0.1955,38.2400,71,96,410254
1.8231,0.1955,38.4300,71,96,410257
1.8084,0.1808,38.4900,71,96,410260
1.8133,0.1906,38.5200,71,96,410264
1.8133,0.1906,38.4900,71,96,410267
1.8719,0.2004,38.3300,71,96,410270
1.8328,0.1955,38.4600,71,96,410274
1.8377,0.1857,38.4000,71,96,410277
1.8280,0.1906,38.4600,71,96,410280
1.8231,0.1857,38.4900,71,96,410285
1.8719,0.1955,37.6800,71,96,410288
1.8622,0.1906,38.4600,71,96,410291
1.8817,0.1955,38.3600,71,96,410295
1.8622,0.1906,38.5200,71,96,410298
1.8426,0.1857,38.4900,71,96,410301
1.8622,0.1906,38.4300,71,96,410304
1.8475,0.1906,38.5200,71,96,410308
1.8768,0.1955,38.3600,71,96,410311
1.8524,0.1857,38.5800,71,96,410314
1.8573,0.1955,38.4900,71,96,410318
1.8817,0.1906,38.4000,71,96,410321
1.8475,0.1857,38.4600,71,96,410324
1.8671,0.1906,38.3000,71,96,410329
1.8671,0.1906,38.4000,71,96,410332
1.8573,0.1857,37.7400,71,96,410335
1.8817,0.1906,38.4300,71,96,410338
1.8817,0.1906,38.5500,71,96,410342
1.9257,0.1857,38.2400,71,96,410345
1.8866,0.1857,38.4600,71,96,410348
1.8719,0.1857,38.5200,71,96,410352
1.8768,0.1955,38.4600,71,96,410355
1.8328,0.1857,38.5200,71,96,410358
1.8866,0.2053,38.2100,71,96,410362
1.8622,0.1955,38.4900,71,96,410365
1.8671,0.1857,38.4600,71,96,410369
1.8817,0.1711,38.4900,71,96,410373
1.8719,0.1955,38.4900,71,96,410376
1.9159,0.2004,38.3600,71,96,410379
1.8622,0.1906,38.5800,71,96,410382
1.8622,0.1906,38.4000,71,96,410386
1.8573,0.1906,38.5200,71,96,410389
1.8573,0.1857,38.5200,71,96,410392
1.8817,0.1906,38.3300,71,96,410396
1.8524,0.1906,38.5200,71,96,410399
1.8671,0.1906,38.3600,71,96,410402
1.8426,0.1711,38.4900,71,96,410406
1.8377,0.1857,38.3600,71,96,410409
1.8573,0.1955,38.4900,71,96,410413
1.8426,0.1906,38.4900,71,96,410416
1.8768,0.1955,38.5200,71,96,410420
1.8524,0.1857,38.5200,71,96,410423
1.8573,0.1857,38.5800,71,96,410426
1.8866,0.2199,38.3600,71,96,410430
1.9013,0.1906,38.5200,71,96,410433
1.9208,0.1906,38.3000,71,96,410436
1.8768,0.1906,38.5200,71,96,410440
1.8719,0.1906,38.4900,71,96,410443
1.8768,0.1906,38.4300,71,96,410446
1.8426,0.1857,38.4900,71,96,410450
1.8719,0.1906,38.2400,71,96,410454
1.8182,0.1906,38.4900,71,96,410457
1.8084,0.1906,38.4900,71,96,410460
1.8084,0.1906,38.5200,71,96,410464
1.8328,0.2004,38.4900,71,96,410467
1.9159,0.1955,38.1800,71,96,410470
1.9306,0.2053,38.4900,71,96,410474
2.0039,0.1857,38.4900,71,96,410477
2.1310,0.1955,38.4900,71,96,410480
2.2630,0.1857,38.4900,71,96,410484
2.4731,0.2346,38.3000,71,96,410487
2.5513,0.1906,38.4600,71,96,410490
2.6491,0.1857,38.4000,71,96,410493
2.7419,0.1906,38.4900,71,96,410498
2.8886,0.1857,38.4900,71,96,410501
3.1378,0.2004,38.3600,71,96,410504
3.2160,0.1955,38.4900,71,96,410508
3.1623,0.1906,38.3600,71,96,410511
2.8788,0.2248,38.4900,71,96,410514
2.5660,0.1711,38.4900,71,96,410518
2.2434,0.1955,38.3600,71,96,410521
1.9062,0.1906,38.4900,71,96,410524
1.7058,0.1955,38.4000,71,96,410527
1.5396,0.1857,38.4000,71,96,410531
1.4663,0.1906,38.4900,71,96,410534
1.4565,0.1906,38.5200,71,96,410537
1.4516,0.2151,38.4900,71,96,410542
1.4907,0.1857,38.3300,71,96,410545
1.5200,0.2297,38.4600,71,96,410548
1.5836,0.1808,38.4900,71,96,410552
1.6129,0.1906,38.5800,71,96,410555
1.6129,0.1906,38.4900,71,96,410558
1.6520,0.1906,38.2700,71,96,410561
1.5982,0.1857,38.4600,71,96,410565
1.5836,0.1857,38.4900,71,96,410568
1.5787,0.1906,38.4600,71,96,410571
1.5494,0.1906,38.5200,71,96,410575
1.5934,0.1955,38.2100,71,96,410578
1.5298,0.1906,38.4300,71,96,410582
1.5200,0.1857,38.4600,71,96,410586
1.5445,0.1906,38.5200,71,96,410589
1.5689,0.1857,38.4900,71,96,410592
1.6373,0.2053,38.2100,71,96,410595
1.6667,0.1906,38.4000,71,96,410600
1.6471,0.1955,38.4900,71,96,410604
1.6618,0.1906,38.4300,71,96,410607
1.6520,0.1808,38.4900,71,96,410610
1.6667,0.1857,38.4900,71,96,410613
1.7009,0.1857,38.4000,71,96,410617
1.7009,0.2346,38.4900,71,96,410620
1.7400,0.1906,38.3600,71,96,410624
1.7204,0.1906,38.4000,71,96,410628
1.7302,0.1808,38.4900,71,96,410631
1.7595,0.1955,38.4000,71,96,410634
1.7546,0.1857,38.5800,71,96,410638
1.7889,0.1808,38.2700,71,96,410641
1.7791,0.1906,38.4000,71,96,410644
1.7840,0.1857,38.5200,71,96,410647
1.8084,0.1955,38.4300,71,96,410651
1.8133,0.1711,38.4900,71,96,410654
1.8671,0.1955,38.1800,71,96,410657
1.8328,0.1906,38.4900,71,96,410661
1.8280,0.1857,38.4900,71,96,410664
1.8377,0.1955,38.4900,71,96,410668
1.8231,0.1711,38.4900,71,96,410672
1.8768,0.2004,38.2100,71,96,410675
1.8622,0.1955,38.4300,71,96,410678
1.8475,0.1857,38.4900,71,96,410681
1.8524,0.1955,38.4900,71,96,410685
1.8573,0.1857,38.4900,71,96,410688
1.9110,0.2297,38.3300,71,96,410691
1.8719,0.1808,38.5200,71,96,410695
1.8768,0.1857,38.4000,71,96,410698
1.8524,0.1857,38.4900,71,96,410701
1.8426,0.1711,38.4900,71,96,410705
1.8671,0.1955,38.3000,71,96,410708
1.8231,0.1906,38.4900,71,96,410712
1.8426,0.1906,38.4600,71,96,410716
1.8182,0.1808,38.4900,71,96,410719
1.8231,0.1857,38.6800,71,96,410722
1.8573,0.1955,38.4300,71,96,410725
1.8280,0.1906,38.4900,71,96,410729
1.8475,0.1857,38.3300,71,96,410732
1.8231,0.1906,38.4900,71,96,410735
1.8231,0.1857,38.5500,71,96,410739
1.8524,0.1955,38.4300,71,96,410742
1.8573,0.1906,38.4900,71,96,410745
1.9062,0.1906,38.2700,71,96,410749
1.8915,0.1857,38.4600,71,96,410753
1.9110,0.1857,38.4900,71,96,410756
1.9355,0.1955,38.4300,71,96,410759
1.9110,0.1906,38.4900,71,96,410763
1.9550,0.1955,38.2400,71,96,410766
1.9257,0.1955,38.4000,71,96,410769
1.9257,0.1857,38.5200,71,96,410773
1.9746,0.1906,38.4900,71,96,410776
1.9453,0.1857,38.5200,71,96,410779
1.9990,0.2102,38.2400,71,96,410783
1.9501,0.1906,38.4600,71,96,410786
1.9404,0.1857,38.4000,71,96,410789
1.9355,0.1955,38.4600,71,96,410793
1.9257,0.1906,38.4900,71,96,410797
1.9697,0.2297,38.3300,71,96,410800
1.9257,0.1906,38.4900,71,96,410803
1.9208,0.1906,38.3600,71,96,410807
1.9159,0.1808,38.4900,71,96,410810
1.8817,0.1906,38.4000,71,96,410813
1.8964,0.2199,38.4300,71,96,410817
1.8671,0.1906,38.4900,71,96,410820
1.8768,0.1906,38.3300,71,96,410823
1.8817,0.1808,38.5200,71,96,410827
1.8426,0.1857,38.4900,71,96,410830
1.8719,0.1955,38.3600,71,96,410833
1.8426,0.1906,38.4900,71,96,410838
1.8671,0.1857,38.3300,71,96,410841
1.8328,0.1906,38.4300,71,96,410844
1.8280,0.1906,38.5200,71,96,410847
1.8426,0.1808,38.4000,71,96,410851
1.8377,0.1906,38.4900,71,96,410854
1.8622,0.1906,38.2700,71,96,410857
1.8426,0.1857,38.4600,71,96,410861
1.8035,0.1906,38.4900,71,96,410864
1.8280,0.1955,38.4300,71,96,410867
1.7937,0.1808,38.4900,71,96,410871
1.8328,0.1955,38.2100,71,96,410874
1.8035,0.1906,38.4000,71,96,410877
1.7937,0.1857,38.4900,71,96,410881
1.7937,0.1906,38.5200,71,96,410885
1.7986,0.1711,38.4900,71,96,410888
1.8377,0.2053,38.2400,71,96,410891
1.8133,0.1955,38.4300,71,96,410895
1.8133,0.1857,38.4300,71,96,410898
1.8280,0.1906,38.4900,71,96,410901
1.8182,0.1711,38.4900,71,96,410905
1.8573,0.2004,38.3600,71,96,410908
1.8231,0.1955,38.4900,71,96,410911
1.8377,0.1906,38.4600,71,96,410915
1.8231,0.1906,38.5500,71,96,410918
1.8231,0.1857,38.4900,71,96,410921
1.8524,0.2004,38.4000,71,96,410925
1.8328,0.1906,38.4600,71,96,410929
1.8671,0.1906,38.3300,71,96,410932
1.8377,0.1857,38.4600,71,96,410935
1.8426,0.1857,38.4900,71,96,410939
1.8426,0.1906,38.4000,71,96,410942
1.8328,0.1955,38.4900,71,96,410945
1.8573,0.1857,38.3600,71,96,410949
1.8475,0.1955,38.5200,71,96,410952
1.8426,0.1857,38.4900,71,96,410955
1.8573,0.1906,38.4000,71,96,410959
1.8280,0.1906,38.4900,71,96,410962
1.8573,0.1906,38.1800,71,96,410966
1.8328,0.1955,38.4000,71,96,410969
1.8377,0.1711,38.4900,71,96,410973
1.8133,0.1955,38.4900,71,96,410976
1.7937,0.1857,38.5200,71,96,410979
1.8426,0.1955,38.2100,71,96,410983
1.7986,0.1808,38.4300,71,96,410986
1.7937,0.1711,38.4900,71,96,410989
1.7986,0.1906,38.4900,71,96,410993
1.7937,0.1906,38.4900,71,96,410996
1.8524,0.2053,38.2700,71,96,410999
1.8182,0.1906,38.4300,71,96,411002
1.8035,0.1857,38.4000,71,96,411006
1.7986,0.1906,38.4900,71,96,411010
1.7889,0.1857,38.4600,71,96,411013
1.8426,0.2004,38.4300,71,96,411017
1.8084,0.1906,38.4900,71,96,411020
1.8231,0.1857,38.4000,71,96,411023
1.8035,0.1906,38.5200,71,96,411027
1.8035,0.1857,38.4600,71,96,411030
1.8328,0.2004,38.3300,71,96,411033
1.8035,0.1906,38.5200,71,96,411036
1.8280,0.1906,38.3600,71,96,411040
1.8084,0.1808,38.4600,71,96,411043
1.7889,0.1857,38.4900,71,96,411046
1.8035,0.2151,38.4300,71,96,411051
1.7889,0.1906,38.4900,71,96,411054
1.8182,0.1857,38.4600,71,96,411057
1.7986,0.1857,38.4900,71,96,411061
1.7986,0.1857,38.5200,71,96,411064
1.8182,0.1906,38.3300,71,96,411067
1.8035,0.1906,38.4600,71,96,411071
1.8475,0.1906,38.2700,71,96,411074
1.8377,0.1857,38.4600,71,96,411077
1.8133,0.1906,38.5200,71,96,411080
1.8182,0.2053,38.4600,71,96,411084
1.7937,0.1857,38.5800,71,96,411087
1.8377,0.2297,38.2100,71,96,411090
1.8084,0.1906,38.4300,71,96,411095
1.7986,0.1857,38.4900,71,96,411098
1.8084,0.1808,38.4900,71,96,411101
1.7937,0.1857,38.4900,71,96,411105
1.8377,0.2053,38.2700,71,96,411108
1.7889,0.1906,38.4900,71,96,411111
1.7937,0.1857,38.4300,71,96,411114
1.7986,0.2004,38.4900,71,96,411118
1.8084,0.1906,38.4900,71,96,411121
1.8426,0.2004,38.4000,71,96,411124
1.8182,0.1955,38.4900,71,96,411128
1.8182,0.1906,38.3600,71,96,411131
1.8084,0.1906,38.2100,71,96,411134
1.7986,0.1955,38.4900,71,96,411139
1.8231,0.1906,38.4600,71,96,411142
1.7986,0.2004,38.4600,71,96,411145
1.8377,0.1906,38.3600,71,96,411149
1.7986,0.1857,38.5200,71,96,411152
1.8084,0.1857,38.5200,71,96,411155
1.8426,0.1955,38.4900,71,96,411158
1.8328,0.1808,38.4900,71,96,411162
1.8426,0.1857,37.9900,71,96,411165
1.8280,0.1857,38.4000,71,96,411168
1.8231,0.1906,38.4900,71,96,411172
1.8231,0.1906,38.4600,71,96,411175
1.8133,0.1955,38.4900,71,96,411179
1.8524,0.1906,38.2700,71,96,411183
1.8231,0.1857,38.4900,71,96,411186
1.8377,0.1906,38.4900,71,96,411189
1.8573,0.1906,38.4000,71,96,411192
1.8426,0.1857,38.4900,71,96,411196
1.8964,0.1955,38.3000,71,96,411199
1.8524,0.1857,38.3600,71,96,411202
1.8377,0.1857,38.4900,71,96,411206
1.8475,0.1955,38.4600,71,96,411209
1.8133,0.1857,38.5200,71,96,411214
1.8133,0.1906,38.4900,71,96,411217
1.8475,0.1906,38.3300,71,96,411220
1.8035,0.1808,38.4900,71,96,411225
1.8231,0.1955,38.3600,71,96,411228
1.7937,0.1857,38.4600,71,96,411231
1.7937,0.1955,38.4900,71,96,411235
1.8182,0.1906,38.5200,71,96,411238
1.8133,0.2151,38.4900,71,96,411241
1.8426,0.1808,38.4000,71,96,411244
1.8231,0.1906,38.4900,71,96,411248
1.8280,0.2297,38.5200,71,96,411251
1.8280,0.1906,38.3600,71,96,411254
1.8133,0.1857,38.4900,71,96,411258
1.8426,0.1857,38.2700,71,96,411261
1.8133,0.1857,38.4300,71,96,411265
1.8133,0.1857,38.5500,71,96,411269
1.8231,0.1906,38.4600,71,96,411272
1.8377,0.1906,38.4900,71,96,411275
1.8524,0.1955,38.2400,71,96,411279
1.8231,0.1955,38.4300,71,96,411282
1.8231,0.1857,38.4900,71,96,411285
1.8328,0.1955,38.4900,71,96,411288
1.8377,0.1857,38.4900,71,96,411292
1.8915,0.2053,38.2700,71,96,411295
1.8426,0.1906,38.4600,71,96,411298
1.8475,0.1857,38.4300,71,96,411302
1.8475,0.1906,38.4300,71,96,411305
1.8426,0.1857,38.4900,71,96,411309
1.8768,0.2004,38.4000,71,96,411313
1.8377,0.1906,38.4300,71,96,411316
1.8377,0.1906,38.4300,71,96,411319
1.8231,0.1906,38.4900,71,96,411322
1.8328,0.1906,38.4900,71,96,411326
1.8915,0.1906,38.4300,71,96,411329
1.9404,0.1906,38.4900,71,96,411332
2.0577,0.1906,38.3600,71,96,411336
2.1359,0.1857,38.5200,71,96,411339
2.2532,0.1857,38.7100,71,96,411342
2.3998,0.2004,38.4000,71,96,411346
2.4242,0.1906,38.4900,71,96,411350
2.5269,0.1857,38.3300,71,96,411353
2.6149,0.1955,38.4300,71,96,411357
2.7126,0.1857,38.5200,71,96,411360
2.8788,0.1808,38.4300,71,96,411363
2.9423,0.1857,38.4900,71,96,411366
2.8690,0.1906,38.2400,71,96,411370
2.5855,0.1711,38.4600,71,96,411373
2.2239,0.1955,38.5500,71,96,411376
1.9306,0.1857,38.4300,71,96,411380
1.6618,0.1857,38.4900,71,96,411383
1.5347,0.1955,38.5500,71,96,411386
1.4516,0.1711,38.4000,71,96,411390
1.4076,0.1857,38.4600,71,96,411394
1.4223,0.1906,38.4900,71,96,411397
1.4614,0.1857,38.5500,71,96,411401
1.5591,0.2053,38.2700,71,96,411404
1.6031,0.1906,38.4600,71,96,411407
1.6569,0.1857,38.4900,71,96,411410
1.6862,0.1906,38.4900,71,96,411414
1.6813,0.1857,38.5200,71,96,411417
1.7009,0.1955,38.3300,71,96,411420
1.6520,0.1906,38.5500,71,96,411424
1.6471,0.1906,38.4000,71,96,411427
1.6422,0.1906,38.4900,71,96,411430
1.6129,0.1857,38.5200,71,96,411435
1.6325,0.1955,38.4300,71,96,411438
1.6227,0.1906,38.5200,71,96,411441
1.6471,0.1955,38.2700,71,96,411444
1.6422,0.1906,38.4900,71,96,411448
1.6422,0.1857,38.4900,71,96,411451
1.6569,0.2053,38.4000,71,96,411454
1.6716,0.1906,38.4900,71,96,411458
1.6813,0.1857,38.3300,71,96,411461
1.6667,0.1906,38.5200,71,96,411464
1.6764,0.1857,38.4900,71,96,411468
1.6960,0.1906,38.4000,71,96,411471
1.6862,0.1711,38.4900,71,96,411474
1.7351,0.1906,38.1500,71,96,411479
1.7253,0.1955,38.4300,71,96,411482
1.7204,0.1857,38.4900,71,96,411485
1.7302,0.1906,38.4900,71,96,411488
1.7546,0.1906,38.4900,71,96,411492
1.7742,0.1955,38.2400,71,96,411495
1.7400,0.1857,38.4300,71,96,411498
1.7595,0.1711,38.4900,71,96,411502
1.7546,0.1906,38.5200,71,96,411505
1.7546,0.1906,38.4900,71,96,411508
1.8084,0.2004,38.2700,71,96,411512
1.7742,0.1906,38.4900,71,96,411515
1.7644,0.2151,38.4000,71,96,411518
1.7693,0.1906,38.4900,71,96,411522
1.7644,0.1857,38.4600,71,96,411526
1.8084,0.1906,38.3600,71,96,411529
1.7791,0.1955,38.4900,71,96,411532
1.7889,0.1857,38.3600,71,96,411536
1.7791,0.1906,38.4900,71,96,411539
1.7840,0.1857,38.4300,71,96,411542
1.8182,0.1955,38.3000,71,96,411546
1.7937,0.1906,38.5200,71,96,411549
1.8133,0.1906,38.3300,71,96,411552
1.8084,0.1857,38.4300,71,96,411555
1.7986,0.1857,38.5200,71,96,411559
1.8133,0.2395,38.4000,71,96,411563
1.8280,0.1906,38.4900,71,96,411566
1.8328,0.1857,38.3300,71,96,411570
1.7986,0.1955,38.4600,71,96,411573
1.7986,0.1906,38.4900,71,96,411576
1.8035,0.1906,38.4000,71,96,411580
1.7889,0.1857,38.4900,71,96,411583
1.8182,0.1906,38.3000,71,96,411586
1.7889,0.1808,38.4600,71,96,411589
1.7889,0.1857,38.4900,71,96,411593
1.8133,0.1955,38.4300,71,96,411596
1.7889,0.1906,38.4900,71,96,411599
1.8377,0.1955,38.2100,71,96,411603
1.8133,0.1906,38.4600,71,96,411607
1.8035,0.1906,38.5200,71,96,411610
1.8182,0.1906,38.4900,71,96,411614
1.8182,0.1857,38.4900,71,96,411617
1.8768,0.2102,38.2400,71,96,411620
1.8573,0.1906,38.4900,71,96,411624
1.8719,0.2151,38.4300,71,96,411627
1.8964,0.1906,38.5500,71,96,411630
1.9013,0.1906,38.4900,71,96,411633
1.9746,0.1955,38.3300,71,96,411637
1.9355,0.1906,38.4900,71,96,411640
1.9550,0.1857,38.3600,71,96,411643
1.9453,0.1906,38.5500,71,96,411648
1.9501,0.1857,38.4900,71,96,411651
1.9697,0.1906,38.5200,71,96,411654
1.9501,0.1906,38.4600,71,96,411658
1.9990,0.2004,38.4300,71,96,411661
1.9404,0.1857,38.7100,71,96,411664
1.9306,0.1906,38.4900,71,96,411667
1.9550,0.1955,38.3300,71,96,411671
1.9159,0.1906,38.5800,71,96,411674
1.9355,0.2102,38.3300,71,96,411677
1.9159,0.1906,38.4300,71,96,411681
1.9013,0.1857,38.3000,71,96,411684
1.9110,0.1906,38.4000,71,96,411687
1.8964,0.1857,38.4900,71,96,411692
1.9306,0.1906,38.3300,71,96,411695
1.9257,0.1808,38.4900,71,96,411698
1.9013,0.1857,38.4900,71,96,411701
1.9208,0.1955,38.4900,71,96,411705
1.8915,0.2004,38.4600,71,96,411708
1.9306,0.1955,38.2400,71,96,411711
1.8817,0.1857,38.4000,71,96,411715
1.8719,0.1857,38.5200,71,96,411718
1.8866,0.1906,38.4600,71,96,411721
1.8719,0.2053,38.5500,71,96,411725
1.9404,0.2004,38.2400,71,96,411728
1.8964,0.1955,38.4600,71,96,411731
1.8719,0.1955,38.4300,71,96,411736
1.8671,0.1906,38.5200,71,96,411739
1.8622,0.1857,38.4900,71,96,411742
1.9062,0.1955,38.3000,71,96,411745
1.8622,0.2248,38.4900,71,96,411749
1.8817,0.1906,38.4000,71,96,411752
1.8426,0.1906,38.4900,71,96,411755
1.8377,0.1857,38.4900,71,96,411759
1.8671,0.1906,38.4000,71,96,411762
1.8426,0.1906,38.4900,71,96,411765
1.8915,0.1955,38.3600,71,96,411769
1.8328,0.1906,38.5200,71,96,411772
1.8328,0.1906,38.5200,71,96,411776
1.8426,0.1906,38.4600,71,96,411779
1.8328,0.1906,38.5800,71,96,411783
1.8622,0.2053,38.3600,71,96,411786
1.8328,0.1906,38.4900,71,96,411789
1.8280,0.1857,38.4900,71,96,411793
1.8573,0.1955,38.2100,71,96,411796
1.8280,0.1857,38.4900,71,96,411799
1.8719,0.1955,38.2700,71,96,411803
1.8573,0.1906,38.4000,71,96,411806
1.8377,0.1906,38.5500,71,96,411809
1.8524,0.1906,38.4300,71,96,411813
1.8328,0.1906,38.5500,71,96,411816
1.8768,0.1906,38.2400,71,96,411820
1.8719,0.2004,38.3300,70,96,411825
1.8475,0.1955,38.4600,70,96,411828
1.8573,0.1857,38.4000,70,96,411832
1.8475,0.1906,38.5200,70,96,411835
1.8573,0.1857,38.5200,70,96,411838
1.8817,0.1906,38.4000,70,96,411841
1.8671,0.1955,38.4600,70,96,411845
1.8964,0.1906,38.3300,70,96,411848
1.8671,0.1808,38.4900,70,96,411851
1.8671,0.1955,38.4900,70,96,411855
1.8915,0.2004,38.3600,70,96,411858
1.8622,0.1857,38.5200,70,96,411862
1.8866,0.2248,38.3300,70,96,411866
1.8817,0.1857,38.4000,70,96,411869
1.8671,0.1857,38.6800,70,96,411872
1.8768,0.1906,38.4600,70,96,411876
1.8573,0.1906,38.5500,70,96,411879
1.8817,0.1906,38.2700,70,96,411882
1.8524,0.1955,38.4300,70,96,411885
1.8426,0.1857,38.3600,70,96,411889
1.8671,0.1906,38.4300,70,96,411892
1.8377,0.1857,38.5500,70,96,411895
1.8817,0.1955,38.2400,70,96,411899
1.8426,0.1906,38.3300,70,96,411902
1.8573,0.1955,38.4900,70,96,411906
1.8377,0.1906,38.4600,70,96,411910
1.8426,0.1906,38.5200,70,96,411913
1.8817,0.2053,38.2700,70,96,411916
1.8280,0.1857,38.5500,70,96,411920
1.8133,0.2004,38.4000,70,96,411923
1.8084,0.1906,38.5200,70,96,411926
1.8035,0.1857,38.5200,70,96,411929
1.8475,0.1955,38.3300,70,96,411933
1.8035,0.1906,38.4900,70,96,411936
1.8133,0.2151,38.3600,70,96,411939
1.7937,0.1906,38.6800,70,96,411943
1.7937,0.1906,38.4900,70,96,411947
1.8280,0.1906,38.3300,70,96,411950
1.8084,0.1906,38.5500,70,96,411954
1.8328,0.2053,38.4000,70,96,411957
1.8133,0.1808,38.4600,70,96,411960
1.8133,0.1857,38.6800,70,96,411963
1.8280,0.1711,38.4300,70,96,411967
1.8231,0.1906,38.5500,70,96,411970
1.8475,0.2004,38.3300,70,96,411973
1.8231,0.1906,38.4900,70,96,411977
1.8231,0.2053,38.4900,70,96,411980
1.8377,0.1906,38.4000,70,96,411983
1.8182,0.1955,38.5500,70,96,411987
1.8622,0.1906,38.2400,70,96,411991
1.8475,0.1857,38.4600,70,96,411994
1.8377,0.1808,38.4900,70,96,411998
1.8524,0.1906,38.4600,70,96,412001
1.8377,0.2151,38.4900,70,96,412004
1.8866,0.1955,38.2100,70,96,412007
1.8524,0.1955,38.4300,70,96,412011
1.8377,0.1857,38.4900,70,96,412014
1.8377,0.2004,38.5200,70,96,412017
1.8280,0.1857,38.5500,70,96,412021
1.8768,0.2053,38.3000,70,96,412024
1.8377,0.1906,38.4300,70,96,412027
1.8475,0.1857,38.4000,70,96,412032
1.8328,0.1906,38.5800,70,96,412035
1.8328,0.1857,38.4900,70,96,412038
1.8524,0.1955,38.4000,70,96,412042
1.8231,0.1906,38.5200,70,96,412045
1.8426,0.1955,38.3600,70,96,412048
1.8231,0.1906,38.4300,70,96,412051
1.8426,0.1808,38.4900,70,96,412055
1.8524,0.1955,38.3300,70,96,412058
1.8133,0.1906,38.4600,70,96,412061
1.8524,0.1906,38.7100,70,96,412065
1.8280,0.1955,38.4300,70,96,412068
1.8377,0.1906,38.4900,70,96,412071
1.8524,0.2151,38.4000,70,96,412076
1.8328,0.1711,38.4600,70,96,412079
1.8671,0.1906,38.3000,70,96,412082
1.8719,0.1955,38.4600,70,96,412086
1.8524,0.1857,38.4900,70,96,412089
1.8768,0.2102,38.4000,70,96,412092
1.8524,0.1906,38.4900,70,96,412095
1.8964,0.1906,38.2400,70,96,412099
1.8524,0.1857,38.4000,70,96,412102
1.8573,0.1906,38.4900,70,96,412105
1.8622,0.1906,38.4600,70,96,412109
1.8475,0.1857,38.5200,70,96,412112
1.9110,0.2004,38.2100,70,96,412115
1.8768,0.1906,38.4300,70,96,412120
1.8671,0.1808,38.4600,70,96,412123
1.8768,0.2199,38.4600,70,96,412126
1.8964,0.1906,38.4900,70,96,412129
1.9208,0.2004,38.3000,70,96,412133
1.8671,0.1906,38.4600,70,96,412136
1.8573,0.1808,38.4000,70,96,412139
1.8328,0.1906,38.4900,70,96,412143
1.8280,0.1906,38.6800,70,96,412146
1.8719,0.2199,38.3300,70,96,412149
1.8719,0.1906,38.4900,70,96,412153
1.9404,0.1906,38.3300,70,96,412156
2.0039,0.1711,38.5500,70,96,412160
2.1163,0.1857,37.9600,70,96,412163
2.2532,0.2004,38.4300,70,96,412167
2.3265,0.1808,38.4900,70,96,412170
2.4438,0.1906,38.3600,70,96,412173
2.4682,0.1857,38.4900,70,96,412177
2.5318,0.1857,38.4900,70,96,412180
2.6686,0.1955,38.4000,70,96,412183
2.7713,0.1955,38.4900,70,96,412187
2.9081,0.1906,38.3300,70,96,412190
2.8495,0.1857,38.3600,70,96,412193
2.6246,0.1857,38.4900,70,96,412196
2.3314,0.2151,38.4300,70,96,412200
1.9892,0.1906,38.4900,70,96,412204
1.7498,0.1906,38.3000,70,96,412207
1.5543,0.1955,38.4300,70,96,412211
1.4614,0.1857,38.5200,70,96,412214
1.4565,0.1906,38.4300,70,96,412217
1.4516,0.1906,38.4900,70,96,412221
1.5249,0.1955,38.1800,70,96,412224
1.5640,0.1955,38.4000,70,96,412227
1.6227,0.1857,38.5200,70,96,412231
1.6813,0.1906,38.4600,70,96,412234
1.7009,0.1906,38.5200,70,96,412237
1.7595,0.2053,38.3000,70,96,412240
1.7058,0.1906,38.4900,70,96,412244
1.6960,0.1808,38.4000,70,96,412248
1.6813,0.1906,38.5200,70,96,412251
1.6618,0.1857,38.5200,70,96,412255
1.7107,0.1955,38.3300,70,96,412258
1.6373,0.1906,38.4900,70,96,412261
1.6471,0.1906,38.3600,70,96,412265
1.6373,0.1906,38.5500,70,96,412268
1.6422,0.1857,38.4900,70,96,412271
1.6813,0.1906,38.4000,70,96,412274
1.6667,0.1906,38.4900,70,96,412278
1.6911,0.2053,38.4000,70,96,412281
1.6716,0.1857,38.4600,70,96,412284
1.6716,0.1857,38.4900,70,96,412289
1.6813,0.1906,38.4300,70,96,412292
1.6716,0.1906,38.4900,70,96,412295
1.6911,0.1808,38.3300,70,96,412299
1.6667,0.1906,38.4600,70,96,412302
1.6862,0.1857,38.4900,70,96,412305
1.7009,0.1955,38.4300,70,96,412309
1.6960,0.1857,38.5500,70,96,412312
1.7546,0.1906,38.2100,70,96,412315
1.7253,0.1906,38.3600,70,96,412318
1.7155,0.1857,38.4900,70,96,412322
1.7351,0.1906,38.5800,70,96,412325
1.7400,0.1857,38.5200,70,96,412328
1.8035,0.1906,38.2100,70,96,412333
1.7693,0.2004,38.4300,70,96,412336
1.7595,0.1711,38.4600,70,96,412339
1.7742,0.1906,38.4000,70,96,412343
1.7742,0.1906,38.5200,70,96,412346
1.8328,0.2004,38.3300,70,96,412349
1.7986,0.1906,38.4600,70,96,412352
1.7986,0.1857,37.7100,70,96,412356
1.7889,0.1808,38.5200,70,96,412359
1.7840,0.1906,38.5500,70,96,412362
1.8231,0.2053,38.4000,70,96,412366
1.8084,0.1906,38.4900,70,96,412369
1.8426,0.1906,38.3600,70,96,412372
1.8475,0.1906,38.4900,70,96,412377
1.8280,0.1857,38.5200,70,96,412380
1.8622,0.2004,38.3300,70,96,412383
1.8231,0.1955,38.5500,70,96,412387
1.8524,0.2004,38.3600,70,96,412390
1.8426,0.1808,38.4300,70,96,412393
1.8133,0.1906,38.4900,70,96,412396
1.8475,0.1955,38.3600,70,96,412400
1.8182,0.1906,38.4900,70,96,412403
1.8377,0.1906,38.6500,70,96,412406
1.8328,0.1955,38.4000,70,96,412410
1.8182,0.1857,38.5500,70,96,412413
1.8328,0.2248,38.3600,70,96,412417
1.8035,0.1906,38.4900,70,96,412421
1.8328,0.1955,38.3000,70,96,412424
1.7986,0.1955,38.4300,70,96,412427
1.8035,0.1857,38.5200,70,96,412430
1.8280,0.2199,38.4600,70,96,412434
1.8671,0.1711,38.4900,70,96,412439
1.9013,0.1857,38.4900,70,96,412442
1.9697,0.1955,38.3000,70,96,412445
1.9550,0.1955,38.4900,70,96,412448
1.9844,0.1906,38.3600,70,96,412452
1.9697,0.2151,38.4900,70,96,412455
1.9648,0.1857,38.5200,70,96,412459
1.9892,0.2053,38.3000,70,96,412463
1.9746,0.1808,38.5200,70,96,412466
1.9941,0.1906,38.3600,70,96,412469
1.9550,0.1808,38.4600,70,96,412473
1.9453,0.1906,38.4900,70,96,412476
1.9501,0.1906,38.4000,70,96,412479
1.9404,0.1906,38.4900,70,96,412482
1.9746,0.1711,38.3300,70,96,412486
1.9306,0.1955,38.5200,70,96,412489
1.9355,0.1711,38.4900,70,96,412492
1.9501,0.1906,38.4000,70,96,412496
1.9159,0.1906,38.5200,70,96,412499
1.9501,0.1906,38.2400,70,96,412503
1.9159,0.1906,38.5200,70,96,412507
1.8866,0.2151,38.4900,70,96,412510
1.8915,0.1906,38.4600,70,96,412513
1.8719,0.1906,38.5200,70,96,412516
1.9208,0.1955,38.2400,70,96,412520
1.8866,0.1906,38.4300,70,96,412523
1.8719,0.1857,38.4900,70,96,412526
1.8671,0.1955,38.4600,70,96,412530
1.8573,0.1857,38.5800,70,96,412533
1.9062,0.2151,38.2700,70,96,412536
1.8622,0.1906,38.3300,70,96,412540
1.8524,0.1808,38.4000,70,96,412544
1.8524,0.1906,38.4900,70,96,412547
1.8426,0.1857,38.4900,70,96,412551
1.9062,0.2053,38.3600,70,96,412554
1.8475,0.1906,38.4600,70,96,412557
1.8573,0.1906,38.3600,70,96,412560
1.8328,0.1906,38.4900,70,96,412564
1.8377,0.1857,38.5200,70,96,412567
1.8768,0.1955,38.3300,70,96,412570
1.8328,0.1906,38.5200,70,96,412574
1.8719,0.1955,38.4300,70,96,412577
1.8475,0.1857,38.4600,70,96,412580
1.8524,0.1857,38.5200,70,96,412584
1.8817,0.1906,38.4000,70,96,412588
1.8573,0.1906,38.4900,70,96,412591
1.8817,0.1857,38.3000,70,96,412594
1.8622,0.1906,38.4000,70,96,412598
1.8573,0.1857,38.4900,70,96,412601
1.8719,0.1906,38.4300,70,96,412604
1.8524,0.1857,38.4600,70,96,412608
1.8817,0.2004,38.2700,70,96,412611
1.8524,0.1906,38.4300,70,96,412614
1.8622,0.1857,38.4900,70,96,412618
1.8817,0.2004,38.4600,70,96,412621
1.8524,0.1857,38.4900,70,96,412624
1.8964,0.2004,38.2100,70,96,412627
1.8671,0.1955,38.3600,70,96,412632
1.8524,0.1857,38.5500,70,96,412635
1.8671,0.1906,38.4900,70,96,412638
1.8524,0.1857,38.4900,70,96,412642
1.9013,0.2151,38.2400,70,96,412645
1.8622,0.1906,38.4600,70,96,412648
1.8622,0.1857,38.4000,70,96,412652
1.8524,0.1711,38.4900,70,96,412655
1.8426,0.1906,38.5800,70,96,412658
1.8719,0.1955,38.3600,70,96,412662
1.8377,0.1906,38.5200,70,96,412665
1.8475,0.1906,37.7700,70,96,412668
1.8377,0.1955,38.4900,70,96,412672
1.8475,0.1857,38.5200,70,96,412676
1.8719,0.2004,38.4600,70,96,412679
1.8524,0.1857,38.4900,70,96,412682
1.8622,0.1955,38.4300,70,96,412686
1.8280,0.1906,38.4900,70,96,412689
1.8182,0.1857,38.4900,70,96,412692
1.8426,0.1857,38.3300,70,96,412696
1.8084,0.1906,38.5800,70,96,412699
1.8328,0.1906,38.3300,70,96,412702
1.8280,0.1906,38.4000,70,96,412706
1.8231,0.1857,38.3000,70,96,412709
1.8377,0.1906,38.4300,70,96,412712
1.8328,0.1906,38.4900,70,96,412716
1.8866,0.2004,38.2400,70,96,412720
1.8622,0.1906,38.4300,70,96,412723
1.8426,0.1857,38.4900,70,96,412726
1.8475,0.1955,38.4300,70,96,412730
1.8231,0.1906,38.5500,70,96,412733
1.8719,0.1955,38.2400,70,96,412736
1.8377,0.1906,38.4000,70,96,412740
1.8280,0.1808,38.5200,70,96,412743
1.8573,0.1955,38.4900,70,96,412746
1.8280,0.1906,38.5200,70,96,412750
1.8915,0.2053,38.3000,70,96,412753
1.8524,0.1955,38.4600,70,96,412756
1.8377,0.1857,38.4600,70,96,412760
1.8280,0.1711,38.4600,70,96,412764
1.8133,0.1906,38.4900,70,96,412767
1.8524,0.2004,38.3000,70,96,412770
1.8280,0.1906,38.4900,70,96,412774
1.8475,0.1906,38.4000,70,96,412777
1.8328,0.2004,38.4900,70,96,412780
1.8280,0.1906,38.5200,70,96,412784
1.8622,0.2444,38.3000,70,96,412787
1.8377,0.1711,38.4900,70,96,412790
1.8573,0.1906,38.4000,70,96,412793
1.8280,0.1857,38.4600,70,96,412797
1.8231,0.1857,38.5200,70,96,412801
1.8377,0.1906,38.4300,70,96,412804
1.8328,0.1906,38.4900,70,96,412808
1.8768,0.1857,38.3300,70,96,412811
1.8671,0.1857,38.4300,70,96,412814
1.8768,0.1857,38.5200,70,96,412818
1.8915,0.2004,38.4000,70,96,412821
1.8573,0.1955,38.4900,70,96,412824
1.8866,0.1955,38.4000,70,96,412828
1.8573,0.1906,38.4000,70,96,412831
1.8622,0.1857,38.4900,70,96,412834
1.8573,0.1906,38.4300,70,96,412837
1.8524,0.1857,38.4900,70,96,412841
1.9110,0.1906,38.2100,70,96,412845
1.8817,0.1857,38.4000,70,96,412848
1.8768,0.1906,38.4900,70,96,412852
1.8866,0.1906,38.4900,70,96,412855
1.8768,0.1906,38.5200,70,96,412858
1.9159,0.2102,38.2700,70,96,412861
1.8622,0.1906,38.4600,70,96,412865
1.8426,0.1857,38.4300,70,96,412868
1.8377,0.1906,38.5200,70,96,412871
1.8280,0.1857,38.5200,70,96,412875
1.8719,0.1955,38.3600,70,96,412878
1.8475,0.1906,38.4000,70,96,412881
1.8671,0.1906,38.4000,70,96,412886
1.8573,0.1906,38.4900,70,96,412889
1.8573,0.1857,38.6500,70,96,412892
1.8817,0.1955,38.3300,70,96,412896
1.8377,0.1906,38.4000,70,96,412899
1.8475,0.1857,38.4000,70,96,412902
1.8182,0.1857,38.4900,70,96,412905
1.8133,0.1906,38.4600,70,96,412909
1.8280,0.1955,38.4300,70,96,412912
1.8182,0.1906,38.4900,70,96,412915
1.8426,0.1857,38.3300,70,96,412919
1.8182,0.1906,38.4300,70,96,412922
1.7986,0.1857,38.5200,70,96,412925
1.8133,0.2004,38.4300,70,96,412930
1.8084,0.1906,38.5200,70,96,412933
1.8622,0.1906,38.2400,70,96,412936
1.8377,0.1857,38.4300,70,96,412940
1.8377,0.1857,38.5500,70,96,412943
1.8475,0.1955,38.4900,70,96,412946
1.8182,0.1906,38.5200,70,96,412949
1.8768,0.1955,38.1800,70,96,412953
1.8573,0.1906,38.4300,70,96,412956
1.8377,0.1808,38.4300,70,96,412959
1.8280,0.1906,38.5200,70,96,412963
1.8084,0.1857,38.7100,70,96,412966
1.8719,0.2199,38.3000,70,96,412969
1.8475,0.1906,38.4600,70,96,412974
1.8866,0.1857,38.2700,70,96,412977
1.9795,0.1906,38.4900,70,96,412980
2.0283,0.1906,38.5500,70,96,412983
2.1945,0.1955,38.3000,70,96,412987
2.3118,0.1906,38.4600,70,96,412990
2.4682,0.1955,38.3600,70,96,412993
2.5611,0.2004,38.4600,70,96,412997
2.6637,0.1857,38.5200,70,96,413000
2.8055,0.1906,38.4900,70,96,413003
2.9521,0.1955,38.5200,70,96,413007
3.1867,0.1906,38.3600,70,96,413010
3.1965,0.1857,38.4900,70,96,413014
3.0352,0.1857,38.4900,70,96,413018
2.7761,0.1955,38.4000,70,96,413021
2.3998,0.1906,38.4900,70,96,413024
2.0919,0.1857,38.3600,70,96,413027
1.8084,0.1906,38.3600,70,96,413031
1.6178,0.1955,38.5200,70,96,413034
1.5152,0.1906,38.4600,70,96,413037
1.4516,0.1906,38.5500,70,96,413041
1.4663,0.1857,38.2700,70,96,413044
1.6422,0.2053,38.4300,70,96,413049
1.6227,0.1955,38.4600,70,96,413052
1.6080,0.1857,38.5800,70,96,413056
1.5885,0.1857,38.5500,70,96,413060
1.5738,0.1857,38.5200,70,96,413063
1.6080,0.1857,38.4000,70,96,413066
1.5543,0.1906,38.4600,70,96,413070
1.5689,0.1906,37.9600,70,96,413073
1.5543,0.1906,38.5200,70,96,413076
1.5738,0.1857,38.5500,70,96,413079
1.6178,0.1955,38.3300,70,96,413083
1.5982,0.1906,38.4000,70,96,413086
1.6276,0.2004,38.4000,70,96,413089
1.6178,0.1857,38.4600,70,96,413093
1.6080,0.1906,38.5800,70,96,413096
1.6471,0.1955,38.4000,70,96,413100
1.6276,0.1906,38.4900,70,96,413104
1.6520,0.1857,38.3300,70,96,413107
1.6422,0.1906,38.3300,70,96,413110
1.6422,0.1857,38.4900,70,96,413113
1.6667,0.1906,38.4000,70,96,413117
1.6569,0.1857,38.4900,70,96,413120
1.7009,0.1906,38.2700,70,96,413123
1.6764,0.1857,38.4000,70,96,413127
1.6960,0.1711,38.5200,70,96,413130
1.7107,0.1906,38.4900,70,96,413133
1.7155,0.1906,38.4900,70,96,413137
1.7742,0.1955,38.3000,70,96,413140
1.7498,0.1955,38.4000,70,96,413144
1.7498,0.1857,38.4900,70,96,413148
1.7595,0.1955,38.4600,70,96,413151
1.7693,0.1906,38.5500,70,96,413154
1.8280,0.2053,38.2700,70,96,413157
1.7889,0.1906,38.4600,70,96,413161
1.7986,0.1857,38.4600,70,96,413164
1.8035,0.2004,38.5500,70,96,413167
1.8035,0.1857,38.5200,70,96,413171
1.8377,0.1955,38.3600,70,96,413174
1.8182,0.1906,38.4600,70,96,413177
1.8377,0.1906,38.4600,70,96,413181
1.8328,0.1906,38.4900,70,96,413185
1.8475,0.1857,38.4900,70,96,413188
1.8719,0.2053,38.4900,70,96,413192
1.8671,0.1906,38.4600,70,96,413195
1.8866,0.1955,38.4300,70,96,413198
1.8671,0.1906,38.4900,70,96,413201
1.8622,0.1857,38.5500,70,96,413205
1.8817,0.1955,38.4300,70,96,413208
1.8475,0.1906,38.4600,70,96,413211
1.8671,0.1955,38.3000,70,96,413215
1.8475,0.1955,38.4000,70,96,413218
1.8280,0.1857,38.5200,70,96,413221
1.8475,0.1955,38.4600,70,96,413225
1.8231,0.1906,38.5200,70,96,413229
1.8524,0.1955,38.2400,70,96,413232
1.8133,0.1906,38.7400,70,96,413236
1.7986,0.2151,38.4900,70,96,413239
1.8133,0.1906,38.5800,70,96,413242
1.8035,0.1857,38.4900,70,96,413245
1.8622,0.1955,38.2100,70,96,413249
1.8328,0.1906,38.4000,70,96,413252
1.8231,0.1857,38.4300,70,96,413255
1.8377,0.1906,38.4000,70,96,413259
1.8475,0.1857,38.4900,70,96,413262
1.9159,0.2004,38.3300,70,96,413265
1.8915,0.1906,38.4900,70,96,413270
1.9062,0.1808,38.4000,70,96,413273
1.8964,0.1906,38.4600,70,96,413276
1.9013,0.1808,38.4600,70,96,413279
1.9453,0.1955,38.3300,70,96,413283
1.9110,0.1906,38.4900,70,96,413286
1.9257,0.1955,38.3600,70,96,413289
1.8915,0.1857,38.4600,70,96,413293
1.8817,0.1906,38.5500,70,96,413296
1.9013,0.1906,38.4300,70,96,413299
1.8768,0.1906,38.4900,70,96,413303
1.9062,0.1906,38.3300,70,96,413306
1.8671,0.1955,38.4600,70,96,413309
1.8622,0.1857,38.6200,70,96,413314
1.8622,0.1955,38.4000,70,96,413317
1.8475,0.1906,38.5200,70,96,413320
1.8768,0.1906,38.2400,70,96,413323
1.8524,0.1808,38.4900,70,96,413327
1.8377,0.1857,38.5800,70,96,413330
1.8524,0.1955,38.4000,70,96,413333
1.8231,0.1906,38.4900,70,96,413337
1.8622,0.1955,38.2700,70,96,413340
1.8328,0.1955,38.4000,70,96,413343
1.8182,0.1857,38.5200,70,96,413347
1.8182,0.1955,38.4300,70,96,413350
1.8035,0.1857,38.4900,70,96,413353
1.8426,0.1955,38.2400,70,96,413357
1.8035,0.1955,38.4300,70,96,413361
1.7937,0.1857,38.4900,70,96,413364
1.7986,0.2053,38.5500,70,96,413367
1.7937,0.1906,38.4900,70,96,413371
1.8328,0.2053,38.3000,70,96,413374
1.7889,0.2004,38.4600,70,96,413377
1.8084,0.1808,38.4000,70,96,413381
1.7791,0.1906,38.4900,70,96,413384
1.7742,0.2004,38.4600,70,96,413387
1.8182,0.1955,38.4000,70,96,413390
1.7693,0.1906,38.4300,70,96,413394
1.7791,0.1906,38.4000,70,96,413398
1.7644,0.1906,38.4900,70,96,413401
1.7644,0.1906,38.5500,70,96,413405
1.7986,0.1955,38.3000,70,96,413408
1.7693,0.1906,38.4900,70,96,413411
1.7986,0.2004,38.4000,70,96,413415
1.7742,0.2053,38.4000,70,96,413418
1.7791,0.1808,38.4900,70,96,413421
1.8084,0.1906,38.4000,70,96,413424
1.7937,0.2151,38.4900,70,96,413428
1.8133,0.1906,38.3300,70,96,413431
1.8035,0.1906,38.4300,70,96,413434
1.7937,0.1955,38.4900,70,96,413438
1.8133,0.1906,38.3600,70,96,413442
1.7937,0.1906,38.4600,70,96,413445
1.8622,0.1955,38.2700,70,96,413449
1.8035,0.1906,38.4000,70,96,413452
1.8035,0.1808,38.4900,70,96,413455
1.8182,0.1906,38.4600,70,96,413458
1.8035,0.1906,38.5500,70,96,413462
1.8524,0.1955,38.2400,70,96,413465
1.8280,0.1906,38.4000,70,96,413468
1.8133,0.1857,38.5500,70,96,413472
1.8133,0.1955,38.4600,70,96,413475
1.8035,0.1906,38.3600,70,96,413478
1.8573,0.2297,38.3000,70,96,413483
