ecg,gsr,temp,hr,spo2,timest
1.6471,0.2590,37.1600,75,96,192928
1.6764,0.2542,37.2000,75,96,192932
1.6813,0.2493,37.1600,75,96,192935
1.7302,0.2590,36.9600,75,96,192939
1.7302,0.2493,37.1600,75,96,192943
1.7302,0.2493,37.1600,75,96,192946
1.7449,0.2297,37.1600,75,96,192949
1.7155,0.2493,37.3000,75,96,192952
1.7546,0.2542,36.9300,75,96,192956
1.7204,0.2493,37.0600,75,96,192959
1.7302,0.2493,37.2000,75,96,192962
1.7449,0.2542,37.1600,75,96,192966
1.7449,0.2444,37.2300,75,96,192969
1.7986,0.2688,36.9600,75,96,192972
1.7595,0.2542,37.1000,75,96,192976
1.7498,0.2395,37.1300,75,96,192979
1.7546,0.2542,37.2000,75,96,192983
1.7644,0.2444,37.1300,75,96,192987
1.8182,0.2590,37.0000,75,96,192990
1.7986,0.2542,37.1300,75,96,192993
1.8280,0.2542,37.1000,75,96,192997
1.8133,0.2493,37.2600,75,96,193000
1.8280,0.2590,37.1600,75,96,193003
1.8719,0.2297,37.0600,75,96,193006
1.8622,0.2493,37.1600,75,96,193010
1.9013,0.2590,37.1000,75,96,193013
1.8915,0.2493,37.2000,75,96,193016
1.8964,0.2493,37.2000,75,96,193020
1.9062,0.2542,37.2300,75,96,193024
1.8915,0.2297,37.2300,75,96,193027
1.9110,0.2493,37.0000,75,96,193031
1.8817,0.2493,37.2000,75,96,193034
1.8817,0.2493,37.2300,75,96,193037
1.9062,0.2639,37.1000,75,96,193040
1.9062,0.2493,37.2000,75,96,193044
1.9501,0.2542,36.9600,75,96,193047
1.9306,0.2590,37.0600,75,96,193050
1.9208,0.2493,37.2000,75,96,193054
1.9355,0.2542,37.1600,75,96,193057
1.9306,0.2493,37.3300,75,96,193060
1.9941,0.2688,36.9300,75,96,193064
1.9697,0.2493,37.1600,75,96,193068
1.9746,0.2737,37.2300,75,96,193071
1.9941,0.2542,37.1300,75,96,193075
1.9941,0.2590,37.1600,75,96,193078
2.0626,0.2688,36.9600,75,96,193081
2.0235,0.2590,37.4000,75,96,193084
2.0186,0.2493,37.0600,75,96,193088
2.0235,0.2542,37.1600,75,96,193091
2.0332,0.2493,37.2000,75,96,193094
2.0723,0.2639,36.9600,75,96,193098
2.0430,0.2884,37.2000,75,96,193101
2.0430,0.2493,37.0600,75,96,193104
2.0137,0.2493,37.2000,75,96,193108
1.9941,0.2493,37.1600,75,96,193112
2.0137,0.2590,37.0300,75,96,193115
1.9697,0.2542,37.2000,75,96,193118
1.9941,0.2542,37.0300,75,96,193122
1.9599,0.2884,37.2000,75,96,193125
1.9453,0.2493,37.1600,75,96,193128
1.9355,0.2688,37.0600,75,96,193132
1.8817,0.2542,37.1600,75,96,193135
1.8915,0.2493,37.0600,75,96,193138
1.8524,0.2493,37.1000,75,96,193142
1.8524,0.2493,37.1600,75,96,193145
1.8573,0.2542,37.0600,75,96,193148
1.8182,0.2542,37.2300,75,96,193153
1.8328,0.2542,36.9600,75,96,193156
1.7546,0.2444,37.2300,75,96,193159
1.7302,0.2493,37.2000,75,96,193162
1.7302,0.2590,37.2600,75,96,193166
1.7009,0.2444,37.2300,75,96,193169
1.7498,0.2590,36.9600,75,96,193172
1.7302,0.2542,37.0600,75,96,193176
1.7302,0.2444,37.1600,75,96,193179
1.7498,0.2493,37.2600,75,96,193182
1.7498,0.2590,37.2300,75,96,193186
1.7986,0.2688,37.0000,75,96,193189
1.7351,0.2542,37.1600,75,96,193192
1.7204,0.2493,37.1300,75,96,193197
1.6911,0.2493,37.1600,75,96,193200
1.6764,0.2590,37.2000,75,96,193203
1.7107,0.2590,37.0300,75,96,193206
1.6764,0.2542,36.3500,75,96,193210
1.6960,0.2542,37.1000,75,96,193213
1.6911,0.2297,37.1600,75,96,193216
1.7058,0.2542,37.2300,75,96,193220
1.7351,0.2297,37.1300,75,96,193223
1.7302,0.2493,37.1600,75,96,193226
1.7889,0.2542,37.1000,75,96,193230
1.7204,0.2493,37.2000,75,96,193233
1.7253,0.2639,37.2300,75,96,193236
1.7693,0.2590,37.0600,75,96,193241
1.7595,0.2444,37.2000,75,96,193244
1.8084,0.2542,37.0000,75,96,193247
1.7644,0.2493,37.0600,75,96,193250
1.7546,0.2493,37.2300,75,96,193254
1.7644,0.2493,37.1000,75,96,193257
1.7498,0.2493,37.1600,75,96,193260
1.8035,0.2639,37.0000,75,96,193264
1.7742,0.2493,37.1300,75,96,193267
1.7742,0.2493,37.2000,75,96,193270
1.7889,0.2542,37.1300,75,96,193274
1.7840,0.2493,37.2300,75,96,193277
1.8426,0.3177,36.8900,75,96,193281
1.8133,0.2590,36.5400,75,96,193285
1.8035,0.2444,37.2000,75,96,193288
1.7937,0.2542,37.1600,75,96,193291
1.7840,0.2493,37.1300,75,96,193294
1.8035,0.2639,37.0600,75,96,193298
1.7693,0.2542,37.1300,75,96,193301
1.7693,0.2493,37.0600,75,96,193304
1.7546,0.2493,37.1600,75,96,193308
1.7546,0.2493,37.2300,75,96,193311
1.8280,0.2590,37.0000,75,96,193314
1.7840,0.2493,37.1600,75,96,193318
1.8280,0.2590,37.1300,75,96,193321
1.8133,0.2444,37.1600,75,96,193325
1.8280,0.2493,37.2000,75,96,193329
1.8426,0.2493,37.2300,75,96,193332
1.8035,0.2493,37.1600,75,96,193335
1.8231,0.2542,36.1900,75,96,193338
1.8084,0.2493,37.1300,75,96,193342
1.8133,0.2493,37.3000,75,96,193345
1.8328,0.2542,37.1000,75,96,193348
1.7840,0.2297,37.2000,75,96,193352
1.7986,0.2590,37.0300,75,96,193355
1.7546,0.2444,37.1300,75,96,193358
1.7644,0.2493,37.2000,75,96,193362
1.7889,0.2542,37.2000,75,96,193366
1.7889,0.2493,37.2300,75,96,193370
1.7937,0.2444,37.1600,75,96,193373
1.8426,0.2590,37.0000,75,96,193376
1.8133,0.2688,37.1600,75,96,193380
1.8328,0.2542,37.1000,75,96,193383
1.8182,0.2493,37.1300,75,96,193386
1.8182,0.2542,37.2000,75,96,193390
1.8377,0.2590,37.0600,75,96,193393
1.7986,0.2493,37.4000,75,96,193396
1.7986,0.2590,37.1000,75,96,193399
1.7644,0.2493,37.2300,75,96,193403
1.7693,0.2493,37.2000,75,96,193406
1.7840,0.2444,37.1000,75,96,193410
1.8133,0.2542,37.1600,75,96,193414
1.8035,0.2493,37.0000,75,96,193417
1.7840,0.2444,37.1600,75,96,193420
1.7791,0.2542,37.1600,75,96,193424
1.8035,0.2590,37.1300,75,96,193427
1.8084,0.2542,37.1600,75,96,193430
1.8133,0.2542,37.0000,75,96,193433
1.8035,0.2590,37.1000,75,96,193437
1.7986,0.2493,37.2300,75,96,193440
1.8133,0.2542,37.0000,75,96,193443
1.8182,0.2542,37.2000,75,96,193447
1.8768,0.2590,36.9600,75,96,193451
1.8475,0.2493,37.2300,75,96,193454
1.8475,0.2590,37.2300,75,96,193458
1.8622,0.2542,37.1300,75,96,193461
1.8671,0.2493,37.2000,75,96,193464
1.9355,0.2688,37.0000,75,96,193468
1.9062,0.2835,37.1300,75,96,193471
1.9208,0.2542,37.1000,75,96,193474
1.9013,0.2493,37.1600,75,96,193477
1.8915,0.2639,37.2000,75,96,193481
1.9062,0.2590,37.0600,75,96,193484
1.8671,0.2542,37.1600,75,96,193487
1.8719,0.2542,37.0600,75,96,193491
1.8377,0.2493,37.2000,75,96,193495
1.8133,0.2493,37.1000,75,96,193498
1.8328,0.2639,37.1000,75,96,193502
1.7595,0.2493,37.0000,75,96,193505
1.7742,0.2590,37.1300,75,96,193508
1.7449,0.2444,37.1600,75,96,193512
1.7449,0.2493,37.2000,75,96,193515
1.7595,0.2542,37.1000,75,96,193518
1.7400,0.2493,37.2000,75,96,193521
1.7644,0.2542,36.3500,75,96,193525
1.7791,0.2590,37.1000,75,96,193528
1.7546,0.2493,37.2300,75,96,193531
1.7742,0.2590,37.3300,75,96,193536
1.7546,0.2444,37.1600,75,96,193539
1.7889,0.2590,36.9600,75,96,193542
1.7400,0.2493,37.0600,75,96,193546
1.7498,0.2786,37.2000,75,96,193549
1.7595,0.2542,37.1600,75,96,193552
1.7498,0.2493,37.2000,75,96,193556
1.8182,0.2639,36.8900,75,96,193559
1.8035,0.2542,37.2300,75,96,193562
1.8182,0.2444,37.1600,75,96,193565
1.8280,0.2493,37.1600,75,96,193569
1.7840,0.2493,37.2000,75,96,193572
1.7889,0.2590,37.0000,75,96,193575
1.6520,0.2542,37.2000,75,96,193580
1.6227,0.2493,37.1000,75,96,193583
1.6227,0.2493,37.2000,75,96,193586
1.6764,0.2493,37.1600,75,96,193590
1.8035,0.2590,37.0600,75,96,193593
1.9599,0.2493,37.1600,75,96,193596
2.2239,0.2542,37.1300,75,96,193600
2.4780,0.2542,37.1600,75,96,193603
2.7761,0.2493,37.1000,75,96,193606
3.0254,0.2542,37.1000,75,96,193609
3.1329,0.2542,37.1600,75,96,193613
3.1476,0.2542,37.0600,75,96,193616
2.9228,0.2590,37.1600,75,96,193619
2.6931,0.2493,37.2600,75,96,193624
2.4585,0.2542,37.0300,75,96,193627
2.1848,0.2493,37.2000,75,96,193630
2.0430,0.2542,37.0300,75,96,193634
1.8915,0.2542,37.0600,75,96,193637
1.7840,0.2493,37.1300,75,96,193640
1.7253,0.2542,37.2300,75,96,193644
1.6618,0.2590,37.2300,75,96,193647
1.6618,0.2590,36.9300,75,96,193650
1.5982,0.2688,37.1600,75,96,193653
1.5738,0.2542,37.2600,75,96,193657
1.5640,0.2542,37.1300,75,96,193660
1.5445,0.2737,37.1600,75,96,193664
1.5885,0.2688,36.9600,75,96,193668
1.5689,0.2590,37.1000,75,96,193671
1.5836,0.2395,37.1000,75,96,193674
1.5738,0.2493,37.2600,75,96,193678
1.5689,0.2542,37.2300,75,96,193681
1.6080,0.2639,37.2000,75,96,193684
1.5934,0.2542,37.2000,75,96,193688
1.6373,0.2542,37.1000,75,96,193691
1.6178,0.2493,37.1600,75,96,193694
1.6422,0.2493,37.2300,75,96,193697
1.6862,0.2590,37.1600,75,96,193701
1.6716,0.2542,37.1600,75,96,193704
1.7009,0.2590,37.1000,75,96,193708
1.6716,0.2444,37.2300,75,96,193712
1.6716,0.2590,37.2000,75,96,193715
1.6862,0.2542,37.1000,75,96,193718
1.6716,0.2493,37.1300,75,96,193722
1.7009,0.2542,37.0000,75,96,193725
1.6960,0.2493,37.1000,75,96,193728
1.7204,0.2493,37.2000,75,96,193732
1.7546,0.2639,37.1300,75,96,193735
1.7449,0.2493,37.2000,75,96,193738
1.7840,0.2590,36.9300,75,96,193741
1.7351,0.2444,37.1300,75,96,193745
1.7449,0.2493,37.1000,75,96,193748
1.7889,0.2590,37.1000,75,96,193752
1.7449,0.2493,37.1300,75,96,193756
1.7937,0.2590,36.8900,75,96,193759
1.7595,0.2542,37.1000,75,96,193762
1.7595,0.2297,37.1600,75,96,193766
1.7742,0.2542,37.1600,75,96,193769
1.7889,0.2493,37.1600,75,96,193772
1.8524,0.2590,37.0000,75,96,193776
1.8231,0.2542,37.2000,75,96,193779
1.8280,0.2493,37.1000,75,96,193782
1.8182,0.2444,37.1300,75,96,193785
1.8231,0.2493,37.2000,75,96,193789
1.8622,0.2590,37.0600,75,96,193793
1.8524,0.2542,37.1600,75,96,193796
1.8768,0.2542,37.0300,75,96,193800
1.8573,0.2444,37.1600,75,96,193803
1.8719,0.2493,37.2000,75,96,193806
1.8964,0.2493,37.0600,75,96,193810
1.8915,0.2542,37.1600,75,96,193813
1.9159,0.2493,37.0600,75,96,193816
1.8817,0.2590,37.2000,75,96,193820
1.9159,0.2395,37.2300,75,96,193823
1.9355,0.2542,37.1600,75,96,193826
1.9453,0.2493,37.1600,75,96,193829
2.0088,0.2542,36.9600,75,96,193833
1.9990,0.2884,37.1000,75,96,193837
1.9844,0.2542,37.1600,75,96,193840
1.9844,0.2542,37.1300,75,96,193844
1.9648,0.2542,37.1600,75,96,193847
2.0088,0.2590,36.8900,75,96,193850
1.9599,0.2493,37.3600,75,96,193854
1.9648,0.2542,37.2300,75,96,193857
1.9892,0.2542,37.1600,75,96,193860
2.0186,0.2493,37.2000,75,96,193864
2.1163,0.2688,36.9600,75,96,193867
2.0919,0.2590,37.2600,75,96,193870
2.0772,0.2493,37.2300,75,96,193873
2.0430,0.2542,37.2000,75,96,193878
2.0088,0.2493,37.2000,75,96,193881
2.0186,0.2639,37.1300,75,96,193884
1.9599,0.2542,37.1600,75,96,193888
1.9599,0.2542,37.0600,75,96,193891
1.9013,0.2493,37.1000,75,96,193894
1.8915,0.2542,37.2300,75,96,193898
1.9013,0.2590,37.0000,75,96,193901
1.8573,0.2444,37.1600,75,96,193904
1.8768,0.2493,37.1000,75,96,193908
1.8280,0.2444,37.2600,75,96,193911
1.8133,0.2493,37.2000,75,96,193914
1.8084,0.2542,37.1300,75,96,193917
1.7693,0.2493,37.1300,75,96,193922
1.7937,0.2542,37.0600,75,96,193925
1.7302,0.2493,37.1600,75,96,193928
1.7204,0.2542,37.2000,75,96,193932
1.7058,0.2590,37.1000,75,96,193935
1.6618,0.2493,37.2000,75,96,193938
1.6764,0.2542,36.9300,75,96,193942
1.6276,0.2444,37.1300,75,96,193945
1.6276,0.2542,37.1600,75,96,193948
1.6422,0.2542,37.1600,75,96,193952
1.6422,0.2493,37.1600,75,96,193955
1.7058,0.2639,37.0300,75,96,193958
1.6911,0.2590,37.0600,75,96,193961
1.6911,0.2542,37.1600,75,96,193966
1.6960,0.2493,37.3300,75,96,193969
1.6911,0.2493,37.2000,75,96,193972
1.7302,0.2590,37.0000,75,96,193976
1.7107,0.2590,37.1300,75,96,193979
1.6764,0.2493,37.2600,75,96,193983
1.6960,0.2639,37.0600,75,96,193986
1.6667,0.2493,37.1600,75,96,193989
1.6862,0.2493,37.1600,75,96,193993
1.7302,0.2493,37.1000,75,96,193996
1.7546,0.2493,37.2600,75,96,193999
1.7986,0.2639,36.9600,75,96,194003
1.7644,0.2493,37.3300,75,96,194007
1.7400,0.2786,37.1600,75,96,194010
1.7253,0.2590,37.1000,75,96,194014
1.6911,0.2493,37.2600,75,96,194017
1.7253,0.2688,36.8900,75,96,194020
1.6960,0.2542,37.1000,75,96,194023
1.7009,0.2493,37.1300,75,96,194027
1.7204,0.2493,37.1600,75,96,194030
1.7302,0.2493,37.3000,75,96,194033
1.7937,0.2981,36.9300,75,96,194037
1.7595,0.2542,37.1300,75,96,194040
1.7546,0.2444,37.2300,75,96,194043
1.7644,0.2542,37.1600,75,96,194048
1.7644,0.2493,37.0600,75,96,194051
1.8084,0.2590,37.0300,75,96,194054
1.7693,0.2493,37.1300,75,96,194058
1.7693,0.2493,37.1000,75,96,194061
1.7498,0.2542,37.1600,75,96,194064
1.7498,0.2493,37.1600,75,96,194067
1.7791,0.2590,37.1000,75,96,194071
1.7742,0.2542,37.1600,75,96,194074
1.8035,0.2542,37.0600,75,96,194077
1.7986,0.2493,37.1600,75,96,194081
1.8182,0.2297,37.2000,75,96,194084
1.8573,0.2590,37.4000,75,96,194087
1.8426,0.2542,37.2000,75,96,194092
1.8719,0.2542,37.0300,75,96,194095
1.8475,0.2493,37.1300,75,96,194098
1.8377,0.2444,37.1600,75,96,194102
1.8231,0.2542,37.1300,75,96,194105
1.7742,0.2542,37.2300,75,96,194108
1.7742,0.2297,36.9300,75,96,194111
1.7351,0.2884,37.1000,75,96,194115
1.7400,0.2493,37.2000,75,96,194118
1.7595,0.2590,37.1300,75,96,194121
1.7644,0.2493,37.1600,75,96,194125
1.8377,0.2835,36.9300,75,96,194128
1.8133,0.2493,37.0300,75,96,194131
1.8182,0.2444,37.2300,75,96,194136
1.8231,0.2542,37.1600,75,96,194139
1.8084,0.2395,37.2000,75,96,194142
1.8573,0.2688,37.0000,75,96,194146
1.8084,0.2542,37.2600,75,96,194149
1.7986,0.2542,37.1600,75,96,194152
1.7986,0.2493,37.2600,75,96,194155
1.8035,0.2493,37.2000,75,96,194159
1.8719,0.2639,37.0000,75,96,194162
1.8035,0.2493,37.2000,75,96,194165
1.8182,0.2542,37.0300,75,96,194169
1.7986,0.2493,37.2000,75,96,194172
1.8035,0.2493,37.1600,75,96,194176
1.8377,0.2590,37.0600,75,96,194180
1.8231,0.2493,37.1600,75,96,194183
1.8328,0.2590,37.0600,75,96,194186
1.7889,0.2542,37.1600,75,96,194190
1.7742,0.2493,37.2000,75,96,194193
1.7840,0.2542,37.0300,75,96,194196
1.7595,0.2590,37.1600,75,96,194199
1.7840,0.2493,37.0000,75,96,194203
1.7449,0.2737,37.2300,75,96,194206
1.7498,0.2444,37.2000,75,96,194209
1.7791,0.2590,37.1000,75,96,194213
1.7693,0.2493,37.1600,75,96,194216
1.8280,0.2590,36.9300,75,96,194220
1.8231,0.2542,36.3800,75,96,194224
1.8231,0.2395,37.1600,75,96,194227
1.8426,0.2542,37.1000,75,96,194230
1.8426,0.2542,37.2000,75,96,194234
1.9062,0.2639,36.8900,75,96,194237
1.8524,0.2542,37.1300,75,96,194240
1.8377,0.2395,37.1300,75,96,194243
1.8328,0.2493,37.2000,75,96,194247
1.8231,0.2737,37.2000,75,96,194250
1.8866,0.2688,37.0600,75,96,194253
1.8964,0.2542,37.1300,75,96,194257
1.9306,0.2639,37.0600,75,96,194260
1.9355,0.2493,37.1600,75,96,194264
1.9453,0.2493,37.1600,75,96,194268
1.9746,0.2493,37.1000,75,96,194271
1.9013,0.2493,37.1600,75,96,194274
1.8817,0.2542,37.1000,75,96,194278
1.8133,0.2493,37.2000,75,96,194281
1.7840,0.2493,37.1600,75,96,194284
1.8084,0.2493,37.0300,75,96,194287
1.7840,0.2493,37.2000,75,96,194291
1.8328,0.2542,37.0300,75,96,194294
1.8377,0.2493,37.1000,75,96,194297
1.8377,0.2493,37.2000,75,96,194301
1.8377,0.2542,37.0600,75,96,194305
1.7986,0.2542,37.1600,75,96,194308
1.8084,0.2542,37.0000,75,96,194312
1.7644,0.2542,37.2300,75,96,194315
1.7546,0.2493,37.2000,75,96,194318
1.7595,0.2590,37.1000,75,96,194322
1.7351,0.2835,37.1600,75,96,194325
1.7791,0.2590,36.9600,75,96,194328
1.7400,0.2542,37.1000,75,96,194331
1.7791,0.2395,37.2000,75,96,194335
1.7595,0.2542,37.1600,75,96,194338
1.7595,0.2493,37.1600,75,96,194341
1.8280,0.2688,36.9600,75,96,194345
1.7937,0.2590,37.0600,75,96,194349
1.7889,0.2444,37.1300,75,96,194352
1.7840,0.2493,37.1600,75,96,194356
1.7791,0.2493,37.1600,75,96,194359
1.8182,0.2493,37.0300,75,96,194362
1.7791,0.2493,37.1300,75,96,194366
1.7889,0.2542,37.1000,75,96,194369
1.7302,0.2493,37.2000,75,96,194372
1.7107,0.2493,37.1600,75,96,194375
1.7302,0.2590,37.0300,75,96,194379
1.7253,0.2493,37.1600,75,96,194382
1.7840,0.2590,37.0600,75,96,194385
1.8719,0.2493,37.2000,75,96,194390
2.0821,0.2542,37.2000,75,96,194393
2.3558,0.2493,37.1000,75,96,194396
2.6344,0.2493,37.1600,75,96,194400
2.9423,0.2493,37.0300,75,96,194403
3.0792,0.2493,37.0300,75,96,194406
3.1183,0.2444,37.1600,75,96,194409
3.0352,0.2542,37.1000,75,96,194413
2.7810,0.2493,37.2600,75,96,194416
2.5562,0.2884,37.0000,75,96,194419
2.2581,0.2590,37.1000,75,96,194423
2.0283,0.2444,37.2000,75,96,194426
1.8817,0.2590,37.1600,75,96,194429
1.7693,0.2493,37.1600,75,96,194434
1.7400,0.2590,37.1300,75,96,194437
1.6813,0.2493,37.1300,75,96,194440
1.6080,0.2444,37.1600,75,96,194443
1.5885,0.2493,37.1300,75,96,194447
1.5689,0.2493,37.1600,75,96,194450
1.6276,0.2688,37.4000,75,96,194453
1.6227,0.2590,37.1300,75,96,194457
1.6227,0.2493,37.1000,75,96,194460
1.6276,0.2542,37.1300,75,96,194463
1.6325,0.2493,37.2300,75,96,194467
1.6520,0.2542,37.1000,75,96,194470
1.6080,0.2493,37.1600,75,96,194473
1.6031,0.2542,37.0600,75,96,194478
1.5738,0.2542,37.2000,75,96,194481
1.5640,0.2493,37.2000,75,96,194484
1.5982,0.2590,37.0300,75,96,194488
1.5982,0.2493,37.2300,75,96,194491
1.6373,0.2542,37.0600,75,96,194494
1.6276,0.2444,37.1600,75,96,194497
1.6569,0.2493,37.2000,75,96,194501
1.6716,0.2542,37.1000,75,96,194504
1.6618,0.2493,37.1600,75,96,194507
1.6911,0.2542,37.0300,75,96,194511
1.6764,0.2542,37.1000,75,96,194514
1.6813,0.2493,37.2000,75,96,194518
1.7058,0.2590,37.1600,75,96,194522
1.7009,0.2493,37.2300,75,96,194525
1.7546,0.2590,36.9300,75,96,194528
1.7253,0.2493,37.1300,75,96,194532
1.7449,0.2493,37.2000,75,96,194535
1.7546,0.2493,37.1600,75,96,194538
1.7546,0.2493,37.2000,75,96,194541
1.8084,0.2688,36.9600,75,96,194545
1.7693,0.2493,37.2300,75,96,194548
1.7644,0.2737,37.1300,75,96,194551
1.7742,0.2493,37.2600,75,96,194555
1.7791,0.2444,37.2000,75,96,194558
1.8328,0.2590,37.0000,75,96,194562
1.7986,0.2493,37.0000,75,96,194566
1.8182,0.2590,37.0600,75,96,194569
1.8133,0.2493,37.2000,75,96,194572
1.8280,0.2493,37.1600,75,96,194576
1.8573,0.2737,37.0600,75,96,194579
1.8377,0.2493,37.1600,75,96,194582
1.8573,0.2542,37.1000,75,96,194585
1.8182,0.2444,37.1300,75,96,194589
1.8475,0.2493,37.2300,75,96,194593
1.8622,0.2493,37.2300,75,96,194597
1.8915,0.2590,37.1300,75,96,194600
1.8915,0.2493,37.2000,75,96,194604
1.9550,0.2590,37.0000,75,96,194608
1.9306,0.2590,37.1600,75,96,194611
1.9501,0.2444,37.2000,75,96,194614
1.9501,0.2542,37.2000,75,96,194618
1.9648,0.2493,37.2300,75,96,194621
2.0430,0.2688,36.9600,75,96,194624
2.0088,0.2835,37.1600,75,96,194628
2.0137,0.2444,37.1600,75,96,194631
2.0186,0.2493,37.1600,75,96,194634
2.0186,0.2493,37.4000,75,96,194637
2.0821,0.2639,37.0300,75,96,194641
2.0626,0.2542,37.1300,75,96,194644
2.0577,0.2493,37.1000,75,96,194648
2.0283,0.2493,37.2000,75,96,194652
2.0039,0.2493,37.2000,75,96,194655
2.0186,0.2590,37.1000,75,96,194658
1.9844,0.2493,37.1600,75,96,194662
1.9892,0.2493,37.0300,75,96,194665
1.9501,0.2493,37.1600,75,96,194668
1.9306,0.2493,37.1600,75,96,194671
1.9404,0.2542,37.1000,75,96,194675
1.8915,0.2493,37.1600,75,96,194678
1.9159,0.2493,37.0600,75,96,194681
1.9013,0.2493,37.1300,75,96,194685
1.8622,0.2444,37.1600,75,96,194689
1.8671,0.2542,37.1000,75,96,194692
1.8280,0.2493,37.1600,75,96,194696
1.8280,0.2542,37.1000,75,96,194699
1.7791,0.2493,37.1300,75,96,194702
1.7351,0.2493,37.3000,75,96,194706
1.7400,0.2542,37.1000,75,96,194709
1.6862,0.2297,37.1600,75,96,194712
1.7155,0.2590,36.8900,75,96,194715
1.6813,0.2444,37.1000,75,96,194719
1.6911,0.2493,37.2000,75,96,194722
1.6911,0.2542,37.1600,75,96,194725
1.6764,0.2493,37.2000,75,96,194729
1.7155,0.2688,36.9600,75,96,194733
1.6813,0.2493,37.1300,75,96,194736
1.6667,0.2444,37.1600,75,96,194740
1.6667,0.2542,37.2300,75,96,194743
1.6520,0.2493,37.1600,75,96,194746
1.6813,0.2835,37.0000,75,96,194750
1.6569,0.2493,37.1300,75,96,194753
1.6764,0.2542,37.0300,75,96,194756
1.6667,0.2542,37.2000,75,96,194760
1.6764,0.2493,37.2000,75,96,194763
1.6960,0.2542,37.0600,75,96,194766
1.6862,0.2542,37.1600,75,96,194769
1.6862,0.2542,37.2000,75,96,194774
1.6618,0.2493,37.2000,75,96,194777
1.6716,0.2493,37.1600,75,96,194780
1.6960,0.2493,37.0600,75,96,194784
1.7204,0.2542,37.2300,75,96,194787
1.7498,0.2493,37.0300,75,96,194790
1.7302,0.2493,37.2000,75,96,194794
1.7400,0.2444,37.2300,75,96,194797
1.7644,0.2590,37.0600,75,96,194800
1.7498,0.2786,37.2000,75,96,194803
1.8280,0.2542,36.9300,75,96,194807
1.7742,0.2493,37.0600,75,96,194810
1.7644,0.2493,37.1600,75,96,194813
1.7937,0.2542,37.1600,75,96,194818
1.8084,0.2444,37.1600,75,96,194821
1.9306,0.2639,36.8600,75,96,194824
1.9062,0.2493,36.3200,75,96,194828
1.9404,0.2493,37.1600,75,96,194831
1.9892,0.2493,37.1600,75,96,194834
2.0283,0.2493,37.3600,75,96,194838
2.1408,0.2639,37.0000,75,96,194841
2.1652,0.2493,37.1300,75,96,194844
2.2434,0.2444,37.0300,75,96,194847
2.3265,0.2542,37.1600,75,96,194851
2.4291,0.2493,37.2000,75,96,194854
2.5806,0.2590,37.0300,75,96,194857
2.6686,0.2444,37.1600,75,96,194862
2.8006,0.2493,37.0300,75,96,194865
2.8592,0.2493,37.1300,75,96,194868
2.9277,0.2542,37.2300,75,96,194872
3.0450,0.2590,37.1300,75,96,194875
3.0645,0.2542,37.2000,75,96,194878
3.2160,0.2590,37.1000,75,96,194882
3.3089,0.2444,37.1600,75,96,194885
3.4653,0.2493,37.2000,75,96,194888
3.6315,0.2688,37.0600,75,96,194891
3.7146,0.2493,37.1600,75,96,194895
3.8416,0.2493,37.1000,75,96,194898
3.7830,0.2493,37.1000,75,96,194902
3.6461,0.2444,37.2000,75,96,194906
3.4213,0.2590,37.1000,75,96,194909
3.0156,0.2493,37.3000,75,96,194912
2.6735,0.2835,36.9300,75,96,194915
2.2336,0.2444,37.1600,75,96,194919
1.8719,0.2493,37.1600,75,96,194922
1.5640,0.2542,37.1600,75,96,194925
1.3001,0.2493,37.1600,75,96,194929
1.1388,0.2542,36.8900,75,96,194932
0.9775,0.2542,37.1000,75,96,194935
0.8798,0.2444,36.8000,75,96,194939
0.8211,0.2542,37.2000,75,96,194942
0.7918,0.2493,37.2000,75,96,194946
0.7967,0.2688,37.0000,75,96,194950
0.7967,0.2639,37.1600,75,96,194953
0.8162,0.2542,37.1000,75,96,194956
0.8407,0.2493,37.2300,75,96,194959
0.8602,0.2444,37.2000,75,96,194963
0.8944,0.2590,37.1000,75,96,194966
0.8944,0.2493,37.0600,75,96,194969
0.9140,0.2786,37.1000,75,96,194973
0.9286,0.2493,37.2000,75,96,194976
0.9580,0.2444,37.0600,75,96,194979
1.0068,0.2542,37.1300,75,96,194982
1.0215,0.2542,37.2000,75,96,194987
1.0606,0.2493,37.0300,75,96,194990
1.0508,0.2493,37.2000,75,96,194993
1.0753,0.2493,37.3600,75,96,194997
1.1193,0.3030,37.0300,75,96,195000
1.1339,0.2493,37.2000,75,96,195003
1.1681,0.2493,37.0300,75,96,195007
1.1975,0.2395,37.1300,75,96,195010
1.1730,0.2297,37.2300,75,96,195013
1.1926,0.2786,37.1600,75,96,195017
1.2121,0.2297,37.1600,75,96,195020
1.2512,0.2542,37.0000,75,96,195023
1.2708,0.2493,37.1300,75,96,195026
1.2805,0.2444,37.2000,75,96,195031
1.3196,0.2542,37.1300,75,96,195034
1.3196,0.2542,37.2000,75,96,195037
1.3881,0.2590,36.9300,75,96,195041
1.3685,0.2444,37.1300,75,96,195044
1.3978,0.2493,37.2000,75,96,195047
1.4272,0.2493,37.1600,75,96,195051
1.4565,0.2395,37.2000,75,96,195054
1.4858,0.2688,36.9600,75,96,195057
1.4614,0.2542,37.1300,75,96,195060
1.4565,0.2688,37.1000,75,96,195064
1.4467,0.2493,37.3600,75,96,195067
1.4223,0.2444,37.1600,75,96,195070
1.4223,0.2590,37.0300,75,96,195075
1.3832,0.2542,37.1600,75,96,195078
1.3930,0.2493,37.0600,75,96,195081
1.3783,0.2493,36.4100,75,96,195085
1.3734,0.2395,37.1600,75,96,195088
1.3734,0.2542,36.8300,75,96,195091
1.3245,0.2493,37.1600,75,96,195095
1.3148,0.2542,37.1000,75,96,195098
1.2708,0.2444,37.1600,75,96,195101
1.2659,0.2444,37.2000,75,96,195105
1.2708,0.2493,37.2000,75,96,195108
1.2659,0.2542,37.1600,75,96,195111
1.2903,0.2493,37.0000,75,96,195115
1.2805,0.2542,37.0300,75,96,195119
1.3001,0.2542,37.1600,75,96,195122
1.3294,0.2590,37.1000,75,96,195125
1.3245,0.2395,37.1600,75,96,195129
1.3734,0.2542,36.9600,75,96,195132
1.3734,0.2493,37.1300,75,96,195135
1.4027,0.2395,37.1600,75,96,195139
1.4370,0.2493,37.2000,75,96,195142
1.4565,0.2444,37.2000,75,96,195145
1.5249,0.2639,36.9300,75,96,195149
1.5005,0.2395,37.1600,75,96,195152
1.5152,0.2493,37.1600,75,96,195155
1.5494,0.2493,37.1600,75,96,195159
1.5787,0.2884,37.1600,75,96,195163
1.6569,0.2639,37.0300,75,96,195166
1.6569,0.2493,37.2300,75,96,195169
1.6911,0.2542,37.1000,75,96,195173
1.7107,0.2493,37.2000,75,96,195176
1.7595,0.2444,37.2300,75,96,195179
1.8231,0.2590,37.2300,75,96,195183
1.8377,0.2493,37.1300,75,96,195186
1.8964,0.2493,37.0600,75,96,195189
1.8866,0.2884,37.1600,75,96,195193
1.9453,0.2444,37.2000,75,96,195196
1.9746,0.2542,36.4100,75,96,195200
2.0283,0.2493,37.2000,75,96,195205
2.0283,0.2884,37.2000,75,96,195208
2.0821,0.2542,36.9300,75,96,195212
2.0430,0.2493,37.0300,75,96,195215
2.0332,0.2444,37.2300,75,96,195218
2.0479,0.2542,37.1600,75,96,195221
2.0332,0.2297,37.2000,75,96,195225
2.0870,0.2639,36.9600,75,96,195228
2.0332,0.2884,37.0600,75,96,195231
2.0088,0.2444,37.1300,75,96,195235
1.9941,0.2493,37.2000,75,96,195238
1.9648,0.2444,37.1600,75,96,195241
2.0186,0.2493,37.0300,75,96,195246
1.9550,0.2493,37.1300,75,96,195249
1.9550,0.2444,37.1000,75,96,195252
1.9697,0.2542,37.2300,75,96,195255
1.9453,0.2444,37.2000,75,96,195259
1.9795,0.2542,36.9600,75,96,195262
1.9404,0.2542,37.1600,75,96,195265
1.9453,0.2493,37.1000,75,96,195269
1.9110,0.2590,37.1600,75,96,195272
1.9208,0.2444,37.1600,75,96,195275
1.9501,0.2542,37.5000,75,96,195279
1.9404,0.2444,37.1600,75,96,195282
1.9697,0.2493,37.1000,75,96,195286
1.9306,0.2297,37.1600,75,96,195289
1.9208,0.2444,37.1600,75,96,195293
1.9208,0.2444,37.1000,75,96,195296
1.8817,0.2444,37.1600,75,96,195299
1.9013,0.2493,37.1000,75,96,195303
1.8573,0.2493,37.2000,75,96,195306
1.8573,0.2444,37.1600,75,96,195309
1.8768,0.2590,37.2300,75,96,195313
1.8719,0.2444,37.2000,75,96,195316
1.9257,0.2590,37.1300,75,96,195319
1.8964,0.2493,37.1000,75,96,195323
1.8817,0.2297,37.2000,75,96,195326
1.8719,0.2590,37.2000,75,96,195330
1.8622,0.2444,37.1600,75,96,195333
1.9159,0.2297,36.9300,75,96,195337
1.8671,0.2590,37.1000,75,96,195340
1.8768,0.2395,37.1000,75,96,195343
1.8719,0.2493,37.2300,75,96,195347
1.8671,0.2444,37.2000,75,96,195350
1.9013,0.2590,37.0600,75,96,195353
1.8671,0.2493,37.2000,75,96,195357
1.8671,0.2395,37.0600,75,96,195360
1.8524,0.2493,37.1600,75,96,195363
1.8573,0.2444,37.1600,75,96,195367
1.8768,0.2542,37.1000,75,96,195371
1.8475,0.2493,37.3300,75,96,195374
1.8573,0.2590,37.0300,75,96,195377
1.8231,0.2444,37.2000,75,96,195381
1.8231,0.2444,37.2000,75,96,195384
1.8573,0.2542,37.0600,75,96,195387
1.8328,0.2444,37.3000,75,96,195391
1.8573,0.2444,37.0300,75,96,195394
1.8377,0.2542,37.1000,75,96,195397
1.8426,0.2444,37.1600,75,96,195401
1.8671,0.2639,37.1000,75,96,195404
1.8573,0.2395,37.1600,75,96,195407
1.8768,0.2493,37.0300,75,96,195411
1.8280,0.2542,37.1300,75,96,195415
1.8084,0.2444,37.2000,75,96,195418
1.8133,0.2493,37.1300,75,96,195421
1.7937,0.2688,37.1600,75,96,195425
1.8524,0.2542,36.9300,75,96,195428
1.8280,0.2493,37.1000,75,96,195431
1.8377,0.2444,37.1600,75,96,195435
1.8475,0.2493,37.1300,75,96,195438
1.8328,0.2444,37.2000,75,96,195441
1.8866,0.2639,37.0000,75,96,195445
1.8426,0.2590,37.1300,75,96,195448
1.8377,0.2444,37.1300,75,96,195451
1.8231,0.2493,37.1600,75,96,195456
1.7986,0.2395,37.2000,75,96,195459
1.8133,0.2542,37.0600,75,96,195462
1.7791,0.2493,37.1600,75,96,195465
1.7937,0.2493,37.1300,75,96,195469
1.7840,0.2395,37.2000,75,96,195472
1.7986,0.2444,37.2000,75,96,195475
1.8280,0.2542,37.0600,75,96,195479
1.8328,0.2542,37.1600,75,96,195482
1.8573,0.2493,37.0300,75,96,195485
1.8377,0.2444,37.1300,75,96,195489
1.8524,0.2444,37.2000,75,96,195492
1.8573,0.2493,37.0600,75,96,195495
1.8231,0.2444,37.2000,75,96,195500
1.8328,0.2493,37.0000,75,96,195503
1.7937,0.2493,37.2000,75,96,195506
1.7986,0.2444,37.2000,75,96,195509
1.8182,0.2542,37.1300,75,96,195513
1.8133,0.2395,37.1600,75,96,195516
1.8622,0.2542,36.9300,75,96,195519
1.8377,0.2884,37.2300,75,96,195523
1.8280,0.2444,37.2000,75,96,195526
1.8426,0.2639,37.1600,75,96,195529
1.8377,0.2444,37.1600,75,96,195533
1.8622,0.2688,37.3600,75,96,195536
1.8280,0.2493,37.2300,75,96,195539
1.7742,0.2444,37.1300,75,96,195544
1.7742,0.2737,37.2000,75,96,195547
1.7693,0.2444,37.2000,75,96,195550
1.8133,0.2590,37.0300,75,96,195554
1.7889,0.2493,37.1300,75,96,195557
1.8035,0.2444,37.0600,75,96,195560
1.7986,0.2444,37.1600,75,96,195563
1.8182,0.2444,37.1600,75,96,195567
1.8622,0.2542,37.1300,75,96,195570
1.8524,0.2444,37.1300,75,96,195573
1.8915,0.2542,37.0600,75,96,195577
1.8328,0.2444,37.0600,75,96,195580
1.8231,0.2493,37.2000,75,96,195584
1.8377,0.2297,37.1000,75,96,195588
1.7986,0.2688,37.2000,75,96,195591
1.8182,0.2542,37.0000,75,96,195594
1.7937,0.2444,37.1600,75,96,195598
1.8035,0.2444,37.2300,75,96,195601
1.8280,0.2493,37.1300,75,96,195604
1.8231,0.2444,37.1600,75,96,195607
1.8768,0.2493,36.9300,75,96,195611
1.8524,0.2444,37.1300,75,96,195614
1.8524,0.2395,37.2000,75,96,195617
1.8475,0.2493,37.1300,75,96,195621
1.8084,0.2444,37.1300,75,96,195624
1.8377,0.2542,36.8900,75,96,195628
1.7742,0.2444,37.1000,75,96,195632
1.7644,0.2444,37.1300,75,96,195635
1.7644,0.2444,37.2000,75,96,195638
1.7742,0.2542,37.2000,75,96,195642
1.8524,0.2590,37.0000,75,96,195645
1.8377,0.2493,37.1300,75,96,195648
1.8671,0.2444,37.0600,75,96,195651
1.8671,0.2444,37.2300,75,96,195655
1.8671,0.2444,37.1600,75,96,195658
1.8866,0.2542,37.0300,75,96,195661
1.8524,0.2444,37.1300,75,96,195665
1.8573,0.2542,37.0300,75,96,195668
1.8182,0.2444,37.2000,75,96,195672
1.7986,0.2444,37.1600,75,96,195676
1.8035,0.2542,37.1600,75,96,195679
1.7742,0.2444,37.1600,75,96,195682
1.7986,0.2444,37.0600,75,96,195686
1.7791,0.2444,37.1600,75,96,195689
1.7889,0.2395,37.2000,75,96,195692
1.8035,0.2297,37.0300,75,96,195696
1.7937,0.2444,37.2000,75,96,195699
1.8377,0.2493,37.1300,75,96,195702
1.8231,0.2297,37.2000,75,96,195705
1.8475,0.2444,37.1600,75,96,195709
1.8719,0.2444,37.1300,75,96,195713
1.8524,0.2444,37.2000,75,96,195716
1.8719,0.2542,36.8900,75,96,195720
1.8182,0.2444,37.1600,75,96,195723
1.7986,0.2444,37.2000,75,96,195726
1.8133,0.2444,37.1600,75,96,195730
1.8133,0.2444,37.1600,75,96,195733
1.8719,0.2639,37.1000,75,96,195736
1.8524,0.2493,37.1300,75,96,195740
1.8719,0.2542,37.1300,75,96,195743
1.8915,0.2444,37.2000,75,96,195746
1.8866,0.2444,37.2000,75,96,195749
1.9013,0.2493,37.0600,75,96,195753
1.8524,0.2493,37.1300,75,96,195757
1.8426,0.2444,37.1300,75,96,195760
1.8084,0.2493,37.1600,75,96,195764
1.8084,0.2444,37.4000,75,96,195767
1.8377,0.2444,37.1300,75,96,195770
1.8231,0.2444,37.2000,75,96,195774
1.8622,0.2493,37.0300,75,96,195777
1.8280,0.2444,37.2300,75,96,195780
1.8280,0.2444,37.2000,75,96,195784
1.8573,0.2493,37.2600,75,96,195787
1.8475,0.2444,37.1600,75,96,195790
1.8768,0.2444,36.9300,75,96,195793
1.8573,0.2395,37.0600,75,96,195798
1.8426,0.2444,37.2000,75,96,195801
1.8475,0.2542,37.1600,75,96,195804
1.8328,0.2297,37.1600,75,96,195808
1.8817,0.2542,36.9300,75,96,195811
1.8866,0.2542,37.1000,75,96,195816
1.8475,0.2297,37.1300,75,96,195819
1.8377,0.2444,37.1300,75,96,195822
1.8524,0.2444,37.2300,75,96,195826
1.8719,0.2444,37.4700,75,96,195829
1.9355,0.2493,37.1000,75,96,195832
1.9306,0.2444,37.1600,75,96,195836
1.9550,0.2639,37.0000,75,96,195840
1.9110,0.2444,37.2000,75,96,195843
1.8964,0.2444,37.1300,75,96,195847
1.9110,0.2542,37.1300,75,96,195850
1.8817,0.2444,37.3300,75,96,195853
1.9355,0.2444,37.0300,75,96,195857
1.8915,0.2297,37.1600,75,96,195860
1.8866,0.2444,37.2600,75,96,195863
1.8964,0.2493,37.1000,75,96,195866
1.8622,0.2444,37.1600,75,96,195870
1.8915,0.2493,36.9300,75,96,195873
1.8622,0.2444,37.1300,75,96,195876
1.8475,0.2444,37.4000,75,96,195880
1.8573,0.2590,37.1600,75,96,195884
1.8182,0.2395,37.2000,75,96,195887
1.8622,0.2542,37.0000,75,96,195891
1.8182,0.2395,37.1000,75,96,195894
1.8377,0.2444,37.2000,75,96,195897
1.8475,0.2444,37.1600,75,96,195900
1.8426,0.2444,37.2300,75,96,195904
1.8768,0.2639,36.8900,75,96,195907
1.8084,0.2542,37.1300,75,96,195910
1.7889,0.2395,37.1300,75,96,195914
1.7742,0.2786,37.1600,75,96,195917
1.7742,0.2395,37.1600,75,96,195920
1.8133,0.2542,37.0300,75,96,195924
1.7889,0.2395,37.1600,75,96,195928
1.8035,0.2444,37.0600,75,96,195931
1.7889,0.2444,37.1000,75,96,195935
1.7840,0.2835,37.1600,75,96,195938
1.7986,0.2493,37.1000,75,96,195941
1.7449,0.2444,37.1600,75,96,195944
1.7204,0.2493,37.0600,75,96,195948
1.6716,0.2444,37.2000,75,96,195951
1.6862,0.2395,37.1300,75,96,195954
1.7449,0.2493,37.1300,75,96,195958
1.8035,0.2297,37.1600,75,96,195961
1.9550,0.2444,37.0300,75,96,195964
2.1212,0.2395,37.1600,75,96,195969
2.3656,0.2395,37.2600,75,96,195972
2.6686,0.2542,37.1000,75,96,195975
2.9081,0.2444,37.2000,75,96,195979
3.1623,0.2493,37.0300,75,96,195982
3.1916,0.2493,37.1000,75,96,195985
3.0841,0.2395,37.2000,75,96,195988
2.9081,0.2444,37.2000,75,96,195992
2.6588,0.2444,37.2000,75,96,195995
2.4633,0.2493,36.9300,75,96,195998
2.1701,0.2444,37.1300,75,96,196002
1.9795,0.2444,37.1600,75,96,196005
1.8524,0.2444,37.2300,75,96,196008
1.7546,0.2444,37.2300,75,96,196013
1.7351,0.2590,37.0300,75,96,196016
1.6716,0.2493,37.1000,75,96,196019
1.6667,0.2395,37.1300,75,96,196023
1.6373,0.2444,37.2300,75,96,196026
1.6422,0.2444,37.2000,75,96,196029
1.6471,0.2493,37.1000,75,96,196032
1.6080,0.2444,37.1300,75,96,196036
1.5982,0.2493,37.1000,75,96,196039
1.5591,0.2444,37.2000,75,96,196042
1.5445,0.2395,37.2000,75,96,196046
1.5885,0.2493,37.0600,75,96,196049
1.5640,0.2444,36.3800,75,96,196052
1.6178,0.2542,37.2300,75,96,196057
1.6178,0.2297,37.1300,75,96,196060
1.6373,0.2395,37.1600,75,96,196063
1.6569,0.2493,37.1000,75,96,196067
1.6422,0.2395,37.1600,75,96,196070
1.6667,0.2542,37.0000,75,96,196073
1.6569,0.2444,37.1000,75,96,196076
1.6667,0.2639,37.2300,75,96,196080
1.7058,0.2493,37.1000,75,96,196083
1.6960,0.2395,37.2000,75,96,196086
1.7498,0.2590,36.9300,75,96,196090
1.7204,0.2395,37.2000,75,96,196093
1.7204,0.2395,37.1300,75,96,196097
1.7351,0.2493,37.1600,75,96,196101
1.7204,0.2395,37.3000,75,96,196104
1.7644,0.2590,36.9600,75,96,196107
1.7204,0.2493,37.1300,75,96,196111
1.7155,0.2346,37.1300,75,96,196114
1.7351,0.2444,37.2000,75,96,196117
1.7742,0.2395,37.2600,75,96,196121
1.8524,0.2542,37.0000,75,96,196124
1.8573,0.2444,37.0000,75,96,196127
1.8768,0.2444,37.0600,75,96,196130
1.8573,0.2395,37.1600,75,96,196134
1.8328,0.2395,37.0600,75,96,196137
1.8475,0.2493,37.0600,75,96,196141
1.8231,0.2297,37.1600,75,96,196145
1.8426,0.2493,37.0300,75,96,196148
1.8280,0.2444,37.1600,75,96,196151
1.8133,0.2395,37.1300,75,96,196155
1.8133,0.2444,37.0600,75,96,196158
1.8035,0.2395,37.1600,75,96,196161
1.8377,0.2444,37.0600,75,96,196165
1.8231,0.2297,37.1600,75,96,196168
1.8475,0.2395,37.2600,75,96,196171
1.8915,0.2395,37.1000,75,96,196174
1.8964,0.2395,37.2000,75,96,196178
1.9550,0.2493,36.9300,75,96,196182
1.9648,0.2444,37.1000,75,96,196185
1.9257,0.2297,37.2000,75,96,196189
1.9404,0.2493,37.0600,75,96,196192
1.9453,0.2395,37.1600,75,96,196195
2.0137,0.2493,36.8600,75,96,196199
1.9746,0.2444,37.1300,75,96,196202
1.9697,0.2346,37.2000,75,96,196205
1.9892,0.2542,37.1600,75,96,196209
1.9941,0.2297,37.2000,75,96,196212
2.0577,0.2590,36.7300,75,96,196215
2.0137,0.2639,37.1600,75,96,196218
2.0088,0.2395,37.2600,75,96,196222
1.9795,0.2493,37.2300,75,96,196226
1.9795,0.2395,37.2000,75,96,196229
2.0283,0.2297,37.1000,75,96,196233
2.0186,0.2444,37.1300,75,96,196236
2.0479,0.2395,37.0000,75,96,196239
2.0235,0.2395,37.1600,75,96,196243
2.0235,0.2395,37.2000,75,96,196246
2.0479,0.2493,37.0300,75,96,196249
2.0088,0.2395,37.2000,75,96,196252
2.0381,0.2493,37.1000,75,96,196256
2.0039,0.2346,37.1600,75,96,196259
1.9990,0.2395,37.1300,75,96,196262
2.0137,0.2444,37.1000,75,96,196267
1.9892,0.2395,37.1600,75,96,196270
2.0137,0.2444,37.0000,75,96,196273
1.9844,0.2395,37.1300,75,96,196277
1.9892,0.2395,37.1600,75,96,196280
2.0283,0.2542,37.0600,75,96,196283
1.9746,0.2444,37.1600,75,96,196286
2.0039,0.2493,37.0300,75,96,196290
1.9306,0.2493,37.1300,75,96,196293
1.8964,0.2297,37.1600,75,96,196296
1.8719,0.2493,37.0000,75,96,196300
1.8035,0.2395,37.1600,75,96,196303
1.8084,0.2493,36.9600,75,96,196306
1.7449,0.2444,37.0300,75,96,196311
1.7155,0.2346,37.1600,75,96,196314
1.7107,0.2639,37.1300,75,96,196317
1.7253,0.2395,37.2000,75,96,196321
1.7840,0.2590,37.0000,75,96,196324
1.7595,0.2444,37.1600,75,96,196327
1.7742,0.2395,37.1000,75,96,196330
1.7742,0.2395,37.1600,75,96,196334
1.7742,0.2493,37.1600,75,96,196337
1.7986,0.2493,37.0600,75,96,196340
1.7644,0.2444,37.1600,75,96,196344
1.7644,0.2444,37.0300,75,96,196347
1.7400,0.2395,37.1600,75,96,196350
1.7351,0.2395,37.4000,75,96,196355
1.7498,0.2444,37.1300,75,96,196358
1.7449,0.2297,37.1600,75,96,196361
1.7742,0.2395,37.0600,75,96,196365
1.7449,0.2297,37.1600,75,96,196368
1.7449,0.2395,37.2000,75,96,196371
1.7742,0.2639,37.1000,75,96,196374
1.7693,0.2395,37.1600,75,96,196378
1.8084,0.2493,37.1600,75,96,196381
1.8231,0.2395,37.1000,75,96,196384
1.7889,0.2346,37.2300,75,96,196388
1.7889,0.2444,37.1600,75,96,196391
1.7693,0.2395,37.3600,75,96,196395
1.8231,0.2444,36.9300,75,96,196399
1.7889,0.2395,36.3800,75,96,196402
1.7840,0.2346,37.2300,75,96,196405
1.7937,0.2395,37.1600,75,96,196409
1.7889,0.2395,37.2000,75,96,196412
1.8622,0.2590,36.9600,75,96,196415
1.8475,0.2493,37.1000,75,96,196419
1.8671,0.2395,37.1000,75,96,196422
1.8768,0.2395,37.2000,75,96,196425
1.8475,0.2297,37.2000,75,96,196430
1.8328,0.2346,37.2300,75,96,196433
1.8426,0.2444,37.0000,75,96,196436
1.8035,0.2395,37.2000,75,96,196441
1.8280,0.2395,36.9600,75,96,196444
1.7986,0.2395,37.2300,75,96,196447
1.8035,0.2297,37.1600,75,96,196451
1.8133,0.2444,37.1000,75,96,196454
1.8035,0.2395,37.2000,75,96,196457
1.8426,0.2444,36.9600,75,96,196461
1.8231,0.2444,37.1300,75,96,196464
1.8426,0.2444,37.1600,75,96,196467
1.8573,0.2444,37.1300,75,96,196471
1.8426,0.2444,37.2000,75,96,196474
1.9013,0.2444,36.9300,75,96,196477
1.8622,0.2346,37.0600,75,96,196481
1.8719,0.2346,37.2000,75,96,196485
1.8817,0.2395,37.1600,75,96,196488
1.8719,0.2639,37.2000,75,96,196491
1.9306,0.2542,36.9600,75,96,196495
1.8866,0.2444,37.2300,75,96,196498
1.8768,0.2346,37.2300,75,96,196501
1.8622,0.2346,37.4000,75,96,196505
1.8475,0.2590,37.1600,75,96,196508
1.9013,0.2395,37.0300,75,96,196511
1.8719,0.2688,37.1300,75,96,196515
1.8915,0.2346,37.0600,75,96,196518
1.8671,0.2297,37.1600,75,96,196521
1.8328,0.2346,37.2000,75,96,196525
1.8328,0.2395,37.1000,75,96,196529
1.7937,0.2346,37.2600,75,96,196532
1.8084,0.2395,37.1300,75,96,196535
1.8182,0.2346,37.2000,75,96,196539
1.8084,0.2346,37.2000,75,96,196542
1.8280,0.2346,37.3300,75,96,196545
1.8182,0.2346,37.1600,75,96,196549
1.8426,0.2395,37.0300,75,96,196552
1.8133,0.2395,37.2000,75,96,196555
1.8280,0.2346,37.2000,75,96,196558
1.8524,0.2395,37.1300,75,96,196562
1.8622,0.2346,37.2000,75,96,196566
1.9159,0.2395,36.9300,75,96,196569
1.9062,0.2395,37.1000,75,96,196573
1.9208,0.2346,37.1600,75,96,196576
1.9013,0.2395,37.2000,75,96,196579
1.8866,0.2395,37.2300,75,96,196583
1.9355,0.2444,36.8900,75,96,196586
1.8964,0.2395,37.1300,75,96,196589
1.8964,0.2297,37.2000,75,96,196593
1.8964,0.2395,37.1300,75,96,196596
1.8866,0.2346,37.2000,75,96,196599
1.9208,0.2493,37.0300,75,96,196602
1.8817,0.2395,37.2000,75,96,196606
1.8719,0.2346,37.1000,75,96,196610
1.8622,0.2297,37.2000,75,96,196613
1.8573,0.2346,37.2000,75,96,196617
1.9159,0.2444,37.1000,75,96,196620
1.8817,0.2346,37.2000,75,96,196623
1.9159,0.2395,36.4100,75,96,196627
1.9159,0.2346,37.1600,75,96,196630
1.9355,0.2346,37.3300,75,96,196633
1.9746,0.2493,37.0600,75,96,196637
1.9550,0.2346,37.1600,75,96,196640
1.9941,0.2346,37.0600,75,96,196643
1.9941,0.2346,37.1300,75,96,196646
1.9404,0.2346,37.1600,75,96,196651
1.9306,0.2444,37.2300,75,96,196654
1.8964,0.2346,37.2300,75,96,196657
1.9404,0.2346,37.1000,75,96,196661
1.9404,0.2346,37.1000,75,96,196664
1.9257,0.2346,37.2600,75,96,196667
1.9257,0.2395,37.1600,75,96,196671
1.8671,0.2346,37.2300,75,96,196674
1.8719,0.2395,36.9300,75,96,196677
1.7986,0.2346,37.1300,75,96,196681
1.7937,0.2297,37.2000,75,96,196684
1.7937,0.2346,37.1600,75,96,196687
1.7791,0.2346,37.2000,75,96,196690
1.8280,0.2493,36.9600,75,96,196695
1.7889,0.2346,37.1300,75,96,196698
1.7791,0.2346,37.2300,75,96,196701
1.7986,0.2297,37.1300,75,96,196705
1.8133,0.2346,37.2300,75,96,196708
1.8524,0.2395,37.0000,75,96,196711
1.8328,0.2395,37.2300,75,96,196715
1.8475,0.2346,37.0600,75,96,196718
1.8377,0.2297,37.2000,75,96,196721
1.8475,0.2248,37.2000,75,96,196725
1.8866,0.2297,37.0600,75,96,196728
1.8768,0.2297,37.2000,75,96,196731
1.8915,0.2346,36.9600,75,96,196734
1.8622,0.2248,37.1600,75,96,196739
1.8328,0.2297,37.3000,75,96,196742
1.8084,0.2346,37.1000,75,96,196745
1.7840,0.2346,37.2300,75,96,196749
1.8084,0.2346,37.0600,75,96,196752
1.7889,0.2346,37.1600,75,96,196755
1.8182,0.2297,37.1600,75,96,196759
1.9501,0.2346,37.1300,75,96,196762
2.1408,0.2102,37.2000,75,96,196765
2.4194,0.2346,36.9600,75,96,196769
2.6784,0.2346,37.0600,75,96,196772
2.9179,0.2542,37.2000,75,96,196775
3.1183,0.2297,37.1600,75,96,196779
3.1476,0.2297,37.2000,75,96,196783
3.1329,0.2395,36.9600,75,96,196786
2.8739,0.2297,37.2000,75,96,196789
2.6100,0.2248,37.1600,75,96,196793
2.3705,0.2346,37.1600,75,96,196796
2.1457,0.2297,37.2000,75,96,196799
2.0626,0.2493,37.0000,75,96,196803
1.9404,0.2346,37.1000,75,96,196806
1.8573,0.2248,37.1300,75,96,196809
1.7937,0.2297,37.1600,75,96,196812
1.7400,0.2297,37.2000,75,96,196816
1.7449,0.2395,37.1000,75,96,196819
1.6862,0.2297,37.0600,75,96,196823
1.6764,0.2444,37.1000,75,96,196827
1.6373,0.2297,37.2600,75,96,196830
1.6373,0.2248,37.1600,75,96,196833
1.6569,0.2297,37.0300,75,96,196837
1.6227,0.2395,37.1600,75,96,196840
1.6520,0.2346,37.0600,75,96,196843
1.6373,0.2248,37.1600,75,96,196847
1.6471,0.2248,37.2300,75,96,196850
1.6716,0.2297,37.1600,75,96,196853
1.6520,0.2297,37.1600,75,96,196856
1.6764,0.2297,37.0300,75,96,196860
1.6618,0.2248,37.5300,75,96,196864
1.6862,0.2248,37.1600,75,96,196867
1.7302,0.2297,37.0600,75,96,196871
1.7253,0.2297,37.2600,75,96,196874
1.7644,0.2346,36.9300,75,96,196877
1.7204,0.2248,37.2300,75,96,196881
1.7302,0.2639,37.2000,75,96,196884
1.7595,0.2346,37.1300,75,96,196887
1.7644,0.2493,37.1600,75,96,196891
1.8377,0.2395,36.8900,75,96,196894
1.8133,0.2297,37.1000,75,96,196897
1.8133,0.2248,37.1600,75,96,196900
1.8377,0.2297,37.2300,75,96,196904
1.8475,0.2346,37.1600,75,96,196908
1.8964,0.2395,37.0000,75,96,196911
1.8377,0.2346,37.1300,75,96,196915
1.8280,0.2297,37.1300,75,96,196918
1.8084,0.2297,36.3800,75,96,196921
1.8084,0.2493,37.2000,75,96,196925
1.8475,0.2346,37.1000,75,96,196928
1.8328,0.2297,37.2000,75,96,196931
1.8622,0.2493,37.1000,75,96,196935
1.8475,0.2297,37.2000,75,96,196938
1.8622,0.2297,37.2300,75,96,196941
1.8866,0.2248,37.1300,75,96,196945
1.8768,0.2297,37.1600,75,96,196948
1.9306,0.2346,37.0600,75,96,196952
1.8817,0.2297,37.2000,75,96,196955
1.8866,0.2346,37.2000,75,96,196959
1.9257,0.2346,37.1300,75,96,196962
1.9110,0.2297,37.1600,75,96,196965
1.9599,0.2346,36.9600,75,96,196969
1.9501,0.2297,37.1000,75,96,196972
1.9453,0.2248,37.2000,75,96,196975
1.9599,0.2297,37.1300,75,96,196979
1.9550,0.2297,37.2300,75,96,196982
2.0088,0.2444,36.9300,75,96,196985
1.9648,0.2297,37.1600,75,96,196989
1.9550,0.2248,37.2000,75,96,196993
1.9746,0.2395,37.2300,75,96,196996
1.9892,0.2248,37.2000,75,96,196999
2.0821,0.2493,36.9600,75,96,197003
2.0723,0.2395,37.1000,75,96,197006
2.0772,0.2248,37.1300,75,96,197009
2.0772,0.2297,37.2300,75,96,197013
2.0772,0.2102,37.2000,75,96,197016
2.1114,0.2395,37.0600,75,96,197019
2.0821,0.2297,37.1300,75,96,197023
2.0919,0.2346,37.1000,75,96,197026
2.0821,0.2346,37.2000,75,96,197029
2.0870,0.2297,37.2300,75,96,197032
2.1261,0.2590,37.1000,75,96,197037
2.0479,0.2297,37.1600,75,96,197041
2.0039,0.2346,37.2300,75,96,197045
2.0137,0.2346,36.9600,75,96,197048
1.9648,0.2297,37.0600,75,96,197051
1.9453,0.2297,37.1600,75,96,197055
1.9550,0.2297,37.1000,75,96,197058
1.9159,0.2297,37.2000,75,96,197061
1.9453,0.2493,36.9600,75,96,197065
1.8817,0.2248,37.0600,75,96,197068
1.8622,0.2542,37.2000,75,96,197071
1.8524,0.2297,37.1300,75,96,197075
1.8280,0.2346,37.2300,75,96,197079
1.8671,0.2493,36.9600,75,96,197082
1.8182,0.2297,37.1000,75,96,197085
1.7986,0.2688,37.1600,75,96,197089
1.7937,0.2248,37.1600,75,96,197092
1.7791,0.2248,37.1300,75,96,197095
1.8133,0.2395,37.0600,75,96,197099
1.7498,0.2297,37.1600,75,96,197102
1.7498,0.2248,37.0600,75,96,197105
1.7253,0.2297,37.1600,75,96,197109
1.7351,0.2248,37.1600,75,96,197112
1.7595,0.2346,37.0600,75,96,197115
1.7351,0.2297,37.2300,75,96,197120
1.7449,0.2444,37.1000,75,96,197123
1.7155,0.2297,37.2000,75,96,197126
1.7155,0.2297,37.2300,75,96,197129
1.7302,0.2346,37.1300,75,96,197133
1.7253,0.2297,37.2000,75,96,197136
1.7595,0.2297,37.0300,75,96,197139
1.7400,0.2297,37.2000,75,96,197143
1.7351,0.2346,37.2000,75,96,197146
1.7840,0.2346,37.0300,75,96,197149
1.7889,0.2297,37.1600,75,96,197153
1.8426,0.2346,36.9600,75,96,197156
1.8231,0.2346,37.1300,75,96,197159
1.8035,0.2199,37.2300,75,96,197164
1.8182,0.2297,36.4100,75,96,197167
1.8182,0.2248,37.1600,75,96,197170
1.8768,0.2395,36.9600,75,96,197173
1.8328,0.2346,37.1000,75,96,197177
1.8084,0.2248,37.1600,75,96,197180
1.8035,0.2297,37.1600,75,96,197183
1.7791,0.2297,37.1600,75,96,197187
1.8377,0.2493,37.0600,75,96,197190
1.8084,0.2346,37.1000,75,96,197193
1.7986,0.2444,37.1000,75,96,197197
1.7840,0.2297,37.1600,75,96,197200
1.7791,0.2444,37.1600,75,96,197203
1.8084,0.2395,37.0600,75,96,197208
1.7986,0.2297,37.1600,75,96,197211
1.8182,0.2297,37.0600,75,96,197214
1.8182,0.2346,37.2000,75,96,197217
1.8280,0.2297,37.2600,75,96,197221
1.8719,0.2444,37.1000,75,96,197224
1.8622,0.2297,37.2600,75,96,197227
1.9013,0.2346,37.1300,75,96,197231
1.8817,0.2248,37.1300,75,96,197234
1.8768,0.2297,37.3300,75,96,197237
1.8964,0.2346,37.1000,75,96,197241
1.8768,0.2297,37.2300,75,96,197244
1.9062,0.2346,36.9300,75,96,197248
1.8768,0.2297,37.1300,75,96,197252
1.8719,0.2297,37.2000,75,96,197255
1.8768,0.2346,37.0600,75,96,197258
1.8768,0.2199,37.2000,75,96,197261
1.8866,0.2346,36.9300,75,96,197265
1.8524,0.2199,37.1600,75,96,197268
1.8768,0.2297,37.2300,75,96,197271
1.9013,0.2395,37.1600,75,96,197275
1.8866,0.2297,37.2000,75,96,197278
1.9208,0.2444,36.9300,75,96,197281
1.8768,0.2346,37.1000,75,96,197285
1.8426,0.2248,37.1300,75,96,197288
1.8475,0.2346,37.2000,75,96,197292
1.8377,0.2297,37.1600,75,96,197296
1.8866,0.2444,37.0000,75,96,197299
1.8524,0.2297,37.1600,75,96,197302
1.8622,0.2297,37.1000,75,96,197305
1.8524,0.2248,37.2300,75,96,197309
1.8768,0.2297,37.2000,75,96,197312
1.9208,0.2346,37.0600,75,96,197315
1.9159,0.2297,37.1600,75,96,197319
1.9404,0.2346,37.0300,75,96,197322
1.9013,0.2297,37.2000,75,96,197325
1.8817,0.2346,37.2000,75,96,197329
1.8768,0.2346,37.1000,75,96,197332
1.8524,0.2297,37.2300,75,96,197336
1.8671,0.2297,37.0300,75,96,197340
1.8426,0.2297,37.1600,75,96,197343
1.8573,0.2444,37.1600,75,96,197346
1.8964,0.2346,37.0600,75,96,197349
1.8768,0.2297,37.2000,75,96,197353
1.9208,0.2346,36.9600,75,96,197356
1.8964,0.2346,37.1000,75,96,197359
1.8768,0.2297,37.2000,75,96,197363
1.8719,0.2346,37.1600,75,96,197366
1.8475,0.2297,37.3600,75,96,197369
1.8866,0.2590,36.9600,75,96,197373
1.8475,0.2297,37.1300,75,96,197377
1.8377,0.2248,37.1600,75,96,197380
1.8426,0.2346,37.2300,75,96,197384
1.8328,0.2346,37.2000,75,96,197387
1.9013,0.2493,36.9300,75,96,197390
1.8915,0.2297,37.1000,75,96,197393
1.9159,0.2248,37.1300,75,96,197397
1.9257,0.2346,37.1600,75,96,197400
1.9306,0.2297,37.1300,75,96,197403
1.9697,0.2395,37.1000,75,96,197407
1.8964,0.2297,37.2300,75,96,197410
1.8915,0.2297,36.2500,75,96,197413
1.8573,0.2297,37.2000,75,96,197417
1.8573,0.2297,37.1600,75,96,197421
1.8964,0.2444,37.0300,75,96,197424
1.8817,0.2297,37.1600,75,96,197428
1.9355,0.2395,37.0600,75,96,197431
1.9257,0.2199,37.1300,75,96,197434
1.9501,0.2297,37.2000,75,96,197437
1.9746,0.2395,37.2300,75,96,197441
1.9599,0.2297,37.1600,75,96,197444
1.9795,0.2346,37.0300,75,96,197447
1.9550,0.2346,37.1300,75,96,197451
1.9501,0.2297,37.2600,75,96,197454
1.9599,0.2444,37.1000,75,96,197457
1.9355,0.2102,37.1600,75,96,197462
1.9746,0.2395,37.2000,75,96,197465
1.9159,0.2297,37.1300,75,96,197468
1.9062,0.2297,37.2000,75,96,197472
1.9013,0.2444,37.1300,75,96,197475
1.8817,0.2297,37.2000,75,96,197478
1.9355,0.2493,36.5400,75,96,197481
1.8817,0.2346,37.1000,75,96,197485
1.8426,0.2248,37.1600,75,96,197488
1.8084,0.2297,37.2300,75,96,197491
1.7986,0.2102,37.2000,75,96,197495
1.8133,0.2395,37.0000,75,96,197498
1.7791,0.2346,37.2300,75,96,197501
1.7889,0.2297,37.0600,75,96,197506
1.7889,0.2297,37.1600,75,96,197509
1.8084,0.2248,37.2300,75,96,197512
1.8524,0.2297,37.0300,75,96,197516
1.8573,0.2297,37.4000,75,96,197519
1.8817,0.2346,37.1000,75,96,197522
1.8524,0.2346,37.2000,75,96,197525
1.8573,0.2297,37.2000,75,96,197529
1.8671,0.2395,37.1000,75,96,197532
1.8524,0.2346,37.2000,75,96,197535
1.8768,0.2297,37.2000,75,96,197539
1.8377,0.2297,37.2000,75,96,197542
1.8182,0.2297,37.2300,75,96,197545
1.7937,0.2346,37.1000,75,96,197550
1.7351,0.2297,37.2300,75,96,197553
1.7498,0.2395,36.9600,75,96,197556
1.7351,0.2297,37.1300,75,96,197560
1.7595,0.2248,37.2000,75,96,197563
1.8475,0.2297,37.2000,75,96,197566
1.9941,0.2297,37.2300,75,96,197569
2.2874,0.2346,36.9300,75,96,197573
2.5367,0.2297,37.2300,75,96,197576
2.8152,0.2444,37.1600,75,96,197579
3.0596,0.2297,37.2000,75,96,197583
3.1867,0.2248,37.1600,75,96,197586
3.2454,0.2688,37.0300,75,96,197590
3.0254,0.2297,37.1000,75,96,197594
2.7810,0.2297,37.1600,75,96,197597
2.5171,0.2395,37.1600,75,96,197600
2.2776,0.2248,37.2000,75,96,197604
2.1261,0.2395,37.1000,75,96,197607
1.9648,0.2346,37.1600,75,96,197610
1.8915,0.2346,37.0600,75,96,197613
1.7937,0.2395,37.2300,75,96,197617
1.7449,0.2297,37.2000,75,96,197620
1.7302,0.2395,37.0000,75,96,197623
1.6764,0.2346,37.2000,75,96,197627
1.6813,0.2297,37.1000,75,96,197630
1.6373,0.2248,37.1600,75,96,197634
1.6325,0.2297,37.2000,75,96,197638
1.6373,0.2346,37.2000,75,96,197641
1.6227,0.2346,37.1600,75,96,197644
1.6520,0.2346,37.0000,75,96,197648
1.7058,0.2395,36.9300,75,96,197652
1.6716,0.2297,37.1000,75,96,197656
1.6764,0.2395,37.1600,75,96,197659
1.7107,0.2297,37.2300,75,96,197662
1.7449,0.2248,37.2000,75,96,197666
1.8328,0.2493,37.0000,75,96,197669
1.8133,0.2297,37.2000,75,96,197672
1.8084,0.2297,37.0600,75,96,197676
1.7742,0.2102,37.1600,75,96,197680
1.7351,0.2346,37.2600,75,96,197683
1.7400,0.2493,36.9600,75,96,197686
1.7009,0.2297,37.2000,75,96,197690
1.7155,0.2297,37.1300,75,96,197693
1.7155,0.2248,37.1600,75,96,197696
1.7595,0.2346,37.2000,75,96,197700
1.8182,0.2297,37.0300,75,96,197703
1.8377,0.2297,37.1600,75,96,197706
1.8671,0.2346,37.1000,75,96,197709
1.8328,0.2248,37.1600,75,96,197713
1.8231,0.2297,37.1600,75,96,197716
1.8377,0.2297,37.1300,75,96,197720
1.8377,0.2102,37.1600,75,96,197724
1.8915,0.2346,37.0300,75,96,197727
1.8719,0.2248,37.2000,75,96,197730
1.9062,0.2102,37.1600,75,96,197734
1.8964,0.2346,37.1000,75,96,197737
1.8866,0.2297,37.1600,75,96,197740
1.9306,0.2346,37.0300,75,96,197744
1.9110,0.2395,37.1000,75,96,197747
1.9110,0.2248,37.2000,75,96,197750
1.9062,0.2297,37.2300,75,96,197754
1.8915,0.2346,37.2300,75,96,197757
1.9453,0.2444,36.9300,75,96,197761
1.8915,0.2346,37.1300,75,96,197764
1.8964,0.2248,37.1600,75,96,197768
1.9013,0.2297,37.1600,75,96,197771
1.9159,0.2346,37.1600,75,96,197774
1.9795,0.2395,37.0300,75,96,197778
1.9746,0.2590,37.1300,75,96,197781
1.9941,0.2102,37.0600,75,96,197784
1.9941,0.2297,37.2300,75,96,197788
2.0039,0.2199,37.2300,75,96,197791
2.0528,0.2395,37.1300,75,96,197794
2.0479,0.2297,37.0600,75,96,197798
2.0821,0.2297,37.0600,75,96,197801
2.0577,0.2297,37.2300,75,96,197805
2.0626,0.2297,37.2300,75,96,197808
2.0968,0.2444,37.0600,75,96,197812
2.0626,0.2346,37.2000,75,96,197815
2.0772,0.2297,37.0600,75,96,197818
2.0381,0.2395,37.1000,75,96,197822
2.0332,0.2297,37.1600,75,96,197825
2.0479,0.2297,37.1300,75,96,197828
2.0577,0.2297,37.2300,75,96,197832
2.1163,0.2346,37.1000,75,96,197835
2.1114,0.2297,37.1300,75,96,197838
2.1212,0.2395,37.2000,75,96,197841
2.1359,0.2346,37.1000,75,96,197846
2.0968,0.2248,37.2000,75,96,197849
2.1065,0.2346,36.8600,75,96,197852
2.0088,0.2102,37.1600,75,96,197856
1.9697,0.2248,37.2000,75,96,197859
1.9453,0.2297,37.2600,75,96,197862
1.9062,0.2297,37.1600,75,96,197866
1.9501,0.2493,36.9600,75,96,197869
1.8915,0.2346,37.1000,75,96,197872
1.8671,0.2102,37.1600,75,96,197875
1.8475,0.2297,37.1300,75,96,197879
1.8280,0.2248,37.1600,75,96,197882
1.8817,0.2346,37.0000,75,96,197885
1.8524,0.2639,37.1600,75,96,197890
1.8817,0.2199,37.0600,75,96,197893
1.8524,0.2297,37.0300,75,96,197896
1.8328,0.2444,37.1300,75,96,197900
1.8280,0.2297,37.0300,75,96,197903
1.7546,0.2297,37.1600,75,96,197906
1.7449,0.2395,37.0600,75,96,197910
1.7009,0.2102,37.2000,75,96,197913
1.6911,0.2248,37.2000,75,96,197916
1.7009,0.2248,37.0600,75,96,197919
1.7107,0.2346,37.1600,75,96,197923
1.7546,0.2248,37.0600,75,96,197926
1.7400,0.2493,37.2000,75,96,197929
1.7546,0.2248,37.2000,75,96,197934
1.7840,0.2297,37.0600,75,96,197937
1.7840,0.2248,37.2000,75,96,197940
1.8280,0.2346,36.9600,75,96,197944
1.7986,0.2297,37.1000,75,96,197947
1.7840,0.2248,37.1300,75,96,197950
1.7889,0.2346,37.1300,75,96,197953
1.7791,0.2248,37.2000,75,96,197957
1.8280,0.2346,36.9300,75,96,197960
1.8035,0.2346,37.1300,75,96,197963
1.7986,0.2248,36.4100,75,96,197967
1.8133,0.2346,37.1600,75,96,197970
1.8231,0.2248,37.2000,75,96,197974
1.9013,0.2444,37.0000,75,96,197978
1.8768,0.2346,37.1000,75,96,197981
1.9013,0.2199,37.2300,75,96,197984
1.9257,0.2346,37.2300,75,96,197988
1.9648,0.2248,37.2000,75,96,197991
2.0528,0.2346,37.1000,75,96,197994
2.0772,0.2395,37.1600,75,96,197997
2.1359,0.2248,37.0600,75,96,198001
2.1652,0.2248,37.2300,75,96,198004
2.2190,0.2151,37.1600,75,96,198007
2.3118,0.2346,37.0000,75,96,198011
2.3412,0.2297,37.1600,75,96,198014
2.4487,0.2297,37.0600,75,96,198018
2.5024,0.2199,37.2600,75,96,198022
2.6100,0.2199,37.2000,75,96,198025
2.7566,0.2102,37.1000,75,96,198028
2.8495,0.2199,37.2000,75,96,198032
2.9961,0.2248,37.1000,75,96,198035
3.0499,0.2248,37.1300,75,96,198038
3.1281,0.2151,37.2000,75,96,198041
3.2307,0.2248,37.0300,75,96,198045
3.2991,0.2248,37.2300,75,96,198048
3.5044,0.2102,36.9600,75,96,198051
3.5875,0.2151,37.2000,75,96,198055
3.7341,0.2248,37.2300,75,96,198059
3.8905,0.2297,37.2000,75,96,198062
3.9345,0.2297,37.2000,75,96,198066
4.0567,0.2297,36.9300,75,96,198069
3.9150,0.2248,37.0600,75,96,198072
3.6852,0.2151,37.2000,75,96,198075
3.3773,0.2248,37.1600,75,96,198079
2.9717,0.2199,37.2000,75,96,198082
2.6295,0.2346,36.9600,75,96,198085
2.1408,0.2248,37.2000,75,96,198089
1.7302,0.2199,37.1000,75,96,198092
1.4076,0.2199,37.1300,75,96,198095
1.1486,0.2199,37.2300,75,96,198099
1.0215,0.2346,37.0300,75,96,198103
0.9140,0.2102,37.1600,75,96,198106
0.8847,0.2199,37.0600,75,96,198110
0.8651,0.2199,37.1600,75,96,198113
0.8651,0.2542,37.2000,75,96,198116
0.8847,0.2297,37.1300,75,96,198119
0.8847,0.2199,37.1600,75,96,198123
0.9042,0.2297,37.0300,75,96,198126
0.9140,0.1906,37.2300,75,96,198129
0.9286,0.2199,37.2000,75,96,198133
0.9677,0.2297,37.1300,75,96,198136
0.9824,0.2151,37.1600,75,96,198139
1.0215,0.2199,37.0600,75,96,198144
1.0459,0.2199,37.1300,75,96,198147
1.0802,0.2590,37.2000,75,96,198150
1.1241,0.2248,37.1000,75,96,198153
1.1290,0.2199,37.2000,75,96,198157
1.1681,0.2248,37.3600,75,96,198160
1.1632,0.2248,37.1300,75,96,198163
1.1779,0.2199,37.2300,75,96,198167
1.1975,0.2297,37.1600,75,96,198170
1.1877,0.2151,37.1600,75,96,198173
1.2414,0.2297,36.9600,75,96,198177
1.2757,0.2248,37.1600,75,96,198180
1.2805,0.2199,37.2000,75,96,198183
1.3099,0.2248,37.1000,75,96,198187
1.3294,0.2102,37.2300,75,96,198191
1.3881,0.2395,36.9600,75,96,198194
1.3587,0.2248,37.1300,75,96,198197
1.3685,0.2199,37.1300,75,96,198201
1.3832,0.2248,37.2000,75,96,198204
1.4174,0.2102,37.2000,75,96,198207
1.4418,0.2297,37.0000,75,96,198211
1.4516,0.2297,37.2300,75,96,198214
1.4907,0.2248,37.0600,75,96,198217
1.5054,0.2199,37.2000,75,96,198221
1.5200,0.2199,37.1600,75,96,198224
1.5689,0.2297,37.0300,75,96,198227
1.5249,0.1906,37.1600,75,96,198231
1.5396,0.2297,37.0600,75,96,198235
1.5249,0.2248,37.2000,75,96,198238
1.5298,0.2199,37.3000,75,96,198241
1.5396,0.2199,37.1300,75,96,198245
1.5200,0.2199,37.2300,75,96,198248
1.5200,0.2102,37.1000,75,96,198251
1.4809,0.2199,37.1600,75,96,198255
1.4565,0.2297,37.2000,75,96,198258
1.4956,0.2248,37.1000,75,96,198261
1.4565,0.2248,37.1600,75,96,198266
1.4418,0.2199,37.3000,75,96,198269
1.4907,0.2395,36.9600,75,96,198273
1.4614,0.2248,37.1300,75,96,198277
1.4516,0.2151,37.2300,75,96,198280
1.4565,0.2199,37.1600,75,96,198283
1.4712,0.2199,37.2000,75,96,198287
1.5200,0.2395,37.0000,75,96,198290
1.5347,0.2102,37.1300,75,96,198293
1.5249,0.2199,37.0600,75,96,198297
1.5249,0.2199,37.1600,75,96,198300
1.5494,0.2199,37.2000,75,96,198303
1.5982,0.2297,37.1000,75,96,198307
1.6080,0.2199,37.1600,75,96,198310
1.6569,0.2248,37.0600,75,96,198313
1.6471,0.2297,37.1600,75,96,198317
1.6716,0.2102,37.2000,75,96,198321
1.7400,0.2346,37.0600,75,96,198324
1.7449,0.2248,37.2300,75,96,198327
1.8035,0.2199,37.0300,75,96,198331
1.8133,0.2199,37.1300,75,96,198334
1.8768,0.2151,37.2300,75,96,198337
1.9110,0.2248,37.1300,75,96,198341
1.9453,0.2248,37.2000,75,96,198344
2.0381,0.2248,36.9600,75,96,198347
2.0479,0.2248,36.6700,75,96,198351
2.0723,0.2199,37.1600,75,96,198354
2.1114,0.2102,37.1300,75,96,198358
2.1065,0.2199,37.1300,75,96,198361
2.1750,0.2346,36.9300,75,96,198365
2.1359,0.2151,37.2000,75,96,198368
2.1359,0.2151,37.2000,75,96,198371
2.1408,0.2102,37.1600,75,96,198375
2.1359,0.2151,37.1300,75,96,198378
2.1896,0.2346,36.9600,75,96,198381
2.1359,0.2248,37.3600,75,96,198385
2.1310,0.2346,37.0600,75,96,198388
2.1212,0.2199,37.2300,75,96,198391
2.1065,0.2151,37.1000,75,96,198395
2.1261,0.2395,37.0000,75,96,198398
2.0674,0.2199,37.2600,75,96,198402
2.0723,0.2199,37.0300,75,96,198405
2.0430,0.2297,37.2000,75,96,198409
2.0479,0.2151,37.2300,75,96,198412
2.0870,0.2248,37.0600,75,96,198415
2.0723,0.2151,37.1600,75,96,198419
2.1017,0.2248,37.0600,75,96,198422
2.0674,0.2199,37.2000,75,96,198425
2.0528,0.2151,37.2000,75,96,198429
2.0430,0.2199,37.1000,75,96,198432
2.0088,0.2199,37.2000,75,96,198435
2.0235,0.2151,37.0600,75,96,198438
1.9697,0.2248,37.2000,75,96,198443
1.9795,0.2151,37.2000,75,96,198446
1.9990,0.2493,37.2300,75,96,198449
1.9795,0.2199,37.1600,75,96,198453
2.0088,0.2493,37.0000,75,96,198456
1.9795,0.2248,37.1300,75,96,198459
1.9550,0.2151,37.2000,75,96,198463
1.9746,0.2444,37.1600,75,96,198466
1.9746,0.2199,37.2000,75,96,198469
2.0332,0.2248,36.9600,75,96,198472
1.9990,0.2248,37.1300,75,96,198476
2.0088,0.2151,37.2000,75,96,198479
2.0186,0.2199,37.1600,75,96,198482
2.0088,0.2151,37.2000,75,96,198487
2.0577,0.2444,36.9600,75,96,198490
1.9990,0.2248,37.1000,75,96,198493
1.9648,0.2151,37.1600,75,96,198497
1.9746,0.2248,37.2000,75,96,198500
1.9501,0.2151,36.3800,75,96,198503
2.0039,0.2199,37.0300,75,96,198507
1.9746,0.2102,37.1600,75,96,198510
1.9795,0.2199,37.1300,75,96,198513
1.9453,0.2102,37.2000,75,96,198516
1.9306,0.2151,37.1600,75,96,198520
1.9501,0.2297,37.0300,75,96,198523
1.9110,0.2199,37.1600,75,96,198526
1.9306,0.2248,37.2000,75,96,198531
1.9013,0.2102,37.2000,75,96,198534
1.9208,0.2151,37.2300,75,96,198537
1.9110,0.2199,37.1000,75,96,198541
1.8915,0.2151,37.1600,75,96,198544
1.9306,0.2199,37.0300,75,96,198547
1.9013,0.2151,37.1600,75,96,198550
1.9013,0.2102,37.2000,75,96,198554
1.9062,0.1906,37.3300,75,96,198557
1.8964,0.2151,37.2000,75,96,198560
1.9453,0.2199,36.9600,75,96,198564
1.9208,0.2151,37.1600,75,96,198567
1.9404,0.2151,37.1600,75,96,198571
1.9501,0.2248,37.1300,75,96,198575
1.9208,0.2151,37.1600,75,96,198578
1.9599,0.2639,36.9300,75,96,198581
1.9159,0.2199,37.1300,75,96,198585
1.9062,0.2102,37.2000,75,96,198588
1.9257,0.2151,37.2300,75,96,198591
1.8915,0.2151,37.1600,75,96,198594
1.9404,0.2395,37.0300,75,96,198598
1.8817,0.2199,37.1600,75,96,198601
1.8719,0.2151,37.1300,75,96,198604
1.8524,0.2102,37.2000,75,96,198608
1.8573,0.2151,37.2000,75,96,198611
1.8915,0.2248,37.0600,75,96,198615
1.8671,0.2199,37.1600,75,96,198619
1.8817,0.2199,37.1600,75,96,198622
1.8622,0.2248,37.2300,75,96,198625
1.8866,0.2151,37.1300,75,96,198629
1.9208,0.2151,37.1300,75,96,198632
1.9208,0.2151,37.1600,75,96,198635
1.9501,0.2151,37.0600,75,96,198638
1.9013,0.2151,37.2000,75,96,198642
1.8817,0.2151,37.2600,75,96,198645
1.8866,0.2346,37.1000,75,96,198648
1.8573,0.2151,37.2600,75,96,198652
1.8817,0.2248,36.9600,75,96,198656
1.8573,0.1906,37.1600,75,96,198659
1.8524,0.2151,37.2000,75,96,198663
1.8719,0.2102,37.1300,75,96,198666
1.8768,0.2151,37.3300,75,96,198669
1.9306,0.2248,36.9300,75,96,198673
1.8866,0.2199,37.1300,75,96,198676
1.8768,0.2151,37.2000,75,96,198679
1.8817,0.2248,37.1600,75,96,198683
1.8817,0.1906,37.2000,75,96,198686
1.9404,0.2297,36.9600,75,96,198689
1.8915,0.2248,37.1000,75,96,198692
1.8671,0.2102,37.1300,75,96,198696
1.8524,0.2199,37.2000,75,96,198700
1.8426,0.2151,37.2000,75,96,198703
1.8915,0.2297,37.0600,75,96,198707
1.8671,0.2199,37.1600,75,96,198710
1.8915,0.2199,37.1000,75,96,198713
1.9013,0.2199,37.2000,75,96,198717
1.8671,0.2151,37.2000,75,96,198720
1.8964,0.2248,37.0300,75,96,198723
1.8719,0.2151,37.1600,75,96,198727
1.9062,0.2248,37.0600,75,96,198730
1.8817,0.2053,37.1300,75,96,198733
1.8866,0.2102,37.2000,75,96,198736
1.8964,0.2199,37.0600,75,96,198740
1.8719,0.2151,37.1600,75,96,198744
1.8915,0.2151,37.0300,75,96,198747
1.8573,0.2151,37.1300,75,96,198751
1.8524,0.2151,37.2000,75,96,198754
1.8671,0.2297,37.1000,75,96,198757
1.8573,0.2151,37.1600,75,96,198761
1.9013,0.2199,36.9600,75,96,198764
1.8573,0.2151,37.1300,75,96,198767
1.8524,0.2151,37.0600,75,96,198771
1.8622,0.2102,37.2300,75,96,198774
1.8524,0.2151,37.2000,75,96,198777
1.9159,0.2346,36.9300,75,96,198781
1.8817,0.2199,37.1300,75,96,198785
1.8768,0.2053,37.1300,75,96,198788
1.8768,0.2151,37.1300,75,96,198792
1.8768,0.2151,37.1600,75,96,198795
1.9208,0.2248,37.0600,75,96,198798
1.8817,0.2297,37.1300,75,96,198801
1.8866,0.2102,37.0600,75,96,198805
1.8622,0.2151,37.1600,75,96,198808
1.8524,0.2151,37.2000,75,96,198811
1.8768,0.2199,37.0600,75,96,198815
1.8524,0.2151,37.1600,75,96,198818
1.8866,0.2248,37.0600,75,96,198821
1.8719,0.2151,37.2000,75,96,198825
1.8915,0.2151,37.2000,75,96,198829
1.9013,0.2248,37.0600,75,96,198832
1.8866,0.2102,37.2000,75,96,198835
1.8964,0.2151,37.0600,75,96,198839
1.8671,0.2248,37.2000,75,96,198842
1.8377,0.2102,37.2000,75,96,198845
1.8328,0.2199,37.0600,75,96,198849
1.8084,0.2199,37.2000,75,96,198852
1.8426,0.2199,37.0000,75,96,198855
1.8377,0.2199,37.1000,75,96,198859
1.8475,0.2102,37.2000,75,96,198862
1.8622,0.2199,37.1600,75,96,198865
1.8573,0.2151,37.2300,75,96,198870
1.9159,0.2102,36.9300,75,96,198873
1.9159,0.2102,37.0300,75,96,198878
1.8866,0.2199,37.1600,75,96,198881
1.8866,0.2444,37.0600,75,96,198884
1.8671,0.2102,37.2000,75,96,198887
1.8671,0.2151,37.2300,75,96,198891
1.8964,0.2248,37.1600,75,96,198894
1.8622,0.2151,36.3500,75,96,198897
1.8817,0.2248,37.0600,75,96,198901
1.8475,0.2151,37.2300,75,96,198904
1.8426,0.2151,37.2000,75,96,198907
1.8622,0.2248,37.1000,75,96,198912
1.8280,0.2151,37.2300,75,96,198915
1.8475,0.2151,37.0300,75,96,198918
1.8231,0.2151,37.1600,75,96,198922
1.8084,0.2151,37.2000,75,96,198925
1.8328,0.2444,37.1600,75,96,198928
1.8377,0.2151,37.2000,75,96,198932
1.8817,0.2248,37.0600,75,96,198935
1.8622,0.2248,37.1300,75,96,198938
1.8524,0.2102,37.2600,75,96,198941
1.8524,0.2199,37.1600,75,96,198945
1.8182,0.2102,37.1600,75,96,198948
1.8671,0.2248,36.8900,75,96,198951
1.8182,0.2444,37.1000,75,96,198956
1.8084,0.2102,37.1600,75,96,198959
1.8280,0.2199,37.1600,75,96,198962
1.8377,0.2248,37.2000,75,96,198966
1.8964,0.2297,37.0300,75,96,198969
1.8671,0.2199,37.1600,75,96,198972
1.8768,0.2151,37.0600,75,96,198976
1.8719,0.2199,37.2300,75,96,198979
1.8817,0.2151,37.2000,75,96,198982
1.9355,0.2248,37.0300,75,96,198985
1.8817,0.2151,37.1600,75,96,198989
1.8866,0.2248,37.0300,75,96,198992
1.8426,0.2151,37.2000,75,96,198995
1.8231,0.2151,37.1000,75,96,199000
1.8231,0.2199,37.1000,75,96,199003
1.7986,0.2151,37.2300,75,96,199006
1.8231,0.2199,37.1000,75,96,199010
1.8084,0.1906,37.1300,75,96,199013
1.8426,0.2151,37.2000,75,96,199016
1.8964,0.2346,37.1000,75,96,199020
1.9159,0.1906,37.2000,75,96,199023
1.9697,0.2199,37.0000,75,96,199026
1.9404,0.2199,37.2300,75,96,199029
1.9501,0.2151,37.2000,75,96,199033
1.9599,0.2199,37.3300,75,96,199036
1.9257,0.2102,37.2000,75,96,199040
1.9648,0.2248,37.3000,75,96,199044
1.9257,0.2248,37.1300,75,96,199047
1.9062,0.2151,37.2000,75,96,199050
1.8964,0.2151,37.2000,75,96,199054
1.8964,0.2199,37.2000,75,96,199057
1.9257,0.2297,36.9600,75,96,199060
1.8817,0.2151,37.1600,75,96,199064
1.8426,0.2102,37.1300,75,96,199067
1.8280,0.2248,37.2000,75,96,199070
1.8133,0.2102,37.2300,75,96,199073
1.8475,0.2199,37.0300,75,96,199077
1.8133,0.2151,37.1300,75,96,199080
1.8084,0.2151,37.1300,75,96,199084
1.7986,0.2151,37.2600,75,96,199088
1.8035,0.2151,37.2000,75,96,199091
1.8231,0.2199,37.1300,75,96,199094
1.8035,0.2151,37.2300,75,96,199098
1.8231,0.2102,37.1000,75,96,199101
1.7937,0.2199,37.1600,75,96,199104
1.7986,0.2151,37.2000,75,96,199108
1.8035,0.2199,37.1300,75,96,199111
1.7791,0.2151,37.1600,75,96,199114
1.7986,0.2151,37.0000,75,96,199118
1.7791,0.2151,37.0600,75,96,199121
1.7986,0.2151,37.2300,75,96,199124
1.7693,0.2199,37.1300,75,96,199128
1.7253,0.2151,37.2300,75,96,199132
1.7302,0.2199,36.9600,75,96,199135
1.6813,0.2151,37.1300,75,96,199138
1.6862,0.2102,37.2000,75,96,199142
1.7400,0.2199,37.1300,75,96,199145
1.7986,0.2151,37.1600,75,96,199148
1.9844,0.2297,36.9600,75,96,199152
2.1457,0.2199,37.0600,75,96,199155
2.3754,0.2102,37.1300,75,96,199158
2.6637,0.2151,37.2600,75,96,199162
2.9179,0.2102,37.2300,75,96,199165
3.1867,0.2297,36.5100,75,96,199169
3.2160,0.2248,37.1300,75,96,199172
3.1672,0.2151,37.1000,75,96,199176
2.9179,0.2151,37.2000,75,96,199179
2.6393,0.2151,37.2000,75,96,199182
2.3998,0.2199,37.0300,75,96,199186
2.1017,0.2199,37.2000,75,96,199189
1.9355,0.2151,37.1000,75,96,199192
1.7937,0.2151,37.2000,75,96,199196
1.7155,0.2102,37.2000,75,96,199199
1.6960,0.2199,37.1000,75,96,199202
1.6373,0.2151,37.1600,75,96,199206
1.6227,0.2297,37.0600,75,96,199209
1.5640,0.2102,37.1300,75,96,199213
1.5543,0.2102,37.2000,75,96,199216
1.5494,0.2151,37.0300,75,96,199220
1.5298,0.2151,37.1600,75,96,199223
1.5543,0.2199,36.9300,75,96,199226
1.5298,0.1906,37.1600,75,96,199230
1.5396,0.2102,37.2000,75,96,199233
1.5640,0.2151,37.1300,75,96,199236
1.5591,0.2102,37.3000,75,96,199240
1.5982,0.2297,36.9300,75,96,199243
1.5836,0.2199,37.1300,75,96,199246
1.5885,0.2102,37.2300,75,96,199250
1.6178,0.2151,37.1600,75,96,199254
1.6373,0.2102,37.2000,75,96,199257
1.7058,0.2297,37.0000,75,96,199260
1.6716,0.2248,37.1600,75,96,199264
1.6716,0.2102,37.1000,75,96,199267
1.6716,0.2199,37.2000,75,96,199270
1.6716,0.2151,37.2000,75,96,199274
1.7058,0.2248,37.0600,75,96,199277
1.6813,0.2151,37.1600,75,96,199280
1.6960,0.2248,37.0600,75,96,199284
1.6862,0.2151,37.2000,75,96,199287
1.7009,0.2053,37.2000,75,96,199290
1.7302,0.2199,37.1600,75,96,199294
1.7155,0.1906,37.1600,75,96,199298
1.7253,0.2199,37.2300,75,96,199301
1.6862,0.2151,37.1600,75,96,199304
1.6764,0.2151,37.2000,75,96,199308
1.7449,0.2199,37.1000,75,96,199311
1.7107,0.2151,37.2000,75,96,199314
1.7889,0.2151,37.0000,75,96,199318
1.7595,0.2151,37.1600,75,96,199321
1.7644,0.2102,37.1600,75,96,199324
1.7840,0.2199,37.1300,75,96,199328
1.7840,0.2151,37.1600,75,96,199331
1.8377,0.2199,36.9300,75,96,199334
1.8133,0.2151,37.1300,75,96,199339
1.8035,0.2199,37.2000,75,96,199342
1.8035,0.1906,37.1600,75,96,199345
1.8035,0.2102,37.2000,75,96,199348
1.8671,0.2248,36.8300,75,96,199352
1.8377,0.2151,37.1300,75,96,199355
1.8280,0.2102,37.1300,75,96,199358
1.8182,0.2248,37.2000,75,96,199362
1.8182,0.2102,37.2000,75,96,199365
1.8915,0.2297,37.0300,75,96,199368
1.8768,0.2199,37.1300,75,96,199372
1.9257,0.2151,37.0600,75,96,199375
1.9501,0.2102,37.2000,75,96,199378
1.9550,0.2151,37.1600,75,96,199383
1.9648,0.2248,37.0000,75,96,199386
1.9013,0.2151,37.2000,75,96,199389
1.9110,0.2199,37.0600,75,96,199392
1.8817,0.2297,37.2300,75,96,199396
1.8866,0.2102,37.1600,75,96,199399
1.9159,0.2199,37.0300,75,96,199402
1.9013,0.2395,37.2000,75,96,199406
1.9404,0.2199,37.0600,75,96,199409
1.9257,0.2102,37.1600,75,96,199412
1.9501,0.2199,37.2000,75,96,199416
2.0039,0.2199,37.0600,75,96,199419
1.9990,0.2151,37.1600,75,96,199422
2.0332,0.2151,37.0000,75,96,199426
1.9990,0.2248,37.2300,75,96,199430
1.9990,0.2151,37.2000,75,96,199433
2.0039,0.2199,37.1300,75,96,199436
1.9892,0.2102,37.2000,75,96,199440
2.0137,0.2248,36.9300,75,96,199443
1.9844,0.2199,37.1000,75,96,199446
1.9697,0.2151,37.2000,75,96,199450
1.9697,0.2199,37.2300,75,96,199453
1.9550,0.2297,37.1600,75,96,199456
2.0039,0.2297,36.9600,75,96,199460
1.9501,0.2151,36.8300,75,96,199463
1.9355,0.2199,37.2300,75,96,199467
1.9355,0.2199,37.1600,75,96,199470
1.9159,0.2199,37.0600,75,96,199474
1.9404,0.2248,37.0300,75,96,199477
1.8768,0.2199,37.1600,75,96,199480
1.8377,0.2151,37.0600,75,96,199484
1.7937,0.2102,37.1600,75,96,199487
1.6422,0.2151,37.1600,75,96,199492
1.6373,0.2151,37.1600,75,96,199495
1.6618,0.2248,37.0600,75,96,199498
1.6471,0.2248,37.2000,75,96,199502
1.7204,0.2102,37.0000,75,96,199505
1.6618,0.2151,37.1600,75,96,199508
1.6520,0.2151,37.2300,75,96,199513
1.6569,0.2199,37.1600,75,96,199516
1.6569,0.2151,37.2600,75,96,199519
1.7107,0.2199,36.9300,75,96,199523
1.6960,0.2151,37.0600,75,96,199526
1.7058,0.2151,37.2000,75,96,199529
1.7204,0.2199,37.1600,75,96,199532
1.7253,0.2151,37.2300,75,96,199536
1.7840,0.2346,36.9600,75,96,199539
1.7546,0.2248,37.2600,75,96,199542
1.7351,0.2102,37.1300,75,96,199546
1.7155,0.2199,37.1600,75,96,199549
1.6960,0.2151,37.2300,75,96,199553
1.7253,0.2346,37.0600,75,96,199557
1.7058,0.2199,36.8600,75,96,199560
1.7155,0.2199,37.1000,75,96,199563
1.7058,0.2151,37.4000,75,96,199567
1.7058,0.2199,37.2000,75,96,199570
1.7351,0.2199,37.2300,75,96,199573
1.7107,0.2151,37.2600,75,96,199577
1.7449,0.2297,37.1000,75,96,199580
1.7204,0.2102,37.2000,75,96,199583
1.7155,0.2151,37.3000,75,96,199586
1.7400,0.2199,37.1000,75,96,199590
1.7253,0.2151,37.1600,75,96,199593
1.7693,0.2151,37.0300,75,96,199597
1.7644,0.2151,37.1300,75,96,199601
1.7791,0.2151,37.1600,75,96,199604
1.7986,0.2199,37.1000,75,96,199607
1.7644,0.2151,37.1600,75,96,199611
1.7986,0.2346,36.9300,75,96,199614
1.7644,0.2102,37.1300,75,96,199617
1.7889,0.2199,37.2000,75,96,199621
1.8182,0.2248,37.1000,75,96,199624
1.8035,0.2151,37.2000,75,96,199627
1.8524,0.2102,36.8600,75,96,199630
1.8182,0.2199,37.0600,75,96,199634
1.7986,0.2102,37.2000,75,96,199638
1.7937,0.2248,37.2000,75,96,199641
1.7791,0.2151,37.2000,75,96,199645
1.8133,0.2248,37.0000,75,96,199648
1.7644,0.2199,37.2000,75,96,199651
1.7693,0.2151,37.1600,75,96,199655
1.7840,0.2151,37.1600,75,96,199658
1.7595,0.2151,37.2000,75,96,199661
1.7889,0.2199,37.0600,75,96,199665
1.7791,0.2199,37.1600,75,96,199668
1.7937,0.2199,37.0600,75,96,199671
1.7693,0.2542,37.2000,75,96,199674
1.7791,0.1906,37.2000,75,96,199678
1.7986,0.2151,37.3300,75,96,199682
1.7986,0.2151,37.2000,75,96,199685
1.8377,0.2151,37.0300,75,96,199689
1.8182,0.2248,37.1600,75,96,199692
1.8377,0.2151,37.2000,75,96,199695
1.8671,0.2199,37.1000,75,96,199699
1.8524,0.2151,37.1600,75,96,199702
1.8817,0.2199,36.9300,75,96,199705
1.8573,0.2248,37.1000,75,96,199709
1.7986,0.2151,37.1600,75,96,199712
1.8182,0.2151,37.1600,75,96,199715
1.7693,0.2151,37.1600,75,96,199718
1.8231,0.2395,36.9300,75,96,199723
1.7937,0.2199,37.1600,75,96,199726
1.7840,0.2102,37.1600,75,96,199729
1.7840,0.2199,37.1600,75,96,199733
1.7644,0.2151,37.1600,75,96,199736
1.8084,0.2444,37.0000,75,96,199739
1.7791,0.2199,37.1300,75,96,199743
1.7742,0.2151,37.1300,75,96,199746
1.7937,0.2151,37.1600,75,96,199749
1.7742,0.2151,37.1300,75,96,199753
1.7937,0.2248,37.1000,75,96,199756
1.7889,0.2199,37.2600,75,96,199759
1.8182,0.2199,37.0300,75,96,199763
1.8084,0.2151,37.2000,75,96,199767
1.8133,0.2151,37.2000,75,96,199770
1.8573,0.2297,37.0600,75,96,199773
1.8328,0.2151,37.2000,75,96,199777
1.8719,0.2151,37.1000,75,96,199780
1.8328,0.2151,37.1300,75,96,199783
1.8182,0.2199,37.2000,75,96,199787
1.8182,0.2248,37.1000,75,96,199790
1.8035,0.2151,36.5700,75,96,199793
1.8475,0.2297,37.0000,75,96,199797
1.8426,0.2151,36.4800,75,96,199800
1.8719,0.2248,37.1600,75,96,199803
1.9208,0.2248,37.1000,75,96,199808
1.9159,0.2151,37.2000,75,96,199811
1.9648,0.2444,36.9300,75,96,199814
1.9110,0.2151,37.1000,75,96,199818
1.8964,0.2151,37.3300,75,96,199821
1.8671,0.2199,37.2000,75,96,199824
1.8280,0.2151,37.2000,75,96,199827
1.8524,0.2297,36.9600,75,96,199831
1.7986,0.2248,37.1000,75,96,199834
1.7791,0.2151,37.0600,75,96,199837
1.7791,0.2199,37.2000,75,96,199841
1.7840,0.2151,37.2600,75,96,199844
1.8280,0.2199,37.0000,75,96,199847
1.8182,0.2199,37.1600,75,96,199852
1.8426,0.2199,37.0000,75,96,199855
1.8231,0.2151,37.1600,75,96,199858
1.8182,0.2102,37.1600,75,96,199861
1.8377,0.2346,37.0300,75,96,199865
1.7937,0.2151,37.2300,75,96,199868
1.7889,0.2248,37.1000,75,96,199871
1.7351,0.2151,37.1600,75,96,199875
1.7253,0.2151,37.2000,75,96,199878
1.7351,0.2199,37.1000,75,96,199881
1.7351,0.2248,37.1600,75,96,199885
1.7644,0.2199,37.0600,75,96,199888
1.7546,0.2395,37.1600,75,96,199891
1.7889,0.2151,37.2000,75,96,199896
1.8231,0.2248,37.2300,75,96,199899
1.8084,0.1906,37.2000,75,96,199902
1.8573,0.2248,37.0000,75,96,199906
1.8133,0.2199,37.2600,75,96,199909
1.7693,0.2102,37.2300,75,96,199912
1.7302,0.2199,37.2600,75,96,199915
1.6764,0.2102,37.2000,75,96,199919
1.6960,0.2102,36.8900,75,96,199922
1.6716,0.2199,37.1300,75,96,199925
1.7107,0.2199,37.1600,75,96,199929
1.7889,0.2199,37.2000,75,96,199932
1.9013,0.2151,37.2600,75,96,199936
2.1554,0.2346,37.0000,75,96,199940
2.3705,0.2199,37.1300,75,96,199943
2.6540,0.2151,37.0600,75,96,199946
2.9032,0.2199,37.2300,75,96,199949
3.0792,0.2151,37.2300,75,96,199953
3.1965,0.2590,37.1300,75,96,199956
3.0890,0.2199,37.1600,75,96,199959
2.9228,0.2199,37.0600,75,96,199963
2.6442,0.2199,37.2000,75,96,199966
2.3803,0.2102,37.2000,75,96,199969
2.1701,0.2297,37.0600,75,96,199973
1.9404,0.2053,37.1600,75,96,199976
1.8475,0.2102,37.1000,75,96,199980
1.7449,0.2151,37.1600,75,96,199984
1.7155,0.2102,37.2300,75,96,199987
1.7009,0.2199,37.3300,75,96,199990
1.6520,0.2151,37.1600,75,96,199993
1.6716,0.2199,37.0000,75,96,199997
1.5934,0.2151,37.1300,75,96,200000
1.5836,0.2102,37.2000,75,96,200003
1.6031,0.2248,37.1000,75,96,200007
1.5885,0.2151,37.3000,75,96,200010
1.6325,0.2248,36.9300,75,96,200013
1.5934,0.2151,37.1300,75,96,200017
1.6080,0.2151,37.2300,75,96,200020
1.6178,0.2199,37.2300,75,96,200024
1.6569,0.2102,37.2000,75,96,200028
1.6862,0.2346,36.9600,75,96,200031
1.6520,0.2199,37.1300,75,96,200034
1.6373,0.2151,37.1300,75,96,200037
1.6325,0.2199,37.2000,75,96,200041
1.6373,0.2151,37.1300,75,96,200044
1.7107,0.2297,37.0000,75,96,200047
1.6667,0.2199,37.2300,75,96,200051
1.6813,0.2199,37.0600,75,96,200054
1.6716,0.2199,37.2000,75,96,200057
1.6764,0.2151,37.2300,75,96,200061
1.7058,0.2248,37.0600,75,96,200065
1.6960,0.2199,37.1600,75,96,200068
1.7302,0.2199,37.0600,75,96,200072
1.7155,0.2199,37.2000,75,96,200075
1.7253,0.2102,37.1600,75,96,200078
1.7498,0.2248,37.1600,75,96,200081
1.7449,0.2248,37.2300,75,96,200085
1.7644,0.2151,37.0300,75,96,200088
1.7400,0.2199,37.2000,75,96,200091
1.7791,0.2199,37.2000,75,96,200095
1.7840,0.2248,37.1000,75,96,200098
1.7791,0.2199,37.2000,75,96,200103
1.7791,0.2151,37.0300,75,96,200107
1.8426,0.2395,36.9600,75,96,200110
1.8133,0.2199,37.2000,75,96,200114
1.8182,0.2151,37.1600,75,96,200117
1.8426,0.2199,37.1600,75,96,200120
1.8573,0.2151,37.2000,75,96,200124
1.9208,0.2346,37.0600,75,96,200127
1.9110,0.2199,37.1600,75,96,200130
1.9159,0.2199,36.6000,75,96,200133
1.8915,0.2151,37.2300,75,96,200137
1.8915,0.2102,37.2000,75,96,200140
1.9110,0.2248,37.1300,75,96,200143
1.9013,0.2199,37.2000,75,96,200147
1.9404,0.2248,37.0000,75,96,200151
1.9355,0.2151,37.2000,75,96,200154
1.9599,0.2151,37.3000,75,96,200158
2.0039,0.2199,37.1000,75,96,200161
1.9795,0.2199,37.2000,75,96,200164
1.9941,0.2199,37.0000,75,96,200168
1.9844,0.2151,37.1300,75,96,200171
1.9648,0.2151,37.2000,75,96,200174
1.9844,0.2248,37.2300,75,96,200177
1.9746,0.2151,37.2000,75,96,200181
2.0283,0.2297,37.0000,75,96,200184
2.0088,0.2102,37.1300,75,96,200187
1.9941,0.2151,37.2000,75,96,200192
2.0137,0.2248,37.1600,75,96,200195
2.0088,0.2199,37.1600,75,96,200198
2.0577,0.2297,36.9300,75,96,200202
2.0332,0.2151,37.1300,75,96,200205
2.0381,0.2395,37.2000,75,96,200208
2.0430,0.2151,37.1600,75,96,200211
1.9941,0.2151,37.2000,75,96,200215
2.0235,0.2346,36.9600,75,96,200218
1.9648,0.2199,37.1300,75,96,200221
1.9404,0.2151,37.2300,75,96,200225
1.9355,0.2199,37.1600,75,96,200228
1.9404,0.2151,37.0600,75,96,200231
1.9795,0.2346,37.1000,75,96,200236
1.9306,0.2199,37.1600,75,96,200239
1.9062,0.2199,37.0600,75,96,200242
1.8328,0.2248,37.1600,75,96,200246
1.7791,0.2102,37.2000,75,96,200249
1.7693,0.2248,37.0600,75,96,200252
1.7253,0.2248,37.2000,75,96,200255
1.7400,0.2199,37.1000,75,96,200259
1.7155,0.2199,37.2000,75,96,200262
1.7107,0.2151,37.1300,75,96,200265
1.7155,0.2199,37.1000,75,96,200269
1.6764,0.2199,37.2000,75,96,200272
1.6764,0.2199,37.0000,75,96,200275
1.6471,0.2151,37.2000,75,96,200280
1.6520,0.2151,37.1300,75,96,200283
1.6813,0.2199,37.1000,75,96,200286
1.6813,0.2151,37.3000,75,96,200290
1.7204,0.2248,36.9300,75,96,200293
1.7009,0.2248,37.1300,75,96,200296
1.6862,0.2151,37.2000,75,96,200299
1.7253,0.2199,37.1600,75,96,200303
1.7058,0.2151,37.1000,75,96,200306
1.7546,0.2248,36.8900,75,96,200309
1.7204,0.2199,37.1300,75,96,200313
1.7107,0.2102,37.2000,75,96,200316
1.7204,0.2493,37.2300,75,96,200320
1.7253,0.2151,37.2000,75,96,200324
1.7937,0.2297,37.0000,75,96,200327
1.7595,0.2297,37.1300,75,96,200330
1.7302,0.2102,37.1000,75,96,200334
1.7009,0.2102,37.2000,75,96,200337
1.6862,0.2444,37.1600,75,96,200340
1.7302,0.2297,37.1000,75,96,200343
1.7204,0.2199,37.1600,75,96,200347
1.7546,0.2199,37.0300,75,96,200350
1.7546,0.2199,37.2300,75,96,200353
1.7644,0.2151,37.2000,75,96,200357
1.7791,0.2297,37.0300,75,96,200360
1.7449,0.2151,37.1600,75,96,200364
1.7889,0.2151,37.0600,75,96,200368
1.7253,0.2151,37.1300,75,96,200371
1.7302,0.2493,37.3000,75,96,200374
1.7498,0.2248,37.1600,75,96,200378
1.7595,0.2199,37.1600,75,96,200381
1.8182,0.2199,37.0000,75,96,200384
1.8280,0.2199,37.2000,75,96,200387
1.8426,0.2151,36.4100,75,96,200391
1.8817,0.2297,37.1000,75,96,200394
1.8328,0.2151,37.1600,75,96,200397
1.8671,0.2248,36.9300,75,96,200401
1.8133,0.2151,37.1300,75,96,200404
1.8035,0.2151,37.2000,75,96,200408
1.7986,0.2199,37.2000,75,96,200412
1.7937,0.2151,37.2600,75,96,200415
1.8475,0.2395,36.9600,75,96,200418
1.8182,0.2248,37.1000,75,96,200422
1.8280,0.2151,37.2300,75,96,200425
1.8426,0.2102,37.1600,75,96,200428
1.8573,0.2151,37.2000,75,96,200431
1.8964,0.2444,36.9600,75,96,200435
1.8475,0.2199,37.1600,75,96,200438
1.8328,0.2199,37.1300,75,96,200441
1.8084,0.2199,37.2000,75,96,200445
1.7840,0.2151,37.2000,75,96,200449
1.8035,0.2248,37.0600,75,96,200452
1.7937,0.2493,37.1600,75,96,200456
1.8280,0.2248,37.0600,75,96,200459
1.8182,0.2199,37.2600,75,96,200462
1.8328,0.2248,37.1600,75,96,200466
1.8475,0.2199,37.1000,75,96,200469
1.8377,0.2199,37.4000,75,96,200472
1.8524,0.2639,37.0600,75,96,200475
1.8133,0.2151,37.2000,75,96,200479
1.8084,0.2199,37.1600,75,96,200482
1.8280,0.2102,37.1000,75,96,200485
1.8035,0.2151,37.2000,75,96,200489
1.8475,0.2248,36.9600,75,96,200493
1.8328,0.2199,37.0600,75,96,200496
1.8231,0.2151,37.2000,75,96,200500
1.8377,0.2248,37.1600,75,96,200503
1.8426,0.1906,37.2000,75,96,200506
1.9013,0.2248,36.9300,75,96,200509
1.8768,0.2248,37.1300,75,96,200513
1.8622,0.2102,37.2000,75,96,200516
1.8573,0.2199,37.2000,75,96,200519
1.8182,0.2102,37.2000,75,96,200523
1.8426,0.2346,36.9600,75,96,200526
1.7937,0.2248,37.1000,75,96,200529
1.7840,0.2151,37.1000,75,96,200534
1.7791,0.2199,37.1600,75,96,200537
1.7791,0.2248,37.2000,75,96,200540
1.8182,0.2297,37.1000,75,96,200544
1.7986,0.2199,37.1600,75,96,200547
1.8133,0.2199,37.0600,75,96,200550
1.8084,0.2151,37.2000,75,96,200553
1.8182,0.2151,37.3000,75,96,200557
1.8622,0.2102,37.0300,75,96,200560
1.8426,0.2199,37.2300,75,96,200563
1.8719,0.2542,37.1000,75,96,200567
1.8426,0.2102,37.1600,75,96,200570
1.8328,0.2151,36.4100,75,96,200573
1.8573,0.2248,37.1000,75,96,200578
1.8426,0.2199,37.2000,75,96,200581
1.8671,0.2199,37.0000,75,96,200584
1.8524,0.1906,37.1300,75,96,200588
1.8524,0.2151,37.2600,75,96,200591
1.8768,0.2248,37.1000,75,96,200594
1.8622,0.2151,37.2000,75,96,200597
1.9159,0.2248,36.3800,75,96,200601
1.8866,0.2102,37.1300,75,96,200604
1.8964,0.2151,37.2000,75,96,200607
1.9110,0.2395,37.1300,75,96,200611
1.9062,0.2151,37.2000,75,96,200614
1.9599,0.2297,36.8300,75,96,200617
1.9159,0.2151,37.0600,75,96,200622
1.8915,0.2151,37.1300,75,96,200625
1.8768,0.2199,37.2000,75,96,200628
1.8719,0.2151,37.2000,75,96,200632
1.9110,0.2297,37.0000,75,96,200635
1.8622,0.2199,37.1600,75,96,200638
1.8671,0.2151,37.1300,75,96,200642
1.8573,0.2102,37.2000,75,96,200645
1.8524,0.2151,37.4000,75,96,200648
1.9110,0.2248,37.0600,75,96,200651
1.8573,0.2199,37.1600,75,96,200655
1.8622,0.2199,36.9600,75,96,200658
1.8426,0.2151,37.1600,75,96,200662
1.8182,0.2151,37.2000,75,96,200666
1.8182,0.2199,37.1000,75,96,200669
1.8084,0.2199,37.2000,75,96,200672
1.8231,0.2199,36.7300,75,96,200676
1.7840,0.1906,37.2000,75,96,200679
1.7742,0.2151,37.2000,75,96,200682
1.8084,0.2199,37.0600,75,96,200686
1.7791,0.2151,37.2000,75,96,200689
1.8231,0.2248,37.0300,75,96,200692
1.8475,0.2102,37.1000,75,96,200695
1.8035,0.2199,37.2000,75,96,200699
1.8182,0.2297,37.1600,75,96,200702
1.8182,0.1906,37.1600,75,96,200706
1.8524,0.2297,36.9600,75,96,200710
1.7302,0.2297,37.0300,75,96,200713
1.6911,0.2444,37.1600,75,96,200717
1.7107,0.2151,37.1000,75,96,200720
1.7107,0.2199,37.2000,75,96,200723
1.7644,0.2248,37.2000,75,96,200727
1.8719,0.2248,37.2300,75,96,200730
2.0332,0.2297,37.1600,75,96,200733
2.3314,0.2248,37.1000,75,96,200737
2.6149,0.2297,37.2000,75,96,200740
2.9521,0.2151,37.2300,75,96,200743
3.2014,0.2297,37.1000,75,96,200747
3.2845,0.2102,37.2000,75,96,200751
3.3089,0.2151,37.0000,75,96,200754
3.0841,0.2151,37.1000,75,96,200757
2.8006,0.2151,37.2000,75,96,200761
2.5220,0.2248,37.1000,75,96,200764
2.2287,0.2151,37.2000,75,96,200767
2.0528,0.2248,37.0000,75,96,200771
1.8622,0.2248,37.1300,75,96,200774
1.7498,0.2151,37.2000,75,96,200777
1.6911,0.2395,37.1300,75,96,200781
1.6276,0.2151,37.1600,75,96,200784
1.6373,0.2297,36.9300,75,96,200787
1.5934,0.2199,37.1000,75,96,200791
1.5934,0.2102,37.3300,75,96,200795
1.6031,0.2199,37.1600,75,96,200798
1.6080,0.2151,37.3000,75,96,200801
1.6471,0.2493,36.9600,75,96,200805
1.5934,0.2102,37.1300,75,96,200808
1.5738,0.2151,37.0600,75,96,200811
1.5543,0.2199,37.2300,75,96,200815
1.5445,0.2151,37.3000,75,96,200818
1.6080,0.2248,37.0300,75,96,200821
1.5494,0.2199,37.2600,75,96,200825
1.5787,0.2395,37.1000,75,96,200828
1.5836,0.2199,37.1600,75,96,200832
1.6276,0.2199,37.1000,75,96,200835
1.6862,0.2102,37.1000,75,96,200839
1.6813,0.2199,37.2000,75,96,200842
1.7058,0.2199,36.8000,75,96,200845
1.6667,0.2151,37.1600,75,96,200849
1.6569,0.2151,37.1600,75,96,200852
1.6618,0.2199,37.0600,75,96,200855
1.6813,0.2248,37.2300,75,96,200859
1.6764,0.2199,37.0000,75,96,200862
1.6520,0.2151,37.2300,75,96,200865
1.6569,0.2151,37.2000,75,96,200869
1.6862,0.2346,37.1600,75,96,200872
1.6960,0.2199,37.2000,75,96,200876
1.7742,0.2248,36.9300,75,96,200879
1.7889,0.2248,37.1600,75,96,200883
1.8084,0.2248,37.2000,75,96,200886
1.8280,0.2199,36.3800,75,96,200889
1.8133,0.2248,37.1600,75,96,200893
1.8377,0.2395,36.9600,75,96,200896
1.7644,0.2297,37.1000,75,96,200899
1.7498,0.2151,37.1600,75,96,200903
1.7400,0.2199,37.0600,75,96,200906
1.7498,0.2151,37.1600,75,96,200909
1.8084,0.2297,37.1000,75,96,200913
1.8035,0.2248,37.1300,75,96,200916
1.8182,0.2248,37.0600,75,96,200920
1.8035,0.2199,37.2300,75,96,200923
1.8084,0.2248,37.1600,75,96,200927
1.8280,0.2248,37.1300,75,96,200930
1.8328,0.2199,37.1600,75,96,200933
1.8573,0.2248,37.0600,75,96,200937
1.8328,0.2151,37.2000,75,96,200940
1.8280,0.2151,37.2000,75,96,200943
1.8964,0.2297,37.0600,75,96,200947
1.8328,0.2199,37.2000,75,96,200950
1.8719,0.2346,37.0300,75,96,200953
1.8817,0.2199,37.1300,75,96,200957
1.9013,0.2151,37.2600,75,96,200961
1.9404,0.2199,37.1300,75,96,200964
1.9550,0.2199,37.2300,75,96,200967
2.0137,0.2248,36.9300,75,96,200971
2.0088,0.2248,37.1600,75,96,200974
1.9746,0.1906,37.1600,75,96,200977
1.9892,0.2248,37.0300,75,96,200981
1.9648,0.2102,37.2000,75,96,200984
2.0381,0.2102,36.9300,75,96,200987
2.0039,0.2151,37.0600,75,96,200991
2.0235,0.2248,37.2000,75,96,200994
2.0381,0.2248,37.2300,75,96,200997
2.0283,0.2151,37.2000,75,96,201000
2.0674,0.2395,37.0000,75,96,201005
2.0137,0.2297,37.1000,75,96,201008
1.9990,0.2346,37.1300,75,96,201011
2.0137,0.2199,37.2300,75,96,201015
2.0137,0.2151,37.2000,75,96,201018
2.0723,0.2102,37.0000,75,96,201021
1.9892,0.2199,37.2300,75,96,201025
1.9795,0.2444,37.1600,75,96,201028
1.9550,0.2199,37.1600,75,96,201031
1.9453,0.2199,37.2000,75,96,201035
1.9648,0.2199,37.0600,75,96,201038
1.9159,0.2199,37.1600,75,96,201041
1.9110,0.2248,37.0600,75,96,201044
1.8524,0.2444,37.2000,75,96,201049
1.8231,0.2151,37.2000,75,96,201052
1.8035,0.2199,37.3000,75,96,201055
1.7644,0.2199,37.1300,75,96,201059
1.7693,0.2151,37.0600,75,96,201062
1.6862,0.2151,37.3000,75,96,201065
1.6618,0.2151,37.2300,75,96,201069
1.6716,0.2248,37.1600,75,96,201072
1.6618,0.2102,37.1600,75,96,201075
1.7009,0.2248,36.9600,75,96,201079
1.6862,0.2248,37.1000,75,96,201082
1.6764,0.2151,37.2300,75,96,201085
1.6764,0.2444,37.1300,75,96,201089
1.6569,0.2151,37.2000,75,96,201093
1.6862,0.2297,36.9300,75,96,201096
1.6471,0.2199,37.2300,75,96,201099
1.6276,0.1906,37.1600,75,96,201103
1.6227,0.2199,37.1600,75,96,201106
1.6080,0.2151,37.2000,75,96,201109
1.6667,0.2297,36.9600,75,96,201113
1.6471,0.2248,37.1000,75,96,201116
1.6667,0.2151,37.2300,75,96,201119
1.6667,0.2199,37.2300,75,96,201123
1.6716,0.2102,37.2300,75,96,201126
1.6960,0.2297,37.1600,75,96,201129
1.6716,0.2297,37.1600,75,96,201133
1.6911,0.2102,37.0600,75,96,201137
1.6813,0.2639,37.2300,75,96,201140
1.7009,0.2151,37.2000,75,96,201143
1.7498,0.2297,37.0300,75,96,201147
1.7595,0.2199,37.2300,75,96,201150
1.7840,0.2199,37.0600,75,96,201153
1.7889,0.2151,37.2000,75,96,201157
1.8280,0.2395,37.2000,75,96,201160
1.8817,0.2248,37.1000,75,96,201163
1.9013,0.2199,37.1600,75,96,201167
1.9648,0.2248,37.0000,75,96,201170
1.9648,0.2199,37.2000,75,96,201174
1.9795,0.2199,37.1600,75,96,201177
2.0283,0.2297,37.1000,75,96,201181
2.0528,0.2199,37.2000,75,96,201184
2.1701,0.2248,37.0000,75,96,201187
2.2190,0.2102,37.1300,75,96,201191
2.3363,0.2151,37.2000,75,96,201194
2.4829,0.2199,37.1300,75,96,201197
2.6100,0.2199,37.2000,75,96,201201
2.8250,0.2297,36.9600,75,96,201204
2.9130,0.2248,37.0300,75,96,201207
3.0156,0.2151,37.2000,75,96,201210
3.1378,0.2199,37.1600,75,96,201214
3.2307,0.2199,37.2600,75,96,201218
3.4262,0.2346,37.0000,75,96,201221
3.4800,0.2199,37.1600,75,96,201225
3.6315,0.2151,37.0600,75,96,201228
3.7537,0.2199,37.1600,75,96,201231
3.8661,0.2199,37.2300,75,96,201235
3.9932,0.2297,37.0000,75,96,201238
3.9541,0.2151,37.1300,75,96,201241
3.8661,0.2199,37.0600,75,96,201245
3.5679,0.2395,37.1600,75,96,201248
3.1916,0.2199,37.2000,75,96,201251
2.7761,0.2199,37.0600,75,96,201254
2.3265,0.2199,37.1600,75,96,201259
1.9208,0.2199,37.1300,75,96,201262
1.5103,0.2248,37.2000,75,96,201265
1.2463,0.2102,37.2300,75,96,201269
1.0264,0.2248,37.3300,75,96,201272
0.8993,0.2151,37.1600,75,96,201275
0.8016,0.2248,37.0300,75,96,201279
0.7478,0.2199,37.0300,75,96,201282
0.7283,0.2151,37.2000,75,96,201285
0.7234,0.2248,37.2600,75,96,201289
0.7283,0.2199,37.2000,75,96,201292
0.7576,0.2346,36.9300,75,96,201295
0.7576,0.2199,37.1300,75,96,201298
0.7722,0.2151,37.2000,75,96,201303
0.7967,0.2199,37.1300,75,96,201306
0.8113,0.1906,37.2300,75,96,201309
0.8358,0.2346,36.9300,75,96,201313
0.8651,0.2151,37.1000,75,96,201316
0.8993,0.2102,37.1600,75,96,201319
0.9433,0.2199,36.4800,74,96,201323
1.0655,0.2199,37.2600,74,96,201326
1.0802,0.2297,37.2000,74,96,201330
1.1388,0.2346,37.0300,74,96,201333
1.0997,0.2199,37.1600,74,96,201336
1.1290,0.2297,37.0600,74,96,201339
1.1290,0.2199,37.1600,74,96,201344
1.1535,0.2102,37.1000,74,96,201347
1.1828,0.2248,37.1000,74,96,201350
1.1877,0.2248,37.1600,74,96,201354
1.2170,0.2199,37.0300,74,96,201357
1.2219,0.2199,37.1300,74,96,201360
1.2659,0.2102,37.2000,74,96,201364
1.2854,0.2297,37.1600,74,96,201367
1.2903,0.2542,37.2000,74,96,201370
1.3343,0.2248,36.9600,74,96,201373
1.3196,0.2151,37.1300,74,96,201377
1.3392,0.2248,37.2000,74,96,201380
1.3636,0.2102,37.1300,74,96,201383
1.3587,0.2248,37.1600,74,96,201388
1.4027,0.2297,36.9300,74,96,201391
1.3636,0.2248,37.1000,74,96,201394
1.3539,0.2151,37.1300,74,96,201398
1.3539,0.2199,37.2600,74,96,201401
1.3490,0.2151,37.1600,74,96,201404
1.3930,0.2102,37.0300,74,96,201408
1.3685,0.2199,37.1600,74,96,201411
1.4321,0.2248,37.1000,74,96,201414
1.4174,0.2199,37.1600,74,96,201418
1.4565,0.2199,37.1600,74,96,201421
1.5054,0.2297,37.0600,74,96,201424
1.4858,0.2199,37.2300,74,96,201427
1.4761,0.2199,37.0600,74,96,201432
1.4272,0.2248,37.2000,74,96,201435
1.4027,0.2199,37.2000,74,96,201438
1.3930,0.2248,37.1000,74,96,201442
1.3734,0.1906,37.2000,74,96,201445
1.3783,0.2199,37.1600,74,96,201448
1.3490,0.2102,37.2000,74,96,201452
1.3441,0.2199,37.2000,74,96,201455
1.3832,0.2248,37.0600,74,96,201458
1.3930,0.2102,37.2000,74,96,201462
1.4418,0.2248,37.0300,74,96,201465
1.4516,0.2199,37.0600,74,96,201468
1.4614,0.2199,37.1600,74,96,201472
1.4907,0.2248,37.0600,74,96,201476
1.5005,0.2542,37.1600,74,96,201479
1.5689,0.2248,36.9300,74,96,201482
1.5689,0.2199,37.1300,74,96,201486
1.5934,0.2199,37.2000,74,96,201489
1.6422,0.2102,37.1600,74,96,201492
1.6373,0.2199,37.2000,74,96,201496
1.7058,0.2395,37.0000,74,96,201499
1.7107,0.2248,37.1600,74,96,201502
1.7351,0.2151,37.1600,74,96,201505
1.7693,0.2151,37.2300,74,96,201509
1.7937,0.2199,37.2000,74,96,201512
1.8719,0.2346,37.0600,74,96,201516
1.8622,0.2248,37.2000,74,96,201520
1.8915,0.2199,37.1000,74,96,201523
1.8915,0.2248,37.1600,74,96,201526
1.9013,0.2199,37.2300,74,96,201530
1.9453,0.2297,37.0300,74,96,201533
1.9257,0.2199,37.2000,74,96,201536
1.9648,0.2297,36.9300,74,96,201540
1.9501,0.2151,37.2300,74,96,201543
1.9599,0.2199,37.2000,74,96,201546
1.9795,0.2248,37.1000,74,96,201549
1.9648,0.2102,37.2300,74,96,201553
2.0039,0.2199,37.1000,74,96,201556
1.9697,0.2199,37.1600,74,96,201560
1.9941,0.2248,37.2300,74,96,201564
1.9892,0.2248,37.3300,74,96,201567
1.9795,0.2151,37.1600,74,96,201570
2.0381,0.2248,37.0000,74,96,201574
2.0088,0.2053,37.1600,74,96,201577
2.0186,0.2102,37.2300,74,96,201580
2.0088,0.2248,37.1300,74,96,201584
1.9550,0.2199,36.4100,74,96,201587
1.9697,0.2248,36.9300,74,96,201590
1.9159,0.2248,37.1000,74,96,201593
1.8915,0.2151,37.2000,74,96,201597
1.8866,0.2199,37.1600,74,96,201601
1.8768,0.2199,37.2000,74,96,201604
1.9306,0.2395,37.0000,74,96,201608
1.8768,0.2248,37.2000,74,96,201611
1.8622,0.2199,37.1600,74,96,201614
1.8182,0.2199,37.2000,74,96,201618
1.7546,0.2199,37.2000,74,96,201621
1.7840,0.2297,37.1000,74,96,201624
1.7791,0.2199,37.1600,74,96,201628
1.8426,0.2199,37.1300,74,96,201631
1.9306,0.2151,37.2000,74,96,201634
2.1212,0.2199,37.2000,74,96,201637
2.4194,0.2248,37.1300,74,96,201641
2.7126,0.2199,37.1600,74,96,201645
3.0547,0.2297,37.1000,74,96,201648
3.2111,0.2248,37.2000,74,96,201652
3.2893,0.2199,37.1600,74,96,201655
3.2160,0.2297,37.1300,74,96,201658
2.9472,0.2248,37.2000,74,96,201662
2.7175,0.2248,37.0300,74,96,201665
2.3998,0.2199,37.1000,74,96,201668
2.1554,0.2199,37.2300,74,96,201671
2.0088,0.2248,37.1300,74,96,201675
1.8817,0.2199,37.2000,74,96,201678
1.8377,0.2297,37.4300,74,96,201681
1.7351,0.2102,37.1300,74,96,201686
1.6716,0.2199,37.2000,74,96,201689
1.6325,0.2493,37.1000,74,96,201692
1.6227,0.2102,37.2000,74,96,201696
1.6080,0.2297,36.8900,74,96,201699
1.5640,0.2542,37.0600,74,96,201702
1.5640,0.2151,37.2000,74,96,201706
1.5640,0.2199,37.2000,74,96,201709
1.5787,0.2542,37.1600,74,96,201712
1.6471,0.2297,37.0000,74,96,201715
1.6373,0.2199,37.4000,74,96,201719
1.6471,0.2199,37.0600,74,96,201722
1.6471,0.2199,37.2000,74,96,201725
1.6471,0.2199,37.0600,74,96,201730
1.6764,0.2395,37.1000,74,96,201733
1.6373,0.2199,37.2300,74,96,201736
1.6667,0.2199,37.0600,74,96,201740
1.6520,0.2199,37.2000,74,96,201743
1.6618,0.2199,37.2000,74,96,201746
1.6862,0.2297,37.0600,74,96,201749
1.6569,0.2248,37.1600,74,96,201753
1.6618,0.2248,37.1000,74,96,201756
1.6276,0.2199,37.3000,74,96,201759
1.6227,0.2395,37.2000,74,96,201763
1.6422,0.2199,37.0600,74,96,201766
1.6325,0.2199,37.2000,74,96,201769
1.6716,0.2199,37.0000,74,96,201774
1.6716,0.2199,37.1600,74,96,201777
1.6862,0.2199,37.3000,74,96,201780
1.7107,0.2199,37.1300,74,96,201784
1.7009,0.2199,37.2000,74,96,201787
1.7546,0.2297,36.9300,74,96,201790
1.7498,0.2248,37.1000,74,96,201793
1.7693,0.2199,37.2000,74,96,201797
1.7937,0.2199,37.1600,74,96,201800
1.7889,0.2248,37.1600,74,96,201803
1.8231,0.2297,36.9600,74,96,201807
1.7937,0.2102,37.1000,74,96,201810
1.7498,0.2151,37.1600,74,96,201814
1.7595,0.2444,37.1600,74,96,201818
1.7791,0.2199,37.2000,74,96,201821
1.8524,0.2346,37.0600,74,96,201824
1.8377,0.2444,37.1600,74,96,201828
1.8475,0.2102,37.1000,74,96,201831
1.8475,0.2199,37.2300,74,96,201834
1.8524,0.2248,37.2000,74,96,201837
1.8719,0.2297,37.1300,74,96,201841
1.8328,0.2248,36.9600,74,96,201844
1.8377,0.2346,37.0600,74,96,201847
1.8133,0.2199,37.2300,74,96,201851
1.8231,0.2248,37.2000,74,96,201854
1.8719,0.2297,37.0600,74,96,201858
1.8622,0.2199,37.1600,74,96,201862
1.9110,0.2199,37.1000,74,96,201865
1.8866,0.2199,37.1600,74,96,201868
1.8866,0.2444,37.2000,74,96,201872
1.9062,0.2248,37.2000,74,96,201875
1.9062,0.2199,37.2000,74,96,201878
1.9550,0.2199,36.9600,74,96,201881
1.9306,0.2199,37.2000,74,96,201885
1.9404,0.2199,37.2000,74,96,201888
1.9697,0.2297,37.1300,74,96,201891
1.9648,0.2248,37.2000,74,96,201895
2.0235,0.2297,36.9300,74,96,201899
1.9990,0.2248,37.1300,74,96,201902
2.0137,0.2102,37.2300,74,96,201906
2.0039,0.2248,37.2000,74,96,201909
1.9746,0.2199,37.2000,74,96,201912
2.0088,0.2395,36.9600,74,96,201915
1.9550,0.2248,37.1000,74,96,201919
1.9453,0.2151,37.1600,74,96,201922
1.9355,0.2199,37.2000,74,96,201925
1.9062,0.2199,37.2000,74,96,201929
1.9110,0.2297,37.0600,74,96,201932
1.7449,0.2346,37.1000,74,96,201936
1.7155,0.2102,37.1600,74,96,201939
1.7155,0.2199,37.1300,74,96,201943
1.6716,0.2395,37.1600,74,96,201947
1.6764,0.2199,37.2000,74,96,201950
1.6862,0.2248,37.0600,74,96,201953
1.6764,0.2199,37.1600,74,96,201957
1.6960,0.2248,37.0000,74,96,201960
1.6667,0.2297,37.2000,74,96,201963
1.6764,0.2199,37.1600,74,96,201966
1.7009,0.2248,37.1300,74,96,201970
1.7009,0.2248,37.1600,74,96,201973
1.7595,0.2346,36.9300,74,96,201976
1.7644,0.2248,37.1000,74,96,201980
1.7742,0.2199,37.3000,74,96,201984
1.7840,0.2248,37.2300,74,96,201987
1.7791,0.2199,36.8300,74,96,201991
1.8035,0.2395,36.9600,74,96,201994
1.7253,0.2248,37.0600,74,96,201997
1.6960,0.2151,37.1600,74,96,202001
1.6764,0.2199,37.1600,74,96,202004
1.6618,0.2199,37.2300,74,96,202007
1.7009,0.2346,37.0300,74,96,202010
1.6862,0.2248,37.1300,74,96,202014
1.6911,0.2199,37.0600,74,96,202017
1.6911,0.2542,37.2000,74,96,202020
1.7058,0.2199,37.2000,74,96,202024
1.7449,0.2297,37.1300,74,96,202028
1.7302,0.2444,37.2000,74,96,202031
1.7546,0.2102,37.0300,74,96,202035
1.7204,0.2199,37.2000,74,96,202038
1.7253,0.2199,37.2300,74,96,202041
1.7644,0.2297,37.0600,74,96,202045
1.7449,0.2248,37.1600,74,96,202048
1.7840,0.2199,37.0300,74,96,202051
1.7840,0.2199,37.1600,74,96,202054
1.8035,0.2248,37.2000,74,96,202058
1.8231,0.2248,37.1300,74,96,202061
1.8231,0.2199,37.1600,74,96,202064
1.8475,0.2199,36.9600,74,96,202068
1.8084,0.2248,37.2300,74,96,202072
1.7889,0.2444,37.2000,74,96,202075
1.7937,0.2102,37.1000,74,96,202079
1.7546,0.2199,37.2000,74,96,202082
1.7840,0.2297,36.9300,74,96,202085
1.7302,0.2199,37.1000,74,96,202089
1.7302,0.2151,37.2000,74,96,202092
1.7302,0.2199,37.1600,74,96,202095
1.7351,0.2199,37.2600,74,96,202098
1.7840,0.2395,37.0000,74,96,202102
1.7498,0.2248,37.1300,74,96,202105
1.7498,0.2199,37.2600,74,96,202108
1.7595,0.2102,37.1600,74,96,202113
1.7644,0.2199,37.2300,74,96,202116
1.8035,0.2346,37.0000,74,96,202119
1.7742,0.2248,37.1600,74,96,202123
1.7840,0.2248,37.0300,74,96,202126
1.7644,0.2199,37.2000,74,96,202129
1.7742,0.2151,37.2000,74,96,202133
1.8133,0.2493,37.0600,74,96,202136
1.8328,0.2248,37.2300,74,96,202139
1.8622,0.2297,37.1000,74,96,202142
1.8280,0.2199,37.2000,74,96,202146
1.8133,0.2248,37.1600,74,96,202149
1.8035,0.2248,37.1000,74,96,202152
1.7693,0.2199,37.0600,74,96,202157
1.7889,0.2444,37.1000,74,96,202160
1.7693,0.2199,37.2000,74,96,202163
1.7791,0.2297,37.2000,74,96,202167
1.8035,0.2297,37.1300,74,96,202170
1.8035,0.2199,37.1600,74,96,202173
1.8377,0.2590,36.9300,74,96,202176
1.8133,0.2199,37.1000,74,96,202180
1.7889,0.2199,37.2000,74,96,202183
1.8231,0.2297,37.1600,74,96,202186
1.8084,0.2199,37.2000,74,96,202190
1.8719,0.2297,36.8600,74,96,202193
1.8475,0.2248,37.1300,74,96,202196
1.8475,0.2151,37.1600,74,96,202201
1.8524,0.2248,37.2000,74,96,202204
1.8426,0.2248,37.2000,74,96,202207
1.8719,0.2395,37.0300,74,96,202211
1.8280,0.2395,37.1300,74,96,202214
1.8182,0.2199,37.1000,74,96,202217
1.8133,0.2199,37.2000,74,96,202220
1.8328,0.2151,37.2000,74,96,202224
1.8817,0.2297,37.1000,74,96,202227
1.8719,0.2248,37.1300,74,96,202230
1.9013,0.2248,37.1000,74,96,202234
1.8768,0.2199,37.1600,74,96,202237
1.8768,0.2248,37.2000,74,96,202241
1.9110,0.2297,37.0600,74,96,202245
1.8768,0.2639,37.1600,74,96,202248
1.9159,0.2248,37.0600,74,96,202251
1.9013,0.2199,37.1300,74,96,202255
1.9062,0.2199,37.3300,74,96,202258
1.9159,0.2248,37.1600,74,96,202261
1.8768,0.2199,37.2300,74,96,202264
1.8768,0.2248,37.0300,74,96,202268
1.8328,0.2199,37.2000,74,96,202271
1.8035,0.2199,37.2600,74,96,202274
1.7986,0.2297,37.1000,74,96,202278
1.7742,0.2199,37.2000,74,96,202281
1.8084,0.2297,36.9300,74,96,202285
1.7742,0.2248,37.1000,74,96,202289
1.7742,0.2199,37.2000,74,96,202292
1.7840,0.2346,37.1600,74,96,202295
1.7742,0.2199,37.2000,74,96,202299
1.8280,0.2395,36.9600,74,96,202302
1.7937,0.2248,37.1600,74,96,202305
1.8182,0.2151,37.1300,74,96,202308
1.8133,0.2248,37.0600,74,96,202312
1.7986,0.2151,37.2000,74,96,202315
1.8328,0.2346,37.0000,74,96,202318
1.7791,0.2248,37.3300,74,96,202322
1.7840,0.2248,37.1000,74,96,202326
1.7693,0.2199,37.2000,74,96,202329
1.7742,0.2199,37.2000,74,96,202333
1.8377,0.2297,37.0600,74,96,202336
1.7986,0.2248,37.1600,74,96,202339
1.8280,0.2248,37.0300,74,96,202342
1.7889,0.2151,37.2000,74,96,202346
1.7546,0.2199,37.2000,74,96,202349
1.7302,0.2248,37.1000,74,96,202352
1.7351,0.2248,37.2300,74,96,202356
1.7449,0.2248,37.1000,74,96,202359
1.7595,0.2102,37.2000,74,96,202362
1.8328,0.2199,37.1600,74,96,202366
1.9990,0.2199,37.1600,74,96,202370
2.2141,0.2199,37.2000,74,96,202373
2.5464,0.2297,36.8900,74,96,202377
2.8104,0.2151,37.0600,74,96,202380
3.0303,0.2248,37.2000,74,96,202383
3.2063,0.2248,37.1600,74,96,202386
3.1916,0.2199,37.2000,74,96,202390
3.1281,0.2395,36.9300,74,96,202393
2.8250,0.2248,37.1000,74,96,202396
2.5464,0.2248,37.1600,74,96,202400
2.2923,0.2248,37.1600,74,96,202403
2.0577,0.2199,37.1300,74,96,202406
1.9501,0.2395,36.9600,74,96,202411
1.8035,0.2297,37.1600,74,96,202414
1.7253,0.2199,37.1600,74,96,202417
1.6764,0.2248,37.1600,74,96,202421
1.6569,0.2199,37.2600,74,96,202424
1.6764,0.2346,37.1000,74,96,202427
1.6276,0.2199,37.1600,74,96,202430
1.6227,0.2248,37.3300,74,96,202434
1.5836,0.2199,37.1600,74,96,202437
1.5591,0.2199,37.2600,74,96,202440
1.5738,0.2297,37.1000,74,96,202444
1.5396,0.2199,37.1600,74,96,202447
1.5885,0.2297,37.0600,74,96,202450
1.5836,0.2102,37.1600,74,96,202455
1.6129,0.1906,37.2000,74,96,202458
1.6422,0.2297,37.1600,74,96,202461
1.6422,0.2102,37.2300,74,96,202465
1.6716,0.2248,37.0000,74,96,202468
1.6373,0.2297,37.1600,74,96,202471
1.6618,0.2199,37.2000,74,96,202474
1.6569,0.2297,37.1000,74,96,202478
1.6520,0.2199,37.2000,74,96,202481
1.7155,0.2395,36.9600,74,96,202484
1.7155,0.2151,37.1600,74,96,202488
1.7449,0.2199,37.2000,74,96,202491
1.7595,0.2248,37.1600,74,96,202494
1.7449,0.2199,37.2600,74,96,202499
1.7840,0.2346,36.8900,74,96,202502
1.7400,0.2248,37.1300,74,96,202505
1.7253,0.2151,37.2000,74,96,202509
1.7253,0.2199,37.1600,74,96,202512
1.7107,0.2199,37.2600,74,96,202515
1.7546,0.2346,37.1000,74,96,202518
1.7204,0.2248,37.1600,74,96,202522
1.7400,0.2199,37.4300,74,96,202525
1.7595,0.2248,37.2300,74,96,202528
1.7791,0.2199,37.2000,74,96,202532
1.8377,0.2297,37.0600,74,96,202535
1.8475,0.2199,37.1600,74,96,202539
1.8915,0.2248,37.0300,74,96,202543
1.8817,0.2199,37.2000,74,96,202546
1.7986,0.2395,37.2000,74,96,202550
1.8182,0.2199,37.1600,74,96,202553
1.8377,0.2297,37.1000,74,96,202556
1.8377,0.2248,37.2300,74,96,202560
1.9062,0.2297,36.9600,74,96,202563
1.8964,0.2346,37.1000,74,96,202566
1.8915,0.2102,37.2000,74,96,202569
1.9062,0.2248,37.2000,74,96,202573
1.8964,0.2395,37.2600,74,96,202576
1.9550,0.2346,36.9300,74,96,202579
1.9062,0.2297,37.1300,74,96,202584
1.8964,0.2199,37.1300,74,96,202587
1.9013,0.2248,37.1600,74,96,202590
1.9013,0.2199,37.2000,74,96,202594
1.9697,0.2395,37.0300,74,96,202597
1.9355,0.2297,37.1300,74,96,202600
1.9355,0.2199,37.1000,74,96,202604
1.9306,0.2248,37.1600,74,96,202607
1.9453,0.2199,37.2000,74,96,202610
1.9941,0.2395,37.1600,74,96,202613
1.9990,0.2248,37.1600,74,96,202617
2.0381,0.2248,37.0600,74,96,202620
2.0137,0.2199,37.2000,74,96,202624
2.0186,0.2199,37.2600,74,96,202628
2.0577,0.2297,37.0000,74,96,202631
2.0283,0.2199,37.1600,74,96,202634
2.0235,0.2248,37.1000,74,96,202638
1.9746,0.2199,37.1300,74,96,202641
1.9453,0.2248,37.2300,74,96,202644
1.9404,0.2248,37.0600,74,96,202648
1.9208,0.2199,37.3000,74,96,202651
1.9599,0.2542,36.9600,74,96,202654
1.9404,0.2199,37.1600,74,96,202657
1.9501,0.2199,37.2000,74,96,202661
1.9501,0.2590,37.1300,74,96,202664
1.9013,0.2199,37.2000,74,96,202668
1.8964,0.2297,36.9600,74,96,202672
1.8182,0.2151,37.1300,74,96,202675
1.8133,0.2199,37.2000,74,96,202678
1.8231,0.2248,37.2000,74,96,202682
1.8035,0.2199,37.2300,74,96,202685
1.8377,0.2395,36.9600,74,96,202688
1.7889,0.2444,37.1000,74,96,202691
1.7693,0.2151,37.1600,74,96,202695
1.7595,0.2248,37.3300,74,96,202698
1.7546,0.2248,37.2300,74,96,202701
1.7840,0.2297,37.0300,74,96,202705
1.7302,0.2248,37.1600,74,96,202708
1.7253,0.2199,37.1000,74,96,202712
1.7058,0.2199,37.2000,74,96,202716
1.7107,0.2199,37.3000,74,96,202719
1.7791,0.2248,37.0600,74,96,202722
1.7498,0.2248,37.1600,74,96,202726
1.7840,0.2297,37.0600,74,96,202729
1.7595,0.2151,37.2000,74,96,202732
1.7449,0.2199,37.2000,74,96,202735
1.7302,0.2199,37.1000,74,96,202739
1.7107,0.2199,37.2000,74,96,202742
1.7107,0.2199,37.0600,74,96,202745
1.6764,0.2297,37.1600,74,96,202749
1.7253,0.2102,37.2000,74,96,202753
1.7351,0.2297,37.0600,74,96,202756
1.7253,0.2248,37.2000,74,96,202760
1.7693,0.2248,37.0600,74,96,202763
1.7595,0.2248,37.1300,74,96,202766
1.7595,0.2199,37.2000,74,96,202769
1.7791,0.2248,37.1300,74,96,202773
1.7693,0.2199,37.3000,74,96,202776
1.8035,0.2395,36.9300,74,96,202779
1.7546,0.2248,37.2000,74,96,202783
1.7400,0.2199,37.4000,74,96,202786
1.7449,0.2346,37.1600,74,96,202789
1.7400,0.2199,37.2300,74,96,202793
1.7986,0.2395,36.8900,74,96,202797
1.7693,0.2199,37.1000,74,96,202800
1.7595,0.2151,37.1300,74,96,202804
1.7595,0.2493,37.2000,74,96,202807
1.7693,0.2199,37.1600,74,96,202810
1.8182,0.2346,37.1000,74,96,202813
1.8035,0.2199,37.1300,74,96,202817
1.8084,0.2248,37.1300,74,96,202820
1.7742,0.2248,37.2000,74,96,202823
1.7595,0.2199,37.2000,74,96,202827
1.7742,0.2297,37.1000,74,96,202830
1.7840,0.2102,37.1600,74,96,202833
1.7791,0.2297,37.0600,74,96,202838
1.7498,0.2199,37.2000,74,96,202841
1.7546,0.2199,37.2000,74,96,202844
1.7742,0.2248,37.1300,74,96,202848
1.7742,0.2199,37.4000,74,96,202851
1.8084,0.2199,37.0300,74,96,202854
1.7889,0.2199,37.1600,74,96,202857
1.7889,0.2199,37.1600,74,96,202861
1.8035,0.2199,37.1000,74,96,202864
1.7937,0.2102,37.2000,74,96,202867
1.8231,0.2248,36.9600,74,96,202871
1.7986,0.2151,37.1600,74,96,202874
1.7889,0.2199,37.1600,74,96,202877
1.7791,0.2248,37.2300,74,96,202882
1.7351,0.2199,37.2300,74,96,202885
1.7595,0.2297,36.9600,74,96,202888
1.7302,0.2102,37.1600,74,96,202892
1.7204,0.2151,37.2300,74,96,202895
1.7449,0.2102,37.1600,74,96,202898
1.7449,0.2199,37.2000,74,96,202901
1.8035,0.2395,37.0000,74,96,202905
1.7693,0.2199,37.1600,74,96,202908
1.7644,0.2199,37.1000,74,96,202911
1.7546,0.2199,37.1600,74,96,202915
1.7791,0.2248,37.2000,74,96,202918
1.7791,0.2297,37.0600,74,96,202921
1.7546,0.2248,37.1600,74,96,202926
1.7742,0.2248,37.1000,74,96,202929
1.7595,0.2199,37.2000,74,96,202932
1.7742,0.2199,37.2000,74,96,202936
1.8280,0.2102,37.1600,74,96,202939
1.7840,0.2199,37.1600,74,96,202942
1.7986,0.2297,37.0600,74,96,202945
1.7840,0.2102,37.2000,74,96,202949
1.7595,0.2199,37.2000,74,96,202952
1.7840,0.2297,37.1300,74,96,202955
1.7546,0.2199,37.1600,74,96,202959
1.7693,0.2248,37.0600,74,96,202962
1.7400,0.2199,37.1300,74,96,202966
1.7302,0.2199,37.2000,74,96,202970
1.7449,0.2297,37.0300,74,96,202973
1.7449,0.2248,37.2300,74,96,202976
1.8084,0.2297,36.9600,74,96,202979
1.7840,0.2248,36.7300,74,96,202983
1.7840,0.2199,37.2000,74,96,202986
1.8280,0.2297,37.1300,74,96,202989
1.7644,0.2199,37.2300,74,96,202993
1.8182,0.2493,36.9600,74,96,202996
1.7889,0.2199,37.1000,74,96,202999
1.7840,0.2151,37.1300,74,96,203003
1.7889,0.2248,37.1600,74,96,203006
1.7791,0.2199,37.2000,74,96,203010
1.8328,0.2444,37.0000,74,96,203014
1.8182,0.2248,37.1600,74,96,203017
1.8377,0.2199,37.1000,74,96,203020
1.8524,0.2199,37.2000,74,96,203023
1.8671,0.2199,37.2000,74,96,203027
1.9062,0.2297,37.2300,74,96,203030
1.8671,0.2199,37.1600,74,96,203033
1.8671,0.2248,37.4000,74,96,203037
1.8133,0.2248,37.3600,74,96,203040
1.7889,0.2199,37.2000,74,96,203043
1.7889,0.2297,37.0000,74,96,203047
1.7546,0.2248,37.1300,74,96,203051
1.7840,0.2248,37.1000,74,96,203054
1.7546,0.2199,37.1600,74,96,203057
1.7644,0.2199,37.2000,74,96,203061
1.7840,0.2199,37.1000,74,96,203064
1.7644,0.2248,37.2000,74,96,203067
1.7840,0.2248,36.9300,74,96,203071
1.7449,0.2199,37.2000,74,96,203074
1.7400,0.2199,37.1600,74,96,203077
1.7400,0.2248,37.1000,74,96,203081
1.6960,0.2199,37.2000,74,96,203084
1.7302,0.2297,36.9300,74,96,203087
1.7107,0.2248,37.1000,74,96,203091
1.7155,0.2151,37.2300,74,96,203095
1.7302,0.2248,37.1600,74,96,203098
1.7253,0.2248,37.2300,74,96,203101
1.7644,0.2297,36.9600,74,96,203105
1.7058,0.2199,37.1300,74,96,203108
1.6862,0.2151,37.1300,74,96,203111
1.6911,0.2346,37.2000,74,96,203115
1.7009,0.2248,37.2000,74,96,203118
1.7498,0.2297,37.0300,74,96,203121
1.7302,0.2297,37.1600,74,96,203125
1.7351,0.2199,37.1300,74,96,203128
1.6960,0.2199,36.9300,74,96,203131
1.6716,0.2102,37.2000,74,96,203136
1.6618,0.2297,36.3200,74,96,203139
1.6373,0.2297,37.2300,74,96,203142
1.6764,0.2297,37.0300,74,96,203145
1.6862,0.2199,37.0600,74,96,203149
1.7889,0.2248,37.2000,74,96,203152
2.0039,0.2297,37.1000,74,96,203155
3.0450,0.2297,37.1600,74,96,203159
2.9765,0.2102,37.1600,74,96,203162
2.8788,0.2297,36.9600,74,96,203166
2.5904,0.2248,37.1300,74,96,203169
2.3118,0.2199,37.2000,74,96,203172
2.0919,0.2248,37.1300,74,96,203176
1.9013,0.2199,37.2000,74,96,203180
1.8377,0.2395,36.9600,74,96,203183
1.7107,0.2199,37.1000,74,96,203187
1.6422,0.2102,37.1300,74,96,203190
1.6031,0.2248,37.1600,74,96,203193
1.5934,0.2248,37.1600,74,96,203196
1.6031,0.2346,37.1000,74,96,203200
1.5640,0.2248,37.1600,74,96,203203
1.5885,0.2199,37.0600,74,96,203206
1.5298,0.2199,37.2600,74,96,203210
1.5200,0.2199,37.3300,74,96,203213
1.5494,0.2346,37.0300,74,96,203216
1.5103,0.2199,37.2000,74,96,203220
1.5298,0.2199,37.1000,74,96,203224
1.5152,0.2248,37.2300,74,96,203227
1.5298,0.2199,37.1600,74,96,203231
1.5738,0.2297,37.1000,74,96,203234
1.5787,0.2199,37.2000,74,96,203237
1.6227,0.2199,37.0600,74,96,203240
1.5934,0.2248,37.2300,74,96,203244
1.5787,0.2199,37.2000,74,96,203247
1.5787,0.2248,37.0300,74,96,203250
1.5591,0.2151,37.2000,74,96,203254
1.6031,0.2248,37.0000,74,96,203257
1.5934,0.2151,37.2000,74,96,203260
1.6178,0.2199,37.2000,74,96,203265
1.6373,0.2297,37.2000,74,96,203268
1.6667,0.2102,37.2000,74,96,203271
1.6764,0.2297,36.9300,74,96,203275
1.6471,0.2542,37.1600,74,96,203278
1.6325,0.2199,37.2000,74,96,203281
1.6373,0.2493,37.2300,74,96,203284
1.6471,0.2199,37.2000,74,96,203288
1.7058,0.2395,37.1600,74,96,203291
1.6960,0.2248,37.1300,74,96,203294
1.6960,0.2199,37.1000,74,96,203298
1.7058,0.2248,37.1000,74,96,203301
1.7204,0.2395,37.1600,74,96,203304
1.7791,0.2346,37.0600,74,96,203309
1.7546,0.2248,37.1600,74,96,203312
1.7693,0.2248,37.0600,74,96,203315
1.7546,0.2102,37.2000,74,96,203319
1.7595,0.2199,37.0600,74,96,203322
1.7840,0.2248,37.1600,74,96,203325
1.7644,0.2248,37.2000,74,96,203328
1.7889,0.2297,37.1600,74,96,203332
1.7644,0.2199,37.2000,74,96,203335
1.7644,0.2199,36.6700,74,96,203338
1.7986,0.2395,37.1000,74,96,203342
1.7889,0.2199,37.3000,74,96,203345
1.8328,0.2444,37.0300,74,96,203348
1.8280,0.2102,37.1600,74,96,203353
1.8426,0.2199,37.2000,74,96,203356
1.8573,0.2297,37.2300,74,96,203359
1.8426,0.1906,37.1600,74,96,203363
1.8817,0.2297,36.8900,74,96,203366
1.8475,0.2199,37.1300,74,96,203369
1.8475,0.2199,37.3000,74,96,203372
1.8671,0.2542,37.1300,74,96,203376
1.8719,0.2199,37.2000,74,96,203379
1.9404,0.2346,36.9300,74,96,203382
1.9159,0.2199,37.1000,74,96,203386
1.9208,0.2151,37.2300,74,96,203389
1.9306,0.2346,37.1600,74,96,203393
1.9257,0.2199,37.2000,74,96,203397
1.9746,0.2688,37.0000,74,96,203400
1.9404,0.2199,37.1300,74,96,203403
1.9550,0.2248,37.1000,74,96,203407
1.9453,0.2199,37.1600,74,96,203410
1.9550,0.1906,37.2000,74,96,203413
1.9941,0.2297,37.0000,74,96,203416
1.9453,0.2199,37.2000,74,96,203420
1.9453,0.2102,37.0300,74,96,203423
1.9257,0.2199,37.2000,74,96,203426
1.9208,0.2199,37.1300,74,96,203430
1.9355,0.2102,37.1300,74,96,203433
1.8866,0.2248,37.2000,74,96,203437
1.8817,0.2199,37.1000,74,96,203441
1.8182,0.2199,37.2000,74,96,203444
1.8035,0.2199,37.2000,74,96,203447
1.7937,0.2248,37.0300,74,96,203450
1.7595,0.2395,37.1600,74,96,203454
1.7791,0.2248,37.0000,74,96,203457
1.7302,0.2199,37.1600,74,96,203460
1.7302,0.2151,37.2000,74,96,203464
1.7351,0.2297,37.1300,74,96,203467
1.7107,0.2199,37.2000,74,96,203470
1.7302,0.2297,37.0000,74,96,203474
1.6862,0.2248,36.2800,74,96,203478
1.6618,0.2248,37.2300,74,96,203481
1.6618,0.2248,37.0600,74,96,203485
1.6569,0.2444,37.2000,74,96,203488
1.7058,0.2395,36.9300,74,96,203491
1.6618,0.2248,37.3300,74,96,203495
1.6569,0.2199,37.1300,74,96,203498
1.6667,0.2248,37.1600,74,96,203501
1.6716,0.2199,37.0600,74,96,203504
1.7107,0.2444,37.0300,74,96,203508
1.6813,0.2248,37.2300,74,96,203511
1.6764,0.2248,37.0300,74,96,203514
1.6569,0.2199,37.1600,74,96,203518
1.6569,0.2199,37.2000,74,96,203522
1.6862,0.2199,37.1600,74,96,203525
1.6618,0.2248,37.2000,74,96,203529
1.6716,0.2297,37.0000,74,96,203532
1.6422,0.2199,37.1600,74,96,203535
1.6520,0.2199,37.3000,74,96,203538
1.6911,0.2297,37.0300,74,96,203542
1.6813,0.2199,37.2000,74,96,203545
1.7302,0.2199,37.1300,74,96,203548
1.7351,0.2737,37.1600,74,96,203552
1.7498,0.2199,37.2000,74,96,203555
1.7742,0.2297,37.1000,74,96,203558
1.7546,0.2102,37.2000,74,96,203563
1.7840,0.2297,37.0000,74,96,203566
1.7400,0.2248,37.1300,74,96,203569
1.7155,0.2151,37.2000,74,96,203573
1.7204,0.2297,37.1600,74,96,203576
1.7058,0.2199,37.1300,74,96,203579
1.7546,0.2346,36.9300,74,96,203582
1.7204,0.2199,37.1300,74,96,203586
1.7155,0.2151,37.1600,74,96,203589
1.7400,0.2248,37.1600,74,96,203592
1.7498,0.2199,37.2000,74,96,203596
1.8231,0.2395,37.0000,74,96,203599
1.7986,0.2297,36.2800,74,96,203602
1.7889,0.2199,37.1600,74,96,203607
1.7644,0.2199,37.2300,74,96,203610
1.7498,0.2297,37.1600,74,96,203613
1.7791,0.2346,37.0600,74,96,203617
1.7595,0.2248,37.1300,74,96,203620
1.8035,0.2248,37.0600,74,96,203623
1.7840,0.2199,37.1600,74,96,203626
1.7889,0.2199,37.2300,74,96,203630
1.8328,0.2297,37.2300,74,96,203633
1.7693,0.2199,37.1600,74,96,203636
1.7840,0.2248,37.0600,74,96,203640
1.7546,0.2248,37.2000,74,96,203643
1.7595,0.2199,37.2600,74,96,203646
1.7693,0.2199,37.0600,74,96,203651
1.7644,0.2248,37.2300,74,96,203654
1.7986,0.2199,37.0600,74,96,203657
1.7791,0.2199,37.2600,74,96,203661
1.7840,0.2199,37.2300,74,96,203664
1.7986,0.2297,37.1000,74,96,203667
1.7742,0.2248,37.1600,74,96,203670
1.8182,0.2297,36.9300,74,96,203674
1.8035,0.2248,37.1000,74,96,203677
1.7986,0.2346,37.2000,74,96,203680
1.8231,0.2248,37.1600,74,96,203684
1.8231,0.2199,37.2000,74,96,203687
1.8768,0.2346,36.9300,74,96,203691
1.8182,0.2151,37.2300,74,96,203695
1.8035,0.2151,37.1600,74,96,203698
1.7986,0.2199,37.1600,74,96,203701
1.7791,0.2199,37.1600,74,96,203705
1.8133,0.2346,37.0300,74,96,203708
1.7889,0.2248,37.1600,74,96,203711
1.8084,0.2199,37.1000,74,96,203714
1.8133,0.1906,37.2000,74,96,203718
1.8133,0.2199,37.1300,74,96,203721
1.8328,0.2248,37.1000,74,96,203724
1.7986,0.2199,37.2000,74,96,203728
1.8084,0.2248,37.0600,74,96,203731
1.7889,0.2199,37.2300,74,96,203735
1.7937,0.2199,37.2000,74,96,203739
1.8328,0.2297,37.0600,74,96,203742
1.8084,0.2199,37.2000,74,96,203745
1.8328,0.2199,37.2000,74,96,203749
1.8035,0.2346,37.1300,74,96,203752
1.8133,0.2199,37.2000,74,96,203755
1.8328,0.2297,37.1000,74,96,203758
1.8328,0.2102,37.2000,74,96,203762
1.8573,0.2248,36.9600,74,96,203765
1.8768,0.2297,37.3000,74,96,203769
1.8475,0.2248,37.0600,74,96,203772
1.8426,0.2151,37.1600,74,96,203776
1.8328,0.2199,37.3600,74,96,203780
1.8426,0.2199,37.2000,74,96,203783
1.8622,0.2297,37.1000,74,96,203786
1.8328,0.2248,37.1600,74,96,203790
1.8475,0.2199,37.1000,74,96,203793
1.8426,0.2199,37.2600,74,96,203796
1.8524,0.2199,37.2600,74,96,203800
1.8915,0.2346,37.0300,74,96,203803
1.8573,0.2151,37.2000,74,96,203806
1.8817,0.2102,37.0600,74,96,203809
1.8524,0.2199,37.2000,74,96,203813
1.8573,0.2199,37.3600,74,96,203816
1.8915,0.2102,37.1600,74,96,203820
1.8817,0.2199,37.2600,74,96,203824
1.9257,0.2199,37.0300,74,96,203827
1.9404,0.2199,37.2000,74,96,203830
1.9208,0.2199,37.2600,74,96,203834
1.9404,0.2199,37.0600,74,96,203837
1.9404,0.2248,37.2300,74,96,203840
1.9355,0.2248,36.9600,74,96,203844
1.8866,0.2151,37.2000,74,96,203847
1.9062,0.2102,37.2000,74,96,203850
1.8622,0.2248,37.1300,74,96,203853
1.8231,0.2151,37.2000,74,96,203857
1.8524,0.2297,36.9300,74,96,203860
1.8182,0.2248,37.0600,74,96,203864
1.8182,0.2151,37.2000,74,96,203868
1.8328,0.2199,37.1300,74,96,203871
1.8280,0.2248,37.2300,74,96,203874
1.8768,0.2395,36.9600,74,96,203878
1.8133,0.2493,37.1600,74,96,203881
1.7937,0.2151,37.1000,74,96,203884
1.7742,0.2199,37.2000,74,96,203888
1.7693,0.2053,37.2000,74,96,203891
1.8231,0.2297,37.1000,74,96,203894
1.8035,0.2248,36.3800,74,96,203897
1.8182,0.2199,37.0300,74,96,203901
1.8182,0.2102,37.1600,74,96,203905
1.8035,0.2199,37.3300,74,96,203908
1.8182,0.2199,37.1600,74,96,203912
1.8035,0.2199,37.1600,74,96,203915
1.8328,0.2297,37.1300,74,96,203918
1.8231,0.2199,37.2000,74,96,203922
1.8280,0.2199,37.4000,74,96,203925
1.8328,0.2493,37.1000,74,96,203928
1.7546,0.2199,37.2000,74,96,203932
1.7302,0.2199,37.0600,74,96,203935
1.6911,0.2248,37.1600,74,96,203938
1.7009,0.2199,37.2300,74,96,203941
1.7595,0.2248,37.0600,74,96,203945
1.8377,0.2151,37.1600,74,96,203949
2.0381,0.2248,36.9600,74,96,203952
2.2287,0.2248,37.1600,74,96,203956
2.4829,0.2199,37.1600,74,96,203959
2.7761,0.2248,37.1000,74,96,203962
2.9765,0.2199,37.2000,74,96,203966
3.2356,0.2346,36.8900,74,96,203969
3.1476,0.2199,37.0600,74,96,203972
2.9961,0.2102,37.2300,74,96,203976
2.7810,0.2248,37.1600,74,96,203979
2.5122,0.2199,37.2000,74,96,203982
2.3265,0.2395,37.0000,74,96,203985
2.0723,0.2248,37.1300,74,96,203990
1.9159,0.2248,37.1600,74,96,203993
1.7937,0.2199,37.2000,74,96,203996
1.7155,0.2199,37.2000,74,96,204000
1.7107,0.2346,37.0300,74,96,204003
1.6667,0.2199,37.1600,74,96,204006
1.6764,0.2444,37.1000,74,96,204010
1.6520,0.2102,37.1600,74,96,204013
1.6618,0.2199,37.2600,74,96,204016
1.6911,0.2297,37.1300,74,96,204019
1.7058,0.2102,37.1600,74,96,204023
1.6960,0.2248,37.0600,74,96,204026
1.6520,0.2199,37.1600,74,96,204029
1.6618,0.2151,37.2000,74,96,204034
1.6618,0.2248,37.2600,74,96,204037
1.6569,0.2248,37.1600,74,96,204040
1.6911,0.2102,37.0000,74,96,204044
1.6520,0.2444,37.2000,74,96,204047
1.6764,0.2199,37.2000,74,96,204050
1.6764,0.2248,37.1600,74,96,204054
1.7058,0.2102,37.1600,74,96,204057
1.7253,0.2297,36.9600,74,96,204060
1.7058,0.2346,37.1300,74,96,204064
1.7009,0.2102,37.2300,74,96,204067
1.7058,0.2248,37.2300,74,96,204070
1.7009,0.2248,37.2300,74,96,204073
1.7644,0.2395,36.9600,74,96,204078
1.7449,0.2297,37.1300,74,96,204081
1.7791,0.2102,37.1300,74,96,204084
1.8035,0.2199,37.4000,74,96,204088
1.8133,0.2297,37.2600,74,96,204091
1.8573,0.2346,37.0600,74,96,204094
1.8182,0.2248,37.2300,74,96,204098
1.8133,0.2199,37.0600,74,96,204101
1.7986,0.1906,37.1600,74,96,204104
1.7986,0.2199,37.2300,74,96,204107
1.8133,0.2297,37.1000,74,96,204111
1.7986,0.2199,37.1600,74,96,204114
1.8231,0.2248,37.0600,74,96,204118
1.8035,0.1906,37.1600,74,96,204122
1.8231,0.2199,37.2300,74,96,204125
1.8719,0.2248,37.0600,74,96,204128
1.8475,0.2199,37.1600,74,96,204132
1.8719,0.2346,37.0000,74,96,204135
1.8671,0.2102,37.1300,74,96,204138
1.8671,0.2199,37.2000,74,96,204142
1.8915,0.2248,37.1000,74,96,204145
1.8817,0.2199,37.2300,74,96,204148
1.9208,0.2248,37.0000,74,96,204152
1.8964,0.2199,37.1300,74,96,204155
1.8866,0.2199,37.2000,74,96,204158
1.9110,0.2248,37.1300,74,96,204162
1.9062,0.2199,37.1600,74,96,204166
1.9892,0.2297,37.0000,74,96,204169
1.9599,0.2151,37.1600,74,96,204172
1.9599,0.2151,37.2000,74,96,204176
1.9648,0.2493,37.1600,74,96,204179
1.9599,0.2199,37.2000,74,96,204182
2.0186,0.2395,37.0000,74,96,204186
1.9844,0.2395,37.1600,74,96,204189
2.0137,0.2199,37.1000,74,96,204192
2.0039,0.2395,37.1600,74,96,204196
2.0137,0.2248,37.1600,74,96,204199
2.0528,0.2346,37.0300,74,96,204203
2.0235,0.2199,37.2000,74,96,204206
2.0430,0.2248,37.0600,74,96,204210
2.0186,0.2199,37.2000,74,96,204213
2.0137,0.2248,37.2000,74,96,204216
2.0479,0.2297,37.1000,74,96,204220
2.0381,0.2199,37.2000,74,96,204223
2.0870,0.2346,37.1000,74,96,204226
