ecg,gsr,temp,hr,spo2,timest
1.7742,0.3030,38.6800,88,92,128518
1.7595,0.2884,38.7400,88,92,128521
1.7986,0.3030,38.4600,88,92,128525
1.7498,0.2933,38.6500,88,92,128528
1.7400,0.2835,38.6500,88,92,128531
1.7351,0.2933,38.7100,88,92,128535
1.7204,0.2884,38.7100,88,92,128538
1.7791,0.3079,38.5200,88,92,128541
1.7498,0.2981,38.8700,88,92,128544
1.7595,0.2884,38.6200,88,92,128548
1.7644,0.2884,38.7100,88,92,128551
1.7595,0.2835,38.7400,88,92,128555
1.8035,0.3030,38.5200,88,92,128559
1.8133,0.2933,38.9000,88,92,128562
1.9208,0.2981,38.6200,88,92,128565
2.0430,0.2884,38.7100,88,92,128569
2.1896,0.2884,38.7400,88,92,128572
2.3314,0.2981,38.6200,88,92,128575
2.3460,0.2981,38.7100,88,92,128578
2.3900,0.2981,38.6200,88,92,128582
2.2532,0.2884,38.7100,88,92,128585
2.1065,0.3226,38.7100,88,92,128588
1.9453,0.2933,38.6500,88,92,128592
1.7498,0.2884,38.7100,88,92,128595
1.5738,0.2933,38.5200,88,92,128599
1.3587,0.2884,38.7100,88,92,128603
1.2317,0.2933,38.7100,88,92,128606
1.1046,0.2981,38.7400,88,92,128609
1.0557,0.2981,38.7400,88,92,128613
1.1241,0.2981,38.4900,88,92,128616
1.2366,0.2933,37.9000,88,92,128619
1.3881,0.2835,38.7100,88,92,128622
1.5689,0.2981,38.7100,88,92,128626
1.6813,0.3079,38.7100,88,92,128629
1.8231,0.3030,38.4000,88,92,128632
1.8475,0.2933,38.5500,88,92,128636
1.8964,0.2786,38.6800,88,92,128640
1.8768,0.2933,38.7100,88,92,128643
1.8768,0.2884,38.7400,88,92,128647
1.9355,0.3079,38.5200,88,92,128650
1.9062,0.2933,38.9000,88,92,128653
1.9208,0.2981,38.6800,88,92,128657
1.9355,0.2688,38.6800,88,92,128660
1.9404,0.2884,38.7100,88,92,128663
1.9697,0.2981,38.6200,88,92,128666
1.9453,0.2933,38.7100,88,92,128670
1.9550,0.3030,38.6800,88,92,128673
1.9208,0.2884,38.7100,88,92,128676
1.9062,0.2884,38.6800,88,92,128680
1.9159,0.3030,38.5500,88,92,128684
1.8768,0.2933,38.6800,88,92,128687
1.9013,0.2933,38.6800,88,92,128691
1.8768,0.2884,38.6800,88,92,128694
1.8817,0.2884,38.7100,88,92,128697
1.9062,0.2981,38.5800,88,92,128701
1.8817,0.2884,38.7100,88,92,128704
1.9159,0.2933,38.5500,88,92,128707
1.9013,0.2884,38.6500,88,92,128710
1.8866,0.2884,38.7400,88,92,128714
1.9159,0.2884,38.6200,88,92,128717
1.8719,0.2884,38.8100,88,92,128720
1.9159,0.2981,38.4600,88,92,128724
1.8866,0.2884,38.6800,88,92,128728
1.8964,0.2835,38.7400,88,92,128731
1.9013,0.2933,38.7100,88,92,128735
1.8768,0.2835,38.7100,88,92,128738
1.9257,0.3079,38.4600,88,92,128741
1.8817,0.2933,38.6500,88,92,128745
1.9062,0.2884,38.6800,88,92,128748
1.8768,0.2933,38.7700,88,92,128751
1.8671,0.3226,38.7400,88,92,128754
1.9208,0.3030,38.5500,88,92,128758
1.8964,0.2884,38.6500,88,92,128761
1.9306,0.2933,38.5800,88,92,128764
1.8817,0.2884,38.7400,88,92,128769
1.8622,0.3226,38.7100,88,92,128772
1.8719,0.2981,38.5800,88,92,128775
1.8280,0.2933,38.7400,88,92,128779
1.8475,0.2884,38.5500,88,92,128782
1.8377,0.2884,38.7700,88,92,128785
1.8475,0.2884,38.6200,88,92,128788
1.8573,0.2933,38.6500,88,92,128792
1.8377,0.2884,38.5500,88,92,128795
1.8475,0.3226,38.5500,88,92,128798
1.8035,0.2884,38.7400,88,92,128802
1.7986,0.2884,38.8700,88,92,128805
1.8182,0.2933,38.6200,88,92,128808
1.8084,0.2884,38.7100,88,92,128813
1.8426,0.3275,38.5500,88,92,128816
1.8231,0.2981,38.6500,88,92,128819
1.8133,0.2884,38.7100,88,92,128823
1.8426,0.2981,38.6200,88,92,128826
1.8328,0.2884,38.6200,88,92,128829
1.9013,0.3030,38.4600,88,92,128832
1.8817,0.2933,38.5800,88,92,128836
1.8768,0.2884,38.9000,88,92,128839
1.8866,0.3226,38.6800,88,92,128842
1.8817,0.2933,38.7100,88,92,128846
1.9355,0.3079,37.8000,88,92,128849
1.9013,0.2981,38.6500,88,92,128852
1.9062,0.2884,38.6500,88,92,128857
1.9110,0.2981,38.7100,88,92,128860
1.9110,0.2884,38.7400,88,92,128863
1.9697,0.3079,38.5800,88,92,128867
1.9404,0.2884,38.6800,88,92,128870
1.9697,0.2933,38.5800,88,92,128873
1.9550,0.2933,38.7100,88,92,128876
1.9599,0.2884,38.7400,88,92,128880
1.9892,0.3079,38.5500,88,92,128883
1.9599,0.2688,38.6800,88,92,128886
1.9599,0.2981,38.7100,88,92,128890
1.9013,0.2884,38.6800,88,92,128893
1.8768,0.2884,38.7100,88,92,128897
1.8671,0.2933,38.5800,88,92,128901
1.8231,0.2884,38.7100,88,92,128904
1.8426,0.2933,38.5500,88,92,128907
1.8280,0.2884,38.6500,88,92,128911
1.8280,0.2884,38.7700,88,92,128914
1.8475,0.3030,38.6800,88,92,128917
1.8280,0.2884,38.7100,88,92,128920
1.8671,0.2981,38.5200,88,92,128924
1.8377,0.2884,38.6800,88,92,128927
1.8377,0.2884,38.7100,88,92,128930
1.8622,0.3421,38.6500,88,92,128934
1.8524,0.2884,38.7700,88,92,128937
1.8915,0.3030,38.4600,88,92,128941
1.8377,0.3030,38.6200,88,92,128945
1.8182,0.2835,38.7100,88,92,128948
1.8231,0.3177,38.6800,88,92,128951
1.8475,0.2884,38.7100,88,92,128954
1.8866,0.3079,38.5500,88,92,128958
1.8524,0.3030,38.6800,88,92,128961
1.8280,0.2933,38.6500,88,92,128964
1.8182,0.2884,38.5500,88,92,128968
1.8035,0.3177,38.7400,88,92,128971
1.8377,0.2981,38.5500,88,92,128974
1.8182,0.2933,38.7100,88,92,128978
1.8426,0.2884,38.5800,88,92,128982
1.8182,0.2884,38.7100,88,92,128985
1.8231,0.2688,38.7100,88,92,128989
1.8426,0.2981,38.5800,88,92,128992
1.8328,0.2933,38.7100,88,92,128995
1.8573,0.3030,38.5800,88,92,128998
1.8133,0.3030,38.7400,88,92,129002
1.8084,0.2933,38.7100,88,92,129005
1.8328,0.2981,38.5800,88,92,129008
1.8133,0.2981,38.7100,88,92,129012
1.8475,0.2933,38.5800,88,92,129015
1.8328,0.2933,38.6200,88,92,129018
1.8231,0.2884,38.7100,88,92,129022
1.8524,0.3079,38.6200,88,92,129026
1.8377,0.2884,38.7100,88,92,129029
1.8915,0.2981,38.4900,88,92,129033
1.8719,0.2884,38.5800,88,92,129036
1.8622,0.2884,38.7400,88,92,129039
1.8622,0.2933,38.7100,88,92,129042
1.8328,0.2933,38.7400,88,92,129046
1.8719,0.3030,38.4300,88,92,129049
1.8133,0.2884,38.6800,88,92,129052
1.7986,0.2835,38.6500,88,92,129056
1.7986,0.2933,38.5800,88,92,129059
1.7840,0.2884,38.7400,88,92,129062
1.8524,0.3079,38.5500,88,92,129067
1.8328,0.3275,38.6500,88,92,129070
1.8573,0.2884,38.6200,88,92,129073
1.8524,0.3372,38.6800,88,92,129077
1.8622,0.2884,38.7100,88,92,129080
1.8817,0.3030,38.5200,88,92,129083
1.8426,0.2884,38.6800,88,92,129086
1.8524,0.2933,38.5500,88,92,129090
1.8182,0.2884,38.7100,88,92,129093
1.8475,0.2884,38.7400,88,92,129096
1.8475,0.3030,38.6500,88,92,129100
1.8182,0.3030,38.7100,88,92,129103
1.8866,0.2884,38.5800,88,92,129106
1.8328,0.2981,38.4900,88,92,129111
1.9550,0.2884,38.6800,88,92,129115
1.9648,0.2884,38.6800,88,92,129119
1.9795,0.2981,38.6800,88,92,129122
1.9648,0.2884,38.7400,88,92,129125
2.0039,0.3030,38.4000,88,92,129128
1.9453,0.3275,38.6500,88,92,129132
1.9110,0.2688,38.7100,88,92,129135
1.9013,0.2933,38.6800,88,92,129138
1.8817,0.2933,38.7400,88,92,129142
1.9306,0.3079,38.5200,88,92,129145
1.8768,0.2884,38.6500,88,92,129148
1.8377,0.2884,38.6200,88,92,129153
1.8084,0.2933,38.6800,88,92,129156
1.7986,0.2884,38.7700,88,92,129159
1.8524,0.2981,38.5800,88,92,129162
1.8426,0.3275,38.6800,88,92,129166
1.8475,0.2884,38.5800,88,92,129169
1.8133,0.2884,38.7700,88,92,129172
1.7791,0.2933,38.7400,88,92,129176
1.7546,0.2933,38.6500,88,92,129179
1.7155,0.2884,38.7400,88,92,129182
1.7449,0.2981,38.6200,88,92,129186
1.7253,0.2835,38.7100,88,92,129189
1.7351,0.2884,38.7400,88,92,129192
1.7791,0.2933,38.5800,88,92,129197
1.7644,0.2884,38.7100,88,92,129200
1.7840,0.2933,38.5200,88,92,129203
1.7889,0.2884,38.6500,88,92,129207
1.7351,0.2884,38.9300,88,92,129210
1.7595,0.3030,38.6200,88,92,129213
1.7351,0.2884,38.7100,88,92,129216
1.7937,0.3177,38.4600,88,92,129220
1.7693,0.2933,38.6200,88,92,129223
1.7595,0.2933,38.7400,88,92,129226
1.7644,0.2933,38.6800,88,92,129230
1.7595,0.2884,38.7400,88,92,129233
1.8328,0.3519,38.4300,88,92,129236
1.8573,0.2981,38.5200,88,92,129241
1.9697,0.2933,38.6800,88,92,129244
2.1310,0.2688,38.7100,88,92,129247
2.2825,0.2884,38.7400,88,92,129251
2.4682,0.3079,38.5800,88,92,129254
2.4389,0.2933,38.6800,88,92,129257
2.4242,0.2933,38.5800,88,92,129260
2.3021,0.2933,38.7400,88,92,129264
2.1408,0.2884,38.7400,88,92,129267
1.9892,0.3030,38.5500,88,92,129270
1.7449,0.2933,38.8400,88,92,129274
1.5445,0.3030,38.5800,88,92,129277
1.3539,0.2933,38.7100,88,92,129281
1.1632,0.2884,38.7700,88,92,129285
1.0899,0.2933,38.5800,88,92,129288
1.0606,0.2884,38.7100,88,92,129291
1.1339,0.2884,38.5500,88,92,129294
1.2463,0.2884,38.6500,88,92,129298
1.4174,0.2884,38.7400,88,92,129301
1.5640,0.2933,38.6800,88,92,129304
1.6667,0.2981,38.7100,88,92,129308
1.7791,0.2688,38.4900,88,92,129311
1.8035,0.2933,38.7400,88,92,129314
1.8426,0.2884,38.7400,88,92,129318
1.8817,0.2981,38.5200,88,92,129321
1.8866,0.2933,38.7100,88,92,129325
1.9257,0.3030,38.4000,88,92,129329
1.8964,0.2981,38.5800,88,92,129332
1.8817,0.2884,38.7100,88,92,129335
1.8964,0.2981,38.5800,88,92,129338
1.8817,0.2933,38.7400,88,92,129342
1.9404,0.3079,38.4600,88,92,129345
1.9159,0.3177,38.6200,88,92,129348
1.9159,0.2884,38.6500,88,92,129352
1.9208,0.2933,38.9300,88,92,129355
1.9110,0.2884,38.7100,88,92,129358
1.9453,0.3030,38.5500,88,92,129362
1.8768,0.2933,38.7100,88,92,129366
1.8671,0.2933,38.6200,88,92,129369
1.8426,0.2884,38.7400,88,92,129373
1.8377,0.2933,38.7100,88,92,129376
1.8671,0.2981,38.7100,88,92,129379
1.8817,0.2981,38.7100,88,92,129382
1.9159,0.2884,38.6200,88,92,129386
1.9013,0.3226,38.7100,88,92,129389
1.9110,0.2688,38.7400,88,92,129392
1.9306,0.2981,38.6800,88,92,129396
1.8817,0.2933,38.7100,88,92,129399
1.9013,0.2933,38.4300,88,92,129402
1.8768,0.2884,38.6500,88,92,129406
1.8915,0.2933,38.7100,88,92,129410
1.8964,0.2981,38.5800,88,92,129413
1.8719,0.2933,38.7100,88,92,129417
1.9159,0.2981,38.5500,88,92,129420
1.9159,0.2884,38.6200,88,92,129423
1.9257,0.2884,38.7100,88,92,129426
1.9648,0.2933,38.7100,88,92,129430
1.9746,0.2933,38.7100,88,92,129433
1.9550,0.3030,38.4600,88,92,129436
1.8817,0.2981,38.6500,88,92,129440
1.8182,0.2835,38.7100,88,92,129443
1.8035,0.2933,38.7100,88,92,129446
1.7986,0.2933,38.7400,88,92,129451
1.8524,0.3079,38.7100,88,92,129454
1.8231,0.2933,38.6800,88,92,129457
1.8524,0.2884,38.6200,88,92,129461
1.8964,0.2884,38.7400,88,92,129464
1.8866,0.2884,38.8400,88,92,129467
1.9257,0.3079,38.5200,88,92,129470
1.8817,0.2933,38.7100,88,92,129474
1.8768,0.2933,38.5500,88,92,129477
1.8231,0.2933,38.7100,88,92,129480
1.8133,0.2884,38.7400,88,92,129484
1.8475,0.3030,38.5800,88,92,129487
1.8377,0.2933,38.7100,88,92,129490
1.8719,0.2933,38.7100,88,92,129495
1.8622,0.2933,38.6500,88,92,129498
1.8573,0.2884,38.8100,88,92,129501
1.8719,0.2933,38.6200,88,92,129505
1.8671,0.2884,38.8400,88,92,129508
1.9062,0.3324,38.4900,88,92,129511
1.8768,0.2835,38.6800,88,92,129515
1.8817,0.2884,38.7100,88,92,129518
1.8866,0.2981,38.6800,88,92,129521
1.8671,0.2933,38.7400,88,92,129524
1.9110,0.3030,38.4300,88,92,129528
1.8817,0.2981,38.6500,88,92,129531
1.8817,0.3128,38.7400,88,92,129534
1.9159,0.2933,38.6800,88,92,129539
1.9355,0.2933,38.7400,88,92,129542
1.9892,0.3079,38.6800,88,92,129545
1.9599,0.2933,38.6200,88,92,129549
1.9550,0.2884,38.6500,88,92,129552
1.9599,0.2933,38.7700,88,92,129555
1.9697,0.2933,38.7400,88,92,129559
2.0088,0.2981,38.1800,88,92,129562
1.9501,0.2933,38.7400,88,92,129565
1.9355,0.2933,38.5800,88,92,129568
1.8866,0.2884,37.9600,88,92,129572
1.8622,0.2884,38.7400,88,92,129575
1.8719,0.2981,38.6500,88,92,129579
1.8475,0.2884,38.7100,88,92,129583
1.8964,0.2884,38.6200,88,92,129586
1.8280,0.3177,38.7400,88,92,129589
1.8280,0.2688,38.7400,88,92,129593
1.8524,0.2981,38.7700,88,92,129596
1.8475,0.2933,38.7100,88,92,129599
1.9257,0.2933,38.5200,88,92,129603
1.9648,0.2884,38.6200,88,92,129606
1.9404,0.2884,38.7100,88,92,129609
1.9404,0.2981,38.6200,88,92,129612
1.8573,0.2884,38.7400,88,92,129616
1.8524,0.2981,38.5200,88,92,129619
1.7840,0.2933,38.6800,88,92,129623
1.7351,0.2688,38.7400,88,92,129627
1.7302,0.2933,38.6800,88,92,129630
1.7204,0.2933,38.7100,88,92,129633
1.7742,0.3030,38.4300,88,92,129637
1.7644,0.2981,38.6200,88,92,129640
1.7791,0.2835,38.6800,88,92,129643
1.7937,0.2933,38.7100,88,92,129647
1.7986,0.2884,38.7100,88,92,129650
1.8622,0.3079,38.6200,88,92,129653
1.8377,0.3079,38.6500,88,92,129656
1.8524,0.2884,38.6200,88,92,129660
1.8475,0.3030,38.6800,88,92,129664
1.8475,0.2981,38.7100,88,92,129667
1.8817,0.3030,38.5500,88,92,129671
1.8573,0.3275,38.6800,88,92,129674
1.8768,0.2933,38.5800,88,92,129677
1.8573,0.2884,38.8400,88,92,129681
1.8622,0.2933,38.7400,88,92,129684
1.8426,0.3030,38.5200,88,92,129687
1.7986,0.2933,38.7100,88,92,129691
1.8280,0.2884,38.5800,88,92,129694
1.8182,0.2884,38.6800,88,92,129697
1.8280,0.3177,38.7700,88,92,129700
1.8475,0.2884,38.6500,88,92,129704
1.8377,0.2933,38.7700,88,92,129708
1.8719,0.3372,38.6200,88,92,129711
1.8524,0.2884,38.7400,88,92,129715
1.8524,0.2884,38.8100,88,92,129718
1.8671,0.2981,38.6200,88,92,129721
1.7840,0.2933,38.7100,88,92,129726
1.7791,0.2884,38.7400,88,92,129729
1.8622,0.3079,38.4900,88,92,129733
1.8280,0.2981,38.6800,88,92,129736
1.8280,0.2933,38.6200,88,92,129739
1.8328,0.2933,38.7100,88,92,129742
1.8426,0.2884,38.7400,88,92,129746
1.8866,0.2981,38.6200,88,92,129750
1.8622,0.2933,38.6800,88,92,129753
1.8622,0.2933,38.5800,88,92,129757
1.8182,0.2884,38.7100,88,92,129760
1.7986,0.2933,38.7400,88,92,129763
1.7986,0.2884,38.6800,88,92,129767
1.7840,0.2884,38.7400,88,92,129770
1.8133,0.2981,38.5800,88,92,129773
1.7937,0.2884,38.8400,88,92,129777
1.7937,0.2933,38.7100,88,92,129780
1.8182,0.2981,38.5800,88,92,129783
1.7986,0.2884,38.7100,88,92,129787
1.8328,0.2981,38.5800,88,92,129790
1.8328,0.2835,38.5800,88,92,129794
1.8573,0.2884,38.7100,88,92,129797
1.9110,0.3372,38.6500,88,92,129801
1.8964,0.2933,38.7100,88,92,129804
1.8964,0.3030,38.4000,88,92,129807
1.8182,0.2884,38.5800,88,92,129811
1.7742,0.2884,38.7100,88,92,129814
1.7644,0.2933,38.7400,88,92,129817
1.7595,0.2884,38.7100,88,92,129821
1.8182,0.3079,38.4600,88,92,129824
1.7840,0.2981,38.6500,88,92,129827
1.7840,0.2933,38.6800,88,92,129831
1.7840,0.2884,38.6200,88,92,129835
1.8133,0.2884,38.7100,88,92,129838
1.8475,0.3079,38.6800,88,92,129841
1.8377,0.2933,38.7100,88,92,129845
1.9110,0.2933,38.5800,88,92,129848
1.8719,0.3177,38.7100,88,92,129851
1.8671,0.2688,38.7400,88,92,129855
1.8719,0.2981,38.6200,88,92,129858
1.8182,0.2933,38.6800,88,92,129861
1.8231,0.2981,38.6800,88,92,129865
1.7889,0.2737,38.6800,88,92,129868
1.7937,0.2884,38.7400,88,92,129871
1.8182,0.2933,38.5500,88,92,129875
1.8084,0.2933,38.7100,88,92,129879
1.8573,0.2933,38.6500,88,92,129882
1.8768,0.2884,38.6500,88,92,129885
1.9159,0.2884,38.7100,88,92,129889
1.9648,0.2884,38.6500,88,92,129892
1.9599,0.2884,38.7400,88,92,129895
1.9990,0.2981,38.4600,88,92,129899
1.9355,0.2835,38.6800,88,92,129902
1.9257,0.2884,38.7100,88,92,129905
1.9257,0.2981,38.6200,88,92,129909
1.9013,0.2884,38.7400,88,92,129912
1.9355,0.3030,38.5200,88,92,129915
1.8768,0.2933,38.5800,88,92,129918
1.8377,0.2933,38.6800,88,92,129923
1.8182,0.2933,38.7700,88,92,129926
1.7937,0.3128,38.7400,88,92,129929
1.8377,0.3079,38.5200,88,92,129933
1.8035,0.2981,38.6200,88,92,129936
1.7840,0.2933,38.6500,88,92,129939
1.7742,0.2884,38.7100,88,92,129943
1.7791,0.2884,38.6800,88,92,129946
1.8182,0.3030,38.5500,88,92,129949
1.7937,0.2884,38.6800,88,92,129953
1.8035,0.2933,38.6500,88,92,129956
1.8035,0.2933,38.7100,88,92,129959
1.7693,0.2884,38.7100,88,92,129963
1.8280,0.2933,38.6800,88,92,129967
1.7742,0.2884,38.7100,88,92,129970
1.7986,0.2981,38.5800,88,92,129973
1.7595,0.2933,38.7100,88,92,129977
1.7498,0.2884,38.7100,88,92,129980
1.7742,0.2981,38.6200,88,92,129983
1.7498,0.2884,38.7100,88,92,129987
1.7742,0.3030,38.5500,88,92,129990
1.7595,0.2933,38.6200,88,92,129993
1.7644,0.2884,38.7100,88,92,129996
1.8035,0.3079,38.5800,88,92,130000
1.7937,0.2884,38.7400,88,92,130003
1.8524,0.2981,38.5200,88,92,130007
1.8719,0.2933,38.6200,88,92,130011
1.9404,0.2884,38.7100,88,92,130014
2.0772,0.2933,38.6800,88,92,130017
2.1945,0.2688,38.7400,88,92,130021
2.3656,0.3030,38.3300,88,92,130024
2.3656,0.2933,38.6500,88,92,130027
2.3509,0.2835,38.8100,88,92,130031
2.2874,0.2981,38.7100,88,92,130034
2.1359,0.2884,38.7400,88,92,130037
2.0137,0.3275,38.5500,88,92,130040
1.7937,0.2933,38.6800,88,92,130044
1.5982,0.2933,38.6200,88,92,130048
1.3978,0.2933,38.7100,88,92,130051
1.2219,0.2884,38.7700,88,92,130055
1.1193,0.3030,38.5500,88,92,130058
1.0557,0.2933,38.6800,88,92,130061
1.0948,0.2933,38.6800,88,92,130065
1.1926,0.2933,38.7400,88,92,130068
1.3490,0.2884,38.7100,88,92,130071
1.5396,0.3030,38.6800,88,92,130075
1.6569,0.2933,38.6800,88,92,130078
1.7889,0.2884,38.5800,88,92,130081
1.8377,0.2835,38.6800,88,92,130084
1.8866,0.2835,38.7100,88,92,130088
1.9257,0.2933,38.6500,88,92,130092
1.9013,0.2884,38.7100,88,92,130095
1.9208,0.2933,38.5200,88,92,130099
1.8866,0.2884,38.7700,88,92,130102
1.9013,0.2933,38.7100,88,92,130105
1.9208,0.2981,38.7100,88,92,130109
1.9110,0.2981,38.7100,88,92,130112
1.9550,0.2981,38.4600,88,92,130115
1.9355,0.2933,38.6500,88,92,130119
1.9208,0.2884,38.7400,88,92,130122
1.9306,0.3079,38.1500,88,92,130125
1.9062,0.2884,38.8100,88,92,130128
1.9550,0.3079,38.4300,88,92,130132
1.9208,0.3030,38.5500,88,92,130136
1.9062,0.2933,38.6800,88,92,130139
1.9110,0.2933,38.7100,88,92,130143
1.9062,0.2884,38.5800,88,92,130146
1.9501,0.3128,38.5200,88,92,130149
1.9110,0.2933,38.6800,88,92,130153
1.9110,0.2933,38.6200,88,92,130156
1.9062,0.2933,38.7100,88,92,130159
1.9208,0.2884,38.6500,88,92,130162
1.9550,0.3079,38.6500,88,92,130166
1.9208,0.2884,38.7100,88,92,130169
1.9306,0.2933,38.6500,88,92,130172
1.8964,0.2933,38.7100,88,92,130177
1.8817,0.2884,38.7100,88,92,130180
1.9110,0.2981,38.5800,88,92,130183
1.8964,0.2933,38.7100,88,92,130187
1.9404,0.2835,38.6800,88,92,130190
1.9355,0.2884,38.6500,88,92,130193
1.9355,0.2884,38.6800,88,92,130197
1.9453,0.2981,38.5500,88,92,130200
1.8964,0.2884,38.7400,88,92,130203
1.9062,0.3030,38.4900,88,92,130206
1.8622,0.2933,38.6500,88,92,130210
1.8524,0.2884,38.7400,88,92,130213
1.8817,0.2933,38.6500,88,92,130216
1.8426,0.2884,38.7400,88,92,130221
1.8866,0.3030,38.4300,88,92,130224
1.8475,0.2933,38.6800,88,92,130227
1.8475,0.2884,38.7100,88,92,130231
1.8671,0.2933,38.7100,88,92,130234
1.8768,0.2884,38.7100,88,92,130237
1.9550,0.3079,38.4900,88,92,130241
1.9404,0.2981,38.7400,88,92,130244
1.9355,0.2884,38.6500,88,92,130247
1.9110,0.2933,38.7100,88,92,130250
1.8719,0.2884,38.7400,88,92,130254
1.8719,0.3030,38.5500,88,92,130257
1.8231,0.2933,38.6800,88,92,130260
1.8231,0.2933,38.5500,88,92,130265
1.7986,0.2933,38.7400,88,92,130268
1.8084,0.2981,38.7700,88,92,130271
1.8426,0.3030,38.5500,88,92,130275
1.8328,0.2884,38.7100,88,92,130278
1.8817,0.2981,38.5800,88,92,130281
1.9062,0.2884,38.7400,88,92,130284
1.9501,0.2884,38.7100,88,92,130288
1.9648,0.2933,38.7700,88,92,130291
1.9257,0.2933,38.7100,88,92,130294
1.9159,0.2933,38.5500,88,92,130298
1.8671,0.2933,38.7100,88,92,130301
1.8719,0.2884,38.7100,88,92,130305
1.9013,0.2884,38.6200,88,92,130309
1.9013,0.2933,38.7100,88,92,130312
1.9550,0.3128,38.4900,88,92,130315
1.9355,0.2981,38.6200,88,92,130319
1.9404,0.2884,38.7400,88,92,130322
1.9795,0.2884,38.6800,88,92,130325
1.9941,0.2884,38.7400,88,92,130329
2.0626,0.3030,38.4300,88,92,130332
1.8866,0.2981,38.7700,88,92,130337
1.8377,0.2981,38.6500,88,92,130340
1.8426,0.2884,38.6200,88,92,130343
1.8133,0.2884,38.8400,88,92,130347
1.8182,0.2933,38.7100,88,92,130351
1.8377,0.2981,38.6500,88,92,130354
1.8182,0.2884,38.7100,88,92,130357
1.8524,0.2981,38.7100,88,92,130361
1.8377,0.2933,38.7100,88,92,130364
1.8671,0.2884,38.9000,88,92,130367
1.9159,0.2981,38.6200,88,92,130371
1.8817,0.2933,38.9000,88,92,130374
1.8622,0.2981,38.5200,88,92,130377
1.7937,0.2688,38.6200,88,92,130381
1.7742,0.2884,38.7700,88,92,130384
1.7986,0.3030,38.5800,88,92,130387
1.7937,0.2884,38.7400,88,92,130391
1.8426,0.2981,38.4000,88,92,130395
1.8280,0.2933,38.6200,88,92,130398
1.7986,0.2884,38.6800,88,92,130401
1.8035,0.3030,38.6800,88,92,130405
1.8035,0.2884,38.7100,88,92,130408
1.8426,0.3030,38.4300,88,92,130411
1.8133,0.2933,38.6200,88,92,130415
1.8182,0.2835,38.6800,88,92,130418
1.8280,0.2981,38.6800,88,92,130421
1.8133,0.2884,38.7100,88,92,130424
1.8475,0.3079,38.4900,88,92,130428
1.7986,0.2981,38.6500,88,92,130432
1.7986,0.2884,38.6200,88,92,130435
1.7889,0.2933,38.6800,88,92,130439
1.7986,0.2933,38.7100,88,92,130442
1.8377,0.3030,38.5200,88,92,130445
1.8231,0.2688,38.7100,88,92,130449
1.8426,0.2981,38.5800,88,92,130452
1.8280,0.3177,38.8100,88,92,130455
1.8377,0.2884,38.7100,88,92,130459
1.8719,0.3324,38.5800,88,92,130462
1.8573,0.2688,38.7100,88,92,130465
1.9062,0.2981,38.5800,88,92,130468
1.8768,0.2835,38.6800,88,92,130472
1.8671,0.2884,38.7400,88,92,130476
1.8524,0.2933,38.6200,88,92,130479
1.8182,0.2688,38.7100,88,92,130483
1.8377,0.2933,38.5800,88,92,130486
1.8182,0.2884,38.7700,88,92,130489
1.8328,0.2884,38.7400,88,92,130493
1.8671,0.3030,38.6500,88,92,130496
1.8524,0.2884,38.5800,88,92,130499
1.8915,0.3030,38.4300,88,92,130503
1.9062,0.3030,38.6200,88,92,130506
1.8622,0.2884,38.7400,88,92,130509
1.8964,0.2933,38.6800,88,92,130512
1.8768,0.2884,38.7100,88,92,130516
1.9159,0.3079,38.4300,88,92,130520
1.8622,0.2884,38.6200,88,92,130523
1.8133,0.2884,38.6800,88,92,130527
1.7986,0.3177,38.6800,88,92,130530
1.8035,0.2884,38.7400,88,92,130533
1.8377,0.3079,38.5800,88,92,130537
1.8182,0.2981,38.6800,88,92,130540
1.8328,0.2933,38.6200,88,92,130543
1.8280,0.2933,38.7400,88,92,130547
1.8280,0.2884,38.7400,88,92,130550
1.8475,0.3177,38.6500,88,92,130553
1.8231,0.2884,38.7400,88,92,130556
1.8475,0.2933,38.2400,88,92,130561
1.8084,0.2884,38.7100,88,92,130564
1.7986,0.2884,38.7400,88,92,130567
1.8231,0.2981,38.5800,88,92,130571
1.7986,0.2933,38.7100,88,92,130574
1.8231,0.2933,38.7100,88,92,130577
1.8182,0.2884,38.6500,88,92,130581
1.7986,0.2884,38.7100,88,92,130584
1.8280,0.2933,38.5500,88,92,130587
1.8182,0.2688,38.7100,88,92,130591
1.8671,0.2981,38.4900,88,92,130594
1.8866,0.2981,38.6500,88,92,130597
1.9013,0.2884,38.7100,88,92,130600
1.9501,0.2981,38.7400,88,92,130605
1.9453,0.2981,38.7100,88,92,130608
1.9892,0.3030,38.4600,88,92,130611
1.9501,0.2933,38.6500,88,92,130615
1.9501,0.2884,38.7100,88,92,130618
1.9501,0.2884,38.6800,88,92,130621
1.9306,0.2884,38.7400,88,92,130625
1.9746,0.3079,38.4900,88,92,130628
1.9550,0.2981,38.6800,88,92,130631
1.9062,0.2884,38.6500,88,92,130635
1.8915,0.2884,38.6800,88,92,130638
1.8768,0.2884,38.7100,88,92,130641
1.8866,0.3030,38.4600,88,92,130644
1.8328,0.2884,38.6800,88,92,130649
1.8182,0.2933,38.5800,88,92,130652
1.7840,0.2884,38.7100,88,92,130655
1.7791,0.2933,38.7100,88,92,130659
1.8231,0.2981,37.8300,88,92,130662
1.8133,0.3079,38.7400,88,92,130665
1.8475,0.2981,38.6200,88,92,130669
1.7986,0.2884,38.5200,88,92,130672
1.7644,0.2933,38.7100,88,92,130675
1.7351,0.2933,38.6200,88,92,130678
1.7058,0.2884,38.7100,88,92,130682
1.7449,0.2933,38.5800,88,92,130685
1.6862,0.2884,38.7700,88,92,130689
1.6960,0.2933,38.7100,88,92,130693
1.7253,0.2981,38.6200,88,92,130696
1.7351,0.2933,38.7100,88,92,130699
1.7742,0.2981,37.7100,88,92,130703
1.7644,0.2981,38.6200,88,92,130706
1.7742,0.2884,38.7400,88,92,130709
1.8084,0.3079,38.6800,88,92,130713
1.8084,0.2933,38.7100,88,92,130716
1.8426,0.3030,38.4600,88,92,130719
1.8280,0.2981,38.5500,88,92,130723
1.7595,0.2884,38.6800,88,92,130726
1.7546,0.2884,38.6800,88,92,130729
1.7840,0.2933,38.7100,88,92,130733
1.8866,0.3079,38.1100,88,92,130737
1.9599,0.2981,38.6800,88,92,130740
2.1310,0.2688,38.6500,88,92,130743
2.2434,0.2933,38.8400,88,92,130747
2.3363,0.2933,38.7400,88,92,130750
2.3998,0.3030,38.6500,88,92,130753
2.3412,0.2981,38.7100,88,92,130757
2.2483,0.2933,38.5800,88,92,130760
2.0430,0.2933,38.7100,88,92,130763
1.8768,0.2933,38.7100,88,92,130766
1.6862,0.3030,38.5800,88,92,130770
1.4614,0.2933,38.7100,88,92,130774
1.2952,0.2933,38.5800,88,92,130777
1.1241,0.2884,38.6500,88,92,130781
1.0508,0.2981,38.7100,88,92,130784
1.0606,0.2981,38.6500,88,92,130787
1.1290,0.2884,38.8400,88,92,130791
1.3050,0.3030,38.5500,88,92,130794
1.4614,0.2933,38.6200,88,92,130797
1.6031,0.2884,38.7100,88,92,130801
1.7546,0.2884,38.6500,88,92,130804
1.7937,0.2884,38.7400,88,92,130807
1.8915,0.3177,38.4600,88,92,130810
1.8768,0.2884,38.6800,88,92,130814
1.8817,0.3079,38.7100,88,92,130818
1.8817,0.2884,38.6800,88,92,130821
1.8671,0.2981,38.7100,88,92,130825
1.9355,0.3079,38.4300,88,92,130828
1.9159,0.2981,38.6500,88,92,130831
1.9599,0.2933,38.6800,88,92,130835
1.9257,0.2933,38.5800,88,92,130838
1.9110,0.2835,38.7100,88,92,130841
1.9453,0.3030,38.5200,88,92,130845
1.9013,0.2933,38.6500,88,92,130848
1.9013,0.2884,38.6200,88,92,130851
1.8817,0.2884,38.7100,88,92,130854
1.8866,0.2835,38.7400,88,92,130859
1.9306,0.2981,38.5800,88,92,130862
1.9208,0.2933,38.6500,88,92,130865
1.9501,0.2933,38.5500,88,92,130869
1.9208,0.2884,38.7100,88,92,130872
1.9062,0.3128,38.7400,88,92,130875
1.9110,0.2884,38.6200,88,92,130879
1.8964,0.2884,38.9300,88,92,130882
1.9257,0.2933,38.6200,88,92,130885
1.9013,0.2933,38.8400,88,92,130889
1.9110,0.2786,38.7100,88,92,130892
1.9355,0.2981,38.6200,88,92,130895
1.9013,0.2933,38.7100,88,92,130898
1.9306,0.2981,38.4900,88,92,130903
1.9013,0.2981,38.6200,88,92,130906
1.8915,0.2933,38.7100,88,92,130909
1.9159,0.3275,38.6500,88,92,130913
1.8964,0.2933,38.7100,88,92,130916
1.9501,0.3030,38.4600,88,92,130919
1.9257,0.2933,38.5800,88,92,130923
1.9013,0.2884,38.7100,88,92,130926
1.8915,0.2933,38.6800,88,92,130929
1.8719,0.2933,38.7100,88,92,130933
1.9062,0.3079,38.4600,88,92,130936
1.8524,0.2981,38.6800,88,92,130939
1.8426,0.2884,38.6500,88,92,130942
1.8328,0.2884,38.7100,88,92,130947
1.8377,0.2933,38.7100,88,92,130951
1.8426,0.2884,38.8400,88,92,130954
1.8964,0.2981,38.5800,88,92,130957
1.8622,0.2884,38.7400,88,92,130960
1.8866,0.2981,38.5500,88,92,130964
1.8622,0.2884,38.6200,88,92,130967
1.8475,0.2884,38.9300,88,92,130970
1.8768,0.2981,38.5800,88,92,130974
1.8426,0.2884,38.7400,88,92,130977
1.8817,0.3470,38.4900,88,92,130980
1.8573,0.2933,38.6500,88,92,130984
1.8426,0.2884,38.7400,88,92,130988
1.8622,0.2933,38.6800,88,92,130991
1.8328,0.2884,38.7400,88,92,130995
1.8866,0.2981,38.4900,88,92,130998
1.8573,0.2933,38.6200,88,92,131001
1.8671,0.3030,38.6800,88,92,131004
1.8964,0.2884,38.7100,88,92,131008
1.9062,0.2884,38.7100,88,92,131011
2.0088,0.2884,38.5200,88,92,131014
1.9501,0.2933,38.6800,88,92,131018
1.9501,0.2884,38.5500,88,92,131021
1.9404,0.2933,38.7100,88,92,131024
1.9306,0.2884,38.7700,88,92,131028
1.9697,0.3079,38.5200,88,92,131032
1.9501,0.2933,38.6800,88,92,131035
1.9550,0.2933,38.6500,88,92,131038
1.9159,0.2933,38.7100,88,92,131042
1.8915,0.2884,38.7400,88,92,131045
1.9159,0.3030,38.5800,88,92,131048
1.8915,0.2786,38.7400,88,92,131052
1.9062,0.2981,38.5800,88,92,131055
1.8719,0.3226,38.6800,88,92,131058
1.8768,0.2884,38.7100,88,92,131062
1.8915,0.2933,38.6500,88,92,131065
1.8964,0.2884,38.7100,88,92,131068
1.9110,0.2933,38.5200,88,92,131073
1.8768,0.2884,38.7100,88,92,131076
1.8573,0.2884,38.8100,88,92,131079
1.8573,0.3030,38.6500,88,92,131082
1.8182,0.2933,38.7400,88,92,131086
1.8426,0.3079,38.4600,88,92,131089
1.8280,0.2884,38.6200,88,92,131092
1.7840,0.2884,38.9000,88,92,131096
1.7937,0.2981,38.6500,88,92,131099
1.7937,0.2884,38.7100,88,92,131102
1.8573,0.3079,38.4300,88,92,131106
1.8475,0.2981,38.6800,88,92,131109
1.8475,0.2884,38.6500,88,92,131112
1.8671,0.2981,38.7100,88,92,131117
1.8622,0.2884,38.7100,88,92,131120
1.8964,0.3030,38.5500,88,92,131123
1.8377,0.2933,38.6800,88,92,131126
1.8133,0.2933,38.6200,88,92,131130
1.7889,0.2884,38.7400,88,92,131133
1.7742,0.2981,38.7400,88,92,131136
1.8035,0.2981,38.6500,88,92,131140
1.7937,0.2933,38.6800,88,92,131143
1.8182,0.2981,38.5800,88,92,131146
1.7937,0.2884,38.7400,88,92,131150
1.8084,0.3079,38.7100,88,92,131153
1.8671,0.2981,38.5800,88,92,131156
1.8328,0.2933,38.7400,88,92,131161
1.8671,0.2884,38.5500,88,92,131164
1.8475,0.2933,38.6500,88,92,131167
1.8573,0.2981,38.7100,88,92,131171
1.8768,0.2981,38.7400,88,92,131174
1.8475,0.2933,38.7100,88,92,131177
1.8768,0.2981,38.4900,88,92,131180
1.8475,0.2933,38.6200,88,92,131184
1.8475,0.2884,38.7400,88,92,131187
1.8426,0.2981,38.6800,88,92,131190
1.8182,0.2835,38.7100,88,92,131194
1.8671,0.3030,38.4300,88,92,131197
1.8182,0.2933,38.6500,88,92,131201
1.8182,0.2933,38.7100,88,92,131205
1.8280,0.2933,38.6800,88,92,131208
1.8231,0.2884,38.7100,88,92,131211
1.8915,0.3079,38.5500,88,92,131215
1.8573,0.2981,38.6800,88,92,131218
1.8622,0.2884,38.6800,88,92,131221
1.8573,0.2884,38.7100,88,92,131224
1.8475,0.2884,38.7400,88,92,131228
1.8719,0.3030,38.5500,88,92,131231
1.8377,0.2933,38.6800,88,92,131234
1.8328,0.2933,38.7100,88,92,131238
1.7986,0.2884,38.7400,88,92,131241
1.8035,0.2884,38.4300,88,92,131245
1.8280,0.2981,38.5500,88,92,131249
1.8182,0.2884,38.7100,88,92,131252
1.8524,0.2933,38.3600,88,92,131255
1.8573,0.2933,38.7400,88,92,131259
1.8280,0.2884,38.6200,88,92,131262
1.8377,0.2933,38.6200,88,92,131265
1.8231,0.2884,38.7100,88,92,131268
1.8475,0.2933,38.5200,88,92,131272
1.8231,0.2884,38.7400,88,92,131275
1.8426,0.2981,38.8100,88,92,131278
1.8768,0.2981,38.6800,88,92,131282
1.8524,0.2933,38.7100,88,92,131286
1.9062,0.3030,38.4600,88,92,131289
1.8866,0.2933,38.8400,88,92,131293
1.8866,0.2933,38.7400,88,92,131296
1.9110,0.2933,38.8700,88,92,131299
1.9110,0.2933,38.8100,88,92,131303
1.9795,0.3079,38.4900,88,92,131306
1.9550,0.3275,38.6200,88,92,131309
1.9501,0.2933,38.6500,88,92,131313
1.9550,0.2933,38.8100,88,92,131316
1.9550,0.3079,38.7400,88,92,131319
2.0039,0.2884,38.5800,88,92,131322
1.9648,0.2933,38.6800,88,92,131326
1.9599,0.2933,38.9000,88,92,131330
1.9159,0.2933,38.7100,88,92,131333
1.8866,0.2884,38.2400,88,92,131337
1.8817,0.3030,38.6800,88,92,131340
1.8377,0.2884,38.7100,88,92,131343
1.8377,0.2981,38.6800,88,92,131347
1.7889,0.2933,38.7100,88,92,131350
1.7742,0.2884,38.8100,88,92,131353
1.7937,0.2981,38.5800,88,92,131356
1.7693,0.2884,38.6200,88,92,131360
1.7937,0.3030,38.5200,88,92,131363
1.7889,0.2884,38.6500,88,92,131366
1.7840,0.2884,38.6200,88,92,131371
1.8182,0.2933,38.5500,88,92,131374
1.7791,0.2884,38.1500,88,92,131377
1.8084,0.3030,38.4900,88,92,131381
1.7644,0.2933,38.6800,88,92,131384
1.7546,0.2884,38.7100,88,92,131387
1.7644,0.2981,38.6800,88,92,131391
1.7546,0.2933,38.7100,88,92,131394
1.7937,0.3030,38.4600,88,92,131397
1.7595,0.2688,38.6200,88,92,131400
1.7546,0.2835,38.7100,88,92,131404
1.7840,0.3030,38.7100,88,92,131407
1.7986,0.2884,38.7100,88,92,131410
1.8719,0.3079,38.4900,88,92,131415
1.8377,0.2884,38.6500,88,92,131418
1.8084,0.2884,38.5800,88,92,131421
1.7986,0.2933,38.7100,88,92,131425
1.7889,0.2884,38.7100,88,92,131428
1.8719,0.3030,38.5500,88,92,131431
1.9453,0.2933,38.6800,88,92,131435
2.0919,0.2933,38.5800,88,92,131438
2.2043,0.2933,38.7100,88,92,131441
2.3167,0.2884,38.7100,88,92,131444
2.3851,0.3030,38.6500,88,92,131448
2.3558,0.2884,38.7100,88,92,131451
2.3167,0.2981,38.6200,88,92,131454
2.1457,0.2981,38.8100,88,92,131459
1.9892,0.2884,38.7100,88,92,131462
1.8035,0.2933,38.6200,88,92,131465
1.5836,0.2933,38.7100,88,92,131469
1.3881,0.2933,38.5200,88,92,131472
1.1877,0.2933,38.7400,88,92,131475
1.0850,0.2884,38.7100,88,92,131479
1.0508,0.2884,38.6500,88,92,131482
1.0704,0.2884,38.7100,88,92,131485
1.2023,0.2981,38.4600,88,92,131488
1.3392,0.2981,38.5800,88,92,131492
1.4858,0.2884,38.7700,88,92,131495
1.6471,0.2981,38.6800,88,92,131499
1.7449,0.2933,38.7400,88,92,131503
1.8719,0.3030,38.4300,88,92,131506
1.8719,0.2933,38.5500,88,92,131509
1.8768,0.2933,38.6800,88,92,131513
1.8817,0.2933,38.5800,88,92,131516
1.8768,0.2835,38.7100,88,92,131519
1.9355,0.3079,38.5500,88,92,131522
1.8964,0.2933,38.1100,88,92,131526
1.8964,0.2835,38.6200,88,92,131529
1.8964,0.2933,38.7100,88,92,131532
1.9013,0.3128,38.7400,88,92,131536
1.9404,0.3030,38.6500,88,92,131539
1.9110,0.2981,38.7100,88,92,131543
1.9159,0.2933,38.6500,88,92,131547
1.8915,0.2884,38.7400,88,92,131550
1.8866,0.2884,38.6200,88,92,131553
1.9257,0.3030,38.5500,87,93,131557
1.9110,0.2981,38.5800,87,93,131560
1.8915,0.2884,37.9600,87,93,131564
1.9355,0.3079,38.4600,87,93,131567
1.9062,0.2884,38.6800,87,93,131570
1.9013,0.2884,38.8100,87,93,131573
1.9159,0.3226,38.6800,87,93,131577
1.8915,0.2688,38.7100,87,93,131580
1.9355,0.3030,38.4300,87,93,131584
1.8964,0.2884,38.6800,87,93,131588
1.9013,0.2835,38.7700,87,93,131591
1.9110,0.3030,38.7100,87,93,131594
1.9110,0.2884,38.7400,87,93,131598
1.9648,0.3079,38.4900,87,93,131601
1.9257,0.3030,38.6800,87,93,131604
1.9453,0.2933,38.6200,87,93,131607
1.9159,0.3030,38.7400,87,93,131611
1.9355,0.2933,38.7100,87,93,131614
1.9257,0.3030,38.6500,87,93,131617
1.8866,0.2933,38.6800,87,93,131621
1.8964,0.2933,38.5800,87,93,131624
1.8719,0.2884,38.8100,87,93,131628
1.8671,0.2981,38.7100,87,93,131632
1.8768,0.2981,38.6500,87,93,131635
1.8524,0.2884,38.6800,87,93,131638
1.9110,0.3030,38.5800,87,93,131642
1.8426,0.2688,38.7100,87,93,131645
1.8475,0.2884,38.9300,87,93,131648
1.8622,0.2933,38.6200,87,93,131651
1.8426,0.2884,38.7100,87,93,131655
1.8671,0.2933,38.5200,87,93,131658
1.8328,0.2884,38.7700,87,93,131661
1.8280,0.3226,38.7100,87,93,131665
1.8426,0.2981,38.6800,87,93,131668
1.8328,0.2933,38.7100,87,93,131672
1.8817,0.2981,38.4900,87,93,131676
1.8671,0.2981,38.5800,87,93,131679
1.8622,0.2933,38.7100,87,93,131682
1.8866,0.2981,38.4600,87,93,131686
1.8817,0.2933,38.8100,87,93,131689
1.9404,0.3079,38.4300,87,93,131692
1.9013,0.3177,38.6200,87,93,131695
1.8866,0.2786,38.6500,87,93,131699
1.8964,0.2933,38.7700,87,93,131702
1.8964,0.3030,38.7100,87,93,131705
1.9648,0.3079,38.5500,87,93,131709
1.9257,0.2933,38.6800,87,93,131713
1.9550,0.2933,38.6200,87,93,131716
1.9208,0.2884,38.7100,87,93,131720
1.9257,0.2884,38.7400,87,93,131723
1.9599,0.2981,38.6200,87,93,131726
1.9453,0.2933,38.6800,87,93,131730
1.9746,0.2981,38.5500,87,93,131733
1.9501,0.2884,38.7100,87,93,131736
1.9355,0.2933,38.7100,87,93,131739
1.9599,0.3030,38.5800,87,93,131743
1.9110,0.3275,38.7400,87,93,131746
1.9208,0.2884,38.5800,87,93,131749
1.8817,0.2884,38.6500,87,93,131753
1.8671,0.3079,38.7100,87,93,131757
1.8719,0.2933,38.5800,87,93,131760
1.8475,0.2884,38.7400,87,93,131764
1.8719,0.2884,38.4900,87,93,131767
1.8475,0.2933,38.6200,87,93,131770
1.8426,0.2933,38.7100,87,93,131774
1.8475,0.2981,38.5200,87,93,131777
1.8182,0.2981,38.7400,87,93,131780
1.8768,0.3030,38.4000,87,93,131783
1.8133,0.2933,38.7400,87,93,131787
1.8133,0.2884,38.7400,87,93,131790
1.8182,0.2933,38.7100,87,93,131793
1.8084,0.2933,38.7100,87,93,131798
1.8573,0.3079,38.4900,87,93,131801
1.8182,0.2981,38.6200,87,93,131804
1.8084,0.2884,38.6800,87,93,131808
1.8133,0.2933,38.7400,87,93,131811
1.8231,0.2933,38.7100,87,93,131814
1.8377,0.3030,38.4900,87,93,131818
1.8231,0.3030,38.6800,87,93,131821
1.8231,0.2933,38.5800,87,93,131824
1.8035,0.2884,38.7700,87,93,131827
1.7986,0.3030,38.7100,87,93,131831
1.8133,0.2981,38.6200,87,93,131834
1.7937,0.2933,38.8700,87,93,131837
1.8231,0.3079,38.6500,87,93,131842
1.8133,0.2884,38.7100,87,93,131845
1.8426,0.2835,38.7100,87,93,131848
1.8622,0.2933,38.6800,87,93,131852
1.8426,0.2884,38.7100,87,93,131855
1.8426,0.2884,38.5200,87,93,131858
1.7986,0.2884,38.7100,87,93,131862
1.8280,0.2884,38.7400,87,93,131865
1.8328,0.2981,38.5500,87,93,131868
1.8280,0.2884,38.7400,87,93,131871
1.8671,0.2981,38.4600,87,93,131875
1.8377,0.3079,38.6200,87,93,131878
1.8182,0.2884,38.7100,87,93,131881
1.8280,0.2981,38.6800,87,93,131886
1.8133,0.2933,38.7400,87,93,131889
1.8671,0.3030,38.6200,87,93,131892
1.8328,0.2933,38.5800,87,93,131896
1.8133,0.2835,38.6800,87,93,131899
1.8182,0.2933,38.7400,87,93,131902
1.8426,0.2933,38.7400,87,93,131906
1.8719,0.3079,38.5200,87,93,131909
1.8475,0.2981,38.6500,87,93,131912
1.8622,0.2933,38.6200,87,93,131915
1.8524,0.2933,38.6800,87,93,131919
1.8573,0.2884,38.7100,87,93,131922
1.8817,0.2981,38.6200,87,93,131926
1.8622,0.2933,38.6800,87,93,131930
1.8671,0.2933,38.5500,87,93,131933
1.8524,0.2884,38.7100,87,93,131936
1.8524,0.2884,38.7100,87,93,131940
1.8915,0.3030,38.5800,87,93,131943
1.8671,0.2884,38.7100,87,93,131946
1.8768,0.2933,38.5800,87,93,131950
1.8377,0.2884,38.6500,87,93,131953
1.8133,0.2884,38.7400,87,93,131956
1.8231,0.2981,38.5800,87,93,131960
1.8133,0.2884,38.7400,87,93,131963
1.8671,0.2981,38.5500,87,93,131966
1.8573,0.2933,38.7100,87,93,131970
1.8377,0.2884,38.9000,87,93,131974
1.8328,0.2981,38.6800,87,93,131977
1.7986,0.2933,38.7400,87,93,131980
1.8280,0.3030,38.4300,87,93,131984
1.7840,0.2933,38.6500,87,93,131987
1.7889,0.2688,38.7400,87,93,131990
1.8084,0.2981,38.7400,87,93,131994
1.8328,0.2884,38.7100,87,93,131997
1.8719,0.3079,38.5500,87,93,132000
1.8524,0.2933,38.6500,87,93,132003
1.8622,0.2933,38.6500,87,93,132007
1.8719,0.2981,38.6800,87,93,132011
1.8573,0.2688,38.7100,87,93,132014
1.8915,0.3030,38.5800,87,93,132018
1.8573,0.3030,38.6500,87,93,132021
1.8817,0.2933,38.5800,87,93,132024
1.8328,0.2933,38.0500,87,93,132028
1.8377,0.2933,38.7700,87,93,132031
1.8768,0.2981,38.6500,87,93,132034
1.8817,0.2933,38.7100,87,93,132037
1.9208,0.2981,38.6200,87,93,132041
1.9062,0.2688,38.7100,87,93,132044
1.9257,0.2884,38.8400,87,93,132047
1.9648,0.2981,38.6500,87,93,132051
1.9306,0.2933,38.7400,87,93,132055
1.9453,0.2933,38.6200,87,93,132058
1.8964,0.2933,38.8100,87,93,132062
1.8719,0.2933,38.7700,87,93,132065
1.8719,0.2981,38.6200,87,93,132068
1.8328,0.2933,38.7400,87,93,132072
1.8524,0.2981,38.4900,87,93,132075
1.8133,0.2933,38.6500,87,93,132078
1.7986,0.2884,38.7100,87,93,132082
1.8035,0.2933,38.6500,87,93,132085
1.8035,0.2933,38.7100,87,93,132088
1.8133,0.3030,38.4300,87,93,132091
1.7693,0.2933,38.5800,87,93,132096
1.7644,0.2835,38.7400,87,93,132099
1.7889,0.2933,38.6500,87,93,132102
1.8231,0.2884,38.7100,87,93,132106
1.8475,0.3079,38.4900,87,93,132109
1.7937,0.2981,38.6500,87,93,132112
1.7693,0.2933,38.6500,87,93,132116
1.7449,0.3128,38.7100,87,93,132119
1.7400,0.2884,38.7400,87,93,132122
1.7791,0.3030,38.5200,87,93,132126
1.7693,0.2884,38.7100,87,93,132129
1.7840,0.2933,38.5800,87,93,132132
1.7693,0.2981,38.7400,87,93,132135
1.7498,0.2933,38.7100,87,93,132140
1.7742,0.3030,38.5800,87,93,132143
1.7400,0.2933,38.6800,87,93,132146
1.7644,0.2981,38.6200,87,93,132150
1.7302,0.2884,38.6500,87,93,132153
1.7546,0.2884,38.7100,87,93,132156
1.7498,0.2933,38.5800,87,93,132160
1.7791,0.2933,38.7100,87,93,132163
1.8866,0.2933,38.7100,87,93,132166
2.4194,0.3030,38.4300,87,93,132170
2.3167,0.2933,38.6500,87,93,132173
2.1799,0.2884,38.7700,87,93,132177
2.0039,0.2933,38.7400,87,93,132180
1.8084,0.2933,38.7700,87,93,132184
1.6422,0.3079,38.5200,87,93,132187
1.4076,0.2981,38.6800,87,93,132191
1.2268,0.2884,38.6200,87,93,132194
1.1095,0.2933,38.7100,87,93,132197
1.0508,0.2933,38.7400,87,93,132201
1.0997,0.3128,38.5500,87,93,132204
1.1877,0.2933,38.6800,87,93,132207
1.3490,0.2933,38.6200,87,93,132211
1.4907,0.2933,38.7400,87,93,132214
1.6178,0.2884,38.7700,87,93,132217
1.7351,0.3226,38.6800,87,93,132220
1.7937,0.2933,38.7100,87,93,132225
1.8719,0.2981,38.5800,87,93,132228
1.8768,0.2884,38.7100,87,93,132231
1.8964,0.2933,38.7100,87,93,132235
1.9110,0.2933,38.6800,87,93,132238
1.8964,0.2884,38.7400,87,93,132241
1.9208,0.3177,38.5200,87,93,132245
1.8964,0.2884,38.7400,87,93,132248
1.9013,0.2884,38.8400,87,93,132251
1.9501,0.2981,38.6200,87,93,132255
1.9110,0.2884,38.6500,87,93,132258
1.9550,0.3177,38.5500,87,93,132261
1.9355,0.2981,38.6500,87,93,132264
1.9257,0.2884,38.8700,87,93,132269
1.9453,0.2981,38.6800,87,93,132272
1.9159,0.2884,38.7400,87,93,132275
1.9501,0.3030,38.4000,87,93,132279
1.9013,0.2933,38.6200,87,93,132282
1.8915,0.2884,38.6800,87,93,132285
1.9110,0.3079,38.7100,87,93,132289
1.9110,0.2933,38.7400,87,93,132292
1.9795,0.3079,38.5200,87,93,132295
1.9404,0.2933,38.6800,87,93,132298
1.9257,0.2884,38.6200,87,93,132302
1.9062,0.2933,38.7100,87,93,132305
1.9013,0.2688,38.7400,87,93,132308
1.9306,0.3030,38.6500,87,93,132313
1.9013,0.2835,38.6800,87,93,132316
1.9110,0.2933,38.6200,87,93,132319
1.8719,0.3079,38.7400,87,93,132323
1.8622,0.2933,38.7100,87,93,132326
1.8915,0.3030,38.5800,87,93,132329
1.8768,0.2884,38.7100,87,93,132333
1.9110,0.2933,38.5200,87,93,132336
1.8817,0.2933,38.6800,87,93,132339
1.8866,0.2884,38.7100,87,93,132343
1.8964,0.2884,38.5800,87,93,132346
1.8768,0.2884,38.9600,87,93,132349
1.9110,0.3177,38.5200,87,93,132353
1.8866,0.2884,38.7100,87,93,132357
1.8866,0.2884,38.6500,87,93,132360
1.8915,0.2933,38.6500,87,93,132363
1.8622,0.2884,38.7400,87,93,132367
1.8964,0.3030,38.4600,87,93,132370
1.8524,0.2933,38.6800,87,93,132373
1.8475,0.2884,38.4600,87,93,132377
1.8622,0.2884,38.6800,87,93,132380
1.8573,0.2884,38.7100,87,93,132383
1.9257,0.3128,38.4300,87,93,132387
1.8964,0.2981,38.6800,87,93,132390
1.8915,0.2884,38.7100,87,93,132393
1.8866,0.2884,38.7100,87,93,132397
1.8671,0.2884,38.7400,87,93,132401
1.8915,0.3030,38.5200,87,93,132404
1.8426,0.2981,38.6800,87,93,132407
1.8328,0.2933,38.6200,87,93,132411
1.8084,0.2884,38.7400,87,93,132414
1.8035,0.2884,38.7400,87,93,132417
1.8426,0.2933,38.6200,87,93,132421
1.8377,0.2933,38.6800,87,93,132424
1.8719,0.2981,38.5800,87,93,132427
1.8524,0.2933,38.7100,87,93,132431
1.8817,0.2884,38.7400,87,93,132434
1.9257,0.2933,38.6500,87,93,132438
1.9257,0.2884,38.7400,87,93,132441
1.9550,0.2933,38.5200,87,93,132445
1.9355,0.2933,38.7100,87,93,132448
1.9404,0.3177,38.7400,87,93,132451
1.9648,0.2981,38.6800,87,93,132455
1.9501,0.2981,38.8100,87,93,132458
1.9892,0.3030,38.4600,87,93,132461
1.9746,0.2981,38.7100,87,93,132465
1.9550,0.2835,38.7400,87,93,132468
1.9746,0.2981,38.6800,87,93,132471
1.9453,0.2884,38.6500,87,93,132475
1.9941,0.3030,38.4000,87,93,132478
1.9404,0.2933,38.5800,87,93,132482
1.9208,0.2884,38.7100,87,93,132485
1.9110,0.2933,38.7100,87,93,132489
1.8866,0.2933,38.7400,87,93,132492
1.9159,0.3079,38.4900,87,93,132495
1.8866,0.2933,38.6800,87,93,132499
1.8280,0.2884,38.6500,87,93,132502
1.8231,0.2933,38.6800,87,93,132505
1.8328,0.2884,38.7400,87,93,132509
1.8719,0.3275,38.6200,87,93,132512
1.8426,0.2933,38.7100,87,93,132515
1.8426,0.2933,38.6200,87,93,132519
1.7986,0.2884,38.7100,87,93,132523
1.7889,0.2933,38.7400,87,93,132526
1.8182,0.3030,38.5500,87,93,132529
1.7889,0.2933,38.7400,87,93,132533
1.8084,0.2933,38.5800,87,93,132536
1.7840,0.2884,38.6800,87,93,132539
1.7889,0.2884,38.7100,87,93,132543
1.8133,0.2933,38.6200,87,93,132546
1.8133,0.2884,38.7100,87,93,132549
1.8671,0.2884,38.5200,87,93,132553
1.8475,0.2933,38.6800,87,93,132556
1.8328,0.2884,38.7100,87,93,132559
1.8328,0.2981,38.8100,87,93,132563
1.7986,0.2933,38.8100,87,93,132567
1.8231,0.3030,38.4600,87,93,132570
1.7889,0.2884,38.6500,87,93,132573
1.7840,0.2933,38.7400,87,93,132577
1.8035,0.2981,38.8400,87,93,132580
1.8084,0.2884,38.7100,87,93,132583
1.8719,0.3079,38.4600,87,93,132587
1.8573,0.3030,38.6200,87,93,132590
1.8622,0.2884,38.6500,87,93,132593
1.8671,0.2933,38.7100,87,93,132597
1.8573,0.2688,38.7100,87,93,132600
1.8671,0.3030,37.8700,87,93,132603
1.8182,0.2981,38.6800,87,93,132608
1.8280,0.2933,38.6200,87,93,132611
1.8133,0.2933,38.7100,87,93,132614
1.8231,0.2933,38.7400,87,93,132617
1.8524,0.2981,38.7100,87,93,132621
1.8328,0.2884,38.7100,87,93,132624
1.8573,0.2884,38.5800,87,93,132627
1.8231,0.2884,38.7700,87,93,132631
1.8280,0.2933,38.7100,87,93,132634
1.8426,0.2933,38.6500,87,93,132637
1.8426,0.3177,38.7100,87,93,132641
1.8768,0.2933,38.5500,87,93,132644
1.8573,0.2981,38.7400,87,93,132647
1.8719,0.2933,38.7400,87,93,132652
1.8915,0.2981,38.6200,87,93,132655
1.8573,0.2884,38.7100,87,93,132658
1.8817,0.2981,38.7100,87,93,132661
1.8426,0.3030,38.6200,87,93,132665
1.8133,0.2884,38.7100,87,93,132668
1.8231,0.3030,38.6800,87,93,132671
1.8035,0.2884,38.7400,87,93,132675
1.8622,0.3030,38.4300,87,93,132678
1.8328,0.3030,38.5800,87,93,132681
1.8671,0.2884,38.7100,87,93,132685
1.8475,0.2981,38.8100,87,93,132688
1.8475,0.2933,38.7100,87,93,132691
1.9110,0.3079,38.2400,87,93,132696
1.8964,0.2981,38.7100,87,93,132699
1.8671,0.2884,38.6200,87,93,132702
1.8475,0.2981,38.7100,87,93,132705
1.8377,0.2933,38.7400,87,93,132709
1.8719,0.3324,38.6200,87,93,132712
1.8719,0.2933,38.7100,87,93,132715
1.9062,0.2933,38.5800,87,93,132719
1.9013,0.2933,38.7400,87,93,132722
1.9306,0.2884,38.8400,87,93,132725
1.9795,0.3030,38.5800,87,93,132729
1.9648,0.2933,38.6500,87,93,132732
1.9990,0.2933,38.5800,87,93,132736
1.9648,0.2884,38.6800,87,93,132740
1.9453,0.3030,38.7100,87,93,132743
1.9404,0.2981,38.5800,87,93,132746
1.8915,0.2933,38.8100,87,93,132749
1.8964,0.3030,38.4900,87,93,132753
1.8475,0.2933,38.6800,87,93,132756
1.8182,0.2933,38.8100,87,93,132759
1.8182,0.2981,38.6500,87,93,132763
1.7889,0.2884,38.7400,87,93,132766
1.8280,0.3030,38.4600,87,93,132769
1.7840,0.2884,38.5800,87,93,132773
1.7791,0.2884,38.7100,87,93,132776
1.7840,0.2981,38.6800,86,93,132780
1.7302,0.2933,38.7100,86,93,132784
1.7302,0.2884,38.6500,86,93,132787
1.7937,0.3030,38.5500,86,93,132791
1.7498,0.2933,38.8700,86,93,132794
1.7840,0.2933,38.5500,86,93,132797
1.7693,0.2933,38.7400,86,93,132801
1.7644,0.2884,38.6500,86,93,132804
1.7791,0.2884,38.6200,86,93,132807
1.7302,0.2933,38.7100,86,93,132810
1.7449,0.2933,38.5800,86,93,132814
1.7498,0.2884,38.7100,86,93,132817
1.7253,0.2884,38.7400,86,93,132820
1.7351,0.2884,38.6200,86,93,132825
1.7253,0.2933,38.1500,86,93,132828
1.7889,0.3030,38.4900,86,93,132831
1.8328,0.2884,38.2400,86,93,132835
1.9550,0.2884,38.7400,86,93,132838
2.1359,0.2884,38.6800,86,93,132841
2.2336,0.2884,38.7400,86,93,132845
2.3705,0.2981,38.4600,86,93,132848
2.3705,0.2981,38.6200,86,93,132851
2.3216,0.2884,38.8100,86,93,132854
2.2190,0.2688,38.6800,86,93,132858
2.0381,0.2884,38.7400,86,93,132861
1.9062,0.3079,38.4900,86,93,132865
1.6667,0.3030,38.6200,86,93,132869
1.4614,0.2884,38.6500,86,93,132872
1.2805,0.2835,38.7400,86,93,132875
1.1681,0.2884,38.7400,86,93,132879
1.0802,0.3030,38.5800,86,93,132882
1.0508,0.2933,38.6500,86,93,132885
1.1388,0.3226,38.6200,86,93,132888
1.2854,0.2884,38.7400,86,93,132892
1.4467,0.2884,38.7100,86,93,132895
1.6178,0.2981,38.6500,86,93,132898
1.7204,0.2933,38.7400,86,93,132902
1.8231,0.2933,38.5800,86,93,132905
1.8475,0.2933,38.7400,86,93,132909
1.8866,0.2884,38.7400,86,93,132913
1.9355,0.3030,38.5800,86,93,132916
1.9159,0.2884,38.7100,86,93,132919
1.9501,0.2933,38.5500,86,93,132923
1.9159,0.2933,38.6500,86,93,132926
1.9062,0.2933,38.7100,86,93,132929
1.9257,0.2933,38.5500,86,93,132932
1.9208,0.2688,38.7400,86,93,132936
1.9697,0.2981,38.5200,86,93,132939
1.9550,0.3030,38.6500,86,93,132942
1.9453,0.2933,38.7400,86,93,132946
1.9453,0.2981,38.7400,86,93,132950
1.9110,0.2835,38.7100,86,93,132953
1.9550,0.3030,38.4600,86,93,132957
1.8964,0.2933,38.6500,86,93,132960
1.8817,0.2884,38.7100,86,93,132963
1.8866,0.2933,38.6800,86,93,132966
1.8768,0.3030,38.7100,86,93,132970
1.9404,0.3079,38.4900,86,93,132973
1.8964,0.2981,38.0500,86,93,132976
1.8915,0.2884,38.6200,86,93,132980
1.8866,0.2933,38.7400,86,93,132983
1.8817,0.2884,38.7700,86,93,132986
1.9062,0.2884,38.5800,86,93,132990
1.8866,0.2981,38.7100,86,93,132994
1.8964,0.3128,38.6800,86,93,132997
1.8866,0.2933,38.7100,86,93,133001
1.8915,0.2933,38.7700,86,93,133004
1.9208,0.2981,38.5500,86,93,133007
1.8915,0.2981,38.7100,86,93,133010
1.9159,0.2981,38.5800,86,93,133014
1.8915,0.2981,38.7100,86,93,133017
1.8964,0.2884,38.7700,86,93,133020
1.9159,0.2933,38.6500,86,93,133024
1.9110,0.2933,38.7400,86,93,133027
1.9257,0.2933,38.5500,86,93,133030
1.8866,0.2933,38.6200,86,93,133035
1.8768,0.2835,38.8100,86,93,133038
1.8866,0.2981,38.6800,86,93,133041
1.8622,0.2933,38.7100,86,93,133045
1.9013,0.2981,38.5200,86,93,133048
1.8768,0.2981,38.6200,86,93,133051
1.8622,0.2884,38.7100,86,93,133054
1.8768,0.2981,38.7700,86,93,133058
1.8475,0.2835,38.7700,86,93,133061
1.8964,0.3030,38.4300,86,93,133064
1.8426,0.3177,38.5500,86,93,133068
1.8231,0.2688,38.6800,86,93,133071
1.8280,0.2933,38.7700,86,93,133074
1.8280,0.2981,38.7400,86,93,133079
1.8915,0.3079,38.5500,86,93,133082
1.8475,0.2981,38.7400,86,93,133085
1.8426,0.2933,38.6500,86,93,133089
1.8231,0.2933,38.7100,86,93,133092
1.8231,0.2688,38.7100,86,93,133095
1.8524,0.3030,38.6500,86,93,133099
1.8426,0.2884,38.7100,86,93,133102
1.8768,0.2981,38.5800,86,93,133105
1.8719,0.2933,38.7700,86,93,133108
1.9013,0.2688,38.7100,86,93,133112
1.9404,0.3030,38.5500,86,93,133115
1.9257,0.2884,38.7100,86,93,133118
1.9355,0.2933,38.6500,86,93,133123
1.8964,0.2933,38.6500,86,93,133126
1.8915,0.2884,38.7400,86,93,133129
1.9159,0.2933,38.5500,86,93,133133
1.8964,0.2884,38.7400,86,93,133136
1.9453,0.2981,38.4900,86,93,133139
1.9306,0.2981,38.7100,86,93,133143
1.9257,0.2884,38.7700,86,93,133146
1.9453,0.2933,38.6500,86,93,133149
1.9306,0.2884,38.7100,86,93,133152
1.9795,0.3030,38.4600,86,93,133156
1.9355,0.2688,38.6500,86,93,133159
1.9208,0.2884,38.7100,86,93,133163
1.9159,0.2981,38.6800,86,93,133167
1.9013,0.2884,38.8100,86,93,133170
1.9453,0.3030,38.5200,86,93,133173
1.8964,0.2933,38.6500,86,93,133177
1.8817,0.2884,38.6500,86,93,133180
1.8915,0.2933,38.6800,86,93,133183
1.8524,0.2884,38.8100,86,93,133187
1.8719,0.3079,38.5200,86,93,133190
1.8231,0.2933,38.6800,86,93,133193
1.8182,0.2933,38.5800,86,93,133196
1.7937,0.2933,38.7400,86,93,133200
1.7986,0.2884,38.7400,86,93,133203
1.8231,0.3470,38.6200,86,93,133207
1.8182,0.2884,38.7400,86,93,133211
1.8280,0.2981,38.5800,86,93,133214
1.8084,0.2884,38.8100,86,93,133217
1.8133,0.2933,38.7100,86,93,133221
1.8231,0.2933,38.6200,86,93,133224
1.8084,0.3030,38.7400,86,93,133227
1.8622,0.2884,38.5500,86,93,133230
1.8084,0.2884,38.7100,86,93,133234
1.8133,0.3030,38.7100,86,93,133237
1.8377,0.2981,38.5800,86,93,133240
1.8182,0.2981,38.7400,86,93,133244
1.8573,0.2884,38.4600,86,93,133248
1.8377,0.2933,38.6200,86,93,133251
1.8328,0.2884,38.8100,86,93,133255
1.8573,0.2981,38.6500,86,93,133258
1.8377,0.2884,38.8400,86,93,133261
1.8915,0.3030,38.4000,86,93,133265
1.8475,0.2933,38.6200,86,93,133268
1.8328,0.2835,38.7100,86,93,133271
1.8426,0.2933,38.6800,86,93,133274
1.8377,0.2884,38.7100,86,93,133278
1.8964,0.2981,38.4900,86,93,133281
1.8524,0.2981,38.7100,86,93,133284
1.8475,0.2835,38.6500,86,93,133288
1.8426,0.2884,38.7100,86,93,133292
1.8475,0.2933,38.7400,86,93,133295
1.8817,0.3030,38.6200,86,93,133299
1.8573,0.2933,38.7100,86,93,133302
1.8622,0.2981,38.5800,86,93,133305
1.8426,0.2933,38.8400,86,93,133309
1.8377,0.2835,38.7400,86,93,133312
1.8671,0.3030,38.5800,86,93,133315
1.8328,0.3030,38.6800,86,93,133318
1.8671,0.3030,38.5800,86,93,133322
1.8426,0.2884,38.6800,86,93,133325
1.8426,0.2884,38.8100,86,93,133328
1.8475,0.2981,38.5800,86,93,133332
1.8231,0.2933,38.7400,86,93,133336
1.8475,0.3128,38.5200,86,93,133339
1.8280,0.2933,38.6500,86,93,133343
1.8328,0.2884,38.7100,86,93,133346
1.8475,0.2981,38.6800,86,93,133349
1.8475,0.2884,38.7100,86,93,133352
1.8817,0.2981,38.4900,86,93,133356
1.8426,0.2884,38.7400,86,93,133359
1.8475,0.2884,38.8100,86,93,133362
1.8671,0.2981,38.6800,86,93,133366
1.8524,0.2884,38.8100,86,93,133369
1.9062,0.3030,38.4300,86,93,133372
1.8866,0.2981,38.6200,86,93,133377
1.8915,0.2835,38.6500,86,93,133380
1.9208,0.2933,38.7100,86,93,133383
1.9306,0.2884,38.7400,86,93,133387
1.9990,0.3030,38.5200,86,93,133390
1.9746,0.2981,38.6200,86,93,133394
1.9355,0.2933,38.0200,86,93,133397
1.9453,0.3079,38.5800,86,93,133400
1.8964,0.2884,38.7400,86,93,133404
1.8817,0.2884,38.8100,86,93,133407
1.8866,0.2981,38.6200,86,93,133410
1.8426,0.2933,38.7700,86,93,133413
1.8524,0.2933,38.4600,86,93,133417
1.8084,0.2884,38.7400,86,93,133421
1.8035,0.2884,38.7400,86,93,133424
1.8133,0.3030,38.6200,86,93,133428
1.7840,0.2884,38.7400,86,93,133431
1.8328,0.3030,38.4300,86,93,133434
1.8133,0.2933,38.6500,86,93,133438
1.7986,0.2884,38.8100,86,93,133441
1.8035,0.2884,38.6800,86,93,133444
1.7595,0.2884,38.7100,86,93,133447
1.7986,0.3030,38.4000,86,93,133451
1.7644,0.2933,38.5800,86,93,133454
1.7595,0.2884,38.6800,86,93,133457
1.7840,0.2933,38.6800,86,93,133462
1.8231,0.2933,38.7100,86,93,133465
1.8622,0.3079,38.5500,86,93,133468
1.8035,0.3079,38.6500,86,93,133472
1.7986,0.2884,38.6200,86,93,133475
1.7400,0.2933,38.8400,86,93,133478
1.7302,0.2933,38.7100,86,93,133482
1.7546,0.3030,37.9900,86,93,133485
1.7302,0.2933,38.6800,86,93,133488
1.7449,0.2884,38.5500,86,93,133491
1.7351,0.3275,38.6500,86,93,133495
1.7693,0.2933,38.7100,86,93,133498
1.8280,0.3030,38.5500,86,93,133501
1.8964,0.2884,38.7100,86,93,133506
2.0821,0.2933,38.6500,86,93,133509
2.2092,0.2933,38.6500,86,93,133512
2.3314,0.2884,38.7400,86,93,133516
2.4194,0.2981,38.5800,86,93,133519
2.3949,0.2933,38.7100,86,93,133522
2.3705,0.2981,38.5200,86,93,133526
2.1945,0.2835,38.6500,86,93,133529
2.0137,0.2933,38.7400,86,93,133532
1.8280,0.2981,38.6500,86,93,133535
1.5982,0.2835,38.7400,86,93,133539
1.4272,0.3030,38.4900,86,93,133542
1.2219,0.3226,38.6800,86,93,133545
1.1144,0.2933,38.7100,86,93,133550
1.0606,0.2933,38.7400,86,93,133553
1.0802,0.2884,38.7700,86,93,133556
1.2219,0.3079,38.4600,86,93,133560
1.3539,0.2981,38.6500,86,93,133563
1.5103,0.2786,38.7100,86,93,133566
1.6520,0.2933,38.8400,86,93,133570
1.7400,0.3030,38.7400,86,93,133573
1.8573,0.2981,38.5200,86,93,133576
1.8573,0.3128,38.6500,86,93,133579
1.8915,0.2933,38.6200,86,93,133583
1.8817,0.2933,38.7100,86,93,133586
1.8866,0.2981,38.7100,86,93,133590
1.9208,0.2981,38.5800,86,93,133594
1.9013,0.2933,38.5200,86,93,133597
1.9257,0.3079,38.5800,86,93,133600
1.9062,0.2933,38.7100,86,93,133604
1.9159,0.2884,38.8400,86,93,133607
1.9355,0.2933,38.6500,86,93,133610
1.9208,0.2933,38.7100,86,93,133613
1.9453,0.2933,38.5500,86,93,133617
1.9110,0.2933,37.9600,86,93,133620
1.9013,0.2835,38.7400,86,93,133623
1.9208,0.2981,38.6200,86,93,133627
1.8964,0.2835,38.7400,86,93,133630
1.9306,0.2981,38.4900,86,93,133634
1.9013,0.2981,38.5800,86,93,133638
1.8817,0.2981,38.7100,86,93,133641
1.9013,0.2981,38.6500,86,93,133644
1.8915,0.2933,38.7100,86,93,133648
1.9404,0.3030,38.4300,86,93,133651
1.9062,0.2981,38.5800,86,93,133654
1.8964,0.2835,38.6800,86,93,133658
1.8964,0.2933,38.6500,86,93,133661
1.8866,0.2933,38.7400,86,93,133664
1.9404,0.3079,38.4900,86,93,133667
1.8915,0.3177,38.6500,86,93,133671
1.8866,0.2933,38.6200,86,93,133675
1.8768,0.2933,38.8100,86,93,133678
1.8768,0.2933,38.7100,86,93,133682
1.9208,0.3030,38.7100,86,93,133685
1.8964,0.2933,38.7100,86,93,133688
1.9257,0.2933,38.6200,86,93,133692
1.8866,0.3324,38.7400,86,93,133695
1.8817,0.2933,38.7400,86,93,133698
1.9306,0.2981,38.5500,86,93,133701
1.9257,0.2933,38.7100,86,93,133705
1.9648,0.2981,38.6800,86,93,133708
1.9257,0.2835,38.6800,86,93,133711
1.9110,0.2884,38.7100,86,93,133715
1.9013,0.3177,38.5800,86,93,133719
1.8768,0.2884,38.7100,86,93,133722
1.8719,0.2933,38.5500,86,93,133726
1.8475,0.2933,38.6500,86,93,133729
1.8280,0.2884,38.7100,86,93,133732
1.8377,0.3226,38.6200,86,93,133736
1.8084,0.2884,38.7400,86,93,133739
1.8426,0.2981,38.4900,86,93,133742
1.7937,0.2981,38.6500,86,93,133746
1.8035,0.2884,38.7400,86,93,133749
1.8133,0.2884,38.6800,86,93,133752
1.8084,0.2835,38.7400,86,93,133755
1.8622,0.3079,38.5200,86,93,133760
1.8328,0.2933,38.6800,86,93,133763
1.8231,0.2884,38.6800,86,93,133766
1.8475,0.3030,38.6800,86,93,133770
1.8475,0.2933,38.7400,86,93,133773
1.9110,0.3030,38.5500,86,93,133776
1.8915,0.2981,38.6800,86,93,133780
1.8964,0.2688,38.6200,86,93,133783
1.8964,0.2933,38.6800,86,93,133786
1.9110,0.2933,38.8100,86,93,133789
1.9550,0.2981,38.5800,86,93,133793
1.9355,0.2981,38.6800,86,93,133796
1.9697,0.2981,38.5500,86,93,133799
1.9501,0.2933,38.9000,86,93,133804
1.9501,0.2933,38.7400,86,93,133807
1.9648,0.2884,38.6800,86,93,133810
1.9501,0.3128,38.7100,86,93,133814
1.9795,0.2933,38.6200,86,93,133817
1.9404,0.2981,38.8100,86,93,133820
1.9648,0.2884,38.7100,86,93,133824
1.9501,0.2981,38.7700,86,93,133827
1.9355,0.2884,38.7100,86,93,133830
1.9550,0.2981,38.5800,86,93,133833
1.9110,0.3030,38.6500,86,93,133837
1.8964,0.2933,38.7100,86,93,133840
1.9355,0.3030,38.6800,86,93,133843
1.9062,0.3128,38.7100,86,93,133848
1.9453,0.3030,38.4300,86,93,133851
1.8768,0.2933,38.6500,86,93,133854
1.8426,0.2933,38.7400,86,93,133858
1.8280,0.2933,38.7400,86,93,133861
1.8084,0.2933,38.7400,86,93,133864
1.8524,0.3079,38.4300,86,93,133868
1.8035,0.3030,38.6800,86,93,133871
1.7937,0.2933,38.6500,86,93,133874
1.7986,0.2933,38.7100,86,93,133877
1.8133,0.2933,38.7100,86,93,133881
1.8475,0.3079,38.5800,86,93,133884
1.8280,0.2933,38.7100,86,93,133888
1.8573,0.2933,38.5800,86,93,133892
1.8671,0.2933,38.7100,86,93,133895
1.8768,0.2981,38.7400,86,93,133898
1.9110,0.3030,38.5800,86,93,133902
1.8671,0.2981,38.7100,86,93,133905
1.8573,0.2981,38.5500,86,93,133908
1.8280,0.2884,38.7400,86,93,133912
1.8231,0.2933,38.7100,86,93,133915
1.8377,0.2981,38.5500,86,93,133918
1.8377,0.2933,38.7400,86,93,133921
1.8231,0.2933,38.5200,86,93,133925
1.8035,0.2884,38.6500,86,93,133928
1.8084,0.2884,38.7100,86,93,133932
1.8231,0.3324,38.5800,86,93,133936
1.7986,0.2884,38.7400,86,93,133939
1.8231,0.2981,38.4300,86,93,133942
1.7840,0.2688,38.6800,86,93,133946
1.7986,0.2884,38.7100,86,93,133949
1.8280,0.3030,38.6500,86,93,133952
1.8231,0.2933,38.7400,86,93,133956
1.8719,0.3030,38.4000,86,93,133959
1.8377,0.3030,38.6800,86,93,133962
1.8133,0.2884,38.7100,86,93,133965
1.8231,0.2884,38.6800,86,93,133969
1.8182,0.2884,38.7100,86,93,133972
1.8768,0.3079,38.8100,86,93,133976
1.8573,0.2981,38.6800,86,93,133980
1.8573,0.2884,38.6200,86,93,133983
1.8671,0.2933,38.7100,86,93,133986
1.8622,0.2933,38.7400,86,93,133990
1.8915,0.2981,38.5500,86,93,133993
1.8573,0.2933,38.6800,86,93,133996
1.8573,0.2981,38.5500,86,93,134000
1.8182,0.2884,38.7400,86,93,134003
1.8182,0.2884,38.7700,86,93,134007
1.8328,0.2981,38.7100,86,93,134010
1.8573,0.3030,38.6200,86,93,134013
1.8328,0.3030,38.8100,86,93,134018
1.8671,0.2981,38.4600,86,93,134021
1.8475,0.2933,38.5800,86,93,134024
1.8426,0.2835,38.7100,86,93,134027
1.8866,0.2981,38.6500,86,93,134031
1.8817,0.2884,38.6800,86,93,134034
1.9306,0.3030,38.4300,86,93,134037
1.8768,0.2933,38.4900,86,93,134041
1.8524,0.2981,38.6800,86,93,134044
1.8671,0.2933,38.6800,86,93,134047
1.8622,0.2884,38.7100,86,93,134051
1.8866,0.2884,38.5800,86,93,134054
1.8328,0.2981,38.6800,86,93,134057
1.8182,0.2933,38.3000,86,93,134061
1.8084,0.2884,38.7100,86,93,134065
1.8182,0.2884,38.8100,86,93,134068
1.8768,0.2884,38.6200,86,93,134071
1.8866,0.2884,38.7100,86,93,134075
1.9306,0.2933,38.5200,86,93,134078
1.9306,0.2933,38.7400,86,93,134081
1.9306,0.2884,38.7400,86,93,134085
1.9550,0.2884,38.5800,86,93,134088
1.9013,0.2933,38.7100,86,93,134091
1.9159,0.2933,38.5800,86,93,134095
1.8768,0.2884,38.6500,86,93,134098
1.8768,0.2884,38.8400,86,93,134102
1.8866,0.2981,38.5800,86,93,134105
1.8524,0.2884,38.7100,86,93,134109
1.8671,0.2933,38.5500,86,93,134112
1.8377,0.2933,38.6500,86,93,134115
1.8182,0.3226,38.7100,86,93,134119
1.8328,0.2981,38.6800,86,93,134122
1.8133,0.2884,38.6800,86,93,134125
1.8573,0.3030,38.4600,86,93,134129
1.8182,0.2933,38.6500,86,93,134132
1.8035,0.2933,38.7400,86,93,134135
1.7937,0.2981,38.6800,86,93,134139
1.8084,0.2933,38.7100,86,93,134142
1.8377,0.3128,38.4600,86,93,134146
1.8084,0.2981,38.6500,86,93,134149
1.7986,0.2884,38.6800,86,93,134153
1.7791,0.2933,38.6800,86,93,134156
1.7791,0.2884,38.7400,86,93,134159
1.7986,0.3030,38.7700,86,93,134163
1.7840,0.2933,38.6500,86,93,134166
1.7498,0.2884,38.6800,86,93,134169
1.7498,0.2933,38.7100,86,93,134173
1.8280,0.2933,38.7400,86,93,134176
1.9159,0.2981,38.6200,86,93,134179
1.9062,0.3177,38.7400,86,93,134183
1.8915,0.2981,38.6200,86,93,134187
1.7986,0.2884,38.7100,86,93,134190
1.7546,0.2884,38.7100,86,93,134194
1.7742,0.2933,38.6200,86,93,134197
1.8573,0.2933,38.7100,86,93,134200
2.0235,0.2933,38.4900,86,93,134203
2.1652,0.2933,38.7100,86,93,134207
2.2678,0.2933,38.5500,86,93,134210
2.3705,0.3030,38.6800,86,93,134213
2.3607,0.2835,38.7100,86,93,134217
2.3412,0.2981,38.5200,86,93,134220
2.1701,0.2981,38.6200,86,93,134223
1.9795,0.2884,38.7400,86,93,134227
1.7840,0.2933,38.6800,86,93,134231
1.5543,0.2933,38.7100,86,93,134234
1.4027,0.3030,38.3600,86,93,134238
1.2219,0.2933,38.5500,86,93,134241
1.0948,0.2884,38.8100,86,93,134244
1.0557,0.2933,38.7100,86,93,134247
1.0948,0.2884,38.7100,86,93,134251
1.2512,0.3079,38.5500,86,93,134254
1.3783,0.2933,38.6800,86,93,134257
1.5396,0.2884,38.6800,86,93,134261
1.6764,0.2933,38.7100,86,93,134264
1.7937,0.2884,38.9300,86,93,134267
1.8964,0.3030,38.6500,86,93,134272
1.8964,0.2688,38.7100,86,93,134275
1.9159,0.3030,38.5200,86,93,134278
1.9062,0.2884,38.7100,86,93,134282
1.9062,0.2884,38.7400,86,93,134285
1.9355,0.2933,38.5200,86,93,134288
1.8915,0.2933,38.6800,86,93,134291
1.9013,0.2933,38.6200,86,93,134295
1.8622,0.2884,38.6800,86,93,134298
1.8524,0.3226,38.7400,86,93,134301
1.8719,0.2981,38.5800,86,93,134305
1.8426,0.2884,38.7100,86,93,134308
1.8817,0.2884,38.4900,86,93,134311
1.8475,0.2981,38.5500,86,93,134316
1.8475,0.3128,38.7400,86,93,134319
1.8719,0.2981,38.6500,86,93,134322
1.8573,0.2933,38.8400,86,93,134326
1.9110,0.3079,38.4600,86,93,134329
1.8817,0.2884,38.7400,86,93,134332
1.8866,0.3079,38.7100,86,93,134335
1.9013,0.2981,38.7100,86,93,134339
1.8866,0.2884,38.7400,86,93,134342
1.9355,0.3079,38.4900,86,93,134345
1.9208,0.2981,38.8700,86,93,134349
1.9550,0.2835,38.6500,86,93,134352
2.0088,0.2933,38.6800,86,93,134355
2.0235,0.2884,38.7400,86,93,134360
2.0332,0.3030,38.5500,86,93,134363
1.9355,0.2981,38.6800,86,93,134366
1.8719,0.2933,38.6200,86,93,134369
1.8182,0.2933,38.6800,86,93,134373
1.7986,0.2884,38.7400,86,93,134376
1.8133,0.2933,38.5500,86,93,134379
1.7840,0.2933,38.7400,86,93,134383
1.8231,0.2981,38.5800,86,93,134386
1.8377,0.2981,38.7400,86,93,134389
1.8671,0.2884,38.7400,86,93,134393
1.8719,0.2981,38.6200,86,93,134396
1.8377,0.2933,38.7400,86,93,134400
1.8280,0.2933,38.5200,86,93,134404
1.7889,0.2884,38.6800,86,93,134407
1.7840,0.3128,38.7100,86,93,134410
1.8084,0.2981,38.6800,86,93,134414
1.8035,0.2933,38.7100,86,93,134417
1.8524,0.3030,38.4900,86,93,134420
1.8426,0.2981,38.7100,86,93,134423
1.8231,0.2981,38.7100,86,93,134427
1.8475,0.2981,38.6800,86,93,134430
1.8377,0.2884,38.7700,86,93,134433
1.9062,0.3128,38.4900,86,93,134437
1.8719,0.2933,38.5800,86,93,134440
1.8768,0.2884,38.6800,86,93,134444
1.9208,0.2933,38.7100,86,93,134448
1.9550,0.2884,38.7400,86,93,134451
2.0332,0.3079,38.5500,86,93,134454
1.9746,0.2981,38.6800,86,93,134457
1.9453,0.2933,38.6200,86,93,134461
1.9208,0.2933,38.7100,86,93,134464
1.8915,0.2884,38.8100,86,93,134467
1.8866,0.3079,38.6200,86,93,134471
1.8377,0.2933,38.7100,86,93,134474
1.8426,0.2933,38.5800,86,93,134477
1.8182,0.2933,38.7100,86,93,134481
1.8035,0.2884,38.7700,86,93,134484
1.8182,0.3030,38.5800,86,93,134488
1.7986,0.2933,38.7400,86,93,134492
1.8475,0.3030,38.5800,86,93,134495
1.8426,0.2884,38.6800,86,93,134498
1.8719,0.2933,38.7400,86,93,134501
1.9110,0.2933,38.5800,86,93,134505
1.9110,0.2884,38.7400,86,93,134508
1.9453,0.2933,38.5500,86,93,134511
1.9404,0.2933,38.6500,86,93,134515
1.9306,0.2884,38.7400,86,93,134518
1.9501,0.3030,38.6500,86,93,134521
1.9453,0.2884,38.7100,86,93,134525
1.9892,0.3030,37.8700,86,93,134529
1.9453,0.2933,38.6200,86,93,134532
1.9257,0.2884,38.7400,86,93,134536
1.9306,0.2933,38.6800,86,93,134539
1.8622,0.2884,38.9600,86,93,134542
1.8964,0.3079,38.4300,86,93,134545
1.8622,0.2981,38.6800,86,93,134549
1.8328,0.2884,38.6800,86,93,134552
1.8377,0.2981,38.7100,86,93,134555
1.8475,0.2884,38.7400,86,93,134559
1.9453,0.3079,38.6500,86,93,134562
1.9355,0.2981,38.6800,86,93,134565
1.8866,0.2933,38.6200,86,93,134569
1.7791,0.3177,38.8100,86,93,134573
1.7009,0.2884,38.7400,86,93,134576
1.6813,0.3030,38.5500,86,93,134580
1.6569,0.2933,38.7100,86,93,134583
1.6911,0.2981,38.4900,86,93,134586
1.7009,0.2933,38.7100,86,93,134589
1.7351,0.2933,38.7400,86,93,134593
1.7742,0.2933,38.6200,86,93,134596
1.7791,0.2884,38.7100,86,93,134599
1.8182,0.2933,38.6800,86,93,134603
1.7986,0.2884,38.6800,86,93,134606
1.8084,0.2884,38.7400,86,93,134609
1.8573,0.3177,38.6200,86,93,134614
1.8035,0.3030,38.6800,86,93,134617
1.7791,0.2933,38.7100,86,93,134621
1.8328,0.3030,38.4600,86,93,134624
1.8182,0.2981,38.6800,86,93,134627
1.8231,0.2884,38.6800,86,93,134631
1.8622,0.2933,38.7100,86,93,134634
1.8768,0.2884,38.7100,86,93,134637
1.9501,0.3079,38.6200,86,93,134640
1.9159,0.3079,38.7400,86,93,134644
1.9062,0.2933,38.6200,86,93,134647
1.8719,0.2933,38.7100,86,93,134650
1.8426,0.2884,38.7400,86,93,134654
1.8622,0.3030,38.6500,86,93,134658
1.8377,0.2933,38.7100,86,93,134661
1.8573,0.2933,38.6200,86,93,134665
1.8475,0.2884,38.7400,86,93,134668
1.8866,0.2884,38.7100,86,93,134671
1.9257,0.3030,38.5500,86,93,134675
1.9013,0.2884,38.7100,86,93,134678
1.9062,0.2933,38.5800,86,93,134681
1.8524,0.2884,38.6500,86,93,134684
1.8573,0.2933,38.7400,86,93,134688
1.8377,0.2981,38.6200,86,93,134691
1.8426,0.2933,38.7100,86,93,134694
1.8622,0.2981,38.7400,86,93,134699
1.8426,0.2981,38.6800,86,93,134702
1.8573,0.2884,38.7400,86,93,134705
1.8866,0.2981,38.6500,86,93,134709
1.8817,0.2933,38.8100,86,93,134712
1.9453,0.3030,38.4600,86,93,134715
1.9501,0.2933,38.6800,86,93,134719
1.9257,0.2884,38.7100,86,93,134722
1.9550,0.2933,38.8100,86,93,134725
1.9648,0.2933,38.7100,86,93,134728
2.0332,0.3079,38.7700,86,93,134732
1.9892,0.2981,38.5200,86,93,134735
1.9599,0.2981,38.6500,86,93,134738
1.9599,0.2933,38.7100,86,93,134743
1.9501,0.2884,38.7100,86,93,134746
1.9990,0.3030,38.5800,86,93,134749
1.9550,0.2933,38.6800,86,93,134753
1.9159,0.2933,38.6200,86,93,134756
1.8475,0.2933,38.7100,86,93,134759
1.8133,0.2933,38.7100,86,93,134763
1.8231,0.2981,38.5500,86,93,134766
1.8182,0.2884,38.7400,86,93,134769
1.8035,0.2981,38.6200,86,93,134772
1.7742,0.2933,38.8100,86,93,134776
1.7693,0.2884,38.7400,86,93,134779
1.7791,0.3079,38.6500,86,93,134782
1.7742,0.2933,38.7100,86,93,134787
1.7937,0.2933,38.5200,86,93,134790
1.7644,0.2835,38.7400,86,93,134793
1.7693,0.2884,38.7100,86,93,134797
1.7937,0.3030,38.6200,86,93,134800
1.7937,0.2884,38.4900,86,93,134803
1.8377,0.3275,38.4600,86,93,134807
1.8035,0.2981,38.6500,86,93,134810
1.7546,0.2884,38.6500,86,93,134813
1.7449,0.2981,38.6800,86,93,134816
1.7009,0.2884,38.7400,86,93,134820
1.7449,0.3030,38.4600,86,93,134823
1.7253,0.2981,38.7400,86,93,134827
1.7351,0.2884,38.8400,86,93,134831
1.7595,0.2933,38.7100,86,93,134834
1.7595,0.2884,38.7400,86,93,134837
1.8084,0.3079,38.5800,86,93,134841
1.7742,0.2933,38.6800,86,93,134844
1.7498,0.2933,38.6200,86,93,134847
1.7449,0.2884,38.7400,86,93,134851
1.7742,0.2884,38.6800,86,93,134854
1.8964,0.2981,38.6200,86,93,134857
2.0088,0.2933,38.7100,86,93,134860
2.1896,0.2933,38.5500,86,93,134864
2.2972,0.2884,38.7100,86,93,134867
2.3851,0.2884,38.7100,86,93,134871
2.4536,0.3030,38.5500,86,93,134875
2.3754,0.2933,38.8100,86,93,134878
2.2581,0.2933,38.5800,86,93,134881
2.0332,0.2884,38.6500,86,93,134885
1.8231,0.2884,38.6500,86,93,134888
1.6422,0.2981,38.6200,86,93,134891
1.4272,0.2933,38.7700,86,93,134895
1.2708,0.2933,38.4600,86,93,134898
1.1193,0.2981,38.6800,86,93,134901
1.0362,0.2933,38.7400,86,93,134904
1.0557,0.2981,38.6200,86,93,134908
1.1339,0.2933,38.7100,86,93,134912
1.3245,0.3324,38.4600,86,93,134915
1.4614,0.2884,38.6500,86,93,134919
1.6031,0.2835,38.8100,86,93,134922
1.7058,0.2688,38.7100,86,93,134925
1.7595,0.2884,38.7100,86,93,134929
1.8866,0.3128,38.4600,86,93,134932
1.8671,0.2981,38.6800,86,93,134935
1.8964,0.2884,38.6500,86,93,134939
1.9257,0.2933,38.7100,86,93,134942
1.9306,0.2835,38.7400,86,93,134945
1.9844,0.3030,38.5200,86,93,134948
1.9599,0.2981,38.8700,86,93,134952
1.9795,0.3030,38.6200,86,93,134956
1.9746,0.2688,38.7100,86,93,134959
1.9795,0.2884,38.6500,86,93,134963
1.9990,0.2981,38.5500,86,93,134966
1.9404,0.2933,38.7700,86,93,134969
1.9159,0.3079,38.6200,86,93,134973
1.8475,0.2933,38.7400,86,93,134976
1.8231,0.2933,38.7400,86,93,134979
1.8328,0.2688,38.6500,86,93,134983
1.8377,0.2933,38.7700,86,93,134986
1.8817,0.2981,38.5500,86,93,134989
1.8768,0.2884,38.7100,86,93,134992
1.8915,0.2933,38.8100,86,93,134996
1.9159,0.2981,38.6500,86,93,135000
1.8915,0.3030,38.7100,86,93,135003
1.9257,0.3030,38.4600,86,93,135007
1.9062,0.2981,38.7400,86,93,135010
1.8915,0.2884,38.7100,86,93,135013
1.9159,0.2981,38.7400,86,93,135017
1.8915,0.2884,38.7100,86,93,135020
1.9795,0.2884,38.4300,86,93,135023
1.9110,0.2933,38.5500,86,93,135027
1.9257,0.2786,38.6800,86,93,135030
1.9355,0.2933,38.7100,86,93,135033
1.9355,0.3030,38.5800,86,93,135036
1.9746,0.3079,38.4900,86,93,135041
1.8964,0.2981,38.6800,86,93,135044
1.8524,0.2884,38.6200,86,93,135047
1.8133,0.2688,38.7100,86,93,135051
1.7986,0.2884,38.7100,86,93,135054
1.8280,0.3030,38.6200,86,93,135057
1.8133,0.2933,38.7100,86,93,135061
1.8426,0.3128,38.5200,86,93,135064
1.8280,0.2933,38.7400,86,93,135067
1.8328,0.2835,38.7400,86,93,135071
1.8719,0.3030,38.5500,86,93,135074
1.8524,0.2933,38.5500,86,93,135077
1.9159,0.2884,38.6200,86,93,135080
1.8475,0.2884,38.6800,86,93,135085
1.8426,0.3177,38.7400,86,93,135088
1.8622,0.2981,38.6500,86,93,135091
1.8475,0.2884,38.7100,86,93,135095
1.8817,0.2933,38.5200,86,93,135098
1.8671,0.2933,38.6500,86,93,135101
1.8622,0.3128,38.7400,86,93,135105
1.8768,0.2981,38.6200,86,93,135108
1.8671,0.2884,38.7100,86,93,135111
1.9159,0.3030,38.4600,86,93,135115
1.8524,0.2884,38.6500,86,93,135118
1.8671,0.2933,38.7100,86,93,135121
1.8524,0.2981,38.7100,86,93,135124
1.8328,0.2688,38.7100,86,93,135129
1.8817,0.3079,38.4600,86,93,135132
1.8426,0.3030,38.6800,86,93,135135
1.8524,0.2884,38.6500,86,93,135139
1.8671,0.2933,38.7100,86,93,135142
1.8817,0.2933,38.7400,86,93,135145
1.9453,0.3030,38.5500,86,93,135149
1.9404,0.2981,38.6800,86,93,135152
1.9599,0.2933,38.6200,86,93,135155
1.9453,0.2884,38.7100,86,93,135159
1.9404,0.2884,38.7700,86,93,135162
1.9501,0.3030,38.8100,86,93,135165
1.9208,0.2981,38.7100,86,93,135169
1.9306,0.3030,38.5500,86,93,135173
1.8915,0.2884,38.7700,86,93,135176
1.9013,0.2981,38.7400,86,93,135179
1.9306,0.2933,38.6500,86,93,135183
1.9257,0.2933,38.6800,86,93,135186
1.9453,0.2884,38.5800,86,93,135189
1.8866,0.2884,38.7400,86,93,135193
1.8671,0.2933,38.7100,86,93,135196
1.8524,0.2981,38.6200,86,93,135199
1.8182,0.2884,38.6800,86,93,135203
1.8426,0.2981,38.5800,86,93,135206
1.8084,0.3030,38.6800,86,93,135209
1.7791,0.2933,38.6800,86,93,135213
1.7937,0.2981,38.5200,86,93,135217
1.7742,0.3128,38.7100,86,93,135220
1.8231,0.3030,38.4300,86,93,135223
1.8719,0.3030,38.5800,86,93,135227
1.8377,0.2933,38.9000,86,93,135230
1.8328,0.2981,38.6200,86,93,135234
1.8035,0.2933,38.7100,86,93,135237
1.8035,0.2933,38.7400,86,93,135240
1.8377,0.2981,38.6800,86,93,135244
1.8280,0.2933,38.7100,86,93,135247
1.8524,0.3030,38.5800,86,93,135250
1.8280,0.2933,38.7700,86,93,135255
1.8280,0.2981,38.7100,86,93,135258
1.8671,0.3030,38.5800,86,93,135261
1.8426,0.2981,38.7400,86,93,135264
1.8915,0.2884,38.6200,86,93,135268
1.8622,0.2884,38.6500,86,93,135271
1.8573,0.3079,38.7400,86,93,135274
1.8915,0.2981,38.5500,86,93,135278
1.8817,0.2884,38.8400,86,93,135281
1.9257,0.3030,38.5200,86,93,135284
1.8866,0.2981,38.6500,86,93,135288
1.8475,0.2884,38.7400,86,93,135291
1.8426,0.2884,38.6800,86,93,135294
1.8084,0.2884,38.7400,86,93,135298
1.8475,0.3030,38.4900,86,93,135302
1.8084,0.2933,38.6500,86,93,135305
1.8133,0.2884,38.7400,86,93,135308
1.8280,0.2981,38.7400,86,93,135312
1.8328,0.2884,38.7700,86,93,135315
1.8817,0.3275,38.4900,86,93,135318
1.8280,0.2981,38.6500,86,93,135322
1.8084,0.2884,38.6500,86,93,135325
1.7889,0.2933,38.7100,86,93,135328
1.8035,0.2884,38.9000,86,93,135332
1.8524,0.3030,38.5200,86,93,135335
1.8524,0.2981,38.7100,86,93,135339
1.8671,0.2933,38.5800,86,93,135342
1.8426,0.2933,38.7400,86,93,135346
1.8328,0.2884,38.4900,86,93,135349
1.8573,0.2933,38.5800,86,93,135352
1.8182,0.2933,38.7700,86,93,135356
1.8426,0.2933,38.5800,86,93,135359
1.8280,0.2884,38.7100,86,93,135362
1.8475,0.3079,38.7100,86,93,135366
1.8817,0.2688,38.6800,86,93,135369
1.8817,0.2981,38.6800,86,93,135372
1.9062,0.3030,38.5500,86,93,135376
1.8915,0.2933,38.8100,86,93,135379
1.9208,0.2933,38.7400,86,93,135383
1.9697,0.2981,38.5500,86,93,135387
1.9550,0.2933,38.7400,86,93,135390
2.0039,0.3030,38.5200,86,93,135393
1.9599,0.2981,38.5200,86,93,135396
1.9306,0.2981,38.7400,86,93,135400
1.9501,0.2981,38.6800,86,93,135403
1.9501,0.2884,38.7400,86,93,135406
2.0235,0.3079,38.4300,86,93,135410
1.9746,0.2981,38.5800,86,93,135413
1.9501,0.2884,38.6500,86,93,135416
1.9013,0.2933,38.7700,86,93,135420
1.8524,0.2933,38.7400,86,93,135424
1.8671,0.3079,38.5500,86,93,135427
1.7986,0.3421,38.7100,86,93,135431
1.7889,0.2688,38.5800,86,93,135434
1.7595,0.2933,38.8700,86,93,135437
1.7449,0.2884,38.7100,86,93,135440
1.7693,0.2981,38.6800,86,93,135444
1.7595,0.2933,38.7100,86,93,135447
1.7889,0.2981,38.5500,86,93,135450
1.7742,0.3079,38.7100,86,93,135454
1.7791,0.2884,38.7100,86,93,135457
1.8035,0.3030,38.6200,86,93,135460
1.7693,0.2884,38.7100,86,93,135464
1.7937,0.2933,38.5500,86,93,135468
1.7742,0.3079,38.6200,86,93,135471
1.7889,0.2884,38.7400,86,93,135475
1.8035,0.3079,38.5800,86,93,135478
1.7742,0.2835,38.7400,86,93,135481
1.7986,0.2981,38.4900,86,93,135484
1.7546,0.2981,38.7400,86,93,135488
1.7644,0.2933,38.7100,86,93,135491
1.7498,0.2981,38.7100,86,93,135494
1.7351,0.2933,38.7400,86,93,135498
1.7937,0.3030,38.4600,86,93,135501
1.7498,0.2933,38.6800,86,93,135504
1.7351,0.2884,38.7400,86,93,135508
1.7155,0.2933,38.6800,86,93,135512
1.6960,0.2933,38.7700,86,93,135515
1.7889,0.3226,38.4900,86,93,135519
1.8524,0.2981,38.6800,86,93,135522
2.0088,0.2884,38.8400,86,93,135525
2.1848,0.2933,38.7100,86,93,135528
2.2923,0.2884,38.7400,86,93,135532
2.3998,0.3030,38.4900,86,93,135535
2.3705,0.2933,38.6800,86,93,135538
2.2972,0.2981,37.9000,86,93,135542
2.1114,0.3030,38.7400,86,93,135545
1.9599,0.2933,38.7400,86,93,135548
1.7595,0.2981,38.5500,86,93,135553
1.5347,0.2981,38.8100,86,93,135556
1.3636,0.2981,38.6200,86,93,135559
1.1877,0.2933,38.6800,86,93,135563
1.1193,0.2884,38.7400,86,93,135566
1.0557,0.2933,38.7400,86,93,135569
1.0899,0.2933,38.8400,86,93,135572
1.2268,0.2933,38.5500,86,93,135576
1.3881,0.2933,38.7100,86,93,135579
1.5591,0.2933,38.7700,86,93,135582
1.7204,0.2981,38.6500,86,93,135586
1.7840,0.3128,38.7100,86,93,135589
1.8671,0.2981,38.4600,86,93,135592
1.8573,0.2981,38.5500,86,93,135597
1.8573,0.2933,38.7100,86,93,135600
1.9110,0.2981,38.6500,86,93,135603
1.9550,0.2981,38.7100,86,93,135607
1.9941,0.3030,37.7400,86,93,135610
1.9453,0.2933,38.5800,86,93,135613
1.9013,0.2884,38.6500,86,93,135616
1.8866,0.2981,38.7100,86,93,135620
1.8866,0.2884,38.7400,86,93,135623
1.9306,0.3079,38.3300,86,93,135626
1.9013,0.3030,38.6800,86,93,135630
1.9208,0.2933,38.6200,86,93,135633
1.9013,0.2933,38.8400,86,93,135636
1.8915,0.2884,38.7400,86,93,135641
1.9110,0.3030,38.6500,86,93,135644
1.8915,0.2884,38.6800,86,93,135647
1.9208,0.2933,38.5800,86,93,135650
1.8964,0.2884,38.7100,86,93,135654
1.8964,0.2933,38.7100,86,93,135657
1.9306,0.3030,38.6500,86,93,135660
1.9062,0.2933,38.7100,86,93,135664
1.9355,0.2933,38.5800,86,93,135667
1.9013,0.2884,38.6800,86,93,135670
1.9306,0.2933,38.7400,86,93,135674
1.9257,0.2981,38.5200,86,93,135677
1.9062,0.2933,38.7100,86,93,135681
1.9453,0.2981,38.5200,86,93,135685
1.9208,0.3030,38.6500,86,93,135688
1.9110,0.2933,38.7100,86,93,135691
1.9306,0.2981,38.6500,86,93,135694
1.9110,0.2933,38.7400,86,93,135698
1.9648,0.3226,38.4600,86,93,135701
1.9306,0.2884,38.0800,86,93,135704
1.9306,0.3030,38.7100,86,93,135708
1.9404,0.2884,38.6500,86,93,135711
1.9062,0.2884,38.6500,86,93,135714
1.9453,0.3177,38.4600,86,93,135718
1.9013,0.2981,38.6500,86,93,135721
1.8866,0.2884,38.6500,86,93,135725
1.8866,0.2933,37.9300,86,93,135729
1.8768,0.2884,38.7400,86,93,135732
1.9110,0.3030,38.5500,86,93,135735
1.8426,0.2981,38.6500,86,93,135738
1.8182,0.2933,38.5800,86,93,135742
1.7889,0.2933,38.7400,86,93,135745
1.7840,0.2884,38.7400,86,93,135748
1.8133,0.2981,38.5800,86,93,135752
1.7986,0.2933,38.7100,86,93,135755
1.8280,0.2933,38.5800,86,93,135758
1.8133,0.2933,38.7400,86,93,135762
1.8280,0.3128,38.7100,86,93,135766
1.8475,0.2884,38.6200,86,93,135769
1.8426,0.2933,38.6500,86,93,135773
1.8671,0.2933,38.5500,86,93,135776
1.8426,0.3030,38.7400,86,93,135779
1.8475,0.2933,38.7400,86,93,135782
1.8768,0.2981,38.7100,86,93,135786
1.8671,0.2933,38.7100,86,93,135789
1.9110,0.3030,38.5500,86,93,135792
1.8964,0.2981,38.6200,86,93,135796
1.8964,0.2933,38.7400,86,93,135799
1.9306,0.3324,38.6500,86,93,135802
1.9208,0.2884,38.7400,86,93,135806
1.9697,0.3030,38.5200,86,93,135810
1.9697,0.2884,38.5500,86,93,135813
1.9453,0.2884,38.7100,86,93,135817
1.9795,0.3079,38.7100,86,93,135820
2.0186,0.2884,38.7400,86,93,135823
2.0919,0.3079,38.5500,86,93,135826
2.0235,0.2981,38.6500,86,93,135830
1.9697,0.2884,38.6200,86,93,135833
1.9159,0.2933,38.7400,86,93,135836
1.8866,0.2884,38.7400,86,93,135841
1.8915,0.3079,38.7400,86,93,135844
1.9355,0.3030,38.5800,86,93,135848
1.9062,0.2933,38.7400,86,93,135852
1.9159,0.2933,38.5500,86,93,135855
1.8573,0.2933,38.6500,86,93,135859
1.8182,0.2933,38.7100,86,93,135862
1.8182,0.2981,38.5800,86,93,135865
1.7937,0.2933,38.7100,86,93,135869
1.8377,0.2981,38.4600,86,93,135872
1.8133,0.2933,38.6200,86,93,135875
1.7986,0.2884,38.7700,86,93,135879
1.8133,0.2981,38.6800,86,93,135882
1.8182,0.2933,38.7100,86,93,135885
1.8573,0.3030,38.4600,86,93,135888
1.8475,0.2981,38.6200,86,93,135892
1.8231,0.2884,38.6800,86,93,135896
1.8280,0.3372,38.7100,86,93,135899
1.8231,0.2884,38.8100,86,93,135903
1.8719,0.3079,38.5800,86,93,135906
1.8377,0.2981,38.6800,86,93,135909
1.8426,0.2933,38.6200,86,93,135913
1.8328,0.2933,38.7100,86,93,135916
1.8328,0.2981,38.7400,86,93,135919
1.8915,0.3030,38.5500,86,93,135923
1.8426,0.2933,38.6800,86,93,135926
1.8573,0.3030,38.5500,86,93,135929
1.8377,0.2933,38.7400,86,93,135932
1.8426,0.2884,38.6800,86,93,135937
1.8866,0.3030,38.6200,86,93,135940
1.8671,0.2884,38.7400,86,93,135943
1.8866,0.2933,38.5800,86,93,135947
1.8524,0.2688,38.6800,86,93,135950
1.8475,0.2884,38.7400,86,93,135953
1.8671,0.3030,38.6800,86,93,135957
1.8426,0.2933,38.7400,86,93,135960
1.8622,0.2981,38.5200,86,93,135963
1.8133,0.2933,38.7100,86,93,135967
1.8084,0.2933,38.7400,86,93,135970
1.8280,0.2981,38.6800,86,93,135973
1.8084,0.3128,38.8100,86,93,135976
1.8622,0.2884,38.4300,86,93,135981
1.8426,0.2981,38.7100,86,93,135984
1.8328,0.2981,38.8100,86,93,135987
1.8426,0.2981,38.7100,86,93,135991
1.8231,0.3030,38.7100,86,93,135994
1.8964,0.3079,38.4600,86,93,135997
1.8280,0.3030,38.6500,86,93,136001
1.8035,0.2884,38.6200,86,93,136004
1.8182,0.2933,38.7100,86,93,136007
1.8084,0.2884,38.7700,86,93,136011
1.8524,0.3030,38.5500,86,93,136014
1.8328,0.2688,38.6800,86,93,136017
1.8426,0.2933,38.6800,86,93,136020
1.8671,0.2884,38.7100,86,93,136025
1.8426,0.2981,38.7400,86,93,136028
1.8768,0.2884,38.6500,86,93,136031
1.8719,0.2933,38.7100,86,93,136035
1.9159,0.2981,38.6200,86,93,136038
1.8964,0.2933,38.5200,86,93,136041
1.8915,0.2835,38.7100,86,93,136045
1.8817,0.3030,38.5800,86,93,136048
1.8426,0.2933,38.7700,86,93,136051
1.8573,0.2933,38.5500,86,93,136055
1.8182,0.2933,38.6500,86,93,136058
1.7986,0.2933,38.7100,86,93,136061
1.8231,0.3030,37.9600,86,93,136065
1.8133,0.2933,38.6500,86,93,136069
1.8671,0.3030,38.4600,86,93,136072
1.8426,0.2884,38.5800,86,93,136075
1.8377,0.2835,38.8100,86,93,136079
1.8622,0.2981,38.6800,86,93,136082
1.8671,0.2884,38.6500,86,93,136085
1.9453,0.2981,38.4900,86,93,136089
1.9306,0.2933,38.6500,86,93,136092
1.9208,0.3177,38.6800,86,93,136095
1.8915,0.2933,38.6800,86,93,136099
1.8328,0.2835,38.7400,86,93,136102
1.8426,0.2884,38.5200,86,93,136105
1.7791,0.2981,38.8100,86,93,136109
1.7742,0.3079,38.6800,86,93,136113
1.7742,0.2933,38.6800,86,93,136116
1.7840,0.2884,38.7400,86,93,136119
1.8426,0.2884,38.5200,86,93,136123
1.8182,0.2933,38.5800,86,93,136126
1.8377,0.2933,38.5800,86,93,136129
1.8280,0.2933,38.7100,86,93,136133
1.8328,0.2884,38.6800,86,93,136136
1.8719,0.3030,38.6500,86,93,136139
1.8622,0.2884,38.7400,86,93,136143
1.9013,0.2981,38.6200,86,93,136146
1.8817,0.2688,38.7100,86,93,136150
1.8866,0.2884,38.8400,86,93,136153
1.8964,0.2933,38.6200,86,93,136157
1.8768,0.2933,38.7400,86,93,136160
1.9013,0.2933,38.5200,86,93,136163
1.8719,0.2933,38.7400,86,93,136167
1.8768,0.2884,38.7100,86,93,136170
1.9062,0.2688,38.6500,86,93,136173
1.9062,0.2933,38.7100,86,93,136177
2.0039,0.2981,38.4600,86,93,136180
1.9892,0.2688,38.6200,86,93,136183
1.9844,0.2884,38.7400,86,93,136186
1.9941,0.3030,38.6500,86,93,136190
1.9550,0.2933,38.7100,86,93,136194
1.9844,0.3030,38.5800,86,93,136197
1.9257,0.2884,38.5800,86,93,136201
1.8671,0.2884,38.6800,86,93,136204
1.8426,0.2981,38.7100,86,93,136207
1.8182,0.2933,38.7400,86,93,136211
1.8573,0.3079,38.7100,86,93,136214
1.8231,0.2933,38.7100,86,93,136217
1.8035,0.2933,38.6800,86,93,136221
1.7840,0.3226,38.7100,86,93,136224
1.7889,0.2884,38.9300,86,93,136227
1.8231,0.3030,38.6200,86,93,136230
1.8133,0.2933,38.7100,86,93,136235
1.8231,0.2981,38.5200,86,93,136238
1.7889,0.2688,38.7700,86,93,136241
1.7742,0.2884,38.9000,86,93,136245
1.8035,0.2981,38.6200,86,93,136248
1.7693,0.2933,38.7100,86,93,136251
1.8035,0.3079,38.5500,86,93,136255
1.7889,0.2884,38.6500,86,93,136258
1.7742,0.2933,38.6800,86,93,136261
1.7791,0.2981,38.5500,86,93,136265
1.7400,0.2933,38.6500,86,93,136268
1.7693,0.2981,38.4900,86,93,136271
1.7595,0.2981,38.6800,86,93,136274
1.7644,0.2884,38.7100,86,93,136279
1.8280,0.3030,38.6800,86,93,136282
1.7840,0.2884,38.7700,86,93,136285
1.8426,0.3030,38.4600,86,93,136289
1.8231,0.2933,38.6500,86,93,136292
1.8719,0.2884,38.7100,86,93,136295
1.9892,0.2933,38.6800,86,93,136299
2.0821,0.2884,38.9000,86,93,136302
2.2776,0.3079,38.4900,86,93,136305
2.3509,0.2981,38.6800,86,93,136309
2.3949,0.2884,38.6500,86,93,136312
2.4047,0.2884,38.7400,86,93,136315
2.3460,0.2933,38.7400,86,93,136318
2.2727,0.3030,38.5200,86,93,136323
2.0870,0.3079,38.6800,86,93,136326
1.8915,0.3030,38.5800,86,93,136329
1.6471,0.2884,38.7100,86,93,136333
1.4174,0.2884,38.8400,86,93,136336
1.2463,0.2981,38.5800,86,93,136339
1.0802,0.2933,38.7400,86,93,136343
1.0215,0.2981,38.6200,86,93,136346
1.0166,0.2981,38.7100,86,93,136349
1.1193,0.2884,38.7400,86,93,136352
1.2854,0.2981,38.6200,86,93,136356
1.4418,0.2933,38.7100,86,93,136359
1.6178,0.2933,38.9000,86,93,136363
1.7155,0.2933,38.7100,86,93,136367
1.7986,0.2884,38.9000,86,93,136370
1.9013,0.3079,38.5800,86,93,136373
1.9453,0.2884,38.7400,86,93,136377
2.0039,0.2981,38.5500,86,93,136380
1.9550,0.2981,38.6500,86,93,136383
1.8964,0.2981,38.7400,86,93,136386
1.8915,0.3030,37.9300,86,93,136390
1.8573,0.2884,38.7400,86,93,136393
1.9110,0.2884,38.4900,86,93,136396
1.8671,0.2933,38.5800,86,93,136400
1.8964,0.2933,38.7100,86,93,136403
1.8817,0.2933,38.7100,86,93,136407
1.8915,0.2933,38.7100,86,93,136411
1.9697,0.3128,38.5200,86,93,136414
1.9453,0.2884,38.6500,86,93,136417
1.9306,0.2884,38.6500,86,93,136421
1.9013,0.2933,38.7100,86,93,136424
1.8768,0.2884,38.8100,86,93,136427
1.9110,0.3079,38.6200,86,93,136430
1.9159,0.2884,38.7100,86,93,136434
1.9110,0.2933,38.6200,86,93,136437
1.8964,0.3030,38.7100,86,93,136440
1.8964,0.2884,38.7100,86,93,136444
1.9306,0.3030,38.5200,86,93,136448
1.9844,0.2933,38.5500,86,93,136453
1.9355,0.2933,38.7400,86,93,136456
1.9306,0.2981,38.5200,86,93,136459
1.8768,0.2981,38.7100,86,93,136463
1.8573,0.2884,38.7100,86,93,136466
1.8817,0.2933,38.6800,86,93,136469
1.8622,0.2933,38.7100,86,93,136473
1.9062,0.3030,38.4300,86,93,136476
1.8622,0.2933,38.6500,86,93,136479
1.8573,0.3177,38.7400,86,93,136483
1.8524,0.2933,38.7100,86,93,136486
1.8573,0.2933,38.7100,86,93,136489
1.9306,0.3079,38.4300,86,93,136493
1.9208,0.2981,38.5200,86,93,136497
1.9208,0.2933,38.6500,86,93,136500
1.9013,0.2933,38.7400,86,93,136503
1.8719,0.3079,38.7400,86,93,136507
1.8866,0.3030,38.5500,86,93,136510
1.8573,0.2933,38.7400,86,93,136513
1.8817,0.2981,38.5800,86,93,136517
1.8328,0.2933,38.2100,86,93,136520
1.8231,0.2786,38.7700,86,93,136523
1.8426,0.3030,38.5800,86,93,136527
1.8133,0.2933,38.6500,86,93,136530
1.8475,0.3030,38.5800,86,93,136534
1.8377,0.2884,38.7100,86,93,136537
1.8719,0.2981,38.7100,86,93,136541
1.8964,0.2884,38.6200,86,93,136544
1.8719,0.2933,38.7700,86,93,136547
1.8719,0.3079,38.5200,86,93,136551
1.8377,0.2933,38.7700,86,93,136554
1.8524,0.2884,38.7700,86,93,136557
1.8866,0.3079,38.6500,86,93,136561
1.8768,0.2933,38.6200,86,93,136564
1.9110,0.3128,38.4900,86,93,136567
1.8817,0.2981,38.6500,86,93,136570
1.8671,0.2884,38.7400,86,93,136574
1.9355,0.2981,38.6500,86,93,136578
1.9355,0.2933,38.7100,86,93,136581
2.0235,0.3372,38.4300,86,93,136585
2.0039,0.2981,38.5500,86,93,136588
1.9892,0.2884,38.7400,86,93,136591
1.9648,0.3030,38.7100,86,93,136595
1.9453,0.2884,38.7100,86,93,136598
1.9795,0.3079,38.5200,86,93,136601
1.9208,0.3030,38.6800,86,93,136605
1.9062,0.2884,38.6200,86,93,136608
1.8817,0.2933,38.9000,86,93,136611
1.8671,0.2884,38.7100,86,93,136614
1.9062,0.3030,38.6500,86,93,136619
1.8964,0.3030,38.7100,86,93,136622
1.9404,0.2884,38.5800,86,93,136625
1.9159,0.2933,38.7400,86,93,136629
1.9355,0.2933,38.7400,86,93,136632
1.9062,0.3030,38.5500,86,93,136635
1.8426,0.2884,38.7100,86,93,136639
1.8524,0.2933,38.7700,86,93,136642
1.8231,0.2835,38.6500,86,93,136645
1.8035,0.2884,38.7100,86,93,136649
1.8231,0.3324,38.5800,86,93,136652
1.8084,0.2884,38.7100,86,93,136655
1.8426,0.2981,38.5200,86,93,136658
1.8475,0.2933,38.6500,86,93,136663
1.8133,0.2884,38.7400,86,93,136666
1.8182,0.2981,38.6500,86,93,136669
1.8328,0.2884,38.7100,86,93,136673
1.8524,0.3030,38.4600,86,93,136676
1.8573,0.2835,38.6800,86,93,136679
1.8964,0.2933,38.7400,86,93,136683
1.9110,0.2981,38.8100,86,93,136686
1.8671,0.2933,38.7400,86,93,136689
1.8964,0.3079,38.4000,86,93,136693
1.8377,0.2933,38.5800,86,93,136696
1.8182,0.2884,38.6800,86,93,136699
1.8231,0.2981,38.6500,86,93,136702
1.8377,0.2884,38.7100,86,93,136707
1.8524,0.3030,38.5500,86,93,136710
1.8280,0.2981,38.6500,86,93,136713
1.8671,0.2933,38.6500,86,93,136717
1.8426,0.2933,38.8400,86,93,136720
1.8671,0.2981,38.7400,86,93,136723
1.9013,0.2981,38.6200,86,93,136727
1.8719,0.2981,38.7100,86,93,136730
1.8915,0.2981,38.5800,86,93,136733
1.8622,0.2933,38.8100,86,93,136736
1.8719,0.2933,38.7400,86,93,136740
1.8768,0.2933,38.6500,86,93,136743
1.8426,0.2933,38.7100,86,93,136747
1.8426,0.2688,38.6200,86,93,136751
1.8182,0.2981,38.7100,86,93,136754
1.8182,0.2884,38.7100,86,93,136757
1.8377,0.2933,38.5500,86,93,136761
1.8133,0.2933,38.7400,86,93,136764
1.8573,0.2933,38.4600,86,93,136767
1.8524,0.2981,38.6200,86,93,136771
1.8426,0.2933,38.7100,86,93,136774
1.8573,0.2981,38.7400,86,93,136777
1.8328,0.2981,38.7400,86,93,136781
1.8866,0.3079,38.4300,86,93,136784
1.8671,0.2933,38.6500,86,93,136787
1.8573,0.3128,38.6800,86,93,136791
1.8768,0.2933,38.7100,86,93,136795
1.8671,0.2933,38.7100,86,93,136798
1.9355,0.3177,38.5500,86,93,136801
1.9013,0.2981,38.6500,86,93,136805
1.8964,0.2933,38.6200,86,93,136808
1.8817,0.2933,38.7100,86,93,136811
1.8817,0.2933,38.7100,86,93,136815
1.8866,0.3030,38.6500,86,93,136818
1.8573,0.2933,38.6800,86,93,136821
1.8719,0.2884,38.5800,86,93,136825
1.8524,0.3128,38.7100,86,93,136828
1.8573,0.2933,38.7100,86,93,136832
1.8866,0.2981,38.5800,86,93,136836
1.8719,0.2933,38.7100,86,93,136839
1.8866,0.2933,38.5500,86,93,136842
1.8475,0.2688,38.6800,86,93,136845
1.8231,0.2933,38.7700,86,93,136849
1.8280,0.3030,38.5500,86,93,136852
1.8133,0.2933,38.7100,86,93,136855
1.8622,0.2981,38.4900,86,93,136859
1.8475,0.2981,38.6800,86,93,136862
1.8328,0.2884,38.7400,86,93,136865
1.8280,0.2884,38.6800,86,93,136869
1.7986,0.2933,38.7100,86,93,136872
1.8426,0.3030,38.4300,86,93,136876
1.8182,0.2688,38.6500,86,93,136880
1.8377,0.2884,38.7100,86,93,136883
1.8671,0.2933,38.7100,86,93,136886
1.8866,0.2884,38.7100,86,93,136889
1.9697,0.3079,38.4600,86,93,136893
1.9550,0.2981,38.6500,86,93,136896
1.9501,0.2884,38.7700,86,93,136899
1.9404,0.2933,38.7100,86,93,136903
1.9208,0.2884,38.4000,86,93,136906
1.9453,0.3030,38.5200,86,93,136909
1.9159,0.2981,38.6800,86,93,136913
1.9208,0.2933,38.6500,86,93,136916
1.9062,0.2933,38.7100,86,93,136920
1.9062,0.2884,38.7100,86,93,136924
1.9257,0.3177,38.5800,86,93,136927
1.8768,0.2884,38.7100,86,93,136930
1.8817,0.2981,38.6200,86,93,136933
1.8280,0.3030,38.7400,86,93,136937
1.8133,0.2933,38.7400,86,93,136940
1.8133,0.2933,38.6500,86,93,136943
1.7889,0.2933,38.7700,86,93,136947
1.8084,0.2933,38.5500,86,93,136950
1.7889,0.2933,38.7100,86,93,136953
1.7791,0.2884,38.8100,86,93,136957
1.8035,0.2933,38.6800,86,93,136961
1.7937,0.2933,38.0800,86,93,136964
1.8280,0.2933,38.4600,86,93,136968
1.7889,0.2884,38.6200,86,93,136971
1.7693,0.2884,38.7400,86,93,136974
1.7986,0.3030,38.6800,86,93,136977
1.7791,0.2933,38.7700,86,93,136981
1.8280,0.3030,38.4000,86,93,136984
1.8182,0.2933,38.5500,86,93,136987
1.7840,0.2884,38.7100,86,93,136991
1.8035,0.2981,38.6800,86,93,136994
1.8182,0.2884,38.7100,86,93,136997
1.8768,0.3079,38.5500,86,93,137001
1.8231,0.2933,38.6500,86,93,137005
1.7889,0.2933,38.6200,86,93,137008
1.7546,0.2933,38.7100,86,93,137011
1.7400,0.2884,38.7100,86,93,137015
1.7693,0.3030,38.6200,86,93,137018
1.7546,0.2933,38.6800,86,93,137021
1.8133,0.2981,38.5800,86,93,137025
1.9062,0.2933,38.6500,86,93,137028
2.0577,0.2835,38.7400,86,93,137031
2.2727,0.3030,38.5500,86,93,137035
2.3705,0.2835,38.6800,86,93,137038
2.4829,0.2884,38.6200,86,93,137041
2.4389,0.2884,38.7100,86,93,137046
2.3754,0.2884,38.7400,86,93,137049
2.2434,0.2981,38.5800,86,93,137052
2.0235,0.2981,38.6800,86,93,137055
1.8182,0.3030,38.5500,86,93,137059
1.0557,0.3128,38.5200,86,93,137063
1.0948,0.2933,38.6500,86,93,137067
1.2268,0.2884,38.7700,86,93,137070
1.3978,0.3030,38.6800,86,93,137073
1.5445,0.2884,38.7400,86,93,137077
1.6960,0.3079,38.4900,86,93,137080
1.7400,0.2884,38.6500,86,93,137083
1.7742,0.2688,38.6500,86,93,137088
1.8328,0.2933,38.7100,86,93,137091
1.8524,0.2884,38.7100,86,93,137094
1.9159,0.3324,38.5500,86,93,137098
1.9013,0.2981,38.7700,86,93,137101
1.9257,0.2933,38.5800,86,93,137104
1.9208,0.2884,38.7100,86,93,137107
1.9257,0.2884,38.7400,86,93,137111
1.9550,0.2981,38.5500,86,93,137114
1.9208,0.2933,38.7700,86,93,137117
1.9355,0.2981,38.5800,86,93,137121
1.8964,0.2933,38.7100,86,93,137124
1.8964,0.2884,38.7400,86,93,137127
1.8964,0.2884,38.6200,86,93,137132
1.8915,0.2933,38.7700,86,93,137135
1.9257,0.3030,38.5200,86,93,137138
1.9159,0.2933,38.7100,86,93,137142
1.9159,0.2884,38.7400,86,93,137145
1.9257,0.3030,38.6200,86,93,137148
1.8915,0.2933,38.7400,86,93,137151
1.9550,0.2981,38.4900,86,93,137155
1.9062,0.2981,38.6500,86,93,137158
1.8915,0.2884,38.7100,86,93,137161
1.9110,0.2981,38.6800,86,93,137165
1.8866,0.3030,38.7400,86,93,137168
1.9453,0.2981,38.4600,86,93,137171
1.8964,0.2981,38.5200,86,93,137176
1.8768,0.2786,38.6800,86,93,137179
1.8817,0.2933,38.7400,86,93,137182
1.8768,0.2835,38.7100,86,93,137186
1.9453,0.3079,38.5500,86,93,137189
1.9110,0.2981,38.6500,86,93,137192
1.9257,0.2981,38.6800,86,93,137195
1.9159,0.2933,38.7100,86,93,137199
1.9110,0.2933,38.7100,86,93,137202
1.9306,0.3030,38.6200,86,93,137205
1.8866,0.2933,38.7100,86,93,137209
1.8866,0.2884,38.5800,86,93,137212
1.8573,0.2933,38.6800,86,93,137216
1.8524,0.2933,38.7400,86,93,137220
1.8817,0.3030,38.6200,86,93,137223
1.8915,0.2981,38.7100,86,93,137226
1.9062,0.2933,38.5800,86,93,137230
1.9062,0.2933,38.6500,86,93,137233
1.9306,0.2884,38.7100,86,93,137236
1.9501,0.2981,38.5500,86,93,137239
1.9062,0.2933,38.7400,86,93,137243
1.8817,0.2981,38.4900,86,93,137246
1.8231,0.3030,38.6500,86,93,137249
1.7889,0.2884,38.7400,86,93,137253
1.7986,0.2981,38.7100,86,93,137256
1.7889,0.2884,38.7400,86,93,137260
1.8475,0.2981,38.4600,86,93,137264
1.8231,0.2933,38.6500,86,93,137267
1.8377,0.2884,38.7100,86,93,137270
1.8524,0.2933,38.8700,86,93,137274
1.8524,0.2933,38.7100,86,93,137277
1.9110,0.3275,38.4900,86,93,137280
1.8768,0.2884,38.6800,86,93,137283
1.9062,0.2933,38.6500,86,93,137287
1.9355,0.2933,38.7100,86,93,137290
1.9453,0.2884,38.7400,86,93,137293
1.9746,0.2981,38.5200,86,93,137297
1.9306,0.2933,38.6800,86,93,137300
1.9453,0.2933,38.6200,86,93,137304
1.9355,0.2933,38.7100,86,93,137308
1.9453,0.2884,38.8700,86,93,137311
1.9795,0.2981,38.5800,86,93,137314
1.9404,0.2933,38.8100,86,93,137318
1.9648,0.3079,38.6200,86,93,137321
1.9257,0.2884,38.8100,86,93,137324
1.9208,0.2884,38.8100,86,93,137327
1.9208,0.2933,38.6200,86,93,137331
1.9062,0.2884,38.7400,86,93,137334
1.9599,0.2933,38.6500,86,93,137337
1.9648,0.2688,38.7100,86,93,137341
1.9697,0.2884,38.7700,86,93,137345
1.9453,0.3030,38.6500,86,93,137348
1.8622,0.2933,38.7400,86,93,137352
1.8524,0.2933,38.4600,86,93,137355
1.7986,0.2981,38.6800,86,93,137358
1.7742,0.2933,38.7700,86,93,137362
1.7889,0.2981,38.6800,86,93,137365
1.7742,0.2884,38.7100,86,93,137368
1.8231,0.3079,38.4600,86,93,137372
1.7889,0.2981,38.5800,86,93,137375
1.7840,0.2981,38.6800,86,93,137378
1.7644,0.2884,38.7400,86,93,137381
1.7644,0.3177,38.7400,86,93,137385
1.8084,0.3079,38.5500,86,93,137389
1.7986,0.2981,38.7700,86,93,137392
1.8182,0.2933,38.5800,86,93,137396
1.8280,0.2933,38.7100,86,93,137399
1.8426,0.3030,38.7100,86,93,137402
1.8866,0.3030,38.6500,86,93,137406
1.8768,0.2933,38.8400,86,93,137409
1.8915,0.2933,38.5500,86,93,137412
1.8475,0.2933,38.7100,86,93,137416
1.8328,0.2981,38.7100,86,93,137419
1.8377,0.3030,38.5800,86,93,137422
1.7937,0.3030,38.7100,86,93,137425
1.8182,0.2933,38.5800,86,93,137430
1.7889,0.2884,38.5800,86,93,137433
1.8035,0.2884,38.7100,86,93,137436
1.8573,0.2981,38.6200,86,93,137440
1.8622,0.2933,38.8100,86,93,137443
1.9013,0.2981,38.4900,86,93,137446
1.8622,0.3324,38.6500,86,93,137450
1.8182,0.2933,38.7100,86,93,137453
1.8035,0.2981,38.7100,86,93,137456
1.7889,0.2933,38.7100,86,93,137460
1.8133,0.3030,38.4600,86,93,137463
1.7693,0.2933,38.6500,86,93,137466
1.7791,0.2835,38.7100,86,93,137469
1.7937,0.3226,38.6800,86,93,137474
1.7986,0.2884,38.5500,86,93,137477
1.8671,0.3421,38.5500,86,93,137480
1.8719,0.2981,38.6800,86,93,137484
1.8768,0.2933,38.6200,86,93,137487
1.8671,0.2884,38.7100,86,93,137490
1.8524,0.2884,38.7700,86,93,137494
1.8719,0.3079,38.5500,86,93,137497
1.8328,0.2981,38.6800,86,93,137500
1.8328,0.3030,38.5800,86,93,137504
1.8035,0.2688,38.7100,86,93,137507
1.8182,0.2884,38.9300,86,93,137510
1.8524,0.2981,38.6200,86,93,137513
1.8328,0.2933,38.7100,86,93,137518
1.8573,0.3128,38.6200,86,93,137521
1.8231,0.2884,38.6800,86,93,137524
1.8280,0.2884,38.7400,86,93,137528
1.8475,0.2884,38.6200,86,93,137531
1.8426,0.2933,38.7100,86,93,137534
1.8964,0.2933,38.4900,86,93,137538
1.8866,0.2933,38.6800,86,93,137541
1.9013,0.2981,38.7700,86,93,137544
1.9159,0.2981,38.6200,86,93,137548
1.8915,0.2933,38.7100,86,93,137551
1.9550,0.3030,38.4600,86,93,137554
1.9306,0.2981,38.6500,86,93,137559
1.9159,0.2933,38.7100,86,93,137562
1.9257,0.3030,38.6800,86,93,137565
1.9062,0.2933,38.7100,86,93,137568
1.9697,0.3079,38.4600,86,93,137572
1.9355,0.3030,38.6200,86,93,137575
1.9159,0.2688,38.6800,86,93,137578
1.9110,0.2933,38.6500,86,93,137582
1.9013,0.2933,38.7100,86,93,137585
1.9404,0.3030,38.5500,86,93,137588
1.8964,0.2933,38.7100,86,93,137592
1.8915,0.2933,38.6200,86,93,137595
1.8475,0.2933,38.6800,86,93,137598
1.8377,0.2688,38.7100,86,93,137603
1.8475,0.2981,38.9000,86,93,137606
1.8182,0.3030,38.6800,86,93,137609
1.8280,0.3030,38.6800,86,93,137612
1.7889,0.2933,38.6800,86,93,137616
1.7840,0.2884,38.7100,86,93,137619
1.8133,0.2981,38.5800,86,93,137622
1.7937,0.2933,38.7100,86,93,137626
1.8133,0.2933,38.5500,86,93,137629
1.7986,0.2933,37.8300,86,93,137632
1.7937,0.2835,38.7100,86,93,137636
1.8084,0.2981,38.5800,86,93,137639
1.7791,0.2933,38.8100,86,93,137643
1.8035,0.3177,38.4600,86,93,137646
1.7644,0.2981,38.6800,86,93,137650
1.7449,0.2884,38.7700,86,93,137653
1.7351,0.2933,38.7100,86,93,137656
1.6960,0.2884,38.8400,86,93,137660
1.7449,0.3030,38.4300,86,93,137663
1.7107,0.2933,38.6500,86,93,137666
1.7155,0.2884,38.7700,86,93,137670
1.7498,0.2981,38.7100,85,93,137673
1.8377,0.2933,38.7100,85,93,137678
1.9746,0.2884,38.7400,85,93,137681
2.1799,0.3030,38.5500,85,93,137684
2.2923,0.2933,38.7100,85,93,137689
2.4096,0.2933,38.5800,85,93,137692
2.4194,0.2933,38.7100,85,93,137695
2.3803,0.2884,38.7400,85,93,137698
2.2678,0.2981,38.6200,85,93,137702
2.0430,0.2933,38.7100,85,93,137705
1.8328,0.2933,38.5800,85,93,137708
1.5738,0.3275,38.6500,85,93,137712
1.3685,0.2933,38.7100,85,93,137715
1.2072,0.2933,38.5800,85,93,137718
1.0850,0.2933,38.7100,85,93,137722
1.0606,0.2884,38.4900,85,93,137725
1.0655,0.2884,38.9000,85,93,137729
1.1730,0.2884,38.7400,85,93,137732
1.3392,0.2933,38.6800,85,93,137736
1.4809,0.2884,38.7700,85,93,137739
1.6520,0.3030,38.4600,85,93,137742
1.7253,0.2981,38.6500,85,93,137746
1.7791,0.2884,38.8100,85,93,137749
1.8426,0.2981,38.7100,85,93,137752
1.8671,0.2884,38.9000,85,93,137756
1.9453,0.3079,38.4900,85,93,137759
1.9306,0.3030,38.6200,85,93,137762
1.9208,0.2981,38.5800,85,93,137766
1.9257,0.2835,38.7100,85,93,137769
1.9355,0.2884,38.7100,85,93,137773
1.9844,0.3079,38.5500,85,93,137776
1.9453,0.2933,38.7100,85,93,137780
1.9550,0.2933,38.6800,85,93,137783
1.9404,0.3030,38.7400,85,93,137786
1.9550,0.2884,38.7400,85,93,137790
1.9844,0.2981,38.6500,85,93,137793
1.9550,0.2933,38.7100,85,93,137796
1.9697,0.2981,38.5800,85,93,137800
1.9404,0.2933,38.7100,85,93,137803
1.8915,0.2884,38.7400,85,93,137806
1.8964,0.3079,38.5800,85,93,137810
1.8524,0.2933,38.7100,85,93,137814
1.8768,0.2933,38.5200,85,93,137817
1.8671,0.2688,38.6200,85,93,137820
1.8622,0.2884,38.1500,85,93,137824
1.8866,0.2981,38.5800,85,93,137827
1.8719,0.2933,38.9000,85,93,137830
1.9257,0.3030,38.4900,85,93,137834
1.9110,0.2933,38.6500,85,93,137837
1.9062,0.2884,38.7700,85,93,137840
1.9453,0.2884,38.6800,85,93,137844
1.8866,0.2884,38.7100,85,93,137847
1.9306,0.3030,38.4300,85,93,137850
1.8768,0.2688,38.6200,85,93,137854
1.8817,0.2884,38.7400,85,93,137858
1.8964,0.2981,38.6800,85,93,137861
1.9013,0.2884,38.7700,85,93,137864
1.9599,0.3226,38.4900,85,93,137868
1.9355,0.2981,38.6800,85,93,137871
1.9355,0.2933,38.6500,85,93,137874
1.9257,0.2933,38.7100,85,93,137878
1.9062,0.2884,38.6800,85,93,137881
1.9208,0.3030,38.5200,85,93,137884
1.8817,0.2933,38.6800,85,93,137888
1.8964,0.2981,38.5800,85,93,137891
1.8768,0.2933,38.7100,85,93,137894
1.8671,0.2933,38.8100,85,93,137899
1.8671,0.3030,38.6200,85,93,137902
1.8328,0.2884,38.7400,85,93,137905
1.8524,0.2981,38.6500,85,93,137908
1.8231,0.2884,38.6800,85,93,137912
1.8280,0.2884,38.8400,85,93,137915
1.8475,0.2981,38.6500,85,93,137918
1.8524,0.2884,38.7100,85,93,137922
1.8817,0.2933,38.7700,85,93,137925
1.8573,0.2688,38.7100,85,93,137928
1.8524,0.2884,38.0200,85,93,137932
1.8622,0.3030,38.6200,85,93,137935
1.8377,0.2933,38.7400,85,93,137938
1.8768,0.3030,38.4300,85,93,137943
1.8573,0.2981,38.6200,85,93,137946
1.8573,0.2933,38.8100,85,93,137949
1.8915,0.2981,38.6800,85,93,137952
1.8915,0.2884,38.7700,85,93,137956
1.9599,0.3079,38.4300,85,93,137959
1.9306,0.2981,38.6200,85,93,137962
1.9208,0.3128,38.6500,85,93,137966
1.9599,0.2884,38.7100,85,93,137969
1.9355,0.2884,38.7100,85,93,137972
1.9990,0.3079,38.6200,85,93,137976
1.9941,0.2933,38.6800,85,93,137979
1.9892,0.2933,38.6500,85,93,137982
1.9648,0.2933,38.7100,85,93,137987
1.9501,0.2884,38.7400,85,93,137990
1.9550,0.3030,38.6500,85,93,137993
1.9062,0.2933,38.7100,85,93,137996
1.9110,0.2981,38.6800,85,93,138000
1.8817,0.2933,38.7400,85,93,138003
1.8622,0.2884,38.7100,85,93,138006
1.8915,0.3177,38.6200,85,93,138010
1.8671,0.2933,37.9600,85,93,138013
1.8964,0.2933,38.5500,85,93,138016
1.8964,0.2933,38.6500,85,93,138020
1.8964,0.2884,38.7400,85,93,138023
1.8964,0.2884,38.5500,85,93,138027
1.8328,0.2933,38.7100,85,93,138031
1.8377,0.3079,38.4600,85,93,138034
1.7937,0.2981,38.6800,85,93,138037
1.7742,0.2884,38.8400,85,93,138040
1.8035,0.3079,38.6800,85,93,138044
1.7937,0.2688,38.7400,85,93,138047
1.8524,0.3030,38.4900,85,93,138050
1.8280,0.2933,38.6500,85,93,138054
1.8328,0.2884,38.7700,85,93,138057
1.8475,0.3030,38.7400,85,93,138060
1.8328,0.2884,38.8100,85,93,138064
1.8768,0.3079,38.4900,85,93,138067
1.8280,0.2981,38.6800,85,93,138071
1.8280,0.2884,38.7400,85,93,138075
1.8133,0.2688,38.7100,85,93,138078
1.8084,0.2933,38.8100,85,93,138081
1.8280,0.3177,38.5800,85,93,138084
1.7937,0.2981,38.6800,85,93,138088
1.8035,0.2933,38.6200,85,93,138091
1.8035,0.2884,38.7700,85,93,138094
1.8231,0.2884,38.7100,85,93,138098
1.8573,0.2981,38.6200,85,93,138101
1.8377,0.2933,38.7100,85,93,138104
1.8524,0.3079,38.6200,85,93,138108
1.8524,0.2933,38.7100,85,93,138112
1.8280,0.2884,38.7700,85,93,138115
1.8573,0.2933,38.6500,85,93,138119
1.8377,0.2933,38.8100,85,93,138122
1.8573,0.3030,38.5200,85,93,138125
1.8182,0.2933,38.7100,85,93,138128
1.8133,0.2933,38.7400,85,93,138132
1.8328,0.2981,38.6500,85,93,138135
1.8524,0.2933,38.7100,85,93,138138
1.8768,0.3030,38.8400,85,93,138142
1.8524,0.2981,38.6500,85,93,138145
1.8328,0.2933,38.7400,85,93,138148
1.8426,0.3470,38.6800,85,93,138152
1.8231,0.2981,38.7400,85,93,138156
1.8768,0.3079,38.4300,85,93,138159
1.8719,0.2981,38.5800,85,93,138163
1.8475,0.2884,38.6500,85,93,138166
1.8524,0.2933,38.6800,85,93,138169
1.8524,0.2884,38.7400,85,93,138172
1.8915,0.3079,38.6200,85,93,138176
1.8475,0.2835,38.6800,85,93,138179
1.8377,0.2933,38.6200,85,93,138182
1.8035,0.2933,38.7400,85,93,138186
1.7840,0.2884,38.7700,85,93,138189
1.8084,0.2981,38.6500,85,93,138192
1.7937,0.2981,38.7100,85,93,138196
1.8328,0.2981,38.5800,85,93,138200
1.8133,0.2981,38.7100,85,93,138203
1.8231,0.2884,38.7400,85,93,138207
1.8524,0.3030,38.5800,85,93,138210
1.8280,0.2933,38.7100,85,93,138213
1.8622,0.2933,38.5500,85,93,138217
1.8475,0.2884,38.6200,85,93,138220
1.8622,0.2884,38.7400,85,93,138223
1.9159,0.2884,38.5500,85,93,138226
1.9013,0.2884,38.7100,85,93,138230
1.9746,0.2981,38.4600,85,93,138233
1.9697,0.2933,38.6800,85,93,138236
1.9795,0.2884,38.7100,85,93,138241
2.0088,0.2884,38.6800,85,93,138244
1.9648,0.2933,38.7100,85,93,138247
1.9941,0.3030,38.4900,85,93,138251
1.9257,0.2688,38.6200,85,93,138254
1.9159,0.2884,38.8100,85,93,138257
1.9306,0.2933,38.6800,85,93,138261
1.8768,0.2884,38.6500,85,93,138264
1.9062,0.3079,38.5200,85,93,138267
1.8426,0.2981,38.6800,85,93,138270
1.8182,0.2884,38.8400,85,93,138274
1.8035,0.2933,38.6800,85,93,138277
1.7937,0.2884,38.7400,85,93,138280
1.8182,0.2981,38.5500,85,93,138285
1.7400,0.2933,38.6500,85,93,138289
1.7204,0.2933,38.7700,85,93,138293
1.7498,0.2933,38.5200,85,93,138296
1.7498,0.2884,38.6800,85,93,138299
1.7644,0.2884,38.7400,85,93,138303
1.7791,0.2884,38.6500,85,93,138306
1.7644,0.2884,38.8100,85,93,138309
1.7889,0.3324,38.4600,85,93,138313
1.7449,0.2884,38.6500,85,93,138316
1.7498,0.2933,38.7100,85,93,138319
1.7693,0.2981,38.6800,85,93,138322
1.7742,0.3030,38.7400,85,93,138327
1.8280,0.2884,38.4300,85,93,138330
1.7937,0.2981,38.6200,85,93,138333
1.7595,0.2835,38.6800,85,93,138337
1.7449,0.2933,38.5500,85,93,138340
1.7302,0.2835,38.7400,85,93,138343
1.8084,0.3079,38.5500,85,93,138347
1.8573,0.3128,38.6500,85,93,138350
2.0039,0.2933,38.6200,85,93,138353
2.1261,0.2933,38.7100,85,93,138357
2.2434,0.2933,38.7100,85,93,138360
2.3509,0.2981,38.5800,85,93,138363
2.3460,0.2933,38.7400,85,93,138366
2.3167,0.2933,38.5800,85,93,138371
2.1554,0.2933,38.7100,85,93,138374
1.9697,0.2933,38.7400,85,93,138377
1.7840,0.3030,38.6800,85,93,138381
1.5689,0.2933,38.7100,85,93,138384
1.4076,0.2981,37.9600,85,93,138387
1.2366,0.2933,38.7100,85,93,138391
1.1193,0.2884,38.6800,85,93,138394
1.0850,0.3030,38.6800,85,93,138397
1.0899,0.2933,38.7100,85,93,138401
1.1877,0.2933,38.5200,85,93,138404
1.3196,0.3030,38.6500,85,93,138407
1.4956,0.2933,38.7400,85,93,138411
1.6373,0.3030,38.6200,85,93,138415
1.7253,0.2981,38.7100,85,93,138418
1.8426,0.3030,38.4600,85,93,138421
1.8524,0.2884,38.6200,85,93,138425
1.8622,0.2933,38.7100,85,93,138428
1.8768,0.2981,38.7400,85,93,138431
1.8719,0.2981,38.7100,85,93,138435
1.9355,0.3079,38.4300,85,93,138438
1.9159,0.3030,38.6500,85,93,138441
1.9110,0.2981,38.6800,85,93,138444
1.9110,0.2933,38.7100,85,93,138448
1.8915,0.2933,38.7100,85,93,138451
1.9306,0.3079,38.5500,85,93,138455
1.8866,0.2981,38.7100,85,93,138459
1.8964,0.2981,38.6800,85,93,138462
1.9062,0.2933,38.7700,85,93,138465
1.9306,0.2933,38.7100,85,93,138469
1.9697,0.3030,38.5500,85,93,138472
1.9453,0.2933,38.6800,85,93,138475
1.9550,0.2981,38.5500,85,93,138479
1.9306,0.2884,38.7400,85,93,138482
1.9599,0.2933,38.7400,85,93,138485
1.9501,0.2981,38.7100,85,93,138488
1.9062,0.2884,38.7100,85,93,138492
1.9110,0.2933,38.5800,85,93,138496
1.8573,0.2884,38.6500,85,93,138499
1.8524,0.2688,38.7100,85,93,138503
1.8719,0.2933,38.8100,85,93,138506
1.9013,0.2933,38.7100,85,93,138509
1.9208,0.2981,38.4900,85,93,138513
1.8866,0.2933,38.7100,85,93,138516
1.8866,0.2884,38.7700,85,93,138519
1.8964,0.2981,38.6500,85,93,138523
1.8817,0.2933,38.7100,85,93,138526
1.9355,0.3030,38.4300,85,93,138529
1.9208,0.2884,38.6500,85,93,138532
1.9013,0.2884,38.7400,85,93,138536
1.9159,0.3030,38.6500,85,93,138540
1.8964,0.2884,38.7400,85,93,138543
1.9306,0.3079,38.5800,85,93,138547
1.8719,0.2981,38.6800,85,93,138550
1.8573,0.2688,38.6500,85,93,138553
1.8622,0.2933,38.6800,85,93,138557
1.9013,0.2981,38.7100,85,93,138560
1.9355,0.3030,38.5800,85,93,138563
1.8866,0.2933,38.7400,85,93,138567
1.8671,0.2981,38.6200,85,93,138570
1.8231,0.2933,38.7700,85,93,138573
1.8182,0.2933,38.7100,85,93,138576
1.8475,0.2981,38.7100,85,93,138580
1.8426,0.3030,38.6800,85,93,138584
1.9013,0.2981,38.5800,85,93,138587
1.8671,0.2884,38.9000,85,93,138591
1.8719,0.2884,38.7400,85,93,138594
1.8866,0.3030,38.5800,85,93,138597
1.8622,0.2933,38.7100,85,93,138601
1.8768,0.2933,38.5500,85,93,138604
1.8328,0.2933,38.6800,85,93,138607
1.8280,0.2933,38.7100,85,93,138611
1.8524,0.2981,38.5800,85,93,138614
1.8426,0.2884,38.8100,85,93,138617
1.9013,0.3030,38.4900,85,93,138620
1.8817,0.2884,38.5800,85,93,138625
1.8719,0.2884,38.7400,85,93,138628
1.9013,0.2981,38.6800,85,93,138631
1.9013,0.2884,38.7100,85,93,138635
1.9599,0.3079,38.4300,85,93,138638
1.9306,0.2933,38.5800,85,93,138641
1.9306,0.2933,38.7100,85,93,138645
1.9404,0.2933,38.7100,85,93,138648
1.9355,0.2981,38.7100,85,93,138651
1.9941,0.3079,38.5200,85,93,138655
1.9501,0.2933,38.6500,85,93,138658
1.9746,0.2933,38.6200,85,93,138661
1.9453,0.3226,38.7400,85,93,138664
1.9550,0.2884,38.7100,85,93,138669
1.9941,0.3030,38.5500,85,93,138672
1.9599,0.2933,38.7100,85,93,138675
1.9550,0.2981,38.6500,85,93,138679
1.9355,0.2933,38.7400,85,93,138682
1.8915,0.2884,38.7100,85,93,138685
1.9110,0.2981,38.6800,85,93,138689
1.8866,0.2884,38.7100,85,93,138692
1.8964,0.2933,38.5200,85,93,138695
1.8622,0.2933,38.6800,85,93,138699
1.8475,0.2884,38.8100,85,93,138702
1.8573,0.2981,38.6200,85,93,138705
1.8377,0.2933,38.7100,85,93,138708
1.8524,0.2981,38.5200,85,93,138713
1.8035,0.2884,38.7100,85,93,138716
1.8035,0.2884,38.7100,85,93,138719
1.8426,0.2981,38.7100,85,93,138723
1.8280,0.2884,38.7100,85,93,138726
1.8817,0.3079,38.4300,85,93,138729
1.8475,0.2981,38.6500,85,93,138733
1.8280,0.2884,38.7700,85,93,138736
1.8426,0.2688,38.6800,85,93,138739
1.8328,0.2884,38.7400,85,93,138743
1.8719,0.3275,38.4900,85,93,138746
1.8328,0.2981,38.6500,85,93,138749
1.8035,0.2884,38.9000,85,93,138753
1.7937,0.2835,38.6800,85,93,138757
1.7889,0.2884,38.7100,85,93,138760
1.8426,0.3030,38.5800,85,93,138763
1.8231,0.2933,38.6800,85,93,138767
1.8573,0.2933,38.5800,85,93,138770
1.8622,0.3079,38.7100,85,93,138773
1.8768,0.2884,38.7700,85,93,138777
1.9013,0.2981,38.7100,85,93,138780
1.8671,0.2884,38.7100,85,93,138783
1.8622,0.2981,38.5800,85,93,138787
1.8084,0.2933,38.7100,85,93,138790
1.7889,0.2884,38.7400,85,93,138793
1.8084,0.2981,38.5500,85,93,138797
1.7840,0.2933,38.7100,85,93,138801
1.8182,0.2933,38.5500,85,93,138804
1.8133,0.2884,38.6200,85,93,138807
1.8182,0.2884,38.9000,85,93,138811
1.8622,0.3030,38.5800,85,93,138814
1.8671,0.2884,38.7400,85,93,138817
1.9257,0.3030,38.4300,85,93,138821
1.9013,0.2981,38.6500,85,93,138824
1.8719,0.2884,38.7700,85,93,138827
1.8573,0.2933,38.6800,85,93,138831
1.8035,0.2933,38.4600,85,93,138834
1.8328,0.3128,38.4000,85,93,138838
1.7937,0.2933,38.6200,85,93,138841
1.7986,0.2884,38.6500,85,93,138845
1.8475,0.2933,38.6800,85,93,138848
1.8426,0.2884,38.7400,85,93,138851
1.9110,0.3079,38.5200,85,93,138855
1.8866,0.2981,38.6500,85,93,138858
1.8964,0.2884,38.6200,85,93,138861
1.9062,0.2933,38.7100,85,93,138865
1.9208,0.2884,38.8400,85,93,138868
1.9648,0.3519,38.5500,85,93,138871
1.9257,0.2933,38.7400,85,93,138875
1.9159,0.2884,38.5500,85,93,138878
1.8866,0.2981,38.7400,85,93,138882
1.8964,0.2884,38.7700,85,93,138885
1.9501,0.2981,38.6500,85,93,138889
1.9550,0.2688,38.7100,85,93,138892
1.9990,0.2981,38.6200,85,93,138895
1.9648,0.2835,38.5500,85,93,138899
1.9355,0.2884,38.7400,85,93,138903
1.8719,0.2933,38.7100,85,93,138907
1.8328,0.2981,38.6800,85,93,138910
1.7742,0.3128,38.7400,85,93,138913
1.7937,0.3030,38.4900,85,93,138917
1.7449,0.2981,38.5800,85,93,138920
1.7253,0.2884,38.6800,85,93,138924
1.7449,0.2981,38.6800,85,93,138927
1.7595,0.2884,38.6800,85,93,138931
1.8328,0.2981,38.4900,85,93,138934
1.8035,0.3030,38.6500,85,93,138937
1.7742,0.2933,38.6500,85,93,138941
1.7595,0.2933,38.7100,85,93,138944
1.7546,0.2933,38.7100,85,93,138947
1.7986,0.3030,38.5500,85,93,138951
1.7742,0.2933,38.7100,85,93,138954
1.7693,0.3079,38.5800,85,93,138957
1.7302,0.2884,38.7700,85,93,138961
1.7009,0.2884,38.7400,85,93,138964
1.7107,0.3030,38.6500,85,93,138968
1.6960,0.2933,38.7400,85,93,138971
1.7351,0.2981,38.5800,85,93,138975
1.7302,0.2933,38.7100,85,93,138978
1.7595,0.2884,38.7700,85,93,138981
1.7986,0.3079,38.5800,85,93,138985
1.7742,0.2933,38.7100,85,93,138988
1.7986,0.2933,38.4900,85,93,138991
1.8084,0.2884,38.6200,85,93,138995
1.8622,0.2884,38.7400,85,93,138998
2.0088,0.2981,38.5800,85,93,139001
2.1408,0.2933,38.7100,85,93,139004
2.3118,0.2981,38.4900,85,93,139009
2.3509,0.2933,38.6500,85,93,139012
2.3509,0.2933,38.7400,85,93,139015
2.3314,0.2981,38.6800,85,93,139019
2.1799,0.3275,38.7100,85,93,139022
2.0626,0.2884,38.4300,85,93,139025
1.8182,0.2933,38.6200,85,93,139029
1.6227,0.2688,38.7100,85,93,139032
1.4223,0.2981,38.6200,85,93,139035
1.2414,0.2688,38.7400,85,93,139039
1.1535,0.3079,38.4900,85,93,139042
1.1046,0.2981,38.6800,85,93,139045
1.0802,0.2933,38.6500,85,93,139048
1.1779,0.3079,38.7100,85,93,139053
1.3245,0.2981,38.7400,85,93,139056
1.4956,0.3030,38.5800,85,93,139059
1.6080,0.2933,38.6800,85,93,139063
1.7253,0.2933,38.5500,85,93,139066
1.7889,0.2884,38.7400,85,93,139069
1.8426,0.2933,38.7400,85,93,139073
1.9013,0.2981,38.6200,85,93,139076
1.8915,0.2933,38.7400,85,93,139079
1.9257,0.2884,38.5800,85,93,139083
1.9013,0.2884,38.6800,85,93,139086
1.9501,0.2933,38.7100,85,93,139089
1.9404,0.2933,38.6200,85,93,139092
1.9453,0.2884,38.7400,85,93,139097
2.0235,0.2981,38.5200,85,93,139100
2.0088,0.2933,38.7700,85,93,139103
2.0039,0.2981,38.7400,85,93,139107
1.9697,0.3030,38.6800,85,93,139110
1.8915,0.2884,38.7100,85,93,139113
1.8915,0.3226,38.5500,85,93,139117
1.8573,0.2981,38.6500,85,93,139120
1.8328,0.2884,38.7100,85,93,139123
1.8573,0.2981,38.6800,85,93,139127
1.8524,0.2884,38.2100,85,93,139130
1.9159,0.3128,38.4300,85,93,139133
1.8964,0.2933,38.6200,85,93,139137
1.8866,0.2981,38.7100,85,93,139141
1.8915,0.2688,38.7100,85,93,139144
1.9013,0.2884,38.7400,85,93,139147
1.9746,0.3030,38.5500,85,93,139151
1.9599,0.2981,38.6500,85,93,139154
1.9795,0.2933,38.6200,85,93,139157
1.9648,0.2884,38.7400,85,93,139161
1.9355,0.2933,38.7100,85,93,139164
1.9306,0.3030,38.6500,85,93,139167
1.8768,0.2933,38.9000,85,93,139171
1.8817,0.2835,38.5500,85,93,139174
1.8573,0.2933,38.7400,85,93,139177
1.8671,0.2884,38.7100,85,93,139181
1.9110,0.3030,38.9300,85,93,139185
1.9110,0.2933,38.7100,85,93,139188
1.9550,0.2933,38.6800,85,93,139191
1.9257,0.3275,38.6500,85,93,139195
1.9013,0.2688,38.7100,85,93,139198
1.8768,0.2884,38.5500,85,93,139201
1.8524,0.2933,38.7100,85,93,139205
1.8573,0.2981,38.5500,85,93,139208
1.8280,0.2688,38.6800,85,93,139211
1.8182,0.2884,38.7100,85,93,139215
1.8377,0.3030,38.6500,85,93,139218
1.8280,0.2933,38.7100,85,93,139222
1.8915,0.3030,38.4900,85,93,139225
1.8671,0.2933,38.6500,85,93,139229
1.8817,0.2884,38.7100,85,93,139232
1.8915,0.2835,38.6800,85,93,139235
1.8719,0.2884,38.7400,85,93,139239
1.9159,0.3372,38.5200,85,93,139242
1.9013,0.2884,38.6800,85,93,139245
1.8964,0.2884,38.6500,85,93,139249
1.8915,0.2933,38.7100,85,93,139252
1.8768,0.2884,38.7100,85,93,139255
1.8817,0.3372,38.5500,85,93,139259
1.8328,0.2981,38.7100,85,93,139262
1.8377,0.2933,38.6200,85,93,139266
1.8475,0.2933,38.6800,85,93,139269
1.8524,0.2884,38.7400,85,93,139273
1.9013,0.3030,38.5800,85,93,139276
1.9062,0.2884,38.7100,85,93,139279
1.9550,0.2981,38.6200,85,93,139283
1.9501,0.2933,38.7100,85,93,139286
1.9550,0.2933,38.8100,85,93,139289
1.9550,0.2933,38.6500,85,93,139293
1.9404,0.2884,38.7100,85,93,139296
1.9501,0.3030,38.6200,85,93,139299
1.9159,0.2933,38.7100,85,93,139303
1.9110,0.2884,38.7100,85,93,139307
1.9355,0.2933,38.6800,85,93,139310
1.9257,0.2933,38.6800,85,93,139313
1.9746,0.2981,38.4900,85,93,139317
1.9550,0.2981,38.6200,85,93,139320
1.9404,0.2884,38.7400,85,93,139323
1.9697,0.3030,38.6500,85,93,139327
1.9257,0.2884,38.7100,85,93,139330
1.9599,0.3079,38.4300,85,93,139333
1.9062,0.2933,38.5800,85,93,139337
1.8475,0.2884,38.6800,85,93,139340
1.8328,0.3079,38.7100,85,93,139343
1.8182,0.2933,38.7400,85,93,139347
1.8768,0.3079,38.5800,85,93,139351
1.8573,0.2933,38.6500,85,93,139354
1.8475,0.2933,38.6200,85,93,139357
1.8377,0.3177,38.7100,85,93,139361
1.8475,0.2884,38.7400,85,93,139364
1.8915,0.2981,38.6200,85,93,139367
1.8768,0.2688,38.7100,85,93,139371
1.8817,0.2933,38.5200,85,93,139374
1.8377,0.2884,38.7100,85,93,139377
1.8182,0.2884,38.7700,85,93,139381
1.8231,0.3030,38.5800,85,93,139384
1.7840,0.2933,38.7700,85,93,139387
1.8035,0.2981,38.5500,85,93,139392
1.7840,0.2884,38.6500,85,93,139395
1.7986,0.2884,37.9600,85,93,139398
1.8377,0.2981,38.5500,85,93,139401
1.8524,0.2884,38.7400,85,93,139405
1.9062,0.3128,38.4900,85,93,139408
1.8768,0.2884,38.6800,85,93,139411
1.8328,0.2884,38.7700,85,93,139415
1.8231,0.3030,38.6800,85,93,139418
1.7693,0.2884,38.7100,85,93,139421
1.8133,0.3030,38.4600,85,93,139425
1.7693,0.2933,38.6800,85,93,139428
1.7742,0.2884,38.7400,85,93,139431
1.7986,0.3030,38.6800,85,93,139436
1.7986,0.2884,38.7100,85,93,139439
1.8719,0.3079,38.4300,85,93,139442
1.8524,0.2981,38.6200,85,93,139445
1.8671,0.2884,38.6800,85,93,139449
1.8768,0.2933,38.6800,85,93,139452
1.9013,0.2884,38.7100,85,93,139455
1.9746,0.3030,38.9600,85,93,139459
1.9746,0.2884,38.7100,85,93,139462
1.9599,0.2933,38.6500,85,93,139465
1.8915,0.2884,38.7100,85,93,139469
1.8280,0.2884,38.7700,85,93,139472
1.8182,0.2981,38.4600,85,93,139475
1.7693,0.2981,38.7100,85,93,139479
1.7840,0.2981,38.6200,85,93,139483
1.7644,0.2884,38.7100,85,93,139486
1.7889,0.2688,38.7100,85,93,139489
1.8133,0.2933,38.6200,85,93,139493
1.8231,0.2933,38.7100,85,93,139496
1.8524,0.2933,38.5500,85,93,139499
1.8426,0.2884,38.7100,85,93,139503
1.8426,0.2933,38.8400,85,93,139506
1.8817,0.2884,38.6500,85,93,139509
1.8426,0.2933,38.6800,85,93,139514
1.8133,0.2884,38.7100,85,93,139517
1.8817,0.2981,38.5200,85,93,139522
1.8671,0.2981,38.5800,85,93,139525
1.8719,0.2933,38.6800,85,93,139528
1.8915,0.2933,38.7100,85,93,139532
1.9159,0.2884,38.7400,85,93,139535
1.9795,0.3030,38.5800,85,93,139538
1.9648,0.2933,38.7400,85,93,139541
1.9892,0.2981,38.5800,85,93,139545
1.9795,0.2884,38.7100,85,93,139548
1.9795,0.3177,38.8100,85,93,139551
1.9892,0.2981,38.6500,85,93,139555
1.9404,0.2933,38.7400,85,93,139558
1.9355,0.3030,38.6200,85,93,139561
1.8719,0.2884,38.7400,85,93,139566
1.8573,0.2933,38.7400,85,93,139569
1.8524,0.2981,38.7100,85,93,139572
1.8035,0.2933,38.7100,85,93,139576
1.8035,0.2933,38.5200,85,93,139579
1.7791,0.3275,38.6200,85,93,139582
1.7644,0.2884,38.7400,85,93,139586
1.7986,0.3030,38.6200,85,93,139589
1.7889,0.2688,38.7400,85,93,139592
1.8231,0.3030,38.4600,85,93,139595
1.7889,0.2933,38.6200,85,93,139599
1.7742,0.2884,38.7400,85,93,139602
1.7742,0.2981,38.5800,85,93,139606
1.7546,0.2933,38.7100,85,93,139610
1.7986,0.3079,38.4900,85,93,139613
1.7644,0.2933,38.6800,85,93,139616
1.7742,0.2884,38.7100,85,93,139620
1.7889,0.2981,38.6800,85,93,139623
1.7791,0.2884,38.7400,85,93,139626
1.8035,0.3226,38.5200,85,93,139630
1.7449,0.2884,38.6800,85,93,139633
1.7498,0.2933,38.5800,85,93,139636
1.7498,0.2933,38.7100,85,93,139639
1.7595,0.2884,38.7100,85,93,139643
1.7986,0.3030,38.5200,85,93,139646
1.7742,0.2933,38.6800,85,93,139650
1.7791,0.2981,38.4900,85,93,139654
1.7840,0.2933,38.7100,85,93,139657
1.7693,0.2884,38.7400,85,93,139660
1.8719,0.2933,38.5800,85,93,139664
1.9990,0.2884,38.7100,85,93,139667
2.1945,0.2933,38.5500,85,93,139670
2.3118,0.2933,38.6500,85,93,139674
2.3949,0.2884,38.5800,85,93,139677
2.4340,0.3079,38.6200,85,93,139680
2.3705,0.2933,38.7100,85,93,139683
2.2874,0.2688,38.5200,85,93,139687
2.0723,0.2884,38.7100,85,93,139691
1.8671,0.2884,38.7100,85,93,139694
1.6373,0.2981,38.7400,85,93,139698
1.3881,0.2688,38.7400,85,93,139701
1.2121,0.3030,38.4300,85,93,139704
1.0557,0.3030,38.6800,85,93,139708
0.9922,0.2884,38.7400,85,93,139711
1.0117,0.2981,38.6800,85,93,139714
1.1095,0.3079,38.7400,85,93,139717
1.3392,0.3128,38.4600,85,93,139721
1.4712,0.3275,38.5800,85,93,139724
1.6129,0.2884,38.6500,85,93,139727
1.7400,0.2933,38.8400,85,93,139731
1.7986,0.3030,38.7400,85,93,139735
1.8719,0.2884,38.5500,85,93,139738
1.8573,0.2933,38.6500,85,93,139742
1.8964,0.2884,38.5800,85,93,139745
1.8964,0.2933,38.9000,85,93,139748
1.9159,0.2688,38.7400,85,93,139752
1.9453,0.2981,38.6500,85,93,139755
1.9257,0.2933,38.7100,85,93,139758
1.9550,0.2688,38.5800,85,93,139761
1.9208,0.2933,38.7400,85,93,139765
1.9501,0.2933,38.7100,85,93,139768
1.9501,0.3030,38.5800,85,93,139771
1.9208,0.3177,38.7100,85,93,139776
1.9550,0.2884,38.5500,85,93,139779
1.9257,0.2933,37.8700,85,93,139782
1.9159,0.2981,38.7100,85,93,139786
1.9306,0.2981,38.5200,85,93,139789
1.8915,0.2933,38.7100,85,93,139792
1.9306,0.2981,38.4600,85,93,139796
1.9013,0.2933,38.6500,85,93,139799
1.9062,0.2933,38.7100,85,93,139802
1.9159,0.2981,38.6800,85,93,139805
1.9062,0.2884,38.7100,85,93,139809
1.9746,0.2981,38.4300,85,93,139812
1.9453,0.2884,38.6200,85,93,139815
