ecg,gsr,temp,hr,spo2,timest
1.8817,0.4203,39.1900,87,97,76995
1.8524,0.4154,39.2500,87,97,76999
1.9159,0.4448,38.8700,87,97,77002
1.8671,0.4252,39.2200,87,97,77005
1.8622,0.4203,39.1600,87,97,77008
1.8915,0.4203,39.1900,87,97,77012
1.8524,0.4203,39.1900,87,97,77016
1.9062,0.4448,39.0300,87,97,77019
1.8671,0.4252,38.4900,87,97,77022
1.8622,0.4154,39.1600,87,97,77026
1.8573,0.4203,39.1900,87,97,77029
1.8426,0.4154,39.2200,87,97,77032
1.9062,0.4448,39.0300,87,97,77035
1.8573,0.4203,39.1200,87,97,77039
1.8377,0.4154,39.0900,87,97,77042
1.8377,0.4203,39.1900,87,97,77045
1.8671,0.4154,39.1900,87,97,77048
1.8964,0.4448,39.0000,87,97,77052
1.8573,0.4203,39.0600,87,97,77056
1.8768,0.4154,39.1600,87,97,77059
1.8866,0.4154,39.1900,87,97,77062
1.8866,0.4154,39.1900,87,97,77066
1.9550,0.4497,38.9600,87,97,77069
1.9208,0.4252,39.1900,87,97,77072
1.9208,0.4154,39.1600,87,97,77075
1.9208,0.4203,39.1900,87,97,77079
1.9355,0.4154,39.2200,87,97,77082
1.9844,0.4643,39.0600,87,97,77085
1.9501,0.4252,39.2200,87,97,77088
1.9550,0.4154,39.1600,87,97,77092
1.9648,0.4154,39.1900,87,97,77095
1.9941,0.4203,39.1900,87,97,77099
2.0626,0.4448,38.9300,87,97,77102
2.0186,0.4203,39.1600,87,97,77106
2.0528,0.4106,39.1600,87,97,77109
2.0235,0.4399,39.2500,87,97,77112
1.9159,0.4203,39.1900,87,97,77116
1.8719,0.4106,39.2200,87,97,77119
1.8622,0.4399,39.0300,87,97,77122
1.7889,0.4203,39.0900,87,97,77126
1.7742,0.4252,39.0900,87,97,77129
1.7351,0.4203,39.2200,87,97,77132
1.7302,0.4154,39.0900,87,97,77135
1.7595,0.4301,39.0600,87,97,77139
1.7351,0.4203,39.1900,87,97,77143
1.7498,0.4203,39.0900,87,97,77146
1.7302,0.4203,39.2200,87,97,77149
1.7253,0.4154,39.2200,87,97,77153
1.7498,0.4252,39.1200,87,97,77156
1.7449,0.4057,39.1900,87,97,77159
1.7449,0.4594,39.0900,87,97,77162
1.7253,0.4203,39.2500,87,97,77166
1.7253,0.4154,39.1900,87,97,77169
1.7693,0.4301,39.0600,87,97,77172
1.7351,0.4203,39.1900,87,97,77175
1.7449,0.4203,39.0900,87,97,77179
1.7302,0.4203,39.2200,87,97,77182
1.7351,0.4203,39.1900,87,97,77186
1.7644,0.4350,39.0900,87,97,77189
1.7400,0.4203,39.1600,87,97,77193
1.7644,0.4252,39.0900,87,97,77196
1.7449,0.4203,39.2200,87,97,77199
1.7498,0.4252,39.2200,87,97,77202
1.7889,0.4252,39.1200,87,97,77206
1.7742,0.4203,39.3200,87,97,77209
1.7889,0.4203,39.0900,87,97,77212
1.7693,0.4203,39.2200,87,97,77215
1.7302,0.4203,39.1900,87,97,77219
1.7058,0.4301,39.0300,87,97,77222
1.6080,0.4252,39.1600,87,97,77225
1.5445,0.4057,39.0900,87,97,77229
1.4809,0.4448,39.2200,87,97,77233
1.5054,0.4154,39.2200,87,97,77236
1.6862,0.4252,39.0600,87,97,77239
1.9257,0.4301,39.1600,87,97,77242
2.3265,0.4203,38.9000,87,97,77246
2.7664,0.4203,39.1900,87,97,77249
3.2698,0.4154,39.2800,87,97,77252
3.7537,0.4399,39.0900,87,97,77255
3.8563,0.4203,38.9300,87,97,77259
3.7292,0.4203,39.1200,87,97,77262
3.3333,0.4203,39.2500,87,97,77265
2.8886,0.4106,39.1900,87,97,77268
2.4780,0.4350,39.2800,87,97,77273
2.0137,0.4252,39.1600,87,97,77276
1.6862,0.4154,39.0900,87,97,77279
1.4467,0.4301,39.2500,87,97,77282
1.3539,0.4154,39.1900,87,97,77286
1.3734,0.4350,39.0600,87,97,77289
1.3734,0.4203,39.1200,87,97,77292
1.4174,0.4203,39.0900,87,97,77295
1.4516,0.4203,39.1900,87,97,77299
1.4858,0.4154,39.1900,87,97,77302
1.5543,0.4350,39.0900,87,97,77305
1.5543,0.4252,39.1600,87,97,77308
1.5836,0.4203,39.0900,87,97,77313
1.5885,0.4203,39.2200,87,97,77316
1.5982,0.4203,39.2200,87,97,77319
1.6520,0.4448,38.9600,87,97,77322
1.6373,0.4252,39.1600,87,97,77326
1.6471,0.4203,39.4100,87,97,77329
1.6520,0.4203,39.2200,87,97,77332
1.6618,0.4106,39.1900,87,97,77335
1.7155,0.4350,39.0300,87,97,77339
1.6960,0.4203,39.1900,87,97,77342
1.7155,0.4154,39.1200,87,97,77345
1.7204,0.4252,39.1900,87,97,77348
1.7302,0.4106,39.1900,87,97,77352
1.7889,0.4350,39.0300,87,97,77356
1.7644,0.4203,39.2200,87,97,77359
1.8035,0.4057,39.1200,87,97,77362
1.7791,0.4203,39.1900,87,97,77366
1.7840,0.4350,39.2200,87,97,77369
1.8377,0.4301,39.1200,87,97,77372
1.8084,0.4252,39.0000,87,97,77375
1.8182,0.4154,39.1200,87,97,77379
1.8084,0.4350,39.1900,87,97,77382
1.8133,0.4154,39.2200,87,97,77385
1.8719,0.4350,39.0600,87,97,77388
1.8377,0.4203,39.1900,87,97,77392
1.8475,0.4301,39.1900,87,97,77395
1.8377,0.4497,39.1900,87,97,77399
1.8426,0.4301,39.1900,87,97,77402
1.8964,0.4350,39.0600,87,97,77406
1.8671,0.4057,39.1900,87,97,77409
1.8719,0.4252,39.0900,87,97,77412
1.8817,0.4692,39.1600,87,97,77415
1.8866,0.4154,39.2200,87,97,77419
1.9501,0.4301,39.0300,87,97,77422
1.9355,0.4252,39.1200,87,97,77425
1.9355,0.4252,39.1200,87,97,77428
1.9404,0.4301,39.2500,87,97,77432
1.9501,0.4154,39.3200,87,97,77435
2.0186,0.4350,39.0600,87,97,77438
1.9795,0.4252,39.1900,87,97,77442
1.9990,0.4203,39.1200,87,97,77446
1.9941,0.4203,39.1900,87,97,77449
1.9990,0.4154,39.1900,87,97,77452
2.0577,0.4350,39.0600,87,97,77455
2.0235,0.4203,39.3200,87,97,77459
2.0235,0.4203,39.1200,87,97,77462
2.0479,0.4203,39.1900,87,97,77465
2.0283,0.4154,39.1900,87,97,77468
2.0870,0.4399,39.0900,87,97,77472
2.0577,0.4301,39.2200,87,97,77475
2.0528,0.4154,39.1600,87,97,77478
2.0577,0.4203,39.1900,87,97,77481
2.0577,0.4203,39.1900,87,97,77486
2.1310,0.4448,39.0000,87,97,77489
2.0723,0.4252,39.1600,87,97,77492
2.0674,0.4154,39.1600,87,97,77495
2.0723,0.4301,39.1600,87,97,77499
2.0528,0.4154,39.2800,87,97,77502
2.1065,0.4448,39.0000,87,97,77505
2.0528,0.4301,39.1600,87,97,77508
2.0186,0.4154,39.1600,87,97,77512
2.0088,0.4203,39.1600,87,97,77515
1.9795,0.4154,39.1900,87,97,77518
2.0137,0.4399,38.9600,87,97,77521
1.9453,0.4252,39.1200,87,97,77526
1.9062,0.4154,39.3200,87,97,77529
1.8866,0.4203,39.1900,87,97,77532
1.8768,0.4203,39.2800,87,97,77535
1.9013,0.4448,38.9300,87,97,77539
1.8328,0.4203,39.1600,87,97,77542
1.8133,0.4154,39.1600,87,97,77545
1.8084,0.4203,39.1900,87,97,77548
1.7937,0.4154,39.1900,87,97,77552
1.8768,0.4448,38.9600,87,97,77555
1.8133,0.4252,38.9600,87,97,77558
1.8035,0.4154,39.1900,87,97,77561
1.8133,0.4203,39.1900,87,97,77565
1.8084,0.4203,39.1900,87,97,77569
1.8671,0.4448,38.4600,87,97,77572
1.8231,0.4497,39.1600,87,97,77575
1.8133,0.4154,39.1600,87,97,77579
1.8231,0.4203,39.1900,87,97,77582
1.8280,0.4154,39.1900,87,97,77585
1.8915,0.4399,39.0600,87,97,77588
1.8524,0.4252,39.1600,87,97,77592
1.8573,0.4154,39.2200,87,97,77595
1.8671,0.4203,39.1900,87,97,77598
1.8622,0.4154,39.2200,87,97,77601
1.9306,0.4252,39.0000,87,97,77605
1.8915,0.4252,39.0600,87,97,77608
1.8866,0.4154,39.1900,87,97,77612
1.9062,0.4252,39.1900,87,97,77615
1.8915,0.4106,39.1900,87,97,77619
1.9648,0.4448,38.9600,87,97,77622
1.9208,0.4301,39.0600,87,97,77625
1.9110,0.4154,39.1600,87,97,77628
1.9306,0.4497,39.1900,87,97,77632
1.9208,0.4448,39.2800,87,97,77635
1.9844,0.4448,38.9600,87,97,77638
1.9306,0.4203,39.1600,87,97,77641
1.9501,0.4057,39.1900,87,97,77645
1.9355,0.4252,39.1600,87,97,77648
1.9208,0.4106,39.2500,87,97,77651
1.9844,0.4448,38.9600,87,97,77655
1.9404,0.4252,39.2200,87,97,77659
1.9404,0.4203,39.1600,87,97,77662
1.9453,0.4252,39.1600,87,97,77665
1.9355,0.4154,39.1600,87,97,77668
1.9941,0.4448,38.5800,87,97,77672
1.9453,0.4252,39.1600,87,97,77675
1.9306,0.4154,39.1600,87,97,77678
1.9501,0.4154,39.1900,87,97,77681
1.9306,0.4399,39.1200,87,97,77685
1.9941,0.4448,39.0600,87,97,77688
1.9355,0.4203,39.1900,87,97,77691
1.9355,0.4106,39.1900,87,97,77694
1.9355,0.4399,39.2500,87,97,77699
1.9159,0.4154,39.2200,87,97,77702
1.9697,0.4448,39.0000,87,97,77705
1.9453,0.4154,39.1200,87,97,77708
1.9110,0.4203,39.0900,87,97,77712
1.9159,0.4252,39.1600,87,97,77715
1.9062,0.4154,39.3200,87,97,77718
1.9599,0.4448,38.9600,87,97,77722
1.9062,0.4301,39.0900,87,97,77726
1.8768,0.4203,39.2200,87,97,77729
1.9110,0.4252,39.0900,87,97,77733
1.8573,0.4252,39.1900,87,97,77736
1.8475,0.4203,39.1900,87,97,77740
1.8866,0.4252,39.0300,87,97,77743
1.8719,0.4252,39.1900,87,97,77747
1.8866,0.4057,39.0900,87,97,77750
1.9110,0.4203,39.1900,87,97,77753
1.8866,0.4203,39.3200,87,97,77756
1.9306,0.4301,39.0300,87,97,77760
1.9062,0.4301,39.1600,87,97,77763
1.9159,0.4301,39.0900,87,97,77766
1.9062,0.4203,39.1900,87,97,77769
1.9208,0.4154,39.1900,87,97,77773
1.9795,0.4301,39.0900,87,97,77776
1.9648,0.4203,39.1600,87,97,77779
2.0039,0.4203,39.0900,87,97,77783
1.9990,0.4057,39.1900,87,97,77787
1.9990,0.4154,39.0900,87,97,77790
2.0528,0.4350,39.0900,87,97,77793
2.0283,0.4252,39.1600,87,97,77796
2.0332,0.4203,38.4900,87,97,77800
2.0039,0.4203,39.1900,87,97,77803
1.9746,0.4203,39.2200,87,97,77806
1.9892,0.4301,39.0300,87,97,77809
1.9208,0.4252,39.2500,87,97,77813
1.8817,0.4057,39.1200,87,97,77816
1.8377,0.4448,39.1900,87,97,77819
1.8084,0.4154,38.5800,87,97,77822
1.8377,0.4252,39.0600,87,97,77827
1.7889,0.4154,39.1600,87,97,77830
1.7889,0.4154,39.1200,87,97,77833
1.7693,0.4203,39.3500,87,97,77836
1.7546,0.4154,39.2800,87,97,77840
1.8035,0.4350,39.0600,87,97,77843
1.7644,0.4301,39.1600,87,97,77846
1.7644,0.4154,39.1600,87,97,77849
1.7546,0.4203,39.0900,87,97,77853
1.7449,0.4154,39.2200,87,97,77856
1.7791,0.4301,39.0600,87,97,77859
1.7449,0.4301,39.1600,87,97,77862
1.7302,0.4203,39.1200,87,97,77867
1.7253,0.4154,39.1900,87,97,77870
1.7204,0.4203,39.1900,87,97,77873
1.7693,0.4399,39.0600,87,97,77876
1.7253,0.4203,39.2500,87,97,77880
1.7253,0.4203,39.1200,87,97,77883
1.7595,0.4154,39.1900,87,97,77886
1.7498,0.4154,39.2200,87,97,77889
1.7742,0.4399,39.0600,87,97,77893
1.7400,0.4203,39.2200,87,97,77896
1.7449,0.4203,39.1200,87,97,77899
1.7546,0.4203,39.1900,87,97,77902
1.7498,0.4252,39.1200,87,97,77906
1.8084,0.4350,38.9600,87,97,77910
1.7644,0.4252,39.1200,87,97,77913
1.7107,0.4203,39.1200,87,97,77916
1.6764,0.4154,39.2200,87,97,77920
1.5689,0.4154,39.2200,87,97,77923
1.5543,0.4399,39.0300,87,97,77926
1.4858,0.4203,39.1600,87,97,77929
1.5494,0.4203,39.2200,87,97,77933
1.7253,0.4203,39.1900,87,97,77936
2.0332,0.4448,39.1900,87,97,77939
2.5171,0.4399,39.0900,87,97,77942
2.9570,0.4252,39.1600,87,97,77946
3.4506,0.4154,39.1600,87,97,77949
3.8025,0.4203,39.3200,87,97,77953
3.8416,0.4154,39.2500,87,97,77956
3.7048,0.4399,39.0900,87,97,77960
3.2307,0.4301,39.1200,87,97,77963
2.7566,0.4154,39.1600,87,97,77966
2.3021,0.4203,39.0600,87,97,77969
1.9062,0.4057,39.1900,87,97,77973
1.6862,0.4399,38.9600,87,97,77976
1.4809,0.4301,39.1600,87,97,77979
1.4223,0.4154,39.1900,87,97,77982
1.4272,0.4203,39.1900,87,97,77986
1.4467,0.4154,39.1900,87,97,77989
1.5445,0.4350,39.0000,87,97,77992
1.5494,0.4203,39.1600,87,97,77996
1.5836,0.4154,39.1600,87,97,78000
1.6129,0.4203,39.1900,87,97,78003
1.6520,0.4057,39.1600,87,97,78006
1.6911,0.4643,39.0300,87,97,78009
1.6618,0.4252,39.1600,87,97,78013
1.6618,0.4154,39.1600,87,97,78016
1.6618,0.4203,39.2200,87,97,78019
1.6667,0.4154,39.1900,87,97,78022
1.7253,0.4448,39.0000,87,97,78026
1.6813,0.4203,39.2200,87,97,78029
1.6911,0.4154,39.1600,87,97,78032
1.6862,0.4203,39.1900,87,97,78035
1.6813,0.4154,39.2200,87,97,78040
1.7400,0.4448,39.0300,87,97,78043
1.7058,0.4203,39.2500,87,97,78046
1.7107,0.4154,39.1200,87,97,78049
1.7107,0.4203,39.1900,87,97,78053
1.7155,0.4252,39.1900,87,97,78056
1.7742,0.4399,39.1600,87,97,78059
1.7400,0.4252,39.0600,87,97,78062
1.7351,0.4154,39.1600,87,97,78066
1.7351,0.4154,39.1900,87,97,78069
1.7400,0.4203,39.1900,87,97,78072
1.7986,0.4399,38.9600,87,97,78075
1.7498,0.4203,39.2200,87,97,78080
1.7546,0.4154,39.1900,87,97,78083
1.7742,0.4057,39.2200,87,97,78086
1.7546,0.4203,39.2200,87,97,78089
1.8133,0.4399,39.0300,87,97,78093
1.7742,0.4252,39.1600,87,97,78096
1.7889,0.4154,39.1600,87,97,78099
1.7889,0.4203,39.1600,87,97,78102
1.7937,0.4203,39.2200,87,97,78106
1.8622,0.4399,39.0300,87,97,78109
1.8328,0.4252,39.1200,87,97,78112
1.8377,0.4154,39.1600,87,97,78115
1.8524,0.4057,39.1600,87,97,78119
1.8524,0.4448,39.2200,87,97,78123
1.9208,0.4399,39.0600,87,97,78126
1.8768,0.4252,39.1900,87,97,78129
1.8964,0.4203,39.1900,87,97,78133
1.9013,0.4497,39.2200,87,97,78136
1.9110,0.4154,39.2200,87,97,78139
1.9795,0.4399,39.0000,87,97,78142
1.9453,0.4154,39.1600,87,97,78146
1.9453,0.4203,39.1600,87,97,78149
1.9501,0.4203,39.1600,87,97,78152
1.9501,0.4154,39.1600,87,97,78156
2.0186,0.4448,39.0300,87,97,78159
1.9795,0.4252,39.1200,87,97,78162
1.9697,0.4106,39.1200,87,97,78166
1.9795,0.4154,39.2200,87,97,78170
1.9892,0.4154,39.2500,87,97,78173
2.0577,0.4399,39.0300,87,97,78176
2.0088,0.4203,39.1900,87,97,78179
2.0088,0.4399,39.1600,87,97,78183
2.0088,0.4203,39.2800,87,97,78186
1.9990,0.4154,39.2200,87,97,78189
2.0577,0.4350,39.0000,87,97,78192
2.0137,0.4252,39.2200,87,97,78195
1.9892,0.4154,39.1900,87,97,78199
1.9844,0.4203,39.1900,87,97,78202
1.9550,0.4252,39.2200,87,97,78205
1.9892,0.4448,38.5200,87,97,78209
1.9208,0.4252,39.1200,87,97,78213
1.8719,0.4154,39.1600,87,97,78216
1.8426,0.4203,39.2200,87,97,78219
1.8231,0.4106,39.2800,87,97,78223
1.8524,0.4448,39.1900,87,97,78226
1.7742,0.4203,39.0300,87,97,78229
1.7498,0.4154,39.1600,87,97,78232
1.7204,0.4203,39.1900,87,97,78236
1.7058,0.4154,39.2800,87,97,78239
1.7400,0.4350,39.0600,87,97,78242
1.6960,0.4252,39.1200,87,97,78245
1.7107,0.4154,39.1600,87,97,78249
1.6813,0.4203,39.1900,87,97,78253
1.6716,0.4203,39.1900,87,97,78256
1.7253,0.4448,38.9600,87,97,78259
1.6862,0.4301,39.1200,87,97,78263
1.6764,0.4154,39.1600,87,97,78266
1.6813,0.4203,39.1900,87,97,78269
1.6862,0.4203,39.2200,87,97,78272
1.7449,0.4643,38.9600,87,97,78276
1.7058,0.4252,39.1200,87,97,78279
1.7107,0.4154,39.2500,87,97,78282
1.7253,0.4203,39.1900,87,97,78285
1.7155,0.4154,39.1900,87,97,78289
1.7742,0.4252,39.0900,87,97,78292
1.7498,0.4252,39.1200,87,97,78296
1.7449,0.4154,39.0900,87,97,78299
1.7546,0.4203,39.2200,87,97,78303
1.7546,0.4154,39.2200,87,97,78306
1.8231,0.4448,39.0300,87,97,78309
1.7791,0.4301,39.1900,87,97,78312
1.7742,0.4154,39.1200,87,97,78316
1.7840,0.4203,39.1900,87,97,78319
1.7937,0.4057,39.2200,87,97,78322
1.8573,0.4497,39.0000,87,97,78325
1.8182,0.4301,39.1200,87,97,78329
1.8231,0.4154,39.1600,87,97,78332
1.8231,0.4203,39.1900,87,97,78336
1.8475,0.4203,39.3200,87,97,78341
1.8035,0.4399,39.2500,87,97,78344
1.8231,0.4301,39.0600,87,97,78347
1.7742,0.4203,39.1900,87,97,78351
1.7889,0.4252,39.0900,87,97,78354
1.7546,0.4252,39.1900,87,97,78357
1.7595,0.4154,39.2500,87,97,78360
1.7889,0.4252,39.1600,87,97,78364
1.7693,0.4203,39.1900,87,97,78367
1.7937,0.4203,39.0600,87,97,78370
1.7742,0.4203,39.2200,87,97,78373
1.7791,0.4154,39.2200,87,97,78377
1.8035,0.4301,39.1600,87,97,78381
1.7937,0.4106,39.1600,87,97,78384
1.8231,0.4203,39.0900,87,97,78387
1.8035,0.4203,39.1900,87,97,78391
1.8133,0.4154,39.3200,87,97,78394
1.8475,0.4350,39.1900,87,97,78397
1.8133,0.4203,39.1600,87,97,78400
1.8231,0.4252,39.0300,87,97,78404
1.8035,0.4203,39.1900,87,97,78407
1.8280,0.4057,39.2200,87,97,78410
1.8328,0.4301,39.1200,87,97,78413
1.8084,0.4203,39.1900,87,97,78417
1.8280,0.4252,39.0900,87,97,78420
1.8035,0.4252,39.1900,87,97,78424
1.7986,0.4203,39.2500,87,97,78427
1.8328,0.4350,39.1200,87,97,78431
1.8182,0.4203,39.2500,87,97,78434
1.8524,0.4252,39.0900,87,97,78437
1.8377,0.4203,39.1900,87,97,78440
1.8475,0.4106,39.1900,87,97,78444
1.8866,0.4301,38.9000,87,97,78447
1.8622,0.4203,39.1900,87,97,78450
1.8817,0.4252,39.0900,87,97,78453
1.8768,0.4252,39.2200,87,97,78457
1.8719,0.4154,39.2200,87,97,78460
1.9062,0.4301,39.0300,87,97,78464
1.8915,0.4203,39.1900,87,97,78467
1.9306,0.4301,39.0900,87,97,78471
1.9306,0.4203,39.1200,87,97,78474
1.9501,0.4154,39.1600,87,97,78477
2.0088,0.4252,39.1200,87,97,78480
1.9941,0.4203,39.1900,87,97,78484
2.0235,0.4203,39.0600,87,97,78487
2.0088,0.4203,39.2200,87,97,78490
2.0137,0.4203,39.2200,87,97,78493
2.0479,0.4301,39.0600,87,97,78497
1.9990,0.4252,39.1900,87,97,78500
1.9795,0.4203,39.1200,87,97,78503
1.9404,0.4106,39.1900,87,97,78507
1.9110,0.4154,39.1900,87,97,78511
1.9355,0.4350,39.0600,87,97,78514
1.8671,0.4350,39.1900,87,97,78517
1.8622,0.4203,39.0900,87,97,78520
1.8328,0.4203,39.2500,87,97,78524
1.8133,0.4154,39.2200,87,97,78527
1.8426,0.4350,39.1900,87,97,78530
1.8084,0.4252,39.2200,87,97,78533
1.8084,0.4350,39.0900,87,97,78537
1.7937,0.4203,39.1600,87,97,78540
1.7840,0.4154,39.1200,87,97,78543
1.8231,0.4252,39.0300,87,97,78546
1.7889,0.4252,39.1600,87,97,78551
1.7889,0.4203,39.1200,87,97,78554
1.7742,0.4154,39.1600,87,97,78557
1.7742,0.4154,39.2200,87,97,78560
1.8133,0.4301,39.0900,87,97,78564
1.7791,0.4203,39.1900,87,97,78567
1.7937,0.4154,39.0900,87,97,78570
1.7742,0.4203,39.2500,87,97,78573
1.7742,0.4154,39.2500,87,97,78577
1.8084,0.4350,39.1600,87,97,78580
1.7840,0.4203,39.1900,87,97,78583
1.7937,0.4203,39.0900,87,97,78586
1.7840,0.4448,39.2500,87,97,78590
1.7791,0.4154,39.2500,87,97,78594
1.8133,0.4301,39.0600,87,97,78597
1.7986,0.4252,39.1600,87,97,78600
1.8084,0.4252,39.0900,87,97,78604
1.7889,0.4203,39.2200,87,97,78607
1.7742,0.4154,39.1900,87,97,78610
1.7693,0.4301,39.0600,87,97,78613
1.6569,0.4252,39.1900,87,97,78617
1.5934,0.4203,39.0600,87,97,78620
1.5103,0.4203,39.1900,87,97,78623
1.4907,0.4154,39.1900,87,97,78626
1.6080,0.4350,39.0900,87,97,78630
1.7937,0.4203,39.1900,87,97,78633
2.1457,0.4203,39.1200,87,97,78637
2.5709,0.4203,39.1900,87,97,78640
3.0547,0.4203,39.1900,87,97,78644
3.6070,0.4301,39.0300,87,97,78647
3.8416,0.4301,39.1600,87,97,78650
3.8025,0.4252,39.1900,87,97,78653
3.4848,0.4203,39.3500,87,97,78657
3.0694,0.4154,39.1900,87,97,78660
2.7028,0.4350,39.0600,87,97,78663
2.1799,0.4203,39.1600,87,97,78666
1.8182,0.4203,39.1200,87,97,78670
1.5640,0.4203,39.1900,87,97,78673
1.4614,0.4057,39.2200,87,97,78676
1.4370,0.4350,39.0600,87,97,78680
1.4223,0.4203,39.0600,87,97,78684
1.4516,0.4203,39.1200,87,97,78687
1.4907,0.4203,39.1900,87,97,78690
1.5249,0.4203,39.2200,87,97,78693
1.5982,0.4301,39.0300,87,97,78697
1.5934,0.4252,39.1600,87,97,78700
1.6031,0.4203,39.1200,87,97,78703
1.6080,0.3861,39.1900,87,97,78706
1.6178,0.4399,39.2500,87,97,78710
1.6764,0.4350,39.0300,87,97,78713
1.6471,0.4203,39.1900,87,97,78716
1.6618,0.4203,39.2200,87,97,78720
1.6618,0.4203,39.1900,87,97,78724
1.6667,0.4252,39.2200,87,97,78727
1.7204,0.4399,39.3200,87,97,78730
1.6960,0.4203,39.1900,87,97,78733
1.7204,0.4154,39.1200,87,97,78737
1.7107,0.4057,39.1900,87,97,78740
1.7155,0.4154,39.2200,87,97,78743
1.7693,0.4301,38.4300,87,97,78746
1.7351,0.4252,39.1600,87,97,78750
1.7449,0.4203,39.1200,87,97,78753
1.7351,0.4203,39.2200,87,97,78756
1.7449,0.4154,39.2500,87,97,78759
1.7937,0.4350,39.0600,87,97,78764
1.7595,0.4203,39.1900,87,97,78767
1.7693,0.4106,39.0900,87,97,78770
1.7644,0.4203,39.1600,87,97,78773
1.7693,0.4154,39.3200,87,97,78777
1.8280,0.4350,39.0600,87,97,78780
1.7937,0.4252,39.1600,87,97,78783
1.8084,0.4154,39.0300,87,97,78786
1.8133,0.4203,39.1900,87,97,78790
1.8182,0.4057,39.1900,87,97,78793
1.8719,0.4301,39.0600,87,97,78796
1.8524,0.4448,39.1200,87,97,78799
1.8475,0.4203,39.1600,87,97,78803
1.8524,0.4203,39.1900,87,97,78807
1.8622,0.4252,39.1900,87,97,78810
1.9257,0.4448,39.0600,87,97,78813
1.8915,0.4203,39.2500,87,97,78817
1.9110,0.4154,39.1200,87,97,78820
1.9306,0.4057,39.1900,87,97,78823
1.9208,0.4203,39.1900,87,97,78826
1.9892,0.4350,39.0300,87,97,78830
1.9599,0.4203,39.1900,87,97,78833
1.9648,0.4154,39.1200,87,97,78836
1.9795,0.4203,39.1900,87,97,78839
1.9795,0.4448,39.1900,87,97,78843
2.0479,0.4399,39.1900,87,97,78846
2.0235,0.4252,39.1200,87,97,78850
2.0088,0.4057,39.1200,87,97,78853
2.0186,0.4203,39.2200,87,97,78857
2.0235,0.4154,39.2200,87,97,78860
2.0968,0.4399,39.0000,87,97,78863
2.0430,0.4203,39.1600,87,97,78866
2.0528,0.4154,39.1600,87,97,78870
2.0577,0.4203,39.1900,87,97,78873
2.0577,0.4203,39.1900,87,97,78876
2.1261,0.4448,38.9600,87,97,78879
2.0919,0.4252,39.1600,87,97,78883
2.0772,0.4203,39.2500,87,97,78886
2.0821,0.4301,39.2800,87,97,78889
2.0674,0.4154,39.1900,87,97,78893
2.1163,0.4448,38.9600,87,97,78897
2.0528,0.4203,39.1900,87,97,78900
2.0186,0.4154,38.8400,87,97,78903
1.9990,0.4203,38.9300,87,97,78906
1.9697,0.4106,39.2200,87,97,78910
2.0039,0.4448,38.9300,87,97,78913
1.9257,0.4203,39.1600,87,97,78916
1.8915,0.4203,39.1600,87,97,78919
1.8719,0.4203,39.1900,87,97,78923
1.8377,0.4594,39.2500,87,97,78926
1.8671,0.4448,38.9300,87,97,78929
1.8133,0.4252,39.1600,87,97,78932
1.7791,0.4154,39.1900,87,97,78937
1.7791,0.4203,39.1900,87,97,78940
1.7546,0.4154,39.2500,87,97,78943
1.7937,0.4448,39.0000,87,97,78946
1.7693,0.4301,39.0900,87,97,78951
1.7400,0.4203,39.1200,87,97,78954
1.7595,0.4203,39.0900,87,97,78958
1.7449,0.4203,39.1900,87,97,78961
1.7449,0.4203,39.2200,87,97,78964
1.7840,0.4301,39.1200,87,97,78967
1.7693,0.4252,39.1600,87,97,78971
1.7889,0.4203,39.1900,87,97,78974
1.7840,0.4203,39.1900,87,97,78978
1.7937,0.4301,39.2500,87,97,78981
1.8426,0.4301,38.9600,87,97,78985
1.8182,0.4252,39.2500,87,97,78988
1.8377,0.4203,39.1200,87,97,78991
1.8328,0.4252,39.1900,87,97,78994
1.8426,0.4154,39.1900,87,97,78998
1.8964,0.4301,39.1200,87,97,79001
1.8719,0.4203,39.1900,87,97,79004
1.8915,0.4203,39.0900,87,97,79007
1.8866,0.4497,39.1900,87,97,79011
1.8719,0.4350,39.1900,87,97,79014
1.9257,0.4301,39.1200,87,97,79017
1.9013,0.4203,39.1900,87,97,79021
1.9159,0.4203,39.0900,87,97,79025
1.9013,0.4203,39.1600,87,97,79028
1.9013,0.4154,39.3500,87,97,79031
1.9501,0.4301,39.0600,87,97,79034
1.9208,0.4252,39.1900,87,97,79038
1.9404,0.4203,39.0900,87,97,79041
1.9159,0.4154,39.3500,87,97,79044
1.9208,0.4154,39.2200,87,97,79047
1.9697,0.4252,39.0600,87,97,79051
1.9306,0.4252,39.1900,87,97,79054
1.9453,0.4203,39.2800,87,97,79057
1.9355,0.4203,39.1900,87,97,79060
1.9306,0.4154,39.2200,87,97,79065
1.9746,0.4350,39.0900,87,97,79068
1.9453,0.4203,39.1900,87,97,79071
1.9599,0.4203,39.1600,87,97,79074
1.9453,0.4203,39.1200,87,97,79078
1.9306,0.4154,39.1900,87,97,79081
1.9648,0.4301,39.0300,87,97,79084
1.9648,0.4252,39.1600,87,97,79087
1.9355,0.4594,39.1200,87,97,79091
1.9159,0.4203,39.2200,87,97,79094
1.9159,0.4154,39.3200,87,97,79097
1.9599,0.4301,39.0900,87,97,79100
1.9110,0.4203,39.1600,87,97,79105
1.9257,0.4203,39.0900,87,97,79108
1.9013,0.4203,39.1900,87,97,79111
1.8964,0.4057,39.2200,87,97,79114
1.9306,0.4301,39.0900,87,97,79118
1.9110,0.4203,39.1600,87,97,79121
1.9550,0.4057,39.1200,87,97,79124
1.9257,0.4203,39.1900,87,97,79127
1.9208,0.4203,39.1900,87,97,79131
1.9697,0.4301,39.2200,87,97,79134
1.9404,0.4252,39.1600,87,97,79137
1.9355,0.4203,39.1200,87,97,79140
1.9257,0.4203,39.2200,87,97,79144
1.9306,0.4203,39.1900,87,97,79148
1.9795,0.4301,39.1900,87,97,79151
1.9550,0.4203,39.1900,87,97,79154
1.9990,0.4203,39.0900,87,97,79158
1.9844,0.4203,39.2800,87,97,79161
1.9990,0.4154,39.1600,87,97,79164
2.0577,0.4350,39.0900,87,97,79167
2.0332,0.4154,39.1600,87,97,79171
2.0430,0.4203,39.0900,87,97,79174
2.0381,0.4203,39.2500,87,97,79177
2.0235,0.4203,39.2200,87,97,79180
2.0626,0.4301,39.1200,87,97,79184
2.0039,0.4252,39.1600,87,97,79187
1.9599,0.4154,39.1200,87,97,79191
1.9159,0.4203,39.1900,87,97,79194
1.8866,0.4154,39.1900,87,97,79198
1.9110,0.4350,39.0300,87,97,79201
1.8377,0.4203,39.2500,87,97,79204
1.8280,0.4203,39.1200,87,97,79207
1.7937,0.4106,39.1900,87,97,79211
1.7791,0.4252,39.3200,87,97,79214
1.8182,0.4350,39.1200,87,97,79217
1.7889,0.4203,39.1600,87,97,79220
1.7889,0.4203,39.2200,87,97,79224
1.7791,0.4203,39.1900,87,97,79227
1.7693,0.4203,39.2200,87,97,79230
1.8133,0.4350,39.0300,87,97,79234
1.7791,0.4252,39.1900,87,97,79238
1.7742,0.4203,39.0900,87,97,79241
1.7840,0.4203,39.1900,87,97,79244
1.7791,0.4154,39.2500,87,97,79247
1.8328,0.4350,39.0300,87,97,79251
1.7889,0.4203,39.1900,87,97,79254
1.8133,0.4203,39.1200,87,97,79257
1.7889,0.4106,39.3200,87,97,79260
1.7889,0.4252,39.2800,87,97,79264
1.8377,0.4350,39.0300,87,97,79267
1.8133,0.4203,39.1600,87,97,79270
1.8280,0.4203,39.1200,87,97,79273
1.8622,0.4203,39.1900,87,97,79278
1.8231,0.4301,39.2500,87,97,79281
1.8719,0.4301,39.0600,87,97,79284
1.8426,0.4252,39.1200,87,97,79287
1.8573,0.4057,39.1200,87,97,79291
1.8133,0.4203,39.1900,87,97,79294
1.7791,0.4154,39.2200,87,97,79297
1.7644,0.4350,39.0600,87,97,79300
1.6764,0.4203,39.1900,87,97,79304
1.5689,0.4106,39.1900,87,97,79307
1.5103,0.4203,39.2200,87,97,79310
1.5249,0.4154,39.2200,87,97,79313
1.7155,0.4350,39.0600,87,97,79318
1.9648,0.4203,39.1900,87,97,79321
2.3412,0.4154,39.0600,87,97,79324
2.8006,0.4203,39.2500,87,97,79327
3.2845,0.4154,39.1900,87,97,79331
3.7781,0.4252,39.0300,87,97,79334
3.8710,0.4545,39.1200,87,97,79337
3.6755,0.4154,39.2200,87,97,79340
3.3138,0.4203,39.2200,87,97,79344
2.8788,0.4203,39.2200,87,97,79347
2.4878,0.4399,39.0000,87,97,79350
2.0088,0.4203,39.1900,87,97,79353
1.6716,0.4154,39.1600,87,97,79357
1.4614,0.4203,39.0900,87,97,79361
1.3685,0.4154,39.1900,87,97,79364
1.4125,0.4350,39.0300,87,97,79367
1.4076,0.4399,39.1600,87,97,79371
1.4565,0.4154,39.1600,87,97,79374
1.5152,0.4203,38.4900,87,97,79377
1.5494,0.4154,39.1900,87,97,79380
1.6325,0.4350,39.0300,87,97,79384
1.6276,0.4301,39.0600,87,97,79387
1.6325,0.4106,39.1200,87,97,79390
1.6471,0.4252,39.1900,87,97,79393
1.6618,0.4154,39.2200,87,97,79397
1.7302,0.4448,39.0000,87,97,79400
1.6911,0.4203,39.1600,87,97,79404
1.7009,0.4154,39.1600,87,97,79407
1.7107,0.4203,39.2200,87,97,79411
1.7351,0.4154,39.1900,87,97,79414
1.7742,0.4497,39.0600,87,97,79417
1.7400,0.4203,39.1600,87,97,79420
1.7546,0.4106,39.1600,87,97,79424
1.7791,0.4203,39.1900,87,97,79427
1.7595,0.4106,39.2500,87,97,79430
1.8280,0.4399,39.0300,87,97,79433
1.8035,0.4350,39.0900,87,97,79437
1.7937,0.4203,39.1600,87,97,79440
1.8035,0.4203,39.2200,87,97,79443
1.8133,0.4154,39.2200,87,97,79447
1.8719,0.4399,39.0600,87,97,79451
1.8231,0.4154,39.2500,87,97,79454
1.8280,0.4154,39.1600,87,97,79457
1.8328,0.4203,39.2500,87,97,79460
1.8280,0.4154,39.3200,87,97,79464
1.8915,0.4399,39.0000,87,97,79467
1.8475,0.4203,39.1900,87,97,79470
1.8475,0.4154,39.1200,87,97,79473
1.8573,0.4154,39.1900,87,97,79477
1.8573,0.4154,39.1900,87,97,79480
1.9208,0.4399,39.0900,87,97,79483
1.8964,0.4301,39.0900,87,97,79488
1.8817,0.4154,39.3800,87,97,79491
1.8964,0.4203,39.1900,87,97,79494
1.8964,0.4154,39.2200,87,97,79497
1.9697,0.4497,39.0000,87,97,79500
1.9208,0.4203,39.0900,87,97,79504
1.9257,0.4154,39.1900,87,97,79507
1.9306,0.4154,39.1900,87,97,79510
1.9599,0.4106,39.2200,87,97,79513
2.0088,0.4448,38.9300,87,97,79517
1.9795,0.4203,39.1600,87,97,79520
1.9990,0.4106,39.1900,87,97,79523
2.0137,0.4252,39.1900,87,97,79526
2.0088,0.4154,39.2200,87,97,79531
2.0821,0.4448,38.9600,87,97,79534
2.0430,0.4252,39.0900,87,97,79537
2.0235,0.4106,39.1900,87,97,79540
2.0283,0.4203,39.1900,87,97,79544
2.0332,0.4154,39.2200,87,97,79547
2.1017,0.4350,38.9300,87,97,79550
2.0479,0.4203,39.1600,87,97,79553
2.0479,0.4203,39.3200,87,97,79557
2.0528,0.4203,39.0600,86,97,79560
2.0430,0.4057,39.1900,86,97,79565
2.0381,0.4154,39.3200,86,97,79568
2.0674,0.4301,39.0300,86,97,79571
2.0137,0.4252,39.1600,86,97,79575
1.9795,0.4252,39.0900,86,97,79579
1.9453,0.4203,39.2500,86,97,79582
1.9208,0.4154,39.2200,86,97,79585
1.9550,0.4350,39.0600,86,97,79588
1.8719,0.4203,39.1600,86,97,79592
1.8524,0.4154,39.1200,86,97,79595
1.8231,0.4203,39.1900,86,97,79598
1.7937,0.4154,39.2200,86,97,79601
1.8231,0.4350,39.0600,86,97,79605
1.7791,0.4252,39.1200,86,97,79608
1.7693,0.4203,39.1200,86,97,79611
1.7546,0.4203,39.2200,86,97,79614
1.7498,0.4154,39.2200,86,97,79619
1.8133,0.4350,39.0600,86,97,79622
1.7498,0.4203,39.1600,86,97,79625
1.7400,0.4203,39.1900,86,97,79628
1.7351,0.4154,39.2200,86,97,79632
1.7449,0.4057,39.1900,86,97,79635
1.7986,0.4301,39.0600,86,97,79638
1.7693,0.4203,39.1600,86,97,79641
1.7840,0.4154,39.1900,86,97,79645
1.7840,0.4203,39.1900,86,97,79648
1.7693,0.4154,39.2200,86,97,79651
1.8328,0.4350,39.0600,86,97,79654
1.8084,0.4350,39.1600,86,97,79659
1.8182,0.4154,39.1200,86,97,79662
1.8231,0.4203,39.2200,86,97,79665
1.8377,0.4154,39.2200,86,97,79668
1.8866,0.4301,39.0300,86,97,79672
1.8671,0.4301,39.1200,86,97,79675
1.8671,0.4154,38.5200,86,97,79678
1.8671,0.4203,39.1900,86,97,79681
1.8719,0.4057,39.2200,86,97,79685
1.9208,0.4203,39.0600,86,97,79688
1.8817,0.4203,39.2200,86,97,79691
1.8964,0.4154,39.1200,86,97,79694
1.8817,0.4154,39.1900,86,97,79698
1.8768,0.4106,39.1900,86,97,79702
1.9306,0.4350,39.0900,86,97,79705
1.9013,0.4252,39.1900,86,97,79708
1.9159,0.4154,39.1200,86,97,79712
1.9062,0.4203,39.1900,86,97,79715
1.8915,0.4154,39.2500,86,97,79718
1.9453,0.4301,38.4000,86,97,79721
1.9110,0.4252,39.1200,86,97,79725
1.8964,0.4203,39.1200,86,97,79728
1.8866,0.4203,39.1900,86,97,79731
1.8866,0.4154,39.1900,86,97,79734
1.9453,0.4350,39.0600,86,97,79738
1.9013,0.4203,39.1600,86,97,79741
1.9013,0.4154,39.1600,86,97,79745
1.8964,0.4203,39.1600,86,97,79748
1.8866,0.4154,39.2200,86,97,79752
1.9404,0.4350,39.0300,86,97,79755
1.9062,0.4154,39.1200,86,97,79758
1.9013,0.4154,39.1600,86,97,79761
1.8915,0.4448,39.1900,86,97,79765
1.8817,0.4154,39.2200,86,97,79768
1.9355,0.4350,39.0300,86,97,79771
1.9013,0.4301,39.2200,86,97,79774
1.8768,0.4154,39.1200,86,97,79778
1.8719,0.4154,39.2200,86,97,79781
1.8719,0.4154,39.1900,86,97,79784
1.9208,0.4350,39.0900,86,97,79788
1.9062,0.4203,39.1900,86,97,79792
1.8768,0.4106,39.1600,86,97,79795
1.8719,0.4203,39.1900,86,97,79798
1.8622,0.4154,39.2200,86,97,79801
1.9208,0.4350,39.1200,86,97,79805
1.9062,0.4399,39.1600,86,97,79808
1.9110,0.4154,39.1600,86,97,79811
1.9110,0.4203,39.1900,86,97,79814
1.9159,0.4154,39.2800,86,97,79818
1.9746,0.4399,39.0300,86,97,79821
1.9599,0.4301,39.1200,86,97,79824
1.9306,0.4154,39.1200,86,97,79827
1.9404,0.4154,39.1900,86,97,79832
1.9550,0.4154,39.2200,86,97,79835
2.0332,0.4301,39.0600,86,97,79838
1.9990,0.4203,39.2200,86,97,79841
2.0235,0.4154,39.1600,86,97,79845
2.0283,0.4252,39.2200,86,97,79848
2.0283,0.4203,39.2200,86,97,79851
2.0968,0.4399,39.0300,86,97,79854
2.0674,0.4301,39.1200,86,97,79858
2.0528,0.4154,39.1200,86,97,79861
2.0430,0.4203,39.1600,86,97,79864
2.0137,0.4154,39.2200,86,97,79867
2.0430,0.4448,39.1200,86,97,79872
1.9599,0.4301,39.1200,86,97,79875
1.9062,0.4154,39.1200,86,97,79878
1.8719,0.4203,39.1900,86,97,79881
1.8377,0.4154,39.1900,86,97,79885
1.8866,0.4399,39.0000,86,97,79888
1.8231,0.4252,39.1600,86,97,79891
1.8182,0.4154,39.1600,86,97,79894
1.8133,0.4203,39.1900,86,97,79898
1.7937,0.4154,39.2800,86,97,79901
1.8426,0.4399,39.0300,86,97,79904
1.8084,0.4252,39.1900,86,97,79907
1.7986,0.4154,39.2200,86,97,79911
1.7937,0.4203,39.1900,86,97,79915
1.7791,0.4154,39.1900,86,97,79918
1.8377,0.4399,39.0900,86,97,79921
1.7937,0.4301,39.1200,86,97,79925
1.7840,0.4399,39.0900,86,97,79928
1.7889,0.4203,39.1900,86,97,79931
1.7840,0.4154,39.1900,86,97,79934
1.8426,0.4399,39.0000,86,97,79938
1.7937,0.4203,39.1600,86,97,79941
1.7937,0.4154,39.1600,86,97,79944
1.7986,0.4203,39.2800,86,97,79947
1.7889,0.4057,39.1900,86,97,79951
1.8475,0.4350,39.0600,86,97,79954
1.8133,0.4252,39.0600,86,97,79958
1.8182,0.4154,39.1600,86,97,79961
1.8280,0.4203,39.1900,86,97,79965
1.8280,0.4203,39.2200,86,97,79968
1.8964,0.4399,39.0300,86,97,79971
1.8524,0.4301,38.7100,86,97,79974
1.7986,0.4154,39.1600,86,97,79978
1.7400,0.4154,39.1900,86,97,79981
1.6569,0.4154,39.2800,86,97,79984
1.6325,0.4399,39.0000,86,97,79987
1.5396,0.4203,39.1900,86,97,79991
1.5787,0.4106,39.2500,86,97,79994
1.7009,0.4252,39.1900,86,97,79997
1.9697,0.4154,39.2500,86,97,80001
2.4242,0.4448,39.0000,86,97,80005
2.8495,0.4203,39.1600,86,97,80008
3.3480,0.4106,39.1900,86,97,80011
3.7830,0.4203,39.1900,86,97,80014
3.9394,0.4106,39.1900,86,97,80018
3.8661,0.4399,38.9600,86,97,80021
3.4409,0.4252,39.0300,86,97,80024
2.9765,0.4154,39.1600,86,97,80027
2.5269,0.4154,39.1900,86,97,80031
2.0968,0.4154,39.1900,86,97,80034
1.8084,0.4399,38.9600,86,97,80037
1.5445,0.4057,39.1600,86,97,80040
1.4467,0.4350,39.1600,86,97,80045
1.4467,0.4399,39.2200,86,97,80048
1.4565,0.4301,39.1900,86,97,80051
1.5396,0.4350,38.9600,86,97,80054
1.5591,0.4057,39.1600,86,97,80058
1.5982,0.4594,39.1900,86,97,80061
1.6373,0.4252,39.1600,86,97,80064
1.6471,0.4154,39.3500,86,97,80067
1.7107,0.4350,38.9600,86,97,80071
1.6911,0.4203,39.0600,86,97,80074
1.6813,0.4106,39.1900,86,97,80077
1.6911,0.4203,39.3500,86,97,80080
1.6960,0.4154,39.2200,86,97,80084
1.7693,0.4350,38.9300,86,97,80088
1.7204,0.4203,39.1600,86,97,80091
1.7155,0.4106,39.2800,86,97,80094
1.7351,0.4203,39.1900,86,97,80098
1.7351,0.4154,39.1900,86,97,80101
1.8328,0.4350,38.9300,86,97,80104
1.7791,0.4203,39.0900,86,97,80107
1.7791,0.4057,39.1900,86,97,80111
1.8084,0.4252,39.0900,86,97,80114
1.7986,0.4154,39.2200,86,97,80117
1.8524,0.4350,38.9300,86,97,80120
1.8280,0.4203,39.0900,86,97,80124
1.8182,0.4154,39.1900,86,97,80128
1.8231,0.4203,39.1200,86,97,80131
1.8231,0.4154,39.1900,86,97,80134
1.8768,0.4252,38.9300,86,97,80138
1.8280,0.4154,39.2500,86,97,80141
1.8280,0.4399,39.1600,86,97,80144
1.8328,0.4203,39.2200,86,97,80147
1.8280,0.4154,39.2200,86,97,80151
1.8817,0.4252,38.9300,86,97,80154
1.8524,0.4203,39.1600,86,97,80157
1.8573,0.4154,39.4100,86,97,80160
1.8719,0.4252,39.1600,86,97,80164
1.8573,0.4154,39.2200,86,97,80167
1.9208,0.4350,38.9300,86,97,80171
1.9404,0.4350,39.1200,86,97,80176
1.9062,0.4203,39.2200,86,97,80179
1.9062,0.4203,39.0900,86,97,80182
1.8915,0.4301,39.1900,86,97,80186
1.8866,0.4203,39.2200,86,97,80189
1.9306,0.4350,39.0300,86,97,80192
1.9062,0.4203,39.1900,86,97,80195
1.9208,0.4399,39.1200,86,97,80199
1.9159,0.4154,39.1600,86,97,80202
1.9110,0.4154,39.2200,86,97,80205
1.9697,0.4252,39.1200,86,97,80208
1.9453,0.4252,39.1600,86,97,80212
1.9550,0.4154,39.1200,86,97,80216
1.9501,0.4399,39.1900,86,97,80219
1.9648,0.4154,39.2200,86,97,80222
2.0235,0.4301,39.0600,86,97,80226
1.9844,0.4203,39.1900,86,97,80229
1.9990,0.4203,39.1600,86,97,80232
1.9941,0.4203,39.2200,86,97,80235
1.9892,0.4154,39.2500,86,97,80239
2.0430,0.4350,39.0600,86,97,80242
2.0039,0.4203,39.1600,86,97,80245
1.9990,0.4154,39.1200,86,97,80248
1.9795,0.4203,39.1900,86,97,80252
1.9501,0.4154,39.2200,86,97,80256
1.9892,0.4301,39.0000,86,97,80259
1.9404,0.4252,39.1600,86,97,80262
1.9110,0.4154,39.1600,86,97,80266
1.8866,0.4057,39.2200,86,97,80269
1.8719,0.4154,39.1900,86,97,80272
1.9062,0.4350,38.9000,86,97,80275
1.8426,0.4203,39.1900,86,97,80279
1.8231,0.4203,39.1600,86,97,80282
1.7986,0.4154,39.2500,86,97,80285
1.7742,0.4399,39.1600,86,97,80288
1.8182,0.4399,39.0900,86,97,80292
1.7742,0.4057,39.2200,86,97,80295
1.7693,0.4399,39.2200,86,97,80299
1.7693,0.4106,39.1600,86,97,80302
1.7693,0.4154,39.3200,86,97,80306
1.8328,0.4350,39.0300,86,97,80309
1.8035,0.4252,39.1200,86,97,80312
1.7889,0.4203,39.1200,86,97,80315
1.7937,0.4154,39.1600,86,97,80319
1.8035,0.4154,39.2200,86,97,80322
1.8671,0.4350,39.0600,86,97,80325
1.8231,0.4252,39.1900,86,97,80328
1.8328,0.4154,39.1600,86,97,80332
1.8280,0.4203,39.2500,86,97,80335
1.8231,0.4154,39.2800,86,97,80338
1.9062,0.4399,39.0300,86,97,80342
1.8622,0.4399,39.1200,86,97,80346
1.8573,0.4154,39.1600,86,97,80349
1.8622,0.4203,39.1900,86,97,80352
1.8671,0.4154,39.2200,86,97,80355
1.9257,0.4399,39.0300,86,97,80359
1.9062,0.4350,39.0900,86,97,80362
1.8817,0.4154,39.2200,86,97,80365
1.8866,0.4203,39.2200,86,97,80368
1.8915,0.4106,39.2200,86,97,80372
1.9550,0.4594,39.0000,86,97,80375
1.9062,0.4203,39.2800,86,97,80378
1.9159,0.4203,39.1600,86,97,80381
1.9110,0.4203,39.1900,86,97,80386
1.9013,0.4252,39.2800,86,97,80389
1.9599,0.4399,39.0000,86,97,80392
1.9404,0.4252,39.1900,86,97,80395
1.9013,0.4154,39.1600,86,97,80399
1.8964,0.4154,39.1600,86,97,80402
1.8866,0.4154,39.2200,86,97,80405
1.9404,0.4399,39.0300,86,97,80408
1.9062,0.4301,39.0900,86,97,80412
1.8866,0.4154,39.1600,86,97,80415
1.8964,0.4203,39.1900,86,97,80418
1.8866,0.4203,39.1900,86,97,80421
1.9501,0.4399,39.0000,86,97,80425
1.8964,0.4203,39.0600,86,97,80429
1.9159,0.4154,39.1900,86,97,80432
1.8964,0.4057,39.1900,86,97,80435
1.9013,0.4154,39.1900,86,97,80439
1.9306,0.4643,39.0000,86,97,80442
1.8915,0.4252,39.1200,86,97,80445
1.9013,0.4106,39.1600,86,97,80448
1.8768,0.4252,39.1900,86,97,80452
1.8622,0.4154,39.2500,86,97,80455
1.9208,0.4399,39.3500,86,97,80458
1.8768,0.4252,39.0900,86,97,80461
1.8573,0.4154,39.1600,86,97,80465
1.8573,0.4203,39.1900,86,97,80468
1.8475,0.4252,39.2200,86,97,80472
1.9013,0.4399,38.9600,86,97,80475
1.8475,0.4203,39.2500,86,97,80479
1.8426,0.4154,39.1600,86,97,80482
1.8377,0.4203,39.1900,86,97,80485
1.8426,0.4154,39.1900,86,97,80488
1.9013,0.4643,39.0000,86,97,80492
1.8719,0.4252,39.1600,86,97,80495
1.8719,0.4154,39.1600,86,97,80498
1.8817,0.4203,39.2500,86,97,80501
1.8768,0.4203,39.1900,86,97,80505
1.9404,0.4399,39.1600,86,97,80508
1.8964,0.4252,39.0900,86,97,80512
1.8817,0.4154,39.2200,86,97,80515
1.8866,0.4057,39.2200,86,97,80519
1.8915,0.4448,39.2200,86,97,80522
1.9648,0.4399,39.0000,86,97,80525
1.9306,0.4203,39.1900,86,97,80528
1.9453,0.4106,39.1600,86,97,80532
1.9697,0.4448,39.1600,86,97,80535
1.9697,0.4154,39.2500,86,97,80538
2.0381,0.4399,39.0000,86,97,80541
1.9990,0.4203,39.1900,86,97,80545
1.9892,0.4106,39.1900,86,97,80548
1.9892,0.4203,39.1600,86,97,80551
1.9648,0.4154,39.2200,86,97,80555
2.0235,0.4399,38.9600,86,97,80559
1.9159,0.4154,39.0600,86,97,80562
1.8719,0.4106,39.1900,86,97,80565
1.8475,0.4154,39.1900,86,97,80568
1.8133,0.4252,39.1900,86,97,80572
1.8524,0.4399,38.9600,86,97,80575
1.7889,0.4203,39.1600,86,97,80578
1.7742,0.4106,39.1900,86,97,80581
1.7693,0.4203,39.1900,86,97,80585
1.7546,0.4154,39.2200,86,97,80588
1.7986,0.4448,39.0600,86,97,80591
1.7546,0.4203,39.3800,86,97,80594
1.7449,0.4106,39.2800,86,97,80599
1.7498,0.4203,39.1900,86,97,80602
1.7449,0.4106,39.2800,86,97,80605
1.7937,0.4399,38.9600,86,97,80608
1.7546,0.4252,39.0000,86,97,80612
1.7449,0.3861,39.2500,86,97,80615
1.7595,0.4154,39.1900,86,97,80618
1.7546,0.4154,39.3200,86,97,80621
1.8133,0.4350,39.0000,86,97,80625
1.7742,0.4154,39.1900,86,97,80628
1.7937,0.4154,39.1900,86,97,80631
1.7937,0.4448,39.1900,86,97,80634
1.7840,0.4301,39.1900,86,97,80638
1.8426,0.4350,38.9300,86,97,80642
1.7986,0.4057,39.1600,86,97,80645
1.8035,0.4106,39.1600,86,97,80648
1.8182,0.4350,39.1600,86,97,80652
1.8084,0.4154,39.2200,86,97,80655
1.8719,0.4350,38.9300,86,97,80658
1.8231,0.4154,39.0600,86,97,80662
1.8035,0.4106,39.2200,86,97,80665
1.7791,0.4203,39.1900,86,97,80668
1.7204,0.4154,39.2200,86,97,80671
1.6911,0.4350,38.9000,86,97,80674
1.5787,0.4301,39.1600,86,97,80678
1.5396,0.4154,39.1900,86,97,80681
1.5738,0.4203,39.1900,86,97,80685
1.7204,0.4154,39.3200,86,97,80689
2.0479,0.4399,38.9300,86,97,80692
2.4047,0.4252,39.1200,86,97,80695
2.8641,0.4154,39.2200,86,97,80698
3.3822,0.4203,39.1900,86,97,80702
3.7879,0.4154,39.2200,86,97,80705
3.9932,0.4350,39.0000,86,97,80708
3.7243,0.4203,39.1200,86,97,80711
3.3236,0.4106,39.1900,86,97,80715
2.8837,0.4203,39.1900,86,97,80718
2.4194,0.4448,39.1900,86,97,80721
2.0821,0.4350,38.5200,86,97,80724
1.7204,0.4154,39.2500,86,97,80729
1.5396,0.4106,39.2200,86,97,80732
1.4712,0.4203,39.2500,86,97,80735
1.4565,0.4154,39.2800,86,97,80738
1.5298,0.4350,38.9300,86,97,80742
1.5445,0.4154,39.1200,86,97,80745
1.5787,0.4350,39.2500,86,97,80748
1.6227,0.4252,39.2200,86,97,80751
1.6325,0.4154,39.0900,86,97,80755
1.7058,0.4350,38.9300,86,97,80758
1.7009,0.4252,39.1200,86,97,80761
1.6716,0.4154,39.1900,86,97,80764
1.6862,0.4203,39.3200,86,97,80769
1.6911,0.4154,39.2200,86,97,80772
1.7644,0.4301,38.9300,86,97,80775
1.7155,0.4106,39.1600,86,97,80778
1.7155,0.4154,39.2500,86,97,80782
1.7253,0.4203,39.1600,85,97,80785
1.7546,0.4203,39.2500,85,97,80790
1.7546,0.4154,39.2200,85,97,80793
1.7889,0.4301,39.0300,85,97,80796
1.7595,0.4252,39.1600,85,97,80799
1.7595,0.4252,39.0900,85,97,80803
1.7546,0.4154,39.1900,85,97,80806
1.7644,0.4154,39.1900,85,97,80809
1.7986,0.4301,39.0900,85,97,80813
1.7644,0.4203,39.1900,85,97,80817
1.7840,0.4203,39.1200,85,97,80820
1.7742,0.4154,39.3200,85,97,80823
1.7742,0.4154,39.2200,85,97,80826
1.8182,0.4594,39.0600,85,97,80830
1.7937,0.4203,39.1900,85,97,80833
1.8475,0.4203,39.1200,85,97,80836
1.8084,0.4057,39.1900,85,97,80839
1.8133,0.4154,39.3500,85,97,80843
1.8671,0.4301,39.1600,85,97,80846
1.8475,0.4252,39.2800,85,97,80849
1.8573,0.4203,39.0900,85,97,80852
1.8524,0.4252,39.2200,85,97,80857
1.8671,0.4154,39.2800,85,97,80860
1.9208,0.4301,39.0900,85,97,80863
1.8866,0.4203,39.1900,85,97,80866
1.9062,0.4203,39.1200,85,97,80870
1.9062,0.4154,39.2200,85,97,80873
1.9110,0.4154,39.2200,85,97,80876
1.9648,0.4350,39.1200,85,97,80879
1.9404,0.4350,39.1600,85,97,80883
1.9648,0.4154,39.1900,85,97,80886
1.9648,0.4203,39.0900,85,97,80889
1.9697,0.4106,39.1900,85,97,80892
2.0235,0.4399,39.0600,85,97,80897
1.9990,0.4252,39.1200,85,97,80900
1.9990,0.4203,39.1200,85,97,80903
2.0039,0.4203,39.1900,85,97,80906
2.0039,0.4154,39.1900,85,97,80910
2.0723,0.4350,39.0600,85,97,80913
2.0332,0.4301,39.1600,85,97,80916
2.0479,0.4154,39.3200,85,97,80919
2.0528,0.4203,39.2200,85,97,80922
2.0528,0.4154,39.2200,85,97,80926
2.1212,0.4399,38.9600,85,97,80929
2.0919,0.4252,39.2200,85,97,80932
2.0821,0.4106,39.1600,85,97,80935
2.0821,0.4203,39.1900,85,97,80940
2.0626,0.4154,39.2200,85,97,80943
2.1114,0.4350,39.0300,85,97,80946
2.0430,0.4301,39.1200,85,97,80949
2.0039,0.4154,39.2200,85,97,80953
1.9844,0.4203,39.1900,85,97,80956
1.9550,0.4203,39.3200,85,97,80959
1.9892,0.4399,38.9600,85,97,80962
1.9110,0.4203,39.1900,85,97,80966
1.8964,0.4154,39.1600,85,97,80969
1.8671,0.4252,39.1900,85,97,80972
1.8475,0.4154,39.2200,85,97,80975
1.8817,0.4643,39.0600,85,97,80979
1.8280,0.4252,39.1200,85,97,80983
1.7986,0.4154,39.1900,85,97,80986
1.7986,0.4057,39.2200,85,97,80989
1.7889,0.4106,39.1900,85,97,80993
1.8377,0.4399,39.0000,85,97,80996
1.7937,0.4252,39.0900,85,97,80999
1.7742,0.4154,39.1600,85,97,81002
1.7791,0.4252,39.1900,85,97,81006
1.7840,0.4154,39.2500,85,97,81009
1.8475,0.4399,38.9600,85,97,81012
1.8084,0.4154,39.1600,85,97,81015
1.8084,0.4106,39.1600,85,97,81019
1.8182,0.4203,38.9300,85,97,81022
1.8133,0.4154,39.3500,85,97,81026
1.8817,0.4399,38.9600,85,97,81029
1.8524,0.4203,39.1900,85,97,81033
1.8524,0.4154,39.1900,85,97,81036
1.8719,0.4448,39.2200,85,97,81039
1.8719,0.4203,39.2500,85,97,81042
1.9453,0.4350,39.0000,85,97,81046
1.9013,0.4154,39.0900,85,97,81049
1.8915,0.4106,39.1600,85,97,81052
1.8915,0.4203,39.1900,85,97,81055
1.8964,0.4203,39.1900,85,97,81059
1.9599,0.4497,38.9600,85,97,81062
1.9110,0.4448,39.1200,85,97,81065
1.9159,0.4106,39.1900,85,97,81069
1.9208,0.4203,39.2200,85,97,81073
1.9062,0.4154,39.2200,85,97,81076
1.9550,0.4399,38.9300,85,97,81079
1.9208,0.4203,39.0900,85,97,81082
1.9062,0.4057,39.1900,85,97,81086
1.9208,0.4203,39.1900,85,97,81089
1.8964,0.4203,39.2200,85,97,81092
1.9550,0.4350,38.9300,85,97,81095
1.9062,0.4057,39.0600,85,97,81099
1.8866,0.4154,39.1600,85,97,81102
1.8915,0.4203,39.2200,85,97,81105
1.8866,0.4154,39.2200,85,97,81108
1.9404,0.4350,38.9300,85,97,81113
1.8866,0.4203,39.1600,85,97,81116
1.8915,0.4106,39.1600,85,97,81119
1.9013,0.4252,39.1600,85,97,81122
1.8817,0.4154,39.2200,85,97,81126
1.9697,0.4350,38.9300,85,97,81129
1.9013,0.4252,39.0900,85,97,81132
1.8866,0.4106,39.2200,85,97,81135
1.8915,0.4203,39.1900,85,97,81139
1.8768,0.4203,39.2200,85,97,81142
1.9306,0.4545,38.9300,85,97,81145
1.8768,0.4203,38.5200,85,97,81148
1.8622,0.4154,39.2200,85,97,81153
1.8622,0.4203,39.1900,85,97,81156
1.8573,0.4350,39.1900,85,97,81159
1.9159,0.4350,38.9000,85,97,81162
1.8671,0.4203,39.2500,85,97,81166
1.8671,0.4203,39.1900,85,97,81169
1.8866,0.4203,39.2200,85,97,81172
1.8622,0.4252,39.2800,85,97,81175
1.9110,0.4350,38.8400,85,97,81179
1.8768,0.4203,39.1200,85,97,81182
1.8573,0.4203,39.2200,85,97,81185
1.8671,0.4252,39.1900,85,97,81188
1.8524,0.4643,39.1900,85,97,81192
1.9110,0.4350,39.0000,85,97,81196
1.8768,0.4252,39.0900,85,97,81199
1.8719,0.4203,39.2200,85,97,81202
1.8866,0.4203,39.2500,85,97,81206
1.8866,0.4154,39.2200,85,97,81209
1.9501,0.4350,38.9300,85,97,81212
1.8915,0.4203,39.1600,85,97,81215
1.9013,0.4154,39.2500,85,97,81219
1.9110,0.4203,39.2200,85,97,81222
1.9062,0.4154,39.1900,85,97,81225
1.9795,0.4350,38.9000,85,97,81228
1.9697,0.4301,39.0900,85,97,81232
1.9844,0.4154,39.2200,85,97,81235
2.0235,0.4252,39.1600,85,97,81239
2.0577,0.4203,39.1900,85,97,81242
2.0919,0.4350,38.9300,85,97,81246
2.0479,0.4203,39.1200,85,97,81249
2.0332,0.4057,39.2200,85,97,81252
2.0332,0.4203,39.1900,85,97,81255
2.0088,0.4154,39.2800,85,97,81259
2.0430,0.4252,38.9600,85,97,81262
1.9501,0.4057,39.1900,85,97,81265
1.9257,0.4154,39.1900,85,97,81268
1.9013,0.4203,39.1900,85,97,81272
1.8524,0.4154,39.2200,85,97,81275
1.8866,0.4252,38.9300,85,97,81278
1.8377,0.4154,39.1900,85,97,81282
1.8133,0.4154,38.5800,85,97,81286
1.8280,0.4252,39.1900,85,97,81289
1.7937,0.4154,39.1900,85,97,81292
1.8426,0.4350,38.9300,85,97,81295
1.7889,0.4154,39.1200,85,97,81299
1.7742,0.4154,39.1900,85,97,81302
1.7742,0.4203,39.1900,85,97,81305
1.7693,0.4154,39.1900,85,97,81308
1.8035,0.4594,38.9600,85,97,81312
1.7546,0.4497,39.1600,85,97,81315
1.7546,0.4154,39.2500,85,97,81318
1.7644,0.4252,39.1600,85,97,81321
1.7498,0.4154,39.1900,85,97,81326
1.7889,0.4301,38.9600,85,97,81329
1.7644,0.4252,39.0900,85,97,81332
1.7595,0.4154,39.2800,85,97,81335
1.7742,0.4252,39.1600,85,97,81339
1.7498,0.4057,39.2200,85,97,81342
1.7937,0.4301,39.0600,85,97,81345
1.7498,0.4203,39.1200,85,97,81349
1.7400,0.4154,39.1900,85,97,81352
1.7498,0.4203,39.1900,85,97,81355
1.7449,0.4106,39.2500,85,97,81358
1.7937,0.4301,39.2200,85,97,81361
1.7498,0.4154,39.3500,85,97,81366
1.7351,0.4154,39.2200,85,97,81369
1.7204,0.4203,39.1600,85,97,81372
1.6422,0.4154,39.2200,85,97,81376
1.6080,0.4301,38.9300,85,97,81379
1.5103,0.4252,38.5500,85,97,81382
1.4467,0.4154,39.1900,85,97,81385
1.4663,0.4252,39.1600,85,97,81389
1.5640,0.4106,39.2200,85,97,81392
1.8622,0.4301,38.9000,85,97,81395
3.8807,0.4350,39.0600,85,97,81400
3.6119,0.4203,39.2200,85,97,81403
3.2454,0.4154,39.1600,85,97,81406
2.8152,0.4203,39.1900,85,97,81410
2.2972,0.4106,39.2200,85,97,81414
1.9306,0.4399,39.0300,85,97,81417
1.5640,0.4252,39.1600,85,97,81420
1.3636,0.4106,39.1600,85,97,81423
1.2805,0.4154,39.1900,85,97,81427
1.2757,0.4448,39.2500,85,97,81430
1.3490,0.4399,39.0300,85,97,81433
1.3636,0.4252,39.1200,85,97,81436
1.3978,0.4154,39.2200,85,97,81440
1.4418,0.4203,39.2200,85,97,81443
1.4614,0.4154,39.1900,85,97,81446
1.5347,0.4399,39.0300,85,97,81449
1.5005,0.4203,39.1600,85,97,81454
1.5445,0.4203,39.1900,85,97,81457
1.5347,0.4203,39.1900,85,97,81460
1.5396,0.4154,39.0900,85,97,81463
1.6080,0.4399,39.0300,85,97,81467
1.5836,0.4252,39.1900,85,97,81470
1.5934,0.4497,39.1600,85,97,81473
1.6031,0.4106,39.1900,85,97,81476
1.6080,0.4154,39.2200,85,97,81480
1.6667,0.4252,39.0300,85,97,81483
1.6422,0.4301,39.1900,85,97,81486
1.6373,0.4154,39.1200,85,97,81489
1.6520,0.4203,39.1600,85,97,81494
1.6618,0.4154,39.2200,85,97,81497
1.7546,0.4399,39.0300,85,97,81500
1.6813,0.4301,39.1900,85,97,81503
1.6862,0.4154,39.1600,85,97,81507
1.6960,0.4203,39.1600,85,97,81510
1.6911,0.4154,39.2200,85,97,81513
1.7546,0.4252,39.0300,85,97,81517
1.7204,0.4106,39.1200,85,97,81520
1.7204,0.4154,39.1600,85,97,81523
1.7302,0.4203,39.1900,85,97,81526
1.7253,0.4154,39.2500,85,97,81530
1.7889,0.4350,39.0300,85,97,81533
1.7546,0.4301,39.1200,85,97,81537
1.7498,0.4154,39.2200,85,97,81540
1.7595,0.4203,39.2200,85,97,81544
1.7791,0.4154,39.1900,85,97,81547
1.8280,0.4350,39.0600,85,97,81550
1.7840,0.4203,39.2200,85,97,81553
1.7937,0.4154,39.1600,85,97,81557
1.7986,0.4203,39.1900,85,97,81560
1.8035,0.4154,39.2200,85,97,81563
1.8768,0.4350,39.0000,85,97,81566
1.8377,0.4203,39.2200,85,97,81570
1.8475,0.4154,39.1600,85,97,81573
1.8622,0.4203,39.1600,85,97,81576
1.8622,0.4057,39.2200,85,97,81580
1.9306,0.4399,39.0300,85,97,81584
1.8964,0.4643,39.0900,85,97,81587
1.8866,0.4154,39.1600,85,97,81590
1.8964,0.4154,39.1900,85,97,81593
1.9062,0.4203,39.2200,85,97,81597
1.9795,0.4448,38.9600,85,97,81600
1.9355,0.4203,39.3200,85,97,81603
1.9501,0.4154,39.1600,85,97,81606
1.9648,0.4057,39.2800,85,97,81610
1.9844,0.4203,39.2200,85,97,81613
2.0235,0.4399,39.0600,85,97,81616
1.9892,0.4252,39.2200,85,97,81619
2.0186,0.4106,39.1600,85,97,81624
2.0381,0.4203,39.2800,85,97,81627
1.9990,0.4154,39.0600,85,97,81630
2.0674,0.4399,38.9600,85,97,81633
2.0479,0.4057,39.0900,85,97,81637
1.9892,0.4106,39.1600,85,97,81640
1.9844,0.4203,39.1900,85,97,81643
1.9795,0.4057,39.2200,85,97,81646
2.0186,0.4643,39.0000,85,97,81650
1.9453,0.4203,39.1900,85,97,81653
1.9208,0.4154,39.1900,85,97,81656
1.8964,0.4203,39.1900,85,97,81659
1.8768,0.4154,39.1900,85,97,81664
1.8866,0.4643,39.0000,85,97,81667
1.8328,0.4252,39.1200,85,97,81670
1.7937,0.4057,39.2800,85,97,81673
1.7693,0.4203,39.1900,85,97,81677
1.7400,0.4203,39.1900,85,97,81680
1.7693,0.4399,38.9600,85,97,81683
1.7155,0.4252,39.0900,85,97,81686
1.6813,0.4106,39.1900,85,97,81690
1.6716,0.4448,39.2200,85,97,81693
1.6569,0.4154,39.1900,85,97,81696
1.7009,0.4448,38.9600,85,97,81699
1.6471,0.4203,39.1600,85,97,81703
1.6471,0.4106,39.1900,85,97,81707
1.6471,0.4154,39.1600,85,97,81710
1.6325,0.4203,39.2500,85,97,81713
1.6764,0.4399,39.0000,85,97,81717
1.6422,0.4252,39.0900,85,97,81720
1.6373,0.4106,39.1600,85,97,81723
1.6471,0.4252,39.1600,85,97,81726
1.6373,0.4154,39.3800,85,97,81730
1.6911,0.4448,38.9600,85,97,81733
1.6520,0.4203,39.0900,85,97,81736
1.6422,0.4106,39.2200,85,97,81739
1.6471,0.4399,39.1900,85,97,81743
1.6373,0.4154,39.2800,85,97,81746
1.6960,0.4399,38.9600,85,97,81750
1.6569,0.4203,39.1600,85,97,81753
1.6716,0.4106,39.1900,85,97,81757
1.6569,0.4154,39.1600,85,97,81760
1.6373,0.4448,39.2500,85,97,81763
1.6862,0.4448,38.9600,85,97,81766
1.6520,0.4252,39.1200,85,97,81770
1.6325,0.4057,39.1900,85,97,81773
1.6520,0.4203,39.1900,85,97,81776
1.6422,0.4203,39.1900,85,97,81779
1.6911,0.4448,39.0000,85,97,81783
1.6569,0.4252,39.0900,85,97,81786
1.6471,0.4106,39.1600,85,97,81789
1.6667,0.4203,39.1900,85,97,81793
1.6569,0.4252,39.2500,85,97,81797
1.7107,0.4448,39.0300,85,97,81800
1.6618,0.4203,39.1600,85,97,81803
1.6862,0.4106,39.1900,85,97,81806
1.6716,0.4154,39.1600,85,97,81810
1.6764,0.4154,39.2200,85,97,81813
1.7058,0.4448,39.1200,85,97,81816
1.6716,0.4252,39.1200,85,97,81819
1.6618,0.4106,39.1900,85,97,81823
1.6716,0.4252,39.1900,85,97,81826
1.6618,0.4203,39.2200,85,97,81829
1.7155,0.4399,38.9600,85,97,81832
1.6813,0.4252,39.0600,85,97,81837
1.6716,0.4154,39.1900,85,97,81840
1.6813,0.4203,39.1900,85,97,81843
1.6716,0.4203,39.2800,85,97,81846
1.7351,0.4448,38.9600,85,97,81850
1.6960,0.4350,39.1200,85,97,81853
1.6911,0.4154,39.1900,85,97,81856
1.7058,0.4203,39.1900,85,97,81859
1.6862,0.4203,39.2200,85,97,81863
1.7449,0.4350,39.0000,85,97,81866
1.7107,0.4252,39.1600,85,97,81869
1.6960,0.4154,39.1600,85,97,81873
1.7009,0.4203,39.1900,85,97,81876
1.7107,0.4154,39.2800,85,97,81880
1.7400,0.4594,39.0000,85,97,81883
1.7009,0.4252,39.1200,85,97,81887
1.6862,0.4154,39.1900,85,97,81890
1.7204,0.4252,39.0600,85,97,81893
1.6862,0.4154,39.2200,85,97,81896
1.7449,0.4448,38.9600,85,97,81900
1.7155,0.4203,39.1200,85,97,81903
1.7107,0.4154,39.1900,85,97,81906
1.7155,0.4154,39.1900,85,97,81909
1.7009,0.4057,39.2200,85,97,81913
1.7595,0.4448,39.1900,85,97,81916
1.7302,0.4252,39.1200,85,97,81920
1.7204,0.4154,39.1600,85,97,81923
1.7302,0.4203,39.1600,85,97,81927
1.7253,0.4203,39.1900,85,97,81930
1.7986,0.4399,39.0300,85,97,81933
1.7791,0.4252,39.0900,85,97,81936
1.7889,0.4154,39.2500,85,97,81940
1.8133,0.4203,39.1600,85,97,81943
1.8182,0.4154,39.2800,85,97,81946
1.8817,0.4448,38.9600,85,97,81949
1.8475,0.4203,39.0900,85,97,81953
1.8426,0.4252,39.1600,85,97,81956
1.8377,0.4203,39.1600,85,97,81959
1.8084,0.4203,39.2500,85,97,81963
1.8377,0.4448,38.9600,85,97,81967
1.7644,0.4252,39.0900,85,97,81970
1.7204,0.4106,39.2200,85,97,81973
1.6911,0.4203,39.1200,85,97,81976
1.6520,0.4154,39.2500,85,97,81980
1.6862,0.4448,38.9600,85,97,81983
1.6373,0.4252,39.0600,85,97,81986
1.6031,0.4154,39.1600,85,97,81989
1.6031,0.4203,39.3500,85,97,81993
1.5836,0.4203,39.2200,85,97,81996
1.6227,0.4350,38.9600,85,97,81999
1.5836,0.4154,39.0600,85,97,82002
1.5738,0.4154,39.3200,85,97,82007
1.5738,0.4203,39.1900,85,98,82010
1.5396,0.4203,39.1900,85,98,82015
1.5347,0.4203,39.1200,85,98,82018
1.5640,0.4301,39.0000,85,98,82021
1.5298,0.4252,39.1900,85,98,82024
1.5396,0.4203,39.0900,85,98,82028
1.5298,0.4203,39.2500,85,98,82031
1.5298,0.4154,39.2800,85,98,82034
1.5689,0.4301,39.0600,85,98,82037
1.5494,0.4252,39.3200,85,98,82040
1.5640,0.4203,39.1200,85,98,82044
1.5543,0.4203,39.2200,85,98,82048
1.5591,0.4203,39.1900,85,98,82051
1.6129,0.4350,39.1600,85,98,82054
1.5885,0.4203,39.2800,85,98,82058
1.5885,0.4203,39.0900,85,98,82061
1.5494,0.4106,39.1900,85,98,82064
1.4858,0.4154,38.6200,85,98,82067
1.4565,0.4350,39.0600,85,98,82071
1.3539,0.4252,39.1600,85,98,82074
1.3148,0.4106,39.1200,85,98,82077
1.3343,0.4203,39.1600,85,98,82080
1.4858,0.4154,39.2200,85,98,82084
1.8182,0.4350,39.1200,85,98,82087
2.2043,0.4057,39.1200,85,98,82091
2.6686,0.4203,39.1200,85,98,82094
3.1476,0.4203,39.2200,85,98,82098
3.5239,0.4154,39.2200,85,98,82101
3.6999,0.4448,39.0600,85,98,82104
3.4457,0.4252,39.1900,85,98,82107
3.0792,0.4154,39.1200,85,98,82111
2.6295,0.4203,39.1900,85,98,82114
2.1652,0.4154,39.3200,85,98,82117
1.8133,0.4350,39.0000,85,98,82120
1.4809,0.4252,39.1600,85,98,82124
1.2854,0.4545,39.1600,85,98,82127
1.2219,0.4203,39.1900,85,98,82130
1.2170,0.4154,39.2200,85,98,82134
1.2854,0.4350,39.0600,85,98,82138
1.3001,0.4252,39.1600,85,98,82141
1.3294,0.4154,39.1200,85,98,82144
1.3587,0.4203,39.1900,85,98,82147
1.3734,0.4203,39.2200,85,98,82151
1.4418,0.4399,39.0600,85,98,82154
1.4223,0.4252,39.1600,85,98,82157
1.4321,0.4203,39.1900,85,98,82160
1.4418,0.4203,39.3500,85,98,82164
1.4467,0.4154,39.1900,85,98,82167
1.4907,0.4350,39.0300,85,98,82170
1.4712,0.4252,39.1600,85,98,82173
1.4614,0.4154,38.8700,85,98,82178
1.4614,0.4203,39.2200,85,98,82181
1.4712,0.4203,39.2200,85,98,82184
1.5200,0.4643,39.0300,85,98,82187
1.4907,0.4252,39.1600,85,98,82191
1.4858,0.4154,39.1600,85,98,82194
1.4907,0.4203,39.1900,85,98,82197
1.4956,0.4154,39.2500,85,98,82200
1.5494,0.4399,39.0300,85,98,82204
1.5103,0.4252,39.2200,85,98,82207
1.5200,0.4203,39.1900,85,98,82210
1.5249,0.4350,39.1600,85,98,82213
1.5200,0.4203,39.2200,85,98,82217
1.6080,0.4399,39.0300,85,98,82221
1.5494,0.4350,39.1200,85,98,82224
1.5396,0.4154,39.1900,85,98,82227
1.5543,0.4203,39.1900,85,98,82231
1.5543,0.4203,39.2200,85,98,82234
1.6080,0.4399,39.0000,85,98,82237
1.5787,0.4301,39.0900,85,98,82240
1.5738,0.4154,39.1600,85,98,82244
1.5836,0.4203,39.1900,85,98,82247
1.5787,0.4106,39.2500,85,98,82250
1.6373,0.4448,38.9300,85,98,82253
1.6031,0.4252,39.1900,85,98,82257
1.6178,0.4106,39.1900,85,98,82260
1.6178,0.4252,39.1900,85,98,82264
1.6178,0.4154,39.1200,85,98,82267
1.6764,0.4448,39.0000,85,98,82271
1.6520,0.4252,39.1200,85,98,82274
1.6422,0.4154,39.1600,85,98,82277
1.6618,0.4203,39.1900,85,98,82280
1.6569,0.4154,39.3200,85,98,82284
1.7155,0.4448,38.9600,85,98,82287
1.6862,0.4252,39.0900,85,98,82290
1.6862,0.4154,39.1900,85,98,82293
1.7009,0.4203,39.1900,85,98,82297
1.7009,0.4203,39.2200,85,98,82300
1.7595,0.4448,39.0600,85,98,82304
1.7351,0.4252,39.1600,85,98,82307
1.7351,0.4154,39.1900,85,98,82311
1.7449,0.4252,39.1900,85,98,82314
1.7400,0.4154,39.2200,85,98,82317
1.7986,0.4448,38.9600,85,98,82320
1.7644,0.4252,39.0300,85,98,82324
1.7595,0.4154,39.1900,85,98,82327
1.7742,0.4057,39.1900,85,98,82330
1.7693,0.4399,39.2800,85,98,82333
1.8280,0.4448,38.9600,85,98,82337
1.7889,0.4203,39.0900,85,98,82340
1.7986,0.4106,39.1600,85,98,82343
1.7742,0.4203,39.1900,85,98,82347
1.7546,0.4203,39.2200,85,98,82351
1.7937,0.4448,38.9600,85,98,82354
1.7400,0.4252,39.1900,85,98,82357
1.7058,0.4154,39.2500,85,98,82360
1.6960,0.4252,39.2500,85,98,82364
1.6667,0.4154,39.1900,85,98,82367
1.6862,0.4399,38.9300,85,98,82370
1.6227,0.4252,39.0600,85,98,82373
1.5982,0.4154,39.2200,85,98,82377
1.5885,0.4252,39.1200,85,98,82380
1.5689,0.4154,39.2200,85,98,82383
1.6031,0.4350,39.0300,85,98,82386
1.5640,0.4301,39.1900,85,98,82391
1.5543,0.4154,39.1900,85,98,82394
1.5591,0.4252,39.1900,85,98,82397
1.5445,0.4154,39.2200,85,98,82400
1.6276,0.4399,38.9300,85,98,82404
1.5689,0.4399,39.0900,85,98,82407
1.5591,0.4154,39.2200,85,98,82410
1.5689,0.4252,39.1900,85,98,82413
1.5494,0.4154,39.1900,85,98,82417
1.6080,0.4350,38.9000,85,98,82420
1.5738,0.4203,39.0600,85,98,82423
1.5982,0.4106,39.1900,85,98,82426
1.5934,0.4594,39.1600,85,98,82430
1.5885,0.4203,39.2500,85,98,82434
1.6471,0.4350,38.9300,85,98,82437
1.6129,0.4203,39.0900,85,98,82440
1.6178,0.4252,39.1900,85,98,82444
1.6325,0.4497,39.1200,85,98,82447
1.6276,0.4203,39.3500,85,98,82450
1.6911,0.4350,38.9300,85,98,82453
1.6960,0.4154,39.0900,85,98,82457
1.6667,0.4154,39.1900,85,98,82460
1.6911,0.4252,39.0300,85,98,82463
1.6813,0.4154,39.1900,85,98,82466
1.7400,0.4350,38.9300,85,98,82470
1.7058,0.4203,39.1200,85,98,82473
1.7058,0.4154,39.2200,85,98,82477
1.7253,0.4252,39.1600,85,98,82480
1.7058,0.4057,39.1900,85,98,82484
1.7693,0.4399,38.9300,85,98,82487
1.7302,0.4203,39.1200,85,98,82490
1.7302,0.4154,39.2200,85,98,82493
1.7449,0.4252,39.1900,85,98,82497
1.7644,0.4203,39.1900,85,98,82500
1.7889,0.4545,38.9300,85,98,82503
1.7595,0.4252,39.1200,85,98,82506
1.7498,0.4154,39.2200,85,98,82510
1.7644,0.4252,39.1900,85,98,82513
1.7498,0.4203,39.3200,85,98,82516
1.7937,0.4594,38.9000,85,98,82520
1.7546,0.4203,39.1200,85,98,82524
1.7449,0.4154,39.1900,85,98,82527
1.7644,0.4301,39.1900,85,98,82530
1.7449,0.4252,39.2200,85,98,82533
1.7937,0.4350,38.7100,85,98,82537
1.7449,0.4203,39.1200,85,98,82540
1.7400,0.4154,39.2800,85,98,82543
1.7449,0.4203,39.1900,85,98,82546
1.7253,0.4203,39.2500,85,98,82550
1.7693,0.4350,39.0000,85,98,82553
1.7351,0.4057,39.1900,85,98,82556
1.7155,0.4154,39.1900,85,98,82560
1.7302,0.4203,39.1600,85,98,82564
1.7155,0.4203,39.2200,85,98,82567
1.7693,0.4350,38.9600,85,98,82570
1.7253,0.4154,39.1200,85,98,82573
1.7253,0.4154,39.1900,85,98,82577
1.7449,0.4252,39.0300,85,98,82580
1.7302,0.4154,39.2200,85,98,82583
1.7791,0.4350,38.9600,85,98,82586
1.7302,0.4399,39.1200,85,98,82590
1.7253,0.4154,39.2500,85,98,82593
1.7351,0.4252,39.1900,85,98,82596
1.7204,0.4203,39.1900,85,98,82599
1.7644,0.4594,38.9600,85,98,82604
1.7449,0.4252,39.2200,85,98,82607
1.7400,0.4154,39.2200,85,98,82610
1.7644,0.4252,39.1600,85,98,82613
1.7546,0.4203,39.2200,85,98,82617
1.8133,0.4350,38.9000,85,98,82620
1.8426,0.4350,39.0600,85,98,82625
1.8084,0.4301,39.1600,85,98,82628
1.8035,0.4154,39.1600,85,98,82631
1.8133,0.4203,39.1900,85,98,82634
1.8231,0.4203,39.2200,85,98,82638
1.8964,0.4399,39.0600,85,98,82641
1.8768,0.4252,39.1600,85,98,82644
1.8817,0.4154,39.1600,85,98,82648
1.8915,0.4203,39.2800,85,98,82652
1.8964,0.4057,39.1900,85,98,82655
1.9550,0.4448,39.0000,85,98,82658
1.9159,0.4252,39.1600,85,98,82661
1.8866,0.4154,39.1600,85,98,82665
1.8671,0.4203,39.1900,85,98,82668
1.8280,0.4057,39.2200,85,98,82671
1.8573,0.4448,39.0300,85,98,82674
1.7937,0.4252,39.1600,85,98,82678
1.7595,0.4154,39.1600,85,98,82681
1.7449,0.4203,39.1900,85,98,82684
1.7253,0.4154,39.2200,85,98,82688
1.7742,0.4350,39.0600,85,98,82692
1.7351,0.4252,39.0600,85,98,82695
1.7253,0.4154,39.2500,85,98,82698
1.7302,0.4203,39.2500,85,98,82701
1.7155,0.4203,39.2200,85,98,82705
1.7693,0.4399,39.0300,85,98,82708
1.7351,0.4252,39.0900,85,98,82711
1.7253,0.4154,39.1600,85,98,82714
1.7253,0.4203,39.1900,85,98,82718
1.7253,0.4252,39.2200,85,98,82721
1.7791,0.4399,39.0000,85,98,82724
1.7400,0.4252,39.1200,85,98,82727
1.7302,0.4057,39.1600,85,98,82732
1.7351,0.4203,39.3200,85,98,82735
1.7351,0.4203,39.2500,85,98,82738
1.7937,0.4399,39.0000,85,98,82741
1.7595,0.4252,39.1600,85,98,82745
1.7546,0.4154,39.1600,85,98,82748
1.7889,0.4154,39.1900,85,98,82751
1.7595,0.4203,39.1600,85,98,82754
1.8231,0.4448,39.0600,85,98,82758
1.7889,0.4301,39.1200,85,98,82761
1.7791,0.4057,39.1600,85,98,82764
1.7840,0.4252,39.2200,85,98,82767
1.7742,0.4154,39.2500,85,98,82771
1.8084,0.4448,39.0900,85,98,82775
1.7204,0.4301,39.1900,85,98,82778
1.6325,0.4154,39.1600,85,98,82781
1.5591,0.4203,39.2800,85,98,82785
1.4956,0.4154,39.1900,85,98,82788
1.5396,0.4448,39.0000,85,98,82791
1.6080,0.4203,39.3200,85,98,82794
1.8377,0.4154,39.1600,85,98,82798
2.1945,0.4203,39.1900,85,98,82801
2.6246,0.4203,39.1900,85,98,82804
3.2209,0.4448,39.0300,85,98,82807
3.6266,0.4252,39.0900,85,98,82811
3.8270,0.4154,39.1600,85,98,82814
3.7537,0.4252,39.1900,85,98,82818
3.4311,0.4203,39.3200,85,98,82821
3.1085,0.4448,39.0000,85,98,82825
2.5806,0.4252,39.0900,85,98,82828
2.1310,0.4252,39.3200,85,98,82831
1.7742,0.4203,39.2200,85,98,82834
1.5200,0.4203,39.1900,85,98,82838
1.4761,0.4448,39.0000,85,98,82841
1.3930,0.4252,39.0900,85,98,82844
1.4174,0.4154,39.2200,85,98,82847
1.4614,0.4252,39.1900,85,98,82851
1.5103,0.4057,39.2200,85,98,82854
1.5934,0.4399,39.0000,85,98,82857
1.5982,0.4252,39.0300,85,98,82861
1.6129,0.4154,39.1900,85,98,82865
1.6422,0.4057,39.1900,85,98,82868
1.6520,0.4203,39.1900,85,98,82871
1.7155,0.4399,38.9300,85,98,82874
1.6911,0.4203,39.0900,85,98,82878
1.6960,0.4154,39.2200,85,98,82881
1.7058,0.4497,39.1600,85,98,82884
1.7107,0.4154,39.2200,85,98,82887
1.7693,0.4399,38.9600,85,98,82891
1.7693,0.4252,39.1600,85,98,82894
1.7449,0.4154,39.2200,85,98,82897
1.7644,0.4301,39.1600,85,98,82900
1.7595,0.4154,39.2200,85,98,82905
1.8231,0.4399,38.9600,85,98,82908
1.7937,0.4252,39.0600,85,98,82911
1.7889,0.4154,39.1900,85,98,82914
1.8084,0.4252,39.1600,85,98,82918
1.7986,0.4154,39.2200,85,98,82921
1.8622,0.4399,38.9300,85,98,82924
1.8231,0.4203,39.0600,85,98,82927
1.8231,0.4106,39.1900,85,98,82931
1.8377,0.4203,39.3200,85,98,82934
1.8377,0.4154,39.1900,85,98,82937
1.9013,0.4399,38.9300,85,98,82940
1.8622,0.4154,39.1200,85,98,82945
1.8524,0.4154,39.2500,85,98,82948
1.8622,0.4106,39.1900,85,98,82951
1.8524,0.4154,39.0600,85,98,82954
1.9062,0.4399,38.9600,85,98,82958
1.8719,0.4252,39.0600,85,98,82961
1.8671,0.4154,39.1900,85,98,82964
1.8817,0.4252,39.2800,85,98,82967
1.8768,0.4203,39.1900,85,98,82971
1.9306,0.4448,38.9300,85,98,82974
1.8866,0.4154,39.0600,85,98,82977
1.8817,0.4154,39.2800,85,98,82980
1.8915,0.4203,39.1900,85,98,82984
1.8915,0.4203,39.2200,85,98,82988
1.9501,0.4399,38.9300,85,98,82991
1.9159,0.4252,39.1600,85,98,82994
1.9110,0.4154,39.2200,85,98,82998
1.9355,0.4252,39.1900,85,98,83001
1.9306,0.4057,39.2200,85,98,83004
1.9990,0.4643,38.9300,85,98,83008
1.9697,0.4252,39.0600,85,98,83011
1.9697,0.4154,39.1900,85,98,83014
1.9941,0.4252,39.2800,85,98,83017
1.9844,0.4154,39.2200,85,98,83021
2.0577,0.4350,39.0000,85,98,83024
2.0235,0.4203,39.1200,85,98,83027
2.0283,0.4106,39.2200,85,98,83031
2.0381,0.4203,39.1200,85,98,83034
2.0381,0.4203,39.2200,85,98,83038
2.1114,0.4252,38.9300,85,98,83041
2.0674,0.4203,39.0900,85,98,83044
2.0479,0.4154,39.2200,85,98,83047
2.0626,0.4252,39.1600,85,98,83051
2.0430,0.4203,39.2200,85,98,83054
2.0968,0.4350,39.0600,85,98,83057
2.0430,0.4203,39.0900,85,98,83060
2.0283,0.4154,39.0900,85,98,83064
2.0381,0.4057,39.1600,85,98,83067
1.9941,0.4154,39.1900,85,98,83070
2.0283,0.4350,39.0300,85,98,83074
1.9501,0.4154,39.1200,85,98,83078
1.9159,0.4154,39.2200,85,98,83081
1.9208,0.4301,39.1600,85,98,83084
1.8719,0.4203,39.1900,85,98,83087
1.8964,0.4350,38.9600,85,98,83091
1.8524,0.4252,39.2200,85,98,83094
1.8231,0.4154,39.1900,85,98,83097
1.8280,0.4252,39.1600,85,98,83100
1.8231,0.4154,39.2200,85,98,83104
1.8280,0.4350,38.9600,85,98,83107
1.7840,0.4154,39.2500,85,98,83110
1.7742,0.4154,39.2200,85,98,83113
1.7937,0.4252,39.1600,85,98,83118
1.7693,0.4203,39.1900,85,98,83121
1.8231,0.4350,39.0000,85,98,83124
1.7840,0.4154,39.1600,85,98,83127
1.7986,0.4154,39.2200,85,98,83131
1.8231,0.4057,39.1900,85,98,83134
1.8133,0.4154,39.2200,85,98,83137
1.8671,0.4350,38.9600,85,98,83140
1.8475,0.4252,39.1200,85,98,83144
1.8475,0.4154,39.2200,85,98,83147
1.8768,0.4252,39.1600,85,98,83150
1.8622,0.4154,39.3200,85,98,83153
1.9257,0.4399,39.0300,85,98,83158
1.8866,0.4301,39.1200,85,98,83161
1.8915,0.4154,39.3500,85,98,83164
1.9159,0.4252,39.1600,85,98,83168
1.9013,0.4154,39.1900,85,98,83171
1.9550,0.4399,38.9600,85,98,83174
1.9159,0.4203,39.1600,85,98,83177
1.9110,0.4154,39.1900,85,98,83181
1.9355,0.4252,39.1600,85,98,83184
1.9110,0.4154,39.2800,85,98,83187
1.9697,0.4350,38.9600,85,98,83190
1.9355,0.4203,39.1200,85,98,83194
1.9306,0.4154,38.8700,85,98,83197
1.9501,0.4252,39.1200,85,98,83201
1.9355,0.4154,39.2200,85,98,83204
2.0137,0.4301,38.9300,85,98,83208
1.9404,0.4301,39.1200,85,98,83211
1.9404,0.4154,39.2200,85,98,83214
1.9599,0.4252,39.1200,85,98,83217
1.9648,0.4154,39.2200,85,98,83221
1.9941,0.4301,38.9600,85,98,83224
1.9453,0.4203,39.1200,85,98,83227
1.9453,0.4154,39.2200,85,98,83230
1.9550,0.4252,39.1600,85,98,83234
1.9208,0.4203,39.0900,85,98,83238
1.9110,0.4154,39.1900,85,98,83241
1.9550,0.4252,39.0300,85,98,83246
1.9062,0.4252,39.1200,85,98,83249
1.8768,0.4252,39.1600,85,98,83252
1.8671,0.4203,39.1900,85,98,83255
1.8524,0.4154,39.2200,85,98,83259
1.9110,0.4399,39.0300,85,98,83262
1.8817,0.4399,39.1900,85,98,83265
1.8768,0.4154,39.1200,85,98,83268
1.8817,0.4203,39.2200,85,98,83272
1.8817,0.4203,39.2200,85,98,83275
1.9404,0.4350,39.0300,85,98,83278
1.9013,0.4252,39.1600,85,98,83281
1.8964,0.4154,39.1600,85,98,83286
1.9013,0.4203,39.1900,85,98,83289
1.8915,0.4203,39.2200,85,98,83292
1.9599,0.4399,39.0300,85,98,83295
1.9159,0.4252,39.3800,85,98,83299
1.9013,0.4154,39.1600,85,98,83302
1.9159,0.4203,39.2200,85,98,83305
1.9062,0.4154,39.2800,85,98,83308
1.9746,0.4399,39.0300,85,98,83312
1.9306,0.4252,39.1200,85,98,83315
1.9159,0.4106,39.2500,85,98,83318
1.9159,0.4154,39.1900,85,98,83321
1.9110,0.4154,39.3500,85,98,83325
1.9844,0.4399,39.0300,85,98,83329
1.9697,0.4252,39.1600,85,98,83332
1.9501,0.4399,39.1600,85,98,83335
1.9599,0.4203,39.2500,85,98,83339
1.9599,0.4154,39.1200,85,98,83342
2.0235,0.4399,39.0300,85,98,83345
1.9844,0.4252,39.0900,85,98,83349
1.9648,0.4154,39.1600,85,98,83352
1.9746,0.4203,39.2500,85,98,83355
1.9795,0.4154,39.1900,85,98,83358
2.0479,0.4399,39.0000,85,98,83361
2.0283,0.4252,39.0900,85,98,83365
2.0381,0.4154,39.1900,85,98,83368
2.0577,0.4203,39.1900,85,98,83372
2.0674,0.4154,39.1600,85,98,83375
2.1408,0.4448,39.0000,85,98,83379
2.1017,0.4301,39.1200,85,98,83382
2.0968,0.4154,39.3500,85,98,83385
2.0968,0.4252,39.1900,85,98,83388
2.0723,0.4203,39.2200,85,98,83392
2.1065,0.4399,38.9300,85,98,83395
2.0283,0.4203,39.0900,85,98,83398
1.9795,0.4106,39.1900,85,98,83401
1.9599,0.4154,39.1200,85,98,83405
1.9159,0.4154,39.1900,85,98,83408
1.9404,0.4350,38.9300,85,98,83411
1.8768,0.4057,39.0900,85,98,83415
1.8524,0.4154,39.2500,85,98,83419
1.8573,0.4203,39.1900,85,98,83422
1.8426,0.4154,39.2200,85,98,83425
1.8964,0.4350,38.9300,85,98,83428
1.8622,0.4301,39.1200,85,98,83432
1.8475,0.4154,39.1600,85,98,83435
1.8573,0.4545,39.1600,85,98,83438
1.8426,0.4154,39.1900,85,98,83441
1.8915,0.4350,38.9300,85,98,83445
1.8475,0.4203,39.0600,85,98,83448
1.8377,0.4252,39.2800,85,98,83451
1.8524,0.4252,39.3500,85,98,83454
1.8377,0.4154,39.2800,85,98,83459
1.9013,0.4350,38.9300,85,98,83462
1.8817,0.4154,39.0900,85,98,83465
1.8475,0.4154,39.2800,85,98,83468
1.8524,0.4203,39.1900,85,98,83472
1.8426,0.4154,39.2200,85,98,83475
1.9306,0.4399,38.8400,85,98,83478
1.8622,0.4203,39.0900,85,98,83481
1.8475,0.4154,39.2200,85,98,83485
1.8719,0.4301,39.1600,85,98,83488
1.8817,0.4203,39.2200,85,98,83491
1.9110,0.4350,39.1900,85,98,83494
1.8671,0.4203,38.8400,85,98,83499
1.8524,0.4154,39.2200,85,98,83502
1.8426,0.4252,39.1900,85,98,83505
1.7644,0.4350,39.1900,85,98,83508
1.7351,0.4350,38.9300,85,98,83512
1.6178,0.4203,39.1200,85,98,83515
1.5543,0.4154,39.2500,85,98,83518
1.5689,0.4203,39.1900,85,98,83521
1.6813,0.4301,39.2500,85,98,83525
1.9990,0.4350,38.9600,85,98,83528
2.3412,0.4252,39.1200,85,98,83531
2.7761,0.4154,39.1900,85,98,83534
3.3138,0.4252,39.1200,85,98,83538
3.7292,0.4154,39.1900,85,98,83542
4.0225,0.4252,38.9600,85,98,83545
3.8416,0.4154,39.0900,85,98,83548
3.4409,0.4154,39.3500,85,98,83552
3.0254,0.4203,39.1900,85,98,83555
2.5464,0.4203,39.2200,85,98,83558
2.1799,0.4350,39.1600,85,98,83561
1.7889,0.4203,39.1900,85,98,83565
1.5689,0.4154,39.2200,85,98,83568
1.4907,0.4252,39.1900,85,98,83571
1.4516,0.4154,39.2200,85,98,83574
1.5152,0.4545,38.9300,85,98,83578
1.5298,0.4252,39.0300,85,98,83581
1.5689,0.4154,39.2200,85,98,83585
1.6227,0.4252,39.1600,85,98,83588
1.6520,0.4154,39.2200,85,98,83592
1.7009,0.4594,39.0000,85,98,83595
1.6813,0.4203,39.1200,85,98,83598
1.6960,0.4203,39.1900,85,98,83601
1.7155,0.4203,39.1900,85,98,83605
1.7155,0.4154,39.0900,85,98,83608
1.7791,0.4350,38.9600,85,98,83611
1.7449,0.4203,39.1600,85,98,83614
1.7595,0.4203,39.2200,85,98,83618
1.7840,0.4252,39.2200,85,98,83621
1.7840,0.4154,39.2800,85,98,83624
1.8377,0.4350,38.9600,85,98,83628
1.8231,0.4252,39.1200,85,98,83632
1.8182,0.4154,39.1200,85,98,83635
1.8426,0.4252,39.2800,85,98,83638
1.8280,0.4154,39.2200,85,98,83641
1.8817,0.4399,38.9600,85,98,83645
1.8573,0.4057,39.1200,85,98,83648
1.8524,0.4154,39.1600,85,98,83651
1.8768,0.4252,39.1200,85,98,83654
1.8671,0.4154,39.2200,85,98,83658
1.9208,0.4399,38.9000,85,98,83661
1.8719,0.4154,39.1600,85,98,83664
1.8866,0.4154,39.1900,85,98,83667
1.9013,0.4203,39.1900,85,98,83672
1.8964,0.4154,39.2800,85,98,83675
1.9404,0.4301,38.9600,85,98,83678
1.9110,0.4252,39.2200,85,98,83681
1.8964,0.4154,39.2200,85,98,83685
1.9159,0.4252,39.1600,85,98,83688
1.9013,0.4203,39.1900,85,98,83691
1.9453,0.4301,38.9600,85,98,83694
1.9159,0.4154,39.1600,85,98,83698
1.9208,0.4154,39.2200,85,98,83701
1.9501,0.4301,39.1600,85,98,83704
1.9404,0.4350,39.1900,85,98,83707
1.9990,0.4301,38.9600,85,98,83712
1.9550,0.4154,39.1600,85,98,83715
1.9697,0.4203,39.2200,85,98,83718
1.9892,0.4203,39.2200,85,98,83721
1.9844,0.4154,39.1200,85,98,83725
2.0381,0.4252,39.0300,85,98,83728
2.0186,0.4203,39.1200,85,98,83731
2.0088,0.4154,39.2500,85,98,83734
2.0430,0.4252,39.1600,85,98,83738
2.0332,0.4154,39.1900,85,98,83741
2.0772,0.4301,39.0000,85,98,83744
2.0479,0.4203,39.2200,85,98,83747
2.0528,0.4154,39.1900,85,98,83751
2.0919,0.4301,39.0600,85,98,83755
2.0723,0.4154,39.2200,85,98,83758
2.1310,0.4301,38.9600,85,98,83761
2.0919,0.4203,39.1600,85,98,83765
2.1065,0.4154,39.2200,85,98,83768
2.1310,0.4252,39.1600,85,98,83771
2.1114,0.4203,39.2200,85,98,83774
2.1652,0.4399,39.0000,85,98,83778
2.1457,0.4252,39.0900,85,98,83781
2.1310,0.4154,39.2200,85,98,83784
2.1554,0.4301,38.9300,85,98,83787
2.1114,0.4203,39.1600,85,98,83791
2.1457,0.4252,39.0000,85,98,83794
2.0919,0.4203,39.1600,85,98,83798
2.0674,0.4203,39.2200,85,98,83801
2.0626,0.4301,39.0900,85,98,83805
2.0137,0.4154,39.2800,85,98,83808
2.0235,0.4497,39.0000,85,98,83811
1.9599,0.4154,39.1900,85,98,83814
1.9404,0.4154,39.2200,85,98,83818
1.9404,0.4301,39.0900,85,98,83821
1.8866,0.4154,39.2800,85,98,83824
1.9013,0.4252,39.0300,85,98,83827
1.8671,0.4203,39.0900,85,98,83831
1.8426,0.4106,39.2200,85,98,83834
1.8573,0.4252,39.0600,85,98,83837
1.8280,0.4154,39.2200,85,98,83841
1.8671,0.4252,39.0300,85,98,83845
1.8964,0.4350,38.3000,85,98,83849
1.8573,0.4154,39.1200,85,98,83852
1.8573,0.4057,39.2200,85,98,83856
1.8671,0.4252,39.2500,85,98,83859
1.8475,0.4203,39.2200,85,98,83862
1.9013,0.4350,38.9600,85,98,83866
1.8768,0.4252,39.1200,85,98,83869
1.8622,0.4154,39.3200,85,98,83872
1.9013,0.4252,39.1900,85,98,83875
1.9159,0.4203,39.2200,85,98,83879
1.9550,0.4350,38.9600,85,98,83883
1.9159,0.4203,39.1200,85,98,83886
1.9062,0.4154,39.2200,85,98,83889
1.9697,0.4252,39.1900,85,98,83893
1.9257,0.4154,39.1900,85,98,83896
1.9892,0.4350,38.9600,85,98,83899
1.9550,0.4203,39.1600,85,98,83902
1.9550,0.4154,39.3200,85,98,83906
1.9990,0.4154,39.1900,85,98,83909
1.9648,0.4203,39.2200,85,98,83912
2.0235,0.4350,38.9300,85,98,83915
1.9941,0.4252,39.1200,85,98,83919
1.9941,0.4203,39.2200,85,98,83922
2.0283,0.4252,39.1900,85,98,83926
1.9795,0.4154,39.1600,85,98,83929
2.0332,0.4350,38.9300,85,98,83933
1.9844,0.4203,39.1200,85,98,83936
1.9746,0.4203,39.2500,85,98,83939
1.9892,0.4203,39.1600,85,98,83942
1.9697,0.4154,39.2200,85,98,83946
2.0235,0.4350,39.0000,85,98,83949
1.9697,0.4203,39.1200,85,98,83952
1.9648,0.4154,39.2200,85,98,83955
1.9844,0.4252,39.2500,85,98,83959
1.9501,0.4154,39.1600,85,98,83962
2.0039,0.4350,38.9600,85,98,83965
1.9648,0.4301,39.0900,85,98,83969
1.9501,0.4154,39.2200,85,98,83973
1.9697,0.4252,39.1600,85,98,83976
1.9453,0.4154,39.2200,85,98,83979
2.0039,0.4350,38.9600,85,98,83982
1.9550,0.4154,39.2200,85,98,83986
1.9501,0.4154,39.1600,85,98,83989
1.9697,0.4252,39.2200,85,98,83992
1.9550,0.4203,39.1900,85,98,83995
2.0137,0.4399,38.9300,85,98,83999
1.9599,0.4154,39.1600,85,98,84002
1.9648,0.4154,39.1900,85,98,84005
1.9746,0.4252,39.1900,85,98,84008
1.9550,0.4154,39.2800,85,98,84013
2.0088,0.4448,38.9300,85,98,84016
1.9746,0.4252,39.1200,85,98,84019
1.9697,0.4154,39.2200,85,98,84022
1.9795,0.4301,39.1600,85,98,84026
1.9599,0.4252,39.2200,85,98,84029
2.0088,0.4350,38.9600,85,98,84032
1.9599,0.4154,39.1200,85,98,84035
1.9550,0.4154,39.2800,85,98,84039
1.9697,0.4203,39.1200,85,98,84042
1.9404,0.4154,39.2200,85,98,84045
1.9892,0.4301,39.0000,85,98,84048
1.9355,0.4154,39.1600,85,98,84052
1.9355,0.4057,39.2200,85,98,84056
1.9404,0.4301,39.1600,85,98,84059
1.9257,0.4203,39.2500,85,98,84062
1.9844,0.4301,39.0000,85,98,84066
1.9648,0.4252,39.1200,85,98,84069
1.9599,0.4350,39.2200,85,98,84072
1.9892,0.4252,39.1600,85,98,84075
1.9746,0.4154,39.2200,85,98,84079
2.0332,0.4252,38.9600,85,98,84082
1.9892,0.4203,39.1200,85,98,84085
1.9844,0.4154,39.2200,85,98,84088
2.0039,0.4252,39.1200,85,98,84092
1.9941,0.4154,39.2800,85,98,84096
2.0479,0.4350,38.9600,85,98,84099
2.0137,0.4154,38.5200,85,98,84102
2.0381,0.4154,39.1900,85,98,84106
2.0723,0.4350,39.1600,85,98,84109
2.0626,0.4350,39.2500,85,98,84112
2.1212,0.4301,38.9600,85,98,84115
2.1017,0.4252,39.1600,85,98,84119
2.0870,0.4399,39.2200,85,98,84122
2.1114,0.4350,39.0600,85,98,84125
2.0626,0.4154,39.2200,85,98,84128
2.0821,0.4301,39.0900,85,98,84132
2.0137,0.4252,39.1900,85,98,84135
1.9746,0.4154,39.2200,85,98,84139
1.9746,0.4301,39.1200,85,98,84142
1.9110,0.4203,39.1600,85,98,84146
1.9306,0.4301,39.0000,85,98,84149
1.8768,0.4106,39.2200,85,98,84152
1.8671,0.3959,39.1900,85,98,84155
1.8768,0.4301,39.1900,85,98,84159
1.8524,0.4106,39.1900,85,98,84162
1.8866,0.4301,39.0000,85,98,84165
1.8671,0.4252,39.1200,85,98,84168
1.8475,0.4106,39.1600,85,98,84172
1.8719,0.4301,39.1200,85,98,84175
1.8426,0.4154,39.1900,85,98,84178
1.8817,0.4301,39.0000,85,98,84182
1.8426,0.4203,39.2200,85,98,84186
1.8328,0.4399,39.2200,85,98,84189
1.8524,0.4301,39.0000,85,98,84192
1.8280,0.4203,39.2200,85,98,84195
1.8622,0.4399,39.0600,85,98,84199
1.8231,0.4203,39.2200,85,98,84202
1.8231,0.4154,39.2800,85,98,84205
1.8377,0.4252,39.1600,85,98,84208
1.8133,0.4154,39.1900,85,98,84212
1.8573,0.4301,39.0300,85,98,84215
1.8231,0.4154,39.1200,85,98,84218
1.8182,0.4154,39.2200,85,98,84221
1.8426,0.4301,39.0900,85,98,84226
1.8182,0.4154,39.2200,85,98,84229
1.8768,0.4301,39.0000,85,98,84232
1.8280,0.4497,39.2200,85,98,84235
1.8182,0.4154,39.1900,85,98,84239
1.8084,0.4301,39.1200,85,98,84242
1.7351,0.4154,39.2200,85,98,84245
1.6960,0.4301,39.0000,85,98,84248
1.5934,0.4154,39.1200,85,98,84252
1.5445,0.4154,39.2200,85,98,84255
1.5885,0.4301,39.1200,85,98,84258
1.7058,0.4154,39.2200,85,98,84261
2.0186,0.4252,39.0000,85,98,84265
2.3754,0.4203,39.1200,85,98,84269
2.8495,0.4057,39.2200,85,98,84272
3.4018,0.4301,39.0900,85,98,84275
3.7537,0.4154,39.0900,85,98,84279
3.9785,0.4252,39.0300,85,98,84282
3.7830,0.4154,39.1200,85,98,84285
3.3822,0.4154,39.1900,85,98,84288
2.9717,0.4301,39.0900,85,98,84292
2.5073,0.4203,39.3200,85,98,84295
2.1017,0.4252,39.0300,85,98,84298
1.7449,0.4154,39.3200,85,98,84301
1.5543,0.4154,39.2200,85,98,84305
1.4858,0.4252,39.2200,85,98,84308
1.4614,0.4154,39.1900,85,98,84312
1.5152,0.4301,39.0300,85,98,84315
1.5396,0.4252,39.0900,85,98,84319
1.5738,0.4154,39.2200,85,98,84322
1.6276,0.4252,39.0900,85,98,84325
1.6276,0.4057,39.1900,85,98,84328
1.6813,0.4399,39.0000,85,98,84332
1.6667,0.4203,39.1600,85,98,84335
1.6667,0.4154,39.2200,85,98,84338
1.7107,0.4057,39.0900,85,98,84341
1.6960,0.4154,39.2500,85,98,84345
1.7351,0.4252,39.0300,85,98,84348
1.7155,0.4154,39.1600,85,98,84352
1.7253,0.4154,39.1900,85,98,84355
1.7498,0.4252,39.1600,85,98,84359
1.7351,0.4154,39.2200,85,98,84362
1.7840,0.4301,39.0300,85,98,84365
1.7595,0.4203,38.9600,85,98,84368
1.7644,0.4154,39.3200,85,98,84372
1.7889,0.4252,39.1600,85,98,84375
1.7644,0.4154,39.2200,85,98,84378
1.8084,0.4301,39.0300,85,98,84381
1.7840,0.4203,39.1600,85,98,84385
1.7889,0.4154,39.2200,85,98,84388
1.8035,0.4252,39.0900,85,98,84391
1.7889,0.4154,39.1900,85,98,84395
1.8280,0.4252,38.6200,85,98,84399
1.7937,0.4203,39.2200,85,98,84402
1.8035,0.4154,39.2200,85,98,84405
1.8182,0.4301,39.1200,85,98,84408
1.8035,0.4057,39.3200,85,98,84412
1.8377,0.4252,39.0900,85,98,84415
1.8182,0.4203,39.0900,85,98,84418
1.8182,0.4154,39.2200,85,98,84421
1.8622,0.4301,39.0900,85,98,84425
1.8280,0.4154,39.1900,85,98,84428
1.8719,0.4252,39.0300,85,98,84431
1.8426,0.4106,39.1600,85,98,84434
1.8719,0.4154,39.1900,85,98,84439
1.8964,0.4252,39.1200,85,98,84442
1.8915,0.4154,39.2800,85,98,84445
1.9404,0.4252,39.0000,85,98,84448
1.9110,0.4154,39.2200,85,98,84452
1.9257,0.4203,39.1900,85,98,84455
1.9501,0.4252,39.1200,85,98,84458
1.9941,0.4252,39.1900,85,98,84463
1.9892,0.4057,39.3200,85,98,84466
2.0283,0.4692,38.9300,85,98,84469
1.9795,0.4203,39.0900,85,98,84473
1.9746,0.4154,39.2200,85,98,84476
1.9990,0.4252,39.1900,85,98,84480
1.9844,0.4203,39.2500,85,98,84483
2.0528,0.4350,38.9600,85,98,84487
2.0137,0.4203,39.1600,85,98,84490
2.0528,0.4154,39.2200,85,98,84493
2.0479,0.4252,39.1600,85,98,84496
2.0430,0.4154,39.2200,85,98,84500
2.1065,0.4252,38.9600,85,98,84503
2.0919,0.4301,39.0900,85,98,84506
2.0821,0.4154,39.3200,85,98,84509
2.1017,0.4252,39.1600,85,98,84513
2.0968,0.4057,39.2200,85,98,84516
2.1114,0.4301,39.0000,85,98,84519
2.0528,0.4154,39.1200,85,98,84523
2.0235,0.4154,39.2200,85,98,84527
2.0283,0.4545,39.1600,85,98,84530
1.9795,0.4154,39.2500,85,98,84533
2.0088,0.4252,39.0300,85,98,84536
1.9404,0.4154,39.1600,85,98,84540
1.9159,0.4203,39.1600,85,98,84543
1.9110,0.4252,39.0900,85,98,84546
1.8719,0.4154,39.1900,85,98,84549
1.9110,0.4252,38.9600,85,98,84553
1.8622,0.4301,39.1200,85,98,84556
1.8377,0.4154,39.3800,85,98,84559
1.8475,0.4252,39.1600,85,98,84562
1.8182,0.4154,39.2200,85,98,84567
1.8622,0.4252,39.0000,85,98,84570
1.8182,0.4252,39.1200,85,98,84573
1.8084,0.4154,39.2500,85,98,84576
1.8328,0.4252,39.1600,85,98,84580
1.8084,0.4154,39.2200,85,98,84583
1.8622,0.4350,38.9600,85,98,84586
1.8231,0.4154,39.1200,85,98,84589
1.8328,0.4154,39.0900,85,98,84593
1.8622,0.4252,39.1200,85,98,84596
1.8426,0.4154,39.2200,85,98,84599
1.9159,0.4350,38.9600,85,98,84602
1.8768,0.4203,39.1600,85,98,84606
1.8768,0.4154,39.2200,85,98,84610
1.9110,0.4252,39.1600,85,98,84613
1.8964,0.4057,39.1900,85,98,84616
1.9453,0.4301,38.9600,85,98,84620
1.9110,0.4252,39.1600,85,98,84623
1.9062,0.4154,39.1900,85,98,84626
1.9306,0.4252,39.1200,85,98,84629
1.9110,0.4154,39.1900,85,98,84633
1.9599,0.4252,39.0000,85,98,84636
1.9159,0.4154,39.1600,85,98,84639
1.9257,0.4154,39.2200,85,98,84642
1.9501,0.4252,39.1600,85,98,84646
1.9208,0.4154,39.2800,85,98,84649
1.9746,0.4301,38.9600,85,98,84653
1.9453,0.4399,39.1200,85,98,84656
1.9306,0.4154,39.2200,85,98,84660
1.9501,0.4252,39.2200,85,98,84663
1.9257,0.4154,39.2200,85,98,84666
1.9795,0.4301,38.9600,85,98,84669
1.9404,0.4154,39.1200,85,98,84673
1.9306,0.4154,39.1900,85,98,84676
1.9550,0.4252,39.1600,85,98,84679
1.9501,0.4203,39.2200,85,98,84682
1.9746,0.4350,38.9600,85,98,84686
1.9257,0.4154,39.1600,85,98,84689
1.9306,0.4154,39.2200,85,98,84692
1.9550,0.4252,39.1200,85,98,84696
1.9306,0.4154,39.2200,85,98,84700
1.9746,0.4350,38.9600,85,98,84703
1.9453,0.4252,39.1200,85,98,84706
1.9208,0.4154,39.2200,85,98,84709
1.9404,0.4252,39.1600,85,98,84713
1.9159,0.4154,39.2200,85,98,84716
1.9550,0.4301,39.0000,85,98,84719
1.9110,0.4154,39.2200,85,98,84722
1.8915,0.4154,39.2200,85,98,84726
1.9110,0.4252,39.1200,85,98,84729
1.8817,0.4154,39.2500,85,98,84732
1.9208,0.4301,39.0000,85,98,84736
1.8817,0.4106,39.1600,85,98,84740
1.8768,0.4203,39.2200,85,98,84743
1.8964,0.4252,39.1200,85,98,84746
1.8622,0.4154,39.2200,85,98,84749
1.9062,0.4301,38.9600,85,98,84753
1.8817,0.4301,39.1200,85,98,84756
1.8622,0.4106,39.2500,85,98,84759
1.8866,0.4301,39.1200,85,98,84762
1.8524,0.4154,39.1200,85,98,84766
1.8964,0.4252,39.0900,85,98,84769
1.8622,0.4154,39.1900,85,98,84772
1.8377,0.4106,39.1900,85,98,84775
1.8622,0.4399,39.2200,85,98,84780
1.8328,0.4154,39.2200,85,98,84783
1.8768,0.4252,39.0000,85,98,84786
1.8328,0.4106,39.1600,85,98,84789
1.8377,0.4154,39.1900,85,98,84793
1.8524,0.4252,39.0300,85,98,84796
1.8280,0.4154,39.2200,85,98,84799
1.8719,0.4301,39.0000,85,98,84802
1.8475,0.4252,39.0600,85,98,84806
1.8377,0.4154,39.1900,85,98,84809
1.8719,0.4252,39.1200,85,98,84812
1.8475,0.4203,39.2200,85,98,84815
1.9062,0.4301,39.0000,85,98,84819
1.8817,0.4252,39.1900,85,98,84823
1.8817,0.4154,39.2200,85,98,84826
1.9208,0.4399,39.1200,85,98,84829
1.8915,0.4154,39.3200,85,98,84833
1.9306,0.4252,39.0000,85,98,84836
1.8964,0.4106,39.1900,85,98,84839
1.9062,0.4252,39.2200,85,98,84842
1.9404,0.4252,39.1200,85,98,84846
1.9355,0.4154,39.1900,85,98,84849
1.9990,0.4301,39.0000,85,98,84852
1.9990,0.4350,39.0900,85,98,84855
2.0088,0.4154,39.2500,85,98,84859
2.0479,0.4252,39.1200,85,98,84862
2.0235,0.4203,39.1900,85,98,84866
2.0674,0.4252,39.0900,85,98,84869
2.0283,0.4203,39.1600,85,98,84873
2.0039,0.4203,39.2200,85,98,84876
2.0088,0.4252,39.0900,85,98,84879
1.9550,0.4203,39.1900,85,98,84882
1.9599,0.4252,39.2500,85,98,84886
1.8915,0.4154,39.1900,85,98,84889
1.8622,0.4154,39.2200,85,98,84892
1.8573,0.4301,39.0900,85,98,84895
1.8133,0.4106,39.1900,85,98,84899
1.8231,0.4301,39.0300,85,98,84902
1.7937,0.4203,39.0900,85,98,84905
1.7791,0.4154,39.2200,85,98,84909
1.8035,0.4252,39.0600,85,98,84913
1.7693,0.4154,39.2200,85,98,84916
1.7937,0.4203,39.0300,85,98,84919
1.7595,0.4154,39.1600,85,98,84922
1.7791,0.4154,39.1900,85,98,84926
1.7644,0.4154,39.1900,85,98,84929
1.7449,0.4301,39.1900,85,98,84932
1.7742,0.4252,39.0600,85,98,84935
1.7449,0.4154,39.2200,85,98,84939
1.7449,0.4154,39.2200,85,98,84942
1.7840,0.4203,39.1200,85,98,84945
1.7498,0.4203,39.1900,85,98,84948
1.7840,0.4252,39.0300,85,98,84953
1.7644,0.4203,39.1600,85,98,84956
1.7693,0.4154,39.2200,85,98,84959
1.7937,0.4252,39.0900,85,98,84962
1.7742,0.4106,39.1900,85,98,84966
1.8084,0.4252,39.0300,85,98,84969
1.7840,0.4203,39.2200,85,98,84972
1.7889,0.4154,39.2200,85,98,84975
1.8084,0.4545,39.1200,85,98,84979
1.7937,0.4154,39.2200,85,98,84982
1.8280,0.4203,39.0300,85,98,84985
1.7937,0.4057,39.2200,85,98,84988
1.7204,0.4154,39.2500,85,98,84993
1.6716,0.4252,39.1900,85,98,84996
1.5738,0.4154,39.0900,85,98,84999
1.5445,0.4203,39.0600,85,98,85002
1.5298,0.4203,39.1200,85,98,85006
1.6373,0.4154,39.2200,85,98,85009
1.9062,0.4252,39.1600,85,98,85012
2.2483,0.4154,39.1900,85,98,85015
2.7419,0.4154,39.1200,85,98,85019
3.2063,0.4203,39.1900,85,98,85022
3.6559,0.4154,39.2500,85,98,85025
3.9101,0.4203,39.0900,85,98,85028
3.7732,0.4154,39.2200,85,98,85032
3.4995,0.4252,39.0900,85,98,85036
3.0205,0.4154,39.3200,85,98,85039
2.5660,0.4154,39.2200,85,98,85042
2.1652,0.4252,39.1200,85,98,85046
1.7889,0.4203,39.3200,85,98,85049
1.5934,0.4203,39.0600,85,98,85052
1.4712,0.4154,39.1200,85,98,85055
1.4467,0.4154,39.2200,85,98,85059
1.4858,0.4252,39.0900,85,98,85062
1.5200,0.4057,39.2200,85,98,85065
1.5689,0.4203,39.0600,85,98,85068
1.5738,0.4301,38.9600,85,98,85072
1.6569,0.4106,39.1900,85,98,85076
1.6618,0.4154,39.3200,85,98,85080
1.6764,0.4252,39.1900,85,98,85084
1.6667,0.4154,39.2200,85,98,85087
1.7155,0.4252,38.9600,85,98,85090
1.6960,0.4252,39.1900,85,98,85094
1.7009,0.4154,39.1600,85,98,85097
1.7351,0.4301,39.1600,85,98,85100
1.7204,0.4154,39.3800,85,98,85103
1.7693,0.4252,38.9600,85,98,85107
1.7546,0.4203,39.1600,85,98,85110
1.7498,0.4106,39.2200,85,98,85113
1.7889,0.4252,39.1200,85,98,85116
1.7693,0.4154,39.2800,85,98,85121
1.8182,0.4252,39.0000,85,98,85124
1.7840,0.4057,39.1600,85,98,85127
1.7889,0.4154,39.2800,85,98,85130
1.8084,0.4203,39.2800,85,98,85134
1.8035,0.4154,39.2800,85,98,85137
1.8426,0.4301,39.0300,85,98,85140
1.8231,0.4203,39.2500,85,98,85143
1.8133,0.4154,39.1200,85,98,85147
1.8426,0.4252,39.0900,85,98,85150
1.8182,0.4154,39.2200,85,98,85153
1.8915,0.4301,39.0000,85,98,85156
1.8328,0.4301,39.1600,85,98,85160
1.8377,0.4154,39.3800,85,98,85164
1.8719,0.4252,39.1200,85,98,85167
1.8475,0.4154,39.3200,85,98,85170
1.9110,0.4301,39.0000,85,98,85174
1.8719,0.4106,39.1600,85,98,85177
1.8817,0.4154,39.2200,85,98,85180
1.9013,0.4203,39.1900,85,98,85183
1.8964,0.4154,39.3200,85,98,85187
1.9550,0.4203,39.0600,85,98,85190
1.9404,0.4252,39.3200,85,98,85193
1.9355,0.4154,39.2200,85,98,85196
1.9697,0.4252,39.1900,85,98,85200
1.9550,0.4203,39.1900,85,98,85203
2.0039,0.4399,38.9600,85,98,85207
1.9795,0.4252,39.1900,85,98,85210
1.9844,0.4154,39.2800,85,98,85214
2.0283,0.4252,39.1200,85,98,85217
2.0039,0.4154,39.2200,85,98,85220
2.0626,0.4301,39.0000,85,98,85223
2.0137,0.4106,39.1900,85,98,85227
2.0332,0.4154,39.3500,85,98,85230
2.0528,0.4252,39.1900,85,98,85233
2.0381,0.4154,39.2200,85,98,85236
2.0821,0.4301,39.0000,85,98,85240
2.0528,0.4203,39.0600,85,98,85243
2.0577,0.4106,39.2200,85,98,85246
2.0723,0.4252,39.0900,85,98,85250
2.0528,0.4154,39.2200,85,98,85254
2.0821,0.4301,39.0000,85,98,85257
2.0479,0.4448,39.1600,85,98,85260
2.0381,0.4154,39.2200,85,98,85263
2.0528,0.4252,39.0600,85,98,85266
2.0088,0.4154,39.3500,85,98,85270
2.0283,0.4252,39.0300,85,98,85273
1.9941,0.4057,39.2200,85,98,85276
1.9453,0.4154,39.2200,85,98,85279
1.9453,0.4252,39.4400,85,98,85283
1.8866,0.4154,39.2200,85,98,85286
1.8964,0.4252,39.0300,85,98,85289
1.8524,0.4154,39.1200,85,98,85293
1.8280,0.4154,39.2500,85,98,85297
1.8328,0.4252,39.0300,85,98,85300
1.7986,0.4154,39.1900,85,98,85303
1.8280,0.4252,39.0300,85,98,85306
1.7742,0.4203,39.2200,85,98,85310
1.7644,0.4154,39.1900,85,98,85313
1.7791,0.4203,39.1600,85,98,85316
1.7595,0.4154,39.2200,85,98,85319
1.7889,0.4301,39.0600,85,98,85323
1.7644,0.4203,39.1900,85,98,85326
1.7742,0.4154,39.2200,85,98,85329
1.8035,0.4252,39.1200,85,98,85332
1.7791,0.4057,39.2200,85,98,85337
1.8084,0.4399,39.0600,85,98,85340
1.7937,0.4154,39.1200,85,98,85343
1.7986,0.4057,39.3200,85,98,85346
1.8377,0.4252,39.1200,85,98,85350
1.8231,0.4497,39.1900,85,98,85353
1.8622,0.4203,39.0000,85,98,85356
1.8377,0.4154,39.2500,85,98,85359
1.8475,0.4154,39.1900,85,98,85363
1.8768,0.4203,39.0900,85,98,85366
1.8671,0.4154,39.2500,85,98,85369
1.9013,0.4203,39.0600,85,98,85372
1.8768,0.4057,39.2200,85,98,85377
1.8866,0.4106,39.2200,85,98,85380
1.9208,0.4252,39.0900,85,98,85383
1.8964,0.4154,39.2200,85,98,85386
1.9453,0.4252,39.0600,85,98,85390
1.9062,0.4154,39.1200,85,98,85393
1.9062,0.4154,39.2200,85,98,85396
1.9306,0.4203,39.0900,85,98,85399
1.9159,0.4106,39.1900,85,98,85403
1.9404,0.4154,39.0900,85,98,85406
1.9110,0.4154,39.1900,85,98,85409
1.9404,0.4154,39.2200,85,98,85412
1.9257,0.4594,39.0900,85,98,85416
1.9159,0.4154,39.2200,85,98,85420
1.9501,0.4154,39.0600,85,98,85423
1.9306,0.4057,39.2200,85,98,85426
1.9306,0.4154,39.1900,85,98,85430
1.9599,0.4252,39.1900,85,98,85433
1.9355,0.4154,39.3200,85,98,85436
1.9746,0.4203,39.0900,85,98,85439
1.9355,0.4497,39.1600,85,98,85443
1.9404,0.4350,39.2800,85,98,85446
1.9599,0.4203,39.0600,85,98,85449
1.9355,0.4057,39.2200,85,98,85452
1.9648,0.4252,39.1200,85,98,85456
1.9306,0.4106,38.5500,85,98,85459
1.9257,0.4154,39.2200,85,98,85463
1.9355,0.4203,39.1200,85,98,85466
1.9208,0.4154,39.2200,85,98,85470
1.9453,0.4203,39.1200,85,98,85473
1.9110,0.4154,39.1900,85,98,85476
1.9110,0.4154,39.2200,85,98,85479
1.9648,0.4301,39.0900,85,98,85483
1.9013,0.4203,39.2200,85,98,85486
1.9355,0.4203,39.1200,85,98,85489
1.8964,0.4106,39.1900,85,98,85492
1.8964,0.4106,39.2800,85,98,85496
1.9208,0.4203,39.1600,85,98,85499
1.8915,0.4154,39.1900,85,98,85502
1.9208,0.4252,39.1200,85,98,85506
1.8817,0.4203,39.2800,85,98,85510
1.8817,0.4154,39.2200,85,98,85513
1.8915,0.4154,39.1600,85,98,85516
1.8671,0.4057,39.1900,85,98,85519
1.9062,0.4301,39.0900,85,98,85523
1.8768,0.4203,39.2200,85,98,85526
1.8768,0.4154,39.2200,85,98,85529
1.9013,0.4252,39.0900,85,98,85532
1.8964,0.4154,39.1900,85,98,85536
1.9013,0.4350,39.1200,85,98,85539
1.8719,0.4106,39.2200,85,98,85542
1.8768,0.4154,39.2200,85,98,85545
1.9062,0.4203,39.1200,85,98,85550
1.8817,0.4106,39.1900,85,98,85553
1.9110,0.4252,38.8400,85,98,85556
1.8817,0.4154,39.2200,85,98,85559
1.8866,0.4057,39.3200,85,98,85563
1.9159,0.4203,39.1200,85,98,85566
1.9110,0.4154,39.1600,85,98,85569
1.9501,0.4252,39.1200,85,98,85572
1.9257,0.4154,39.2200,85,98,85576
1.9355,0.4057,39.1900,85,98,85579
1.9648,0.4301,39.0900,85,98,85582
1.9355,0.4203,39.0900,85,98,85585
1.9648,0.4252,39.0900,85,98,85590
1.9697,0.4057,39.2200,85,98,85593
1.9501,0.4154,39.1900,85,98,85596
1.9892,0.4252,39.0900,85,98,85599
1.9795,0.4154,39.2200,85,98,85603
2.0430,0.4154,39.0900,85,98,85606
2.0235,0.4154,39.2200,85,98,85609
2.0381,0.4154,39.2200,85,98,85612
2.0626,0.4057,39.1600,85,98,85616
2.0479,0.4106,39.1900,85,98,85619
2.0723,0.4252,39.1900,85,98,85622
2.0332,0.4154,39.2200,85,98,85625
2.0137,0.4106,39.2200,85,98,85629
2.0186,0.4252,39.0600,85,98,85633
1.9550,0.4154,39.1600,85,98,85636
1.9453,0.4252,39.0900,85,98,85639
1.9062,0.4057,39.2200,85,98,85643
1.8671,0.4154,39.2800,85,98,85646
1.8719,0.4252,39.1200,85,98,85649
1.8377,0.4203,39.1900,85,98,85652
1.8573,0.4057,39.0900,85,98,85656
1.8182,0.4154,39.2500,85,98,85659
1.8133,0.4497,39.2200,85,98,85662
1.8231,0.4252,39.1600,85,98,85665
1.8035,0.4154,39.1900,85,98,85669
1.8133,0.4252,39.1600,85,98,85672
1.7889,0.4154,39.2200,85,98,85676
1.7840,0.4203,39.2200,85,98,85679
1.8133,0.4252,39.0900,85,98,85683
1.7840,0.4203,39.0900,85,98,85687
1.7693,0.4154,39.2500,85,98,85691
1.7937,0.4252,39.0300,85,98,85694
1.7595,0.4154,39.1900,85,98,85697
1.7498,0.4154,39.3200,85,98,85700
1.7595,0.4252,39.1200,85,98,85704
1.7449,0.4057,39.2500,85,98,85707
1.7742,0.4203,39.0600,85,98,85710
1.7498,0.4154,39.2200,85,98,85713
1.7546,0.4154,39.1900,85,98,85718
1.7791,0.4154,39.1200,85,98,85721
1.7546,0.4203,39.3200,85,98,85724
1.7546,0.4252,39.0600,85,98,85727
1.6764,0.4203,39.1200,85,98,85731
1.5885,0.4203,39.2200,85,98,85734
1.5494,0.4203,39.0600,85,98,85737
1.4614,0.4154,39.2200,85,98,85740
1.4907,0.4203,39.0000,85,98,85744
1.6178,0.4203,39.1900,85,98,85747
1.8964,0.4106,39.2500,85,98,85750
2.3069,0.4203,39.0600,85,98,85753
2.7615,0.4154,39.1900,85,98,85757
3.3138,0.4301,39.0600,85,98,85761
3.6852,0.4154,39.2500,85,98,85764
3.8368,0.4154,39.2200,85,98,85767
3.7292,0.4252,39.1200,85,98,85771
3.3236,0.4057,39.2200,85,98,85774
2.9130,0.4252,39.0300,85,98,85777
2.4242,0.4203,39.1200,85,98,85780
2.0039,0.4154,39.3200,85,98,85784
1.6960,0.4203,39.0900,85,98,85787
1.4809,0.4497,39.1900,85,98,85790
1.4174,0.4203,39.0600,85,98,85793
1.3881,0.4154,39.1900,85,98,85797
1.4223,0.4106,39.1900,85,98,85800
1.4858,0.4203,39.1200,85,98,85804
1.5200,0.4154,39.1900,85,98,85807
1.5836,0.4057,39.0600,85,98,85811
1.6178,0.4106,39.2200,85,98,85814
1.6080,0.4106,39.2500,85,98,85817
1.6471,0.4252,39.1200,85,98,85820
1.6325,0.4154,39.3200,85,98,85824
1.6618,0.4203,39.0600,85,98,85827
1.6520,0.4154,39.2200,85,98,85830
1.6667,0.4154,39.1900,85,98,85833
1.6960,0.4448,39.0900,85,98,85837
1.6911,0.4154,39.2500,85,98,85840
1.7204,0.4154,39.0600,85,98,85843
1.7107,0.4399,39.1600,85,98,85847
1.7253,0.4154,39.3500,85,98,85851
1.7498,0.4203,39.1200,85,98,85854
1.7498,0.4057,39.2200,85,98,85857
1.7791,0.4203,39.0600,85,98,85860
1.7546,0.4154,39.2800,85,98,85864
1.7693,0.4154,39.2200,85,98,85867
1.7986,0.4350,39.1200,85,98,85870
1.7937,0.4057,39.1900,85,98,85873
1.8182,0.4252,39.0900,85,98,85877
1.7986,0.4154,39.1900,85,98,85880
1.8035,0.4057,39.1900,85,98,85883
1.8231,0.4203,39.0900,85,98,85886
1.8084,0.4203,39.1900,85,98,85891
1.8377,0.4203,39.0900,85,98,85894
1.7986,0.4106,39.1900,85,98,85897
1.8084,0.4106,39.2200,85,98,85900
1.8231,0.4203,39.0900,85,98,85904
1.8035,0.4154,39.2200,85,98,85907
1.8475,0.4154,39.0900,85,98,85910
1.8573,0.4106,39.2200,85,98,85913
1.8280,0.4154,39.1600,85,98,85917
1.8671,0.4252,39.1200,85,98,85920
1.8475,0.4154,39.0600,85,98,85923
1.8866,0.4203,39.0900,85,98,85926
1.8622,0.4154,39.1600,85,98,85931
1.8768,0.4154,39.1900,85,98,85934
1.9062,0.4203,39.2500,85,98,85937
1.8817,0.4154,39.2200,85,98,85940
1.9306,0.4057,39.0900,85,98,85944
1.9013,0.4106,39.2200,85,98,85947
1.9110,0.4154,39.2200,85,98,85950
1.9355,0.4154,39.1200,85,98,85953
1.9355,0.4203,39.2200,85,98,85957
1.9795,0.4203,39.1600,85,98,85960
1.9550,0.4154,39.2200,85,98,85963
1.9648,0.4154,39.3200,85,98,85966
2.0088,0.4301,39.0900,85,98,85970
1.9795,0.4497,39.2500,85,98,85974
2.0137,0.4203,39.1600,85,98,85977
1.9892,0.4106,39.2200,85,98,85980
1.9990,0.4203,39.2200,85,98,85984
2.0332,0.4203,39.0900,85,98,85987
2.0235,0.4154,39.1900,85,98,85990
2.0577,0.4301,39.1600,85,98,85993
2.0283,0.4154,39.2800,85,98,85997
2.0332,0.4154,39.2200,85,98,86000
2.0528,0.4203,39.2500,85,98,86003
2.0332,0.4154,39.1200,85,98,86006
2.0528,0.4301,39.0900,85,98,86010
2.0137,0.4106,39.2200,85,98,86013
2.0039,0.4154,39.2200,85,98,86017
2.0186,0.4252,39.1200,85,98,86020
1.9746,0.4154,39.2800,85,98,86024
1.9746,0.4301,39.0600,85,98,86027
1.9257,0.4154,39.0900,85,98,86030
1.9013,0.4154,39.2200,85,98,86033
1.9013,0.4252,39.0900,85,98,86037
1.8524,0.4154,39.1900,85,98,86040
1.8524,0.4252,38.6800,85,98,86043
1.8035,0.4154,39.1900,85,98,86046
1.7791,0.4154,39.2200,85,98,86050
1.7937,0.4154,39.1900,85,98,86053
1.7595,0.4448,39.1900,85,98,86056
1.7742,0.4252,39.0900,85,98,86060
1.7400,0.4154,39.0900,85,98,86064
1.7400,0.4154,39.2200,85,98,86067
1.7644,0.4301,39.0600,85,98,86070
1.7400,0.4448,39.2200,85,98,86073
1.7595,0.4203,39.0900,85,98,86077
1.7449,0.4203,39.2200,85,98,86080
1.7498,0.4154,39.1600,85,98,86083
1.7840,0.4252,39.0900,85,98,86086
1.7791,0.4203,39.1900,85,98,86090
1.7986,0.4252,39.0900,85,98,86093
1.7791,0.4154,38.6200,85,98,86096
1.7840,0.4154,38.6500,85,98,86099
1.8133,0.4252,39.1600,85,98,86104
1.8084,0.4203,39.1900,85,98,86107
1.8231,0.4252,39.1200,85,98,86110
1.8035,0.4106,39.2200,85,98,86113
1.8133,0.4154,39.2800,85,98,86117
1.8573,0.4252,39.0600,85,98,86120
1.8377,0.4203,39.1900,85,98,86123
1.8622,0.4301,39.0900,85,98,86126
1.8475,0.4154,39.2200,85,98,86130
1.8524,0.4154,39.2200,85,98,86133
1.8817,0.4252,39.0900,85,98,86136
1.8671,0.4203,39.1900,85,98,86139
1.8915,0.4203,39.0600,85,98,86144
1.8719,0.4154,39.2200,85,98,86147
1.8768,0.4154,39.2200,85,98,86150
1.9208,0.4154,39.1900,85,98,86153
1.8915,0.4252,39.2500,85,98,86157
1.9159,0.4203,39.0900,85,98,86160
1.8915,0.4154,39.2200,85,98,86163
1.8915,0.4106,39.2200,85,98,86166
1.9355,0.4545,39.0600,85,98,86170
1.9013,0.4252,39.2500,85,98,86173
1.9208,0.4203,38.9300,85,98,86176
1.8866,0.4154,39.2200,85,98,86179
1.8866,0.4106,39.1900,85,98,86183
1.9159,0.4497,39.0600,85,98,86187
1.8964,0.4203,39.1900,85,98,86190
1.9110,0.4057,39.0900,85,98,86193
1.8817,0.4106,39.2500,85,98,86197
1.8719,0.4154,39.2500,85,98,86200
1.8964,0.4252,39.1600,85,98,86203
1.8719,0.4203,39.1900,85,98,86206
1.8915,0.4203,39.0900,85,98,86210
1.8817,0.4154,39.2200,85,98,86213
1.8671,0.4252,39.1900,85,98,86216
1.9062,0.4252,39.0300,85,98,86219
1.8768,0.4203,39.1600,85,98,86223
1.8964,0.4203,39.1900,85,98,86226
1.8719,0.4154,39.3200,85,98,86230
1.8671,0.4154,39.2500,85,98,86233
1.8964,0.4545,39.0600,85,98,86237
1.8768,0.4203,39.1900,85,98,86240
1.8964,0.4203,39.0900,85,98,86243
1.8719,0.4203,39.3200,85,98,86246
1.8671,0.4203,39.1900,85,98,86250
1.8915,0.4252,39.1600,85,98,86253
1.8671,0.4203,39.2200,85,98,86256
1.8915,0.4203,39.0900,85,98,86259
1.8671,0.4057,39.2200,85,98,86263
1.8573,0.4350,39.2500,85,98,86266
1.8915,0.4252,39.0900,85,98,86269
1.8573,0.4203,39.2800,85,98,86273
1.8768,0.4057,39.0900,85,98,86277
1.8475,0.4252,39.2500,85,98,86280
1.8426,0.4154,39.2200,85,98,86283
1.8719,0.4252,39.0900,85,98,86286
1.8524,0.4203,39.1900,85,98,86290
1.8768,0.4203,39.1200,85,98,86293
1.8622,0.4154,38.8400,85,98,86296
1.8719,0.4154,39.2200,85,98,86301
1.8622,0.4106,39.2200,85,98,86304
1.8817,0.4350,39.0900,85,98,86307
1.8475,0.4203,39.2200,85,98,86311
1.8817,0.4203,39.0900,85,98,86315
1.8768,0.4203,39.1600,85,98,86318
1.8964,0.4203,39.2200,85,98,86321
1.9355,0.4203,39.0900,85,98,86325
1.9404,0.4154,39.2200,85,98,86328
1.9941,0.4057,39.0900,85,98,86331
1.9697,0.4106,39.1600,85,98,86334
1.9795,0.4154,39.2800,85,98,86338
1.9990,0.4203,39.1200,85,98,86341
1.9844,0.4106,39.2200,85,98,86344
1.9795,0.4203,39.0900,85,98,86347
1.9159,0.4154,39.2200,85,98,86351
1.8866,0.4154,39.2200,85,98,86354
1.8866,0.4252,39.1200,85,98,86358
1.8280,0.4154,39.2200,85,98,86361
1.8280,0.4301,39.0000,85,98,86365
1.7889,0.4106,38.9000,85,98,86368
1.7840,0.4057,39.2200,85,98,86371
1.8084,0.4057,39.0900,85,98,86374
1.7644,0.4154,39.2800,85,98,86378
1.7889,0.4203,39.1600,85,98,86381
1.7449,0.4057,39.3200,85,98,86384
1.7449,0.4154,39.2200,85,98,86387
1.7546,0.4399,39.1200,85,98,86391
1.7449,0.4154,39.2800,85,98,86394
1.7791,0.4203,39.0900,85,98,86397
1.7449,0.4154,39.1200,85,98,86401
1.7449,0.4203,39.2500,85,98,86405
1.7742,0.4252,38.4600,85,98,86408
1.7498,0.4154,38.6500,85,98,86411
1.7742,0.4203,39.0900,85,98,86414
1.7546,0.4154,39.1900,85,98,86418
1.7546,0.4154,39.3200,85,98,86421
1.7840,0.4203,39.0900,85,98,86424
1.7693,0.4154,39.1900,85,98,86427
1.7986,0.4203,39.1200,85,98,86431
1.7742,0.4154,39.2800,85,98,86434
1.7791,0.4154,39.1900,85,98,86437
1.7986,0.4154,39.1900,85,98,86440
1.7937,0.4106,39.2200,85,98,86445
1.8280,0.4252,39.0300,85,98,86448
1.7937,0.4154,39.4100,85,98,86451
1.7791,0.4154,39.2200,85,98,86454
1.7595,0.4301,39.1900,85,98,86458
1.6667,0.4154,39.1900,85,98,86461
1.6080,0.4154,39.1200,85,98,86464
1.5152,0.4106,39.1900,85,98,86467
1.4858,0.4154,39.2200,85,98,86471
1.5640,0.4203,39.1600,85,98,86474
1.7351,0.4154,39.1900,85,98,86477
2.0821,0.4252,39.1200,85,98,86480
2.4633,0.4154,39.2200,85,98,86484
2.9570,0.4154,39.2200,85,98,86488
3.4653,0.4203,39.0900,85,98,86491
3.7732,0.4154,39.2200,85,98,86494
3.8563,0.4301,39.2200,85,98,86498
3.5533,0.4154,39.2200,85,98,86501
3.1623,0.4203,39.3200,85,98,86504
2.7566,0.4643,39.0600,85,98,86507
2.2630,0.4154,39.3500,85,98,86511
1.8915,0.4252,39.1200,85,98,86514
1.5689,0.4203,39.1900,85,98,86517
1.4223,0.4154,39.0900,85,98,86520
1.3930,0.4252,39.1600,85,98,86524
1.3881,0.4154,39.2200,85,98,86528
1.4614,0.4301,39.1900,85,98,86531
1.4761,0.4252,39.2200,85,98,86534
1.5249,0.4154,39.2500,85,98,86538
1.5836,0.4154,39.1600,85,98,86541
1.6031,0.4154,39.2200,85,98,86544
1.6618,0.4154,39.1900,85,98,86547
1.6471,0.4106,39.2200,85,98,86551
1.6716,0.4106,39.2200,85,98,86554
1.7107,0.4301,39.0900,85,98,86557
1.6960,0.4154,39.3200,85,98,86560
1.7302,0.4252,39.1200,85,98,86564
1.7155,0.4154,39.2200,85,98,86567
1.7253,0.4301,39.2200,85,98,86571
1.7595,0.4252,39.1600,85,98,86574
1.7498,0.4154,39.2200,85,98,86578
1.7742,0.4252,39.1200,85,98,86581
1.7595,0.4203,39.1900,85,98,86584
1.7693,0.4154,39.1900,85,98,86587
1.7937,0.4154,39.1600,85,98,86591
1.7937,0.4154,39.1900,85,98,86594
1.8231,0.4497,39.2200,85,98,86597
1.7986,0.4203,39.2200,85,98,86600
1.8084,0.4154,39.2800,85,98,86604
1.8475,0.4252,39.0900,85,98,86607
1.8280,0.4154,39.1900,85,98,86610
1.8622,0.4301,39.1200,85,98,86614
1.8426,0.4154,39.2200,85,98,86618
1.8573,0.4154,39.2200,85,98,86621
1.8915,0.4252,39.1200,85,98,86624
1.8768,0.4154,39.1900,85,98,86627
1.9062,0.4252,39.1900,85,98,86631
1.8768,0.4154,39.2500,85,98,86634
1.8866,0.4154,39.2800,85,98,86637
1.9062,0.4154,39.1600,85,98,86640
1.8915,0.4203,39.2200,85,98,86644
1.9257,0.4350,39.0900,85,98,86647
1.8964,0.4154,39.2200,85,98,86650
1.9013,0.4154,39.2200,85,98,86653
1.9453,0.4301,39.0900,85,98,86658
1.9306,0.4057,39.1900,85,98,86661
1.9501,0.4252,39.1600,85,98,86664
1.9355,0.4154,39.2500,85,98,86667
1.9453,0.4154,39.2200,85,98,86671
1.9795,0.4301,39.1600,85,98,86674
1.9648,0.4154,39.1900,85,98,86677
1.9990,0.4252,39.4100,85,98,86680
1.9795,0.4154,39.2200,85,98,86684
1.9892,0.3861,39.2200,85,98,86687
2.0137,0.4203,39.1600,85,98,86690
2.0088,0.4154,39.2200,85,98,86693
2.0528,0.4252,39.0900,85,98,86697
2.0186,0.4154,39.2200,85,98,86701
2.0186,0.4154,39.2200,85,98,86704
2.0577,0.4252,39.0600,85,98,86707
2.0235,0.4203,39.1900,85,98,86711
2.0479,0.4203,39.0600,85,98,86714
2.0235,0.4154,39.2200,85,98,86717
2.0283,0.4057,39.2200,85,98,86720
2.0577,0.4301,39.0900,85,98,86724
2.0381,0.4203,39.1900,85,98,86727
2.0577,0.4154,39.1600,85,98,86730
2.0283,0.4154,39.2200,85,98,86733
2.0283,0.4154,39.1900,85,98,86737
2.0528,0.4252,39.1600,85,98,86740
2.0235,0.4057,39.2200,85,98,86744
2.0235,0.4203,39.1600,85,98,86747
1.9795,0.4154,39.2200,85,98,86751
1.9599,0.4154,39.2200,85,98,86754
1.9697,0.4252,39.0600,85,98,86757
1.9159,0.4203,39.2200,85,98,86760
1.9062,0.4203,39.0900,85,98,86764
1.8622,0.4154,39.2200,85,98,86767
1.8426,0.4154,39.2200,85,98,86770
1.8377,0.4301,39.0900,85,98,86773
1.8035,0.4252,39.1900,85,98,86777
1.7937,0.4203,39.1600,85,98,86780
1.7644,0.4154,39.1900,85,98,86784
1.7449,0.4154,39.2200,85,98,86787
1.7693,0.4252,39.1600,85,98,86791
1.7400,0.4154,39.1900,85,98,86794
1.7546,0.4203,39.0600,85,98,86797
1.7351,0.4154,39.1900,85,98,86800
1.7351,0.4154,39.1900,85,98,86804
1.7986,0.4252,39.0600,85,98,86807
1.7595,0.4154,39.1900,85,98,86810
1.7742,0.4301,39.0600,85,98,86813
1.7644,0.4154,39.2800,85,98,86817
1.7742,0.4154,39.2200,85,98,86820
1.8133,0.4252,39.0900,85,98,86823
1.7986,0.4448,39.1900,85,98,86827
1.8231,0.4203,39.0900,85,98,86831
1.8084,0.4154,39.2200,85,98,86834
1.8035,0.4154,39.2200,85,98,86837
1.8426,0.4203,39.1600,85,98,86840
1.8280,0.4203,39.3500,85,98,86844
1.8524,0.4203,39.1200,85,98,86847
1.8377,0.4154,39.1900,85,98,86850
1.8426,0.4106,39.3200,85,98,86853
1.8866,0.4350,39.0600,85,98,86857
1.8622,0.4203,39.1600,85,98,86860
1.8817,0.4203,39.1900,85,98,86863
1.8671,0.4154,39.2200,85,98,86866
1.8671,0.4203,39.2500,85,98,86871
1.9013,0.4203,39.0600,85,98,86874
1.8817,0.4203,39.1900,85,98,86877
1.9159,0.4203,39.0900,85,98,86880
1.8719,0.4154,39.2200,85,98,86884
1.8671,0.4154,39.0900,85,98,86887
1.9013,0.4252,39.1900,85,98,86890
1.8768,0.4154,39.1900,85,98,86893
1.8964,0.4545,39.0900,85,98,86897
1.8768,0.4203,39.0600,85,98,86900
1.8719,0.3861,39.2200,85,98,86903
1.8964,0.4301,39.0600,85,98,86906
1.8573,0.4203,39.2200,85,98,86912
1.8426,0.4154,39.1900,85,98,86915
1.8573,0.4154,39.0900,85,98,86919
1.8182,0.4154,39.1900,85,98,86922
1.8133,0.4154,39.2500,85,98,86925
1.8182,0.4203,39.1200,85,98,86928
1.8133,0.4154,39.1900,85,98,86932
1.8377,0.4203,39.0900,85,98,86935
1.8133,0.4497,39.2200,85,98,86938
1.8231,0.4154,39.1900,85,98,86941
1.8622,0.4252,39.0900,85,98,86945
1.8377,0.4154,39.1900,85,98,86948
1.9013,0.4203,39.1900,85,98,86951
1.8475,0.4106,39.1600,85,98,86955
1.8524,0.4154,39.2200,85,98,86959
1.8817,0.4203,39.1600,85,98,86962
1.8671,0.4154,39.1900,85,98,86965
1.8915,0.4154,39.1200,85,98,86968
1.8573,0.4106,39.2800,85,98,86972
1.8573,0.4057,39.0900,85,98,86975
1.8671,0.4203,39.1600,85,98,86978
1.8475,0.4203,39.1900,85,98,86981
1.8817,0.4252,39.0900,85,98,86985
1.8475,0.4154,39.2200,85,98,86988
1.8524,0.4154,39.2200,85,98,86991
1.9208,0.4301,39.0900,85,98,86994
1.8524,0.4106,39.2200,85,98,86999
1.8866,0.4252,39.0600,85,98,87002
1.8622,0.4106,39.1900,85,98,87005
1.8671,0.4154,39.2800,85,98,87008
1.8964,0.4203,39.1200,85,98,87012
1.8817,0.4057,39.1900,85,98,87015
1.9159,0.4203,39.1600,85,98,87018
1.8817,0.4154,39.2200,85,98,87021
1.8866,0.4154,39.2200,85,98,87025
1.8915,0.4057,39.1600,85,98,87028
1.8915,0.4106,39.2200,85,98,87031
1.9355,0.4203,39.0900,85,98,87034
1.9208,0.4154,39.2800,85,98,87038
1.9453,0.4154,39.2200,85,98,87042
1.9941,0.4301,39.1200,85,98,87045
1.9990,0.4057,39.2200,85,98,87048
2.0186,0.4203,39.0900,85,98,87052
1.9990,0.4057,39.1900,85,98,87055
1.9990,0.4154,39.2200,85,98,87058
2.0235,0.4203,39.2200,85,98,87061
1.9941,0.4154,39.1900,85,98,87065
2.0137,0.4252,39.1200,85,98,87068
1.9453,0.4203,39.2200,85,98,87071
1.9208,0.4350,39.1600,85,98,87074
1.9110,0.4154,39.1600,85,98,87078
1.8768,0.4154,39.2200,85,98,87081
1.8817,0.4350,39.1200,85,98,87085
1.8377,0.4154,39.2200,85,98,87088
1.8280,0.4154,39.2200,85,98,87092
1.8524,0.4252,39.0900,85,98,87095
1.8182,0.4154,39.1900,85,98,87098
1.8377,0.4252,39.1200,85,98,87101
1.7986,0.4106,39.1900,85,98,87105
1.7986,0.4154,38.7400,85,98,87108
1.8133,0.4252,39.1900,85,98,87111
1.7840,0.4154,39.2200,85,98,87114
1.8084,0.4350,39.1900,85,98,87118
1.7742,0.4154,39.1900,85,98,87121
1.7693,0.4154,39.2200,85,98,87124
1.7840,0.4154,39.1200,85,98,87128
1.7742,0.4203,39.1900,85,98,87132
1.7986,0.4252,39.2200,85,98,87135
1.7742,0.4154,39.2200,85,98,87138
1.7742,0.3861,39.2200,85,98,87141
1.8084,0.4301,39.0900,85,98,87145
1.7840,0.4203,39.2200,85,98,87148
1.8084,0.4252,39.1200,85,98,87151
1.7840,0.4154,39.2200,85,98,87154
1.7840,0.4203,39.2200,85,98,87158
1.8133,0.4252,39.0900,85,98,87161
1.7986,0.4154,39.2800,85,98,87164
1.8182,0.4154,39.0900,85,98,87168
1.7937,0.4154,39.1200,85,98,87172
1.7840,0.4154,39.2200,85,98,87175
1.7644,0.4203,39.1600,85,98,87178
1.6911,0.4154,39.2200,85,98,87181
1.6325,0.4448,39.0900,85,98,87185
1.5298,0.4106,39.2200,85,98,87188
1.4761,0.4154,39.2200,85,98,87191
1.5249,0.4301,39.0900,85,98,87194
1.6569,0.4154,39.2200,85,98,87198
1.9599,0.4203,39.1900,85,98,87201
2.3216,0.4350,39.2800,85,98,87204
2.7957,0.4154,39.2200,85,98,87207
3.3480,0.4252,39.1200,85,98,87212
3.7146,0.4154,39.1900,85,98,87215
3.8905,0.4252,39.0900,85,98,87218
3.6608,0.4154,39.2200,85,98,87221
3.2991,0.4154,39.2200,85,98,87225
2.8739,0.4252,39.1900,85,98,87228
2.3949,0.4154,39.1200,85,98,87231
2.0137,0.4203,39.0900,85,98,87234
1.6764,0.4203,39.2200,85,98,87238
1.4761,0.4154,39.2500,85,98,87241
1.4223,0.4252,39.0600,85,98,87244
1.3881,0.4203,39.1600,85,98,87247
1.4370,0.4203,39.0900,85,98,87251
1.4565,0.4154,39.2200,85,98,87255
1.5103,0.4106,39.2500,85,98,87258
1.5689,0.4252,39.0600,85,98,87261
1.5836,0.4154,39.1900,85,98,87265
1.6227,0.4203,39.0900,85,98,87268
1.6178,0.4154,39.2200,85,98,87271
1.6373,0.4154,39.2500,85,98,87274
1.6764,0.4252,39.1600,85,98,87278
1.6667,0.4154,39.2800,85,98,87281
1.7155,0.4154,39.0600,85,98,87284
1.7058,0.4154,39.1600,85,98,87287
1.7155,0.4154,39.2200,85,98,87291
1.7546,0.4252,39.1200,85,98,87294
1.7351,0.4154,39.2500,85,98,87298
1.7595,0.4203,39.0900,85,98,87301
1.7449,0.4203,39.2200,85,98,87305
1.7546,0.4154,39.2200,85,98,87308
1.7889,0.4252,39.0900,85,98,87311
1.8035,0.4154,39.1900,85,98,87314
1.8035,0.4301,39.1200,85,98,87318
1.7889,0.4154,39.2500,85,98,87321
1.7937,0.4154,39.2200,85,98,87324
1.8182,0.4301,39.2500,85,98,87327
1.8084,0.4106,39.2200,85,98,87331
1.8377,0.4203,39.1200,85,98,87334
1.8182,0.4154,39.3200,85,98,87337
1.8280,0.4154,39.2200,85,98,87341
1.8915,0.4301,39.0600,85,98,87345
1.8377,0.4350,39.1900,85,98,87348
1.8622,0.4203,39.0900,85,98,87351
1.8426,0.4154,39.2200,85,98,87354
1.8475,0.4106,39.1900,85,98,87358
1.8719,0.4399,39.1200,85,98,87361
1.8622,0.4203,39.2200,85,98,87364
1.8817,0.4203,39.0900,85,98,87367
1.8622,0.4203,39.2500,85,98,87371
1.8671,0.4154,39.2200,85,98,87374
1.9013,0.4252,38.7400,85,98,87377
1.8866,0.4154,39.1900,85,98,87380
1.9159,0.4106,39.1200,85,98,87385
1.9013,0.4203,39.2200,85,98,87388
1.9110,0.4154,39.2500,85,98,87391
1.9550,0.4252,39.0300,85,98,87394
1.9501,0.4203,39.1900,85,98,87398
1.9746,0.4203,39.1200,85,98,87401
1.9697,0.4154,39.1900,85,98,87404
1.9795,0.4154,39.2200,85,98,87407
2.0528,0.4252,39.1600,85,98,87411
2.0039,0.4203,39.1900,85,98,87414
2.0235,0.4203,39.1200,85,98,87417
2.0332,0.4154,39.2200,85,98,87420
2.0088,0.4154,39.2200,85,98,87425
2.0528,0.4252,38.5800,85,98,87428
2.0577,0.4154,39.1900,85,98,87431
2.0626,0.4301,39.0900,85,98,87434
2.0528,0.4154,39.1900,85,98,87438
2.0528,0.4154,39.2200,85,98,87441
2.1114,0.4301,39.0300,85,98,87444
2.0723,0.4203,39.1600,85,98,87447
2.0821,0.4203,39.1200,85,98,87451
2.0626,0.4154,39.2200,85,98,87454
2.0772,0.4106,39.2200,85,98,87457
2.0919,0.4252,39.0900,85,98,87460
2.0479,0.4203,39.1900,85,98,87464
2.0381,0.4203,39.1200,85,98,87468
2.0039,0.4154,39.2200,85,98,87471
1.9795,0.4154,39.2800,85,98,87474
1.9990,0.4252,39.0900,85,98,87478
1.9453,0.4301,39.1600,85,98,87481
1.9208,0.4154,39.1900,85,98,87484
1.8866,0.4154,39.3500,85,98,87487
1.8573,0.4154,39.2200,85,98,87491
1.8866,0.4301,39.0300,85,98,87494
1.8231,0.4154,39.1600,85,98,87497
1.7986,0.4154,39.0900,85,98,87500
1.7742,0.4154,39.2200,85,98,87504
1.7644,0.4154,39.3500,85,98,87507
1.7986,0.4301,39.0900,85,98,87511
1.7644,0.4252,39.0000,85,98,87514
1.7595,0.4154,39.2200,85,98,87518
1.7498,0.4203,39.2200,85,98,87521
1.7400,0.4154,39.3500,85,98,87525
1.7351,0.4154,39.2500,85,98,87529
1.7693,0.4301,39.0900,85,98,87532
1.7351,0.4057,39.1900,85,98,87535
1.7595,0.4252,39.0900,85,98,87538
1.7351,0.4154,39.2200,85,98,87542
1.7400,0.3861,39.2200,85,98,87545
1.8084,0.4252,39.0900,85,98,87548
1.7742,0.4154,39.4400,85,98,87552
1.8084,0.4203,39.0900,85,98,87556
1.7937,0.4203,39.2200,85,98,87559
1.8035,0.4252,39.2500,85,98,87562
1.8377,0.4203,39.1900,85,98,87565
1.8377,0.4154,39.2200,85,98,87569
1.8719,0.4203,39.0600,85,98,87572
1.8573,0.4154,39.3200,85,98,87575
1.8671,0.4154,39.3800,85,98,87578
1.9159,0.4252,39.0600,85,98,87582
1.8866,0.4203,39.1900,85,98,87585
1.9110,0.4203,39.1600,85,98,87588
1.8964,0.4154,39.2500,85,98,87591
1.9013,0.4154,39.2200,85,98,87596
1.9355,0.4252,39.0900,85,98,87599
1.9159,0.4154,39.2200,85,98,87602
1.9501,0.4203,39.0600,85,98,87605
1.9208,0.4154,39.2200,85,98,87609
1.9208,0.4154,39.2200,85,98,87612
1.9501,0.4154,39.1200,85,98,87615
1.9306,0.4154,39.0900,85,98,87618
1.9746,0.4203,39.0600,85,98,87622
1.9501,0.4154,39.2200,85,98,87625
1.9257,0.4399,39.0300,85,98,87628
1.9648,0.4252,39.0600,85,98,87631
1.9306,0.4203,39.2500,85,98,87635
1.9453,0.4203,39.0900,85,98,87639
1.9208,0.4154,39.2500,85,98,87642
1.9208,0.4154,39.2200,85,98,87645
1.9501,0.4301,39.0900,85,98,87649
1.9208,0.4203,39.2800,85,98,87652
1.9355,0.4203,39.0900,85,98,87655
1.9062,0.4301,39.2500,85,98,87658
1.9013,0.4448,39.2200,85,98,87662
1.9306,0.4252,39.1200,85,98,87665
1.9013,0.4203,39.1900,85,98,87668
1.9110,0.4301,39.0900,85,98,87671
1.8866,0.4203,39.1900,85,98,87675
1.8817,0.4154,39.1900,85,98,87678
1.9159,0.4252,39.0600,85,98,87682
1.8866,0.4203,39.1900,85,98,87685
1.8964,0.4106,39.0900,85,98,87689
1.8817,0.4154,39.2200,85,98,87692
1.8817,0.4154,39.2200,85,98,87695
1.9110,0.4301,39.0900,85,98,87698
1.8915,0.4203,39.1600,85,98,87702
1.8964,0.4203,39.1200,85,98,87705
1.8866,0.4154,39.2200,85,98,87708
1.8768,0.4106,39.3200,85,98,87711
1.9159,0.4350,39.1200,85,98,87715
1.8817,0.4203,39.2500,85,98,87718
1.8915,0.4154,39.0900,85,98,87721
1.8622,0.4154,39.2200,85,98,87725
1.8573,0.4106,39.2200,85,98,87729
1.8915,0.4350,39.0300,85,98,87732
1.8573,0.4203,39.0900,85,98,87735
1.8671,0.4154,39.1200,85,98,87738
1.8524,0.4203,39.2200,85,98,87742
1.8475,0.4106,39.1900,85,98,87745
1.8964,0.4252,39.0600,85,98,87748
1.8817,0.4203,39.1900,85,98,87751
1.9013,0.4203,39.1200,85,98,87755
1.8866,0.4252,39.2200,85,98,87758
1.8915,0.4154,39.2200,85,98,87761
1.9355,0.4301,39.0000,85,98,87764
1.9062,0.4203,39.2200,85,98,87769
1.9062,0.4252,39.1200,85,98,87772
1.8915,0.4106,39.2200,85,98,87775
1.8915,0.4154,39.2500,85,98,87778
1.9501,0.4301,39.1200,85,98,87782
1.9404,0.4203,39.1900,85,98,87785
1.9648,0.4448,39.0900,85,98,87788
1.9795,0.4154,39.3200,85,98,87791
1.9941,0.4154,39.2200,85,98,87795
2.0479,0.4301,39.0900,85,98,87798
2.0332,0.4203,39.0600,85,98,87801
2.0332,0.4203,39.1200,85,98,87804
2.0186,0.4154,39.1900,85,98,87809
1.9990,0.4154,39.0600,85,98,87812
2.0283,0.4252,39.0900,85,98,87815
1.9599,0.4252,39.1600,85,98,87818
1.9306,0.4154,38.9600,85,98,87822
1.9013,0.4154,39.0900,85,98,87825
1.8719,0.4154,39.2200,85,98,87828
1.8964,0.4252,39.0300,85,98,87831
1.8524,0.4057,39.1600,85,98,87835
1.8280,0.4154,39.1200,85,98,87838
1.8182,0.4154,39.1600,85,98,87841
1.8035,0.4154,39.2200,85,98,87844
1.8524,0.4350,39.0600,85,98,87848
1.8133,0.4203,39.1600,85,98,87852
1.7937,0.4252,39.1600,85,98,87855
1.7742,0.4252,39.1600,85,98,87858
1.7595,0.4301,39.1900,85,98,87862
1.8035,0.4350,39.1200,85,98,87865
1.7644,0.4203,39.1900,85,98,87868
1.7644,0.4203,39.1200,85,98,87871
1.7595,0.4203,39.1900,85,98,87875
1.7498,0.4154,39.1600,85,98,87878
1.7986,0.4301,39.1200,85,98,87881
1.7644,0.4252,39.1900,85,98,87884
1.7889,0.4106,39.1200,85,98,87888
1.7498,0.4154,39.1900,85,98,87891
1.7449,0.4106,39.2500,85,98,87895
1.7937,0.4301,39.0600,85,98,87898
1.7644,0.4252,39.1200,85,98,87902
1.7595,0.4203,39.2200,85,98,87905
1.7546,0.4154,39.1900,85,98,87908
1.7498,0.4154,39.0900,85,98,87911
1.7986,0.4350,39.0900,85,98,87915
1.7693,0.4203,39.1900,85,98,87918
1.7595,0.4154,39.0000,85,98,87921
1.7204,0.4154,39.2200,85,98,87924
1.6716,0.4154,39.2200,85,98,87928
1.6178,0.4203,39.0600,85,98,87931
1.5249,0.4252,39.2500,85,98,87934
1.4663,0.4154,39.1200,85,98,87938
1.5005,0.4154,39.2200,85,98,87942
1.6618,0.4008,39.2200,85,98,87945
2.0186,0.4350,39.0600,85,98,87948
2.3949,0.4252,39.1200,85,98,87951
2.8543,0.4399,39.1600,85,98,87955
3.3431,0.4203,39.0900,85,98,87958
3.7097,0.4154,39.3200,85,98,87961
3.9003,0.4252,39.0300,85,98,87964
3.5973,0.4203,39.1900,85,98,87968
3.2063,0.4106,39.2200,85,98,87971
2.7517,0.4154,39.1900,85,98,87974
2.2874,0.4154,39.2200,85,98,87977
1.9501,0.4399,39.1200,85,98,87982
1.5982,0.4252,39.1200,85,98,87985
1.4125,0.4203,39.1200,85,98,87988
1.3490,0.4154,39.2200,85,98,87991
1.3490,0.4154,39.2200,85,98,87995
1.4321,0.4350,39.0600,85,98,87998
1.4418,0.4448,39.1600,85,98,88001
1.4761,0.4106,39.2200,85,98,88004
1.5103,0.4154,39.2500,85,98,88008
1.5298,0.4106,39.2200,85,98,88011
1.5982,0.4350,39.0300,85,98,88014
1.5787,0.4203,39.1600,85,98,88017
1.5885,0.4154,39.1600,85,98,88022
1.6080,0.4203,39.2200,85,98,88025
1.6471,0.4106,39.2200,85,98,88028
1.6813,0.4350,39.0000,85,98,88031
1.6618,0.4252,39.1900,85,98,88035
1.6716,0.4106,39.1600,85,98,88038
1.6911,0.4203,39.2200,85,98,88041
1.6911,0.4154,39.2500,85,98,88044
1.7595,0.4350,39.0300,85,98,88048
1.7351,0.4252,39.1900,85,98,88051
1.7302,0.4106,39.1600,85,98,88054
1.7644,0.4106,39.2200,85,98,88057
1.7449,0.4203,39.1900,85,98,88061
1.8133,0.4350,39.0000,85,98,88065
1.7840,0.4203,39.1600,85,98,88068
1.7840,0.4154,39.1600,85,98,88071
1.7986,0.4203,39.1900,85,98,88075
1.7986,0.4154,39.3200,85,98,88078
1.8622,0.4399,39.0300,85,98,88081
1.8280,0.4252,39.1200,85,98,88084
1.8084,0.4106,39.1900,85,98,88088
1.8133,0.4154,39.2500,85,98,88091
1.8035,0.4154,39.2200,85,98,88094
1.8964,0.4350,39.0000,85,98,88097
1.8328,0.4203,39.1200,85,98,88101
1.8280,0.4106,39.1900,85,98,88104
1.8377,0.4154,39.1900,85,98,88108
1.8426,0.4154,39.2200,85,98,88111
1.9062,0.4350,39.0000,85,98,88115
1.8719,0.4203,39.1900,85,98,88118
1.8768,0.4106,39.1900,85,98,88121
1.8915,0.4203,39.1900,85,98,88124
1.8817,0.4106,39.2200,85,98,88128
1.9501,0.4399,39.0000,85,98,88131
1.9892,0.4252,39.0900,85,98,88136
1.9404,0.4399,39.1600,85,98,88139
1.9550,0.4203,39.1200,85,98,88142
1.9257,0.4057,39.2200,85,98,88145
1.9257,0.4154,39.1900,85,98,88150
1.9599,0.4350,39.1600,85,98,88153
1.9355,0.4154,39.2200,85,98,88156
1.9550,0.4203,38.5800,85,98,88159
1.9404,0.4154,39.1900,85,98,88163
1.9697,0.4106,39.2200,85,98,88166
1.9892,0.4252,39.0900,85,98,88169
1.9697,0.4203,39.1900,85,98,88172
1.9795,0.4203,39.1200,85,98,88176
1.9795,0.4154,39.2200,85,98,88179
1.9746,0.4203,39.2200,85,98,88182
2.0186,0.4252,39.1200,85,98,88185
1.9990,0.4203,39.1900,85,98,88189
2.0088,0.4154,39.1200,85,98,88193
1.9892,0.4154,39.1900,85,98,88196
1.9795,0.4154,39.3200,85,98,88199
2.0039,0.4252,39.1200,85,98,88203
1.9550,0.4252,39.1900,85,98,88206
1.9501,0.4154,39.1600,85,98,88209
1.9062,0.4154,39.2500,85,98,88212
1.8768,0.4154,39.2200,85,98,88216
1.8866,0.4252,39.0600,85,98,88219
1.8280,0.4057,39.1600,85,98,88222
1.8084,0.4252,39.1200,85,98,88225
1.7742,0.4154,39.1600,85,98,88229
1.7498,0.4154,39.2200,85,98,88232
1.7644,0.4301,39.0900,85,98,88236
1.7644,0.4057,39.2200,85,98,88239
1.7302,0.4203,39.0900,85,98,88243
1.7058,0.4154,39.2200,85,98,88246
1.7009,0.4154,39.2200,85,98,88249
1.7302,0.4301,39.1200,85,98,88252
1.7107,0.4301,39.1600,85,98,88256
1.7107,0.4154,39.1200,85,98,88259
1.6960,0.4154,39.2200,85,98,88262
1.6862,0.4154,39.2800,85,98,88265
1.7546,0.4301,39.0600,85,98,88269
1.7155,0.4497,39.1600,85,98,88272
1.7253,0.4203,39.0900,85,98,88275
1.7253,0.4154,39.1900,85,98,88279
1.7302,0.4154,39.2200,85,98,88283
1.7791,0.4301,39.0900,85,98,88286
1.7595,0.4252,39.1600,85,98,88289
1.7742,0.4154,39.1200,85,98,88292
1.7644,0.4154,39.1900,85,98,88296
1.7644,0.4154,39.2200,85,98,88299
1.8133,0.4301,39.1200,85,98,88302
1.7937,0.4203,39.1600,85,98,88305
1.8084,0.4203,39.1200,85,98,88309
1.8035,0.4154,38.8100,85,98,88312
1.7986,0.4057,39.2200,85,98,88315
1.8524,0.4252,39.0300,85,98,88318
1.8328,0.4203,39.1600,85,98,88323
1.8377,0.4154,39.1600,85,98,88326
1.8328,0.4154,39.2500,85,98,88329
1.8280,0.4057,39.2500,85,98,88332
1.8719,0.4252,39.1600,85,98,88336
1.8524,0.4203,39.1600,85,98,88339
1.8573,0.4154,39.1200,85,98,88342
1.8524,0.4203,39.2200,85,98,88345
1.8524,0.4399,39.2200,85,98,88349
1.8964,0.4252,39.0600,85,98,88352
1.8719,0.4203,39.1600,85,98,88355
1.8719,0.4301,39.1200,85,98,88358
1.8573,0.4203,39.2200,85,98,88363
1.8573,0.4154,39.3500,85,98,88366
1.9013,0.4301,39.0600,85,98,88369
1.8768,0.4252,39.1600,85,98,88372
1.8671,0.4203,39.0900,85,98,88376
1.8573,0.4154,39.4400,85,98,88379
1.8524,0.4154,39.2200,85,98,88382
1.8915,0.4301,39.0900,85,98,88385
1.8671,0.4154,39.1600,85,98,88389
1.8671,0.4154,39.1200,85,98,88392
1.8573,0.4154,39.0900,85,98,88395
1.8426,0.4154,39.2200,85,98,88398
1.8964,0.4301,39.0900,85,98,88402
1.8622,0.4203,39.1600,85,98,88406
1.8622,0.4154,39.1600,85,98,88409
1.8524,0.4154,39.1900,85,98,88412
1.8524,0.4154,39.2200,85,98,88416
1.8964,0.4301,39.0600,85,98,88419
1.8719,0.4252,39.1600,85,98,88422
1.8671,0.4154,39.0900,85,98,88425
