ecg,gsr,temp,hr,spo2,timest
1.7644,0.2639,40.1000,0,0,62338
1.7693,0.2737,40.0600,0,0,62341
1.7546,0.2737,40.0300,0,0,62344
1.7937,0.2737,39.8000,0,0,62347
1.7595,0.2933,39.9300,0,0,62350
1.7742,0.2688,40.0300,0,0,62354
1.8035,0.2884,39.9300,0,0,62357
1.8231,0.2639,40.0000,0,0,62360
1.9159,0.2737,39.8900,0,0,62363
1.9941,0.2688,40.0300,0,0,62366
2.1505,0.2786,40.0300,0,0,62369
2.4047,0.2786,39.8300,0,0,62372
2.6149,0.2737,40.1000,0,0,62376
2.8446,0.2639,40.0000,0,0,62380
3.0499,0.2737,40.0300,0,0,62383
3.1867,0.2590,40.0300,0,0,62386
3.2600,0.2786,39.8600,0,0,62389
3.0352,0.2737,40.0300,0,0,62392
2.7859,0.2688,39.8900,0,0,62395
2.5024,0.2835,39.9600,0,0,62399
2.1212,0.2688,40.0300,0,0,62402
1.8524,0.2786,39.8900,0,0,62405
1.5787,0.2688,40.2000,0,0,62408
1.4272,0.2737,40.0300,0,0,62411
1.3001,0.2786,39.8900,0,0,62414
1.2072,0.2835,40.0300,0,0,62417
1.1584,0.2688,40.0000,0,0,62422
1.1486,0.3079,40.0300,0,0,62425
1.1681,0.2688,40.0300,0,0,62428
1.2561,0.2786,39.7700,0,0,62431
1.3099,0.2737,39.9300,0,0,62434
1.3587,0.2688,40.0600,0,0,62437
1.4321,0.2786,40.0000,0,0,62440
1.4663,0.2688,40.0600,0,0,62443
1.5298,0.2737,39.8900,0,0,62447
1.5494,0.2688,40.0300,0,0,62450
1.5934,0.2688,40.0300,0,0,62453
1.6373,0.2884,39.8900,0,0,62456
1.6373,0.2688,40.0300,0,0,62459
1.6520,0.2688,40.0300,0,0,62462
1.6422,0.2737,40.0300,0,0,62466
1.6569,0.2688,39.9600,0,0,62470
1.7498,0.2933,39.8300,0,0,62473
1.7058,0.2786,39.9300,0,0,62476
1.7107,0.2688,40.0600,0,0,62479
1.7253,0.2786,39.8600,0,0,62482
1.6911,0.2737,40.0300,0,0,62485
1.7302,0.2688,39.8300,0,0,62488
1.7058,0.2688,40.0000,0,0,62492
1.7155,0.2688,39.9300,0,0,62495
1.7595,0.2786,39.9300,0,0,62498
1.7253,0.2639,40.0000,0,0,62501
1.7449,0.2688,39.8900,0,0,62504
1.7204,0.2786,40.0300,0,0,62508
1.7302,0.2688,39.8900,0,0,62511
1.7937,0.2884,39.8600,0,0,62515
1.7644,0.2688,39.8900,0,0,62518
1.7595,0.2639,40.0300,0,0,62521
1.7644,0.2688,40.0300,0,0,62524
1.7546,0.3030,40.0300,0,0,62527
1.8328,0.2737,39.8600,0,0,62530
1.7937,0.2688,39.8900,0,0,62533
1.8280,0.2639,40.0300,0,0,62537
1.8182,0.3030,39.8900,0,0,62540
1.8084,0.2737,40.0300,0,0,62543
1.8182,0.2737,39.8900,0,0,62546
1.7937,0.2737,40.0000,76,98,62550
1.8182,0.2737,40.0300,76,98,62555
1.8328,0.2737,40.0300,76,98,62558
1.8622,0.2786,39.8900,76,98,62561
1.8524,0.2688,40.1300,76,98,62565
1.8915,0.2737,39.8600,76,98,62568
1.8915,0.2737,39.9300,76,98,62571
1.8768,0.2688,40.0000,76,98,62574
1.9110,0.2737,40.0000,76,98,62578
1.9257,0.2688,40.0300,76,98,62581
1.9697,0.2835,39.8600,76,98,62584
1.9453,0.2639,40.0300,76,98,62587
1.9550,0.2688,40.0300,76,98,62592
1.9697,0.2737,39.8900,76,98,62595
1.9599,0.2688,40.1000,76,98,62598
2.0137,0.2688,39.8900,76,98,62601
1.9941,0.2737,40.0000,76,98,62605
1.9941,0.2688,39.8900,76,98,62608
2.0088,0.2786,39.9600,76,98,62611
1.9648,0.2737,40.0300,76,98,62614
1.9990,0.2981,39.8600,76,98,62618
1.9648,0.2688,40.0000,76,98,62621
1.9550,0.2493,40.0600,76,98,62624
1.9648,0.2737,39.9300,76,98,62627
1.9208,0.2688,40.0000,76,98,62631
1.9208,0.2688,39.8900,76,98,62635
1.8671,0.2688,40.0000,76,98,62638
1.8475,0.2688,39.9600,76,98,62641
1.8377,0.2737,39.9600,76,98,62645
1.7986,0.2737,40.0300,76,98,62648
1.7889,0.2884,39.9300,76,98,62651
1.7302,0.2933,40.0600,76,98,62654
1.7155,0.2688,40.0000,76,98,62658
1.7302,0.2688,39.8900,76,98,62661
1.6764,0.2688,40.0300,76,98,62664
1.6911,0.2688,39.9300,76,98,62667
1.6422,0.2639,40.0600,76,98,62671
1.6276,0.2737,40.0000,76,98,62674
1.6471,0.2835,39.9600,76,98,62678
1.6276,0.2884,39.9300,76,98,62681
1.6569,0.2688,39.9300,76,98,62685
1.6080,0.2688,40.0300,76,98,62688
1.6129,0.2786,40.0000,76,98,62691
1.6129,0.2688,40.2000,76,98,62694
1.6129,0.2688,40.0300,76,98,62698
1.6520,0.2688,39.8900,76,98,62701
1.6325,0.2884,40.0000,76,98,62704
1.6373,0.2688,40.1300,76,98,62707
1.6569,0.2786,39.8900,76,98,62711
1.6276,0.2688,40.0300,76,98,62714
1.6618,0.2737,39.9300,76,98,62717
1.6471,0.2639,40.0000,76,98,62721
1.6813,0.2737,40.0300,76,98,62725
1.6911,0.2737,39.9300,76,98,62728
1.6618,0.2688,40.0300,76,98,62731
1.6862,0.2737,39.8900,76,98,62734
1.6618,0.2688,40.0300,76,98,62738
1.6764,0.2639,40.0300,76,98,62741
1.7009,0.2688,39.8900,76,98,62744
1.7302,0.2737,40.0000,76,98,62747
1.7302,0.2786,39.8900,76,98,62751
1.7058,0.2688,40.0000,76,98,62754
1.7253,0.2737,40.0300,76,98,62757
1.7644,0.2835,39.8900,76,98,62760
1.7449,0.2639,40.0000,76,98,62765
1.7742,0.2786,39.9300,76,98,62768
1.7400,0.2688,40.0000,76,98,62771
1.7400,0.2688,40.0300,76,98,62774
1.7644,0.2786,39.9600,76,98,62777
1.7644,0.2688,40.0000,76,98,62781
1.7937,0.2786,39.8900,76,98,62784
1.7546,0.2688,40.0300,76,98,62787
1.7546,0.2688,40.0300,76,98,62790
1.7693,0.2688,40.0000,76,98,62794
1.7644,0.2688,40.0600,76,98,62797
1.8035,0.2786,39.8900,76,98,62800
1.7791,0.2737,40.0300,76,98,62803
1.7937,0.2688,40.0300,76,98,62808
1.8133,0.2786,39.9600,76,98,62811
1.7693,0.2688,40.0000,76,98,62814
1.7986,0.2737,39.9300,76,98,62817
1.7791,0.2688,40.0300,76,98,62821
1.7791,0.2590,40.0000,76,98,62824
1.8035,0.2835,39.8900,76,98,62827
1.7742,0.2688,40.0300,76,98,62830
1.8035,0.2737,39.8900,76,98,62834
1.7449,0.2933,40.0000,76,98,62837
1.7546,0.2688,40.0000,76,98,62840
1.7840,0.2688,40.0000,76,98,62843
1.7693,0.2737,40.0000,76,98,62848
1.7840,0.2688,39.8900,76,98,62851
1.7546,0.2688,40.0300,76,98,62854
1.7595,0.2688,40.0300,76,98,62857
1.7986,0.2786,39.3200,76,98,62861
1.7644,0.2688,40.0300,76,98,62864
1.8133,0.2737,39.9300,76,98,62867
1.7498,0.2737,40.0300,76,98,62870
1.7449,0.2688,40.0300,76,98,62874
1.7742,0.2786,39.8600,76,98,62877
1.7693,0.2737,40.0300,76,98,62880
1.7937,0.2737,39.9600,76,98,62883
1.7693,0.2688,40.0300,76,98,62887
1.7742,0.2493,40.0300,76,98,62891
1.7742,0.2786,40.0000,76,98,62894
1.7595,0.2688,40.0000,76,98,62897
1.7889,0.2737,39.8600,76,98,62901
1.7742,0.2688,40.0300,76,98,62904
1.7840,0.2688,39.9600,76,98,62907
1.8182,0.2688,39.8900,76,98,62910
1.7742,0.2737,40.0000,76,98,62914
1.7986,0.2737,39.8900,76,98,62917
1.7889,0.2688,40.0300,76,98,62920
1.7937,0.2590,40.0300,76,98,62923
1.8231,0.2835,39.9300,76,98,62927
1.7937,0.2737,40.0000,76,98,62930
1.8035,0.2688,39.9300,76,98,62934
1.7791,0.2737,40.0300,76,98,62937
1.7889,0.2933,40.0300,76,98,62941
1.8231,0.2786,39.9600,76,98,62944
1.8035,0.2688,40.0000,76,98,62947
1.8182,0.2981,39.8900,76,98,62950
1.7889,0.2639,40.0300,76,98,62954
1.7986,0.2688,40.0300,76,98,62957
1.8377,0.2786,39.8900,76,98,62960
1.8377,0.2688,40.0000,76,98,62963
1.8280,0.2737,39.9300,76,98,62967
1.7986,0.2688,40.0600,76,98,62970
1.7889,0.2639,40.0300,76,98,62973
1.8182,0.2688,39.8900,76,98,62977
1.8084,0.2737,40.0300,76,98,62981
1.8280,0.2688,39.9300,76,98,62984
1.7986,0.2639,40.1000,76,98,62987
1.7937,0.2688,40.1000,76,98,62990
1.8182,0.2786,40.0300,76,98,62994
1.7986,0.2737,40.0000,76,98,62997
1.8182,0.2688,39.9300,76,98,63000
1.8133,0.2688,40.0600,76,98,63003
1.8182,0.2688,40.0300,76,98,63007
1.8426,0.2737,39.8300,76,98,63010
1.7986,0.2737,40.1000,76,98,63013
1.8133,0.2688,39.9600,76,98,63016
1.8084,0.2688,40.0300,76,98,63021
1.8133,0.2688,40.0300,76,98,63024
1.8573,0.2786,39.8900,76,98,63027
1.8426,0.2688,39.9600,76,98,63030
1.8475,0.2786,39.8900,76,98,63034
1.8475,0.2688,40.1300,76,98,63037
1.8671,0.2688,40.0300,76,98,63040
1.9257,0.2786,39.9300,76,98,63043
1.9110,0.2835,40.0000,76,98,63047
1.9257,0.2688,39.9300,76,98,63050
1.9110,0.2688,40.0300,76,98,63053
1.9453,0.2590,40.0600,76,98,63056
1.9844,0.2786,39.9300,76,98,63060
1.9599,0.2737,40.0300,76,98,63064
1.9746,0.2737,39.8900,76,98,63067
1.9892,0.2737,40.0300,76,98,63070
1.9453,0.2688,40.0000,76,98,63074
1.9844,0.2786,39.8900,76,98,63077
1.9844,0.2786,39.9600,76,98,63080
1.9550,0.2688,39.9300,76,98,63083
1.9110,0.2737,40.0300,76,98,63087
1.8817,0.2688,40.0300,76,98,63090
1.9257,0.2786,39.9300,76,98,63093
1.8377,0.2737,39.9600,76,98,63096
1.8280,0.2688,40.0000,76,98,63100
1.7986,0.2737,40.0300,76,98,63104
1.7791,0.2737,40.1000,76,98,63107
1.7937,0.2786,39.8600,76,98,63110
1.7351,0.2737,40.0000,76,98,63114
1.7253,0.2737,39.9300,76,98,63117
1.7546,0.2688,40.0300,76,98,63120
1.7204,0.2737,40.0300,76,98,63123
1.7595,0.2786,39.9600,76,98,63127
1.7204,0.2688,39.9600,76,98,63130
1.7155,0.2737,39.9300,76,98,63133
1.7058,0.2688,40.0600,76,98,63136
1.7155,0.2688,40.0300,76,98,63140
1.7595,0.2786,39.8900,76,98,63143
1.7351,0.2786,40.0600,76,98,63147
1.7351,0.2688,40.0000,76,98,63150
1.7204,0.2688,40.0300,76,98,63154
1.7204,0.2688,40.0300,76,98,63157
1.7742,0.2786,39.8600,76,98,63160
1.8622,0.2786,39.9300,76,98,63165
1.9501,0.2688,40.0000,76,98,63168
2.1310,0.2737,39.9600,76,98,63171
2.3167,0.2737,40.0000,76,98,63175
2.5660,0.2493,40.0000,76,98,63178
2.8201,0.2737,40.0000,76,98,63181
3.0352,0.2737,40.0300,76,98,63184
3.2405,0.2737,39.5700,76,98,63188
3.2454,0.2688,40.1000,76,98,63192
3.1232,0.2688,40.0300,76,98,63195
2.9032,0.2884,39.8900,76,98,63198
2.5171,0.2688,40.0000,76,98,63202
2.2141,0.2737,39.8600,76,98,63205
1.8866,0.2737,40.0000,76,98,63208
1.6422,0.2688,40.0300,76,98,63211
1.4761,0.2786,39.8600,76,98,63215
1.3196,0.2688,40.0300,76,98,63218
1.2512,0.2737,39.8900,76,98,63221
1.2023,0.2688,40.0000,76,98,63224
1.2317,0.2688,40.0600,76,98,63228
1.3148,0.2737,39.9600,76,98,63232
1.3587,0.2933,40.1000,76,98,63235
1.4418,0.2737,39.9600,76,98,63238
1.4809,0.2688,40.0000,76,98,63242
1.5689,0.2737,40.0300,76,98,63245
1.6325,0.2786,39.8600,76,98,63248
1.6471,0.2688,40.0000,76,98,63251
1.7009,0.2688,39.8900,76,98,63255
1.6862,0.2737,40.1000,76,98,63258
1.6960,0.2688,40.0600,76,98,63261
1.7498,0.2786,39.8900,76,98,63264
1.7400,0.2737,40.0000,76,98,63268
1.7742,0.2737,39.9600,76,98,63271
1.7644,0.2688,40.0300,76,98,63275
1.7546,0.2737,40.0300,76,98,63278
1.7840,0.3275,39.9300,76,98,63282
1.7693,0.2688,40.1600,76,98,63285
1.7937,0.2688,39.8900,76,98,63288
1.7889,0.2688,40.0300,76,98,63291
1.7889,0.2933,40.0600,76,98,63295
1.8182,0.2786,39.8600,76,98,63298
1.7742,0.2688,40.0300,76,98,63301
1.8084,0.2786,39.8600,76,98,63304
1.7937,0.2688,39.9600,76,98,63308
1.8084,0.2688,40.0600,76,98,63311
1.8475,0.2786,39.8900,76,98,63314
1.8133,0.2688,40.0000,76,98,63318
1.8328,0.2688,39.9600,76,98,63322
1.8182,0.2688,40.0300,76,98,63325
1.8475,0.2493,40.0600,76,98,63328
1.8817,0.2737,39.9600,76,98,63331
1.8622,0.2737,39.2800,76,98,63335
1.8817,0.2737,39.9300,76,98,63338
1.8573,0.2737,40.0600,76,98,63341
1.8671,0.2933,40.1000,76,98,63344
1.9159,0.2884,39.7300,76,98,63348
1.9013,0.2688,40.0300,76,98,63351
1.9404,0.2737,39.8900,76,98,63354
1.9110,0.2688,40.1000,76,98,63357
1.9208,0.2688,40.0300,76,98,63362
1.9648,0.2786,39.8900,76,98,63365
1.9746,0.2737,39.9600,76,98,63368
1.9941,0.2737,39.8900,76,98,63371
1.9746,0.2688,40.1000,76,98,63375
1.9795,0.2688,40.0600,76,98,63378
2.0137,0.2786,40.0600,76,98,63381
1.9990,0.2688,40.0000,76,98,63384
2.0430,0.2737,39.9300,76,98,63388
2.0235,0.2786,40.0300,76,98,63391
2.0430,0.2688,40.0300,76,98,63394
2.0919,0.2737,39.8600,76,98,63397
2.0528,0.2835,40.1000,76,98,63401
2.0772,0.2688,39.9300,76,98,63405
2.0968,0.2737,40.0300,76,98,63408
2.0821,0.2688,40.1300,76,98,63411
2.1310,0.2786,39.8600,76,98,63414
2.0968,0.2737,39.9600,76,98,63418
2.0772,0.2688,39.4400,76,98,63421
2.0479,0.2688,40.0300,76,98,63424
2.0479,0.2590,40.0300,76,98,63427
2.0968,0.2835,39.8900,76,98,63431
2.0870,0.2737,39.9600,76,98,63434
2.0283,0.2688,39.8600,76,98,63437
2.0039,0.2688,40.0000,76,98,63440
1.9844,0.2688,40.0300,76,98,63444
2.0186,0.2786,39.8600,76,98,63448
1.9599,0.2737,40.0000,76,98,63451
1.9355,0.2688,39.9300,76,98,63454
1.8964,0.2884,40.0300,76,98,63458
1.8573,0.2688,40.0000,76,98,63461
1.8768,0.2786,39.8900,76,98,63464
1.8280,0.2835,39.9300,76,98,63467
1.7937,0.2688,39.8900,76,98,63471
1.7644,0.2688,40.0300,76,98,63474
1.7400,0.2688,40.0600,76,98,63477
1.7644,0.2835,39.8900,76,98,63480
1.7155,0.2786,40.0300,76,98,63484
1.7058,0.2688,40.0000,76,98,63488
1.7107,0.2688,40.0000,76,98,63491
1.6960,0.2884,40.0600,76,98,63494
1.7351,0.2835,39.8300,76,98,63498
1.6813,0.2737,40.0000,76,98,63501
1.6764,0.2737,40.0000,76,98,63504
1.6862,0.2688,40.1300,76,98,63507
1.6911,0.2688,40.0300,76,98,63511
1.7449,0.2786,39.8600,76,98,63514
1.7107,0.2737,39.9600,76,98,63517
1.7009,0.2639,39.9300,76,98,63520
1.7058,0.2737,40.0000,76,98,63524
1.7107,0.2493,40.0300,76,98,63527
1.7791,0.2884,39.8300,76,98,63531
1.7546,0.2786,40.0000,76,98,63534
1.7400,0.2639,39.9600,76,98,63538
1.7351,0.2737,40.0300,76,98,63541
1.7400,0.2688,39.9300,76,98,63544
1.7986,0.2884,39.8900,76,98,63547
1.7595,0.2737,40.0000,76,98,63551
1.7595,0.2786,39.9600,76,98,63554
1.7546,0.2737,39.2500,76,98,63557
1.7351,0.2688,40.0600,76,98,63560
1.7986,0.2884,39.8600,76,98,63564
1.7791,0.2884,39.9600,76,98,63567
1.7889,0.2639,40.0600,76,98,63570
1.7889,0.2737,40.0000,76,98,63574
1.7791,0.2590,40.0300,76,98,63578
1.8328,0.2884,39.8600,76,98,63581
1.7937,0.2786,39.9300,76,98,63584
1.7986,0.2590,40.0000,76,98,63587
1.7986,0.2786,40.0300,76,98,63591
1.7937,0.2688,40.0000,76,98,63594
1.8573,0.2688,39.8300,76,98,63597
1.7840,0.2737,39.9600,76,98,63600
1.7742,0.2639,40.0000,76,98,63604
1.7889,0.2688,40.0000,76,98,63607
1.7889,0.2737,40.0600,76,98,63610
1.8524,0.2884,39.8000,76,98,63613
1.8084,0.2737,40.0600,76,98,63618
1.8182,0.2590,40.0000,76,98,63621
1.7937,0.2737,39.9600,76,98,63624
1.7889,0.2688,40.0600,76,98,63627
1.8524,0.2884,39.8300,76,98,63631
1.8035,0.2786,39.9300,76,98,63634
1.7791,0.2639,40.0600,76,98,63637
1.7693,0.2688,40.0600,76,98,63640
1.7595,0.2688,40.0600,76,98,63644
1.8084,0.2981,39.7700,76,98,63647
1.7693,0.2688,39.9600,76,98,63650
1.7644,0.2639,40.0000,76,98,63653
1.7693,0.2688,40.0000,76,98,63657
1.7400,0.2835,40.0000,76,98,63661
1.7840,0.2884,39.7700,76,98,63664
1.7595,0.2688,39.8900,76,98,63667
1.7644,0.2981,40.0000,76,98,63671
1.7693,0.2737,40.0300,76,98,63674
1.7595,0.2688,40.0600,76,98,63677
1.8182,0.2933,39.7700,76,98,63680
1.7693,0.2786,39.9300,76,98,63684
1.7644,0.2639,39.9600,76,98,63687
1.7791,0.2737,40.1300,76,98,63690
1.7791,0.2688,40.0300,76,98,63693
1.8231,0.2981,39.8000,76,98,63697
1.7644,0.2688,39.9600,76,98,63700
1.7546,0.2639,39.9300,76,98,63704
1.7644,0.2737,40.0300,76,98,63707
1.7595,0.2639,40.1000,76,98,63711
1.8133,0.2884,39.7300,76,98,63714
1.7693,0.2884,39.0900,76,98,63717
1.7595,0.2639,40.0000,76,98,63720
1.7546,0.2835,40.0000,76,98,63724
1.7595,0.2688,40.0000,76,98,63727
1.8231,0.2884,39.8300,76,98,63730
1.8133,0.2737,39.9300,76,98,63733
1.7693,0.2590,40.0300,76,98,63737
1.7644,0.2688,40.0300,76,98,63740
1.7644,0.2688,40.0300,76,98,63744
1.8280,0.2933,39.8300,76,98,63747
1.7840,0.2884,39.9600,76,98,63751
1.7840,0.2639,40.0300,76,98,63754
1.7889,0.2688,40.0000,76,98,63757
1.7693,0.2981,40.0300,76,98,63760
1.8280,0.2835,39.7300,76,98,63764
1.7986,0.2688,39.8900,76,98,63767
1.8035,0.2737,40.0600,76,98,63770
1.8084,0.2737,40.1000,76,98,63773
1.7693,0.2737,40.0300,76,98,63777
1.7644,0.2688,40.0600,76,98,63780
1.7889,0.2688,39.8900,76,98,63784
1.7400,0.2688,40.0000,76,98,63788
1.7400,0.2688,39.9300,76,98,63791
1.7351,0.2688,40.0300,76,98,63794
1.7400,0.2639,40.0300,76,98,63798
1.7791,0.2786,39.8600,76,98,63801
1.7546,0.2786,39.9600,76,98,63804
1.7400,0.2737,39.9300,76,98,63807
1.7253,0.2786,40.1000,76,98,63811
1.7351,0.2688,39.9300,76,98,63814
1.7840,0.2835,39.9600,76,98,63817
1.7546,0.2737,39.9600,76,98,63820
1.7498,0.2737,39.9300,76,98,63824
1.7302,0.3030,40.0300,76,98,63827
1.7351,0.2688,40.0300,76,98,63831
1.7840,0.2786,39.8600,76,98,63834
1.7742,0.2737,40.0000,76,98,63838
1.7742,0.2688,40.1600,76,98,63841
1.7546,0.2688,40.0300,76,98,63844
1.7889,0.2688,40.0300,76,98,63847
1.7986,0.2737,39.8900,76,98,63851
1.7840,0.2786,39.9300,76,98,63854
1.7986,0.2688,39.9600,76,98,63857
1.7889,0.2737,40.0300,76,98,63860
1.7889,0.2590,40.0300,76,98,63864
1.8377,0.2835,40.0000,76,98,63867
1.8182,0.2688,39.9600,76,98,63870
1.8280,0.2786,39.9300,76,98,63874
1.8426,0.3128,40.0300,76,98,63878
1.8524,0.2688,40.0300,76,98,63881
1.8964,0.2786,39.8300,76,98,63884
1.9062,0.2737,40.0000,76,98,63887
1.8768,0.2688,39.9600,76,98,63891
1.8817,0.2688,40.0000,76,98,63894
1.8915,0.2786,40.0600,76,98,63897
1.9501,0.2884,39.8300,76,98,63900
1.9110,0.2786,39.9300,76,98,63904
1.9306,0.2639,40.0000,76,98,63907
1.8915,0.2639,40.0300,76,98,63910
1.8866,0.2688,40.0300,76,98,63913
1.9355,0.2884,39.8600,76,98,63918
1.8866,0.2688,40.0000,76,98,63921
1.8524,0.2786,39.9300,76,98,63924
1.8182,0.2639,40.0000,76,98,63927
1.7937,0.2688,40.0600,76,98,63931
1.8182,0.2688,39.8600,76,98,63934
1.7791,0.2737,39.9600,76,98,63937
1.7546,0.2786,39.9300,76,98,63940
1.7302,0.2688,40.0300,76,98,63944
1.7302,0.2493,40.0300,76,98,63947
1.7351,0.2933,39.8300,76,98,63950
1.7058,0.2786,40.0000,76,98,63953
1.7058,0.2737,39.9600,76,98,63958
1.7058,0.2688,40.0300,76,98,63961
1.6960,0.2639,40.1000,76,98,63964
1.7400,0.2884,39.9300,76,98,63967
1.7009,0.2737,39.9600,76,98,63971
1.7107,0.2639,40.4300,76,98,63974
1.7204,0.2688,39.7700,76,98,63977
1.7253,0.2688,40.0300,76,98,63980
1.7742,0.3030,39.8600,76,98,63984
1.7253,0.3079,40.0000,76,98,63987
1.7253,0.2639,39.9300,76,98,63990
1.7351,0.2688,40.0000,76,98,63993
1.7351,0.2884,40.0600,76,98,63997
1.7937,0.2884,39.8300,76,98,64001
1.7693,0.2786,39.9600,76,98,64004
1.7986,0.2688,39.9600,76,98,64007
1.8622,0.2688,40.2600,76,98,64011
1.9892,0.2688,40.2000,76,98,64014
2.2385,0.2884,39.8300,76,98,64017
2.4145,0.2835,40.0000,76,98,64020
2.6540,0.2639,40.0600,76,98,64024
2.9032,0.2688,40.0000,76,98,64027
3.0987,0.2933,40.0300,76,98,64030
3.3236,0.2884,39.8000,76,98,64033
3.2258,0.2737,39.9600,76,98,64037
3.0303,0.2590,40.0600,76,98,64040
2.7419,0.2737,40.0000,76,98,64044
2.3803,0.2639,40.0300,76,98,64047
2.1114,0.2884,39.8600,76,98,64050
1.7791,0.2688,39.9300,76,98,64054
1.5591,0.2639,40.0300,76,98,64057
1.3832,0.2688,40.0600,76,98,64060
1.2610,0.2688,40.2600,76,98,64063
1.2317,0.2933,39.7700,76,98,64067
1.1877,0.2737,39.9600,76,98,64070
1.2170,0.2639,40.0000,76,98,64073
1.2659,0.2737,40.0300,76,98,64076
1.3392,0.2737,40.0300,76,98,64080
1.4370,0.2835,39.8000,76,98,64083
1.4516,0.2688,40.0600,76,98,64087
1.5005,0.2639,40.0600,76,98,64090
1.5445,0.2737,40.0600,76,98,64094
1.5787,0.2688,40.0000,76,98,64097
1.6520,0.2884,39.7700,76,98,64100
1.6276,0.2688,39.9600,76,98,64103
1.6422,0.2688,40.0300,76,98,64107
1.6569,0.2737,40.0000,76,98,64110
1.6667,0.2688,40.0000,76,98,64113
1.7351,0.2835,39.8300,76,98,64116
1.7107,0.2737,39.9600,76,98,64120
1.7009,0.2884,40.0600,76,98,64123
1.7107,0.2737,40.0000,76,98,64126
1.7107,0.2688,40.0600,76,98,64130
1.7742,0.2835,39.8000,76,98,64134
1.7546,0.2737,39.1600,76,98,64137
1.7644,0.2688,40.0300,76,98,64140
1.7742,0.2688,40.0000,76,98,64143
1.7595,0.2737,40.0300,76,98,64147
1.8084,0.2786,39.7700,76,98,64150
1.7791,0.2688,39.9300,76,98,64153
1.8084,0.2737,40.1000,76,98,64156
1.8133,0.2737,40.0300,76,98,64160
1.8084,0.2688,40.0300,76,98,64163
1.8475,0.2737,39.8300,76,98,64166
1.8182,0.2737,39.8900,76,98,64169
1.8182,0.2688,40.0300,76,98,64174
1.8377,0.2737,40.0000,76,98,64177
1.8280,0.2737,40.0300,76,98,64180
1.8817,0.2835,39.7700,76,98,64183
1.8377,0.2688,39.9300,76,98,64187
1.8328,0.2688,40.0600,76,98,64190
1.8524,0.2639,39.9600,76,98,64193
1.8475,0.2688,39.6700,76,98,64196
1.9355,0.2786,39.7700,76,98,64200
1.8524,0.2688,39.9600,76,98,64203
1.8573,0.3030,40.0600,76,98,64206
1.8817,0.2737,40.0000,76,98,64209
1.8817,0.2688,40.0300,76,98,64214
1.9501,0.2737,39.8000,76,98,64217
1.9306,0.2737,40.0000,76,98,64220
1.9208,0.2688,40.0300,76,98,64223
1.9306,0.2981,40.0000,76,98,64227
1.9306,0.2688,40.0300,76,98,64230
1.9892,0.2835,39.8000,76,98,64233
1.9697,0.2737,39.9600,76,98,64236
1.9795,0.2737,40.0300,76,98,64240
2.0283,0.2835,39.9600,76,98,64243
1.9844,0.2688,40.1000,76,98,64246
2.0430,0.2737,39.8300,76,98,64249
1.9990,0.2493,40.1000,76,98,64253
2.0186,0.2688,39.2800,76,98,64257
2.0430,0.2688,40.0000,76,98,64260
2.0235,0.2688,40.1000,76,98,64263
2.0577,0.2786,39.8600,76,98,64267
2.0235,0.2737,39.9300,76,98,64270
2.0186,0.2688,40.0000,76,98,64273
2.0283,0.2786,39.9600,76,98,64276
2.0039,0.2786,40.0300,76,98,64279
2.0235,0.2737,39.8300,76,98,64283
1.9941,0.2737,39.9600,76,98,64286
1.9355,0.3030,40.0000,76,98,64289
1.9355,0.2688,39.8900,76,98,64292
1.8964,0.2737,40.0300,76,98,64296
1.9062,0.2737,39.8300,76,98,64300
1.8377,0.2688,40.0300,76,98,64303
1.8084,0.2737,40.1000,76,98,64306
1.7937,0.2737,39.8900,76,98,64310
1.7546,0.2688,40.0300,76,98,64313
1.7693,0.2737,39.8600,76,98,64316
1.7253,0.3079,39.9300,76,98,64319
1.6911,0.2737,39.5400,76,98,64323
1.6764,0.2737,39.9600,76,98,64326
1.6325,0.2688,40.0300,76,98,64329
1.6520,0.2737,39.8000,76,98,64332
1.6178,0.2688,39.9600,76,98,64336
1.6422,0.2688,40.0300,76,98,64339
1.6129,0.2786,39.8900,76,98,64343
1.5787,0.2688,40.0300,76,98,64346
1.6031,0.2688,39.8600,76,98,64350
1.5787,0.2590,40.0300,76,98,64353
1.5836,0.2688,40.1300,76,98,64356
1.6129,0.2786,39.8900,76,98,64359
1.5885,0.2737,40.0300,76,98,64363
1.5982,0.2981,39.8600,76,98,64366
1.5738,0.2590,40.0600,76,98,64369
1.5934,0.2493,40.0000,76,98,64372
1.6178,0.2786,39.9300,76,98,64376
1.6178,0.2737,40.0300,76,98,64379
1.6422,0.2688,39.8600,76,98,64382
1.5982,0.2737,39.8300,76,98,64386
1.6373,0.2688,39.9600,76,98,64390
1.6373,0.2688,40.0000,76,98,64393
1.6520,0.2786,39.9600,76,98,64396
1.6569,0.2737,40.0000,76,98,64400
1.7253,0.2786,39.8600,76,98,64403
1.7204,0.2737,39.9300,76,98,64406
1.7155,0.2688,40.0300,76,98,64409
1.7302,0.2884,40.0000,76,98,64413
1.7253,0.2688,40.0600,76,98,64416
1.7791,0.2786,39.7700,76,98,64419
1.7595,0.3030,39.9600,76,98,64422
1.7644,0.2688,40.0600,76,98,64427
1.7889,0.2786,39.9600,76,98,64430
1.7644,0.2688,39.9300,76,98,64433
1.8035,0.2737,39.8000,76,98,64436
1.7889,0.2688,40.0300,76,98,64440
1.7937,0.2688,40.0300,76,98,64443
1.8084,0.2786,40.0000,76,98,64446
1.7791,0.2737,40.0300,76,98,64449
1.8084,0.2737,40.0000,76,98,64453
1.7791,0.2688,39.9300,76,98,64456
1.8035,0.2688,40.0300,76,98,64459
1.8035,0.2737,39.9600,76,98,64462
1.7937,0.2688,40.0300,76,98,64466
1.8231,0.2737,39.8300,76,98,64470
1.7693,0.2737,39.8900,76,98,64473
1.7546,0.2688,40.0000,76,98,64476
1.7742,0.2786,39.9300,76,98,64480
1.7595,0.2737,40.0300,76,98,64483
1.7791,0.2737,39.8300,76,98,64486
1.7351,0.2835,40.1000,76,98,64489
1.7253,0.2688,40.0300,76,98,64493
1.7546,0.2786,39.9300,76,98,64496
1.7155,0.2688,40.0300,76,98,64499
1.7546,0.2737,39.8300,76,98,64502
1.7351,0.2688,39.9300,76,98,64506
1.7253,0.2688,40.0300,76,98,64509
1.7351,0.2737,39.9600,76,98,64513
1.7253,0.2688,39.5400,76,98,64516
1.7595,0.2688,39.8600,76,98,64520
1.7400,0.2688,39.9600,76,98,64523
1.7449,0.2688,40.0600,76,98,64526
1.7644,0.2688,39.8900,76,98,64529
1.7253,0.2639,40.0000,76,98,64533
1.7498,0.2737,39.8300,76,98,64536
1.7204,0.2688,40.0300,76,98,64539
1.7351,0.2786,40.0300,76,98,64542
1.7595,0.2737,39.9300,76,98,64546
1.7351,0.2688,40.0600,76,98,64549
1.7644,0.2688,39.8900,76,98,64552
1.7302,0.2737,39.9600,76,98,64556
1.7302,0.2688,40.1300,76,98,64560
1.7546,0.2737,39.8900,76,98,64563
1.7498,0.2688,40.0300,76,98,64566
1.7644,0.3030,39.8900,76,98,64569
1.7253,0.2688,39.3200,76,98,64573
1.7253,0.2688,40.0300,76,98,64576
1.7449,0.2737,39.8900,76,98,64579
1.7400,0.2688,40.0000,76,98,64582
1.7791,0.2737,39.8600,76,98,64586
1.7449,0.2737,40.0600,76,98,64589
1.7595,0.2639,40.0300,76,98,64592
1.7791,0.2786,39.9300,76,98,64595
1.7546,0.2688,40.0300,76,98,64600
1.7889,0.2688,39.8900,76,98,64603
1.7693,0.2737,39.9300,76,98,64606
1.7644,0.2688,40.1300,76,98,64609
1.7693,0.2737,39.8900,76,98,64613
1.7449,0.2688,40.0300,76,98,64616
1.7791,0.2786,39.8300,76,98,64619
1.7644,0.2688,40.1300,76,98,64622
1.7791,0.2688,40.0300,76,98,64626
1.8084,0.2737,39.8900,76,98,64629
1.7791,0.2981,40.1000,76,98,64632
1.8035,0.2688,39.8600,76,98,64635
1.7791,0.2688,40.0300,76,98,64640
1.7937,0.2639,40.1000,76,98,64643
1.8084,0.2786,40.0300,76,98,64646
1.7791,0.2688,39.8000,76,98,64649
1.8035,0.2737,39.8300,76,98,64653
1.7742,0.2688,40.0000,76,98,64656
1.7840,0.2688,40.0600,76,98,64659
1.8182,0.2786,39.9300,76,98,64662
1.8084,0.2737,40.0300,76,98,64666
1.8426,0.2688,39.8600,76,98,64669
1.8084,0.2639,39.9600,76,98,64672
1.8231,0.2737,40.0300,76,98,64675
1.8573,0.2737,40.1600,76,98,64679
1.8671,0.2688,40.0300,76,98,64683
1.9062,0.2737,39.8900,76,98,64686
1.8817,0.2786,40.1000,76,98,64689
1.8915,0.2688,40.0600,76,98,64693
1.9159,0.2688,39.9300,76,98,64696
1.8964,0.2688,40.0300,76,98,64699
1.9453,0.2786,39.8900,76,98,64702
1.9208,0.2688,39.9600,76,98,64706
1.9159,0.2688,40.0300,76,98,64709
1.9257,0.2688,39.9300,76,98,64712
1.8964,0.2737,40.0600,76,98,64715
1.9159,0.2688,39.9300,76,98,64719
1.8671,0.2493,40.0000,76,98,64722
1.8622,0.2639,40.1000,76,98,64726
1.8524,0.2737,39.8600,76,98,64729
1.8133,0.2688,40.0300,76,98,64733
1.8035,0.2933,39.8600,76,98,64736
1.7546,0.2884,40.0300,76,98,64739
1.7449,0.2688,40.0300,76,98,64742
1.7498,0.2737,39.8600,76,98,64746
1.7107,0.2590,40.0300,76,98,64749
1.7204,0.2688,39.9600,76,98,64752
1.6813,0.2493,40.0000,76,98,64755
1.6764,0.2786,40.1000,76,98,64759
1.7058,0.2786,40.0000,76,98,64762
1.6862,0.2688,40.0000,76,98,64765
1.7155,0.2639,39.9300,76,98,64769
1.6764,0.2981,40.0000,76,98,64773
1.6813,0.2639,40.0300,76,98,64776
1.6911,0.2737,39.9300,76,98,64779
1.7058,0.2737,40.0300,76,98,64782
1.7449,0.2737,39.9300,76,98,64786
1.7107,0.2688,40.0600,76,98,64789
1.7009,0.2688,40.0300,76,98,64792
1.7302,0.2835,39.9300,76,98,64795
1.7009,0.2688,40.0300,76,98,64799
1.7400,0.2737,39.9300,76,98,64802
1.7155,0.2639,40.0000,76,98,64805
1.7302,0.2688,40.0600,76,98,64808
1.7889,0.2688,39.9300,76,98,64813
1.8328,0.2737,40.0000,76,98,64816
1.9795,0.2786,39.9600,76,98,64819
2.1114,0.2688,40.0300,76,98,64822
2.3216,0.2639,40.0300,76,98,64826
2.5806,0.2688,40.0600,76,98,64829
2.8250,0.2786,40.0300,76,98,64832
3.0401,0.2737,39.9600,76,98,64835
3.1476,0.2688,40.0300,76,98,64839
3.1574,0.2737,40.0300,76,98,64842
3.0499,0.2835,39.8900,76,98,64845
2.7028,0.2688,40.0300,76,98,64848
2.3900,0.3079,39.8600,76,98,64851
2.0283,0.2688,40.0600,76,98,64856
1.7546,0.2981,40.0300,76,98,64859
1.5738,0.2786,39.9600,76,98,64862
1.3930,0.2737,40.0300,76,98,64865
1.2903,0.2884,39.8600,76,98,64869
1.1975,0.2688,40.0300,76,98,64872
1.1584,0.2688,40.0300,76,98,64875
1.1975,0.2835,39.9600,76,98,64878
1.2268,0.2688,40.0000,76,98,64882
1.3050,0.2737,39.8900,76,98,64885
1.3490,0.2737,40.0000,76,98,64888
1.4125,0.2688,40.0300,76,98,64891
1.4956,0.2786,39.8600,76,98,64896
1.5200,0.2737,40.0000,76,98,64899
1.5787,0.2688,39.9600,76,98,64902
1.6129,0.2688,40.0300,76,98,64905
1.6325,0.2737,40.1000,76,98,64909
1.6813,0.3030,39.9300,76,98,64912
1.6764,0.2688,40.0000,76,98,64915
1.7155,0.2737,39.8900,76,98,64918
1.7155,0.2884,40.0000,76,98,64922
1.7400,0.2688,40.0600,76,98,64925
1.7791,0.2786,39.9300,76,98,64928
1.7546,0.2737,40.0000,76,98,64931
1.7693,0.2688,39.9300,76,98,64935
1.7595,0.2688,40.0300,76,98,64939
1.7791,0.2590,40.0600,76,98,64942
1.8182,0.2786,39.8600,76,98,64945
1.7889,0.2688,40.0600,76,98,64949
1.7986,0.2688,39.9300,76,98,64952
1.7742,0.2737,40.0300,76,98,64955
1.7840,0.2688,40.0600,76,98,64958
1.8719,0.2786,39.8600,76,98,64962
1.8280,0.2688,40.0000,76,98,64965
1.8377,0.2688,39.9300,76,98,64968
1.8133,0.2688,40.0000,76,98,64971
1.8231,0.2493,40.0300,76,98,64975
1.8573,0.2884,39.9600,76,98,64978
1.8377,0.2688,40.0000,76,98,64982
1.8573,0.2737,39.9300,76,98,64985
1.8671,0.2737,40.0300,76,98,64989
1.8475,0.2688,40.0000,76,98,64992
1.8866,0.2786,39.8900,76,98,64995
1.9257,0.2786,39.9300,76,98,64999
1.9062,0.2688,39.9600,76,98,65002
1.9404,0.2786,39.9300,76,98,65005
1.9208,0.2688,40.0000,76,98,65008
1.9404,0.2737,40.0000,76,98,65012
1.9648,0.2737,39.9300,76,98,65015
1.9599,0.2688,39.6700,76,98,65018
1.9941,0.2737,39.8900,76,98,65021
1.9795,0.2688,40.0300,76,98,65026
2.0088,0.2688,40.1000,76,98,65029
2.0430,0.2835,39.8900,76,98,65032
2.0088,0.2688,40.0300,76,98,65035
2.0332,0.2737,39.8900,76,98,65039
1.9990,0.2688,40.0300,76,98,65042
2.0088,0.2737,40.1000,76,98,65045
2.0479,0.2786,39.7700,76,98,65048
2.0430,0.2737,40.0000,76,98,65052
2.0626,0.2737,39.1200,76,98,65055
2.0283,0.2688,40.0300,76,98,65058
2.0283,0.2688,40.0300,76,98,65061
2.0479,0.3030,40.0000,76,98,65065
2.0332,0.2688,39.9600,76,98,65069
2.0479,0.2737,39.8900,76,98,65072
2.0039,0.2688,40.0300,76,98,65075
1.9844,0.2688,40.0000,76,98,65079
1.9941,0.2884,39.8600,76,98,65082
1.9404,0.2688,40.0300,76,98,65085
1.9404,0.2688,39.9300,76,98,65088
1.9013,0.2737,40.0300,76,98,65092
1.8719,0.2688,40.1000,76,98,65095
1.8719,0.2786,39.8900,76,98,65098
1.8231,0.2737,40.0000,76,98,65101
1.8133,0.2688,39.9300,76,98,65105
1.7840,0.2688,40.0300,76,98,65108
1.7742,0.2688,40.0300,76,98,65112
1.7840,0.2835,39.9300,76,98,65115
1.7400,0.2688,40.2300,76,98,65119
1.7400,0.2688,39.9300,76,98,65122
1.7058,0.2639,40.0000,76,98,65125
1.7058,0.2688,40.1300,76,98,65128
1.7449,0.2786,39.8600,76,98,65132
1.6911,0.2737,40.0000,76,98,65135
1.7009,0.2688,39.9300,76,98,65138
1.6764,0.2688,40.0300,76,98,65141
1.6813,0.2737,40.0600,76,98,65145
1.7155,0.2786,39.8900,76,98,65148
1.7155,0.2737,39.9600,76,98,65152
1.7253,0.2688,39.9300,76,98,65155
1.7009,0.2688,40.0600,76,98,65159
1.6960,0.2688,40.0300,76,98,65162
1.7449,0.2786,39.8900,76,98,65165
1.7351,0.2639,40.0000,76,98,65168
1.7449,0.2688,39.9300,76,98,65171
1.7351,0.2688,40.0000,76,98,65175
1.7302,0.2590,40.0300,76,98,65178
1.7791,0.2786,39.8900,76,98,65181
1.7546,0.2688,40.0300,76,98,65184
1.8084,0.2688,39.9300,76,98,65188
1.7742,0.2981,40.0300,76,98,65191
1.7693,0.2688,40.0300,76,98,65195
1.8182,0.2737,39.8600,76,98,65198
1.7742,0.2737,39.9600,76,98,65202
1.7742,0.2688,40.0000,76,98,65205
1.7791,0.2688,40.0300,76,98,65208
1.7840,0.2688,40.0300,76,98,65211
1.8280,0.2835,39.7700,76,98,65215
1.7937,0.2688,39.9600,76,98,65218
1.7791,0.2737,39.9600,76,98,65221
1.7791,0.2639,40.0300,76,98,65224
1.7889,0.2688,40.0300,76,98,65228
1.8426,0.2688,39.9300,76,98,65231
1.8035,0.2737,40.0000,76,98,65234
1.7986,0.2639,40.0600,76,98,65238
1.7889,0.2688,40.0300,76,98,65242
1.7889,0.2590,40.0300,76,98,65245
1.8524,0.2835,39.8900,76,98,65248
1.8328,0.2786,40.0000,76,98,65251
1.8280,0.2688,39.9300,76,98,65255
1.8133,0.2688,40.0000,76,98,65258
1.8035,0.2688,40.1300,76,98,65261
1.8573,0.2884,39.8600,76,98,65264
1.8328,0.2737,39.9600,76,98,65268
1.8328,0.2639,39.9600,76,98,65271
1.8377,0.2688,40.0300,76,98,65274
1.8671,0.2493,40.0300,76,98,65277
1.8866,0.2933,39.8300,76,98,65282
1.8426,0.2639,40.1000,76,98,65285
1.8475,0.2639,39.9600,76,98,65288
1.8671,0.2737,40.0600,76,98,65291
1.8475,0.2688,40.0600,76,98,65295
1.8964,0.2884,39.8600,76,98,65298
1.8524,0.2737,39.9600,76,98,65301
1.8475,0.2639,39.4100,76,98,65304
1.8524,0.2688,40.0000,76,98,65308
1.8524,0.2688,40.0300,76,98,65311
1.9013,0.3079,39.8300,76,98,65314
1.8426,0.2737,39.7000,76,98,65317
1.8231,0.2639,40.0000,76,98,65321
1.8231,0.2688,40.0300,76,98,65325
1.8280,0.2688,40.0300,76,98,65328
1.8915,0.2884,39.8300,76,98,65331
1.8377,0.2688,40.0000,76,98,65335
1.8231,0.2884,39.9600,76,98,65338
1.8231,0.2688,40.0300,76,98,65341
1.8280,0.2688,40.0600,76,98,65344
1.8866,0.2884,39.8000,76,98,65348
1.8573,0.2737,40.0600,76,98,65351
1.8475,0.2639,40.0000,76,98,65354
1.8475,0.2639,40.1000,76,98,65357
1.8328,0.2786,40.0300,76,98,65361
1.8915,0.2884,39.8000,76,98,65364
1.8719,0.2737,39.9300,76,98,65368
1.8475,0.2639,40.0600,76,98,65371
1.8475,0.2688,40.0300,76,98,65375
1.8377,0.2688,40.0300,76,98,65378
1.8866,0.2933,39.8000,76,98,65381
1.8475,0.3128,39.9600,76,98,65384
1.8524,0.2639,40.0000,76,98,65388
1.8719,0.2737,40.0300,76,98,65391
1.8573,0.2688,40.0000,76,98,65394
1.9062,0.2884,39.8000,76,98,65397
1.8622,0.2688,39.9300,76,98,65401
1.8622,0.2786,40.0300,76,98,65404
1.8817,0.2688,40.2300,76,98,65408
1.8964,0.2688,40.0300,76,98,65411
1.9795,0.2688,39.7700,76,98,65415
1.9306,0.2737,39.9300,76,98,65418
1.9208,0.2639,40.1000,76,98,65421
1.9355,0.2688,40.1000,76,98,65424
1.9599,0.2493,40.0300,76,98,65428
2.0235,0.2884,39.7300,76,98,65431
1.9844,0.2688,40.0300,76,98,65434
1.9795,0.2639,40.0300,76,98,65437
1.9892,0.2688,40.0000,76,98,65441
1.9844,0.2688,40.0600,76,98,65444
2.0577,0.2835,39.7300,76,98,65447
2.0186,0.2639,39.9300,76,98,65451
2.0137,0.2688,40.0600,76,98,65455
1.9990,0.2688,40.0000,76,98,65458
1.9697,0.2639,40.0300,76,98,65461
1.9941,0.2786,39.8300,76,98,65464
1.9355,0.2737,39.9300,76,98,65468
1.9355,0.2688,40.0600,76,98,65471
1.8866,0.2737,40.0300,76,98,65474
1.8328,0.2688,39.9600,76,98,65477
1.8524,0.2786,39.7700,76,98,65481
1.7840,0.2737,39.9600,76,98,65484
1.7644,0.2639,40.0300,76,98,65487
1.7693,0.2737,40.0000,76,98,65490
1.7449,0.2688,40.0300,76,98,65495
1.7840,0.2737,39.8300,76,98,65498
1.7302,0.2835,39.9300,76,98,65501
1.7302,0.2639,40.1000,76,98,65504
1.7449,0.2688,40.0000,76,98,65508
1.7351,0.2590,40.0300,76,98,65511
1.7840,0.2786,39.8000,76,98,65514
1.7400,0.2688,40.0000,76,98,65517
1.7302,0.2639,40.0600,76,98,65521
1.7400,0.2688,40.0300,76,98,65524
1.7400,0.2737,40.1000,76,98,65527
1.8084,0.2737,39.8000,76,98,65530
1.7742,0.2737,40.0300,76,98,65534
1.7644,0.2688,40.0300,76,98,65538
1.7693,0.2835,39.9600,76,98,65541
1.7546,0.2688,40.0600,76,98,65544
1.8182,0.2786,39.8000,76,98,65548
1.7889,0.2639,39.9600,76,98,65551
1.8231,0.2688,40.0300,76,98,65554
1.8866,0.2737,40.0600,76,98,65557
1.9599,0.2688,40.0300,76,98,65561
2.1554,0.2737,39.8000,76,98,65564
2.3265,0.2737,40.0000,76,98,65567
2.5611,0.2737,40.0300,76,98,65570
2.8397,0.2737,40.0000,76,98,65574
3.0401,0.2639,40.0000,76,98,65577
3.2796,0.2786,39.8000,76,98,65581
3.2796,0.2737,39.9600,76,98,65584
3.1476,0.2688,39.7000,76,98,65587
2.9374,0.2688,39.9600,76,98,65591
2.5660,0.2639,40.0300,76,98,65594
2.2727,0.2737,39.8000,76,98,65597
1.9062,0.2639,40.0000,76,98,65600
1.6471,0.2933,40.0000,76,98,65604
1.4663,0.2737,39.2800,76,98,65607
1.2414,0.2688,40.0300,76,98,65611
1.2854,0.2835,40.0600,76,98,65614
1.3930,0.2884,39.9600,76,98,65617
1.4223,0.2737,39.9600,76,98,65620
1.4907,0.2493,40.0000,76,98,65625
1.5249,0.2688,40.0000,76,98,65628
1.5689,0.2688,40.0600,76,98,65631
1.6618,0.2981,39.7700,76,98,65634
1.6667,0.2737,39.8900,76,98,65638
1.6911,0.2639,40.0600,76,98,65641
1.7107,0.2688,40.0300,76,98,65644
1.7204,0.2688,40.0300,76,98,65647
1.7889,0.2835,39.8300,76,98,65651
1.7742,0.2737,39.9300,76,98,65654
1.7889,0.2639,40.0000,76,98,65657
1.7986,0.2688,40.0000,76,98,65660
1.7986,0.2737,40.0300,76,98,65665
1.8573,0.2884,39.6000,76,98,65668
1.8231,0.2688,39.9600,76,98,65671
1.8377,0.2639,40.0000,76,98,65674
1.8573,0.2786,40.0000,76,98,65678
1.8524,0.2688,40.1000,76,98,65681
1.9062,0.2884,39.7700,76,98,65684
1.8671,0.2688,39.9300,76,98,65687
1.8622,0.2737,40.1000,76,98,65691
1.8768,0.2688,39.8900,76,98,65694
1.8866,0.2688,40.0600,76,98,65697
1.9453,0.2933,39.8000,76,98,65700
1.9062,0.2835,40.0000,76,98,65704
1.8915,0.2639,40.0300,76,98,65708
1.9013,0.2688,40.0300,76,98,65711
1.9208,0.2737,40.0300,76,98,65714
1.9844,0.2835,39.7700,76,98,65718
1.9404,0.2688,39.9600,76,98,65721
1.9355,0.2590,40.0300,76,98,65724
1.9355,0.2786,40.0000,76,98,65727
1.9306,0.2688,40.0300,76,98,65731
1.9990,0.2786,39.7700,76,98,65734
1.9697,0.2688,40.0300,76,98,65737
1.9746,0.2639,40.0300,76,98,65740
1.9697,0.2688,40.0000,76,98,65744
1.9795,0.2590,40.0300,76,98,65747
2.0381,0.2786,39.7300,76,98,65751
2.0137,0.2688,40.0000,76,98,65754
2.0186,0.2688,40.0600,76,98,65758
2.0381,0.2737,40.1000,76,98,65761
2.0626,0.2688,40.0600,76,98,65764
2.1017,0.2786,39.1600,76,98,65767
2.0723,0.2688,39.9600,76,98,65771
2.0821,0.2493,40.0300,76,98,65774
2.1212,0.2737,40.0300,76,98,65777
2.1114,0.2688,40.0300,76,98,65780
2.1701,0.2835,39.8000,76,98,65784
2.1163,0.2639,39.9600,76,98,65787
2.1310,0.2639,40.1000,76,98,65790
2.1505,0.2688,40.0000,76,98,65794
2.1505,0.2737,40.0000,76,98,65798
2.2092,0.2835,39.8000,76,98,65801
2.1799,0.2737,39.9600,76,98,65804
2.1310,0.2639,40.0600,76,98,65807
2.1359,0.2737,40.0000,76,98,65811
2.1212,0.2688,40.0300,76,98,65814
2.1652,0.2737,39.7300,76,98,65817
2.1017,0.3079,39.9300,76,98,65820
2.0577,0.2737,40.0300,76,98,65823
2.0381,0.2835,39.9600,76,98,65827
1.9795,0.2688,40.0300,76,98,65830
1.9941,0.2786,39.8000,76,98,65833
1.9257,0.2639,40.0000,76,98,65837
1.9013,0.2688,40.1600,76,98,65841
1.8768,0.2737,40.0000,76,98,65844
1.8231,0.2493,40.0000,76,98,65847
1.8280,0.2737,39.8900,76,98,65850
1.7840,0.2737,39.9600,76,98,65854
1.7840,0.2590,40.0300,76,98,65857
1.7595,0.3030,39.9600,76,98,65860
1.7302,0.2688,40.0300,76,98,65863
1.7449,0.2639,39.8000,76,98,65867
1.7058,0.2688,39.9600,76,98,65870
1.7009,0.2688,40.0300,76,98,65873
1.7253,0.2786,39.9300,76,98,65876
1.7058,0.2688,40.0000,76,98,65881
1.7302,0.2737,39.8300,76,98,65884
1.7107,0.2639,40.0300,76,98,65887
1.7009,0.2542,40.0300,76,98,65890
1.7302,0.2786,39.9600,76,98,65894
1.7204,0.2688,40.0300,76,98,65897
1.7644,0.2835,39.8000,76,98,65900
1.7400,0.2688,39.9600,76,98,65903
1.7253,0.2639,40.0300,76,98,65907
1.7400,0.2688,39.9600,76,98,65910
1.7302,0.2688,40.0300,76,98,65913
1.7791,0.2737,39.8300,76,98,65916
1.7449,0.2688,39.9600,76,98,65921
1.7449,0.2737,40.0300,76,98,65924
1.7644,0.2737,39.9600,76,98,65927
1.7546,0.2688,40.0300,76,98,65930
1.7986,0.2835,39.8600,76,98,65934
1.7791,0.2786,40.0600,76,98,65937
1.7937,0.2688,40.0300,76,98,65940
1.8133,0.2737,39.9600,76,98,65943
1.8084,0.2688,40.0300,76,98,65947
1.8133,0.2737,39.8900,76,98,65950
1.7986,0.2688,39.9300,76,98,65953
1.8133,0.2590,40.0300,76,98,65956
1.8426,0.2688,39.9300,76,98,65960
1.8280,0.2688,40.1000,76,98,65964
1.8866,0.2737,39.8600,76,98,65967
1.8182,0.2639,39.9600,76,98,65970
1.8280,0.2639,40.0600,76,98,65974
1.8524,0.2737,39.9300,76,98,65977
1.8426,0.2688,40.0300,76,98,65980
1.8573,0.2737,39.8300,76,98,65983
1.8182,0.2688,40.0000,76,98,65987
1.8231,0.2688,40.0300,76,98,65990
1.8768,0.2737,39.8900,76,98,65993
1.8328,0.2590,40.1000,76,98,65996
1.8671,0.2737,39.8600,76,98,66000
1.8328,0.2688,39.9300,76,98,66003
1.8182,0.2688,40.0000,76,98,66007
1.8328,0.3079,39.9300,76,98,66010
1.8231,0.2688,40.0300,76,98,66014
1.8622,0.2737,39.8600,76,98,66017
1.8328,0.2639,40.1000,76,98,66020
1.8328,0.2688,39.9600,76,98,66023
1.8475,0.2737,39.9300,76,98,66027
1.8280,0.2737,40.0300,76,98,66030
1.8671,0.2688,39.8300,76,98,66033
1.8524,0.2688,40.0000,76,98,66036
1.8622,0.2688,40.0300,76,98,66040
1.8768,0.2737,39.8900,76,98,66043
1.8377,0.2737,40.0600,76,98,66046
1.8622,0.2688,39.8900,76,98,66050
1.8426,0.2688,39.9300,76,98,66054
1.8573,0.2590,40.0300,76,98,66057
1.8622,0.3079,39.9600,76,98,66060
1.8377,0.2688,40.0300,76,98,66063
1.8768,0.2737,39.8900,76,98,66067
1.8182,0.2737,39.9600,76,98,66070
1.8328,0.2688,40.0300,76,98,66073
1.8573,0.2688,39.9300,76,98,66076
1.8622,0.2639,40.1000,76,98,66080
1.8475,0.2688,39.9300,76,98,66083
1.8084,0.2688,40.0000,76,98,66086
1.8231,0.2688,40.0300,76,98,66089
1.8377,0.2737,39.8900,76,98,66094
1.8231,0.2688,40.0300,76,98,66097
1.8573,0.2688,39.8900,76,98,66100
1.8182,0.2737,39.9600,76,98,66103
1.8133,0.2639,40.1300,76,98,66107
1.8328,0.2737,39.8600,76,98,66110
1.8280,0.2688,40.0300,76,98,66113
1.8671,0.2639,39.8600,76,98,66116
1.8328,0.2639,40.0000,76,98,66120
1.8328,0.2688,40.0300,76,98,66123
1.8377,0.2737,39.8900,76,98,66126
1.8182,0.2737,40.0000,76,98,66129
1.8524,0.2688,39.8900,76,98,66134
1.8280,0.2688,40.0000,76,98,66137
1.8328,0.2639,40.0300,76,98,66140
1.8475,0.2786,39.9600,76,98,66143
1.8084,0.2688,40.0300,76,98,66147
1.8524,0.2737,39.8900,76,98,66150
1.8133,0.2933,40.0000,76,98,66153
1.8328,0.2688,40.1000,76,98,66156
1.8573,0.2737,39.9600,76,98,66160
1.8280,0.2493,40.0300,76,98,66163
1.8622,0.2737,39.9300,76,98,66166
1.8280,0.2639,40.3600,76,98,66169
1.8426,0.2639,40.0300,76,98,66173
1.8671,0.2737,39.9300,76,98,66177
1.8573,0.2933,40.0300,76,98,66180
1.8866,0.2688,39.8900,76,98,66183
1.8426,0.2688,40.1000,76,98,66187
1.8475,0.2639,40.0300,76,98,66190
1.8719,0.2835,39.9300,76,98,66193
1.8475,0.2786,40.1000,76,98,66196
1.8817,0.2688,39.9600,76,98,66200
1.8426,0.2639,39.9600,76,98,66203
1.8426,0.2786,40.0300,76,98,66206
1.8671,0.2933,39.9300,76,98,66209
1.8671,0.2688,40.1000,76,98,66213
1.9453,0.2737,39.8900,76,98,66216
1.8964,0.2639,39.8900,76,98,66220
1.9550,0.2688,40.0000,76,98,66224
1.9599,0.2688,40.0300,76,98,66227
1.9746,0.2786,39.2800,76,98,66230
1.9501,0.2688,40.1300,76,98,66233
2.0088,0.2737,39.8000,76,98,66237
1.9892,0.2688,40.2000,76,98,66240
1.9990,0.2688,40.0600,76,98,66243
2.0381,0.2835,39.9600,76,98,66246
1.9795,0.2688,40.1300,76,98,66250
1.9892,0.2688,39.8600,76,98,66253
1.9208,0.2688,40.0000,76,98,66256
1.9062,0.2639,40.0300,76,98,66259
1.9208,0.2737,39.8900,76,98,66264
1.8671,0.2590,40.0300,76,98,66267
1.8622,0.2737,39.8000,76,98,66270
1.7937,0.2688,40.0600,76,98,66273
1.7791,0.2639,40.0600,76,98,66277
1.7889,0.2835,39.9600,76,98,66280
1.7595,0.2590,40.0000,76,98,66283
1.7889,0.2737,39.8300,76,98,66286
1.7644,0.2688,39.9300,76,98,66290
1.7400,0.2639,40.0600,76,98,66293
1.7546,0.2737,39.9300,76,98,66296
1.7595,0.2688,40.0600,76,98,66299
1.7937,0.2737,39.8600,76,98,66304
1.7644,0.2688,39.7300,76,98,66307
1.7595,0.2688,40.0300,76,98,66310
1.7644,0.2737,39.8900,76,98,66313
1.7498,0.2688,40.0600,76,98,66317
1.7889,0.2688,39.8300,76,98,66320
1.7693,0.2688,40.0300,76,98,66323
1.7791,0.2639,40.0600,76,98,66326
1.7889,0.2737,39.8000,76,98,66330
1.7595,0.2688,39.8900,76,98,66333
1.7889,0.2737,39.8300,76,98,66336
1.7889,0.2590,39.9600,76,98,66339
1.8377,0.2639,40.1300,76,98,66343
1.9404,0.2737,39.8000,76,98,66347
2.0772,0.2737,40.0300,76,98,66350
2.2385,0.2688,39.6000,76,98,66353
2.4242,0.2639,39.9600,76,98,66357
2.6931,0.2590,40.0000,76,98,66360
2.9717,0.2737,39.9300,76,98,66363
3.1476,0.2688,40.0300,76,98,66366
3.2991,0.2737,39.8600,76,98,66370
3.2111,0.2688,40.0600,76,98,66373
3.0156,0.2639,39.8900,76,98,66376
2.7566,0.2737,39.9600,76,98,66379
2.3949,0.2688,40.0300,76,98,66383
2.0968,0.2688,39.8900,76,98,66386
1.7742,0.2639,40.0000,76,98,66390
1.5494,0.2639,40.0300,76,98,66393
1.4174,0.2786,39.9300,76,98,66397
1.2903,0.2688,40.0600,76,98,66400
1.2610,0.2688,39.8900,76,98,66403
1.2317,0.2590,39.9600,76,98,66406
1.2561,0.2688,40.0300,76,98,66410
1.3148,0.2688,39.9300,76,98,66413
1.3783,0.2493,40.0300,76,98,66416
1.4663,0.2688,39.8600,76,98,66419
1.5152,0.2688,39.2200,76,98,66423
1.5738,0.2688,40.0300,76,98,66426
1.6422,0.2737,39.9300,76,98,66429
1.6618,0.2688,40.0600,76,98,66433
1.6764,0.2688,39.8900,76,98,66437
1.6764,0.2639,39.9600,76,98,66440
1.7107,0.2639,40.0300,76,98,66443
1.7742,0.2737,39.9300,76,98,66446
1.7302,0.3177,40.0600,76,98,66450
1.7644,0.2688,39.9300,76,98,66453
1.7400,0.2639,40.0300,76,98,66456
1.7595,0.2688,40.0600,76,98,66459
1.7889,0.2688,39.9300,76,98,66463
1.7840,0.2737,40.0000,76,98,66466
1.8133,0.2688,40.0600,76,98,66469
1.7742,0.2688,40.0600,76,98,66472
1.7742,0.2639,40.0600,76,98,66477
1.8084,0.2786,39.9300,76,98,66480
1.7889,0.2688,40.0600,76,98,66483
1.8231,0.2688,39.9600,76,98,66486
1.7840,0.2639,40.0000,76,98,66490
1.7889,0.2639,40.0000,76,98,66493
1.8133,0.2737,39.9600,76,98,66496
1.7986,0.2688,40.0300,76,98,66499
1.8426,0.2737,39.8900,76,98,66503
1.8182,0.3030,40.0600,76,98,66506
1.8280,0.2688,40.0300,76,98,66509
1.8377,0.2737,39.9300,76,98,66512
1.8377,0.2688,40.2300,76,98,66516
1.8866,0.2688,39.9300,76,98,66520
1.8768,0.2688,40.0300,76,98,66523
1.8964,0.2737,40.0300,76,98,66526
1.9306,0.2786,39.8000,76,98,66530
1.8915,0.2688,40.0300,76,98,66533
1.9257,0.2737,39.9300,76,98,66536
1.9062,0.2737,39.9600,76,98,66539
1.9208,0.2639,40.0300,76,98,66543
1.9648,0.2688,39.9300,76,98,66546
1.9453,0.2688,40.0300,76,98,66549
1.9795,0.2786,39.9600,76,98,66552
1.9550,0.2639,40.0600,76,98,66556
1.9795,0.2590,40.0300,76,98,66560
2.0186,0.2688,40.1000,76,98,66563
2.0186,0.2688,40.0000,76,98,66566
2.0577,0.2786,39.9300,76,98,66570
2.0283,0.2688,40.0300,76,98,66573
2.0430,0.2688,40.0600,76,98,66576
2.0919,0.2786,40.2600,76,98,66579
2.0772,0.2688,40.0000,76,98,66583
2.1163,0.2786,39.8900,76,98,66586
2.0919,0.2688,40.0600,76,98,66589
2.0870,0.2688,40.0300,76,98,66592
2.1212,0.2737,40.1600,76,98,66595
2.1065,0.2737,40.0000,76,98,66599
2.1310,0.2688,39.8900,76,98,66603
2.0968,0.2688,40.0300,76,98,66606
2.0870,0.2493,40.0300,76,98,66609
2.0919,0.2786,39.9600,76,98,66613
2.0528,0.2688,39.9600,76,98,66616
2.0577,0.2688,39.8300,76,98,66619
2.0235,0.2688,40.1000,76,98,66622
2.0039,0.2688,40.0300,76,98,66626
2.0137,0.2786,39.8300,76,98,66629
1.9404,0.2688,39.9600,76,98,66632
1.9306,0.2688,39.8900,76,98,66635
1.8768,0.2590,40.0300,76,98,66639
1.8573,0.2688,40.0300,76,98,66642
1.8573,0.2688,39.8900,76,98,66646
1.8231,0.2737,40.0000,76,98,66649
1.7791,0.2737,39.8900,76,98,66653
1.7351,0.2688,40.0000,76,98,66656
1.7204,0.2688,40.0300,76,98,66659
1.7449,0.2786,39.9600,76,98,66662
1.7155,0.2688,40.1300,76,98,66666
1.7155,0.2688,39.9300,76,98,66669
1.6862,0.2688,40.0300,76,98,66672
1.6764,0.2786,40.1000,76,98,66675
1.7155,0.2786,39.8600,76,98,66679
1.6764,0.2688,40.0000,76,98,66682
1.7058,0.2737,39.9300,76,98,66685
1.6764,0.2737,40.0300,76,98,66689
1.6667,0.2688,40.0300,76,98,66693
1.7009,0.2786,39.8900,76,98,66696
1.6813,0.2786,39.9600,76,98,66699
1.7009,0.2688,39.9600,76,98,66702
1.6911,0.2688,40.0300,76,98,66706
1.6911,0.2493,40.0000,76,98,66709
1.7204,0.2981,39.8900,76,98,66712
1.7009,0.2688,40.0000,76,98,66715
1.7155,0.2786,39.9300,76,98,66719
1.7204,0.2737,40.0300,76,98,66722
1.7302,0.2688,39.3800,76,98,66725
1.7693,0.2688,39.8300,76,98,66728
1.7302,0.2737,40.0300,76,98,66733
1.7351,0.2835,39.9300,76,98,66736
1.7253,0.2688,40.0000,76,98,66739
1.7351,0.2688,40.0300,76,98,66742
1.7889,0.2835,39.8900,76,98,66746
1.7693,0.2835,40.1000,76,98,66749
1.7693,0.2688,39.9600,76,98,66752
1.7546,0.2688,40.0300,76,98,66755
1.7644,0.2639,40.0600,76,98,66759
1.8133,0.2835,39.9300,76,98,66762
1.7986,0.2737,40.1300,76,98,66765
1.8035,0.2688,39.9300,76,98,66768
1.7791,0.2688,40.0300,76,98,66772
1.7742,0.2688,40.0300,76,98,66776
1.8182,0.2786,39.6400,76,98,66779
1.7986,0.2688,39.5400,76,98,66782
1.8182,0.2688,39.9300,76,98,66786
1.8035,0.2737,40.0000,76,98,66789
1.7889,0.2688,39.8600,76,98,66792
1.8231,0.2786,39.8900,76,98,66795
1.8084,0.2737,40.0000,76,98,66799
1.8084,0.2688,40.0300,76,98,66802
1.7889,0.2737,40.0300,76,98,66805
1.7986,0.2590,40.0300,76,98,66808
1.8328,0.2786,39.8300,76,98,66812
1.8035,0.2737,40.0000,76,98,66816
1.8035,0.2981,39.9300,76,98,66819
1.7986,0.2933,40.0300,76,98,66822
1.8035,0.2688,40.0300,76,98,66826
1.8328,0.2737,39.8600,75,98,66829
1.7937,0.2786,39.9600,75,98,66833
1.7937,0.2737,40.0000,75,98,66836
1.7791,0.2688,39.9300,75,98,66839
1.7400,0.2688,40.0300,75,98,66842
1.7498,0.2639,40.0300,75,98,66845
1.7742,0.2688,39.9600,75,98,66849
1.7546,0.2688,40.0300,75,98,66852
1.8035,0.2737,39.8900,75,98,66855
1.7498,0.2639,40.1000,75,98,66859
1.7449,0.2639,40.0300,75,98,66863
1.7840,0.2786,39.8600,75,98,66866
1.7546,0.2493,40.0300,75,98,66869
1.7937,0.2737,39.8900,75,98,66872
1.7644,0.2688,40.1000,75,98,66876
1.7693,0.2590,40.0300,75,98,66879
1.7791,0.2737,39.8600,75,98,66882
1.7693,0.2688,40.0300,75,98,66885
1.8133,0.2737,39.8900,75,98,66889
1.7742,0.2737,40.0300,75,98,66892
1.7742,0.2688,40.0000,75,98,66895
1.7889,0.2786,40.0000,75,98,66898
1.7889,0.2639,40.0000,75,98,66903
1.7986,0.2688,39.2200,75,98,66906
1.7889,0.2688,40.1000,75,98,66909
1.8328,0.2688,40.0300,75,98,66912
1.8328,0.2835,39.9300,75,98,66916
1.7937,0.2688,39.9600,75,98,66919
1.8133,0.2688,39.9600,75,98,66922
1.8182,0.2688,40.0300,75,98,66925
1.7937,0.2688,39.9600,75,98,66929
1.8231,0.2786,39.4400,75,98,66932
1.7986,0.2688,40.0000,75,98,66935
1.7986,0.2981,39.8900,75,98,66938
1.7693,0.2688,40.0300,75,98,66942
1.7791,0.2688,40.0300,75,98,66946
1.8231,0.2786,39.9600,75,98,66949
1.8035,0.2737,40.0600,75,98,66952
1.8182,0.2737,39.8900,75,98,66956
1.7840,0.2737,40.0300,75,98,66959
1.7791,0.2933,40.1000,75,98,66962
1.8133,0.2786,39.9600,75,98,66965
1.7889,0.2688,40.0300,75,98,66969
1.8133,0.2737,39.9300,75,98,66972
1.7840,0.2933,40.0300,75,98,66975
1.7791,0.2688,40.0300,75,98,66978
1.8035,0.2737,39.8900,75,98,66982
1.7937,0.2688,40.0000,75,98,66985
1.8182,0.2688,39.9300,75,98,66989
1.7937,0.2737,40.0000,75,98,66992
1.7986,0.2688,40.0300,75,98,66996
1.8231,0.2786,39.1200,75,98,66999
1.7937,0.2688,40.0000,75,98,67002
1.8084,0.2639,39.8900,75,98,67005
1.8035,0.2933,40.0300,75,98,67009
1.8182,0.2688,40.0300,75,98,67012
1.8719,0.2786,39.8300,75,98,67015
1.8377,0.2737,40.0000,75,98,67018
1.8280,0.2688,40.1300,75,98,67022
1.8084,0.2737,40.0600,75,98,67025
1.8182,0.2737,40.1000,75,98,67028
1.8622,0.2786,39.8900,75,98,67032
1.8426,0.2737,39.9600,75,98,67036
1.8377,0.2688,39.9300,75,98,67039
1.8231,0.2639,40.0300,75,98,67042
1.8377,0.2639,40.1300,75,98,67045
1.8915,0.2786,39.9300,75,98,67049
1.9062,0.2737,40.0000,75,98,67052
1.8915,0.2688,39.8900,75,98,67055
1.8768,0.2688,40.2000,75,98,67058
1.8915,0.2639,40.0300,75,98,67062
1.9355,0.3030,39.8300,75,98,67065
1.9159,0.2688,40.0000,75,98,67068
1.9306,0.2688,39.9300,75,98,67072
1.9159,0.2737,40.0300,75,98,67076
1.9110,0.2688,40.2600,75,98,67079
1.9599,0.2786,39.8900,75,98,67082
1.9404,0.2737,39.9600,75,98,67085
1.9501,0.2981,39.9300,75,98,67089
1.9355,0.2688,40.1300,75,98,67092
1.9110,0.2688,40.0600,75,98,67095
1.9257,0.2835,39.8900,75,98,67098
1.8573,0.2786,39.9600,75,98,67102
1.8377,0.2688,39.9600,75,98,67105
1.8084,0.2688,40.0000,75,98,67108
1.7937,0.2590,40.0300,75,98,67111
1.8084,0.2786,39.8300,75,98,67116
1.7400,0.2688,40.0600,75,98,67119
1.7400,0.2639,39.8900,75,98,67122
1.6960,0.2688,39.8600,75,98,67125
1.6862,0.2688,40.0300,75,98,67129
1.7253,0.2835,39.8900,75,98,67132
1.6960,0.2786,40.0300,75,98,67135
1.6813,0.2688,39.9300,75,98,67138
1.6667,0.2737,40.0300,75,98,67142
1.6716,0.2737,40.0000,75,98,67145
1.7302,0.2835,39.9300,75,98,67148
1.7058,0.2737,40.0000,75,98,67151
1.7155,0.2737,40.0000,75,98,67155
1.7058,0.2737,40.0300,75,98,67159
1.7058,0.2639,40.1300,75,98,67162
1.7644,0.2688,39.8600,75,98,67165
1.7400,0.2688,40.0000,75,98,67169
1.7449,0.2639,39.9300,75,98,67172
1.7351,0.2688,40.0600,75,98,67175
1.7302,0.2493,40.0300,75,98,67178
1.7791,0.2835,39.8900,75,98,67182
1.7644,0.2737,40.0300,75,98,67185
1.7937,0.2493,40.0000,75,98,67188
1.8573,0.2688,40.0300,75,98,67191
1.9550,0.2688,40.0600,75,98,67195
2.1505,0.2688,39.8600,75,98,67198
2.3069,0.2884,39.9300,75,98,67202
2.5513,0.2639,40.0000,75,98,67205
2.8152,0.2688,40.0000,75,98,67209
3.0401,0.2688,40.0000,75,98,67212
3.2991,0.2688,39.8000,75,98,67215
3.2698,0.2737,40.0300,75,98,67218
3.0938,0.2639,40.0000,75,98,67222
2.8446,0.2737,39.9600,75,98,67225
2.5073,0.2590,40.0300,75,98,67228
2.2434,0.2884,39.8000,75,98,67231
1.8866,0.2737,39.9300,75,98,67234
1.6178,0.2688,40.0300,75,98,67238
1.4223,0.2688,40.0300,75,98,67241
1.2903,0.2688,40.0600,75,98,67245
1.2463,0.2933,39.8000,75,98,67248
1.1877,0.2737,39.9300,75,98,67252
1.1828,0.2639,40.0000,75,98,67255
1.2317,0.2688,40.0300,75,98,67258
1.2659,0.2688,40.1000,75,98,67261
1.3783,0.2835,39.7700,75,98,67265
1.4174,0.2737,39.9600,75,98,67268
1.5103,0.2590,40.0300,75,98,67271
1.5347,0.2737,40.0000,75,98,67274
1.5543,0.2493,40.0600,75,98,67278
1.6227,0.3030,39.7700,75,98,67281
1.6129,0.2688,40.1300,75,98,67284
1.6422,0.2639,40.0300,75,98,67288
1.6667,0.2737,40.0000,75,98,67292
1.6716,0.2981,40.0600,75,98,67295
1.7204,0.2786,39.7700,75,98,67298
1.6960,0.2737,40.0000,75,98,67301
1.6960,0.2639,40.1600,75,98,67305
1.7204,0.2688,39.8900,75,98,67308
1.7351,0.2688,40.0300,75,98,67311
1.7889,0.3079,39.7700,75,98,67314
1.7449,0.2688,39.9600,75,98,67318
1.7498,0.2639,40.0300,75,98,67321
1.8084,0.2737,40.0000,75,98,67324
1.7791,0.2688,39.9600,75,98,67328
1.8475,0.2786,39.7700,75,98,67332
1.8084,0.2688,39.9300,75,98,67335
1.8133,0.2737,40.1000,75,98,67338
1.8133,0.2688,39.9600,75,98,67341
1.8133,0.2639,40.0600,75,98,67345
1.8768,0.2786,39.7700,75,98,67348
1.8475,0.2737,39.9600,75,98,67351
1.8426,0.2688,40.0300,75,98,67354
1.8475,0.2688,40.0000,75,98,67358
1.8426,0.2493,40.0300,75,98,67361
1.9062,0.2786,39.8600,75,98,67364
1.8768,0.2688,40.0300,75,98,67367
1.8915,0.2688,40.0300,75,98,67372
1.9013,0.2737,39.9600,75,98,67375
1.8866,0.2688,40.3000,75,98,67378
1.9355,0.2786,39.8000,75,98,67381
1.8866,0.2688,39.9600,75,98,67385
1.9208,0.2688,40.0300,75,98,67388
1.9306,0.2737,40.0300,75,98,67391
1.9257,0.2688,40.0600,75,98,67394
1.9795,0.2835,39.7700,75,98,67398
1.9453,0.2688,39.9300,75,98,67401
1.9453,0.2688,40.0300,75,98,67404
1.9746,0.2737,40.0000,75,98,67407
1.9844,0.2737,40.0300,75,98,67411
2.0479,0.2786,39.8600,75,98,67415
2.0088,0.2688,40.0000,75,98,67418
2.0088,0.2639,40.0300,75,98,67421
2.0430,0.2786,39.9600,75,98,67425
2.0332,0.2688,40.0600,75,98,67428
2.1017,0.2786,39.8000,75,98,67431
2.0626,0.2639,39.9600,75,98,67434
2.0674,0.2688,40.0300,75,98,67438
2.0772,0.2737,39.9600,75,98,67441
2.0479,0.2835,40.0000,75,98,67444
2.0186,0.2688,40.0300,75,98,67448
2.0577,0.2884,39.8300,75,98,67451
1.9892,0.2688,40.2600,75,98,67454
1.9697,0.2639,40.0300,75,98,67458
1.9501,0.2737,40.0000,75,98,67462
1.9159,0.2688,40.0000,75,98,67465
1.9453,0.2786,39.7300,75,98,67468
1.9062,0.2737,39.8900,75,98,67471
1.8524,0.2639,40.0000,75,98,67475
1.8328,0.2737,40.0300,75,98,67478
1.7986,0.2688,40.0300,75,98,67481
1.8084,0.3079,39.7700,75,98,67484
1.7400,0.2737,39.9600,75,98,67488
1.7107,0.2590,40.0300,75,98,67491
1.6960,0.2737,40.0600,75,98,67494
1.6911,0.2688,40.0300,75,98,67497
1.7498,0.2835,39.7700,75,98,67502
1.6618,0.2737,39.9600,75,98,67505
1.6520,0.2933,40.0300,75,98,67508
1.6569,0.2688,40.0300,75,98,67511
1.6422,0.2688,40.0300,75,98,67515
1.6911,0.3079,39.7300,75,98,67518
1.6471,0.2688,39.9300,75,98,67521
1.6422,0.2639,40.0300,75,98,67524
1.6422,0.2737,40.0000,75,98,67528
1.6373,0.2639,40.0300,75,98,67531
1.7009,0.2786,39.8600,75,98,67534
1.6813,0.2737,39.9300,75,98,67537
1.6764,0.2737,40.0300,75,98,67542
1.6716,0.2737,40.0000,75,98,67545
1.6716,0.2688,40.0600,75,98,67548
1.7351,0.2786,39.7700,75,98,67551
1.7009,0.2688,39.9600,75,98,67555
1.7107,0.2835,40.0300,75,98,67558
1.7253,0.2737,40.0000,75,98,67561
1.7009,0.2493,40.0300,75,98,67564
1.7498,0.2786,39.8000,75,98,67568
1.7155,0.2688,39.9300,75,98,67571
1.7302,0.2688,40.1000,75,98,67574
1.7400,0.2737,40.1000,75,98,67577
1.7302,0.2737,40.0000,75,98,67581
1.7791,0.2786,39.7700,75,98,67585
1.7546,0.2737,39.9300,75,98,67588
1.7449,0.2639,40.1000,75,98,67591
1.7644,0.3030,40.0300,75,98,67595
1.7742,0.2688,40.0300,75,98,67598
1.8426,0.2737,39.8000,75,98,67601
1.7791,0.2639,39.9600,75,98,67604
1.7742,0.2639,40.0600,75,98,67608
1.7937,0.2688,39.9600,75,98,67611
1.7840,0.2639,40.0300,75,98,67614
1.8328,0.2786,39.8000,75,98,67617
1.7840,0.2639,40.0000,75,98,67621
1.7742,0.2688,40.0300,75,98,67624
1.7791,0.2688,39.3200,75,98,67628
1.7742,0.2688,40.0000,75,98,67631
1.8377,0.2786,39.8000,75,98,67635
1.8084,0.2786,39.9300,75,98,67638
1.7937,0.2688,40.0600,75,98,67641
1.7889,0.2688,40.0600,75,98,67644
1.7742,0.2688,40.0300,75,98,67648
1.8084,0.3030,39.8300,75,98,67651
1.7742,0.2688,40.0300,75,98,67654
1.7742,0.2688,40.0000,75,98,67657
1.7889,0.2835,40.0300,75,98,67661
1.7644,0.2688,40.1000,75,98,67664
1.8328,0.2688,39.8000,75,98,67667
1.7986,0.2688,40.0000,75,98,67671
1.7889,0.2639,40.1000,75,98,67675
1.8084,0.2737,39.9600,75,98,67678
1.7889,0.2688,40.0300,75,98,67681
1.8133,0.2786,39.7700,75,98,67684
1.7742,0.2688,39.9300,75,98,67688
1.7644,0.2639,40.1000,75,98,67691
1.7889,0.2737,40.0000,75,98,67694
1.7840,0.2737,40.0300,75,98,67697
1.8328,0.2786,39.8000,75,98,67701
1.7791,0.2737,40.0000,75,98,67704
1.7693,0.2688,40.0300,75,98,67707
1.7937,0.2786,39.9600,75,98,67710
1.7791,0.2688,40.0000,75,98,67715
1.8231,0.2786,39.7300,75,98,67718
1.7742,0.2590,40.0000,75,98,67721
1.7693,0.2737,40.0300,75,98,67724
1.7791,0.2786,40.1000,75,98,67728
1.7546,0.3030,40.0600,75,98,67731
1.8084,0.2737,39.8000,75,98,67734
1.7889,0.2981,39.9300,75,98,67737
1.7840,0.2688,39.9300,75,98,67741
1.7889,0.2737,39.8900,75,98,67744
1.7742,0.2688,40.0300,75,98,67747
1.8133,0.2786,39.7700,75,98,67750
1.7889,0.2688,40.0300,75,98,67755
1.7986,0.2688,40.0600,75,98,67758
1.8231,0.2786,39.9600,75,98,67761
1.7937,0.2688,40.0300,75,98,67764
1.8328,0.2737,39.8000,75,98,67768
1.7937,0.2639,40.0000,75,98,67771
1.8084,0.2639,40.1000,75,98,67774
1.8328,0.2786,39.8300,75,98,67777
1.8133,0.2688,40.1000,75,98,67781
1.8768,0.2737,39.8000,75,98,67784
1.8084,0.2737,39.8900,75,98,67787
1.7986,0.2639,40.0300,75,98,67790
1.8182,0.2737,40.0000,75,98,67794
1.8377,0.2688,40.0300,75,98,67798
1.8573,0.2737,39.8300,75,98,67801
1.8133,0.2688,40.1000,75,98,67804
1.8035,0.2639,40.1000,75,98,67808
1.8231,0.3030,39.8900,75,98,67811
1.8084,0.2688,40.1300,75,98,67814
1.8524,0.2737,39.8300,75,98,67817
1.8182,0.2590,40.0600,75,98,67821
1.8182,0.2639,40.0300,75,98,67824
1.8280,0.2786,39.9300,75,98,67827
1.8035,0.2688,40.0600,75,98,67830
1.8475,0.2835,39.8300,75,98,67834
1.8328,0.2688,39.9600,75,98,67837
1.8280,0.2737,40.0600,75,98,67841
1.8328,0.2688,39.9600,75,98,67844
1.8133,0.2688,40.0600,75,98,67848
1.8524,0.2737,39.8300,75,98,67851
1.8377,0.2493,39.9600,75,98,67854
1.8524,0.2933,40.0000,75,98,67857
1.8768,0.2737,39.9600,75,98,67861
1.8573,0.2688,40.0300,75,98,67864
1.8866,0.2737,39.8900,75,98,67867
1.8671,0.2688,39.9300,75,98,67870
1.8915,0.2639,40.0300,75,98,67874
1.9550,0.2786,39.9300,75,98,67877
1.9013,0.2688,40.0300,75,98,67880
1.9355,0.2737,39.8600,75,98,67884
1.9110,0.2688,39.8000,75,98,67888
1.9159,0.2688,40.0300,75,98,67891
1.9501,0.2835,39.9600,75,98,67894
1.9501,0.2688,40.0300,75,98,67897
1.9844,0.2737,39.8600,75,98,67901
1.9257,0.2737,39.9600,75,98,67904
1.9013,0.2639,40.0600,75,98,67907
1.9013,0.2737,39.8600,75,98,67910
1.8622,0.2786,40.1000,75,98,67914
1.8768,0.2737,39.8900,75,98,67917
1.8182,0.2688,40.0600,75,98,67920
1.8231,0.2639,40.0300,75,98,67923
1.7791,0.3079,39.9300,75,98,67928
1.7351,0.2688,40.0300,75,98,67931
1.7595,0.2688,39.8600,75,98,67934
1.7351,0.2737,39.9300,75,98,67937
1.7155,0.2688,40.0600,75,98,67941
1.7155,0.2884,40.0300,75,98,67944
1.6911,0.2688,40.0300,75,98,67947
1.7155,0.2737,39.8900,75,98,67950
1.6911,0.2688,40.0000,75,98,67954
1.7107,0.2688,40.0300,75,98,67957
1.7302,0.2688,39.9300,75,98,67960
1.7155,0.2639,40.1000,75,98,67963
1.7351,0.2688,39.8600,75,98,67968
1.7155,0.2688,40.0300,75,98,67971
1.7400,0.2639,40.0600,75,98,67974
1.7595,0.2786,39.7000,75,98,67977
1.7351,0.2688,39.9600,75,98,67981
1.7595,0.2737,39.8600,75,98,67984
1.7204,0.2737,40.1000,75,98,67987
1.7302,0.2639,40.0600,75,98,67990
1.7693,0.2737,39.9600,75,98,67994
1.8133,0.2590,40.0300,75,98,67997
1.8817,0.2688,39.8900,75,98,68000
1.9355,0.2639,40.0000,75,98,68003
2.0674,0.2737,40.0300,75,98,68007
2.2678,0.2688,39.8600,75,98,68011
2.4878,0.2688,40.0300,75,98,68014
2.7761,0.2786,39.9300,75,98,68017
2.9668,0.2688,40.0000,75,98,68020
3.1427,0.2639,40.0600,75,98,68024
3.2502,0.2786,39.9300,75,98,68027
3.1085,0.2688,40.1300,75,98,68030
2.9081,0.2737,39.9300,75,98,68033
2.5513,0.2688,39.9600,75,98,68037
2.2239,0.2688,40.0300,75,98,68040
1.9355,0.2688,39.9300,75,98,68043
1.6667,0.2737,40.0000,75,98,68046
1.5054,0.2737,39.9300,75,98,68050
1.3490,0.2688,39.8600,75,98,68054
1.2561,0.2688,40.0300,75,98,68058
1.3539,0.2590,40.0300,75,98,68061
1.4076,0.3030,39.9600,75,98,68064
1.4614,0.2688,40.0300,75,98,68067
1.5738,0.2688,39.8300,75,98,68071
1.5689,0.2835,39.8900,75,98,68074
1.6031,0.2639,40.0600,75,98,68077
1.6520,0.2688,39.9600,75,98,68080
1.6716,0.2786,40.0300,75,98,68084
1.7253,0.2737,39.8300,75,98,68087
1.7058,0.2688,39.9600,75,98,68090
1.7449,0.2493,40.0300,75,98,68093
1.7546,0.3079,39.9300,75,98,68098
1.7546,0.2688,40.0300,75,98,68101
1.8182,0.2737,39.8600,75,98,68104
1.7791,0.2590,40.0300,75,98,68107
1.7791,0.2639,39.6700,75,98,68111
1.7889,0.2737,39.9600,75,98,68114
1.7693,0.2688,40.0300,75,98,68117
1.8231,0.2786,39.8600,75,98,68120
1.8133,0.3030,40.0000,75,98,68124
1.8133,0.2639,40.0300,75,98,68127
1.8231,0.2737,39.9600,75,98,68130
1.8084,0.2737,40.0300,75,98,68133
1.8475,0.2737,39.8600,75,98,68137
1.8377,0.2688,40.0000,75,98,68141
1.8524,0.2639,40.0300,75,98,68144
1.8719,0.2737,39.8600,75,98,68147
1.8475,0.2688,40.0300,75,98,68151
1.8964,0.2737,39.8900,75,98,68154
1.8426,0.2688,40.0300,75,98,68157
1.8573,0.2639,40.0300,75,98,68160
1.8866,0.2688,39.9600,75,98,68164
1.8768,0.2688,40.0300,75,98,68167
1.9013,0.2737,39.8600,75,98,68170
1.8719,0.2688,39.1900,75,98,68173
1.8768,0.2639,40.0600,75,98,68177
1.9062,0.2737,39.9300,75,98,68180
1.9013,0.2884,40.0000,75,98,68184
1.9306,0.2737,39.8600,75,98,68187
1.9013,0.2688,39.9600,75,98,68191
1.9013,0.2688,40.0300,75,98,68194
1.9257,0.2737,39.8900,75,98,68197
1.9257,0.2688,40.0300,75,98,68200
1.9697,0.2737,39.8900,75,98,68204
1.9501,0.2688,40.0300,75,98,68207
1.9599,0.2688,40.0300,75,98,68210
1.9892,0.2737,39.9300,75,98,68213
1.9697,0.2737,40.1000,75,98,68217
2.0235,0.2688,39.8900,75,98,68220
2.0186,0.2590,40.0000,75,98,68224
2.0235,0.2688,40.0300,75,98,68227
2.0381,0.2737,39.9600,75,98,68230
2.0186,0.2688,40.0300,75,98,68234
2.0479,0.2688,39.8900,75,98,68237
2.0186,0.2590,40.0000,75,98,68240
2.0332,0.2688,40.0600,75,98,68243
2.0577,0.2639,39.9300,75,98,68247
2.0137,0.2688,40.0000,75,98,68250
2.0332,0.2688,39.9300,75,98,68253
1.9892,0.2688,40.0300,75,98,68256
1.9844,0.2688,39.9600,75,98,68260
1.9990,0.2786,39.8900,75,98,68263
1.9404,0.2688,40.0300,75,98,68267
1.9355,0.2737,39.8900,75,98,68270
1.8622,0.2639,40.0000,75,98,68274
1.8328,0.2688,40.0300,75,98,68277
1.8231,0.2688,39.9600,75,98,68280
1.7840,0.2737,40.0300,75,98,68283
1.7889,0.2737,39.9300,75,98,68287
1.7155,0.2688,40.0600,75,98,68290
1.7155,0.2493,40.0300,75,98,68293
1.6618,0.2639,39.9300,75,98,68296
1.6373,0.2688,40.0300,75,98,68300
1.6520,0.2737,39.9300,75,98,68303
1.5934,0.2688,40.0300,75,98,68306
1.5689,0.2688,40.0000,75,98,68310
1.5640,0.2786,39.8900,75,98,68314
1.5200,0.2688,40.0300,75,98,68317
1.5396,0.2737,39.9300,75,98,68320
1.5103,0.2639,40.0000,75,98,68323
1.5103,0.2688,40.0300,75,98,68327
1.5103,0.2688,39.9300,75,98,68330
1.4907,0.2884,40.0300,75,98,68333
1.5103,0.2737,39.9600,75,98,68336
1.4907,0.2493,40.0600,75,98,68340
1.5054,0.2981,40.0300,75,98,68343
1.5200,0.2688,39.9300,75,98,68346
1.5005,0.2688,40.0000,75,98,68349
1.5200,0.2688,39.8600,75,98,68354
1.4907,0.2688,40.0300,75,98,68357
1.5054,0.2737,40.0000,75,98,68360
1.5396,0.2786,39.9600,75,98,68363
1.5249,0.2688,40.0300,75,98,68367
1.5445,0.2737,39.8900,75,98,68370
1.5152,0.2688,40.0600,75,98,68373
1.5249,0.2639,40.0300,75,98,68376
1.5591,0.2737,39.9300,75,98,68380
1.5543,0.2933,40.0300,75,98,68383
1.5836,0.2737,39.8900,75,98,68386
1.5591,0.2688,40.0300,75,98,68389
1.5543,0.2493,40.0600,75,98,68393
1.5738,0.2737,39.9600,75,98,68397
1.5738,0.2688,40.1000,75,98,68400
1.6031,0.2688,39.8900,75,98,68403
1.5836,0.2688,40.0600,75,98,68407
1.5836,0.2639,40.0300,75,98,68410
1.5934,0.2737,39.9300,75,98,68413
1.5591,0.2688,40.1000,75,98,68416
1.5934,0.2737,39.8900,75,98,68420
1.5787,0.2590,40.0300,75,98,68423
1.5689,0.2688,40.0000,75,98,68426
1.5836,0.2786,39.9600,75,98,68429
1.5543,0.2786,40.0300,75,98,68433
1.5689,0.2688,39.8600,75,98,68436
1.5445,0.2688,40.0300,75,98,68440
1.5494,0.2688,40.0600,75,98,68443
1.5543,0.2737,40.0300,75,98,68447
1.5396,0.2590,40.0300,75,98,68450
1.5494,0.2688,39.9600,75,98,68453
1.5200,0.2688,40.0300,75,98,68456
1.5249,0.2590,40.0300,75,98,68460
1.5543,0.2786,39.9600,75,98,68463
1.5249,0.2688,40.2300,75,98,68466
1.5347,0.2688,39.8900,75,98,68469
1.5054,0.2688,40.0300,75,98,68473
1.5054,0.2688,40.0600,75,98,68476
1.5640,0.2737,39.9600,75,98,68480
1.5200,0.2639,40.1000,75,98,68483
1.5396,0.2737,39.8900,75,98,68487
1.5249,0.2688,40.0300,75,98,68490
1.4907,0.2590,40.0300,75,98,68493
1.5005,0.2737,40.0000,75,98,68496
1.4858,0.2737,40.0300,75,98,68500
1.4956,0.2884,39.8900,75,98,68503
1.4712,0.2981,40.0000,75,98,68506
1.4614,0.2590,40.0600,75,98,68509
1.4858,0.2786,39.8900,75,98,68513
1.4418,0.2688,40.1000,75,98,68516
1.4663,0.2688,39.8600,75,98,68519
1.4565,0.2688,40.0300,75,98,68523
1.4565,0.2737,40.0300,75,98,68527
1.4712,0.2688,39.8900,75,98,68530
1.4516,0.2688,40.0600,75,98,68533
1.4565,0.2737,39.8900,75,98,68536
1.4418,0.2884,40.1000,75,98,68540
1.4516,0.2688,40.0300,75,98,68543
1.4761,0.2786,40.0000,75,98,68546
1.4467,0.2688,40.0300,75,98,68549
1.4565,0.2737,39.9300,75,98,68553
1.4370,0.2786,40.0600,75,98,68556
1.4418,0.2639,40.0600,75,98,68559
1.4712,0.2786,39.8900,75,98,68562
1.4467,0.2737,40.0300,75,98,68567
1.4614,0.2688,39.9600,75,98,68570
1.4370,0.2688,40.0300,75,98,68573
1.4321,0.2688,40.0300,75,98,68576
1.4614,0.2786,39.9300,75,98,68580
1.4516,0.2688,39.9600,75,98,68583
1.4614,0.2737,39.9300,75,98,68586
1.4565,0.2688,40.0300,75,98,68589
1.4370,0.2590,40.0300,75,98,68593
1.4614,0.2786,40.0000,75,98,68596
1.4516,0.2688,39.9600,75,98,68599
1.4761,0.2737,39.9300,75,98,68602
1.4761,0.2688,40.0300,75,98,68606
1.4663,0.2933,40.0600,75,98,68610
1.4809,0.2786,39.8300,75,98,68613
1.4663,0.2688,40.0300,75,98,68616
1.5103,0.2737,39.9300,75,98,68620
1.4761,0.2688,40.0300,75,98,68623
1.4761,0.2688,40.0600,75,98,68626
1.4907,0.2786,39.9300,75,98,68629
1.4565,0.2737,40.0300,75,98,68633
1.4663,0.2688,39.8900,75,98,68636
1.4516,0.2688,40.0300,75,98,68639
1.4614,0.2688,40.0300,75,98,68642
1.4956,0.2737,39.9600,75,98,68646
1.4614,0.2688,40.0300,75,98,68649
1.4663,0.2737,39.9300,75,98,68653
1.4467,0.2688,40.0300,75,98,68656
1.4614,0.2639,40.0600,75,98,68660
1.5005,0.2786,39.9600,74,98,68663
1.4516,0.2737,39.9600,74,98,68668
1.4370,0.2688,39.8600,74,98,68671
1.4516,0.2688,39.9300,74,98,68674
1.4076,0.2590,40.0000,74,98,68677
1.3930,0.2639,40.0300,74,98,68681
1.3978,0.2688,39.9300,74,98,68684
1.3978,0.2688,40.0300,74,98,68687
1.4321,0.2639,39.8900,74,98,68690
1.4125,0.2590,40.0300,74,98,68695
1.4076,0.2639,40.1000,74,98,68698
1.4174,0.2737,39.9300,74,98,68701
1.3978,0.2493,40.0300,74,98,68704
1.4418,0.2786,39.8900,74,98,68708
1.4272,0.2639,40.1000,74,98,68711
1.4516,0.2639,40.0300,74,98,68714
1.4614,0.2737,39.9600,74,98,68717
1.4516,0.2884,40.0300,74,98,68721
1.4907,0.2688,39.9600,74,98,68724
1.4858,0.2688,40.0300,74,98,68727
1.5054,0.2884,40.0300,74,98,68730
1.5249,0.2688,39.9600,74,98,68734
1.5249,0.2493,40.0300,74,98,68738
1.5396,0.2737,39.9300,74,98,68741
1.5103,0.2639,40.0000,74,98,68744
1.5249,0.2639,40.0300,74,98,68748
1.5543,0.2786,39.9300,74,98,68751
1.5200,0.2493,40.0300,74,98,68754
1.5249,0.2737,39.7700,74,98,68757
1.4614,0.2639,40.0300,74,98,68761
1.4418,0.2590,40.0300,74,98,68764
1.4418,0.2884,39.9300,74,98,68767
1.4076,0.2688,40.0300,74,98,68770
1.4027,0.2737,39.9300,74,98,68774
1.3441,0.2639,39.9600,74,98,68777
1.3196,0.2639,40.0300,74,98,68781
1.3050,0.2639,39.9300,74,98,68784
1.2903,0.2737,40.0300,74,98,68788
1.3050,0.2688,39.9600,74,98,68791
1.2805,0.2688,40.0600,74,98,68794
1.2708,0.2639,40.0300,74,98,68797
1.2903,0.2786,39.9600,74,98,68800
1.2610,0.2639,40.0300,74,98,68804
1.2952,0.2737,39.9300,74,98,68807
1.2805,0.2639,40.0600,74,98,68810
1.2903,0.2639,40.0300,74,98,68814
1.3099,0.2688,39.9600,74,98,68817
1.2952,0.2688,39.9600,74,98,68820
1.3148,0.2688,39.8900,74,98,68824
1.3050,0.2639,40.0300,74,98,68827
1.3196,0.2981,40.0600,74,98,68831
1.3441,0.2688,40.0000,74,98,68834
1.3245,0.2639,40.0300,74,98,68837
1.3343,0.2688,40.0600,74,98,68840
1.3099,0.2639,39.2800,74,98,68844
1.3294,0.2639,40.0300,74,98,68847
1.3734,0.2737,39.8900,74,98,68850
1.3881,0.2639,40.0300,74,98,68853
1.4809,0.2688,39.8900,74,98,68857
1.5836,0.2493,40.0600,74,98,68860
1.7644,0.2639,39.9600,74,98,68864
2.0430,0.2688,39.8900,74,98,68867
2.3118,0.2590,40.0300,74,98,68871
2.5709,0.2688,40.1000,74,98,68874
2.7273,0.2493,40.0600,74,98,68877
2.8495,0.2590,40.0300,74,98,68880
2.8543,0.2688,39.8600,74,98,68884
2.6540,0.2639,40.0000,74,98,68887
2.3900,0.2688,39.8900,74,98,68890
2.0186,0.2639,40.0600,74,98,68893
1.6618,0.2493,40.0600,74,98,68897
1.3930,0.3079,39.8600,74,98,68900
1.1290,0.2639,40.0300,74,98,68903
0.9629,0.2639,39.9300,74,98,68907
0.8456,0.2933,40.0000,74,98,68911
0.7722,0.2639,40.0600,74,98,68914
0.7576,0.2688,39.9300,74,98,68917
0.7527,0.2688,40.1600,74,98,68920
0.7918,0.2493,39.9300,74,98,68924
0.8456,0.2737,40.0000,74,98,68927
0.9238,0.2639,40.2300,74,98,68930
1.0117,0.2786,39.9600,74,98,68933
1.0411,0.2639,40.0300,74,98,68937
1.0802,0.2639,39.9600,74,98,68940
1.1046,0.2639,40.0300,74,98,68943
1.1388,0.2590,39.9300,74,98,68946
1.1975,0.2737,39.8600,74,98,68950
1.1926,0.2737,40.0000,74,98,68954
1.2121,0.2884,39.9300,74,98,68957
1.2170,0.2639,39.9600,74,98,68960
1.2317,0.2639,40.0600,74,98,68963
1.2805,0.2786,39.8900,74,98,68967
1.2805,0.2688,39.8600,74,98,68970
1.2903,0.2590,39.9600,74,98,68973
1.2854,0.2639,40.0600,74,98,68976
1.2854,0.2590,40.0600,74,98,68980
1.3539,0.2786,39.8600,74,98,68983
1.3148,0.2639,40.0300,74,98,68986
1.3294,0.2590,39.9300,74,98,68989
1.3392,0.2639,40.0600,74,98,68994
1.3441,0.2639,40.1000,74,98,68997
1.3832,0.2737,39.8000,74,98,69000
1.3490,0.2639,40.0000,74,98,69003
1.3636,0.2688,39.9600,74,98,69007
1.3734,0.2639,39.9300,74,98,69010
1.3734,0.2590,40.0300,74,98,69013
1.4223,0.2835,39.8300,74,98,69016
1.3881,0.2688,40.0000,74,98,69020
1.3832,0.2590,39.9600,74,98,69023
1.3881,0.2639,40.0300,74,98,69026
1.4027,0.2590,40.0000,74,98,69029
1.4565,0.2786,39.8600,74,98,69033
1.4174,0.2688,40.0000,74,98,69037
1.4125,0.2542,40.0300,74,98,69040
1.4174,0.2639,39.9600,74,98,69043
1.4321,0.2590,40.0300,74,98,69047
1.4956,0.2835,39.8600,74,98,69050
1.4712,0.2688,40.0000,74,98,69053
1.4809,0.2542,40.0000,74,98,69056
1.4907,0.2639,40.0300,74,98,69060
1.4907,0.2639,40.0600,74,98,69063
1.5591,0.2786,39.8300,74,98,69066
1.5445,0.2688,39.9600,74,98,69069
1.5591,0.2590,40.0000,74,98,69073
1.5689,0.2639,40.0000,74,98,69076
1.5836,0.2590,40.0600,74,98,69080
1.6422,0.3079,39.8300,74,98,69083
1.6227,0.2639,40.0300,74,98,69087
1.6276,0.2493,40.0000,74,98,69090
1.6667,0.2590,40.0300,74,98,69093
1.6422,0.2590,40.1000,74,98,69096
1.6862,0.2688,39.8000,74,98,69100
1.6276,0.2493,39.9600,74,98,69103
1.6422,0.2542,40.0300,74,98,69106
1.6520,0.2639,40.0000,74,98,69109
1.6520,0.2639,40.0600,74,98,69113
1.6960,0.2786,39.8600,74,98,69116
1.6471,0.2590,39.9300,74,98,69120
1.6373,0.2639,40.0000,74,98,69123
1.6471,0.2639,40.0600,74,98,69127
1.6373,0.2590,40.1600,74,98,69130
1.6813,0.2688,39.7700,74,98,69133
1.6227,0.2639,39.9300,74,98,69136
1.5836,0.2542,40.0300,74,98,69140
1.5591,0.2639,40.1300,74,98,69143
1.5298,0.2590,40.0000,74,98,69146
1.5543,0.2737,39.8000,74,98,69149
1.4809,0.2786,40.2000,74,98,69153
1.4370,0.2493,40.0300,74,98,69156
1.4125,0.2639,40.0000,74,98,69159
1.3685,0.2590,39.9600,74,98,69163
1.3881,0.2688,39.7700,74,98,69167
1.3441,0.2590,39.9600,74,98,69170
1.3245,0.2786,40.0300,74,98,69173
1.3148,0.2639,40.1000,74,98,69176
1.2757,0.2590,40.0300,74,98,69180
1.3001,0.2688,39.7700,74,98,69183
1.2708,0.2639,39.9600,74,98,69186
1.2610,0.2590,40.0600,74,98,69189
1.2659,0.2688,40.0000,74,98,69193
1.2610,0.2590,40.1300,74,98,69196
1.2952,0.2688,39.7700,74,98,69199
1.2561,0.2590,39.9600,74,98,69202
1.2561,0.2590,40.0300,74,98,69207
1.2659,0.2639,40.0000,74,98,69210
1.2757,0.2590,40.0300,74,98,69213
1.3001,0.2688,39.8000,74,98,69216
1.2610,0.2542,39.9300,74,98,69220
1.2659,0.2542,40.0300,74,98,69223
1.2805,0.2639,40.1600,74,98,69226
1.2805,0.2590,40.0000,74,98,69229
1.3636,0.2737,39.8000,74,98,69233
1.3099,0.2786,39.9300,74,98,69236
1.3001,0.2590,40.0600,74,98,69239
1.3196,0.2639,40.0300,74,98,69242
1.3245,0.2590,40.0000,74,98,69245
1.3783,0.2688,39.8000,74,98,69250
1.3539,0.2639,40.1000,74,98,69253
1.3490,0.2590,40.1300,74,98,69256
1.3636,0.2688,39.9600,74,98,69259
1.3392,0.2493,40.0000,74,98,69263
1.3881,0.2688,39.8300,74,98,69266
1.3734,0.2542,40.0000,74,98,69269
1.4076,0.2493,40.0300,74,98,69272
1.4027,0.2688,39.9600,74,98,69276
1.4076,0.2542,40.0300,74,98,69280
1.4027,0.2737,39.3500,74,98,69284
1.4272,0.2786,39.9600,74,98,69287
1.3734,0.2639,40.0000,74,98,69291
1.3783,0.2444,40.0600,74,98,69294
1.3930,0.2639,40.1000,74,98,69298
1.3978,0.2493,40.0300,74,98,69301
1.4418,0.2835,39.8300,74,98,69304
1.4076,0.2590,39.9300,74,98,69307
1.4076,0.2297,40.0300,74,98,69311
1.4174,0.2639,40.0000,74,98,69314
1.4272,0.2590,40.0600,74,98,69317
1.4761,0.2786,39.8000,74,98,69320
1.4467,0.2639,39.9300,74,98,69324
1.4223,0.2542,40.0000,74,98,69327
1.4223,0.2590,40.0000,74,98,69330
1.4272,0.2590,40.0600,74,98,69334
1.4809,0.2884,39.7700,74,98,69338
1.4418,0.2639,40.0000,74,98,69341
1.4418,0.2542,40.0300,74,98,69344
1.4565,0.2590,40.0000,74,98,69347
1.4272,0.2590,39.5100,74,98,69351
1.4712,0.2688,39.7700,74,98,69354
1.4712,0.2590,39.9300,74,98,69357
1.4614,0.2542,40.0000,74,98,69360
1.4614,0.2639,40.0300,74,98,69364
1.4516,0.2590,40.0300,74,98,69367
1.4907,0.2786,39.7700,74,98,69370
1.4614,0.2688,39.9300,74,98,69373
1.4663,0.2590,40.0600,74,98,69378
1.4761,0.2639,40.0300,74,98,69381
1.5103,0.2639,40.0300,74,98,69384
1.5152,0.2737,39.7700,74,98,69387
1.4712,0.2639,40.0300,74,98,69391
1.4809,0.2542,40.1300,74,98,69394
1.4907,0.2639,40.0000,74,98,69397
1.4907,0.2639,40.0000,74,98,69400
1.5347,0.2737,39.7700,74,98,69404
1.4907,0.2590,39.9300,74,98,69407
1.4858,0.2639,40.0600,74,98,69410
1.4907,0.2639,39.3500,74,98,69413
1.4907,0.2590,40.0300,74,98,69417
1.5396,0.2737,39.7700,74,98,69421
1.5054,0.2688,39.9300,74,98,69424
1.4907,0.2590,40.0600,74,98,69427
1.4956,0.2639,40.0300,74,98,69431
1.5005,0.2688,40.0300,74,98,69434
1.5591,0.2737,39.7700,74,98,69437
1.5249,0.2639,39.9600,74,98,69440
1.5347,0.2542,40.0600,74,98,69444
1.5298,0.2688,40.0300,74,98,69447
1.5200,0.2590,40.0300,74,98,69450
1.5738,0.2786,39.7700,74,98,69453
1.5494,0.2933,39.9300,74,98,69457
1.5640,0.2590,40.1000,74,98,69460
1.5787,0.2493,40.0000,74,98,69464
1.5494,0.2542,40.0300,74,98,69467
1.5982,0.2737,39.7000,74,98,69471
1.5738,0.2639,39.9600,74,98,69474
1.5738,0.2590,40.1000,74,98,69477
1.5885,0.2590,40.0300,74,98,69480
1.5836,0.2590,40.0300,74,98,69484
1.6227,0.2737,39.8300,74,98,69487
1.5787,0.2639,39.9300,74,98,69490
1.5934,0.2590,40.0300,74,98,69493
1.6227,0.2688,40.0000,74,98,69497
1.6129,0.2884,40.1000,74,98,69500
1.6569,0.2786,39.8300,74,98,69504
1.6031,0.2590,40.0000,74,98,69507
1.6129,0.2493,40.0300,74,98,69510
1.6276,0.2688,40.0300,74,98,69514
1.6227,0.2590,40.0600,74,98,69517
1.6716,0.2688,39.8000,74,98,69520
1.6325,0.2737,39.9300,74,98,69523
1.6080,0.2590,39.4100,74,98,69527
1.6178,0.2639,40.0000,74,98,69530
1.6178,0.2590,40.0300,74,98,69533
1.6764,0.2688,39.8300,74,98,69536
1.6471,0.2639,40.0000,74,98,69540
1.6373,0.2639,40.0300,74,98,69543
1.6471,0.2688,39.9600,74,98,69547
1.6178,0.2590,40.0300,74,98,69550
1.6569,0.2737,39.8000,74,98,69554
1.6276,0.2542,40.0000,74,98,69557
1.6373,0.2590,39.3200,74,98,69560
1.6471,0.2688,39.9600,74,98,69563
1.6227,0.2639,40.0300,74,98,69567
1.6618,0.2688,39.8000,74,98,69570
1.6422,0.2688,39.9600,74,98,69573
1.6520,0.2590,40.0300,74,98,69576
1.6716,0.2639,39.9600,74,98,69580
1.6569,0.2639,40.0300,74,98,69583
1.6911,0.2688,39.8300,74,98,69586
1.6569,0.2639,39.9600,74,98,69590
1.6569,0.2688,40.0600,74,98,69594
1.6764,0.2688,39.9600,74,98,69597
1.7009,0.2639,40.0300,74,98,69600
1.7155,0.2688,39.8900,74,98,69603
1.6716,0.2590,40.1300,74,98,69607
1.6911,0.2590,40.0300,74,98,69610
1.7107,0.2933,39.9600,74,98,69613
1.7204,0.2639,40.1300,74,98,69616
1.7742,0.2688,39.8300,74,98,69620
1.7791,0.2493,39.9300,74,98,69623
1.7693,0.2884,40.0300,74,98,69626
1.7791,0.2688,40.0000,74,98,69629
1.7791,0.2639,40.0300,74,98,69634
1.8280,0.2737,39.8000,74,98,69637
1.8035,0.2639,40.0000,74,98,69640
1.8084,0.2590,40.0300,74,98,69643
1.8231,0.2737,40.1000,74,98,69647
1.7889,0.2639,40.0300,74,98,69650
1.8182,0.2737,39.8300,74,98,69653
1.7693,0.2493,40.0600,74,98,69656
1.7595,0.2639,40.0600,74,98,69660
1.7351,0.2688,39.9600,74,98,69663
1.6862,0.2590,40.0300,74,98,69666
1.6862,0.2688,39.8900,74,98,69669
1.6373,0.2639,39.9600,74,98,69673
1.6178,0.2493,40.0300,74,98,69677
1.6227,0.2688,39.9600,74,98,69680
1.5885,0.2639,40.0300,74,98,69683
1.6031,0.2688,39.8300,74,98,69687
1.5543,0.2639,39.9600,74,98,69690
1.5543,0.2590,40.1000,74,98,69693
1.5689,0.2688,39.8600,74,98,69696
1.5543,0.2639,40.0300,74,98,69700
1.6031,0.2737,39.8300,74,98,69703
1.5445,0.2639,40.0600,74,98,69706
1.5298,0.2639,40.0300,74,98,69709
1.5445,0.2688,39.9600,74,98,69713
1.5396,0.2639,40.0300,74,98,69716
1.5738,0.2933,39.8300,74,98,69720
1.5494,0.2688,40.0000,74,98,69723
1.5347,0.2639,40.0300,74,98,69727
1.5396,0.2688,39.9600,74,98,69730
1.5298,0.2737,40.1000,74,98,69733
1.5640,0.2688,39.8300,74,98,69736
1.5445,0.2737,39.9600,74,98,69740
1.5591,0.2786,40.0000,74,98,69743
1.5934,0.2688,39.8900,74,98,69746
1.6422,0.2639,40.0300,74,98,69749
1.7840,0.2639,39.8600,74,98,69753
1.9257,0.2786,40.1000,74,98,69756
2.1554,0.2639,40.0300,74,98,69760
2.4242,0.2737,39.9300,74,98,69763
2.6491,0.2493,40.0300,74,98,69767
2.9130,0.2688,39.8600,74,98,69770
3.0303,0.2737,39.9600,74,98,69773
3.0401,0.2590,40.1000,74,98,69776
2.9179,0.2688,39.8600,74,98,69780
2.6246,0.2688,40.0300,74,98,69783
2.3167,0.2737,39.8900,74,98,69786
1.9355,0.2639,39.2800,74,98,69789
1.6422,0.2639,40.0300,74,98,69793
1.4272,0.2737,39.9300,74,98,69796
1.2317,0.2639,40.0600,74,98,69799
1.1290,0.2688,39.8600,74,98,69803
1.0264,0.2639,40.0300,74,98,69807
1.0068,0.2639,40.0600,74,98,69810
1.0411,0.2688,39.9300,74,98,69813
1.0899,0.2688,40.0300,74,98,69816
1.1290,0.2688,39.9600,74,98,69820
1.1828,0.2639,39.9600,74,98,69823
1.2366,0.2688,40.0000,74,98,69826
1.2952,0.2688,40.0600,74,98,69829
1.3343,0.2639,40.0300,74,98,69833
1.4027,0.2737,39.8900,74,98,69836
1.4076,0.2639,40.0000,74,98,69839
1.4370,0.2639,40.0300,74,98,69842
1.4614,0.2737,39.9300,74,98,69847
1.4712,0.2981,40.0300,74,98,69850
1.5200,0.2688,39.9300,74,98,69853
1.5152,0.2688,40.0300,74,98,69856
1.5738,0.2493,40.0300,74,98,69860
1.5738,0.2786,39.8900,74,98,69863
1.5543,0.2639,40.1000,74,98,69866
1.5934,0.2688,39.9300,74,98,69869
1.5787,0.2493,40.0000,74,98,69873
1.6080,0.2639,40.0000,74,98,69876
1.6471,0.2737,39.9600,74,98,69879
1.6520,0.2688,40.0300,74,98,69882
1.6862,0.2688,39.9600,74,98,69886
1.6569,0.2639,39.8900,74,98,69890
1.7107,0.2639,40.0300,74,98,69894
1.7351,0.2590,40.0300,74,98,69898
1.7253,0.2786,39.9600,74,98,69901
1.7204,0.2835,40.0600,74,98,69904
1.7742,0.2688,39.8300,74,98,69907
1.7498,0.2737,39.9600,74,98,69911
1.7546,0.2835,40.0300,74,98,69914
1.7791,0.2737,39.9300,74,98,69917
1.7840,0.2639,40.0300,74,98,69920
1.8426,0.2737,39.8300,74,98,69924
1.8280,0.2688,39.9600,74,98,69927
1.8426,0.2688,40.0300,74,98,69931
1.8622,0.2737,39.9300,74,98,69934
1.8475,0.2639,40.0600,74,98,69938
1.8964,0.2688,39.8600,74,98,69941
1.8817,0.2688,40.1000,74,98,69944
1.9110,0.2884,40.1000,74,98,69947
1.9355,0.2737,40.1000,74,98,69951
1.9306,0.2639,40.0600,74,98,69954
1.9795,0.2737,39.8300,74,98,69957
1.9697,0.2639,39.9300,74,98,69960
1.9844,0.2688,40.0600,74,98,69964
2.0186,0.2737,40.0000,74,98,69967
2.0186,0.2737,40.0300,74,98,69970
2.0528,0.2737,39.8900,74,98,69974
2.0235,0.2688,39.9600,74,98,69978
2.0332,0.2688,40.1000,74,98,69981
2.0674,0.2737,39.8900,74,98,69984
2.0577,0.2639,40.0300,74,98,69987
2.0919,0.2688,39.8600,74,98,69991
2.0479,0.2688,40.0300,74,98,69994
2.0479,0.2639,40.0600,74,98,69997
2.0674,0.2737,39.8600,74,98,70000
2.0479,0.2688,40.0300,74,98,70004
2.0723,0.2786,39.8900,74,98,70007
2.0283,0.2688,39.9600,74,98,70010
1.9990,0.2639,40.0300,74,98,70013
1.9941,0.2737,39.9600,74,98,70018
1.9550,0.2737,40.0000,74,98,70021
1.9599,0.2688,39.8900,74,98,70024
1.9062,0.2688,40.0000,74,98,70027
1.8817,0.2688,39.8000,74,98,70031
1.8524,0.2688,39.9600,74,98,70034
1.8231,0.2590,40.0000,74,98,70037
1.8182,0.2688,39.8900,74,98,70040
1.7742,0.2688,39.7000,74,98,70044
1.7644,0.2493,40.0300,74,98,70047
1.7595,0.2688,39.9600,74,98,70050
1.7058,0.2933,40.0300,74,98,70053
1.7155,0.2688,39.9600,74,98,70057
1.6813,0.2493,40.0000,74,98,70061
1.6764,0.2639,40.0300,74,98,70064
1.6911,0.2639,40.0300,74,98,70067
1.6716,0.2688,40.0300,74,98,70071
1.6862,0.2688,39.8900,74,98,70074
1.6471,0.2639,40.0000,74,98,70077
1.6569,0.2639,40.0300,74,98,70080
1.6862,0.2688,39.8900,74,98,70084
1.6813,0.2737,40.0000,74,98,70087
1.7155,0.2688,39.9600,74,98,70090
1.6764,0.2688,40.0300,74,98,70093
1.7155,0.2737,40.0300,74,98,70097
1.7204,0.2835,39.9300,74,98,70100
1.7107,0.2737,40.1000,74,98,70104
1.7595,0.2688,39.9300,74,98,70107
1.7400,0.2493,40.0000,74,98,70111
1.7498,0.2639,40.0000,74,98,70114
1.7693,0.2737,39.9300,74,98,70117
1.7693,0.2737,40.0300,74,98,70120
1.8133,0.2639,39.8900,74,98,70124
1.7889,0.2981,40.0600,74,98,70127
1.7986,0.2688,40.0300,74,98,70130
1.8182,0.2737,39.9300,74,98,70133
1.7937,0.2737,40.0300,74,98,70137
1.8377,0.2688,39.9600,74,98,70140
1.8280,0.2688,39.5400,74,98,70144
1.8573,0.2688,40.0600,74,98,70147
1.8817,0.2737,39.9300,74,98,70151
1.8524,0.2639,40.0300,74,98,70154
1.8866,0.2688,39.9300,74,98,70157
1.8573,0.2639,40.0300,74,98,70160
1.8817,0.2639,40.0600,74,98,70164
1.9159,0.2786,39.9600,74,98,70167
1.9062,0.2688,40.0300,74,98,70170
1.9355,0.2493,39.9300,74,98,70173
1.8866,0.2639,40.0300,74,98,70177
1.8915,0.2639,40.1300,74,98,70180
1.9062,0.2688,39.9300,74,98,70183
1.9062,0.2688,40.0300,74,98,70187
1.9355,0.2737,39.8600,74,98,70191
1.8915,0.2688,40.0600,74,98,70194
1.8915,0.2639,40.0300,74,98,70197
1.9257,0.2737,39.8900,74,98,70200
1.8964,0.2590,40.0300,74,98,70204
1.9208,0.2737,40.0000,74,98,70207
1.8768,0.2639,40.0000,74,98,70210
1.8768,0.2688,40.0600,74,98,70213
1.8964,0.2737,39.9600,74,98,70217
1.9062,0.2493,40.0600,74,98,70220
1.9208,0.2737,39.9300,74,98,70223
1.8915,0.2688,40.1600,74,98,70226
1.8964,0.2639,40.0300,74,98,70231
1.8964,0.2590,39.9300,74,98,70234
1.8817,0.2688,40.0000,74,98,70237
1.9062,0.2688,39.9300,74,98,70240
1.8866,0.2688,40.0300,74,98,70244
1.8915,0.2688,40.0300,74,98,70247
1.9110,0.2786,39.9300,74,98,70250
1.8573,0.2688,40.0300,74,98,70253
1.8768,0.2688,39.9300,74,98,70257
1.8377,0.2590,40.0300,74,98,70260
1.8426,0.2639,40.0600,74,98,70263
1.8671,0.2737,39.9600,74,98,70266
1.8426,0.2688,40.0300,74,98,70270
1.8524,0.2981,39.9300,74,98,70274
1.8035,0.2688,40.0600,74,98,70277
1.7986,0.2493,40.0300,74,98,70280
1.8182,0.2835,39.9300,74,98,70284
1.7937,0.2688,40.0300,74,98,70287
1.8328,0.2688,39.9300,74,98,70290
1.7889,0.2688,40.0300,74,98,70293
1.7840,0.2639,40.0000,74,98,70297
1.8035,0.2786,39.9600,74,98,70300
1.7791,0.2688,40.0300,74,98,70303
1.8084,0.2933,39.8900,74,98,70306
1.7742,0.2688,40.3000,74,98,70310
1.7693,0.2639,40.0300,74,98,70313
1.7742,0.2737,39.9600,74,98,70317
1.7644,0.2639,40.0000,74,98,70320
1.7937,0.2737,39.8900,74,98,70324
1.7595,0.2688,40.0300,74,98,70327
1.7644,0.2639,40.0300,74,98,70330
1.7693,0.2786,40.1000,74,98,70333
1.7498,0.2688,40.0600,74,98,70337
1.7742,0.2737,39.8900,74,98,70340
1.7595,0.2493,40.0300,74,98,70343
1.7742,0.2688,40.0600,74,98,70346
1.8133,0.2786,39.9600,74,98,70350
1.7791,0.2688,40.0600,74,98,70353
1.7986,0.2737,39.9300,74,98,70356
1.7742,0.2884,40.0600,74,98,70360
1.7840,0.2639,40.0300,74,98,70364
1.8231,0.2688,39.9300,74,98,70367
1.8035,0.2639,40.0000,74,98,70370
1.8231,0.2688,39.8900,74,98,70373
1.7791,0.2639,40.0600,74,98,70377
1.8035,0.2639,40.0600,74,98,70380
1.8231,0.2737,39.9300,74,98,70383
1.8035,0.2688,40.0300,74,98,70386
1.8328,0.2737,39.8900,74,98,70390
1.7742,0.2688,40.0300,74,98,70393
1.7742,0.2639,39.8600,74,98,70396
1.8035,0.2737,39.8900,74,98,70400
1.7840,0.2688,40.0300,74,98,70404
1.8133,0.2688,39.8900,74,98,70407
1.7840,0.2688,40.0600,74,98,70410
1.7693,0.2493,40.0300,74,98,70413
1.7937,0.2786,39.9300,74,98,70417
1.7840,0.2639,40.0300,74,98,70420
1.8182,0.2688,39.8900,74,98,70423
1.8035,0.2590,40.0300,74,98,70426
1.8133,0.2639,39.7300,74,98,70430
1.8377,0.2737,40.0000,74,98,70433
1.8182,0.2590,40.0000,74,98,70436
1.8475,0.2688,39.9600,74,98,70439
1.8475,0.2639,39.9300,74,98,70444
1.8768,0.2639,40.1000,74,98,70447
1.9208,0.2737,39.8900,74,98,70450
1.8915,0.2981,40.1000,74,98,70453
1.9306,0.2688,40.0300,74,98,70457
1.9110,0.2688,40.0300,74,98,70460
1.9257,0.2639,40.0000,74,98,70463
1.9746,0.2737,40.0300,74,98,70466
1.9697,0.2688,40.0000,74,98,70469
1.9746,0.2688,39.9300,74,98,70473
1.9453,0.2688,40.1300,74,98,70476
1.9453,0.2639,40.0300,74,98,70479
1.9746,0.2835,39.9600,74,98,70483
1.9355,0.2688,40.0300,74,98,70487
1.9306,0.2688,39.9600,74,98,70490
1.8768,0.2639,40.0300,74,98,70493
1.8475,0.2590,40.0000,74,98,70496
1.8573,0.2737,39.8600,74,98,70500
1.7155,0.2737,39.9600,74,98,70504
1.6960,0.2639,39.8600,74,98,70508
1.7253,0.2639,39.8900,74,98,70511
1.6911,0.2590,40.0300,74,98,70514
1.6960,0.2639,40.0300,74,98,70517
1.6960,0.2688,39.9300,74,98,70521
1.6813,0.2737,40.0300,74,98,70524
1.7155,0.2737,40.0000,74,98,70528
1.6960,0.2688,40.0600,74,98,70531
1.7204,0.2639,40.0300,74,98,70535
1.7400,0.2786,39.9300,74,98,70538
1.7058,0.2737,40.0300,74,98,70541
1.7351,0.2688,39.9300,74,98,70544
1.7058,0.2590,40.0000,74,98,70548
1.7107,0.2639,40.0000,74,98,70551
1.7400,0.2688,39.9600,74,98,70554
1.7253,0.2688,40.0300,74,98,70557
1.7693,0.2737,39.8900,74,98,70561
1.7791,0.2639,40.0600,74,98,70564
1.8573,0.2639,40.0300,74,98,70567
1.9941,0.2737,39.9300,74,98,70571
2.1505,0.2688,40.1000,74,98,70575
2.3949,0.2737,39.9300,74,98,70578
2.6295,0.2542,40.0300,74,98,70581
2.8495,0.2639,40.0000,74,98,70584
3.1085,0.2786,39.9600,74,98,70588
3.2063,0.2688,40.0300,74,98,70591
3.2356,0.2786,39.9300,74,98,70594
2.9912,0.2688,40.0300,74,98,70597
2.6931,0.2639,40.0600,74,98,70601
2.3656,0.2737,39.9600,74,98,70604
2.0283,0.2688,40.0300,74,98,70607
1.8084,0.2737,39.9300,74,98,70610
1.5591,0.2688,40.0300,74,98,70615
1.4076,0.2639,40.1000,74,98,70618
1.3050,0.2688,40.0000,74,98,70621
1.2170,0.2688,40.0300,74,98,70624
1.2121,0.2737,39.8900,74,98,70628
1.2072,0.2639,40.0300,74,98,70631
1.2463,0.2688,40.0000,74,98,70634
1.3050,0.2786,39.8900,74,98,70637
1.3587,0.2688,40.0300,74,98,70641
1.4321,0.2639,39.8900,74,98,70644
1.4761,0.2688,39.5700,74,98,70647
1.5445,0.2639,40.0600,74,98,70650
1.6325,0.2737,39.9300,74,98,70654
1.6520,0.2688,40.0000,74,98,70658
1.6960,0.2688,39.8900,74,98,70661
1.7155,0.2688,40.0300,74,98,70664
1.7107,0.2639,40.0000,74,98,70668
1.7595,0.2737,39.9600,74,98,70671
1.7595,0.2688,40.0300,74,98,70674
1.7986,0.2786,39.8900,74,98,70677
1.7840,0.2737,40.1000,74,98,70681
1.7937,0.2639,40.0600,74,98,70684
1.8377,0.2737,39.8600,74,98,70687
1.8426,0.2688,40.0300,74,98,70690
1.8671,0.2688,39.9600,74,98,70694
1.8573,0.2688,40.0300,74,98,70697
1.8573,0.2639,40.0300,74,98,70701
1.8915,0.2786,39.9300,74,98,70704
1.8866,0.2688,40.0000,74,98,70708
1.9208,0.2688,39.9300,74,98,70711
1.9110,0.2688,40.0000,74,98,70714
1.9208,0.2639,40.0300,74,98,70717
1.9501,0.2688,39.9600,74,98,70720
1.9257,0.2639,40.0300,74,98,70724
1.9550,0.2688,39.9300,74,98,70727
1.9453,0.2688,40.0300,74,98,70730
1.9648,0.2590,40.0300,74,98,70733
2.0088,0.2786,40.1300,74,98,70737
1.9746,0.2688,40.0300,74,98,70740
2.0088,0.2688,39.9300,74,98,70744
1.9844,0.2688,40.0300,74,98,70747
2.0088,0.2639,40.0300,74,98,70751
2.0528,0.2786,39.8900,74,98,70754
2.0381,0.2688,40.0000,74,98,70757
2.0577,0.2884,39.9300,74,98,70760
2.0235,0.2688,40.0600,74,98,70764
2.0332,0.2639,40.0600,74,98,70767
2.0919,0.2884,39.9300,74,98,70770
2.0723,0.2688,40.0300,74,98,70773
2.0870,0.2688,39.9600,74,98,70777
2.0723,0.2737,40.0600,74,98,70780
2.0772,0.2639,40.0300,74,98,70784
2.1310,0.2737,39.8300,74,98,70787
2.1065,0.2688,40.0300,74,98,70791
2.1261,0.2639,39.9300,74,98,70794
2.1163,0.2590,40.0300,74,98,70797
2.1212,0.2639,40.0600,74,98,70800
2.1799,0.2786,39.8600,74,98,70804
2.1505,0.2688,39.9600,74,98,70807
2.1554,0.2639,40.0000,74,98,70810
2.1554,0.2688,40.0300,74,98,70813
2.1799,0.2493,40.0300,74,98,70817
2.2092,0.2884,39.8900,74,98,70820
2.1603,0.2688,40.0000,74,98,70823
2.1505,0.2542,40.1000,74,98,70827
2.1505,0.2688,40.0600,74,98,70831
2.1505,0.2639,40.1000,74,98,70834
2.1945,0.2884,39.8600,74,98,70837
2.1163,0.2884,39.9600,74,98,70840
2.0870,0.2639,39.9300,74,98,70844
2.0626,0.2590,40.0300,74,98,70847
2.0332,0.2639,40.0300,74,98,70850
2.1114,0.2884,39.8600,74,98,70853
2.0039,0.2933,39.9300,74,98,70856
1.9550,0.2590,40.0300,74,98,70860
1.9404,0.2688,40.0300,74,98,70863
1.8817,0.2884,40.1000,74,98,70866
1.9208,0.2835,39.8300,74,98,70870
1.8524,0.2737,39.9600,74,98,70874
1.8133,0.2639,40.0000,74,98,70877
1.7840,0.2688,40.0000,74,98,70880
1.7546,0.2639,40.0600,74,98,70883
1.7840,0.2835,39.8000,74,98,70887
1.7253,0.2688,39.8600,74,98,70890
1.7204,0.2590,40.0300,74,98,70893
1.7155,0.2737,40.0000,74,98,70896
1.6862,0.2639,40.0300,74,98,70900
1.7302,0.2786,39.7700,74,98,70903
1.6764,0.2639,39.8900,74,98,70906
1.6764,0.2590,40.0000,74,98,70909
1.6813,0.2688,40.0300,74,98,70914
1.6813,0.2639,40.0600,74,98,70917
1.7253,0.2835,39.7700,74,98,70920
1.6862,0.2688,39.8600,74,98,70923
1.6813,0.2590,40.0300,74,98,70927
1.7009,0.2493,40.0300,74,98,70930
1.7107,0.2639,39.8900,74,98,70933
1.7742,0.2786,39.8000,74,98,70936
1.7302,0.2688,40.0000,74,98,70940
1.7253,0.2835,40.0300,74,98,70943
1.7400,0.2688,40.0600,74,98,70946
1.7400,0.2639,40.0600,74,98,70949
1.8133,0.2786,39.7700,74,98,70953
1.7791,0.2639,39.9300,74,98,70957
1.7742,0.2639,40.0300,74,98,70960
1.8084,0.2737,40.0000,74,98,70963
1.7693,0.2884,40.0300,74,98,70967
1.8377,0.2786,39.7700,74,98,70970
1.8133,0.2688,39.9600,74,98,70973
1.8035,0.2639,40.0600,74,98,70976
1.8035,0.2981,40.0300,74,98,70980
1.7986,0.2639,40.0300,74,98,70983
1.8475,0.2737,39.7700,74,98,70986
1.8133,0.2737,39.9600,74,98,70989
1.8231,0.2639,40.0600,74,98,70993
1.8377,0.2688,40.0300,74,98,70996
1.8280,0.2639,40.0300,74,98,71000
1.8671,0.2786,39.8000,74,98,71003
1.8231,0.2639,39.9300,74,98,71007
1.8328,0.2639,40.0600,74,98,71010
1.8475,0.2737,39.9600,74,98,71013
1.8426,0.2590,40.0300,74,98,71016
1.8866,0.2786,39.7300,74,98,71020
1.8426,0.2688,39.9600,74,98,71023
1.8328,0.2590,40.0300,74,98,71026
1.8426,0.2688,40.0000,74,98,71029
1.8426,0.2639,40.0300,74,98,71033
1.8866,0.2786,39.7700,74,98,71036
1.8231,0.2688,40.0000,74,98,71040
1.8084,0.2933,40.0600,74,98,71043
1.8182,0.2688,40.0000,74,98,71047
1.8377,0.2590,40.0300,74,98,71050
1.8671,0.2786,39.8600,74,98,71053
1.8231,0.2639,39.9300,74,98,71056
1.8182,0.2639,40.0300,74,98,71060
1.8182,0.2737,40.0000,74,98,71063
1.7986,0.2737,40.0300,74,98,71066
1.8573,0.2737,39.7700,74,98,71069
1.8328,0.2688,39.9600,74,98,71073
1.8231,0.2639,40.1000,74,98,71076
1.8475,0.2688,40.0000,74,98,71079
1.8035,0.2639,40.1000,74,98,71083
1.8573,0.2786,39.7700,74,98,71087
1.8182,0.2688,39.9600,74,98,71090
1.8182,0.2786,40.0600,74,98,71093
1.8328,0.2688,40.1600,74,98,71096
1.8035,0.2639,40.0300,74,98,71100
1.8426,0.2884,39.8000,74,98,71103
1.7937,0.2639,39.9300,74,98,71106
1.8035,0.2639,40.1600,74,98,71109
1.8133,0.2688,40.0300,73,98,71113
1.7889,0.2688,40.0000,73,98,71117
1.7986,0.2639,40.0600,73,98,71121
1.8377,0.2786,39.8600,73,98,71124
1.7742,0.2737,40.0000,73,98,71128
1.7693,0.2639,39.9600,73,98,71131
1.7644,0.2688,40.0000,73,98,71135
1.7693,0.2639,40.0300,73,98,71138
1.8328,0.2835,39.9600,73,98,71141
1.8133,0.2737,39.9600,73,98,71144
1.8084,0.2639,40.0000,73,98,71148
1.8035,0.2688,40.0300,73,98,71151
1.8084,0.2639,40.0600,73,98,71154
1.8719,0.2933,39.8300,73,98,71157
1.8426,0.2737,40.0000,73,98,71161
1.8328,0.2590,40.0000,73,98,71164
1.8524,0.2493,40.0300,73,98,71168
1.8133,0.2639,40.0600,73,98,71171
1.8719,0.2835,39.8600,73,98,71175
1.8231,0.2688,40.0300,73,98,71178
1.8182,0.2590,40.0000,73,98,71181
1.8133,0.2688,40.1600,73,98,71184
1.7889,0.2639,40.0600,73,98,71188
1.8328,0.2933,39.8300,73,98,71191
1.7937,0.2639,39.9300,73,98,71194
1.7889,0.2590,39.6000,73,98,71197
1.7986,0.2688,40.0300,73,98,71201
1.7889,0.2737,40.0300,73,98,71204
1.8377,0.2884,39.8000,73,98,71207
1.7889,0.2688,39.9600,73,98,71211
1.7791,0.2590,40.0000,73,98,71215
1.7986,0.2639,40.0300,73,98,71218
1.8084,0.2639,40.1000,73,98,71221
1.8719,0.2884,39.8000,73,98,71224
1.8475,0.2590,39.9600,73,98,71228
1.8035,0.2590,40.0000,73,98,71231
1.8182,0.2737,39.9600,73,98,71234
1.8133,0.2639,40.1000,73,98,71237
1.8768,0.2835,39.8600,73,98,71240
1.8328,0.2688,39.9600,73,98,71244
1.8622,0.2590,40.0300,73,98,71247
1.8280,0.2688,39.7700,73,98,71250
1.8328,0.2639,40.0000,73,98,71255
1.9110,0.2835,39.8000,73,98,71258
1.8866,0.2590,39.9600,73,98,71261
1.8768,0.2542,40.0000,73,98,71264
1.8768,0.2688,40.1300,73,98,71268
1.8817,0.2493,40.0300,73,98,71271
1.9453,0.2884,39.8300,73,98,71274
1.9110,0.2639,40.0000,73,98,71277
1.9306,0.2590,40.0000,73,98,71281
1.9795,0.2737,40.0000,73,98,71284
1.9355,0.2639,40.0600,73,98,71287
1.9892,0.2786,39.7700,73,98,71290
1.9453,0.2639,39.9300,73,98,71294
1.9795,0.2590,40.0300,73,98,71298
1.9453,0.2688,40.1000,73,98,71301
1.9257,0.2639,40.0600,73,98,71304
1.9746,0.2786,39.8600,73,98,71307
1.8915,0.2688,40.0300,73,98,71311
1.8524,0.2590,40.0300,73,98,71314
1.8524,0.2688,40.0300,73,98,71317
1.8328,0.2688,40.1000,73,98,71320
1.8671,0.2786,39.7700,73,98,71324
1.7840,0.2688,39.9300,73,98,71327
1.7400,0.2639,40.0600,73,98,71330
1.7302,0.2688,40.2300,73,98,71333
1.7009,0.2639,40.0300,73,98,71337
1.7351,0.2835,39.7700,73,98,71341
1.6862,0.2737,39.9600,73,98,71344
1.6764,0.2639,40.0300,73,98,71347
1.6667,0.2688,40.0300,73,98,71351
1.6911,0.2493,40.0600,73,98,71354
1.7155,0.2786,39.7300,73,98,71357
1.6911,0.2688,39.9600,73,98,71360
1.6911,0.2639,40.2300,73,98,71364
1.6960,0.2590,40.0300,73,98,71367
1.6813,0.2688,40.0600,73,98,71370
1.7302,0.2737,39.7700,73,98,71373
1.7009,0.2688,40.0000,73,98,71377
1.7107,0.2688,39.8900,73,98,71380
1.7253,0.2688,40.0000,73,98,71384
1.7058,0.2639,40.0600,73,98,71387
1.7449,0.2737,39.8000,73,98,71391
1.6960,0.2639,39.9600,73,98,71394
1.7253,0.2688,40.0600,73,98,71397
1.7644,0.2688,40.2000,73,98,71400
1.8133,0.2639,40.0300,73,98,71404
1.9453,0.2737,39.7700,73,98,71407
2.0479,0.2786,39.9600,73,98,71410
2.2239,0.2639,40.0600,73,98,71413
2.4780,0.2688,40.0300,73,98,71417
2.7370,0.2737,40.1000,73,98,71420
3.0645,0.2737,39.8000,73,98,71424
3.2111,0.2639,40.0300,73,98,71427
3.2845,0.2590,40.0300,73,98,71431
3.2649,0.2688,39.9600,73,98,71434
3.0645,0.2590,40.0300,73,98,71437
2.7908,0.2737,39.8600,73,98,71440
2.3803,0.2590,40.0000,73,98,71444
2.0381,0.2737,40.0000,73,98,71447
1.7546,0.2688,40.0300,73,98,71450
1.5054,0.2639,40.0600,73,98,71453
1.3832,0.2688,39.8300,73,98,71457
1.2561,0.2737,39.9300,73,98,71460
1.2023,0.2639,40.0300,73,98,71463
1.1975,0.2688,40.0000,73,98,71467
1.2121,0.2639,40.1000,73,98,71471
1.2903,0.2688,39.8000,73,98,71474
1.3343,0.2688,40.0000,73,98,71477
1.4027,0.2981,40.0300,73,98,71480
1.4858,0.2737,40.0000,73,98,71484
1.5054,0.2493,40.0300,73,98,71487
1.5689,0.2981,39.8600,73,98,71490
1.5591,0.2639,40.0000,73,98,71493
1.5982,0.2639,40.0300,73,98,71497
1.6373,0.2737,40.0000,73,98,71500
1.6471,0.2688,40.0300,73,98,71503
1.6960,0.2688,39.8300,73,98,71506
1.6862,0.2639,39.9600,73,98,71511
1.6813,0.2981,40.0300,73,98,71514
1.7107,0.2688,40.0000,73,98,71517
1.7204,0.2639,40.0600,73,98,71520
1.7644,0.2786,39.8300,73,98,71524
1.7302,0.2933,40.0000,73,98,71527
1.7302,0.2639,40.0600,73,98,71530
1.7546,0.2737,39.9600,73,98,71533
1.7449,0.2639,39.9600,73,98,71537
1.7986,0.2688,39.8300,73,98,71540
1.7693,0.2639,40.0600,73,98,71543
1.7791,0.2493,40.0600,73,98,71546
1.7791,0.2688,40.0300,73,98,71550
1.7644,0.2688,40.0600,73,98,71554
1.8035,0.2688,39.8300,73,98,71557
1.7937,0.2737,39.9300,73,98,71560
1.7937,0.2639,39.9600,73,98,71564
1.8133,0.2688,40.0300,73,98,71567
1.8035,0.2639,40.0300,73,98,71570
1.8377,0.2688,39.8600,73,98,71573
1.8182,0.2639,39.9600,73,98,71577
1.8377,0.2639,40.0600,73,98,71580
1.8719,0.2737,39.8900,73,98,71583
1.8524,0.2737,40.1000,73,98,71586
1.8866,0.2688,39.8600,73,98,71590
1.8524,0.2639,40.0600,73,98,71593
1.8719,0.2639,40.0300,73,98,71597
1.8964,0.2688,39.9600,73,98,71600
1.8915,0.2639,39.3800,73,98,71604
1.9355,0.2688,39.8600,73,98,71607
1.9257,0.2590,39.9300,73,98,71610
1.9110,0.2639,40.0000,73,98,71613
1.9453,0.2688,40.0300,73,98,71617
1.9648,0.2493,40.0300,73,98,71620
2.0039,0.2933,39.8900,73,98,71623
1.9795,0.2639,40.0600,73,98,71626
1.9795,0.2493,40.0300,73,98,71630
2.0137,0.2737,39.8900,73,98,71633
2.0088,0.2639,40.1000,73,98,71636
2.0626,0.2493,39.8900,73,98,71640
2.0479,0.2688,40.0000,73,98,71644
2.0479,0.2639,39.9300,73,98,71647
2.0626,0.2688,39.9600,73,98,71650
2.0626,0.2737,40.0000,73,98,71653
2.0772,0.2639,39.9600,73,98,71657
2.0528,0.2639,39.9300,73,98,71660
2.0528,0.2688,40.0300,73,98,71663
2.0577,0.2688,40.1300,73,98,71666
2.0283,0.2639,40.0300,73,98,71669
2.0332,0.2688,39.9300,73,98,71673
1.9892,0.2639,40.0300,73,98,71676
1.9746,0.2639,40.0300,73,98,71680
1.9746,0.2688,39.8600,73,98,71683
1.9306,0.2639,40.0300,73,98,71687
1.9208,0.2737,39.9300,73,98,71690
1.8573,0.2590,40.1000,73,98,71693
1.8426,0.2639,40.0300,73,98,71696
1.8475,0.2737,39.9300,73,98,71700
1.7889,0.2639,40.0300,73,98,71703
1.7791,0.2639,39.9300,73,98,71706
1.7009,0.2590,40.0000,73,98,71709
1.6764,0.2639,40.1000,73,98,71713
1.6716,0.2688,39.5100,73,98,71716
1.6422,0.2639,40.0600,73,98,71719
1.6520,0.2590,39.9300,73,98,71723
1.5982,0.2639,39.8600,73,98,71727
1.5591,0.2639,40.1600,73,98,71731
1.5543,0.2639,40.0300,73,98,71735
1.5787,0.2737,40.0000,73,98,71738
1.5200,0.2639,40.0600,73,98,71741
1.5640,0.2688,39.8000,73,98,71744
1.5591,0.2639,39.9600,73,98,71748
1.5543,0.2639,40.0600,73,98,71751
1.5738,0.2688,40.2000,73,98,71754
1.5689,0.2639,40.0300,73,98,71757
1.6129,0.2737,39.8300,73,98,71761
1.5982,0.2688,39.9600,73,98,71764
1.6178,0.2639,39.2800,73,98,71768
1.6471,0.2786,39.9600,73,98,71771
1.6227,0.2493,40.0300,73,98,71775
1.6569,0.2737,39.8300,73,98,71778
1.6227,0.2835,40.0600,73,98,71781
1.6422,0.2639,40.0300,73,98,71784
1.6764,0.2786,39.9600,73,98,71788
1.6618,0.2688,40.0600,73,98,71791
1.6813,0.2688,39.8600,73,98,71794
1.6471,0.2688,39.9600,73,98,71797
1.6373,0.2590,40.0300,73,98,71801
1.6520,0.2737,39.9600,73,98,71804
1.6569,0.2639,40.0600,73,98,71808
1.7107,0.2737,39.8600,73,98,71811
1.6569,0.2688,40.0000,73,98,71815
1.6471,0.2639,40.2600,73,98,71818
1.6618,0.2786,39.9600,73,98,71821
1.6471,0.2639,40.0300,73,98,71824
1.6813,0.2688,40.0300,73,98,71828
1.6569,0.2639,40.1300,73,98,71831
1.6471,0.2639,40.0300,73,98,71834
1.6716,0.2737,39.9300,73,98,71837
1.6325,0.2590,40.0300,73,98,71841
1.6716,0.2688,39.8000,73,98,71844
1.6618,0.2688,39.9300,73,98,71847
1.6569,0.2590,40.0600,73,98,71851
1.6618,0.2737,39.9600,73,98,71855
1.6422,0.2639,39.3200,73,98,71858
1.6764,0.2688,39.8300,73,98,71861
1.6422,0.2639,39.9600,73,98,71864
1.6422,0.2639,40.0600,73,98,71868
1.6520,0.2688,39.8900,73,98,71871
1.6276,0.2590,40.0300,73,98,71874
1.6373,0.2688,40.0000,73,98,71877
1.5982,0.2639,40.1000,73,98,71881
1.6031,0.2639,40.1000,73,98,71884
1.6227,0.2639,39.9300,73,98,71887
1.5982,0.2639,40.1000,73,98,71890
1.6276,0.2688,39.8600,73,98,71895
1.6227,0.2639,39.9300,73,98,71898
1.5982,0.2688,40.0600,73,98,71901
1.6129,0.2688,39.9600,73,98,71904
1.6031,0.2639,40.0300,73,98,71908
1.6276,0.2639,39.8600,73,98,71911
1.5885,0.3030,40.0000,73,98,71914
1.5738,0.2639,40.1000,73,98,71917
1.5836,0.2737,39.8900,73,98,71921
1.5591,0.2639,40.1300,73,98,71924
1.6031,0.2688,39.8600,73,98,71927
1.5787,0.2639,40.0300,73,98,71930
1.5787,0.2639,40.1600,73,98,71934
1.5836,0.2688,39.9300,73,98,71938
1.5591,0.2639,40.2300,73,98,71941
1.5885,0.2688,39.8600,73,98,71944
1.5689,0.2590,39.9300,73,98,71948
1.5689,0.2639,40.1300,73,98,71951
1.5689,0.2688,40.2000,73,98,71954
1.5445,0.2737,40.0300,73,98,71957
1.5543,0.2639,39.8900,73,98,71961
1.5249,0.2639,40.0000,73,98,71964
1.5347,0.2639,40.0300,73,98,71967
1.5445,0.2737,39.8900,73,98,71970
1.5200,0.2590,40.0300,73,98,71974
1.5298,0.2737,39.8900,73,98,71977
1.5054,0.2639,40.0600,73,98,71981
1.5152,0.2639,39.9300,73,98,71984
1.5396,0.2737,40.0300,73,98,71988
1.5200,0.2639,40.0300,73,98,71991
1.5347,0.2639,39.9300,73,98,71994
1.5054,0.2639,40.1000,73,98,71997
1.4956,0.2590,40.0300,73,98,72001
1.5103,0.2737,39.9600,73,98,72004
1.5054,0.2639,40.0600,73,98,72007
1.5298,0.2737,39.8900,73,98,72010
1.4907,0.2542,40.1000,73,98,72014
1.4809,0.2639,40.0000,73,98,72017
1.4858,0.2688,39.9300,73,98,72020
1.4761,0.2688,40.0300,73,98,72024
1.5103,0.2688,39.9300,73,98,72027
1.4858,0.2688,40.0600,73,98,72031
1.4907,0.2688,40.0300,73,98,72034
1.5005,0.2737,40.0000,73,98,72037
1.4712,0.2639,40.0600,73,98,72040
1.5103,0.2688,39.9300,73,98,72044
1.4809,0.2639,40.0600,73,98,72047
1.5005,0.2639,40.0600,73,98,72050
1.5103,0.2737,39.9300,73,98,72053
1.4907,0.2639,40.0000,73,98,72057
1.5103,0.2688,39.9300,73,98,72060
1.4858,0.2639,40.0300,73,98,72064
1.4956,0.2493,40.0300,73,98,72067
1.5103,0.2737,39.9600,73,98,72071
1.5005,0.2688,40.0300,73,98,72074
1.5152,0.2737,39.9300,73,98,72077
1.4858,0.2493,40.0600,73,98,72080
1.4956,0.2639,40.1300,73,98,72084
1.5200,0.2786,39.9300,73,98,72087
1.4956,0.2639,40.0300,73,98,72090
1.5103,0.2688,39.9300,73,98,72093
1.4712,0.2639,40.0600,73,98,72097
1.4956,0.2493,40.0600,73,98,72100
1.4907,0.2835,39.9300,73,98,72103
1.4809,0.2688,40.0300,73,98,72107
1.5054,0.2688,39.9300,73,98,72111
1.4663,0.2737,40.0300,73,98,72114
1.4565,0.2835,40.0600,73,98,72117
1.4663,0.2639,40.0300,73,98,72120
1.4614,0.2688,40.0300,73,98,72124
1.5005,0.2737,39.8900,73,98,72127
1.4907,0.2688,40.0600,73,98,72130
1.5249,0.2493,40.0300,73,98,72133
1.5298,0.2688,39.9300,73,98,72137
1.5054,0.2981,39.9300,73,98,72140
1.5396,0.2688,39.8900,73,98,72143
1.5543,0.2737,40.0600,73,98,72146
1.5494,0.2639,39.9600,73,98,72151
1.5738,0.2786,40.0000,73,98,72154
1.5494,0.2737,40.0600,73,98,72157
1.5689,0.2688,39.8000,73,98,72160
1.5494,0.2688,40.0600,73,98,72164
1.5689,0.2493,40.0600,73,98,72167
1.5934,0.2737,40.0600,73,98,72170
1.5640,0.2688,40.0300,73,98,72173
1.5591,0.2688,39.8600,73,98,72177
1.5152,0.2590,40.0000,73,98,72180
1.5005,0.2639,40.0300,73,98,72183
1.5152,0.2786,39.8900,73,98,72186
1.4614,0.2737,40.0300,73,98,72190
1.4614,0.2688,39.9300,73,98,72194
1.4076,0.2688,40.0300,73,98,72197
1.3832,0.2639,40.0300,73,98,72200
1.3930,0.2737,39.8900,73,98,72204
1.3783,0.2688,40.0300,73,98,72207
1.4174,0.2737,39.8900,73,98,72210
1.3587,0.2884,40.0300,73,98,72213
1.3539,0.2639,40.0300,73,98,72217
1.3734,0.2737,40.0000,73,98,72220
1.3587,0.2590,40.0300,73,98,72223
1.3930,0.2688,39.5400,73,98,72226
1.3930,0.2688,39.5100,73,98,72230
1.3978,0.2639,40.0300,73,98,72233
1.4223,0.2688,39.8300,73,98,72237
1.3930,0.2688,40.0300,73,98,72240
1.4174,0.2688,39.8900,73,98,72244
1.4027,0.2688,40.0300,73,98,72247
1.4125,0.2688,40.0600,73,98,72250
1.4223,0.2786,39.9300,73,98,72253
1.3978,0.2688,40.0300,73,98,72257
1.4125,0.3079,39.9300,73,98,72260
1.4076,0.2688,40.1000,73,98,72263
1.4516,0.2639,40.0300,73,98,72266
1.5494,0.2688,39.9600,73,98,72270
1.6373,0.2688,40.0600,73,98,72273
1.8035,0.2688,39.9600,73,98,72276
1.9990,0.2688,40.0600,73,98,72280
2.2532,0.2688,40.0000,73,98,72284
2.5611,0.2786,39.5700,73,98,72287
2.7419,0.2688,40.0300,73,98,72290
2.9374,0.2737,39.9300,73,98,72293
2.9081,0.2884,40.1000,73,98,72297
2.7664,0.2639,40.0600,73,98,72300
2.5562,0.2737,39.8900,73,98,72303
2.2043,0.2737,39.9600,73,98,72306
1.8719,0.2688,39.9600,73,98,72310
1.5396,0.2493,40.0300,73,98,72313
1.3001,0.2590,40.0300,73,98,72316
1.1095,0.2786,40.0300,73,98,72320
0.9531,0.2737,40.0300,73,98,72323
0.8798,0.2688,39.9300,73,98,72327
0.8358,0.2688,40.0300,73,98,72330
0.8407,0.2639,40.1000,73,98,72333
0.8944,0.2786,39.8600,73,98,72336
1.1388,0.2786,39.9300,73,98,72341
1.1486,0.2737,40.0300,73,98,72344
1.1730,0.2737,39.9300,73,98,72348
1.1681,0.2688,40.2600,73,98,72351
1.1877,0.2688,40.1300,73,98,72354
1.2170,0.2688,40.0000,73,98,72357
1.2170,0.2688,40.0600,73,98,72361
1.2317,0.2688,39.8900,73,98,72365
1.2219,0.2737,40.0000,73,98,72368
1.2366,0.2688,40.0300,73,98,72371
1.2757,0.2835,39.9300,73,98,72375
1.2610,0.2737,40.0300,73,98,72378
1.3099,0.2786,39.8900,73,98,72381
1.2610,0.2835,40.0600,73,98,72384
1.2610,0.2688,40.0300,73,98,72388
1.2903,0.2786,39.9300,73,98,72391
1.2854,0.2688,40.0000,73,98,72394
1.3148,0.2737,39.9600,73,98,72397
1.2903,0.2688,40.0300,73,98,72401
1.3001,0.2737,40.0300,73,98,72404
1.3196,0.2786,40.0600,73,98,72408
1.3148,0.2688,40.0300,73,98,72411
1.3587,0.2688,39.8900,73,98,72415
1.3539,0.2786,40.0000,73,98,72418
1.3636,0.2688,40.0300,73,98,72421
1.3930,0.2786,39.8600,73,98,72424
1.3930,0.2737,40.0300,73,98,72428
1.4076,0.2737,39.8600,73,98,72431
1.4076,0.2688,40.1000,73,98,72434
1.4174,0.2884,40.0300,73,98,72437
1.4418,0.2786,39.9300,73,98,72441
1.4321,0.2737,40.0000,73,98,72444
1.4663,0.2737,39.8900,73,98,72448
1.4516,0.2737,40.0300,73,98,72451
1.4761,0.2884,40.0600,73,98,72455
1.5200,0.2786,40.1600,73,98,72458
1.5543,0.2737,40.0300,73,98,72461
1.5543,0.2737,39.9300,73,98,72464
1.5494,0.2933,39.8300,73,98,72468
1.5787,0.2688,40.0300,73,98,72471
1.6276,0.2786,39.8600,73,98,72474
1.6276,0.2688,40.0300,73,98,72477
1.6667,0.3030,39.8900,73,98,72481
1.6520,0.2688,40.0300,73,98,72484
1.6667,0.2786,40.0600,73,98,72487
1.7204,0.2786,39.8900,73,98,72491
1.7253,0.2737,40.0300,73,98,72495
1.7644,0.2786,39.9300,73,98,72498
1.7498,0.2884,40.1000,73,98,72501
1.7546,0.2688,39.7700,73,98,72504
1.7742,0.2786,40.0000,73,98,72508
1.7693,0.2737,40.0000,73,98,72511
1.7986,0.2737,39.9600,73,98,72514
1.7840,0.2688,40.0600,73,98,72517
1.7889,0.2737,40.0300,73,98,72521
1.8084,0.3030,39.8900,73,98,72524
1.7644,0.2688,39.9300,73,98,72527
1.7840,0.2737,39.9300,73,98,72530
1.7546,0.2737,40.0300,73,98,72535
1.7449,0.2688,40.0000,73,98,72538
1.7498,0.2786,39.9600,73,98,72541
1.7009,0.2737,40.0000,73,98,72544
1.6764,0.2933,39.9300,73,98,72548
1.6325,0.2688,40.1300,73,98,72551
1.6031,0.2688,40.1300,73,98,72554
1.6031,0.2688,39.9600,73,98,72557
1.5396,0.2688,40.0000,73,98,72561
1.5152,0.2737,39.9300,73,98,72564
1.4614,0.2688,40.1000,73,98,72567
1.4370,0.2688,40.1000,73,98,72570
1.4565,0.2786,39.8600,73,98,72574
1.4174,0.2737,40.0300,73,98,72578
1.4174,0.2737,39.9600,73,98,72581
1.3783,0.2737,40.0300,73,98,72584
1.3587,0.2884,40.1000,73,98,72588
1.3832,0.2786,39.9600,73,98,72591
1.3832,0.2688,40.0000,73,98,72594
1.3783,0.2639,39.8900,73,98,72597
1.3539,0.2737,40.1000,73,98,72601
1.3441,0.2688,40.1000,73,98,72604
1.3685,0.2786,39.9600,73,98,72607
1.3539,0.2786,40.0000,73,98,72610
1.3734,0.2688,39.9300,73,98,72614
1.3685,0.2688,40.0600,73,98,72617
1.3734,0.2737,40.0600,73,98,72621
1.3930,0.2786,39.8600,73,98,72624
1.3587,0.2737,40.0300,73,98,72628
1.3734,0.2688,39.9300,73,98,72631
1.3832,0.2786,40.0300,73,98,72634
1.3930,0.2688,40.0600,73,98,72637
1.4321,0.2835,39.8900,73,98,72641
1.4272,0.2737,40.0000,73,98,72644
1.4272,0.2688,40.0300,73,98,72647
1.4272,0.2737,40.0300,73,98,72650
1.4467,0.2737,40.0600,73,98,72654
1.4907,0.2835,39.9300,73,98,72657
1.4712,0.2786,40.0000,73,98,72660
1.4761,0.2688,39.9300,73,98,72664
1.4663,0.2737,40.0300,73,98,72668
1.4761,0.2688,40.0300,73,98,72671
1.5200,0.2835,40.2000,73,98,72674
1.5005,0.2737,40.0000,73,98,72677
1.5054,0.2737,39.9300,73,98,72681
1.4809,0.2688,39.9600,73,98,72684
1.4712,0.2688,40.0600,73,98,72687
1.5152,0.2786,39.8900,73,98,72690
1.5054,0.2737,40.0000,73,98,72694
1.5152,0.2688,39.9300,73,98,72697
1.5103,0.2688,40.0300,73,98,72700
1.4907,0.2639,40.0300,73,98,72704
1.5298,0.2884,39.8900,73,98,72707
1.5103,0.2786,40.0300,73,98,72711
1.5152,0.2688,40.0000,73,98,72714
1.5152,0.2737,40.0300,73,98,72717
1.5200,0.2688,40.0300,73,98,72720
1.5494,0.3030,39.8600,73,98,72724
1.5054,0.2737,40.0000,73,98,72727
1.5054,0.2688,40.0000,73,98,72730
1.5054,0.2737,39.9300,73,98,72733
1.5054,0.2688,40.0600,73,98,72737
1.5494,0.2981,39.8900,73,98,72740
1.5054,0.2786,39.9600,73,98,72743
1.4907,0.2737,39.9600,73,98,72747
1.4809,0.2737,40.1000,73,98,72751
1.4907,0.2688,40.0600,73,98,72754
1.5494,0.2884,39.8600,73,98,72757
1.5298,0.2835,39.9600,73,98,72760
1.5005,0.2688,39.9600,73,98,72764
1.4907,0.2737,40.0300,73,98,72767
1.4956,0.2737,40.0300,73,98,72770
1.5591,0.2884,39.8900,73,98,72773
1.5249,0.2786,40.0000,73,98,72777
1.5249,0.2688,40.0300,73,98,72780
1.5200,0.2737,40.0300,73,98,72783
1.5152,0.2688,40.0300,73,98,72786
1.5738,0.2884,40.2300,73,98,72791
1.5494,0.2835,40.0300,73,98,72794
1.5836,0.2688,40.0000,73,98,72797
1.5591,0.2737,40.0300,73,98,72800
1.5591,0.2737,40.0600,73,98,72804
1.6129,0.2884,39.8600,73,98,72807
1.6031,0.2786,39.9600,73,98,72810
1.5787,0.2688,40.0000,73,98,72813
1.5885,0.2737,40.1300,73,98,72817
1.5836,0.2688,40.0300,73,98,72820
1.6227,0.2933,39.8300,73,98,72823
1.5689,0.2737,39.9600,73,98,72826
1.5689,0.2639,40.0300,73,98,72830
1.5836,0.2688,40.0300,73,98,72834
1.5885,0.2737,40.0300,73,98,72837
1.6373,0.2884,39.8300,73,98,72840
1.5982,0.2786,39.9600,73,98,72844
1.5982,0.2737,40.0600,73,98,72847
1.5787,0.2737,40.0000,73,98,72850
1.5787,0.2688,39.4400,73,98,72853
1.6325,0.2688,39.8300,73,98,72857
1.5982,0.2786,39.9300,73,98,72860
1.5836,0.2688,40.0000,73,98,72863
1.5787,0.2737,40.2000,73,98,72866
1.5836,0.2737,40.0300,73,98,72870
1.6422,0.2835,39.8300,73,98,72873
1.6031,0.2737,39.9600,73,98,72877
1.5982,0.2639,40.0300,73,98,72880
1.6276,0.2737,40.0000,73,98,72884
1.5885,0.2688,40.0600,73,98,72887
1.6471,0.2884,39.8000,73,98,72890
1.6227,0.2688,39.9300,73,98,72893
1.6325,0.2590,40.0600,73,98,72897
1.6325,0.2737,40.0300,73,98,72900
1.6227,0.2688,40.0600,73,98,72903
1.6618,0.2981,39.8000,73,98,72906
1.6325,0.2737,39.8900,73,98,72910
1.6325,0.2639,40.0600,73,98,72913
1.6422,0.2688,40.0300,73,98,72916
1.6373,0.2981,40.0000,73,98,72920
1.6764,0.2884,39.8600,73,98,72924
1.6276,0.2737,39.9600,73,98,72927
1.6276,0.2590,40.0300,73,98,72930
1.6422,0.2737,40.0000,73,98,72933
1.6471,0.2688,40.0300,73,98,72937
1.7009,0.2786,39.8000,73,98,72940
1.6618,0.2737,39.9300,73,98,72943
1.6667,0.2639,40.0600,73,98,72946
1.6862,0.2737,40.0300,73,98,72950
1.7351,0.2688,40.0300,73,98,72954
1.7449,0.2688,40.0300,73,98,72958
1.8035,0.2835,39.8600,73,98,72962
1.7840,0.2737,40.0300,73,98,72965
1.7986,0.2737,39.9600,73,98,72968
1.7840,0.2737,40.0300,73,98,72972
1.7791,0.2688,40.0300,73,98,72975
1.8280,0.2786,39.9300,73,98,72978
1.7937,0.2737,40.0000,73,98,72981
1.7791,0.2688,39.9600,73,98,72985
1.7498,0.2737,40.0300,73,98,72988
1.7107,0.2688,40.0600,73,98,72991
1.7253,0.2786,39.8900,73,98,72994
1.6667,0.2737,40.0000,73,98,72998
1.6471,0.2688,39.9600,73,98,73001
1.6276,0.2688,40.0300,73,98,73005
1.6129,0.2737,40.0300,73,98,73008
1.6373,0.2835,39.8900,73,98,73012
1.5934,0.2737,40.0300,73,98,73015
1.5885,0.2688,39.9300,73,98,73018
1.5982,0.2737,40.0600,73,98,73021
1.5982,0.2688,40.0600,73,98,73025
1.6471,0.2688,39.8900,73,98,73028
1.6325,0.2835,39.9600,73,98,73031
1.6276,0.2737,40.0000,73,98,73034
1.6227,0.2688,40.1300,73,98,73038
1.6325,0.2688,40.1600,73,98,73041
1.6813,0.2835,39.9300,73,98,73044
1.6471,0.2737,40.0000,73,98,73048
1.6471,0.2688,39.8900,73,98,73052
1.6373,0.2688,40.0000,73,98,73055
1.6422,0.2688,40.1000,73,98,73058
1.6960,0.2835,39.8600,73,98,73061
1.6716,0.2835,40.1000,73,98,73065
1.6911,0.2688,39.2800,73,98,73068
1.7107,0.2688,40.0300,73,98,73071
1.7644,0.2737,40.0300,73,98,73074
1.9159,0.2835,39.9600,73,98,73078
2.0577,0.2737,39.9600,73,98,73081
2.2532,0.2737,39.9600,73,98,73084
2.4780,0.2688,39.4400,73,98,73088
2.7175,0.2688,40.0300,73,98,73092
2.9961,0.2835,39.8600,73,98,73095
3.1085,0.2688,39.8600,73,98,73098
3.1476,0.2639,40.0000,73,98,73101
2.9961,0.2688,40.0600,73,98,73105
2.7126,0.2981,40.1000,73,98,73108
2.4389,0.2835,39.8600,73,98,73111
2.0528,0.2688,40.0000,73,98,73114
1.7644,0.2639,39.9300,73,98,73118
1.5494,0.2688,40.2600,73,98,73121
1.3832,0.2688,40.0600,73,98,73124
1.3050,0.2884,39.8600,73,98,73127
1.1975,0.2786,39.8900,73,98,73132
1.1584,0.2639,40.0000,73,98,73135
1.1584,0.2737,40.0000,73,98,73138
1.1926,0.2737,40.0300,73,98,73141
1.2854,0.2884,39.8600,73,98,73145
1.3148,0.2688,40.0000,73,98,73148
1.3636,0.2639,40.1000,73,98,73151
1.4223,0.2737,40.0300,73,98,73154
1.4761,0.2688,40.0600,73,98,73158
1.5689,0.2884,39.9600,73,98,73161
1.5738,0.2688,40.0000,73,98,73164
1.5982,0.2884,40.0000,73,98,73167
1.6129,0.2688,40.0300,73,98,73171
1.6325,0.2688,40.1000,73,98,73175
1.6911,0.2884,39.8900,73,98,73178
1.6764,0.2786,39.9300,73,98,73181
1.6862,0.2639,40.0000,73,98,73185
1.7058,0.2737,40.0300,73,98,73188
1.6862,0.2590,40.1000,73,98,73191
1.7351,0.2884,39.8300,73,98,73194
1.7058,0.2688,39.9600,73,98,73198
1.7204,0.2639,40.0300,73,98,73201
1.7351,0.2688,40.1300,73,98,73204
1.7400,0.2688,40.0600,73,98,73207
1.7937,0.2933,39.8000,73,98,73210
1.7498,0.2737,40.1000,73,98,73214
1.7546,0.2639,40.0300,73,98,73218
1.7791,0.2688,40.0300,73,98,73221
1.7791,0.2639,40.0300,73,98,73225
1.8377,0.2884,39.8300,73,98,73228
1.7986,0.2688,39.9600,73,98,73231
1.7889,0.2590,40.0000,73,98,73234
1.7937,0.2688,40.0600,73,98,73238
1.8084,0.2639,40.0300,73,98,73241
1.9062,0.2884,39.7700,73,98,73244
1.8377,0.2639,39.9600,73,98,73247
1.8328,0.2590,40.0300,73,98,73250
1.8377,0.2688,40.0300,73,98,73254
1.8475,0.2737,40.1000,73,98,73257
1.9257,0.2884,39.7700,73,98,73261
1.8964,0.2688,40.0300,73,98,73265
1.9257,0.2590,40.0600,73,98,73268
1.9159,0.2835,40.0000,73,98,73271
1.9110,0.2639,40.1000,73,98,73274
1.9795,0.2737,39.8000,73,98,73277
1.9599,0.2639,39.9300,73,98,73281
1.9795,0.2590,40.0300,73,98,73284
2.0039,0.2737,40.0300,73,98,73287
1.9941,0.2639,39.9300,73,98,73290
2.0626,0.2786,39.7700,73,98,73294
2.0332,0.2737,40.0000,73,98,73297
2.0381,0.2639,40.1300,73,98,73300
2.0674,0.2639,40.0300,73,98,73304
2.0772,0.2639,40.0300,73,98,73308
2.1408,0.2786,39.8300,73,98,73311
2.0919,0.2688,40.0600,73,98,73314
2.0968,0.2639,40.0300,73,98,73317
2.1163,0.2688,39.8600,73,98,73321
2.1114,0.2639,40.0600,73,98,73324
2.1701,0.2835,39.8000,73,98,73327
2.1065,0.2786,39.9300,73,98,73330
2.1017,0.2639,40.0300,73,98,73334
2.1310,0.2688,40.0600,73,98,73337
2.0919,0.2590,40.1000,73,98,73340
2.1505,0.2737,39.7700,73,98,73344
2.1017,0.2737,39.9600,73,98,73348
2.0528,0.2639,39.9600,73,98,73351
2.0283,0.2688,40.0300,73,98,73354
1.9941,0.2590,40.0300,73,98,73357
2.0332,0.2737,39.8900,73,98,73361
1.9697,0.2639,40.0000,73,98,73364
1.9355,0.2639,40.0300,73,98,73367
1.9208,0.2688,39.9600,73,98,73370
1.8622,0.2639,40.0600,73,98,73374
1.8817,0.2737,39.8300,73,98,73377
1.8084,0.2590,40.0300,73,98,73380
1.7986,0.2639,40.1300,73,98,73383
1.7889,0.2688,40.0000,73,98,73388
1.7449,0.2493,40.0300,73,98,73391
1.7546,0.2835,39.8300,73,98,73394
1.7155,0.2688,39.3500,73,98,73397
1.7009,0.2590,40.0600,73,98,73401
1.7400,0.2688,40.0300,73,98,73404
1.6960,0.2639,39.4100,73,98,73407
1.7302,0.2688,39.8300,73,98,73410
1.6862,0.2493,39.9600,73,98,73414
1.6813,0.2737,40.0300,73,98,73417
1.7107,0.2688,40.0000,73,98,73420
1.7204,0.2639,40.0300,73,98,73423
1.7351,0.2737,39.8000,73,98,73427
1.6911,0.2542,40.0600,73,98,73431
1.6862,0.2590,40.0300,73,98,73434
1.7302,0.2786,40.1000,73,98,73437
1.7107,0.2639,40.0000,73,98,73441
1.7644,0.2737,39.8300,73,98,73444
1.7400,0.2688,39.9600,73,98,73447
1.7253,0.2590,40.1300,73,98,73450
1.7302,0.2688,40.0300,73,98,73454
1.7253,0.2639,40.0300,73,98,73457
1.7791,0.2884,39.8000,73,98,73460
1.7546,0.2688,40.0300,73,98,73463
1.7595,0.2590,40.0600,73,98,73467
1.7791,0.2688,39.8900,73,98,73470
1.7546,0.2639,40.2600,73,98,73474
1.8035,0.2688,39.8300,73,98,73477
1.7889,0.2737,40.0300,73,98,73481
1.8035,0.2542,40.0300,73,98,73484
1.8231,0.2737,40.0000,73,98,73487
1.7986,0.2639,40.1300,73,98,73490
1.8377,0.2688,39.8300,73,98,73494
1.8133,0.2639,39.9600,73,98,73497
1.8182,0.2639,40.2000,73,98,73500
1.8426,0.2688,40.0600,73,98,73503
1.8377,0.2639,40.0300,73,98,73507
1.8719,0.2737,39.8300,73,98,73510
1.8280,0.2884,40.0300,73,98,73513
1.8328,0.2590,40.0600,73,98,73517
1.8768,0.2737,39.9600,73,98,73521
1.8573,0.2639,40.0600,73,98,73524
1.9013,0.2688,39.8600,73,98,73527
1.8573,0.2639,40.0600,73,98,73530
1.8524,0.2639,40.0300,73,98,73534
1.8671,0.2737,40.0000,73,98,73537
1.8426,0.2639,40.0600,73,98,73540
1.8866,0.2737,39.8000,73,98,73543
1.8573,0.2786,39.8600,73,98,73547
1.8377,0.2590,40.0300,73,98,73550
1.8426,0.2688,40.0300,73,98,73553
1.8377,0.2639,40.0300,73,98,73556
1.8817,0.2688,39.8900,73,98,73561
1.8768,0.2786,39.7700,74,98,73565
1.8377,0.2639,39.9300,74,98,73568
1.8426,0.2590,40.1000,74,98,73572
1.8377,0.2688,40.0300,74,98,73575
1.8231,0.2639,40.0600,74,98,73578
1.8768,0.2737,39.8600,74,98,73581
1.8524,0.2493,40.0000,74,98,73585
1.8524,0.2688,40.0300,74,98,73588
1.8719,0.2933,40.0000,74,98,73591
1.8768,0.2639,40.0300,74,98,73594
1.9404,0.2737,39.7700,74,98,73598
1.8671,0.2493,39.9600,74,98,73602
1.8719,0.2639,40.0600,74,98,73605
1.8915,0.2688,40.1000,74,98,73608
1.8866,0.2639,40.0300,74,98,73612
1.9404,0.2786,39.8300,74,98,73615
1.8866,0.2688,39.9300,74,98,73618
1.8866,0.2590,40.1000,74,98,73621
1.8964,0.2688,40.0300,74,98,73625
1.8915,0.2884,40.0300,74,98,73628
1.9550,0.2737,39.8300,74,98,73631
1.9404,0.2737,39.9300,74,98,73634
1.8866,0.2590,40.0600,74,98,73638
1.8866,0.2688,40.1000,74,98,73641
1.8817,0.2590,40.0300,74,98,73645
1.9355,0.2737,39.7700,74,98,73648
1.8964,0.2688,40.0000,74,98,73652
1.9013,0.2590,40.0300,74,98,73655
1.9110,0.2688,39.9600,74,98,73658
1.8866,0.2639,39.9600,74,98,73661
1.9550,0.2688,39.8000,74,98,73665
1.9355,0.2493,39.9600,74,98,73668
1.9257,0.2590,40.0300,74,98,73671
1.9355,0.2688,40.1000,74,98,73674
1.9110,0.2639,40.0600,74,98,73678
1.9599,0.2737,39.8000,74,98,73681
1.9355,0.2688,39.8900,74,98,73684
1.9306,0.2590,40.0300,74,98,73688
1.9453,0.2688,40.0300,74,98,73692
1.9404,0.2835,40.0300,74,98,73695
1.9844,0.2688,39.8300,74,98,73698
1.9306,0.2639,40.0000,74,98,73701
1.9257,0.2884,39.9600,74,98,73705
1.9501,0.2688,39.9600,74,98,73708
1.9355,0.2639,40.0300,74,98,73711
1.9844,0.2737,39.8000,74,98,73714
1.9355,0.2590,39.9600,74,98,73718
1.9355,0.2590,40.0000,74,98,73721
1.9501,0.2639,39.9600,74,98,73724
1.9355,0.2639,40.0000,74,98,73728
1.9941,0.2688,39.8300,74,98,73732
1.9648,0.2493,39.9600,74,98,73735
1.9501,0.2639,40.0300,74,98,73738
1.9550,0.2688,39.9600,74,98,73741
1.9453,0.2639,40.0300,74,98,73745
1.9941,0.2737,39.8600,74,98,73748
1.9550,0.2786,40.0300,74,98,73751
1.9550,0.2639,40.0300,74,98,73754
1.9990,0.2737,39.9600,74,98,73758
