ecg,gsr,temp,hr,spo2,timest
1.7498,0.3617,39.5100,101,98,256086
1.7204,0.3519,39.6400,101,98,256090
1.7155,0.3421,39.6700,101,98,256093
1.7155,0.3421,39.7000,101,98,256096
1.7107,0.3421,39.7300,101,98,256100
1.7302,0.3470,39.6400,101,98,256103
1.7009,0.3470,39.7300,101,98,256107
1.7400,0.3519,39.6000,101,98,256110
1.7351,0.3421,39.7700,101,98,256113
1.8035,0.3519,39.7000,101,98,256117
1.9453,0.3519,39.6000,101,98,256120
2.1359,0.3421,39.7700,101,98,256123
2.4096,0.3470,39.4800,101,98,256128
2.6588,0.3519,39.6000,101,98,256131
2.9032,0.3421,39.7700,101,98,256134
3.1183,0.3470,39.6400,101,98,256138
3.1867,0.3421,39.0000,101,98,256141
3.2111,0.3617,39.5400,101,98,256144
2.9961,0.3470,39.5700,101,98,256148
2.8104,0.3470,39.6000,101,98,256151
2.5758,0.3421,39.7700,101,98,256155
2.3558,0.3421,39.7000,101,98,256158
2.1701,0.3470,39.7000,101,98,256161
1.9648,0.3421,39.7300,101,98,256165
1.8328,0.3372,39.5700,101,98,256168
1.7107,0.3275,39.7000,101,98,256172
1.6080,0.3372,39.7300,101,98,256176
1.5689,0.3519,39.6000,101,98,256179
1.5103,0.3421,39.7300,101,98,256182
1.5200,0.3519,39.4800,101,98,256186
1.4809,0.3470,39.6700,101,98,256189
1.4858,0.3372,39.7000,101,98,256192
1.4907,0.3470,39.7000,101,98,256196
1.4809,0.3421,39.7300,101,98,256199
1.5200,0.3519,39.5700,101,98,256203
1.4956,0.3715,39.6700,101,98,256206
1.5249,0.3470,39.6000,101,98,256209
1.5249,0.3421,39.7000,101,98,256214
1.5445,0.3421,39.8300,101,98,256217
1.5885,0.3470,39.7000,101,98,256220
1.5787,0.3421,39.7300,101,98,256224
1.6227,0.3470,39.5400,101,98,256227
1.6276,0.3470,39.6000,101,98,256230
1.6325,0.3421,39.7300,101,98,256234
1.6667,0.3470,39.7300,101,98,256237
1.6618,0.3421,39.7000,101,98,256241
1.7253,0.3568,39.4400,101,98,256244
1.7009,0.3470,39.7300,101,98,256247
1.7107,0.3421,39.6700,101,98,256251
1.7204,0.3275,39.7000,101,98,256254
1.7595,0.3372,39.7300,101,98,256258
1.7693,0.3470,39.6000,101,98,256262
1.7595,0.3275,39.7000,101,98,256265
1.8035,0.3568,39.5700,101,98,256268
1.7937,0.3715,39.6700,101,98,256272
1.8133,0.3421,39.7000,101,98,256275
1.8475,0.3519,39.5700,101,98,256278
1.8328,0.3421,39.7700,101,98,256282
1.8866,0.3519,39.8600,101,98,256285
1.8719,0.3372,39.7000,101,98,256289
1.8817,0.3421,39.6700,101,98,256292
1.9062,0.3763,39.7700,101,98,256295
1.9159,0.3519,39.8300,101,98,256300
1.9892,0.3666,39.5400,101,98,256303
1.9648,0.3568,39.7700,101,98,256306
1.9941,0.3421,39.6000,101,98,256310
1.9941,0.3372,39.7000,101,98,256313
2.0137,0.3470,39.7700,101,98,256316
2.0577,0.3568,39.6400,101,98,256320
2.0332,0.3421,39.7300,101,98,256323
2.0626,0.3421,39.5700,101,98,256327
2.0430,0.3421,39.6400,101,98,256330
2.0381,0.3421,39.7300,101,98,256333
2.0577,0.3470,38.9300,101,98,256337
2.0332,0.3421,39.7000,101,98,256340
2.0772,0.3568,39.4800,101,98,256344
2.0235,0.3275,39.6400,101,98,256348
2.0283,0.3470,39.7000,101,98,256351
2.0283,0.3470,39.7000,101,98,256354
2.0088,0.3421,39.7700,101,98,256358
2.0430,0.3568,39.5700,101,98,256361
1.9892,0.3519,39.6700,101,98,256364
1.9795,0.3421,39.6000,101,98,256368
1.9355,0.3519,39.7700,101,98,256371
1.9208,0.3372,39.7300,101,98,256374
1.9062,0.3421,39.6000,101,98,256378
1.8524,0.3421,39.7700,101,98,256381
1.8475,0.3470,39.5400,101,98,256386
1.7937,0.3519,39.6700,101,98,256389
1.7644,0.3470,39.7300,101,98,256392
1.7595,0.3470,39.6400,101,98,256396
1.6618,0.3421,39.7300,101,98,256400
1.6569,0.3421,39.7300,101,98,256404
1.6911,0.3519,39.5700,101,98,256407
1.6520,0.3470,39.7000,101,98,256411
1.7009,0.3470,39.6400,101,98,256414
1.6520,0.3421,39.7000,101,98,256417
1.6569,0.3421,39.7000,101,98,256421
1.6716,0.3470,39.6000,101,98,256424
1.6618,0.3372,39.7300,101,98,256428
1.6960,0.3470,39.2800,101,98,256432
1.6716,0.3421,39.7300,101,98,256435
1.6862,0.3421,39.8300,101,98,256438
1.7155,0.3470,39.6400,101,98,256442
1.7107,0.3421,39.7300,101,98,256445
1.7693,0.3617,39.4800,101,98,256448
1.7449,0.3470,39.6400,101,98,256452
1.7400,0.3421,39.6400,101,98,256455
1.7400,0.3421,39.7300,101,98,256459
1.7449,0.3421,39.7300,101,98,256462
1.7693,0.3470,39.6700,101,98,256465
1.7498,0.3421,39.7000,101,98,256470
1.7742,0.3470,39.6000,101,98,256473
1.7498,0.3421,39.7300,101,98,256476
1.7595,0.3421,39.7300,101,98,256480
1.7889,0.3470,39.6000,101,98,256483
1.7644,0.3421,39.7700,101,98,256486
1.8133,0.3470,39.4800,101,98,256490
1.7889,0.3470,39.6000,101,98,256493
1.7742,0.3372,39.7700,101,98,256496
1.7791,0.3470,39.7000,101,98,256500
1.7791,0.3372,39.7000,101,98,256503
1.8182,0.3470,39.5700,101,98,256507
1.7840,0.3470,39.6700,101,98,256510
1.7889,0.3519,39.6000,101,98,256514
1.7644,0.3470,39.7000,101,98,256518
1.7595,0.3421,39.7300,101,98,256521
1.7840,0.3568,39.6000,101,98,256524
1.7644,0.3421,39.7300,101,98,256528
1.7889,0.3470,39.5700,101,98,256531
1.7644,0.3421,39.7300,101,98,256534
1.7693,0.3421,39.7700,101,98,256538
1.7889,0.3470,39.6000,101,98,256541
1.7742,0.3275,39.7000,101,98,256544
1.8133,0.3470,39.4800,101,98,256548
1.7840,0.3372,39.5700,101,98,256551
1.7791,0.3324,39.6700,101,98,256556
1.7889,0.3470,39.7000,101,98,256559
1.7889,0.3470,39.7000,101,98,256562
1.8280,0.3470,39.5400,101,98,256566
1.8133,0.3470,39.7000,101,98,256569
1.8377,0.3470,39.5700,101,98,256572
1.8280,0.3421,39.7300,101,98,256576
1.8475,0.3421,39.7300,101,98,256579
1.8866,0.3519,39.5700,101,98,256582
1.8671,0.3421,39.7300,101,98,256586
1.9110,0.3470,39.5400,101,98,256589
1.9159,0.3519,39.6400,101,98,256592
1.9208,0.3421,39.7700,101,98,256596
1.9599,0.3470,39.7000,101,98,256600
1.9697,0.3421,39.7300,101,98,256604
2.0332,0.3617,39.4800,101,98,256607
1.9941,0.3470,39.7000,101,98,256610
1.9844,0.3519,39.6400,101,98,256614
1.9795,0.3421,39.7000,101,98,256617
1.9746,0.3421,39.7300,101,98,256620
1.9844,0.3421,39.6400,101,98,256624
1.9501,0.3617,39.7000,101,98,256627
1.9453,0.3470,39.6000,101,98,256630
1.8768,0.3421,39.7300,101,98,256634
1.8426,0.3470,39.7700,101,98,256637
1.8231,0.3519,39.6000,101,98,256642
1.7595,0.3421,39.9300,101,98,256645
1.7644,0.3519,38.9300,101,98,256648
1.7058,0.3421,39.6000,101,98,256652
1.6911,0.3421,39.7300,101,98,256655
1.6911,0.3470,39.7700,101,98,256658
1.6862,0.3421,39.9300,101,98,256662
1.7253,0.3519,39.5400,101,98,256665
1.6911,0.3470,38.9300,101,98,256668
1.7009,0.3470,39.6000,101,98,256672
1.6813,0.3421,39.7000,101,98,256675
1.6862,0.3421,39.7700,101,98,256678
1.7107,0.3470,39.6000,101,98,256683
1.6764,0.3421,39.7300,101,98,256686
1.6813,0.3470,39.5700,101,98,256690
1.6667,0.3421,39.6400,101,98,256693
1.6813,0.3275,39.7300,101,98,256696
1.7742,0.3470,39.6700,101,98,256700
1.8768,0.3421,39.7300,101,98,256703
2.1212,0.3470,39.4800,101,98,256706
2.3216,0.3470,39.6400,101,98,256710
2.5953,0.3421,39.7000,101,98,256713
2.8739,0.3275,39.7000,101,98,256716
3.1232,0.3421,39.7300,101,98,256720
3.2356,0.3519,39.6400,101,98,256723
3.1525,0.3421,39.7000,101,98,256728
3.0401,0.3568,39.6000,101,98,256731
2.8006,0.3421,38.9600,101,98,256734
2.5758,0.3421,39.7300,101,98,256738
2.3851,0.3470,39.6000,101,98,256741
2.1603,0.3421,39.7300,101,98,256744
2.0039,0.3568,39.5100,101,98,256748
1.8084,0.3421,39.6700,101,98,256751
1.6813,0.3372,39.7300,101,98,256754
1.6080,0.3324,39.6700,101,98,256758
1.5396,0.3568,39.7300,101,98,256761
1.5445,0.3666,39.5100,101,98,256764
1.4809,0.3715,39.6700,101,98,256769
1.4565,0.3421,39.5700,101,98,256772
1.4467,0.3519,39.7300,101,98,256776
1.4516,0.3470,39.7000,101,98,256779
1.4907,0.3568,39.6000,101,98,256782
1.4761,0.3861,39.7300,101,98,256786
1.5005,0.3421,39.6000,101,98,256789
1.4809,0.3421,39.6400,101,98,256792
1.4956,0.3421,39.7300,101,98,256796
1.5200,0.3568,39.6700,101,98,256799
1.5200,0.3421,39.7300,101,98,256802
1.5689,0.3519,39.4800,101,98,256806
1.5445,0.3421,39.6400,101,98,256809
1.5640,0.3372,39.7300,101,98,256814
1.5836,0.3470,39.7000,101,98,256817
1.5836,0.3421,39.7300,101,98,256820
1.6422,0.3568,39.5700,101,98,256824
1.6373,0.3519,39.6700,101,98,256827
1.6569,0.3470,39.6000,101,98,256830
1.6520,0.3421,39.7300,101,98,256834
1.6862,0.3372,39.7700,101,98,256837
1.7058,0.3421,39.6400,101,98,256840
1.7058,0.3519,39.7000,101,98,256844
1.7449,0.3421,39.5700,101,98,256847
1.7302,0.3470,39.6700,101,98,256850
1.7400,0.3421,39.8900,101,98,256855
1.7693,0.3470,39.7300,101,98,256858
1.7693,0.3421,38.9600,101,98,256862
1.8328,0.3519,39.5700,101,98,256865
1.8035,0.3470,39.6400,101,98,256868
1.8035,0.3372,39.7000,101,98,256872
1.8280,0.3421,39.7300,101,98,256875
1.8475,0.3421,39.7300,101,98,256878
1.9013,0.3470,39.5700,101,98,256882
1.8915,0.3470,39.7000,101,98,256885
1.9306,0.3470,39.6000,101,98,256888
1.9110,0.3617,39.7000,101,98,256892
1.9257,0.3568,39.8000,101,98,256896
1.9550,0.3519,39.6000,101,98,256899
1.9599,0.3421,39.9300,101,98,256903
2.0039,0.3470,39.6400,101,98,256906
1.9697,0.3470,39.7000,101,98,256910
1.9746,0.3421,39.7300,101,98,256913
1.9941,0.3470,39.6700,101,98,256916
1.9892,0.3421,39.7300,101,98,256920
2.0332,0.3568,39.5100,101,98,256923
1.9941,0.3519,39.6400,101,98,256926
1.9746,0.3372,39.6700,101,98,256930
1.9501,0.3372,39.7300,101,98,256933
1.9550,0.3421,39.7300,101,98,256936
1.9844,0.3470,39.6400,101,98,256941
1.9306,0.3519,39.7000,101,98,256944
1.9355,0.3470,39.6400,101,98,256947
1.8817,0.3470,39.7000,101,98,256951
1.8622,0.3372,39.8600,101,98,256954
1.8573,0.3470,39.5700,101,98,256958
1.8084,0.3470,39.7700,101,98,256961
1.8182,0.3519,38.7100,101,98,256964
1.7644,0.3470,39.6400,101,98,256968
1.7253,0.3421,39.7300,101,98,256971
1.7058,0.3470,39.7000,101,98,256974
1.6862,0.3421,39.7000,101,98,256978
1.7107,0.3519,39.5400,101,98,256982
1.6618,0.3470,39.6700,101,98,256985
1.6520,0.3275,39.6400,101,98,256989
1.6080,0.3421,39.7000,101,98,256992
1.6031,0.3519,39.7300,101,98,256995
1.6178,0.3519,39.7000,101,98,256999
1.6080,0.3470,39.7300,101,98,257002
1.6276,0.3421,39.6000,101,98,257006
1.6471,0.3519,39.5100,101,98,257010
1.6520,0.3421,39.6000,101,98,257014
1.6178,0.3324,39.7000,101,98,257017
1.6227,0.3519,39.7300,101,98,257020
1.6178,0.3421,39.7700,101,98,257025
1.6716,0.3519,39.6000,101,98,257028
1.6618,0.3470,39.7300,101,98,257031
1.6764,0.3519,39.5700,101,98,257035
1.6667,0.3421,39.7300,101,98,257038
1.6667,0.3372,39.7700,101,98,257042
1.7009,0.3519,39.7000,101,98,257045
1.7058,0.3421,39.7300,101,98,257048
1.7058,0.3519,39.5100,101,98,257052
1.6813,0.3470,39.6000,101,98,257055
1.6667,0.3421,39.5700,101,98,257058
1.6813,0.3519,39.7000,101,98,257062
1.6813,0.3666,39.7000,101,98,257065
1.7400,0.3666,39.5100,101,98,257069
1.7498,0.3519,39.6700,101,98,257073
1.7107,0.3861,39.6700,101,98,257076
1.7058,0.3763,39.7300,101,98,257080
1.7058,0.3421,39.7300,101,98,257083
1.7302,0.3519,39.6400,101,98,257086
1.7204,0.3421,39.7000,101,98,257090
1.7351,0.3470,39.6700,101,98,257093
1.6960,0.3421,39.8000,101,98,257096
1.7009,0.3421,39.7300,101,98,257100
1.7204,0.3470,39.6000,101,98,257103
1.6960,0.3421,39.7300,101,98,257106
1.7400,0.3812,39.4800,101,98,257111
1.7107,0.3421,39.6400,101,98,257114
1.7155,0.3666,39.7700,101,98,257117
1.7302,0.3519,39.6700,101,98,257121
1.7204,0.3421,39.7300,101,98,257124
1.7742,0.3666,39.6000,101,98,257128
1.7400,0.3324,39.6700,101,98,257131
1.7351,0.3421,39.5700,101,98,257134
1.7155,0.3372,39.7000,101,98,257138
1.7107,0.3421,39.7700,101,98,257141
1.7400,0.3519,39.6000,101,98,257144
1.7400,0.3372,39.7300,101,98,257148
1.7351,0.3519,39.5700,101,98,257152
1.7302,0.3372,39.6400,101,98,257155
1.7400,0.3470,39.7300,101,98,257159
1.7791,0.3421,39.7000,101,98,257162
1.7840,0.3519,39.7300,101,98,257166
1.8426,0.3519,39.4400,101,98,257169
1.8133,0.3372,39.7000,101,98,257172
1.8035,0.3421,39.6700,101,98,257176
1.8084,0.3568,39.7300,101,98,257179
1.8231,0.3421,39.6700,101,98,257182
1.8719,0.3568,39.6000,101,98,257186
1.8768,0.3519,39.7000,101,98,257189
1.9062,0.3470,39.8000,101,98,257192
1.8817,0.3421,39.7300,101,98,257197
1.8817,0.3421,39.7700,101,98,257200
1.9062,0.3470,39.6400,101,98,257204
1.8768,0.3421,39.7300,101,98,257207
1.9013,0.3470,39.5400,101,98,257210
1.8475,0.3372,39.6700,101,98,257214
1.8035,0.3421,39.7300,101,98,257217
1.7693,0.3421,39.7000,101,98,257220
1.7204,0.3421,39.7300,101,98,257224
1.7351,0.3568,39.5400,101,98,257227
1.6618,0.3470,39.6700,101,98,257230
1.6325,0.3421,39.6400,101,98,257234
1.5885,0.3421,39.7300,101,98,257238
1.5787,0.3421,39.7300,101,98,257242
1.6031,0.3519,39.5700,101,98,257245
1.5738,0.3421,39.7300,101,98,257248
1.5934,0.3421,39.6000,101,98,257252
1.5640,0.3421,39.6700,101,98,257255
1.5640,0.3372,39.7300,101,98,257258
1.5689,0.3470,39.6400,101,98,257262
1.5640,0.3275,39.7300,101,98,257265
1.6031,0.3519,39.5700,101,98,257268
1.5640,0.3372,39.6700,101,98,257272
1.5640,0.3470,39.7000,101,98,257275
1.5591,0.3470,39.7000,101,98,257278
1.5738,0.3421,39.4800,101,98,257283
1.6716,0.3519,39.6000,101,98,257286
1.7400,0.3470,39.8000,101,98,257290
1.9062,0.3421,39.6000,101,98,257293
2.1212,0.3421,39.7000,101,98,257296
2.3949,0.3421,39.7000,101,98,257300
2.6979,0.3421,39.6000,101,98,257303
2.9277,0.3470,39.7300,101,98,257306
3.1183,0.3519,39.5400,101,98,257310
3.0938,0.3372,39.7000,101,98,257313
2.9814,0.3421,39.7000,101,98,257316
2.8201,0.3470,39.6000,101,98,257320
2.5758,0.3421,39.8000,101,98,257324
2.4145,0.3421,39.4400,101,98,257327
2.1408,0.3470,39.6700,101,98,257331
1.9208,0.3275,39.7000,101,98,257334
1.7302,0.3421,39.7000,101,98,257338
1.5738,0.3372,39.7700,101,98,257341
1.5298,0.3519,39.5700,101,98,257344
1.4125,0.3421,39.7300,101,98,257348
1.3734,0.3470,39.6000,101,98,257351
1.3196,0.3324,39.7000,101,98,257354
1.3001,0.3421,39.7300,101,98,257358
1.3050,0.3275,39.6400,101,98,257361
1.2952,0.3372,39.7300,101,98,257364
1.3294,0.3568,39.5100,101,98,257369
1.3148,0.3421,39.6700,101,98,257372
1.3245,0.3421,39.7300,101,98,257375
1.3441,0.3470,39.7000,101,98,257379
1.3490,0.3421,39.7300,101,98,257382
1.4125,0.3568,38.7400,101,98,257386
1.4027,0.3666,39.6400,101,98,257389
1.4125,0.3421,39.6700,101,98,257392
1.4174,0.3421,39.7000,101,98,257396
1.4321,0.3421,39.7300,101,98,257399
1.4761,0.3470,39.6700,101,98,257402
1.4809,0.3421,39.6400,101,98,257406
1.5200,0.3421,39.6400,101,98,257410
1.5103,0.3421,39.9300,101,98,257413
1.5200,0.3372,39.7700,101,98,257417
1.5494,0.3470,39.6700,101,98,257420
1.5543,0.3421,39.8600,101,98,257424
1.6129,0.3519,39.5100,101,98,257427
1.5982,0.3470,39.6700,101,98,257430
1.6080,0.3372,39.7300,101,98,257434
1.6276,0.3421,39.7300,101,98,257437
1.6325,0.3421,39.7700,101,98,257440
1.6862,0.3470,39.5400,101,98,257444
1.6764,0.3421,39.7700,101,98,257447
1.7107,0.3470,39.6000,101,98,257451
1.6911,0.3275,39.7300,101,98,257455
1.7204,0.3275,39.7700,101,98,257458
1.7498,0.3421,39.6400,101,98,257462
1.7644,0.3421,39.7300,101,98,257465
1.8182,0.3519,39.5400,101,98,257468
1.8035,0.3421,39.7300,101,98,257472
1.8182,0.3372,39.7300,101,98,257475
1.8426,0.3470,39.7000,101,98,257478
1.8426,0.3715,39.7300,101,98,257482
1.9159,0.3617,39.4800,101,98,257485
1.9257,0.3519,39.6400,101,98,257488
1.9110,0.3324,39.6400,101,98,257492
1.8964,0.3372,39.7300,101,98,257496
1.9110,0.3421,39.7300,101,98,257500
1.9501,0.3470,39.6400,101,98,257503
1.9306,0.3421,39.7300,101,98,257506
1.9697,0.3568,39.6400,101,98,257510
1.9355,0.3421,39.7000,101,98,257513
1.9306,0.3372,39.7300,101,98,257516
1.9746,0.3372,39.6700,101,98,257520
1.9208,0.3275,39.7300,101,98,257523
1.9550,0.3519,39.5100,101,98,257526
1.9208,0.3421,39.6700,101,98,257530
1.8866,0.3715,39.7300,101,98,257533
1.8719,0.3421,39.7300,101,98,257538
1.8622,0.3372,39.7300,101,98,257541
1.8524,0.3519,39.5700,101,98,257544
1.7937,0.3519,39.7000,101,98,257548
1.7693,0.3372,39.7000,101,98,257551
1.7155,0.3324,39.8000,101,98,257554
1.6764,0.3324,39.7000,101,98,257558
1.6618,0.3421,39.7000,101,98,257561
1.6325,0.3715,39.7700,101,98,257564
1.6422,0.3715,39.5400,101,98,257568
1.6276,0.3421,39.7000,101,98,257571
1.5836,0.3421,39.7300,101,98,257575
1.5836,0.3519,39.7000,101,98,257579
1.5494,0.3421,39.7000,101,98,257582
1.5836,0.3519,39.5100,101,98,257586
1.5494,0.3715,39.6000,101,98,257589
1.5396,0.3372,39.6700,101,98,257592
1.5347,0.3421,39.6700,101,98,257596
1.5347,0.3470,39.7300,101,98,257599
1.5640,0.3666,39.6000,101,98,257602
1.5494,0.3421,39.6700,101,98,257606
1.5738,0.3470,39.6700,101,98,257609
1.5543,0.3372,39.6400,101,98,257612
1.5591,0.3421,39.7300,101,98,257616
1.5836,0.3470,39.6000,101,98,257619
1.6129,0.3421,39.7000,101,98,257625
1.6129,0.3372,39.7700,101,98,257628
1.6764,0.3617,39.5700,101,98,257632
1.6422,0.3470,39.7300,101,98,257635
1.6471,0.3421,39.6400,101,98,257638
1.6373,0.3421,39.7300,101,98,257642
1.6276,0.3421,39.7300,101,98,257645
1.6422,0.3470,39.7000,101,98,257649
1.6276,0.3421,39.7300,101,98,257652
1.6911,0.3421,39.6000,101,98,257655
1.6471,0.3421,39.7000,101,98,257659
1.6520,0.3372,39.7300,101,98,257662
1.7009,0.3519,39.6400,101,98,257666
1.6520,0.3715,39.8300,101,98,257670
1.7009,0.3763,39.4800,101,98,257673
1.6716,0.3470,39.6400,101,98,257676
1.6618,0.3372,39.7000,101,98,257680
1.6667,0.3421,39.7300,101,98,257683
1.6569,0.3421,39.8300,101,98,257687
1.6911,0.3666,39.6000,101,98,257690
1.6764,0.3372,39.7700,101,98,257693
1.7009,0.3421,39.6000,101,98,257697
1.6862,0.3421,39.7300,101,98,257700
1.6862,0.3421,39.7700,101,98,257703
1.7107,0.3470,39.6400,101,98,257708
1.6911,0.3324,39.7300,101,98,257711
1.7253,0.3715,39.5400,101,98,257714
1.7155,0.3470,39.6000,101,98,257718
1.6960,0.3372,39.7300,101,98,257721
1.6960,0.3324,39.7300,101,98,257725
1.6716,0.3666,39.7000,101,98,257728
1.7155,0.3568,39.5100,101,98,257731
1.6764,0.3372,39.7000,101,98,257735
1.6764,0.3372,39.7000,101,98,257738
1.6764,0.3470,39.7300,101,98,257741
1.6813,0.3372,39.7700,101,98,257745
1.7155,0.3617,39.6700,101,98,257748
1.7155,0.3324,39.7300,101,98,257752
1.7595,0.3372,39.6400,101,98,257756
1.7498,0.3372,39.7700,101,98,257759
1.7644,0.3715,39.7700,101,98,257763
1.7889,0.3666,39.6400,101,98,257766
1.7742,0.3372,39.8000,101,98,257769
1.8280,0.3470,39.2500,101,98,257773
1.8133,0.3421,39.7700,101,98,257776
1.8328,0.3372,39.8000,101,98,257779
1.8573,0.3421,39.7000,101,98,257783
1.8671,0.3372,39.0000,101,98,257786
1.9159,0.3470,39.6000,101,98,257789
1.8915,0.3421,39.7000,101,98,257794
1.8964,0.3372,39.6000,101,98,257797
1.8719,0.3421,39.7300,101,98,257800
1.8573,0.3372,39.7300,101,98,257804
1.8768,0.3519,39.6400,101,98,257807
1.8231,0.3421,39.7300,101,98,257811
1.8182,0.3421,39.5700,101,98,257814
1.7791,0.3275,39.8600,101,98,257817
1.7546,0.3372,39.7300,101,98,257821
1.6911,0.3470,39.7300,101,98,257824
1.6471,0.3372,39.7300,101,98,257827
1.6569,0.3568,39.4800,101,98,257831
1.6080,0.3470,39.6400,101,98,257835
1.5934,0.3372,39.6700,101,98,257838
1.5885,0.3470,39.7300,101,98,257842
1.5738,0.3372,39.7700,101,98,257845
1.5885,0.3470,39.6700,101,98,257849
1.5836,0.3421,39.7000,101,98,257852
1.6129,0.3519,39.6700,101,98,257855
1.5885,0.3324,39.7300,101,98,257859
1.5885,0.3421,39.7300,101,98,257862
1.6031,0.3324,39.6000,101,98,257865
1.5738,0.3421,39.7700,101,98,257869
1.5982,0.3470,39.5100,101,98,257872
1.5836,0.3421,39.6700,101,98,257875
1.6373,0.3715,39.7300,101,98,257880
1.7302,0.3568,39.7700,101,98,257883
1.8719,0.3421,39.7300,101,98,257887
2.1408,0.3568,39.7000,101,98,257890
2.3656,0.3421,39.7700,101,98,257893
2.6588,0.3421,39.7300,101,98,257897
2.8886,0.3617,39.7700,101,98,257900
3.0450,0.3372,39.8000,101,98,257903
3.1281,0.3470,39.6000,101,98,257907
2.9765,0.3421,39.7300,101,98,257910
2.8397,0.3421,39.5700,101,98,257913
2.6051,0.3421,39.6700,101,98,257917
2.3607,0.3275,39.7300,101,98,257921
2.1750,0.3470,39.6700,101,98,257924
1.9648,0.3275,39.7700,101,98,257928
1.8475,0.3519,39.4800,101,98,257931
1.6618,0.3275,39.6400,101,98,257935
1.5543,0.3275,39.7300,101,98,257938
1.4809,0.3275,39.7300,101,98,257941
1.4370,0.3324,39.7700,101,98,257945
1.4223,0.3519,39.6700,101,98,257948
1.4174,0.3372,39.7300,101,98,257951
1.3881,0.3470,39.6000,101,98,257955
1.3636,0.3421,39.7700,101,98,257958
1.3930,0.3372,39.7300,101,98,257961
1.3930,0.3421,39.6000,101,98,257966
1.3881,0.3421,39.7700,101,98,257969
1.4174,0.3470,39.5100,101,98,257973
1.4076,0.3226,39.6700,101,98,257976
1.4174,0.3372,39.7300,101,98,257979
1.4370,0.3470,39.7000,101,98,257983
1.4467,0.3372,39.7300,101,98,257986
1.5152,0.3568,39.5400,101,98,257989
1.5005,0.3421,39.6400,101,98,257993
1.5249,0.3372,39.7300,101,98,257996
1.5347,0.3421,39.6700,101,98,257999
1.5494,0.3372,39.7300,101,98,258003
1.5885,0.3470,39.0000,101,98,258007
1.5738,0.3421,39.8600,101,98,258011
1.6129,0.3372,39.5700,101,98,258014
1.6080,0.3372,39.6700,101,98,258017
1.6227,0.3372,39.7700,101,98,258021
1.6569,0.3470,39.6400,101,98,258024
1.6569,0.3421,39.7300,101,98,258027
1.7155,0.3470,39.4800,101,98,258031
1.6911,0.3372,39.6400,101,98,258034
1.7058,0.3372,39.7700,101,98,258037
1.7302,0.3421,39.7300,101,98,258041
1.7351,0.3372,39.7300,101,98,258044
1.7937,0.3470,39.6400,101,98,258049
1.7937,0.3470,39.7000,101,98,258052
1.8377,0.3275,39.6000,101,98,258055
1.8182,0.3372,39.7700,101,98,258059
1.8377,0.3372,39.7000,101,98,258062
1.8573,0.3421,39.6400,101,98,258065
1.8573,0.3421,39.7300,101,98,258069
1.9159,0.3372,39.5400,101,98,258072
1.8915,0.3421,39.8000,101,98,258075
1.9110,0.3372,39.7300,101,98,258079
1.9257,0.3421,39.7000,101,98,258082
1.9550,0.3372,39.7000,101,98,258085
1.9990,0.3617,39.5700,101,98,258089
1.9648,0.3470,39.7000,101,98,258093
1.9697,0.3372,39.7000,101,98,258097
1.9697,0.3421,39.7300,101,98,258100
1.9648,0.3372,39.8000,101,98,258103
1.9941,0.3470,39.4800,101,98,258107
1.9550,0.3470,39.8300,101,98,258110
1.9746,0.3470,39.6400,101,98,258113
1.9404,0.3324,39.7000,101,98,258117
1.9355,0.3372,39.7700,101,98,258120
1.9355,0.3421,39.6700,101,98,258123
1.9013,0.3421,39.7300,101,98,258127
1.9208,0.3470,39.5100,101,98,258130
1.8622,0.3324,39.7000,101,98,258135
1.8426,0.3372,39.7300,101,98,258138
1.8280,0.3470,39.7000,101,98,258141
1.7840,0.3372,39.7700,101,98,258145
1.8035,0.3666,39.5400,101,98,258148
1.7498,0.3568,39.6700,101,98,258151
1.7204,0.3421,39.5700,101,98,258155
1.6862,0.3421,39.7300,101,98,258158
1.6618,0.3372,39.7300,101,98,258161
1.6520,0.3812,39.6700,101,98,258165
1.6129,0.3421,39.8900,101,98,258168
1.6227,0.3421,39.7000,101,98,258171
1.5885,0.3372,39.7000,101,98,258176
1.5836,0.3372,39.8300,101,98,258179
1.5934,0.3470,39.1900,101,98,258183
1.5689,0.3617,39.7300,101,98,258186
1.6178,0.3519,39.4800,101,98,258189
1.5885,0.3421,39.6400,101,98,258193
1.5885,0.3372,39.7300,101,98,258196
1.5934,0.3421,39.7300,101,98,258199
1.5934,0.3421,39.8300,101,98,258203
1.6325,0.3519,39.5700,101,98,258206
1.6080,0.3421,39.7300,101,98,258210
1.6373,0.3421,39.6000,101,98,258213
1.6422,0.3275,39.7300,101,98,258216
1.6227,0.3421,39.7700,101,98,258221
1.6422,0.3421,39.6400,101,98,258224
1.6422,0.3421,39.7300,101,98,258227
1.7155,0.3470,39.5100,101,98,258231
1.7449,0.3568,39.5400,101,98,258235
1.7155,0.3470,39.8600,101,98,258239
1.7204,0.3421,39.6700,101,98,258242
1.7204,0.3421,39.7300,101,98,258246
1.7253,0.3372,39.7700,101,98,258249
1.7498,0.3470,39.7300,101,98,258252
1.7351,0.3421,39.7300,101,98,258256
1.7595,0.3421,39.6400,101,98,258259
1.7351,0.3372,39.7300,101,98,258263
1.7351,0.3372,39.7700,101,98,258267
1.7595,0.3470,39.6700,101,98,258270
1.7351,0.3372,39.7700,101,98,258273
1.7840,0.3470,39.5100,101,98,258277
1.7693,0.3470,39.6400,101,98,258280
1.7595,0.3372,39.7300,101,98,258284
1.7693,0.3421,39.7300,101,98,258287
1.7644,0.3372,39.7700,101,98,258290
1.8084,0.3470,39.6400,101,98,258294
1.7791,0.3421,39.7000,101,98,258297
1.7937,0.3421,39.6400,101,98,258300
1.7742,0.3421,39.7700,101,98,258305
1.7742,0.3372,39.7700,101,98,258308
1.7791,0.3421,39.6400,101,98,258311
1.7693,0.3421,39.7300,101,98,258315
1.8035,0.3421,39.5400,101,98,258318
1.7791,0.3421,39.7300,101,98,258322
1.7791,0.3372,39.7700,101,98,258325
1.7937,0.3470,39.6700,101,98,258328
1.7791,0.3421,39.7700,101,98,258332
1.8426,0.3568,39.5100,101,98,258335
1.8133,0.3470,39.6700,101,98,258338
1.8231,0.3372,39.6700,101,98,258342
1.8328,0.3372,39.7300,101,98,258345
1.8328,0.3372,39.7700,101,98,258349
1.8719,0.3470,39.6700,101,98,258353
1.8573,0.3421,39.7300,101,98,258356
1.8964,0.3470,39.6700,101,98,258360
1.8719,0.3372,39.7300,101,98,258363
1.8964,0.3372,39.7700,101,98,258366
1.9404,0.3519,39.6400,101,98,258370
1.9404,0.3372,39.5400,101,98,258373
2.0039,0.3470,39.5100,101,98,258376
1.9941,0.3421,39.6400,101,98,258380
1.9697,0.3324,39.7300,101,98,258383
1.9844,0.3421,39.7300,101,98,258386
1.9795,0.3372,39.7700,101,98,258391
2.0137,0.3568,39.5700,101,98,258394
1.9648,0.3421,39.7300,101,98,258398
1.9501,0.3275,39.6400,101,98,258401
1.8866,0.3421,39.7700,101,98,258404
1.8377,0.3421,39.7700,101,98,258408
1.8133,0.3421,39.6700,101,98,258411
1.7693,0.3421,39.7300,101,98,258414
1.7595,0.3421,39.5700,101,98,258418
1.7107,0.3421,39.8300,101,98,258421
1.6960,0.3372,39.7700,101,98,258424
1.7058,0.3470,39.6700,101,98,258428
1.6764,0.3421,39.7300,101,98,258432
1.7351,0.3519,39.4800,101,98,258436
1.6911,0.3470,39.6400,101,98,258439
1.6813,0.3421,39.6700,101,98,258442
1.6960,0.3275,39.7300,101,98,258446
1.6911,0.3372,39.7300,101,98,258449
1.7058,0.3519,39.6400,101,98,258452
1.7107,0.3372,39.7300,101,98,258456
1.7009,0.3519,39.7000,101,98,258459
1.6667,0.3421,39.7300,101,98,258462
1.6911,0.3372,39.7300,101,98,258466
1.7498,0.3519,39.7000,101,98,258469
1.8182,0.3421,39.7300,101,98,258473
2.0381,0.3519,39.5100,101,98,258477
2.2043,0.3372,39.6400,101,98,258480
2.4633,0.3421,39.8000,101,98,258484
2.7615,0.3470,39.7000,101,98,258487
2.9961,0.3372,39.7300,101,98,258490
3.2356,0.3568,39.6700,101,98,258494
3.2014,0.3421,39.7000,101,98,258497
3.1085,0.3421,39.5400,101,98,258500
2.9032,0.3421,39.7700,101,98,258504
2.6833,0.3421,39.7700,101,98,258507
2.4682,0.3470,39.7700,101,98,258510
2.2239,0.3421,39.7300,101,98,258514
2.0479,0.3421,39.6000,101,98,258518
1.8475,0.3372,39.7000,101,98,258522
1.7155,0.3372,39.7300,101,98,258525
1.6422,0.3470,39.6400,101,98,258528
1.5396,0.3275,39.7300,101,98,258532
1.5347,0.3519,39.5100,101,98,258535
1.4858,0.3421,39.6400,101,98,258538
1.4565,0.3421,39.7000,101,98,258542
1.4467,0.3372,39.7700,101,98,258545
1.4467,0.3372,39.7700,101,98,258548
1.4712,0.3470,39.6400,101,98,258552
1.4516,0.3421,39.7700,101,98,258555
1.4858,0.3470,39.6700,101,98,258560
1.4809,0.3372,39.7700,101,98,258563
1.4907,0.3372,39.8000,101,98,258566
1.5445,0.3470,39.6700,101,98,258570
1.5249,0.3421,39.7700,101,98,258573
1.5689,0.3470,39.5400,101,98,258576
1.5738,0.3421,39.6700,101,98,258580
1.5787,0.3324,39.7300,101,98,258583
1.6031,0.3421,39.7300,101,98,258586
1.6031,0.3275,39.7300,101,98,258590
1.6716,0.3519,39.5400,101,98,258593
1.6569,0.3470,39.8000,101,98,258597
1.7058,0.3275,39.6400,101,98,258600
1.7058,0.3372,39.7300,101,98,258604
1.6960,0.3421,39.7700,101,98,258608
1.7302,0.3470,39.6700,101,98,258611
1.7351,0.3470,39.8300,101,98,258614
1.7742,0.3421,39.6000,101,98,258618
1.7644,0.3372,39.9300,101,98,258621
1.7791,0.3372,39.8000,101,98,258624
1.8084,0.3470,39.7300,101,98,258628
1.7937,0.3421,39.7700,101,98,258631
1.8426,0.3470,39.5100,101,98,258634
1.8328,0.3421,39.6700,101,98,258638
1.8475,0.3372,39.7700,101,98,258641
1.8719,0.3421,39.8000,101,98,258646
1.8817,0.3372,39.7700,101,98,258649
1.9404,0.3519,39.6400,101,98,258652
1.9257,0.3421,39.7300,101,98,258656
1.9697,0.3421,39.6700,101,98,258659
1.9501,0.3421,39.8000,101,98,258662
1.9697,0.3372,39.7700,101,98,258666
2.0137,0.3470,39.6700,101,98,258669
1.9990,0.3421,39.8000,101,98,258672
2.0332,0.3372,39.5700,101,98,258676
2.0332,0.3470,39.7000,101,98,258679
2.0283,0.3372,39.7300,101,98,258683
2.0577,0.3421,39.6700,101,98,258686
2.0430,0.3372,39.7700,101,98,258690
2.0968,0.3519,39.5400,101,98,258694
2.0528,0.3421,39.6700,101,98,258697
2.0430,0.3372,39.7000,101,98,258700
2.0381,0.3421,39.7300,101,98,258704
2.0235,0.3372,39.7700,101,98,258707
2.0430,0.3519,39.6400,101,98,258710
2.0039,0.3519,39.7300,101,98,258714
2.0039,0.3421,39.8900,101,98,258717
1.9648,0.3470,39.7700,101,98,258720
1.9453,0.3421,39.7300,101,98,258724
1.9404,0.3421,39.6000,101,98,258727
1.9013,0.3275,39.7300,101,98,258731
1.9110,0.3372,39.5400,101,98,258735
1.8426,0.3372,39.7000,101,98,258738
1.8133,0.3421,39.7300,101,98,258742
1.8182,0.3372,39.7300,101,98,258745
1.7595,0.3372,39.7700,101,98,258748
1.7889,0.3470,39.5400,101,98,258752
1.7204,0.3421,39.6700,101,98,258755
1.7009,0.3470,39.6700,101,98,258758
1.6862,0.3324,39.7300,101,98,258762
1.6813,0.3324,39.7300,101,98,258765
1.7058,0.3715,39.5700,101,98,258768
1.6764,0.3275,39.7700,101,98,258772
1.7009,0.3617,39.6400,101,98,258776
1.6716,0.3470,39.6700,101,98,258780
1.6764,0.3372,39.8600,101,98,258783
1.7107,0.3372,39.6700,101,98,258786
1.6716,0.3470,39.7700,101,98,258790
1.7107,0.3568,39.5100,101,98,258793
1.6764,0.3421,39.6700,101,98,258796
1.6862,0.3372,39.7700,101,98,258800
1.6960,0.3421,39.7000,101,98,258803
1.6960,0.3421,39.7700,101,98,258806
1.7400,0.3519,39.6000,101,98,258810
1.7204,0.3470,39.2500,101,98,258813
1.7351,0.3421,39.6400,101,98,258817
1.7302,0.3421,39.7000,101,98,258821
1.7351,0.3421,39.0000,101,98,258824
1.7595,0.3421,39.7300,101,98,258828
1.7400,0.3421,39.7700,101,98,258831
1.7595,0.3421,39.6000,101,98,258834
1.7449,0.3421,39.8000,101,98,258838
1.7546,0.3372,39.7700,101,98,258841
1.7791,0.3470,39.6400,101,98,258844
1.7644,0.3519,39.7300,101,98,258849
1.7693,0.3617,39.7300,101,98,258853
1.8035,0.3763,39.6400,101,98,258856
1.7986,0.3372,39.7300,101,98,258860
1.7840,0.3519,39.6000,101,98,258864
1.7595,0.3324,39.7300,101,98,258867
1.7644,0.3372,39.7300,101,98,258870
1.7840,0.3421,39.6400,101,98,258874
1.7742,0.3421,39.7300,101,98,258877
1.8084,0.3519,39.5100,101,98,258880
1.7791,0.3421,39.7700,101,98,258884
1.7840,0.3617,39.7700,101,98,258887
1.8084,0.3812,39.6700,101,98,258891
1.8035,0.3372,39.9300,101,98,258894
1.8573,0.3568,39.5400,101,98,258897
1.8231,0.3470,39.7000,101,98,258902
1.8231,0.3421,39.7000,101,98,258905
1.8084,0.3421,39.7300,101,98,258908
1.8084,0.3372,39.7700,101,98,258912
1.8280,0.3470,39.6700,101,98,258915
1.8035,0.3421,39.7300,101,98,258918
1.8182,0.3421,39.6000,101,98,258922
1.8035,0.3421,39.7300,101,98,258925
1.8280,0.3372,39.7300,101,98,258928
1.8475,0.3568,39.7000,101,98,258932
1.8377,0.3421,39.7300,101,98,258935
1.8866,0.3519,39.5100,101,98,258939
1.9013,0.3372,39.6700,101,98,258942
1.8524,0.3324,39.8000,101,98,258946
1.8671,0.3421,39.7000,101,98,258950
1.8866,0.3421,39.7700,101,98,258953
1.9404,0.3519,39.5700,101,98,258956
1.9404,0.3421,39.7300,101,98,258960
1.9697,0.3421,39.6400,101,98,258963
1.9550,0.3421,39.8000,101,98,258966
1.9550,0.3275,39.7300,101,98,258970
1.9697,0.3421,39.7000,101,98,258973
1.9599,0.3421,39.7700,101,98,258977
1.9844,0.3470,39.5400,101,98,258980
1.9404,0.3275,39.7300,101,98,258983
1.9110,0.3470,39.7300,101,98,258988
1.8964,0.3470,39.7000,101,98,258991
1.8328,0.3421,39.7000,101,98,258994
1.8377,0.3568,39.5700,101,98,258998
1.7546,0.3519,39.6700,101,98,259001
1.7058,0.3372,39.6000,101,98,259004
1.6667,0.3421,39.7300,101,98,259008
1.6422,0.3568,39.8600,101,98,259011
1.6520,0.3470,39.6700,101,98,259015
1.6227,0.3421,39.7300,101,98,259018
1.6373,0.3470,39.6700,101,98,259021
1.6178,0.3372,39.7000,101,98,259025
1.6178,0.3421,39.7700,101,98,259028
1.6422,0.3470,39.6400,101,98,259032
1.6227,0.3421,39.7700,101,98,259036
1.6667,0.3470,39.5400,101,98,259039
1.6520,0.3470,39.7000,101,98,259042
1.6422,0.3275,39.8000,101,98,259046
1.6422,0.3372,39.7000,101,98,259049
1.6276,0.3421,39.7700,101,98,259053
1.7058,0.3470,39.5700,101,98,259056
1.7400,0.3421,39.7000,101,98,259059
1.8622,0.3421,39.6400,101,98,259063
2.0235,0.3421,39.7300,101,98,259066
2.2678,0.3372,39.7700,101,98,259069
2.5806,0.3421,39.6700,101,98,259074
2.8299,0.3372,39.7300,101,98,259077
3.0841,0.3715,39.6400,101,98,259080
3.1623,0.3275,39.7300,101,98,259084
3.1183,0.3470,39.7300,101,98,259087
3.0205,0.3470,39.6400,101,98,259090
2.7761,0.3421,39.7700,101,98,259094
2.6100,0.3519,39.4800,101,98,259097
2.3216,0.3421,39.5700,101,98,259101
2.0674,0.3372,39.7700,101,98,259104
1.8719,0.3421,39.7300,101,98,259107
1.6960,0.3372,39.6700,101,98,259111
1.5982,0.3470,39.6400,101,98,259115
1.4858,0.3421,39.7700,101,98,259118
1.4370,0.3421,39.6000,101,98,259122
1.3734,0.3421,39.7700,101,98,259125
1.3539,0.3421,39.8000,101,98,259128
1.3636,0.3470,39.6400,101,98,259132
1.3392,0.3372,39.8900,101,98,259135
1.3636,0.3470,39.5700,101,98,259139
1.3587,0.3470,39.6700,101,98,259142
1.3539,0.3421,39.7700,101,98,259145
1.3783,0.3470,39.7700,101,98,259149
1.3832,0.3372,39.8000,101,98,259152
1.4321,0.3568,39.5400,101,98,259155
1.4174,0.3470,39.9600,101,98,259160
1.4321,0.3421,39.6700,101,98,259163
1.4418,0.3421,39.7300,101,98,259166
1.4418,0.3372,39.7700,101,98,259170
1.4907,0.3470,39.7300,101,98,259173
1.4858,0.3421,39.7300,101,98,259177
1.5200,0.3421,39.6400,101,98,259180
1.4907,0.3421,39.7700,101,98,259183
1.5103,0.3372,39.7700,101,98,259187
1.5494,0.3519,39.6400,101,98,259190
1.5445,0.3421,39.7700,101,98,259193
1.5934,0.3470,39.5100,101,98,259197
1.5738,0.3421,39.6000,101,98,259201
1.5787,0.3372,39.7300,101,98,259204
1.6031,0.3421,39.7300,101,98,259208
1.6178,0.3372,39.7700,101,98,259211
1.6667,0.3470,39.6400,101,98,259215
1.6471,0.3421,39.7700,101,98,259218
1.6764,0.3421,39.6000,101,98,259221
1.6569,0.3421,39.7700,101,98,259225
1.6813,0.3372,39.7700,101,98,259228
1.7204,0.3470,39.6400,101,98,259231
1.7155,0.3421,39.7700,101,98,259235
1.7595,0.3519,39.5700,101,98,259238
1.7595,0.3470,39.6700,101,98,259241
1.7595,0.3421,39.7300,101,98,259246
1.7889,0.3470,39.7000,101,98,259249
1.7937,0.3421,39.8000,101,98,259252
1.8524,0.3568,39.5400,101,98,259256
1.8182,0.3470,39.7300,101,98,259259
1.8280,0.3324,39.6700,101,98,259263
1.8328,0.3372,39.7700,101,98,259266
1.8475,0.3372,39.7300,101,98,259269
1.9110,0.3372,39.7000,101,98,259273
1.8671,0.3617,39.7300,101,98,259276
1.8964,0.3470,39.6000,101,98,259279
1.8671,0.3372,39.7700,101,98,259283
1.8719,0.3372,39.8600,101,98,259287
1.8915,0.3470,39.8600,101,98,259290
1.8622,0.3421,39.7700,101,98,259294
1.8915,0.3470,39.5400,101,98,259297
1.8426,0.3421,39.6700,101,98,259301
1.8231,0.3372,39.7700,101,98,259304
1.8084,0.3421,39.7300,101,98,259307
1.7840,0.3372,39.7700,101,98,259311
1.8035,0.3519,39.6000,101,98,259314
1.7351,0.3421,39.7000,101,98,259317
1.7204,0.3421,39.6400,101,98,259321
1.6716,0.3421,39.7300,101,98,259324
1.6422,0.3421,39.7700,101,98,259328
1.6422,0.3470,39.6400,101,98,259332
1.5836,0.3421,39.7700,101,98,259335
1.5738,0.3421,39.6000,101,98,259339
1.5298,0.3421,39.6700,101,98,259342
1.5054,0.3372,39.8000,101,98,259345
1.5103,0.3470,39.7000,101,98,259349
1.4907,0.3421,39.8000,101,98,259352
1.5200,0.3519,39.4800,101,98,259355
1.4809,0.3421,39.6700,101,98,259359
1.4761,0.3372,39.7000,101,98,259362
1.4956,0.3275,39.7300,101,98,259365
1.4663,0.3421,39.7700,101,98,259369
1.4858,0.3519,39.7700,101,98,259373
1.4761,0.3372,39.7300,101,98,259376
1.4809,0.3519,39.6400,101,98,259380
1.4565,0.3324,39.7700,101,98,259383
1.4907,0.3421,39.7700,101,98,259387
1.4858,0.3372,39.7000,101,98,259390
1.4761,0.3372,39.7300,101,98,259393
1.5103,0.3568,39.5400,101,98,259397
1.4809,0.3421,39.7000,101,98,259400
1.4858,0.3421,39.8300,101,98,259403
1.5005,0.3372,39.7000,101,98,259407
1.5005,0.3421,39.7700,101,98,259410
1.5543,0.3568,39.5400,101,98,259414
1.5249,0.3617,39.7700,101,98,259418
1.5249,0.3421,39.6400,101,98,259421
1.5200,0.3421,39.7300,101,98,259425
1.5249,0.3568,39.7700,101,98,259428
1.5591,0.3763,39.6400,101,98,259431
1.5689,0.3372,39.7300,101,98,259435
1.5543,0.3617,39.6000,101,98,259438
1.5396,0.3421,39.6700,101,98,259441
1.5396,0.3421,39.7700,101,98,259445
1.5640,0.3519,39.6700,101,98,259448
1.5591,0.3421,39.7700,101,98,259451
1.6129,0.3519,39.4800,101,98,259456
1.6178,0.3812,39.6700,101,98,259461
1.5934,0.3421,39.7000,101,98,259464
1.6031,0.3421,39.5100,101,98,259467
1.5787,0.3421,39.8000,101,98,259471
1.5836,0.3372,39.8000,101,98,259474
1.5982,0.3372,39.6700,101,98,259477
1.5787,0.3372,39.7300,101,98,259481
1.6080,0.3421,39.5700,101,98,259484
1.5787,0.3372,39.7000,101,98,259488
1.5689,0.3372,39.7700,101,98,259491
1.5836,0.3470,39.7300,101,98,259494
1.5738,0.3421,39.7700,101,98,259499
1.6276,0.3470,39.5100,101,98,259502
1.5836,0.3470,39.6700,101,98,259505
1.5738,0.3421,39.7000,101,98,259509
1.5689,0.3421,39.7700,101,98,259512
1.5836,0.3372,39.7700,101,98,259515
1.6129,0.3275,39.6000,101,98,259519
1.5885,0.3421,39.7700,101,98,259522
1.6031,0.3421,39.6400,101,98,259526
1.5738,0.3372,39.7000,101,98,259529
1.5689,0.3372,39.7700,101,98,259532
1.5885,0.3470,39.6700,101,98,259536
1.5787,0.3372,39.7700,101,98,259539
1.6178,0.3470,39.5400,101,98,259543
1.5787,0.3372,39.7000,101,98,259547
1.5885,0.3324,39.7300,101,98,259550
1.6129,0.3421,39.7300,101,98,259553
1.6227,0.3372,39.8000,101,98,259557
1.6813,0.3519,39.6000,101,98,259560
1.6618,0.3470,39.7000,101,98,259564
1.6716,0.3421,39.7000,101,98,259567
1.6569,0.3372,39.7700,101,98,259570
1.6764,0.3372,39.8000,101,98,259574
1.7107,0.3421,39.6400,101,98,259577
1.7302,0.3324,39.7700,101,98,259580
1.7693,0.3812,39.5700,101,98,259585
1.7546,0.3372,39.7300,101,98,259588
1.7791,0.3372,39.7700,101,98,259591
1.7791,0.3372,39.7000,101,98,259595
1.7889,0.3372,39.7700,101,98,259598
1.8035,0.3568,39.5100,101,98,259602
1.7595,0.3421,39.6700,101,98,259605
1.7204,0.3421,39.7000,101,98,259608
1.6813,0.3421,39.7300,101,98,259612
1.6569,0.3372,39.7700,101,98,259615
1.6520,0.3519,39.5700,101,98,259618
1.5885,0.3372,39.7300,101,98,259622
1.5738,0.3470,39.6700,101,98,259625
1.5249,0.3324,39.7000,101,98,259629
1.5054,0.3372,39.7700,101,98,259633
1.5249,0.3421,39.6400,101,98,259636
1.4858,0.3421,39.7300,101,98,259639
1.5152,0.3519,39.5700,101,98,259643
1.4761,0.3372,39.7000,101,98,259646
1.4712,0.3324,39.7700,101,98,259650
1.4858,0.3421,39.7300,101,98,259653
1.4761,0.3275,39.7700,101,98,259656
1.5249,0.3519,39.5700,101,98,259660
1.5249,0.3421,39.5400,101,98,259663
1.4858,0.3421,39.6700,101,98,259666
1.5005,0.3372,39.7300,101,98,259671
1.4907,0.3372,39.7300,101,98,259674
1.5152,0.3421,39.7000,101,98,259677
1.5689,0.3470,39.6700,101,98,259681
1.6911,0.3372,39.6400,101,98,259684
1.8426,0.3324,39.7300,101,98,259688
2.0772,0.3421,39.7300,101,98,259691
2.3754,0.3568,39.6700,101,98,259694
2.6246,0.3470,39.8000,101,98,259698
2.9277,0.3568,39.4800,101,98,259701
2.9912,0.3421,39.6400,101,98,259704
2.9423,0.3079,39.7300,101,98,259708
2.8055,0.3421,39.7300,101,98,259712
2.6197,0.3372,39.7700,101,98,259715
2.4487,0.3470,39.6000,101,98,259719
2.1896,0.3421,39.2800,101,98,259722
1.9892,0.3470,39.6400,101,98,259726
1.7546,0.3324,39.7300,101,98,259729
1.5836,0.3372,39.7700,101,98,259732
1.4614,0.3421,39.7000,101,98,259736
1.3636,0.3079,39.7700,101,98,259739
1.3294,0.3421,39.5400,101,98,259742
1.2561,0.3372,39.7700,101,98,259746
1.2366,0.3372,39.7700,101,98,259749
1.2268,0.3421,39.7000,101,98,259752
1.2317,0.3275,39.7700,101,98,259757
1.2708,0.3568,39.5700,101,98,259760
1.2512,0.3470,39.7300,101,98,259764
1.2610,0.3275,39.6700,101,98,259767
1.2463,0.3372,39.7700,101,98,259770
1.2610,0.3372,39.7700,101,98,259774
1.2952,0.3421,39.6700,101,98,259777
1.3050,0.3275,39.7700,101,98,259780
1.3392,0.3421,39.6400,101,98,259784
1.3392,0.3372,39.7300,101,98,259787
1.3587,0.3372,39.7700,101,98,259790
1.3930,0.3470,39.7000,101,98,259794
1.3978,0.3372,39.7700,101,98,259798
1.4565,0.3470,39.5100,101,98,259802
1.4467,0.3421,39.6700,101,98,259805
1.4370,0.3275,39.7300,101,98,259808
1.4614,0.3421,39.8000,101,98,259812
1.4809,0.3372,39.7700,101,98,259815
1.5298,0.3470,39.6000,101,98,259818
1.5103,0.3421,39.7300,101,98,259822
1.5445,0.3275,39.6000,101,98,259825
1.5298,0.3372,39.7700,101,98,259828
1.5640,0.3275,39.7700,101,98,259832
1.5787,0.3372,39.6400,101,98,259835
1.5982,0.3372,39.7700,101,98,259840
1.6373,0.3275,39.5400,101,98,259843
1.6227,0.3372,39.7300,101,98,259846
1.6276,0.3275,39.7700,101,98,259850
1.6618,0.3421,39.7000,101,98,259853
1.6618,0.3372,39.7700,101,98,259856
1.7302,0.3470,39.5700,101,98,259860
1.7155,0.3372,39.7000,101,98,259863
1.7204,0.3812,39.6700,101,98,259866
1.7253,0.3470,39.7700,101,98,259870
1.7449,0.3421,39.8300,101,98,259873
1.7840,0.3324,39.7000,101,98,259876
1.7791,0.3421,39.7300,101,98,259880
1.8133,0.3421,40.0000,101,98,259884
1.7937,0.3715,39.7300,101,98,259888
1.8035,0.3372,39.8000,101,98,259891
1.8377,0.3470,39.8000,101,98,259894
1.8328,0.3372,39.7300,101,98,259898
1.8915,0.3470,39.5700,101,98,259901
1.8719,0.3421,39.7000,101,98,259904
1.8573,0.3372,39.7300,101,98,259908
1.8622,0.3421,39.7700,101,98,259911
1.8524,0.3372,39.7300,101,98,259914
1.8866,0.3470,39.7700,101,98,259918
1.8426,0.3421,39.7300,101,98,259921
1.8328,0.3324,39.6000,101,98,259926
1.7937,0.3372,39.7700,101,98,259929
1.7742,0.3372,39.8000,101,98,259932
1.7693,0.3421,39.6700,101,98,259936
1.7400,0.3470,39.8300,101,98,259939
1.7351,0.3421,39.5700,101,98,259942
1.6764,0.3372,39.7700,101,98,259946
1.6471,0.3372,38.9600,101,98,259949
1.6325,0.3470,39.8000,101,98,259952
1.5836,0.3372,39.8000,101,98,259956
1.5982,0.3470,39.4800,101,98,259959
1.5396,0.3470,39.2800,101,98,259963
1.5005,0.3372,39.7000,101,98,259966
1.4809,0.3372,39.7700,101,98,259970
1.4663,0.3372,39.7700,101,98,259974
1.4858,0.3470,39.6700,101,98,259977
1.4565,0.3372,39.7300,101,98,259980
1.4712,0.3470,39.7000,101,98,259984
1.4467,0.3372,39.7700,101,98,259987
1.4370,0.3275,39.7700,101,98,259990
1.4663,0.3275,39.6400,101,98,259994
1.4516,0.3372,39.8000,101,98,259997
1.4956,0.3519,39.5400,101,98,260001
1.4809,0.3275,39.7000,101,98,260004
1.4663,0.3421,39.8000,101,98,260007
1.4712,0.3372,39.8300,101,98,260012
1.4858,0.3372,39.7700,101,98,260015
1.5347,0.3519,39.5700,101,98,260018
1.5152,0.3421,39.7000,101,98,260022
1.5249,0.3372,39.6700,101,98,260025
1.5249,0.3372,39.7700,101,98,260028
1.5249,0.3372,39.7700,101,98,260032
1.5543,0.3421,39.7000,101,98,260035
1.5543,0.3372,39.7700,101,98,260039
1.6178,0.3421,39.6400,101,98,260042
1.5689,0.3372,39.7300,101,98,260045
1.5934,0.3324,39.7700,101,98,260049
1.6129,0.3275,39.6700,101,98,260052
1.5885,0.3372,39.7700,101,98,260056
1.6716,0.3519,39.4800,101,98,260060
1.6276,0.3421,39.6000,101,98,260063
1.6227,0.3324,39.7000,101,98,260066
1.6227,0.3372,39.7300,101,98,260070
1.6178,0.3324,39.7700,101,98,260075
1.6178,0.3372,39.7700,101,98,260078
1.6422,0.3470,39.6000,101,98,260081
1.6227,0.3324,39.7300,101,98,260085
1.6520,0.3666,39.5700,101,98,260088
1.6325,0.3421,39.6400,101,98,260091
1.6129,0.3372,39.7700,101,98,260096
1.6129,0.3421,39.7300,101,98,260099
1.6471,0.3275,39.7700,101,98,260103
1.7155,0.3568,39.6000,101,98,260106
1.6569,0.3421,39.7000,101,98,260109
1.6618,0.3275,39.6700,101,98,260113
1.6422,0.3372,39.7700,101,98,260116
1.6813,0.3324,39.7700,101,98,260119
1.6862,0.3470,39.7000,101,98,260123
1.6667,0.3275,39.8000,101,98,260126
1.6960,0.3324,39.6400,101,98,260129
1.6716,0.3617,39.7000,101,98,260133
1.6764,0.3421,39.7700,101,98,260136
1.7009,0.3470,39.6700,101,98,260140
1.6813,0.3372,39.0900,101,98,260144
1.7302,0.3470,39.3800,101,98,260147
1.7009,0.3372,39.7000,101,98,260151
1.6911,0.3324,39.7300,101,98,260154
1.6911,0.3372,39.7700,101,98,260157
1.6960,0.3372,39.5700,101,98,260161
1.7449,0.3470,39.7000,101,98,260164
1.7253,0.3421,39.7000,101,98,260167
1.7546,0.3421,39.6400,101,98,260171
1.7449,0.3372,39.7700,101,98,260174
1.7546,0.3372,39.7700,101,98,260177
1.7840,0.3470,39.6400,101,98,260182
1.7791,0.3372,39.7700,101,98,260185
1.8182,0.3421,39.5700,101,98,260189
1.8133,0.3421,39.6700,101,98,260192
1.8133,0.3372,39.7700,101,98,260195
1.8524,0.3763,39.7700,101,98,260199
1.8573,0.3372,39.6700,101,98,260202
1.9257,0.3568,39.5400,101,98,260205
1.8915,0.3470,39.6700,101,98,260209
1.8768,0.3372,39.7700,101,98,260212
1.8475,0.3372,39.8000,101,98,260215
1.8182,0.3372,39.8000,101,98,260219
1.8182,0.3421,39.5700,101,98,260222
1.7693,0.3372,39.8000,101,98,260227
1.7693,0.3421,39.6700,101,98,260230
1.7107,0.3324,39.7300,101,98,260233
1.6813,0.3372,39.7700,101,98,260237
1.6716,0.3421,39.6400,101,98,260240
1.6227,0.3372,39.7700,101,98,260243
1.6422,0.3470,39.5400,101,98,260247
1.5934,0.3372,39.6700,101,98,260250
1.5787,0.3324,39.7700,101,98,260253
1.5787,0.3372,39.7300,101,98,260257
1.5738,0.3372,39.7700,101,98,260260
1.6227,0.3470,39.6400,101,98,260264
1.6031,0.3421,39.7300,101,98,260268
1.6178,0.3421,39.6400,101,98,260271
1.5982,0.3372,39.7300,101,98,260275
1.5982,0.3372,39.7000,101,98,260278
1.6276,0.3470,39.6400,101,98,260281
1.6031,0.3372,39.8300,101,98,260285
1.6276,0.3421,39.6000,101,98,260288
1.6276,0.3421,39.6000,101,98,260291
1.6716,0.3372,39.7700,101,98,260295
1.7889,0.3421,39.7000,101,98,260298
1.9257,0.3372,39.7300,101,98,260302
2.2092,0.3568,39.5100,101,98,260305
2.4487,0.3470,39.7000,101,98,260308
2.7077,0.3372,39.6700,101,98,260313
2.9374,0.3372,39.8000,101,98,260316
3.0743,0.3372,39.7700,101,98,260319
3.1329,0.3421,39.6400,101,98,260323
2.9912,0.3372,39.7700,101,98,260326
2.8446,0.3421,39.7000,101,98,260329
2.5904,0.3324,39.7300,101,98,260333
2.3851,0.3275,39.8000,101,98,260336
2.2141,0.3470,39.6000,101,98,260339
1.9697,0.3372,39.7300,101,98,260343
1.8328,0.3812,39.5100,101,98,260346
1.6569,0.3324,39.6700,101,98,260350
1.5396,0.3324,39.7700,101,98,260354
1.4712,0.3421,39.7700,101,98,260357
1.4174,0.3372,39.7700,101,98,260361
1.4272,0.3470,39.5700,101,98,260364
1.3978,0.3421,39.7000,101,98,260367
1.3832,0.3421,39.7000,101,98,260371
1.3783,0.3324,39.7700,101,98,260374
1.4125,0.3372,39.7700,101,98,260377
1.4321,0.3470,39.6000,101,98,260381
1.4223,0.3372,39.7300,101,98,260384
1.4467,0.3324,39.6000,101,98,260388
1.4712,0.3372,39.6700,101,98,260391
1.4467,0.3324,39.7700,101,98,260395
1.4809,0.3470,39.7000,101,98,260399
1.4761,0.3421,39.7700,101,98,260402
1.5347,0.3470,39.5100,101,98,260405
1.5249,0.3421,39.6400,101,98,260409
1.5396,0.3324,39.7000,101,98,260412
1.5494,0.3421,39.7700,101,98,260415
1.5543,0.3372,39.7700,101,98,260419
1.6129,0.3275,39.6400,101,98,260422
1.6129,0.3421,39.7300,101,98,260426
1.6716,0.3275,39.6400,101,98,260429
1.6325,0.3372,39.7700,101,98,260432
1.6471,0.3372,39.7300,101,98,260436
1.6862,0.3421,39.6400,101,98,260440
1.6911,0.3372,39.7700,101,98,260443
1.7595,0.3421,39.5400,101,98,260447
1.7155,0.3372,39.6700,101,98,260450
1.7253,0.3372,39.8000,101,98,260454
1.7449,0.3372,39.8000,101,98,260457
1.7595,0.3372,39.7700,101,98,260460
1.8231,0.3470,39.6000,101,98,260464
1.8084,0.3275,39.7300,101,98,260467
1.8182,0.3372,39.6700,101,98,260470
1.8231,0.3372,39.7700,101,98,260474
1.8377,0.3372,39.7700,101,98,260477
1.8768,0.3470,39.6700,101,98,260481
1.8768,0.3372,39.7700,101,98,260485
1.9208,0.3372,39.6000,101,98,260488
1.9110,0.3324,39.7000,101,98,260491
1.9110,0.3372,39.7700,101,98,260495
1.9453,0.3470,39.7000,101,98,260498
1.9306,0.3421,39.7300,101,98,260502
1.9892,0.3519,39.5100,101,98,260505
1.9990,0.3421,39.6400,101,98,260508
1.9550,0.3324,39.7300,101,98,260512
1.9599,0.3470,39.7300,101,98,260515
1.9550,0.3372,39.8000,101,98,260518
1.9941,0.3470,39.6400,101,98,260523
1.9648,0.3421,39.9300,101,98,260526
1.9746,0.3421,39.6400,101,98,260529
1.9453,0.3421,39.7700,101,98,260533
1.9355,0.3372,39.8000,101,98,260536
1.9501,0.3421,39.4800,101,98,260540
1.9159,0.3372,39.7700,101,98,260543
1.9306,0.3421,39.6000,101,98,260546
1.8768,0.3324,39.7000,101,98,260550
1.8475,0.3079,39.7700,101,98,260553
1.8280,0.3372,39.7700,101,98,260556
1.7889,0.3372,39.7700,101,98,260560
1.8133,0.3568,39.5400,101,98,260563
1.7498,0.3421,39.7000,101,98,260567
1.7204,0.3324,39.7000,101,98,260571
1.6862,0.3372,39.8300,101,98,260574
1.6569,0.3372,39.7700,101,98,260578
1.6618,0.3372,39.6700,101,98,260581
1.6227,0.3372,39.7700,101,98,260584
1.6325,0.3421,39.6000,101,98,260588
1.5934,0.3421,39.7300,101,98,260591
1.5787,0.3372,39.6400,101,98,260594
1.6080,0.3275,39.6700,101,98,260598
1.5591,0.3372,39.7700,101,98,260601
1.5934,0.3470,39.4800,101,98,260604
1.5640,0.3715,39.7000,101,98,260609
1.5543,0.3324,39.7300,101,98,260612
1.5591,0.3372,39.7700,101,98,260616
1.5494,0.3372,39.7700,101,98,260619
1.5934,0.3421,39.6000,101,98,260622
1.5787,0.3421,39.7300,101,98,260626
1.5982,0.3372,40.0300,101,98,260629
1.5836,0.3079,39.7700,101,98,260632
1.5934,0.3372,39.7700,101,98,260636
1.6178,0.3421,39.4800,101,98,260639
1.6178,0.3372,40.0000,101,98,260642
1.6569,0.3372,39.6000,101,98,260646
1.6471,0.3372,39.8000,101,98,260649
1.6520,0.3372,39.8000,101,98,260654
1.6716,0.3421,39.7300,101,98,260657
1.6569,0.3372,39.7700,101,98,260660
1.7155,0.3568,39.5700,101,98,260664
1.6911,0.3470,39.6700,101,98,260667
1.6911,0.3372,39.7000,101,98,260670
1.6911,0.3372,39.7700,101,98,260674
1.6960,0.3372,39.7700,101,98,260677
1.7449,0.3421,39.5700,100,98,260680
1.7498,0.3275,39.6000,100,98,260685
1.7546,0.3421,39.7700,100,98,260689
1.7644,0.3372,39.5700,100,98,260692
1.7400,0.3372,39.7000,100,98,260696
1.7253,0.3372,39.8300,100,98,260700
1.7253,0.3421,39.7300,100,98,260703
1.7155,0.3324,39.7700,100,98,260706
1.7644,0.3519,39.5700,100,98,260710
1.7351,0.3421,39.7000,100,98,260713
1.7449,0.3372,39.7000,100,98,260716
1.7302,0.3372,39.7700,100,98,260720
1.7351,0.3275,39.7700,100,98,260723
1.7400,0.3372,39.6700,100,98,260727
1.7302,0.3372,39.7300,100,98,260730
1.7595,0.3324,39.7000,100,98,260733
1.7351,0.3372,39.7700,100,98,260738
1.7253,0.3372,39.8000,100,98,260741
1.7302,0.3421,39.7000,100,98,260744
1.7155,0.3372,39.7700,100,98,260748
1.7595,0.3470,39.4800,100,98,260751
1.7595,0.3421,39.6700,100,98,260754
1.7107,0.3324,39.6700,100,98,260758
1.7204,0.3372,39.7300,100,98,260761
1.7253,0.3421,39.7700,100,98,260765
1.7693,0.3421,39.6000,100,98,260768
1.7546,0.3079,39.7300,100,98,260771
1.7791,0.3421,39.6400,100,98,260775
1.7693,0.3324,39.7300,100,98,260779
1.7693,0.3324,39.8000,100,98,260782
1.7937,0.3421,39.6400,100,98,260786
1.7791,0.3372,39.7700,100,98,260789
1.8328,0.3421,39.5400,100,98,260793
1.8182,0.3372,39.2800,100,98,260796
1.8280,0.3324,39.8000,100,98,260799
1.8524,0.3372,39.7700,100,98,260803
1.8573,0.3324,39.7700,100,98,260806
1.9110,0.3470,39.6400,100,98,260809
1.8768,0.3421,39.7000,100,98,260813
1.8719,0.3324,39.7000,100,98,260816
1.8573,0.3275,39.7700,100,98,260819
1.8133,0.3324,39.8000,100,98,260824
1.7986,0.3324,39.7000,100,98,260827
1.7546,0.3372,39.7700,100,98,260830
1.7644,0.3372,39.6400,100,98,260834
1.6862,0.3372,39.7700,100,98,260837
1.6667,0.3275,39.7700,100,98,260841
1.6569,0.3275,39.7300,100,98,260844
1.6129,0.3372,39.7700,100,98,260847
1.6373,0.3519,39.4800,100,98,260851
1.5934,0.3372,39.6700,100,98,260854
1.5689,0.3275,39.7000,100,98,260857
1.5640,0.3372,39.7700,100,98,260861
1.5543,0.3275,39.7700,100,98,260865
1.5836,0.3470,39.6000,100,98,260868
1.5640,0.3372,39.7700,100,98,260872
1.5982,0.3421,39.6400,100,98,260875
1.5738,0.3275,39.7700,100,98,260879
1.6129,0.3324,39.8000,100,98,260882
1.6031,0.3372,39.6400,100,98,260885
1.5836,0.3372,39.7700,100,98,260889
1.6325,0.3372,39.5400,100,98,260892
1.6178,0.3372,39.7000,100,98,260895
1.6569,0.3372,39.7700,100,98,260899
1.7595,0.3372,39.7300,100,98,260902
1.8964,0.3421,39.7700,100,98,260905
2.1750,0.3568,39.5700,100,98,260910
2.4242,0.3421,39.7000,100,98,260913
2.7077,0.3519,39.6700,100,98,260917
2.9423,0.3372,39.8000,100,98,260920
3.0987,0.3568,39.7300,100,98,260923
3.1476,0.3421,39.6700,100,98,260927
3.0108,0.3372,39.7700,100,98,260930
2.8592,0.3372,39.6700,100,98,260933
2.5953,0.3421,39.7700,100,98,260937
2.3656,0.3079,39.8900,100,98,260940
2.1799,0.3421,39.7000,100,98,260943
1.9746,0.3079,39.8000,100,98,260947
1.8671,0.3421,39.5400,100,98,260951
1.7009,0.3470,39.7000,100,98,260955
1.5836,0.3324,39.7300,100,98,260958
1.5005,0.3372,39.7700,100,98,260961
1.4516,0.3324,39.7700,100,98,260965
1.4516,0.3470,39.6000,100,98,260968
1.4076,0.3372,39.7300,100,98,260971
1.4223,0.3372,39.6400,100,98,260975
1.3978,0.3421,39.8000,100,98,260978
1.3930,0.3324,39.8300,100,98,260981
1.4223,0.3372,39.6700,100,98,260985
1.4223,0.3275,39.7300,100,98,260988
1.4467,0.3275,39.5700,100,98,260993
1.4565,0.3372,39.7700,100,98,260996
1.4712,0.3275,39.7700,100,98,260999
1.4907,0.3421,39.6700,100,98,261003
1.5152,0.3324,39.7700,100,98,261006
1.5494,0.3568,39.5100,100,98,261009
1.5298,0.3470,39.7000,100,98,261013
1.5347,0.3324,39.7000,100,98,261016
1.5738,0.3324,39.8000,100,98,261019
1.5494,0.3275,39.7700,100,98,261023
1.5836,0.3275,39.7700,100,98,261026
1.5836,0.3275,39.8000,100,98,261030
1.6276,0.3519,39.6700,100,98,261033
1.6227,0.3275,39.8000,100,98,261037
1.6276,0.3372,39.7700,100,98,261041
1.6716,0.3372,39.7000,100,98,261044
1.6569,0.3372,39.8000,100,98,261047
1.7253,0.3421,39.5400,100,98,261051
1.7204,0.3372,39.7300,100,98,261054
1.7155,0.3421,39.7700,100,98,261057
1.7253,0.3372,39.7700,100,98,261061
1.7302,0.3372,39.8000,100,98,261064
1.7937,0.3470,39.5700,100,98,261068
1.7840,0.3372,39.7000,100,98,261071
1.8084,0.3372,39.6400,100,98,261074
1.8035,0.3372,39.7300,100,98,261079
1.8182,0.3324,39.7700,100,98,261082
1.8573,0.3372,39.6400,100,98,261085
1.8524,0.3372,39.7700,100,98,261089
1.8866,0.3372,39.5700,100,98,261092
1.8915,0.3372,39.7000,100,98,261095
1.9013,0.3324,39.7700,100,98,261099
1.9208,0.3421,39.6700,100,98,261102
1.9404,0.3275,39.7700,100,98,261106
1.9746,0.3519,39.4800,100,98,261109
1.9550,0.3470,39.6700,100,98,261112
1.9697,0.3275,39.7000,100,98,261116
1.9550,0.3372,39.8000,100,98,261120
1.9404,0.3324,39.7700,100,98,261123
1.9990,0.3372,39.7000,100,98,261127
1.9404,0.3324,39.7300,100,98,261130
1.9648,0.3470,39.6700,100,98,261133
1.9453,0.3372,39.7700,100,98,261137
1.9159,0.3421,39.8300,100,98,261140
1.9208,0.3715,39.6700,100,98,261143
1.8817,0.3324,39.8300,100,98,261147
1.9062,0.3519,39.5700,100,98,261150
1.8622,0.3470,39.6700,100,98,261154
1.8182,0.3275,39.9300,100,98,261157
1.7937,0.3372,39.7700,100,98,261160
1.7449,0.3372,39.7300,100,98,261165
1.7595,0.3470,39.5700,100,98,261168
1.6960,0.3421,39.7000,100,98,261171
1.6667,0.3372,39.7300,100,98,261175
1.6276,0.3372,39.9600,100,98,261178
1.5982,0.3372,39.8000,100,98,261181
1.6080,0.3421,39.3200,100,98,261185
1.5689,0.3372,39.7700,100,98,261188
1.5738,0.3372,39.6400,100,98,261192
1.5445,0.3079,39.7000,100,98,261195
1.5298,0.3372,39.7700,100,98,261198
1.5494,0.3470,39.6700,100,98,261202
1.5249,0.3275,39.7700,100,98,261206
1.6031,0.3470,39.5100,100,98,261209
1.5445,0.3372,39.6700,100,98,261213
1.5494,0.3275,39.7300,100,98,261216
1.5445,0.3372,39.7700,100,98,261219
1.5396,0.3324,39.7700,100,98,261223
1.5689,0.3470,39.7000,100,98,261226
1.5591,0.3421,39.7300,100,98,261230
1.5689,0.3372,39.6000,100,98,261233
1.5543,0.3372,39.7700,100,98,261236
1.5543,0.3372,39.7700,100,98,261240
1.5787,0.3421,39.6700,100,98,261243
1.5591,0.3372,39.7700,100,98,261246
1.5982,0.3421,39.5700,100,98,261251
1.5934,0.3421,39.6700,100,98,261254
1.5836,0.3372,39.7700,100,98,261257
1.6031,0.3421,39.7300,100,98,261261
1.5982,0.3372,39.8000,100,98,261264
1.6618,0.3519,39.6000,100,98,261268
1.6373,0.3421,39.7000,100,98,261271
1.6422,0.3372,39.6700,100,98,261274
1.6325,0.3372,39.7700,100,98,261278
1.6325,0.3372,39.7700,100,98,261281
1.6569,0.3470,39.9300,100,98,261284
1.6422,0.3372,39.7000,100,98,261288
1.6813,0.3372,39.6400,100,98,261292
1.6520,0.3421,39.5700,99,98,261295
1.6813,0.3324,39.7300,99,98,261299
1.6813,0.3372,39.7300,99,98,261302
1.6862,0.3421,39.7300,99,98,261306
1.6716,0.3372,39.8000,99,98,261309
1.7253,0.3568,39.5100,99,98,261312
1.6911,0.3421,39.7000,99,98,261316
1.6813,0.3372,39.7000,99,98,261319
1.6960,0.3372,39.7700,99,98,261322
1.6862,0.3372,39.7300,99,98,261326
1.7400,0.3470,39.5700,99,98,261329
1.7009,0.3421,39.7700,99,98,261332
1.7009,0.3372,39.6700,99,98,261337
1.6862,0.3372,39.7700,99,98,261340
1.6764,0.3372,39.8000,99,98,261343
1.7155,0.3372,39.6400,99,98,261346
1.6764,0.3372,39.7300,99,98,261350
1.7009,0.3372,39.6400,99,98,261353
1.6813,0.3372,39.8000,99,98,261356
1.6911,0.3372,39.7300,99,98,261360
1.7058,0.3470,39.6700,99,98,261363
1.7009,0.3372,39.7700,99,98,261366
1.7155,0.3372,39.6000,99,98,261370
1.7155,0.3372,39.7700,99,98,261373
1.7302,0.3372,39.7700,99,98,261377
1.7986,0.3470,39.7000,99,98,261381
1.7595,0.3372,39.7700,99,98,261384
1.7986,0.3715,39.5700,99,98,261387
1.7840,0.3421,39.7000,99,98,261390
1.7693,0.3372,39.7700,99,98,261394
1.8035,0.3372,39.7000,99,98,261397
1.8035,0.3372,39.7700,99,98,261400
1.8817,0.3470,38.7100,99,98,261404
1.8768,0.3372,39.6400,99,98,261407
1.8573,0.3324,39.7700,99,98,261410
1.8671,0.3372,39.7300,99,98,261414
1.8622,0.3372,39.7700,99,98,261417
1.9159,0.3519,39.5700,99,98,261421
1.9110,0.3372,39.7000,99,98,261425
1.8524,0.3372,39.6700,99,98,261428
1.8133,0.3372,39.7700,99,98,261431
1.7840,0.3372,39.8300,99,98,261435
1.7791,0.3617,39.6400,99,98,261438
1.7302,0.3275,39.7300,99,98,261441
1.7107,0.3421,39.6400,99,98,261444
1.6862,0.3372,39.8000,99,98,261448
1.6178,0.3372,39.8000,99,98,261451
1.6373,0.3470,39.9300,99,98,261454
1.6031,0.3421,39.7700,99,98,261458
1.6080,0.3372,38.8700,99,98,261462
1.5738,0.3372,39.6700,99,98,261465
1.5738,0.3275,39.7700,99,98,261469
1.5836,0.3470,39.6400,99,98,261472
1.5591,0.3372,39.7700,99,98,261475
1.5934,0.3421,39.5700,99,98,261479
1.6031,0.3519,39.7300,99,98,261482
1.5640,0.3372,39.8000,99,98,261485
1.5787,0.3421,39.7000,99,98,261488
1.5640,0.3372,39.8000,99,98,261492
1.6080,0.3519,39.4400,99,98,261495
1.5934,0.3324,39.7000,99,98,261498
1.6569,0.3372,39.7700,99,98,261502
1.7595,0.3666,39.7300,99,98,261506
1.9013,0.3372,39.7700,99,98,261509
2.1848,0.3568,39.5700,99,98,261513
2.4194,0.3470,39.7000,99,98,261516
2.6833,0.3372,39.7000,99,98,261519
2.9619,0.3421,39.7700,99,98,261523
3.0890,0.3372,39.7700,99,98,261526
3.1769,0.3470,39.6000,99,98,261529
3.0743,0.3372,39.7300,99,98,261532
2.8837,0.3372,39.6400,99,98,261536
2.6393,0.3421,39.7700,99,98,261539
2.4242,0.3421,39.7700,99,98,261542
2.2287,0.3470,39.6700,99,98,261547
2.0088,0.3421,39.7700,99,98,261550
1.8964,0.3470,39.6700,99,98,261553
1.7058,0.3372,39.4800,99,98,261557
1.6080,0.3324,39.8000,99,98,261560
1.5445,0.3372,39.6700,99,98,261563
1.4761,0.3372,39.8300,99,98,261567
1.4516,0.3372,39.6000,99,98,261570
1.4027,0.3275,39.7700,99,98,261573
1.3930,0.3372,39.7700,99,98,261576
1.3978,0.3715,39.7000,99,98,261580
1.3734,0.3372,39.7700,99,98,261583
1.4125,0.3470,39.6400,99,98,261586
1.4076,0.3372,39.7000,99,98,261591
1.4027,0.3324,39.8000,99,98,261594
1.4418,0.3470,39.6400,99,98,261597
1.4467,0.3421,39.7700,99,98,261601
1.5103,0.3568,39.5400,99,98,261604
1.5005,0.3372,39.6700,99,98,261607
1.5347,0.3324,39.7300,99,98,261611
1.5298,0.3421,39.8000,99,98,261614
1.5445,0.3372,39.8000,99,98,261617
1.6080,0.3519,39.7000,99,98,261620
1.6031,0.3470,39.7300,99,98,261624
1.6080,0.3372,39.7000,99,98,261627
1.6276,0.3372,39.6700,99,98,261630
1.6422,0.3372,39.8000,99,98,261635
1.6911,0.3470,39.0300,99,98,261638
1.6862,0.3372,39.7700,99,98,261641
1.7204,0.3421,39.6400,99,98,261645
1.7058,0.3568,39.8300,99,98,261648
1.7449,0.3275,39.8000,99,98,261651
1.7742,0.3470,39.6700,99,98,261655
1.7693,0.3470,39.7700,99,98,261658
1.8133,0.3372,39.6400,99,98,261661
1.8035,0.3470,39.7000,99,98,261664
1.8182,0.3324,39.7700,99,98,261668
1.8573,0.3421,39.7000,99,98,261671
1.8817,0.3421,39.7700,99,98,261675
1.9013,0.3519,39.5700,99,98,261679
1.8817,0.3372,39.7700,99,98,261682
1.9062,0.3324,39.7700,99,98,261685
1.9110,0.3470,39.7000,99,98,261689
1.9013,0.3470,39.7700,99,98,261692
1.9697,0.3519,39.5400,99,98,261695
1.9453,0.3372,39.6700,99,98,261699
1.9697,0.3421,39.7700,99,98,261702
1.9844,0.3421,39.8300,99,98,261705
1.9990,0.3421,39.7700,99,98,261709
2.0674,0.3568,39.6400,99,98,261712
2.0283,0.3470,39.8300,99,98,261715
2.0626,0.3372,39.7000,99,98,261719
2.0430,0.3372,39.8300,99,98,261723
2.0430,0.3372,39.8900,99,98,261726
2.1114,0.3470,39.6000,99,98,261729
2.0479,0.3421,39.7300,99,98,261733
2.0528,0.3421,39.6400,99,98,261736
2.0626,0.3372,39.7700,99,98,261739
2.0235,0.3372,39.7700,99,98,261743
2.0332,0.3666,39.6700,99,98,261746
1.9990,0.3372,39.7700,99,98,261749
1.9941,0.3470,39.7000,99,98,261752
1.9404,0.3372,39.7700,99,98,261756
1.9257,0.3275,39.8000,99,98,261760
1.9062,0.3421,39.6700,99,98,261763
1.8671,0.3324,39.8000,99,98,261767
1.8622,0.3421,39.6000,99,98,261770
1.8133,0.3421,39.7700,99,98,261773
1.7840,0.3372,39.7700,99,98,261777
1.7889,0.3470,39.8000,99,98,261780
1.7449,0.3372,39.7700,99,98,261783
1.7546,0.3470,39.5400,99,98,261787
1.7107,0.3421,39.6700,99,98,261790
1.6764,0.3421,39.7700,99,98,261793
1.6813,0.3470,39.7700,99,98,261797
1.6618,0.3372,39.7700,99,98,261800
1.7058,0.3470,39.5100,99,98,261804
1.6667,0.3470,39.6400,99,98,261807
1.6764,0.3324,39.7300,99,98,261811
1.6471,0.3421,39.8000,99,98,261814
1.6373,0.3372,39.7300,99,98,261817
1.7155,0.3519,39.6400,99,98,261821
1.6569,0.3421,39.7300,99,98,261824
1.6618,0.3372,39.6700,99,98,261827
1.6618,0.3421,39.8000,99,98,261831
1.6716,0.3421,39.7700,99,98,261834
1.7107,0.3470,39.5700,99,98,261837
1.7058,0.3372,39.7700,99,98,261841
1.7400,0.3470,39.6400,99,98,261844
1.7204,0.3372,39.8000,99,98,261848
1.7302,0.3421,39.8300,99,98,261851
1.7693,0.3470,39.6400,99,98,261855
1.7449,0.3421,39.7700,99,98,261858
1.7742,0.3421,39.6400,99,98,261861
1.7595,0.3372,39.7300,99,98,261865
1.7546,0.3372,39.7700,99,98,261868
1.7791,0.3470,39.6400,99,98,261871
1.7693,0.3421,39.8000,99,98,261875
1.8035,0.3470,39.5400,99,98,261878
1.7840,0.3421,39.6700,99,98,261881
1.7742,0.3617,39.8000,99,98,261885
1.7889,0.3470,39.7000,99,98,261889
1.7742,0.3372,39.7300,99,98,261892
1.8231,0.3470,39.5100,99,98,261895
1.7889,0.3372,39.7000,99,98,261899
1.7937,0.3324,39.8000,99,98,261902
1.8035,0.3617,39.7300,99,98,261905
1.8035,0.3372,39.9600,99,98,261909
1.8035,0.3421,39.8300,99,98,261912
1.8377,0.3470,39.6000,99,98,261916
1.8035,0.3372,39.6400,99,98,261919
1.8231,0.3421,39.6700,99,98,261922
1.8035,0.3372,39.7300,99,98,261926
1.8035,0.3372,39.7700,99,98,261929
1.8231,0.3421,39.6700,99,98,261933
1.8035,0.3568,39.8300,99,98,261937
1.8231,0.3324,39.6000,99,98,261940
1.8035,0.3372,39.8000,99,98,261943
1.8035,0.3372,39.7300,99,98,261947
1.8182,0.3470,39.6700,99,98,261950
1.8035,0.3372,39.8300,99,98,261953
1.8426,0.3421,39.5700,99,98,261956
1.8035,0.3324,39.7300,99,98,261960
1.8133,0.3372,39.8000,99,98,261963
1.8622,0.3372,39.7000,99,98,261966
1.8280,0.3372,39.8000,99,98,261970
1.8866,0.3666,39.4400,99,98,261974
1.8671,0.3275,39.7000,99,98,261977
1.8719,0.3324,39.7700,99,98,261981
1.9013,0.3421,39.7700,99,98,261984
1.9013,0.3372,40.0000,99,98,261987
1.9648,0.3715,39.6400,99,98,261991
1.9306,0.3470,39.7300,99,98,261994
1.9257,0.3372,39.4100,99,98,261997
1.9257,0.3324,39.7300,99,98,262000
1.9501,0.3372,39.7700,99,98,262004
2.0186,0.3910,39.6000,99,98,262007
2.0137,0.3275,39.7700,99,98,262010
2.0332,0.3421,39.6400,99,98,262014
2.0088,0.3421,39.7700,99,98,262018
2.0137,0.3372,39.7700,99,98,262021
2.0283,0.3372,39.6700,99,98,262025
2.0137,0.3421,39.8000,99,98,262028
2.0283,0.3421,39.6700,99,98,262031
1.9844,0.3372,39.8000,99,98,262035
1.9501,0.3372,39.7700,99,98,262038
1.9404,0.3421,39.7000,99,98,262041
1.8817,0.3421,39.7700,99,98,262044
1.8768,0.3421,39.6000,99,98,262048
1.8182,0.3421,39.6700,99,98,262051
1.7742,0.3715,39.7700,99,98,262054
1.7693,0.3470,39.7000,99,98,262059
1.7253,0.3421,39.7700,99,98,262062
1.7644,0.3470,39.5400,99,98,262065
1.7204,0.3421,39.6400,99,98,262069
1.7058,0.3372,39.7700,99,98,262072
1.7107,0.3421,39.6400,99,98,262075
1.6960,0.3372,39.7700,99,98,262079
1.7546,0.3519,39.5700,99,98,262082
1.7204,0.3519,39.7000,99,98,262085
1.7204,0.3372,39.7000,99,98,262089
1.7204,0.3372,39.8300,99,98,262092
1.7107,0.3372,39.8300,99,98,262095
1.7400,0.3470,39.5700,99,98,262098
1.7253,0.3421,39.7300,99,98,262103
1.7986,0.3372,39.6700,99,98,262106
1.8475,0.3519,39.8300,99,98,262109
1.9746,0.3372,39.7700,99,98,262113
2.2043,0.3470,39.6400,99,98,262116
2.4291,0.3421,39.7700,99,98,262119
2.7468,0.3421,39.7700,99,98,262123
2.9765,0.3324,39.7300,99,98,262126
3.1623,0.3372,39.7700,99,98,262129
3.2698,0.3275,39.6400,99,98,262133
3.1672,0.3372,39.8300,99,98,262136
3.0499,0.3421,39.5700,99,98,262139
2.8104,0.3372,39.6700,99,98,262144
2.5660,0.3372,39.8600,99,98,262147
2.3754,0.3568,39.7000,99,98,262150
2.1359,0.3372,39.7700,99,98,262153
1.9990,0.3470,39.5100,99,98,262157
1.7889,0.3372,39.7000,99,98,262160
1.6764,0.3372,39.8000,99,98,262163
1.5982,0.3421,39.7700,99,98,262167
1.5298,0.3372,39.8000,99,98,262170
1.5298,0.3568,39.6400,99,98,262173
1.4761,0.3421,39.7000,99,98,262177
1.4516,0.3372,39.7300,99,98,262180
1.4712,0.3372,39.7300,99,98,262183
1.4565,0.3372,39.8000,99,98,262188
1.4907,0.3470,39.6000,99,98,262191
1.4858,0.3372,39.7300,99,98,262194
1.4907,0.3421,39.6700,99,98,262197
1.4907,0.3421,39.7300,99,98,262201
1.5054,0.3372,39.7700,99,98,262204
1.5543,0.3470,39.6400,99,98,262207
1.5543,0.3666,39.7300,99,98,262211
1.5885,0.3470,39.6700,99,98,262214
1.5787,0.3470,39.7700,99,98,262217
1.5982,0.3372,39.7700,99,98,262221
1.6373,0.3421,39.6700,99,98,262224
1.6471,0.3372,39.7700,99,98,262227
1.6960,0.3275,39.6400,99,98,262232
1.6716,0.3715,39.8000,99,98,262235
1.6960,0.3275,39.7700,99,98,262238
1.7253,0.3470,39.7000,99,98,262241
1.7253,0.3421,39.7700,99,98,262245
1.7889,0.3470,39.5400,99,98,262248
1.7791,0.3421,39.6700,99,98,262251
1.7791,0.3275,39.8000,99,98,262255
1.7937,0.3470,39.7300,99,98,262258
1.7937,0.3275,39.8000,99,98,262261
1.8573,0.3470,39.5100,99,98,262265
1.8377,0.3372,39.6700,99,98,262268
1.8280,0.3275,39.7300,99,98,262272
1.8524,0.3421,39.7300,99,98,262276
1.8573,0.3421,39.7700,99,98,262279
1.9306,0.3519,39.7000,99,98,262282
1.9159,0.3617,39.7000,99,98,262286
1.9355,0.3421,39.6700,99,98,262289
1.9355,0.3372,39.8000,99,98,262292
1.9355,0.3421,39.7700,99,98,262295
1.9844,0.3470,39.7000,99,98,262299
1.9844,0.3421,39.7700,99,98,262302
2.0381,0.3421,39.6400,99,98,262305
2.0283,0.3372,39.7700,99,98,262309
2.0430,0.3421,39.8300,99,98,262312
2.0870,0.3470,39.6700,99,98,262316
2.0626,0.3421,39.8000,99,98,262320
2.1017,0.3372,39.6400,99,98,262323
2.0723,0.3372,39.7000,99,98,262326
2.0821,0.3372,39.7700,99,98,262330
2.1017,0.3421,39.6400,99,98,262333
2.0723,0.3372,39.8000,99,98,262336
2.0968,0.3421,39.5700,99,98,262339
2.0626,0.3519,39.6700,99,98,262343
2.0479,0.3372,39.8000,99,98,262346
2.0674,0.3470,39.7000,99,98,262349
2.0235,0.3372,39.7700,99,98,262353
2.0577,0.3470,39.7300,99,98,262356
1.9844,0.3324,39.6700,99,98,262360
1.9648,0.3372,39.8000,99,98,262364
1.9501,0.3715,39.8300,99,98,262367
1.9159,0.3079,39.8600,99,98,262370
1.9355,0.3568,39.5400,99,98,262373
1.8622,0.3372,39.7000,99,98,262377
1.8231,0.3372,39.7700,99,98,262380
1.7986,0.3275,39.7700,99,98,262383
1.7742,0.3372,39.8000,99,98,262387
1.7889,0.3470,39.6400,99,98,262390
1.7400,0.3421,39.7300,99,98,262393
1.7253,0.3421,39.6400,99,98,262397
1.7058,0.3275,39.8000,99,98,262401
1.6911,0.3372,39.7700,99,98,262404
1.7155,0.3421,39.6400,99,98,262408
1.6813,0.3421,39.8300,99,98,262411
1.6911,0.3470,39.6700,99,98,262414
1.6618,0.3275,39.7700,99,98,262418
1.6569,0.3372,39.8000,99,98,262421
1.6960,0.3421,39.7000,99,98,262424
1.6667,0.3372,39.7700,99,98,262427
1.6960,0.3421,39.5400,99,98,262431
1.6716,0.3372,39.7000,99,98,262434
1.6813,0.3372,39.8600,99,98,262437
1.7009,0.3470,39.7000,99,98,262441
1.6960,0.3372,39.7700,99,98,262445
1.7400,0.3470,39.5400,99,98,262448
1.7155,0.3421,39.6700,99,98,262452
1.7449,0.3275,39.7700,99,98,262455
1.7302,0.3470,39.7300,99,98,262458
1.7400,0.3372,39.8000,99,98,262462
1.7791,0.3470,39.5100,99,98,262465
1.7546,0.3470,39.6400,99,98,262468
1.7400,0.3372,39.7700,99,98,262471
1.7449,0.3421,39.7700,99,98,262475
1.7400,0.3372,39.7300,99,98,262478
1.7889,0.3421,39.6000,99,98,262481
1.7644,0.3470,39.7000,99,98,262486
1.7595,0.3372,39.7000,99,98,262489
1.7546,0.3470,39.7300,99,98,262492
1.7595,0.3372,39.8000,99,98,262496
1.7889,0.3470,39.6700,99,98,262499
1.7791,0.3470,39.7700,99,98,262502
1.7937,0.3421,39.6400,99,98,262505
1.7644,0.3421,39.7700,99,98,262509
1.7644,0.3372,39.8000,99,98,262512
1.7937,0.3470,39.6000,98,98,262515
1.7791,0.3470,39.5400,98,98,262519
1.7498,0.3763,39.7700,98,98,262522
1.7840,0.3470,39.5400,98,98,262526
1.7644,0.3372,40.0000,98,98,262530
1.7498,0.3666,39.7700,98,98,262533
1.7595,0.3470,39.7000,98,98,262537
1.7400,0.3372,39.8000,98,98,262540
1.7791,0.3470,39.5100,98,98,262543
1.7400,0.3372,39.6700,98,98,262547
1.7351,0.3324,39.7700,98,98,262550
1.7498,0.3421,39.7700,98,98,262553
1.7449,0.3372,39.8600,98,98,262557
1.7937,0.3568,39.6400,98,98,262560
1.7546,0.3470,39.8000,98,98,262563
1.7546,0.3372,39.7700,98,98,262566
1.7498,0.3421,39.8000,98,98,262571
1.7595,0.3372,39.8900,98,98,262574
1.8084,0.3519,39.6400,98,98,262577
1.7986,0.3421,39.5400,98,98,262581
1.8231,0.3666,39.6400,98,98,262584
1.8084,0.3470,39.8000,98,98,262587
1.8182,0.3372,39.7700,98,98,262591
1.8524,0.3421,39.7000,98,98,262594
1.8280,0.3421,39.8000,98,98,262597
1.8622,0.3421,39.5700,98,98,262601
1.8524,0.3421,39.7300,98,98,262604
1.8768,0.3372,39.8000,98,98,262607
1.9062,0.3421,39.6000,98,98,262610
1.8964,0.3763,39.8300,98,98,262615
1.9355,0.3421,39.5700,98,98,262618
1.9013,0.3421,39.8000,98,98,262621
1.9062,0.3421,39.7700,98,98,262625
1.9208,0.3470,39.4800,98,98,262628
1.9159,0.3324,39.7700,98,98,262631
1.9257,0.3470,39.5400,98,98,262635
1.8573,0.3421,39.7700,98,98,262638
1.8280,0.3275,39.8000,98,98,262641
1.7644,0.3421,39.7700,98,98,262645
1.7107,0.3324,39.8000,98,98,262648
1.7253,0.3568,39.5700,98,98,262651
1.6764,0.3519,39.7000,98,98,262654
1.6422,0.3421,39.7000,98,98,262659
1.6227,0.3421,39.7700,98,98,262662
1.6031,0.3372,39.7700,98,98,262665
1.6373,0.3470,39.6400,98,98,262669
1.5982,0.3421,39.8300,98,98,262672
1.6031,0.3372,39.6700,98,98,262675
1.5836,0.3421,39.8600,98,98,262679
1.5982,0.3324,39.7700,98,98,262682
1.5934,0.3421,39.8600,98,98,262685
1.5836,0.3470,39.7700,98,98,262689
1.6129,0.3470,39.6700,98,98,262692
1.5836,0.3372,39.7700,98,98,262695
1.5836,0.3372,39.8000,98,98,262700
1.6227,0.3470,38.9600,98,98,262703
1.6960,0.3275,39.7700,98,98,262706
1.7937,0.3421,39.5700,98,98,262709
1.9355,0.3421,39.6400,98,98,262713
2.1603,0.3372,39.7700,98,98,262716
2.4536,0.3372,39.6700,98,98,262719
2.6979,0.3275,39.7700,98,98,262723
3.0059,0.3470,39.5100,98,98,262726
3.1134,0.3421,39.6700,98,98,262729
3.1183,0.3421,39.8000,98,98,262733
3.0254,0.3421,38.9300,98,98,262736
2.8299,0.3763,39.7700,98,98,262739
2.6882,0.3568,39.5400,98,98,262744
2.3949,0.3470,39.7000,98,98,262747
2.1505,0.3421,39.7300,98,98,262750
1.9355,0.3275,39.7700,98,98,262753
1.7400,0.3372,39.7700,98,98,262757
1.6325,0.3519,39.6400,98,98,262760
1.4761,0.3421,39.7700,98,98,262763
1.3881,0.3519,39.6400,98,98,262767
1.3148,0.3421,39.7700,98,98,262770
1.2708,0.3324,39.7700,98,98,262773
1.2561,0.3470,39.6700,98,98,262777
1.2072,0.3372,39.7700,98,98,262780
1.1975,0.3470,39.7000,98,98,262784
1.1681,0.3372,39.7300,98,98,262788
1.1584,0.3519,39.8000,98,98,262791
1.1730,0.3470,39.6700,98,98,262794
1.1584,0.3421,39.8600,98,98,262798
1.1681,0.3372,39.6400,98,98,262801
1.1486,0.3372,39.7300,98,98,262804
1.1437,0.3470,39.7700,98,98,262807
1.1730,0.3470,39.6700,98,98,262811
1.1437,0.3372,39.8000,98,98,262814
1.1681,0.3470,39.5700,98,98,262817
1.1437,0.3324,39.7300,98,98,262821
1.1437,0.3372,39.8000,98,98,262824
1.1584,0.3421,39.7700,98,98,262828
1.1632,0.3372,39.7700,98,98,262832
1.2072,0.3470,39.4800,98,98,262835
1.1877,0.3470,39.7300,98,98,262838
1.1926,0.3372,39.7700,98,98,262842
1.2121,0.3421,39.7700,98,98,262845
1.2170,0.3372,39.7700,98,98,262848
1.2854,0.3519,39.5400,98,98,262851
1.2952,0.3470,39.7300,98,98,262855
1.3001,0.3421,39.7000,98,98,262858
1.3099,0.3421,39.8000,98,98,262861
1.3245,0.3568,39.7700,98,98,262865
1.3734,0.3470,39.6700,98,98,262868
1.3832,0.3421,39.7300,98,98,262872
1.4174,0.3275,39.6400,98,98,262876
1.4174,0.3421,39.8000,98,98,262879
1.4418,0.3421,39.7700,98,98,262882
1.4761,0.3372,39.6700,98,98,262886
1.5005,0.3324,39.7700,98,98,262889
1.5494,0.3421,39.6700,98,98,262892
1.5543,0.3372,39.7700,98,98,262896
1.5738,0.3372,39.7700,98,98,262899
1.6129,0.3715,39.7000,98,98,262902
1.6178,0.3421,39.8000,98,98,262905
1.6764,0.3470,39.5700,98,98,262909
1.6862,0.3421,39.6700,98,98,262913
1.6960,0.3372,39.7700,98,98,262916
1.7253,0.3372,39.7000,98,98,262920
1.7204,0.3372,39.8000,98,98,262923
1.7791,0.3470,39.5100,98,98,262926
1.7840,0.3470,39.7000,98,98,262930
1.7498,0.3372,39.7700,98,98,262933
1.7693,0.3421,39.9300,98,98,262936
1.7595,0.3666,39.8000,98,98,262940
1.8133,0.3519,39.5700,98,98,262943
1.7742,0.3715,39.7000,98,98,262946
1.7644,0.3421,39.7000,98,98,262949
1.7546,0.3421,39.8000,98,98,262953
1.7449,0.3421,39.7700,98,98,262957
1.7595,0.3470,39.6700,98,98,262960
1.7155,0.3421,39.8000,98,98,262964
1.7107,0.3568,39.6400,98,98,262967
1.6667,0.3421,39.7300,98,98,262970
1.6422,0.3324,39.8000,98,98,262974
1.6422,0.3470,39.6400,98,98,262977
1.5836,0.3372,39.7700,98,98,262980
1.5738,0.3421,39.6700,98,98,262984
1.5200,0.3372,39.7700,98,98,262987
1.5103,0.3372,39.7700,98,98,262990
1.5152,0.3470,39.6700,98,98,262994
1.5005,0.3421,39.7700,98,98,262998
1.4907,0.3421,39.6000,98,98,263001
1.4614,0.3812,39.6700,98,98,263004
1.4516,0.3372,39.7700,98,98,263008
1.4712,0.3470,39.7300,98,98,263011
1.4516,0.3421,39.7700,98,98,263014
1.4907,0.3470,39.5100,98,98,263018
1.4614,0.3421,39.7000,98,98,263021
1.4663,0.3372,39.8000,98,98,263024
1.4809,0.3421,39.7300,98,98,263028
1.4907,0.3421,39.7700,98,98,263031
1.5543,0.3568,39.8600,98,98,263034
1.5249,0.3372,39.7000,98,98,263038
1.5249,0.3372,39.7300,98,98,263042
1.5249,0.3470,39.8300,98,98,263045
1.5249,0.3372,39.7300,98,98,263049
1.5738,0.3470,39.6400,98,98,263052
1.5640,0.3421,39.7300,98,98,263055
1.5787,0.3421,39.6700,98,98,263058
1.5787,0.3372,39.8000,98,98,263062
1.5934,0.3275,39.7700,98,98,263065
1.6325,0.3519,39.6700,98,98,263068
1.6276,0.3470,39.7700,98,98,263072
1.6569,0.3470,39.6700,98,98,263075
1.6422,0.3372,39.6700,98,98,263078
1.6422,0.3372,39.7700,98,98,263083
1.6716,0.3421,39.6700,98,98,263086
1.7009,0.3372,39.7700,98,98,263089
1.7058,0.3421,39.5700,98,98,263093
1.6862,0.3324,39.8300,98,98,263096
1.6911,0.3372,39.7700,98,98,263099
1.7155,0.3519,39.6700,98,98,263102
1.7009,0.3372,39.7700,98,98,263106
1.7449,0.3470,39.5400,98,98,263109
1.7253,0.3372,39.7000,98,98,263112
1.7155,0.3372,39.8000,98,98,263116
1.7253,0.3519,39.7300,98,98,263119
1.7155,0.3372,39.8300,98,98,263122
1.7693,0.3568,39.5400,98,98,263127
1.7449,0.3470,39.6400,98,98,263130
1.7253,0.3470,39.7300,98,98,263134
1.7449,0.3421,39.6400,98,98,263137
1.7253,0.3372,39.8000,98,98,263140
1.7253,0.3372,39.8000,98,98,263144
1.7400,0.3421,39.7300,98,98,263147
1.7302,0.3470,39.7700,98,98,263150
1.7595,0.3275,39.6400,98,98,263154
1.7302,0.3666,39.7700,98,98,263157
1.7400,0.3372,39.8000,98,98,263160
1.7546,0.3470,39.5700,98,98,263164
1.7449,0.3372,39.7700,98,98,263168
1.7742,0.3470,39.5700,98,98,263171
1.7546,0.3470,39.6400,98,98,263174
1.7546,0.3470,39.8000,98,98,263178
1.7791,0.3470,39.8300,98,98,263181
1.7595,0.3372,39.8000,98,98,263184
1.8133,0.3519,39.5400,98,98,263188
1.7937,0.3421,39.8600,98,98,263191
1.7986,0.3372,39.7300,98,98,263194
1.8328,0.3421,39.7700,98,98,263198
1.8573,0.3666,39.7700,98,98,263201
1.9062,0.3568,39.5700,98,98,263204
1.8719,0.3470,39.7000,98,98,263208
1.8817,0.3275,39.7000,98,98,263212
1.8768,0.3421,39.7300,98,98,263215
1.8964,0.3421,39.8000,98,98,263218
1.9599,0.3519,39.7000,98,98,263222
1.9550,0.3421,39.7300,98,98,263225
1.9697,0.3421,39.6700,98,98,263228
1.9550,0.3421,39.8000,98,98,263232
1.9501,0.3421,39.8600,98,98,263235
1.9892,0.3470,39.6700,98,98,263238
1.9550,0.3421,39.7700,98,98,263242
1.9697,0.3470,39.7300,98,98,263245
1.9208,0.3470,39.7700,98,98,263248
1.8964,0.3470,39.8000,98,98,263252
1.8866,0.3470,39.6700,98,98,263256
1.8328,0.3421,39.7700,98,98,263259
1.8182,0.3421,39.6400,98,98,263262
1.7546,0.3421,39.7000,98,98,263266
1.7155,0.3372,39.8300,98,98,263269
1.7107,0.3519,39.6000,98,98,263272
1.6667,0.3763,39.7700,98,98,263276
1.7058,0.3470,39.5700,98,98,263279
1.6471,0.3372,39.7000,98,98,263282
1.6716,0.3275,39.8000,98,98,263286
1.6569,0.3421,39.9300,98,98,263289
1.6764,0.3421,39.8000,98,98,263292
1.7009,0.3568,39.5400,98,98,263297
1.6764,0.3421,39.2200,98,98,263300
1.6764,0.3372,39.7700,98,98,263303
1.6862,0.3470,39.7300,98,98,263306
1.6764,0.3324,39.8000,98,98,263310
1.7155,0.3519,39.6400,98,98,263313
1.6960,0.3372,39.7000,98,98,263316
1.7644,0.3421,39.7000,98,98,263320
1.7986,0.3421,39.7700,98,98,263323
1.9062,0.3421,39.7300,98,98,263326
2.1212,0.3470,39.6000,98,98,263330
2.3363,0.3421,39.7700,98,98,263333
2.6295,0.3421,39.6700,98,98,263336
2.8592,0.3275,39.7700,98,98,263341
3.0499,0.3421,39.7700,98,98,263344
3.1818,0.3421,39.7000,98,98,263347
3.0841,0.3421,39.7700,98,98,263350
2.9863,0.3421,39.6000,98,98,263354
2.7615,0.3421,39.8000,98,98,263357
2.5513,0.3421,39.8300,98,98,263360
2.3656,0.3421,39.7300,98,98,263364
2.1310,0.3421,39.8000,98,98,263367
1.9795,0.3519,39.5400,98,98,263370
1.8084,0.3470,39.7000,98,98,263374
1.6618,0.3372,39.8000,98,98,263377
1.5836,0.3812,39.7000,98,98,263380
1.4956,0.3275,39.8000,98,98,263385
1.4956,0.3519,39.5100,98,98,263388
1.4370,0.3421,39.6700,98,98,263391
1.4125,0.3372,39.8000,98,98,263394
1.4223,0.3421,39.2500,98,98,263398
1.4125,0.3470,39.8300,98,98,263401
1.4614,0.3568,39.5700,98,98,263404
1.4418,0.3519,39.7000,98,98,263408
1.4809,0.3275,39.7000,98,98,263411
1.4614,0.3421,39.7000,98,98,263414
1.4809,0.3470,39.7700,98,98,263418
1.5298,0.3519,39.7000,98,98,263421
1.5249,0.3421,39.8300,98,98,263425
1.5494,0.3470,39.7000,98,98,263429
1.5445,0.3421,39.7700,98,98,263432
1.5591,0.3421,39.8000,98,98,263435
1.6080,0.3519,39.6700,98,98,263438
1.6080,0.3421,39.8300,98,98,263442
1.6471,0.3470,39.6700,98,98,263445
1.6422,0.3372,39.7300,98,98,263448
1.6520,0.3421,39.8600,98,98,263452
1.6911,0.3470,39.7000,98,98,263455
1.6862,0.3421,39.7700,98,98,263458
1.7302,0.3421,39.6000,98,98,263462
1.7253,0.3421,39.7000,98,98,263465
1.7302,0.3421,39.3800,98,98,263469
1.7693,0.3519,39.7000,98,98,263473
1.7693,0.3421,39.8000,98,98,263476
1.8280,0.3470,39.5400,98,98,263479
1.7986,0.3372,39.7300,98,98,263482
1.8084,0.3421,39.8000,98,98,263486
1.8328,0.3421,39.7300,98,98,263489
1.8328,0.3372,39.8000,98,98,263492
1.9013,0.3568,39.5700,98,98,263496
1.8768,0.3421,39.6700,98,98,263499
1.8866,0.3421,39.7300,98,98,263502
1.9062,0.3470,39.7300,98,98,263506
1.9453,0.3372,39.8000,98,98,263510
1.9746,0.3470,39.7000,98,98,263513
1.9697,0.3421,39.7300,98,98,263517
1.9941,0.3421,39.6400,98,98,263520
1.9892,0.3666,39.7700,98,98,263523
2.0137,0.3470,39.7700,98,98,263527
2.0430,0.3470,39.7300,98,98,263530
2.0332,0.3470,39.7300,98,98,263533
2.0674,0.3763,39.6700,98,98,263536
2.0479,0.3421,39.8000,98,98,263540
2.0479,0.3421,39.8000,98,98,263543
2.0577,0.3421,39.7300,98,98,263546
2.0381,0.3910,39.8000,98,98,263550
2.0821,0.3421,39.6400,98,98,263554
2.0283,0.3421,39.7700,98,98,263557
2.0235,0.3421,39.8000,98,98,263561
2.0430,0.3519,39.6700,98,98,263564
1.9941,0.3421,39.7300,98,98,263567
2.0137,0.3519,39.5700,98,98,263570
1.9795,0.3421,39.7000,98,98,263574
1.9453,0.3372,39.7300,98,98,263577
1.9453,0.3470,39.7000,98,98,263580
1.8866,0.3421,39.7300,98,98,263584
1.8964,0.3421,39.5100,98,98,263587
1.8280,0.3421,39.6400,98,98,263590
1.7791,0.3372,39.7700,98,98,263595
1.7595,0.3421,39.8300,98,98,263598
1.7253,0.3470,39.8000,98,98,263601
1.7546,0.3470,39.5700,98,98,263605
1.6911,0.3519,39.7700,98,98,263608
1.6667,0.3372,39.7000,98,98,263611
1.6276,0.3421,39.7700,98,98,263614
1.6129,0.3372,39.8000,98,98,263618
1.6325,0.3470,39.5700,98,98,263621
1.6031,0.3372,39.7700,98,98,263624
1.6373,0.3470,39.6700,98,98,263628
1.5934,0.3421,39.8900,98,98,263631
1.5836,0.3421,39.7700,98,98,263634
1.6227,0.3470,39.7300,98,98,263639
1.6031,0.3421,39.8000,98,98,263642
1.6276,0.3421,39.7000,98,98,263645
1.6031,0.3421,39.8300,98,98,263649
1.6129,0.3275,39.7700,98,98,263652
1.6471,0.3470,39.7000,98,98,263655
1.6373,0.3421,39.8000,98,98,263659
1.6764,0.3421,39.5700,98,98,263662
1.6618,0.3372,39.6700,98,98,263665
1.6520,0.3372,39.8000,98,98,263669
1.6764,0.3666,39.6700,98,98,263672
1.6520,0.3275,39.7700,98,98,263675
1.7107,0.3519,39.5400,98,98,263678
1.6813,0.3275,39.7000,98,98,263683
1.6960,0.3372,39.8000,98,98,263686
1.7058,0.3421,39.8600,98,98,263689
1.7107,0.3421,39.8000,98,98,263693
1.7546,0.3519,39.6000,98,98,263696
1.7351,0.3715,39.7000,98,98,263699
1.7204,0.3275,39.7300,98,98,263703
1.7204,0.3568,39.7700,98,98,263706
1.7204,0.3421,39.7700,98,98,263709
1.7546,0.3470,39.6400,98,98,263713
1.7400,0.3275,39.7300,98,98,263716
1.7595,0.3421,39.6700,98,98,263719
1.7400,0.3421,39.7700,98,98,263723
1.7400,0.3470,39.7700,98,98,263727
1.7693,0.3470,39.6400,98,98,263730
1.7449,0.3421,39.7300,98,98,263733
1.7742,0.3519,39.6700,98,98,263737
1.7400,0.3421,39.6000,97,98,263740
1.7302,0.3372,39.7300,97,98,263744
1.7351,0.3519,39.8300,97,98,263747
1.7498,0.3470,39.7300,97,98,263750
1.7302,0.3421,39.8300,97,98,263754
1.7791,0.3519,39.4800,97,98,263757
1.7498,0.3470,38.9000,97,98,263760
1.7351,0.3372,39.7700,97,98,263764
1.7351,0.3421,39.8000,97,98,263768
1.7400,0.3421,39.6400,97,98,263771
1.8035,0.3617,39.6000,97,98,263775
1.7498,0.3470,39.6000,97,98,263778
1.7400,0.3666,39.7300,97,98,263781
1.7595,0.3275,39.8000,97,98,263784
1.7400,0.3421,39.7700,97,98,263788
1.7840,0.3568,39.6700,97,98,263791
1.8084,0.3470,39.7300,97,98,263794
1.7986,0.3275,39.6700,97,98,263798
1.7937,0.3421,39.8000,97,98,263801
1.8035,0.3372,39.8000,97,98,263804
1.8328,0.3421,39.7700,97,98,263809
1.8377,0.3372,39.7700,97,98,263812
1.8719,0.3470,39.6000,97,98,263815
1.8671,0.3275,39.8000,97,98,263819
1.8866,0.3421,39.8000,97,98,263822
1.9306,0.3519,39.6700,97,98,263825
1.9159,0.3421,39.7700,97,98,263828
1.9453,0.3421,39.5400,97,98,263832
1.9599,0.3372,39.6400,97,98,263835
1.9110,0.3421,39.8000,97,98,263838
1.9355,0.3470,39.7300,97,98,263842
1.8866,0.3421,39.7700,97,98,263845
1.9062,0.3519,39.5700,97,98,263848
1.8280,0.3421,39.7300,97,98,263853
1.7889,0.3421,39.8000,97,98,263856
1.7595,0.3470,39.8000,97,98,263859
1.7253,0.3421,39.8000,97,98,263863
1.7449,0.3568,39.5100,97,98,263866
1.6911,0.3470,39.7000,97,98,263869
1.6569,0.3372,39.7300,97,98,263873
1.6373,0.3519,39.7700,97,98,263876
1.6227,0.3421,39.7000,97,98,263879
1.6471,0.3519,39.7000,97,98,263882
1.6227,0.3421,39.7700,97,98,263886
1.6227,0.3421,39.7300,97,98,263889
1.6031,0.3421,39.8300,97,98,263892
1.5982,0.3372,39.7700,97,98,263897
1.6422,0.3470,39.6400,97,98,263900
1.6129,0.3421,39.7300,97,98,263903
1.6471,0.3519,39.6700,97,98,263907
1.6031,0.3372,39.7300,97,98,263910
1.6080,0.3372,39.7700,97,98,263913
1.6618,0.3421,39.7000,97,98,263917
1.7253,0.3715,39.8000,97,98,263920
1.8768,0.3421,39.6000,97,98,263923
2.0235,0.3421,40.0000,97,98,263927
2.2678,0.3372,39.7300,97,98,263930
2.5709,0.3519,39.7000,97,98,263933
2.8152,0.3421,39.8000,97,98,263937
3.1036,0.3470,39.5400,97,98,263941
3.1769,0.3421,39.7000,97,98,263944
3.1183,0.3372,39.8000,97,98,263947
2.9814,0.3421,39.6400,97,98,263951
2.7664,0.3372,39.8000,97,98,263954
2.6100,0.3568,39.6400,97,98,263957
2.3314,0.3812,39.7000,97,98,263961
2.1114,0.3324,39.7700,97,98,263964
1.9306,0.3470,39.6400,97,98,263967
1.7644,0.3568,39.7700,97,98,263970
1.6813,0.3519,39.6000,97,98,263974
1.5543,0.3470,39.7700,97,98,263977
1.4809,0.3275,39.7000,97,98,263981
1.4321,0.3421,39.7700,97,98,263985
1.4027,0.3519,39.7700,97,98,263988
1.4027,0.3470,39.7000,97,98,263991
1.3734,0.3421,39.7700,97,98,263995
1.3930,0.3421,39.6700,97,98,263998
1.3685,0.3421,39.8000,97,98,264001
1.3783,0.3421,39.7700,97,98,264005
1.3930,0.3421,39.7000,97,98,264008
1.4027,0.3372,39.7000,97,98,264011
1.4370,0.3568,39.6700,97,98,264014
1.4272,0.3421,39.8300,97,98,264018
1.4418,0.3421,39.7700,97,98,264022
1.4712,0.3470,39.7000,97,98,264025
1.4712,0.3421,39.7700,97,98,264029
1.5347,0.3470,39.5700,97,98,264032
1.5005,0.3470,39.7300,97,98,264035
1.5103,0.3372,39.8900,97,98,264039
1.5445,0.3470,39.7300,97,98,264042
1.5543,0.3421,39.8300,97,98,264045
1.6178,0.3470,39.5100,97,98,264049
1.6031,0.3421,39.7000,97,98,264052
1.6129,0.3372,39.7700,97,98,264055
1.6520,0.3372,39.7700,97,98,264059
1.6422,0.3421,39.7700,97,98,264062
1.7058,0.3666,39.5400,97,98,264066
1.6813,0.3470,39.7000,97,98,264069
1.6813,0.3372,39.7300,97,98,264073
1.6911,0.3715,39.7300,97,98,264076
1.7009,0.3421,39.7000,97,98,264079
1.7498,0.3470,39.6700,97,98,264083
1.7400,0.3372,39.8000,97,98,264086
1.7693,0.3421,39.6700,97,98,264089
1.7546,0.3372,39.8000,97,98,264093
1.7595,0.3275,39.7700,97,98,264096
1.8133,0.3470,39.5100,97,98,264099
1.8084,0.3275,39.7700,97,98,264103
1.8475,0.3470,39.6700,97,98,264107
1.8280,0.3568,39.7300,97,98,264110
1.8377,0.3275,39.8000,97,98,264113
1.8622,0.3421,39.5400,97,98,264117
1.8622,0.3421,39.8000,97,98,264120
1.9110,0.3421,39.6000,97,98,264123
1.8915,0.3372,39.7700,97,98,264127
1.9159,0.3275,39.8000,97,98,264130
1.9257,0.3470,39.7700,97,98,264133
1.9013,0.3372,39.8000,97,98,264137
1.9501,0.3519,39.5400,97,98,264140
1.9062,0.3372,39.8000,97,98,264143
1.9062,0.3568,39.8000,97,98,264147
1.9159,0.3275,39.7700,97,98,264151
1.8915,0.3372,39.8000,97,98,264154
1.9306,0.3666,39.5100,97,98,264157
1.8866,0.3421,39.7000,97,98,264161
1.8573,0.3372,39.8300,97,98,264164
1.8475,0.3421,39.7300,97,98,264167
1.8182,0.3372,39.8000,97,98,264171
1.8328,0.3519,39.6000,97,98,264174
1.7742,0.3421,39.7700,97,98,264177
1.7498,0.3568,39.6700,97,98,264181
1.7107,0.3421,39.7300,97,98,264184
1.6862,0.3372,39.6700,97,98,264187
1.6813,0.3470,39.6700,97,98,264192
1.6325,0.3421,39.7700,97,98,264195
1.6227,0.3519,39.7000,97,98,264198
1.5689,0.3421,39.8000,97,98,264202
1.5543,0.3470,39.8000,97,98,264205
1.5494,0.3372,39.7000,97,98,264208
1.5200,0.3372,39.8000,97,98,264211
1.5249,0.3421,39.6400,97,98,264215
1.5054,0.3372,39.7700,97,98,264218
1.5054,0.3372,39.8000,97,98,264221
1.5298,0.3470,39.8000,97,98,264225
1.5152,0.3421,39.8000,97,98,264228
1.5494,0.3470,39.5700,97,98,264231
1.5200,0.3421,39.7300,97,98,264236
1.5152,0.3763,39.8300,97,98,264239
1.5347,0.3470,39.8300,97,98,264242
1.5249,0.3372,39.7700,97,98,264245
1.5738,0.3519,39.5100,97,98,264249
1.5396,0.3372,39.6700,97,98,264252
1.5591,0.3275,39.8000,97,98,264255
1.5445,0.3421,39.7300,97,98,264259
1.5445,0.3324,39.7700,97,98,264262
1.5885,0.3470,39.5700,97,98,264265
1.5787,0.3470,39.8300,97,98,264269
1.5689,0.3421,39.6700,97,98,264272
1.5689,0.3421,39.7700,97,98,264275
1.5738,0.3470,39.8000,97,98,264280
1.6080,0.3519,39.7000,97,98,264283
1.5982,0.3421,39.7700,97,98,264286
1.6178,0.3421,39.6400,97,98,264290
1.5982,0.3421,39.8000,97,98,264293
1.5982,0.3421,39.7700,97,98,264296
1.6276,0.3519,39.6400,97,98,264299
1.6129,0.3421,39.7700,97,98,264303
1.6520,0.3372,39.6700,97,98,264306
1.6325,0.3372,39.7300,97,98,264309
1.6373,0.3421,39.8000,97,98,264313
1.6520,0.3421,39.6700,97,98,264316
1.6373,0.3421,39.7700,97,98,264320
1.6667,0.3372,39.6000,97,98,264324
1.6373,0.3421,39.8900,97,98,264327
1.6276,0.3421,39.8300,97,98,264330
1.6471,0.3470,39.7000,97,98,264334
1.6129,0.3372,39.8300,97,98,264337
1.6520,0.3568,39.5100,97,98,264340
1.6178,0.3372,39.5700,97,98,264344
1.6178,0.3372,39.8000,97,98,264347
1.6276,0.3421,39.7300,97,98,264350
1.5885,0.3372,39.8000,97,98,264354
1.5836,0.3372,39.8600,97,98,264357
1.6178,0.3519,39.6400,97,98,264360
1.5836,0.3421,39.6000,97,98,264365
1.6422,0.3372,39.6700,97,98,264368
1.6031,0.3372,39.7700,97,98,264371
1.6129,0.3372,39.8000,97,98,264375
1.6422,0.3421,39.7000,97,98,264378
1.6422,0.3421,39.8000,97,98,264381
1.6716,0.3372,39.7000,97,98,264385
1.6569,0.3372,39.7700,97,98,264388
1.6667,0.3421,39.7700,97,98,264391
1.6911,0.3470,39.6700,97,98,264395
1.6764,0.3666,39.7700,97,98,264398
1.7302,0.3470,39.5400,97,98,264401
1.7155,0.3324,40.0600,97,98,264406
1.7400,0.3470,39.8000,97,98,264409
1.7644,0.3421,39.7300,97,98,264412
1.7498,0.3372,39.8300,97,98,264415
1.7937,0.3470,39.4800,97,98,264419
1.7595,0.3421,39.7000,97,98,264422
1.7351,0.3324,39.8000,97,98,264425
1.7644,0.3421,39.7300,97,98,264429
1.7107,0.3372,39.8000,97,98,264432
1.7302,0.3568,39.5700,97,98,264435
1.6569,0.3470,39.7300,97,98,264439
1.6080,0.3372,38.8400,97,98,264442
1.5591,0.3470,39.8000,97,98,264445
1.5494,0.3275,39.8000,97,98,264450
1.5249,0.3470,39.6700,97,98,264453
1.4809,0.3421,39.7700,97,98,264456
1.4663,0.3372,39.6700,97,98,264459
1.4370,0.3372,39.8000,97,98,264463
1.4272,0.3421,39.7700,97,98,264466
1.4370,0.3372,39.7300,97,98,264469
1.4272,0.3421,39.8000,97,98,264473
1.4516,0.3372,39.7000,97,98,264476
1.4223,0.3372,40.0300,97,98,264479
1.4223,0.3324,39.8300,97,98,264483
1.4418,0.3470,39.7000,97,98,264486
1.4223,0.3372,39.8000,97,98,264489
1.4418,0.3421,39.6400,97,98,264494
1.4223,0.3421,39.6700,97,98,264497
1.4223,0.3372,39.7700,97,98,264500
1.4956,0.3470,39.7300,97,98,264503
1.5689,0.3372,40.0000,97,98,264507
1.7693,0.3519,39.5400,97,98,264510
1.9599,0.3372,39.7300,97,98,264513
2.2287,0.3372,39.8300,97,98,264517
2.5171,0.3421,39.7300,97,98,264520
2.7468,0.3372,39.8300,97,98,264523
2.9863,0.3470,39.5400,97,98,264527
2.9814,0.3470,39.7300,97,98,264530
2.8788,0.3372,39.7700,97,98,264534
2.7126,0.3421,39.8000,97,98,264538
2.4878,0.3372,39.7700,97,98,264541
2.3021,0.3470,39.6700,97,98,264544
2.0332,0.3421,39.7300,97,98,264547
1.8133,0.3421,39.7700,97,98,264551
1.6031,0.3372,39.7700,97,98,264554
1.4418,0.3372,39.7300,97,98,264557
1.3783,0.3470,39.7000,97,98,264561
1.2610,0.3372,39.7700,97,98,264564
1.2317,0.3421,39.6700,97,98,264567
1.1779,0.3324,39.8000,97,98,264571
1.1584,0.3519,39.7700,97,98,264574
1.1535,0.3372,39.7000,97,98,264578
1.1437,0.3372,39.7700,97,98,264582
1.1632,0.3470,39.6400,97,98,264585
1.1486,0.3372,39.8000,97,98,264588
1.1681,0.3372,40.0000,97,98,264592
1.1926,0.3568,39.6700,97,98,264595
1.1975,0.3372,39.7700,97,98,264598
1.2317,0.3470,39.5400,97,98,264601
1.2219,0.3324,39.7300,97,98,264605
1.2512,0.3372,40.0000,97,98,264608
1.2854,0.3421,39.7300,97,98,264611
1.2903,0.3372,39.8600,97,98,264615
1.3441,0.3715,39.5700,97,98,264619
1.3294,0.3421,39.7300,97,98,264622
1.3245,0.3324,39.8600,97,98,264626
1.3441,0.3372,39.8000,97,98,264629
1.3587,0.3372,39.1600,97,98,264632
1.4076,0.3275,39.6000,97,98,264636
1.3930,0.3372,39.7300,97,98,264639
1.4027,0.3324,39.7000,97,98,264642
1.4076,0.3372,39.8000,97,98,264645
1.4321,0.3372,39.7700,97,98,264649
1.4761,0.3763,39.6700,97,98,264652
1.4858,0.3421,39.7700,97,98,264655
1.5200,0.3421,40.0000,97,98,264659
1.5152,0.3666,39.8900,97,98,264663
1.5347,0.3372,39.8000,97,98,264666
1.5591,0.3324,39.7700,97,98,264670
1.5689,0.3470,39.8000,97,98,264673
1.6031,0.3372,39.7000,97,98,264676
1.5982,0.3372,39.8000,97,98,264680
1.6129,0.3812,39.7700,97,98,264683
1.6422,0.3421,39.7000,97,98,264686
1.6422,0.3372,39.8000,97,98,264689
1.6911,0.3421,39.5700,97,98,264693
1.6813,0.3421,39.6700,97,98,264696
1.6862,0.3421,39.8000,97,98,264699
1.7155,0.3421,39.7300,97,98,264704
1.7155,0.3372,39.8000,97,98,264707
1.7986,0.3421,39.5100,97,98,264710
1.7595,0.3372,39.3500,97,98,264714
1.7693,0.3421,39.8300,97,98,264717
1.7889,0.3421,39.7700,97,98,264720
1.7889,0.3372,39.8000,97,98,264724
1.8573,0.3519,39.5700,97,98,264727
1.8231,0.3470,39.7700,97,98,264730
1.8133,0.3715,39.6700,97,98,264734
1.8035,0.3372,39.7700,97,98,264737
1.7889,0.3372,39.7700,97,98,264740
1.8084,0.3470,39.7000,97,98,264743
1.7742,0.3372,39.8000,97,98,264748
1.7742,0.3421,39.6400,97,98,264751
1.7351,0.3372,39.8300,97,98,264754
1.7155,0.3421,39.7700,97,98,264758
1.7155,0.3470,39.6400,97,98,264761
1.6569,0.3372,39.7700,97,98,264764
1.6520,0.3372,39.7300,97,98,264768
1.5934,0.3324,39.7300,97,98,264771
1.5640,0.3715,39.8300,97,98,264774
1.5396,0.3421,39.7000,97,98,264778
1.5005,0.3372,39.8900,97,98,264781
1.5005,0.3421,39.5700,97,98,264784
1.4663,0.3324,39.7300,97,98,264787
1.4467,0.3372,39.8300,97,98,264792
1.4565,0.3568,39.7000,97,98,264795
1.4272,0.3372,39.8300,97,98,264798
1.4418,0.3470,39.6400,97,98,264802
1.4321,0.3324,39.7000,97,98,264805
1.4125,0.3372,39.8000,97,98,264808
1.4223,0.3421,39.7300,97,98,264812
1.4125,0.3372,39.7700,97,98,264815
1.4467,0.3617,39.5400,97,98,264818
1.4174,0.3372,39.7000,97,98,264822
1.4174,0.3324,39.8600,97,98,264825
1.4272,0.3372,39.7700,97,98,264828
1.4272,0.3372,39.8900,97,98,264833
1.4614,0.3519,39.6400,97,98,264836
1.4418,0.3421,39.8300,97,98,264839
1.4516,0.3666,39.6700,97,98,264842
1.4467,0.3372,39.8300,97,98,264846
1.4516,0.3372,39.6700,97,98,264849
1.4809,0.3275,39.7000,97,98,264852
1.4712,0.3372,39.7700,97,98,264856
1.4907,0.3470,39.6700,97,98,264859
1.4858,0.3421,39.7300,97,98,264862
1.4809,0.3372,39.7700,97,98,264866
1.4956,0.3470,39.6700,97,98,264869
1.5005,0.3275,39.7700,97,98,264872
1.5152,0.3372,39.6000,97,98,264877
1.4956,0.3372,39.7700,97,98,264880
1.5005,0.3372,39.8000,97,98,264883
1.5298,0.3470,38.9000,97,98,264886
1.5298,0.3275,39.8000,97,98,264890
1.5640,0.3421,39.5700,97,98,264893
1.5445,0.3421,38.9000,97,98,264896
1.5298,0.3568,39.7700,97,98,264900
1.5396,0.3421,39.7300,97,98,264903
1.5347,0.3617,39.8300,97,98,264906
1.5836,0.3470,39.5100,97,98,264910
1.5591,0.3568,39.6700,97,98,264913
1.5689,0.3324,39.8000,97,98,264916
1.5591,0.3372,39.7700,97,98,264921
1.5445,0.3372,39.7300,97,98,264924
1.5836,0.3470,39.7000,97,98,264927
1.5640,0.3421,38.9600,97,98,264930
1.5640,0.3715,39.7300,97,98,264934
1.5640,0.3275,39.7700,97,98,264937
1.5494,0.3372,39.8300,97,98,264940
1.5738,0.3470,39.7000,97,98,264944
1.5591,0.3421,39.7700,97,98,264947
1.5787,0.3421,39.6700,97,98,264950
1.5640,0.3372,39.8000,97,98,264954
1.5689,0.3372,39.8000,97,98,264957
1.5934,0.3470,39.7000,97,98,264961
1.6569,0.3421,39.7300,97,98,264965
1.6178,0.3372,39.8300,97,98,264968
1.6667,0.3470,39.5100,97,98,264972
1.6422,0.3372,39.7000,97,98,264975
1.6373,0.3372,39.8300,97,98,264978
1.6618,0.3421,39.7700,97,98,264982
1.6569,0.3275,39.8000,97,98,264985
1.7155,0.3519,39.6400,97,98,264988
1.7107,0.3470,39.7000,97,98,264991
1.7302,0.3324,39.7300,97,98,264995
1.7498,0.3372,39.8000,97,98,264998
1.7595,0.3372,39.8000,97,98,265001
1.8084,0.3470,39.6400,97,98,265006
1.7742,0.3421,39.7700,97,98,265009
1.7889,0.3275,39.6700,97,98,265012
1.7644,0.3421,39.8000,97,98,265016
1.7498,0.3275,39.8000,97,98,265019
1.7595,0.3470,39.7700,97,98,265022
1.7302,0.3324,39.8000,97,98,265026
1.6667,0.3421,39.6700,97,98,265029
1.6129,0.3324,39.7700,97,98,265032
1.5738,0.3324,39.8000,97,98,265035
1.5543,0.3372,39.1600,97,98,265039
1.5347,0.3324,39.7700,97,98,265042
1.5152,0.3372,39.6000,97,98,265046
1.4761,0.3324,39.8000,97,98,265050
1.4712,0.3372,39.8000,97,98,265053
1.4858,0.3470,39.6700,97,98,265056
1.4712,0.3372,39.8300,97,98,265060
1.5005,0.3421,39.5700,97,98,265063
1.4663,0.3519,39.7300,97,98,265066
1.4761,0.3372,39.7700,97,98,265070
1.4858,0.3324,39.8300,97,98,265073
1.4761,0.3372,39.8000,97,98,265076
1.5152,0.3519,39.5700,97,98,265080
1.4761,0.3275,39.7000,97,98,265083
1.4516,0.3324,39.8300,97,98,265086
1.4712,0.3372,39.7300,97,98,265091
1.5200,0.3372,39.8000,97,98,265094
1.6569,0.3421,39.6000,97,98,265097
1.7742,0.3372,39.7300,97,98,265100
1.9892,0.3372,39.6700,97,98,265104
2.2434,0.3421,39.8000,97,98,265107
2.5122,0.3372,39.8000,97,98,265110
2.7908,0.3421,39.6700,97,98,265114
2.9277,0.3421,39.7700,97,98,265117
3.0059,0.3421,39.6400,97,98,265120
2.8837,0.3372,39.8000,97,98,265124
2.7273,0.3372,39.7700,97,98,265127
2.5367,0.3372,39.7000,97,98,265131
2.3069,0.3372,39.7000,97,98,265134
2.1261,0.3372,39.6700,97,98,265138
1.8866,0.3372,39.8000,97,98,265141
1.7009,0.3372,39.7700,97,98,265144
1.5885,0.3421,39.7300,97,98,265148
1.4223,0.3372,39.8000,97,98,265151
1.3587,0.3421,39.5400,97,98,265154
1.2854,0.3421,39.7000,97,98,265158
1.2561,0.3372,39.8000,97,98,265161
1.2463,0.3421,39.7300,97,98,265164
1.2170,0.3372,39.7700,97,98,265168
1.2463,0.3519,39.5400,97,98,265171
1.2170,0.3372,39.7000,97,98,265175
1.2268,0.3519,39.8000,97,98,265179
1.2463,0.3324,39.7700,97,98,265182
1.2561,0.3372,39.8300,97,98,265185
1.3099,0.3519,39.6000,97,98,265188
1.3001,0.3421,39.7000,97,98,265192
1.3099,0.3372,39.7000,97,98,265195
1.3441,0.3275,39.8000,97,98,265198
1.3392,0.3372,39.8900,97,98,265202
1.3783,0.3324,39.7000,97,98,265205
1.3685,0.3372,39.7700,97,98,265208
1.3978,0.3372,39.6700,97,98,265212
1.4027,0.3372,39.7700,97,98,265216
1.4223,0.3372,39.8000,97,98,265219
1.4663,0.3519,39.6700,97,98,265223
1.4565,0.3372,39.8600,97,98,265226
1.4907,0.3324,39.6700,97,98,265229
1.4809,0.3324,39.7300,97,98,265232
1.5005,0.3372,39.8600,97,98,265236
1.5445,0.3275,39.7000,97,98,265239
1.5396,0.3372,39.8000,97,98,265242
1.5738,0.3372,39.5400,97,98,265246
1.5640,0.3372,39.7700,97,98,265249
1.5885,0.3372,39.8000,97,98,265252
1.6276,0.3470,39.6700,97,98,265256
1.6227,0.3324,39.8000,97,98,265260
1.6813,0.3421,39.5400,97,98,265263
1.6569,0.3666,39.7300,97,98,265267
1.6667,0.3324,39.8300,97,98,265270
1.6911,0.3421,39.7700,97,98,265273
1.7009,0.3372,39.7700,97,98,265277
1.7644,0.3519,39.6400,97,98,265280
1.7498,0.3372,39.7000,97,98,265283
1.7449,0.3324,39.7000,97,98,265286
1.7498,0.3421,39.7700,97,98,265290
1.7546,0.3372,39.8000,97,98,265293
1.8133,0.3421,39.5700,97,98,265296
1.7986,0.3421,39.7700,97,98,265300
1.8182,0.3372,39.7300,97,98,265304
1.8377,0.3421,39.7700,97,98,265307
1.8133,0.3372,39.8600,97,98,265311
1.8573,0.3421,39.7000,97,98,265314
1.8426,0.3372,39.8000,97,98,265317
1.8622,0.3421,39.1200,97,98,265321
1.8280,0.3324,39.8000,97,98,265324
1.8231,0.3324,39.8300,97,98,265327
1.8280,0.3372,39.6700,97,98,265330
1.8280,0.3275,39.8000,97,98,265334
1.8328,0.3372,39.6000,97,98,265337
1.7937,0.3324,39.8300,97,98,265340
1.7889,0.3275,39.7700,97,98,265345
1.7840,0.3421,39.7300,97,98,265348
1.7449,0.3372,39.7700,97,98,265351
1.7693,0.3421,39.5700,97,98,265355
1.7204,0.3421,39.7000,97,98,265358
1.6764,0.3324,39.7700,97,98,265361
1.6618,0.3275,39.7300,97,98,265365
1.6227,0.3324,39.7700,97,98,265368
1.6373,0.3617,39.5700,97,98,265371
1.5738,0.3421,39.4800,97,98,265375
1.5494,0.3275,39.7300,97,98,265378
1.5298,0.3372,39.8000,97,98,265381
1.5103,0.3372,39.8000,97,98,265384
1.5347,0.3470,39.6400,97,98,265389
1.5249,0.3275,39.7300,97,98,265392
1.5054,0.3372,40.0300,97,98,265395
1.4907,0.3421,39.7700,97,98,265399
1.4858,0.3372,39.8000,97,98,265402
1.5005,0.3421,39.7300,97,98,265405
1.4809,0.3372,39.7700,97,98,265409
1.4956,0.3421,39.6400,97,98,265412
1.4809,0.3421,39.7700,97,98,265415
1.4858,0.3275,39.8300,97,98,265419
1.5200,0.3421,39.6000,97,98,265422
1.5054,0.3421,39.8000,97,98,265425
1.5298,0.3275,39.6400,97,98,265428
1.5152,0.3324,39.7000,97,98,265433
1.5200,0.3372,39.8000,97,98,265436
1.5445,0.3372,39.6700,97,98,265439
1.5347,0.3372,39.8300,97,98,265443
1.5836,0.3421,39.5400,97,98,265446
1.5494,0.3324,40.1300,97,98,265449
1.5543,0.3324,39.8000,97,98,265453
1.5836,0.3079,39.7300,97,98,265456
1.5787,0.3372,39.8000,97,98,265459
1.6373,0.3470,39.5100,97,98,265463
1.6080,0.3372,39.6400,97,98,265466
1.6080,0.3617,39.8000,97,98,265469
1.6471,0.3372,39.7700,97,98,265473
1.6227,0.3372,39.7300,97,98,265477
1.6764,0.3519,39.6000,97,98,265480
1.6569,0.3421,39.7700,97,98,265483
1.6471,0.3372,39.6700,97,98,265487
1.6422,0.3372,39.8000,97,98,265490
1.6471,0.3324,39.8600,97,98,265493
1.6813,0.3372,39.6400,97,98,265497
1.6520,0.3372,39.8000,97,98,265500
1.6716,0.3617,39.6400,97,98,265503
1.6520,0.3372,39.9300,97,98,265507
1.6520,0.3519,39.8600,97,98,265510
1.6667,0.3372,39.7300,97,98,265513
1.6618,0.3372,39.8000,97,98,265518
1.6813,0.3421,39.6000,97,98,265521
1.6569,0.3324,39.7300,97,98,265524
1.6569,0.3324,39.8300,97,98,265527
1.7009,0.3275,39.6400,97,98,265531
1.6667,0.3372,39.8000,97,98,265534
1.7009,0.3617,39.8000,97,98,265537
1.6716,0.3372,39.8000,97,98,265541
1.6764,0.3372,39.8000,97,98,265544
1.6911,0.3421,39.7000,97,98,265547
1.6764,0.3372,39.7700,97,98,265551
1.7351,0.3470,39.5400,97,98,265554
1.7400,0.3275,39.7000,97,98,265558
1.7351,0.3275,39.8300,97,98,265562
1.7546,0.3372,39.7300,97,98,265565
1.7644,0.3372,39.8300,97,98,265568
1.8231,0.3519,39.6400,98,98,265571
1.8671,0.3617,39.6700,98,98,265576
1.8768,0.3324,39.7300,98,98,265580
1.9013,0.3421,39.8300,98,98,265583
1.8817,0.3519,39.8300,98,98,265586
1.8915,0.3324,39.8000,98,98,265589
1.8964,0.3372,39.7000,98,98,265593
1.8866,0.3421,39.8000,98,98,265596
1.9159,0.3372,39.6700,98,98,265600
1.8719,0.3372,39.7700,98,98,265604
1.8915,0.3275,39.8000,98,98,265607
1.8475,0.3421,39.7000,98,98,265610
1.7840,0.3324,39.8000,98,98,265614
1.7791,0.3421,39.5700,98,98,265617
1.7204,0.3372,39.6700,98,98,265620
1.6764,0.3421,39.7700,98,98,265624
1.6667,0.3421,39.7300,98,98,265627
1.6276,0.3421,39.7700,98,98,265630
1.6618,0.3470,39.5100,98,98,265633
1.6178,0.3519,39.6700,98,98,265637
1.6031,0.3275,39.8000,98,98,265640
1.6129,0.3372,39.8000,98,98,265644
1.6080,0.3324,39.7700,98,98,265648
1.6813,0.3519,39.6000,98,98,265651
1.6325,0.3421,39.0600,98,98,265654
1.6227,0.3275,39.7000,98,98,265658
1.6178,0.3372,39.7700,98,98,265661
1.6129,0.3275,39.7700,98,98,265664
1.6178,0.3421,39.7000,98,98,265668
1.5982,0.3372,39.6700,98,98,265671
1.6325,0.3421,39.6700,98,98,265674
1.6667,0.3372,39.8000,98,98,265678
1.7742,0.3372,39.8300,98,98,265681
1.9746,0.3421,39.6400,98,98,265684
2.1994,0.3372,39.8000,98,98,265688
2.4976,0.3372,39.6700,98,98,265692
2.7468,0.3324,39.7000,98,98,265695
2.9668,0.3372,39.8000,98,98,265698
3.1378,0.3421,39.6400,98,98,265702
3.0938,0.3372,39.7700,98,98,265705
3.0303,0.3275,39.5700,98,98,265708
2.8055,0.3372,39.7300,98,98,265712
2.5660,0.3324,39.8000,98,98,265715
2.4096,0.3421,39.7000,98,98,265718
2.1603,0.3275,39.8000,98,98,265722
2.0186,0.3421,39.5400,98,98,265725
1.8084,0.3324,39.7300,98,98,265729
1.6764,0.3275,39.8000,98,98,265732
1.5640,0.3372,39.8300,98,98,265736
1.4956,0.3324,39.7700,98,98,265739
1.4761,0.3519,39.5700,98,98,265742
1.4125,0.3421,39.7300,98,98,265746
1.3930,0.3324,39.7300,98,98,265749
1.3734,0.3421,39.7700,98,98,265752
1.3685,0.3372,39.8000,98,98,265756
1.4027,0.3421,39.6400,98,98,265759
1.4076,0.3372,39.7300,98,98,265762
1.4125,0.3372,39.6700,98,98,265766
1.4174,0.3372,39.8000,98,98,265769
1.4272,0.3324,39.7700,98,98,265773
1.4614,0.3421,39.1600,98,98,265776
1.4565,0.3324,39.8000,98,98,265780
1.5054,0.3275,39.7000,98,98,265783
1.4956,0.3372,39.8000,98,98,265786
1.5152,0.3617,39.8000,98,98,265790
1.5494,0.3372,39.7000,98,98,265793
1.5494,0.3372,39.6000,98,98,265796
1.5836,0.3421,39.6400,98,98,265800
1.5738,0.3372,39.8000,98,98,265803
1.5934,0.3324,39.8000,98,98,265806
1.6422,0.3421,39.7300,98,98,265810
1.6178,0.3372,39.8600,98,98,265814
1.6960,0.3421,39.5100,98,98,265817
1.6569,0.3421,39.7300,98,98,265820
1.6618,0.3421,39.8000,98,98,265824
1.6911,0.3421,39.7300,98,98,265827
1.6911,0.3372,39.8000,98,98,265830
1.7644,0.3470,39.5400,98,98,265834
1.7449,0.3372,39.6400,98,98,265837
1.7449,0.3324,39.7300,98,98,265840
1.7742,0.3372,39.8900,98,98,265844
1.7840,0.3372,39.8000,98,98,265847
1.8426,0.3421,39.6400,98,98,265850
1.8231,0.3421,39.7300,98,98,265854
1.8377,0.3372,39.7000,98,98,265858
1.8426,0.3372,39.8000,98,98,265861
1.8671,0.3372,39.8300,98,98,265865
1.9013,0.3421,39.8300,98,98,265868
1.8915,0.3421,39.8300,98,98,265871
1.9306,0.3421,39.6700,98,98,265875
1.9159,0.3324,39.8300,98,98,265878
1.9355,0.3324,39.8000,98,98,265881
1.9746,0.3421,39.6400,98,98,265884
1.9599,0.3372,39.8300,98,98,265888
1.9941,0.3372,39.6000,98,98,265891
1.9697,0.3275,39.7000,98,98,265894
1.9599,0.3324,39.8300,98,98,265899
1.9892,0.3470,39.6700,98,98,265902
1.9648,0.3372,39.7700,98,98,265905
1.9990,0.3421,39.5100,98,98,265909
1.9697,0.3372,39.7000,98,98,265912
1.9355,0.3372,39.8000,98,98,265915
1.9404,0.3421,39.8600,98,98,265919
1.9159,0.3324,39.8000,98,98,265922
1.9599,0.3470,39.4800,98,98,265925
1.9110,0.3372,39.4100,98,98,265928
1.8866,0.3421,39.8300,98,98,265932
1.8622,0.3372,39.7700,98,98,265935
1.8328,0.3372,39.7700,98,98,265938
1.8524,0.3470,39.7000,98,98,265943
1.7889,0.3372,39.7700,98,98,265946
1.7644,0.3324,39.6700,98,98,265949
1.7351,0.3421,39.8000,98,98,265953
1.7107,0.3324,39.8000,98,98,265956
1.7253,0.3421,39.6700,98,98,265959
1.6960,0.3421,39.7700,98,98,265963
1.6911,0.3421,39.6400,98,98,265966
1.6569,0.3470,39.8300,98,98,265969
1.6471,0.3275,39.7700,98,98,265973
1.6520,0.3421,39.6700,98,98,265976
1.6129,0.3372,39.7700,98,98,265979
1.6422,0.3372,39.7000,98,98,265982
1.6178,0.3617,39.7700,98,98,265987
1.6276,0.3372,39.8000,98,98,265990
1.6422,0.3421,39.6700,98,98,265993
1.6373,0.3372,39.8000,98,98,265997
1.6813,0.3421,39.6000,98,98,266000
1.6569,0.3372,39.7300,98,98,266003
1.6667,0.3372,39.8000,98,98,266007
1.6813,0.3372,39.8000,98,98,266010
1.6618,0.3372,39.8000,98,98,266013
1.7155,0.3470,39.5100,98,98,266017
1.6960,0.3421,39.6700,98,98,266020
1.7204,0.3372,39.7700,98,98,266023
1.7107,0.3372,39.7700,98,98,266028
1.7009,0.3324,39.8300,98,98,266031
1.7644,0.3470,39.6000,98,98,266034
1.7351,0.3421,39.7000,98,98,266037
1.7351,0.3275,39.7000,98,98,266041
1.7400,0.3372,39.8000,98,98,266044
1.7400,0.3372,40.0300,98,98,266047
1.7742,0.3421,39.6400,98,98,266051
1.7595,0.3372,39.7700,98,98,266054
1.7742,0.3372,39.6400,98,98,266057
1.7595,0.3275,39.8000,98,98,266061
1.7595,0.3372,39.7700,98,98,266064
1.8133,0.3275,39.7300,98,98,266067
1.7595,0.3372,39.6700,98,98,266072
1.7840,0.3470,39.7300,98,98,266075
1.7546,0.3372,39.8300,98,98,266078
1.7693,0.3324,39.8300,98,98,266081
1.7937,0.3421,39.6700,98,98,266085
1.7742,0.3372,39.8300,98,98,266088
1.8035,0.3421,39.5700,98,98,266091
1.7889,0.3372,39.6700,98,98,266095
1.7693,0.3275,39.8600,98,98,266098
1.8035,0.3372,39.7000,98,98,266101
1.8084,0.3324,39.7700,98,98,266105
1.8377,0.3470,39.5700,98,98,266108
1.7937,0.3324,39.8300,98,98,266112
1.7791,0.3324,39.8000,98,98,266116
1.7889,0.3372,39.6700,98,98,266119
1.7937,0.3372,39.8300,98,98,266122
1.8573,0.3519,39.6700,98,98,266126
1.8671,0.3372,39.7000,98,98,266129
1.8328,0.3324,39.7000,98,98,266132
1.8377,0.3421,39.8300,98,98,266135
1.8475,0.3372,39.8000,98,98,266139
1.8964,0.3470,39.6700,98,98,266142
1.9110,0.3421,39.7700,98,98,266145
1.9062,0.3372,39.6400,98,98,266149
1.9062,0.3372,39.8000,98,98,266152
1.9208,0.3324,39.8000,98,98,266156
1.9795,0.3470,39.6700,98,98,266160
1.9746,0.3372,39.8000,98,98,266163
2.0088,0.3372,39.7000,98,98,266166
1.9795,0.3324,39.7300,98,98,266170
1.9746,0.3324,39.8000,98,98,266173
1.9892,0.3421,39.7300,98,98,266176
1.9599,0.3372,39.8300,98,98,266180
1.9795,0.3372,39.6000,98,98,266183
1.8328,0.3470,39.5400,99,98,266188
1.7644,0.3470,39.7000,99,98,266191
1.7204,0.3324,39.7700,99,98,266194
1.7058,0.3372,39.8600,99,98,266198
1.6764,0.3421,39.8000,99,98,266202
1.7058,0.3470,39.6400,99,98,266205
1.6716,0.3421,39.7700,99,98,266208
1.6764,0.3324,39.7300,99,98,266212
1.6716,0.3715,39.8000,99,98,266215
1.6716,0.3275,39.8000,99,98,266218
1.7009,0.3421,39.7000,99,98,266222
1.6911,0.3324,39.7700,99,98,266225
1.7009,0.3421,39.6400,99,98,266228
1.6716,0.3372,39.7700,99,98,266232
1.6667,0.3275,39.8000,99,98,266235
1.6667,0.3421,39.7000,99,98,266238
1.6471,0.3324,39.7700,99,98,266243
1.7058,0.3372,39.6400,99,98,266246
1.7644,0.3324,39.7300,99,98,266249
1.9159,0.3372,39.8000,99,98,266252
2.1603,0.3372,39.6700,99,98,266256
2.4096,0.3372,39.8000,99,98,266259
2.7468,0.3372,39.5700,99,98,266262
2.9521,0.3324,39.8300,99,98,266266
3.1232,0.3617,39.8300,99,98,266269
3.1867,0.3421,39.7700,99,98,266272
3.0743,0.3324,39.8000,99,98,266276
2.9863,0.3275,39.5100,99,98,266279
2.7126,0.3421,39.7300,99,98,266283
2.4731,0.3519,39.8300,99,98,266287
2.2776,0.3372,39.8000,99,98,266290
2.0772,0.3372,39.7700,99,98,266293
1.9599,0.3519,39.6400,99,98,266296
1.7742,0.3421,39.8000,99,98,266300
1.6422,0.3324,39.6700,99,98,266303
1.5543,0.3275,39.7700,99,98,266306
1.4956,0.3372,39.8300,99,98,266310
1.4858,0.3421,39.6400,99,98,266313
1.4516,0.3372,39.7700,99,98,266316
1.4467,0.3372,39.6400,99,98,266320
1.4418,0.3275,39.8000,99,98,266323
1.4272,0.3372,39.7300,99,98,266327
1.4467,0.3421,39.7300,99,98,266331
1.4467,0.3372,39.8000,99,98,266334
1.4858,0.3421,39.6700,99,98,266337
1.4712,0.3372,39.9600,99,98,266341
1.4858,0.3470,39.8300,99,98,266344
1.5249,0.3421,39.7000,99,98,266347
1.5200,0.3372,39.8000,99,98,266350
1.5591,0.3372,39.5700,99,98,266354
1.5591,0.3372,39.7000,99,98,266357
1.5591,0.3372,39.8000,99,98,266360
1.5885,0.3275,39.7000,99,98,266364
1.5836,0.3372,39.7700,99,98,266368
1.6373,0.3470,39.5400,99,98,266371
1.6178,0.3372,39.7000,99,98,266375
1.6325,0.3324,39.9300,99,98,266378
1.6667,0.3421,39.7700,99,98,266381
1.6667,0.3372,39.8900,99,98,266385
1.7351,0.3519,39.5700,99,98,266388
1.7155,0.3421,39.7300,99,98,266391
1.7302,0.3324,39.7300,99,98,266395
1.7400,0.3372,39.8000,99,98,266398
1.7546,0.3324,39.8300,99,98,266401
1.7986,0.3470,39.7000,99,98,266404
1.7986,0.3324,39.7700,99,98,266408
1.8328,0.3372,39.6700,99,98,266412
1.8280,0.3372,39.8000,99,98,266415
1.8426,0.3617,39.7700,99,98,266419
1.8915,0.3275,39.6400,99,98,266422
1.8719,0.3372,39.8000,99,98,266425
1.9159,0.3470,39.6700,99,98,266429
1.9110,0.3324,39.7700,99,98,266432
1.9306,0.3372,39.7700,99,98,266435
1.9697,0.3372,39.6700,99,98,266439
1.9550,0.3372,39.7700,99,98,266442
1.9990,0.3372,39.6000,99,98,266445
1.9941,0.3372,39.7000,99,98,266448
1.9990,0.3372,39.8000,99,98,266452
2.0283,0.3470,39.7000,99,98,266456
2.0039,0.3421,39.8000,99,98,266459
2.0479,0.3421,39.5400,99,98,266463
2.0039,0.3324,39.7700,99,98,266466
2.0039,0.3372,39.8000,99,98,266469
2.0186,0.3372,39.8300,99,98,266473
1.9990,0.3324,39.8300,99,98,266476
2.0479,0.3470,39.5100,99,98,266479
1.9941,0.3421,39.6700,99,98,266482
1.9697,0.3324,39.8000,99,98,266486
1.9697,0.3372,39.8600,99,98,266489
1.9501,0.3275,39.7700,99,98,266492
1.9844,0.3470,39.6000,99,98,266497
1.9257,0.3470,39.7000,99,98,266500
1.8964,0.3275,39.7000,99,98,266503
1.8622,0.3372,39.8000,99,98,266507
1.8328,0.3372,39.8000,99,98,266510
1.8622,0.3421,39.6400,99,98,266513
1.7889,0.3421,39.8000,99,98,266517
1.7693,0.3763,39.6700,99,98,266520
1.7204,0.3372,39.8000,99,98,266523
1.7009,0.3372,39.9300,99,98,266526
1.6960,0.3324,39.7300,99,98,266530
1.6667,0.3372,39.8000,99,98,266533
1.6862,0.3421,39.6700,99,98,266536
1.6471,0.3421,39.8300,99,98,266541
1.6373,0.3372,39.9300,99,98,266544
1.6862,0.3372,39.7000,99,98,266547
1.6373,0.3372,39.8000,99,98,266551
1.6667,0.3666,39.6400,99,98,266554
1.6520,0.3372,39.6400,99,98,266557
1.6373,0.3372,39.8900,99,98,266561
1.6618,0.3421,39.7000,99,98,266564
1.6373,0.3372,39.7700,99,98,266567
1.6960,0.3470,39.5100,99,98,266570
1.6716,0.3372,39.7300,99,98,266574
1.6667,0.3372,39.8300,99,98,266577
1.6764,0.3470,39.8300,99,98,266580
1.6716,0.3275,39.8300,99,98,266585
1.7302,0.3568,38.7400,99,98,266588
1.7107,0.3372,39.7000,99,98,266591
1.7107,0.3324,39.7300,99,98,266595
1.7155,0.3421,39.7700,99,98,266598
1.7155,0.3372,39.8300,99,98,266601
1.7546,0.3568,39.7000,99,98,266605
1.7400,0.3372,39.7700,99,98,266608
1.7498,0.3372,39.6700,99,98,266611
1.7400,0.3372,39.8000,99,98,266615
1.7449,0.3372,39.8000,99,98,266618
1.7791,0.3421,39.6700,99,98,266621
1.7546,0.3372,39.7700,99,98,266625
1.7791,0.3421,38.9300,99,98,266629
1.7546,0.3324,39.7300,99,98,266632
1.7595,0.3324,39.8000,99,98,266635
1.7791,0.3372,39.7000,99,98,266639
1.7644,0.3372,39.8000,99,98,266642
1.7889,0.3372,39.5700,99,98,266645
1.8035,0.3324,39.7000,99,98,266649
1.7791,0.3372,39.7700,99,98,266652
1.8035,0.3470,39.8300,99,98,266655
1.7840,0.3372,39.8300,99,98,266659
1.8573,0.3470,39.5700,99,98,266662
1.7840,0.3324,39.8600,99,98,266665
1.7889,0.3324,39.8300,99,98,266669
1.8084,0.3421,39.7300,99,98,266673
1.7937,0.3324,39.7700,99,98,266676
1.8377,0.3275,39.5400,99,98,266679
1.8035,0.3421,39.6700,99,98,266683
1.7791,0.3324,39.7700,99,98,266686
1.7889,0.3372,40.0300,99,98,266689
1.7937,0.3519,39.7700,99,98,266693
1.8475,0.3470,39.6400,99,98,266696
1.8231,0.3568,39.7300,99,98,266699
1.8573,0.3421,39.7000,99,98,266703
1.8280,0.3372,39.8300,99,98,266706
1.8377,0.3861,39.7700,99,98,266710
1.8817,0.3421,39.7000,99,98,266714
1.8622,0.3372,39.7300,99,98,266717
1.8768,0.3470,39.6400,99,98,266720
1.8524,0.3079,39.8000,99,98,266723
1.8671,0.3617,39.8000,99,98,266727
1.9159,0.3275,39.7000,99,98,266730
1.9306,0.3372,39.7700,99,98,266733
1.9746,0.3372,40.0000,99,98,266737
1.9550,0.3372,39.8000,99,98,266740
1.9501,0.3079,39.7300,99,98,266743
1.9746,0.3324,39.6700,99,98,266747
1.9501,0.3372,39.8000,99,98,266750
1.9990,0.3470,39.6400,99,98,266754
1.9550,0.3324,39.7000,99,98,266757
1.9208,0.3275,39.8000,99,98,266761
1.9062,0.3421,39.7300,99,98,266764
1.8475,0.3421,39.8000,99,98,266767
1.8622,0.3470,39.5400,99,98,266771
1.7937,0.3372,39.6700,99,98,266774
1.7840,0.3324,39.8000,99,98,266777
1.7155,0.3372,39.7700,99,98,266781
1.6911,0.3372,39.8000,99,98,266784
1.7253,0.3519,39.5700,99,98,266787
1.6813,0.3470,39.7300,99,98,266791
1.6716,0.3324,39.7300,99,98,266795
1.6618,0.3372,39.6400,99,98,266798
1.6764,0.3372,39.6700,99,98,266803
1.7107,0.3324,39.8000,99,98,266806
1.6862,0.3421,39.6700,99,98,266810
1.6422,0.3372,39.7700,99,98,266813
1.6862,0.3372,39.6400,99,98,266816
1.7302,0.3470,39.7000,99,98,266820
1.8328,0.3275,39.8000,99,98,266823
2.0137,0.3470,39.6700,99,98,266826
2.2190,0.3812,39.8000,99,98,266829
2.5660,0.3372,39.5700,99,98,266833
2.7957,0.3421,39.7300,99,98,266836
3.0205,0.3372,39.8000,99,98,266840
3.2014,0.3421,39.7300,99,98,266844
3.1916,0.3275,39.8000,99,98,266847
3.1672,0.3470,39.5400,99,98,266850
2.9326,0.3421,39.6700,99,98,266854
2.7077,0.3079,39.8000,99,98,266857
2.4927,0.3372,39.7700,99,98,266860
2.2776,0.3324,39.7700,99,98,266863
2.0870,0.3519,39.6700,99,98,266867
1.8622,0.3421,39.7300,99,98,266870
1.7204,0.3372,39.7000,99,98,266873
1.5934,0.3372,39.8000,99,98,266877
1.5249,0.3275,39.8000,99,98,266881
1.5005,0.3470,39.6400,99,98,266884
1.4418,0.3421,39.8000,99,98,266888
1.4321,0.3372,39.6700,99,98,266891
1.4076,0.3372,39.8000,99,98,266894
1.4174,0.3324,39.8000,99,98,266898
1.4467,0.3519,39.7000,99,98,266901
1.4418,0.3421,39.7700,99,98,266904
1.4614,0.3470,39.7300,99,98,266907
1.4467,0.3421,39.7700,99,98,266911
1.4663,0.3372,39.8000,99,98,266914
1.5005,0.3372,39.7000,99,98,266917
1.5200,0.3324,39.7300,99,98,266921
1.5640,0.3421,39.6000,99,98,266925
1.5494,0.3372,39.8300,99,98,266928
1.5591,0.3421,39.8300,99,98,266932
1.5885,0.3421,39.6400,99,98,266935
1.5885,0.3372,39.8000,99,98,266938
1.6422,0.3470,39.6400,99,98,266942
1.6325,0.3470,39.7300,99,98,266945
1.6373,0.3421,39.8000,99,98,266948
1.6569,0.3421,39.8600,99,98,266951
1.6618,0.3324,39.8000,99,98,266955
1.7302,0.3519,39.6400,99,98,266958
1.7107,0.3421,39.7000,99,98,266961
1.7204,0.3079,39.7300,99,98,266966
1.7400,0.3372,39.2200,99,98,266969
1.7498,0.3324,39.8000,99,98,266972
1.8084,0.3470,39.6400,99,98,266976
1.7986,0.3421,39.7300,99,98,266979
1.8182,0.3372,39.7000,99,98,266982
1.8231,0.3372,39.8600,99,98,266986
1.8280,0.3275,39.8000,99,98,266989
1.8573,0.3421,39.7300,99,98,266992
1.8524,0.3372,39.7300,99,98,266995
1.9062,0.3372,39.6700,99,98,266999
1.8866,0.3421,39.7300,99,98,267002
1.9355,0.3324,39.8000,99,98,267005
1.9453,0.3470,39.7300,99,98,267010
1.9355,0.3421,39.8000,99,98,267013
1.9795,0.3372,39.6400,99,98,267016
1.9795,0.3617,39.7000,99,98,267020
1.9941,0.3372,39.8300,99,98,267023
2.0186,0.3421,39.6700,99,98,267026
2.0235,0.3324,39.8000,99,98,267030
2.0479,0.3421,39.5700,99,98,267033
2.0186,0.3421,39.7700,99,98,267036
2.0137,0.3324,39.8000,99,98,267040
2.0381,0.3421,39.7700,99,98,267043
2.0137,0.3372,39.6400,99,98,267046
2.0626,0.3519,39.5100,99,98,267049
2.0137,0.3372,39.7000,99,98,267054
1.9941,0.3324,39.8000,99,98,267057
1.9941,0.3372,39.7700,99,98,267060
1.9746,0.3372,39.8000,99,98,267064
2.0039,0.3519,39.6400,99,98,267067
1.9550,0.3421,39.7300,99,98,267070
1.9257,0.3372,39.7700,99,98,267074
1.8964,0.3372,39.8000,99,98,267077
1.8671,0.3372,39.8900,99,98,267080
1.8719,0.3568,39.6000,99,98,267084
1.8084,0.3421,39.7700,99,98,267087
1.7840,0.3372,38.9600,99,98,267090
1.7302,0.3666,39.8000,99,98,267094
1.7009,0.3372,39.7700,99,98,267098
1.7058,0.3470,39.8000,99,98,267101
1.6618,0.3372,39.8600,99,98,267104
1.6618,0.3421,39.6700,99,98,267108
1.6178,0.3324,39.8300,99,98,267111
1.6325,0.3324,39.8000,99,98,267114
1.6080,0.3372,39.6700,99,98,267118
1.5885,0.3372,39.8900,99,98,267121
1.6471,0.3421,39.6000,99,98,267124
1.5885,0.3324,39.8300,99,98,267128
1.5934,0.3275,39.8000,99,98,267131
1.6276,0.3421,39.6700,99,98,267134
1.6080,0.3372,39.8000,99,98,267138
1.6667,0.3470,39.5400,99,98,267142
1.6471,0.3421,39.7300,99,98,267145
1.6325,0.3324,39.8000,99,98,267148
1.6471,0.3372,39.7300,99,98,267152
1.6520,0.3275,39.8000,99,98,267155
1.7058,0.3568,39.6000,99,98,267158
1.6764,0.3519,39.7000,99,98,267162
1.6667,0.3324,39.7300,99,98,267165
1.6618,0.3372,39.6700,99,98,267168
1.6569,0.3226,39.8000,99,98,267172
1.6911,0.3421,39.6400,99,98,267175
1.6813,0.3568,39.7700,99,98,267179
1.7058,0.3275,39.7000,99,98,267182
1.6862,0.3372,39.8000,99,98,267186
1.6911,0.3421,39.8300,99,98,267189
1.7204,0.3421,39.7700,99,98,267192
1.7155,0.3372,39.6700,99,98,267196
1.7400,0.3519,39.7000,99,98,267199
1.7204,0.3372,39.8300,99,98,267202
1.7204,0.3324,39.7300,99,98,267206
1.7449,0.3275,39.6700,99,98,267209
1.7204,0.3372,39.8000,99,98,267212
1.7595,0.3470,39.7000,99,98,267216
1.7791,0.3324,39.7000,99,98,267219
1.7400,0.3372,39.8000,99,98,267223
1.7546,0.3519,39.6700,99,98,267226
1.7204,0.3372,39.8000,99,98,267230
1.7546,0.3470,39.5700,99,98,267233
1.7302,0.3421,39.7300,99,98,267236
1.7204,0.3372,39.8000,99,98,267240
1.7253,0.3421,39.5700,99,98,267243
1.7155,0.3421,39.8300,99,98,267246
1.7595,0.3470,39.5100,99,98,267250
1.7155,0.3470,39.7300,99,98,267253
1.7107,0.3324,39.7700,99,98,267256
1.7155,0.3372,39.7700,99,98,267260
1.7058,0.3372,39.8000,99,98,267264
1.7498,0.3470,39.6400,99,98,267267
1.7302,0.3372,39.7300,99,98,267271
1.7155,0.3372,39.7000,99,98,267274
1.7107,0.3421,39.8300,99,98,267277
1.7204,0.3372,39.8000,99,98,267280
1.7644,0.3470,39.7300,99,98,267284
1.7595,0.3421,39.7700,99,98,267287
1.7742,0.3372,39.6700,99,98,267290
1.7644,0.3372,39.8300,99,98,267294
1.7791,0.3275,39.8000,99,98,267297
1.8133,0.3372,39.6400,99,98,267300
1.8133,0.3421,39.7700,99,98,267304
1.8231,0.3372,39.6700,99,98,267308
1.8084,0.3372,39.7300,99,98,267311
1.8280,0.3372,39.8000,99,98,267315
1.8768,0.3421,39.8000,99,98,267318
1.8915,0.3372,39.7700,99,98,267321
1.9697,0.3421,39.5700,99,98,267324
1.9208,0.3372,40.1300,99,98,267328
1.9208,0.3617,39.8300,99,98,267331
