ecg,gsr,temp,hr,spo2,timest
1.8377,0.1857,40.2600,60,97,350571
1.8280,0.1857,40.3300,60,97,350574
1.8182,0.1857,40.3300,60,97,350577
1.8817,0.2004,40.0300,60,97,350581
1.8524,0.1906,40.3000,60,97,350584
1.8671,0.1808,40.2300,60,97,350587
1.8768,0.1857,40.2300,60,97,350592
1.8817,0.1857,40.2600,60,97,350595
1.9208,0.1906,40.1600,60,97,350598
1.8915,0.1857,40.2000,60,97,350602
1.8915,0.1808,40.1600,60,97,350605
1.8719,0.1857,40.4000,60,97,350608
1.8719,0.1760,40.3600,60,97,350611
1.9159,0.1906,40.1600,60,97,350615
1.9208,0.1857,40.1300,60,97,350619
1.8817,0.1808,40.2600,60,97,350623
1.9159,0.1955,40.0600,60,97,350626
1.9013,0.1857,40.1600,60,97,350629
1.8866,0.2004,40.2600,60,97,350633
1.8964,0.1857,40.2300,60,97,350637
1.8866,0.1808,40.4000,60,97,350640
1.9355,0.1955,40.0300,60,97,350644
1.8915,0.1857,40.2000,60,97,350647
1.8915,0.1906,40.3000,60,97,350650
1.9306,0.1808,40.2300,60,97,350654
1.8866,0.1857,40.1600,60,97,350657
1.9257,0.2004,40.1300,60,97,350660
1.8622,0.1906,40.2000,60,97,350663
1.8328,0.1857,40.1600,60,97,350667
1.8377,0.1857,40.2300,60,97,350670
1.8328,0.1808,40.2600,60,97,350673
1.8719,0.1955,40.0600,60,97,350678
1.8524,0.1955,40.3000,60,97,350681
1.8719,0.1857,40.2300,60,97,350684
1.8671,0.1857,40.2600,60,97,350688
1.8719,0.2004,40.2600,60,97,350691
1.8964,0.1906,40.1300,60,97,350694
1.8671,0.1857,40.2300,60,97,350698
1.9013,0.2004,40.1600,60,97,350701
1.8524,0.1808,40.3300,60,97,350704
1.8475,0.1955,40.2600,60,97,350707
1.8671,0.1857,40.2300,60,97,350711
1.8622,0.1857,40.2600,60,97,350714
1.9110,0.1857,40.1300,60,97,350717
1.8475,0.1857,40.4300,60,97,350722
1.8377,0.1857,40.2300,60,97,350725
1.8426,0.1906,40.1000,60,97,350728
1.8231,0.1857,40.2300,60,97,350732
1.8671,0.1906,40.0000,60,97,350735
1.8524,0.1808,40.1600,60,97,350738
1.8377,0.1857,40.2600,60,97,350742
1.8573,0.1857,40.2300,60,97,350745
1.8377,0.1857,40.2600,60,97,350748
1.8915,0.1955,39.9600,60,97,350751
1.8524,0.1906,40.2000,60,97,350755
1.8231,0.1808,40.2000,60,97,350758
1.8133,0.1857,40.3000,60,97,350761
1.8084,0.1711,40.2600,60,97,350766
1.8622,0.2004,40.4700,60,97,350769
1.8133,0.1857,40.2300,60,97,350772
1.8133,0.1857,40.2000,60,97,350776
1.8035,0.1808,40.3000,60,97,350779
1.8035,0.1857,40.2600,60,97,350782
1.8377,0.1906,40.2000,60,97,350786
1.8182,0.1955,40.2600,60,97,350789
1.8475,0.1906,40.2300,60,97,350792
1.8280,0.1906,40.2300,60,97,350795
1.8231,0.1857,40.2600,60,97,350799
1.8524,0.1906,40.1300,60,97,350802
1.8231,0.1857,40.2600,60,97,350806
1.8475,0.1857,40.1600,60,97,350810
1.8377,0.1857,40.2000,60,97,350813
1.8280,0.1857,40.3300,60,97,350816
1.8524,0.1955,40.2000,60,97,350820
1.8231,0.1857,40.3600,60,97,350823
1.8573,0.1906,40.0000,60,97,350826
1.8377,0.1955,40.2000,60,97,350830
1.8084,0.1857,40.2600,60,97,350833
1.8231,0.1906,40.1600,60,97,350836
1.8328,0.1808,40.3300,60,97,350839
1.8671,0.1955,40.1300,60,97,350843
1.8426,0.1808,40.2300,60,97,350846
1.8426,0.1857,40.3000,60,97,350850
1.8475,0.1857,40.2000,60,97,350854
1.8377,0.1857,40.3600,60,97,350857
1.9013,0.2297,40.1000,60,97,350860
1.8671,0.1711,40.3000,60,97,350864
1.8426,0.1808,40.2300,60,97,350867
1.8524,0.1906,40.2300,60,97,350870
1.8475,0.1857,40.2600,60,97,350874
1.8964,0.1955,40.0600,60,97,350877
1.8719,0.1906,40.3000,60,97,350880
1.8866,0.1857,40.2000,60,97,350883
1.9013,0.1711,40.2600,60,97,350887
1.8622,0.1857,40.1000,60,97,350891
1.9062,0.1955,40.1000,60,97,350894
1.8573,0.1857,40.3300,60,97,350898
1.8866,0.1955,40.1600,60,97,350901
1.8573,0.1808,40.3000,60,97,350904
1.8475,0.1857,40.2300,60,97,350908
1.8622,0.1711,40.2000,60,97,350911
1.8573,0.1857,40.2300,60,97,350914
1.9013,0.1711,40.1000,60,97,350918
1.8622,0.1857,40.3300,60,97,350921
1.8524,0.1808,40.2600,60,97,350924
1.8524,0.1906,40.2000,60,97,350927
1.8182,0.1857,40.2300,60,97,350931
1.8622,0.1955,40.0300,60,97,350935
1.8475,0.1906,40.1600,60,97,350938
1.8475,0.1857,40.3000,60,97,350942
1.8719,0.1906,40.3000,60,97,350945
1.8671,0.1906,40.2600,60,97,350948
1.9208,0.1955,39.9600,60,97,350952
1.9062,0.1906,40.1300,60,97,350955
1.8915,0.1857,40.2300,60,97,350958
1.8817,0.1906,40.2600,60,97,350962
1.8671,0.1857,40.3600,60,97,350965
1.9013,0.2004,40.1000,60,97,350968
1.8524,0.1906,40.3600,60,97,350971
1.8573,0.1857,40.2300,60,97,350976
1.8426,0.1906,40.2600,60,97,350979
1.8377,0.1906,40.2600,60,97,350982
1.8671,0.1955,40.1600,60,97,350986
1.8475,0.1857,40.2300,60,97,350989
1.8768,0.1906,40.1300,60,97,350992
1.8622,0.1857,40.2300,60,97,350996
1.8671,0.1711,40.2600,60,97,350999
1.8964,0.2346,40.1600,60,97,351002
1.8719,0.1857,40.3600,60,97,351006
1.9013,0.2151,40.2000,60,97,351009
1.8866,0.1711,40.2000,60,97,351012
1.8768,0.1857,40.2600,60,97,351016
1.8915,0.1906,40.1300,60,97,351020
1.8622,0.1857,40.2600,60,97,351023
1.8866,0.1906,40.0600,60,97,351026
1.8622,0.1906,40.2600,60,97,351030
1.8475,0.1857,40.2600,60,97,351033
1.8719,0.1955,40.3000,60,97,351036
1.8768,0.1857,40.3300,60,97,351040
1.9404,0.2004,40.1000,60,97,351043
1.9110,0.1857,40.3000,60,97,351046
1.9159,0.1857,40.3600,60,97,351050
1.9453,0.1955,40.2300,60,97,351053
1.9208,0.1857,40.2600,60,97,351056
1.9892,0.2004,40.1000,60,97,351060
1.9501,0.1906,40.2300,60,97,351064
1.9453,0.1857,40.2600,60,97,351067
1.9453,0.1906,40.2600,60,97,351070
1.9355,0.1857,40.2000,60,97,351074
1.9844,0.2004,40.1600,60,97,351077
1.9501,0.1906,40.3000,60,97,351080
1.9697,0.1906,40.1600,60,97,351084
1.9599,0.1906,40.2600,60,97,351087
1.9697,0.1857,40.2300,60,97,351090
2.0039,0.2053,40.1000,60,97,351094
1.9697,0.1906,40.3300,60,97,351097
1.9941,0.1906,40.1300,60,97,351100
1.9550,0.2004,40.2000,60,97,351104
1.9453,0.1808,40.3600,60,97,351108
1.9501,0.1906,40.2300,60,97,351111
1.9355,0.1906,40.2000,60,97,351114
1.9501,0.1955,40.1600,60,97,351118
1.9110,0.1906,40.2300,60,97,351121
1.9013,0.1808,40.3600,60,97,351124
1.9208,0.1906,40.2300,60,97,351128
1.9013,0.1857,40.2600,60,97,351131
1.9257,0.1955,40.0600,60,97,351134
1.8915,0.1906,40.2600,60,97,351138
1.8573,0.1857,40.2600,60,97,351141
1.8622,0.1955,40.2300,60,97,351144
1.8328,0.1857,40.2300,60,97,351148
1.8817,0.1955,40.0000,60,97,351152
1.8475,0.1955,40.1300,60,97,351155
1.8231,0.1808,40.2600,60,97,351158
1.8084,0.1906,40.2600,60,97,351162
1.8182,0.1808,40.3000,60,97,351165
1.8964,0.2053,40.1600,60,97,351168
1.8573,0.1808,40.2300,60,97,351172
1.8622,0.1857,40.2000,60,97,351175
1.8622,0.1906,40.2600,60,97,351178
1.8719,0.1857,40.3300,60,97,351182
1.9110,0.2004,40.1600,60,97,351185
1.8866,0.1906,40.3000,60,97,351188
1.8964,0.1906,40.1300,60,97,351192
1.8719,0.1857,40.2600,60,97,351196
1.8573,0.1906,40.2600,60,97,351199
1.8573,0.2004,40.1600,60,97,351202
1.7840,0.1955,40.2300,60,97,351206
1.7742,0.1955,40.2000,60,97,351209
1.7791,0.1857,40.2300,60,97,351212
1.8475,0.1857,40.2600,60,97,351216
2.0235,0.1955,40.1300,60,97,351219
2.1750,0.1857,40.3000,60,97,351222
2.4389,0.1906,40.3600,60,97,351226
3.0303,0.2004,40.0300,60,97,351230
2.9277,0.2151,40.3600,60,97,351235
2.8592,0.1857,40.3300,60,97,351238
2.7761,0.1906,40.2300,60,97,351241
2.6393,0.1857,40.2600,60,97,351244
2.5464,0.2053,40.0600,60,97,351248
2.3412,0.1955,40.2300,60,97,351251
2.1359,0.1857,40.2000,60,97,351254
2.0235,0.1906,40.2600,60,97,351258
1.8964,0.1955,40.2600,60,97,351261
1.8475,0.1955,40.1300,60,97,351264
1.7498,0.1906,40.3000,60,97,351268
1.7155,0.1906,40.2000,60,97,351271
1.6862,0.1906,40.3600,60,97,351275
1.6373,0.1906,40.2000,60,97,351279
1.6569,0.2248,40.1600,60,97,351282
1.6325,0.1857,40.2600,60,97,351285
1.6667,0.1955,40.2000,60,97,351288
1.6422,0.1857,40.2300,60,97,351292
1.6422,0.1857,40.2600,60,97,351295
1.6471,0.1955,40.2300,60,97,351298
1.6422,0.1906,40.3000,60,97,351302
1.6716,0.1906,40.1600,60,97,351305
1.6569,0.1857,40.2600,60,97,351308
1.6716,0.1906,40.3000,60,97,351312
1.7253,0.1955,40.3000,60,97,351315
1.7107,0.1906,40.2600,60,97,351319
1.7742,0.2004,40.0300,60,97,351323
1.7644,0.1906,40.1600,60,97,351326
1.7546,0.1857,40.4300,60,97,351329
1.7742,0.1955,40.3000,60,97,351332
1.7693,0.1906,40.3600,60,97,351336
1.8280,0.2151,40.1000,60,97,351339
1.7937,0.1955,40.3300,60,97,351342
1.7791,0.1857,40.3600,60,97,351346
1.7937,0.1906,40.2600,60,97,351349
1.8035,0.1906,40.3300,60,97,351352
1.8573,0.1955,40.2000,60,97,351356
1.8280,0.1906,40.2300,60,97,351360
1.8426,0.1906,40.2000,60,97,351363
1.8328,0.1857,40.3600,60,97,351367
1.8328,0.1906,40.3000,60,97,351370
1.8573,0.2053,40.2600,60,97,351373
1.8475,0.1906,40.3300,60,97,351376
1.8671,0.1906,40.1600,60,97,351380
1.8475,0.1711,40.2600,60,97,351383
1.8573,0.1906,40.1600,60,97,351386
1.8768,0.1955,40.1300,60,97,351390
1.8328,0.1906,40.2000,60,97,351393
1.8573,0.2004,40.1300,60,97,351396
1.8573,0.1906,40.2300,60,97,351400
1.8622,0.1906,40.4000,60,97,351404
1.9013,0.1955,40.1000,60,97,351407
1.8866,0.1906,40.2600,60,97,351411
1.9159,0.2248,40.0600,60,97,351414
1.8915,0.1955,40.2600,60,97,351417
1.8719,0.1857,40.3000,60,97,351420
1.8817,0.1906,40.3300,60,97,351424
1.8817,0.1808,40.2600,60,97,351427
1.9306,0.1955,40.0000,60,97,351430
1.8866,0.1955,40.3600,60,97,351434
1.8866,0.1906,40.3000,60,97,351437
1.8964,0.1906,40.2000,60,97,351440
1.9013,0.1857,40.2300,60,97,351444
1.9648,0.2102,40.0600,60,97,351448
1.9257,0.1906,40.3000,60,97,351451
1.9208,0.1808,40.2600,60,97,351454
1.9159,0.1906,39.5700,60,97,351458
1.9062,0.1857,40.2600,60,97,351461
1.9404,0.2004,40.2000,60,97,351464
1.9013,0.2151,40.2300,60,97,351468
1.9159,0.1857,40.1600,60,97,351471
1.8817,0.1906,40.1600,60,97,351474
1.8915,0.1955,40.2600,60,97,351478
1.9159,0.1955,40.2300,60,97,351481
1.8817,0.1955,40.3600,60,97,351484
1.8964,0.1906,40.1300,60,97,351489
1.8573,0.1857,40.2300,60,97,351492
1.8573,0.1906,40.3000,60,97,351495
1.8671,0.1906,40.1300,60,97,351498
1.8671,0.1906,40.2300,60,97,351502
1.8915,0.1906,40.1300,60,97,351505
1.8768,0.1808,40.3000,60,97,351508
1.8768,0.1906,40.3600,60,97,351512
1.9159,0.1955,40.3600,60,97,351515
1.9208,0.1906,40.2600,60,97,351518
1.9453,0.1906,40.1600,60,97,351522
1.9306,0.2053,40.1600,60,97,351525
1.9404,0.1711,40.2600,60,97,351528
1.9306,0.1955,40.2000,60,97,351533
1.9159,0.1906,40.3600,60,97,351536
1.9697,0.2004,40.0600,60,97,351539
1.9355,0.1906,40.1300,60,97,351542
1.9013,0.1955,40.2600,60,97,351546
1.8915,0.1906,40.2300,60,97,351549
1.8768,0.1906,40.3000,60,97,351552
1.9453,0.2102,40.0300,60,97,351556
1.9110,0.1906,40.2600,60,97,351559
1.9208,0.2248,40.2000,60,97,351562
1.9453,0.1955,40.3000,60,97,351566
1.9453,0.1906,40.1600,60,97,351569
1.9892,0.2053,40.2300,60,97,351572
1.9697,0.1906,40.3000,60,97,351576
1.9941,0.1906,40.1300,60,97,351580
1.9941,0.1906,40.2600,60,97,351583
1.9990,0.1906,40.3000,60,97,351586
2.0332,0.2004,40.1000,60,97,351590
1.9990,0.1906,40.2300,60,97,351593
2.0137,0.2004,40.2000,60,97,351596
1.9697,0.1857,40.3000,60,97,351600
1.9599,0.1711,40.2000,60,97,351603
1.9746,0.1955,40.1600,60,97,351606
1.9453,0.1857,40.2600,60,97,351609
1.9599,0.1906,40.2000,60,97,351613
1.9355,0.2151,40.2000,60,97,351617
1.9306,0.1711,40.3600,60,97,351620
1.9599,0.1906,40.2600,60,97,351624
1.9550,0.1955,40.3600,60,97,351627
1.9941,0.1906,40.0600,60,97,351630
1.9453,0.1955,40.3000,60,97,351634
1.9453,0.1955,40.2600,60,97,351637
1.9599,0.2004,40.2600,60,97,351640
1.9306,0.1955,40.2600,60,97,351644
1.9648,0.2004,40.0000,60,97,351647
1.9257,0.1955,40.1300,60,97,351650
1.9404,0.1857,40.2300,60,97,351653
1.9159,0.1906,40.2000,60,97,351657
1.9062,0.1955,40.2600,60,97,351661
1.9599,0.2102,40.1600,60,97,351664
1.9159,0.2248,40.2000,60,97,351668
1.9257,0.1857,40.2000,60,97,351671
1.9159,0.1906,40.2300,60,97,351674
1.9257,0.1906,40.3300,60,97,351678
1.9648,0.2004,40.1300,60,97,351681
1.9404,0.1906,40.2600,60,97,351684
1.9550,0.1906,40.1600,60,97,351688
1.9257,0.1955,40.2600,60,97,351691
1.9110,0.1906,40.3000,60,97,351694
1.9453,0.1955,40.2000,60,97,351697
1.8964,0.1906,40.2300,60,97,351702
1.9208,0.2004,40.2000,60,97,351705
1.9159,0.1955,40.2600,60,97,351708
1.8964,0.1906,40.2600,60,97,351712
1.9159,0.2053,40.1600,60,97,351715
1.8768,0.1906,40.2600,60,97,351718
1.8964,0.1955,40.1600,60,97,351722
1.8915,0.1955,40.2000,60,97,351725
1.8719,0.1906,40.2600,60,97,351728
1.9159,0.2004,40.1600,60,97,351731
1.8768,0.1906,40.2600,60,97,351735
1.9110,0.2004,40.0600,60,97,351738
1.8866,0.1857,40.3000,60,97,351741
1.8524,0.1906,40.3300,60,97,351746
1.8671,0.1906,40.3000,60,97,351749
1.8719,0.2053,40.2600,60,97,351752
1.9159,0.2004,39.6700,60,97,351756
1.8719,0.2004,40.2300,60,97,351759
1.8817,0.1857,40.3300,60,97,351762
1.8915,0.1955,40.2300,60,97,351766
1.8866,0.1906,40.2600,60,97,351769
1.9404,0.2004,40.1000,60,97,351772
1.8915,0.1955,40.2300,60,97,351775
1.8817,0.1906,40.2000,60,97,351779
1.8817,0.2004,40.3000,60,97,351782
1.8817,0.1955,40.2600,60,97,351785
1.9159,0.2004,40.1000,60,97,351790
1.8671,0.1955,40.2300,60,97,351793
1.8817,0.1955,40.2300,60,97,351796
1.8622,0.1857,40.3000,60,97,351800
1.8671,0.1711,40.2600,60,97,351803
1.8719,0.2248,40.2000,60,97,351806
1.8622,0.1955,40.3000,60,97,351810
1.8866,0.2004,40.1600,60,97,351813
1.8622,0.1906,40.2300,60,97,351816
1.8866,0.1955,40.2300,60,97,351819
1.8817,0.1955,40.2000,60,97,351823
1.8768,0.1857,40.2600,60,97,351826
1.9159,0.1955,40.1300,60,97,351830
1.8866,0.1955,40.2300,60,97,351834
1.8866,0.1955,40.2600,60,97,351837
1.9062,0.1955,40.0600,61,97,351840
1.8768,0.2102,40.3600,61,97,351845
1.8768,0.1711,40.2600,61,97,351848
1.9208,0.2102,40.0600,61,97,351852
1.8719,0.1955,40.2600,61,97,351855
1.8719,0.1906,40.2000,61,97,351858
1.8622,0.1906,40.3000,61,97,351862
1.8671,0.1857,40.2300,61,97,351865
1.9110,0.2004,40.2300,61,97,351868
1.8866,0.2004,40.3600,61,97,351872
1.9013,0.1955,40.2300,61,97,351876
1.8768,0.1906,40.3600,61,97,351879
1.8866,0.1955,40.3300,61,97,351882
1.8915,0.1955,40.3000,61,97,351886
1.8719,0.2004,40.3600,61,97,351889
1.8964,0.2053,40.1600,61,97,351892
1.8671,0.1955,40.2000,61,97,351896
1.8622,0.1955,40.2600,61,97,351899
1.8915,0.2004,40.2300,61,97,351902
1.8719,0.2199,40.2600,61,97,351905
1.9110,0.1906,40.1000,61,97,351909
1.8915,0.1906,40.2300,61,97,351912
1.8719,0.1906,40.2600,61,97,351916
1.8915,0.2004,40.2000,61,97,351920
1.8768,0.1906,40.3300,61,97,351923
1.9355,0.2151,40.0300,61,97,351926
1.8964,0.1906,40.1300,61,97,351930
1.8866,0.1955,40.2600,61,97,351933
1.8817,0.1906,40.3300,61,97,351936
1.8622,0.1906,40.2600,61,97,351940
1.9110,0.2004,40.0600,61,97,351943
1.8768,0.1955,40.2300,61,97,351946
1.8817,0.2053,40.3000,61,97,351949
1.9013,0.1906,40.3000,61,97,351953
1.8866,0.1906,40.2600,61,97,351956
1.9306,0.2053,40.1000,61,97,351960
1.8915,0.1955,40.3600,61,97,351964
1.8915,0.2248,40.2000,61,97,351967
1.8719,0.1906,40.2000,61,97,351970
1.8719,0.1906,40.2600,61,97,351974
1.9159,0.1906,40.1000,61,97,351977
1.8719,0.1955,40.3000,61,97,351980
1.8964,0.1955,40.1000,61,97,351984
1.8915,0.1906,40.2300,61,97,351987
1.9110,0.1906,40.2600,61,97,351990
1.9355,0.1906,40.2000,61,97,351993
1.9110,0.1906,40.5000,61,97,351997
1.9550,0.1955,40.1600,61,97,352001
1.9453,0.1955,40.2600,61,97,352004
1.9599,0.1906,40.2600,61,97,352008
1.9795,0.1955,40.2300,61,97,352011
1.9648,0.1955,40.2000,61,97,352014
1.9941,0.1955,40.0600,61,97,352018
1.9550,0.1906,40.3300,61,97,352021
1.9550,0.1906,40.3000,61,97,352024
1.9892,0.2102,40.1600,61,97,352028
1.9550,0.1906,40.2600,61,97,352031
1.9990,0.2053,40.0300,61,97,352034
1.9697,0.1906,40.1600,61,97,352037
1.9453,0.1906,40.3300,61,97,352041
1.9453,0.1955,40.2300,61,97,352045
1.9208,0.1906,40.4700,61,97,352048
1.9648,0.2444,40.0000,61,97,352052
1.9208,0.2004,40.2000,61,97,352055
1.8964,0.1906,40.2000,61,97,352058
1.8915,0.2053,40.3600,61,97,352062
1.8866,0.1906,40.3300,61,97,352065
1.9257,0.2053,40.4700,61,97,352068
1.8719,0.1955,40.2300,61,97,352071
1.8768,0.1955,40.2600,61,97,352075
1.8377,0.2004,40.2600,61,97,352078
1.8133,0.1906,40.2000,61,97,352081
1.8182,0.2297,40.2300,61,97,352086
1.7840,0.1955,40.3300,61,97,352089
1.8084,0.1955,39.9600,61,97,352092
1.7937,0.1955,40.3300,61,97,352096
1.7840,0.1906,40.2600,61,97,352099
1.8231,0.2053,40.1300,61,97,352102
1.8035,0.1906,40.3000,61,97,352106
1.8280,0.1955,40.1600,61,97,352109
1.8133,0.2004,40.1600,61,97,352112
1.7986,0.1955,40.3000,61,97,352115
1.8084,0.2004,40.1600,61,97,352119
1.7889,0.1955,40.2600,61,97,352122
1.8426,0.1955,40.0600,61,97,352125
1.7840,0.1955,40.3300,61,97,352130
1.7889,0.2004,40.2300,61,97,352133
1.8035,0.1906,40.2300,61,97,352136
1.7791,0.1906,40.3000,61,97,352140
1.7889,0.2102,40.0600,61,97,352143
1.7058,0.1955,40.2000,61,97,352146
1.6667,0.1906,40.2600,61,97,352149
1.6862,0.1955,40.2600,61,97,352153
1.7644,0.1906,40.3600,61,97,352156
1.9697,0.2248,40.0300,61,97,352159
2.1310,0.1955,40.3000,61,97,352163
2.3363,0.1906,40.2000,61,97,352166
2.5318,0.1906,40.2300,61,97,352169
2.6833,0.1906,40.2600,61,97,352174
2.8201,0.2053,40.1600,61,97,352177
2.8250,0.1955,40.2300,61,97,352180
2.8592,0.1906,40.1600,61,97,352184
2.8152,0.1906,40.3000,61,97,352187
2.7664,0.1906,40.1600,61,97,352190
2.7419,0.1906,40.1600,61,97,352193
2.5806,0.1906,40.2600,61,97,352197
2.4438,0.2199,39.8000,61,97,352200
2.2239,0.1955,40.3600,61,97,352203
2.0479,0.1906,40.2600,61,97,352207
1.9208,0.1955,40.1600,61,97,352210
1.8084,0.2199,40.2300,61,97,352214
1.7644,0.2053,40.1600,61,97,352217
1.6716,0.1955,40.5300,61,97,352221
1.6373,0.1955,40.2600,61,97,352224
1.6325,0.2004,40.2300,61,97,352227
1.5982,0.1955,40.2600,61,97,352231
1.5934,0.1955,40.1000,61,97,352234
1.5738,0.2053,40.2000,61,97,352237
1.5689,0.1955,40.2600,61,97,352241
1.5885,0.2004,40.3600,61,97,352244
1.5836,0.1906,40.2600,61,97,352247
1.6325,0.2004,40.0000,61,97,352251
1.6129,0.1955,40.2000,61,97,352254
1.6178,0.1955,40.2600,61,97,352258
1.6325,0.1906,40.2300,61,97,352261
1.6325,0.1955,40.3000,61,97,352265
1.6862,0.2102,40.0000,61,97,352268
1.6520,0.1955,40.2300,61,97,352271
1.6569,0.2053,40.3300,61,97,352275
1.6667,0.1955,40.2600,61,97,352278
1.6667,0.2102,40.3600,61,97,352281
1.7107,0.2102,40.2000,61,97,352285
1.6862,0.1955,40.2600,61,97,352288
1.6960,0.1955,40.1600,61,97,352291
1.6764,0.1955,40.2600,61,97,352295
1.6764,0.2053,40.2600,61,97,352299
1.7058,0.2004,40.1000,61,97,352302
1.6960,0.1955,40.3000,61,97,352305
1.7302,0.2004,40.1300,61,97,352309
1.7253,0.1711,40.2300,61,97,352312
1.7449,0.1955,40.3000,61,97,352315
1.7595,0.1955,40.3000,61,97,352319
1.7400,0.1906,40.3000,61,97,352322
1.7742,0.1955,40.1600,61,97,352325
1.7595,0.1955,40.2300,61,97,352329
1.7693,0.1955,40.2600,61,97,352332
1.7937,0.1906,40.2600,61,97,352335
1.7840,0.1906,40.3000,61,97,352338
1.8182,0.2004,40.0000,61,97,352343
1.7889,0.1906,40.2300,61,97,352346
1.7937,0.1906,40.2600,61,97,352349
1.8084,0.2493,40.2000,61,97,352353
1.7937,0.1906,40.2300,61,97,352356
1.8426,0.2053,40.0000,61,97,352359
1.8182,0.2395,40.2000,61,97,352363
1.8231,0.1955,40.3000,61,97,352366
1.8328,0.2151,40.2000,61,97,352369
1.8280,0.1955,40.3000,61,97,352373
1.8817,0.2102,39.9600,61,97,352376
1.8475,0.2053,40.1600,61,97,352379
1.8133,0.1906,40.2300,61,97,352382
1.8133,0.2102,40.2300,61,97,352387
1.8133,0.1906,40.3000,61,97,352390
1.8426,0.2053,40.2300,61,97,352393
1.8182,0.1955,40.2600,61,97,352397
1.8328,0.1955,40.1600,61,97,352400
1.8133,0.1955,40.2600,61,97,352403
1.8133,0.1906,40.2600,61,97,352407
1.8377,0.2199,40.2300,61,97,352410
1.8231,0.1906,40.3000,61,97,352413
1.8426,0.2004,40.2000,61,97,352417
1.8035,0.1955,40.2600,61,97,352420
1.8035,0.1906,40.2600,61,97,352423
1.8280,0.2053,40.1300,61,97,352427
1.7889,0.1955,40.3300,61,97,352431
1.8133,0.1955,40.2000,61,97,352434
1.7889,0.1955,40.2300,61,97,352437
1.7742,0.1955,40.2600,61,97,352441
1.7889,0.2004,40.1600,61,97,352444
1.8035,0.1955,40.2600,61,97,352447
1.8328,0.2004,40.0600,61,97,352451
1.8768,0.2102,39.4800,61,97,352455
1.8426,0.2004,40.2300,61,97,352459
1.8524,0.1906,40.2300,61,97,352462
1.8475,0.2004,40.3000,61,97,352465
1.8377,0.1955,40.3000,61,97,352470
1.8671,0.2346,40.1300,61,97,352473
1.8280,0.2004,40.3000,61,97,352476
1.8328,0.1906,40.1600,61,97,352479
1.8231,0.2053,40.2300,61,97,352483
1.8475,0.1906,40.2600,61,97,352486
1.8915,0.2053,40.1600,61,97,352489
1.8866,0.1906,40.3300,61,97,352493
1.9306,0.2004,40.1600,61,97,352496
1.9159,0.2004,40.2000,61,97,352499
1.9306,0.1955,40.2600,61,97,352503
1.9453,0.2053,40.1600,61,97,352506
1.9355,0.1955,40.2300,61,97,352509
1.9746,0.1955,40.1300,61,97,352514
1.9550,0.1955,40.2000,61,97,352517
1.9550,0.1906,40.3300,61,97,352520
1.9599,0.2004,40.2300,61,97,352523
1.9501,0.1955,40.2000,61,97,352527
1.9844,0.2004,40.2300,61,97,352530
1.9453,0.1955,39.5700,61,97,352533
1.9453,0.2248,40.2600,61,97,352537
1.9550,0.2053,40.2300,61,97,352540
1.9208,0.1955,40.2600,61,97,352543
1.9746,0.1906,40.0300,61,97,352547
1.9355,0.2004,40.2000,61,97,352550
1.9159,0.2004,40.2300,61,97,352553
1.9257,0.2004,40.0600,61,97,352558
1.9208,0.1955,40.3300,61,97,352561
1.9844,0.2102,40.1600,61,97,352564
1.9501,0.2004,40.2000,61,97,352567
1.9355,0.1857,40.2000,61,97,352571
1.9257,0.1955,40.2600,61,97,352574
1.9110,0.1955,40.2300,61,97,352577
1.9501,0.2151,40.1600,61,97,352581
1.9208,0.1955,40.3000,61,97,352584
1.9404,0.2004,40.1600,61,97,352587
1.9257,0.2004,40.3600,61,97,352591
1.9257,0.1955,40.3000,61,97,352594
1.9453,0.2053,40.2600,61,97,352598
1.9306,0.1955,40.2600,61,97,352601
1.9306,0.2004,40.2300,61,97,352605
1.8964,0.1955,40.3300,61,97,352608
1.8915,0.1906,40.2600,61,97,352611
1.9159,0.2053,40.1600,61,97,352615
1.8866,0.1955,40.2600,61,97,352618
1.9062,0.1955,40.1000,61,97,352621
1.8866,0.2053,40.2300,61,97,352625
1.8768,0.1955,40.2600,61,97,352628
1.8866,0.2004,40.1600,61,97,352631
1.8719,0.1906,40.3000,61,97,352635
1.9159,0.2004,40.1300,61,97,352638
1.8768,0.1906,40.2000,61,97,352642
1.8768,0.1955,40.2600,61,97,352645
1.8719,0.2199,40.2300,61,97,352649
1.8671,0.1906,40.2600,61,97,352652
1.9062,0.2053,39.9600,61,97,352655
1.8524,0.2004,40.2300,61,97,352659
1.8475,0.1906,40.3300,61,97,352662
1.8573,0.2053,40.2300,61,97,352665
1.8573,0.1955,40.2000,61,97,352669
1.9159,0.2346,40.1300,61,97,352672
1.8817,0.2053,40.2000,61,97,352675
1.8768,0.1955,40.2000,61,97,352678
1.8671,0.2053,40.3300,61,97,352683
1.8671,0.1955,40.2600,61,97,352686
1.9013,0.2053,40.2600,61,97,352689
1.8671,0.2053,40.3300,61,97,352693
1.8866,0.2004,40.2000,61,97,352696
1.8475,0.2004,40.2600,61,97,352699
1.8280,0.2102,40.3600,61,97,352703
1.8426,0.1906,40.2000,61,97,352706
1.8231,0.2004,40.3600,61,97,352709
1.8573,0.2053,40.3300,61,97,352712
1.8426,0.2004,40.3000,61,97,352716
1.8622,0.1955,40.2300,61,97,352719
1.8768,0.2004,40.1600,61,97,352722
1.8719,0.2004,40.2600,61,97,352727
1.8964,0.1906,40.2000,61,97,352730
1.8622,0.2102,40.2600,61,97,352733
1.8475,0.1906,40.3300,61,97,352737
1.8524,0.2004,40.1300,61,97,352740
1.8231,0.1955,40.2600,61,97,352743
1.8671,0.2053,40.3300,61,97,352747
1.8622,0.2053,40.2300,61,97,352750
1.8671,0.1955,40.2600,61,97,352753
1.8866,0.2004,40.2300,61,97,352756
1.8915,0.1955,40.2600,61,97,352760
1.9453,0.2102,40.0300,61,97,352763
1.9208,0.1906,40.1600,61,97,352766
1.8866,0.1906,40.2600,61,97,352771
1.8817,0.2004,40.2600,61,97,352774
1.8768,0.2004,40.2600,61,97,352777
1.9306,0.2151,40.1600,61,97,352781
1.8719,0.2004,40.3300,61,97,352784
1.8768,0.1906,40.2300,61,97,352787
1.8573,0.2004,40.3600,61,97,352791
1.8573,0.1955,40.3000,61,97,352794
1.8719,0.2102,40.2000,61,97,352797
1.8475,0.2004,40.3000,61,97,352800
1.8719,0.2102,40.1600,61,97,352804
1.8622,0.2053,40.2600,61,97,352807
1.8671,0.2004,40.2600,61,97,352811
1.9062,0.2102,40.1300,61,97,352815
1.8768,0.1955,40.3000,61,97,352818
1.8915,0.2053,40.1300,61,97,352821
1.8524,0.2004,40.2000,61,97,352825
1.8573,0.1955,40.2600,61,97,352828
1.8573,0.2004,40.0000,61,97,352831
1.8475,0.1955,40.2600,61,97,352835
1.8817,0.2004,40.1000,61,97,352838
1.8671,0.2004,40.3000,61,97,352841
1.8768,0.2004,40.3300,61,97,352844
1.8866,0.2102,40.2300,61,97,352848
1.8768,0.1906,40.2600,61,97,352851
1.9159,0.2053,40.0300,61,97,352855
1.8768,0.1906,40.2300,61,97,352859
1.8768,0.2004,40.3600,61,97,352862
1.8866,0.2053,40.2000,61,97,352865
1.8768,0.1906,40.2600,61,97,352869
1.9306,0.2102,40.0300,61,97,352872
1.8915,0.2297,40.2600,61,97,352875
1.8768,0.1906,40.2300,61,97,352878
1.8866,0.2053,40.2600,61,97,352882
1.8915,0.2004,40.2300,61,97,352885
1.9453,0.2151,40.1000,61,97,352888
1.8964,0.2004,40.2000,61,97,352892
1.8964,0.1906,40.2000,61,97,352896
1.8866,0.2004,40.4000,61,97,352899
1.8866,0.2004,40.2300,61,97,352903
1.9159,0.2004,40.2000,61,97,352906
1.8768,0.2004,40.3000,61,97,352909
1.8915,0.2004,40.2000,61,97,352912
1.8719,0.2004,40.3600,61,97,352916
1.8719,0.2004,40.2600,61,97,352919
1.8915,0.2053,40.2000,61,97,352922
1.8768,0.2053,40.2300,61,97,352926
1.9159,0.1906,40.2300,61,97,352929
1.8964,0.2004,40.2000,61,97,352932
1.9355,0.2004,40.3000,61,97,352936
1.9501,0.2053,40.1600,61,97,352940
1.9257,0.2053,40.2600,61,97,352943
1.9648,0.2004,40.1600,61,97,352946
1.9501,0.2004,40.2600,61,97,352950
1.9404,0.2004,40.3000,61,97,352953
1.9453,0.2053,40.1600,61,97,352956
1.9306,0.1955,40.2300,61,97,352960
1.9795,0.2199,40.1000,61,97,352963
1.9599,0.1955,40.2300,61,97,352966
1.9697,0.2199,40.3000,61,97,352970
1.9941,0.2004,40.2300,61,97,352973
1.9941,0.2004,40.3000,61,97,352976
2.0479,0.2102,40.0600,61,97,352979
1.9990,0.2004,40.2300,61,97,352984
1.9892,0.2004,40.3000,61,97,352987
1.9795,0.2004,39.5700,61,97,352990
1.9648,0.2004,40.3600,61,97,352994
2.0088,0.2199,40.1300,61,97,352997
1.9404,0.2053,39.6700,61,97,353000
1.9159,0.1955,40.2000,61,97,353004
1.9062,0.2004,40.3300,61,97,353007
1.8964,0.2004,40.2300,61,97,353010
1.9355,0.2004,40.1300,61,97,353013
1.8866,0.2004,40.1600,61,97,353017
1.8866,0.2053,40.1600,61,97,353020
1.8573,0.1906,40.2300,61,97,353024
1.8377,0.2004,40.2300,61,97,353028
1.8573,0.2053,40.2300,61,97,353031
1.8035,0.2004,40.2300,61,97,353034
1.8377,0.2053,40.2000,61,97,353038
1.8133,0.1906,40.3600,61,97,353041
1.8231,0.2004,40.3000,61,97,353044
1.8328,0.2004,40.4300,61,97,353048
1.8182,0.2004,40.2600,61,97,353051
1.8475,0.2004,40.1000,61,97,353054
1.8084,0.2004,40.2300,61,97,353057
1.8084,0.2053,40.3300,61,97,353061
1.8328,0.2053,40.1600,61,97,353064
1.8328,0.2053,40.1600,61,97,353070
1.8133,0.2004,40.3300,61,97,353073
1.8426,0.2102,40.0000,61,97,353076
1.7840,0.2102,40.2300,61,97,353080
1.7351,0.1955,40.3000,61,97,353083
1.7058,0.2004,40.2000,61,97,353086
1.6911,0.2297,40.4000,61,97,353090
1.7693,0.2102,40.0600,61,97,353093
1.8328,0.2004,40.2300,61,97,353096
2.0088,0.2004,40.2000,61,97,353099
2.1896,0.2004,40.2300,61,97,353103
2.4096,0.2004,40.2600,61,97,353106
2.6344,0.2102,40.1600,61,97,353110
2.7322,0.2053,40.2600,61,97,353114
2.8495,0.2053,40.2600,61,97,353117
2.8690,0.2053,40.2300,61,97,353120
2.9228,0.2004,40.3300,61,97,353124
2.9326,0.2102,40.1300,61,97,353127
2.8446,0.1906,40.2600,61,97,353130
2.8006,0.2053,40.1600,61,97,353134
2.6393,0.1955,40.1300,61,97,353137
2.4585,0.2004,40.3600,61,97,353140
2.2630,0.2004,40.1300,61,97,353143
2.0626,0.2004,40.4700,61,97,353147
1.9404,0.2004,40.0600,61,97,353150
1.8084,0.2053,40.3600,61,97,353154
1.7155,0.2004,40.2300,61,97,353158
1.6569,0.2151,40.2000,61,97,353161
1.6080,0.2004,40.2600,61,97,353164
1.6129,0.2102,40.0600,61,97,353167
1.5543,0.2004,40.3300,61,97,353171
1.5396,0.2004,40.2300,61,97,353174
1.5396,0.2053,40.3000,61,97,353177
1.5347,0.2053,40.3600,61,97,353181
1.5934,0.2102,40.0000,61,97,353184
1.5689,0.2053,40.2300,61,97,353187
1.5640,0.2004,40.3000,61,97,353191
1.5787,0.2053,40.3300,61,97,353195
1.5787,0.2004,40.1600,61,97,353198
1.6422,0.2199,40.1000,61,97,353202
1.6325,0.2053,40.4000,61,97,353205
1.6569,0.1955,40.2000,61,97,353208
1.6667,0.2004,40.2600,61,97,353211
1.6862,0.2004,40.3300,61,97,353215
1.7253,0.2199,40.1600,61,97,353218
1.7009,0.2004,40.2600,61,97,353221
1.7155,0.2053,40.2600,61,97,353225
1.6862,0.1955,40.3000,61,97,353228
1.6862,0.2004,40.4700,61,97,353231
1.7009,0.2053,40.3000,61,97,353235
1.7253,0.2053,40.2300,61,97,353239
1.7302,0.2053,40.1600,61,97,353242
1.7155,0.2004,40.3300,61,97,353245
1.7253,0.2004,40.2600,61,97,353249
1.7449,0.2102,40.2000,61,97,353252
1.7400,0.2004,40.3600,61,97,353255
1.7595,0.2053,40.1300,61,97,353259
1.7546,0.2004,40.2000,61,97,353262
1.7546,0.2053,40.3300,61,97,353265
1.7840,0.2102,39.6000,61,97,353269
1.7791,0.2053,40.3000,61,97,353272
1.8622,0.2102,40.0600,61,97,353275
1.7986,0.2004,40.2000,61,97,353280
1.7889,0.2102,40.3000,61,97,353283
1.7889,0.2004,40.2300,61,97,353286
1.7791,0.2004,40.2600,61,97,353289
1.8328,0.2102,39.9600,61,97,353293
1.8035,0.2004,40.2600,61,97,353296
1.8084,0.1955,40.3600,61,97,353299
1.8035,0.2053,40.2600,61,97,353303
1.7937,0.2004,40.3000,61,97,353306
1.8524,0.2199,40.1000,61,97,353309
1.8182,0.2004,40.2300,61,97,353313
1.8328,0.2004,40.2000,61,97,353316
1.8280,0.2004,40.4700,61,97,353319
1.8280,0.2053,40.2000,61,97,353323
1.8622,0.2151,40.1600,61,97,353327
1.8280,0.2053,40.3600,61,97,353330
1.8328,0.2053,40.2000,61,97,353333
1.8182,0.2004,40.2300,61,97,353337
1.8133,0.2004,40.2600,61,97,353340
1.8280,0.2346,40.2000,61,97,353343
1.8182,0.2053,40.3600,61,97,353347
1.8377,0.2053,40.1600,61,97,353350
1.8035,0.2004,40.2300,61,97,353353
1.8035,0.2053,40.3300,61,97,353356
1.8133,0.2053,40.2600,61,97,353360
1.8035,0.2004,40.3300,61,97,353363
1.8328,0.2102,40.2300,61,97,353367
1.8035,0.2004,40.3000,61,97,353371
1.7986,0.2004,40.3300,61,97,353374
1.8133,0.2102,40.1000,61,97,353377
1.7889,0.2004,40.4000,61,97,353381
1.8280,0.2199,40.0300,61,97,353384
1.8231,0.2053,40.1600,61,97,353387
1.8133,0.2004,40.3300,61,97,353390
1.8475,0.2102,40.2000,61,97,353394
1.8231,0.2004,40.3300,61,97,353397
1.8768,0.2102,40.0000,61,97,353400
1.8475,0.2053,40.1600,61,97,353404
1.8377,0.2004,40.5000,61,97,353408
1.8328,0.2444,40.3000,61,97,353411
1.8280,0.2053,40.3600,61,97,353415
1.8671,0.2199,40.0300,61,97,353418
1.8231,0.2053,40.3300,61,97,353421
1.8280,0.2004,40.3000,61,97,353424
1.8280,0.2053,40.2300,61,97,353428
1.8328,0.2199,40.3000,61,97,353431
1.8915,0.2102,40.1000,61,97,353434
1.8671,0.2053,40.2600,61,97,353438
1.8817,0.2297,40.2000,61,97,353441
1.8768,0.2053,40.3600,61,97,353444
1.8817,0.2004,40.2600,61,97,353448
1.9208,0.2151,40.1000,61,97,353452
1.8964,0.2053,40.4000,61,97,353455
1.9159,0.2102,40.1000,61,97,353459
1.9062,0.1955,40.2600,61,97,353462
1.9062,0.2004,40.3600,61,97,353465
1.9257,0.1955,40.3600,61,97,353468
1.9159,0.2004,40.2300,61,97,353472
1.9550,0.2004,40.2600,61,97,353475
1.9257,0.2004,40.2000,61,97,353478
1.9501,0.1955,40.2600,61,97,353482
1.9453,0.2053,40.1600,61,97,353485
1.9355,0.2053,40.4300,61,97,353488
1.9892,0.2004,40.1000,61,97,353492
1.9355,0.2004,40.2600,61,97,353496
1.9257,0.2248,40.3600,61,97,353499
1.9306,0.2102,40.2000,61,97,353502
1.8964,0.2004,40.2600,61,97,353506
1.9404,0.2297,40.1300,61,97,353509
1.9208,0.2053,40.1600,61,97,353512
1.9062,0.2004,40.1600,61,97,353516
1.9306,0.2102,40.3000,61,97,353519
1.9208,0.2004,40.2300,61,97,353522
1.9795,0.2199,40.0300,61,97,353526
1.9306,0.2102,40.2600,61,97,353529
1.9159,0.2004,40.1300,61,97,353532
1.9062,0.2053,40.3000,61,97,353536
1.9013,0.2053,40.2600,61,97,353540
1.9550,0.2199,39.6700,61,97,353543
1.9110,0.2102,40.2600,61,97,353546
1.9159,0.2053,40.2000,61,97,353550
1.8866,0.2053,40.4000,61,97,353553
1.8817,0.1955,40.2600,61,97,353556
1.9062,0.2102,40.2000,61,97,353560
1.8866,0.2053,40.2000,61,97,353563
1.9062,0.2004,40.1300,61,97,353566
1.8768,0.2004,40.3000,61,97,353569
1.8817,0.2004,40.2000,61,97,353573
1.9013,0.2053,40.1600,61,97,353576
1.8622,0.2053,40.3300,61,97,353580
1.8817,0.2248,40.1600,61,97,353584
1.8622,0.2004,40.1600,61,97,353587
1.8622,0.2004,40.3300,61,97,353590
1.8817,0.2053,40.2000,61,97,353594
1.8719,0.2053,40.3300,61,97,353597
1.9013,0.2053,40.1000,61,97,353600
1.8964,0.2053,40.2300,61,97,353604
1.8622,0.2004,40.3300,61,97,353607
1.8622,0.2053,40.2000,61,97,353610
1.8524,0.2004,40.2600,61,97,353613
1.8817,0.2102,40.0300,61,97,353617
1.8573,0.1955,40.2600,61,97,353620
1.8524,0.2004,40.3000,61,97,353624
1.8622,0.2102,40.2300,61,97,353628
1.8622,0.2004,40.2600,61,97,353631
1.9208,0.2199,40.0300,61,97,353634
1.8719,0.2102,40.2000,61,97,353638
1.8475,0.1955,40.2300,61,97,353641
1.8524,0.2053,40.3000,61,97,353644
1.8475,0.1955,40.3600,61,97,353647
1.8964,0.2151,40.1000,61,97,353651
1.8671,0.2053,40.2300,61,97,353654
1.8768,0.1906,40.2000,61,97,353657
1.8622,0.2053,40.2600,61,97,353661
1.8622,0.2053,40.3000,61,97,353665
1.8817,0.2102,40.1600,61,97,353668
1.8573,0.2053,40.2600,61,97,353672
1.8768,0.2151,40.1300,61,97,353675
1.8524,0.2053,40.1000,61,97,353678
1.8426,0.2004,40.3300,61,97,353682
1.8426,0.1955,40.2600,61,97,353685
1.8671,0.2102,40.2000,61,97,353689
1.8475,0.2346,40.2600,61,97,353692
1.8964,0.2102,40.0300,61,97,353695
1.8719,0.2053,40.2600,61,97,353698
1.8524,0.2004,40.3300,61,97,353702
1.8573,0.2102,40.2300,61,97,353705
1.8524,0.2053,40.2300,61,97,353709
1.8964,0.2297,40.0300,61,97,353713
1.8573,0.2102,40.1600,61,97,353716
1.8426,0.2151,40.2300,61,97,353719
1.8475,0.2053,40.2600,61,97,353723
1.8524,0.2053,40.2600,61,97,353726
1.9110,0.2151,40.1300,61,97,353729
1.8768,0.2053,40.2300,61,97,353733
1.9257,0.2053,40.1600,61,97,353736
1.8768,0.2053,40.1000,61,97,353739
1.8719,0.2053,40.2600,61,97,353742
1.8964,0.2102,40.2300,61,97,353746
1.8719,0.2053,40.2000,61,97,353750
1.8866,0.2151,40.1300,61,97,353753
1.8622,0.2053,40.2300,61,97,353757
1.8573,0.2053,40.3300,61,97,353760
1.8915,0.2102,40.1600,61,97,353763
1.8768,0.2004,40.2600,61,97,353767
1.8719,0.2004,40.2000,61,97,353770
1.8426,0.2053,40.1600,61,97,353773
1.8377,0.2053,40.2300,61,97,353777
1.8671,0.2053,40.2300,61,97,353780
1.8622,0.2102,40.2600,61,97,353783
1.9404,0.2102,40.0600,61,97,353786
1.8817,0.2004,40.2600,61,97,353790
1.8866,0.2053,40.2300,61,97,353794
1.9013,0.2151,40.3000,61,97,353797
1.8964,0.2053,40.3300,61,97,353801
1.9453,0.2151,40.1000,61,97,353804
1.8964,0.2053,40.2600,61,97,353807
1.9159,0.1955,40.3600,61,97,353811
1.8866,0.2053,40.1600,61,97,353814
1.8719,0.2004,40.3000,61,97,353817
1.9208,0.2199,40.0600,61,97,353821
1.8719,0.2102,40.1300,61,97,353824
1.8622,0.2053,40.2600,61,97,353827
1.8573,0.2053,40.3300,61,97,353830
1.8573,0.2004,40.2600,61,97,353835
1.8866,0.2102,40.1000,61,97,353838
1.8524,0.2053,40.2300,61,97,353841
1.8573,0.2151,40.2600,61,97,353845
1.8475,0.2053,40.2600,61,97,353848
1.8524,0.2102,40.2300,61,97,353851
1.8768,0.2102,40.2000,61,97,353855
1.8573,0.2053,40.2300,61,97,353858
1.8817,0.2444,40.1300,61,97,353861
1.8573,0.2004,40.2600,61,97,353865
1.8524,0.2053,40.2600,61,97,353868
1.8915,0.2053,40.2600,61,97,353871
1.8475,0.2053,40.3600,61,97,353874
1.8671,0.2444,40.1600,61,97,353879
1.8377,0.2053,40.2600,61,97,353882
1.8475,0.2053,40.2300,61,97,353885
1.8866,0.2102,40.3000,61,97,353889
1.8915,0.2151,40.3600,61,97,353892
1.9648,0.2102,40.0300,61,97,353895
1.9501,0.2102,40.2000,61,97,353899
1.9404,0.2004,40.2000,61,97,353902
1.9550,0.2053,40.2300,61,97,353905
1.9404,0.2053,40.3300,61,97,353908
1.9941,0.2151,40.0000,61,97,353912
1.9550,0.2102,40.1600,61,97,353915
1.9404,0.2004,40.2600,61,97,353918
1.9355,0.2102,40.2600,61,97,353923
1.9159,0.2004,40.2600,61,97,353926
1.9697,0.2199,40.1000,61,97,353929
1.9453,0.2053,40.2300,61,97,353933
1.9550,0.2004,40.1300,61,97,353936
1.9648,0.2199,40.3600,61,97,353939
1.9795,0.2053,40.3000,61,97,353943
2.0186,0.2151,40.2000,61,97,353946
1.9844,0.2053,40.3300,61,97,353949
1.9892,0.2053,40.2000,61,97,353952
1.9648,0.2004,40.2300,61,97,353956
1.9257,0.2053,40.3000,61,97,353959
1.9404,0.2151,40.1300,61,97,353963
1.8817,0.2053,40.2600,61,97,353967
1.8915,0.2102,40.1300,61,97,353970
1.8719,0.2004,40.3000,61,97,353973
1.8475,0.2004,40.3600,61,97,353977
1.8524,0.2395,40.1600,61,97,353980
1.8328,0.2053,40.2600,61,97,353983
1.8426,0.2053,40.1300,61,97,353987
1.8280,0.2053,40.2600,61,97,353990
1.7986,0.2053,40.3300,61,97,353993
1.7937,0.2102,40.3300,61,97,353996
1.7791,0.2346,40.2600,61,97,354000
1.8231,0.2102,40.0000,61,97,354003
1.7840,0.2053,40.3000,61,97,354007
1.7889,0.2004,40.2300,61,97,354011
1.7937,0.2102,40.4300,61,97,354014
1.7742,0.2004,40.3000,61,97,354017
1.8280,0.2151,40.0000,61,97,354021
1.7937,0.2297,40.1600,61,97,354024
1.7937,0.1955,40.2300,61,97,354027
1.7937,0.2053,40.2600,61,97,354031
1.7889,0.2053,40.3000,61,97,354034
1.8426,0.2151,40.1000,61,97,354037
1.7937,0.2053,40.2000,61,97,354040
1.7840,0.2004,40.1600,61,97,354044
1.7644,0.2053,40.2300,61,97,354048
1.7351,0.2004,40.2300,61,97,354051
1.7302,0.2102,40.2600,61,97,354055
1.6911,0.2004,40.2600,61,97,354058
1.7693,0.2053,40.2000,61,97,354061
1.9159,0.2053,40.2600,61,97,354065
2.0674,0.2004,40.2600,61,97,354068
2.2972,0.2053,40.2600,61,97,354071
2.5171,0.2004,40.2600,61,97,354074
2.7126,0.2102,40.1600,61,97,354078
2.7957,0.2199,40.3600,61,97,354081
2.9081,0.2004,40.3000,61,97,354084
2.9472,0.2102,40.2000,61,97,354088
2.8983,0.1955,40.2300,61,97,354092
2.9081,0.2053,40.1000,61,97,354095
2.8201,0.2053,40.2300,61,97,354099
2.6882,0.2053,40.4000,61,97,354102
2.5611,0.2151,40.1600,61,97,354105
2.3265,0.2053,40.3000,61,97,354108
2.1554,0.2102,40.0600,61,97,354112
1.9306,0.1906,40.2300,61,97,354115
1.7840,0.2053,40.2300,61,97,354118
1.6911,0.2102,40.1600,61,97,354122
1.6227,0.1906,40.2600,61,97,354125
1.6178,0.2151,40.0000,61,97,354128
1.5591,0.1906,40.2300,61,97,354132
1.5347,0.2004,40.3000,61,97,354136
1.5249,0.2346,40.3600,61,97,354139
1.5200,0.2053,40.2600,61,97,354143
1.5689,0.2199,40.2000,61,97,354146
1.5396,0.2004,40.2300,61,97,354149
1.5543,0.2004,40.1600,61,97,354152
1.5591,0.2053,40.3300,61,97,354156
1.5640,0.1906,40.3300,61,97,354159
1.6080,0.2102,40.1300,61,97,354162
1.5787,0.2004,40.3300,61,97,354166
1.6031,0.2053,40.2300,61,97,354169
1.5885,0.2053,40.4700,61,97,354172
1.5982,0.2004,40.3000,61,97,354177
1.6276,0.2102,40.2300,61,97,354180
1.6227,0.2102,40.2600,61,97,354183
1.6569,0.2102,40.2300,61,97,354186
1.6325,0.2053,40.3600,61,97,354190
1.6325,0.2053,40.2600,61,97,354193
1.6422,0.2053,40.2000,61,97,354196
1.6373,0.2053,40.2300,61,97,354200
1.6764,0.2053,40.0600,61,97,354203
1.6764,0.2053,40.3600,61,97,354206
1.6960,0.2053,40.3600,61,97,354210
1.7302,0.2102,40.2000,61,97,354213
1.7155,0.2053,40.1300,61,97,354216
1.7595,0.2151,40.0300,61,97,354220
1.7253,0.2102,40.2600,61,97,354224
1.7107,0.2053,40.3300,61,97,354227
1.7253,0.2102,40.2300,61,97,354230
1.7204,0.2053,40.2300,61,97,354234
1.7889,0.2102,40.1000,61,97,354237
1.7546,0.2102,40.3000,61,97,354240
1.7498,0.2004,40.2000,61,97,354244
1.7498,0.2053,40.2300,61,97,354247
1.7449,0.2053,40.3000,61,97,354250
1.7937,0.2444,40.2000,61,97,354254
1.7644,0.2053,40.2600,61,97,354257
1.7889,0.2053,40.2000,61,97,354260
1.7937,0.1955,40.3600,61,97,354264
1.7986,0.2053,40.2600,61,97,354268
1.8280,0.2199,40.2000,61,97,354271
1.8182,0.2053,40.2600,61,97,354274
1.8084,0.2053,40.2600,61,97,354278
1.7791,0.2053,40.2600,61,97,354281
1.7889,0.2053,39.8300,61,97,354284
1.8280,0.2151,40.1600,61,97,354288
1.8377,0.2151,40.2600,61,97,354291
1.8231,0.2004,40.3000,61,97,354295
1.8573,0.2248,40.0600,61,97,354298
1.8084,0.2004,40.2000,61,97,354301
1.7986,0.2004,40.3600,61,97,354306
1.8035,0.2102,40.3000,61,97,354309
1.7937,0.2004,40.3300,61,97,354312
1.8475,0.2151,39.9600,61,97,354315
1.8084,0.2053,40.2000,61,97,354319
1.8084,0.2004,40.3000,61,97,354322
1.8084,0.2053,40.4300,61,97,354325
1.8084,0.2004,40.3000,61,97,354329
1.8573,0.2199,40.0600,61,97,354332
1.8182,0.2102,40.2300,61,97,354335
1.8231,0.2199,40.2300,61,97,354339
1.8133,0.2053,40.2600,61,97,354342
1.8084,0.2053,40.2300,61,97,354345
1.8475,0.2102,40.1300,61,97,354350
1.8133,0.2053,40.2600,61,97,354353
1.8280,0.2004,40.1300,61,97,354356
1.8035,0.2053,40.2600,61,97,354359
1.8035,0.2199,40.2600,61,97,354363
1.8133,0.2102,40.2000,61,97,354366
1.7937,0.2053,40.2600,61,97,354369
1.8280,0.2053,40.1600,61,97,354373
1.8182,0.2053,40.2600,61,97,354376
1.8377,0.2004,40.3300,61,97,354379
1.8768,0.2004,40.2300,61,97,354383
1.8622,0.2053,40.2600,61,97,354386
1.8915,0.2053,40.0600,61,97,354390
1.8671,0.2053,40.3600,61,97,354393
1.8671,0.2004,40.3600,61,97,354397
1.8915,0.2102,40.3000,61,97,354400
1.8768,0.2053,40.3300,61,97,354403
1.9257,0.2102,40.1000,61,97,354407
1.9110,0.2102,40.2300,61,97,354410
1.8964,0.2053,40.2000,61,97,354413
1.9501,0.2102,40.2000,61,97,354417
1.9110,0.1906,40.2600,61,97,354420
1.9697,0.2151,40.0000,61,97,354423
1.9501,0.2151,40.1600,61,97,354427
1.9257,0.2004,40.2000,61,97,354430
1.9257,0.2053,40.2300,61,97,354434
1.9404,0.2053,40.3000,61,97,354437
1.9697,0.2199,40.1000,61,97,354441
1.9208,0.2102,40.2300,61,97,354444
1.9257,0.2053,40.2600,61,97,354447
1.9110,0.2053,40.2600,61,97,354451
1.9062,0.2004,40.2600,61,97,354454
1.9306,0.2102,40.1600,61,97,354457
1.8964,0.2053,40.2000,61,97,354461
1.9062,0.2102,40.1300,61,97,354464
1.8817,0.2053,40.2300,61,97,354467
1.8768,0.2053,40.2600,61,97,354470
1.9159,0.2151,40.1000,61,97,354475
1.8671,0.2053,40.2600,61,97,354478
1.9159,0.2004,40.2000,61,97,354481
1.8768,0.2004,40.2600,61,97,354485
1.8817,0.2053,40.2000,61,97,354488
1.9013,0.2053,40.1600,61,97,354491
1.8866,0.2053,40.2600,61,97,354495
1.9159,0.2053,40.1300,61,97,354498
1.8768,0.2053,40.2600,61,97,354501
1.8671,0.2053,40.1000,61,97,354505
1.8719,0.2102,40.2300,61,97,354508
1.8524,0.2053,40.3300,61,97,354511
1.8964,0.2102,40.0600,61,97,354514
1.8475,0.1906,40.2300,61,97,354519
1.8524,0.2053,40.3000,61,97,354522
1.8622,0.2151,40.2000,61,97,354525
1.8475,0.2053,40.2600,61,97,354529
1.9013,0.2297,40.0600,61,97,354532
1.8719,0.2102,40.1600,61,97,354535
1.8524,0.2004,40.3000,61,97,354539
1.8573,0.2102,40.3300,61,97,354542
1.8377,0.2053,40.2600,61,97,354545
1.8719,0.2151,40.1000,61,97,354549
1.8328,0.2151,40.3000,61,97,354552
1.8573,0.2004,40.1600,61,97,354555
1.8231,0.2053,40.3000,61,97,354558
1.8328,0.2102,40.2600,61,97,354563
1.8573,0.2102,40.2300,61,97,354566
1.8328,0.2053,40.2300,61,97,354569
1.8524,0.2004,40.1600,61,97,354573
1.8328,0.2053,40.2600,61,97,354576
1.8377,0.2151,40.2600,61,97,354579
1.8573,0.2053,40.2300,61,97,354583
1.8475,0.2102,40.3600,61,97,354586
1.8768,0.2053,40.1000,61,97,354589
1.8475,0.2053,40.3300,61,97,354593
1.8426,0.2053,40.3300,61,97,354596
1.8622,0.2102,40.1600,61,97,354599
1.8377,0.2004,40.2600,61,97,354603
1.8671,0.2102,40.0600,61,97,354607
1.8475,0.2102,40.2600,61,97,354610
1.8280,0.2004,40.2300,61,97,354613
1.8426,0.2102,40.3000,61,97,354617
1.8328,0.2102,40.2600,61,97,354620
1.8915,0.2199,40.1000,61,97,354623
1.8475,0.2102,40.1600,61,97,354627
1.8426,0.2004,40.2600,61,97,354630
1.8328,0.2053,40.2300,61,97,354633
1.8231,0.2053,40.3300,61,97,354637
1.9013,0.2248,40.0600,61,97,354640
1.8280,0.2053,40.2000,61,97,354643
1.8377,0.2004,40.1600,61,97,354647
1.8475,0.2004,40.3000,61,97,354651
1.8475,0.2053,40.2600,61,97,354654
1.8817,0.2151,40.1600,61,97,354657
1.8524,0.2102,40.3300,61,97,354661
1.8671,0.2053,40.3000,61,97,354664
1.8524,0.2053,40.3000,61,97,354667
1.8573,0.2151,40.3000,61,97,354671
1.8915,0.2151,40.1000,61,97,354674
1.8768,0.2053,40.2600,61,97,354677
1.8866,0.2102,40.1600,61,97,354681
1.8475,0.2004,40.2000,61,97,354684
1.8426,0.2004,40.2600,61,97,354688
1.8475,0.2102,40.2600,61,97,354691
1.8280,0.2053,40.2300,61,97,354695
1.8866,0.2053,40.1600,61,97,354698
1.8377,0.2053,40.2000,61,97,354701
1.8426,0.2395,40.3600,61,97,354705
1.8671,0.2102,40.2300,61,97,354708
1.8524,0.2053,40.3300,61,97,354711
1.8915,0.2151,40.0300,61,97,354715
1.8524,0.2053,40.1600,61,97,354718
1.8524,0.2004,40.2600,61,97,354721
1.8524,0.2102,40.2300,61,97,354725
1.8426,0.2053,40.2600,61,97,354728
1.8915,0.2199,40.0300,61,97,354732
1.8524,0.2199,40.2000,61,97,354735
1.8573,0.2004,40.2300,61,97,354739
1.8426,0.2102,40.2000,61,97,354742
1.8328,0.2297,40.3000,61,97,354745
1.8817,0.2102,40.1000,61,97,354749
1.8475,0.2102,40.2000,61,97,354752
1.8768,0.2053,40.1600,61,97,354755
1.8524,0.2053,40.2600,61,97,354759
1.8524,0.2199,40.2600,61,97,354762
1.8915,0.2102,40.2600,61,97,354765
1.8719,0.2102,40.2300,61,97,354769
1.8964,0.2102,40.1000,61,97,354772
1.8719,0.2053,40.3300,61,97,354776
1.8768,0.2053,40.3600,61,97,354779
1.8719,0.2102,40.2300,61,97,354783
1.8573,0.2053,40.2300,61,97,354786
1.8817,0.2151,40.1600,61,97,354789
1.8475,0.2297,40.3000,61,97,354793
1.8573,0.2004,40.3300,61,97,354796
1.8719,0.2102,40.2000,61,97,354799
1.8719,0.2053,40.2600,61,97,354803
1.8671,0.2102,40.2000,61,97,354806
1.8475,0.2102,40.1600,61,97,354809
1.8280,0.2053,40.2600,61,97,354813
1.8573,0.2102,40.1600,61,97,354817
1.8475,0.2004,40.2600,61,97,354820
1.9110,0.2102,40.0300,61,97,354823
1.8719,0.2053,40.2600,61,97,354827
1.8915,0.2004,40.2600,61,97,354830
1.8524,0.2053,40.2600,61,97,354833
1.8524,0.2053,40.2300,61,97,354837
1.9208,0.2102,40.0300,61,97,354840
1.8768,0.2102,40.1600,61,97,354843
1.8768,0.2053,40.2600,61,97,354847
1.8817,0.2102,40.2600,61,97,354850
1.8768,0.2004,40.2600,61,97,354853
1.9110,0.2199,40.1300,61,97,354856
1.8671,0.2053,40.3000,61,97,354861
1.8719,0.2346,40.2000,61,97,354864
1.8622,0.2053,40.2600,61,97,354867
1.8671,0.2151,40.3300,61,97,354871
1.9159,0.2151,40.1300,61,97,354874
1.8964,0.2151,40.2600,61,97,354877
1.9306,0.2151,40.2000,61,97,354881
1.9062,0.2004,40.2000,61,97,354884
1.9257,0.2053,40.2600,61,97,354887
1.9110,0.2102,40.1600,61,97,354891
1.9013,0.2004,40.2600,61,97,354894
1.9355,0.2053,40.1300,61,97,354897
2.0088,0.2151,40.0300,61,97,354902
1.9697,0.2346,40.2600,61,97,354905
1.9746,0.2053,40.3600,61,97,354909
1.9795,0.2102,40.2600,61,97,354912
1.9599,0.2102,40.3600,61,97,354915
2.0039,0.2248,40.0600,61,97,354918
1.9404,0.2102,40.2000,61,97,354922
1.9208,0.2004,40.3300,61,97,354925
1.9062,0.1906,40.2300,61,97,354928
1.8866,0.2053,40.3300,61,97,354932
1.9110,0.2248,40.1300,61,97,354935
1.8622,0.2102,40.2300,61,97,354938
1.8622,0.2346,40.1300,61,97,354942
1.8328,0.2053,40.2300,61,97,354946
1.8280,0.2053,40.3000,61,97,354949
1.8573,0.2102,40.2600,61,97,354952
1.8328,0.2053,40.3300,61,97,354956
1.8622,0.2102,40.1300,61,97,354959
1.8328,0.2053,40.2600,61,97,354962
1.8133,0.2053,40.2300,61,97,354966
1.8231,0.2102,40.2300,61,97,354969
1.7840,0.2053,40.3300,61,97,354972
1.7840,0.2102,40.1300,61,97,354976
1.7595,0.2053,40.3300,61,97,354979
1.7693,0.2053,40.3300,61,97,354982
1.7986,0.2151,40.2600,61,97,354987
1.7889,0.2053,40.2600,61,97,354990
1.8426,0.2151,40.0300,61,97,354993
1.8182,0.2102,40.4300,61,97,354997
1.8084,0.2004,40.2600,61,97,355000
1.8280,0.2102,40.2300,61,97,355003
1.8133,0.2053,40.3300,61,97,355006
1.8719,0.2151,40.0600,61,97,355010
1.8231,0.2102,40.1300,61,97,355013
1.8133,0.2004,40.2600,61,97,355016
1.7791,0.2102,40.2600,61,97,355020
1.7351,0.2151,40.3300,61,97,355023
1.7546,0.2248,40.1600,61,97,355026
1.7302,0.2053,40.2300,61,97,355031
1.8573,0.2053,40.2000,61,97,355034
1.9990,0.2102,40.2300,61,97,355037
2.2287,0.2004,40.3600,61,97,355041
2.4731,0.2151,40.1600,61,97,355044
2.6393,0.2053,40.2600,61,97,355047
2.7908,0.2102,40.1300,61,97,355050
2.8446,0.2053,40.2300,61,97,355054
2.8837,0.2004,40.2600,61,97,355057
2.9326,0.2199,40.2000,61,97,355060
2.8397,0.2053,40.2600,61,97,355064
2.8201,0.2102,40.1600,61,97,355067
2.6931,0.2053,40.3300,61,97,355070
2.5758,0.2151,40.3000,61,97,355075
2.3949,0.2102,40.2300,61,97,355078
2.1750,0.2151,40.3000,61,97,355081
2.0186,0.2151,40.0300,61,97,355084
1.8426,0.2102,40.4700,61,97,355088
1.7302,0.2053,40.3600,61,97,355091
1.6569,0.2102,40.2300,61,97,355094
1.5787,0.2053,40.4700,61,97,355098
1.5738,0.2248,40.0300,61,97,355101
1.5103,0.2053,40.2000,61,97,355104
1.4956,0.2053,40.3300,61,97,355108
1.5054,0.2102,40.2300,61,97,355111
1.5054,0.2102,40.2300,61,97,355115
1.5640,0.2199,40.0300,61,97,355119
1.5494,0.2102,40.3000,61,97,355122
1.5543,0.2004,40.2000,61,97,355125
1.5689,0.2102,40.2300,61,97,355128
1.5689,0.2053,40.3600,61,97,355132
1.6129,0.2053,40.1000,61,97,355135
1.5885,0.2102,40.2300,61,97,355138
1.6031,0.2102,40.1600,61,97,355142
1.6080,0.2053,40.3000,61,97,355145
1.6031,0.2053,40.3600,61,97,355148
1.6276,0.2151,40.2300,61,97,355152
1.6080,0.2102,40.2600,61,97,355155
1.6471,0.2102,40.2300,61,97,355159
1.6667,0.2053,40.2000,61,97,355163
1.6569,0.2053,39.8900,61,97,355166
1.6764,0.2395,40.2300,61,97,355169
1.6764,0.2053,40.2300,61,97,355172
1.7058,0.2053,40.1600,61,97,355176
1.6862,0.2053,40.2600,61,97,355179
1.6862,0.2053,40.2600,61,97,355182
1.7058,0.2151,40.2000,61,97,355186
1.6960,0.2053,40.2600,61,97,355189
1.7302,0.2151,40.2300,61,97,355192
1.7253,0.2102,40.1600,61,97,355196
1.7204,0.2053,40.2600,61,97,355200
1.7498,0.2151,40.3000,61,97,355203
1.7400,0.2102,40.2600,61,97,355207
1.7937,0.2199,40.0000,61,97,355210
1.7595,0.2053,40.2300,61,97,355213
1.7546,0.2151,40.3600,61,97,355216
1.7595,0.2102,40.2600,61,97,355220
1.7546,0.2053,40.2600,61,97,355223
1.8084,0.2199,40.0600,61,97,355226
1.7693,0.2102,40.2600,61,97,355230
1.7791,0.2151,40.2300,61,97,355233
1.7840,0.2102,40.3000,61,97,355236
1.7840,0.2053,40.3000,61,97,355240
1.8182,0.2199,40.2300,61,97,355244
1.7889,0.2102,40.2300,61,97,355247
1.8035,0.2151,40.1300,61,97,355251
1.7937,0.2102,40.4300,61,97,355254
1.8084,0.2053,40.3000,61,97,355257
1.8524,0.2199,40.1000,61,97,355260
1.8231,0.2297,40.2300,61,97,355264
1.8475,0.2102,40.1300,61,97,355267
1.8182,0.2053,40.2000,61,97,355270
1.8231,0.2102,40.2600,61,97,355274
1.8377,0.2102,40.1300,61,97,355277
1.8328,0.2053,40.2600,61,97,355280
1.8671,0.2053,40.1300,61,97,355284
1.8377,0.1955,40.3000,61,97,355288
1.8426,0.2004,40.2600,61,97,355291
1.8377,0.2102,40.2300,61,97,355295
1.8280,0.2053,40.3300,61,97,355298
1.8671,0.2151,40.0600,61,97,355301
1.8182,0.2053,40.2300,61,97,355304
1.8182,0.2004,40.3300,61,97,355308
1.8328,0.2102,40.3000,61,97,355311
1.8280,0.2053,40.3300,61,97,355314
1.8915,0.2199,40.0000,61,97,355318
1.8573,0.2151,40.1600,61,97,355321
1.8475,0.2004,40.2000,61,97,355324
1.8622,0.2102,39.5400,61,97,355329
1.8671,0.2151,40.2600,61,97,355332
1.9257,0.2151,40.0600,61,97,355335
1.8866,0.2053,40.2300,61,97,355339
1.8915,0.2053,40.2000,61,97,355342
1.8719,0.2102,40.2600,61,97,355345
1.8671,0.2102,40.3600,61,97,355348
1.8915,0.2151,40.2600,61,97,355352
1.8719,0.2102,40.2300,61,97,355355
1.8964,0.2102,40.1000,61,97,355358
1.8768,0.2102,40.2000,61,97,355362
1.8768,0.2004,40.2600,61,97,355365
1.8964,0.2102,40.3300,61,97,355368
1.8817,0.2053,40.2000,61,97,355373
1.9208,0.2004,40.1600,61,97,355376
1.8719,0.2102,40.3600,61,97,355379
1.8768,0.2297,40.2300,61,97,355383
1.9257,0.2151,40.1300,61,97,355386
1.9110,0.2102,40.3000,61,97,355389
1.9648,0.2151,40.0600,61,97,355392
1.9550,0.2102,40.1600,61,97,355396
1.9453,0.2102,40.3600,61,97,355399
1.9599,0.2151,40.2600,61,97,355402
1.9404,0.2151,40.3600,61,97,355406
1.9892,0.2151,40.0000,61,97,355409
1.9501,0.2151,40.1600,61,97,355412
1.9355,0.2102,40.2600,61,97,355417
1.9501,0.2102,40.3600,61,97,355420
1.9453,0.2395,40.2600,61,97,355423
1.9990,0.2297,40.0300,61,97,355427
1.9453,0.2102,40.2000,61,97,355430
1.9355,0.2004,40.2000,61,97,355433
1.9306,0.2102,40.2600,61,97,355436
1.9257,0.2151,40.3600,61,97,355440
1.9697,0.2199,40.1600,61,97,355443
1.9404,0.2102,40.2600,61,97,355446
1.9550,0.2151,40.1300,61,97,355450
1.9404,0.2102,40.3000,61,97,355453
1.9404,0.2151,40.2300,61,97,355457
1.9697,0.1906,40.1600,61,97,355461
1.9648,0.2151,40.3300,61,97,355464
1.9648,0.2151,40.1000,61,97,355467
1.9404,0.2004,40.2300,61,97,355471
1.9550,0.2151,40.2600,61,97,355474
1.9648,0.2151,40.1600,61,97,355477
1.9550,0.2053,40.2600,61,97,355480
1.9795,0.2102,40.2000,61,97,355484
1.9453,0.2102,40.2000,61,97,355487
1.9208,0.2004,40.2600,61,97,355490
1.9306,0.2102,40.2600,61,97,355494
1.9110,0.2102,40.3300,61,97,355497
1.9550,0.2102,40.0300,61,97,355501
1.9257,0.2053,40.2300,61,97,355505
1.9355,0.2053,40.3300,61,97,355508
1.9550,0.2102,40.3000,61,97,355511
1.9159,0.2102,40.2300,61,97,355515
1.9159,0.2053,40.2600,61,97,355518
1.9697,0.2199,40.1300,61,97,355522
1.9501,0.2102,40.2300,61,97,355525
1.9697,0.2102,40.2300,61,97,355528
1.9501,0.2102,40.2600,61,97,355531
1.9355,0.2053,40.2300,61,97,355535
1.9453,0.2151,40.1600,61,97,355538
1.9208,0.2102,40.2600,61,97,355542
1.9501,0.2199,40.2300,61,97,355546
1.9257,0.2053,40.2600,61,97,355549
1.9306,0.2102,40.3600,61,97,355552
1.9453,0.2151,40.2000,61,97,355556
1.9257,0.2102,40.3600,61,97,355559
1.9501,0.2297,40.1000,61,97,355562
1.9355,0.2102,40.3000,61,97,355565
1.9404,0.2053,40.4000,61,97,355569
1.9648,0.2151,40.1300,61,97,355572
1.9453,0.2102,40.3000,61,97,355575
1.9844,0.2199,40.0000,61,97,355579
1.9746,0.1906,40.2000,61,97,355582
1.9599,0.2053,40.2600,61,97,355586
1.9941,0.2151,40.2300,61,97,355590
1.9550,0.2102,40.2600,61,97,355593
2.0039,0.2444,40.0000,61,97,355596
1.9648,0.1906,40.3000,61,97,355600
1.9550,0.2053,40.2600,61,97,355603
1.9648,0.2102,40.2600,61,97,355606
1.9599,0.2053,40.2600,61,97,355609
2.0186,0.2297,40.1300,61,97,355613
1.9599,0.2151,40.2600,61,97,355616
1.9648,0.2053,40.1600,61,97,355619
1.9599,0.2297,40.3300,61,97,355623
1.9648,0.2053,40.2600,61,97,355627
1.9990,0.2151,40.1600,61,97,355630
1.9697,0.2102,40.2600,61,97,355634
1.9844,0.2102,40.2000,61,97,355637
1.9599,0.2102,40.3300,61,97,355640
1.9453,0.2053,40.3300,61,97,355644
1.9795,0.2151,40.1300,61,97,355647
1.9501,0.2102,40.2600,61,97,355650
1.9892,0.2199,40.1600,61,97,355653
1.9746,0.2053,40.2000,61,97,355657
1.9746,0.2053,40.2600,61,97,355660
1.9941,0.2102,40.1600,61,97,355663
1.9795,0.2053,40.3300,61,97,355667
2.0088,0.2151,40.1000,61,97,355671
1.9746,0.2102,40.2300,61,97,355674
1.9697,0.2053,40.2600,61,97,355678
1.9746,0.2151,40.2300,61,97,355681
1.9599,0.2102,40.3300,61,97,355684
2.0039,0.2444,40.0300,61,97,355688
1.9697,0.2053,40.2300,61,97,355691
1.9795,0.2053,40.2600,61,97,355694
1.9941,0.2102,40.2000,61,97,355697
1.9892,0.2102,40.4000,61,97,355701
2.0479,0.2248,40.0600,61,97,355704
2.0039,0.2151,40.2000,61,97,355707
1.9795,0.2004,40.3300,61,97,355712
1.9648,0.2151,40.2300,61,97,355715
1.9599,0.2053,40.3000,61,97,355718
2.0088,0.2199,40.1600,61,97,355722
1.9746,0.2102,40.2000,61,97,355725
1.9697,0.2053,40.3300,61,97,355728
1.9697,0.2102,40.2600,61,97,355731
1.9795,0.2004,40.2600,61,97,355735
2.0186,0.2151,40.3000,61,97,355738
1.9941,0.2151,40.2300,61,97,355741
2.0186,0.2102,40.1300,61,97,355745
1.9795,0.2102,40.4300,61,97,355748
1.9697,0.2053,40.3000,61,97,355751
1.9844,0.2102,40.2300,61,97,355756
1.9746,0.2395,40.2300,61,97,355759
2.0137,0.2151,40.2000,61,97,355762
1.9844,0.2199,40.3600,61,97,355766
1.9795,0.1906,40.2600,61,97,355769
2.0088,0.2151,40.1600,61,97,355772
2.0039,0.2004,40.2600,61,97,355775
2.0137,0.2102,40.1000,61,97,355779
1.9990,0.2102,40.1300,61,97,355782
1.9795,0.2297,40.3000,61,97,355785
1.9990,0.2151,40.1600,61,97,355789
1.9697,0.2102,40.2000,61,97,355792
2.0039,0.2199,40.0300,61,97,355795
1.9501,0.2053,40.2000,61,97,355800
1.9501,0.2053,40.3300,61,97,355803
1.9599,0.2053,40.2300,61,97,355806
1.9550,0.1906,40.3000,61,97,355809
2.0039,0.2151,39.9600,61,97,355813
1.9550,0.2004,40.2600,61,97,355816
1.9550,0.1906,40.3000,61,97,355819
1.9550,0.2102,40.3300,61,97,355823
1.9599,0.2053,40.2600,61,97,355826
2.0235,0.2248,40.0600,61,97,355829
1.9795,0.2102,40.2300,61,97,355833
1.9892,0.2151,40.2000,61,97,355836
1.9892,0.2102,40.3000,61,97,355840
1.9941,0.2297,40.2600,61,97,355844
2.0381,0.2151,40.1300,61,97,355847
2.0186,0.2151,40.2300,61,97,355850
2.0332,0.1906,40.1000,61,97,355853
2.0186,0.2053,40.2600,61,97,355857
2.0283,0.2053,40.2600,61,97,355860
2.0772,0.2151,40.2300,61,97,355863
2.0235,0.1906,40.3300,61,97,355867
2.0577,0.2151,40.2000,61,97,355870
2.0283,0.2199,40.2300,61,97,355873
2.0430,0.2053,40.2600,61,97,355877
2.0479,0.2053,40.2600,61,97,355880
2.0332,0.2004,40.3000,61,97,355884
2.0479,0.2248,40.2000,61,97,355887
2.0039,0.2053,40.3600,61,97,355891
1.9844,0.2053,40.2600,61,97,355894
1.9844,0.2199,40.2000,61,97,355897
1.9501,0.2053,40.2000,61,97,355901
1.9795,0.2102,40.0300,61,97,355904
1.9746,0.2102,40.2000,61,97,355907
1.9159,0.2004,40.2600,61,97,355911
1.9159,0.2004,40.3600,61,97,355914
1.8866,0.2004,40.2300,61,97,355917
1.9355,0.2151,39.9600,61,97,355920
1.8915,0.1906,40.1600,61,97,355924
1.8622,0.2004,40.2000,61,97,355928
1.8622,0.2053,40.3000,61,97,355931
1.8573,0.2053,40.3300,61,97,355935
1.9013,0.2199,40.0600,61,97,355938
1.8377,0.2004,40.1600,61,97,355941
1.8426,0.2004,40.2000,61,97,355945
1.8133,0.2053,40.3600,61,97,355948
1.8035,0.2053,40.3000,61,97,355951
1.8328,0.1906,40.2300,61,97,355954
1.7937,0.2053,40.0000,61,97,355958
1.7986,0.2004,40.1600,61,97,355961
1.7840,0.2053,40.3000,61,97,355964
1.7889,0.2004,40.4000,61,97,355969
1.8280,0.2199,40.1300,61,97,355972
1.8133,0.2053,40.3300,61,97,355975
1.8426,0.2199,40.1600,61,97,355979
1.8084,0.2004,40.2300,61,97,355982
1.8035,0.2004,40.3300,61,97,355985
1.7840,0.2053,40.2000,61,97,355989
1.7400,0.2004,40.2600,61,97,355992
1.7204,0.2004,40.2000,61,97,355995
1.6813,0.1955,40.2300,61,97,355998
1.7253,0.2004,40.2300,61,97,356002
1.8475,0.2053,40.1300,61,97,356005
2.0039,0.2053,40.3600,61,97,356008
2.2483,0.2053,40.0600,61,97,356013
2.4242,0.2199,40.3000,61,97,356016
2.6197,0.1955,40.2600,61,97,356019
2.7566,0.2053,40.3000,61,97,356023
2.8299,0.2053,40.3600,61,97,356026
2.9423,0.2102,40.0000,61,97,356029
2.8739,0.2053,40.1600,61,97,356032
2.8006,0.1955,40.3600,61,97,356036
2.7322,0.2004,40.2300,61,97,356039
2.6051,0.2004,40.2600,61,97,356042
2.5367,0.2199,40.0000,61,97,356046
2.3021,0.2053,40.2000,61,97,356049
2.1310,0.1955,40.2000,61,97,356052
1.9208,0.2004,40.3000,61,97,356057
1.7791,0.2004,40.2600,61,97,356060
1.7155,0.2102,40.1000,61,97,356063
1.6325,0.1955,40.3000,61,97,356066
1.5640,0.2004,40.1600,61,97,356070
1.5054,0.2004,40.3000,61,97,356073
1.5054,0.1955,40.3000,61,97,356076
1.4809,0.2053,40.2000,61,97,356080
1.4565,0.1955,40.3000,61,97,356083
1.4809,0.2151,40.1000,61,97,356086
1.4761,0.1955,40.2600,61,97,356089
1.4858,0.1906,40.3300,61,97,356093
1.5200,0.2102,40.1300,61,97,356097
1.5005,0.1955,40.2600,61,97,356100
1.5298,0.1955,40.1600,61,97,356104
1.5249,0.1955,40.3000,61,97,356107
1.5298,0.1955,40.2600,61,97,356110
1.5591,0.2004,40.1600,61,97,356114
1.5494,0.1906,40.3300,61,97,356117
1.5836,0.1955,40.0300,61,97,356120
1.6178,0.2151,40.0000,61,97,356124
1.5836,0.2004,40.2000,61,97,356127
1.5836,0.1906,40.3300,61,97,356131
1.5885,0.1955,40.3000,61,97,356134
1.5787,0.2053,40.3600,61,97,356137
1.6227,0.1906,40.1000,61,97,356142
1.5885,0.1955,40.1600,61,97,356145
1.6031,0.1955,40.1600,61,97,356148
1.6129,0.1906,40.2300,61,97,356151
1.6276,0.2053,40.3300,61,97,356155
1.6764,0.2004,40.1300,61,97,356158
1.6520,0.2199,40.2600,61,97,356161
1.6764,0.1955,40.1300,61,97,356165
1.6471,0.1857,40.3300,61,97,356168
1.6471,0.1955,40.2600,61,97,356171
1.6569,0.1906,40.3300,61,97,356175
1.6422,0.1906,40.3600,61,97,356178
1.6813,0.1857,40.2000,61,97,356182
1.6520,0.1906,40.2600,61,97,356186
1.6716,0.1857,40.2600,61,97,356189
1.6716,0.1906,40.1300,61,97,356192
1.6667,0.1906,40.2600,61,97,356195
1.6911,0.1906,40.1600,61,97,356199
1.6569,0.1857,40.2300,61,97,356202
1.6569,0.1857,40.3300,61,97,356205
1.6764,0.2004,40.2000,61,97,356209
1.6618,0.1906,40.4300,61,97,356212
1.7058,0.1955,39.5700,61,97,356215
1.6764,0.1906,40.2300,61,97,356219
1.6716,0.1857,40.3000,61,97,356222
1.6667,0.1906,40.2300,61,97,356226
1.6618,0.1857,40.3000,61,97,356230
1.7107,0.2053,40.0600,61,97,356233
1.6764,0.1955,40.2000,61,97,356236
1.6471,0.1857,40.3000,61,97,356239
1.6325,0.1857,40.2000,61,97,356243
1.6080,0.1955,40.2300,61,97,356246
1.6227,0.1955,40.1300,61,97,356249
1.5934,0.1857,40.2600,61,97,356253
1.6227,0.1857,40.1300,61,97,356256
1.6325,0.1857,40.3300,61,97,356259
1.6813,0.1857,40.2600,61,97,356263
1.7351,0.1808,40.2300,61,97,356267
1.7449,0.1857,40.2600,61,97,356270
1.7937,0.1906,40.1000,61,97,356274
1.7644,0.1857,40.3300,61,97,356277
1.7644,0.1808,40.3000,61,97,356280
1.7840,0.2053,40.1600,61,97,356283
1.7595,0.1808,40.2600,61,97,356287
1.7791,0.1857,40.1000,61,97,356290
1.7498,0.1711,40.1600,61,97,356293
1.7302,0.1808,40.4000,61,97,356297
1.7498,0.1906,40.2000,61,97,356300
1.7204,0.1808,40.2300,61,97,356303
1.7644,0.1906,40.0000,61,97,356307
1.7351,0.1808,40.2600,61,97,356311
1.7449,0.1808,39.6400,61,97,356314
1.7644,0.1808,40.2300,61,97,356318
1.7595,0.1808,40.2600,61,97,356321
1.8182,0.1955,40.0300,61,97,356324
1.7840,0.1857,40.2300,61,97,356327
1.7840,0.1760,40.3300,61,97,356331
1.7889,0.1857,40.3300,61,97,356334
1.7742,0.1808,40.1300,61,97,356337
1.8084,0.1955,40.1300,61,97,356341
1.7693,0.1515,40.2600,61,97,356344
1.7693,0.1760,40.1600,61,97,356347
1.7546,0.1760,40.2600,61,97,356352
1.7546,0.1808,40.3000,61,97,356355
1.8280,0.1857,40.1000,61,97,356358
1.7742,0.1760,40.2600,61,97,356362
1.7986,0.1857,40.1300,61,97,356365
1.7742,0.1662,40.3000,61,97,356368
1.7644,0.1711,40.2000,61,97,356371
1.7644,0.1711,40.2300,61,97,356375
1.7302,0.1711,40.2600,61,97,356378
1.7449,0.1808,40.1300,61,97,356381
1.7204,0.1711,39.6000,61,97,356385
1.7400,0.1955,40.3600,61,97,356388
1.7889,0.1711,40.2600,61,97,356391
1.7840,0.1662,40.2600,61,97,356396
1.8182,0.1808,40.0600,61,97,356399
1.7791,0.1515,40.2300,61,97,356402
1.7840,0.2004,40.3300,61,97,356406
1.8035,0.1711,40.2600,61,97,356409
1.7889,0.1613,40.3300,61,97,356412
1.8475,0.1711,40.0300,61,97,356415
1.7986,0.1711,40.1300,61,97,356419
1.7791,0.1613,40.2300,61,97,356422
1.7791,0.1711,40.2300,61,97,356425
1.7644,0.1613,40.2600,61,97,356429
1.8084,0.1857,39.8600,61,97,356432
1.7498,0.1711,40.2000,61,97,356435
1.7400,0.1662,40.3300,61,97,356440
1.7351,0.1760,40.2600,61,97,356443
1.7351,0.1662,40.2600,61,97,356446
1.7595,0.1760,40.1600,61,97,356450
1.7351,0.1662,40.3300,61,97,356453
1.7546,0.1662,40.1300,61,97,356456
1.7351,0.1613,40.2600,61,97,356460
1.7302,0.1662,40.2600,61,97,356463
1.7449,0.1613,40.2600,61,97,356466
1.7351,0.1662,40.3300,61,97,356469
1.7644,0.1760,40.2300,61,97,356473
1.7351,0.1613,40.2000,61,97,356476
1.7351,0.1662,40.2600,61,97,356480
1.7498,0.1662,40.2000,61,97,356484
1.7302,0.1613,40.3000,61,97,356487
1.7498,0.1662,40.0600,61,97,356490
1.7302,0.1613,40.1300,61,97,356494
1.7107,0.1564,40.2600,61,97,356497
1.7351,0.1711,40.3000,61,97,356500
1.7498,0.1613,40.3600,61,97,356504
1.7840,0.1662,39.6000,61,97,356507
1.7595,0.1613,40.1300,61,97,356510
1.7498,0.1564,40.1000,61,97,356514
1.7449,0.1613,40.2600,61,97,356517
1.7400,0.1564,40.2600,61,97,356520
1.7937,0.1760,40.0300,61,97,356524
1.7595,0.1613,40.2000,61,97,356528
1.7595,0.1515,40.2000,61,97,356531
1.7595,0.1564,40.3600,61,97,356534
1.7546,0.1564,40.4000,61,97,356538
1.7986,0.1711,40.2300,61,97,356541
1.7791,0.1564,40.3000,61,97,356544
1.7937,0.1564,40.1000,61,97,356548
1.7791,0.1564,40.3300,61,97,356551
1.7791,0.1564,40.2300,61,97,356554
1.8084,0.1564,40.2000,61,97,356558
1.7840,0.1515,40.2300,61,97,356561
1.8035,0.1613,40.1600,61,97,356564
1.7742,0.1515,40.2600,61,97,356568
1.7742,0.1564,40.3300,61,97,356572
1.7840,0.1564,40.2000,61,97,356575
1.7742,0.1760,40.3000,61,97,356578
1.8328,0.1564,40.2000,61,97,356582
1.7791,0.1515,40.2300,61,97,356585
1.7840,0.1564,40.3000,61,97,356588
1.8035,0.1564,40.3000,61,97,356592
1.8035,0.1564,40.3300,61,97,356595
1.8475,0.1564,40.1000,61,97,356598
1.8182,0.1466,40.3000,61,97,356602
1.8133,0.1515,40.3300,61,97,356605
1.8280,0.1564,40.2300,61,97,356609
1.8182,0.1564,40.2300,61,97,356612
1.8671,0.1564,40.0600,61,97,356616
1.8328,0.1564,40.2300,61,97,356619
1.8133,0.1466,40.2600,61,97,356622
1.8084,0.1515,40.2000,61,97,356626
1.7986,0.1808,40.3600,61,97,356629
1.8573,0.1564,40.1000,61,97,356632
1.8231,0.1515,40.2000,61,97,356636
1.8524,0.1417,40.1600,61,97,356639
1.7986,0.1466,40.3300,61,97,356642
1.8084,0.1711,40.3300,61,97,356646
1.8622,0.1515,40.1600,61,97,356649
1.8719,0.1613,40.2600,61,97,356653
1.9355,0.1515,40.2000,61,97,356656
1.9306,0.1466,40.2600,61,97,356660
1.9501,0.1906,40.2600,61,97,356663
1.9746,0.1320,40.3000,61,97,356666
1.9501,0.1466,40.3000,61,97,356670
1.9746,0.1466,40.2300,61,97,356673
1.9355,0.1466,40.2600,61,97,356676
1.9355,0.1466,40.2600,61,97,356680
1.9550,0.1564,40.1600,61,97,356683
1.9257,0.1466,40.2600,61,97,356686
1.9550,0.1466,40.0600,61,97,356690
1.9355,0.1466,40.1600,61,97,356694
1.9159,0.1417,40.3000,61,97,356697
1.9355,0.1466,40.3300,61,97,356700
1.9110,0.1417,40.3600,61,97,356704
1.9697,0.1466,40.0300,61,97,356707
1.9306,0.1466,40.1600,61,97,356710
1.9355,0.1369,40.2600,61,97,356714
1.9404,0.1417,40.1000,61,97,356717
1.9453,0.1417,40.3000,61,97,356720
1.9941,0.1515,40.1000,61,97,356724
1.9453,0.1320,40.2300,61,97,356727
1.9453,0.1369,40.2000,61,97,356730
1.9355,0.1417,40.2600,61,97,356734
1.9404,0.1369,40.3600,61,97,356738
1.9404,0.1369,40.2600,61,97,356742
1.9453,0.1515,40.1600,61,97,356745
1.8671,0.1369,40.2600,61,97,356748
1.8573,0.1320,40.1300,61,97,356752
1.8328,0.1369,40.1000,61,97,356755
1.8524,0.1271,40.2600,61,97,356758
1.9257,0.1417,40.2300,61,97,356762
1.9746,0.1515,40.2600,61,97,356765
2.0870,0.1369,40.1300,61,97,356768
2.1212,0.1369,40.2300,61,97,356771
2.1310,0.1320,40.3000,61,97,356775
2.1457,0.1369,40.4000,61,97,356779
2.1359,0.1271,40.2600,61,97,356782
2.1945,0.1417,39.9600,61,97,356786
2.1359,0.1369,40.2000,61,97,356789
2.1212,0.1222,40.2600,61,97,356792
2.1163,0.1320,40.3000,61,97,356796
2.1065,0.1320,40.2600,61,97,356799
2.1848,0.1466,40.1000,61,97,356802
2.1799,0.1369,40.2300,61,97,356806
2.1896,0.1320,40.2600,61,97,356809
2.1848,0.1369,40.2600,61,97,356812
2.1896,0.1271,40.3300,61,97,356815
2.2190,0.1369,40.1000,61,97,356819
2.1603,0.1320,40.3300,61,97,356823
2.1554,0.1320,40.2300,61,97,356826
2.1017,0.1320,40.2600,61,97,356830
2.0919,0.1271,40.3600,61,97,356833
2.1212,0.1320,40.2000,61,97,356836
2.1163,0.1320,40.2600,61,97,356840
2.1701,0.1320,40.1600,61,97,356843
2.1359,0.1271,40.2300,61,97,356846
2.1310,0.1124,40.2600,61,97,356850
2.1310,0.1271,40.2000,61,97,356853
2.1017,0.1369,40.2600,61,97,356856
2.1163,0.1271,40.1000,61,97,356859
2.0626,0.1222,40.3300,61,97,356864
2.0577,0.1124,40.2600,61,97,356867
2.0577,0.1320,40.2000,61,97,356870
2.0332,0.1222,40.3600,61,97,356874
2.0723,0.1320,40.0300,61,97,356877
2.0381,0.1271,40.1600,61,97,356880
2.0479,0.1271,40.3600,61,97,356884
2.0332,0.1271,40.2600,61,97,356887
2.0235,0.1320,40.2600,61,97,356890
2.0821,0.1320,40.0300,61,97,356893
2.0430,0.1320,40.2300,61,97,356897
2.0332,0.1173,40.2600,61,97,356900
2.0381,0.1271,40.3300,61,97,356903
2.0381,0.1222,40.3300,61,97,356908
2.0968,0.1369,40.1000,61,97,356911
2.0577,0.1222,40.2600,61,97,356914
2.0479,0.1173,40.1600,61,97,356918
2.0332,0.1320,40.3000,61,97,356921
2.0186,0.1124,40.3000,61,97,356924
2.0283,0.1320,40.1300,61,97,356927
1.9892,0.1613,40.2300,61,97,356931
2.0381,0.1222,40.1600,61,97,356934
2.0919,0.1222,40.3600,61,97,356937
2.2483,0.1173,40.2600,61,97,356941
2.4536,0.1320,40.2000,61,97,356944
2.6393,0.1124,40.2600,61,97,356947
2.8935,0.1222,40.1300,61,97,356952
3.0254,0.1173,40.2000,61,97,356955
3.1476,0.1173,40.2600,61,97,356958
3.2405,0.1222,40.1600,61,97,356962
3.2454,0.1173,40.3600,61,97,356965
3.2405,0.1173,40.0600,61,97,356968
3.1085,0.1417,40.3600,61,97,356971
3.0010,0.1271,40.3300,61,97,356975
2.8886,0.1222,40.2300,61,97,356978
2.7273,0.1173,40.2600,61,97,356981
2.6442,0.1222,40.0300,61,97,356985
2.4145,0.1173,40.2000,61,97,356988
2.2825,0.1173,40.2300,61,97,356992
2.1896,0.1222,40.2300,61,97,356996
2.0870,0.1173,40.3600,61,97,356999
2.0723,0.1320,40.0300,61,97,357002
1.9599,0.1222,40.2000,61,97,357006
1.9013,0.1173,40.2300,61,97,357009
1.8768,0.1173,40.3300,61,97,357012
1.8573,0.1173,40.2600,61,97,357015
1.8964,0.1222,40.1000,61,97,357019
1.8866,0.1173,40.2300,61,97,357022
1.9453,0.1124,40.1300,61,97,357025
1.9746,0.1075,40.2300,61,97,357029
2.0137,0.1124,40.3300,61,97,357032
2.0772,0.1417,40.2000,61,97,357036
2.0870,0.1124,40.2300,61,97,357040
2.1359,0.1173,40.2000,61,97,357043
2.1114,0.1124,40.2300,61,97,357046
2.1114,0.0929,40.3600,61,97,357050
2.0919,0.1124,40.2600,61,97,357053
2.0626,0.1173,40.2600,61,97,357056
2.0919,0.1173,40.1300,61,97,357059
2.0577,0.1173,40.2300,61,97,357063
2.1114,0.1075,40.3600,61,97,357066
2.1359,0.1124,39.8000,61,97,357069
2.1408,0.1026,40.3600,61,97,357073
2.2141,0.1124,40.0600,61,97,357076
2.1994,0.1124,40.2300,61,97,357080
2.1799,0.1124,40.3000,61,97,357084
2.2092,0.1124,40.3600,61,97,357087
2.2092,0.1417,40.3300,61,97,357090
2.3069,0.1124,40.0000,61,97,357094
2.2776,0.1075,40.2600,61,97,357097
2.2825,0.1026,40.3600,61,97,357100
2.2923,0.1075,40.2600,61,97,357103
2.2825,0.1075,40.4000,61,97,357107
2.3412,0.1271,40.0600,61,97,357110
2.2874,0.1075,40.2300,61,97,357113
2.2972,0.1026,40.2000,61,97,357117
2.2972,0.1124,40.2600,61,97,357121
2.3069,0.1026,40.4700,61,97,357124
2.3509,0.1173,40.2300,61,97,357128
2.3167,0.1075,40.3300,61,97,357131
2.3363,0.1075,40.1000,61,97,357134
2.3167,0.0929,40.2300,61,97,357137
2.3314,0.1026,40.3000,61,97,357141
2.3754,0.1075,40.1000,61,97,357144
2.3412,0.1075,40.2600,61,97,357147
2.3705,0.1124,40.1600,61,97,357151
2.3656,0.0929,40.2300,61,97,357154
2.3412,0.1026,40.2600,61,97,357157
2.3558,0.1075,40.1600,61,97,357161
2.3412,0.1026,40.2600,61,97,357165
2.3656,0.1026,40.1300,61,97,357168
2.3363,0.1026,40.2300,61,97,357172
2.3363,0.0978,40.3000,61,97,357175
2.3509,0.1075,40.2000,61,97,357178
2.3412,0.1271,40.2300,61,97,357181
2.3900,0.1026,40.0600,61,97,357185
2.3363,0.0978,40.2600,61,97,357188
2.3363,0.0978,40.3300,61,97,357191
2.3460,0.0733,40.2300,61,97,357195
2.3363,0.1026,40.2300,61,97,357198
2.4145,0.1075,40.0300,61,97,357201
2.3754,0.1026,40.2600,61,97,357206
2.3705,0.1026,40.3000,61,97,357209
2.3900,0.1026,40.2300,61,97,357212
2.3803,0.0978,40.2300,61,97,357215
2.4438,0.1124,40.0600,61,97,357219
2.3900,0.1026,40.2600,61,97,357222
2.3705,0.0929,40.2300,61,97,357225
2.3607,0.1026,40.2300,61,97,357229
2.3558,0.1026,40.3000,61,97,357232
2.3851,0.1075,40.1300,61,97,357235
2.3118,0.0978,40.2000,61,97,357239
2.3069,0.1173,40.2600,61,97,357242
2.2874,0.0733,40.2300,61,97,357245
2.2923,0.0978,40.3300,61,97,357249
2.3460,0.1026,40.2300,61,97,357253
2.3412,0.0978,40.2300,61,97,357256
2.3998,0.1026,40.1000,61,97,357259
2.3949,0.0978,40.3300,61,97,357263
2.4194,0.0978,40.2600,61,97,357266
2.4682,0.1075,40.1600,61,97,357269
2.4438,0.0978,40.2000,61,97,357273
2.4878,0.0978,40.1600,61,97,357276
2.4731,0.0978,40.1600,61,97,357279
2.4633,0.0978,40.2600,61,97,357282
2.4780,0.0929,40.2300,61,97,357286
2.4487,0.0978,40.2600,61,97,357289
2.4731,0.0978,40.0600,61,97,357293
2.4242,0.0978,40.6000,61,97,357297
2.4145,0.1026,40.3300,61,97,357300
2.4585,0.0929,40.2300,61,97,357303
2.4096,0.0929,39.6700,61,97,357307
2.4731,0.1026,40.0300,61,97,357310
2.4145,0.0929,40.2300,61,97,357313
2.3998,0.0929,40.4700,61,97,357316
2.3851,0.0978,40.2300,61,97,357320
2.3412,0.0929,40.2600,61,97,357323
2.3705,0.1124,40.0600,61,97,357326
2.3118,0.0978,40.2600,61,97,357330
2.3021,0.0978,40.2600,61,97,357334
2.3167,0.1026,40.2300,61,97,357337
2.3314,0.0733,40.2600,61,97,357341
2.4047,0.1026,40.0600,61,97,357344
2.3607,0.0978,40.2600,61,97,357348
2.3314,0.0978,40.3000,61,97,357351
2.3460,0.1075,40.2300,61,97,357354
2.2923,0.0733,40.2600,61,97,357358
2.2825,0.0880,40.2300,61,97,357361
2.2874,0.0929,40.2300,61,97,357364
2.2581,0.0880,40.3300,61,97,357367
2.2776,0.0880,40.0600,61,97,357371
2.2385,0.0831,40.2600,61,97,357374
2.2287,0.0880,40.3000,61,97,357378
2.2434,0.0929,40.1600,61,97,357382
2.2141,0.0831,40.2600,61,97,357385
2.2532,0.0929,40.2000,61,97,357388
2.2141,0.0929,40.1600,61,97,357392
2.2043,0.0831,40.3600,61,97,357395
2.1994,0.0880,40.3300,61,97,357398
2.1750,0.0880,40.2600,61,97,357401
2.2287,0.0978,40.0000,61,97,357405
2.1799,0.0831,40.2600,61,97,357408
2.1652,0.0831,40.2300,61,97,357411
2.1603,0.0831,40.2600,61,97,357415
2.1554,0.0831,40.2300,61,97,357419
2.2190,0.1222,40.0600,61,97,357422
2.1603,0.0733,40.2600,61,97,357426
2.1603,0.0782,40.2300,61,97,357429
2.1505,0.0880,40.3000,61,97,357432
2.1457,0.0831,40.2600,61,97,357435
2.1848,0.0929,40.1000,61,97,357439
2.1408,0.0929,40.2300,61,97,357442
2.1603,0.0831,40.2300,61,97,357445
2.1359,0.0831,40.2600,61,97,357449
2.1359,0.0880,40.2600,61,97,357452
2.1799,0.0880,40.2000,61,97,357455
2.1408,0.0782,40.2600,61,97,357459
2.1652,0.0831,40.1600,61,97,357463
2.1212,0.0782,40.1300,61,97,357466
2.1212,0.0782,40.3600,61,97,357469
2.1359,0.0831,40.1600,61,97,357473
2.1163,0.0782,40.2600,61,97,357476
2.1799,0.0782,40.2300,61,97,357479
2.1163,0.0782,40.2000,61,97,357483
2.1163,0.0782,40.4300,61,97,357486
2.1359,0.0880,40.2600,61,97,357489
2.1163,0.0733,40.2300,61,97,357493
2.1554,0.0782,40.0000,61,97,357496
2.1114,0.0782,40.2000,61,97,357499
2.0968,0.0733,40.2300,61,97,357502
2.1163,0.0831,40.2300,61,97,357507
2.0870,0.0733,40.2600,61,97,357510
2.1261,0.0782,40.1000,61,97,357513
2.0919,0.0733,40.2000,61,97,357517
2.0723,0.0733,40.3000,61,97,357520
2.0870,0.0782,40.3300,61,97,357523
2.0821,0.0733,40.2600,61,97,357527
2.1457,0.0880,40.1600,61,97,357530
2.1408,0.0782,40.2000,61,97,357533
2.0870,0.0538,40.2000,61,97,357536
2.0919,0.0733,40.2600,61,97,357540
2.0919,0.0684,39.9300,61,97,357543
2.1457,0.1271,40.2000,61,97,357547
2.0968,0.0684,40.2600,61,97,357551
2.1114,0.0684,40.2300,61,97,357554
2.0919,0.0782,40.2300,61,97,357557
2.0968,0.0684,40.3000,61,97,357561
2.1261,0.0733,40.3600,61,97,357564
2.0968,0.0684,40.3300,61,97,357567
2.1163,0.0978,40.2300,61,97,357570
2.0919,0.0684,40.3300,61,97,357574
2.0919,0.0733,40.3000,61,97,357577
2.1261,0.0782,40.1300,61,97,357580
2.0919,0.0684,40.3600,61,97,357584
2.1163,0.0733,40.2600,61,97,357587
2.0870,0.0684,40.1600,61,97,357591
2.0723,0.0635,40.3600,61,97,357595
2.0821,0.0684,40.1600,61,97,357598
2.0674,0.0684,40.3000,61,97,357601
2.1017,0.0684,40.2000,61,97,357604
2.0821,0.0635,40.2300,61,97,357608
2.0821,0.0635,40.2600,61,97,357611
2.0870,0.0831,40.2000,61,97,357614
2.0626,0.0684,40.3300,61,97,357618
2.0919,0.0635,40.0600,61,97,357621
2.0479,0.0587,40.2000,61,97,357624
2.0479,0.0587,40.1300,61,97,357627
2.0674,0.0684,40.3000,61,97,357632
2.0577,0.0587,40.2600,61,97,357635
2.1163,0.0635,40.0000,61,97,357638
2.0968,0.0635,40.2300,61,97,357642
2.0626,0.0538,40.3000,61,97,357645
2.0772,0.0733,40.2000,61,97,357648
2.0626,0.0587,40.2000,61,97,357652
2.1212,0.0733,40.1600,61,97,357655
2.0772,0.0635,40.2000,61,97,357658
2.0626,0.0538,40.2300,61,97,357661
2.0626,0.0587,40.4000,61,97,357665
2.0626,0.0880,40.2600,61,97,357668
2.1310,0.0684,40.0600,61,97,357671
2.0919,0.0342,40.2600,61,97,357676
2.1114,0.0538,40.2000,61,97,357679
2.1163,0.0538,40.2300,61,97,357682
2.1505,0.0538,40.2300,61,97,357685
2.1750,0.0635,40.2300,61,97,357689
2.1457,0.0538,40.2300,61,97,357692
2.1701,0.0587,40.1300,61,97,357695
2.1554,0.0538,40.3600,61,97,357699
2.1652,0.0635,40.3300,61,97,357702
2.2141,0.0635,40.2000,61,97,357705
2.1848,0.0538,40.3000,61,97,357709
2.2141,0.0880,40.1600,61,97,357712
2.1848,0.0489,40.3000,61,97,357715
2.1945,0.0440,40.2600,61,97,357719
2.2141,0.0489,40.1600,61,97,357723
2.2239,0.0342,40.2600,61,97,357726
2.2532,0.0489,40.1600,61,97,357729
2.2287,0.0587,40.2300,61,97,357733
2.2287,0.0538,40.3600,61,97,357736
2.2239,0.0538,40.1600,61,97,357739
2.1994,0.0733,40.3000,61,97,357743
2.2385,0.0538,40.0300,61,97,357746
2.1750,0.0489,40.5000,61,97,357749
2.1652,0.0489,40.2300,61,97,357752
2.2043,0.0587,40.2300,61,97,357756
2.1457,0.0489,40.4000,61,97,357760
2.1896,0.0538,40.0600,61,97,357763
2.1457,0.0684,40.2600,61,97,357767
2.1310,0.0489,40.3000,61,97,357770
2.1310,0.0587,40.2300,61,97,357773
2.1114,0.0489,40.3000,61,97,357777
2.1652,0.0635,40.0300,61,97,357780
2.1114,0.0538,40.2000,61,97,357783
2.0821,0.0489,40.2300,61,97,357786
2.0772,0.0489,40.2300,61,97,357790
2.0626,0.0489,40.2600,61,97,357793
2.1065,0.0635,40.1300,61,97,357796
2.0626,0.0684,40.2600,61,97,357800
2.0674,0.0440,40.2300,61,97,357804
2.0674,0.0489,40.2300,61,97,357807
2.0626,0.0440,40.3000,61,97,357811
2.0968,0.0489,40.2300,61,97,357814
2.0723,0.0342,40.2600,61,97,357817
2.0870,0.0489,40.1600,61,97,357820
2.0577,0.0440,40.3000,61,97,357824
2.0577,0.0489,40.3600,61,97,357827
2.0919,0.0587,40.1300,61,97,357830
2.0577,0.0489,40.2600,61,97,357834
2.0723,0.0782,40.1600,61,97,357837
1.9990,0.0391,40.2300,61,97,357840
1.9599,0.0342,40.2600,61,97,357843
1.9257,0.0538,40.1600,61,97,357848
1.9208,0.0440,40.3300,61,97,357851
2.0137,0.0391,40.1000,61,97,357854
2.1114,0.0440,40.2000,61,97,357858
2.2776,0.0440,40.3300,61,97,357861
2.5073,0.0489,40.3000,61,97,357864
2.6735,0.0440,40.3600,61,97,357868
2.8788,0.0342,40.0600,61,97,357871
2.9374,0.0391,40.2600,61,97,357874
3.0059,0.0440,40.2600,61,97,357877
3.0352,0.0489,40.2300,61,97,357881
2.9668,0.0391,40.3000,61,97,357884
2.9521,0.0489,40.1600,61,97,357888
2.8104,0.0489,40.2600,61,97,357892
2.6833,0.0391,40.3300,61,97,357895
2.5611,0.0391,40.2300,61,97,357898
2.4145,0.0440,40.2600,61,97,357901
2.3607,0.0538,40.0300,61,97,357905
2.2043,0.0440,40.2600,61,97,357908
2.1017,0.0391,40.2600,61,97,357911
2.0381,0.0440,40.2300,61,97,357915
1.9648,0.0391,40.3000,61,97,357918
1.9795,0.0538,39.9600,61,97,357921
1.9013,0.0391,40.2300,61,97,357925
1.8866,0.0342,40.2600,61,97,357928
1.8622,0.0391,40.2000,61,97,357932
1.8524,0.0391,40.3600,61,97,357935
1.8768,0.0440,40.3000,61,97,357939
1.8377,0.0342,40.0600,61,97,357942
1.8524,0.0342,40.1300,61,97,357945
1.8524,0.0342,40.3300,61,97,357949
1.8817,0.0342,40.3000,61,97,357952
1.9404,0.0440,40.1000,61,97,357955
1.9550,0.0440,40.2300,61,97,357959
1.9453,0.0342,40.3000,61,97,357962
1.9844,0.0293,40.1000,61,97,357966
1.9501,0.0293,40.3300,61,97,357969
1.9550,0.0293,40.2600,61,97,357972
1.9746,0.0391,40.3000,61,97,357976
1.9648,0.0293,40.0600,61,97,357980
2.0186,0.0440,40.1300,61,97,357983
1.9746,0.0293,40.2600,61,97,357986
1.9648,0.0244,40.2600,61,97,357990
1.9599,0.0342,40.2600,61,97,357993
1.9453,0.0244,40.3000,61,97,357996
2.0039,0.0342,40.0300,61,97,358000
1.9746,0.0244,40.2600,61,97,358003
1.9844,0.0098,40.2300,61,97,358006
1.9892,0.0293,40.3000,61,97,358009
1.9844,0.0293,40.2300,61,97,358013
2.0381,0.0293,40.1600,61,97,358017
1.9941,0.0293,40.3300,61,97,358020
2.0039,0.0196,40.2300,61,97,358024
1.9941,0.0196,40.3300,61,97,358027
1.9990,0.0196,40.2000,61,97,358030
2.0235,0.0147,40.1600,61,97,358034
1.9892,0.0147,40.2600,61,97,358037
2.0088,0.0196,40.2000,61,97,358040
1.9844,0.0196,40.2000,61,97,358043
2.0039,0.0196,40.2600,61,97,358047
2.0186,0.0244,40.2300,61,97,358050
2.0235,0.0196,40.3300,61,97,358053
2.0626,0.0440,40.1600,61,97,358057
2.0381,0.0196,40.2600,61,97,358061
2.0430,0.0196,40.1600,61,97,358064
2.0626,0.0635,40.1600,61,97,358068
2.0283,0.0196,40.2600,61,97,358071
2.0479,0.0196,40.0600,61,97,358074
2.0332,0.0196,40.1300,61,97,358077
2.0235,0.0196,40.2600,61,97,358081
2.0479,0.0293,40.3300,61,97,358084
2.0332,0.0196,40.3300,61,97,358087
2.0821,0.0196,40.0300,61,97,358091
2.0430,0.0147,40.2000,61,97,358094
2.0381,0.0147,40.2600,61,97,358097
2.0479,0.0244,40.2600,61,97,358100
2.0332,0.0196,40.3000,61,97,358105
2.0821,0.0196,40.1000,61,97,358108
2.0332,0.0196,40.2600,61,97,358111
2.0186,0.0196,40.2600,61,97,358115
2.0137,0.0293,40.2300,61,97,358118
2.0088,0.0196,39.6000,61,97,358121
2.0772,0.0342,40.0600,61,97,358125
2.0430,0.0293,40.2000,61,97,358128
2.0381,0.0147,40.2300,61,97,358131
2.0479,0.0196,40.2300,61,97,358134
2.0479,0.0147,39.8600,61,97,358138
2.0968,0.0293,40.0600,61,97,358141
2.0528,0.0147,40.2300,61,97,358145
2.0479,0.0147,40.2300,61,97,358149
2.0332,0.0147,40.3000,61,97,358152
2.0283,0.0098,40.2600,61,97,358155
2.0479,0.0147,40.1300,61,97,358158
2.0088,0.0147,40.2300,61,97,358162
2.0283,0.0147,40.1300,61,97,358165
2.0381,0.0098,40.2600,61,97,358168
2.0137,0.0147,40.2600,61,97,358172
2.0430,0.0196,40.4300,61,97,358175
2.0283,0.0147,40.2300,61,97,358178
2.0528,0.0147,40.1600,61,97,358182
2.0186,0.0147,40.3300,61,97,358185
2.0186,0.0147,40.3600,61,97,358189
2.0479,0.0147,40.1600,61,97,358192
2.0186,0.0147,40.2600,61,97,358196
2.0430,0.0098,40.2000,61,97,358199
2.0332,0.0391,40.3000,61,97,358202
2.0283,0.0391,40.2300,61,97,358206
2.0528,0.0147,40.1300,61,97,358209
2.0332,0.0098,40.3000,61,97,358212
2.0674,0.0098,40.0600,61,97,358215
2.0332,0.0098,40.3000,61,97,358219
2.0283,0.0098,40.2600,61,97,358222
2.0332,0.0147,40.2000,61,97,358225
2.0088,0.0244,40.2300,61,97,358230
2.0528,0.0098,40.0300,61,97,358233
2.0137,0.0098,40.2300,61,97,358236
2.0186,0.0049,40.2600,61,97,358239
2.0381,0.0147,40.2300,61,97,358243
2.0283,0.0098,40.2600,61,97,358246
2.0919,0.0049,40.0300,61,97,358249
2.0772,0.0098,40.3600,61,97,358253
2.0723,0.0049,40.3600,61,97,358256
2.0919,0.0098,40.2300,61,97,358259
2.1065,0.0049,40.2600,61,97,358263
2.1408,0.0196,40.0300,61,97,358266
2.0870,0.0342,40.2000,61,97,358269
2.0577,0.0049,40.2000,61,97,358273
2.0430,0.0049,40.2600,61,97,358277
2.0674,0.0098,40.2600,61,97,358280
2.0919,0.0196,40.1000,61,97,358283
2.0381,0.0049,40.1600,61,97,358287
2.0430,0.0000,40.3000,61,97,358290
2.0332,0.0049,40.3000,61,97,358293
2.0235,0.0147,40.3000,61,97,358296
2.0577,0.0196,40.2300,61,97,358300
2.0332,0.0049,40.2300,61,97,358303
2.0430,0.0000,40.1300,61,97,358306
2.0235,0.0049,40.2600,61,97,358310
2.0283,0.0000,40.2600,61,97,358313
2.1017,0.0098,40.1000,61,97,358317
2.0381,0.0049,40.3600,61,97,358320
2.0528,0.0000,40.1300,61,97,358324
2.0186,0.0000,40.2600,61,97,358327
2.0039,0.0098,40.2600,61,97,358330
2.0235,0.0049,40.1300,61,97,358333
1.9844,0.0000,40.2600,61,97,358337
1.9941,0.0098,40.1000,61,97,358340
1.9697,0.0000,40.3600,61,97,358343
1.9648,0.0000,40.2600,61,97,358346
1.9892,0.0147,40.3300,61,97,358350
1.9795,0.0049,40.3300,61,97,358353
2.0283,0.0049,40.1600,61,97,358356
2.0088,0.0000,40.2600,61,97,358361
2.0137,0.0000,40.3600,61,97,358364
2.0674,0.0049,40.1300,61,97,358367
1.9941,0.0000,40.3000,61,97,358370
2.0235,0.0049,40.2300,61,97,358374
2.0039,0.0000,40.2000,61,97,358377
2.0137,0.0098,40.3000,61,97,358380
2.0479,0.0000,40.2300,61,97,358383
2.0186,0.0000,40.3300,61,97,358387
2.0528,0.0049,39.6400,61,97,358390
2.0137,0.0196,40.2300,61,97,358393
2.0088,0.0000,40.2600,61,97,358397
2.0137,0.0049,40.3000,61,97,358401
2.0039,0.0049,40.3000,61,97,358404
2.0283,0.0098,40.1600,61,97,358407
2.0088,0.0000,40.2600,61,97,358411
1.9941,0.0000,40.2600,61,97,358414
2.0235,0.0049,40.2300,61,97,358417
2.0039,0.0000,40.2600,61,97,358420
2.0381,0.0000,40.2000,61,97,358424
2.0332,0.0000,40.2000,61,97,358427
2.0186,0.0000,40.0600,61,97,358430
2.0332,0.0000,40.2000,61,97,358433
2.0137,0.0000,40.3600,61,97,358437
2.0381,0.0000,40.1300,61,97,358440
2.0235,0.0000,40.2300,61,97,358444
1.9892,0.0000,40.2600,61,97,358447
1.9892,0.0000,40.1300,61,97,358451
1.9697,0.0049,40.3000,61,97,358454
1.9990,0.0000,40.1300,61,97,358457
1.9746,0.0000,40.3600,61,97,358460
1.9844,0.0000,40.2600,61,97,358464
2.0283,0.0000,40.1600,61,97,358467
2.0088,0.0000,40.2300,61,97,358470
2.0381,0.0000,40.1600,61,97,358473
2.0137,0.0000,40.2300,61,97,358477
1.9892,0.0000,40.2300,61,97,358480
1.9990,0.0000,40.1300,61,97,358483
1.9746,0.0000,40.3000,61,97,358487
2.0137,0.0000,40.1600,61,97,358491
1.9746,0.0342,40.3000,61,97,358494
1.9844,0.0000,40.2600,61,97,358497
2.0088,0.0049,40.2300,61,97,358500
2.0088,0.0000,40.3300,61,97,358504
2.0430,0.0000,40.1300,61,97,358507
2.0186,0.0000,39.7300,61,97,358510
2.0186,0.0000,40.2600,61,97,358513
2.0479,0.0000,40.1600,61,97,358517
2.0137,0.0000,40.3000,61,97,358520
2.0430,0.0000,40.1600,61,97,358523
2.0137,0.0049,40.3000,61,97,358526
2.0186,0.0000,40.3600,61,97,358531
2.0626,0.0000,40.1600,61,97,358534
2.0039,0.0000,40.2600,61,97,358537
2.0479,0.0000,40.2300,61,97,358540
1.9892,0.0196,40.2000,61,97,358544
1.9795,0.0000,40.2300,61,97,358547
1.9892,0.0000,40.2600,61,97,358550
1.9501,0.0000,40.4000,61,97,358553
1.9697,0.0000,40.1600,61,97,358557
1.9501,0.0000,40.3300,61,97,358560
1.9648,0.0000,40.3000,61,97,358563
2.0137,0.0000,40.1300,62,97,358566
2.0137,0.0000,40.2000,62,97,358571
1.9990,0.0000,40.2600,62,97,358574
2.0577,0.0000,40.1600,62,97,358578
2.0283,0.0000,40.2000,62,97,358581
2.0186,0.0000,40.2300,62,97,358584
2.0332,0.0000,40.3000,62,97,358587
2.0528,0.0000,40.2600,62,97,358591
2.0723,0.0000,40.1000,62,97,358594
2.0479,0.0000,40.5300,62,97,358597
2.0723,0.0000,40.2600,62,97,358600
2.0968,0.0098,40.2000,62,97,358604
2.0821,0.0000,40.2600,62,97,358607
2.1310,0.0000,40.0600,62,97,358610
2.1163,0.0000,40.1600,62,97,358614
2.1163,0.0000,40.3000,62,97,358618
2.1408,0.0000,40.2300,62,97,358621
2.1065,0.0000,40.3300,62,97,358624
2.1505,0.0000,40.0600,62,97,358627
2.1457,0.0000,40.2600,62,97,358631
2.0870,0.0000,40.3300,62,97,358634
2.0772,0.0000,40.2300,62,97,358637
2.0479,0.0000,40.2600,62,97,358640
2.0772,0.0000,40.0600,62,97,358644
2.0332,0.0000,40.2600,62,97,358647
2.0235,0.0000,40.2600,62,97,358650
2.0283,0.0000,40.2300,62,97,358653
2.0039,0.0000,40.2600,62,97,358658
2.0283,0.0000,40.1000,62,97,358661
1.9941,0.0000,40.1600,62,97,358664
1.9697,0.0000,40.3600,62,97,358667
1.9746,0.0000,40.2000,62,97,358670
1.9599,0.0000,40.2600,62,97,358674
1.9599,0.0000,40.1000,62,97,358677
1.9306,0.0000,40.1600,62,97,358680
1.9208,0.0000,40.2300,62,97,358683
1.9159,0.0000,40.3000,62,97,358687
1.9013,0.0000,40.2300,62,97,358690
1.9110,0.0000,40.1000,62,97,358693
1.8768,0.0000,40.3000,62,97,358696
1.8817,0.0000,40.3000,62,97,358701
1.8964,0.0000,40.2300,62,97,358704
1.8768,0.0000,40.3000,62,97,358707
1.8964,0.0000,40.1600,62,97,358710
1.8719,0.0000,40.2300,62,97,358714
1.8573,0.0000,40.4000,62,97,358717
1.8671,0.0000,40.2600,62,97,358720
1.8426,0.0000,40.3000,62,97,358723
1.8573,0.0000,40.2000,62,97,358727
1.8280,0.0000,40.2000,62,97,358730
1.8182,0.0000,40.2600,62,97,358733
1.8084,0.0000,40.3000,62,97,358736
1.7791,0.0000,40.2600,62,97,358740
1.7840,0.0000,40.1300,62,97,358744
1.7351,0.0000,40.2600,62,97,358747
1.7595,0.0000,40.3000,62,97,358750
1.8622,0.0000,40.1600,62,97,358754
1.9697,0.0000,40.2600,62,97,358757
2.1750,0.0000,40.1300,62,97,358760
2.3412,0.0000,40.3600,62,97,358763
2.4976,0.0000,40.2600,62,97,358767
2.6540,0.0000,40.1600,62,97,358770
2.7419,0.0000,40.2600,62,97,358773
2.8495,0.0000,40.1600,62,97,358776
2.8348,0.0000,40.2000,62,97,358780
2.8055,0.0000,40.2300,62,97,358784
2.7761,0.0000,40.2600,62,97,358787
2.6393,0.0049,40.2600,62,97,358790
2.5464,0.0000,40.1600,62,97,358794
2.3509,0.0000,40.3000,62,97,358797
2.1896,0.0000,40.2600,62,97,358800
2.0723,0.0000,40.2000,62,97,358803
1.9257,0.0000,40.2600,62,97,358807
1.8524,0.0000,40.1300,62,97,358810
1.7449,0.0000,40.1600,62,97,358813
1.6813,0.0000,40.3000,62,97,358816
1.6520,0.0000,40.1600,62,97,358820
1.5982,0.0000,40.3600,62,97,358823
1.6080,0.0000,39.8600,62,97,358827
1.5689,0.0000,40.2300,62,97,358830
1.5640,0.0000,40.2300,62,97,358834
1.5787,0.0000,40.3600,62,97,358837
1.5836,0.0000,40.2600,62,97,358840
1.6227,0.0000,40.1600,62,97,358843
1.6080,0.0000,40.2600,62,97,358847
1.6178,0.0000,40.3600,62,97,358850
1.6520,0.0000,40.1600,62,97,358853
1.6276,0.0000,40.2000,62,97,358856
1.6618,0.0000,40.2000,62,97,358860
1.6667,0.0000,40.2000,62,97,358863
1.6520,0.0049,40.3300,62,97,358866
1.6813,0.0000,40.1600,62,97,358870
1.6618,0.0000,40.2600,62,97,358874
1.6911,0.0000,40.1000,62,97,358877
1.6667,0.0000,40.2600,62,97,358880
1.6764,0.0000,40.2600,62,97,358883
1.6862,0.0000,40.2300,62,97,358887
1.6813,0.0000,40.2600,62,97,358890
1.7107,0.0000,40.2300,62,97,358893
1.6911,0.0000,40.2600,62,97,358897
1.7009,0.0000,40.2300,62,97,358900
1.7351,0.0049,40.2300,62,97,358903
1.7204,0.0000,40.3600,62,97,358906
1.7498,0.0000,40.1300,62,97,358910
1.7302,0.0000,40.2300,62,97,358914
1.7351,0.0000,40.4000,62,97,358917
1.7644,0.0000,40.1300,62,97,358920
1.7644,0.0000,40.3300,62,97,358924
1.8035,0.0000,40.1300,62,97,358927
1.7840,0.0000,40.2000,62,97,358930
1.7840,0.0000,40.3000,62,97,358933
1.7937,0.0000,40.2000,62,97,358937
1.7742,0.0000,40.3300,62,97,358940
1.7986,0.0000,40.1600,62,97,358943
1.7693,0.0000,40.2600,62,97,358946
1.7693,0.0000,40.2600,62,97,358950
1.8035,0.0000,40.1600,62,97,358953
1.7791,0.0000,40.3300,62,97,358957
1.8133,0.0000,40.1300,62,97,358960
1.7889,0.0000,40.2000,62,97,358964
1.7889,0.0000,40.2600,62,97,358967
1.8084,0.0000,40.1300,62,97,358970
1.7937,0.0000,40.0300,62,97,358973
1.8182,0.0000,40.1600,62,97,358977
1.7986,0.0000,40.2600,62,97,358980
1.7986,0.0049,40.3600,62,97,358983
1.8182,0.0000,40.2000,62,97,358986
1.7889,0.0000,40.2300,62,97,358990
1.8133,0.0000,40.2000,62,97,358993
1.7840,0.0000,40.2300,62,97,358996
1.7937,0.0000,40.2600,62,97,359000
1.8231,0.0000,40.1600,62,97,359004
1.8377,0.0000,40.2300,62,97,359007
1.8622,0.0000,40.1600,62,97,359010
1.8573,0.0000,40.1300,62,97,359013
1.8622,0.0000,40.2600,62,97,359017
1.8817,0.0000,40.1600,62,97,359020
1.8573,0.0000,40.2600,62,97,359023
1.8817,0.0000,40.1600,62,97,359026
1.8622,0.0000,40.3000,62,97,359030
1.8768,0.0000,40.3000,62,97,359033
1.8915,0.0000,40.2000,62,97,359036
1.8915,0.0000,40.2600,62,97,359040
1.9306,0.0000,40.2000,62,97,359044
1.8915,0.0000,40.3300,62,97,359047
1.9110,0.0000,40.2600,62,97,359050
1.9159,0.0000,40.1300,62,97,359053
1.8866,0.0000,40.2600,62,97,359057
1.9110,0.0000,40.1600,62,97,359060
1.8866,0.0000,40.2000,62,97,359063
1.8817,0.0049,40.3600,62,97,359066
1.9159,0.0000,40.1600,62,97,359070
1.9159,0.0000,40.2300,62,97,359073
1.9501,0.0000,40.1600,62,97,359076
1.9110,0.0000,40.2300,62,97,359079
1.9062,0.0000,40.3600,62,97,359084
1.9110,0.0000,40.2300,62,97,359087
1.8964,0.0000,40.1600,62,97,359090
1.9208,0.0000,40.2300,62,97,359093
1.8817,0.0000,40.2600,62,97,359097
1.8768,0.0000,40.2600,62,97,359100
1.9013,0.0147,40.1600,62,97,359103
1.8866,0.0000,40.2600,62,97,359107
1.9355,0.0000,40.1300,62,97,359110
1.9453,0.0000,40.2000,62,97,359113
1.9501,0.0000,40.3300,62,97,359116
1.9599,0.0000,40.1000,62,97,359120
1.9257,0.0000,40.2600,62,97,359123
1.9404,0.0098,40.2300,62,97,359127
1.9110,0.0000,40.2000,62,97,359130
1.9159,0.0000,40.2600,62,97,359134
1.9355,0.0000,40.1600,62,97,359137
1.9355,0.0000,40.3000,62,97,359140
1.9648,0.0000,40.1300,62,97,359143
1.9697,0.0000,40.3300,62,97,359147
1.9404,0.0098,40.2600,62,97,359150
1.9648,0.0000,40.2300,62,97,359153
1.9599,0.0000,40.2600,62,97,359156
1.9550,0.0196,40.1000,62,97,359160
1.9257,0.0000,40.2300,62,97,359163
1.9208,0.0244,40.2600,62,97,359166
1.9355,0.0000,40.1600,62,97,359171
1.8915,0.0000,40.2600,62,97,359174
1.9062,0.0000,40.1000,62,97,359177
1.9501,0.0000,40.0300,62,97,359182
1.9062,0.0000,40.1600,62,97,359185
1.9013,0.0000,40.3300,62,97,359188
1.9062,0.0000,40.2600,62,97,359191
1.8671,0.0000,40.2600,62,97,359195
1.9208,0.0000,40.0000,62,97,359198
1.9110,0.0000,40.1300,62,97,359201
1.9062,0.0000,40.3000,62,97,359204
1.9257,0.0000,40.2000,62,97,359208
1.9159,0.0000,40.3300,62,97,359212
1.9746,0.0000,40.0300,62,97,359215
1.9550,0.0000,40.1600,62,97,359218
1.9062,0.0000,40.2000,62,97,359222
1.9208,0.0000,40.2300,62,97,359225
1.9110,0.0000,40.2600,62,97,359228
1.9550,0.0000,40.0300,62,97,359231
1.9013,0.0000,40.2300,62,97,359235
1.8866,0.0000,40.2600,62,97,359238
1.8719,0.0000,40.3000,62,97,359241
1.8524,0.0000,40.2600,62,97,359244
1.9110,0.0000,40.1300,62,97,359248
1.8964,0.0000,40.2000,62,97,359251
1.8964,0.0000,40.3600,62,97,359255
1.9208,0.0000,40.3000,62,97,359258
1.9013,0.0000,40.3300,62,97,359262
1.9404,0.0000,40.1300,62,97,359265
1.8817,0.0000,40.2000,62,97,359268
1.8671,0.0000,40.3000,62,97,359271
1.8768,0.0000,40.3000,62,97,359275
1.8719,0.0000,40.2600,62,97,359278
1.9257,0.0000,40.0000,62,97,359281
1.8768,0.0000,40.3000,62,97,359284
1.8573,0.0000,40.2600,62,97,359288
1.8475,0.0000,40.2000,62,97,359291
1.8328,0.0000,40.2600,62,97,359294
1.8866,0.0098,40.0000,62,97,359298
1.8817,0.0000,40.2300,62,97,359302
1.8817,0.0000,40.2600,62,97,359305
1.9110,0.0000,40.2000,62,97,359308
1.9159,0.0000,40.2300,62,97,359311
1.9697,0.0196,40.0300,62,97,359315
1.9404,0.0000,40.1600,62,97,359318
1.9306,0.0000,40.3300,62,97,359321
1.9306,0.0000,40.2600,62,97,359324
1.9257,0.0000,40.2600,62,97,359328
1.9697,0.0000,40.0300,62,97,359331
1.9110,0.0000,40.2000,62,97,359334
1.9062,0.0000,40.2600,62,97,359337
1.9453,0.0000,40.3000,62,97,359342
1.9404,0.0000,40.2600,62,97,359345
1.9941,0.0000,40.1000,62,97,359348
1.9648,0.0000,40.2300,62,97,359351
1.9404,0.0000,40.2600,62,97,359355
1.9501,0.0000,40.1600,62,97,359358
1.9355,0.0000,40.2300,62,97,359361
1.9844,0.0000,40.1000,62,97,359364
1.9355,0.0000,40.2000,62,97,359368
1.9062,0.0000,40.3300,62,97,359371
1.9062,0.0000,40.2000,62,97,359374
1.8866,0.0000,40.0000,62,97,359377
1.9306,0.0000,40.0300,62,97,359382
1.8915,0.0000,40.2000,62,97,359385
1.8964,0.0000,40.2600,62,97,359388
1.9159,0.0000,40.2300,62,97,359391
1.8866,0.0000,40.2300,62,97,359395
1.9501,0.0000,40.0600,62,97,359398
1.9110,0.0000,40.1300,62,97,359401
1.9062,0.0000,40.3000,62,97,359404
1.9453,0.0000,40.2300,62,97,359408
1.9208,0.0000,40.2600,62,97,359411
1.9453,0.0000,40.2300,62,97,359414
1.9013,0.0000,40.2000,62,97,359417
1.8915,0.0000,40.2300,62,97,359421
1.9306,0.0000,40.2300,62,97,359425
1.9110,0.0000,40.2600,62,97,359428
1.9599,0.0000,40.1000,62,97,359431
1.9208,0.0000,40.2300,62,97,359435
1.9208,0.0000,40.3300,62,97,359438
1.9355,0.0000,40.2300,62,97,359441
1.9062,0.0000,40.3000,62,97,359444
1.9404,0.0000,40.0000,62,97,359448
1.9306,0.0000,40.1300,62,97,359451
1.9208,0.0000,40.4000,62,97,359454
1.9404,0.0000,40.1600,62,97,359457
1.9404,0.0000,40.2600,62,97,359461
1.9306,0.0000,39.9300,62,97,359464
1.9013,0.0000,40.2600,62,97,359468
1.9062,0.0000,40.3000,62,97,359471
1.9208,0.0000,40.2600,62,97,359475
1.9208,0.0000,40.2600,62,97,359478
1.9648,0.0000,40.0600,62,97,359481
1.9599,0.0000,40.2600,62,97,359484
1.9941,0.0000,40.2600,62,97,359488
2.0381,0.0000,40.2300,62,97,359491
2.0235,0.0000,40.3600,62,97,359494
2.0528,0.0000,40.0300,62,97,359497
2.0137,0.0000,40.1600,62,97,359501
1.9844,0.0000,40.3000,62,97,359504
1.9941,0.0000,40.1300,62,97,359507
1.9746,0.0000,40.2600,62,97,359511
2.0283,0.0049,40.1000,62,97,359515
2.0137,0.0000,40.2000,62,97,359518
2.0235,0.0000,40.3300,62,97,359521
2.0577,0.0000,40.2000,62,97,359524
2.0528,0.0000,40.3600,62,97,359528
2.0674,0.0000,40.0600,62,97,359531
2.0186,0.0000,40.2600,62,97,359534
2.0137,0.0000,40.2600,62,97,359537
2.0332,0.0000,40.1600,62,97,359541
2.0137,0.0000,40.4000,62,97,359544
2.0430,0.0000,40.1600,62,97,359547
2.0137,0.0000,40.1600,62,97,359550
1.9844,0.0000,39.5700,62,97,359555
1.9795,0.0000,40.3000,62,97,359558
1.9257,0.0000,40.2300,62,97,359561
1.9355,0.0000,40.2300,62,97,359564
1.9013,0.0000,40.2000,62,97,359568
1.8964,0.0000,40.2000,62,97,359571
1.8964,0.0000,40.2600,62,97,359574
1.8573,0.0000,40.2600,62,97,359577
1.8622,0.0000,40.0600,62,97,359581
1.8280,0.0000,40.3300,62,97,359584
1.8231,0.0000,40.2600,62,97,359587
1.8475,0.0000,40.2300,62,97,359590
1.8475,0.0000,40.2600,62,97,359595
1.8817,0.0000,40.0300,62,97,359598
1.8524,0.0000,40.2000,62,97,359601
1.8231,0.0000,40.2600,62,97,359604
1.8035,0.0000,40.1300,62,97,359608
1.7742,0.0000,40.2600,62,97,359611
1.8231,0.0000,40.1600,62,97,359614
1.8328,0.0000,40.2300,62,97,359617
1.8719,0.0000,40.3300,62,97,359621
1.8719,0.0000,40.2300,62,97,359624
1.8524,0.0000,40.2600,62,97,359627
1.8671,0.0000,40.1300,62,97,359630
1.8280,0.0000,40.0600,62,97,359634
1.7889,0.0000,40.2600,62,97,359638
1.7889,0.0196,40.1600,62,97,359641
1.7498,0.0000,40.3000,62,97,359644
1.7595,0.0000,40.1000,62,97,359648
1.7253,0.0000,40.3000,62,97,359651
1.7204,0.0000,40.2600,62,97,359654
1.7937,0.0000,40.1300,62,97,359657
1.9062,0.0000,40.3300,62,97,359661
2.0870,0.0000,40.1000,62,97,359664
2.2776,0.0000,40.2300,62,97,359667
2.4682,0.0000,40.3000,62,97,359670
2.6295,0.0000,40.1600,62,97,359674
2.7468,0.0000,40.3600,62,97,359677
2.8739,0.0000,40.1300,62,97,359681
2.8837,0.0000,40.2600,62,97,359684
2.8592,0.0000,40.3300,62,97,359688
2.8250,0.0000,40.2600,62,97,359691
2.7028,0.0000,40.3000,62,97,359694
2.6197,0.0000,40.1000,62,97,359697
2.4536,0.0000,40.2300,62,97,359701
2.2727,0.0000,40.2600,62,97,359704
2.1408,0.0000,40.2300,62,97,359707
1.9844,0.0000,40.3300,62,97,359710
1.9208,0.0000,40.1300,62,97,359714
1.8182,0.0000,40.2300,62,97,359717
1.7644,0.0000,40.1600,62,97,359720
1.7351,0.0000,40.2000,62,97,359724
1.7155,0.0000,40.2600,62,97,359728
1.6960,0.0000,40.1300,62,97,359731
1.6569,0.0000,40.2600,62,97,359734
1.6471,0.0000,40.2600,62,97,359737
1.6471,0.0000,40.2600,62,97,359741
1.5885,0.0000,40.3600,62,97,359744
1.6031,0.0000,40.2000,62,97,359747
1.5836,0.0000,40.4300,62,97,359750
1.5836,0.0000,40.2600,62,97,359754
1.6373,0.0000,40.1300,62,97,359757
1.6569,0.0000,40.2600,62,97,359760
1.7058,0.0000,39.4800,62,97,359763
1.7058,0.0000,40.3000,62,97,359768
1.7302,0.0000,40.2600,62,97,359771
1.7351,0.0000,40.2000,62,97,359774
1.7351,0.0000,40.4300,62,97,359777
1.7742,0.0000,40.2000,62,97,359781
1.7595,0.0000,40.2300,62,97,359784
1.7937,0.0000,40.3000,62,97,359787
1.7889,0.0244,40.2300,62,97,359790
1.8280,0.0000,40.2300,62,97,359795
1.7937,0.0000,40.2300,62,97,359798
1.8475,0.0000,40.0300,62,97,359802
1.8231,0.0000,40.2300,62,97,359805
1.8328,0.0000,40.2600,62,97,359809
1.8524,0.0000,40.2000,62,97,359812
1.8231,0.0000,40.2600,62,97,359816
1.8524,0.0000,40.1000,62,97,359819
1.8280,0.0000,40.2000,62,97,359822
1.8573,0.0000,40.2600,62,97,359825
1.8866,0.0000,40.2600,62,97,359829
1.8768,0.0000,40.4300,62,97,359832
1.9208,0.0000,40.0600,62,97,359835
1.8964,0.0000,40.2000,62,97,359838
1.8964,0.0000,40.3300,62,97,359842
1.9159,0.0000,40.2600,62,97,359845
1.9013,0.0000,40.3300,62,97,359848
1.9941,0.0000,40.1300,62,97,359852
1.9404,0.0000,40.2300,62,97,359856
1.9159,0.0000,40.3000,62,97,359859
1.9159,0.0000,40.3000,62,97,359862
1.8817,0.0000,40.2600,62,97,359865
1.9404,0.0000,40.0300,62,97,359869
1.8915,0.0000,40.3000,62,97,359872
1.9110,0.0000,40.3000,62,97,359875
1.9404,0.0000,40.2300,62,97,359878
1.9257,0.0000,40.3300,62,97,359882
1.9648,0.0098,40.0600,62,97,359885
1.9355,0.0000,40.2300,62,97,359888
1.9159,0.0000,40.2600,62,97,359891
1.9257,0.0000,40.3000,62,97,359896
1.9013,0.0000,40.3600,62,97,359899
1.9550,0.0000,40.0600,62,97,359902
1.9355,0.0000,40.1600,62,97,359905
1.8964,0.0000,40.3300,62,97,359909
1.8964,0.0000,40.4000,62,97,359912
1.8866,0.0000,40.2600,62,97,359915
1.9355,0.0000,40.1000,62,97,359918
1.8964,0.0098,40.2300,62,97,359922
1.9062,0.0000,40.2600,62,97,359925
1.9355,0.0000,40.2300,62,97,359928
1.9257,0.0196,40.2600,62,97,359932
1.9795,0.0000,40.0300,62,97,359936
1.9453,0.0000,40.1600,62,97,359939
1.9306,0.0000,40.2600,62,97,359942
1.9453,0.0000,40.1300,62,97,359946
1.9208,0.0000,40.3300,62,97,359949
1.9453,0.0000,40.0300,62,97,359952
1.9208,0.0000,40.2300,62,97,359955
1.9013,0.0000,40.2600,62,97,359959
1.9257,0.0000,40.2600,62,97,359962
1.9501,0.0000,40.2600,62,97,359965
1.9941,0.0000,40.1000,62,97,359968
1.9501,0.0000,40.2300,62,97,359972
1.9453,0.0000,40.3000,62,97,359975
1.9453,0.0000,40.3300,62,97,359979
1.9404,0.0000,40.2600,62,97,359982
2.0088,0.0000,40.1000,62,97,359986
1.9697,0.0000,40.1600,62,97,359989
1.9550,0.0000,40.2600,62,97,359992
1.9648,0.0000,40.3000,62,97,359995
1.9746,0.0000,40.2600,62,97,359999
2.0137,0.0000,40.1000,62,97,360002
1.9795,0.0000,40.1000,62,97,360005
1.9697,0.0000,40.3000,62,97,360008
1.9697,0.0000,40.3000,62,97,360012
1.9501,0.0000,39.8600,62,97,360015
1.9941,0.0000,40.1300,62,97,360018
1.9453,0.0000,40.2300,62,97,360022
1.9404,0.0000,40.2600,62,97,360026
1.9599,0.0000,40.5000,62,97,360029
1.9404,0.0000,40.3000,62,97,360032
1.9795,0.0000,40.1000,62,97,360035
1.9550,0.0000,40.1600,62,97,360039
1.9355,0.0000,40.2600,62,97,360042
1.9404,0.0000,40.2300,62,97,360045
1.8964,0.0000,40.3600,62,97,360048
1.9453,0.0000,40.0600,62,97,360052
1.9306,0.0000,40.2000,62,97,360055
1.9355,0.0000,40.3000,62,97,360058
1.9550,0.0000,40.2300,62,97,360061
1.9453,0.0000,40.3300,62,97,360066
1.9648,0.0000,40.0300,62,97,360069
1.9013,0.0000,40.3000,62,97,360072
1.9062,0.0000,40.3000,62,97,360075
1.9404,0.0000,40.2600,62,97,360079
1.9208,0.0000,40.3600,62,97,360082
1.9550,0.0000,40.1000,62,97,360085
1.9208,0.0000,40.1600,62,97,360088
1.8915,0.0000,40.2600,62,97,360092
1.9110,0.0000,40.2300,62,97,360095
1.8915,0.0000,40.2600,62,97,360098
1.9257,0.0098,40.0300,62,97,360101
1.8964,0.0000,40.2300,62,97,360105
1.9159,0.0000,40.3300,62,97,360109
1.8866,0.0000,40.2300,62,97,360112
1.8768,0.0000,40.3000,62,97,360115
1.9159,0.0000,40.0300,62,97,360119
1.8719,0.0000,40.2300,62,97,360122
1.8719,0.0000,40.3000,62,97,360125
1.8964,0.0000,40.1000,62,97,360128
1.8768,0.0000,40.2600,62,97,360132
1.9208,0.0000,40.1000,62,97,360135
1.9159,0.0000,40.2600,62,97,360138
1.9062,0.0000,40.2300,62,97,360141
1.9306,0.0000,40.1000,62,97,360145
1.8866,0.0000,40.3300,62,97,360148
1.9257,0.0000,40.0300,62,97,360152
1.8964,0.0000,40.4000,62,97,360155
1.8915,0.0000,40.3300,62,97,360159
1.9062,0.0000,40.2300,62,97,360162
1.8915,0.0000,40.2300,62,97,360165
1.9257,0.0000,40.0600,62,97,360168
1.8817,0.0000,40.2600,62,97,360172
1.8915,0.0000,40.2600,62,97,360175
1.9159,0.0244,40.2000,62,97,360178
1.8915,0.0000,40.2600,62,97,360181
1.9257,0.0000,40.0600,62,97,360185
1.8964,0.0196,40.1600,62,97,360188
1.8964,0.0000,40.2600,62,97,360192
1.9159,0.0000,40.2300,62,97,360195
1.9013,0.0000,40.3000,62,97,360199
1.9355,0.0000,40.0600,62,97,360202
1.8671,0.0000,40.2000,62,97,360205
1.8475,0.0000,40.3000,62,97,360208
1.8817,0.0000,40.2600,62,97,360212
1.8719,0.0000,40.2600,62,97,360215
1.9208,0.0000,40.1300,62,97,360218
1.9208,0.0000,40.2300,62,97,360221
1.9013,0.0000,40.2300,62,97,360225
1.9257,0.0000,40.3000,62,97,360228
1.9110,0.0000,40.3000,62,97,360231
1.9648,0.0244,40.0600,62,97,360235
1.9501,0.0000,40.1600,62,97,360239
1.9306,0.0147,40.3000,62,97,360242
1.9355,0.0000,40.3000,62,97,360245
1.9013,0.0196,40.3300,62,97,360248
1.9550,0.0000,40.0300,62,97,360252
1.9159,0.0000,40.2300,62,97,360255
1.9159,0.0000,40.3600,62,97,360258
1.9208,0.0000,40.3300,62,97,360262
1.8915,0.0000,40.3000,62,97,360265
1.9257,0.0000,40.0600,62,97,360268
1.8964,0.0000,40.3000,62,97,360271
1.9110,0.0000,40.2000,62,97,360275
1.9208,0.0000,40.2300,62,97,360279
1.8964,0.0000,40.2600,62,97,360282
1.9257,0.0000,40.0300,62,97,360285
1.9062,0.0000,40.2600,62,97,360289
1.9062,0.0000,40.3000,62,97,360292
1.9208,0.0000,40.2000,62,97,360295
1.9062,0.0000,40.3600,62,97,360298
1.9648,0.0000,39.9600,62,97,360302
1.9355,0.0000,40.2300,62,97,360305
1.9208,0.0000,40.2600,62,97,360308
1.9355,0.0000,40.3000,62,97,360311
1.9257,0.0000,40.3000,62,97,360315
1.9550,0.0000,40.0300,62,97,360318
1.8964,0.0000,40.3000,62,97,360322
1.9013,0.0000,40.2600,62,97,360325
1.9355,0.0000,40.2300,62,97,360329
1.9257,0.0000,40.3000,62,97,360332
1.9795,0.0000,40.1300,62,97,360335
1.9501,0.0000,40.1600,62,97,360338
1.9257,0.0000,40.3300,62,97,360342
1.9453,0.0000,40.2300,62,97,360345
1.9159,0.0000,40.2600,62,97,360348
1.9550,0.0000,40.1300,62,97,360351
1.9208,0.0000,40.2000,62,97,360355
1.9110,0.0000,40.3000,62,97,360358
1.9306,0.0000,40.2300,62,97,360361
1.9306,0.0000,40.2600,62,97,360365
1.9892,0.0196,40.0300,62,97,360369
1.9550,0.0000,40.2300,62,97,360372
1.9599,0.0000,40.3600,62,97,360375
1.9795,0.0000,40.2000,62,97,360378
1.9648,0.0000,40.2000,62,97,360382
2.0186,0.0000,40.0600,62,97,360385
2.0039,0.0196,40.1600,62,97,360388
2.0039,0.0000,40.3000,62,97,360391
2.0283,0.0000,40.1600,62,97,360395
1.9892,0.0000,40.2600,62,97,360398
2.0479,0.0000,40.1300,62,97,360401
2.0283,0.0049,39.8900,63,97,360407
2.0039,0.0000,40.2300,63,97,360410
2.0332,0.0000,40.2300,63,97,360413
2.0772,0.0000,40.2600,63,97,360417
2.0968,0.0000,40.2600,63,97,360420
2.1603,0.0049,40.2300,63,97,360423
2.1065,0.0000,40.3600,63,97,360426
2.0626,0.0000,40.3000,63,97,360430
2.0332,0.0000,40.3000,63,97,360433
1.9892,0.0000,40.2600,63,97,360436
2.0381,0.0049,40.0600,63,97,360439
1.9941,0.0000,40.2300,63,97,360443
1.9550,0.0000,40.3300,63,97,360446
1.9453,0.0000,40.2300,63,97,360450
1.9453,0.0000,40.2600,63,97,360453
1.9892,0.0000,40.0300,63,97,360457
1.9355,0.0000,40.2300,63,97,360460
1.9257,0.0000,40.3300,63,97,360463
1.9110,0.0000,40.2600,63,97,360466
1.9159,0.0000,40.2600,63,97,360470
1.9306,0.0049,40.0300,63,97,360473
1.9013,0.0000,40.2000,63,97,360476
1.8964,0.0000,40.3000,63,97,360479
1.9013,0.0000,40.2600,63,97,360483
1.9208,0.0000,40.2300,63,97,360486
1.9404,0.0049,40.0600,63,97,360489
1.8866,0.0000,40.2000,63,97,360493
1.8573,0.0000,40.2000,63,97,360497
1.8475,0.0000,40.2600,63,97,360500
1.8573,0.0000,40.2600,63,97,360503
1.8719,0.0049,40.1300,63,97,360506
1.8377,0.0000,40.3000,63,97,360510
1.8573,0.0000,40.2000,63,97,360513
1.9062,0.0000,40.2300,63,97,360516
1.8719,0.0000,40.2600,63,97,360519
1.9110,0.0049,40.0300,63,97,360523
1.8475,0.0098,40.3000,63,97,360526
1.8182,0.0147,40.3000,63,97,360529
1.7791,0.0000,40.2600,63,97,360534
1.7693,0.0000,40.3300,63,97,360537
1.8524,0.0000,40.1300,63,97,360540
1.9159,0.0000,40.2300,63,97,360543
2.0528,0.0000,40.1600,63,97,360547
2.2239,0.0000,40.2600,63,97,360550
2.4536,0.0000,40.2600,63,97,360553
2.6735,0.0000,40.1600,63,97,360556
2.7664,0.0000,40.3300,63,97,360560
2.8886,0.0000,40.2000,63,97,360563
2.9326,0.0000,40.2600,63,97,360566
2.9326,0.0000,40.3300,63,97,360569
2.9179,0.0000,40.1300,63,97,360573
2.7810,0.0000,40.3000,63,97,360577
2.6686,0.0000,40.2600,63,97,360580
2.5171,0.0000,40.2600,63,97,360583
2.3509,0.0000,40.2300,63,97,360587
2.2434,0.0000,40.2300,63,97,360590
2.0528,0.0000,40.2300,63,97,360593
1.9599,0.0000,40.2000,63,97,360596
1.8328,0.0098,40.3600,63,97,360600
1.7546,0.0000,40.3000,63,97,360603
1.7351,0.0000,40.1600,63,97,360606
1.6520,0.0000,40.2600,63,97,360609
1.6227,0.0000,40.2000,63,97,360613
1.5934,0.0000,40.2300,63,97,360616
1.5738,0.0000,40.3300,63,97,360620
1.6031,0.0000,40.1000,63,97,360623
1.5689,0.0000,40.3000,63,97,360627
1.5787,0.0000,40.2300,63,97,360630
1.5982,0.0000,40.2600,63,97,360633
1.6129,0.0000,40.3000,63,97,360636
1.6716,0.0000,40.1000,63,97,360640
1.6373,0.0000,40.2300,63,97,360643
1.6471,0.0000,40.2600,63,97,360646
1.6373,0.0000,40.3600,63,97,360649
1.6520,0.0000,40.4300,63,97,360653
1.7204,0.0000,40.1600,63,97,360656
1.7253,0.0000,40.2300,63,97,360659
1.6911,0.0000,40.2000,63,97,360663
1.7009,0.0000,40.3000,63,97,360667
1.6960,0.0000,40.2600,63,97,360670
1.7351,0.0049,40.1000,63,97,360673
1.6960,0.0000,40.2300,63,97,360676
1.7155,0.0000,40.2000,63,97,360680
1.7302,0.0000,40.2300,63,97,360683
1.7400,0.0000,40.4700,63,97,360686
1.7986,0.0000,40.1000,63,97,360689
1.7937,0.0000,40.2300,63,97,360693
1.7644,0.0000,40.2000,63,97,360696
1.7693,0.0000,40.2600,63,97,360699
1.7937,0.0000,40.3300,63,97,360702
1.8328,0.0244,40.2000,63,97,360707
1.7889,0.0000,40.2600,63,97,360710
1.7840,0.0000,40.2000,63,97,360713
1.7889,0.0000,40.2300,63,97,360716
1.8035,0.0000,40.2600,63,97,360720
1.8719,0.0000,40.1600,63,97,360723
1.8377,0.0000,40.2600,63,97,360726
1.8280,0.0000,40.2000,63,97,360729
1.8182,0.0000,40.2600,63,97,360733
1.8231,0.0000,40.2600,63,97,360736
1.8866,0.0000,40.0600,63,97,360739
1.8524,0.0000,40.3300,63,97,360742
1.8377,0.0000,40.3000,63,97,360747
1.7986,0.0000,40.2600,63,97,360750
1.8133,0.0000,40.2300,63,97,360753
1.8866,0.0049,39.8900,63,97,360756
1.8573,0.0000,40.2300,63,97,360760
1.8671,0.0000,40.2300,63,97,360763
1.8622,0.0000,40.3300,63,97,360766
1.8622,0.0000,40.3300,63,97,360770
1.9208,0.0000,40.1000,63,97,360773
1.8866,0.0000,40.2300,63,97,360776
1.8768,0.0000,40.3000,63,97,360779
1.8573,0.0000,39.7300,63,97,360783
1.8573,0.0000,40.2600,63,97,360786
1.9110,0.0000,40.1600,63,97,360790
1.8866,0.0000,40.2300,63,97,360793
1.8768,0.0000,40.2600,63,97,360797
1.8671,0.0000,40.3300,63,97,360800
1.8719,0.0000,40.2600,63,97,360803
1.9453,0.0000,40.1300,63,97,360806
1.8719,0.0000,40.2300,63,97,360810
1.8573,0.0000,40.1300,63,97,360813
1.8622,0.0000,40.3000,63,97,360816
1.8719,0.0000,40.2600,63,97,360819
1.9306,0.0000,40.1300,63,97,360823
1.9062,0.0000,40.2300,63,97,360826
1.9110,0.0000,40.2000,63,97,360829
1.9062,0.0000,40.3000,63,97,360833
1.9110,0.0000,40.2600,63,97,360837
1.9453,0.0293,40.1600,63,97,360840
1.9110,0.0000,40.2300,63,97,360843
1.9404,0.0000,40.2000,63,97,360846
1.9013,0.0000,40.3300,63,97,360850
1.9013,0.0000,40.2600,63,97,360853
1.9550,0.0000,40.1300,63,97,360856
1.9110,0.0000,40.2600,63,97,360859
1.9208,0.0098,40.2000,63,97,360863
1.9306,0.0000,40.3300,63,97,360866
1.9355,0.0000,40.2600,63,97,360869
1.9941,0.0000,40.1300,63,97,360872
1.9599,0.0000,40.2300,63,97,360877
1.9501,0.0000,40.2000,63,97,360880
1.9453,0.0000,40.2300,63,97,360883
1.9501,0.0000,40.3600,63,97,360886
2.0088,0.0000,40.1600,63,97,360890
1.9844,0.0000,40.2300,63,97,360893
1.9746,0.0000,40.2300,63,97,360896
1.9648,0.0000,40.3600,63,97,360899
1.9648,0.0000,40.3300,63,97,360903
2.0186,0.0000,40.1000,63,97,360906
1.9550,0.0000,40.2300,63,97,360909
1.9501,0.0000,40.2000,63,97,360912
1.9404,0.0000,40.3300,63,97,360916
1.9355,0.0000,40.2600,63,97,360920
1.9746,0.0147,40.1000,63,97,360923
1.9355,0.0000,40.2300,63,97,360926
1.9355,0.0098,40.1600,63,97,360930
1.9306,0.0000,40.3600,63,97,360933
1.9159,0.0293,40.3600,63,97,360936
1.9599,0.0000,40.1000,63,97,360940
1.9355,0.0000,40.2000,63,97,360943
1.9159,0.0000,40.1300,63,97,360946
1.8866,0.0000,40.3000,63,97,360949
1.8817,0.0000,40.2300,63,97,360953
1.9208,0.0000,40.2300,63,97,360956
1.8964,0.0000,40.3000,63,97,360960
1.9110,0.0000,40.1300,63,97,360963
1.9013,0.0000,40.2300,63,97,360967
1.9013,0.0000,40.3300,63,97,360970
1.9501,0.0000,40.2300,63,97,360973
1.9208,0.0293,40.2600,63,97,360976
1.9257,0.0000,40.1600,63,97,360980
1.9159,0.0000,40.3300,63,97,360983
1.9013,0.0098,40.2600,63,97,360986
1.9599,0.0098,40.1000,63,97,360989
1.8866,0.0000,40.2600,63,97,360993
1.8817,0.0000,40.1600,63,97,360996
1.8524,0.0000,40.2600,63,97,360999
1.8524,0.0000,40.2000,63,97,361003
1.8817,0.0000,40.1600,63,97,361007
1.8475,0.0000,40.3000,63,97,361010
1.8573,0.0000,40.1000,63,97,361013
1.8426,0.0000,40.2600,63,90,361016
1.8426,0.0000,40.2600,63,90,361021
1.8328,0.0196,40.2600,63,90,361024
1.8622,0.0000,40.1600,63,90,361028
1.8426,0.0000,40.3000,63,90,361031
1.8866,0.0000,40.1300,63,90,361034
1.8573,0.0000,40.2000,63,90,361037
1.8573,0.0000,40.3300,63,90,361041
1.8768,0.0000,40.1600,63,90,361044
1.8573,0.0000,40.2600,63,90,361048
1.8719,0.0000,40.1300,63,90,361051
1.8280,0.0000,40.1600,63,90,361055
1.8231,0.0000,40.2600,63,90,361058
1.8475,0.0000,40.3000,63,90,361061
1.8377,0.0000,40.3600,63,90,361064
1.8524,0.0000,40.2300,63,90,361068
1.8328,0.0000,40.2000,63,90,361071
1.8377,0.0000,40.2600,63,90,361074
1.8622,0.0000,40.1300,63,90,361077
1.8328,0.0000,40.3000,63,90,361081
1.8475,0.0000,40.1600,63,90,361084
1.8133,0.0000,40.3000,63,90,361088
1.8084,0.0000,40.3000,63,90,361091
1.8328,0.0049,40.1600,63,90,361095
1.8475,0.0000,40.2300,63,90,361098
1.8524,0.0000,40.1600,63,90,361101
1.8182,0.0000,40.2600,63,90,361104
1.8182,0.0000,40.3300,63,90,361108
1.8328,0.0049,40.2600,63,90,361111
1.8524,0.0000,40.2600,63,90,361114
1.8915,0.0000,40.1600,63,90,361118
1.8671,0.0000,40.2600,63,90,361121
1.8671,0.0000,40.3000,63,90,361124
1.8915,0.0000,40.1600,63,90,361127
1.8719,0.0000,40.3000,63,90,361132
1.9159,0.0000,40.1300,63,90,361135
1.9062,0.0000,40.1600,63,90,361138
1.9062,0.0000,40.3300,63,90,361141
1.9257,0.0440,40.1600,63,90,361145
1.9257,0.0000,40.3000,63,90,361148
1.9355,0.0000,40.2000,63,90,361151
1.9159,0.0000,40.1600,63,90,361154
1.9062,0.0000,40.2600,63,90,361158
1.9208,0.0000,40.2300,63,90,361161
1.8866,0.0000,40.3000,63,90,361164
1.9159,0.0000,40.2000,63,90,361167
1.8964,0.0000,40.2300,63,90,361171
1.8964,0.0000,40.2600,63,90,361175
1.9306,0.0244,40.3000,63,90,361178
1.9110,0.0000,40.3000,63,90,361181
1.9306,0.0000,40.1300,63,90,361185
1.9208,0.0000,40.2600,63,90,361188
1.9208,0.0000,40.2600,63,90,361191
1.9844,0.0000,40.2000,63,90,361194
1.9404,0.0000,40.3000,63,90,361198
1.9795,0.0000,40.1300,63,90,361201
1.9599,0.0000,40.2300,63,90,361204
1.9648,0.0000,40.2300,63,90,361207
1.9795,0.0000,40.3000,63,90,361211
1.9648,0.0000,40.4700,63,90,361214
1.9844,0.0000,40.1300,63,90,361218
1.9648,0.0000,40.2600,63,90,361221
1.9746,0.0000,40.2600,63,90,361225
2.0039,0.0049,40.1600,63,90,361228
1.9844,0.0000,40.2300,63,90,361231
2.0039,0.0000,40.2000,63,90,361234
1.9892,0.0000,40.2300,63,90,361238
1.9795,0.0000,40.2600,63,90,361241
1.9990,0.0000,40.1300,63,90,361244
1.9746,0.0000,40.3600,63,90,361247
2.0039,0.0000,40.0600,63,90,361251
1.9746,0.0000,40.2000,63,90,361254
1.9746,0.0049,40.2600,63,90,361257
2.0381,0.0000,40.2300,63,90,361261
2.0235,0.0000,40.2600,63,90,361265
2.0772,0.0000,40.1600,63,90,361268
2.0674,0.0000,40.2600,63,90,361271
2.0821,0.0196,40.2600,63,90,361274
2.1114,0.0000,40.2000,63,90,361278
2.0919,0.0000,40.3000,63,90,361281
2.1065,0.0000,40.1600,63,90,361284
2.0870,0.0000,40.2000,63,90,361287
2.0772,0.0000,40.2600,63,90,361291
2.0968,0.0000,40.1600,63,90,361294
2.0723,0.0000,40.2600,63,90,361297
2.0870,0.0000,40.1300,63,90,361300
2.0479,0.0000,40.3300,63,90,361305
2.0332,0.0000,40.3000,63,90,361308
2.0283,0.0000,40.2000,63,90,361311
1.9990,0.0000,40.2600,63,90,361314
2.0283,0.0000,40.1600,63,90,361318
1.9648,0.0000,40.2300,63,90,361321
1.9453,0.0000,40.3000,63,90,361324
1.9501,0.0049,40.3000,63,90,361327
1.9110,0.0049,40.2300,63,90,361331
1.9501,0.0000,40.1300,63,90,361334
1.8768,0.0000,40.2000,63,90,361337
1.8377,0.0000,40.3300,63,90,361340
1.8280,0.0000,40.1600,63,90,361345
1.8133,0.0000,40.2300,63,90,361348
1.8524,0.0000,40.2000,63,90,361351
1.8280,0.0000,40.2300,63,90,361354
1.8231,0.0000,40.2600,63,90,361358
1.8280,0.0000,40.2600,63,90,361361
1.8231,0.0000,40.2600,63,90,361364
1.8573,0.0000,40.1600,63,90,361367
1.8328,0.0000,40.2300,63,90,361371
1.8475,0.0000,40.2600,63,90,361374
1.8475,0.0147,40.1600,63,90,361377
1.8377,0.0000,40.2600,63,90,361381
1.8671,0.0000,40.1300,63,90,361384
1.8475,0.0000,40.1600,63,90,361388
1.8426,0.0000,40.3300,63,90,361391
1.8573,0.0049,40.1300,63,90,361395
1.8231,0.0000,40.3000,63,90,361398
1.8280,0.0244,40.2000,63,90,361401
1.7889,0.0000,40.2300,63,90,361404
1.7449,0.0000,40.2600,63,90,361408
1.7253,0.0000,40.1600,63,90,361411
1.6862,0.0000,40.2600,63,90,361414
1.6911,0.0098,40.1300,63,90,361417
1.7058,0.0000,40.2600,63,90,361421
1.8035,0.0000,40.3300,63,90,361424
1.9550,0.0098,40.1600,63,90,361427
2.1261,0.0000,40.2300,63,90,361431
2.3460,0.0000,40.0600,63,90,361435
2.4976,0.0000,40.2000,63,90,361438
2.6051,0.0049,40.3000,63,90,361441
2.7224,0.0049,40.1600,63,90,361444
2.7224,0.0000,40.4000,63,90,361448
2.7566,0.0000,40.1300,63,90,361451
2.6637,0.0000,40.2000,63,90,361454
2.5660,0.0000,40.2600,63,90,361458
2.4731,0.0049,40.2000,63,90,361461
2.3216,0.0000,40.2600,63,90,361464
2.2092,0.0098,40.0600,63,90,361467
2.0186,0.0000,40.3300,63,90,361472
1.8768,0.0049,40.2600,63,90,361475
1.7791,0.0098,40.2300,63,90,361478
1.6618,0.0098,40.2600,63,90,361481
1.6325,0.0049,40.0600,63,90,361485
1.5591,0.0049,40.2000,63,90,361488
1.5103,0.0000,40.4000,63,90,361491
1.5005,0.0098,40.2600,63,90,361495
1.4809,0.0049,40.2600,63,90,361498
1.5103,0.0049,40.1600,63,90,361501
1.4809,0.0049,40.2300,63,90,361504
1.4712,0.0000,40.3000,63,90,361508
1.4663,0.0098,40.2000,63,90,361511
1.4565,0.0049,40.2600,63,90,361515
1.5005,0.0147,40.0000,63,90,361519
1.4809,0.0098,40.2000,63,90,361522
1.5005,0.0000,40.3300,63,90,361525
1.5249,0.0098,40.3000,63,90,361528
1.5298,0.0244,40.2600,63,90,361532
1.6129,0.0147,40.1000,63,90,361535
1.5543,0.0098,40.4000,63,90,361538
1.5396,0.0000,40.1000,63,90,361542
1.5445,0.0098,40.4000,63,90,361545
1.5445,0.0049,40.2600,63,90,361548
1.5738,0.0147,40.1000,63,90,361551
1.5640,0.0098,40.3000,63,90,361555
1.5934,0.0049,40.2000,63,90,361559
1.5934,0.0049,40.3300,63,90,361562
1.6325,0.0098,40.3000,63,90,361566
1.6471,0.0098,40.2000,63,90,361569
1.6373,0.0049,40.1000,63,90,361572
1.6618,0.0049,40.2000,63,90,361575
1.6325,0.0098,40.3300,63,90,361579
1.6178,0.0049,40.2600,63,90,361582
1.6325,0.0098,40.2600,63,90,361585
1.6276,0.0342,40.2300,63,90,361589
1.6764,0.0147,40.1600,63,90,361592
1.6520,0.0196,40.3000,63,90,361595
1.6520,0.0098,40.2600,63,90,361600
1.6716,0.0147,40.2000,63,90,361603
1.6373,0.0098,40.2600,63,90,361606
1.6569,0.0049,40.2300,63,90,361609
1.6422,0.0098,40.1300,63,90,361613
1.6227,0.0098,40.3000,63,90,361616
1.6520,0.0147,40.1600,63,90,361619
1.6422,0.0147,40.3600,63,90,361623
1.6813,0.0098,40.0600,63,90,361626
1.7009,0.0147,40.0600,63,97,361631
1.6667,0.0147,40.2300,63,97,361634
1.6667,0.0147,40.3600,63,97,361637
1.6667,0.0098,40.2300,63,97,361641
1.6618,0.0098,40.3300,63,97,361645
1.6764,0.0196,40.1300,63,97,361648
1.6325,0.0147,40.2000,63,97,361651
1.6471,0.0098,40.1300,63,97,361655
1.6471,0.0098,40.3300,63,97,361658
1.6471,0.0147,40.2300,63,97,361661
1.6813,0.0196,40.1600,63,97,361665
1.6667,0.0147,40.3600,63,97,361668
1.6911,0.0147,40.1000,63,97,361671
1.6764,0.0049,40.2300,63,97,361675
1.6422,0.0098,40.2600,63,97,361678
1.6520,0.0147,40.2600,63,97,361681
1.6373,0.0587,40.4300,63,97,361684
1.6764,0.0049,40.1600,63,97,361689
1.6422,0.0098,40.1600,63,97,361692
1.6373,0.0098,40.3000,63,97,361695
1.6520,0.0196,40.2300,63,97,361699
1.6569,0.0147,40.2600,63,97,361702
1.7058,0.0147,40.2000,63,97,361705
1.6960,0.0098,40.3300,63,97,361709
1.7009,0.0098,40.3000,63,97,361712
1.6813,0.0244,40.2000,63,97,361715
1.6520,0.0147,40.2300,63,97,361718
1.7009,0.0196,40.0300,63,97,361722
1.6960,0.0196,40.2000,63,97,361725
1.6862,0.0147,40.2600,63,97,361729
1.6862,0.0293,40.3600,63,97,361733
1.6618,0.0147,40.3000,63,97,361736
1.6960,0.0196,40.0000,63,97,361739
1.6764,0.0147,40.1300,63,97,361743
1.6813,0.0049,40.2600,63,97,361746
1.6716,0.0196,40.3600,63,97,361749
1.6618,0.0147,40.2600,63,97,361752
1.7009,0.0293,40.1000,63,97,361756
1.6667,0.0196,40.2300,63,97,361759
1.6667,0.0098,40.2600,63,97,361762
1.6813,0.0244,40.2600,63,97,361766
1.7009,0.0147,40.3600,63,97,361769
1.7449,0.0293,40.1600,63,97,361773
1.7204,0.0196,40.3000,63,97,361776
1.7400,0.0196,40.2000,63,97,361780
1.7400,0.0147,40.2300,63,97,361783
1.7155,0.0147,40.3300,63,97,361786
1.7449,0.0244,40.1600,63,97,361790
1.7058,0.0196,40.2600,63,97,361793
1.7107,0.0196,40.1300,63,97,361796
1.6764,0.0098,40.2000,63,97,361800
1.6764,0.0196,40.3000,63,97,361803
1.6862,0.0196,40.2000,63,97,361806
1.6373,0.0196,40.4300,63,97,361809
