ecg,gsr,temp,hr,spo2,timest
1.7937,0.3763,39.6000,70,97,154268
1.8035,0.3666,39.7000,70,97,154271
1.8133,0.3910,39.4400,70,97,154274
1.7840,0.3812,39.5700,70,97,154278
1.8084,0.3861,39.4800,70,97,154281
1.7791,0.3763,39.5400,70,97,154285
1.7889,0.3666,39.6400,70,97,154289
1.7986,0.3861,39.5100,70,97,154292
1.7791,0.3715,39.5700,70,97,154295
1.8035,0.4301,39.4100,70,97,154298
1.7791,0.3763,39.5400,70,97,154302
1.7791,0.3763,39.6000,70,97,154305
1.7840,0.3812,39.5400,70,97,154308
1.7742,0.3763,39.6400,70,97,154312
1.8035,0.3910,39.3500,70,97,154315
1.7693,0.3763,39.5400,70,97,154318
1.7791,0.3470,39.5700,70,97,154322
1.7937,0.3812,39.7300,70,97,154326
1.7937,0.3763,39.5700,70,97,154329
1.8426,0.3959,39.2800,70,97,154333
1.8475,0.3763,39.4400,70,97,154336
1.8035,0.3715,39.6400,70,97,154339
1.8084,0.3763,39.4100,70,97,154343
1.8084,0.3715,39.5700,70,97,154346
1.8573,0.3910,39.4100,70,97,154349
1.8231,0.3812,39.5400,70,97,154352
1.8280,0.3812,39.5100,70,97,154356
1.8182,0.3763,39.6700,70,97,154359
1.8182,0.3910,39.6000,70,97,154362
1.8475,0.3861,39.4400,70,97,154366
1.8231,0.3715,39.6000,70,97,154370
1.8426,0.3812,39.4400,70,97,154373
1.8084,0.3959,39.6000,70,97,154377
1.8084,0.3763,39.6000,70,97,154380
1.8133,0.3763,39.5100,70,97,154383
1.8377,0.3666,39.5700,70,97,154387
1.8280,0.3812,39.6000,70,97,154390
1.8035,0.3470,39.6000,70,97,154393
1.8084,0.3763,39.6000,70,97,154396
1.8231,0.3910,39.5100,70,97,154400
1.7986,0.3763,39.5700,70,97,154403
1.8328,0.4008,39.3800,70,97,154406
1.8182,0.3812,39.4800,70,97,154411
1.8133,0.3763,39.2800,70,97,154414
1.8377,0.3812,39.5700,70,97,154417
1.8475,0.3763,39.6400,70,97,154421
1.9257,0.3910,39.3200,70,97,154424
1.9110,0.3812,39.5400,70,97,154427
1.9501,0.3715,39.6000,70,97,154431
1.9355,0.3763,39.5700,70,97,154434
1.9306,0.3763,39.6000,70,97,154437
1.9892,0.3959,39.4100,70,97,154440
1.9404,0.3812,39.5400,70,97,154444
1.9355,0.3715,39.5100,70,97,154447
1.9208,0.3763,39.6000,70,97,154450
1.9159,0.3812,39.6000,70,97,154455
1.9306,0.3861,39.5100,70,97,154458
1.8964,0.3910,39.6400,70,97,154461
1.9062,0.3812,39.5100,70,97,154465
1.8622,0.3812,39.5700,70,97,154468
1.8524,0.3763,39.6000,70,97,154471
1.8719,0.3861,39.4400,70,97,154475
1.8231,0.3763,39.6000,70,97,154478
1.8328,0.3812,39.5100,70,97,154481
1.7937,0.3715,39.5700,70,97,154485
1.7840,0.3763,39.5700,70,97,154488
1.7937,0.3812,39.5100,70,97,154491
1.7693,0.3812,39.5700,70,97,154494
1.7986,0.3812,39.3800,70,97,154499
1.7791,0.3812,39.5400,70,97,154502
1.7791,0.3763,39.6400,70,97,154505
1.7889,0.3812,39.5400,70,97,154509
1.7889,0.3763,39.5700,70,97,154512
1.8328,0.3861,39.4800,70,97,154515
1.7937,0.3763,39.5700,70,97,154519
1.7986,0.3812,39.6000,70,97,154522
1.8084,0.3763,39.5700,70,97,154525
1.7986,0.3763,39.5700,70,97,154529
1.8573,0.3959,39.3800,70,97,154532
1.8182,0.3812,39.6400,70,97,154535
1.8084,0.3812,39.5400,70,97,154539
1.8084,0.3763,39.4800,70,97,154543
1.8280,0.3763,39.5700,70,97,154546
1.8622,0.3861,39.4800,70,97,154549
1.8573,0.3812,39.5700,70,97,154553
1.8964,0.3812,39.6700,70,97,154556
1.9306,0.3763,39.5700,70,97,154559
2.0430,0.3763,39.6000,70,97,154563
2.2434,0.3812,39.4800,70,97,154566
2.4633,0.3763,39.6000,70,97,154569
2.8152,0.3861,39.5700,70,97,154573
3.1085,0.3812,39.6000,70,97,154576
3.4213,0.3763,39.6000,70,97,154579
3.6168,0.3812,39.5400,70,97,154583
3.6315,0.3715,39.5700,70,97,154587
3.5435,0.3812,39.4100,70,97,154590
3.1623,0.3763,39.6000,70,97,154593
2.7028,0.3763,39.6000,70,97,154597
2.2385,0.3861,39.4800,70,97,154600
1.7889,0.3763,39.5700,70,97,154603
1.4956,0.3861,39.4400,70,97,154607
1.2659,0.3812,39.5100,70,97,154610
1.1290,0.3763,39.6000,70,97,154613
1.1095,0.3763,39.5700,70,97,154617
1.0899,0.3763,39.5700,70,97,154620
1.1584,0.3910,39.3200,70,97,154624
1.1975,0.3812,39.5100,70,97,154627
1.2805,0.3715,39.6000,70,97,154631
1.3881,0.3812,39.5700,70,97,154634
1.4467,0.3763,39.6000,70,97,154637
1.5543,0.3959,39.4100,70,97,154641
1.5689,0.3763,39.5700,70,97,154644
1.6129,0.3763,39.4800,70,97,154647
1.6716,0.3812,39.6000,70,97,154651
1.6618,0.3763,39.6400,70,97,154654
1.7107,0.3861,39.5100,70,97,154657
1.6960,0.3763,39.6000,70,97,154661
1.7253,0.3763,39.4400,70,97,154664
1.7204,0.3763,39.6400,70,97,154668
1.7302,0.3763,39.6000,70,97,154672
1.7693,0.3861,38.6800,70,97,154675
1.7742,0.3812,39.6000,70,97,154678
1.7840,0.3763,38.7400,70,97,154681
1.7644,0.3812,39.5400,70,97,154685
1.7791,0.3763,39.6000,70,97,154688
1.8133,0.3812,39.5100,70,97,154691
1.7937,0.3763,39.5700,70,97,154695
1.8377,0.3910,39.3800,70,97,154698
1.8182,0.3812,39.5400,70,97,154701
1.8133,0.3715,39.6400,70,97,154705
1.8280,0.3812,39.1200,70,97,154708
1.8524,0.3812,39.5700,70,97,154712
1.8719,0.3910,39.3200,70,97,154716
1.8280,0.3763,39.5700,70,97,154719
1.8328,0.3715,39.7000,70,97,154722
1.8377,0.3763,39.5700,70,97,154726
1.8377,0.3763,39.6400,70,97,154729
1.9013,0.3959,39.4400,70,97,154732
1.8671,0.3812,39.6000,70,97,154735
1.8719,0.4008,39.4800,70,97,154739
1.8719,0.3763,39.5700,70,97,154742
1.8768,0.3763,39.6000,70,97,154745
1.9208,0.3861,39.4400,70,97,154749
1.8866,0.4057,39.5700,70,97,154753
1.9110,0.3666,39.4800,70,97,154756
1.8817,0.3763,39.5400,70,97,154760
1.8817,0.3812,39.6000,70,97,154763
1.9208,0.4057,39.5100,70,97,154766
1.9110,0.3715,39.5700,70,97,154770
1.9355,0.3812,39.4400,70,97,154773
1.9062,0.3715,39.5400,70,97,154776
1.9159,0.3763,39.6000,70,97,154779
1.9355,0.4008,39.5700,70,97,154783
1.9355,0.3715,39.5700,70,97,154786
1.9746,0.3812,39.4100,70,97,154789
1.9501,0.3812,39.6000,70,97,154793
1.9599,0.3763,39.6000,70,97,154797
1.9795,0.3861,39.5100,70,97,154800
1.9746,0.3763,39.2200,70,97,154804
2.0283,0.3812,39.3500,70,97,154807
2.0088,0.3812,39.5100,70,97,154810
1.9941,0.3763,39.7000,70,97,154814
1.9990,0.3812,39.5700,70,97,154817
1.9990,0.3763,39.6700,70,97,154820
2.0626,0.4252,39.3800,70,97,154823
2.0528,0.3861,39.4800,70,97,154827
2.0381,0.3763,39.5700,70,97,154830
2.0626,0.3812,39.4100,70,97,154834
2.0528,0.3763,39.6400,70,97,154838
2.0430,0.3763,39.6000,70,97,154841
2.0870,0.3812,39.5400,70,97,154845
2.0381,0.3763,39.6000,70,97,154848
2.0626,0.3812,38.9300,70,97,154851
2.0186,0.3763,39.6000,70,97,154855
1.9990,0.3763,39.6000,70,97,154858
2.0039,0.3861,39.4800,70,97,154861
1.9550,0.3763,39.6000,70,97,154865
1.9599,0.3812,39.3500,70,97,154868
1.9159,0.3812,39.4800,70,97,154871
1.8817,0.3715,39.6000,70,97,154874
1.8671,0.3812,39.5400,70,97,154878
1.8231,0.3763,39.6000,70,97,154882
1.8719,0.3910,39.3500,70,97,154885
1.7791,0.3812,39.5100,70,97,154889
1.7595,0.3666,39.6000,70,97,154892
1.7302,0.3763,39.6000,70,97,154895
1.7058,0.3763,39.6000,70,97,154899
1.7351,0.3959,39.3500,70,97,154902
1.6813,0.3812,39.5700,70,97,154905
1.6667,0.3715,39.5700,70,97,154909
1.6667,0.3715,39.5700,70,97,154912
1.6618,0.3763,39.5400,70,97,154915
1.7009,0.3910,39.4400,70,97,154919
1.6716,0.3812,39.6400,70,97,154923
1.6716,0.3715,39.4400,70,97,154926
1.6569,0.3910,39.6000,70,97,154929
1.6764,0.3666,39.6000,70,97,154933
1.7058,0.3861,39.5100,70,97,154936
1.6862,0.3763,39.5700,70,97,154939
1.7155,0.3861,39.4400,70,97,154943
1.7009,0.3715,39.5700,70,97,154946
1.7155,0.3763,39.7000,70,97,154949
1.7400,0.3812,39.5100,70,97,154953
1.7302,0.3763,39.6000,70,97,154956
1.7644,0.4057,39.4100,70,97,154959
1.7498,0.3763,39.5100,70,97,154963
1.7546,0.3763,39.6400,70,97,154967
1.7791,0.3812,39.5400,70,97,154970
1.7742,0.3812,39.6400,70,97,154974
1.8231,0.3861,39.3800,70,97,154977
1.8182,0.3812,39.5700,70,97,154980
1.7986,0.3763,39.5700,70,97,154983
1.8084,0.3959,39.5700,70,97,154987
1.7986,0.3763,39.6000,70,97,154990
1.8524,0.3959,39.3200,70,97,154993
1.8182,0.3763,39.4800,70,97,154997
1.8084,0.3715,39.5400,70,97,155000
1.8133,0.3763,39.5700,70,97,155003
1.8133,0.3763,39.5700,70,97,155008
1.8573,0.3910,39.4400,70,97,155011
1.8231,0.3812,39.5700,70,97,155014
1.8377,0.3812,39.4800,70,97,155018
1.8182,0.3763,39.6000,70,97,155021
1.8182,0.3763,39.6000,70,97,155024
1.8426,0.3910,39.4800,70,97,155028
1.8133,0.3763,39.5700,70,97,155031
1.8328,0.3910,39.4800,70,97,155034
1.8035,0.3763,39.6000,70,97,155037
1.7986,0.3763,39.5700,70,97,155041
1.8084,0.3666,39.5400,70,97,155044
1.7986,0.3763,39.6700,70,97,155047
1.8182,0.3910,39.4100,70,97,155052
1.7937,0.3715,39.6000,70,97,155055
1.7937,0.3715,39.6000,70,97,155058
1.8084,0.3861,39.5100,70,97,155062
1.7742,0.3666,39.6400,70,97,155065
1.8182,0.3861,39.4800,70,97,155068
1.7937,0.3812,39.5700,70,97,155072
1.7742,0.3763,39.6000,70,97,155075
1.8182,0.3763,39.5700,70,97,155078
1.7791,0.3763,39.6000,70,97,155081
1.8280,0.4252,39.3200,70,97,155085
1.7937,0.3812,39.5100,70,97,155088
1.7791,0.3715,39.5700,70,97,155091
1.7889,0.3763,39.5100,70,97,155096
1.7889,0.3715,39.6000,70,97,155099
1.8231,0.3861,39.5400,70,97,155102
1.7889,0.3715,39.5700,70,97,155106
1.8035,0.3763,39.4800,70,97,155109
1.7889,0.3812,39.5700,70,97,155112
1.7889,0.3763,39.6000,70,97,155116
1.8084,0.4106,39.5400,70,97,155119
1.8280,0.3763,39.5700,70,97,155122
1.8182,0.3812,39.4400,70,97,155126
1.8084,0.3666,39.6000,70,97,155129
1.8084,0.3763,39.6000,70,97,155132
1.8426,0.4154,39.4800,70,97,155136
1.8133,0.3763,39.5700,70,97,155140
1.8328,0.3812,39.4400,70,97,155143
1.8182,0.3763,39.5100,70,97,155146
1.8182,0.3812,39.6000,70,97,155150
1.8280,0.3812,39.5700,70,97,155153
1.8182,0.3715,39.5700,70,97,155156
1.8524,0.3861,39.3500,70,97,155160
1.8622,0.3666,39.5100,70,97,155163
1.8231,0.3715,39.6000,70,97,155166
1.8328,0.3861,39.5700,70,97,155170
1.8280,0.3763,39.6000,70,97,155173
1.8719,0.3910,39.3500,70,97,155176
1.8182,0.3763,39.5700,70,97,155181
1.8231,0.3763,39.5400,70,97,155184
1.8231,0.3763,39.5700,70,97,155187
1.8231,0.3812,39.6400,70,97,155190
1.8719,0.3910,39.4400,70,97,155194
1.8377,0.3812,39.5400,70,97,155197
1.8280,0.3763,39.4800,70,97,155200
1.8231,0.3959,39.6400,70,97,155204
1.8231,0.3470,39.6000,70,97,155207
1.8622,0.3861,39.4800,70,97,155210
1.8280,0.3763,39.5700,70,97,155214
1.8475,0.3812,39.4400,70,97,155217
1.8231,0.3666,39.6000,70,97,155220
1.8280,0.3763,38.8400,70,97,155225
1.8524,0.3666,39.5100,70,97,155228
1.8328,0.3763,39.6000,70,97,155231
1.8622,0.4252,39.4800,70,97,155234
1.8377,0.3763,39.5700,70,97,155238
1.8377,0.4057,39.5700,70,97,155241
1.8426,0.3812,39.6000,70,97,155244
1.8280,0.3812,39.6000,70,97,155248
1.8671,0.3666,39.4400,70,97,155251
1.8280,0.3812,39.6400,70,97,155254
1.8524,0.3763,39.6000,70,97,155258
1.8768,0.3812,39.4800,70,97,155261
1.8817,0.3763,39.6000,70,97,155265
1.9501,0.3910,39.3200,70,97,155269
1.9404,0.3763,39.5100,70,97,155272
1.9306,0.3715,39.6000,70,97,155275
1.9306,0.3812,39.6000,70,97,155279
1.9355,0.3763,39.5700,70,97,155282
1.9892,0.3959,39.4100,70,97,155285
1.9404,0.3812,39.6000,70,97,155288
1.9306,0.3763,39.5100,70,97,155292
1.9159,0.3763,39.5700,70,97,155295
1.9062,0.3763,39.6000,70,97,155298
1.9257,0.3861,39.4800,70,97,155302
1.8866,0.3763,39.5700,70,97,155305
1.8915,0.3812,39.5100,70,97,155309
1.8573,0.3763,39.6400,70,97,155313
1.8475,0.3812,39.6000,70,97,155316
1.8524,0.3812,39.5700,70,97,155319
1.8280,0.3763,39.5400,70,97,155323
1.8475,0.3666,39.5100,70,97,155326
1.8133,0.3812,39.6000,70,97,155329
1.8133,0.3763,39.6000,70,97,155332
1.8377,0.3910,39.5100,70,97,155336
1.8035,0.3763,39.5400,70,97,155339
1.8280,0.3812,39.4100,70,97,155342
1.8084,0.3812,39.4800,70,97,155346
1.7986,0.3763,39.7000,70,97,155350
1.8084,0.3861,39.5400,70,97,155353
1.7986,0.3763,39.6000,70,97,155357
1.8426,0.3861,39.3800,70,97,155360
1.8133,0.3812,39.6400,70,97,155363
1.8035,0.3666,39.6000,70,97,155367
1.8133,0.3763,39.5700,70,97,155370
1.8133,0.3763,39.6000,70,97,155373
1.8622,0.3959,39.3800,70,97,155377
1.8231,0.3812,39.5400,70,97,155380
1.8231,0.3715,39.5400,70,97,155383
1.8328,0.3910,39.6400,70,97,155386
1.8475,0.3763,39.6400,70,97,155390
1.9062,0.3959,39.4400,70,97,155394
1.9208,0.3763,39.5700,70,97,155397
2.0235,0.3763,39.5100,70,97,155401
2.1603,0.3763,39.6000,70,97,155404
2.3998,0.3812,39.7300,70,97,155407
2.7664,0.3910,39.4100,70,97,155411
3.0743,0.3763,39.5400,70,97,155414
3.4360,0.3861,39.4800,70,97,155417
3.6119,0.3715,39.5700,70,97,155421
3.6804,0.3812,39.6000,70,97,155424
3.6168,0.3812,39.5100,70,97,155427
3.2747,0.3763,39.6700,70,97,155430
2.8690,0.3763,39.4400,70,97,155435
2.3167,0.3666,39.3500,70,97,155438
1.0802,0.3910,39.5400,70,97,155443
1.0899,0.3812,39.6000,70,97,155446
1.1535,0.3812,39.5700,70,97,155449
1.2170,0.3763,39.6000,70,97,155453
1.3343,0.3959,39.3500,70,97,155456
1.3978,0.3812,38.8400,70,97,155459
1.4565,0.3715,39.5700,70,97,155463
1.5103,0.3715,39.5700,70,97,155466
1.5445,0.3715,39.6000,70,97,155469
1.6227,0.3861,39.4100,70,97,155472
1.6178,0.3763,39.5400,70,97,155476
1.6422,0.3763,39.4400,70,97,155480
1.6471,0.3666,39.6000,70,97,155483
1.6569,0.3763,39.6000,70,97,155487
1.6911,0.3861,39.4400,70,97,155490
1.6813,0.3763,39.6000,70,97,155493
1.7155,0.3812,39.4800,70,97,155497
1.7058,0.3763,39.6700,70,97,155500
1.7107,0.3763,39.7000,70,97,155503
1.7253,0.3763,39.5400,70,97,155507
1.7204,0.3763,39.5700,70,97,155510
1.7546,0.3812,39.4800,70,97,155513
1.7302,0.4008,39.7000,70,97,155517
1.7400,0.3763,39.6000,70,97,155521
1.7644,0.3812,39.5700,70,97,155524
1.7498,0.3666,39.6000,70,97,155527
1.7986,0.3861,39.3800,70,97,155531
1.7840,0.3861,39.5100,70,97,155534
1.7791,0.3763,39.6000,70,97,155537
1.7937,0.3812,39.5700,70,97,155541
1.7889,0.3715,39.6400,70,97,155544
1.8426,0.3959,39.3200,70,97,155547
1.8133,0.4252,39.5400,70,97,155551
1.8182,0.3715,39.5400,70,97,155554
1.8280,0.3763,39.5700,70,97,155557
1.8377,0.3812,39.5700,70,97,155561
1.8866,0.3861,39.5400,70,97,155565
1.8475,0.3763,39.5700,70,97,155568
1.8671,0.3763,39.6000,70,97,155572
1.8573,0.3715,39.5700,70,97,155575
1.8671,0.3763,39.5100,70,97,155578
1.9013,0.3861,39.5700,70,97,155581
1.8866,0.3763,39.7300,70,97,155585
1.9110,0.3763,39.4400,70,97,155588
1.8915,0.3763,39.6400,70,97,155591
1.8964,0.3812,39.5700,70,97,155595
1.9355,0.3861,39.4800,70,97,155598
1.9257,0.3666,39.5700,70,97,155601
1.9404,0.3763,39.4100,70,97,155606
1.9599,0.3763,39.5100,70,97,155609
1.9306,0.3763,39.8000,70,97,155612
1.9550,0.3666,39.5100,70,97,155616
1.9404,0.3763,39.6000,70,97,155619
1.9892,0.3861,39.3800,70,97,155622
1.9697,0.3812,39.5400,70,97,155626
1.9648,0.3763,39.5700,70,97,155629
1.9844,0.3763,39.5700,70,97,155632
1.9795,0.3763,39.5700,70,97,155635
2.0577,0.3910,39.3200,70,97,155639
1.9990,0.3763,39.5400,70,97,155642
2.0283,0.3715,39.5700,70,97,155645
2.0088,0.3763,39.6000,70,97,155650
2.0039,0.3715,39.5700,70,97,155653
2.0723,0.3861,39.4100,70,97,155656
2.0332,0.3812,39.5100,70,97,155660
2.0283,0.3763,39.5400,70,97,155663
2.0283,0.3763,39.6000,70,97,155666
2.0283,0.3812,39.6000,70,97,155670
2.0674,0.3861,39.4400,70,97,155673
2.0381,0.4008,39.6400,70,97,155676
2.0577,0.3812,39.4400,70,97,155679
2.0381,0.3763,39.6000,70,97,155683
2.0283,0.3763,39.6000,70,97,155686
2.0430,0.3666,39.5400,70,97,155689
2.0088,0.3763,39.7000,70,97,155694
2.0235,0.3861,39.3800,70,97,155697
1.9795,0.3812,39.6400,70,97,155700
1.9599,0.3763,39.8000,70,97,155704
1.9453,0.3861,39.5400,70,97,155707
1.9159,0.3763,39.5700,70,97,155710
1.9062,0.3812,39.4100,70,97,155713
1.8573,0.3763,39.7000,70,97,155717
1.8377,0.3715,39.6000,70,97,155720
1.8426,0.3861,39.4800,70,97,155723
1.7840,0.3812,39.6000,70,97,155727
1.7986,0.3861,39.3800,70,97,155730
1.7546,0.3763,39.7300,70,97,155734
1.7449,0.3812,39.6000,70,97,155738
1.7253,0.3812,39.5400,70,97,155741
1.7155,0.3666,39.5700,70,97,155744
1.7546,0.3861,39.8000,70,97,155748
1.7107,0.3763,39.5100,70,97,155751
1.7058,0.3715,39.6400,70,97,155754
1.7107,0.3763,39.6000,70,97,155757
1.7204,0.3715,39.6400,70,97,155761
1.7742,0.4008,39.4400,70,97,155764
1.7449,0.3763,39.5700,70,97,155767
1.7644,0.3715,39.4800,70,97,155771
1.7644,0.3763,39.6400,70,97,155774
1.7693,0.3666,39.6000,70,97,155778
1.8084,0.3812,39.8000,70,97,155782
1.8035,0.4008,39.5700,70,97,155785
1.8426,0.3959,39.4400,70,97,155788
1.8182,0.4008,39.6400,70,97,155792
1.8426,0.3666,39.6000,70,97,155795
1.8768,0.3812,39.4100,70,97,155798
1.8622,0.3763,39.6000,70,97,155802
1.8964,0.3763,39.4100,70,97,155805
1.9208,0.3666,39.5400,70,97,155808
1.8915,0.3666,39.6400,70,97,155811
1.9110,0.3812,39.5100,70,97,155815
1.9062,0.3715,39.6700,70,97,155819
1.9501,0.3812,39.3800,70,97,155822
1.9257,0.3812,39.1900,70,97,155826
1.9159,0.3666,39.6000,70,97,155829
1.9257,0.3763,39.5700,70,97,155832
1.9159,0.3666,39.5700,70,97,155836
1.9697,0.3861,39.3200,70,97,155839
1.9550,0.3763,39.5400,70,97,155842
1.9208,0.3715,39.6700,70,97,155846
1.9306,0.3812,39.5700,70,97,155849
1.9110,0.3715,39.6400,70,97,155852
1.9599,0.3910,39.4100,70,97,155856
1.9257,0.3812,39.7000,70,97,155859
1.9110,0.3666,39.5100,70,97,155863
1.9013,0.3715,39.5700,70,97,155866
1.9013,0.3715,39.5700,70,97,155870
1.9355,0.3861,39.4400,70,97,155873
1.9013,0.3763,39.5700,70,97,155876
1.9208,0.3812,39.4400,70,97,155880
1.8915,0.3763,39.6400,70,97,155883
1.8866,0.3715,39.5700,70,97,155886
1.9110,0.3763,39.5100,70,97,155890
1.8817,0.3715,39.6700,70,97,155893
1.9404,0.3715,39.4400,70,97,155896
1.8817,0.3715,39.5400,70,97,155900
1.9062,0.3666,39.6000,70,97,155904
1.8915,0.3715,39.5400,70,97,155907
1.8817,0.3617,39.5700,70,97,155911
1.9159,0.3812,39.3800,70,97,155914
1.8768,0.3715,39.5700,70,97,155917
1.8866,0.3715,39.6000,70,97,155920
1.8964,0.3861,39.5400,70,97,155924
1.8768,0.3715,39.6000,70,97,155927
1.9257,0.3910,39.3200,70,97,155930
1.8915,0.3812,39.5100,70,97,155934
1.8719,0.4057,39.6000,70,97,155937
1.8768,0.3763,39.6000,70,97,155940
1.8719,0.3715,39.5700,70,97,155944
1.9257,0.3910,39.4100,70,97,155948
1.8866,0.4008,39.5400,70,97,155951
1.8817,0.3715,39.5100,70,97,155955
1.8768,0.3763,39.6000,70,97,155958
1.8719,0.3763,39.5700,70,97,155961
1.8915,0.3861,39.4800,70,97,155964
1.8719,0.3715,39.6000,70,97,155968
1.8915,0.3763,39.4400,70,97,155971
1.8671,0.3763,39.6400,70,97,155974
1.8671,0.3715,39.6000,70,97,155978
1.8768,0.3812,39.5700,70,97,155981
1.8622,0.3470,39.6000,70,97,155984
1.8915,0.3812,39.5100,70,97,155988
1.8573,0.3470,39.6000,70,97,155992
1.8573,0.3715,39.1200,70,97,155995
1.8866,0.3812,39.5100,70,97,155999
1.8573,0.3763,39.6400,70,97,156002
1.8964,0.3812,39.4100,70,97,156005
1.8719,0.3763,39.5100,70,97,156009
1.8768,0.3666,39.5700,70,97,156012
1.8719,0.4057,39.5700,70,97,156015
1.8622,0.3812,39.6000,70,97,156018
1.9013,0.3861,39.3500,70,97,156022
1.8768,0.3812,39.5400,70,97,156025
1.8475,0.3715,39.6000,70,97,156028
1.8475,0.4008,39.6000,70,97,156033
1.8426,0.3763,39.5700,70,97,156036
1.8915,0.3959,39.3800,70,97,156039
1.8817,0.3812,39.5700,70,97,156043
1.8475,0.3715,39.6000,70,97,156046
1.8524,0.3763,39.5700,70,97,156049
1.8426,0.3763,39.6000,70,97,156054
1.8475,0.3763,39.6000,70,97,156057
1.8768,0.3861,39.4800,70,97,156061
1.8524,0.3715,39.6000,70,97,156064
1.8915,0.3763,39.4800,70,97,156067
1.8622,0.3715,39.4800,70,97,156071
1.8671,0.3715,39.6000,70,97,156075
1.8719,0.3763,39.5400,70,97,156078
1.8573,0.3763,39.6000,70,97,156081
1.8915,0.3812,39.3500,70,97,156085
1.8573,0.3812,39.5400,70,97,156088
1.8475,0.3715,39.4800,70,97,156091
1.8573,0.3763,39.5700,70,97,156095
1.8426,0.3715,39.6000,70,97,156098
1.8964,0.3910,39.3200,70,97,156101
1.8426,0.3763,39.5400,70,97,156105
1.8768,0.3666,39.5700,70,97,156108
1.8475,0.3763,39.6000,70,97,156111
1.8426,0.3715,39.6000,70,97,156115
1.8915,0.4057,39.5100,70,97,156119
1.8475,0.3666,39.5700,70,97,156122
1.8573,0.3715,38.7400,70,97,156126
1.8475,0.3763,39.6000,70,97,156129
1.8426,0.3715,39.6700,70,97,156132
1.8768,0.3861,39.4400,70,97,156135
1.8377,0.3861,39.6400,70,97,156139
1.8622,0.3812,39.4800,70,97,156142
1.8524,0.3861,39.7000,70,97,156145
1.8768,0.3715,39.6000,70,97,156149
1.9208,0.3812,39.5400,70,97,156152
1.9404,0.3715,39.5700,70,97,156155
1.9648,0.3763,39.4800,70,97,156160
1.9501,0.3763,39.5700,70,97,156163
1.9550,0.3715,39.6000,70,97,156166
1.9648,0.3715,39.5700,70,97,156170
1.9599,0.3715,39.6000,70,97,156173
1.9990,0.3812,39.3800,70,97,156176
1.9550,0.3715,39.6000,70,97,156180
1.9501,0.3715,39.6000,70,97,156183
1.9648,0.3763,39.5700,70,97,156186
1.9306,0.3763,39.7000,70,97,156189
1.9599,0.3910,39.3800,70,97,156193
1.9159,0.3666,39.5400,70,97,156196
1.8817,0.3715,39.5700,70,97,156199
1.8671,0.3763,39.6400,70,97,156204
1.8524,0.3715,39.6000,70,97,156207
1.9013,0.3959,39.4100,70,97,156210
1.8377,0.3812,39.5400,70,97,156214
1.8280,0.3715,39.5100,70,97,156217
1.8084,0.3763,39.6000,70,97,156220
1.8084,0.3470,39.6000,70,97,156224
1.8377,0.3812,39.4800,70,97,156227
1.8035,0.3763,39.5700,70,97,156230
1.8182,0.3763,39.4800,70,97,156233
1.7937,0.3715,39.5700,70,97,156237
1.7986,0.3715,39.6700,70,97,156240
1.8280,0.3812,39.5400,70,97,156243
1.8133,0.3763,39.5700,70,97,156248
1.8377,0.3861,39.5100,70,97,156251
1.8084,0.3715,39.5100,70,97,156254
1.8133,0.3763,39.6000,70,97,156258
1.8328,0.3812,39.4800,70,97,156261
1.8133,0.3763,39.6000,70,97,156264
1.8573,0.3812,39.3800,70,97,156268
1.8475,0.3763,39.5400,70,97,156271
1.8377,0.3715,39.6400,70,97,156274
1.8573,0.3763,39.5700,70,97,156278
1.8524,0.3715,39.6000,70,97,156281
1.9257,0.3910,39.3500,70,97,156284
1.9306,0.3812,39.5400,70,97,156289
2.0137,0.3470,39.6000,70,97,156292
2.1799,0.3763,39.5700,70,97,156295
2.4096,0.3861,39.5700,70,97,156298
2.8006,0.3959,39.3800,70,97,156302
3.0890,0.3763,39.4800,70,97,156305
3.4115,0.3666,39.6400,70,97,156308
3.6266,0.3763,39.5700,70,97,156312
3.6852,0.4057,39.6000,70,97,156315
3.6461,0.3861,39.5100,70,97,156318
3.2893,0.3763,39.6000,70,97,156322
2.8690,0.3666,39.5100,70,97,156325
2.3216,0.3763,39.5700,70,97,156328
1.8719,0.3715,39.6000,70,97,156332
1.5543,0.3861,39.5400,70,97,156336
1.3001,0.3666,39.5700,70,97,156339
1.1828,0.3861,39.4800,70,97,156342
1.1095,0.3763,39.5700,70,97,156346
1.1193,0.3470,39.5700,70,97,156349
1.1779,0.3763,39.5100,70,97,156352
1.2317,0.3763,39.6000,70,97,156356
1.3245,0.3763,39.4800,70,97,156359
1.3881,0.3715,39.5400,70,97,156362
1.4614,0.3763,39.5700,70,97,156366
1.5152,0.3812,39.5700,70,97,156369
1.5591,0.3715,39.6400,70,97,156372
1.6276,0.3812,39.3500,70,97,156377
1.6080,0.3715,39.5700,70,97,156380
1.6276,0.3763,39.6400,70,97,156383
1.6569,0.3763,39.5700,70,97,156386
1.6569,0.3763,39.6000,70,97,156390
1.7204,0.3959,39.3800,70,97,156393
1.6960,0.3666,39.5100,70,97,156396
1.6911,0.3715,39.5700,70,97,156400
1.7009,0.3763,39.6000,70,97,156403
1.7155,0.3715,39.6700,70,97,156406
1.7595,0.3910,39.4400,70,97,156410
1.7351,0.3763,39.6400,70,97,156413
1.7400,0.3812,39.4800,70,97,156417
1.7400,0.3763,39.5100,70,97,156421
1.7498,0.3763,39.6000,70,97,156424
1.7840,0.3812,39.5100,70,97,156427
1.7644,0.3812,39.6000,70,97,156431
1.7986,0.3812,39.4800,70,97,156434
1.7693,0.3763,39.6400,70,97,156437
1.7742,0.3715,39.6000,70,97,156440
1.7889,0.3812,39.5400,70,97,156444
1.7840,0.3666,39.5700,70,97,156447
1.8182,0.3763,39.4100,70,97,156450
1.7937,0.3763,39.6000,70,97,156454
1.7937,0.3715,39.6000,70,97,156457
1.8133,0.3861,39.5400,70,97,156461
1.7986,0.3763,39.6000,70,97,156465
1.8426,0.3812,39.3500,70,97,156468
1.8231,0.3812,39.5100,70,97,156471
1.8133,0.3715,39.6000,70,97,156475
1.8328,0.3763,39.5400,70,97,156478
1.8280,0.3715,39.5700,70,97,156481
1.8768,0.3861,39.3200,70,97,156484
1.8377,0.3763,39.5400,70,97,156488
1.8426,0.3715,39.5700,70,97,156491
1.8524,0.3812,39.5700,70,97,156494
1.8524,0.3715,39.6400,70,97,156498
1.9062,0.3910,39.4400,70,97,156502
1.8719,0.3763,39.5400,70,97,156505
1.8964,0.3763,39.5100,70,97,156509
1.8866,0.3763,39.5700,70,97,156512
1.8915,0.3715,39.6000,70,97,156515
1.9208,0.3812,39.5400,70,97,156519
1.9355,0.3666,39.5700,70,97,156522
1.9453,0.3812,39.5400,70,97,156525
1.9208,0.3715,39.6400,70,97,156529
1.9404,0.3715,39.6000,70,97,156532
1.9746,0.3812,39.4800,70,97,156535
1.9550,0.4008,39.6000,70,97,156539
1.9844,0.3763,39.4400,70,97,156542
1.9746,0.3715,39.5400,70,97,156546
1.9746,0.3715,39.6000,70,97,156549
1.9990,0.3812,39.6000,70,97,156553
1.9892,0.3812,39.6000,70,97,156556
2.0332,0.3812,39.3800,70,97,156559
2.0088,0.3812,39.5700,70,97,156563
1.9990,0.3812,39.5700,70,97,156566
2.0186,0.3763,39.5400,70,97,156569
2.0039,0.3715,39.8000,70,97,156573
2.0479,0.3812,39.3500,70,97,156576
2.0039,0.3763,39.5700,70,97,156579
2.0039,0.3715,39.6700,70,97,156582
2.0137,0.3812,39.6400,70,97,156587
2.0039,0.3715,39.6000,70,97,156590
2.0577,0.3959,39.3500,70,97,156593
2.0088,0.3812,39.5100,70,97,156597
1.9844,0.3715,39.5400,70,97,156600
1.9599,0.3763,39.7000,70,97,156603
1.9404,0.3715,39.6000,70,97,156607
1.9599,0.3861,39.8900,70,97,156610
1.9062,0.3763,39.5700,70,97,156613
1.8866,0.3763,39.6000,70,97,156617
1.8377,0.3715,39.6000,70,97,156620
1.8084,0.3715,39.5700,70,97,156623
1.8035,0.3861,39.4800,70,97,156626
1.7449,0.3763,39.6000,70,97,156631
1.7400,0.3812,39.4100,70,97,156634
1.6862,0.3715,39.6000,70,97,156637
1.6667,0.3715,39.6400,70,97,156641
1.6618,0.3763,39.5400,70,97,156644
1.6373,0.3763,39.7000,70,97,156647
1.6471,0.3715,39.4100,70,97,156651
1.6129,0.3763,39.6700,70,97,156654
1.6129,0.3715,39.6000,70,97,156657
1.6325,0.3861,39.4800,70,97,156661
1.6227,0.3812,39.6400,70,97,156665
1.6325,0.3763,39.6000,70,97,156669
1.6911,0.3861,39.4100,70,97,156673
1.6618,0.3763,39.5700,70,97,156676
1.6716,0.3763,39.5100,70,97,156680
1.6764,0.3763,39.6000,70,97,156683
1.6813,0.3763,39.6000,70,97,156686
1.7204,0.3861,39.4800,70,97,156689
1.7107,0.3812,39.5700,70,97,156693
1.7302,0.3812,39.4800,70,97,156696
1.7204,0.3763,39.5700,70,97,156699
1.7253,0.3715,39.6000,70,97,156703
1.7449,0.3812,39.5700,70,97,156706
1.7449,0.3763,39.5700,70,97,156709
1.7742,0.3763,39.4800,70,97,156713
1.7498,0.3715,39.6000,70,97,156717
1.7546,0.3715,39.6000,70,97,156720
1.7791,0.3812,39.4800,70,97,156724
1.7546,0.3666,39.6000,70,97,156727
1.7889,0.3812,39.3500,70,97,156730
1.7791,0.3763,39.5100,70,97,156734
1.7595,0.3715,39.7000,70,97,156737
1.7644,0.3763,39.5700,70,97,156740
1.7595,0.3763,39.6700,70,97,156743
1.8035,0.3910,39.3200,70,97,156747
1.7693,0.3812,39.5400,70,97,156750
1.7546,0.3715,39.6000,70,97,156753
1.7693,0.3763,39.5700,70,97,156758
1.7889,0.3763,39.5700,70,97,156761
1.8084,0.3861,39.4100,70,97,156764
1.7595,0.3812,39.5700,70,97,156768
1.7595,0.3763,39.5100,70,97,156771
1.7546,0.3763,39.5700,70,97,156774
1.7449,0.3715,39.6000,70,97,156778
1.7791,0.4106,39.4800,70,97,156781
1.7595,0.3763,39.6000,70,97,156784
1.7693,0.3763,39.6000,70,97,156788
1.7498,0.3763,39.6400,70,97,156791
1.7498,0.3715,39.7300,70,97,156794
1.7791,0.3861,39.4400,70,97,156797
1.7449,0.3812,39.5700,70,97,156802
1.7742,0.3763,39.4800,70,97,156805
1.7400,0.3812,39.5700,70,97,156808
1.7400,0.3715,39.6000,70,97,156812
1.7644,0.3812,39.4400,70,97,156815
1.7449,0.3812,39.6000,70,97,156818
1.7742,0.3812,39.4800,70,97,156822
1.7644,0.3763,39.5400,70,97,156825
1.7546,0.3715,39.6000,70,97,156828
1.7693,0.3763,39.5400,70,97,156832
1.7742,0.3666,39.6000,70,97,156835
1.8084,0.3861,39.3500,70,97,156838
1.7644,0.3666,39.5700,70,97,156843
1.7644,0.3715,39.3800,70,97,156846
1.7693,0.3763,39.5700,70,97,156849
1.7644,0.3959,39.6000,70,97,156852
1.8182,0.3959,39.3800,70,97,156856
1.7840,0.3812,38.7700,70,97,156859
1.7693,0.3715,39.5100,70,97,156862
1.7644,0.3763,39.6000,70,97,156866
1.7693,0.3763,39.6000,70,97,156869
1.8035,0.3861,39.4400,70,97,156872
1.7791,0.3763,39.5400,70,97,156876
1.7889,0.3666,39.5100,70,97,156879
1.7742,0.3763,39.5700,70,97,156882
1.7742,0.3763,39.6000,70,97,156887
1.8084,0.3861,39.4100,70,97,156890
1.7937,0.3715,39.6000,70,97,156893
1.8182,0.3861,39.5700,70,97,156896
1.7889,0.3715,39.6000,70,97,156900
1.7840,0.3715,39.6700,70,97,156903
1.7937,0.3812,39.5700,70,97,156906
1.7791,0.3763,39.6700,70,97,156910
1.8035,0.3763,39.4100,70,97,156913
1.7840,0.3763,39.6000,70,97,156916
1.7840,0.3715,39.6400,70,97,156920
1.8035,0.3812,39.6400,70,97,156923
1.7889,0.3812,39.5700,70,97,156926
1.8182,0.3861,38.6500,70,97,156931
1.8231,0.3666,39.4800,70,97,156934
1.7791,0.3715,39.6000,70,97,156937
1.7889,0.3763,39.5700,70,97,156941
1.7889,0.3812,39.6400,70,97,156944
1.8573,0.4008,39.4400,70,97,156947
1.7986,0.3763,39.5400,70,97,156950
1.7937,0.3763,39.5400,70,97,156954
1.7986,0.3763,39.6000,70,97,156957
1.7937,0.3763,39.5700,70,97,156960
1.8280,0.3861,39.4400,70,97,156964
1.7937,0.3763,39.6000,70,97,156967
1.8035,0.3763,39.5100,70,97,156971
1.7889,0.3763,39.7000,70,97,156975
1.7840,0.3763,39.6000,70,97,156978
1.8084,0.3812,39.6000,70,97,156981
1.7937,0.3763,39.6400,70,97,156985
1.8182,0.3666,39.4800,70,97,156988
1.7840,0.3715,39.6000,70,97,156991
1.7840,0.3763,39.6000,70,97,156994
1.8084,0.3861,39.8600,70,97,156998
1.7889,0.3763,39.6000,70,97,157001
1.7937,0.3763,39.5700,70,97,157004
1.7840,0.3812,39.5100,70,97,157008
1.7791,0.3763,39.6000,70,97,157011
1.7937,0.3763,39.5100,70,97,157015
1.7693,0.3763,39.6400,70,97,157019
1.8084,0.3763,39.3500,70,97,157022
1.7840,0.3812,39.5400,70,97,157025
1.7937,0.3763,39.5700,70,97,157029
1.8231,0.3763,39.5700,70,97,157032
1.8377,0.3763,39.6000,70,97,157035
1.8964,0.3910,39.2800,70,97,157039
1.8622,0.3763,39.5400,70,97,157042
1.8915,0.3715,39.5700,70,97,157045
1.8719,0.3763,39.5100,70,97,157048
1.8671,0.3763,39.6000,70,97,157052
1.9208,0.4057,39.4400,70,97,157056
1.8866,0.3666,39.5700,70,97,157059
1.8768,0.3763,39.5700,70,97,157063
1.8622,0.3763,39.6000,70,97,157066
1.8524,0.3715,39.6000,70,97,157069
1.8817,0.3861,39.4400,70,97,157073
1.8328,0.3812,39.5700,70,97,157076
1.8328,0.3812,39.5100,70,97,157079
1.7937,0.4106,39.6000,70,97,157083
1.7791,0.3470,39.6000,70,97,157086
1.7986,0.3812,38.9000,70,97,157089
1.7595,0.3715,39.5700,70,97,157093
1.7840,0.3763,39.4800,70,97,157096
1.7400,0.3715,39.5400,70,97,157100
1.7351,0.3763,39.6000,70,97,157103
1.7400,0.3763,39.5400,70,97,157107
1.7351,0.3763,39.6000,70,97,157110
1.7644,0.3812,39.3800,70,97,157113
1.7302,0.3861,39.6000,70,97,157117
1.7400,0.3763,39.6000,70,97,157120
1.7449,0.3812,39.5700,70,97,157123
1.7302,0.3715,39.5700,70,97,157127
1.7791,0.3861,38.8700,70,97,157130
1.7595,0.3763,39.5100,70,97,157133
1.7546,0.3715,39.6000,70,97,157137
1.7595,0.3763,39.5700,70,97,157140
1.7595,0.3715,39.6000,70,97,157144
1.8133,0.4203,39.4100,70,97,157147
1.7742,0.3812,38.9000,70,97,157151
1.7693,0.3763,39.5400,70,97,157154
1.7791,0.3763,39.6000,70,97,157157
1.7840,0.3763,39.6000,70,97,157161
1.8671,0.3959,39.4400,70,97,157164
1.8328,0.3763,38.8700,70,97,157167
1.9257,0.4008,39.5700,70,97,157171
2.0479,0.3470,39.6000,70,97,157174
2.2483,0.3715,39.5400,70,97,157177
2.5464,0.3812,39.5100,70,97,157180
2.8592,0.3763,39.6000,70,97,157185
3.2258,0.3861,39.5400,70,97,157188
3.4506,0.3763,39.6000,70,97,157191
3.5728,0.3715,39.6000,70,97,157195
3.5728,0.3812,39.5700,70,97,157198
3.3138,0.3763,39.5100,70,97,157201
2.9521,0.3715,39.4400,70,97,157205
2.4438,0.3763,39.4800,70,97,157208
1.9697,0.3715,39.6000,70,97,157211
1.5982,0.3812,39.5700,70,97,157215
1.3196,0.3910,39.5700,70,97,157218
1.1828,0.3861,39.3800,70,97,157221
1.0753,0.3715,39.5100,70,97,157225
1.0411,0.3666,39.6000,70,97,157229
1.0655,0.3763,39.5700,70,97,157232
1.1144,0.3763,39.6400,70,97,157235
1.2317,0.3910,39.3200,70,97,157239
1.2805,0.3666,39.5700,70,97,157242
1.3636,0.3470,39.5700,70,97,157245
1.4272,0.3763,39.5400,70,97,157249
1.4858,0.3715,39.6000,70,97,157252
1.5591,0.3861,39.5100,70,97,157255
1.5738,0.3470,39.5700,70,97,157259
1.5982,0.3763,39.5100,70,97,157262
1.5982,0.3763,39.6000,70,97,157265
1.6276,0.3715,38.8100,70,97,157270
1.6764,0.3861,39.4400,70,97,157273
1.7155,0.3812,39.4800,70,97,157278
1.7155,0.3763,39.6000,70,97,157281
1.7498,0.3812,39.4100,70,97,157284
1.7302,0.3763,39.5400,70,97,157288
1.7351,0.3715,39.6000,70,97,157291
1.7742,0.3861,39.5400,70,97,157294
1.7498,0.3763,39.5700,70,97,157297
1.7937,0.3910,39.3500,70,97,157301
1.7546,0.3763,39.5700,70,97,157304
1.7693,0.3763,39.5700,70,97,157307
1.7791,0.3763,39.6000,70,97,157312
1.7742,0.3666,39.6000,70,97,157315
1.8280,0.3959,39.3800,70,97,157318
1.8084,0.3812,39.4400,70,97,157322
1.8133,0.3812,39.5400,70,97,157325
1.8182,0.3763,39.5700,70,97,157328
1.8084,0.3812,39.6000,70,97,157332
1.8475,0.3861,39.5400,70,97,157335
1.8182,0.3715,39.5400,70,97,157338
1.8328,0.3763,39.4800,70,97,157341
1.8328,0.3715,39.6000,70,97,157345
1.8328,0.3715,39.6400,70,97,157348
1.8671,0.3666,39.5100,70,97,157351
1.8524,0.3763,39.6000,70,97,157356
1.8866,0.3959,39.5100,70,97,157359
1.8622,0.3763,39.5400,70,97,157362
1.8964,0.3715,39.6000,70,97,157366
1.8817,0.3763,39.5400,70,97,157369
1.8817,0.3715,39.6000,70,97,157372
1.9159,0.3812,39.4100,70,97,157376
1.8915,0.3763,39.6000,70,97,157379
1.8964,0.3715,39.6400,70,97,157382
1.9257,0.3812,39.5700,70,97,157386
1.9013,0.3763,38.9600,70,97,157389
1.9501,0.3910,39.3500,70,97,157392
1.9355,0.3763,39.5100,70,97,157395
1.9208,0.3763,39.5700,70,97,157400
1.9355,0.3763,39.5700,70,97,157403
1.9404,0.3715,39.5400,70,97,157406
2.0039,0.3959,39.3500,70,97,157410
1.9648,0.3763,39.5100,70,97,157413
1.9648,0.3666,39.5400,70,97,157416
1.9697,0.3763,39.5400,70,97,157420
1.9697,0.3763,39.5700,70,97,157423
2.0137,0.3861,39.4400,70,97,157426
1.9795,0.3715,39.5700,70,97,157430
1.9941,0.3763,39.5100,70,97,157433
1.9795,0.3715,39.6000,70,97,157436
1.9795,0.3715,39.6700,70,97,157441
2.0039,0.3763,39.5700,70,97,157444
1.9990,0.3763,39.6000,70,97,157447
2.0235,0.3812,39.4800,70,97,157450
1.9892,0.3812,39.6000,70,97,157454
1.9990,0.3715,39.6400,70,97,157457
2.0235,0.3812,39.5400,70,97,157460
1.9892,0.3715,39.7000,70,97,157464
2.0039,0.3763,39.4400,70,97,157467
1.9746,0.3763,39.5100,70,97,157470
1.9501,0.3715,39.6400,70,97,157474
1.9501,0.3812,39.5400,70,97,157477
1.9110,0.3666,39.6000,70,97,157480
1.9257,0.3812,39.3800,70,97,157485
1.8671,0.3812,39.5700,70,97,157488
1.8328,0.3763,39.6000,70,97,157491
1.8133,0.3763,39.8300,70,97,157494
1.7791,0.3812,39.6400,70,97,157498
1.7937,0.3910,38.7400,70,97,157501
1.7400,0.3763,39.5400,70,97,157504
1.7155,0.3666,39.5700,70,97,157508
1.7009,0.3861,39.5700,70,97,157511
1.6813,0.3715,39.6000,70,97,157514
1.7107,0.4008,39.4100,70,97,157518
1.7009,0.3812,39.5700,70,97,157521
1.6618,0.3763,39.5100,70,97,157524
1.6520,0.3666,39.6000,70,97,157529
1.6422,0.3715,39.6000,70,97,157532
1.6764,0.4203,39.4100,70,97,157535
1.6520,0.3763,39.6000,70,97,157538
1.6716,0.3763,39.4800,70,97,157542
1.6520,0.3763,39.6000,70,97,157545
1.6569,0.3763,39.7000,70,97,157548
1.6911,0.3666,39.4800,70,97,157552
1.6716,0.3763,38.7700,70,97,157555
1.7058,0.3812,39.5100,70,97,157558
1.6862,0.3715,38.9300,70,97,157562
1.6960,0.3715,39.6000,70,97,157565
1.7204,0.3812,39.2200,70,97,157569
1.7204,0.3715,39.6000,70,97,157573
1.7595,0.3812,39.4100,70,97,157576
1.7400,0.3715,39.7000,70,97,157579
1.7595,0.3715,39.6000,70,97,157583
1.7840,0.3812,39.5400,70,97,157586
1.7742,0.3763,39.5700,70,97,157589
1.8231,0.3861,39.3500,70,97,157592
1.8377,0.3666,39.4800,70,97,157596
1.7937,0.3715,39.5400,70,97,157599
1.8035,0.3763,39.5700,70,97,157602
1.7986,0.3763,39.6000,70,97,157606
1.8671,0.3959,39.4100,70,97,157609
1.8133,0.4008,39.5700,70,97,157613
1.8084,0.3861,39.5400,70,97,157617
1.8084,0.3763,39.6000,70,97,157620
1.8084,0.3715,39.5700,70,97,157623
1.8377,0.3763,39.4400,70,97,157627
1.8133,0.3763,39.6000,70,97,157630
1.8280,0.3666,39.5100,70,97,157633
1.8084,0.3763,39.5700,70,97,157636
1.8035,0.3715,39.6000,70,97,157640
1.8231,0.3812,39.6000,70,97,157643
1.8133,0.3763,39.6000,70,97,157646
1.8671,0.3763,39.4800,70,97,157650
1.8035,0.4008,39.6000,70,97,157654
1.8377,0.3763,39.7000,70,97,157657
1.8426,0.3812,39.5100,70,97,157661
1.8328,0.3763,39.6400,70,97,157664
1.8426,0.3763,39.4800,70,97,157667
1.8231,0.3715,39.5100,70,97,157671
1.8182,0.3715,39.5400,70,97,157674
1.8328,0.3812,39.5700,70,97,157677
1.8182,0.3763,39.6400,70,97,157681
1.8573,0.3861,39.3800,70,97,157684
1.8280,0.3715,39.5400,70,97,157687
1.8231,0.3715,39.6000,70,97,157690
1.8231,0.3763,39.6400,70,97,157694
1.8182,0.3763,39.6000,70,97,157698
1.8719,0.3959,39.3500,70,97,157701
1.8280,0.3763,39.5700,70,97,157705
1.8280,0.3715,39.5400,70,97,157708
1.8231,0.3763,39.5700,70,97,157711
1.8133,0.3715,39.6000,70,97,157715
1.8524,0.3861,39.4800,70,97,157718
1.8182,0.3861,39.6000,70,97,157721
1.8328,0.3763,39.4800,70,97,157725
1.8182,0.3666,39.6000,70,97,157728
1.8231,0.3715,39.6700,70,97,157731
1.8622,0.3861,39.4800,70,97,157735
1.8328,0.3812,39.6000,70,97,157739
1.8622,0.3861,39.5100,70,97,157742
1.8328,0.3715,39.5700,70,97,157746
1.8328,0.3715,39.6400,70,97,157749
1.8475,0.3763,39.5100,70,97,157752
1.8328,0.3763,39.6000,70,97,157755
1.8622,0.3812,39.4100,70,97,157759
1.8377,0.3715,39.5100,70,97,157762
1.8328,0.3812,39.7300,70,97,157765
1.8573,0.3812,39.5700,70,97,157769
1.8475,0.3715,39.6000,70,97,157772
1.9453,0.3666,39.3500,70,97,157775
1.8866,0.3812,39.5700,70,97,157779
1.9159,0.3715,39.6000,70,97,157783
1.9453,0.3763,39.5700,70,97,157786
1.9501,0.3763,39.6000,70,97,157790
2.0137,0.3959,39.3800,70,97,157793
1.9892,0.3812,39.5400,70,97,157796
1.9648,0.3715,39.5400,70,97,157800
1.9648,0.3763,39.6000,70,97,157803
1.9550,0.3715,38.8400,70,97,157806
1.9697,0.3666,39.4100,70,97,157809
1.9355,0.3861,39.5400,70,97,157813
1.9501,0.3812,39.5100,70,97,157816
1.9110,0.3715,39.6000,70,97,157819
1.8915,0.3666,39.6000,70,97,157824
1.9159,0.3861,39.4800,70,97,157827
1.8719,0.3715,39.6400,70,97,157830
1.8915,0.3861,39.5400,70,97,157834
1.8817,0.3666,39.5700,70,97,157837
1.8377,0.3763,39.6000,70,97,157840
1.8475,0.3715,39.5400,70,97,157844
1.8280,0.3763,39.1600,70,97,157847
1.8475,0.3715,39.4100,70,97,157850
1.8182,0.3763,39.6000,70,97,157854
1.8377,0.3666,39.6000,70,97,157857
1.8426,0.3812,39.7000,70,97,157860
1.8280,0.3470,39.6000,70,97,157863
1.8671,0.3861,39.4100,70,97,157868
1.8426,0.3861,39.5700,70,97,157871
1.8280,0.3715,39.6000,70,97,157874
1.8475,0.3861,39.5700,70,97,157878
1.8231,0.3763,39.6400,70,97,157881
1.8866,0.4057,39.3800,70,97,157884
1.8817,0.3812,39.4800,70,97,157889
1.8671,0.3763,39.6400,70,97,157892
1.9110,0.3812,39.4800,70,97,157896
1.9013,0.4057,39.5700,70,97,157899
1.9404,0.3715,39.6000,70,97,157902
2.0332,0.3763,39.5400,70,97,157906
2.1848,0.3812,39.6000,70,97,157910
2.4145,0.3763,39.4100,70,97,157913
2.6735,0.3470,39.6000,70,97,157917
3.0156,0.3763,39.6000,70,97,157920
3.3822,0.4008,39.5700,70,97,157923
3.6168,0.3763,39.6000,70,97,157926
3.7928,0.3812,39.3500,70,97,157930
3.6950,0.3812,39.4800,70,97,157933
3.4311,0.3715,39.6000,70,97,157936
3.0352,0.3812,39.5700,70,97,157940
2.5171,0.3715,39.6000,70,97,157943
2.1017,0.3910,39.3500,70,97,157946
1.6764,0.3763,39.5400,70,97,157950
1.4027,0.3812,39.6000,70,97,157954
1.2463,0.3666,39.5700,70,97,157957
1.1632,0.3715,39.7000,70,97,157961
1.1975,0.3959,39.4400,70,97,157964
1.1584,0.3763,39.6400,70,97,157967
1.2170,0.4057,39.5700,70,97,157970
1.3001,0.3666,39.6000,70,97,157974
1.3734,0.3910,39.6400,70,97,157977
1.4858,0.3861,39.5100,70,97,157980
1.5347,0.3763,39.5400,70,97,157984
1.6031,0.3763,39.5100,70,97,157987
1.6276,0.3763,39.6400,70,97,157990
1.6667,0.3715,39.6400,70,97,157995
1.7400,0.3763,39.4800,70,97,157998
1.7204,0.3763,39.6400,70,97,158001
1.7693,0.3812,39.4800,70,97,158005
1.7400,0.3715,39.5100,70,97,158008
1.7546,0.3812,39.7000,70,97,158011
1.7840,0.3812,39.6400,70,97,158015
1.7742,0.3763,39.6000,70,97,158018
1.8133,0.3763,39.4100,70,97,158021
1.8084,0.3666,39.4800,70,97,158025
1.8035,0.3763,39.6400,70,97,158028
1.8231,0.3812,39.5700,70,97,158031
1.8182,0.3715,39.6000,70,97,158034
1.8719,0.3861,39.3500,70,97,158039
1.8328,0.3715,39.5700,70,97,158042
1.8426,0.3666,39.6400,70,97,158045
1.8573,0.3763,39.6000,70,97,158049
1.8915,0.3715,39.6000,70,97,158052
1.9208,0.3959,39.4100,70,97,158055
1.8768,0.3812,39.5400,70,97,158059
1.8817,0.3715,39.5100,70,97,158062
1.8719,0.3715,39.6000,70,97,158065
1.8768,0.3715,39.6000,70,97,158069
1.9159,0.3959,39.4100,70,97,158072
1.8866,0.3763,39.5700,70,97,158075
1.9062,0.3763,39.5100,70,97,158078
1.8964,0.3763,39.6000,70,97,158083
1.8964,0.3715,39.6400,70,97,158086
1.9550,0.3861,39.4800,70,97,158089
1.9062,0.3763,39.6400,70,97,158093
1.9355,0.3812,39.5100,70,97,158096
1.9110,0.3715,39.6000,70,97,158099
1.9159,0.3812,39.6000,70,97,158103
1.9355,0.3763,39.5700,70,97,158106
1.9257,0.4008,39.6000,70,97,158109
1.9697,0.3666,39.4100,70,97,158113
1.9355,0.4008,39.6000,70,97,158116
1.9501,0.3666,39.6000,70,97,158119
1.9697,0.3812,39.5400,70,97,158123
1.9599,0.3715,39.6000,70,97,158127
2.0137,0.3861,39.3800,70,97,158130
1.9941,0.3812,39.5100,70,97,158133
1.9892,0.3470,39.6000,70,97,158137
2.0039,0.3812,39.6000,70,97,158140
2.0039,0.3666,39.5700,70,97,158143
2.0723,0.3910,39.3500,70,97,158147
2.0626,0.3666,39.5100,70,97,158150
2.0381,0.3715,39.5700,70,97,158153
2.0430,0.3666,39.5700,70,97,158157
2.0479,0.3763,39.6000,70,97,158160
2.1065,0.3861,39.4800,70,97,158163
2.0674,0.3617,39.5700,70,97,158167
2.0772,0.3470,39.5100,70,97,158171
2.0626,0.3715,39.6000,70,97,158174
2.0674,0.3470,39.6000,70,97,158177
2.0968,0.3812,39.6000,70,97,158181
2.0772,0.3959,39.5700,70,97,158184
2.1065,0.3812,39.4800,70,97,158187
2.0772,0.3715,39.5700,70,97,158191
2.1017,0.3666,39.6000,70,97,158194
2.1114,0.3812,39.5700,70,97,158197
2.0723,0.3666,39.6000,70,97,158201
2.0919,0.3763,39.4800,70,97,158204
2.0528,0.3715,39.5700,70,97,158208
2.0723,0.3715,39.6000,70,97,158211
2.0528,0.3715,39.4800,70,97,158215
2.0186,0.3812,39.6400,70,97,158218
2.0283,0.3812,39.5100,70,97,158221
1.9697,0.3812,39.7000,70,97,158225
1.9501,0.3715,39.6000,70,97,158228
1.9306,0.4154,39.6400,70,97,158231
1.8915,0.3666,39.6000,70,97,158235
1.9062,0.3861,39.4100,70,97,158238
1.8328,0.3715,39.5700,70,97,158241
1.8084,0.3715,39.6400,70,97,158245
1.7986,0.3763,39.5700,70,97,158248
1.7595,0.3812,39.6000,70,97,158252
1.7937,0.3861,39.3800,70,97,158255
1.7449,0.3812,39.5400,70,97,158259
1.7155,0.3666,39.5100,70,97,158262
1.7107,0.3763,39.6000,70,97,158265
1.6960,0.3715,39.6000,70,97,158269
1.7351,0.3861,39.3800,70,97,158272
1.7058,0.3763,39.5700,70,97,158275
1.7204,0.3763,38.8400,70,97,158279
1.6960,0.3715,39.6000,70,97,158282
1.7058,0.3715,39.6000,70,97,158285
1.7351,0.4203,39.4800,70,97,158289
1.7253,0.3715,39.6000,70,97,158292
1.7546,0.3812,39.4400,70,97,158296
1.7400,0.3715,39.6000,70,97,158300
1.7498,0.3812,39.5400,70,97,158303
1.7644,0.3666,39.5700,70,97,158306
1.7644,0.3715,39.6400,70,97,158309
1.7889,0.3666,39.4400,70,97,158313
1.7693,0.3910,39.6000,70,97,158316
1.7840,0.3715,39.6000,70,97,158319
1.8084,0.3812,39.4800,70,97,158323
1.7937,0.3715,39.6000,70,97,158326
1.8475,0.3861,39.3200,70,97,158329
1.8524,0.3666,39.5100,70,97,158333
1.8231,0.3715,39.5400,70,97,158337
1.8328,0.3763,39.5700,70,97,158340
1.8328,0.3812,39.6000,70,97,158344
1.8817,0.3861,39.4400,70,97,158347
1.8524,0.3763,39.5400,70,97,158350
1.8475,0.3715,39.5400,70,97,158354
1.8475,0.3812,39.6000,70,97,158357
1.8475,0.3715,39.6400,70,97,158360
1.8915,0.3763,39.5100,70,97,158363
1.8622,0.3715,39.4800,70,97,158367
1.9159,0.3812,39.4800,70,97,158370
1.8622,0.3715,39.6000,70,97,158373
1.8622,0.3715,39.6000,70,97,158377
1.8719,0.4008,39.5400,70,97,158381
1.8524,0.3715,39.6000,70,97,158384
1.8768,0.3812,39.5100,70,97,158388
1.8377,0.3666,39.5700,70,97,158391
1.8475,0.3763,39.6000,70,97,158394
1.8719,0.3812,39.4800,70,97,158398
1.8426,0.3715,39.7000,70,97,158401
1.8964,0.3715,39.4100,70,97,158404
1.8524,0.3763,39.6700,70,97,158408
1.8426,0.3715,39.6000,70,97,158411
1.8524,0.4057,39.6400,70,97,158414
1.8573,0.3666,39.6000,70,97,158418
1.8817,0.3861,39.3800,70,97,158422
1.8573,0.3763,39.5400,70,97,158425
1.8426,0.3715,39.6400,70,97,158428
1.8475,0.3763,39.6000,70,97,158432
1.8426,0.3715,39.6400,70,97,158435
1.8964,0.3959,39.3800,70,97,158438
1.8475,0.3763,39.4800,70,97,158442
1.8573,0.3763,39.5400,70,97,158445
1.8475,0.3763,39.6000,70,97,158448
1.8475,0.3715,39.6000,70,97,158452
1.8817,0.3861,39.4800,70,97,158455
1.8671,0.3812,39.5700,70,97,158458
1.8622,0.3763,38.7400,70,97,158462
1.8377,0.3715,39.6400,70,97,158466
1.8475,0.3715,39.6000,70,97,158469
1.8866,0.3910,39.4400,70,97,158473
1.8573,0.3715,39.5700,70,97,158476
1.8915,0.3763,39.5100,70,97,158479
1.8573,0.3666,39.5100,70,97,158482
1.8719,0.3715,39.6000,70,97,158486
1.8817,0.3763,39.5100,70,97,158489
1.8768,0.3715,39.6000,70,97,158492
1.8964,0.3763,39.4100,70,97,158496
1.9208,0.3763,39.3500,70,97,158500
1.8671,0.3715,39.1600,70,97,158504
1.8915,0.3715,39.5700,70,97,158508
1.8671,0.3763,39.6700,70,97,158511
1.8622,0.3715,39.6400,70,97,158515
1.9110,0.3812,39.4400,70,97,158518
1.8817,0.3763,39.6000,70,97,158521
1.8866,0.3763,39.4800,70,97,158525
1.8719,0.3763,39.6000,70,97,158528
1.8719,0.4154,39.6000,70,97,158531
1.9062,0.3812,39.4400,70,97,158535
1.8866,0.3666,39.6000,70,97,158538
1.9013,0.3812,39.4800,70,97,158541
1.8768,0.3715,39.6000,70,97,158545
1.8817,0.3715,39.6700,70,97,158548
1.9013,0.3812,39.5100,70,97,158552
1.8817,0.3715,39.8300,70,97,158556
1.9110,0.3763,39.4100,70,97,158559
1.8866,0.3715,39.5400,70,97,158562
1.9013,0.3715,39.6000,70,97,158565
1.8915,0.3763,39.5400,70,97,158569
1.8817,0.3763,39.6000,70,97,158572
1.9306,0.3812,39.3800,70,97,158575
1.8866,0.3763,39.6000,70,97,158579
1.8964,0.3715,39.6000,70,97,158582
1.8964,0.3763,39.5400,70,97,158585
1.8817,0.3715,39.6000,70,97,158589
1.9306,0.4154,39.3200,70,97,158593
1.8964,0.3763,39.5100,70,97,158596
1.8768,0.3666,39.6700,70,97,158600
1.8768,0.3715,39.6000,70,97,158603
1.8719,0.3715,39.6000,70,97,158606
1.9159,0.3861,39.4400,70,97,158610
1.8768,0.3812,39.5700,70,97,158613
1.9062,0.3763,39.5100,70,97,158616
1.8915,0.3715,39.6000,70,97,158619
1.9110,0.3617,39.6000,70,97,158623
1.9599,0.3812,39.4800,70,97,158626
1.9453,0.3715,39.6000,70,97,158629
1.9795,0.3763,39.4800,70,97,158633
1.9599,0.3715,39.6400,70,97,158637
1.9648,0.3715,39.7000,70,97,158640
1.9746,0.3763,39.5400,70,97,158644
1.9648,0.3715,39.6700,70,97,158647
1.9795,0.3861,39.4400,70,97,158650
1.9453,0.3715,39.6000,70,97,158654
1.9355,0.3666,39.6000,70,97,158657
1.9453,0.3812,39.6400,70,97,158660
1.9110,0.3715,39.6700,70,97,158664
1.9453,0.3812,39.3500,70,97,158667
1.9208,0.3666,39.5100,70,97,158670
1.8817,0.3715,39.5700,70,97,158673
1.8817,0.3763,39.6000,70,97,158678
1.8573,0.3715,39.8000,70,97,158681
1.9159,0.3763,39.3200,70,97,158684
1.8475,0.3763,39.5100,70,97,158688
1.8328,0.3666,39.5700,70,97,158691
1.8280,0.3715,39.6000,70,97,158694
1.8182,0.3715,39.6000,70,97,158698
1.8622,0.3861,39.4400,70,97,158701
1.8133,0.3763,39.5700,70,97,158704
1.8328,0.4106,39.5700,70,97,158708
1.8182,0.3715,39.6400,70,97,158711
1.8328,0.3715,39.7000,70,97,158714
1.8426,0.3812,39.5400,70,97,158718
1.8328,0.3812,39.6000,70,97,158722
1.8573,0.3763,39.4800,70,97,158725
1.8280,0.3666,39.6000,70,97,158729
1.8377,0.3715,39.6000,70,97,158732
1.8671,0.3812,39.5100,70,97,158735
1.8426,0.3715,39.6000,70,97,158738
1.8768,0.3763,39.5100,70,97,158742
1.8671,0.3715,39.5400,70,97,158745
1.8719,0.3763,39.7700,70,97,158748
1.9110,0.3812,39.5400,70,97,158752
1.9306,0.3715,39.6400,70,97,158755
2.0430,0.3910,39.3800,70,97,158758
2.1408,0.3763,39.5700,70,97,158763
2.3314,0.3715,39.6000,70,97,158766
2.6149,0.3470,39.5700,70,97,158769
2.9570,0.3715,39.6000,70,97,158772
3.3822,0.3861,39.2800,70,97,158776
3.5875,0.3715,39.5700,70,97,158779
3.7292,0.3666,39.5700,70,97,158782
3.6852,0.3666,39.6000,70,97,158786
3.4653,0.3715,39.7000,70,97,158789
3.1623,0.4008,39.4100,70,97,158792
2.5855,0.3763,39.5700,70,97,158796
2.0919,0.3715,39.5400,70,97,158799
1.6764,0.3715,39.6000,70,97,158802
1.3881,0.3812,39.6000,70,97,158807
1.2366,0.3812,39.4400,70,97,158810
1.1388,0.3715,39.5700,70,97,158813
1.1241,0.3763,39.4800,70,97,158817
1.1486,0.3763,39.6000,70,97,158820
1.2219,0.3715,39.6000,70,97,158823
1.3196,0.3763,39.4800,70,97,158826
1.3832,0.3715,39.6000,70,97,158830
1.4809,0.3715,39.5100,70,97,158833
1.5200,0.3666,39.5700,70,97,158836
1.5640,0.3666,39.5400,70,97,158840
1.6129,0.3666,39.5400,70,97,158843
1.6227,0.3715,39.5100,70,97,158846
1.6716,0.3666,39.4400,70,97,158851
1.6569,0.3666,39.6000,70,97,158854
1.6813,0.3715,39.6400,70,97,158857
1.7400,0.3715,39.5400,70,97,158861
1.7107,0.3812,39.6000,70,97,158864
1.7644,0.3861,39.3500,70,97,158867
1.7498,0.3763,39.5400,70,97,158871
1.7498,0.3910,39.7000,70,97,158874
1.7595,0.3715,39.6700,70,97,158877
1.7644,0.3666,39.5700,70,97,158880
1.8280,0.3861,39.4400,70,97,158884
1.7791,0.3715,39.5400,70,97,158887
1.7791,0.3666,39.5100,70,97,158891
1.7791,0.3617,39.6000,70,97,158895
1.7889,0.3715,39.6000,70,97,158898
1.8231,0.3861,39.5100,70,97,158901
1.8035,0.3763,39.6000,70,97,158905
1.8280,0.3763,39.5100,70,97,158908
1.8084,0.3763,39.7000,70,97,158911
1.8133,0.3715,39.6000,70,97,158915
1.8377,0.3715,39.5400,70,97,158918
1.8377,0.3715,39.5700,70,97,158921
1.8671,0.4301,39.5100,70,97,158925
1.8426,0.3715,39.4800,70,97,158928
1.8671,0.3666,39.6000,70,97,158931
1.8671,0.3812,39.4800,70,97,158935
1.8475,0.3715,39.6000,70,97,158939
1.8866,0.3812,39.3800,70,97,158942
1.9062,0.3666,39.5100,70,97,158945
1.8671,0.3715,39.5700,70,97,158949
1.8817,0.3763,39.5400,70,97,158952
1.8817,0.3715,39.6000,70,97,158955
1.9355,0.3861,39.3500,70,97,158959
1.9062,0.3763,39.5100,70,97,158962
1.9062,0.3666,39.6000,70,97,158965
1.9110,0.3763,39.6000,70,97,158969
1.9159,0.3666,39.6400,70,97,158972
1.9844,0.3861,39.3800,70,97,158976
1.9404,0.3666,39.5700,70,97,158980
1.9550,0.3715,39.5100,70,97,158983
1.9550,0.3715,39.6400,70,97,158986
1.9648,0.3715,39.6000,70,97,158989
2.0039,0.3910,39.5100,70,97,158993
1.9844,0.3715,39.6000,70,97,158996
2.0088,0.3763,39.4800,70,97,158999
1.9892,0.3715,39.6000,70,97,159003
1.9990,0.3715,39.6400,70,97,159006
2.0332,0.3959,39.4400,70,97,159009
2.0088,0.3715,39.6700,70,97,159013
2.0430,0.4057,39.4400,70,97,159016
2.0186,0.3715,39.5700,70,97,159020
2.0283,0.3715,39.6400,70,97,159024
2.0528,0.3812,39.5400,70,97,159027
2.0332,0.3715,39.6000,70,97,159030
2.0674,0.3763,39.4800,70,97,159033
2.0381,0.3715,39.5400,70,97,159037
2.0430,0.3666,39.6700,70,97,159040
2.0626,0.3763,39.5400,70,97,159043
2.0430,0.3763,39.6000,70,97,159047
2.0968,0.3812,39.3800,70,97,159050
2.0479,0.3715,39.5700,70,97,159053
2.0626,0.3666,39.6000,70,97,159057
2.0674,0.3763,39.5400,70,97,159060
2.0772,0.3666,39.6400,70,97,159064
2.0870,0.3861,39.3200,70,97,159067
2.0381,0.3812,39.5700,70,97,159071
1.9990,0.3715,39.6000,70,97,159074
1.9844,0.3812,39.6000,70,97,159077
1.9550,0.3715,39.6000,70,97,159081
1.9795,0.3861,39.4800,70,97,159084
1.9062,0.3763,39.6000,70,97,159087
1.8719,0.3715,39.5400,70,97,159091
1.8328,0.3763,39.6000,70,97,159094
1.8084,0.3715,39.6000,70,97,159097
1.8084,0.3812,39.4800,70,97,159101
1.7644,0.3715,39.6000,70,97,159105
1.7595,0.3763,39.5100,70,97,159108
1.7546,0.3666,39.6000,70,97,159111
1.6716,0.3715,39.6700,70,97,159116
1.6764,0.4008,39.7000,70,97,159120
1.7107,0.3861,39.4800,70,97,159123
1.6813,0.4008,39.6400,70,97,159126
1.7302,0.3812,39.3800,70,97,159129
1.7107,0.3763,39.5400,70,97,159133
1.6911,0.3666,39.6000,70,97,159136
1.7155,0.3715,39.5400,70,97,159139
1.7058,0.3666,39.6000,70,97,159143
1.7693,0.3861,39.3500,70,97,159147
1.7449,0.3763,39.5100,70,97,159150
1.7400,0.3666,39.6000,70,97,159154
1.7840,0.3666,39.6000,70,97,159157
1.7595,0.3715,39.6000,70,97,159160
1.8133,0.3910,39.4400,70,97,159164
1.7937,0.3763,39.5700,70,97,159167
1.7986,0.3910,39.5700,70,97,159170
1.7986,0.3715,39.5700,70,97,159173
1.7986,0.4057,39.6000,70,97,159177
1.8231,0.3812,39.5700,70,97,159180
1.8133,0.3763,39.5700,70,97,159183
1.8280,0.3666,39.4800,70,97,159187
1.8084,0.3812,39.7000,70,97,159191
1.8133,0.3715,39.6400,70,97,159194
1.8377,0.3666,39.4800,70,97,159198
1.8133,0.3715,39.6000,70,97,159201
1.8377,0.3812,39.4400,70,97,159204
1.8280,0.3715,39.4800,70,97,159208
1.8426,0.3715,39.6000,70,97,159211
1.8426,0.4106,39.5700,70,97,159214
1.8280,0.3666,39.6400,70,97,159218
1.8719,0.3812,39.3500,70,97,159221
1.8524,0.3763,39.5400,70,97,159224
1.8328,0.3715,39.6000,70,97,159228
1.8377,0.3666,39.5700,70,97,159232
1.8231,0.3715,39.5400,70,97,159235
1.9013,0.3861,39.3200,70,97,159238
1.8328,0.3812,39.5100,70,97,159242
1.8475,0.3666,39.5700,70,97,159245
1.8231,0.3666,39.4800,70,97,159248
1.8182,0.3715,39.6000,70,97,159252
1.8622,0.3763,39.4400,70,97,159255
1.8377,0.3763,39.6000,70,97,159258
1.8377,0.4008,39.5400,70,97,159262
1.8280,0.3715,39.6000,70,97,159265
1.8280,0.3763,39.6000,70,97,159268
1.8671,0.3812,39.4400,70,97,159272
1.8328,0.3763,39.6400,70,97,159276
1.8622,0.3763,39.4800,70,97,159279
1.8280,0.3715,39.6400,70,97,159283
1.8328,0.3715,39.6000,70,97,159286
1.8524,0.3812,39.5100,70,97,159289
1.8328,0.3763,39.6000,70,97,159292
1.8524,0.3763,39.5700,70,97,159296
1.8280,0.3763,39.5400,70,97,159299
1.8328,0.3715,39.6700,70,97,159302
1.8475,0.3861,39.5100,70,97,159306
1.8280,0.3715,39.8000,70,97,159309
1.8671,0.3763,39.3800,70,97,159312
1.8280,0.3666,39.6400,70,97,159316
1.8328,0.3715,39.6400,70,97,159320
1.8426,0.3763,39.6000,70,97,159323
1.8280,0.3666,39.6000,70,97,159327
1.8768,0.3861,39.3500,70,97,159330
1.8475,0.3715,39.5400,70,97,159333
1.8328,0.3470,39.5700,70,97,159337
1.8377,0.3812,39.7000,70,97,159340
1.8328,0.3715,39.6400,70,97,159343
1.8915,0.3763,39.4400,70,97,159346
1.8573,0.3763,39.6000,70,97,159350
1.8622,0.3715,39.4800,70,97,159353
1.8475,0.3715,39.5700,70,97,159356
1.8426,0.3715,39.6000,70,97,159361
1.8719,0.3812,39.4400,70,97,159364
1.8524,0.3666,39.6000,70,97,159367
1.8622,0.3763,39.3800,70,97,159371
1.8328,0.3666,39.6400,70,97,159374
1.8377,0.3763,39.6400,70,97,159377
1.8475,0.3715,39.5400,70,97,159381
1.8328,0.3715,39.6400,70,97,159384
1.8573,0.3763,39.4400,70,97,159387
1.8280,0.3763,39.6000,70,97,159391
1.8280,0.3715,39.6000,70,97,159394
1.8426,0.3812,39.5100,70,97,159397
1.8231,0.3715,39.7000,70,97,159401
1.8671,0.3812,39.3800,70,97,159405
1.8328,0.3763,39.5100,70,97,159408
1.8231,0.3763,39.6000,70,97,159411
1.8328,0.3763,39.6000,70,97,159415
1.8231,0.4008,39.6400,70,97,159418
1.8768,0.3861,39.3200,70,97,159421
1.8377,0.3812,39.5400,70,97,159425
1.8328,0.3666,39.5700,70,97,159428
1.8377,0.4008,39.5700,70,97,159431
1.8328,0.3666,39.6400,70,97,159435
1.8719,0.3861,39.4400,70,97,159438
1.8426,0.3763,39.5700,70,97,159441
1.8475,0.3763,39.5100,70,97,159446
1.8377,0.3715,39.6400,70,97,159449
1.8328,0.3763,39.6400,70,97,159452
1.8524,0.3812,39.5700,70,97,159456
1.8328,0.3812,39.5700,70,97,159459
1.8573,0.3812,39.5400,70,97,159462
1.8377,0.3715,39.6000,70,97,159465
1.8328,0.3715,39.6000,70,97,159469
1.8573,0.3959,39.4400,70,97,159472
1.8328,0.3715,39.3500,70,97,159475
1.8524,0.3763,39.4400,70,97,159479
1.8328,0.3715,39.4800,70,97,159482
1.8231,0.3715,39.6000,70,97,159485
1.8280,0.3763,39.5400,70,97,159490
1.8084,0.3812,39.6000,70,97,159493
1.8573,0.3812,39.3800,70,97,159496
1.8475,0.3666,39.5400,70,97,159500
1.8475,0.3715,39.5100,70,97,159503
1.8768,0.3715,39.5700,70,97,159506
1.8915,0.3715,39.6700,70,97,159510
1.9892,0.3959,39.3800,70,97,159513
1.9257,0.3763,39.8900,70,97,159516
1.9208,0.3715,39.5700,70,97,159520
1.9257,0.3715,39.6400,70,97,159523
1.9257,0.3715,39.6000,70,97,159526
1.9648,0.3861,39.5400,70,97,159529
1.9208,0.3763,39.6000,70,97,159534
1.9159,0.3715,39.5100,70,97,159537
1.8964,0.3715,39.6000,70,97,159540
1.8817,0.3715,39.6400,70,97,159544
1.9208,0.3666,39.4800,70,97,159547
1.8524,0.3812,39.6000,70,97,159550
1.8573,0.3812,39.5100,70,97,159554
1.8182,0.3666,39.6400,70,97,159557
1.8084,0.3666,39.6400,70,97,159560
1.8133,0.3861,39.5100,70,97,159564
1.7840,0.3715,39.6400,70,97,159567
1.8035,0.3812,39.4100,70,97,159570
1.7742,0.3715,39.5400,70,97,159575
1.7693,0.3715,39.6400,70,97,159578
1.7889,0.3812,39.5100,70,97,159581
1.7644,0.3715,39.6000,70,97,159584
1.7986,0.3812,39.3500,70,97,159588
1.7595,0.3715,39.5400,70,97,159591
1.7693,0.3666,39.6000,70,97,159594
1.7693,0.3763,39.5400,70,97,159598
1.7595,0.3715,39.6400,70,97,159601
1.8182,0.3959,39.3500,70,97,159604
1.7889,0.3763,39.5400,70,97,159608
1.7791,0.3715,39.6400,70,97,159611
1.7791,0.3715,39.6000,70,97,159614
1.7791,0.3715,39.6000,70,97,159619
1.8231,0.3812,39.4400,70,97,159622
1.7986,0.3715,39.5400,70,97,159625
1.8231,0.3763,39.5100,70,97,159629
1.8182,0.4106,39.6400,70,97,159632
1.8377,0.3715,39.6000,70,97,159635
1.9110,0.3763,39.5100,70,97,159639
1.9550,0.3715,39.6700,70,97,159642
2.1212,0.3861,39.5100,70,97,159645
2.3021,0.3715,39.0300,70,97,159648
2.5904,0.3715,39.6000,70,97,159652
2.9570,0.3763,39.5100,70,97,159655
3.2649,0.3763,39.6000,70,97,159659
3.5728,0.3763,39.4400,70,97,159663
3.6119,0.3715,39.6400,70,97,159666
3.5435,0.3715,39.6000,70,97,159669
3.3089,0.3812,39.6400,70,97,159673
2.8543,0.3715,39.7000,70,97,159676
2.4145,0.3812,39.3500,70,97,159679
1.9208,0.3763,39.5400,70,97,159683
1.5347,0.3715,39.6000,70,97,159686
1.2854,0.3763,39.7000,70,97,159689
1.1339,0.3812,39.5700,70,97,159693
1.1290,0.3959,39.3500,70,97,159696
1.0606,0.3763,39.7700,70,97,159699
1.0899,0.3666,39.6400,70,97,159703
1.1632,0.3470,39.6000,70,97,159707
1.2414,0.3715,39.6400,70,97,159710
1.3636,0.3861,39.4400,70,97,159713
1.4125,0.3763,39.4400,70,97,159717
1.4712,0.3715,39.5100,70,97,159720
1.5103,0.3959,39.6000,70,96,159723
1.6422,0.3666,39.6400,70,96,159728
1.6325,0.3715,39.6000,70,96,159731
1.6618,0.3812,39.5400,70,96,159735
1.6618,0.3715,39.6000,70,96,159738
1.7107,0.3666,39.4100,70,96,159741
1.7009,0.3763,39.4400,70,96,159746
1.7009,0.3812,39.6400,70,96,159749
1.7155,0.3763,39.5700,70,96,159752
1.7351,0.3715,39.6400,70,96,159756
1.7595,0.3861,39.3200,70,96,159759
1.7253,0.3763,39.5700,70,96,159762
1.7253,0.3666,39.5700,70,96,159765
1.7253,0.3763,39.5700,70,96,159769
1.7302,0.3715,39.6400,70,96,159772
1.7889,0.3910,39.4400,70,96,159775
1.7546,0.3812,39.5400,70,96,159779
1.7498,0.3715,39.5400,70,96,159782
1.7449,0.3715,39.8600,70,96,159785
1.7498,0.3715,39.6000,70,96,159790
1.7840,0.3910,39.5400,70,96,159793
1.7889,0.3715,39.6000,70,96,159796
1.7791,0.3763,39.6000,70,96,159800
1.7595,0.3470,39.6400,70,96,159803
1.7546,0.3715,39.6000,70,96,159806
1.7986,0.3812,39.4800,70,96,159810
1.7791,0.3715,39.6400,70,96,159813
1.8524,0.3666,39.5100,70,96,159816
1.7937,0.3715,39.5400,70,96,159819
1.8328,0.3715,39.6000,70,96,159823
1.8231,0.3861,39.5100,70,96,159826
1.8133,0.3715,39.6000,70,96,159830
1.8475,0.3763,39.4100,70,96,159834
1.8328,0.3666,39.5400,70,96,159837
1.8328,0.3715,39.4800,70,96,159840
1.8622,0.3763,39.5400,70,96,159844
1.8475,0.3715,39.6700,70,96,159847
1.9110,0.3861,39.3500,70,96,159850
1.8671,0.3763,39.5700,70,96,159854
1.8768,0.3715,39.6000,70,96,159857
1.8719,0.3763,39.6000,70,96,159860
1.8866,0.3715,39.6000,70,96,159864
1.9501,0.3959,39.4100,70,96,159867
1.9404,0.3812,39.5700,70,96,159870
1.9306,0.3715,39.5400,70,96,159874
1.9404,0.3715,39.6000,70,96,159878
1.9306,0.3715,39.6400,70,96,159881
1.9795,0.4008,39.4400,70,96,159884
1.9501,0.3763,39.6000,70,96,159888
1.9746,0.3763,39.5100,70,96,159891
1.9648,0.3715,39.6000,70,96,159894
1.9648,0.3715,39.6000,70,96,159898
2.0088,0.3861,39.5100,70,96,159901
1.9844,0.3470,39.6000,70,96,159904
2.0088,0.3812,39.5100,70,96,159908
1.9844,0.3715,39.6000,70,96,159911
1.9892,0.3715,39.6400,70,96,159915
2.0088,0.3715,39.5100,70,96,159918
1.9990,0.3763,39.7000,70,96,159922
2.0283,0.3812,39.4400,70,96,159925
1.9990,0.3715,39.6700,70,96,159928
2.0039,0.3763,39.6000,70,96,159932
2.0235,0.3812,39.5400,70,96,159935
1.9844,0.3910,39.6400,70,96,159938
2.0137,0.3812,39.3800,70,96,159942
1.9697,0.3763,39.4800,70,96,159945
1.9306,0.3666,39.6400,70,96,159948
1.9159,0.3812,39.6000,70,96,159952
1.8866,0.3715,39.6000,70,96,159955
1.9110,0.4057,39.3500,70,96,159959
1.8328,0.3763,39.5400,70,96,159963
1.7986,0.3715,39.5700,70,96,159966
1.7693,0.3715,39.6400,70,96,159969
1.7302,0.3763,39.6400,70,96,159972
1.7498,0.3812,39.4800,70,96,159976
1.7009,0.3715,39.6000,70,96,159979
1.6911,0.3763,39.5400,70,96,159982
1.6569,0.3812,39.6000,70,96,159986
1.6422,0.3715,39.5700,70,96,159989
1.6520,0.3763,39.6000,70,96,159992
1.6276,0.3763,39.5700,70,96,159996
1.6325,0.3812,39.5700,70,96,160000
1.6080,0.3715,39.7700,70,96,160003
1.6080,0.3715,39.6400,70,96,160007
1.6325,0.3812,39.2800,70,96,160010
1.6129,0.3715,39.6000,70,96,160013
1.6373,0.3812,39.4100,70,96,160017
1.6325,0.3715,39.5100,70,96,160020
1.6276,0.3715,39.4800,70,96,160023
1.6520,0.3763,39.5400,70,96,160027
1.6471,0.3715,39.6000,70,96,160030
1.7009,0.3861,39.3800,70,96,160033
1.6764,0.3763,39.8600,70,96,160036
1.6764,0.3715,39.6000,70,96,160040
1.6911,0.3763,39.5700,70,96,160044
1.6862,0.3666,39.6400,70,96,160047
1.7449,0.3959,39.3500,70,96,160051
1.7204,0.3861,39.4800,70,96,160054
1.7107,0.3666,39.5700,70,96,160057
1.7302,0.3715,39.5700,70,96,160061
1.7351,0.3715,39.6000,70,96,160064
1.7742,0.3959,39.5100,70,96,160067
1.7498,0.3763,39.5700,70,96,160071
1.7595,0.3763,38.6800,70,96,160074
1.7351,0.3715,39.6400,70,96,160077
1.7400,0.3715,39.5700,70,96,160080
1.8035,0.3666,39.4400,70,96,160084
1.7449,0.3715,39.6000,70,96,160088
1.8035,0.3812,39.5100,70,96,160091
1.7498,0.3715,39.7000,70,96,160095
1.7546,0.3812,39.7000,70,96,160098
1.7742,0.3763,39.5700,70,96,160101
1.7595,0.3715,39.6000,70,96,160105
1.7840,0.3763,39.4800,70,96,160108
1.7644,0.3715,39.6400,70,96,160111
1.7693,0.3715,39.6000,70,96,160115
1.7840,0.3812,39.5700,70,96,160118
1.7546,0.3763,39.7000,70,96,160121
1.7889,0.3666,39.3800,70,96,160124
1.7498,0.3715,39.5700,70,96,160129
1.7595,0.3715,39.6000,70,96,160132
1.7693,0.3812,39.5400,70,96,160135
1.7546,0.3666,39.6000,70,96,160139
1.7986,0.3910,39.3500,70,96,160142
1.7889,0.3666,39.5100,70,96,160145
1.7595,0.3666,39.6000,70,96,160149
1.7742,0.3763,39.6000,70,96,160152
1.7644,0.3715,39.6400,70,96,160155
1.8084,0.3910,39.4400,70,96,160159
1.7693,0.3763,39.5700,70,96,160162
1.7644,0.3715,39.5400,70,96,160165
1.7595,0.3715,39.6000,70,96,160168
1.7546,0.3715,39.6000,70,96,160173
1.7840,0.3959,39.4400,70,96,160176
1.7595,0.3763,39.6000,70,96,160179
1.7693,0.3763,39.5100,70,96,160183
1.7840,0.3715,39.6400,70,96,160186
1.7498,0.3715,39.6400,70,96,160189
1.7693,0.3715,39.5400,70,96,160193
1.7644,0.3959,39.6400,70,96,160196
1.7937,0.3715,39.4800,70,96,160199
1.7840,0.3812,39.6700,70,96,160203
1.7742,0.3715,39.6700,70,96,160206
1.7937,0.3763,39.5100,70,96,160209
1.7742,0.3715,39.6700,70,96,160214
1.8133,0.3763,39.4100,70,96,160217
1.7937,0.3763,39.5100,70,96,160220
1.7791,0.3763,39.6400,70,96,160223
1.7889,0.3763,39.6700,70,96,160227
1.7791,0.3763,39.6000,70,96,160230
1.8328,0.3861,39.3500,70,96,160233
1.7937,0.3763,39.5400,70,96,160237
1.7791,0.3715,39.6400,70,96,160240
1.7937,0.3763,39.6400,70,96,160243
1.7889,0.3715,39.6000,70,96,160247
1.8377,0.3861,39.4100,70,96,160250
1.8035,0.3763,39.5400,70,96,160253
1.7986,0.3715,39.6000,70,96,160258
1.7937,0.3666,39.6000,70,96,160261
1.7889,0.3715,39.6000,70,96,160264
1.8231,0.3812,39.5700,70,96,160268
1.7937,0.3763,39.6700,70,96,160271
1.8035,0.3763,39.4800,70,96,160274
1.7791,0.3715,39.6000,70,96,160277
1.7693,0.3715,39.6000,70,96,160281
1.7986,0.3861,39.4800,70,96,160284
1.7791,0.3715,39.5700,70,96,160287
1.8133,0.3763,39.4800,70,96,160291
1.8133,0.3666,39.5700,70,96,160294
1.8280,0.3715,39.6000,70,96,160297
1.8671,0.3763,39.5100,70,96,160302
1.8671,0.3715,39.5100,70,96,160305
1.9062,0.3666,39.4100,70,96,160308
1.9062,0.3715,39.5400,70,96,160312
1.9404,0.3715,39.6400,70,96,160315
1.9257,0.3812,39.5400,70,96,160318
1.9013,0.3715,39.6000,70,96,160322
1.9453,0.3861,39.4400,70,96,160325
1.8817,0.3715,39.5400,70,96,160328
1.8817,0.3666,39.7000,70,96,160331
1.8719,0.3715,39.5700,70,96,160335
1.7986,0.3715,39.6000,70,96,160340
1.7840,0.3715,39.6400,70,96,160344
1.8035,0.3812,39.4400,70,96,160347
1.7595,0.3715,39.7000,70,96,160350
1.7742,0.3812,39.5100,70,96,160354
1.7449,0.3666,39.6000,70,96,160357
1.7449,0.3715,39.6000,70,96,160360
1.7644,0.3763,39.5100,70,96,160364
1.7546,0.3763,39.6000,70,96,160367
1.7644,0.3763,39.4400,70,96,160370
1.7351,0.3715,39.5400,70,96,160374
1.7449,0.3861,39.7000,70,96,160377
1.7693,0.3812,39.5100,70,96,160380
1.7498,0.3715,39.6400,70,96,160385
1.7937,0.3812,39.3800,70,96,160388
1.7546,0.3715,39.5700,70,96,160391
1.7595,0.3715,39.6400,70,96,160395
1.7693,0.4008,39.6000,70,96,160398
1.7644,0.3715,39.6400,70,96,160401
1.8182,0.3861,39.3200,70,96,160404
1.7791,0.3666,39.5400,70,96,160408
1.7791,0.3666,39.5100,70,96,160411
1.7937,0.3715,39.6000,70,96,160414
1.8133,0.3666,39.6700,70,96,160418
1.9013,0.3861,39.4400,70,96,160421
1.9746,0.3861,39.6400,70,96,160424
2.1505,0.3763,39.5400,70,96,160429
2.3656,0.3715,39.6700,70,96,160432
2.6686,0.3666,39.6400,70,96,160435
3.0547,0.3812,39.4400,70,96,160439
3.3578,0.4008,39.5700,70,96,160442
3.5777,0.3666,39.4800,70,96,160445
3.5728,0.3715,39.7000,70,96,160448
3.4457,0.3666,39.6000,70,96,160452
3.1720,0.3763,39.6400,70,96,160455
2.7077,0.3666,39.6000,70,96,160458
2.2581,0.3715,39.4800,70,96,160462
1.7889,0.3715,39.6000,70,96,160465
1.4565,0.3715,39.6400,70,96,160468
1.2463,0.3812,39.5400,70,96,160473
1.1095,0.3715,39.5700,70,96,160476
1.0753,0.3812,39.4400,70,96,160479
1.0557,0.3812,39.5700,70,96,160483
1.0802,0.3715,39.6000,70,96,160486
1.1486,0.3763,39.5700,70,96,160489
1.2072,0.3715,39.6400,70,96,160492
1.3294,0.3861,39.3800,70,96,160496
1.3832,0.3763,39.5400,70,96,160499
1.4467,0.3910,39.6400,70,96,160502
1.5054,0.3763,39.5700,70,96,160506
1.5494,0.3715,39.6700,70,96,160509
1.6373,0.3910,39.4100,70,96,160513
1.6227,0.3812,39.5400,70,96,160517
1.6471,0.3470,39.5400,70,96,160520
1.6520,0.3715,39.6400,70,96,160523
1.6667,0.3715,39.6400,70,96,160527
1.7107,0.3763,39.5400,70,96,160530
1.6960,0.3763,39.6000,70,96,160533
1.7155,0.3763,39.4400,70,96,160537
1.7107,0.3715,39.6400,70,96,160540
1.7155,0.3715,39.6000,70,96,160543
1.7498,0.3861,39.4800,70,96,160547
1.7351,0.3715,39.6000,70,96,160550
1.7546,0.3763,39.5100,70,96,160553
1.7351,0.3959,39.5400,70,96,160557
1.7498,0.3715,39.6000,70,96,160561
1.7937,0.3666,39.5100,70,96,160564
1.7546,0.3715,39.6700,70,96,160567
1.7986,0.3910,39.4100,70,96,160571
1.7840,0.3763,39.5700,70,96,160574
1.7791,0.3715,39.6400,70,96,160577
1.8035,0.3812,38.8100,70,96,160581
1.7889,0.3715,39.6400,70,96,160584
1.8377,0.3861,39.3800,70,96,160587
1.7986,0.3763,39.5400,70,96,160591
1.7986,0.3666,39.6000,70,96,160594
1.8035,0.3812,39.5700,70,96,160598
1.8035,0.3715,39.6000,70,96,160602
1.8622,0.3861,39.4100,70,96,160605
1.8182,0.3763,39.5700,70,96,160608
1.8231,0.3715,39.6000,70,96,160611
1.8280,0.3715,39.6000,70,96,160615
1.8280,0.3715,39.6400,70,96,160618
1.8622,0.3861,39.4400,70,96,160621
1.8426,0.3763,39.6000,70,96,160625
1.8671,0.3666,39.4800,70,96,160628
1.8573,0.3715,39.6000,70,96,160631
1.8573,0.3715,39.6000,70,96,160635
1.8915,0.3861,39.4800,70,96,160638
1.8768,0.3763,39.6000,70,96,160642
1.9110,0.3763,39.5100,70,96,160646
1.8866,0.3910,39.6400,70,96,160649
1.8964,0.3715,39.6000,70,96,160652
1.9208,0.3763,38.7100,70,96,160655
1.9110,0.3763,39.7000,70,96,160659
1.9404,0.3763,39.4400,70,96,160662
1.9257,0.3715,39.6000,70,96,160665
1.9404,0.3715,39.6700,70,96,160669
1.9550,0.3910,39.5700,70,96,160672
1.9501,0.3715,39.6000,70,96,160675
1.9990,0.3812,39.3500,70,96,160679
1.9795,0.3715,39.5400,70,96,160683
1.9648,0.3715,39.8000,70,96,160686
1.9746,0.3470,39.5700,70,96,160690
1.9697,0.3715,39.6000,70,96,160693
2.0235,0.3910,39.3800,70,96,160696
1.9844,0.3763,39.6000,70,96,160699
1.9746,0.4057,39.6400,70,96,160703
1.9795,0.3715,39.6000,70,96,160706
1.9697,0.3715,39.5700,70,96,160709
2.0235,0.3861,39.4800,70,96,160713
1.9990,0.3812,39.5400,70,96,160716
2.0137,0.3763,39.5100,70,96,160719
1.9892,0.3715,39.6400,70,96,160723
1.9795,0.3715,39.6000,70,96,160727
1.9941,0.3812,39.5400,70,96,160730
1.9599,0.3763,39.6000,70,96,160734
1.9746,0.3812,39.6700,70,96,160737
1.9208,0.3715,39.6000,70,96,160740
1.9013,0.3715,39.6000,70,96,160744
1.9062,0.3812,39.5100,70,96,160747
1.8524,0.3763,39.6400,70,96,160750
1.8475,0.3763,39.4800,70,96,160753
1.8035,0.4008,39.6400,70,96,160757
1.7791,0.3715,39.6000,70,96,160760
1.7595,0.3812,39.5400,70,96,160763
1.7302,0.3666,39.6400,70,96,160768
1.7449,0.3812,39.2500,70,96,160771
1.7058,0.3763,39.5700,70,96,160774
1.6764,0.3715,39.6700,70,96,160778
1.6764,0.3812,39.5700,70,96,160781
1.6618,0.3715,39.0300,70,96,160784
1.7009,0.3910,39.3500,70,96,160788
1.6618,0.3763,39.5100,70,96,160791
1.6471,0.3666,39.5700,70,96,160794
1.6520,0.3763,39.6000,70,96,160798
1.6471,0.3617,39.6400,70,96,160801
1.6960,0.3861,39.5700,70,96,160804
1.6764,0.3715,39.5700,70,96,160807
1.6813,0.3763,39.5400,70,96,160812
1.6764,0.3763,39.6000,70,96,160815
1.6813,0.3470,39.6400,70,96,160818
1.7155,0.3812,39.5400,70,96,160822
1.7107,0.3715,39.6000,70,96,160825
1.7351,0.3763,39.4400,70,96,160828
1.7253,0.3666,39.6400,70,96,160832
1.7253,0.3715,39.7000,70,96,160835
1.7791,0.3812,39.5100,70,96,160838
1.7449,0.3715,39.6000,70,96,160842
1.7693,0.3715,39.5100,70,96,160845
1.7498,0.3715,39.5400,70,96,160848
1.7546,0.3715,39.6000,70,96,160851
1.7889,0.3763,39.5100,70,96,160856
1.7791,0.3715,39.6000,70,96,160859
1.8231,0.3812,39.3800,70,96,160862
1.8035,0.3715,39.5700,70,96,160866
1.7937,0.3715,39.6400,70,96,160869
1.8328,0.3763,39.5400,70,96,160872
1.7937,0.3715,39.6400,70,96,160876
1.8524,0.3910,39.3500,70,96,160879
1.8231,0.3763,39.5700,70,96,160882
1.8035,0.3959,39.6000,70,96,160886
1.8035,0.3763,39.6000,70,96,160889
1.7986,0.3763,39.6000,70,96,160892
1.8426,0.3861,39.4400,70,96,160897
1.7986,0.3715,39.5700,70,96,160900
1.8035,0.3715,39.5400,70,96,160903
1.7889,0.3715,39.6000,70,96,160906
1.7742,0.3666,39.6000,70,96,160910
1.8035,0.3812,39.4400,70,96,160913
1.7693,0.3715,39.6000,70,96,160916
1.7937,0.3763,39.4800,70,96,160920
1.7693,0.3715,39.6400,70,96,160923
1.7693,0.3715,39.6000,70,96,160926
1.7791,0.3763,39.5400,70,96,160930
1.7742,0.3763,39.6400,70,96,160933
1.8084,0.3763,39.5100,70,96,160936
1.7742,0.3666,39.6000,70,96,160941
1.7791,0.3715,39.6400,70,96,160944
1.7937,0.3861,39.5100,70,96,160947
1.7595,0.3763,39.6000,70,96,160952
1.7595,0.3715,39.6000,70,96,160955
1.8328,0.3910,39.4100,70,96,160959
1.7742,0.3812,39.5400,70,96,160962
1.7693,0.3715,39.5400,70,96,160965
1.7742,0.3763,39.6000,70,96,160969
1.7693,0.3812,39.6400,70,96,160972
1.8133,0.3812,39.4800,70,96,160975
1.8280,0.3763,39.5700,70,96,160978
1.7986,0.3763,39.4800,70,96,160983
1.7889,0.4008,39.7000,70,96,160986
1.7937,0.3715,39.6000,70,96,160989
1.8133,0.3763,39.5700,70,96,160993
1.7986,0.3763,39.6000,70,96,160996
1.8182,0.3812,39.4800,70,96,160999
1.7937,0.3763,39.6000,70,96,161003
1.7937,0.3666,39.6400,70,96,161006
1.8231,0.3812,39.5100,70,96,161009
1.7986,0.3715,39.6000,70,96,161013
1.8231,0.3763,39.4400,70,96,161016
1.8035,0.3812,39.5700,70,96,161019
1.8035,0.3715,39.6400,70,96,161024
1.8084,0.3812,39.5400,70,96,161027
1.7986,0.3470,39.6400,70,96,161030
1.8377,0.3812,39.3500,70,96,161033
1.8084,0.3470,39.5400,70,96,161037
1.7937,0.3715,39.7300,70,96,161040
1.8035,0.3812,39.5700,70,96,161043
1.7937,0.3715,39.6400,70,96,161047
1.8524,0.3959,39.3800,70,96,161050
1.8280,0.3763,39.5700,70,96,161053
1.8377,0.3715,39.5700,70,96,161057
1.8671,0.3763,39.6000,70,96,161060
1.8817,0.3715,39.6400,70,96,161063
1.9355,0.3861,39.3800,70,96,161068
1.9110,0.3763,39.5700,70,96,161071
1.9208,0.3763,39.5400,70,96,161074
1.9306,0.3715,39.6000,70,96,161077
1.9062,0.3715,39.6000,70,96,161081
1.9404,0.3861,39.4400,70,96,161084
1.9013,0.3715,39.6400,70,96,161087
1.9159,0.3861,39.4800,70,96,161091
1.8817,0.3715,39.6000,70,96,161094
1.8719,0.3763,39.6400,70,96,161097
1.8817,0.3812,39.4800,70,96,161101
1.8524,0.3812,39.6000,70,96,161104
1.8622,0.3763,39.4400,70,96,161107
1.8280,0.3666,39.5700,70,96,161112
1.8182,0.3715,39.6400,70,96,161115
1.8280,0.3812,39.6400,70,96,161118
1.7937,0.3715,39.6400,70,96,161122
1.8328,0.3861,39.3800,70,96,161125
1.7840,0.3715,39.6000,70,96,161128
1.7840,0.3715,39.6400,70,96,161132
1.7937,0.3763,39.6000,70,96,161135
1.7840,0.3470,39.6400,70,96,161138
1.8328,0.3959,39.3500,70,96,161141
1.8377,0.3763,39.5100,70,96,161145
1.7889,0.3715,39.6000,70,96,161148
1.7937,0.3763,39.6000,70,96,161152
1.7937,0.3715,39.6400,70,96,161156
1.8280,0.3763,39.4100,70,96,161159
1.7986,0.3763,39.5100,70,96,161162
1.8084,0.3812,39.5400,70,96,161166
1.7937,0.3666,39.6000,70,96,161169
1.7937,0.3812,39.6400,70,96,161172
1.8231,0.3812,39.4800,70,96,161176
1.8084,0.3812,39.7000,70,96,161179
1.8426,0.3812,39.4800,70,96,161182
1.8328,0.3715,39.6700,70,96,161186
1.8671,0.3715,39.6400,70,96,161189
1.9306,0.3763,39.5100,70,96,161192
2.0283,0.3715,39.8300,70,96,161196
2.2287,0.3959,39.4400,70,96,161200
2.4536,0.3715,39.6700,70,96,161203
2.8006,0.3763,39.6400,70,96,161206
3.1525,0.3812,39.5400,70,96,161210
3.4360,0.3715,39.6000,70,96,161213
3.7243,0.3812,39.3800,70,96,161216
3.6950,0.3812,39.5400,70,96,161220
3.5435,0.3715,39.6000,70,96,161223
3.1965,0.3763,39.5700,70,96,161226
2.7028,0.3812,39.6400,70,96,161230
2.2678,0.3861,38.8700,70,96,161233
1.7889,0.3763,39.5400,70,96,161236
1.4467,0.3715,39.7000,70,96,161240
1.2463,0.3715,39.5700,70,96,161244
1.1241,0.3715,39.6000,70,96,161247
1.1095,0.3959,39.4800,70,96,161250
1.0997,0.3763,39.5700,70,96,161254
1.1437,0.3715,39.4800,70,96,161257
1.2170,0.3666,39.6400,70,96,161260
1.2952,0.4057,39.6700,70,96,161264
1.4321,0.3812,39.5400,70,96,161267
1.4516,0.3763,39.7000,70,96,161270
1.5200,0.3812,39.5100,70,96,161274
1.5396,0.3763,39.6000,70,96,161277
1.5738,0.3763,39.6400,70,96,161281
1.6178,0.3812,39.4800,70,96,161285
1.6373,0.3666,39.6000,70,96,161288
1.6618,0.3763,39.6400,70,96,161291
1.6569,0.3715,39.5400,70,96,161294
1.6716,0.3715,39.6000,70,96,161298
1.6911,0.3812,39.5400,70,96,161301
1.6911,0.3715,39.6000,70,96,161304
1.7498,0.3812,39.4400,70,96,161308
1.7253,0.3812,39.8900,70,96,161311
1.7644,0.3763,39.6000,70,96,161314
1.7498,0.3812,39.5700,70,96,161318
1.7498,0.3861,39.6000,70,96,161321
1.7986,0.3910,39.3500,70,96,161325
1.7644,0.4008,39.5400,70,96,161329
1.7644,0.3715,39.6000,70,96,161332
1.7742,0.3763,39.6700,70,96,161335
1.7791,0.3715,39.6400,70,96,161339
1.8280,0.3959,39.4400,70,96,161342
1.8035,0.3763,39.5700,70,96,161345
1.8035,0.3715,39.4800,70,96,161348
1.8035,0.3715,39.6000,70,96,161352
1.8084,0.3715,39.5700,70,96,161355
1.8475,0.3763,39.4400,70,96,161358
1.8231,0.3763,39.6400,70,96,161362
1.8426,0.3763,39.4800,70,96,161366
1.8231,0.3715,39.6400,70,96,161369
1.8280,0.3666,39.6400,70,96,161373
1.8622,0.3812,39.5100,70,96,161376
1.8719,0.3763,39.6000,70,96,161379
1.8768,0.3763,39.5400,70,96,161383
1.8573,0.3715,39.5700,70,96,161386
1.8671,0.3715,39.6000,70,96,161389
1.8866,0.3763,39.4800,70,96,161392
1.8768,0.3715,39.6400,70,96,161396
1.9110,0.3812,39.3800,70,96,161399
1.8817,0.3715,39.6000,70,96,161402
1.8817,0.3715,39.6000,70,96,161406
1.8964,0.3812,39.5700,70,96,161410
1.8915,0.3715,39.6000,70,96,161413
1.9550,0.3910,39.3500,70,96,161417
1.9306,0.3763,39.6000,70,96,161420
1.9208,0.3666,39.6400,70,96,161423
1.9355,0.3763,39.6700,70,96,161427
1.9404,0.3812,39.7000,70,96,161430
2.0088,0.3861,39.4100,70,96,161433
1.9746,0.3763,39.5400,70,96,161437
1.9795,0.3715,39.5700,70,96,161440
1.9892,0.3763,39.6400,70,96,161443
1.9941,0.3715,39.6000,70,96,161446
2.0381,0.3812,39.4100,70,96,161451
2.0283,0.3666,39.6000,70,96,161454
2.0235,0.3763,39.5100,70,96,161457
2.0039,0.3715,39.6400,70,96,161461
2.0039,0.3715,39.6700,70,96,161464
2.0283,0.3812,39.4800,70,96,161467
2.0235,0.3763,39.6000,70,96,161471
2.0430,0.3666,39.4800,70,96,161474
2.0137,0.3715,39.6000,70,96,161477
2.0137,0.3763,39.6000,70,96,161480
2.0479,0.3812,39.5400,70,96,161484
2.0137,0.3715,39.6000,70,96,161487
2.0332,0.3812,39.4100,70,96,161490
2.0088,0.3715,39.5400,70,96,161495
1.9892,0.3715,39.6400,70,96,161498
1.9941,0.3812,39.6400,70,96,161501
1.9648,0.3812,39.6400,70,96,161505
1.9844,0.3812,39.3800,70,96,161508
1.9355,0.3812,39.5400,70,96,161511
1.9013,0.3470,39.6000,70,96,161515
1.8915,0.3763,38.9000,70,96,161518
1.8475,0.3812,39.6700,70,96,161521
1.8622,0.3910,39.3500,70,96,161524
1.8035,0.3812,39.5100,70,96,161528
1.7693,0.3666,39.6000,70,96,161531
1.7449,0.3715,39.6000,70,96,161534
1.7155,0.3715,39.8300,70,96,161539
1.7595,0.3910,39.4400,70,96,161542
1.6960,0.3812,39.6400,70,96,161545
1.6813,0.3715,39.5700,70,96,161549
1.6373,0.3715,39.6000,70,96,161552
1.6373,0.3666,39.6000,70,96,161555
1.6471,0.3812,39.5700,70,96,161559
1.6422,0.3812,39.5100,70,96,161563
1.6325,0.3715,39.6400,70,96,161567
1.6667,0.3763,39.4100,70,96,161570
1.6618,0.3715,39.5100,70,96,161573
1.6667,0.3861,39.6400,70,96,161577
1.6960,0.3812,39.5400,70,96,161581
1.6813,0.3715,39.6000,70,96,161584
1.7400,0.3861,39.3500,70,96,161588
1.7009,0.3715,39.5400,70,96,161591
1.7204,0.3715,39.6400,70,96,161594
1.7351,0.3763,39.5100,70,96,161597
1.7351,0.3715,39.6400,70,96,161601
1.7937,0.3861,39.4100,70,96,161604
1.7693,0.3812,39.5400,70,96,161607
1.7595,0.3715,39.5700,70,96,161611
1.7644,0.3763,39.6000,70,96,161614
1.7693,0.3666,39.7300,70,96,161617
1.8133,0.3861,39.4400,70,96,161622
1.7840,0.3763,39.6000,70,96,161625
1.7986,0.3763,39.5100,70,96,161628
1.7840,0.3715,39.5700,70,96,161632
1.7937,0.3715,39.6400,70,96,161635
1.8133,0.3812,39.6700,70,96,161638
1.7986,0.3666,39.6000,70,96,161642
1.8231,0.3812,39.5400,70,96,161645
1.7889,0.3763,39.6400,70,96,161648
1.7937,0.3715,39.6400,70,96,161651
1.7986,0.3812,39.5100,70,96,161655
1.7889,0.3763,39.6400,70,96,161658
1.8035,0.3763,39.5100,70,96,161661
1.7742,0.3715,39.6700,70,96,161666
1.7791,0.3763,39.6000,70,96,161669
1.7986,0.3861,39.5100,70,96,161672
1.7742,0.3812,39.6400,70,96,161676
1.8133,0.3861,39.3800,70,96,161679
1.7889,0.4057,39.5100,70,96,161682
1.7791,0.3666,39.6400,70,96,161686
1.7791,0.3812,39.5700,70,96,161689
1.7693,0.3715,39.6000,70,96,161692
1.8182,0.3959,39.3800,70,96,161696
1.7791,0.3763,39.5400,70,96,161699
1.7693,0.3715,39.5400,70,96,161702
1.7742,0.3763,39.6400,70,96,161705
1.7693,0.3715,39.5400,70,96,161710
1.8377,0.3861,39.5100,70,96,161713
1.7937,0.3812,39.5400,70,96,161716
1.8231,0.3812,39.5100,70,96,161720
1.7889,0.3715,39.5400,70,96,161723
1.7840,0.3715,39.6700,70,96,161726
1.8035,0.3763,39.5700,70,96,161730
1.7889,0.3763,39.6000,70,96,161733
1.8133,0.3812,38.8700,70,96,161736
1.7937,0.3715,39.6400,70,96,161740
1.7889,0.3812,39.5700,70,96,161743
1.8084,0.3812,39.5100,70,96,161746
1.7840,0.3666,39.6000,70,96,161751
1.8035,0.3763,39.4800,70,96,161754
1.7889,0.3763,39.9300,70,96,161757
1.7840,0.3763,39.6400,70,96,161760
1.7937,0.3812,38.7400,70,96,161764
1.7840,0.3763,39.6400,70,96,161767
1.8280,0.3812,39.3800,70,96,161770
1.7986,0.3763,39.7700,70,96,161774
1.7840,0.3715,39.6400,70,96,161777
1.7937,0.3763,39.6400,70,96,161780
1.7937,0.3812,39.6400,70,96,161784
1.8328,0.3861,39.5100,70,96,161787
1.7986,0.3763,39.5100,70,96,161790
1.7986,0.3715,39.6700,70,96,161795
1.8035,0.3666,39.6000,70,96,161798
1.7937,0.3715,39.6700,70,96,161801
1.8377,0.3861,39.4800,70,96,161804
1.8084,0.3763,39.8000,70,96,161808
1.8084,0.3763,39.2500,70,96,161811
1.7937,0.3715,39.6400,70,96,161814
1.8084,0.3666,39.6000,70,96,161818
1.8231,0.3812,39.4400,70,96,161821
1.7986,0.3715,39.6000,70,96,161824
1.8231,0.3763,39.5100,70,96,161828
1.8035,0.3715,39.6000,70,96,161831
1.8035,0.3715,39.6400,70,96,161835
1.8328,0.4106,39.5100,70,96,161839
1.8133,0.3763,39.6000,70,96,161842
1.8377,0.3763,39.0600,70,96,161845
1.8133,0.3715,39.5700,70,96,161849
1.8182,0.3715,39.6700,70,96,161852
1.8426,0.3812,39.4800,70,96,161855
1.8280,0.3715,39.6400,70,96,161858
1.8573,0.3959,39.3800,70,96,161862
1.8182,0.3666,39.5700,70,96,161865
1.8182,0.3715,39.6400,70,96,161868
1.8328,0.3763,39.6000,70,96,161872
1.8231,0.3470,39.6000,70,96,161875
1.8719,0.3861,39.3500,70,96,161879
1.8328,0.3812,39.5100,70,96,161883
1.8133,0.3666,39.6000,70,96,161886
1.8182,0.3470,39.6000,70,96,161889
1.8133,0.3715,39.6400,70,96,161893
1.8671,0.3910,39.4400,70,96,161896
1.8280,0.3763,39.6700,70,96,161899
1.8280,0.4252,39.5100,70,96,161903
1.8182,0.3715,39.6000,70,96,161906
1.8133,0.3715,39.6400,70,96,161909
1.8328,0.3812,39.4800,70,96,161912
1.8622,0.3666,39.6000,70,96,161916
1.8524,0.3763,39.4800,70,96,161920
1.8377,0.3812,39.6400,70,96,161923
1.8573,0.3715,39.4800,70,96,161927
1.8866,0.3763,39.4100,70,96,161930
1.8964,0.3715,39.6000,70,96,161933
1.9697,0.3763,39.4800,70,96,161937
1.9159,0.3715,39.6000,70,96,161940
1.9257,0.3715,39.6400,70,96,161943
1.9453,0.3812,39.5700,70,96,161947
1.9306,0.3715,39.6400,70,96,161950
1.9648,0.3910,39.4100,70,96,161953
1.9355,0.3812,39.5400,70,96,161957
1.9062,0.3763,39.7000,70,96,161960
1.9062,0.3763,39.5700,70,96,161964
1.8866,0.3715,39.6000,70,96,161968
1.9208,0.3910,39.3200,70,96,161971
1.8719,0.3763,39.5400,70,96,161974
1.8524,0.3715,39.6000,70,96,161977
1.8377,0.3763,39.7000,70,96,161981
1.8231,0.3763,39.6400,70,96,161984
1.8622,0.3861,39.4400,70,96,161987
1.8280,0.3861,39.5700,70,96,161991
1.8035,0.3666,39.5700,70,96,161994
1.7889,0.3763,39.5400,70,96,161997
1.7840,0.3715,39.6400,70,96,162001
1.8035,0.3812,39.5700,70,96,162004
1.7937,0.3666,39.6000,70,96,162008
1.7937,0.3763,39.5400,70,96,162012
1.7791,0.3715,39.6400,70,96,162015
1.7840,0.3715,39.6400,70,96,162018
1.8182,0.3861,39.4800,70,96,162021
1.7840,0.3910,39.6400,70,96,162025
1.8133,0.3812,39.4100,70,96,162028
1.7937,0.3763,39.5400,70,96,162031
1.8035,0.3666,39.6000,70,96,162035
1.8182,0.3861,39.5400,70,96,162038
1.8084,0.3715,39.6000,70,96,162041
1.8377,0.3812,39.4800,70,96,162045
1.8182,0.3763,39.5400,70,96,162049
1.8133,0.3715,39.7300,70,96,162052
1.8377,0.3763,39.5700,70,96,162056
1.8475,0.3715,39.5100,70,96,162059
1.9795,0.3910,39.3500,70,96,162062
1.9941,0.3715,39.5400,70,96,162066
2.1408,0.3715,39.6000,70,96,162069
2.3900,0.3763,39.7000,70,96,162072
2.6979,0.3812,39.6400,70,96,162075
3.1281,0.3861,39.4400,70,96,162079
3.3871,0.3763,39.6400,70,96,162082
3.6022,0.3715,39.5100,70,96,162085
3.6755,0.3666,39.6000,70,96,162089
3.5191,0.3715,39.6400,70,96,162093
3.2747,0.3812,39.4800,70,96,162096
2.7566,0.3763,39.6000,70,96,162100
2.2825,0.3812,39.5700,70,96,162103
1.8133,0.3715,39.6000,70,96,162106
1.4712,0.3715,39.5700,70,96,162110
1.2708,0.3812,39.5100,70,96,162113
1.1290,0.3763,39.5700,70,96,162116
1.0997,0.3861,39.5100,70,96,162119
1.0948,0.3715,39.6000,70,96,162123
1.1437,0.3715,39.6000,70,96,162126
1.2268,0.3763,39.5100,70,96,162129
1.2952,0.3715,39.6000,70,96,162134
1.3930,0.3715,39.4100,70,96,162137
1.4370,0.3715,39.6700,70,96,162140
1.5054,0.3715,39.7000,70,96,162144
1.5445,0.3763,39.5700,70,96,162147
1.5591,0.3812,39.6400,70,96,162150
1.6276,0.3861,39.3800,70,96,162154
1.6227,0.3812,39.5100,70,96,162157
1.6178,0.3715,39.6700,70,96,162160
1.6325,0.3715,39.5700,70,96,162164
1.6520,0.3715,39.8000,70,96,162167
1.7107,0.4203,39.3800,70,96,162170
1.7400,0.3812,39.4800,70,96,162176
1.7302,0.3763,39.6400,70,96,162179
1.7546,0.4154,39.5100,70,96,162182
1.7400,0.3715,39.6000,70,96,162186
1.7449,0.3763,39.7000,70,96,162189
1.7644,0.3763,39.5400,70,96,162192
1.7595,0.3763,39.6700,70,96,162196
1.8133,0.3812,39.4800,70,96,162199
1.7742,0.3715,39.6400,70,96,162202
1.7840,0.3715,39.6700,70,96,162206
1.7986,0.3715,39.5400,70,96,162209
1.7840,0.3715,39.6400,70,96,162212
1.8231,0.3666,39.4100,70,96,162216
1.8035,0.3861,39.5400,70,96,162220
1.7937,0.3715,39.6400,70,96,162223
1.8035,0.4008,39.6000,70,96,162227
1.7986,0.3812,39.6400,70,96,162230
1.8426,0.3861,39.3500,70,96,162233
1.8084,0.3763,39.5400,70,96,162237
1.8133,0.3715,39.6000,70,96,162240
1.8231,0.3763,39.7000,70,96,162243
1.8231,0.3715,39.6000,70,96,162246
1.8768,0.3910,39.5100,70,96,162250
1.8573,0.3763,39.5400,70,96,162253
1.8475,0.3715,39.5400,70,96,162256
1.8817,0.3812,39.6400,70,96,162260
1.8573,0.3666,39.6000,70,96,162264
1.8866,0.3812,39.5400,70,96,162267
1.8719,0.3763,39.6400,70,96,162271
1.9013,0.3812,39.4800,70,96,162274
1.8817,0.3715,39.6400,70,96,162277
1.8915,0.3715,39.6000,70,96,162281
1.9404,0.4106,39.4800,70,96,162284
1.9159,0.3763,39.7000,70,96,162287
1.9550,0.3763,39.4800,70,96,162290
1.9355,0.3666,39.5700,70,96,162294
1.9501,0.3715,39.6700,70,96,162297
1.9746,0.3812,39.5100,70,96,162300
1.9648,0.3715,39.6700,70,96,162305
2.0088,0.3666,39.3800,70,96,162308
1.9892,0.3763,39.6000,70,96,162311
1.9844,0.3715,39.6400,70,96,162315
2.0137,0.3812,39.5700,70,96,162318
1.9990,0.3715,39.5400,70,96,162321
2.0626,0.3763,39.4400,70,96,162325
2.0088,0.3763,39.5400,70,96,162328
2.0088,0.3715,39.6400,70,96,162331
2.0039,0.3763,39.6000,70,96,162334
2.0088,0.3715,39.6700,70,96,162338
2.0674,0.3959,39.3800,70,96,162341
2.0283,0.3861,39.5400,70,96,162344
2.0137,0.3715,39.5700,70,96,162349
2.0039,0.3763,39.6400,70,96,162352
1.9941,0.3715,39.6700,70,96,162355
2.0283,0.4301,39.4100,70,96,162359
1.9795,0.3763,39.5700,70,96,162362
1.9746,0.4057,39.4800,70,96,162365
1.9404,0.3763,39.6000,70,96,162369
1.9110,0.3715,39.6700,70,96,162372
1.9404,0.3812,39.4800,70,96,162375
1.8671,0.3763,39.6700,70,96,162378
1.8524,0.3910,39.5100,70,96,162382
1.7986,0.3715,39.6400,70,96,162385
1.7595,0.3812,39.6400,70,96,162388
1.7400,0.3763,39.5400,70,96,162393
1.7058,0.3910,39.6400,70,96,162396
1.7009,0.3763,39.4800,70,96,162399
1.6618,0.3763,39.6000,70,96,162403
1.6471,0.3666,39.6400,70,96,162406
1.6520,0.3763,39.5700,70,96,162409
1.6227,0.3666,39.6400,70,96,162413
1.6471,0.3812,39.3500,70,96,162416
1.6276,0.3763,39.5100,70,96,162419
1.6080,0.3715,39.7000,70,96,162422
1.6178,0.3666,39.6000,70,96,162426
1.5982,0.3715,39.7300,70,96,162429
1.6569,0.3910,39.3200,70,96,162433
1.6227,0.3763,39.4400,70,96,162437
1.6227,0.3763,39.5700,70,96,162440
1.6373,0.3763,39.6400,70,96,162443
1.6471,0.3715,39.6000,70,96,162447
1.6960,0.3861,39.4400,70,96,162450
1.6764,0.3763,39.5700,70,96,162453
1.6764,0.3763,39.4100,70,96,162457
1.6764,0.3812,39.6000,70,96,162460
1.6911,0.3715,39.6400,70,96,162463
1.7449,0.3763,39.5400,70,96,162467
1.7058,0.3763,39.5700,70,96,162470
1.7302,0.3812,39.5100,70,96,162473
1.7155,0.3715,39.6400,70,96,162477
1.7302,0.3470,39.6000,70,96,162481
1.7546,0.4154,39.4800,70,96,162484
1.7253,0.3715,39.6000,70,96,162487
1.7595,0.3763,39.4400,70,96,162491
1.7498,0.3715,39.5400,70,96,162494
1.7400,0.3715,39.8300,70,96,162497
1.7595,0.3812,39.5700,70,96,162501
1.7498,0.3715,39.6400,70,96,162504
1.7937,0.3812,39.3800,70,96,162507
1.7644,0.3763,38.8100,70,96,162511
1.7595,0.3715,39.6400,70,96,162514
1.7644,0.3763,39.6000,70,96,162518
1.7546,0.3861,39.6000,70,96,162522
1.8035,0.3910,39.3500,70,96,162525
1.7595,0.3763,39.6000,70,96,162528
1.7546,0.3715,39.6000,70,96,162531
1.7546,0.3763,39.6000,70,96,162535
1.7449,0.3763,39.6000,70,96,162538
1.7937,0.3861,39.3500,70,96,162541
1.7595,0.3861,39.5700,70,96,162545
1.7546,0.3715,39.5400,70,96,162548
1.7400,0.3715,39.6400,70,96,162551
1.7400,0.3715,39.6400,70,96,162555
1.7742,0.4008,39.4400,70,96,162558
1.7498,0.3763,39.6000,70,96,162562
1.7644,0.3763,39.5100,70,96,162566
1.7253,0.3715,39.6400,70,96,162569
1.7351,0.3715,39.6000,70,96,162572
1.7546,0.3812,39.6000,70,96,162576
1.7302,0.3812,39.6000,70,96,162579
1.7546,0.3812,39.5100,70,96,162582
1.7302,0.3715,39.9300,70,96,162585
1.7400,0.3470,39.6400,70,96,162589
1.7449,0.3763,39.6000,70,96,162592
1.7351,0.4008,39.6000,70,96,162595
1.7791,0.3763,39.4100,70,96,162599
1.7400,0.3715,39.6000,70,96,162603
1.7498,0.3666,39.6400,70,96,162606
1.7644,0.3812,39.5400,70,96,162610
1.7449,0.3715,39.6000,70,96,162613
1.7937,0.3861,39.3500,70,96,162616
1.7986,0.3861,39.5100,70,96,162620
1.7546,0.3715,39.6000,70,96,162623
1.7595,0.3763,39.5700,70,96,162626
1.7546,0.3763,39.6400,70,96,162629
1.8035,0.3910,39.4100,70,96,162633
1.7595,0.3812,39.5700,70,96,162636
1.7546,0.3666,39.5700,70,96,162639
1.7449,0.3763,39.6000,70,96,162643
1.7546,0.3715,39.6400,70,96,162647
1.8231,0.3861,39.4400,70,96,162650
1.7546,0.3861,39.3500,70,96,162654
1.7791,0.3763,39.5400,70,96,162657
1.7498,0.3715,39.5700,70,96,162660
1.7498,0.3715,39.6700,70,96,162664
1.7693,0.3812,39.5700,70,96,162667
1.7595,0.3715,39.7000,70,96,162670
1.7791,0.3910,39.5100,70,96,162674
1.7498,0.3763,39.6000,70,96,162677
1.7595,0.3666,39.6400,70,96,162680
1.7742,0.3812,39.5100,70,96,162683
1.7546,0.3763,39.6400,70,96,162688
1.7840,0.3812,39.4100,70,96,162691
1.7595,0.3666,39.5100,70,96,162694
1.7546,0.3715,39.6000,70,96,162698
1.7693,0.3763,39.5700,70,96,162701
1.7595,0.3715,39.6400,70,96,162704
1.8035,0.3861,39.3500,70,96,162708
1.7742,0.3763,39.5400,70,96,162711
1.7693,0.3715,39.6400,70,96,162714
1.7644,0.3763,39.6400,70,96,162718
1.7644,0.3715,39.6700,70,96,162721
1.8133,0.3959,39.4100,70,96,162724
1.7644,0.3763,39.5700,70,96,162728
1.7644,0.3763,39.5100,70,96,162732
1.7644,0.3763,39.6400,70,96,162735
1.7546,0.3763,39.6000,70,96,162739
1.7937,0.3861,39.5400,70,96,162742
1.7742,0.3812,39.6000,70,96,162745
1.7889,0.3763,39.4800,70,96,162748
1.7693,0.3715,39.6000,70,96,162752
1.7693,0.3715,39.6400,70,96,162755
1.7986,0.3666,39.5400,70,96,162758
1.7693,0.3763,39.6700,70,96,162762
1.7986,0.3715,39.5100,70,96,162765
1.7693,0.3715,39.6700,70,96,162768
1.7742,0.3715,39.6400,70,96,162772
1.7889,0.3812,39.5100,70,96,162776
1.7693,0.3763,39.6000,70,96,162779
1.8133,0.3812,39.4100,70,96,162783
1.8280,0.3910,39.3500,70,97,162787
1.7889,0.3763,39.5700,70,97,162791
1.7840,0.3715,39.5400,70,97,162794
1.7840,0.3763,39.6000,70,97,162797
1.7791,0.3715,39.7000,70,97,162801
1.8231,0.3812,39.4800,70,97,162804
1.7889,0.3812,39.5700,70,97,162807
1.7889,0.3959,39.4800,70,97,162810
1.7742,0.3763,39.7300,70,97,162814
1.7742,0.3812,39.6000,70,97,162818
1.8084,0.3861,39.4400,70,97,162821
1.7986,0.3470,39.6000,70,97,162825
1.8377,0.3812,39.4800,70,97,162828
1.8328,0.3812,39.6400,70,97,162831
1.8573,0.3715,39.6400,70,97,162835
1.8964,0.3812,39.5100,70,97,162838
1.8866,0.3715,39.6400,70,97,162841
1.9159,0.3666,39.4800,70,97,162845
1.9013,0.3763,39.5700,70,97,162848
1.9062,0.3715,39.6400,70,97,162851
1.9110,0.3812,39.5400,70,97,162855
1.8915,0.3763,39.6000,70,97,162859
1.9257,0.3812,39.3800,70,97,162862
1.8768,0.3715,39.7000,70,97,162865
1.8768,0.3715,39.6400,70,97,162869
1.8671,0.3812,39.6000,70,97,162872
1.8426,0.3715,39.6400,70,97,162875
1.8964,0.4008,39.3800,70,97,162879
1.8231,0.3763,39.6400,70,97,162882
1.7986,0.3763,39.5700,70,97,162885
1.7889,0.3763,39.6400,70,97,162889
1.7742,0.3861,39.7000,70,97,162892
1.8084,0.3910,39.4400,70,97,162895
1.7644,0.3763,39.6000,70,97,162899
1.7595,0.3715,39.5100,70,97,162903
1.7449,0.3715,39.7000,70,97,162906
1.7449,0.3812,39.6400,70,97,162910
1.7742,0.3812,39.4100,70,97,162913
1.7498,0.3959,39.6000,70,97,162916
1.7742,0.3763,39.5100,70,97,162919
1.7449,0.3763,39.6000,70,97,162923
1.7498,0.3715,39.6400,70,97,162926
1.7644,0.3666,39.5400,70,97,162929
1.7546,0.3763,39.6000,70,97,162933
1.7791,0.3959,39.4400,70,97,162936
1.7546,0.3715,39.6700,70,97,162939
1.7546,0.3715,39.6400,70,97,162944
1.7742,0.3812,39.5400,70,97,162947
1.7595,0.3715,39.6000,70,97,162950
1.8084,0.3812,39.3800,70,97,162954
1.7937,0.3812,39.5700,70,97,162957
1.8035,0.3715,39.6000,70,97,162960
1.8377,0.3763,39.6000,70,97,162964
1.8964,0.3715,39.6000,70,97,162967
2.0772,0.3861,39.3500,70,97,162970
2.2239,0.3763,39.5700,70,97,162973
2.4731,0.3666,39.6000,70,97,162977
2.8006,0.3666,39.6000,70,97,162980
3.1329,0.3715,39.6400,70,97,162983
3.4897,0.4008,39.4100,70,97,162988
3.5630,0.3470,39.6400,70,97,162991
3.5582,0.3763,39.8600,70,97,162994
3.3529,0.3812,39.6400,70,97,162998
2.9863,0.3715,39.5400,70,97,163001
2.5513,0.3812,39.5400,70,97,163004
2.0577,0.3763,39.7000,70,97,163008
1.6764,0.3763,39.4800,70,97,163011
1.3734,0.3715,39.8300,70,97,163014
1.1926,0.3666,39.6400,70,97,163017
1.1193,0.3861,39.5400,70,97,163021
1.0606,0.3763,39.6000,70,97,163024
1.1046,0.3763,39.4800,70,97,163027
1.1388,0.3763,39.5700,70,97,163032
1.2170,0.3715,39.6400,70,97,163035
1.3050,0.3666,39.5700,70,97,163038
1.3832,0.3715,39.6400,70,97,163042
1.4761,0.3715,39.4100,70,97,163045
1.5200,0.3763,39.5100,70,97,163048
1.5591,0.3715,39.6000,70,97,163052
1.6031,0.3763,39.5700,70,97,163055
1.6227,0.3715,39.5400,70,97,163058
1.6862,0.3861,39.3800,70,97,163062
1.6618,0.3812,39.5700,70,97,163065
1.6813,0.3715,39.6400,70,97,163068
1.6862,0.3812,39.6000,70,97,163072
1.6862,0.3715,39.6700,70,97,163076
1.7449,0.3959,39.4100,70,97,163079
1.7204,0.3763,39.6000,70,97,163082
1.7253,0.3715,39.6400,70,97,163086
1.7302,0.3763,39.6400,70,97,163089
1.7400,0.3715,39.6000,70,97,163092
1.7889,0.3861,39.4400,70,97,163096
1.7595,0.3763,39.5400,70,97,163099
1.7791,0.3763,39.5100,70,97,163102
1.7644,0.3715,39.7300,70,97,163106
1.7742,0.3812,39.6000,70,97,163109
1.8035,0.3861,39.5700,70,97,163112
1.7840,0.3666,39.6400,70,97,163117
1.8182,0.3812,39.5100,70,97,163120
1.7889,0.3715,39.6400,70,97,163123
1.7986,0.3715,39.6700,70,97,163126
1.8133,0.3715,39.5700,70,97,163130
1.8035,0.3715,39.6000,70,97,163133
1.8426,0.3812,39.3500,70,97,163136
1.8231,0.3715,39.6400,70,97,163140
1.8280,0.3715,39.6000,70,97,163143
1.8475,0.3812,39.6000,70,97,163146
1.8377,0.3715,39.7000,70,97,163150
1.8964,0.3861,39.3800,70,97,163153
1.8622,0.3763,39.5400,70,97,163156
1.8768,0.3715,39.6400,70,97,163161
1.8573,0.3763,39.6400,70,97,163164
1.8475,0.3470,39.6000,70,97,163167
1.9110,0.3959,39.4100,70,97,163171
1.8719,0.3812,39.5700,70,97,163174
1.8671,0.3715,39.5700,70,97,163177
1.8719,0.3763,39.6400,70,97,163180
1.8719,0.3715,39.7300,70,97,163184
1.9208,0.3666,39.4400,70,97,163187
1.8964,0.3763,39.6400,70,97,163190
1.9599,0.3763,39.5100,70,97,163194
1.9062,0.3763,39.6400,70,97,163197
1.9110,0.3715,39.6400,70,97,163201
1.9257,0.3910,39.5400,70,97,163205
1.9208,0.3763,39.6400,70,97,163208
1.9550,0.3812,39.5400,70,97,163211
1.9306,0.3715,39.6000,70,97,163215
1.9501,0.3715,38.8100,70,97,163218
1.9990,0.3812,39.5400,70,97,163221
1.9648,0.3715,39.6000,70,97,163225
2.0039,0.3666,39.4400,70,97,163228
1.9941,0.3763,39.5100,70,97,163231
1.9795,0.3959,39.6000,70,97,163234
1.9990,0.3812,39.5700,70,97,163238
1.9844,0.3715,39.6400,70,97,163241
2.0381,0.3812,39.3800,70,97,163245
2.0088,0.3812,39.5700,70,97,163249
1.9941,0.3666,39.6000,70,97,163252
1.9990,0.3763,39.0300,70,97,163255
1.9941,0.3715,39.7000,70,97,163259
2.0577,0.3959,39.3800,70,97,163262
2.0088,0.3812,39.5700,70,97,163265
2.0235,0.3666,39.5700,70,97,163269
2.0088,0.3763,39.6400,70,97,163272
2.0039,0.3666,39.6400,70,97,163275
2.0283,0.3861,39.5100,70,97,163278
1.9844,0.3763,39.5700,70,97,163282
1.9697,0.3763,39.5100,70,97,163286
1.9404,0.3763,39.6000,70,97,163289
1.9159,0.3715,39.6400,70,97,163293
1.9208,0.4008,39.4800,70,97,163296
1.8524,0.3763,39.6400,70,97,163299
1.8573,0.3763,39.5400,70,97,163303
1.8133,0.3715,39.6000,70,97,163306
1.7889,0.3715,39.6400,70,97,163309
1.7889,0.3812,39.5400,70,97,163313
1.7449,0.3812,39.6400,70,97,163316
1.7449,0.3763,39.4400,70,97,163319
1.7009,0.3715,39.5700,70,97,163323
1.6813,0.3715,39.6400,70,97,163326
1.6813,0.4008,39.5700,70,97,163330
1.6716,0.3763,39.6400,70,97,163333
1.6960,0.3861,39.3800,70,97,163337
1.6520,0.3715,39.6400,70,97,163340
1.6569,0.3910,39.6400,70,97,163343
1.6960,0.3666,39.5700,70,97,163347
1.6569,0.3715,39.6000,70,97,163350
1.7155,0.3861,39.3800,70,97,163353
1.6960,0.3763,39.5100,70,97,163357
1.7107,0.3666,39.6000,70,97,163360
1.6960,0.3763,39.6000,70,97,163363
1.7107,0.3666,39.6400,70,97,163367
1.7595,0.3812,39.8600,70,97,163371
1.7400,0.3763,39.6000,70,97,163374
1.7449,0.3763,39.5400,70,97,163377
1.7400,0.3715,39.6400,70,97,163381
1.7644,0.3715,39.6400,70,97,163384
1.7840,0.3812,39.5100,70,97,163387
1.7937,0.3715,39.6000,70,97,163391
1.7986,0.3763,39.4400,70,97,163394
1.7742,0.3715,39.6400,70,97,163397
1.7937,0.3715,39.6000,70,97,163402
1.7986,0.3910,39.6000,70,97,163405
1.8280,0.3763,39.5400,70,97,163409
1.8084,0.3715,39.6000,70,97,163412
1.8866,0.3666,39.3500,70,97,163416
1.8377,0.3763,39.8000,70,97,163420
1.8182,0.3812,39.6400,70,97,163423
1.8231,0.3763,39.8600,70,97,163426
1.8475,0.3715,39.6000,70,97,163430
1.8719,0.3959,39.3800,70,97,163433
1.8280,0.3763,39.5700,70,97,163436
1.8231,0.3715,39.5700,70,97,163439
1.8231,0.3763,39.6400,70,97,163443
1.8231,0.3715,39.6000,70,97,163446
1.8573,0.3812,39.4800,70,97,163449
1.8231,0.3763,39.6000,70,97,163453
1.8377,0.3763,39.6000,70,97,163457
1.8231,0.3666,39.5700,70,97,163460
1.8182,0.3715,39.6700,70,97,163464
1.8426,0.3812,39.5700,70,97,163467
1.8231,0.3763,39.6000,70,97,163470
1.8475,0.3666,39.5100,70,97,163474
1.8182,0.3812,39.6000,70,97,163477
1.8231,0.3715,39.6400,70,97,163480
1.8475,0.3861,39.4800,70,97,163484
1.8231,0.3715,39.6000,70,97,163487
1.8426,0.3763,39.4800,70,97,163490
1.8231,0.3763,39.5100,70,97,163494
1.8133,0.3812,39.7000,70,97,163497
1.8280,0.3812,39.5400,70,97,163501
1.8084,0.3715,39.6400,70,97,163504
1.8573,0.3812,39.3800,70,97,163508
1.8280,0.3715,39.5400,70,97,163511
1.8133,0.3715,39.6400,70,97,163514
1.8231,0.3666,39.6000,70,97,163518
1.8133,0.3715,39.0000,70,97,163521
1.8622,0.4057,39.3800,70,97,163524
1.8182,0.3763,39.5700,70,97,163528
1.8231,0.3715,39.6000,70,97,163531
1.8231,0.3715,39.6000,70,97,163534
1.8231,0.3715,39.6400,70,97,163538
1.8622,0.3861,39.5400,70,97,163542
1.8377,0.3812,39.5700,70,97,163545
1.8475,0.3763,39.5400,70,97,163549
1.8377,0.3715,39.6000,70,97,163552
1.8328,0.3715,39.7300,70,97,163555
1.8719,0.3812,39.5100,70,97,163558
1.8426,0.3715,39.6700,70,97,163562
1.8768,0.3812,39.5100,70,97,163565
1.8475,0.3666,39.6400,70,97,163568
1.8524,0.3666,39.6000,70,97,163572
1.8719,0.3763,39.4100,70,97,163575
1.8475,0.3715,39.5700,70,97,163578
1.8817,0.3763,39.6400,70,97,163582
1.8573,0.3470,39.5400,70,97,163586
1.8475,0.3715,39.7000,70,97,163589
1.8622,0.3715,39.5700,70,97,163593
1.8622,0.3715,39.6000,70,97,163596
1.9208,0.4008,39.3800,70,97,163599
1.9013,0.3715,39.6000,70,97,163603
1.9208,0.3715,39.6400,70,97,163606
1.9453,0.3470,39.5700,70,97,163609
1.9501,0.3910,39.6000,70,97,163612
2.0235,0.3959,39.3800,70,97,163616
1.9795,0.3763,39.5700,70,97,163619
1.9648,0.3715,39.6000,70,97,163622
1.9648,0.3763,39.7300,70,97,163627
1.9599,0.3715,39.6400,70,97,163630
1.9941,0.3861,39.5400,70,97,163633
1.9550,0.3763,39.5700,70,97,163637
1.9550,0.3763,39.7700,70,97,163640
1.9550,0.3715,39.6000,70,97,163643
1.9062,0.3715,39.6400,70,97,163647
1.9159,0.3812,39.4800,70,97,163650
1.8768,0.3715,39.6000,70,97,163653
1.8866,0.4106,39.5400,70,97,163656
1.8524,0.3666,39.6400,70,97,163660
1.8377,0.3715,39.6400,70,97,163663
1.8377,0.3763,39.5700,70,97,163666
1.8231,0.3861,39.6400,70,97,163671
1.8426,0.3763,39.4400,70,97,163674
1.8182,0.3715,39.6000,70,97,163677
1.8231,0.3666,39.6400,70,97,163681
1.8622,0.3812,39.5700,70,97,163684
1.8231,0.3715,39.6400,70,97,163687
1.8719,0.3812,39.3500,70,97,163691
1.8524,0.4008,39.5700,70,97,163694
1.8426,0.3715,39.6400,70,97,163697
1.8475,0.3763,39.6000,70,97,163701
1.8377,0.3715,39.6400,70,97,163704
1.8964,0.3959,39.3800,70,97,163707
1.8524,0.3763,39.5700,70,97,163712
1.8524,0.3715,39.6400,70,97,163715
1.8573,0.3715,39.6000,70,97,163718
1.8573,0.3715,39.6700,70,97,163721
1.9062,0.3812,39.4800,70,97,163725
1.8768,0.3715,39.6000,70,97,163728
1.9062,0.3812,39.5100,70,97,163731
1.9013,0.3763,39.6400,70,97,163735
1.9501,0.3715,39.6700,70,97,163738
2.0674,0.3763,39.5100,70,97,163741
2.2092,0.3715,39.6000,70,97,163745
2.4780,0.3812,39.5100,70,97,163748
2.7468,0.4057,39.6400,70,97,163751
3.0938,0.3666,39.6400,70,97,163756
3.4555,0.3812,39.6700,70,97,163759
3.6266,0.3715,39.6400,70,97,163762
3.7341,0.3763,39.4400,70,97,163766
3.6217,0.3666,39.5400,70,97,163769
3.2796,0.3715,39.6000,70,97,163772
2.8495,0.3812,39.6000,70,97,163775
2.3363,0.3715,39.6400,70,97,163779
1.9404,0.3763,39.3800,70,97,163782
1.5591,0.3763,39.5700,70,97,163785
1.3196,0.3812,39.6400,70,97,163789
1.1926,0.3763,39.6000,70,97,163792
1.1290,0.3715,39.5700,70,97,163795
1.1486,0.3910,39.3800,70,97,163800
1.1584,0.3715,39.6400,70,97,163803
1.2268,0.3715,39.6000,70,97,163806
1.3099,0.3763,39.7000,70,97,163810
1.4223,0.3666,39.6000,70,97,163813
1.5054,0.3861,39.5400,70,97,163816
1.5445,0.3910,39.5400,70,97,163819
1.5982,0.3666,39.5400,70,97,163823
1.6276,0.3812,39.6400,70,97,163826
1.6618,0.3715,39.6000,70,97,163829
1.7107,0.3812,39.4800,70,97,163833
1.6960,0.3763,39.6000,70,97,163836
1.7351,0.3763,39.4800,70,97,163840
1.7498,0.3763,39.6400,70,97,163844
1.7351,0.3715,39.6400,70,97,163847
1.7742,0.3666,39.5400,70,97,163850
1.7595,0.3715,39.6700,70,97,163854
1.7937,0.3763,39.4800,70,97,163857
1.7742,0.3715,39.6000,70,97,163860
1.8084,0.3715,39.6400,70,97,163864
1.8035,0.3763,39.6000,70,97,163867
1.8035,0.3861,39.6000,70,97,163870
1.8524,0.3666,39.4400,70,97,163873
1.8182,0.3715,39.6000,70,97,163877
1.8328,0.3666,39.6400,70,97,163880
1.8475,0.3763,39.6000,70,97,163884
1.8377,0.3715,39.6400,70,97,163888
1.8915,0.3861,39.3500,70,97,163891
1.8671,0.3763,39.5700,70,97,163894
1.8573,0.3666,39.6700,70,97,163898
1.8671,0.3715,39.7300,70,97,163901
1.8671,0.3715,39.6400,70,97,163904
1.9257,0.3861,39.4100,70,97,163908
1.8915,0.3763,39.5700,70,97,163911
1.8964,0.3715,38.9600,70,97,163914
1.8866,0.3812,39.7000,70,97,163918
1.8915,0.3715,39.6400,70,97,163921
1.9257,0.3763,39.4800,70,97,163924
1.8964,0.3715,39.6700,70,97,163928
1.9208,0.3812,39.5700,70,97,163932
1.9013,0.3715,39.6400,70,97,163935
1.9110,0.3715,39.6400,70,97,163938
1.9257,0.3763,39.6400,70,97,163942
1.9208,0.3763,39.6000,70,97,163945
1.9501,0.3763,39.5100,70,97,163948
1.9208,0.3715,39.7000,70,97,163952
1.9355,0.3715,39.6400,70,97,163955
1.9599,0.3861,39.5400,70,97,163958
1.9501,0.3715,39.3500,70,97,163962
2.0088,0.3861,39.4100,70,97,163965
1.9795,0.3763,39.5400,70,97,163969
1.9746,0.3666,39.6400,70,97,163973
1.9941,0.3763,39.4800,70,97,163976
1.9941,0.3715,39.6000,70,97,163979
2.0626,0.3861,39.3200,70,97,163982
2.0235,0.4154,39.5700,70,97,163986
2.0235,0.3715,39.6000,70,97,163989
2.0283,0.3715,39.6000,70,97,163992
2.0283,0.3715,39.6000,70,97,163996
2.0919,0.3910,39.4400,70,97,163999
2.0430,0.3715,39.5700,70,97,164002
2.0528,0.3715,39.5700,70,97,164006
2.0479,0.3715,39.6400,70,97,164009
2.0479,0.3959,39.6400,70,97,164015
2.0528,0.3715,39.6000,70,97,164018
2.0919,0.3812,39.6000,70,97,164021
2.0577,0.3715,39.6000,70,97,164025
2.0870,0.3715,39.4400,70,97,164028
2.0528,0.3715,39.6700,70,97,164031
2.0381,0.3666,39.6400,70,97,164034
2.0381,0.3763,39.5400,70,97,164038
2.0039,0.3715,39.6000,70,97,164041
2.0186,0.4106,39.3800,70,97,164044
1.9648,0.3763,39.5400,70,97,164048
1.9306,0.3715,39.7300,70,97,164051
1.9159,0.3763,39.6000,70,97,164055
1.8671,0.3715,39.6400,70,97,164059
1.8817,0.4106,39.3800,70,97,164062
1.8084,0.3715,39.5400,70,97,164065
1.7791,0.3715,39.7000,70,97,164069
1.7546,0.3763,39.6000,70,97,164072
1.7449,0.3763,39.7000,70,97,164075
1.7449,0.3910,39.4400,70,97,164078
1.7107,0.3812,39.5100,70,97,164082
1.6911,0.3715,39.5700,70,97,164085
1.6764,0.3715,39.6400,70,97,164088
1.6764,0.3715,39.6400,70,97,164092
1.7058,0.3812,39.4400,70,97,164096
1.6813,0.3715,39.6400,70,97,164099
1.6911,0.3763,39.5100,70,97,164103
1.6813,0.3470,39.6000,70,97,164106
1.6764,0.3715,39.7300,70,97,164109
1.7058,0.3861,39.5100,70,97,164113
1.6862,0.3715,39.6700,70,97,164116
1.7204,0.3763,39.5100,70,97,164119
1.7058,0.3666,39.6000,70,97,164122
1.7155,0.3715,39.5700,70,97,164126
1.7302,0.3763,39.5700,70,97,164129
1.7351,0.3715,39.6000,70,97,164132
1.7693,0.3910,39.4100,70,97,164136
1.7546,0.3715,38.9300,70,97,164140
1.7937,0.3715,39.6400,70,97,164143
1.7937,0.3812,39.5700,70,97,164147
1.7742,0.3666,39.6400,70,97,164150
1.8280,0.3812,39.3800,70,97,164153
1.8133,0.3763,39.5400,70,97,164157
1.7986,0.3715,39.6400,70,97,164160
1.8133,0.3812,39.6000,70,97,164163
1.8133,0.3666,39.6700,70,97,164166
1.8719,0.3959,38.8100,70,97,164170
1.8377,0.3763,39.5700,70,97,164173
1.8280,0.3715,39.5700,70,97,164176
1.8280,0.3666,39.6000,70,97,164180
1.8328,0.3715,39.6400,70,97,164184
1.8719,0.3861,39.5700,70,97,164187
1.8475,0.3715,39.6000,70,97,164191
1.8475,0.3715,39.6000,70,97,164194
1.8328,0.3715,39.6000,70,97,164197
1.8328,0.3715,39.7000,70,97,164201
1.8524,0.3861,39.5700,70,97,164204
1.8377,0.3763,39.6000,70,97,164207
1.8524,0.3763,39.5400,70,97,164210
1.8182,0.3666,39.6000,70,97,164214
1.8231,0.3763,39.6400,70,97,164217
1.8524,0.3910,39.5100,70,97,164220
1.8280,0.3715,39.5400,70,97,164225
1.8475,0.3812,39.4800,70,97,164228
1.8231,0.3715,39.5700,70,97,164231
1.8231,0.3812,39.6400,70,97,164235
1.8377,0.3763,39.6400,70,97,164238
1.8231,0.3812,39.6000,70,97,164241
1.8573,0.3812,39.4100,70,97,164245
1.8328,0.3763,39.5400,70,97,164248
1.8182,0.3470,39.6400,70,97,164251
1.8280,0.3763,39.7300,70,97,164254
1.8182,0.3715,39.6400,70,97,164258
1.8671,0.3861,39.3800,70,97,164261
1.8182,0.3715,39.5400,70,97,164264
1.8182,0.3666,39.4100,70,97,164269
1.8182,0.3666,39.6000,70,97,164272
1.8133,0.3666,39.6000,70,97,164275
1.8671,0.3861,39.4400,70,97,164279
1.8280,0.3763,39.5700,70,97,164282
1.8475,0.3715,39.5400,70,97,164285
1.8133,0.3959,39.6000,70,97,164289
1.8084,0.3715,39.6000,70,97,164292
1.8475,0.3812,39.4400,70,97,164295
1.8182,0.3715,39.6400,70,97,164299
1.8377,0.3812,39.4800,70,97,164302
1.8182,0.3715,39.6000,70,97,164305
1.8182,0.3715,39.6700,70,97,164310
1.8426,0.3812,39.5400,70,97,164313
1.8182,0.3715,39.6400,70,97,164316
1.8475,0.3763,39.5100,70,97,164319
1.8182,0.3715,39.5700,70,97,164323
1.8231,0.3666,39.6400,70,97,164326
1.8231,0.3763,39.5400,70,97,164329
1.8084,0.3715,39.6000,70,97,164333
1.8524,0.3812,39.5700,70,97,164336
1.8182,0.3470,39.6400,70,97,164339
1.8231,0.3715,39.6400,70,97,164343
1.8426,0.3763,39.5700,70,97,164346
1.8280,0.3715,39.4800,70,97,164349
1.9159,0.3861,39.4400,70,97,164354
1.8524,0.3763,39.5400,70,97,164357
1.8377,0.3861,39.6400,70,97,164360
1.8426,0.3715,39.5700,70,97,164364
1.8426,0.3715,39.6000,70,97,164367
1.8964,0.3861,39.4400,70,97,164370
1.8475,0.3666,39.5700,70,97,164373
1.8524,0.3715,39.6000,70,97,164377
1.8719,0.3715,39.6400,70,97,164380
1.8426,0.3715,39.5700,70,97,164383
1.8671,0.3812,39.4400,70,97,164387
1.8475,0.3763,39.6000,70,97,164390
1.8671,0.3812,39.5100,70,97,164393
1.8426,0.3715,39.8000,70,97,164398
1.8377,0.3715,39.6400,70,97,164401
1.8524,0.3763,39.5400,70,97,164404
1.8719,0.3666,39.6000,70,97,164408
1.8719,0.3812,39.5100,70,97,164411
1.8377,0.3715,39.6400,70,97,164414
1.8377,0.3715,39.5100,70,97,164418
1.8622,0.3763,39.4400,70,97,164421
1.8328,0.3861,39.6000,70,97,164424
1.8671,0.3812,39.4100,70,97,164427
1.8524,0.3763,39.5400,70,97,164431
1.8475,0.3763,39.6000,70,97,164434
1.8719,0.3763,39.6400,70,97,164438
1.8817,0.3763,39.6000,70,97,164442
1.9550,0.3861,39.3500,70,97,164445
1.9355,0.3715,39.5700,70,97,164448
1.9453,0.3666,39.6000,70,97,164452
1.9501,0.3910,39.6400,70,97,164455
1.9599,0.3715,39.6700,70,97,164458
2.0039,0.3861,39.4400,70,97,164462
1.9550,0.3666,39.6000,70,97,164465
1.9550,0.3715,39.6000,70,97,164468
1.9404,0.3715,39.5700,70,97,164471
1.9257,0.3666,39.6000,70,97,164475
1.9501,0.3861,39.4100,70,97,164478
1.9159,0.3715,39.6000,70,97,164482
1.9159,0.3763,39.5100,70,97,164486
1.9110,0.3666,39.7000,70,97,164489
1.8671,0.3470,39.6400,70,97,164492
1.8817,0.3861,39.5700,70,97,164496
1.8475,0.3715,39.6400,70,97,164499
1.8622,0.3861,39.5100,70,97,164502
1.8231,0.3666,39.5700,70,97,164506
1.8182,0.3715,39.6000,70,97,164509
1.8280,0.3763,39.5400,70,97,164512
1.8084,0.3812,39.6400,70,97,164516
1.8328,0.3763,39.4400,70,97,164519
1.8084,0.3715,39.4800,70,97,164523
1.8035,0.3763,39.6400,70,97,164526
1.8133,0.3763,39.6000,70,97,164530
1.8084,0.3715,39.6400,70,97,164533
1.8622,0.3812,39.3500,70,97,164536
1.8084,0.3715,39.6000,70,97,164540
1.8182,0.3715,39.6400,70,97,164543
1.8231,0.3763,39.5700,70,97,164546
1.8182,0.3715,39.6400,70,97,164550
1.8719,0.3861,39.3800,70,97,164553
1.8377,0.3763,39.5700,70,97,164556
1.8328,0.3666,39.5700,70,97,164560
1.8377,0.3715,39.6400,70,97,164563
1.8475,0.3666,39.6000,70,97,164567
1.9110,0.3812,39.6000,70,97,164571
1.9062,0.3666,39.5700,70,97,164574
1.9941,0.3763,39.5400,70,97,164577
2.1017,0.3715,39.7000,70,97,164580
2.3021,0.3715,39.6400,70,97,164584
2.6246,0.3861,39.5700,70,97,164587
2.9277,0.3666,39.6400,70,97,164590
3.3187,0.3812,39.9300,70,97,164594
3.5484,0.3666,39.6700,70,97,164597
3.6950,0.3715,39.7300,70,97,164600
3.7097,0.3715,39.5700,70,97,164604
3.4457,0.3715,39.7000,70,97,164608
3.0841,0.3763,39.4800,70,97,164611
2.5415,0.3715,39.7000,70,97,164615
2.0577,0.3666,39.6400,70,97,164618
1.6764,0.3861,39.5700,70,97,164621
1.1388,0.3763,39.5700,70,97,164626
1.2121,0.3861,39.7000,70,97,164629
1.3294,0.3910,39.4400,70,97,164632
1.3783,0.3763,39.5700,70,97,164636
1.4516,0.3715,39.5700,70,97,164639
1.5054,0.4057,39.6400,70,97,164642
1.5591,0.3666,39.6400,70,97,164646
1.6080,0.3812,39.6000,70,97,164649
1.6080,0.3666,39.6000,70,97,164653
1.6422,0.3666,39.5100,70,97,164657
1.6373,0.3715,39.7300,70,97,164660
1.6618,0.3715,39.6400,70,97,164663
1.6911,0.3715,39.5400,70,97,164667
1.6911,0.3715,39.6400,70,97,164670
1.7302,0.3812,39.5100,70,97,164673
1.7155,0.3715,39.7000,70,97,164677
1.7253,0.3959,39.6400,70,97,164680
1.7546,0.3812,39.5400,70,97,164683
1.7351,0.3715,39.6400,70,97,164686
1.7693,0.3763,39.4400,70,97,164690
1.7546,0.3812,39.5100,70,97,164694
1.7595,0.3715,39.6000,70,97,164697
1.7791,0.3666,39.5700,70,97,164701
1.7644,0.3715,39.8300,70,97,164704
1.8133,0.3910,39.3800,70,97,164707
1.7840,0.3763,39.7000,70,97,164711
1.7791,0.3812,39.6400,70,97,164714
1.7889,0.3715,39.7700,70,97,164717
1.7889,0.3812,39.6400,70,97,164721
1.8426,0.3910,39.4100,70,97,164724
1.7937,0.3763,39.6000,70,97,164727
1.8084,0.3715,39.5700,70,97,164731
1.8133,0.3715,39.6000,70,97,164734
1.8133,0.3715,39.6400,70,97,164738
1.8475,0.3861,39.5100,70,97,164741
1.8231,0.3763,39.5700,70,97,164745
1.8426,0.3715,39.4800,70,97,164748
1.8280,0.3715,39.8600,70,97,164751
1.8328,0.3715,39.6700,70,97,164755
1.8719,0.3861,39.4800,70,97,164758
1.8426,0.3715,39.6000,70,97,164761
1.8817,0.3763,39.9300,70,97,164765
1.8475,0.3666,39.6000,70,97,164768
1.8622,0.3666,39.5400,70,97,164771
1.8915,0.3763,39.5700,70,97,164775
1.8817,0.3763,39.6000,70,97,164779
1.9550,0.3763,39.4800,70,97,164782
1.9013,0.3715,39.6000,70,97,164786
1.9013,0.3715,39.6400,70,97,164789
1.9208,0.3763,39.5700,70,97,164792
1.9159,0.3763,39.5100,70,97,164795
1.9892,0.3812,39.4100,70,97,164799
1.9257,0.3715,39.6400,70,97,164802
1.9355,0.3666,39.6400,70,97,164805
1.9501,0.3763,39.6700,70,97,164809
1.9550,0.3715,39.6400,70,97,164812
2.0235,0.3861,39.4100,70,97,164815
1.9941,0.3763,39.5700,70,97,164819
1.9892,0.3715,39.5700,70,97,164823
1.9892,0.3715,39.6700,70,97,164826
1.9892,0.3715,39.6400,70,97,164830
2.0381,0.3812,39.5100,70,97,164833
2.0283,0.3763,39.6000,70,97,164836
2.0283,0.3763,39.5100,70,97,164840
2.0039,0.3715,39.6700,70,97,164843
2.0039,0.3812,39.6400,70,97,164846
2.0381,0.3812,39.5100,70,97,164849
2.0186,0.3715,39.6000,70,97,164853
2.0479,0.3763,39.5100,70,97,164856
2.0186,0.3715,39.6400,70,97,164859
2.0137,0.3812,39.6400,70,97,164864
2.0186,0.3763,39.5700,70,97,164867
1.9990,0.3715,39.5400,70,97,164870
2.0088,0.3812,39.4800,70,97,164874
1.9697,0.3715,39.6400,70,97,164877
1.9453,0.3715,39.6400,70,97,164880
1.9550,0.3812,39.5100,70,97,164883
1.9013,0.3715,39.6000,70,97,164887
1.9159,0.3812,39.4100,70,97,164890
1.8573,0.3763,39.5100,70,97,164893
1.8084,0.3666,39.6000,70,97,164897
1.7840,0.3715,39.5700,70,97,164900
1.7498,0.3715,39.6000,70,97,164903
1.7644,0.3861,39.3500,70,97,164908
1.7058,0.3763,39.5700,70,97,164911
1.6764,0.3666,39.5700,70,97,164914
1.6813,0.3666,39.6000,70,97,164918
1.6422,0.3715,39.3200,70,97,164921
1.6960,0.3861,39.4800,70,97,164924
1.6227,0.3763,39.4400,70,97,164928
1.6178,0.3715,39.5400,70,97,164931
1.6080,0.3715,39.7300,70,97,164934
1.6325,0.3715,39.6400,70,97,164937
1.6325,0.3812,39.5700,70,97,164941
1.6325,0.3763,39.6000,70,97,164944
1.6373,0.3763,39.4800,70,97,164947
1.6325,0.3715,39.6400,70,97,164952
1.6422,0.3715,39.6400,70,97,164955
1.6716,0.3812,39.3800,70,97,164958
1.6618,0.3715,39.6400,70,97,164962
1.6911,0.3763,39.4800,70,97,164965
1.6862,0.3715,39.5400,70,97,164968
1.6911,0.3812,39.6400,70,97,164972
1.7204,0.3812,39.5400,70,97,164975
1.7107,0.3715,39.6400,70,97,164978
1.7595,0.3812,39.4100,70,97,164982
1.7351,0.3763,39.5100,70,97,164985
1.7595,0.3666,39.6400,70,97,164988
1.7498,0.3763,39.6000,70,97,164993
1.7498,0.3715,39.6400,70,97,164996
1.8084,0.3861,39.4400,70,97,164999
1.7791,0.3715,39.6000,70,97,165002
1.7742,0.3666,39.5400,70,97,165006
1.7791,0.4106,39.6000,70,97,165009
1.7791,0.3715,39.6400,70,97,165012
1.8280,0.3861,39.2500,70,97,165016
1.7937,0.3763,39.5700,70,97,165019
1.7986,0.3910,39.5100,70,97,165022
1.7889,0.3715,39.6000,70,97,165026
1.7937,0.3666,39.6000,70,97,165029
1.8231,0.3812,39.4800,70,97,165032
1.8035,0.3763,39.6000,70,97,165037
1.8231,0.3763,39.4800,70,97,165040
1.7937,0.3715,39.8000,70,97,165043
1.7986,0.3617,39.7000,70,97,165046
1.8231,0.3763,39.5100,70,97,165050
1.7937,0.3812,39.7000,70,97,165053
1.8182,0.3715,39.5400,70,97,165056
1.7937,0.3715,39.5400,70,97,165060
1.7937,0.3715,39.6400,70,97,165063
1.7986,0.4008,39.5700,70,97,165066
1.7889,0.3715,39.6400,70,97,165070
1.8133,0.3812,39.4100,70,97,165073
1.7889,0.3715,39.6400,70,97,165076
1.7937,0.3715,39.6000,70,97,165081
1.8084,0.3763,39.5700,70,97,165084
1.7840,0.3715,39.6700,70,97,165087
1.8377,0.3910,39.3500,70,97,165091
1.7986,0.3763,39.6400,70,97,165094
1.7840,0.3715,39.6000,70,97,165097
1.7840,0.3763,39.6000,70,97,165100
1.8133,0.3715,39.6400,70,97,165104
1.8328,0.3861,39.4100,70,97,165107
1.7937,0.3763,39.6400,70,97,165110
1.7889,0.3715,39.5100,70,97,165114
1.7791,0.3715,39.6400,70,97,165117
1.7840,0.3715,39.6400,70,97,165121
1.8084,0.3812,39.5400,70,97,165125
1.7840,0.3715,39.5700,70,97,165128
1.8084,0.3812,39.4800,70,97,165131
1.7889,0.3715,39.6400,70,97,165135
1.7889,0.3715,39.6400,70,97,165138
1.8035,0.3812,39.5400,70,97,165141
1.7986,0.3763,39.6000,70,97,165145
1.8328,0.3715,39.5100,70,97,165148
1.8280,0.3470,39.6000,70,97,165151
1.8084,0.3715,39.6400,70,97,165154
1.8280,0.3812,39.5100,70,97,165158
1.8035,0.3715,39.7000,70,97,165161
1.8377,0.3812,39.4100,70,97,165165
1.8182,0.3763,39.5400,70,97,165169
1.8035,0.3763,39.5400,70,97,165172
1.8133,0.3763,39.5400,70,97,165175
1.8084,0.3715,39.6400,70,97,165179
1.8573,0.3910,39.3800,70,97,165182
1.8133,0.3715,39.6000,70,97,165185
1.8133,0.3666,39.5700,70,97,165189
1.8133,0.3715,39.6000,70,97,165192
1.8035,0.3715,39.6000,70,97,165195
1.8719,0.3910,39.4100,70,97,165199
1.8328,0.3666,39.6000,70,97,165202
1.8280,0.3715,39.5700,70,97,165206
1.8231,0.3715,39.6000,70,97,165209
1.8182,0.3715,39.8300,70,97,165213
1.8524,0.3763,39.5100,70,97,165216
1.8231,0.3715,39.6000,70,97,165219
1.8377,0.3812,39.5100,70,97,165223
1.8133,0.3715,39.4800,70,97,165226
1.8182,0.3715,39.6700,70,97,165229
1.8475,0.3861,39.4800,70,97,165233
1.8475,0.3812,39.5700,70,97,165237
1.8182,0.3715,39.6400,70,97,165241
1.8622,0.3812,39.4100,70,97,165244
1.8377,0.3763,39.5700,70,97,165248
1.8280,0.3715,39.6000,70,97,165252
1.8426,0.3666,39.6400,70,97,165255
1.8328,0.3715,39.6400,70,97,165258
1.8817,0.3763,39.3500,70,97,165262
1.8377,0.3715,39.6700,70,97,165265
1.8377,0.3617,39.7000,70,97,165268
1.8426,0.3715,39.6400,70,97,165271
1.8328,0.3715,39.7000,70,97,165275
1.8719,0.3861,39.4400,70,97,165278
1.8328,0.3763,39.5700,70,97,165281
1.8231,0.3715,39.5400,70,97,165285
1.8133,0.3861,39.6400,70,97,165288
1.8133,0.3715,39.6400,70,97,165292
1.8622,0.3910,39.4800,70,97,165296
1.8524,0.3715,39.7000,70,97,165299
1.8915,0.3861,39.4800,70,97,165302
1.8866,0.3715,39.6400,70,97,165306
1.9013,0.3666,39.6700,70,97,165309
1.9355,0.3763,39.5700,70,97,165312
1.9159,0.3715,39.6000,70,97,165316
1.9453,0.3763,39.5100,70,97,165319
1.9159,0.3666,39.6000,70,97,165322
1.9208,0.3715,39.6400,70,97,165325
1.9257,0.3763,39.5700,70,97,165329
1.9159,0.3715,39.6400,70,97,165332
1.9355,0.3812,39.4800,70,97,165336
1.8817,0.3666,39.6000,70,97,165340
1.8768,0.3715,39.7000,70,97,165343
1.8768,0.3763,39.6000,70,97,165346
1.8475,0.3715,39.6000,70,97,165350
1.8866,0.3666,39.3500,70,97,165353
1.8377,0.3763,39.4800,70,97,165356
1.8084,0.3715,39.6000,70,97,165360
1.7986,0.3715,39.6000,70,97,165363
1.7937,0.3470,39.6400,70,97,165366
1.8280,0.3861,39.4400,70,97,165370
1.7791,0.3763,39.5700,70,97,165373
1.7840,0.3715,39.5700,70,97,165377
1.7742,0.3715,39.6000,70,97,165380
1.7693,0.3715,39.6400,70,97,165384
1.8280,0.3666,39.5400,70,97,165387
1.7693,0.3715,39.7700,70,97,165390
1.7937,0.3861,39.4800,70,97,165394
1.7742,0.3715,39.6400,70,97,165397
1.7889,0.3666,39.6400,70,97,165400
1.7937,0.3763,39.4800,70,97,165404
1.7889,0.3715,39.6400,70,97,165407
1.8133,0.3715,39.0900,70,97,165410
1.7889,0.3715,39.6700,70,97,165414
1.7937,0.3715,39.6400,70,97,165417
1.8182,0.3812,39.5700,70,97,165421
1.8084,0.3715,39.6700,70,97,165425
1.8671,0.3763,39.4400,70,97,165428
1.8475,0.3763,39.5400,70,97,165431
1.8671,0.3715,39.6000,70,97,165434
1.9501,0.3763,39.6000,70,97,165438
2.0626,0.3715,39.6000,70,97,165441
2.3167,0.3763,39.3800,70,97,165444
2.5562,0.3763,39.4400,70,97,165448
2.8739,0.3715,39.6400,70,97,165451
3.2209,0.3715,39.6000,70,97,165454
3.4800,0.3715,39.6700,70,97,165458
3.7341,0.3959,39.4400,70,97,165462
3.5875,0.3861,39.5700,70,97,165465
3.3724,0.3666,39.5400,70,97,165469
2.9570,0.3715,39.6000,70,97,165472
2.4633,0.3715,39.6700,70,97,165475
2.0283,0.3812,39.8000,70,97,165478
1.6178,0.3959,39.6400,70,97,165482
1.3490,0.3763,39.5700,70,97,165485
1.1730,0.3715,39.6400,70,97,165488
1.0948,0.3715,39.6400,70,97,165492
1.0948,0.3959,39.5700,70,97,165495
1.1095,0.3715,39.6400,70,97,165498
1.1975,0.3861,39.5100,70,97,165502
1.2512,0.3666,39.6000,70,97,165506
1.3392,0.3715,39.6400,70,97,165509
1.4272,0.3763,39.6000,70,97,165513
1.4761,0.3763,39.6400,70,97,165516
1.5396,0.3763,39.4800,70,97,165519
1.5982,0.3666,39.5700,70,97,165523
1.5885,0.3715,39.5400,70,97,165526
1.6373,0.3763,39.6000,70,97,165529
1.6227,0.3715,39.6000,70,97,165532
1.6764,0.3910,39.3500,70,97,165536
1.6520,0.3715,39.6000,70,97,165539
1.6667,0.3666,39.6000,70,97,165542
1.6716,0.3715,39.6000,70,97,165547
1.6862,0.3715,39.6700,70,97,165550
1.7546,0.3910,39.4100,70,97,165553
1.7253,0.3763,39.6700,70,97,165557
1.7302,0.3812,39.5700,70,97,165560
1.7351,0.3715,39.6400,70,97,165563
1.7449,0.3470,39.6700,70,97,165567
1.7840,0.3812,39.4800,70,97,165570
1.7595,0.3715,39.6000,70,97,165573
1.7889,0.3763,39.6000,70,97,165577
1.7791,0.3715,39.6400,70,97,165580
1.7693,0.3715,39.7000,70,97,165583
1.8231,0.3666,39.5400,70,97,165586
