ecg,gsr,temp,hr,spo2,timest
1.9599,0.2981,37.1900,0,0,186797
1.9746,0.3128,37.1900,0,0,186800
1.9648,0.3079,37.2500,0,0,186803
1.9795,0.3128,37.0700,0,0,186807
1.9501,0.3079,37.2200,0,0,186810
1.9501,0.3128,37.2500,0,0,186813
1.9501,0.3128,37.2500,0,0,186816
1.9306,0.3079,37.2500,0,0,186819
1.9599,0.3128,37.1000,0,0,186823
1.9306,0.3128,37.2200,0,0,186826
1.9355,0.3177,37.2500,0,0,186829
1.9550,0.3128,37.1600,0,0,186832
1.9257,0.3079,37.2200,0,0,186835
1.9355,0.3128,37.1600,0,0,186840
1.9159,0.3079,37.2200,0,0,186843
1.9208,0.3079,37.2800,0,0,186846
1.9648,0.3226,36.9800,0,0,186849
1.9159,0.3079,37.2200,0,0,186852
1.9159,0.3030,37.1600,0,0,186856
1.9062,0.3177,37.2200,0,0,186859
1.9257,0.3079,37.2500,0,0,186862
1.9648,0.3226,36.9100,0,0,186865
1.9062,0.3079,37.2200,0,0,186868
1.9062,0.3079,37.2500,0,0,186872
1.9013,0.3079,37.2500,0,0,186875
1.8866,0.3079,37.1900,0,0,186878
1.8671,0.3079,37.3700,0,0,186882
1.8426,0.3079,37.2200,0,0,186885
1.8035,0.3079,37.2500,0,0,186889
1.7693,0.3030,37.2200,0,0,186892
1.7400,0.3030,37.2500,0,0,186895
1.7155,0.3079,37.2200,0,0,186898
1.6862,0.3030,37.2200,0,0,186901
1.6716,0.3079,37.2500,0,0,186904
1.6618,0.3079,37.1000,0,0,186908
1.6569,0.3079,37.2500,0,0,186911
1.6520,0.3079,37.2200,0,0,186914
1.6471,0.3079,37.1600,0,0,186917
1.6471,0.3079,37.2500,0,0,186920
1.6422,0.3030,37.2200,0,0,186925
1.6373,0.3226,37.3100,0,0,186928
1.6325,0.3177,37.2200,0,0,186931
1.6520,0.2884,37.2200,0,0,186934
1.6276,0.3079,37.2500,0,0,186937
1.6667,0.2981,37.2200,0,0,186941
1.6520,0.3079,37.1900,0,0,186944
1.6618,0.3030,37.2500,0,0,186947
1.6618,0.3079,37.2800,0,0,186950
1.6618,0.3079,37.2500,0,0,186953
1.6667,0.3079,37.2500,0,0,186957
1.6716,0.3079,37.3400,0,0,186960
1.6667,0.3079,37.2500,0,0,186963
1.6716,0.3079,37.2500,0,0,186967
1.6716,0.3079,37.1900,0,0,186970
1.6764,0.3079,37.2500,0,0,186974
1.6862,0.3177,37.1900,0,0,186977
1.6862,0.2981,37.2200,0,0,186980
1.7009,0.3079,37.3100,0,0,186983
1.6960,0.3079,37.2200,0,0,186986
1.7009,0.3030,37.2200,0,0,186990
1.7009,0.3030,37.1600,0,0,186993
1.7058,0.3079,37.2800,0,0,186996
1.7058,0.3128,37.4000,0,0,186999
1.7155,0.3030,37.2500,0,0,187002
1.7253,0.3079,37.1900,0,0,187006
1.7155,0.3030,37.4300,0,0,187010
1.7253,0.3079,37.2500,0,0,187013
1.7302,0.3079,37.0700,0,0,187016
1.7400,0.3275,37.2500,0,0,187019
1.7498,0.3079,37.2200,0,0,187023
1.7546,0.3324,37.2200,0,0,187026
1.7595,0.3079,37.2200,0,0,187029
1.7595,0.3079,37.2200,0,0,187032
1.7693,0.3128,37.2200,0,0,187035
1.7595,0.3128,37.2200,0,0,187038
1.7644,0.2981,37.2200,0,0,187042
1.7644,0.3079,37.2500,0,0,187045
1.7644,0.3079,37.2200,0,0,187048
1.7595,0.3079,37.2200,0,0,187052
1.7546,0.3079,37.2200,0,0,187055
1.7791,0.3030,37.2200,0,0,187060
1.7840,0.3030,37.2200,0,0,187063
1.7889,0.3030,37.2500,0,0,187066
1.7986,0.3079,37.2200,0,0,187070
1.8182,0.3079,37.2200,0,0,187073
1.8231,0.3030,37.2500,0,0,187076
1.8426,0.3079,37.2500,0,0,187079
1.8622,0.3079,37.3100,0,0,187082
1.8817,0.3079,37.1600,0,0,187086
1.8964,0.3079,37.2200,0,0,187089
1.9110,0.3079,37.2500,0,0,187092
1.9306,0.3177,37.2500,0,0,187096
1.9550,0.3226,37.2200,0,0,187099
1.9844,0.2981,37.2200,0,0,187103
2.0039,0.3324,37.2200,0,0,187106
2.0186,0.3177,37.2200,0,0,187109
2.0186,0.3079,37.2200,0,0,187112
2.0186,0.3372,37.2500,0,0,187115
2.0039,0.3079,37.1900,0,0,187119
1.9892,0.3079,37.3100,0,0,187122
1.9697,0.2981,37.2800,0,0,187125
1.9795,0.3128,37.1600,0,0,187128
1.9501,0.3079,37.2500,0,0,187131
1.9746,0.3128,37.1000,0,0,187136
1.9697,0.3079,37.2500,0,0,187139
1.9892,0.3079,37.2800,0,0,187142
2.0088,0.3079,37.2200,0,0,187145
1.9990,0.3079,37.2800,0,0,187148
1.9746,0.3079,37.2200,0,0,187151
1.9453,0.3079,37.2200,0,0,187155
1.9110,0.3079,37.3400,0,0,187158
1.8768,0.3079,37.3400,0,0,187161
1.8475,0.3079,37.3100,0,0,187164
1.8182,0.3079,37.2500,0,0,187167
1.7937,0.3421,37.1900,0,0,187171
1.7791,0.3079,37.2500,0,0,187174
1.7644,0.3079,37.2200,0,0,187177
1.7546,0.3030,37.2500,0,0,187181
1.7400,0.2933,37.2500,0,0,187184
1.7351,0.3079,37.2500,0,0,187188
1.7400,0.2981,37.2500,0,0,187191
1.7498,0.3079,37.2200,0,0,187194
1.7400,0.3079,37.2200,0,0,187197
1.7449,0.3079,37.2500,0,0,187200
1.6716,0.2884,37.2200,0,0,187204
1.6178,0.3079,37.2200,0,0,187207
1.5934,0.3128,37.2500,0,0,187210
1.6178,0.3079,37.3400,0,0,187213
1.6911,0.3079,37.2500,0,0,187216
1.8231,0.3079,37.1600,0,0,187220
2.0235,0.3079,37.2200,0,0,187224
2.2776,0.3079,36.4000,0,0,187227
2.5855,0.3079,37.1600,0,0,187230
2.9081,0.3128,37.2200,0,0,187233
3.2111,0.3275,37.4300,0,0,187237
3.4360,0.2933,37.2800,0,0,187240
3.4897,0.3226,37.2500,0,0,187243
3.3675,0.2981,37.2500,0,0,187246
3.0205,0.3079,37.2500,0,0,187249
2.6442,0.3030,37.2200,0,0,187253
2.2678,0.3079,37.2200,0,0,187256
1.9844,0.3079,37.2500,0,0,187259
1.7155,0.3079,37.2800,0,0,187262
1.5738,0.2884,37.2200,0,0,187266
1.4858,0.3079,37.2200,0,0,187270
1.4614,0.3128,37.2200,0,0,187273
1.4516,0.3079,37.2200,0,0,187276
1.4614,0.3128,37.2200,0,0,187279
1.4761,0.3079,37.1300,0,0,187282
1.4858,0.3128,37.2200,0,0,187286
1.4907,0.3128,37.2500,0,0,187289
1.5005,0.3128,37.2500,0,0,187292
1.5200,0.2884,37.2200,0,0,187295
1.5249,0.3079,37.2500,0,0,187298
1.5494,0.2981,37.2200,0,0,187302
1.5591,0.3079,37.2200,0,0,187305
1.5494,0.3079,37.2800,0,0,187309
1.5543,0.3079,37.2200,0,0,187312
1.5640,0.3079,37.2500,0,0,187315
1.5738,0.2884,37.2500,0,0,187318
1.5836,0.3079,37.2500,0,0,187322
1.5885,0.3079,37.2500,0,0,187325
1.6031,0.3079,37.2200,0,0,187328
1.6276,0.3079,37.2200,0,0,187331
1.6325,0.3079,37.2200,0,0,187334
1.6422,0.3079,37.2500,0,0,187338
1.6569,0.3079,37.2500,0,0,187341
1.6667,0.3079,37.2800,0,0,187344
1.6764,0.3079,37.1900,0,0,187347
1.6764,0.3030,37.3400,0,0,187351
1.6813,0.3079,37.3100,0,0,187355
1.6813,0.3324,37.2500,0,0,187358
1.6813,0.3079,37.2500,0,0,187361
1.7107,0.2981,37.2500,0,0,187364
1.6862,0.3079,37.3100,0,0,187367
1.6911,0.3079,37.2200,0,0,187371
1.7009,0.3079,37.2500,0,0,187374
1.7155,0.3079,37.2200,0,0,187377
1.7107,0.3079,37.2500,0,0,187380
1.7204,0.3079,37.1900,0,0,187383
1.7204,0.3079,37.2500,0,0,187387
1.7302,0.3079,37.2200,0,0,187390
1.7400,0.3079,37.2200,0,0,187394
1.7449,0.3079,37.2500,0,0,187397
1.7498,0.3079,37.2200,0,0,187400
1.7546,0.3079,37.2500,0,0,187404
1.7644,0.3079,37.2800,0,0,187407
1.7840,0.3128,37.1300,0,0,187410
1.7742,0.3079,37.1600,0,0,187413
1.8035,0.3079,37.3100,0,0,187416
1.8426,0.3128,37.2200,0,0,187420
1.8719,0.3128,37.2200,0,0,187423
1.8964,0.3030,37.2500,0,0,187426
1.9159,0.3128,37.2200,0,0,187429
1.9306,0.3079,37.2500,0,0,187432
1.9257,0.3079,37.2200,0,0,187437
1.9208,0.3079,37.2500,0,0,187440
1.9159,0.3079,37.2500,0,0,187443
1.9110,0.3079,37.2500,0,0,187446
1.9159,0.3079,37.2500,0,0,187449
1.9306,0.3079,37.2800,0,0,187452
1.9453,0.3079,37.2200,0,0,187456
1.9599,0.3079,37.2500,0,0,187459
1.9746,0.3079,37.2200,0,0,187462
1.9795,0.3079,37.2500,0,0,187465
1.9990,0.3079,37.2200,0,0,187468
2.0039,0.3079,37.4300,0,0,187472
2.0137,0.3079,37.2500,0,0,187475
2.0235,0.3079,37.2200,0,0,187479
2.0283,0.3030,37.2800,0,0,187482
2.0430,0.3079,37.2200,0,0,187485
2.0332,0.3079,37.2500,0,0,187489
2.0479,0.2981,37.2200,0,0,187492
2.0723,0.2884,37.2200,0,0,187495
2.0723,0.2884,37.2200,0,0,187498
2.0870,0.3079,37.2200,0,0,187501
2.0626,0.3030,37.2200,0,0,187505
2.0479,0.2981,37.2200,0,0,187508
2.0430,0.3079,37.2200,0,0,187511
2.0088,0.3079,37.1900,0,0,187514
1.9795,0.3030,37.2500,0,0,187517
1.9550,0.3030,37.2200,0,0,187521
1.9355,0.3079,37.4300,0,0,187525
1.9159,0.3079,37.4600,0,0,187528
1.8964,0.3226,37.2200,0,0,187531
1.8671,0.3030,37.2200,0,0,187534
1.8328,0.3177,37.2200,0,0,187537
1.7986,0.3030,37.2500,0,0,187541
1.7742,0.3079,37.2200,0,0,187544
1.7546,0.2981,37.2200,0,0,187547
1.7400,0.3079,37.2200,0,0,187550
1.7204,0.2981,37.2200,0,0,187553
1.7155,0.3079,37.2500,0,0,187557
1.7058,0.3079,37.1900,0,0,187560
1.6764,0.3079,37.2800,0,0,187564
1.6764,0.2884,37.2500,0,0,187567
1.6667,0.3079,37.2500,0,0,187570
1.6716,0.3079,37.2500,0,0,187574
1.6764,0.3079,37.2500,0,0,187577
1.6764,0.3079,37.2500,0,0,187580
1.6764,0.3030,37.3400,0,0,187583
1.6862,0.3079,37.2500,0,0,187586
1.7009,0.3128,37.2200,0,0,187590
1.7107,0.3079,37.3400,0,0,187593
1.7155,0.3079,37.2200,0,0,187596
1.7155,0.3079,37.2500,0,0,187599
1.7107,0.3128,37.2500,0,0,187602
1.7155,0.3079,37.1900,0,0,187607
1.7204,0.3079,37.2200,0,0,187610
1.7302,0.3519,37.2500,0,0,187613
1.7400,0.3324,37.2200,0,0,187616
1.7449,0.3079,37.2200,0,0,187619
1.7742,0.3079,37.2200,0,0,187623
1.7840,0.3079,37.2200,0,0,187626
1.7546,0.2981,37.2500,0,0,187629
1.7546,0.3079,37.2800,0,0,187632
1.7595,0.3079,37.2200,0,0,187635
1.7595,0.3079,37.2200,0,0,187638
1.7595,0.3079,37.2800,0,0,187642
1.7644,0.3079,37.2200,0,0,187645
1.7644,0.3079,37.2500,0,0,187649
1.7693,0.3079,37.2800,0,0,187652
1.7693,0.3079,37.2500,0,0,187655
1.7791,0.3079,37.3100,0,0,187659
1.7840,0.3030,37.2200,0,0,187662
1.7889,0.3079,37.2500,0,0,187665
1.7986,0.3079,37.1000,0,0,187668
1.8084,0.3079,37.2800,0,0,187671
1.8133,0.3079,37.2500,0,0,187675
1.8231,0.3079,37.2200,0,0,187678
1.8573,0.3030,37.1900,0,0,187682
1.8719,0.3030,37.2500,0,0,187686
1.9159,0.3226,37.0700,0,0,187689
1.8964,0.3030,37.2500,0,0,187693
1.9306,0.3079,37.2200,0,0,187696
1.9990,0.3177,37.1300,0,0,187699
1.9648,0.3079,37.2200,0,0,187703
1.9941,0.3128,37.1000,0,0,187706
1.9795,0.3079,37.3700,0,0,187709
1.9892,0.3079,37.3100,0,0,187712
2.0430,0.3226,37.0700,0,0,187715
1.9941,0.3079,37.1900,0,0,187719
1.9990,0.3030,37.1600,0,0,187722
2.0039,0.3079,37.0700,0,0,187725
2.0088,0.3030,37.2200,0,0,187728
2.0626,0.3177,36.9500,0,0,187731
2.0137,0.3079,37.2500,0,0,187735
2.0137,0.3079,37.2500,0,0,187739
2.0088,0.3079,37.2200,0,0,187742
1.9941,0.3079,37.3700,0,0,187745
2.0235,0.3079,37.0400,0,0,187748
1.9795,0.3079,37.2200,0,0,187751
1.9795,0.3079,37.2500,0,0,187755
1.9844,0.3079,37.1900,0,0,187758
1.9795,0.3079,37.3700,0,0,187761
2.0186,0.3079,37.2200,0,0,187764
1.9795,0.3079,37.2200,0,0,187767
1.9746,0.3079,37.4300,0,0,187771
1.9844,0.3079,37.1300,0,0,187774
1.9550,0.3079,37.2200,0,0,187778
1.9746,0.3079,37.0400,0,0,187781
1.9453,0.3079,37.2200,0,0,187784
1.9453,0.3030,37.3100,0,0,187788
1.9648,0.3226,37.1000,0,0,187791
1.9257,0.3079,37.2200,0,0,187794
1.9404,0.3079,37.1300,0,0,187797
1.9208,0.3079,37.2200,0,0,187800
1.9257,0.3079,37.2500,0,0,187803
1.9746,0.3275,36.9800,0,0,187807
1.9159,0.3079,37.4000,0,0,187810
1.9110,0.3030,37.2800,0,0,187813
1.9062,0.3128,37.3400,0,0,187816
1.8866,0.3030,37.1600,0,0,187820
1.8622,0.3079,37.1000,0,0,187824
1.8328,0.3079,37.1600,0,0,187827
1.7937,0.3079,37.4300,0,0,187830
1.7595,0.3030,37.2500,0,0,187833
1.7351,0.3079,37.2200,0,0,187836
1.7155,0.3079,37.2200,0,0,187840
1.7009,0.3030,37.2500,0,0,187843
1.6813,0.3079,37.2200,0,0,187846
1.6667,0.3079,37.2500,0,0,187849
1.6569,0.3079,37.2200,0,0,187852
1.6569,0.3128,37.2200,0,0,187856
1.6520,0.2981,37.2500,0,0,187859
1.6471,0.3030,37.2500,0,0,187863
1.6667,0.2884,37.2500,0,0,187866
1.6618,0.3079,37.2800,0,0,187869
1.6618,0.3079,37.1600,0,0,187873
1.6569,0.3030,37.2200,0,0,187876
1.6667,0.3079,37.2200,0,0,187879
1.6813,0.3079,37.2500,0,0,187882
1.6960,0.3079,37.2200,0,0,187885
1.7107,0.3079,37.2200,0,0,187889
1.7253,0.3079,37.2200,0,0,187892
1.7498,0.3030,37.1600,0,0,187895
1.7791,0.3079,37.3400,0,0,187898
1.8133,0.3079,37.2500,0,0,187901
1.8426,0.3079,37.1600,0,0,187906
1.8573,0.3128,37.2500,0,0,187909
1.8671,0.3128,37.2200,0,0,187912
1.8719,0.2981,37.2200,0,0,187915
1.8719,0.2981,37.2200,0,0,187918
1.8866,0.3079,37.2200,0,0,187922
1.8817,0.2884,37.2200,0,0,187925
1.8622,0.3079,37.2500,0,0,187928
1.8524,0.3079,37.2500,0,0,187931
1.8328,0.3079,37.1900,0,0,187934
1.8133,0.3030,37.2500,0,0,187938
1.7986,0.3079,37.2200,0,0,187941
1.7937,0.3079,36.9500,0,0,187944
1.7889,0.3079,37.1900,0,0,187948
1.7742,0.3030,37.4000,0,0,187951
1.7546,0.3079,37.2500,0,0,187954
1.7302,0.3079,37.3400,0,0,187958
1.7107,0.3079,37.2200,0,0,187961
1.6862,0.3079,37.2200,0,0,187964
1.6667,0.3079,37.2200,0,0,187967
1.6618,0.3079,37.2800,0,0,187970
1.6569,0.3079,37.2500,0,0,187974
1.6569,0.3079,37.3400,0,0,187977
1.6569,0.3079,37.3400,0,0,187980
1.6569,0.3079,37.1600,0,0,187983
1.6569,0.3079,37.4300,0,0,187986
1.6618,0.3079,37.2800,0,0,187991
1.6667,0.3226,37.2200,0,0,187994
1.6667,0.2981,37.2200,0,0,187997
1.7009,0.3079,37.2500,0,0,188000
1.6569,0.3128,37.3100,0,0,188003
1.6227,0.3079,37.2200,0,0,188007
1.6178,0.2884,37.2200,0,0,188010
1.5738,0.3079,37.2500,0,0,188013
1.5885,0.3079,37.2200,0,0,188016
1.6520,0.3079,37.2500,0,0,188019
1.7742,0.3079,37.2500,0,0,188023
1.9550,0.3030,37.2200,0,0,188026
2.1945,0.3079,37.2200,0,0,188029
2.4780,0.3128,37.2800,0,0,188033
2.7908,0.3079,37.2500,0,0,188036
3.0890,0.3079,37.2500,0,0,188040
3.3236,0.3079,37.2800,0,0,188043
3.4311,0.3079,37.2500,0,0,188046
3.3138,0.3079,37.2500,0,0,188049
3.0352,0.3079,37.2200,0,0,188052
2.6784,0.3079,37.2500,0,0,188055
2.3021,0.3030,37.2500,0,0,188059
1.9892,0.3030,37.2800,0,0,188062
1.7400,0.3079,37.2500,0,0,188065
1.5787,0.3079,37.2500,0,0,188068
1.4809,0.3079,37.2200,0,0,188071
1.4370,0.3079,37.2500,0,0,188076
1.4223,0.3079,37.2500,0,0,188079
1.4761,0.3275,37.0100,0,0,188082
1.4614,0.3030,37.2200,0,0,188085
1.5103,0.3128,37.2500,0,0,188088
1.5543,0.3128,37.2200,0,0,188092
1.5982,0.3030,37.2500,0,0,188095
1.6227,0.3079,37.2500,0,0,188098
1.6422,0.3079,37.2200,0,0,188101
1.6422,0.3079,37.2500,0,0,188104
1.6373,0.3079,37.3400,0,0,188108
1.6325,0.3128,37.2200,0,0,188111
1.6325,0.3421,37.3700,0,0,188114
1.6373,0.3079,37.2200,0,0,188118
1.6422,0.3128,37.2500,0,0,188121
1.6618,0.3079,37.2500,0,0,188125
1.6569,0.3079,37.2200,0,0,188128
1.6667,0.3079,37.1900,0,0,188131
1.6667,0.3079,37.2200,0,0,188134
1.6618,0.3079,37.1900,0,0,188137
1.6716,0.3079,37.2500,0,0,188141
1.6764,0.3079,37.4000,0,0,188144
1.6813,0.3128,37.2200,0,0,188147
1.6764,0.3079,37.2800,0,0,188150
1.6862,0.3079,37.2500,0,0,188153
1.6911,0.3079,37.1900,0,0,188157
1.6960,0.3079,37.1600,0,0,188161
1.7009,0.3079,36.5200,0,0,188164
1.7009,0.3079,37.2500,0,0,188167
1.6960,0.3128,37.2200,0,0,188170
1.7009,0.3030,37.2500,0,0,188174
1.7058,0.3079,37.3100,0,0,188177
1.7204,0.3079,37.2500,0,0,188180
1.7302,0.3079,37.3700,0,0,188183
1.7351,0.3079,37.2200,0,0,188186
1.7449,0.3079,37.2200,0,0,188189
1.7498,0.3079,37.2200,0,0,188193
1.7546,0.3079,36.4600,0,0,188196
1.7644,0.3079,37.2500,0,0,188199
1.7791,0.3079,37.2500,0,0,188203
1.7986,0.3324,37.2200,0,0,188206
1.8084,0.3177,37.2200,0,0,188210
1.8133,0.3128,37.2200,0,0,188213
1.8182,0.2981,37.2200,0,0,188216
1.8133,0.3079,37.2500,0,0,188219
1.8231,0.3079,37.1900,0,0,188222
1.8280,0.3030,37.2500,0,0,188226
1.8377,0.3079,37.2500,0,0,188229
1.8524,0.3079,37.2500,0,0,188232
1.8671,0.3079,37.2800,0,0,188235
1.8817,0.3079,37.1900,0,0,188238
1.8866,0.3079,37.2200,0,0,188242
1.8915,0.3128,37.2500,0,0,188246
1.8964,0.3030,37.3100,0,0,188249
1.9062,0.3275,37.2200,0,0,188252
1.9257,0.3030,37.3100,0,0,188255
1.9404,0.3079,37.2500,0,0,188259
1.9599,0.3079,37.2200,0,0,188262
1.9746,0.3519,37.3100,0,0,188265
1.9941,0.3079,37.2200,0,0,188268
2.0235,0.2884,37.2500,0,0,188271
2.0332,0.3030,37.2800,0,0,188275
2.0723,0.3079,37.2500,0,0,188278
2.0577,0.3079,37.2500,0,0,188281
2.0968,0.3030,37.1900,0,0,188284
2.0674,0.3079,37.2500,0,0,188288
2.0723,0.3275,37.2800,0,0,188292
2.0674,0.3030,37.2500,0,0,188296
2.0528,0.3128,37.2500,0,0,188299
2.0430,0.3079,37.2200,0,0,188302
2.0283,0.3226,37.2500,0,0,188306
2.0088,0.3079,37.1600,0,0,188309
1.9844,0.3079,37.2200,0,0,188312
1.9550,0.3079,37.2500,0,0,188315
1.9306,0.3079,37.3100,0,0,188318
1.9013,0.3079,37.2200,0,0,188322
1.8719,0.3079,37.2500,0,0,188325
1.8573,0.3079,37.2800,0,0,188328
1.8231,0.3079,37.2800,0,0,188332
1.8035,0.3079,37.0400,0,0,188335
1.7742,0.3079,37.3100,0,0,188339
1.7595,0.3030,37.2200,0,0,188342
1.7693,0.3079,37.1900,0,0,188345
1.7546,0.3079,37.2500,0,0,188348
1.7937,0.3079,37.1300,0,0,188351
1.7889,0.3079,37.2800,0,0,188355
1.8133,0.3030,37.2500,0,0,188358
1.8719,0.3421,37.0700,0,0,188361
1.8573,0.3030,37.2200,0,0,188364
1.8817,0.3128,37.1900,0,0,188367
1.8866,0.3079,37.2200,0,0,188371
1.9062,0.3079,37.2500,0,0,188375
1.9599,0.3275,36.9500,0,0,188378
1.9208,0.3372,37.1900,0,0,188381
1.9404,0.3030,37.2500,0,0,188384
1.9453,0.3079,37.2200,0,0,188388
1.9501,0.3030,37.3100,0,0,188391
1.9990,0.3421,37.0100,0,0,188394
1.9746,0.2981,37.1900,0,0,188397
1.9648,0.3079,37.2500,0,0,188400
1.9648,0.3128,37.2200,0,0,188404
1.9648,0.3079,37.2500,0,0,188407
1.9990,0.3079,36.4300,0,0,188410
1.9599,0.3079,37.2200,0,0,188413
1.9697,0.3079,37.1600,0,0,188417
1.9795,0.3177,37.1600,0,0,188421
2.0039,0.3079,37.2200,0,0,188424
2.0381,0.3226,37.0700,0,0,188427
1.9746,0.3030,37.2200,0,0,188430
1.9990,0.2981,37.2500,0,0,188433
1.9892,0.3226,37.1600,0,0,188436
1.9697,0.3079,37.2200,0,0,188440
1.9941,0.3128,37.1000,0,0,188443
1.9599,0.3079,37.4000,0,0,188446
1.9648,0.3079,37.2500,0,0,188449
1.9990,0.3177,37.1000,0,0,188452
1.9550,0.3079,37.2200,0,0,188456
1.9550,0.3030,37.2800,0,0,188460
1.9404,0.3079,37.2500,0,0,188463
1.9453,0.3079,37.3100,0,0,188466
2.0039,0.3275,37.1000,0,0,188469
1.9550,0.3079,37.1600,0,0,188473
1.9599,0.3079,37.3400,0,0,188476
1.9550,0.3079,37.3400,0,0,188479
1.9453,0.3079,37.2800,0,0,188482
1.9844,0.3177,36.8800,0,0,188485
1.9306,0.3421,37.1900,0,0,188489
1.9257,0.3128,37.1900,0,0,188492
1.9159,0.3079,37.2200,0,0,188495
1.9062,0.3079,37.2500,0,0,188498
1.9306,0.3128,37.0400,0,0,188502
1.8915,0.3079,37.2500,0,0,188506
1.9013,0.3079,37.3400,0,0,188509
1.9062,0.3079,37.0400,0,0,188512
1.8964,0.3128,37.3100,0,0,188515
1.9257,0.3177,36.3700,0,0,188518
1.9062,0.3079,37.2200,0,0,188522
1.8915,0.2981,37.2500,0,0,188525
1.9404,0.3128,37.1600,0,0,188528
1.8866,0.3079,37.2200,0,0,188531
1.9062,0.3128,37.1000,0,0,188534
1.8719,0.3079,37.2500,0,0,188538
1.8719,0.3079,37.2500,0,0,188541
1.9062,0.3079,37.2200,0,0,188545
1.8768,0.3079,37.2200,0,0,188548
1.8817,0.3128,37.1900,0,0,188551
1.8671,0.3079,37.4300,0,0,188554
1.8622,0.2981,37.2500,0,0,188558
1.9110,0.3226,37.0100,0,0,188561
1.8475,0.2981,37.2200,0,0,188564
1.8866,0.2981,37.2500,0,0,188567
1.8622,0.3079,37.2500,0,0,188571
1.8622,0.3079,37.3400,0,0,188574
1.9013,0.3177,37.0100,0,0,188577
1.8524,0.3079,37.1900,0,0,188580
1.8622,0.3079,37.2500,0,0,188583
1.8622,0.3177,37.1600,0,0,188587
1.8573,0.3030,37.2200,0,0,188591
1.8915,0.3128,37.0100,0,0,188594
1.8671,0.3079,37.2200,0,0,188597
1.8719,0.3079,37.2500,0,0,188600
1.8768,0.3128,37.1600,0,0,188603
1.8719,0.3079,37.2200,0,0,188607
1.9013,0.3226,37.0400,0,0,188610
1.8671,0.3128,37.2200,0,0,188613
1.8671,0.2981,37.2500,0,0,188616
1.8719,0.3128,37.1900,0,0,188619
1.8524,0.3079,37.2200,0,0,188623
1.8719,0.3128,37.0700,0,0,188626
1.8426,0.3079,37.2500,0,0,188630
1.8426,0.3079,37.2500,0,0,188633
1.8719,0.3226,37.1300,0,0,188636
1.8524,0.3128,37.2500,0,0,188640
1.8817,0.3128,37.1000,0,0,188643
1.8573,0.3079,37.2500,0,0,188646
1.8524,0.3128,37.3100,0,0,188649
1.9062,0.3226,37.1300,0,0,188652
1.8524,0.3421,37.2200,0,0,188656
1.8475,0.3030,37.1900,0,0,188659
1.8426,0.2933,37.2500,0,0,188662
1.8377,0.2981,37.2200,0,0,188665
1.8182,0.3079,37.2800,0,0,188668
1.8035,0.3079,37.2200,0,0,188673
1.7742,0.3079,37.2500,0,0,188676
1.7595,0.3079,37.2500,0,0,188679
1.7498,0.3079,37.2500,0,0,188682
1.7498,0.3079,37.2200,0,0,188685
1.7498,0.3030,37.1900,0,0,188689
1.7400,0.3128,37.3100,0,0,188692
1.7351,0.3079,37.3100,0,0,188695
1.7400,0.3079,37.1600,0,0,188698
1.7498,0.3079,37.2500,0,0,188701
1.7546,0.3079,37.2500,0,0,188705
1.7693,0.3079,37.3700,0,0,188708
1.7937,0.3079,37.3100,0,0,188711
1.8182,0.3079,37.2500,0,0,188715
1.8524,0.3079,37.2800,0,0,188718
1.8866,0.3079,37.1000,0,0,188722
1.9355,0.3079,37.2500,0,0,188725
1.9746,0.3079,37.3400,0,0,188728
1.9990,0.3128,37.2200,0,0,188731
2.0088,0.3128,37.2200,0,0,188734
2.0088,0.3079,37.2200,0,0,188738
2.0088,0.3079,37.2800,0,0,188741
2.0039,0.3079,37.3100,0,0,188744
2.0039,0.3079,37.2200,0,0,188747
1.9941,0.3030,37.2200,0,0,188750
1.9795,0.2981,37.2500,0,0,188753
1.9746,0.3079,37.2200,0,0,188758
1.9501,0.3079,37.2200,0,0,188761
1.9208,0.3079,37.2500,0,0,188764
1.8964,0.3079,37.2500,0,0,188767
1.8719,0.3079,37.2200,0,0,188770
1.8524,0.3030,37.2500,0,0,188774
1.8328,0.3079,37.2500,0,0,188777
1.8231,0.3079,36.5800,0,0,188780
1.8133,0.3079,37.2500,0,0,188783
1.8084,0.3079,37.2800,0,0,188786
1.8084,0.3079,37.4600,0,0,188790
1.8133,0.3079,37.2500,0,0,188793
1.8084,0.2981,37.2200,0,0,188796
1.8035,0.3226,37.2500,0,0,188800
1.8035,0.3128,37.2500,0,0,188803
1.8280,0.2884,37.1900,0,0,188807
1.8328,0.3079,37.2200,0,0,188810
1.7840,0.2981,37.2800,0,0,188813
1.7791,0.3079,37.2800,0,0,188816
1.7009,0.3079,37.2500,0,0,188819
1.6813,0.3079,37.2200,0,0,188823
1.7009,0.3079,37.1900,0,0,188826
1.7546,0.2981,37.2200,0,0,188829
1.8817,0.3079,37.2800,0,0,188832
2.0723,0.3079,37.2800,0,0,188835
2.3216,0.3079,37.1900,0,0,188839
2.6344,0.2981,37.2200,0,0,188843
2.9228,0.3079,37.2800,0,0,188846
3.2209,0.3079,37.2200,0,0,188849
3.4409,0.3079,37.2500,0,0,188852
3.5044,0.2981,37.2200,0,0,188855
3.3627,0.3079,37.2800,0,0,188859
3.0547,0.3079,37.2200,0,0,188862
2.6735,0.3226,37.1900,0,0,188865
2.2972,0.3079,37.2200,0,0,188868
1.9697,0.2981,37.2200,0,0,188871
1.7253,0.3079,37.2500,0,0,188875
1.5738,0.3079,37.2500,0,0,188878
1.4956,0.3079,37.2500,0,0,188881
1.4663,0.3079,37.2200,0,0,188884
1.4663,0.3079,37.2500,0,0,188888
1.4858,0.3079,37.2500,0,0,188892
1.5005,0.3079,37.2500,0,0,188895
1.5200,0.3079,37.2200,0,0,188898
1.5347,0.3079,37.2200,0,0,188901
1.5347,0.3079,37.2500,0,0,188904
1.5494,0.3079,37.3400,0,0,188908
1.5591,0.3079,37.2500,0,0,188911
1.5640,0.3079,37.2800,0,0,188914
1.6227,0.2981,37.2200,0,0,188919
1.6764,0.3470,37.1000,0,0,188922
1.6764,0.2981,37.2500,0,0,188925
1.7155,0.3079,37.2500,0,0,188929
1.7546,0.3079,37.2200,0,0,188932
1.7742,0.3079,37.2500,0,0,188936
1.7937,0.3079,37.2500,0,0,188939
1.7986,0.3079,37.2500,0,0,188942
1.7937,0.3079,37.2500,0,0,188945
1.7840,0.3079,37.2500,0,0,188948
1.7742,0.3079,37.2200,0,0,188951
1.7693,0.3079,37.2500,0,0,188955
1.7644,0.3079,37.3100,0,0,188958
1.7546,0.3079,37.1900,0,0,188961
1.7498,0.3079,37.2800,0,0,188964
1.7498,0.3079,37.3400,0,0,188967
1.7449,0.3079,37.2500,0,0,188972
1.7449,0.3030,36.4900,0,0,188975
1.7546,0.3079,37.2200,0,0,188978
1.7595,0.3079,37.2200,0,0,188981
1.7595,0.3079,37.2200,0,0,188984
1.7595,0.3079,37.3400,0,0,188988
1.7595,0.3079,37.2500,0,0,188991
1.7595,0.3079,37.2800,0,0,188994
1.7644,0.3079,37.2200,0,0,188997
1.7644,0.3079,37.2200,0,0,189000
1.7693,0.3030,37.1000,0,0,189004
1.7742,0.2933,37.3100,0,0,189007
1.7840,0.3030,37.2200,0,0,189010
1.7937,0.3079,37.1900,0,0,189014
1.7986,0.3079,37.1600,0,0,189017
1.8035,0.2981,37.2200,0,0,189021
1.8475,0.3079,37.2500,0,0,189024
1.8182,0.3079,37.2500,0,0,189027
1.8280,0.2981,37.2500,0,0,189030
1.8475,0.3079,37.2500,0,0,189033
1.8719,0.3079,37.2500,0,0,189037
1.8817,0.3079,37.2200,0,0,189040
1.8915,0.3079,37.2200,0,0,189043
1.8915,0.3128,37.2500,0,0,189046
1.9013,0.3079,37.4000,0,0,189049
1.9110,0.3079,37.2800,0,0,189053
1.9355,0.2981,37.3400,0,0,189057
1.9550,0.3079,37.2200,0,0,189060
1.9648,0.3079,37.3700,0,0,189063
1.9746,0.3079,37.3100,0,0,189066
1.9892,0.3128,37.2500,0,0,189069
2.0186,0.3079,37.2500,0,0,189073
2.0332,0.3079,37.3100,0,0,189076
2.0479,0.3079,37.2500,0,0,189079
2.0528,0.3079,37.3100,0,0,189082
2.0626,0.3079,37.2200,0,0,189085
2.0723,0.3079,37.2500,0,0,189089
2.0821,0.3030,37.2200,0,0,189092
2.0919,0.3079,37.2200,0,0,189095
2.0772,0.3079,37.2500,0,0,189099
2.0870,0.3079,37.2200,0,0,189102
2.0577,0.2981,37.2500,0,0,189106
2.0430,0.3079,37.3100,0,0,189109
2.0381,0.3079,37.3700,0,0,189112
2.0283,0.3079,37.1600,0,0,189115
2.0186,0.3079,37.1900,0,0,189118
1.9844,0.3079,36.4900,0,0,189121
1.9550,0.3079,37.1600,0,0,189125
1.9208,0.3079,37.4600,0,0,189128
1.8915,0.3079,37.2200,0,0,189131
1.8671,0.3128,37.2200,0,0,189134
1.8328,0.3079,37.2200,0,0,189137
1.8084,0.3372,37.3100,0,0,189142
1.7791,0.3079,37.2200,0,0,189145
1.7595,0.3079,37.2200,0,0,189148
1.7351,0.3128,37.3100,0,0,189151
1.7204,0.3030,37.2500,0,0,189154
1.7498,0.2884,37.2500,0,0,189158
1.7155,0.3079,37.2500,0,0,189161
1.7058,0.3079,37.2500,0,0,189164
1.7107,0.3030,37.2200,0,0,189167
1.7009,0.3079,37.2500,0,0,189170
1.7058,0.3079,37.2500,0,0,189174
1.7009,0.3079,37.2200,0,0,189177
1.7009,0.3079,37.2200,0,0,189180
1.6960,0.3030,37.2500,0,0,189184
1.6911,0.2884,37.2500,0,0,189187
1.6960,0.3079,37.2200,0,0,189191
1.6960,0.3079,37.2500,0,0,189194
1.7253,0.3128,37.1000,0,0,189197
1.7204,0.3079,37.2500,0,0,189200
1.7449,0.3079,37.2200,0,0,189203
1.8182,0.3226,37.1000,0,0,189206
1.7986,0.3079,37.2500,0,0,189210
1.8280,0.3030,37.2200,0,0,189213
1.8573,0.3079,37.2200,0,0,189216
1.8817,0.3128,37.3100,0,0,189219
1.9550,0.3421,36.8800,0,0,189222
1.9257,0.3079,37.2200,0,0,189227
1.9404,0.3079,37.2500,0,0,189230
1.9404,0.3079,37.2200,0,0,189233
1.9404,0.3079,37.2800,0,0,189236
2.0088,0.3226,36.9800,0,0,189239
1.9648,0.3079,37.2200,0,0,189243
1.9746,0.3079,37.2500,0,0,189246
1.9746,0.3079,37.2200,0,0,189249
1.9648,0.3079,37.2500,0,0,189252
1.9892,0.3128,37.0100,0,0,189255
1.9599,0.3079,37.1600,0,0,189259
1.9648,0.3275,37.2500,0,0,189262
1.9746,0.3177,37.1900,0,0,189265
1.9599,0.2884,37.2500,0,0,189268
1.9941,0.3128,37.0700,0,0,189272
1.9599,0.3079,37.2200,0,0,189276
1.9599,0.3079,37.2800,0,0,189279
1.9795,0.3079,37.2200,0,0,189282
1.9501,0.3079,36.5800,0,0,189285
1.9697,0.3079,37.1300,0,0,189288
1.9501,0.3079,37.3400,0,0,189292
1.9501,0.3030,37.1900,0,0,189295
1.9892,0.3226,37.0400,0,0,189298
1.9404,0.3079,37.2500,0,0,189301
1.9355,0.3079,37.1600,0,0,189304
1.9208,0.3079,37.2200,0,0,189308
1.9208,0.2884,37.2500,0,0,189312
1.9648,0.3177,36.9500,0,0,189315
1.9110,0.3079,37.1600,0,0,189318
1.9110,0.3128,37.3100,0,0,189321
1.9013,0.3079,37.1900,0,0,189325
1.8964,0.3079,37.2800,0,0,189328
1.9306,0.3128,37.1900,0,0,189331
1.8817,0.3177,37.2200,0,0,189334
1.8817,0.3030,37.3100,0,0,189337
1.8817,0.3128,37.3100,0,0,189341
1.8817,0.2884,37.2500,0,0,189344
1.9062,0.3128,37.0400,0,0,189347
1.8622,0.3079,37.2200,0,0,189350
1.8671,0.3079,37.2500,0,0,189353
1.8719,0.3079,37.1600,0,0,189358
1.8573,0.3079,37.2800,0,0,189361
1.8817,0.3275,37.1600,0,0,189364
1.8524,0.3030,37.2500,0,0,189367
1.8622,0.3079,37.2200,0,0,189370
1.8719,0.3128,37.1600,0,0,189374
1.8573,0.3079,37.2500,0,0,189377
1.8671,0.3128,37.1300,0,0,189380
1.8377,0.3079,37.2200,0,0,189383
1.8426,0.3079,37.2800,0,0,189386
1.8817,0.3421,37.1000,0,0,189390
1.8426,0.2884,37.2200,0,0,189393
1.8475,0.2884,37.1900,0,0,189396
1.8280,0.3079,37.2500,0,0,189400
1.8377,0.3079,37.2500,0,0,189403
1.8768,0.3275,36.9800,0,0,189407
1.8231,0.3079,37.2800,0,0,189410
1.8280,0.3079,37.3100,0,0,189413
1.8231,0.3079,36.4900,0,0,189416
1.8280,0.3128,37.2500,0,0,189419
1.8719,0.3128,36.9500,0,0,189423
1.8280,0.3079,37.2200,0,0,189426
1.8280,0.3079,37.2200,0,0,189429
1.8328,0.3079,37.2200,0,0,189432
1.8280,0.3079,37.2500,0,0,189435
1.8573,0.3128,36.9800,0,0,189438
1.8231,0.3079,37.3400,0,0,189443
1.8280,0.3079,37.2800,0,0,189446
1.8328,0.3079,37.1600,0,0,189449
1.8231,0.3079,37.2200,0,0,189452
1.8622,0.3128,37.1300,0,0,189455
1.8280,0.3079,37.2500,0,0,189459
1.8231,0.3079,37.2500,0,0,189462
1.8328,0.3128,37.1600,0,0,189465
1.8084,0.3079,37.1000,0,0,189468
1.8328,0.3079,37.1000,0,0,189471
1.8084,0.3128,37.2500,0,0,189475
1.8133,0.3079,37.2500,0,0,189478
1.8328,0.3177,37.1000,0,0,189481
1.7937,0.3079,37.2200,0,0,189485
1.7986,0.3128,37.1300,0,0,189488
1.7791,0.2884,37.2500,0,0,189492
1.7791,0.3079,37.2800,0,0,189495
1.8328,0.3275,37.0100,0,0,189498
1.7791,0.3079,37.2200,0,0,189501
1.7840,0.3030,37.2200,0,0,189504
1.7889,0.3128,37.2200,0,0,189508
1.8035,0.3079,37.2500,0,0,189511
1.8671,0.3275,37.0100,0,0,189514
1.8280,0.2981,37.2200,0,0,189517
1.8426,0.3030,37.2500,0,0,189520
1.8573,0.3128,37.2200,0,0,189524
1.8573,0.3079,37.2800,0,0,189528
1.9257,0.3128,36.9800,0,0,189531
1.9013,0.3079,37.2200,0,0,189534
1.9208,0.3079,37.2200,0,0,189537
1.9453,0.3079,37.1900,0,0,189541
1.9257,0.3128,37.2200,0,0,189544
1.9208,0.3128,37.2200,0,0,189547
1.9404,0.3128,36.9500,0,0,189551
1.8768,0.3079,37.2500,0,0,189554
1.8622,0.3079,37.2500,0,0,189557
1.8524,0.3128,37.1900,0,0,189560
1.8328,0.3079,37.2500,0,0,189563
1.8622,0.3128,37.1000,0,0,189568
1.8182,0.3128,37.2500,0,0,189571
1.8328,0.2981,37.2200,0,0,189574
1.8035,0.3128,37.1900,0,0,189577
1.7644,0.3079,37.2500,0,0,189580
1.7693,0.3128,37.1000,0,0,189584
1.7253,0.3079,37.2500,0,0,189587
1.7204,0.3079,37.3400,0,0,189590
1.7351,0.3079,37.1900,0,0,189593
1.7155,0.3079,36.8800,0,0,189596
1.7302,0.3079,37.0700,0,0,189600
1.7155,0.3079,37.2200,0,0,189603
1.7204,0.3079,37.2500,0,0,189606
1.7644,0.3177,37.0400,0,0,189609
1.7253,0.2981,37.2200,0,0,189613
1.7253,0.2981,37.1900,0,0,189617
1.7302,0.3079,37.2500,0,0,189620
1.7302,0.3079,37.2500,0,0,189623
1.7107,0.3079,37.2200,0,0,189626
1.6471,0.3079,37.2800,0,0,189629
1.5982,0.3079,37.2200,0,0,189633
1.5787,0.3079,37.2200,0,0,189636
1.6031,0.3079,37.2800,0,0,189639
1.6813,0.3275,37.2200,0,0,189642
1.8231,0.2933,37.1900,0,0,189645
2.0381,0.2981,37.2500,0,0,189649
2.2825,0.3030,37.2500,0,0,189652
2.5855,0.3079,37.2200,0,0,189656
2.8739,0.2884,37.2200,0,0,189659
3.1281,0.3030,37.2200,0,0,189662
3.2698,0.2884,37.2500,0,0,189665
3.2014,0.3079,37.2500,0,0,189669
2.9521,0.3079,37.2200,0,0,189672
2.5953,0.3079,37.2200,0,0,189675
2.1994,0.3079,37.2500,0,0,189678
1.8524,0.3079,37.2500,0,0,189681
1.5836,0.3079,37.2500,0,0,189685
1.4076,0.3079,37.2800,0,0,189688
1.3099,0.3030,37.2200,0,0,189691
1.2610,0.3030,37.2500,0,0,189694
1.2561,0.2981,37.2500,0,0,189698
1.2659,0.2884,37.2500,0,0,189702
1.2854,0.3079,37.2500,0,0,189705
1.3001,0.3030,37.2200,0,0,189708
1.3245,0.3079,37.2800,0,0,189711
1.3441,0.2884,37.2200,0,0,189714
1.3636,0.3079,37.1900,0,0,189718
1.3783,0.3079,37.2800,0,0,189721
1.3881,0.3079,37.2500,0,0,189724
1.3978,0.3079,37.2500,0,0,189727
1.4125,0.3079,37.2200,0,0,189730
1.4272,0.3079,37.2800,0,0,189734
1.4418,0.3079,37.2200,0,0,189737
1.4565,0.3177,37.2500,0,0,189741
1.4663,0.2884,37.2500,0,0,189744
1.4858,0.3079,37.2200,0,0,189747
1.5152,0.2884,37.2800,0,0,189751
1.5200,0.3079,37.2800,0,0,189754
1.5347,0.3079,37.2800,0,0,189757
1.5445,0.3079,37.2500,0,0,189760
1.5543,0.3079,37.2500,0,0,189763
1.5640,0.3030,37.1600,0,0,189767
1.5738,0.3079,37.2800,0,0,189770
1.5885,0.3079,37.2800,0,0,189773
1.5982,0.3079,37.2500,0,0,189776
1.6080,0.3128,37.2500,0,0,189779
1.6178,0.3079,37.2500,0,0,189784
1.6227,0.3275,37.2500,0,0,189787
1.6373,0.3128,37.2500,0,0,189790
1.6422,0.3030,37.2500,0,0,189793
1.6471,0.3079,37.2200,0,0,189796
1.6667,0.2884,37.2200,0,0,189800
1.6716,0.2884,37.2500,0,0,189803
1.6716,0.3079,37.3100,0,0,189806
1.6716,0.3079,37.2800,0,0,189809
1.6764,0.3079,37.2200,0,0,189812
1.6862,0.3030,37.2500,0,0,189816
1.6911,0.3079,37.2200,0,0,189819
1.7058,0.3079,37.2200,0,0,189822
1.7204,0.3079,37.2800,0,0,189826
1.7351,0.3079,37.4600,0,0,189829
1.7449,0.3079,37.2500,0,0,189832
1.7498,0.3079,37.0100,0,0,189836
1.7644,0.3079,36.4600,0,0,189839
1.7742,0.3030,37.3100,0,0,189842
1.7791,0.3079,37.1900,0,0,189845
1.7840,0.3079,37.2800,0,0,189848
1.7937,0.3079,37.1600,0,0,189852
1.8084,0.3079,37.2500,0,0,189855
1.8231,0.3030,37.2200,0,0,189858
1.8377,0.3030,37.2500,0,0,189861
1.8524,0.3079,37.2200,0,0,189864
1.8719,0.3030,37.2800,0,0,189869
1.8671,0.2981,37.2200,0,0,189872
1.8768,0.3079,37.2200,0,0,189875
1.8768,0.3030,37.2200,0,0,189878
1.8964,0.3079,37.2200,0,0,189881
1.9159,0.3128,37.2200,0,0,189885
1.9355,0.3079,37.2500,0,0,189888
1.9501,0.3030,37.2200,0,0,189891
1.9599,0.3079,37.2500,0,0,189894
1.9990,0.3079,37.2200,0,0,189897
2.1017,0.3079,36.9500,0,0,189901
2.0870,0.3079,37.2200,0,0,189904
2.1310,0.3079,37.2800,0,0,189907
2.1701,0.3079,37.0400,0,0,189911
2.1994,0.3128,37.3100,0,0,189914
2.2727,0.3128,37.0700,0,0,189917
2.2483,0.3177,37.2500,0,0,189921
2.2581,0.3079,37.2200,0,0,189924
2.2678,0.3128,37.1900,0,0,189927
2.2385,0.3079,37.2500,0,0,189930
2.2630,0.3128,37.0400,0,0,189933
2.2043,0.3079,37.2500,0,0,189937
2.1994,0.3079,37.2200,0,0,189940
2.1848,0.3079,37.2500,0,0,189943
2.1457,0.3079,37.2500,0,0,189946
2.1457,0.3079,37.1000,0,0,189949
2.0723,0.3079,37.2800,0,0,189954
2.0430,0.3079,37.2200,0,0,189957
2.0381,0.3079,37.3100,0,0,189960
1.9844,0.3079,37.2500,0,0,189963
1.9746,0.3128,37.1300,0,0,189966
1.9257,0.3128,37.2800,0,0,189970
1.9013,0.3079,37.2500,0,0,189973
1.9208,0.3226,37.0400,0,0,189976
1.8573,0.3079,37.2500,0,0,189979
1.8280,0.3030,37.1900,0,0,189982
1.8084,0.3079,37.2500,0,0,189986
1.8084,0.3079,37.2800,0,0,189989
1.8524,0.3177,36.9100,0,0,189992
1.7986,0.3079,37.2200,0,0,189996
1.7986,0.3079,37.2500,0,0,189999
1.7889,0.3079,37.3400,0,0,190003
1.7840,0.3079,36.9800,0,0,190006
1.8182,0.3128,37.1000,0,0,190009
1.7791,0.3079,37.1900,0,0,190012
1.7840,0.3079,37.1000,0,0,190015
1.7840,0.3128,37.1900,0,0,190019
1.7937,0.3079,37.2500,0,0,190022
1.8231,0.3128,37.0400,0,0,190025
1.7889,0.3079,37.2500,0,0,190028
1.7889,0.3079,37.2500,0,0,190031
1.7937,0.3079,37.1900,0,0,190035
1.7840,0.3079,37.3400,0,0,190039
1.8133,0.3079,37.1300,0,0,190042
1.7840,0.2933,37.2800,0,0,190045
1.7986,0.3128,37.2500,0,0,190048
1.8622,0.3128,37.1300,0,0,190052
1.8133,0.3079,37.2500,0,0,190055
1.8328,0.3128,37.1300,0,0,190058
1.8133,0.3079,37.3700,0,0,190061
1.8231,0.3128,37.2500,0,0,190064
1.8573,0.3177,37.1000,0,0,190068
1.8182,0.3079,37.1900,0,0,190071
1.8231,0.3079,37.1900,0,0,190074
1.8231,0.3079,37.2200,0,0,190077
1.8328,0.3079,37.2500,0,0,190081
1.8915,0.3275,36.9800,0,0,190085
1.8426,0.3079,37.2200,0,0,190088
1.8475,0.3079,37.3100,0,0,190091
1.8377,0.3226,37.2500,0,0,190094
1.8328,0.3128,37.2200,0,0,190097
1.8768,0.3421,36.9500,0,0,190101
1.8280,0.3079,37.2200,0,0,190104
1.8328,0.3079,37.2800,0,0,190107
1.8231,0.3128,37.2200,0,0,190110
1.8084,0.3079,37.2500,0,0,190113
1.8377,0.3128,37.0100,0,0,190116
1.8084,0.3177,37.1600,0,0,190120
1.8133,0.3030,37.2200,0,0,190124
1.8182,0.3275,37.2500,0,0,190127
1.8133,0.2981,37.2200,0,0,190130
1.8377,0.3128,37.1000,0,0,190134
1.8035,0.3079,37.2200,0,0,190137
1.8035,0.3079,37.2500,0,0,190140
1.8133,0.3079,37.1600,0,0,190143
1.7986,0.3079,37.2200,0,0,190146
1.8231,0.3128,37.1300,0,0,190149
1.7937,0.3079,37.2200,0,0,190153
1.7791,0.3079,37.2200,0,0,190156
1.7840,0.3030,37.2500,0,0,190159
1.7986,0.3128,37.1900,0,0,190163
1.7937,0.3079,37.2200,0,0,190167
1.8133,0.3128,37.0700,0,0,190170
1.7742,0.3079,37.1000,0,0,190173
1.7693,0.3079,37.3400,0,0,190176
1.7840,0.3177,37.1600,0,0,190180
1.7546,0.3079,37.3100,0,0,190183
1.7644,0.3128,37.1300,0,0,190186
1.7498,0.3177,37.2200,0,0,190189
1.7644,0.3079,37.2200,0,0,190192
1.8133,0.3079,37.0100,0,0,190196
1.7693,0.3079,37.1900,0,0,190199
1.7693,0.3030,37.1900,0,0,190202
1.7644,0.3079,37.0700,0,0,190205
1.7546,0.3079,37.2200,0,0,190209
1.8084,0.3177,37.0100,0,0,190213
1.7546,0.3226,37.2500,0,0,190216
1.7546,0.3030,37.2500,0,0,190219
1.7546,0.3128,37.2200,0,0,190222
1.7595,0.3030,37.2500,0,0,190225
1.7986,0.3519,36.9800,0,0,190229
1.7644,0.3079,37.2200,0,0,190232
1.7644,0.3079,37.2200,0,0,190235
1.7742,0.3177,37.1900,0,0,190238
1.7644,0.3030,37.3100,0,0,190241
1.7889,0.3079,37.1600,0,0,190245
1.7595,0.3079,37.1600,0,0,190248
1.7644,0.3079,36.4600,0,0,190252
1.7791,0.3079,37.1600,0,0,190255
1.7693,0.3128,37.2200,0,0,190258
1.7986,0.3030,37.0700,0,0,190262
1.7742,0.3079,37.1300,0,0,190265
1.8182,0.2981,37.2200,0,0,190268
1.8084,0.3128,37.1300,0,0,190271
1.7889,0.3079,37.2200,0,0,190274
1.8084,0.3128,37.1000,0,0,190278
1.7937,0.3079,37.2200,0,0,190281
1.7986,0.3079,36.4600,0,0,190284
1.8524,0.3226,37.0400,0,0,190287
1.8035,0.3079,37.1900,0,0,190290
1.8133,0.3030,37.1900,0,0,190295
1.8426,0.2981,37.2500,0,0,190298
1.8182,0.2981,37.2200,0,0,190301
1.8671,0.3226,36.9500,0,0,190304
1.8133,0.3079,36.8800,0,0,190307
1.8182,0.3079,37.2800,0,0,190311
1.8182,0.3079,37.1900,0,0,190314
1.8133,0.3079,37.2200,0,0,190317
1.8671,0.3177,36.9100,0,0,190320
1.8377,0.3079,37.2200,0,0,190323
1.8524,0.3079,37.2500,0,0,190327
1.8622,0.3128,37.2500,0,0,190330
1.8671,0.3079,37.1600,0,0,190333
1.9110,0.3128,37.0700,0,0,190337
1.9062,0.3079,37.2200,0,0,190340
1.9355,0.3079,37.2500,0,0,190344
1.9599,0.3128,37.1900,0,0,190347
1.9697,0.3079,37.2800,0,0,190350
2.0088,0.3177,37.1300,0,0,190353
1.9746,0.3079,37.3400,0,0,190356
1.9795,0.3079,37.2800,0,0,190360
1.9892,0.3128,37.1600,0,0,190363
1.9599,0.3030,37.2200,0,0,190366
1.9697,0.3177,37.1000,0,0,190369
1.9257,0.2884,37.2200,0,0,190372
1.9306,0.2884,37.2500,0,0,190376
1.9355,0.3177,37.1600,0,0,190380
1.8817,0.3079,37.2200,0,0,190383
1.8817,0.3030,37.1300,0,0,190386
1.8622,0.3128,37.3100,0,0,190389
1.8426,0.3079,37.2500,0,0,190393
1.8671,0.3568,36.9500,0,0,190396
1.8133,0.3079,37.1900,0,0,190399
1.7693,0.3030,37.2500,0,0,190402
1.7351,0.3079,37.2200,0,0,190405
1.7253,0.3128,37.2200,0,0,190409
1.7644,0.3177,37.0100,0,0,190412
1.7107,0.3079,37.2200,0,0,190415
1.7107,0.3128,37.2500,0,0,190418
1.7107,0.3030,37.1600,0,0,190422
1.7107,0.3324,37.2500,0,0,190425
1.7840,0.3128,36.9800,0,0,190429
1.7253,0.3079,37.2500,0,0,190432
1.7302,0.3079,37.2500,0,0,190435
1.7351,0.3079,36.5800,0,0,190438
1.7155,0.3079,37.2500,0,0,190442
1.7204,0.3177,37.0700,0,0,190445
1.6520,0.3128,37.2500,0,0,190448
1.6276,0.3128,37.2200,0,0,190451
1.6325,0.3128,37.2200,0,0,190454
1.6520,0.3079,37.2500,0,0,190458
1.7546,0.3079,37.0700,0,0,190461
1.8817,0.3079,37.2500,0,0,190465
2.0870,0.3079,37.2500,0,0,190468
2.3460,0.3030,37.4900,0,0,190471
2.6295,0.3079,37.2500,0,0,190474
2.9130,0.3079,37.2200,0,0,190478
3.1525,0.3079,37.2500,0,0,190481
3.2845,0.3030,37.2500,0,0,190484
3.2454,0.3030,37.2500,0,0,190487
3.0254,0.3079,37.1900,0,0,190490
2.6833,0.3079,37.2200,0,0,190494
2.3069,0.3079,37.2500,0,0,190497
1.9453,0.3079,37.2500,0,0,190500
1.6569,0.3079,37.2500,0,0,190503
1.4565,0.3079,37.2500,0,0,190507
1.3343,0.3079,37.4000,0,0,190511
1.2757,0.3128,37.2500,0,0,190514
1.2512,0.3226,37.2500,0,0,190517
1.2512,0.3030,37.2200,0,0,190520
1.2610,0.3030,37.2200,0,0,190523
1.2805,0.3030,37.2500,0,0,190527
1.3001,0.3030,37.2200,0,0,190530
1.3196,0.3030,37.2800,0,0,190533
1.3392,0.3128,37.2500,0,0,190536
1.3539,0.3079,37.2200,0,0,190539
1.3978,0.3079,37.2500,0,0,190543
1.4174,0.3079,37.2200,0,0,190546
1.4272,0.2981,37.2200,0,0,190550
1.4223,0.3079,37.2500,0,0,190553
1.4418,0.3079,37.2500,0,0,190556
1.4565,0.3079,37.2200,0,0,190560
1.4712,0.3079,37.2800,0,0,190563
1.4907,0.3079,37.1900,0,0,190566
1.5005,0.3079,37.1300,0,0,190569
1.5152,0.3079,37.2500,0,0,190572
1.5298,0.3030,37.2500,0,0,190575
1.5396,0.3079,37.2200,0,0,190579
1.5494,0.3079,37.2500,0,0,190582
1.5494,0.3079,37.2800,0,0,190585
1.5591,0.3030,37.2200,0,0,190588
1.5640,0.3079,37.2500,0,0,190592
1.5689,0.3275,37.2500,0,0,190596
1.5738,0.3030,37.2200,0,0,190599
1.5787,0.3079,37.2800,0,0,190602
1.6129,0.3079,37.2800,0,0,190605
1.5982,0.3128,37.2200,0,0,190608
1.6129,0.3128,37.2200,0,0,190612
1.6227,0.2884,37.2500,0,0,190615
1.6422,0.3079,37.2200,0,0,190618
1.6520,0.3079,37.2800,0,0,190621
1.6520,0.3079,37.2500,0,0,190624
1.6667,0.3079,37.2200,0,0,190628
1.6716,0.3030,37.2500,0,0,190631
1.6813,0.3030,37.2500,0,0,190635
1.6862,0.3079,37.2800,0,0,190638
1.6960,0.3079,37.4600,0,0,190641
1.7058,0.3079,37.2200,0,0,190645
1.7155,0.3079,37.2500,0,0,190648
1.7204,0.3079,37.2500,0,0,190651
1.7253,0.3079,37.2800,0,0,190654
1.7351,0.3079,37.2500,0,0,190657
1.7449,0.3079,37.4000,0,0,190661
1.7595,0.3079,37.4000,0,0,190664
1.7742,0.3079,37.1600,0,0,190667
1.7889,0.3079,37.1600,0,0,190670
1.7889,0.3079,37.2200,0,0,190673
1.7937,0.3030,37.1600,0,0,190678
1.8084,0.3030,37.2200,0,0,190681
1.8231,0.3030,37.2200,0,0,190684
1.8475,0.3079,37.3700,0,0,190687
1.8671,0.3079,37.2200,0,0,190690
1.8817,0.3079,37.3700,0,0,190693
1.8915,0.3079,37.3100,0,0,190697
1.9013,0.3079,37.3100,0,0,190700
1.9159,0.3079,37.2200,0,0,190703
1.9306,0.3079,37.1300,0,0,190706
1.9453,0.3079,37.2200,0,0,190709
1.9599,0.3079,36.5500,0,0,190713
1.9697,0.3128,37.2800,0,0,190716
1.9795,0.2981,37.2200,0,0,190720
1.9844,0.3079,37.2200,0,0,190723
1.9990,0.3030,37.2500,0,0,190726
2.0283,0.3128,37.1600,0,0,190730
2.0430,0.3079,37.2200,0,0,190733
2.0821,0.3030,37.1000,0,0,190736
2.0870,0.3079,37.2500,0,0,190739
2.1212,0.3177,37.1900,0,0,190742
2.1945,0.3177,37.1000,0,0,190746
2.1750,0.2884,37.2200,0,0,190749
2.1945,0.3079,37.1600,0,0,190752
2.1848,0.3079,37.2500,0,0,190755
2.1799,0.3079,37.2200,0,0,190758
2.2287,0.3275,36.9500,0,0,190763
2.0674,0.3177,37.1300,0,0,190767
2.0039,0.3079,37.2500,0,0,190770
1.9795,0.3079,37.1300,0,0,190774
1.9453,0.3079,37.2500,0,0,190777
1.9208,0.3079,37.2500,0,0,190780
1.9550,0.3275,37.1000,0,0,190783
1.8768,0.3079,36.8500,0,0,190786
1.8671,0.3079,37.2200,0,0,190790
1.8719,0.3079,37.1900,0,0,190793
1.8426,0.3079,37.2200,0,0,190796
1.8768,0.3177,36.9500,0,0,190799
1.8231,0.3079,37.2200,0,0,190802
1.8280,0.3079,37.2500,0,0,190807
1.8328,0.3079,37.2200,0,0,190810
1.8328,0.3079,37.2500,0,0,190813
1.8671,0.3079,37.0400,0,0,190816
1.8280,0.3275,37.2200,0,0,190819
1.8280,0.3030,37.1900,0,0,190823
1.8280,0.3030,37.1900,0,0,190826
1.8231,0.3079,37.2500,0,0,190829
1.8671,0.3128,37.0700,0,0,190832
1.8280,0.3030,37.2800,0,0,190835
1.8280,0.3079,37.2200,0,0,190838
1.8377,0.3128,37.1900,0,0,190842
1.8280,0.3079,37.3100,0,0,190845
1.8524,0.3128,37.1000,0,0,190849
1.8328,0.3079,37.2200,0,0,190852
1.8426,0.3030,37.4300,0,0,190855
1.8817,0.3177,36.7300,0,0,190859
1.8524,0.3275,37.2200,0,0,190862
1.8573,0.3372,37.1300,0,0,190865
1.8377,0.3079,37.2800,0,0,190868
1.8377,0.3079,37.2500,0,0,190871
1.8915,0.3275,37.0100,0,0,190875
1.8475,0.3079,37.2200,0,0,190878
1.8426,0.3030,37.2200,0,0,190881
1.8328,0.3030,37.2200,0,0,190884
1.8328,0.3079,37.2800,0,0,190887
1.8768,0.3177,36.9100,0,0,190892
1.8622,0.3079,37.2200,0,0,190895
1.8377,0.3079,37.2800,0,0,190898
1.8377,0.3079,37.2200,0,0,190901
1.8328,0.3079,37.2500,0,0,190904
1.8768,0.3079,36.9800,0,0,190908
1.8328,0.3079,37.2800,0,0,190911
1.8426,0.3079,37.2500,0,0,190914
1.8475,0.3128,37.1900,0,0,190917
1.8377,0.3128,37.2200,0,0,190920
1.8671,0.3128,37.0700,0,0,190924
1.8182,0.3079,37.2800,0,0,190927
1.8182,0.3079,37.2500,0,0,190930
1.8328,0.3079,37.1900,0,0,190934
1.8280,0.3079,37.2500,0,0,190937
1.8524,0.3128,37.0700,0,0,190941
1.8231,0.3079,37.2800,0,0,190944
1.8133,0.3079,37.2200,0,0,190947
1.8377,0.3421,37.1300,0,0,190950
1.8133,0.3079,37.2200,0,0,190953
1.8328,0.3128,37.1000,0,0,190957
1.8035,0.3079,37.2500,0,0,190960
1.8035,0.3079,37.2500,0,0,190963
1.8426,0.3226,37.0700,0,0,190966
1.7937,0.3079,37.2200,0,0,190969
1.7986,0.3030,37.2200,0,0,190973
1.7937,0.3079,37.2200,0,0,190977
1.7986,0.3079,36.9100,0,0,190980
1.8475,0.3177,36.8800,0,0,190983
1.7937,0.3079,37.2200,0,0,190986
1.7986,0.3030,37.2200,0,0,190990
1.7889,0.2981,37.2200,0,0,190993
1.7937,0.3079,37.2500,0,0,190996
1.8377,0.3128,36.9800,0,0,190999
1.7986,0.3079,37.2200,0,0,191002
1.8084,0.3079,37.2500,0,0,191006
1.8084,0.3079,37.2500,0,0,191009
1.8035,0.3030,37.2800,0,0,191012
1.8231,0.3128,37.0400,0,0,191015
1.7937,0.3079,37.2500,0,0,191019
1.7937,0.3030,37.1600,0,0,191022
1.8133,0.3079,37.1600,0,0,191026
1.8035,0.2981,37.2200,0,0,191029
1.8671,0.3177,37.1000,0,0,191032
1.8084,0.3079,37.2500,0,0,191035
1.8084,0.3030,37.2500,0,0,191038
1.8231,0.3177,37.1600,0,0,191042
1.7937,0.3128,37.2200,0,0,191045
1.8133,0.3079,37.2500,0,0,191048
1.7937,0.3079,37.2800,0,0,191051
1.7986,0.3030,37.2500,0,0,191054
1.8475,0.3372,37.0400,0,0,191058
1.8084,0.3128,37.1900,0,0,191062
1.8328,0.3030,37.1900,0,0,191065
1.8035,0.3079,37.2200,0,0,191068
1.8328,0.2981,37.2500,0,0,191071
1.8573,0.3226,36.9800,0,0,191075
1.8035,0.3079,37.1600,0,0,191078
1.8035,0.3079,36.7900,0,0,191081
1.7986,0.3079,37.2500,0,0,191084
1.8035,0.3030,37.2200,0,0,191087
1.8475,0.3128,37.0100,0,0,191091
1.8084,0.3128,37.2200,0,0,191094
1.8133,0.3030,37.2200,0,0,191097
1.8084,0.3128,37.1900,0,0,191100
1.8133,0.3079,37.2500,0,0,191104
1.8182,0.3128,37.0100,0,0,191108
1.7937,0.3079,37.2500,0,0,191111
1.8035,0.3079,37.2500,0,0,191114
1.8182,0.3128,37.1900,0,0,191117
1.8182,0.3079,37.2800,0,0,191120
1.8622,0.3177,37.1600,0,0,191124
1.8377,0.3079,37.3100,0,0,191127
1.8622,0.2981,37.2500,0,0,191130
1.8964,0.3128,37.1300,0,0,191133
1.8964,0.3079,37.2200,0,0,191136
1.9257,0.3128,37.1300,0,0,191140
1.9257,0.3079,37.3400,0,0,191143
1.9599,0.3079,37.1600,0,0,191147
2.0283,0.3177,37.3100,0,0,191150
2.0039,0.3079,37.2200,0,0,191153
2.0186,0.3030,37.2500,0,0,191157
2.0088,0.3128,37.2800,0,0,191160
1.9990,0.3079,37.2500,0,0,191163
2.0381,0.3226,36.9500,0,0,191166
1.9697,0.3079,37.2800,0,0,191169
1.9648,0.3079,37.3100,0,0,191172
1.9501,0.3079,37.2200,0,0,191176
1.9306,0.2981,37.2500,0,0,191179
1.9404,0.3128,36.9100,0,0,191182
1.8719,0.3079,37.2200,0,0,191185
1.8768,0.2884,37.2200,0,0,191188
1.8573,0.3079,37.2200,0,0,191193
1.8426,0.3128,37.2800,0,0,191196
1.8328,0.3079,37.1900,0,0,191199
1.7742,0.3079,37.2200,0,0,191202
1.7400,0.3079,37.2500,0,0,191205
1.7009,0.3079,37.2200,0,0,191209
1.6716,0.3079,37.2200,0,0,191212
1.6422,0.3030,37.2200,0,0,191215
1.6080,0.3030,37.2500,0,0,191218
1.5738,0.3079,37.4600,0,0,191221
1.5494,0.3030,36.4600,0,0,191225
1.5347,0.3372,37.2500,0,0,191228
1.5249,0.3324,37.1900,0,0,191232
1.5200,0.3079,37.2500,0,0,191235
1.5200,0.3128,37.2200,0,0,191238
1.5200,0.3079,37.2500,0,0,191242
1.5200,0.3030,37.2200,0,0,191245
1.5005,0.3177,37.2800,0,0,191248
1.4663,0.3372,37.2800,0,0,191251
1.4321,0.2981,37.2800,0,0,191254
1.4125,0.3030,37.2200,0,0,191258
1.4467,0.2884,37.2500,0,0,191261
1.5200,0.3079,37.2500,0,0,191264
1.6422,0.3030,37.2200,0,0,191267
1.8524,0.3030,37.2500,0,0,191270
2.1310,0.3079,37.2200,0,0,191275
2.4438,0.3030,37.2200,0,0,191278
2.7908,0.2981,37.2500,0,0,191281
3.0890,0.2884,37.2200,0,0,191284
3.2796,0.3128,37.2200,0,0,191287
3.3089,0.3079,37.2200,0,0,191290
3.1232,0.3079,37.2200,0,0,191294
2.8055,0.2981,37.2200,0,0,191297
2.3998,0.3030,37.2500,0,0,191300
2.0332,0.3079,37.2500,0,0,191303
1.7253,0.2981,37.2200,0,0,191306
1.5152,0.3079,37.2200,0,0,191310
1.3881,0.3079,37.2500,0,0,191313
1.3343,0.3079,37.2200,0,0,191316
1.3196,0.3079,37.2500,0,0,191320
1.3294,0.3030,37.2200,0,0,191323
1.3441,0.3030,37.2500,0,0,191327
1.3685,0.3079,37.1600,0,0,191330
1.3930,0.3079,37.4300,0,0,191333
1.4174,0.3079,37.2500,0,0,191336
1.4321,0.3079,37.4000,0,0,191339
1.4418,0.3079,37.2800,0,0,191343
1.4614,0.3030,37.4300,0,0,191346
1.4809,0.3079,37.2200,0,0,191349
1.5005,0.3079,37.1000,0,0,191352
1.5103,0.3079,37.1300,0,0,191355
1.5152,0.3079,37.3700,0,0,191360
1.5152,0.3079,37.2500,0,0,191363
1.5249,0.3079,37.2800,0,0,191366
1.5347,0.3275,37.2200,0,0,191369
1.5494,0.3128,37.2500,0,0,191372
1.5640,0.3421,37.2500,0,0,191376
1.6178,0.3030,37.2500,0,0,191380
1.6520,0.2981,37.1900,0,0,191383
1.6471,0.3079,37.2500,0,0,191386
1.6325,0.3079,37.2200,0,0,191390
1.6422,0.3079,37.2500,0,0,191393
1.6520,0.3079,37.2200,0,0,191396
1.6667,0.3079,37.2800,0,0,191399
1.6813,0.3079,37.2200,0,0,191403
1.6960,0.3030,37.2500,0,0,191407
1.7009,0.3079,37.2800,0,0,191410
1.7009,0.3079,37.2500,0,0,191413
1.6960,0.3079,37.2500,0,0,191416
1.7009,0.3079,37.2200,0,0,191419
1.7204,0.2884,37.2800,0,0,191423
1.7204,0.2884,37.2500,0,0,191426
1.7204,0.3079,37.2800,0,0,191429
1.7302,0.3079,37.2200,0,0,191432
1.7302,0.3079,37.2500,0,0,191435
1.7498,0.3030,37.2500,0,0,191439
1.7595,0.3079,37.2500,0,0,191442
1.7644,0.3079,37.1900,0,0,191446
1.7742,0.3079,37.2200,0,0,191449
1.7742,0.3030,37.1900,0,0,191452
1.7889,0.3079,37.2200,0,0,191456
1.8182,0.3079,37.1000,0,0,191459
1.9013,0.3177,36.8200,0,0,191462
1.8964,0.2884,37.1900,0,0,191465
1.9404,0.3079,37.2200,0,0,191468
1.9697,0.3079,37.2200,0,0,191472
2.0088,0.3079,37.2500,0,0,191475
2.0772,0.3128,36.9500,0,0,191478
2.0626,0.3079,37.2500,0,0,191481
2.0870,0.3079,37.2500,0,0,191484
2.1065,0.3128,37.1900,0,0,191488
2.1065,0.3079,37.3700,0,0,191492
2.1554,0.3128,37.0400,0,0,191495
2.1408,0.3128,37.1900,0,0,191498
2.1701,0.3079,37.1300,0,0,191501
2.1994,0.3079,37.1600,0,0,191504
2.2092,0.3177,37.2800,0,0,191508
2.2532,0.3128,37.1000,0,0,191511
2.2190,0.3128,37.2200,0,0,191514
2.2434,0.3079,37.3100,0,0,191517
2.2678,0.3226,37.1600,0,0,191520
2.2727,0.3079,37.2200,0,0,191524
2.2581,0.2981,37.1300,0,0,191527
2.2336,0.3079,37.2500,0,0,191531
2.2336,0.3030,37.2200,0,0,191534
2.2874,0.3226,37.0400,0,0,191537
2.2190,0.3079,37.1900,0,0,191541
2.2141,0.3030,37.2200,0,0,191544
2.1896,0.3079,37.2800,0,0,191547
2.1701,0.3079,37.3400,0,0,191550
2.1945,0.3177,36.9100,0,0,191553
2.1017,0.3128,37.1900,0,0,191557
2.0674,0.3177,37.2500,0,0,191560
2.0332,0.3275,37.2500,0,0,191563
1.9941,0.3079,37.2500,0,0,191566
1.9941,0.3128,36.9800,0,0,191569
1.9257,0.3079,37.1900,0,0,191574
1.9013,0.3079,37.2800,0,0,191577
1.8768,0.3128,37.2200,0,0,191580
1.8524,0.3128,37.1900,0,0,191583
1.8524,0.3568,37.0400,0,0,191586
1.8035,0.3030,37.2500,0,0,191590
1.7937,0.2981,37.2200,0,0,191593
1.7889,0.3128,37.1900,0,0,191596
1.7644,0.3079,37.2200,0,0,191599
1.7889,0.3128,37.1300,0,0,191602
1.7693,0.3079,37.1600,0,0,191606
1.7693,0.3079,37.1900,0,0,191609
1.7840,0.3177,37.0100,0,0,191612
1.7498,0.3030,37.2200,0,0,191616
1.7693,0.3128,37.0700,0,0,191619
1.7693,0.2981,37.2200,0,0,191623
1.7595,0.3079,37.2200,0,0,191626
1.8084,0.3177,37.0700,0,0,191629
1.7644,0.3079,37.1900,0,0,191632
1.7644,0.3030,37.1900,0,0,191635
1.7546,0.3079,37.2200,0,0,191639
1.7595,0.3079,37.3700,0,0,191642
1.8133,0.3226,36.9800,0,0,191645
1.7693,0.3079,37.1900,0,0,191648
1.7791,0.3079,37.2500,0,0,191651
1.7791,0.3128,37.2200,0,0,191655
1.7791,0.3079,37.2500,0,0,191659
1.8231,0.3177,36.9500,0,0,191662
1.7840,0.3079,37.1000,0,0,191665
1.7937,0.3079,37.2200,0,0,191668
1.8035,0.3079,37.2500,0,0,191671
1.7986,0.3079,37.4000,0,0,191675
1.8280,0.3128,37.0700,0,0,191678
1.8035,0.3079,37.2200,0,0,191681
1.8133,0.3079,37.2500,0,0,191684
1.8231,0.3079,37.2500,0,0,191687
1.8182,0.3079,37.2500,0,0,191691
1.8475,0.3128,37.1300,0,0,191694
1.8182,0.3079,37.2500,0,0,191697
1.8280,0.3079,37.2500,0,0,191700
1.8475,0.3079,37.1900,0,0,191704
1.8328,0.3079,37.2500,0,0,191708
1.8475,0.3128,37.1300,0,0,191711
1.8182,0.3079,37.3100,0,0,191714
1.8182,0.3519,37.2500,0,0,191717
1.8524,0.3226,37.0700,0,0,191720
1.8133,0.2981,37.2200,0,0,191724
1.8182,0.3030,37.1600,0,0,191727
1.8133,0.3079,37.2200,0,0,191730
1.8133,0.3079,37.2200,0,0,191733
1.8671,0.3275,36.8500,0,0,191736
1.8133,0.3128,37.2200,0,0,191740
1.8377,0.3030,37.2200,0,0,191744
1.8328,0.2884,37.2200,0,0,191747
1.8231,0.3079,37.2800,0,0,191750
1.8524,0.3177,36.9500,0,0,191753
1.8231,0.3079,36.4300,0,0,191757
1.8182,0.3568,37.1900,0,0,191760
1.8133,0.3079,37.2200,0,0,191763
1.8133,0.3079,37.2500,0,0,191766
1.8377,0.3128,36.9800,0,0,191769
1.7937,0.3079,37.2200,0,0,191773
1.8084,0.3079,37.2800,0,0,191776
1.8182,0.3079,37.1900,0,0,191779
1.8182,0.3079,37.2200,0,0,191782
1.8426,0.3079,37.0400,0,0,191785
1.8035,0.3079,37.2200,0,0,191790
1.8035,0.3177,37.2500,0,0,191793
1.8084,0.3128,37.1900,0,0,191796
1.7937,0.3030,37.2500,0,0,191799
1.8182,0.3079,37.0700,0,0,191802
1.8084,0.2884,37.2200,0,0,191806
1.7986,0.3079,37.2500,0,0,191809
1.8280,0.3177,37.1600,0,0,191812
1.7889,0.3079,37.3700,0,0,191815
1.7986,0.3079,37.1600,0,0,191818
1.7840,0.3079,37.2500,0,0,191822
1.7840,0.3079,37.2500,0,0,191825
1.8377,0.3275,37.0400,0,0,191828
1.7840,0.3128,37.4000,0,0,191832
1.7937,0.3030,37.2500,0,0,191835
1.7937,0.3079,37.2200,0,0,191839
1.8035,0.3079,37.2200,0,0,191842
1.8524,0.3177,36.9100,0,0,191845
1.8084,0.3177,37.2200,0,0,191848
1.8133,0.3128,37.2500,0,0,191851
1.8182,0.3079,37.2200,0,0,191855
1.8133,0.3079,37.2500,0,0,191858
1.8524,0.3128,37.0400,0,0,191861
1.8133,0.3079,37.4600,0,0,191864
1.8133,0.3079,37.3100,0,0,191867
1.8084,0.3079,37.4600,0,0,191872
1.7986,0.3079,37.2500,0,0,191875
1.8328,0.3079,37.1000,0,0,191878
1.8035,0.3079,37.1900,0,0,191881
1.8182,0.3079,37.2500,0,0,191884
1.8328,0.3128,37.2200,0,0,191887
1.8377,0.3079,37.2200,0,0,191891
1.8524,0.3177,37.1000,0,0,191894
1.8035,0.3079,37.2800,0,0,191897
1.8035,0.3079,37.2500,0,0,191900
1.8231,0.3177,37.1300,0,0,191903
1.7937,0.3079,37.2200,0,0,191907
1.8084,0.3079,37.1600,0,0,191910
1.7986,0.3079,37.3400,0,0,191913
1.8084,0.3079,37.1900,0,0,191917
1.8719,0.3275,37.0700,0,0,191920
1.8231,0.3079,37.2200,0,0,191924
1.8280,0.3030,37.2200,0,0,191927
1.8280,0.2981,37.2200,0,0,191930
1.8475,0.2981,37.2200,0,0,191933
1.8573,0.3177,36.9100,0,0,191936
1.8133,0.3128,37.3400,0,0,191940
1.8182,0.3079,37.3100,0,0,191943
1.8133,0.3079,37.2500,0,0,191946
1.8084,0.3030,37.2500,0,0,191949
1.8426,0.3128,37.0700,0,0,191952
1.8133,0.3030,37.2200,0,0,191956
1.8328,0.3030,37.2200,0,0,191960
1.8524,0.3128,37.1900,0,0,191963
1.8573,0.3079,37.3100,0,0,191966
1.9062,0.3128,37.0400,0,0,191969
1.8768,0.3079,37.2500,0,0,191973
1.9013,0.3079,37.2200,0,0,191976
1.9306,0.3079,37.1900,0,0,191979
1.9404,0.3128,37.2200,0,0,191982
1.9892,0.3128,37.0700,0,0,191985
1.9746,0.3079,37.3400,0,0,191989
1.9941,0.3079,37.2800,0,0,191992
2.0283,0.3666,37.1300,0,0,191995
2.0088,0.3128,37.2200,0,0,191998
2.0283,0.3324,37.1000,0,0,192002
1.9795,0.3128,37.0700,0,0,192007
1.9062,0.2884,37.2200,0,0,192010
1.8768,0.3030,37.2500,0,0,192013
1.8475,0.3030,37.2500,0,0,192017
1.8133,0.3079,37.2200,0,0,192020
1.7693,0.3079,37.2200,0,0,192023
1.7204,0.3079,37.2200,0,0,192026
1.6764,0.3079,37.2800,0,0,192029
1.6422,0.3079,37.2500,0,0,192032
1.5982,0.3079,37.2500,0,0,192036
1.5689,0.3030,37.2500,0,0,192039
1.5543,0.3030,37.2200,0,0,192043
1.5445,0.3030,37.2500,0,0,192046
1.5347,0.3079,37.2500,0,0,192049
1.5347,0.3079,37.3100,0,0,192053
1.5200,0.3128,37.2500,0,0,192056
1.5200,0.3079,37.2500,0,0,192059
1.5249,0.3030,37.2500,0,0,192062
1.5200,0.3079,37.2800,0,0,192065
1.5298,0.3079,37.2200,0,0,192069
1.5249,0.3079,37.2500,0,0,192072
1.5152,0.3030,37.2500,0,0,192075
1.4761,0.3030,37.4600,0,0,192078
1.4418,0.3079,37.2200,0,0,192081
1.4321,0.3030,37.2500,0,0,192086
1.4663,0.3079,37.2500,0,0,192089
1.5445,0.3079,37.2200,0,0,192092
1.6911,0.3079,37.2800,0,0,192095
1.9013,0.3079,37.3100,0,0,192098
2.1799,0.3079,36.7300,0,0,192102
2.5024,0.3372,37.2800,0,0,192105
2.8299,0.3079,37.1000,0,0,192108
3.1281,0.3079,37.2200,0,0,192111
3.3284,0.3079,37.2800,0,0,192114
3.3382,0.3079,37.2800,0,0,192117
3.1476,0.3079,36.4600,0,0,192121
2.8152,0.3079,36.4900,0,0,192124
2.4291,0.3030,37.2200,0,0,192128
2.0577,0.3079,37.2200,0,0,192131
1.7595,0.3372,37.2800,0,0,192134
1.5445,0.3030,37.2200,0,0,192138
1.4223,0.3030,37.2200,0,0,192141
1.3930,0.3128,37.2200,0,0,192144
1.3539,0.3030,37.3100,0,0,192147
1.3685,0.3177,37.2200,0,0,192150
1.3930,0.2884,37.2200,0,0,192154
1.4174,0.3079,37.2200,0,0,192157
1.4321,0.3079,37.1600,0,0,192160
1.4614,0.2884,37.2500,0,0,192163
1.4516,0.3079,37.2500,0,0,192166
1.4663,0.3079,37.2200,0,0,192171
1.4809,0.3079,37.2500,0,0,192174
1.4956,0.3079,37.2500,0,0,192177
1.5054,0.3030,37.4300,0,0,192180
1.5249,0.3079,37.2500,0,0,192183
1.5445,0.3079,37.2200,0,0,192187
1.5494,0.3079,37.1900,0,0,192190
1.5543,0.3079,37.2500,0,0,192193
1.5591,0.3079,37.2500,0,0,192196
1.5738,0.3128,37.2500,0,0,192199
1.5885,0.3079,37.4600,0,0,192203
1.5982,0.3079,37.2200,0,0,192206
1.5982,0.3030,37.2200,0,0,192209
1.6129,0.3079,37.2500,0,0,192212
1.6227,0.3079,37.1000,0,0,192216
1.6325,0.3079,37.4600,0,0,192220
1.6422,0.3030,37.3100,0,0,192223
1.6520,0.3079,37.2200,0,0,192226
1.6618,0.3079,37.3400,0,0,192229
1.6764,0.3079,37.2200,0,0,192232
1.6862,0.3079,37.2200,0,0,192235
1.6911,0.3128,37.2800,0,0,192239
1.6960,0.3030,37.2800,0,0,192242
1.7009,0.3079,37.2500,0,0,192245
1.7107,0.3030,37.1900,0,0,192248
1.7204,0.3079,37.4600,0,0,192251
1.7351,0.3079,37.3100,0,0,192256
1.7449,0.3079,37.3100,0,0,192259
1.7449,0.3079,37.2500,0,0,192262
1.7449,0.3079,37.2500,0,0,192265
1.7449,0.3324,37.2800,0,0,192268
1.7498,0.3128,37.2500,0,0,192272
1.7986,0.3128,37.1900,0,0,192275
1.7840,0.3079,37.2500,0,0,192278
1.8377,0.3128,37.1000,0,0,192281
1.8524,0.3079,37.2500,0,0,192284
1.8768,0.3079,37.2500,0,0,192288
1.8915,0.3079,37.2500,0,0,192291
1.9013,0.3079,37.2500,0,0,192294
1.9013,0.3128,37.2800,0,0,192297
1.9013,0.3079,37.2500,0,0,192301
1.8964,0.3030,37.1900,0,0,192305
1.9013,0.3079,37.1900,0,0,192308
1.9013,0.3128,37.4000,0,0,192311
1.9013,0.3079,37.2500,0,0,192314
1.9062,0.3079,37.3400,0,0,192317
1.9110,0.3079,37.2500,0,0,192321
1.9306,0.3079,37.3100,0,0,192324
1.9453,0.3079,37.2200,0,0,192327
1.9550,0.3079,37.2200,0,0,192330
1.9599,0.3079,37.3400,0,0,192333
1.9697,0.3079,37.2500,0,0,192336
1.9795,0.3079,37.2500,0,0,192340
1.9844,0.3079,37.0700,0,0,192344
1.9990,0.3079,37.3100,0,0,192347
2.0137,0.3079,37.2200,0,0,192350
2.0283,0.3079,37.2200,0,0,192353
2.0381,0.3079,37.3100,0,0,192357
2.0381,0.3079,37.2200,0,0,192360
2.0479,0.3079,37.2500,0,0,192363
2.0577,0.3128,37.2500,0,0,192366
2.0674,0.3079,37.1900,0,0,192369
2.0821,0.3079,37.2200,0,0,192373
2.0821,0.3079,37.2500,0,0,192376
2.0723,0.3079,37.2800,0,0,192379
2.0674,0.3079,37.2500,0,0,192382
2.0626,0.2884,37.2500,0,0,192386
2.0430,0.3079,37.2500,0,0,192389
2.0186,0.3079,37.2500,0,0,192393
1.9795,0.2981,37.2200,0,0,192396
1.9795,0.3030,37.2200,0,0,192399
1.9257,0.3079,37.2500,0,0,192402
1.8915,0.3079,37.2800,0,0,192405
1.8768,0.3079,37.2500,0,0,192409
1.8524,0.3079,37.2500,0,0,192412
1.8280,0.3079,37.2500,0,0,192415
1.7937,0.3079,37.2500,0,0,192418
1.7595,0.3079,37.2500,0,0,192421
1.7302,0.3079,37.2500,0,0,192425
1.7058,0.3079,37.2200,0,0,192429
1.6911,0.3079,37.2800,0,0,192432
1.6716,0.3030,37.1600,0,0,192435
1.6618,0.3079,37.4600,0,0,192438
1.6520,0.3128,37.2500,0,0,192442
1.6569,0.3079,37.3100,0,0,192445
1.6716,0.3079,37.2200,0,0,192448
1.6764,0.3128,37.2500,0,0,192451
1.6667,0.2884,37.2200,0,0,192454
1.6667,0.3030,37.2200,0,0,192458
1.6764,0.3079,37.2200,0,0,192461
1.6667,0.3079,37.2200,0,0,192464
1.6862,0.3079,37.2500,0,0,192467
1.6960,0.3079,37.2500,0,0,192471
1.7009,0.3079,37.2500,0,0,192475
1.7107,0.3079,37.2500,0,0,192478
1.7155,0.3079,37.2500,0,0,192481
1.7204,0.3079,37.2500,0,0,192484
1.7302,0.3079,37.2200,0,0,192487
1.7302,0.3079,37.1000,0,0,192491
1.7351,0.3030,37.2500,0,0,192494
1.7302,0.3030,37.3100,0,0,192497
1.7351,0.3079,37.2500,0,0,192500
1.7351,0.3372,37.2200,0,0,192503
1.7449,0.3177,37.2500,0,0,192507
1.7498,0.3030,37.2500,0,0,192510
1.7546,0.3030,37.2200,0,0,192514
1.7546,0.3079,37.3100,0,0,192517
1.7693,0.3030,37.2200,0,0,192520
1.7546,0.3079,37.2500,0,0,192523
1.7546,0.3079,37.2200,0,0,192527
1.7546,0.3128,37.2200,0,0,192530
1.7595,0.3079,37.2500,0,0,192533
1.7595,0.3030,37.2200,0,0,192536
1.7595,0.2884,37.2200,0,0,192539
1.7693,0.3079,37.2800,0,0,192543
1.7791,0.3079,37.2500,0,0,192546
1.8084,0.3177,37.1600,0,0,192549
1.8035,0.3079,37.3700,0,0,192552
1.8426,0.3128,37.1000,0,0,192556
1.8573,0.3079,37.2200,0,0,192560
1.8915,0.3079,37.2500,0,0,192563
1.9697,0.3226,37.1300,0,0,192566
1.9453,0.3079,37.3400,0,0,192569
1.9648,0.3030,37.1900,0,0,192572
1.9697,0.3079,37.2500,0,0,192576
1.9844,0.3226,37.2500,0,0,192579
2.0772,0.3177,36.9100,0,0,192582
2.0186,0.3128,37.2200,0,0,192585
1.9941,0.3030,37.2500,0,0,192588
1.9941,0.3128,37.2200,0,0,192592
1.9941,0.3079,37.2500,0,0,192595
2.0381,0.3128,36.9800,0,0,192599
1.9844,0.3128,37.2500,0,0,192602
1.9892,0.3079,37.1000,0,0,192605
1.9892,0.3079,37.1300,0,0,192609
1.9746,0.3079,37.3100,0,0,192612
1.9844,0.3128,37.0400,0,0,192615
1.9550,0.3177,37.2200,0,0,192618
1.9355,0.2981,37.2500,0,0,192621
1.9501,0.3128,37.1900,0,0,192625
1.9159,0.3079,37.2200,0,0,192628
1.9013,0.3421,37.2500,0,0,192631
1.9257,0.3226,37.0100,0,0,192635
1.8964,0.3079,37.2500,0,0,192638
1.9062,0.3030,37.2500,0,0,192642
1.9110,0.3128,37.1900,0,0,192645
1.8915,0.3079,37.2200,0,0,192648
1.9159,0.3177,37.1300,0,0,192652
1.8817,0.3079,37.2800,0,0,192655
1.8915,0.3079,37.2500,0,0,192658
1.9159,0.3275,37.1300,0,0,192661
1.9013,0.3079,37.2500,0,0,192664
1.9159,0.3128,37.1000,0,0,192668
1.8964,0.3079,37.2500,0,0,192671
1.8964,0.3079,37.2500,0,0,192674
1.9306,0.3177,37.1300,0,0,192677
1.8915,0.3079,37.2800,0,0,192680
1.8866,0.3030,37.1600,0,0,192685
1.8671,0.3079,37.3100,0,0,192688
1.8671,0.3421,37.1600,0,0,192691
1.9257,0.3324,36.9800,0,0,192694
1.8719,0.3079,37.2200,0,0,192697
1.8866,0.2981,37.2200,0,0,192701
1.8719,0.3079,37.2500,0,0,192704
1.8768,0.3079,37.2800,0,0,192707
1.9257,0.3177,36.9800,0,0,192710
1.8768,0.3079,37.1600,0,0,192713
1.8719,0.3079,37.2500,0,0,192717
1.8719,0.3079,37.2200,0,0,192720
1.8573,0.3519,37.2500,0,0,192723
1.8866,0.3128,37.0100,0,0,192727
1.8524,0.3079,37.2200,0,0,192730
1.8622,0.3079,37.2500,0,0,192733
1.8719,0.3128,37.2500,0,0,192737
1.8671,0.3617,37.1600,0,0,192740
1.8915,0.3275,37.1300,0,0,192743
1.8671,0.3079,37.2200,0,0,192746
1.8573,0.3079,37.2800,0,0,192750
1.8768,0.3079,37.2200,0,0,192753
1.8622,0.3079,37.2200,0,0,192756
1.8817,0.3128,37.1000,0,0,192759
1.8475,0.3079,37.2500,0,0,192762
1.8475,0.3226,37.2200,0,0,192766
1.8768,0.3421,37.1000,0,0,192770
1.8573,0.3079,37.2200,0,0,192773
1.8768,0.3079,37.1600,0,0,192776
1.8573,0.3079,37.2800,0,0,192779
1.8719,0.3079,37.2500,0,0,192782
1.9257,0.3226,37.0400,0,0,192786
1.8768,0.3079,37.3100,0,0,192789
1.9013,0.3030,37.1900,0,0,192792
1.9110,0.3079,37.1600,0,0,192795
1.9404,0.3079,37.2200,0,0,192798
2.0137,0.3079,36.9100,0,0,192802
1.9795,0.3128,37.1900,0,0,192805
1.9941,0.3519,37.2200,0,0,192808
1.9990,0.3030,37.2500,0,0,192812
1.9941,0.3030,37.2500,0,0,192815
2.0381,0.3128,37.0100,0,0,192819
1.9844,0.3079,37.2200,0,0,192822
1.9892,0.3079,37.2800,0,0,192825
1.9648,0.3079,37.1900,0,0,192828
1.9453,0.3079,37.2500,0,0,192831
1.9599,0.3079,37.0100,0,0,192835
1.9062,0.3079,37.2500,0,0,192838
1.8964,0.3079,37.1000,0,0,192841
1.8915,0.3079,37.2200,0,0,192844
1.8622,0.3324,37.2500,0,0,192847
1.8719,0.3128,37.0700,0,0,192851
1.8182,0.2884,37.2500,0,0,192855
1.7840,0.3079,37.2500,0,0,192858
1.7644,0.3079,37.2500,0,0,192861
1.7400,0.3079,37.2500,0,0,192864
1.6960,0.3079,37.2200,0,0,192868
1.6667,0.3030,37.2500,0,0,192871
1.6422,0.3079,37.2500,0,0,192874
1.6129,0.3079,37.2200,0,0,192877
1.5934,0.3079,37.2500,0,0,192880
1.5689,0.3079,37.2200,0,0,192884
1.5494,0.3079,37.2200,0,0,192887
1.5347,0.3079,37.2500,0,0,192890
1.5298,0.3079,37.1600,0,0,192893
1.5298,0.3079,37.1600,0,0,192897
1.5249,0.3226,37.2500,0,0,192901
1.5152,0.2981,37.2500,0,0,192904
1.4712,0.3079,37.2500,0,0,192907
1.4174,0.3079,37.2500,0,0,192910
1.3832,0.3079,37.2500,0,0,192913
1.4174,0.3079,37.2800,0,0,192917
1.4809,0.3079,37.2500,0,0,192920
1.5982,0.3079,37.2500,0,0,192923
1.8035,0.3079,37.3400,0,0,192926
2.0626,0.3030,37.1000,0,0,192929
2.3607,0.3079,37.2200,0,0,192932
2.6784,0.3079,37.2500,0,0,192936
2.9717,0.3079,37.2500,0,0,192940
3.1965,0.3079,37.1900,0,0,192943
3.2600,0.3079,37.2500,0,0,192946
3.1329,0.3079,37.2200,0,0,192949
2.8397,0.3079,37.2500,0,0,192953
2.4780,0.3079,37.2200,0,0,192956
2.1114,0.3079,37.2500,0,0,192959
1.7986,0.3079,37.2500,0,0,192962
1.5640,0.3128,37.2800,0,0,192965
1.4223,0.3079,37.2200,0,0,192969
1.3441,0.3079,37.3100,0,0,192972
1.3148,0.2981,37.2500,0,0,192975
1.3148,0.3079,37.3100,0,0,192978
1.3245,0.3079,37.1600,0,0,192982
1.3392,0.3079,37.3400,0,0,192986
1.3587,0.3079,37.2200,0,0,192989
1.3832,0.2933,37.2200,0,0,192992
1.4076,0.2981,37.2800,0,0,192995
1.4321,0.3079,37.2200,0,0,192998
1.4712,0.2981,37.2500,0,0,193002
1.4663,0.2884,37.2200,0,0,193005
1.4663,0.3079,37.2800,0,0,193008
1.4712,0.3079,37.2500,0,0,193011
1.4907,0.3079,37.1600,0,0,193014
1.5054,0.3079,37.2800,0,0,193018
1.5152,0.3030,37.2500,0,0,193021
1.5298,0.3079,37.3100,0,0,193025
1.5396,0.3079,37.2500,0,0,193028
1.5591,0.3079,37.2800,0,0,193031
1.5738,0.3079,37.2200,0,0,193035
1.5787,0.3079,37.2500,0,0,193038
1.5885,0.3030,37.2500,0,0,193041
1.5982,0.3079,37.2500,0,0,193044
1.6080,0.2981,37.2200,0,0,193047
1.6129,0.3128,37.2200,0,0,193051
1.6227,0.3030,37.2500,0,0,193054
1.6276,0.3177,37.2500,0,0,193057
1.6618,0.2981,37.2500,0,0,193060
1.6471,0.3079,37.2200,0,0,193063
1.6569,0.3079,37.2200,0,0,193068
1.6667,0.3079,37.2500,0,0,193071
1.6764,0.3079,37.2500,0,0,193074
1.6960,0.3079,37.2500,0,0,193077
1.7058,0.3079,37.2800,0,0,193080
1.7058,0.3079,37.2500,0,0,193083
1.7058,0.3079,37.3100,0,0,193087
1.7107,0.3079,37.2800,0,0,193090
1.7204,0.3079,37.3700,0,0,193093
1.7302,0.3079,37.2200,0,0,193096
1.7400,0.3079,37.2500,0,0,193099
1.7546,0.3079,36.5200,0,0,193103
1.7595,0.3079,37.1000,0,0,193106
1.7644,0.3079,37.2800,0,0,193110
1.7644,0.3128,37.2200,0,0,193113
1.7693,0.3079,37.2200,0,0,193116
1.7693,0.3079,37.2800,0,0,193120
1.7742,0.3079,36.9100,0,0,193123
1.7986,0.3079,37.1000,0,0,193126
1.7840,0.3324,37.3100,0,0,193129
1.8280,0.3128,37.2500,0,0,193132
1.9013,0.3177,37.1000,0,0,193136
1.9208,0.3079,37.2500,0,0,193139
1.9795,0.3128,37.1300,0,0,193142
2.0039,0.3079,37.2500,0,0,193145
2.0381,0.3079,37.2500,0,0,193148
2.1359,0.3324,37.0400,0,0,193153
2.1163,0.3079,37.2200,0,0,193156
2.1408,0.3030,37.2200,0,0,193159
2.1457,0.3079,37.2200,0,0,193162
2.1554,0.3079,37.2200,0,0,193165
2.2287,0.3177,36.9800,0,0,193169
2.1848,0.3079,37.1900,0,0,193172
2.2043,0.3079,37.2500,0,0,193175
2.2190,0.3030,37.2200,0,0,193178
2.2287,0.3177,37.2500,0,0,193181
2.2874,0.3177,36.9800,0,0,193184
2.2483,0.3079,37.2500,0,0,193188
2.2678,0.2884,37.2500,0,0,193191
2.2678,0.3128,37.2200,0,0,193195
2.2630,0.3079,37.2200,0,0,193198
2.3167,0.3128,37.0700,0,0,193201
2.2434,0.3079,37.2200,0,0,193205
2.2385,0.3079,37.2500,0,0,193208
2.2434,0.3128,37.1600,0,0,193211
2.2092,0.3079,37.2500,0,0,193214
2.2190,0.3079,36.7600,0,0,193217
2.1603,0.3079,37.1600,0,0,193221
2.1359,0.3079,36.9800,0,0,193224
2.1310,0.3079,37.1300,0,0,193227
2.0723,0.3030,37.2200,0,0,193230
2.0577,0.3079,37.1000,0,0,193233
2.0039,0.3079,37.1900,0,0,193238
1.8817,0.2981,37.2200,0,0,193241
1.8328,0.2884,37.2500,0,0,193244
1.8328,0.3177,37.1600,0,0,193248
1.7889,0.3030,37.3100,0,0,193251
1.7937,0.3079,37.1300,0,0,193254
1.7693,0.3079,37.4300,0,0,193257
1.7742,0.3079,37.2800,0,0,193260
1.8182,0.3275,37.0400,0,0,193264
1.7693,0.3177,37.2200,0,0,193267
1.7693,0.2933,37.2200,0,0,193270
1.7693,0.2884,37.2200,0,0,193273
1.7693,0.3030,37.2500,0,0,193276
1.8231,0.3177,36.9100,0,0,193281
1.7791,0.3079,37.2200,0,0,193284
1.7937,0.3079,37.2200,0,0,193287
1.7937,0.3079,37.2500,0,0,193290
1.7986,0.3079,37.1600,0,0,193293
1.8328,0.3275,36.9500,0,0,193297
1.8133,0.3079,37.2500,0,0,193300
1.7986,0.3079,37.2800,0,0,193303
1.7986,0.3128,37.1900,0,0,193306
1.7937,0.3079,37.2500,0,0,193309
1.8182,0.3128,37.0700,0,0,193312
1.7889,0.3079,37.2200,0,0,193316
1.8035,0.3079,37.2200,0,0,193319
1.8231,0.3079,37.1600,0,0,193323
1.8280,0.3079,37.1900,0,0,193326
1.8524,0.3030,37.0700,0,0,193329
1.8231,0.3030,37.3100,0,0,193333
1.8328,0.3079,37.3100,0,0,193336
1.8768,0.3128,37.1900,0,0,193339
1.8475,0.3079,37.2200,0,0,193342
1.8524,0.3128,37.1000,0,0,193345
1.8231,0.3079,37.2800,0,0,193349
1.8328,0.3079,37.2500,0,0,193352
1.8817,0.3226,37.2800,0,0,193355
1.8426,0.3079,37.1600,0,0,193358
1.8475,0.3030,37.1600,0,0,193361
1.8426,0.3128,37.2500,0,0,193366
1.8426,0.2981,37.2200,0,0,193369
1.8866,0.3226,36.9100,0,0,193372
1.8377,0.3079,37.2200,0,0,193375
1.8426,0.3079,37.2500,0,0,193378
1.8426,0.3079,37.2500,0,0,193382
1.8475,0.3079,37.3100,0,0,193385
1.8866,0.3177,36.9500,0,0,193388
1.8426,0.3177,37.2200,0,0,193391
1.8573,0.3030,37.2500,0,0,193394
1.8426,0.3128,37.2200,0,0,193398
1.8475,0.3079,37.2800,0,0,193401
1.8768,0.3128,37.0400,0,0,193404
1.8475,0.3079,37.1900,0,0,193408
1.8426,0.3079,37.2200,0,0,193411
1.8475,0.3079,37.2200,0,0,193415
1.8328,0.3079,37.2800,0,0,193418
1.8573,0.3177,37.0700,0,0,193421
1.8231,0.3030,37.2800,0,0,193424
1.8231,0.3079,37.1300,0,0,193427
1.8377,0.3177,37.1600,0,0,193431
1.8377,0.3128,37.2500,0,0,193434
1.8719,0.3128,37.1300,0,0,193437
1.8182,0.3079,36.6700,0,0,193440
1.8328,0.3079,37.2500,0,0,193443
1.8719,0.3177,37.1000,0,0,193447
1.8280,0.3030,37.2200,0,0,193451
1.8328,0.3030,37.1600,0,0,193454
1.8133,0.3079,37.2800,0,0,193457
1.8133,0.3079,37.2200,0,0,193460
1.8622,0.3617,36.9500,0,0,193464
1.8133,0.3079,37.1900,0,0,193467
1.8182,0.3030,37.2500,0,0,193470
1.8182,0.3079,37.2200,0,0,193473
1.8182,0.3079,37.2200,0,0,193476
1.8622,0.3177,36.8500,0,0,193480
1.8133,0.3030,37.2200,0,0,193483
1.8231,0.3275,37.1900,0,0,193486
1.8328,0.3128,37.2200,0,0,193489
1.8280,0.3079,37.2500,0,0,193492
1.8622,0.3128,37.0700,0,0,193497
1.8280,0.3079,37.2500,0,0,193500
1.8377,0.3128,37.2500,0,0,193503
1.8328,0.3079,37.2200,0,0,193506
1.8231,0.3079,37.1600,0,0,193509
1.8573,0.3128,37.1300,0,0,193513
1.8231,0.3079,37.2200,0,0,193516
1.8377,0.3079,37.2800,0,0,193519
1.8524,0.3128,37.1900,0,0,193522
1.8280,0.3079,36.9800,0,0,193525
1.8475,0.3128,37.1000,0,0,193529
1.8133,0.3226,37.2500,0,0,193532
1.8182,0.3128,37.2500,0,0,193536
1.8475,0.3226,37.1300,0,0,193539
1.8328,0.3079,37.1900,0,0,193542
1.8573,0.3128,37.1300,0,0,193546
1.8426,0.3079,37.4600,0,0,193549
1.8475,0.3079,37.1900,0,0,193552
1.8915,0.3226,37.1300,0,0,193555
1.8426,0.3030,37.1900,0,0,193558
1.8426,0.3275,37.1900,0,0,193562
1.8475,0.3079,37.2200,0,0,193565
1.8524,0.3079,37.2500,0,0,193568
1.9159,0.3177,36.9100,0,0,193571
1.8768,0.3079,37.1600,0,0,193574
1.8964,0.3079,37.4000,0,0,193579
1.9062,0.3128,37.2500,0,0,193582
1.9159,0.3079,37.3400,0,0,193585
1.9697,0.3128,36.9800,0,0,193588
1.9453,0.3030,37.2200,0,0,193591
1.9648,0.2884,37.2500,0,0,193595
1.9990,0.3128,37.2200,0,0,193598
2.0088,0.3079,37.2200,0,0,193601
2.0430,0.3128,37.0400,0,0,193604
2.0332,0.3079,37.2500,0,0,193607
2.0332,0.3128,37.2500,0,0,193610
2.0332,0.3128,37.1900,0,0,193614
2.0088,0.3079,37.2500,0,0,193617
2.0235,0.3128,37.0700,0,0,193620
1.9795,0.3030,37.2200,0,0,193624
1.9648,0.2884,37.2200,0,0,193627
1.9795,0.3177,37.1300,0,0,193631
1.9159,0.3079,37.2200,0,0,193634
1.9208,0.3128,37.1300,0,0,193637
1.8915,0.3079,37.2500,0,0,193640
1.8866,0.3079,37.1600,0,0,193643
1.9159,0.3226,37.0400,0,0,193647
1.8377,0.3128,37.2200,0,0,193650
1.8377,0.2981,37.1900,0,0,193653
1.7986,0.2884,37.2500,0,0,193656
1.7889,0.3079,37.2200,0,0,193659
1.8231,0.3177,36.9500,0,0,193664
1.7644,0.3079,37.2200,0,0,193667
1.7595,0.3079,37.2200,0,0,193670
1.7498,0.3079,37.1600,0,0,193673
1.7449,0.3030,37.2200,0,0,193676
1.7889,0.3177,36.9100,0,0,193680
1.7595,0.3079,37.2200,0,0,193683
1.7840,0.2884,37.2500,0,0,193686
1.7595,0.3079,37.2500,0,0,193689
1.7449,0.3079,37.2500,0,0,193692
1.7204,0.3079,37.2500,0,0,193696
1.6618,0.3079,37.2500,0,0,193699
1.5885,0.3079,37.2800,0,0,193702
1.5347,0.3079,37.2500,0,0,193705
1.5152,0.3079,37.2500,0,0,193709
1.5494,0.3079,37.2200,0,0,193713
1.6471,0.3324,37.2500,0,0,193716
1.8231,0.2981,37.2500,0,0,193719
2.0772,0.3030,37.2500,0,0,193722
2.3705,0.2981,37.2200,0,0,193725
2.6882,0.3030,37.2200,0,0,193729
2.9765,0.3030,37.2500,0,0,193732
3.2014,0.3079,37.2200,0,0,193735
3.2796,0.3030,37.2500,0,0,193738
3.1525,0.3030,37.2500,0,0,193741
2.8543,0.3079,37.2200,0,0,193744
2.4829,0.3079,37.2500,0,0,193748
2.1065,0.3079,37.2200,0,0,193752
1.7840,0.3079,37.2500,0,0,193755
1.5494,0.3324,37.2500,0,0,193758
1.3978,0.3226,37.2500,0,0,193761
1.3196,0.2884,37.2500,0,0,193765
1.2903,0.3079,37.3100,0,0,193768
1.2805,0.2884,37.2500,0,0,193771
1.3001,0.3079,37.2200,0,0,193774
1.3099,0.3079,37.2800,0,0,193777
1.3294,0.3079,37.2200,0,0,193781
1.3587,0.3079,37.2500,0,0,193784
1.3734,0.3079,37.4600,0,0,193787
1.3832,0.3079,37.3400,0,0,193790
1.4027,0.3079,37.2500,0,0,193794
1.4174,0.3079,37.2200,0,0,193798
1.4321,0.3079,37.2200,0,0,193801
1.4467,0.3177,37.1900,0,0,193804
1.4614,0.3324,37.2500,0,0,193807
1.4809,0.3421,37.2200,0,0,193810
1.5249,0.2884,37.3400,0,0,193814
1.5543,0.2884,37.2500,0,0,193817
1.5396,0.3079,37.2500,0,0,193820
1.5689,0.3079,37.2500,0,0,193823
1.5787,0.3030,37.2200,0,0,193826
1.5934,0.3079,37.2500,0,0,193830
1.5982,0.3079,37.2500,0,0,193833
1.5982,0.3079,37.2500,0,0,193837
1.5982,0.3079,37.3700,0,0,193840
1.6080,0.3079,37.2500,0,0,193843
1.6276,0.3079,37.2200,0,0,193847
1.6716,0.3079,37.2800,0,0,193850
1.6813,0.3079,37.2500,0,0,193853
1.6716,0.3079,37.2200,0,0,193857
1.6716,0.3079,37.2500,0,0,193860
1.6764,0.3421,37.2500,0,0,193863
1.6911,0.3079,37.2500,0,0,193866
1.7107,0.3128,37.2500,0,0,193869
1.7204,0.3079,37.2500,0,0,193873
1.7400,0.2981,37.2500,0,0,193876
1.7498,0.2981,37.2500,0,0,193880
1.7449,0.3079,37.1900,0,0,193883
1.7595,0.3030,37.2500,0,0,193886
1.7742,0.3079,37.2500,0,0,193890
1.7840,0.3079,37.2500,0,0,193893
1.7986,0.3079,37.2500,0,0,193896
1.8035,0.3079,37.2500,0,0,193899
1.8035,0.3079,37.2500,0,0,193902
1.8182,0.3079,37.2500,0,0,193905
1.8231,0.3079,37.2500,0,0,193909
1.8328,0.3079,37.3400,0,0,193912
1.8475,0.3079,37.1000,0,0,193915
1.8524,0.3128,37.4600,0,0,193918
1.8671,0.3079,37.3400,0,0,193922
1.8866,0.3324,37.2500,0,0,193926
1.9062,0.3030,37.2500,0,0,193929
1.9208,0.3177,37.2200,0,0,193932
1.9306,0.3372,37.2500,0,0,193935
1.9404,0.2981,37.2500,0,0,193938
2.0039,0.3177,37.0700,0,0,193942
1.9892,0.3079,37.2800,0,0,193945
2.0381,0.2981,37.1600,0,0,193948
2.0723,0.3079,37.2500,0,0,193951
2.1114,0.3079,37.2500,0,0,193954
2.2141,0.3275,36.9500,0,0,193958
2.1799,0.3079,37.2200,0,0,193961
2.2141,0.3324,37.2500,0,0,193965
2.2678,0.3128,37.2500,0,0,193968
2.2630,0.2981,37.2500,0,0,193971
2.3460,0.3177,36.9500,0,0,193975
2.2874,0.3079,37.2200,0,0,193978
2.2923,0.3079,37.2800,0,0,193981
2.2874,0.3079,37.2200,0,0,193984
2.2727,0.3079,37.3100,0,0,193987
2.2972,0.3079,37.0700,0,0,193991
2.2385,0.3128,37.2500,0,0,193994
2.2190,0.3079,37.2800,0,0,193997
2.2043,0.3079,37.1900,0,0,194000
2.1701,0.3079,37.2500,0,0,194003
2.1799,0.3177,37.1900,0,0,194008
2.1114,0.3079,37.2800,0,0,194011
2.0821,0.3079,37.4600,0,0,194014
2.0772,0.3177,36.3700,0,0,194017
2.0137,0.3079,37.1000,0,0,194020
2.0039,0.3079,37.1900,0,0,194023
1.9501,0.3079,37.2800,0,0,194027
1.9306,0.3079,37.4300,0,0,194030
1.9550,0.3226,37.1900,0,0,194033
1.8915,0.3079,37.2200,0,0,194036
1.8768,0.3030,37.1900,0,0,194039
1.8622,0.3079,37.2200,0,0,194043
1.8524,0.3079,37.2800,0,0,194046
1.8964,0.3177,36.9100,0,0,194050
1.8573,0.3079,37.2200,0,0,194053
1.8377,0.3030,37.2800,0,0,194056
1.8426,0.2981,37.2200,0,0,194060
1.8133,0.3079,37.2500,0,0,194063
1.8573,0.3079,36.9800,0,0,194066
1.8133,0.3079,36.9100,0,0,194069
1.8133,0.3079,37.2800,0,0,194072
1.8133,0.3030,37.2200,0,0,194076
1.8231,0.3128,37.2800,0,0,194079
1.8328,0.3128,37.0400,0,0,194082
1.8084,0.3079,37.2500,0,0,194085
1.8231,0.3079,37.2500,0,0,194088
1.8280,0.3128,37.2200,0,0,194093
1.8182,0.3079,37.2500,0,0,194096
1.8426,0.3177,37.1300,0,0,194099
1.8084,0.3324,37.2500,0,0,194102
1.8182,0.3079,37.2200,0,0,194105
1.8426,0.3128,37.1900,0,0,194109
1.8280,0.3079,37.2200,0,0,194112
1.8426,0.3128,37.1000,0,0,194115
1.8182,0.3079,37.2500,0,0,194118
1.8231,0.3079,37.2500,0,0,194121
1.8524,0.3226,37.1000,0,0,194125
1.8231,0.3079,37.2800,0,0,194128
1.8377,0.3030,36.9100,0,0,194131
1.8328,0.3079,37.2200,0,0,194135
1.8426,0.3030,37.2200,0,0,194138
1.8915,0.3275,36.9800,0,0,194142
1.8328,0.3079,37.1900,0,0,194145
1.8328,0.3079,37.2200,0,0,194148
1.8280,0.3079,37.3100,0,0,194151
1.8182,0.3079,37.2200,0,0,194154
1.8671,0.3177,36.9500,0,0,194158
1.8280,0.3079,37.2500,0,0,194161
1.8426,0.3079,37.2500,0,0,194164
1.8426,0.3079,37.2500,0,0,194167
1.8328,0.3030,37.2200,0,0,194170
1.8573,0.3030,37.0400,0,0,194174
1.8475,0.3079,37.1900,0,0,194178
1.8377,0.3079,37.2500,0,0,194181
1.8475,0.3128,37.1600,0,0,194184
1.8475,0.3030,37.3400,0,0,194187
1.8915,0.3128,37.1000,0,0,194191
1.8524,0.3079,37.2500,0,0,194194
1.8573,0.3079,37.1600,0,0,194197
1.8671,0.3079,37.1900,0,0,194200
1.8524,0.3128,37.2500,0,0,194203
1.8817,0.3128,37.1000,0,0,194206
1.8524,0.3079,37.2200,0,0,194210
1.8671,0.3079,37.2200,0,0,194213
1.8964,0.3079,37.1300,0,0,194216
1.8573,0.3128,37.2200,0,0,194220
1.8622,0.3079,37.1600,0,0,194223
1.8475,0.3030,37.2500,0,0,194227
1.8573,0.3275,37.2800,0,0,194230
1.9062,0.3324,36.9100,0,0,194233
1.8426,0.3079,37.2200,0,0,194236
1.8475,0.3030,37.2500,0,0,194240
1.8377,0.3079,37.2200,0,0,194243
1.8426,0.3079,37.2200,0,0,194246
1.8817,0.3177,36.9500,0,0,194249
1.8377,0.3128,37.2200,0,0,194252
1.8377,0.3030,37.2500,0,0,194255
1.8328,0.3128,37.3100,0,0,194259
1.8475,0.3079,37.2500,0,0,194263
1.8622,0.3128,37.0100,0,0,194266
1.8133,0.3079,37.2200,0,0,194269
1.8182,0.3079,37.2500,0,0,194272
1.8182,0.3079,37.1000,0,0,194276
1.8133,0.3079,37.1000,0,0,194279
1.8475,0.3079,37.0400,0,0,194282
1.8280,0.3030,37.2800,0,0,194285
1.8475,0.3079,37.2500,0,0,194288
1.8622,0.3666,37.1900,0,0,194292
1.8377,0.3030,37.2500,0,0,194295
1.8524,0.3128,37.0700,0,0,194298
1.8182,0.3079,37.2500,0,0,194301
1.8231,0.3079,37.2200,0,0,194305
1.8524,0.3177,37.1300,0,0,194309
1.8328,0.3177,37.2200,0,0,194312
1.8524,0.3324,37.1300,0,0,194315
1.8426,0.3079,37.2500,0,0,194318
1.8524,0.3177,37.2500,0,0,194321
1.9013,0.3226,37.0400,0,0,194325
1.8573,0.3128,37.2200,0,0,194328
1.8573,0.3030,37.1900,0,0,194331
1.8524,0.3079,37.2800,0,0,194334
1.8524,0.3079,37.2500,0,0,194337
1.9062,0.3177,36.8500,0,0,194341
1.8573,0.3079,37.2500,0,0,194344
1.8671,0.3324,37.2800,0,0,194348
1.8622,0.3079,37.2500,0,0,194351
1.8622,0.3079,37.2200,0,0,194354
1.9062,0.3128,36.9500,0,0,194358
1.8622,0.3079,37.2200,0,0,194361
1.8671,0.3079,37.2800,0,0,194364
1.8671,0.3079,37.2200,0,0,194367
1.8573,0.3079,37.3400,0,0,194370
1.8866,0.3079,37.1000,0,0,194374
1.8622,0.3030,37.2800,0,0,194377
1.8719,0.3079,37.2500,0,0,194380
1.8964,0.3128,37.1600,0,0,194383
1.8964,0.3079,37.2800,0,0,194386
1.9453,0.3177,37.1000,0,0,194391
1.9257,0.3079,37.2800,0,0,194394
1.9501,0.3079,37.2500,0,0,194397
1.9892,0.3128,37.2500,0,0,194400
1.9990,0.3079,37.3100,0,0,194403
2.0430,0.3128,37.1000,0,0,194407
2.0332,0.3079,37.2500,0,0,194410
2.0381,0.3079,37.2200,0,0,194413
2.0772,0.3226,37.2200,0,0,194416
2.0186,0.3079,37.1300,0,0,194419
2.0088,0.3128,37.1900,0,0,194423
1.9844,0.3079,37.2200,0,0,194426
1.9697,0.3128,37.1900,0,0,194429
2.0039,0.3275,36.8800,0,0,194433
1.9257,0.2981,37.2200,0,0,194436
1.9062,0.2981,37.2500,0,0,194440
1.8964,0.3128,37.2200,0,0,194443
1.8915,0.3079,37.2500,0,0,194446
1.9208,0.3128,36.9800,0,0,194449
1.8524,0.3079,37.0100,0,0,194452
1.8231,0.3079,37.2500,0,0,194455
1.8035,0.3128,36.6100,0,0,194459
1.7742,0.3128,37.2500,0,0,194462
1.7889,0.3128,37.0400,0,0,194465
1.7351,0.2884,37.2200,0,0,194468
1.7449,0.3079,37.2500,0,0,194471
1.7400,0.3079,37.1600,0,0,194476
1.7351,0.3079,37.2200,0,0,194479
1.7204,0.3079,37.1600,0,0,194482
1.7400,0.3128,36.8500,0,0,194486
1.7058,0.3128,37.2200,0,0,194489
1.6813,0.3030,37.2500,0,0,194492
1.6471,0.3128,37.1900,0,0,194495
1.6080,0.3079,37.2500,0,0,194498
1.6422,0.3177,37.1300,0,0,194502
1.6667,0.3079,37.2500,0,0,194505
1.7889,0.3079,37.2200,0,0,194508
2.0039,0.3128,37.1300,0,0,194511
2.2336,0.3079,37.4300,0,0,194514
2.5611,0.3128,37.1300,0,0,194519
2.8446,0.3079,37.2500,0,0,194522
3.1525,0.3079,37.2500,0,0,194525
3.4506,0.3177,37.0400,0,0,194528
3.4848,0.3128,37.2200,0,0,194531
3.3724,0.3324,37.1600,0,0,194535
3.0596,0.3079,37.2200,0,0,194538
2.6882,0.3079,37.2500,0,0,194541
2.3705,0.3275,36.9800,0,0,194544
1.9697,0.3079,37.2500,0,0,194547
1.7253,0.3079,37.2500,0,0,194551
1.5640,0.3079,37.2500,0,0,194554
1.4663,0.3079,37.2500,0,0,194557
1.4125,0.3324,37.2500,0,0,194561
1.3881,0.3226,37.2200,0,0,194564
1.3685,0.3128,37.2500,0,0,194568
1.3587,0.3079,37.2200,0,0,194571
1.3587,0.3079,37.2500,0,0,194574
1.3636,0.3079,37.2200,0,0,194577
1.3539,0.3079,37.2500,0,0,194580
1.3490,0.3079,37.2500,0,0,194584
1.3539,0.3079,37.2800,0,0,194587
1.3636,0.3079,37.2800,0,0,194590
1.3734,0.3079,37.2800,0,0,194593
1.3734,0.3079,37.2500,0,0,194596
1.3783,0.3079,37.2800,0,0,194600
1.3832,0.3079,37.2800,0,0,194604
1.3930,0.3079,37.1600,0,0,194607
1.4125,0.3079,37.2500,0,0,194610
1.4272,0.3372,37.2800,0,0,194613
1.4418,0.3079,37.2500,0,0,194617
1.4467,0.3079,37.2500,0,0,194620
1.4858,0.3079,37.2500,0,0,194623
1.4712,0.2981,37.2500,0,0,194626
1.4663,0.3079,37.2200,0,0,194629
1.4858,0.3079,37.2500,0,0,194633
1.4956,0.3079,37.2500,0,0,194636
1.5152,0.3079,37.2200,0,0,194639
1.5200,0.3079,37.2500,0,0,194642
1.5298,0.3079,37.2500,0,0,194646
1.5494,0.3079,37.2500,0,0,194650
1.5640,0.3079,37.2500,0,0,194653
1.5787,0.3079,37.3100,0,0,194656
1.5885,0.3079,37.2200,0,0,194659
1.5982,0.3079,37.4000,0,0,194662
1.6080,0.3079,37.2500,0,0,194665
1.6129,0.3079,37.2800,0,0,194669
1.6227,0.3079,37.2500,0,0,194672
1.6325,0.3079,36.6700,0,0,194675
1.6471,0.3079,37.4600,0,0,194678
1.6569,0.3128,37.3100,0,0,194681
1.6716,0.3079,37.1900,0,0,194685
1.6716,0.3079,37.2800,0,0,194689
1.6764,0.3079,37.1900,0,0,194692
1.6813,0.3079,37.2500,0,0,194695
1.7155,0.2981,37.2200,0,0,194698
1.7058,0.2981,37.1900,0,0,194702
1.7400,0.3079,37.2500,0,0,194705
1.7546,0.3079,37.2500,0,0,194708
1.7351,0.3079,37.2800,0,0,194711
1.7644,0.3079,37.2500,0,0,194714
1.7840,0.3079,37.2200,0,0,194718
1.7840,0.3079,37.2200,0,0,194721
1.7986,0.3079,37.2500,0,0,194724
1.8035,0.3079,37.2500,0,0,194727
1.8280,0.3079,37.2200,0,0,194731
1.8377,0.3079,37.2500,0,0,194735
1.8573,0.3079,37.2500,0,0,194738
1.8719,0.3079,37.2500,0,0,194741
1.8866,0.3079,37.2800,0,0,194744
1.9110,0.3030,37.1900,0,0,194747
1.9257,0.3079,37.2500,0,0,194750
1.9501,0.3079,37.2500,0,0,194754
1.9599,0.3079,37.2500,0,0,194757
1.9795,0.3079,37.2500,0,0,194760
1.9844,0.3079,37.2500,0,0,194763
1.9990,0.3079,37.2500,0,0,194766
2.0088,0.3079,37.2800,0,0,194770
2.0332,0.3079,37.2200,0,0,194774
2.0430,0.3079,37.2200,0,0,194777
2.0479,0.3079,37.2500,0,0,194780
2.0577,0.3079,37.2500,0,0,194783
2.0381,0.3079,37.2500,0,0,194787
2.0332,0.3079,37.1900,0,0,194790
2.0381,0.2981,37.2500,0,0,194793
2.0381,0.3079,37.2500,0,0,194796
2.0039,0.2884,37.2500,0,0,194799
1.9892,0.3079,37.2500,0,0,194803
1.9844,0.2981,37.1900,0,0,194806
1.9453,0.3079,37.2500,0,0,194809
1.9208,0.3079,37.2500,0,0,194812
1.8866,0.3079,37.2500,0,0,194816
1.9062,0.3226,36.9500,0,0,194820
1.8377,0.3324,37.2500,0,0,194823
1.8377,0.2981,37.2500,0,0,194826
1.8573,0.3128,37.2200,0,0,194829
1.8524,0.2884,37.2500,0,0,194832
1.8964,0.3177,36.9500,0,0,194836
1.8475,0.3128,37.2800,0,0,194839
1.8475,0.3079,37.2200,0,0,194842
1.8426,0.3226,37.1900,0,0,194845
1.8671,0.3079,37.2200,0,0,194848
1.8671,0.3128,36.9800,0,0,194852
1.8328,0.3128,37.2200,0,0,194855
1.8475,0.3079,37.2500,0,0,194859
1.8475,0.3079,37.1600,0,0,194862
1.8426,0.3079,37.2800,0,0,194865
1.8768,0.3128,37.1000,0,0,194869
1.8524,0.3128,37.2200,0,0,194872
1.8866,0.2884,37.2500,0,0,194875
1.8768,0.3128,37.1600,0,0,194878
1.8573,0.3079,37.2500,0,0,194881
1.8768,0.3128,37.1300,0,0,194885
1.8475,0.3079,37.2800,0,0,194888
1.8573,0.3079,37.3400,0,0,194891
1.8915,0.3177,37.1000,0,0,194894
1.8573,0.2981,37.2200,0,0,194897
1.8915,0.3128,37.1300,0,0,194902
1.8475,0.3079,37.2200,0,0,194905
1.8573,0.2981,37.2500,0,0,194908
1.9110,0.3275,37.0400,0,0,194911
1.8622,0.3079,37.1900,0,0,194914
1.8671,0.3030,37.2200,0,0,194918
1.8622,0.3079,37.4000,0,0,194921
1.8622,0.3079,37.2200,0,0,194924
1.9159,0.3177,36.9100,0,0,194927
1.8671,0.3079,37.2500,0,0,194930
1.8671,0.3421,37.2800,0,0,194934
1.8524,0.3128,37.2500,0,0,194937
1.8475,0.3079,37.2500,0,0,194940
1.8866,0.3128,36.9800,0,0,194944
1.8524,0.3470,37.2500,0,0,194947
1.8671,0.3079,37.3100,0,0,194951
1.8768,0.3030,37.2200,0,0,194954
1.8671,0.3079,37.2500,0,0,194957
1.8866,0.3275,37.1000,0,0,194960
1.8426,0.3079,37.2200,0,0,194963
1.8426,0.3079,37.2500,0,0,194966
1.8573,0.3128,37.1900,0,0,194970
1.8426,0.3079,37.4300,0,0,194973
1.8768,0.3128,37.0100,0,0,194976
1.8475,0.3079,37.2500,0,0,194979
1.8524,0.3079,36.6400,0,0,194982
1.8719,0.3177,37.1600,0,0,194987
1.8426,0.3079,37.1900,0,0,194990
1.8622,0.3128,37.1600,0,0,194993
1.8328,0.3079,37.2500,0,0,194996
1.8328,0.3128,37.3700,0,0,194999
1.8817,0.3226,36.6700,0,0,195003
1.8328,0.3079,37.2500,0,0,195006
1.8377,0.3079,37.1600,0,0,195009
1.8231,0.2981,37.2200,0,0,195012
1.8133,0.3079,37.2500,0,0,195015
1.8573,0.3226,36.9500,0,0,195019
1.7986,0.3079,37.1900,0,0,195022
1.7937,0.3079,37.3700,0,0,195025
1.7937,0.3079,36.4900,0,0,195028
1.7937,0.3079,37.1000,0,0,195032
1.8426,0.3177,36.9100,0,0,195036
1.8133,0.3128,37.1900,0,0,195039
1.7986,0.2884,37.2800,0,0,195042
1.7840,0.3128,37.2200,0,0,195045
1.7693,0.3079,37.2200,0,0,195048
1.7937,0.3079,37.0400,0,0,195052
1.7644,0.3079,37.2200,0,0,195055
1.7693,0.3079,37.3700,0,0,195058
1.7791,0.3030,37.1900,0,0,195061
1.7742,0.3079,37.2800,0,0,195064
1.8084,0.3177,37.1300,0,0,195068
1.7742,0.3128,37.3100,0,0,195072
1.8035,0.3030,37.2800,0,0,195075
1.8035,0.3177,37.1600,0,0,195078
1.7840,0.3030,37.3100,0,0,195081
1.8035,0.3421,37.1300,0,0,195085
1.7791,0.3079,37.2500,0,0,195088
1.7840,0.3079,37.2800,0,0,195091
1.8231,0.3226,37.0700,0,0,195094
1.7791,0.3128,37.1900,0,0,195098
1.7644,0.3079,37.3100,0,0,195101
1.7937,0.3128,37.1000,0,0,195104
1.7742,0.3226,37.2200,0,0,195107
1.7791,0.3079,37.2800,0,0,195111
1.8133,0.3177,37.1000,0,0,195115
1.7791,0.3079,37.2200,0,0,195118
1.7986,0.3079,37.1300,0,0,195121
1.7889,0.3177,37.2500,0,0,195124
1.7937,0.3128,37.2500,0,0,195128
1.8426,0.3324,36.9800,0,0,195131
1.7889,0.3079,37.2200,0,0,195134
1.7937,0.3030,37.2200,0,0,195137
1.7937,0.3079,37.2200,0,0,195140
1.7986,0.3079,37.2500,0,0,195144
1.8475,0.3177,36.9100,0,0,195147
1.8084,0.3128,37.2500,0,0,195150
1.8182,0.3079,37.2200,0,0,195153
1.8280,0.3030,37.2200,0,0,195156
1.8573,0.2981,37.2800,0,0,195161
1.8817,0.3128,36.9800,0,0,195164
1.8573,0.3079,37.2500,0,0,195167
1.8719,0.3079,37.2500,0,0,195170
1.8817,0.3421,37.1900,0,0,195173
1.8915,0.3177,37.2500,0,0,195177
1.9404,0.3128,37.0700,0,0,195180
1.9306,0.3079,37.2500,0,0,195183
1.9550,0.2981,37.2500,0,0,195186
1.9941,0.3128,37.1600,0,0,195189
1.9892,0.3079,37.2800,0,0,195193
2.0186,0.3128,37.1000,0,0,195196
1.9892,0.3079,37.2800,0,0,195200
1.9844,0.3079,37.2800,0,0,195203
2.0039,0.3177,37.1300,0,0,195206
1.9550,0.3079,37.2500,0,0,195210
1.9550,0.3079,37.1000,0,0,195213
1.9208,0.3079,37.2800,0,0,195216
1.9062,0.3079,36.8500,0,0,195219
1.9453,0.3275,37.0700,0,0,195222
1.8768,0.3177,37.2200,0,0,195226
1.8671,0.2981,37.2200,0,0,195229
1.8377,0.3128,37.2800,0,0,195232
1.8182,0.3128,37.3100,0,0,195235
1.8377,0.3079,36.9800,0,0,195238
1.7644,0.3128,37.3100,0,0,195243
1.7498,0.3079,37.3100,0,0,195246
1.7302,0.3128,37.2200,0,0,195249
1.7204,0.2933,37.2800,0,0,195252
1.7889,0.3128,36.9100,0,0,195255
1.7009,0.3079,37.2500,0,0,195259
1.7058,0.3079,37.2500,0,0,195262
1.7058,0.3128,37.1900,0,0,195265
1.6911,0.3079,37.2500,0,0,195268
1.7253,0.3128,37.1600,0,0,195271
1.6960,0.3030,37.1900,0,0,195274
1.6960,0.3079,37.2200,0,0,195278
1.6862,0.3079,37.2800,0,0,195281
1.6520,0.3079,37.2500,0,0,195284
1.5885,0.3079,37.1900,0,0,195288
1.5152,0.3079,37.2500,0,0,195291
1.4761,0.3079,37.2500,0,0,195295
1.4761,0.3079,37.2800,0,0,195298
1.5298,0.3079,37.2500,0,0,195301
1.6373,0.3079,37.1300,0,0,195304
1.8035,0.3079,37.2800,0,0,195307
2.0430,0.3128,37.3100,0,0,195311
2.3265,0.3128,37.2200,0,0,195314
2.6442,0.3030,37.2200,0,0,195317
2.9326,0.3079,37.2500,0,0,195320
3.1476,0.3128,37.2500,0,0,195323
3.2063,0.2981,37.2800,0,0,195328
3.0792,0.3079,37.2200,0,0,195331
2.7517,0.3079,37.1900,0,0,195334
2.3851,0.3079,37.2500,0,0,195337
2.0430,0.3079,37.2800,0,0,195340
1.7351,0.3079,37.2200,0,0,195344
1.5200,0.3079,37.2500,0,0,195347
1.3685,0.3079,37.2200,0,0,195350
1.3050,0.3079,37.2800,0,0,195353
1.2854,0.2981,37.2200,0,0,195356
1.2610,0.3079,37.2200,0,0,195359
1.2805,0.3079,37.2200,0,0,195363
1.3099,0.2884,37.2200,0,0,195366
1.3294,0.3079,37.2500,0,0,195369
1.3441,0.3079,37.2500,0,0,195373
1.3636,0.3030,37.1900,0,0,195376
1.3832,0.3079,37.2200,0,0,195380
1.3881,0.3079,37.2800,0,0,195383
1.3930,0.3079,37.1900,0,0,195386
1.4027,0.3079,37.4600,0,0,195389
1.4174,0.3079,37.2200,0,0,195392
1.4321,0.3079,37.2500,0,0,195396
1.4516,0.3079,36.4600,0,0,195399
1.4761,0.3079,37.1600,0,0,195402
1.4907,0.3079,37.2800,0,0,195405
1.5054,0.3079,37.2500,0,0,195408
1.5103,0.3079,37.2500,0,0,195412
1.5200,0.3177,37.2500,0,0,195416
1.5396,0.3079,37.3400,0,0,195419
1.5543,0.3079,37.2200,0,0,195422
1.5738,0.3079,37.1300,0,0,195425
1.5787,0.3079,37.2500,0,0,195429
1.5934,0.3079,37.2500,0,0,195432
1.6422,0.3030,37.2500,0,0,195435
1.6178,0.3030,37.2200,0,0,195438
1.6325,0.3030,37.2200,0,0,195441
1.6373,0.2981,37.2500,0,0,195445
1.6276,0.3079,37.2800,0,0,195448
1.6373,0.3079,37.1900,0,0,195451
1.6471,0.3079,37.2500,0,0,195454
1.6569,0.3079,37.3100,0,0,195458
1.6667,0.3079,37.2800,0,0,195462
1.6716,0.3079,37.2200,0,0,195465
1.6764,0.3079,37.2200,0,0,195468
1.6813,0.3079,37.2200,0,0,195471
1.6911,0.3128,37.3100,0,0,195474
1.7058,0.3079,37.3700,0,0,195477
1.7204,0.3079,37.2500,0,0,195481
1.7351,0.3079,37.3700,0,0,195484
1.7400,0.3079,37.3100,0,0,195487
1.7400,0.3128,37.2200,0,0,195490
1.7498,0.3079,37.2500,0,0,195493
1.7595,0.3079,37.4000,0,0,195497
1.7742,0.3079,37.3400,0,0,195501
1.7889,0.3079,37.2500,0,0,195504
1.7986,0.3079,37.2500,0,0,195507
1.8035,0.3079,37.2200,0,0,195510
1.8133,0.3079,37.1600,0,0,195514
1.8182,0.3079,37.1600,0,0,195517
1.8182,0.3079,37.2200,0,0,195520
1.8231,0.3324,37.2500,0,0,195523
1.8231,0.2981,37.2500,0,0,195526
1.8524,0.3079,37.2500,0,0,195530
1.8573,0.3079,37.2500,0,0,195533
1.8719,0.3079,37.2800,0,0,195536
1.8915,0.3128,37.1900,0,0,195539
1.9208,0.3079,37.2500,0,0,195543
1.9892,0.3079,37.1000,0,0,195547
1.9941,0.3079,37.4000,0,0,195550
2.0430,0.3079,37.2500,0,0,195553
2.1065,0.3079,37.1600,0,0,195556
2.1212,0.3079,37.2200,0,0,195559
2.1799,0.3128,37.2800,0,0,195563
2.1701,0.3079,37.2500,0,0,195566
2.1896,0.3079,37.4600,0,0,195569
2.2434,0.3324,37.0400,0,0,195572
2.2141,0.3030,37.2500,0,0,195575
2.2336,0.3177,37.1900,0,0,195579
2.2581,0.2981,37.2500,0,0,195582
2.2336,0.3079,37.2800,0,0,195586
2.2972,0.3275,37.0100,0,0,195589
2.2239,0.3079,37.2800,0,0,195592
2.2092,0.3030,37.2200,0,0,195595
2.1848,0.3079,37.2500,0,0,195599
2.1554,0.3079,37.2500,0,0,195602
2.1848,0.3226,36.2500,0,0,195605
2.0968,0.3030,37.1900,0,0,195608
2.0723,0.3079,37.1900,0,0,195611
2.0430,0.3079,36.5200,0,0,195615
2.0088,0.3079,37.2800,0,0,195618
2.0088,0.3128,37.0100,0,0,195621
1.9501,0.3079,37.2200,0,0,195624
1.9208,0.3079,37.2500,0,0,195628
1.9062,0.3079,37.1900,0,0,195632
1.8719,0.3079,37.2200,0,0,195635
1.8817,0.3177,37.1600,0,0,195638
1.8280,0.3079,37.2500,0,0,195641
1.8182,0.3079,37.2500,0,0,195644
1.8573,0.3128,37.1900,0,0,195648
1.8084,0.3079,37.2200,0,0,195651
1.8182,0.3128,37.0700,0,0,195654
1.7937,0.2884,37.2500,0,0,195657
1.7889,0.3079,37.2500,0,0,195660
1.8231,0.3177,37.1900,0,0,195664
1.7889,0.3079,37.1300,0,0,195667
1.7986,0.3079,37.1300,0,0,195671
1.8182,0.2981,37.2200,0,0,195674
1.7986,0.3079,37.2500,0,0,195677
1.8377,0.3324,37.0100,0,0,195681
1.7889,0.3079,37.2200,0,0,195684
1.7937,0.3030,37.2200,0,0,195687
1.7889,0.3079,37.3100,0,0,195690
1.7937,0.3079,37.2200,0,0,195693
1.8426,0.3177,36.9500,0,0,195697
1.8035,0.3079,37.2200,0,0,195700
1.8084,0.3079,37.2500,0,0,195703
1.8084,0.3177,37.1900,0,0,195706
1.8035,0.3079,37.2800,0,0,195710
1.8035,0.3079,37.2500,0,0,195714
1.8475,0.3177,37.0100,0,0,195717
1.7937,0.3079,37.2200,0,0,195720
1.8084,0.3079,37.2800,0,0,195723
1.8182,0.3079,36.4600,0,0,195727
1.8231,0.3079,37.2800,0,0,195730
1.8573,0.3128,37.0100,0,0,195733
1.8182,0.3079,37.2200,0,0,195736
1.8377,0.2981,37.2500,0,0,195739
1.8133,0.3128,37.1900,0,0,195743
1.8084,0.3079,37.2200,0,0,195746
1.8475,0.3128,36.3100,0,0,195749
1.8231,0.3079,37.1600,0,0,195752
1.8328,0.3079,37.3400,0,0,195756
1.8426,0.3421,37.1600,0,0,195760
1.8328,0.3177,37.2200,0,0,195763
1.8671,0.3128,37.1000,0,0,195766
1.8377,0.3079,37.2500,0,0,195769
1.8280,0.3079,37.2500,0,0,195772
1.8084,0.3079,37.2500,0,0,195776
1.7889,0.3079,37.2500,0,0,195779
1.7595,0.3079,37.2500,0,0,195782
1.7351,0.3079,37.2500,0,0,195785
1.7058,0.3079,37.2500,0,0,195788
1.6911,0.3079,37.2200,0,0,195792
1.6813,0.3079,37.3100,0,0,195795
1.6667,0.3030,37.4600,0,0,195799
1.6618,0.3079,37.3400,0,0,195802
1.6569,0.3079,37.2500,0,0,195805
1.6471,0.3079,37.1600,0,0,195809
1.6373,0.3079,37.1300,0,0,195812
1.6227,0.3079,37.2500,0,0,195815
1.6129,0.3079,37.2200,0,0,195818
1.6080,0.3079,37.2500,0,0,195821
1.6129,0.3177,37.3100,0,0,195825
1.6178,0.3030,37.2500,0,0,195828
1.6227,0.2933,37.2500,0,0,195831
1.6227,0.3079,37.2500,0,0,195834
1.6373,0.3079,37.2500,0,0,195837
1.6422,0.2981,37.2500,0,0,195842
1.6471,0.3079,37.2500,0,0,195845
1.6667,0.3030,37.2500,0,0,195848
1.6764,0.3079,37.2200,0,0,195851
1.6862,0.3079,37.2500,0,0,195854
1.6960,0.3275,37.2500,0,0,195858
1.7058,0.2981,37.2800,0,0,195861
1.7155,0.3275,37.2500,0,0,195864
1.7204,0.3030,37.2800,0,0,195867
1.7351,0.3079,37.2200,0,0,195870
1.7449,0.3079,37.2500,0,0,195874
1.7204,0.3079,37.2500,0,0,195877
1.7204,0.3079,37.2500,0,0,195880
1.7253,0.3079,37.2500,0,0,195884
1.7351,0.3079,37.2200,0,0,195887
1.7351,0.3079,37.2800,0,0,195891
1.7351,0.3079,37.3100,0,0,195894
1.7302,0.3079,37.2800,0,0,195897
1.7302,0.3079,37.2200,0,0,195900
1.7351,0.3079,37.2800,0,0,195903
1.7400,0.3079,37.2800,0,0,195907
1.7449,0.3079,37.2800,0,0,195910
1.7449,0.3079,37.2800,0,0,195913
1.7498,0.3079,37.2200,0,0,195916
1.7546,0.3030,37.2500,0,0,195919
1.7644,0.3079,37.2500,0,0,195922
1.7742,0.3079,37.1900,0,0,195927
1.7840,0.3079,37.2500,0,0,195930
1.7889,0.3128,37.2200,0,0,195933
1.8035,0.3079,37.2200,0,0,195936
1.8133,0.3128,37.2800,0,0,195939
1.7937,0.2884,37.2500,0,0,195943
1.7889,0.3079,37.2800,0,0,195946
1.7937,0.3079,37.2200,0,0,195949
1.7937,0.3079,37.2500,0,0,195952
1.8035,0.3079,37.2200,0,0,195955
1.8084,0.3079,37.2500,0,0,195959
1.8231,0.3079,37.2200,0,0,195962
1.8377,0.3079,37.3100,0,0,195965
1.8524,0.3079,37.2800,0,0,195969
1.8671,0.3128,37.2500,0,0,195972
1.8768,0.3079,37.3400,0,0,195976
1.8964,0.3079,37.2500,0,0,195979
1.9159,0.3079,37.4300,0,0,195982
1.9453,0.3079,36.4900,0,0,195985
1.9697,0.3079,37.2500,0,0,195988
1.9795,0.3079,37.1600,0,0,195992
1.9892,0.3372,37.1900,0,0,195995
1.9892,0.3079,37.3100,0,0,195998
1.9844,0.3128,37.2500,0,0,196001
1.9697,0.3079,37.2500,0,0,196004
1.9550,0.3079,37.2500,0,0,196008
1.9355,0.3079,37.2200,0,0,196012
1.9159,0.3079,37.2500,0,0,196015
1.8817,0.3079,37.2500,0,0,196018
1.8719,0.3079,37.2500,0,0,196021
1.8622,0.3079,37.3100,0,0,196025
1.8426,0.3128,37.2500,0,0,196028
1.8280,0.3128,37.2500,0,0,196031
1.8133,0.3226,37.1900,0,0,196034
1.7986,0.3079,37.2200,0,0,196037
1.8377,0.3177,37.1600,0,0,196041
1.8182,0.2884,37.2200,0,0,196044
1.8084,0.3079,37.2500,0,0,196047
1.7986,0.3030,37.2500,0,0,196050
1.7791,0.3030,37.2500,0,0,196054
1.7595,0.3030,37.2200,0,0,196058
1.7449,0.3079,37.2200,0,0,196061
1.7351,0.3079,37.2200,0,0,196064
1.7204,0.3079,37.2500,0,0,196067
1.7155,0.3079,37.2500,0,0,196070
1.7009,0.3079,37.3100,0,0,196074
1.6911,0.3079,37.2500,0,0,196077
1.6862,0.3079,37.2500,0,0,196080
1.6716,0.3079,37.1600,0,0,196083
1.6422,0.3079,37.2200,0,0,196086
1.5885,0.3079,37.1900,0,0,196089
1.5543,0.3079,37.3400,0,0,196093
1.5543,0.3128,37.3100,0,0,196097
1.6031,0.2981,37.2200,0,0,196100
1.7107,0.3079,37.2200,0,0,196103
1.8817,0.3275,37.2500,0,0,196106
2.1310,0.3079,37.2500,0,0,196110
2.4242,0.3079,37.2500,0,0,196113
2.7615,0.2884,37.2500,0,0,196116
3.0743,0.3079,37.2500,0,0,196119
3.3333,0.3079,37.2200,0,0,196122
3.4506,0.3079,37.2500,0,0,196126
3.3480,0.3079,37.2500,0,0,196129
3.0645,0.3128,37.2500,0,0,196132
2.6833,0.3079,37.2500,0,0,196135
2.2972,0.3079,37.2500,0,0,196139
1.9599,0.3079,37.2500,0,0,196143
1.7107,0.3079,37.4600,0,0,196146
1.5494,0.3079,37.2200,0,0,196149
1.4565,0.3079,37.3100,0,0,196152
1.4223,0.3079,37.2500,0,0,196155
1.4223,0.3079,37.3400,0,0,196159
1.4370,0.3079,37.2500,0,0,196162
1.4370,0.3079,37.2200,0,0,196165
1.4516,0.3079,37.2800,0,0,196168
1.4614,0.3177,37.3100,0,0,196171
1.4761,0.3128,37.2200,0,0,196175
1.4907,0.2981,37.2500,0,0,196178
1.5200,0.3079,37.2800,0,0,196182
1.5445,0.3128,37.2800,0,0,196185
1.5640,0.3079,37.2500,0,0,196188
1.5738,0.3079,37.2500,0,0,196192
1.5787,0.2884,37.2800,0,0,196195
1.5787,0.3030,37.2200,0,0,196198
1.5738,0.3079,37.2500,0,0,196201
1.5885,0.3079,37.2800,0,0,196204
1.5982,0.3079,37.2500,0,0,196208
1.6080,0.3079,37.2200,0,0,196211
1.6178,0.3079,37.2500,0,0,196214
1.6227,0.3079,37.2500,0,0,196217
1.6325,0.3079,37.3100,0,0,196220
1.6471,0.3079,37.2200,0,0,196224
1.6569,0.3079,37.2500,0,0,196228
1.6667,0.3128,37.2500,0,0,196231
1.6716,0.3079,37.2500,0,0,196234
1.6764,0.3226,37.2500,0,0,196237
1.6911,0.3030,37.2200,0,0,196240
1.7058,0.3128,37.3100,0,0,196244
1.7107,0.3079,37.2500,0,0,196247
1.7204,0.3079,37.2500,0,0,196250
1.7302,0.3079,37.2500,0,0,196253
1.7351,0.3079,37.2500,0,0,196256
1.7253,0.3079,37.2500,0,0,196260
1.7351,0.3079,37.2500,0,0,196263
1.7351,0.3079,37.2500,0,0,196267
1.7449,0.3079,37.2200,0,0,196270
1.7449,0.3079,37.2200,0,0,196273
1.7546,0.3079,37.1300,0,0,196277
1.7644,0.3079,37.2500,0,0,196280
1.7791,0.3079,37.2200,0,0,196283
1.7840,0.2981,37.1900,0,0,196286
1.7889,0.3030,37.2500,0,0,196289
1.7986,0.3030,37.2500,0,0,196293
1.8084,0.2981,37.2500,0,0,196296
1.8231,0.3128,37.2200,0,0,196299
1.8182,0.3079,37.2500,0,0,196302
1.8622,0.3079,37.2200,0,0,196305
1.8328,0.3079,37.2500,0,0,196310
1.8475,0.3079,37.3700,0,0,196313
1.8719,0.3079,37.2500,0,0,196316
1.8915,0.3079,37.3100,0,0,196319
1.9550,0.3079,37.2200,0,0,196323
1.9648,0.3079,37.2800,0,0,196326
1.9795,0.3079,37.2500,0,0,196329
1.9892,0.3079,37.0100,0,0,196332
2.0039,0.3079,37.1600,0,0,196336
2.0039,0.3079,37.2200,0,0,196339
2.0088,0.3079,37.2500,0,0,196342
2.0088,0.3079,37.2200,0,0,196345
2.0137,0.3079,37.2200,0,0,196348
2.0430,0.3079,37.1900,0,0,196352
2.0430,0.3079,37.3100,0,0,196356
2.0528,0.3079,37.2500,0,0,196359
2.0626,0.3421,37.2500,0,0,196362
2.0674,0.3079,37.2200,0,0,196365
2.0674,0.3079,37.3400,0,0,196368
2.0674,0.3079,37.0100,0,0,196372
2.0723,0.3128,37.3100,0,0,196375
2.0626,0.3079,37.2500,0,0,196378
2.0479,0.3079,37.1600,0,0,196381
2.0235,0.3079,37.2500,0,0,196384
1.9990,0.3079,37.2800,0,0,196387
1.9746,0.3079,37.2500,0,0,196391
1.9453,0.3079,37.3400,0,0,196395
1.9110,0.3079,37.2500,0,0,196398
1.8768,0.3079,36.4900,0,0,196401
1.8475,0.3079,37.2500,0,0,196404
1.8231,0.3275,37.2200,0,0,196408
1.8035,0.3128,37.2500,0,0,196411
1.7742,0.3128,37.2200,0,0,196414
1.7498,0.2981,37.2500,0,0,196417
1.7253,0.3079,37.2500,0,0,196420
1.7155,0.3079,37.2500,0,0,196424
1.6960,0.3079,37.2200,0,0,196427
1.6960,0.3079,37.2500,0,0,196430
1.6911,0.3079,37.2500,0,0,196433
1.6764,0.3079,37.2200,0,0,196436
1.6667,0.3128,37.2500,0,0,196441
1.6520,0.3079,37.2800,0,0,196444
1.6520,0.3079,37.3400,0,0,196447
1.6520,0.3079,37.2800,0,0,196450
1.6618,0.3079,37.2200,0,0,196453
1.6716,0.3079,37.2800,0,0,196457
1.6716,0.3226,37.2500,0,0,196460
1.6764,0.3079,37.3100,0,0,196463
1.6911,0.2981,37.2500,0,0,196466
1.7302,0.2884,37.2200,0,0,196469
1.7204,0.2981,37.2200,0,0,196473
1.7400,0.2981,37.1900,0,0,196476
1.7351,0.3030,37.2200,0,0,196480
1.7449,0.3079,37.2500,0,0,196483
1.7498,0.3079,37.2200,0,0,196486
1.7595,0.3079,37.2200,0,0,196490
1.7595,0.3079,37.2500,0,0,196493
1.7595,0.3079,37.2500,0,0,196496
1.7595,0.3079,37.2500,0,0,196499
1.7595,0.3079,37.2500,0,0,196502
1.7644,0.3128,37.2500,0,0,196506
1.7644,0.3079,37.3400,0,0,196509
1.7742,0.3079,37.2800,0,0,196512
1.7791,0.3079,37.2200,0,0,196515
1.7889,0.3128,37.2200,0,0,196518
1.7937,0.3128,37.2200,0,0,196523
1.7986,0.2981,37.2500,0,0,196526
1.8231,0.3079,37.2500,0,0,196529
1.8084,0.3079,37.2200,0,0,196532
1.8084,0.3079,37.2200,0,0,196535
1.8084,0.3079,37.2800,0,0,196539
1.8084,0.3030,37.2200,0,0,196542
1.8084,0.2884,37.2200,0,0,196545
1.8280,0.2981,37.1900,0,0,196548
1.8182,0.2981,37.2200,0,0,196551
1.8377,0.2884,37.2200,0,0,196554
1.8377,0.3079,37.2500,0,0,196558
1.8817,0.3226,36.9800,0,0,196561
1.8328,0.3079,37.2200,0,0,196564
1.8524,0.3079,37.2500,0,0,196568
1.8817,0.3128,37.2200,0,0,196571
1.9013,0.3079,37.2500,0,0,196575
1.9501,0.3128,37.1900,0,0,196578
1.9501,0.2884,37.2500,0,0,196581
1.9599,0.3079,37.2500,0,0,196584
1.9697,0.2981,37.2500,0,0,196587
1.9648,0.3079,37.2800,0,0,196591
1.9453,0.3079,37.2200,0,0,196594
1.9208,0.3079,37.2200,0,0,196597
1.8964,0.3079,37.2200,0,0,196600
1.8817,0.3079,37.2500,0,0,196603
1.8719,0.3079,37.3400,0,0,196608
1.8671,0.3128,37.1300,0,0,196611
1.8622,0.3079,37.2800,0,0,196614
1.8573,0.3079,36.4900,0,0,196617
1.8573,0.3128,37.2200,0,0,196620
1.8573,0.3079,37.2500,0,0,196624
1.8817,0.2981,37.2800,0,0,196627
1.8377,0.2884,37.2500,0,0,196630
1.8231,0.3079,37.2500,0,0,196633
1.8133,0.3079,37.2500,0,0,196636
1.8084,0.3079,37.2500,0,0,196640
1.7937,0.3079,37.3400,0,0,196643
1.7937,0.3079,37.3100,0,0,196646
1.8035,0.3079,37.2500,0,0,196649
1.8035,0.3079,37.2200,0,0,196653
1.8084,0.3079,37.1900,0,0,196657
1.8035,0.3079,37.0700,0,0,196660
1.8035,0.3079,37.2500,0,0,196663
1.8035,0.3079,37.2500,0,0,196666
1.7986,0.3079,37.2800,0,0,196669
1.7986,0.3079,37.3100,0,0,196673
1.7986,0.3079,37.2500,0,0,196676
1.7937,0.3079,37.2200,0,0,196679
1.7986,0.3079,37.2800,0,0,196682
1.8084,0.3079,37.2200,0,0,196685
1.8035,0.3030,37.3100,0,0,196689
1.8035,0.3079,37.2800,0,0,196692
1.8035,0.3079,37.1600,0,0,196696
1.8084,0.3079,37.1600,0,0,196699
1.8133,0.3079,37.2500,0,0,196702
1.8084,0.3079,37.2500,0,0,196705
1.8133,0.3079,37.2200,0,0,196709
1.8231,0.3079,37.1900,0,0,196712
1.8280,0.3079,37.3700,0,0,196715
1.8280,0.3079,37.1000,0,0,196718
1.8084,0.3079,37.2500,0,0,196721
1.7840,0.3079,37.2500,0,0,196725
1.7742,0.3079,37.2500,0,0,196728
1.7693,0.3079,36.4600,0,0,196731
1.7644,0.3079,37.2200,0,0,196734
1.7595,0.3079,37.2500,0,0,196738
1.7644,0.3079,37.3400,0,0,196742
1.7742,0.3177,37.2500,0,0,196745
1.7840,0.3079,37.2500,0,0,196748
1.7889,0.3079,37.2500,0,0,196751
1.7986,0.3128,37.2500,0,0,196754
1.8035,0.3079,37.2200,0,0,196758
1.8035,0.3079,37.2200,0,0,196761
1.8133,0.3030,37.2500,0,0,196764
1.8524,0.2981,37.2500,0,0,196767
1.8133,0.3079,37.2500,0,0,196770
1.8084,0.3079,37.2200,0,0,196774
1.8133,0.3079,37.2800,0,0,196777
1.8231,0.3079,37.2800,0,0,196781
1.8377,0.3079,37.2800,0,0,196784
1.8524,0.3079,37.2500,0,0,196787
1.8622,0.3079,37.2500,0,0,196791
1.8719,0.3030,37.1900,0,0,196794
1.8768,0.3177,37.2500,0,0,196797
1.8817,0.3128,37.2200,0,0,196800
1.8964,0.3030,37.2500,0,0,196803
1.9404,0.3079,37.2500,0,0,196807
1.9306,0.3079,37.2200,0,0,196810
1.9453,0.2981,37.3100,0,0,196813
1.9501,0.3079,37.2200,0,0,196816
1.9453,0.3079,37.2800,0,0,196819
1.9404,0.3030,37.2200,0,0,196823
1.9159,0.3079,37.2500,0,0,196827
1.9110,0.3079,37.2500,0,0,196830
1.9062,0.3079,37.2200,0,0,196833
1.8915,0.3079,37.2500,0,0,196836
1.8768,0.3079,37.2200,0,0,196839
1.8573,0.3079,37.2500,0,0,196843
1.8475,0.3079,37.1600,0,0,196846
1.8573,0.3079,37.1300,0,0,196849
1.8915,0.3079,37.1600,0,0,196852
1.8866,0.3079,37.1000,0,0,196855
1.8866,0.3079,37.1600,0,0,196859
1.8719,0.3079,37.2500,0,0,196862
1.8426,0.3079,37.3400,0,0,196866
1.8084,0.3177,37.1900,0,0,196869
1.7693,0.3079,37.1900,0,0,196872
1.7498,0.3226,37.2200,0,0,196876
1.7302,0.3324,37.3100,0,0,196879
1.7155,0.2884,37.1900,0,0,196882
1.7302,0.2981,37.2200,0,0,196885
1.7302,0.2981,37.2200,0,0,196888
1.7009,0.3079,37.2500,0,0,196892
1.6960,0.3079,37.2500,0,0,196895
1.6862,0.3079,37.2500,0,0,196898
1.6911,0.3079,37.2500,0,0,196901
1.6862,0.3079,37.2500,0,0,196904
1.6618,0.3079,37.3400,0,0,196909
1.6178,0.3079,37.2800,0,0,196912
1.5787,0.3079,37.2500,0,0,196915
1.5640,0.3079,36.4600,0,0,196918
1.5934,0.3079,37.1600,0,0,196921
1.6764,0.3079,37.2800,0,0,196925
1.8182,0.3079,37.2800,0,0,196928
2.0381,0.3324,37.1900,0,0,196931
2.3021,0.3030,37.2200,0,0,196934
2.6100,0.3079,37.2800,0,0,196937
2.9326,0.3128,37.2500,0,0,196940
2.7810,0.3079,37.2200,0,0,196945
2.3851,0.3079,37.2200,0,0,196948
2.0283,0.3079,37.3100,0,0,196952
1.7351,0.3030,37.2500,0,0,196956
1.5591,0.3128,37.0100,0,0,196959
1.4565,0.3079,37.3100,0,0,196962
1.4027,0.3079,37.1900,0,0,196965
1.4076,0.3128,37.3400,0,0,196968
1.4125,0.3079,37.2500,0,0,196972
1.4370,0.3079,37.2500,0,0,196975
1.4565,0.3079,37.2500,0,0,196978
1.4712,0.3079,37.2200,0,0,196981
1.4761,0.3079,37.2200,0,0,196984
1.4858,0.3030,37.2500,0,0,196988
1.5005,0.3030,37.2500,0,0,196992
1.5152,0.3128,37.2500,0,0,196995
1.5445,0.3128,37.2200,0,0,196998
1.5396,0.3079,37.2500,0,0,197001
1.5445,0.2981,37.2500,0,0,197005
1.5591,0.3079,37.2500,0,0,197008
1.5689,0.3079,37.2200,0,0,197011
1.5787,0.3128,37.2200,0,0,197014
1.5934,0.3079,37.2800,0,0,197017
1.6080,0.3030,37.3100,0,0,197021
1.6276,0.3079,37.2200,0,0,197024
1.6422,0.3079,37.0400,0,0,197027
1.6520,0.3079,37.2500,0,0,197030
1.6520,0.3079,37.2800,0,0,197033
1.6569,0.3079,37.3700,0,0,197037
1.6618,0.3079,37.3700,0,0,197041
1.6716,0.3079,37.2200,0,0,197044
1.6716,0.3275,37.2500,0,0,197047
1.6764,0.3079,37.2500,0,0,197050
1.6911,0.2933,37.2500,0,0,197053
1.7058,0.3079,37.2200,0,0,197057
1.7058,0.3079,37.2200,0,0,197060
1.7009,0.3079,37.2200,0,0,197063
1.7351,0.3079,37.2200,0,0,197066
1.7058,0.3079,37.2500,0,0,197069
1.7107,0.3079,37.2200,0,0,197073
1.7107,0.3079,37.2200,0,0,197076
1.7302,0.3079,37.2500,0,0,197080
1.7351,0.3079,37.2500,0,0,197083
1.7449,0.3079,37.2500,0,0,197086
1.7595,0.3079,37.2200,0,0,197090
1.7644,0.3079,37.3100,0,0,197093
1.7742,0.3079,37.2500,0,0,197096
1.7840,0.3079,37.3100,0,0,197099
1.7889,0.3079,37.2800,0,0,197102
1.8084,0.3128,37.1300,0,0,197106
1.8035,0.3079,37.2200,0,0,197109
1.8182,0.3079,37.2200,0,0,197112
1.8328,0.3079,37.1600,0,0,197115
1.8426,0.3128,37.2200,0,0,197118
1.8475,0.3030,37.2200,0,0,197123
1.8524,0.3128,37.2800,0,0,197126
1.8622,0.3030,37.2500,0,0,197129
1.8768,0.3079,37.2200,0,0,197132
1.9062,0.2884,37.2200,0,0,197135
1.8915,0.3079,37.2500,0,0,197139
1.9062,0.3079,37.2500,0,0,197142
1.9110,0.3079,37.2500,0,0,197145
1.9257,0.3079,37.2800,0,0,197148
1.9404,0.3079,37.2200,0,0,197151
1.9501,0.3079,37.3100,0,0,197155
1.9648,0.3079,37.2500,0,0,197158
1.9844,0.3079,37.2500,0,0,197161
2.0039,0.3128,37.2500,0,0,197165
2.0186,0.3079,37.2500,0,0,197168
2.0283,0.3079,37.2200,0,0,197171
2.0528,0.3079,37.2200,0,0,197175
2.0528,0.3079,37.2500,0,0,197178
2.0626,0.3128,37.2500,0,0,197181
2.0626,0.3079,37.2200,0,0,197184
2.0674,0.3079,37.2200,0,0,197187
2.0626,0.3128,37.2500,0,0,197191
2.0577,0.3079,37.2200,0,0,197194
2.0528,0.2981,37.2200,0,0,197197
2.0381,0.2981,37.3100,0,0,197200
2.0283,0.3177,37.2500,0,0,197203
2.0088,0.2884,37.2500,0,0,197208
1.9990,0.3128,37.2200,0,0,197211
1.9746,0.3128,37.2200,0,0,197214
1.9550,0.3030,37.2200,0,0,197217
1.9257,0.2884,37.2500,0,0,197220
1.9110,0.3079,37.2500,0,0,197224
1.8817,0.2884,37.2200,0,0,197227
1.8573,0.3079,37.2500,0,0,197230
1.8182,0.3079,37.2500,0,0,197233
1.7986,0.3079,37.2500,0,0,197236
1.7742,0.3079,37.2200,0,0,197240
1.7498,0.3079,37.4900,0,0,197243
1.7204,0.3079,37.2500,0,0,197246
1.6911,0.3079,37.2500,0,0,197250
1.6716,0.3079,37.2500,0,0,197253
1.6618,0.3275,37.2200,0,0,197257
1.6520,0.3079,37.2500,0,0,197260
1.6520,0.3128,37.2500,0,0,197263
1.6471,0.2933,37.2500,0,0,197266
1.6422,0.3079,37.2200,0,0,197269
1.6422,0.3079,37.2200,0,0,197272
1.6422,0.3030,37.2500,0,0,197276
1.6520,0.3079,37.2200,0,0,197279
1.6520,0.3079,37.2800,0,0,197282
1.6618,0.3079,37.2200,0,0,197285
1.6667,0.3079,37.2200,0,0,197288
1.6813,0.3079,37.2500,0,0,197293
1.7009,0.3128,37.2500,0,0,197296
1.7107,0.3079,37.2200,0,0,197299
1.7107,0.3079,37.2200,0,0,197302
1.7009,0.3079,37.2800,0,0,197305
1.6960,0.3079,37.2500,0,0,197309
1.6960,0.3079,37.2500,0,0,197312
1.7058,0.3079,37.2500,0,0,197315
1.7204,0.3079,37.2800,0,0,197318
1.7253,0.3079,37.3400,0,0,197321
1.7302,0.3079,37.2500,0,0,197325
1.7400,0.3128,37.2500,0,0,197328
1.7449,0.3079,37.2200,0,0,197331
1.7498,0.3030,37.1000,0,0,197335
1.7546,0.3079,37.3100,0,0,197338
1.7693,0.3079,37.3100,0,0,197342
1.7742,0.3079,37.2800,0,0,197345
1.7889,0.3079,37.1900,0,0,197348
1.7840,0.3079,37.3100,0,0,197351
1.7840,0.3079,37.3100,0,0,197354
1.7742,0.3079,37.3400,0,0,197358
1.7742,0.3079,37.3400,0,0,197361
1.7742,0.3079,37.2500,0,0,197364
1.7693,0.3079,37.2500,0,0,197367
1.7644,0.3079,37.2800,0,0,197370
1.7937,0.3226,37.1600,0,0,197373
1.7840,0.3324,37.2200,0,0,197378
1.8280,0.3128,37.1600,0,0,197381
1.8524,0.3079,37.2500,0,0,197384
1.8768,0.3079,37.2500,0,0,197387
1.9013,0.3079,37.2500,0,0,197390
1.8915,0.3079,37.2500,0,0,197394
1.8768,0.3079,37.2500,0,0,197397
1.8622,0.3079,37.2800,0,0,197400
1.8524,0.3079,37.2800,0,0,197403
1.8426,0.3079,37.3700,0,0,197406
1.8328,0.3079,37.2800,0,0,197410
1.8182,0.3079,37.2500,0,0,197413
1.8133,0.3128,37.2500,0,0,197416
1.8035,0.3226,37.2200,0,0,197420
1.7986,0.3079,37.2500,0,0,197423
1.7889,0.3372,37.2200,0,0,197427
1.7791,0.3030,37.2500,0,0,197430
1.7840,0.3079,37.2500,0,0,197433
1.7889,0.2884,37.2500,0,0,197436
1.7791,0.3079,37.2500,0,0,197439
1.8133,0.3079,37.2500,0,0,197443
1.7840,0.3079,37.2200,0,0,197446
1.7889,0.3079,37.2200,0,0,197449
1.8133,0.3079,37.2500,0,0,197452
1.7937,0.3079,37.2200,0,0,197455
1.7986,0.3079,37.2500,0,0,197459
1.8084,0.3079,37.2500,0,0,197463
1.8035,0.3079,37.2500,0,0,197466
1.7986,0.3079,37.3100,0,0,197469
1.7889,0.3079,37.2200,0,0,197472
1.7742,0.3079,37.2200,0,0,197476
1.7791,0.3079,37.2500,0,0,197479
1.7840,0.3079,37.2500,0,0,197482
1.7889,0.3079,37.3700,0,0,197485
1.7791,0.3079,37.3100,0,0,197488
1.7693,0.3079,37.2500,0,0,197492
1.7693,0.3079,37.1600,0,0,197495
1.7840,0.3079,37.1900,0,0,197498
1.7937,0.3079,37.2500,0,0,197501
1.7937,0.3079,37.4300,0,0,197505
1.7840,0.3079,37.2500,0,0,197508
1.7840,0.3079,37.2500,0,0,197512
1.7889,0.3079,37.3400,0,0,197515
1.7889,0.3079,37.2800,0,0,197518
1.7889,0.3128,37.3100,0,0,197521
1.7889,0.3079,37.2500,0,0,197524
1.7889,0.3079,37.3400,0,0,197528
1.7937,0.3079,37.2200,0,0,197531
1.7937,0.3030,37.2200,0,0,197534
1.7986,0.3079,37.1600,0,0,197537
1.8035,0.3079,37.3400,0,0,197540
1.8084,0.3079,37.2500,0,0,197544
1.8084,0.3079,37.4300,0,0,197548
1.8084,0.3128,37.2800,0,0,197551
1.8133,0.3079,37.1900,0,0,197554
1.8231,0.3128,37.2200,0,0,197557
1.8377,0.3030,37.2200,0,0,197561
1.8377,0.3568,37.2200,0,0,197564
1.8377,0.3275,37.2200,0,0,197567
1.8377,0.3079,37.2500,0,0,197572
1.8377,0.3079,37.2500,0,0,197575
1.8377,0.3079,37.2500,0,0,197578
1.8573,0.3128,37.2800,0,0,197581
1.8817,0.3079,37.2500,0,0,197584
1.9062,0.3079,37.3700,0,0,197588
1.9404,0.3128,37.2500,0,0,197592
1.9599,0.3030,37.2800,0,0,197595
1.9795,0.3079,37.4000,0,0,197598
1.9844,0.3079,37.2800,0,0,197601
1.9892,0.3079,37.2500,0,0,197604
1.9892,0.3079,37.2200,0,0,197608
1.9795,0.3079,37.1600,0,0,197611
1.9746,0.3177,37.2500,0,0,197614
1.9697,0.3372,37.2500,0,0,197617
1.9697,0.3079,37.2200,0,0,197620
1.9453,0.3128,37.2500,0,0,197624
1.9257,0.2884,37.2500,0,0,197627
1.9159,0.3079,37.2500,0,0,197630
1.8915,0.3079,37.2500,0,0,197634
1.8817,0.3079,37.2500,0,0,197637
1.8719,0.3079,37.2500,0,0,197641
1.8622,0.3079,37.2500,0,0,197644
1.8328,0.3079,37.2800,0,0,197647
1.8084,0.3079,37.3100,0,0,197650
1.7840,0.3079,37.3100,0,0,197653
1.7644,0.3079,37.4300,0,0,197657
1.7546,0.3079,37.2500,0,0,197660
1.7449,0.3079,37.1900,0,0,197663
1.7449,0.3079,37.2500,0,0,197666
1.7351,0.3079,37.2200,0,0,197669
1.7302,0.3030,37.2500,0,0,197673
1.7204,0.3421,37.2200,0,0,197677
1.7155,0.3275,37.3100,0,0,197680
1.7302,0.2884,37.2800,0,0,197683
1.7400,0.3030,37.2500,0,0,197686
1.7498,0.3030,37.2200,0,0,197690
1.7351,0.3079,37.3100,0,0,197693
1.6960,0.3030,37.2500,0,0,197696
1.6520,0.3030,37.2500,0,0,197699
1.6227,0.3079,37.1900,0,0,197702
1.6520,0.2981,37.2200,0,0,197706
1.6813,0.3079,37.2500,0,0,197709
1.8084,0.2884,37.2500,0,0,197712
1.9746,0.2981,37.2500,0,0,197715
2.1994,0.3079,37.2500,0,0,197719
2.4927,0.3079,37.2200,0,0,197723
2.8104,0.3079,37.2500,0,0,197726
3.1329,0.3079,37.2500,0,0,197729
3.3773,0.3079,37.2500,0,0,197732
3.4995,0.3079,37.2800,0,0,197735
3.3969,0.3079,37.2200,0,0,197739
3.1329,0.3079,37.2500,0,0,197742
2.7664,0.3079,37.2800,0,0,197745
2.3900,0.3079,37.2500,0,0,197748
2.0577,0.3079,37.2500,0,0,197751
1.7840,0.3079,37.2500,0,0,197754
1.6031,0.3079,37.2500,0,0,197758
1.5005,0.3079,37.2500,0,0,197762
1.4614,0.3079,37.2500,0,0,197765
1.4418,0.3079,37.0400,0,0,197768
1.4565,0.3079,37.2500,0,0,197771
1.4663,0.3079,37.2500,0,0,197775
1.4858,0.3079,37.2200,0,0,197778
1.5054,0.3128,37.2200,0,0,197781
1.5152,0.3128,37.3700,0,0,197784
1.5298,0.3079,37.2500,0,0,197787
1.5396,0.3079,37.2500,0,0,197791
1.5543,0.3079,37.2800,0,0,197794
1.5689,0.3079,37.1900,0,0,197797
1.5787,0.3079,37.2200,0,0,197800
1.5982,0.3079,37.3400,0,0,197804
1.6129,0.3177,37.2500,0,0,197808
1.6227,0.3079,37.2200,0,0,197811
1.6618,0.3079,37.1900,0,0,197814
1.6373,0.3030,37.2500,0,0,197817
1.6325,0.3079,37.2500,0,0,197820
1.6422,0.3079,37.2500,0,0,197824
1.6520,0.3079,37.2500,0,0,197827
1.6569,0.3128,37.2500,0,0,197830
1.6569,0.3079,37.2500,0,0,197833
1.6618,0.3079,37.2500,0,0,197836
1.6716,0.3079,37.2200,0,0,197840
1.6813,0.3128,37.2200,0,0,197843
1.6911,0.3128,37.3100,0,0,197847
1.6960,0.3128,37.2800,0,0,197850
1.7058,0.3177,37.2200,0,0,197853
1.7107,0.3079,37.2500,0,0,197857
1.7204,0.3079,37.2500,0,0,197860
1.7302,0.3079,37.2500,0,0,197863
1.7400,0.3079,37.2200,0,0,197866
1.7449,0.3079,37.2500,0,0,197869
1.7595,0.3128,37.2200,0,0,197873
1.7546,0.3079,37.2500,0,0,197876
1.7546,0.3079,37.2500,0,0,197879
1.7644,0.3079,37.3100,0,0,197882
1.7742,0.3079,37.2800,0,0,197885
1.7937,0.3079,37.1900,0,0,197890
1.8084,0.3079,36.6100,0,0,197893
1.8133,0.3079,37.2800,0,0,197896
1.8133,0.3079,37.2200,0,0,197899
1.8280,0.3128,37.1600,0,0,197902
1.8280,0.3030,37.2500,0,0,197906
1.8328,0.3079,37.2500,0,0,197909
1.8328,0.3128,37.2500,0,0,197912
1.8475,0.3079,37.2500,0,0,197915
1.8426,0.3079,37.2200,0,0,197918
1.8573,0.3079,37.2200,0,0,197921
1.8671,0.3079,37.2500,0,0,197925
1.8768,0.3079,37.2800,0,0,197928
1.8915,0.3079,37.2800,0,0,197932
1.9110,0.3079,37.4000,0,0,197935
1.9208,0.3079,37.2800,0,0,197938
1.9404,0.3079,37.2500,0,0,197942
1.9550,0.3079,37.2500,0,0,197945
1.9697,0.3128,37.2500,0,0,197948
1.9844,0.3079,37.2200,0,0,197951
1.9941,0.3079,37.2800,0,0,197954
1.9941,0.3079,37.3400,0,0,197958
2.0039,0.3079,37.3400,0,0,197961
2.0186,0.3079,37.2500,0,0,197964
2.0332,0.3079,37.2500,0,0,197967
2.0479,0.3079,37.2500,0,0,197970
2.0626,0.3079,37.2500,0,0,197975
2.0772,0.3079,37.2500,0,0,197978
2.0919,0.3079,37.2200,0,0,197981
2.0919,0.3079,37.2800,0,0,197984
2.0968,0.3079,37.2500,0,0,197987
2.1261,0.2981,37.2500,0,0,197990
2.0968,0.3079,37.2500,0,0,197994
2.0919,0.3079,37.2200,0,0,197997
2.0577,0.3079,37.2500,0,0,198000
2.0479,0.3128,37.2500,0,0,198003
2.0332,0.3079,37.2500,0,0,198006
2.0235,0.3079,37.2200,0,0,198010
2.0137,0.3079,37.2200,0,0,198013
1.9648,0.3128,37.2500,0,0,198017
1.9404,0.3079,37.2500,0,0,198020
1.9159,0.3079,37.2800,0,0,198023
1.8915,0.3079,37.2500,0,0,198027
1.8475,0.3079,37.2500,0,0,198030
1.8133,0.3079,37.3100,0,0,198033
1.7889,0.3079,37.2500,0,0,198036
1.7693,0.3079,37.2500,0,0,198039
1.7546,0.3079,37.4300,0,0,198043
1.7400,0.3079,37.2500,0,0,198046
1.7204,0.3079,37.2500,0,0,198049
1.7058,0.3079,37.2500,0,0,198052
1.6911,0.3079,37.0400,0,0,198055
1.6813,0.3079,37.2500,0,0,198060
1.6716,0.3079,37.2800,0,0,198063
1.6764,0.3079,37.4600,0,0,198066
1.6862,0.3079,37.2200,0,0,198069
1.6911,0.3079,37.4300,0,0,198072
1.6911,0.3079,37.1900,0,0,198076
1.7009,0.3079,37.1300,0,0,198079
1.7155,0.3177,37.2500,0,0,198082
1.7302,0.3128,37.2200,0,0,198085
1.7400,0.3128,37.2500,0,0,198088
1.7400,0.3128,37.2500,0,0,198091
1.7498,0.2884,37.2500,0,0,198095
1.7498,0.3079,37.2500,0,0,198098
1.7546,0.3079,37.2200,0,0,198102
1.7644,0.3079,37.2200,0,0,198105
1.7546,0.3079,37.2500,0,0,198108
1.7595,0.3079,37.2500,0,0,198112
1.7644,0.3079,37.2500,0,0,198115
1.7644,0.3079,37.2500,0,0,198118
1.7644,0.3079,37.2800,0,0,198121
1.7693,0.3079,37.2500,0,0,198124
1.7742,0.3079,37.2500,0,0,198128
1.7791,0.3128,37.3100,0,0,198131
1.7742,0.3128,36.8800,0,0,198134
1.7644,0.3079,37.2800,0,0,198137
1.7742,0.3079,37.2500,0,0,198140
1.7840,0.3030,37.2500,0,0,198145
1.7986,0.3079,37.1900,0,0,198148
1.8035,0.3079,37.2800,0,0,198151
1.8133,0.3079,37.2800,0,0,198154
1.8231,0.3226,37.2500,0,0,198157
1.8280,0.3177,37.2200,0,0,198161
1.8280,0.3128,37.2200,0,0,198164
1.8622,0.2981,37.2500,0,0,198167
1.8280,0.3128,37.2200,0,0,198170
1.8426,0.3079,37.2500,0,0,198173
1.8866,0.3128,37.1900,0,0,198177
1.9013,0.3079,37.3100,0,0,198180
1.9257,0.3079,37.2800,0,0,198183
1.9355,0.3079,37.2500,0,0,198187
1.9257,0.3079,37.2200,0,0,198190
1.8524,0.3128,37.2500,0,0,198195
1.8377,0.3128,37.1900,0,0,198198
1.8377,0.3079,37.2200,0,0,198201
1.8133,0.3079,37.2500,0,0,198205
1.8035,0.3079,37.2500,0,0,198208
1.7986,0.3079,37.2500,0,0,198211
1.8035,0.3079,37.2500,0,0,198214
1.8035,0.3079,37.2500,0,0,198217
1.8035,0.3079,37.2500,0,0,198221
1.7986,0.3079,37.2500,0,0,198224
1.7986,0.3079,37.2200,0,0,198227
1.7986,0.3079,37.3100,0,0,198231
1.7889,0.3079,36.9800,0,0,198234
1.7840,0.3079,37.3700,0,0,198238
1.7840,0.3079,37.3100,0,0,198241
1.7889,0.3079,37.2500,0,0,198244
1.7889,0.3079,37.2500,0,0,198247
1.7889,0.3079,37.4000,0,0,198250
1.7986,0.3079,37.2500,0,0,198253
1.8084,0.3079,37.2800,0,0,198257
1.8133,0.3079,37.2200,0,0,198260
1.8035,0.3079,37.2500,0,0,198263
1.7986,0.3079,37.2500,0,0,198266
1.7986,0.3079,37.1900,0,0,198269
1.8035,0.3079,37.4600,0,0,198274
1.8133,0.3128,37.2800,0,0,198277
1.8182,0.3079,37.3100,0,0,198280
1.8280,0.3079,37.2500,0,0,198283
1.8280,0.3079,37.3400,0,0,198286
1.8280,0.3079,37.2800,0,0,198290
1.8328,0.3079,37.2200,0,0,198293
1.8328,0.3079,37.1900,0,0,198296
1.8231,0.3079,37.4300,0,0,198299
1.8182,0.3079,37.2500,0,0,198302
1.8133,0.3030,37.2200,0,0,198306
1.8084,0.3079,37.2200,0,0,198309
1.8084,0.3030,37.2200,0,0,198312
1.8084,0.3079,37.2200,0,0,198316
1.8084,0.3519,37.2200,0,0,198319
1.8133,0.3128,37.2200,0,0,198323
1.8182,0.3030,37.2500,0,0,198326
1.8280,0.3030,37.2200,0,0,198329
1.8524,0.3079,37.2200,0,0,198332
1.8328,0.3079,37.2200,0,0,198335
1.8231,0.3079,37.2200,0,0,198339
1.8231,0.2884,37.2500,0,0,198342
1.8133,0.3079,37.2500,0,0,198345
1.8182,0.3079,37.2500,0,0,198348
1.8231,0.3128,37.2200,0,0,198351
1.8182,0.3079,37.1300,0,0,198355
