ecg,gsr,temp,hr,spo2,timest
2.1359,0.0000,39.5100,64,98,494553
2.1310,0.0000,39.6700,64,98,494557
2.1848,0.0000,39.5100,64,98,494560
2.1799,0.0098,39.6700,64,98,494563
2.2043,0.0000,39.7300,64,98,494567
2.2532,0.0000,39.5700,64,98,494570
2.2532,0.0000,39.7300,64,98,494573
2.3021,0.0000,39.5100,64,98,494577
2.2825,0.0000,39.7000,64,98,494580
2.3021,0.0049,39.6700,64,98,494583
2.3265,0.0000,39.6000,64,98,494586
2.3314,0.0000,39.6700,64,98,494590
2.3656,0.0000,39.5400,64,98,494594
2.3314,0.0000,39.7000,64,98,494597
2.3265,0.0000,39.7000,64,98,494601
2.3509,0.0000,39.5400,64,98,494604
2.2923,0.0000,39.6400,64,98,494607
2.3069,0.0000,39.5400,64,98,494611
2.2092,0.0196,39.6700,64,98,494614
2.1505,0.0000,39.7000,64,98,494617
2.1212,0.0049,39.5700,64,98,494621
2.0381,0.0000,39.6400,64,98,494624
1.9941,0.0000,38.7400,64,98,494627
1.9062,0.0000,39.6700,64,98,494630
1.8377,0.0000,39.7300,64,98,494635
1.7986,0.0000,39.6000,64,98,494638
1.7155,0.0000,39.7700,64,98,494641
1.6862,0.0000,39.5400,64,98,494645
1.6178,0.0000,39.7000,64,98,494648
1.5738,0.0000,39.6700,64,98,494651
1.5640,0.0000,39.5100,64,98,494655
1.5054,0.0147,39.6700,64,98,494658
1.4907,0.0000,39.5400,64,98,494661
1.4467,0.0000,39.7000,64,98,494665
1.4370,0.0000,39.6700,64,98,494668
1.4467,0.0000,39.6000,64,98,494671
1.4516,0.0000,39.6700,64,98,494674
1.4614,0.0000,39.5100,64,98,494679
1.4418,0.0000,39.7700,64,98,494682
1.4223,0.0000,39.6700,64,98,494685
1.3930,0.0000,39.6700,64,98,494689
1.4174,0.0000,39.5400,64,98,494692
1.4076,0.0000,39.6700,64,98,494695
1.4418,0.0000,39.5100,64,98,494699
1.4712,0.0000,39.5700,64,98,494702
1.4663,0.0000,39.6700,64,98,494705
1.5005,0.0000,39.5700,64,98,494708
1.5054,0.0000,39.6700,64,98,494712
1.5543,0.0000,39.4800,64,98,494715
1.5200,0.0049,39.6400,64,98,494718
1.5494,0.0000,39.6700,64,98,494723
1.5591,0.0000,39.5400,64,98,494726
1.5640,0.0000,39.6700,64,98,494729
1.6178,0.0000,39.5100,64,98,494733
1.6031,0.0000,39.6700,64,98,494736
1.6031,0.0049,39.6700,64,98,494739
1.6373,0.0000,39.5400,64,98,494742
1.6227,0.0000,39.6700,64,98,494746
1.6716,0.0000,39.5700,64,98,494749
1.6716,0.0000,39.6000,64,98,494752
1.6813,0.0000,39.6700,64,98,494756
1.7009,0.0000,39.5400,64,98,494759
1.6813,0.0000,39.7000,64,98,494763
1.7009,0.0000,39.4800,64,98,494767
1.6667,0.0000,39.6400,64,98,494770
1.6764,0.0000,39.6700,64,98,494773
1.6911,0.0000,39.5700,64,98,494776
1.6764,0.0000,39.8300,64,98,494780
1.7009,0.0000,39.5400,64,98,494783
1.6862,0.0000,39.6700,64,98,494786
1.6911,0.0000,39.6700,64,98,494790
1.7253,0.0000,39.5700,64,98,494793
1.7155,0.0000,39.7000,64,98,494796
1.7546,0.0000,38.8400,64,98,494801
1.7498,0.0000,39.6000,64,98,494804
1.7449,0.0000,39.6700,64,98,494809
1.7644,0.0000,39.5700,64,98,494812
1.7498,0.0000,39.6700,64,98,494815
1.7742,0.0000,39.5100,64,98,494818
1.7498,0.0000,39.6400,64,98,494822
1.7693,0.0000,39.7000,64,98,494825
1.7840,0.0000,39.5400,64,98,494828
1.7742,0.0000,39.6700,64,98,494832
1.7889,0.0000,39.5700,64,98,494835
1.7595,0.0000,39.7000,64,98,494838
1.7595,0.0000,39.5100,64,98,494842
1.7889,0.0000,39.5400,64,98,494845
1.7693,0.0000,39.6700,64,98,494849
1.7986,0.0000,39.5400,64,98,494853
1.7693,0.0000,39.6000,64,98,494856
1.7840,0.0000,39.8900,64,98,494859
1.7986,0.0000,39.5700,64,98,494862
1.7791,0.0000,39.6700,64,98,494866
1.8035,0.0098,39.5400,64,98,494869
1.7693,0.0000,39.6400,64,98,494872
1.7546,0.0000,39.6400,64,98,494876
1.7644,0.0000,39.6400,64,98,494879
1.7449,0.0000,39.6700,64,98,494882
1.7644,0.0000,39.5700,64,98,494885
1.7351,0.0000,39.6700,64,98,494889
1.7400,0.0000,39.6400,64,98,494893
1.7693,0.0000,39.5400,64,98,494896
1.7449,0.0000,39.6700,64,98,494900
1.8035,0.0000,39.5400,64,98,494903
1.7546,0.0000,39.6000,64,98,494906
1.7644,0.0000,39.7000,64,98,494910
1.7889,0.0000,39.5400,64,98,494913
1.7742,0.0000,39.6700,64,98,494916
1.8035,0.0000,39.5400,64,98,494919
1.7791,0.0000,39.6700,64,98,494923
1.7791,0.0000,39.7000,64,98,494926
1.7840,0.0000,39.5700,64,98,494929
1.7742,0.0000,39.8600,64,98,494934
1.7937,0.0000,39.5400,64,98,494937
1.7546,0.0000,39.6700,64,98,494940
1.7498,0.0000,39.6400,64,98,494944
1.7840,0.0049,39.5700,64,98,494947
1.7595,0.0000,39.7300,64,98,494950
1.7986,0.0000,39.5400,64,98,494953
1.7693,0.0000,39.6000,64,98,494957
1.7742,0.0000,39.7300,64,98,494960
1.7889,0.0000,39.6000,64,98,494963
1.7595,0.0000,39.7000,64,98,494967
1.7791,0.0000,39.5400,64,98,494970
1.7498,0.0000,39.6700,64,98,494973
1.7498,0.0000,39.6000,64,98,494978
1.7644,0.0000,39.5700,64,98,494981
1.7644,0.0000,39.6700,64,98,494984
1.7937,0.0000,39.5400,64,98,494987
1.7693,0.0000,39.9300,64,98,494991
1.7791,0.0000,39.6700,64,98,494994
1.8084,0.0000,39.5400,64,98,494997
1.8035,0.0000,39.7000,64,98,495001
1.8035,0.0000,39.5400,64,98,495004
1.7742,0.0000,39.6400,64,98,495007
1.7937,0.0000,39.7000,64,98,495011
1.8035,0.0000,39.5700,64,98,495014
1.7742,0.0000,39.6700,64,98,495017
1.7937,0.0000,39.5700,64,98,495021
1.7595,0.0000,39.6700,64,98,495025
1.7595,0.0000,39.7300,64,98,495028
1.7840,0.0000,39.5700,64,98,495031
1.7742,0.0000,39.6700,64,98,495035
1.8084,0.0000,39.5700,64,98,495038
1.7889,0.0196,39.6700,64,98,495041
1.7840,0.0000,39.6700,64,98,495045
1.8231,0.0049,39.5400,64,98,495048
1.7937,0.0000,39.6700,64,98,495051
1.8182,0.0000,39.5700,64,98,495055
1.7840,0.0000,39.6000,64,98,495058
1.7791,0.0000,39.6700,64,98,495062
1.7937,0.0000,39.9600,64,98,495065
1.7840,0.0000,39.6400,64,98,495069
1.8377,0.0000,39.5700,64,98,495072
1.7986,0.0000,39.7000,64,98,495075
1.8035,0.0098,39.6700,64,98,495079
1.8133,0.0000,39.6000,64,98,495082
1.8035,0.0244,39.6700,64,98,495085
1.8182,0.0000,39.6000,64,98,495089
1.7840,0.0000,39.6700,64,98,495092
1.7840,0.0000,39.6400,64,98,495095
1.8133,0.0000,39.5400,64,98,495099
1.7937,0.0000,39.7700,64,98,495102
1.8231,0.0000,39.5400,64,98,495106
1.8035,0.0000,39.6400,64,98,495109
1.8133,0.0000,39.6700,64,98,495113
1.8377,0.0000,39.5400,64,98,495116
1.8133,0.0000,39.7000,64,98,495119
1.8426,0.0000,39.5400,64,98,495123
1.7937,0.0000,39.6400,64,98,495126
1.7840,0.0000,39.7000,64,98,495129
1.7791,0.0000,39.5400,64,98,495133
1.7693,0.0000,39.6700,64,98,495136
1.8328,0.0000,39.5400,64,98,495139
1.8133,0.0000,39.7300,64,98,495142
1.7889,0.0000,39.6700,64,98,495147
1.8231,0.0000,39.6000,64,98,495150
1.7937,0.0000,39.6000,64,98,495153
1.8182,0.0000,39.5700,64,98,495157
1.7937,0.0000,39.6000,64,98,495160
1.8035,0.0000,39.6700,64,98,495163
1.8426,0.0000,39.6400,64,98,495167
1.8475,0.0000,39.6700,64,98,495170
1.9013,0.0000,39.5400,64,98,495173
1.8964,0.0000,39.6700,64,98,495177
1.9110,0.0000,39.6700,64,98,495180
1.9208,0.0000,39.5700,64,98,495183
1.9013,0.0000,39.6700,64,98,495186
1.9257,0.0000,39.5400,64,98,495191
1.9013,0.0244,39.6700,64,98,495194
1.9453,0.0000,39.6400,64,98,495197
1.9697,0.0098,39.5400,64,98,495201
1.9599,0.0000,39.6700,64,98,495204
1.9990,0.0000,39.5400,64,98,495207
1.9648,0.0000,39.6000,64,98,495210
1.9501,0.0000,39.7300,64,98,495214
1.9453,0.0000,39.5700,64,98,495217
1.9062,0.0000,39.6700,64,98,495220
1.8964,0.0000,39.5700,64,98,495224
1.8524,0.0000,39.6700,64,98,495227
1.8524,0.0000,39.6700,64,98,495230
1.8622,0.0000,39.5700,64,98,495235
1.8426,0.0000,39.7000,64,98,495238
1.8524,0.0000,39.6000,64,98,495241
1.8035,0.0000,39.7000,64,98,495245
1.8084,0.0000,39.7000,64,98,495248
1.8035,0.0000,39.6400,64,98,495251
1.7644,0.0000,39.6400,64,98,495254
1.7791,0.0000,39.5700,64,98,495258
1.7449,0.0000,39.6400,64,98,495261
1.7351,0.0000,39.6700,64,98,495264
1.7449,0.0000,38.8100,64,98,495268
1.7204,0.0000,39.6700,64,98,495271
1.7449,0.0000,39.5700,64,98,495275
1.7155,0.0244,39.6700,64,98,495279
1.7253,0.0000,39.7000,64,98,495282
1.7400,0.0000,39.6400,64,98,495285
1.7302,0.0000,39.7300,64,98,495288
1.7546,0.0000,39.5700,64,98,495292
1.7107,0.0000,39.6700,64,98,495295
1.7155,0.0000,39.7000,64,98,495298
1.7498,0.0000,39.4800,64,98,495302
1.7546,0.0000,39.5700,64,98,495305
1.7498,0.0000,39.6400,64,98,495308
1.7889,0.0000,39.4400,64,98,495312
1.7644,0.0000,39.6400,64,98,495315
1.7595,0.0000,39.5100,64,98,495319
1.7742,0.0000,39.5700,64,98,495322
1.7644,0.0000,39.6700,64,98,495326
1.8182,0.0000,39.4400,64,98,495329
1.8524,0.0000,39.6700,64,98,495332
1.8964,0.0000,39.6700,64,98,495336
2.0332,0.0000,39.7000,64,98,495339
2.2287,0.0000,39.6700,64,98,495342
2.5758,0.0000,39.4800,64,98,495346
2.9326,0.0000,39.5700,64,98,495349
3.3187,0.0000,39.6700,64,98,495352
3.6804,0.0000,39.5700,64,98,495355
3.8856,0.0000,39.6700,64,98,495360
4.0323,0.0000,39.4400,64,98,495363
3.8710,0.0000,39.6000,64,98,495366
3.5924,0.0000,39.7000,64,98,495370
3.2405,0.0000,39.5400,64,98,495373
2.7615,0.0000,39.6000,64,98,495376
2.3314,0.0000,39.4800,64,98,495380
1.8915,0.0000,39.7000,64,98,495383
1.6422,0.0000,39.6700,64,98,495386
1.4565,0.0000,39.6000,64,98,495390
1.3734,0.0000,39.6700,64,98,495393
1.3832,0.0000,39.4100,64,98,495396
1.3832,0.0000,39.6700,64,98,495399
1.4076,0.0000,39.6700,64,98,495404
1.4565,0.0000,39.5400,64,98,495407
1.4565,0.0098,39.6700,64,98,495410
1.4858,0.0000,39.4400,64,98,495415
1.4565,0.0000,39.6000,64,98,495418
1.4516,0.0000,39.8900,64,98,495422
1.4712,0.0000,39.5400,64,98,495425
1.4712,0.0000,39.6700,64,98,495428
1.5103,0.0391,39.4800,64,98,495432
1.5152,0.0000,39.8000,64,98,495435
1.5445,0.0000,39.6700,64,98,495438
1.5738,0.0049,39.6000,64,98,495441
1.5738,0.0000,39.6700,64,98,495446
1.6129,0.0000,39.4400,64,98,495449
1.5982,0.0000,39.5700,64,98,495452
1.6031,0.0000,39.6700,64,98,495456
1.6422,0.0000,39.6000,64,98,495459
1.6471,0.0000,39.6700,64,98,495462
1.7107,0.0000,39.4400,64,98,495466
1.6960,0.0000,39.7000,64,98,495469
1.7009,0.0000,39.7700,64,98,495472
1.7253,0.0000,39.5700,64,98,495475
1.7009,0.0000,39.6700,64,98,495479
1.7400,0.0000,39.6700,64,98,495482
1.7204,0.0000,39.6400,64,98,495485
1.7595,0.0000,39.6700,64,98,495490
1.7889,0.0000,39.6000,64,98,495493
1.7840,0.0000,39.7000,64,98,495496
1.8231,0.0000,39.5400,64,98,495500
1.8182,0.0000,39.5700,64,98,495503
1.8231,0.0000,39.7000,64,98,495506
1.8671,0.0000,39.5400,64,98,495509
1.8719,0.0000,39.6700,64,98,495513
1.9257,0.0000,39.4800,64,98,495516
1.9208,0.0000,39.6000,64,98,495519
1.9306,0.0000,39.7000,64,98,495523
1.9550,0.0000,39.3500,64,98,495526
1.9648,0.0000,39.6700,64,98,495529
1.9599,0.0000,39.5400,64,98,495534
1.9306,0.0000,39.6700,64,98,495537
1.9453,0.0000,39.1600,64,98,495540
1.9795,0.0000,39.5700,64,98,495544
1.9795,0.0000,39.6700,64,98,495547
2.0283,0.0000,39.5100,64,98,495550
2.0283,0.0000,39.5400,64,98,495553
2.0430,0.0000,39.6700,64,98,495557
2.0968,0.0000,39.5400,64,98,495560
2.0968,0.0000,39.6400,64,98,495563
2.1505,0.0000,39.5700,64,98,495567
2.1505,0.0000,39.6400,64,98,495570
2.1750,0.0098,39.6700,64,98,495574
2.2336,0.0000,39.5400,64,98,495578
2.2141,0.0147,39.7000,64,98,495581
2.2678,0.0000,39.4800,64,98,495584
2.2532,0.0000,39.6700,64,98,495587
2.2727,0.0000,39.6700,64,98,495591
2.3118,0.0000,39.5700,64,98,495594
2.3021,0.0000,39.6700,64,98,495597
2.3460,0.0000,39.4100,64,98,495601
2.3216,0.0000,39.5700,64,98,495604
2.3412,0.0000,39.7300,64,98,495607
2.3265,0.0000,39.5100,64,98,495611
2.3069,0.0000,39.6700,64,98,495614
2.3265,0.0000,39.5100,64,98,495618
2.2678,0.0000,39.7000,64,98,495622
2.2287,0.0000,39.7000,64,98,495625
2.2141,0.0000,39.5100,64,98,495628
2.1457,0.0000,39.6700,64,98,495631
2.1310,0.0000,39.3800,64,98,495635
2.0430,0.0000,39.6700,64,98,495638
1.9844,0.0000,39.6700,64,98,495641
1.9404,0.0000,39.5400,64,98,495645
1.8377,0.0000,39.6700,64,98,495648
1.7889,0.0000,39.5100,64,98,495651
1.7058,0.0000,39.5700,64,98,495654
1.6471,0.0000,39.6700,64,98,495659
1.6080,0.0000,39.5700,64,98,495662
1.5591,0.0000,39.7000,64,98,495665
1.5200,0.0000,39.5400,64,98,495669
1.4614,0.0000,39.7000,64,98,495672
1.4272,0.0000,39.6700,64,98,495675
1.4174,0.0000,39.5700,64,98,495679
1.3832,0.0147,39.6700,64,98,495682
1.3930,0.0000,39.5100,64,98,495685
1.3685,0.0000,39.6700,64,98,495688
1.3636,0.0000,39.6700,64,98,495692
1.3881,0.0000,39.4800,64,98,495695
1.3783,0.0000,39.6700,64,98,495698
1.4125,0.0000,39.5100,64,98,495703
1.4076,0.0000,39.5700,64,98,495706
1.4223,0.0000,39.6000,64,98,495709
1.4516,0.0000,39.5400,64,98,495713
1.4565,0.0000,39.6700,64,98,495716
1.4858,0.0000,39.5100,64,98,495719
1.4858,0.0000,39.6400,64,98,495722
1.4956,0.0000,39.7700,64,98,495726
1.5152,0.0000,39.5400,64,98,495729
1.5005,0.0000,39.6700,64,98,495732
1.5347,0.0000,39.5100,64,98,495736
1.5152,0.0000,39.6700,64,98,495739
1.5298,0.0000,39.6700,64,98,495742
1.5591,0.0049,39.5700,64,98,495747
1.5396,0.0000,39.6700,64,98,495750
1.5689,0.0000,39.4800,64,98,495753
1.5591,0.0000,39.6400,64,98,495757
1.5738,0.0000,39.7300,64,98,495760
1.5982,0.0000,39.6000,64,98,495763
1.5885,0.0000,39.7000,64,98,495766
1.6178,0.0196,39.5100,64,98,495770
1.5982,0.0000,39.6000,64,98,495773
1.6178,0.0000,39.6700,64,98,495776
1.6276,0.0000,39.5700,64,98,495780
1.6325,0.0000,38.8400,64,98,495783
1.6667,0.0000,39.4800,64,98,495787
1.6569,0.0000,39.6700,64,98,495791
1.6960,0.0000,39.6700,64,98,495794
1.7155,0.0000,39.5700,64,98,495797
1.7009,0.0098,39.6700,64,98,495800
1.7351,0.0000,39.4800,64,98,495804
1.7253,0.0000,39.5700,64,98,495807
1.7302,0.0000,39.7000,64,98,495810
1.7644,0.0000,39.6000,64,98,495814
1.7693,0.0000,39.6700,64,98,495817
1.8035,0.0000,39.4800,64,98,495820
1.7791,0.0000,39.6400,64,98,495824
1.7742,0.0000,39.6400,64,98,495827
1.7791,0.0000,39.5100,64,98,495831
1.7546,0.0000,39.6700,64,98,495834
1.7742,0.0000,39.4800,64,98,495838
1.7546,0.0000,39.6700,64,98,495841
1.7546,0.0000,39.6700,64,98,495844
1.7889,0.0000,39.5100,64,98,495848
1.7791,0.0000,39.6700,64,98,495851
1.8133,0.0000,39.4800,64,98,495854
1.7986,0.0000,39.5700,64,98,495858
1.7937,0.0000,39.7000,64,98,495861
1.8182,0.0000,39.5700,64,98,495864
1.8035,0.0000,39.6700,64,98,495867
1.8426,0.0000,39.5400,64,98,495872
1.8231,0.0000,39.6400,64,98,495875
1.8231,0.0000,39.7000,64,98,495878
1.8475,0.0000,39.5100,64,98,495882
1.8084,0.0000,39.6400,64,98,495885
1.8231,0.0000,39.4800,64,98,495888
1.7889,0.0000,39.6700,64,98,495892
1.7889,0.0000,39.6700,64,98,495895
1.8133,0.0000,39.5700,64,98,495898
1.7986,0.0000,39.6700,64,98,495901
1.8280,0.0000,39.4800,64,98,495905
1.7986,0.0000,39.5700,64,98,495908
1.7742,0.0000,39.7300,64,98,495911
1.7742,0.0000,39.4400,64,98,495916
1.7498,0.0000,39.7300,64,98,495919
1.7840,0.0000,39.4800,64,98,495922
1.8182,0.0000,39.3500,64,98,495926
1.7840,0.0000,39.6700,64,98,495929
1.7889,0.0000,39.6700,64,98,495932
1.8133,0.0000,39.6400,64,98,495935
1.7937,0.0000,39.6700,64,98,495939
1.8426,0.0000,39.4400,64,98,495942
1.8182,0.0000,39.5700,64,98,495945
1.8133,0.0000,39.6700,64,98,495949
1.8328,0.0000,39.6400,64,98,495952
1.8182,0.0000,39.6700,64,98,495955
1.8671,0.0000,39.3800,64,98,495960
1.8133,0.0000,39.5700,64,98,495963
1.7986,0.0000,39.6700,64,98,495966
1.7986,0.0000,39.6400,64,98,495970
1.7742,0.0000,39.6700,64,98,495973
1.8182,0.0000,39.4100,64,98,495976
1.7693,0.0000,39.5700,64,98,495979
1.7644,0.0000,39.7300,64,98,495983
1.7693,0.0000,39.7000,64,98,495986
1.7595,0.0000,39.6700,64,98,495989
1.8035,0.0000,39.4100,64,98,495993
1.7742,0.0000,39.5700,64,98,495996
1.7644,0.0000,39.7000,64,98,496000
1.7840,0.0000,39.6700,64,98,496004
1.7791,0.0000,39.7000,64,98,496007
1.8426,0.0000,39.4100,64,98,496010
1.8035,0.0000,39.5400,64,98,496013
1.8035,0.0000,39.2800,64,98,496017
1.8182,0.0000,39.6000,64,98,496020
1.8035,0.0000,39.6700,64,98,496023
1.8475,0.0000,39.4800,64,98,496028
1.7937,0.0000,39.6700,64,98,496031
1.7937,0.0000,39.6700,64,98,496035
1.7986,0.0000,39.6400,64,98,496038
1.7889,0.0000,39.6700,64,98,496041
1.8377,0.0000,39.4100,64,98,496046
1.8133,0.0000,39.5700,64,98,496049
1.8084,0.0000,39.6700,64,98,496052
1.8328,0.0000,39.6000,64,98,496055
1.8475,0.0000,39.6700,64,98,496059
1.8915,0.0098,39.4100,64,98,496062
1.8622,0.0000,39.6000,64,98,496065
1.8524,0.0000,39.7000,64,98,496069
1.8573,0.0000,39.6400,64,98,496072
1.8328,0.0000,39.7000,64,98,496075
1.8719,0.0000,39.4100,64,98,496079
1.8280,0.0000,39.5700,64,98,496082
1.8133,0.0000,39.6700,64,98,496086
1.8182,0.0000,39.6000,64,98,496089
1.8084,0.0000,39.7300,64,98,496093
1.8573,0.0000,39.4100,64,98,496096
1.8182,0.0000,39.6000,64,98,496099
1.7986,0.0000,39.6700,64,98,496103
1.8133,0.0000,38.8700,64,98,496106
1.8035,0.0000,39.6700,64,98,496109
1.8524,0.0000,39.4100,64,98,496113
1.8231,0.0000,39.5700,64,98,496116
1.8328,0.0000,39.6400,64,98,496119
1.8573,0.0000,39.6400,64,98,496122
1.8426,0.0000,39.7300,64,98,496126
1.8964,0.0000,39.4100,64,98,496130
1.8964,0.0000,39.5700,64,98,496133
1.8768,0.0000,39.6700,64,98,496137
1.9062,0.0000,39.6000,64,98,496140
1.9013,0.0000,39.6700,64,98,496143
1.9599,0.0000,39.4100,64,98,496147
1.9501,0.0000,39.5700,64,98,496150
1.9257,0.0000,39.6700,64,98,496153
1.9453,0.0000,39.6700,64,98,496156
1.9404,0.0000,39.8000,64,98,496160
1.9941,0.0000,39.4100,64,98,496163
1.9844,0.0000,39.6000,64,98,496166
1.9844,0.0000,39.6700,64,98,496171
2.0039,0.0000,39.6000,64,98,496174
1.9795,0.0000,39.6700,64,98,496177
2.0039,0.0000,39.4100,64,98,496181
1.9257,0.0000,39.5700,64,98,496184
1.9062,0.0000,39.6700,64,98,496187
1.8866,0.0000,39.6400,64,98,496191
1.8573,0.0000,39.6700,64,98,496194
1.8915,0.0000,39.4100,64,98,496197
1.8573,0.0000,39.6000,64,98,496200
1.8377,0.0000,39.6700,64,98,496204
1.8524,0.0000,39.6000,64,98,496207
1.8182,0.0000,39.6700,64,98,496210
1.8524,0.0000,39.4100,64,98,496215
1.8084,0.0000,39.6400,64,98,496218
1.8231,0.0000,39.6700,64,98,496221
1.8084,0.0000,39.6000,64,98,496225
1.7840,0.0000,39.6700,64,98,496228
1.8182,0.0000,39.4100,64,98,496231
1.7693,0.0000,39.6400,64,98,496234
1.7840,0.0000,39.7000,64,98,496238
1.7693,0.0000,39.6400,64,98,496241
1.7595,0.0000,39.6700,64,98,496244
1.8035,0.0000,39.4100,64,98,496248
1.7937,0.0000,39.5700,64,98,496251
1.7889,0.0196,39.6700,64,98,496254
1.8035,0.0000,39.7300,64,98,496259
1.8035,0.0000,39.7300,64,98,496262
1.8035,0.0000,39.5700,64,98,496265
1.7498,0.0000,39.6400,64,98,496268
1.7351,0.0000,39.6700,64,98,496272
1.7840,0.0000,39.5700,64,98,496275
1.7302,0.0000,39.7000,64,98,496278
1.7742,0.0000,39.4400,64,98,496282
1.7351,0.0000,39.6400,64,98,496285
1.7595,0.0000,39.6700,64,98,496288
1.7791,0.0000,39.6400,64,98,496292
1.7693,0.0000,39.6700,64,98,496295
1.8084,0.0000,39.4100,64,98,496299
1.7889,0.0000,39.5700,64,98,496302
1.7840,0.0000,39.6700,64,98,496306
1.8475,0.0000,39.5700,64,98,496309
1.8622,0.0000,39.6400,64,98,496312
1.9697,0.0000,39.5100,64,98,496316
2.0528,0.0000,39.7300,64,98,496319
2.2532,0.0000,39.6700,64,98,496322
2.5953,0.0049,39.5700,64,98,496326
2.9521,0.0000,39.6700,64,98,496329
3.4360,0.0147,39.4100,64,98,496332
3.6706,0.0000,39.6000,64,98,496335
3.8807,0.0000,39.7000,64,98,496339
3.9443,0.0000,39.6000,64,98,496343
3.7928,0.0000,39.6700,64,98,496346
3.5679,0.0000,39.4400,64,98,496350
3.1720,0.0000,39.5700,64,98,496353
2.6833,0.0000,39.5400,64,98,496356
2.2727,0.0000,39.6000,64,98,496360
1.8768,0.0000,39.6700,64,98,496363
1.6373,0.0000,39.4100,64,98,496366
1.4467,0.0000,39.6400,64,98,496370
1.3734,0.0000,39.8900,64,98,496373
1.3783,0.0000,39.6000,64,98,496376
1.3783,0.0000,39.7000,64,98,496379
1.4418,0.0000,39.5400,64,98,496384
1.4516,0.0000,39.8600,64,98,496387
1.4858,0.0000,39.6700,64,98,496390
1.5054,0.0000,39.6400,64,98,496394
1.5103,0.0000,39.7000,64,98,496397
1.5591,0.0000,39.8600,64,98,496400
1.5494,0.0000,39.5700,64,98,496404
1.5494,0.0000,39.6700,64,98,496407
1.5836,0.0000,39.5700,64,98,496410
1.5689,0.0000,39.7000,64,98,496413
1.6031,0.0000,39.4800,64,98,496417
1.5885,0.0000,39.6700,64,98,496420
1.5982,0.0000,39.6400,64,98,496423
1.6373,0.0391,39.5700,64,98,496428
1.6520,0.0000,39.6700,64,98,496431
1.6960,0.0000,39.4100,64,98,496434
1.6716,0.0000,39.6400,64,98,496438
1.6862,0.0000,39.6400,64,98,496441
1.7058,0.0000,39.6400,64,98,496444
1.7009,0.0000,39.8900,64,98,496447
1.7400,0.0000,39.4400,64,98,496451
1.7302,0.0000,39.5700,64,98,496454
1.7302,0.0000,39.7700,64,98,496457
1.7693,0.0000,39.5400,64,98,496461
1.7644,0.0000,39.7000,64,98,496464
1.8182,0.0000,39.4400,64,98,496467
1.7889,0.0000,39.6400,64,98,496472
1.7937,0.0000,39.7000,64,98,496475
1.8328,0.0000,39.6000,64,98,496478
1.8280,0.0000,39.7000,64,98,496481
1.8915,0.0000,39.4400,64,98,496485
1.9110,0.0000,39.6400,64,98,496488
1.9062,0.0000,39.6700,64,98,496491
1.9404,0.0000,39.5700,64,98,496495
1.9306,0.0000,39.6400,64,98,496498
1.9746,0.0000,39.4400,64,98,496501
1.9550,0.0000,39.5700,64,98,496505
1.9453,0.0000,39.6700,64,98,496508
1.9746,0.0147,39.5700,64,98,496512
1.9941,0.0000,39.6700,64,98,496515
2.0186,0.0391,39.4100,64,98,496519
1.9941,0.0000,39.6000,64,98,496522
2.0088,0.0000,39.6400,64,98,496525
2.0577,0.0000,39.6400,64,98,496529
2.0479,0.0000,39.6700,64,98,496532
2.1114,0.0000,39.4100,64,98,496535
2.0821,0.0000,39.6700,64,98,496539
2.1065,0.0000,39.6700,64,98,496542
2.1457,0.0000,39.6400,64,98,496545
2.2581,0.0147,39.6400,64,98,496548
2.2630,0.0000,39.6700,64,98,496552
2.3558,0.0000,39.4800,64,98,496556
2.3412,0.0000,39.5700,64,98,496559
2.3363,0.0000,39.6700,64,98,496563
2.3509,0.0000,39.8300,64,98,496566
2.3363,0.0000,39.6700,64,98,496569
2.3949,0.0049,39.4400,64,98,496573
2.3412,0.0000,39.5700,64,98,496576
2.3069,0.0000,39.6700,64,98,496579
2.2923,0.0196,39.6400,64,98,496582
2.2678,0.0000,39.8600,64,98,496586
2.3021,0.0000,39.5100,64,98,496589
2.2141,0.0000,39.6400,64,98,496592
2.1554,0.0000,39.5400,64,98,496596
2.0821,0.0000,39.8300,64,98,496600
2.0137,0.0000,39.7000,64,98,496603
1.9892,0.0000,39.5700,64,98,496607
1.8768,0.0000,39.5400,64,98,496610
1.7937,0.0000,39.6000,64,98,496613
1.7302,0.0000,39.6400,64,98,496616
1.6716,0.0098,39.6700,64,98,496620
1.6667,0.0000,39.5100,64,98,496623
1.6178,0.0000,39.5700,64,98,496626
1.5298,0.0049,39.6000,64,98,496630
1.4809,0.0000,39.6400,64,98,496633
1.4614,0.0000,39.6700,64,98,496638
1.4761,0.0000,39.8600,64,98,496642
1.4321,0.0000,39.6400,64,98,496645
1.4174,0.0000,39.6400,64,98,496649
1.4174,0.0000,39.6700,64,98,496652
1.4125,0.0000,39.7000,64,98,496655
1.4565,0.0000,39.5100,64,98,496659
1.4370,0.0000,39.8000,64,98,496662
1.4370,0.0000,39.6000,64,98,496665
1.4614,0.0000,39.6400,64,98,496668
1.4614,0.0000,39.6700,64,98,496672
1.5103,0.0489,39.5100,64,98,496675
1.5005,0.0000,39.6000,64,98,496678
1.4809,0.0000,39.5400,64,98,496683
1.4809,0.0000,39.6400,64,98,496686
1.4809,0.0000,39.6700,64,98,496689
1.5689,0.0000,39.4800,64,98,496693
1.5298,0.0147,39.6000,64,98,496696
1.5494,0.0000,39.6000,64,98,496699
1.5543,0.0000,39.7000,64,98,496702
1.5640,0.0000,39.5700,64,98,496706
1.6227,0.0000,39.5100,64,98,496709
1.5982,0.0000,39.6000,64,98,496712
1.5934,0.0000,39.5700,64,98,496716
1.5934,0.0000,39.6700,64,98,496719
1.5885,0.0000,39.8600,64,98,496722
1.6373,0.0000,39.5100,64,98,496727
1.6178,0.0000,39.6400,64,98,496730
1.6276,0.0000,39.6400,64,98,496733
1.6618,0.0000,39.6400,64,98,496736
1.6520,0.0000,39.6700,64,98,496740
1.7155,0.0147,39.5100,64,98,496743
1.7009,0.0000,39.6400,64,98,496746
1.7107,0.0000,39.5700,64,98,496750
1.7253,0.0000,39.6700,64,98,496753
1.7351,0.0000,39.6700,64,98,496756
1.7791,0.0196,39.4800,64,98,496760
1.7595,0.0000,39.6400,64,98,496763
1.7889,0.0000,39.5700,64,98,496766
1.7449,0.0000,39.7000,64,98,496770
1.7400,0.0000,39.5700,64,98,496774
1.7644,0.0000,39.5400,64,98,496777
1.7498,0.0000,39.6000,64,98,496780
1.7595,0.0000,39.5400,64,98,496784
1.7546,0.0000,39.6700,64,98,496787
1.7693,0.0000,39.6400,64,98,496790
1.8133,0.0000,39.6400,64,98,496794
1.7986,0.0000,39.6400,64,98,496797
1.8280,0.0000,39.5400,64,98,496800
1.8182,0.0000,39.6700,64,98,496803
1.8133,0.0000,39.6700,64,98,496807
1.8524,0.0000,38.7100,64,98,496811
1.8377,0.0000,39.6700,64,98,496814
1.8426,0.0000,39.5700,64,98,496818
1.8280,0.0000,39.6400,64,98,496821
1.8182,0.0049,39.6700,64,98,496824
1.8524,0.0000,39.5400,64,98,496828
1.8182,0.0049,39.7000,64,98,496831
1.8231,0.0000,39.5700,64,98,496834
1.8084,0.0000,39.7000,64,98,496837
1.8133,0.0000,39.7300,64,98,496841
1.8524,0.0000,39.5700,64,98,496844
1.8182,0.0000,39.6400,64,98,496847
1.8280,0.0000,39.5400,64,98,496851
1.8133,0.0000,39.6700,64,98,496855
1.8182,0.0000,39.7300,64,98,496858
1.8524,0.0000,39.4800,64,98,496861
1.8231,0.0000,39.6400,64,98,496865
1.8182,0.0000,39.5700,64,98,496868
1.8035,0.0000,39.6400,64,98,496871
1.8035,0.0000,39.6700,64,98,496875
1.8524,0.0000,39.5400,64,98,496878
1.8231,0.0000,39.6000,64,98,496881
1.8231,0.0000,39.6400,64,98,496885
1.8035,0.0000,39.6700,64,98,496888
1.7937,0.0000,39.6700,64,98,496891
1.8280,0.0049,39.5700,64,98,496894
1.7986,0.0000,39.6400,64,98,496899
1.8084,0.0000,39.6400,64,98,496902
1.8035,0.0000,39.7300,64,98,496905
1.8035,0.0000,39.6700,64,98,496909
1.8426,0.0000,39.4800,64,98,496912
1.8426,0.0000,39.6400,64,98,496915
1.8231,0.0000,39.5400,64,98,496919
1.8035,0.0000,39.6400,64,98,496922
1.7986,0.0000,39.6700,64,98,496925
1.8426,0.0000,39.5700,64,98,496929
1.8231,0.0000,39.6000,64,98,496932
1.8280,0.0000,39.5700,64,98,496935
1.8426,0.0000,39.6400,64,98,496939
1.8035,0.0000,39.6700,64,98,496943
1.8426,0.0342,39.5700,64,98,496946
1.8182,0.0000,39.6000,64,98,496949
1.8133,0.0196,39.5400,64,98,496953
1.8084,0.0000,39.5100,64,98,496956
1.8231,0.0000,39.6700,64,98,496959
1.8622,0.0000,39.4800,64,98,496963
1.8377,0.0000,39.6400,64,98,496966
1.8426,0.0000,39.5400,64,98,496969
1.8231,0.0000,39.6700,64,98,496972
1.8231,0.0000,39.6000,64,98,496976
1.8573,0.0000,39.5700,64,98,496979
1.8328,0.0000,39.6000,64,98,496983
1.8328,0.0000,39.5700,64,98,496987
1.8133,0.0000,39.6400,64,98,496990
1.8182,0.0000,39.7700,64,98,496993
1.8622,0.0000,39.5700,64,98,496997
1.8426,0.0000,39.6000,64,98,497000
1.8524,0.0000,39.5700,64,98,497003
1.8377,0.0000,39.7000,64,98,497006
1.8328,0.0000,39.1200,64,98,497010
1.8622,0.0000,39.5100,64,98,497013
1.8328,0.0000,39.6400,64,98,497016
1.8475,0.0000,39.5700,64,98,497020
1.8280,0.0000,39.7000,64,98,497024
1.8328,0.0000,39.8600,64,98,497027
1.8719,0.0000,39.5400,64,98,497031
1.8475,0.0000,39.6000,64,98,497034
1.8573,0.0000,39.5700,64,98,497037
1.8328,0.0000,39.5700,64,98,497041
1.8328,0.0000,39.6400,64,98,497044
1.8719,0.0000,39.5700,64,98,497047
1.8817,0.0000,39.6400,64,98,497050
1.8671,0.0000,39.5700,64,98,497054
1.8573,0.0000,39.6700,64,98,497057
1.8573,0.0000,39.6400,64,98,497060
1.8866,0.0000,39.5100,64,98,497064
1.8573,0.0000,39.7000,64,98,497068
1.8573,0.0000,39.5700,64,98,497071
1.8426,0.0000,39.7300,64,98,497075
1.8377,0.0000,39.6700,64,98,497078
1.8671,0.0000,39.6000,64,98,497081
1.8475,0.0000,39.6000,64,98,497084
1.8475,0.0000,39.5700,64,98,497088
1.8426,0.0000,39.6700,64,98,497091
1.8475,0.0000,39.6700,64,98,497094
1.8915,0.0000,39.5400,64,98,497098
1.8622,0.0000,39.6700,64,98,497101
1.8671,0.0000,39.5700,64,98,497104
1.8524,0.0000,39.6700,64,98,497108
1.8719,0.0000,39.6700,64,98,497112
1.8866,0.0000,39.4800,64,98,497115
1.8719,0.0000,39.8300,64,98,497119
1.8768,0.0000,39.5700,64,98,497122
1.8719,0.0000,39.6700,64,98,497125
1.8817,0.0000,39.6700,64,98,497128
1.9355,0.0000,39.5100,64,98,497132
1.9257,0.0000,39.0900,64,98,497135
1.9355,0.0000,39.5700,64,98,497138
1.9257,0.0000,39.7000,64,98,497142
1.9306,0.0098,39.7000,64,98,497145
1.9697,0.0000,39.5400,64,98,497148
1.9453,0.0293,39.6400,64,98,497153
1.9648,0.0000,39.5700,64,98,497156
1.9453,0.0000,39.6700,64,98,497159
1.9844,0.0000,39.6700,64,98,497162
2.0186,0.0000,39.5100,64,98,497166
1.9697,0.0000,39.5700,64,98,497169
1.9306,0.0000,39.6700,64,98,497172
1.9453,0.0000,39.5400,64,98,497176
1.9013,0.0000,39.7700,64,98,497179
1.9013,0.0000,39.7300,64,98,497182
1.9013,0.0000,39.5700,64,98,497186
1.8866,0.0000,39.6700,64,98,497189
1.8964,0.0000,39.5700,64,98,497192
1.8524,0.0244,39.6700,64,98,497196
1.8622,0.0000,39.6700,64,98,497200
1.8573,0.0000,39.5400,64,98,497203
1.8280,0.0049,39.6700,64,98,497206
1.8573,0.0000,39.5400,64,98,497210
1.7986,0.0000,39.6000,64,98,497213
1.7840,0.0000,39.7700,64,98,497216
1.7889,0.0000,39.5700,64,98,497220
1.7693,0.0000,39.6400,64,98,497223
1.7889,0.0000,39.5700,64,98,497226
1.7595,0.0000,39.6700,64,98,497229
1.7546,0.0000,39.7700,64,98,497233
1.7595,0.0000,39.5700,64,98,497236
1.7449,0.0000,39.6700,64,98,497240
1.7791,0.0000,39.5400,64,98,497244
1.7595,0.0000,39.6700,64,98,497247
1.7644,0.0000,39.7000,64,98,497252
1.7889,0.0000,39.5700,64,98,497255
1.7693,0.0000,39.6700,64,98,497258
1.7986,0.0000,39.5100,64,98,497262
1.7840,0.0000,39.6000,64,98,497265
1.8035,0.0000,39.6700,64,98,497268
1.8280,0.0000,39.4400,64,98,497271
1.8182,0.0000,39.7000,64,98,497275
1.8426,0.0000,39.5400,64,98,497278
1.7986,0.0000,39.6700,64,98,497282
1.7937,0.0000,39.7000,64,98,497286
1.7986,0.0000,39.5700,64,98,497289
1.8133,0.0000,39.6700,64,98,497292
1.8768,0.0000,39.5700,64,98,497296
1.9062,0.0147,39.6400,64,98,497299
2.0332,0.0000,39.6700,64,98,497302
2.2043,0.0098,39.5700,64,98,497306
2.4487,0.0000,39.6400,64,98,497309
2.8495,0.0000,39.4800,64,98,497312
3.2307,0.0000,39.6000,64,98,497315
3.6022,0.0000,39.6700,64,98,497319
3.9150,0.0000,39.5700,64,98,497323
4.0518,0.0000,39.6700,64,98,497326
4.0860,0.0000,39.6400,64,98,497330
3.8025,0.0000,39.6700,64,98,497333
3.4409,0.0000,39.6700,64,98,497336
3.0303,0.0000,39.1600,64,98,497340
2.5415,0.0000,39.6700,64,98,497343
2.1261,0.0000,39.5400,64,98,497346
1.7400,0.0000,39.6700,64,98,497349
1.5152,0.0147,39.6700,64,98,497353
1.4223,0.0000,39.5700,64,98,497356
1.3685,0.0000,39.6700,64,98,497359
1.3930,0.0000,39.5400,64,98,497363
1.3930,0.0000,39.6000,64,98,497367
1.4223,0.0000,39.7000,64,98,497370
1.4614,0.0000,39.5700,64,98,497374
1.4712,0.0000,39.6700,64,98,497377
1.5152,0.0000,39.5400,64,98,497380
1.5054,0.0000,39.6700,64,98,497383
1.5200,0.0000,39.7300,64,98,497387
1.5543,0.0000,39.6000,64,98,497390
1.5689,0.0000,39.6700,64,98,497393
1.6080,0.0000,39.5400,64,98,497397
1.5934,0.0000,39.7700,64,98,497400
1.6080,0.0000,39.6700,64,98,497403
1.6276,0.0000,39.5700,64,98,497408
1.6129,0.0000,39.6400,64,98,497411
1.6471,0.0000,39.5400,64,98,497414
1.6325,0.0000,39.6400,64,98,497418
1.6569,0.0000,39.6700,64,98,497421
1.7009,0.0000,39.5700,64,98,497424
1.7107,0.0000,39.6700,64,98,497427
1.7546,0.0000,39.5400,64,98,497431
1.7302,0.0000,39.6400,64,98,497434
1.7302,0.0000,39.7300,64,98,497437
1.7351,0.0000,39.5700,64,98,497441
1.7400,0.0000,39.6700,64,98,497444
1.7840,0.0000,39.5700,64,98,497447
1.7742,0.0000,39.6700,64,98,497451
1.7937,0.0000,39.6700,64,98,497455
1.8475,0.0098,39.5700,64,98,497458
1.8377,0.0000,39.7000,64,98,497461
1.8719,0.0000,39.5400,64,98,497465
1.8524,0.0000,39.6000,64,98,497468
1.8622,0.0000,39.6700,64,98,497471
1.8915,0.0000,39.5700,64,98,497475
1.8964,0.0000,39.7000,64,98,497478
1.9404,0.0000,39.5700,64,98,497481
1.9306,0.0000,39.6700,64,98,497485
1.9550,0.0000,39.7000,64,98,497488
1.9844,0.0000,39.7000,64,98,497491
1.9892,0.0000,39.6000,64,98,497495
2.0283,0.0000,39.5700,64,98,497499
2.0039,0.0000,39.6700,64,98,497502
2.0039,0.0000,39.6700,64,98,497505
2.0430,0.0000,39.6000,64,98,497509
2.0381,0.0000,39.6700,64,98,497512
2.0870,0.0000,39.5700,64,98,497515
2.0870,0.0000,39.6700,64,98,497519
2.1114,0.0098,39.7000,64,98,497522
2.1603,0.0000,39.5700,64,98,497525
2.1554,0.0098,39.7000,64,98,497528
2.1994,0.0000,39.5400,64,98,497532
2.1896,0.0000,39.6000,64,98,497536
2.2239,0.0000,39.6700,64,98,497539
2.2630,0.0000,39.6000,64,98,497543
2.2776,0.0000,39.6700,64,98,497546
2.3265,0.0000,39.5400,64,98,497549
2.3069,0.0000,39.6700,64,98,497553
2.3167,0.0000,39.6700,64,98,497556
2.3656,0.0000,39.5400,64,98,497559
2.3460,0.0000,39.7300,64,98,497562
2.3851,0.0000,39.5400,64,98,497566
2.3900,0.0000,39.6700,64,98,497569
2.3607,0.0147,39.5700,64,98,497572
2.4047,0.0000,39.5700,64,98,497576
2.3705,0.0000,39.6400,64,98,497580
2.3754,0.0000,39.6400,64,98,497583
2.2972,0.0000,39.6700,64,98,497587
2.2581,0.0000,39.6700,64,98,497590
2.2190,0.0000,39.6400,64,98,497593
2.1505,0.0000,39.6400,64,98,497596
2.1163,0.0000,39.5400,64,98,497600
2.0235,0.0000,39.6700,64,98,497603
1.9599,0.0000,39.7000,64,98,497606
1.9208,0.0000,39.4400,64,98,497610
1.8280,0.0000,39.7700,64,98,497613
1.7840,0.0000,39.5100,64,98,497616
1.6911,0.0000,39.6700,64,98,497620
1.6373,0.0196,39.6700,64,98,497624
1.6178,0.0000,39.6000,64,98,497627
1.5640,0.0000,39.6400,64,98,497630
1.5445,0.0000,39.5400,64,98,497634
1.4858,0.0000,39.7000,64,98,497637
1.4516,0.0000,39.6700,64,98,497640
1.4467,0.0000,39.6000,64,98,497644
1.4174,0.0000,39.6400,64,98,497647
1.4272,0.0000,39.5700,64,98,497650
1.4027,0.0000,39.6700,64,98,497654
1.4027,0.0000,39.6700,64,98,497657
1.4321,0.0000,39.5100,64,98,497660
1.4223,0.0000,39.6400,64,98,497664
1.4712,0.0000,39.5400,64,98,497668
1.4418,0.0049,39.6700,64,98,497671
1.4809,0.0000,39.6700,64,98,497674
1.4956,0.0000,39.6000,64,98,497678
1.4516,0.0000,39.6700,64,98,497681
1.4761,0.0000,39.5400,64,98,497684
1.4712,0.0000,39.6700,64,98,497688
1.4956,0.0000,39.7700,64,98,497691
1.5249,0.0000,39.6000,64,98,497694
1.5347,0.0000,39.6700,64,98,497697
1.5689,0.0000,39.5400,64,98,497701
1.5543,0.0000,39.6700,64,98,497704
1.5640,0.0000,39.6700,64,98,497708
1.6129,0.0000,39.5700,64,98,497712
1.5982,0.0000,39.6400,64,98,497715
1.6276,0.0000,39.0900,64,98,497718
1.6080,0.0000,39.7000,64,98,497722
1.6178,0.0000,39.6700,64,98,497725
1.6471,0.0000,39.5700,64,98,497728
1.6373,0.0000,39.6700,64,98,497731
1.6618,0.0000,39.5100,64,98,497735
1.6471,0.0000,39.6700,64,98,497738
1.6569,0.0000,39.6700,64,98,497741
1.6813,0.0000,39.6400,64,98,497745
1.6813,0.0000,39.6400,64,98,497748
1.7107,0.0000,39.5400,64,98,497752
1.6960,0.0000,39.6700,64,98,497756
1.7155,0.0000,39.6700,64,98,497759
1.8035,0.0000,39.5400,64,98,497762
1.7546,0.0000,39.6400,64,98,497765
1.7840,0.0000,39.5400,64,98,497769
1.7595,0.0000,39.6700,64,98,497772
1.7644,0.0000,39.7000,64,98,497775
1.7742,0.0000,39.5700,64,98,497779
1.7595,0.0000,39.6400,64,98,497782
1.7840,0.0000,39.5400,64,98,497785
1.7644,0.0000,39.6700,64,98,497789
1.7840,0.0000,39.6700,64,98,497793
1.7840,0.0000,39.6700,64,98,497796
1.8084,0.0000,39.5400,64,98,497799
1.7937,0.0000,39.7000,64,98,497803
1.8280,0.0000,39.4800,64,98,497806
1.8133,0.0000,39.6000,64,98,497809
1.8475,0.0000,39.6700,64,98,497813
1.8622,0.0000,39.5400,64,98,497816
1.8182,0.0000,39.6400,64,98,497819
1.8377,0.0000,39.5100,64,98,497823
1.8182,0.0000,39.6400,64,98,497826
1.8475,0.0000,39.6700,64,98,497829
1.8280,0.0098,39.5700,64,98,497832
1.8231,0.0000,39.7000,64,98,497837
1.8328,0.0098,39.5100,64,98,497840
1.8035,0.0000,39.6700,64,98,497843
1.7937,0.0000,39.7000,64,98,497847
1.8133,0.0000,39.5700,64,98,497850
1.7889,0.0000,39.6400,64,98,497853
1.8182,0.0000,39.5100,64,98,497857
1.8035,0.0000,39.5700,64,98,497860
1.7937,0.0000,39.6700,64,98,497865
1.8084,0.0000,39.5700,64,98,497868
1.7937,0.0000,39.7700,64,98,497871
1.8231,0.0000,39.5100,64,98,497875
1.8035,0.0000,39.6400,64,98,497879
1.8084,0.0000,39.6700,64,98,497882
1.8328,0.0000,39.5400,64,98,497885
1.8231,0.0000,39.7300,64,98,497889
1.8573,0.0000,39.4800,64,98,497892
1.8280,0.0000,39.8000,64,98,497895
1.8280,0.0098,39.6400,64,98,497899
1.8768,0.0000,39.5700,64,98,497902
1.8133,0.0000,39.6700,64,98,497905
1.8280,0.0000,39.4800,64,98,497909
1.8035,0.0000,39.6000,64,98,497912
1.7986,0.0000,39.7000,64,98,497915
1.8182,0.0000,39.5400,64,98,497918
1.8035,0.0000,39.7700,64,98,497923
1.8377,0.0000,39.5100,64,98,497926
1.8231,0.0000,39.6400,64,98,497929
1.8280,0.0000,39.6700,64,98,497933
1.8426,0.0000,39.5400,64,98,497936
1.8231,0.0000,39.6700,64,98,497939
1.8377,0.0000,38.7400,64,98,497943
1.7986,0.0000,39.5400,64,98,497946
1.7937,0.0000,39.6700,64,98,497949
1.8133,0.0000,39.5400,64,98,497952
1.7986,0.0000,39.6700,64,98,497956
1.8231,0.0000,39.5400,64,98,497959
1.8084,0.0000,39.5400,64,98,497963
1.8084,0.0000,39.7300,64,98,497967
1.8377,0.0000,39.5400,64,98,497970
1.8426,0.0000,39.6700,64,98,497973
1.8573,0.0000,39.5700,64,98,497976
1.8377,0.0000,39.6700,64,98,497980
1.8426,0.0000,39.7300,64,98,497983
1.8622,0.0000,39.5400,64,98,497986
1.8573,0.0000,39.6700,64,98,497990
1.8817,0.0000,39.5700,64,98,497993
1.8573,0.0098,39.6700,64,98,497996
1.8475,0.0000,39.6400,64,98,498000
1.8573,0.0000,39.5400,64,98,498003
1.8231,0.0000,39.6700,64,98,498007
1.8475,0.0000,39.4800,64,98,498010
1.8328,0.0000,39.5700,64,98,498014
1.8377,0.0000,39.6700,64,98,498017
1.8524,0.0000,39.5100,64,98,498020
1.8426,0.0000,39.6700,64,98,498024
1.8719,0.0000,39.4100,64,98,498027
1.8426,0.0000,39.7000,64,98,498030
1.8426,0.0000,39.6700,64,98,498034
1.8524,0.0000,39.5400,64,98,498037
1.8328,0.0000,39.6700,64,98,498040
1.8622,0.0000,39.4400,64,98,498044
1.8377,0.0000,39.7300,64,98,498048
1.8377,0.0000,39.6700,64,98,498051
1.8622,0.0000,39.6000,64,98,498054
1.8377,0.0098,39.6400,64,98,498058
1.8622,0.0000,39.4800,64,98,498061
1.8377,0.0000,39.5400,64,98,498064
1.8280,0.0000,39.6700,64,98,498068
1.8524,0.0049,39.5100,64,98,498071
1.8377,0.0000,39.7000,64,98,498074
1.8817,0.0000,39.4100,64,98,498078
1.8768,0.0000,39.7300,64,98,498081
1.8817,0.0000,39.6700,64,98,498084
1.9257,0.0000,39.5400,64,98,498087
1.8719,0.0049,39.6700,64,98,498092
1.8964,0.0000,39.4800,64,98,498095
1.8475,0.0000,39.7300,64,98,498098
1.8475,0.0000,39.7000,64,98,498102
1.8671,0.0049,39.6400,64,98,498105
1.8573,0.0000,39.6700,64,98,498108
1.8964,0.0000,39.4400,64,98,498112
1.8671,0.0000,39.7700,64,98,498115
1.8524,0.0000,39.7700,64,98,498118
1.8671,0.0000,39.8900,64,98,498121
1.8524,0.0000,39.6700,64,98,498125
1.9062,0.0000,39.4400,64,98,498128
1.8768,0.0000,39.6400,64,98,498131
1.8915,0.0000,39.6400,64,98,498136
1.9306,0.0000,39.6000,64,98,498139
1.9208,0.0000,39.6700,64,98,498142
1.9648,0.0098,39.5700,64,98,498146
1.9355,0.0000,39.6700,64,98,498149
1.9355,0.0000,39.6700,64,98,498152
1.9501,0.0000,39.6400,64,98,498155
1.9404,0.0000,39.7000,64,98,498159
1.9941,0.0000,39.4800,64,98,498162
1.9941,0.0000,39.5700,64,98,498165
1.9941,0.0000,39.7300,64,98,498169
2.0381,0.0000,39.5700,64,98,498172
2.0137,0.0000,39.6700,64,98,498176
2.0430,0.0000,39.4800,64,98,498180
1.9941,0.0000,39.6400,64,98,498183
1.9844,0.0000,39.6700,64,98,498186
1.9648,0.0000,39.5400,64,98,498189
1.9208,0.0000,39.7000,64,98,498193
1.9501,0.0000,39.4400,64,98,498196
1.9110,0.0000,39.6700,64,98,498199
1.8817,0.0000,39.6700,64,98,498203
1.8866,0.0000,39.6000,64,98,498206
1.8573,0.0000,39.6000,64,98,498209
1.8768,0.0000,39.4400,64,98,498213
1.8524,0.0000,39.5700,64,98,498216
1.8035,0.0000,39.7000,64,98,498220
1.8084,0.0342,39.5700,64,98,498223
1.7889,0.0000,39.6400,64,98,498227
1.8133,0.0000,39.4400,64,98,498230
1.7742,0.0098,39.6000,64,98,498233
1.7644,0.0000,39.6700,64,98,498237
1.7840,0.0000,39.5700,64,98,498240
1.7693,0.0000,39.6700,64,98,498243
1.8035,0.0000,39.4400,64,98,498247
1.7791,0.0000,39.6700,64,98,498250
1.7546,0.0000,39.7000,64,98,498253
1.7644,0.0000,39.6000,64,98,498257
1.7498,0.0000,39.8000,64,98,498260
1.7889,0.0000,39.4400,64,98,498264
1.7791,0.0000,39.5700,64,98,498267
1.7791,0.0000,39.6700,64,98,498271
1.8084,0.0000,39.5400,64,98,498274
1.7889,0.0000,39.7000,64,98,498277
1.8475,0.0000,39.4400,64,98,498281
1.7937,0.0000,39.7000,64,98,498284
1.7937,0.0000,39.6400,64,98,498287
1.8182,0.0000,38.8100,64,98,498290
1.8035,0.0000,39.7000,64,98,498294
1.8328,0.0000,39.4800,64,98,498297
1.7937,0.0000,39.6700,64,98,498300
1.8035,0.0000,39.6700,64,98,498305
1.8280,0.0000,39.8000,64,98,498308
1.8328,0.0000,39.6400,64,98,498311
1.9062,0.0000,39.4400,64,98,498315
1.9257,0.0000,39.5700,64,98,498318
1.9892,0.0000,39.6700,64,98,498321
2.1652,0.0000,39.6400,64,98,498324
2.3998,0.0000,39.6700,64,98,498328
2.8152,0.0000,39.4400,64,98,498331
3.1916,0.0000,39.6000,64,98,498334
3.5728,0.0000,39.6700,64,98,498338
3.9052,0.0000,39.5700,64,98,498341
4.0420,0.0000,39.6700,64,98,498344
4.1251,0.0000,39.4400,64,98,498349
3.8563,0.0000,39.7000,64,98,498352
3.5142,0.0000,39.6700,64,98,498355
3.1036,0.0000,39.6000,64,98,498358
2.5953,0.0000,39.6700,64,98,498362
2.1799,0.0000,39.5100,64,98,498365
1.7889,0.0000,39.5700,64,98,498368
1.5494,0.0000,39.7300,64,98,498372
1.4467,0.0000,39.5700,64,98,498375
1.3832,0.0000,39.7000,64,98,498378
1.4125,0.0000,39.5400,64,98,498382
1.4076,0.0000,39.6400,64,98,498385
1.4321,0.0000,39.6700,64,98,498388
1.4761,0.0000,39.2200,64,98,498393
1.4858,0.0000,39.6700,64,98,498396
1.5543,0.0000,39.4800,64,98,498399
1.5249,0.0000,39.7000,64,98,498402
1.5298,0.0000,39.7000,64,98,498406
1.5494,0.0000,39.5700,64,98,498409
1.6178,0.0000,39.6700,64,98,498412
1.6422,0.0000,39.7000,64,98,498416
1.6911,0.0000,39.3800,64,98,498419
1.6569,0.0000,39.5400,64,98,498422
1.6618,0.0000,39.6400,64,98,498426
1.6764,0.0000,39.7000,64,98,498429
1.6764,0.0000,39.6700,64,98,498433
1.7351,0.0000,39.3800,64,98,498436
1.7058,0.0196,39.5700,64,98,498440
1.7351,0.0000,39.7000,64,98,498443
1.7253,0.0000,39.6400,64,98,498446
1.7351,0.0000,39.6700,64,98,498450
1.8035,0.0000,39.4100,64,98,498453
1.7840,0.0000,39.6000,64,98,498456
1.7937,0.0000,39.7000,64,98,498460
1.8133,0.0000,39.6000,64,98,498463
1.8182,0.0000,39.6400,64,98,498466
1.8817,0.0000,39.3800,64,98,498469
1.8524,0.0000,39.5700,64,98,498473
1.8573,0.0000,39.6700,64,98,498478
1.8719,0.0000,39.6400,64,98,498482
1.8768,0.0000,39.7300,64,98,498485
1.9453,0.0000,39.3800,64,98,498488
1.9257,0.0000,39.5700,64,98,498492
1.9355,0.0000,39.6700,64,98,498495
1.9746,0.0000,39.6400,64,98,498498
1.9892,0.0000,39.7000,64,98,498501
2.0674,0.0000,39.3800,64,98,498505
2.0479,0.0000,39.5700,64,98,498508
2.0479,0.0000,39.6700,64,98,498511
2.0723,0.0000,39.6400,64,98,498515
2.0674,0.0000,39.7000,64,98,498519
2.1310,0.0000,39.4400,64,98,498522
2.0968,0.0000,39.5700,64,98,498526
2.1065,0.0000,39.7000,64,98,498529
2.1359,0.0000,39.6000,64,98,498532
2.1408,0.0000,39.6700,64,98,498535
2.2190,0.0000,39.4100,64,98,498539
2.1945,0.0000,39.5700,64,98,498542
2.2190,0.0000,39.6700,64,98,498545
2.2581,0.0000,39.6400,64,98,498549
2.2727,0.0000,39.6400,64,98,498552
2.3558,0.0000,39.3800,64,98,498555
2.3363,0.0000,39.7000,64,98,498560
2.3363,0.0000,39.6700,64,98,498563
2.3656,0.0000,39.6400,64,98,498566
2.3949,0.0000,39.6700,64,98,498569
2.4340,0.0196,39.3800,64,98,498573
2.3900,0.0000,39.5700,64,98,498576
2.3754,0.0000,39.6700,64,98,498579
2.3851,0.0000,39.6400,64,98,498583
2.3460,0.0000,39.7700,64,98,498586
2.3754,0.0000,39.3800,64,98,498589
2.2776,0.0000,39.5700,64,98,498593
2.2239,0.0000,39.6700,64,98,498596
2.1799,0.0000,39.6000,64,98,498599
2.1163,0.0000,39.7000,64,98,498603
2.1212,0.0000,39.4100,64,98,498607
2.0186,0.0000,39.5700,64,98,498610
1.9404,0.0000,39.6000,64,98,498613
1.9013,0.0000,39.7000,64,98,498617
1.8328,0.0000,39.7000,64,98,498620
1.8182,0.0000,39.4100,64,98,498623
1.7400,0.0000,39.5700,64,98,498627
1.6618,0.0000,39.1900,64,98,498630
1.6227,0.0000,39.6000,64,98,498633
1.5591,0.0000,39.6700,64,98,498636
1.5543,0.0000,39.4100,64,98,498640
1.4809,0.0000,39.5400,64,98,498643
1.4565,0.0000,39.6700,64,98,498647
1.4516,0.0244,39.6400,64,98,498651
1.4223,0.0000,39.7000,64,98,498654
1.4516,0.0000,39.3800,64,98,498657
1.4125,0.0000,39.6000,64,98,498661
1.3978,0.0000,39.7000,64,98,498664
1.4076,0.0000,39.6000,64,98,498667
1.4076,0.0000,39.6700,64,98,498670
1.4565,0.0000,39.4100,64,98,498674
1.4370,0.0000,39.5700,64,98,498677
1.4418,0.0000,39.6700,64,98,498680
1.4663,0.0000,39.6000,64,98,498684
1.4516,0.0000,39.6700,64,98,498688
1.4956,0.0000,39.4100,64,98,498691
1.4663,0.0000,39.6400,64,98,498695
1.4956,0.0000,39.7300,64,98,498698
1.5249,0.0000,39.6000,64,98,498701
1.5640,0.0000,39.6400,64,98,498704
1.5885,0.0000,39.5700,64,98,498708
1.5738,0.0000,39.5400,64,98,498711
1.5689,0.0000,39.6700,64,98,498714
1.5885,0.0000,39.6000,64,98,498718
1.5787,0.0000,39.6700,64,98,498721
1.6276,0.0000,39.4800,64,98,498724
1.6129,0.0000,39.6700,64,98,498728
1.6227,0.0000,39.7000,64,98,498732
1.6667,0.0000,39.5700,64,98,498735
1.6373,0.0000,39.6700,64,98,498738
1.6813,0.0000,39.4400,64,98,498742
1.6422,0.0000,39.6000,64,98,498745
1.6618,0.0000,39.7000,64,98,498748
1.6813,0.0000,39.5700,64,98,498752
1.6667,0.0000,39.6700,64,98,498755
1.7204,0.0000,39.4400,64,98,498758
1.7009,0.0000,39.5400,64,98,498762
1.7107,0.0244,39.6700,64,98,498765
1.7351,0.0000,39.6000,64,98,498768
1.7400,0.0000,39.6700,64,98,498772
1.7791,0.0000,39.4100,64,98,498776
1.7546,0.0000,39.6700,64,98,498779
1.7546,0.0000,39.6700,64,98,498782
1.8035,0.0000,39.6000,64,98,498786
1.7644,0.0000,39.6700,64,98,498789
1.8035,0.0000,39.4400,64,98,498792
1.7546,0.0000,39.6000,64,98,498796
1.7889,0.0000,39.6700,64,98,498799
1.7840,0.0000,39.7000,64,98,498802
1.7644,0.0049,39.6700,64,98,498806
1.8084,0.0000,39.4400,64,98,498809
1.7937,0.0000,39.6400,64,98,498812
1.7840,0.0000,39.6700,64,98,498816
1.8133,0.0000,39.6000,64,98,498820
1.8133,0.0000,39.6700,64,98,498823
1.8524,0.0098,39.4100,64,98,498826
1.8231,0.0000,39.5700,64,98,498830
1.8133,0.0000,39.7000,64,98,498833
1.8231,0.0000,39.8000,64,98,498836
1.7937,0.0000,39.6700,64,98,498840
1.8280,0.0000,39.4100,64,98,498843
1.7840,0.0000,39.6000,64,98,498846
1.7986,0.0000,39.8600,64,98,498849
1.8133,0.0000,39.6000,64,98,498853
1.8035,0.0000,39.6700,64,98,498856
1.8377,0.0000,39.4100,64,98,498860
1.8231,0.0000,39.5400,64,98,498864
1.8035,0.0000,39.6700,64,98,498867
1.8182,0.0000,39.7000,64,98,498870
1.8035,0.0000,39.6700,64,98,498874
1.8475,0.0000,39.4400,64,98,498877
1.8182,0.0000,39.7000,64,98,498880
1.8133,0.0000,39.6700,64,98,498884
1.8328,0.0000,39.6000,64,98,498887
1.8084,0.0000,39.6700,64,98,498890
1.8573,0.0000,39.4100,64,98,498893
1.8133,0.0000,39.6000,64,98,498897
1.8084,0.0000,39.6400,64,98,498900
1.8231,0.0000,39.6000,64,98,498904
1.7986,0.0000,39.6700,64,98,498908
1.8328,0.0000,39.4400,64,98,498911
1.8035,0.0147,39.5700,64,98,498914
1.7937,0.0000,39.7000,64,98,498918
1.8426,0.0000,39.6000,64,98,498921
1.7937,0.0000,39.6700,64,98,498924
1.8328,0.0000,39.4100,64,98,498927
1.7986,0.0000,39.6400,64,98,498931
1.7937,0.0000,39.7300,64,98,498934
1.8231,0.0000,39.5700,64,98,498937
1.8035,0.0000,39.7300,64,98,498941
1.8573,0.0000,39.4800,64,98,498945
1.8231,0.0000,39.6400,64,98,498948
1.8280,0.0000,39.6700,64,98,498952
1.8524,0.0000,39.6000,64,98,498955
1.8426,0.0000,39.7000,64,98,498958
1.8622,0.0000,39.4400,64,98,498961
1.8280,0.0000,39.4800,64,98,498965
1.7986,0.0000,39.7300,64,98,498968
1.8231,0.0000,39.5700,64,98,498971
1.8035,0.0000,39.6700,64,98,498975
1.8475,0.0000,39.4100,64,98,498978
1.8133,0.0000,39.5700,64,98,498981
1.8035,0.0000,39.7000,64,98,498985
1.8475,0.0049,39.6000,64,98,498989
1.8182,0.0000,39.6700,64,98,498992
1.8573,0.0000,39.4100,64,98,498995
1.8133,0.0000,39.6400,64,98,498999
1.8182,0.0000,39.7000,64,98,499002
1.8328,0.0147,39.6400,64,98,499005
1.8231,0.0000,39.6400,64,98,499009
1.8622,0.0000,39.4100,64,98,499012
1.8671,0.0000,39.5700,64,98,499015
1.8280,0.0000,39.6400,64,98,499019
1.8524,0.0147,39.6400,64,98,499022
1.8377,0.0000,39.6700,64,98,499025
1.8866,0.0000,39.3800,64,98,499028
1.9013,0.0000,39.4800,64,98,499033
1.8719,0.0000,39.6000,64,98,499036
1.8524,0.0000,39.5700,64,98,499039
1.8377,0.0000,39.6400,64,98,499043
1.8280,0.0000,39.6400,64,98,499046
1.8671,0.0000,39.5700,64,98,499049
1.8280,0.0000,39.7000,64,98,499053
1.8280,0.0000,39.6000,64,98,499056
1.8182,0.0000,39.6400,64,98,499059
1.8231,0.0000,39.6700,64,98,499062
1.8817,0.0000,39.4400,64,98,499066
1.8573,0.0000,39.5700,64,98,499069
1.8524,0.0000,39.5700,64,98,499073
1.8377,0.0000,39.6400,64,98,499077
1.8426,0.0000,39.7000,64,98,499080
1.8719,0.0000,39.4400,64,98,499083
1.8524,0.0000,39.8000,64,98,499088
1.8426,0.0000,39.5700,64,98,499091
1.8377,0.0000,39.6400,64,98,499095
1.8377,0.0000,39.6700,64,98,499098
1.8866,0.0000,39.5100,64,98,499101
1.8475,0.0098,39.6000,64,98,499104
1.8475,0.0000,39.5700,64,98,499108
1.8377,0.0000,39.7000,64,98,499111
1.8328,0.0000,39.6700,64,98,499115
1.8768,0.0000,39.5100,64,98,499119
1.8573,0.0000,39.6000,64,98,499122
1.8671,0.0000,39.5700,64,98,499125
1.8671,0.0000,39.6400,64,98,499129
1.8719,0.0000,39.6700,64,98,499132
1.9110,0.0000,39.6400,64,98,499135
1.8768,0.0000,39.6000,64,98,499138
1.8524,0.0000,39.5700,64,98,499142
1.8377,0.0147,39.6700,64,98,499145
1.8377,0.0000,39.6700,64,98,499148
1.8817,0.0000,39.5400,64,98,499152
1.8524,0.0000,39.6400,64,98,499155
1.8622,0.0000,39.6400,64,98,499159
1.8573,0.0000,39.7000,64,98,499163
1.8719,0.0000,39.6700,64,98,499166
1.9355,0.0000,39.5700,64,98,499169
1.9257,0.0000,39.6400,64,98,499172
1.9355,0.0000,39.5400,64,98,499176
1.9257,0.0000,39.6700,64,98,499179
1.9208,0.0000,39.6700,64,98,499182
1.9746,0.0000,39.5400,64,98,499186
1.9599,0.0000,39.5700,64,98,499189
1.9746,0.0000,39.5400,64,98,499192
1.9892,0.0000,39.5400,64,98,499196
2.0039,0.0000,39.5400,64,98,499200
2.0674,0.0000,39.5400,64,98,499203
1.9941,0.0000,39.6000,64,98,499207
1.9746,0.0000,39.5700,64,98,499210
1.9355,0.0000,38.9300,64,98,499213
1.9062,0.0000,39.6700,64,98,499216
1.9355,0.0000,39.4800,64,98,499220
1.8915,0.0000,39.6400,64,98,499223
1.8817,0.0000,39.5700,64,98,499226
1.8671,0.0000,39.6700,64,98,499230
1.8573,0.0000,39.6700,64,98,499233
1.9208,0.0000,39.5100,64,98,499236
1.8426,0.0000,39.5700,64,98,499240
1.8084,0.0000,39.8900,64,98,499244
1.7889,0.0000,39.6700,64,98,499247
1.7693,0.0000,39.7000,64,98,499251
1.8377,0.0000,39.5100,64,98,499254
1.7791,0.0000,39.6700,64,98,499257
1.7889,0.0000,39.6000,64,98,499260
1.7840,0.0000,39.6400,64,98,499264
1.7693,0.0000,39.6700,64,98,499267
1.7889,0.0000,39.4800,64,98,499270
1.7400,0.0000,39.6000,64,98,499274
1.7155,0.0000,39.6000,64,98,499277
1.7253,0.0000,39.6400,64,98,499280
1.7351,0.0000,39.6700,64,98,499283
1.7693,0.0000,39.5700,64,98,499288
1.7449,0.0000,39.6400,64,98,499291
1.7351,0.0000,39.6000,64,98,499294
1.7302,0.0000,39.6400,64,98,499298
1.7253,0.0000,39.6700,64,98,499301
1.8084,0.0049,39.5100,64,98,499304
1.7351,0.0000,39.7000,64,98,499308
1.7449,0.0000,39.5400,64,98,499311
1.7498,0.0000,39.6700,64,98,499314
1.7546,0.0000,39.6700,64,98,499317
1.8084,0.0000,39.4400,64,98,499321
1.7742,0.0000,39.6000,64,98,499324
1.7742,0.0000,39.5700,64,98,499328
1.7644,0.0000,39.6400,64,98,499332
1.7693,0.0000,39.6700,64,98,499335
1.8426,0.0000,39.4400,64,98,499338
1.8622,0.0000,39.7300,64,98,499342
1.9013,0.0000,39.6000,64,98,499345
1.9697,0.0000,39.6700,64,98,499348
2.1554,0.0000,39.6700,64,98,499351
2.4682,0.0000,39.5400,64,98,499355
2.8006,0.0000,39.6400,64,98,499358
3.2160,0.0000,39.5700,64,98,499361
3.5679,0.0000,39.6700,64,98,499365
3.8612,0.0000,39.6700,64,98,499368
4.0714,0.0000,39.5400,64,98,499372
4.0176,0.0000,39.6400,64,98,499376
3.8025,0.0000,39.6000,64,98,499379
3.4409,0.0000,39.6700,64,98,499382
2.9863,0.0000,39.6700,64,98,499385
2.5709,0.0000,39.4400,64,98,499389
2.0772,0.0000,39.5700,64,98,499392
1.7155,0.0000,39.7000,64,98,499395
1.4907,0.0000,39.6700,64,98,499399
1.3832,0.0000,39.5100,64,98,499402
1.3783,0.0000,39.5100,64,98,499405
1.3392,0.0000,39.6400,64,98,499409
1.3490,0.0000,39.6000,64,98,499412
1.3685,0.0000,39.6400,64,98,499416
1.3881,0.0000,39.6700,64,98,499419
1.4516,0.0000,39.4800,64,98,499423
1.4418,0.0000,39.7300,64,98,499426
1.4370,0.0000,39.6000,64,98,499429
1.4565,0.0000,39.6700,64,98,499433
1.4712,0.0000,39.7300,64,98,499436
1.5396,0.0000,39.5400,64,98,499439
1.5396,0.0000,39.5700,64,98,499443
1.5445,0.0000,39.6400,64,98,499446
1.5885,0.0000,39.6400,64,98,499449
1.5640,0.0000,39.7000,64,98,499453
1.6129,0.0000,39.5100,64,98,499457
1.5836,0.0000,39.6400,64,98,499460
1.5836,0.0000,39.6000,64,98,499463
1.5934,0.0000,39.6400,64,98,499467
1.6276,0.0000,39.6700,64,98,499470
1.6667,0.0000,39.4800,64,98,499473
1.6569,0.0000,39.6400,64,98,499477
1.6618,0.0000,39.5400,64,98,499480
1.6764,0.0000,39.6700,64,98,499483
1.6813,0.0000,39.6700,64,98,499487
1.7498,0.0049,39.5100,64,98,499490
1.7351,0.0000,39.5400,64,98,499493
1.7302,0.0000,39.6400,64,98,499496
1.7351,0.0000,39.6400,64,98,499501
1.7449,0.0000,39.6700,64,98,499504
1.8035,0.0000,39.5400,64,98,499507
1.7840,0.0000,39.6400,64,98,499511
1.7986,0.0000,39.5700,64,98,499514
1.8133,0.0000,39.6700,64,98,499517
1.8328,0.0000,39.7700,64,98,499521
1.9013,0.0000,39.6000,64,98,499524
1.8964,0.0000,39.6000,64,98,499527
1.8915,0.0000,39.5700,64,98,499530
1.9013,0.0000,39.6400,64,98,499534
1.9013,0.0000,39.1200,64,98,499537
1.9648,0.0000,39.5100,64,98,499540
1.9550,0.0000,39.6400,64,98,499545
1.9550,0.0098,39.6000,64,98,499548
1.9697,0.0000,39.6700,64,98,499551
1.9697,0.0000,39.6700,64,98,499555
2.0283,0.0000,39.5700,64,98,499558
1.9990,0.0000,39.5400,64,98,499561
2.0430,0.0000,39.6000,64,98,499565
2.0332,0.0000,39.7000,64,98,499568
2.0626,0.0000,39.8600,64,98,499571
2.1505,0.0000,39.4800,64,98,499574
2.1408,0.0000,39.6000,64,98,499578
2.1457,0.0000,39.6000,64,98,499581
2.1652,0.0000,39.7000,64,98,499585
2.1799,0.0000,39.6700,64,98,499589
2.2630,0.0049,39.4400,64,98,499592
2.2483,0.0000,39.5700,64,98,499595
2.2483,0.0000,39.6400,64,98,499599
2.2630,0.0000,39.6700,64,98,499602
2.2727,0.0000,39.6700,64,98,499605
2.3412,0.0000,39.4800,64,98,499609
2.2972,0.0000,39.6400,64,98,499612
2.3216,0.0000,39.5700,64,98,499615
2.3021,0.0000,39.6400,64,98,499618
2.2972,0.0000,39.7000,64,98,499622
2.3558,0.0000,39.7000,64,98,499625
2.2972,0.0000,39.5700,64,98,499629
2.2678,0.0000,39.6000,64,98,499633
2.1945,0.0000,39.6400,64,98,499636
2.1359,0.0000,39.5700,64,98,499639
2.1359,0.0000,39.4400,64,98,499643
2.0332,0.0000,39.5700,64,98,499646
1.9453,0.0000,39.6000,64,98,499649
1.8768,0.0000,39.4800,64,98,499653
1.5543,0.0000,39.7300,64,98,499656
1.5005,0.0000,39.6700,64,98,499659
1.4761,0.0391,39.5100,64,98,499662
1.4174,0.0000,39.6700,64,98,499666
1.4076,0.0000,39.5400,64,98,499670
1.3978,0.0000,39.7000,64,98,499673
1.3734,0.0000,39.6700,64,98,499677
1.3881,0.0000,39.6400,64,98,499680
1.3685,0.0000,39.6000,64,98,499683
1.3881,0.0000,39.5700,64,98,499687
1.3441,0.0000,39.6700,64,98,499690
1.3343,0.0000,39.6700,64,98,499693
1.3441,0.0000,39.6400,64,98,499696
1.3343,0.0000,39.6400,64,98,499701
1.3441,0.0000,39.6400,64,98,499704
1.3343,0.0000,39.5700,64,98,499708
1.3490,0.0000,39.7000,64,98,499712
1.4027,0.0000,39.4800,64,98,499715
1.3832,0.0000,39.6400,64,98,499719
1.4027,0.0000,39.5400,64,98,499722
1.4174,0.0000,39.6700,64,98,499725
1.4614,0.0000,39.6700,64,98,499729
1.4907,0.0000,39.5400,64,98,499732
1.4907,0.0000,39.7000,64,98,499735
1.5152,0.0000,39.5400,64,98,499738
1.5005,0.0000,39.6400,64,98,499742
1.5200,0.0000,39.6700,64,98,499745
1.5249,0.0000,39.6700,64,98,499748
1.5249,0.0000,39.6400,64,98,499752
1.5689,0.0000,39.5400,64,98,499756
1.5445,0.0000,39.6700,64,98,499759
1.5591,0.0000,39.6700,64,98,499763
1.5982,0.0000,39.4400,64,98,499766
1.5738,0.0000,39.7000,64,98,499769
1.5738,0.0000,39.5400,64,98,499773
1.5591,0.0000,39.6700,64,98,499776
1.5591,0.0000,39.6700,64,98,499779
1.5885,0.0000,39.5400,64,98,499782
1.5885,0.0000,39.6400,64,98,499786
1.6227,0.0000,39.5400,64,98,499789
1.6276,0.0000,39.6400,64,98,499792
1.6373,0.0000,39.6700,64,98,499796
1.6667,0.0000,39.5400,64,98,499800
1.6520,0.0000,39.6400,64,98,499803
1.6716,0.0000,39.5700,64,98,499807
1.6618,0.0000,39.6700,64,98,499810
1.6667,0.0000,39.6400,64,98,499813
1.7107,0.0000,39.5100,64,98,499816
1.6911,0.0000,39.6000,64,98,499820
1.7107,0.0000,39.5400,64,98,499823
1.6911,0.0000,39.6400,64,98,499826
1.6960,0.0000,39.6700,64,98,499830
1.7351,0.0000,39.5400,64,98,499833
1.7351,0.0000,39.6000,64,98,499836
1.7498,0.0000,39.5700,64,98,499841
1.7400,0.0000,39.7300,64,98,499844
1.7449,0.0000,39.8300,64,98,499847
1.7693,0.0000,39.5700,64,98,499850
1.7644,0.0000,39.6000,64,98,499854
1.7400,0.0000,39.5100,64,98,499857
1.7253,0.0000,39.5400,64,98,499860
1.7253,0.0000,39.6700,64,98,499864
1.7644,0.0000,39.4800,64,98,499867
1.7302,0.0000,39.6400,64,98,499870
1.7302,0.0098,39.5400,64,98,499874
1.7302,0.0000,39.6700,64,98,499877
1.7107,0.0196,39.6700,64,98,499880
1.7400,0.0000,39.5700,64,98,499884
1.7253,0.0000,39.6400,64,98,499888
1.7351,0.0000,39.5400,64,98,499891
1.7155,0.0000,39.6700,64,98,499894
1.7155,0.0000,39.6700,64,98,499898
1.7351,0.0000,39.5700,64,98,499901
1.7253,0.0000,39.6400,64,98,499904
1.7400,0.0000,39.5400,64,98,499908
1.7302,0.0000,39.7000,64,98,499911
1.7351,0.0000,39.7300,64,98,499914
1.7742,0.0000,39.5100,64,98,499917
1.7449,0.0000,39.6700,64,98,499921
1.7546,0.0000,39.5700,64,98,499924
1.7302,0.0000,39.6700,64,98,499928
1.7204,0.0000,39.6700,64,98,499932
1.7400,0.0000,39.5400,64,98,499935
1.7204,0.0000,39.6400,64,98,499938
1.7351,0.0000,39.5400,64,98,499942
1.7302,0.0000,39.7300,64,98,499945
1.7400,0.0000,39.6700,64,98,499948
1.7791,0.0000,39.5700,64,98,499952
1.7595,0.0000,39.7000,64,98,499955
1.7644,0.0000,39.5700,64,98,499958
1.7449,0.0000,39.5700,64,98,499961
1.7400,0.0000,39.6700,64,98,499965
1.7693,0.0000,39.4800,64,98,499969
1.7449,0.0000,39.6700,64,98,499972
1.7546,0.0000,39.9300,64,98,499976
1.7449,0.0000,39.6700,64,98,499979
1.7302,0.0000,39.6700,64,98,499982
1.7498,0.0000,39.5700,64,98,499986
1.7253,0.0000,39.6400,64,98,499989
1.7302,0.0000,39.5400,64,98,499992
1.7204,0.0000,39.6700,64,98,499995
1.7204,0.0000,39.6700,64,98,499999
1.7546,0.0000,39.5100,64,98,500002
1.7302,0.0000,39.6400,64,98,500005
1.7351,0.0000,39.5700,64,98,500009
1.7204,0.0000,39.7300,64,98,500013
1.7204,0.0000,39.6700,64,98,500016
1.7595,0.0000,39.5400,64,98,500020
1.7351,0.0000,39.6400,64,98,500023
1.7449,0.0000,39.6000,64,98,500026
1.7400,0.0000,39.7300,64,98,500029
1.7449,0.0000,39.6700,64,98,500033
1.7986,0.0000,39.5400,64,98,500036
1.7693,0.0000,39.6000,64,98,500039
1.7791,0.0000,39.5400,64,98,500043
1.7644,0.0000,39.6700,64,98,500046
1.7693,0.0000,39.7000,64,98,500049
1.7986,0.0000,39.5400,64,98,500054
1.7742,0.0000,39.6400,64,98,500057
1.7693,0.0000,39.5700,64,98,500060
1.7449,0.0000,39.6400,64,98,500063
1.7351,0.0000,39.8000,64,98,500067
1.7693,0.0000,39.5100,64,98,500070
1.7449,0.0000,39.6400,64,98,500073
1.7644,0.0000,39.5400,64,98,500077
1.7595,0.0000,39.6400,64,98,500080
1.7595,0.0000,39.6700,64,98,500083
1.7889,0.0000,39.6400,64,98,500087
1.7644,0.0000,39.6400,64,98,500090
1.7742,0.0000,39.5700,64,98,500093
1.7498,0.0000,39.6400,64,98,500097
1.7449,0.0000,39.6700,64,98,500101
1.7693,0.0000,39.7700,64,98,500104
1.7400,0.0000,39.6400,64,98,500107
1.7351,0.0000,39.5700,64,98,500111
1.7351,0.0000,39.6700,64,98,500114
1.7155,0.0049,39.6400,64,98,500117
1.7595,0.0000,39.4800,64,98,500121
1.7449,0.0000,39.6400,64,98,500124
1.7986,0.0000,39.5400,64,98,500127
1.7546,0.0000,39.7000,64,98,500130
1.7546,0.0000,39.8000,64,98,500134
1.7791,0.0000,39.5400,64,98,500137
1.7644,0.0000,39.6400,64,98,500141
1.7742,0.0000,39.5700,64,98,500145
1.7693,0.0000,39.6700,64,98,500148
1.7693,0.0000,39.6700,64,98,500151
1.7986,0.0000,39.5700,64,98,500155
1.7791,0.0000,39.6700,64,98,500158
1.7889,0.0000,39.5700,64,98,500161
1.7791,0.0000,39.6400,64,98,500164
1.7889,0.0000,39.6400,64,98,500168
1.8280,0.0000,39.5100,64,98,500171
1.8133,0.0000,39.7000,64,98,500174
1.8328,0.0000,39.5700,64,98,500178
1.8280,0.0000,39.6400,64,98,500182
1.8377,0.0000,39.6400,64,98,500185
1.8866,0.0000,39.5100,64,98,500189
1.8768,0.0000,39.6400,64,98,500192
1.8866,0.0000,39.5700,64,98,500195
1.8719,0.0000,39.7000,64,98,500198
1.8915,0.0000,39.6700,64,98,500202
1.9453,0.0000,39.5400,64,98,500205
1.9404,0.0000,39.7000,64,98,500208
1.9648,0.0000,39.5700,64,98,500212
1.9746,0.0000,39.6700,64,98,500215
1.9404,0.0000,39.6700,64,98,500218
1.9599,0.0000,39.4800,64,98,500222
1.9013,0.0000,39.6000,64,98,500226
1.8719,0.0000,39.5700,64,98,500229
1.8328,0.0049,39.6400,64,98,500233
1.8182,0.0000,39.7000,64,98,500236
1.8524,0.0000,39.4800,64,98,500239
1.8328,0.0000,39.6700,64,98,500242
1.8280,0.0000,39.5700,64,98,500246
1.8328,0.0000,39.6400,64,98,500249
1.7791,0.0000,39.6700,64,98,500252
1.7937,0.0049,39.5700,64,98,500256
1.7693,0.0000,39.6700,64,98,500259
1.7595,0.0000,39.5700,64,98,500262
1.7400,0.0196,39.6700,64,98,500267
1.7253,0.0000,39.6700,64,98,500270
1.7498,0.0000,39.5100,64,98,500273
1.6960,0.0000,39.6000,64,98,500276
1.6960,0.0000,39.6700,64,98,500280
1.7302,0.0000,39.5400,64,98,500283
1.7058,0.0000,39.8000,64,98,500286
1.7009,0.0000,39.6700,64,98,500290
1.7058,0.0000,39.5400,64,98,500293
1.6862,0.0000,39.6700,64,98,500296
1.7155,0.0000,39.5700,64,98,500300
1.6862,0.0000,39.7000,64,98,500303
1.7009,0.0000,39.6700,64,98,500306
1.7498,0.0000,38.8100,64,98,500310
1.7400,0.0000,39.6700,64,98,500315
1.7791,0.0000,39.5400,64,98,500318
1.7498,0.0098,39.6700,64,98,500322
1.7449,0.0000,39.7000,64,98,500325
1.7693,0.0000,39.5700,64,98,500328
1.7498,0.0000,39.6400,64,98,500332
1.7840,0.0000,39.6000,64,98,500335
1.7791,0.0000,39.6700,64,98,500338
1.8084,0.0000,39.7000,64,98,500342
1.8768,0.0000,39.5400,64,98,500345
1.9697,0.0000,39.6700,64,98,500348
2.1896,0.0000,39.5400,64,98,500352
2.4682,0.0000,39.6400,64,98,500356
2.8543,0.0000,39.6700,64,98,500359
3.3236,0.0000,39.5400,64,98,500362
3.6217,0.0000,39.6400,64,98,500366
3.8954,0.0049,39.5400,64,98,500369
3.9589,0.0000,39.6700,64,98,500372
3.8905,0.0000,39.6400,64,98,500376
3.6804,0.0000,39.1900,64,98,500379
3.2796,0.0000,39.6700,64,98,500382
2.8690,0.0000,39.5400,64,98,500385
2.3705,0.0000,39.5700,64,98,500389
1.9501,0.0000,39.6700,64,98,500392
1.6471,0.0000,39.6400,64,98,500396
1.4712,0.0000,39.6700,64,98,500400
1.3685,0.0000,39.5700,64,98,500403
1.3245,0.0000,39.7000,64,98,500406
1.3245,0.0000,39.6700,64,98,500410
1.3930,0.0000,39.5100,64,98,500413
1.4370,0.0000,39.6400,64,98,500416
1.4370,0.0000,39.5400,64,98,500420
1.4321,0.0000,39.7000,64,98,500423
1.4467,0.0000,39.6700,64,98,500426
1.4809,0.0000,39.5400,64,98,500429
1.4761,0.0000,39.7000,64,98,500433
1.5054,0.0000,39.4800,64,98,500436
1.4907,0.0000,39.6700,64,98,500440
1.5103,0.0000,39.6700,64,98,500444
1.5445,0.0000,39.6000,64,98,500447
1.5494,0.0098,39.6400,64,98,500450
1.5934,0.0000,39.5400,64,98,500454
1.5885,0.0000,39.6700,64,98,500457
1.5982,0.0049,39.6400,64,98,500460
1.6227,0.0000,39.5400,64,98,500463
1.6276,0.0000,39.7000,64,98,500467
1.6471,0.0000,39.5100,64,98,500470
1.6422,0.0000,39.7000,64,98,500473
1.6618,0.0000,39.6700,64,98,500477
1.7058,0.0000,39.6000,64,98,500481
1.7009,0.0000,39.6400,64,98,500484
1.7302,0.0000,39.5400,64,98,500488
1.7400,0.0000,39.6700,64,98,500491
1.7351,0.0000,39.6700,64,98,500494
1.7449,0.0000,39.6000,64,98,500497
1.7498,0.0000,39.6700,64,98,500501
1.7937,0.0000,39.5400,64,98,500504
1.7889,0.0000,39.7700,64,98,500507
1.8084,0.0000,39.5400,64,98,500511
1.8622,0.0000,39.5100,64,98,500514
1.8377,0.0000,39.6000,64,98,500517
1.8622,0.0000,39.4800,64,98,500521
1.8475,0.0000,38.9300,64,98,500525
1.8622,0.0000,39.6700,64,98,500528
1.9062,0.0000,39.5700,64,98,500532
1.9062,0.0000,39.6000,64,98,500535
1.9404,0.0000,39.5700,64,98,500538
1.9355,0.0000,39.6700,64,98,500541
1.9453,0.0000,39.7000,64,98,500545
1.9697,0.0000,39.6000,64,98,500548
1.9697,0.0000,39.6700,64,98,500551
2.0186,0.0000,39.5400,64,98,500555
2.0039,0.0000,39.6700,64,98,500558
2.0235,0.0000,39.6700,64,98,500561
2.0674,0.0000,39.5400,64,98,500566
2.0626,0.0000,39.6400,64,98,500569
2.1163,0.0000,39.5100,64,98,500572
2.1163,0.0000,39.6700,64,98,500575
2.1457,0.0000,39.7700,64,98,500579
2.1945,0.0000,39.9300,64,98,500582
2.1945,0.0000,39.6400,64,98,500585
2.2336,0.0000,39.5400,64,98,500589
2.2287,0.0196,39.7000,64,98,500592
2.2532,0.0000,39.6700,64,98,500595
2.2972,0.0000,39.6000,64,98,500599
2.2874,0.0000,39.6700,64,98,500602
2.3314,0.0000,39.6700,64,98,500605
2.3118,0.0000,39.6700,64,98,500609
2.3167,0.0000,39.6700,64,98,500613
2.3607,0.0000,39.5100,64,98,500616
2.3167,0.0000,39.6400,64,98,500619
2.3412,0.0049,39.5700,64,98,500623
2.2972,0.0000,39.6700,64,98,500626
2.2825,0.0000,39.6000,64,98,500629
2.2825,0.0000,39.5400,64,98,500633
2.2190,0.0000,39.6400,64,98,500636
2.1896,0.0000,39.5100,64,98,500639
2.1065,0.0000,39.6400,64,98,500642
2.0577,0.0000,39.6700,64,98,500646
2.0186,0.0000,39.6400,64,98,500649
1.9550,0.0000,39.6400,64,98,500653
1.8915,0.0000,39.5100,64,98,500657
1.7889,0.0000,39.7000,64,98,500660
1.7107,0.0000,39.5400,64,98,500663
1.6716,0.0000,39.5100,64,98,500667
1.5934,0.0000,39.6400,64,98,500670
1.5640,0.0000,39.5400,64,98,500673
1.5054,0.0000,39.6700,64,98,500676
1.4712,0.0000,39.6400,64,98,500680
1.4614,0.0000,39.7300,64,98,500683
1.4223,0.0000,39.6400,64,98,500686
1.4174,0.0000,39.5100,64,98,500690
1.3978,0.0000,39.6700,64,98,500694
1.3881,0.0000,39.6700,64,98,500697
1.4027,0.0000,39.4800,64,98,500701
1.3881,0.0000,39.6700,64,98,500704
1.4027,0.0000,39.5100,64,98,500707
1.3930,0.0000,39.6700,64,98,500710
1.3881,0.0000,39.6700,64,98,500714
1.4223,0.0000,39.5400,64,98,500717
1.4174,0.0000,39.6700,64,98,500720
1.4418,0.0000,39.5400,64,98,500724
1.4321,0.0293,39.7000,64,98,500727
1.4418,0.0000,39.6700,64,98,500730
1.4809,0.0000,39.5700,64,98,500734
1.4712,0.0000,39.6400,64,98,500738
1.5005,0.0000,39.5100,64,98,500741
1.4956,0.0000,39.6700,64,98,500745
1.5054,0.0000,39.6700,64,98,500748
1.5298,0.0000,39.6000,64,98,500751
1.5298,0.0000,39.6700,64,98,500754
1.5543,0.0000,39.6000,64,98,500758
1.5445,0.0000,39.7000,64,98,500761
1.5494,0.0000,39.7000,64,98,500764
1.6031,0.0000,39.5100,64,98,500768
1.5787,0.0000,39.6400,64,98,500771
1.6080,0.0000,39.5400,64,98,500774
1.5982,0.0000,39.6700,64,98,500779
1.6080,0.0000,39.6700,64,98,500782
1.6716,0.0000,39.5700,64,98,500785
1.6373,0.0000,39.6000,64,98,500788
1.6716,0.0000,39.5100,64,98,500792
1.6618,0.0000,39.7000,64,98,500795
1.6618,0.0000,39.6400,64,98,500798
1.7155,0.0000,39.6400,64,98,500802
1.6764,0.0147,39.7000,64,98,500805
1.6960,0.0000,39.5400,64,98,500808
1.7107,0.0000,39.6700,64,98,500812
1.7009,0.0000,39.6700,64,98,500815
1.7449,0.0000,39.4400,64,98,500818
1.7302,0.0000,39.6400,64,98,500822
1.7644,0.0000,39.5400,64,98,500826
1.7791,0.0000,39.6700,64,98,500829
1.7644,0.0000,39.6700,64,98,500832
1.7937,0.0000,39.5400,64,98,500836
1.7742,0.0000,39.7300,64,98,500839
1.7889,0.0000,39.5400,64,98,500842
1.7742,0.0000,39.6400,64,98,500846
1.7693,0.0000,39.7000,64,98,500849
1.7889,0.0000,39.6000,64,98,500852
1.7742,0.0098,39.6000,64,98,500855
1.7986,0.0000,39.5700,64,98,500859
1.7742,0.0000,39.6400,64,98,500862
1.7791,0.0000,39.7300,64,98,500866
1.8133,0.0000,39.5400,64,98,500870
1.7742,0.0000,39.6400,64,98,500873
1.7840,0.0000,39.5100,64,98,500876
1.7498,0.0000,39.6700,64,98,500880
1.7546,0.0000,39.6400,64,98,500883
1.7840,0.0000,39.5700,64,98,500886
1.8035,0.0000,39.6400,64,98,500889
1.7986,0.0000,39.5100,64,98,500893
1.7791,0.0000,39.7300,65,98,500896
1.7791,0.0000,39.6700,65,98,500899
1.7889,0.0000,39.6700,65,98,500903
1.7937,0.0000,39.5700,65,98,500907
1.7693,0.0000,39.6400,65,98,500910
1.7937,0.0000,39.9300,65,98,500914
1.7742,0.0000,39.6000,65,98,500917
1.7742,0.0000,39.6700,65,98,500920
1.7986,0.0000,39.5100,65,98,500925
1.7791,0.0000,39.6000,65,98,500928
1.8084,0.0000,39.8600,65,98,500931
1.7889,0.0000,39.6000,65,98,500935
1.7986,0.0000,39.6700,65,98,500938
1.8231,0.0000,39.5100,65,98,500941
1.8182,0.0000,39.6700,65,98,500945
1.8475,0.0000,39.5700,65,98,500948
1.8231,0.0000,39.5400,65,98,500952
1.8035,0.0000,39.6700,65,98,500956
1.8084,0.0000,39.5700,65,98,500959
1.7937,0.0000,39.6700,65,98,500962
1.7937,0.0000,39.4800,65,98,500966
1.7791,0.0000,39.8600,65,98,500969
1.7742,0.0000,39.6700,65,98,500972
1.8084,0.0000,39.5100,65,98,500975
1.7889,0.0000,39.6400,65,98,500979
1.8133,0.0000,39.5400,65,98,500982
1.7840,0.0000,39.7700,65,98,500985
1.7937,0.0000,39.7000,65,98,500989
1.8084,0.0000,39.5400,65,98,500993
1.7986,0.0000,39.6700,65,98,500996
1.8328,0.0000,39.4100,65,98,501000
1.8133,0.0000,39.6700,65,98,501003
1.8231,0.0000,39.6700,65,98,501006
1.8377,0.0000,39.5700,65,98,501009
1.8084,0.0000,39.6400,65,98,501013
1.8182,0.0000,39.4800,65,98,501016
1.7986,0.0000,39.5700,65,98,501019
1.7986,0.0000,39.6400,65,98,501023
1.8231,0.0000,39.5400,65,98,501026
1.8133,0.0000,39.6700,65,98,501029
1.8768,0.0000,39.4800,65,98,501033
1.8231,0.0000,39.6000,65,98,501037
1.8328,0.0000,39.6400,65,98,501040
1.8573,0.0000,39.5400,65,98,501043
1.8377,0.0000,39.6700,65,98,501047
1.8573,0.0000,39.5100,65,98,501050
1.8231,0.0000,39.7000,65,98,501053
1.8231,0.0000,39.8300,65,98,501057
1.8475,0.0000,38.8400,65,98,501060
1.8231,0.0000,39.7000,65,98,501063
1.8426,0.0000,39.5100,65,98,501067
1.8231,0.0000,39.6000,65,98,501070
1.8182,0.0000,39.7700,65,98,501073
1.8377,0.0000,39.5400,65,98,501076
1.8231,0.0000,39.6700,65,98,501081
1.8475,0.0000,39.4800,65,98,501084
1.8280,0.0000,40.0600,65,98,501087
1.8280,0.0000,39.6700,65,98,501091
1.8328,0.0000,39.5100,65,98,501094
1.8084,0.0000,39.6700,65,98,501097
1.8328,0.0000,39.5100,65,98,501101
1.8084,0.0000,39.6700,65,98,501104
1.8182,0.0000,39.6700,65,98,501107
1.8426,0.0000,39.5700,65,98,501111
1.8231,0.0000,39.7000,65,98,501114
1.8524,0.0000,39.6400,65,98,501117
1.8377,0.0000,39.6000,65,98,501121
1.8524,0.0000,39.6700,65,98,501125
1.8768,0.0000,39.5400,65,98,501128
1.8622,0.0244,39.6400,65,98,501131
1.8817,0.0000,39.5100,65,98,501135
1.8573,0.0000,39.6400,65,98,501138
1.8573,0.0000,39.6700,65,98,501141
1.8719,0.0000,39.5700,65,98,501145
1.8573,0.0000,39.6400,65,98,501148
1.8866,0.0000,39.5100,65,98,501151
1.8622,0.0000,39.7000,65,98,501154
1.8622,0.0000,39.5400,65,98,501158
1.8817,0.0000,39.5700,65,98,501161
1.8573,0.0000,39.7000,65,98,501165
1.8964,0.0000,39.5400,65,98,501169
1.8475,0.0000,39.5700,65,98,501172
1.8524,0.0000,39.6700,65,98,501175
1.8671,0.0000,39.5700,65,98,501179
1.8573,0.0000,39.6700,65,98,501182
1.8866,0.0000,39.5100,65,98,501185
1.8719,0.0000,39.6400,65,98,501189
1.8817,0.0000,39.6700,65,98,501192
1.9208,0.0000,39.5700,65,98,501195
1.9110,0.0000,39.6700,65,98,501198
1.9501,0.0000,39.5400,65,98,501202
1.9159,0.0000,39.6700,65,98,501206
1.9159,0.0000,39.7000,65,98,501209
1.9550,0.0000,39.5700,65,98,501213
1.9355,0.0000,39.8000,65,98,501216
1.9844,0.0000,39.5400,65,98,501219
2.0039,0.0000,39.6000,65,98,501223
1.9990,0.0000,39.7300,65,98,501226
2.0381,0.0000,39.5700,65,98,501229
2.0137,0.0000,39.6700,65,98,501233
2.0283,0.0000,39.6400,65,98,501236
1.9795,0.0000,39.6700,65,98,501239
1.9550,0.0000,39.7000,65,98,501242
1.9501,0.0000,39.4800,65,98,501246
1.9208,0.0000,39.6400,65,98,501250
1.9453,0.0000,39.5700,65,98,501253
1.8964,0.0000,39.6400,65,98,501257
1.8768,0.0000,39.7000,65,98,501260
1.8915,0.0000,39.4400,65,98,501263
1.8475,0.0000,38.8700,65,98,501267
1.8475,0.0000,39.5700,65,98,501270
1.8084,0.0000,39.6400,65,98,501273
1.7937,0.0000,39.7000,65,98,501276
1.8084,0.0196,39.5400,65,98,501280
1.7840,0.0000,39.6400,65,98,501283
1.7937,0.0000,39.5400,65,98,501286
1.7546,0.0000,39.6000,65,98,501291
1.7595,0.0000,39.6700,65,98,501294
1.7791,0.0000,39.6000,65,98,501297
1.7742,0.0000,39.6400,65,98,501301
1.8035,0.0000,39.5400,65,98,501304
1.7742,0.0000,39.6700,65,98,501307
1.7742,0.0000,39.6700,65,98,501311
1.7889,0.0000,39.6000,65,98,501314
1.7595,0.0049,39.6000,65,98,501317
1.7840,0.0000,39.7000,65,98,501320
1.7546,0.0000,39.7000,65,98,501324
1.7840,0.0000,39.6400,65,98,501327
1.7889,0.0000,39.6000,65,98,501330
1.7742,0.0000,39.7300,65,98,501335
1.7986,0.0000,39.5700,65,98,501338
1.8182,0.0000,39.6700,65,98,501341
1.8035,0.0000,39.6700,65,98,501345
1.8377,0.0000,39.5700,65,98,501348
1.8377,0.0000,39.6700,65,98,501351
1.8573,0.0000,39.5400,65,98,501354
1.8426,0.0000,39.6700,65,98,501358
1.8426,0.0000,39.6700,65,98,501361
1.8866,0.0098,39.5100,65,98,501364
1.8915,0.0000,39.6700,65,98,501368
1.9892,0.0000,39.5700,65,98,501371
2.0772,0.0147,39.6700,65,98,501374
2.3412,0.0000,39.6700,65,98,501379
2.6931,0.0000,39.5700,65,98,501382
3.0694,0.0000,39.6400,65,98,501385
3.5142,0.0000,39.5700,65,98,501389
3.7732,0.0000,39.6700,65,98,501392
3.9785,0.0000,39.7300,65,98,501395
4.0567,0.0000,39.6000,65,98,501398
3.8905,0.0000,39.6000,65,98,501402
3.6217,0.0000,39.5700,65,98,501405
3.1623,0.0000,39.6700,65,98,501408
2.7224,0.0000,39.6700,65,98,501412
2.2678,0.0098,39.5700,65,98,501415
1.8524,0.0000,39.6400,65,98,501419
1.6129,0.0000,39.5700,65,98,501423
1.4467,0.0000,39.6400,65,98,501426
1.3978,0.0000,39.7000,65,98,501429
1.4125,0.0000,39.5400,65,98,501432
1.4174,0.0000,39.6700,65,98,501436
1.4712,0.0000,39.5400,65,98,501439
1.4809,0.0000,39.6700,65,98,501442
1.5152,0.0000,39.6700,65,98,501446
1.5396,0.0000,39.5700,65,98,501449
1.5298,0.0000,39.6400,65,98,501452
1.5445,0.0000,39.5100,65,98,501456
1.5200,0.0000,39.6400,65,98,501459
1.5347,0.0000,39.6700,65,98,501463
1.5934,0.0000,39.5400,65,98,501467
1.6080,0.0000,39.6400,65,98,501470
1.6178,0.0000,39.5400,65,98,501473
1.6129,0.0000,39.7000,65,98,501476
1.6276,0.0000,39.6400,65,98,501480
1.6618,0.0000,39.5700,65,98,501483
1.6569,0.0049,39.6400,65,98,501486
1.7009,0.0000,39.6400,65,98,501490
1.6911,0.0098,39.6700,65,98,501493
1.7204,0.0000,39.6400,65,98,501496
1.7644,0.0000,39.5700,65,98,501500
1.7546,0.0196,39.6400,65,98,501504
1.7937,0.0000,39.5400,65,98,501507
1.7644,0.0000,39.6700,65,98,501511
1.7889,0.0000,39.6700,65,98,501514
1.8084,0.0000,39.5700,65,98,501517
1.8671,0.0000,39.6000,65,98,501520
1.8524,0.0000,39.6700,65,98,501524
1.9013,0.0000,39.5100,65,98,501527
1.8719,0.0000,39.6000,65,98,501530
1.8719,0.0000,39.7000,65,98,501534
1.9110,0.0000,39.5700,65,98,501538
1.9013,0.0000,39.7000,65,98,501542
1.9599,0.0000,39.4800,65,98,501545
1.9355,0.0000,39.6700,65,98,501549
1.9599,0.0000,39.6700,65,98,501553
2.0039,0.0000,39.6000,65,98,501556
2.0088,0.0000,39.4800,65,98,501559
2.0723,0.0000,39.3800,65,98,501563
2.0674,0.0000,39.5700,65,98,501566
2.0528,0.0000,39.6700,65,98,501569
2.0870,0.0000,39.5400,65,98,501572
2.0870,0.0000,39.7000,65,98,501576
2.1408,0.0000,39.4400,65,98,501579
2.1408,0.0098,39.5700,65,98,501582
2.1701,0.0000,39.7000,65,98,501586
2.2239,0.0000,39.7300,65,98,501590
2.2287,0.0000,39.6700,65,98,501593
2.3167,0.0000,39.4800,65,98,501597
2.2581,0.0000,39.6700,65,98,501600
2.2678,0.0000,39.7000,65,98,501603
2.2972,0.0000,38.8400,65,98,501606
2.2923,0.0000,39.8000,65,98,501610
2.3460,0.0000,39.4400,65,98,501613
2.3314,0.0000,39.5400,65,98,501616
2.3412,0.0000,39.6700,65,98,501620
2.3851,0.0049,39.5700,65,98,501623
2.3705,0.0000,39.6700,65,98,501626
2.4145,0.0000,39.4800,65,98,501630
2.3705,0.0000,39.6000,65,98,501634
2.3509,0.0000,39.6700,65,98,501637
2.3607,0.0000,39.5400,65,98,501640
2.3118,0.0000,39.7300,65,98,501644
2.3216,0.0000,39.4800,65,98,501647
2.2385,0.0000,39.6700,65,98,501650
2.1848,0.0000,39.6700,65,98,501654
2.1457,0.0000,39.6000,65,98,501657
2.0674,0.0000,39.6700,65,98,501660
2.0430,0.0000,39.4400,65,98,501663
1.9599,0.0000,39.5400,65,98,501667
1.8866,0.0000,39.6700,65,98,501670
1.8426,0.0000,39.5700,65,98,501673
1.7546,0.0000,39.8000,65,98,501678
1.7302,0.0000,39.5100,65,98,501681
1.6422,0.0000,39.6000,65,98,501684
1.5885,0.0000,39.6400,65,98,501688
1.5543,0.0000,39.5100,65,98,501691
1.4956,0.0000,39.6700,65,98,501694
1.5054,0.0000,39.5400,65,98,501697
1.4663,0.0000,39.6700,65,98,501701
1.4516,0.0000,39.7000,65,98,501704
1.4565,0.0000,39.5100,65,98,501707
1.4321,0.0000,39.6400,65,98,501711
1.4418,0.0000,39.4800,65,98,501714
1.4370,0.0000,39.5700,65,98,501718
1.4272,0.0000,39.7000,65,98,501722
1.4516,0.0000,39.5700,65,98,501725
1.4467,0.0000,39.5700,65,98,501728
1.4809,0.0000,39.5400,65,98,501731
1.4663,0.0000,39.6000,65,98,501735
1.4712,0.0000,39.6700,65,98,501738
1.5005,0.0000,39.5100,65,98,501741
1.4956,0.0000,39.6700,65,98,501745
1.5200,0.0000,39.4800,65,98,501748
1.5103,0.0000,39.6700,65,98,501751
1.5298,0.0391,39.6700,65,98,501755
1.5640,0.0000,39.6400,65,98,501758
1.5543,0.0000,39.6700,65,98,501762
1.5787,0.0000,39.5100,65,98,501766
1.5689,0.0000,39.5400,65,98,501769
1.5738,0.0000,39.6700,65,98,501772
1.6080,0.0000,39.4400,65,98,501775
1.6080,0.0000,39.6700,65,98,501779
1.6471,0.0000,39.5100,65,98,501782
1.6325,0.0000,39.7000,65,98,501785
1.6422,0.0000,39.6400,65,98,501789
1.6716,0.0000,39.5400,65,98,501792
1.6618,0.0000,39.7000,65,98,501795
1.7009,0.0000,39.4800,65,98,501799
1.6862,0.0000,39.6700,65,98,501803
1.6960,0.0000,39.6700,65,98,501806
1.7253,0.0000,39.5400,65,98,501810
1.7107,0.0000,39.6700,65,98,501813
1.7498,0.0000,39.4800,65,98,501816
1.7449,0.0000,39.5400,65,98,501819
1.7498,0.0000,39.4400,65,98,501823
1.7693,0.0000,39.4800,65,98,501826
1.7546,0.0000,39.6700,65,98,501829
1.8182,0.0000,39.4800,65,98,501833
1.7791,0.0000,39.6000,65,98,501836
1.7693,0.0000,39.6400,65,98,501839
1.7986,0.0000,39.5400,65,98,501843
1.7742,0.0000,39.6700,65,98,501847
1.7986,0.0049,39.5700,65,98,501850
1.7693,0.0000,39.6700,65,98,501853
1.7742,0.0000,39.6700,65,98,501857
1.7986,0.0000,39.5700,65,98,501860
1.7889,0.0000,39.6400,65,98,501863
1.8133,0.0000,39.5100,65,98,501867
1.7986,0.0000,39.5700,65,98,501870
1.7840,0.0147,39.7000,65,98,501873
1.7937,0.0000,39.6400,65,98,501877
1.7791,0.0000,39.6700,65,98,501880
1.8084,0.0049,39.5100,65,98,501883
1.7889,0.0000,39.6000,65,98,501886
1.7937,0.0000,39.6700,65,98,501891
1.8231,0.0000,39.5700,65,98,501894
1.8084,0.0000,39.6700,65,98,501897
1.8475,0.0000,39.5100,65,98,501901
1.8133,0.0000,39.6700,65,98,501904
1.8182,0.0000,39.6700,65,98,501907
1.8377,0.0000,39.5700,65,98,501911
1.8182,0.0000,39.6400,65,98,501914
1.8524,0.0000,39.4400,65,98,501917
1.8426,0.0293,39.5400,65,98,501921
1.8280,0.0000,39.6700,65,98,501924
1.8573,0.0000,39.5700,65,98,501927
1.8328,0.0098,39.6700,65,98,501931
1.8768,0.0000,39.4400,65,98,501935
1.8426,0.0000,39.6400,65,98,501938
1.8231,0.0000,39.6700,65,98,501941
1.8377,0.0000,39.6000,65,98,501945
1.8084,0.0000,39.6700,65,98,501948
1.8377,0.0000,39.4100,65,98,501951
1.8035,0.0000,39.7000,65,98,501955
1.8133,0.0000,39.8300,65,98,501958
1.8377,0.0000,39.6000,65,98,501961
1.8133,0.0000,39.6700,65,98,501964
1.8475,0.0000,39.4400,65,98,501968
1.8035,0.0000,39.5700,65,98,501971
1.7840,0.0000,39.6700,65,98,501975
1.7986,0.0000,39.6400,65,98,501979
1.7986,0.0000,39.6400,65,98,501982
1.8426,0.0000,39.4400,65,98,501985
1.8280,0.0000,39.6000,65,98,501989
1.8328,0.0000,39.6700,65,98,501992
1.8573,0.0000,39.5700,65,98,501995
1.8182,0.0000,39.6700,65,98,501999
1.8377,0.0000,39.4100,65,98,502002
1.7889,0.0000,39.6700,65,98,502005
1.7840,0.0000,39.5400,65,98,502008
1.7986,0.0000,39.5700,65,98,502012
1.7840,0.0000,39.6700,65,98,502016
1.8182,0.0098,39.5100,65,98,502019
1.8084,0.0000,39.5700,65,98,502023
1.8035,0.0147,39.6700,65,98,502026
1.8328,0.0000,39.5700,65,98,502029
1.8182,0.0000,39.6700,65,98,502033
1.8524,0.0000,39.4100,65,98,502036
1.8231,0.0147,39.5700,65,98,502039
1.8231,0.0000,39.6400,65,98,502042
1.8524,0.0000,39.6000,65,98,502046
1.8328,0.0000,39.5700,65,98,502049
1.8768,0.0000,39.4400,65,98,502052
1.8328,0.0000,39.6400,65,98,502056
1.8719,0.0000,39.6700,65,98,502060
1.8622,0.0000,39.6000,65,98,502063
1.8524,0.0000,39.6700,65,98,502067
1.8964,0.0000,39.4400,65,98,502070
1.8768,0.0000,39.5700,65,98,502073
1.8622,0.0000,39.6700,65,98,502077
1.8866,0.0244,39.5700,65,98,502080
1.8671,0.0000,39.6700,65,98,502083
1.9013,0.0000,39.4100,65,98,502086
1.8671,0.0098,39.5700,65,98,502090
1.8719,0.0000,39.6700,65,98,502093
1.8866,0.0000,39.5700,65,98,502096
1.8719,0.0000,39.6000,65,98,502100
1.9062,0.0000,39.4100,65,98,502104
1.8475,0.0000,39.6000,65,98,502107
1.8328,0.0000,39.6400,65,98,502111
1.8328,0.0000,39.5700,65,98,502114
1.8035,0.0000,39.6700,65,98,502117
1.8426,0.0000,39.4100,65,98,502120
1.8280,0.0000,39.5700,65,98,502124
1.8231,0.0147,39.7700,65,98,502127
1.8524,0.0000,39.6000,65,98,502130
1.8475,0.0000,39.6400,65,98,502134
1.8817,0.0000,39.4100,65,98,502137
1.9550,0.0000,39.4800,65,98,502140
1.9306,0.0000,39.5700,65,98,502145
1.9208,0.0098,39.6700,65,98,502149
1.9404,0.0000,39.6400,65,98,502153
1.9306,0.0000,39.6700,65,98,502156
1.9990,0.0049,39.4400,65,98,502159
1.9648,0.0000,39.6400,65,98,502163
1.9892,0.0000,39.6000,65,98,502166
2.0088,0.0000,39.6700,65,98,502169
2.0235,0.0000,39.6700,65,98,502172
2.0919,0.0000,39.5100,65,98,502176
2.0479,0.0000,39.5700,65,98,502179
2.0186,0.0000,39.6000,65,98,502182
1.9941,0.0000,39.6400,65,98,502187
1.9550,0.0000,39.7000,65,98,502190
1.9892,0.0000,39.4100,65,98,502193
1.9306,0.0000,39.5400,65,98,502197
1.9062,0.0000,39.6000,65,98,502200
1.8866,0.0000,39.6400,65,98,502203
1.8671,0.0000,39.6400,65,98,502207
1.9013,0.0000,39.4800,65,98,502210
1.8328,0.0000,39.6400,65,98,502213
1.8035,0.0000,39.6000,65,98,502216
1.7937,0.0000,39.6400,65,98,502220
1.7840,0.0000,39.6400,65,98,502223
1.8280,0.0342,39.4400,65,98,502226
1.7889,0.0000,39.6000,65,98,502231
1.8084,0.0000,39.5700,65,98,502234
1.7742,0.0000,39.6400,65,98,502237
1.7742,0.0000,39.7300,65,98,502241
1.8328,0.0000,39.4800,65,98,502244
1.8035,0.0000,39.5700,65,98,502247
1.7986,0.0000,39.5700,65,98,502250
1.8035,0.0000,39.6700,65,98,502254
1.8035,0.0000,39.6700,65,98,502257
1.8524,0.0000,39.4400,65,98,502260
1.8084,0.0000,39.6000,65,98,502264
1.7986,0.0000,39.6000,65,98,502267
1.7986,0.0000,39.6000,65,98,502270
1.7937,0.0000,39.7700,65,98,502275
1.8426,0.0000,39.4800,65,98,502278
1.8084,0.0000,39.5700,65,98,502281
1.7937,0.0000,39.7000,65,98,502285
1.7986,0.0000,39.6000,65,98,502288
1.7986,0.0000,39.6700,65,98,502291
1.8475,0.0000,39.4400,65,98,502294
1.8035,0.0000,39.5700,65,98,502298
1.8035,0.0000,39.6000,65,98,502301
1.8328,0.0000,39.8600,65,98,502304
1.8719,0.0000,39.6400,65,98,502308
1.9844,0.0000,39.4400,65,98,502311
2.0332,0.0000,39.6000,65,98,502315
2.1896,0.0000,39.6400,65,98,502319
2.4536,0.0000,39.6400,65,98,502322
2.7908,0.0000,39.5400,65,98,502325
3.2845,0.0000,39.4800,65,98,502329
3.5679,0.0000,39.5700,65,98,502332
3.7537,0.0000,39.6700,65,98,502335
3.8661,0.0000,39.6000,65,98,502338
3.8123,0.0000,39.6700,65,98,502342
3.7195,0.0000,39.4400,65,98,502345
3.3284,0.0000,39.5700,65,98,502348
2.9130,0.0000,39.7000,65,98,502352
2.4976,0.0000,39.5700,65,98,502355
2.0968,0.0000,39.6700,65,98,502359
1.8231,0.0000,39.4400,65,98,502363
1.5934,0.0000,39.5700,65,98,502366
1.4272,0.0000,39.6400,65,98,502369
1.3881,0.0000,39.6000,65,98,502372
1.3832,0.0000,39.6700,65,98,502376
1.4467,0.0000,39.4400,65,98,502379
1.4467,0.0000,39.5700,65,98,502382
1.4761,0.0000,39.6000,65,98,502386
1.5152,0.0000,39.6400,65,98,502389
1.5396,0.0000,39.6700,65,98,502392
1.6080,0.0000,39.4100,65,98,502396
1.6031,0.0000,39.5700,65,98,502400
1.5934,0.0000,39.6000,65,98,502403
1.5934,0.0000,39.6000,65,98,502406
1.5836,0.0000,39.8000,65,98,502410
1.6422,0.0000,39.4100,65,98,502413
1.6178,0.0000,39.6000,65,98,502416
1.6325,0.0000,39.8600,65,98,502420
1.6520,0.0000,39.7000,65,98,502423
1.6667,0.0000,39.6700,65,98,502426
1.7253,0.0000,39.3800,65,98,502430
1.7058,0.0000,39.5700,65,98,502433
1.7107,0.0000,39.7000,65,98,502436
1.7253,0.0000,39.6400,65,98,502439
1.7302,0.0000,39.6700,65,98,502444
1.8035,0.0000,39.4400,65,98,502447
1.7791,0.0000,39.5700,65,98,502450
1.7840,0.0000,39.6700,65,98,502454
1.7986,0.0000,39.6400,65,98,502457
1.8035,0.0000,39.6700,65,98,502460
1.8866,0.0000,39.4100,65,98,502464
1.8280,0.0000,39.6000,65,98,502467
1.8280,0.0000,39.6400,65,98,502470
1.8426,0.0000,39.6400,65,98,502473
1.8426,0.0000,39.5700,65,98,502477
1.8915,0.0049,39.4100,65,98,502480
1.8622,0.0000,39.5400,65,98,502483
1.8573,0.0000,39.6000,65,98,502488
1.8866,0.0000,39.6400,65,98,502491
1.9013,0.0000,39.7300,65,98,502494
1.9795,0.0000,39.4100,65,98,502498
1.9648,0.0000,39.5400,65,98,502501
1.9941,0.0000,39.6700,65,98,502504
1.9795,0.0000,39.6700,65,98,502508
1.9844,0.0000,39.6700,65,98,502511
2.0528,0.0000,39.5100,65,98,502514
2.0283,0.0000,39.5700,65,98,502517
2.0235,0.0000,39.6000,65,98,502521
2.0430,0.0000,39.4800,65,98,502524
2.0479,0.0000,39.6700,65,98,502528
2.1212,0.0000,39.3800,65,98,502532
2.1017,0.0000,39.5700,65,98,502535
2.1163,0.0000,39.6400,65,98,502538
2.1603,0.0000,39.6400,65,98,502542
2.1750,0.0000,39.6700,65,98,502545
2.2532,0.0000,39.3500,65,98,502548
2.2141,0.0000,39.7000,65,98,502551
2.2141,0.0000,39.6700,65,98,502555
2.2239,0.0000,39.6000,65,98,502558
2.2385,0.0000,39.7000,65,98,502561
2.3167,0.0000,39.5400,65,98,502565
2.2874,0.0000,39.6000,65,98,502568
2.2776,0.0000,39.7000,65,98,502572
2.2972,0.0000,39.6400,65,98,502576
2.2874,0.0000,39.6700,65,98,502579
2.3509,0.0000,39.3800,65,98,502582
2.2972,0.0000,39.6000,65,98,502586
2.2776,0.0000,39.7000,65,98,502589
2.2825,0.0000,39.7300,65,98,502592
2.2483,0.0000,39.6400,65,98,502595
2.2776,0.0000,39.3800,65,98,502599
2.2336,0.0000,39.5700,65,98,502602
2.1652,0.0000,39.6700,65,98,502605
2.1261,0.0000,39.6700,65,98,502609
2.0723,0.0000,39.6700,65,98,502612
2.0674,0.0000,39.4400,65,98,502616
1.9746,0.0000,39.6000,65,98,502620
1.8915,0.0000,39.5400,65,98,502623
1.8475,0.0000,39.5700,65,98,502626
1.7791,0.0000,39.7300,65,98,502629
1.7693,0.0000,39.4100,65,98,502633
1.6764,0.0000,39.5700,65,98,502636
1.6129,0.0147,39.7000,65,98,502639
1.5689,0.0000,39.6000,65,98,502643
1.5152,0.0000,39.6400,65,98,502646
1.5347,0.0000,39.3800,65,98,502649
1.4809,0.0000,39.5700,65,98,502653
1.4663,0.0000,40.0600,65,98,502657
1.4565,0.0000,39.6400,65,98,502660
1.4370,0.0000,39.6400,65,98,502664
1.4809,0.0000,39.3800,65,98,502667
1.4370,0.0000,39.5700,65,98,502670
1.4321,0.0000,39.6700,65,98,502673
1.4516,0.0000,39.7700,65,98,502677
1.4516,0.0000,39.6700,65,98,502680
1.5054,0.0000,39.4400,65,98,502683
1.4761,0.0000,39.5700,65,98,502687
1.4761,0.0000,39.6700,65,98,502690
1.4907,0.0000,39.6400,65,98,502693
1.4907,0.0000,39.6400,65,98,502697
1.5494,0.0000,39.3800,65,98,502701
1.5249,0.0000,39.5700,65,98,502704
1.5347,0.0000,39.6700,65,98,502707
1.5591,0.0000,39.6400,65,98,502711
1.5591,0.0000,39.7000,65,98,502714
1.6080,0.0000,39.3500,65,98,502717
1.5836,0.0000,39.5700,65,98,502721
1.5738,0.0000,39.6700,65,98,502724
1.5934,0.0000,39.6400,65,98,502727
1.5885,0.0440,39.6400,65,98,502731
1.6471,0.0000,39.3800,65,98,502734
1.6373,0.0000,39.5700,65,98,502737
1.6422,0.0000,39.6700,65,98,502742
1.6667,0.0000,39.6000,65,98,502745
1.6716,0.0000,39.7000,65,98,502748
1.7302,0.0000,39.3500,65,98,502751
1.6813,0.0000,39.5400,65,98,502755
1.6911,0.0000,39.6700,65,98,502758
1.7107,0.0000,39.6400,65,98,502763
1.7302,0.0000,39.7700,65,98,502766
1.7400,0.0000,39.6700,65,98,502769
1.7889,0.0098,39.4800,65,98,502773
1.7791,0.0000,39.6400,65,98,502776
1.7937,0.0000,39.5400,65,98,502779
1.7742,0.0000,39.6700,65,98,502784
1.7742,0.0000,39.6400,65,98,502787
1.8035,0.0000,39.6000,65,98,502790
1.7840,0.0000,39.6000,65,98,502794
1.7791,0.0000,39.5700,65,98,502797
1.7693,0.0000,39.6400,65,98,502800
1.7742,0.0000,39.6700,65,98,502803
1.8182,0.0000,39.6700,65,98,502807
1.7986,0.0000,39.6400,65,98,502810
1.8133,0.0000,39.5700,65,98,502813
1.7889,0.0000,39.6400,65,98,502817
1.7889,0.0000,39.7000,65,98,502820
1.8280,0.0000,39.5100,65,98,502823
1.8231,0.0000,39.6000,65,98,502828
1.8426,0.0000,39.5700,65,98,502831
1.8231,0.0000,39.6400,65,98,502834
1.8084,0.0000,39.6700,65,98,502838
1.8231,0.0000,39.5400,65,98,502841
1.7840,0.0000,39.5100,65,98,502844
1.7742,0.0000,39.5700,65,98,502847
1.7595,0.0000,39.6400,65,98,502851
1.7693,0.0000,39.6700,65,98,502854
1.8133,0.0049,39.5400,65,98,502857
1.7986,0.0000,39.6400,65,98,502861
1.8133,0.0000,39.5700,65,98,502864
1.8084,0.0000,39.7000,65,98,502867
1.8084,0.0000,39.6400,65,98,502872
1.8426,0.0000,39.5100,65,98,502875
1.8133,0.0000,39.6400,65,98,502878
1.8035,0.0000,39.5700,65,98,502881
1.7889,0.0342,39.6700,65,98,502885
1.7840,0.0000,39.6700,65,98,502888
1.8280,0.0000,39.5100,65,98,502891
1.8182,0.0000,39.6000,65,98,502895
1.8280,0.0000,39.5700,65,98,502898
1.8084,0.0000,39.6400,65,98,502901
1.8133,0.0000,39.7000,65,98,502905
1.8426,0.0000,39.5400,65,98,502908
1.8133,0.0000,39.6400,65,98,502912
1.8182,0.0000,39.5700,65,98,502916
1.7986,0.0000,39.6400,65,98,502919
1.8035,0.0098,39.6700,65,98,502922
1.8475,0.0000,39.5100,65,98,502925
1.8377,0.0000,39.6400,65,98,502929
1.8377,0.0000,39.5400,65,98,502932
1.8133,0.0000,39.9300,65,98,502935
1.8035,0.0000,39.7700,65,98,502939
1.8280,0.0000,39.5400,65,98,502942
1.7986,0.0000,39.6400,65,98,502945
1.8035,0.0000,39.5400,65,98,502949
1.7840,0.0000,39.7700,65,98,502952
1.7840,0.0000,39.7300,65,98,502956
1.8231,0.0000,39.5400,65,98,502960
1.8035,0.0000,39.6400,65,98,502963
1.8182,0.0000,39.6400,65,98,502966
1.8035,0.0000,39.7700,65,98,502969
1.8035,0.0000,39.6700,65,98,502973
1.8573,0.0000,39.5100,65,98,502976
1.8328,0.0000,39.6000,65,98,502979
1.8426,0.0000,39.5700,65,98,502983
1.8231,0.0000,39.7000,65,98,502986
1.8280,0.0000,39.6700,65,98,502989
1.8622,0.0000,39.5100,65,98,502993
1.8475,0.0000,39.6000,65,98,502996
1.8573,0.0000,39.4800,65,98,503000
1.8475,0.0000,39.7300,65,98,503003
1.8524,0.0000,39.7700,65,98,503007
1.8915,0.0000,39.5700,65,98,503010
1.8719,0.0000,39.6400,65,98,503013
1.8524,0.0000,39.5700,65,98,503017
1.8377,0.0000,39.6700,65,98,503020
1.8328,0.0000,39.8600,65,98,503023
1.8719,0.0000,38.6800,65,98,503027
1.8524,0.0000,39.6000,65,98,503030
1.8573,0.0000,39.5700,65,98,503033
1.8426,0.0000,39.7000,65,98,503037
1.8377,0.0000,39.6000,65,98,503041
1.8671,0.0000,39.5400,65,98,503044
1.8426,0.0000,39.6000,65,98,503047
1.8475,0.0000,39.5700,65,98,503051
1.8133,0.0000,39.6700,65,98,503054
1.8084,0.0000,39.6700,65,98,503057
1.8475,0.0000,39.6700,65,98,503061
1.8280,0.0000,39.6400,65,98,503064
1.8524,0.0000,39.5700,65,98,503067
1.8475,0.0000,39.6700,65,98,503071
1.8573,0.0244,39.6400,65,98,503074
1.9062,0.0000,39.4800,65,98,503077
1.8915,0.0000,39.6400,65,98,503080
1.9501,0.0000,39.5400,65,98,503085
1.9110,0.0000,39.6400,65,98,503088
1.9257,0.0000,39.7300,65,98,503091
1.9697,0.0000,39.5400,65,98,503095
1.9550,0.0000,39.6000,65,98,503098
1.9795,0.0000,39.5400,65,98,503101
1.9697,0.0000,39.3200,65,98,503105
1.9892,0.0000,39.7000,65,98,503108
2.0528,0.0000,39.7000,65,98,503111
2.0430,0.0000,39.6000,65,98,503114
2.0528,0.0000,39.5400,65,98,503118
2.0235,0.0000,39.6400,65,98,503121
1.9844,0.0000,39.7000,65,98,503124
1.9892,0.0000,39.5100,65,98,503129
1.9306,0.0000,39.6400,65,98,503132
1.9013,0.0000,39.5400,65,98,503135
1.8671,0.0000,39.6700,65,98,503139
1.8524,0.0049,39.6400,65,98,503142
1.8866,0.0000,39.5400,65,98,503145
1.8768,0.0000,39.6000,65,98,503149
1.8671,0.0000,39.5400,65,98,503152
1.8475,0.0000,39.7000,65,98,503155
1.8328,0.0000,39.6400,65,98,503158
1.8622,0.0000,39.5700,65,98,503162
1.8133,0.0000,39.6700,65,98,503165
1.8084,0.0000,39.5100,65,98,503169
1.7791,0.0000,39.7300,65,98,503173
1.7644,0.0000,39.6700,65,98,503176
1.7937,0.0000,39.5100,65,98,503179
1.7742,0.0000,39.6000,65,98,503183
1.7546,0.0000,39.5400,65,98,503186
1.7449,0.0000,39.6000,65,98,503189
1.7546,0.0000,39.6700,65,98,503192
1.7986,0.0000,39.5100,65,98,503196
1.7889,0.0000,39.6000,65,98,503199
1.7986,0.0000,39.5700,65,98,503202
1.7986,0.0000,39.6700,65,98,503206
1.7986,0.0000,39.6400,65,98,503209
1.8328,0.0000,39.5100,65,98,503213
1.8084,0.0000,39.6400,65,98,503217
1.8280,0.0000,39.5700,65,98,503220
1.8231,0.0000,39.6400,65,98,503223
1.8182,0.0000,39.6700,65,98,503227
1.8524,0.0000,39.4800,65,98,503230
1.8133,0.0000,39.6400,65,98,503233
1.7937,0.0000,39.6400,65,98,503236
1.7791,0.0000,39.6400,65,98,503240
1.7840,0.0000,39.6700,65,98,503243
1.8671,0.0000,39.5100,65,98,503246
1.8719,0.0000,39.6400,65,98,503250
1.9306,0.0000,39.5700,65,98,503254
2.0088,0.0000,39.6400,65,98,503257
2.1310,0.0000,39.6000,65,98,503261
2.4096,0.0000,39.5100,65,98,503264
2.6882,0.0000,39.6400,65,98,503267
3.0792,0.0000,39.5700,65,98,503270
3.4604,0.0000,39.6400,65,98,503274
3.7634,0.0000,39.8900,65,98,503277
4.0616,0.0000,39.5100,65,98,503280
4.0665,0.0000,39.6000,65,98,503284
3.9052,0.0000,39.5700,65,98,503287
3.5875,0.0000,39.6400,65,98,503290
3.1720,0.0000,39.6700,65,98,503294
2.7810,0.0049,39.5100,65,98,503298
2.2678,0.0000,39.6400,65,98,503301
1.8573,0.0000,39.5700,65,98,503304
1.5885,0.0000,39.7000,65,98,503308
1.4418,0.0000,39.7000,65,98,503311
1.4272,0.0000,39.5100,65,98,503314
1.3930,0.0000,39.6000,65,98,503318
1.4125,0.0000,39.6400,65,98,503321
1.4418,0.0000,39.7300,65,98,503324
1.4614,0.0000,39.6700,65,98,503328
1.5298,0.0000,39.4800,65,98,503331
1.5152,0.0000,39.6000,65,98,503334
1.5200,0.0000,39.5700,65,98,503339
1.5445,0.0000,39.6400,65,98,503342
1.5689,0.0000,39.6700,65,98,503345
1.6618,0.0000,39.5100,65,98,503348
1.6373,0.0000,39.5700,65,98,503352
1.6031,0.0293,39.5700,65,98,503355
1.5934,0.0000,39.6400,65,98,503358
1.5787,0.0000,39.6700,65,98,503362
1.6618,0.0000,39.5100,65,98,503365
1.6031,0.0000,39.6000,65,98,503368
1.6227,0.0000,39.6400,65,98,503372
1.6325,0.0000,39.5400,65,98,503376
1.6422,0.0000,39.6700,65,98,503380
1.7009,0.0000,39.4800,65,98,503384
1.7889,0.0000,39.5700,65,98,503387
1.7840,0.0000,39.7300,65,98,503390
1.8133,0.0000,39.5100,65,98,503394
1.7889,0.0049,39.7300,65,98,503397
1.8035,0.0000,39.5100,65,98,503400
1.8231,0.0000,39.6000,65,98,503404
1.8280,0.0000,39.6700,65,98,503407
1.8671,0.0000,39.5100,65,98,503410
1.8573,0.0000,39.6400,65,98,503414
1.8817,0.0000,39.7300,65,98,503417
1.9355,0.0000,39.4400,65,98,503420
1.9257,0.0000,39.7000,65,98,503425
1.9648,0.0000,39.5400,65,98,503428
1.9355,0.0049,39.6700,65,98,503431
1.9501,0.0000,39.6700,65,98,503434
1.9844,0.0000,39.5100,65,98,503438
1.9795,0.0098,39.6700,65,98,503441
2.0332,0.0000,39.5400,65,98,503444
2.0186,0.0000,39.7700,65,98,503448
2.0381,0.0000,39.6400,65,98,503451
2.0626,0.0000,39.5700,65,98,503454
2.0577,0.0000,39.6400,65,98,503458
2.1017,0.0000,39.5100,65,98,503461
2.0870,0.0000,39.6400,65,98,503464
2.1163,0.0000,39.6700,65,98,503469
2.1799,0.0000,39.5400,65,98,503472
2.1799,0.0000,39.6400,65,98,503475
2.2336,0.0098,39.5400,65,98,503478
2.2434,0.0000,39.6400,65,98,503482
2.2678,0.0000,39.6700,65,98,503485
2.3216,0.0000,39.4800,65,98,503488
2.3167,0.0000,39.6700,65,98,503492
2.3656,0.0049,39.5400,65,98,503495
2.3558,0.0000,39.7000,65,98,503498
2.3754,0.0000,39.7000,65,98,503502
2.3949,0.0000,39.5700,65,98,503505
2.3803,0.0000,39.7700,65,98,503508
2.4242,0.0000,39.5700,65,98,503512
2.3998,0.0000,39.6400,65,98,503516
2.3656,0.0000,39.6700,65,98,503519
2.3949,0.0000,39.4800,65,98,503522
2.3460,0.0000,39.8600,65,98,503526
2.3509,0.0000,39.5700,65,98,503529
2.2776,0.0000,39.6400,65,98,503532
2.2385,0.0000,39.6700,65,98,503536
2.2092,0.0000,39.5700,65,98,503539
2.1212,0.0000,39.6400,65,98,503542
2.1017,0.0000,39.5400,65,98,503546
1.9795,0.0000,39.6400,65,98,503549
1.9159,0.0000,39.2500,65,98,503553
1.8622,0.0000,39.6000,65,98,503556
1.7693,0.0000,39.6400,65,98,503560
1.7204,0.0147,39.5400,65,98,503563
1.6325,0.0000,39.6400,65,98,503566
1.5836,0.0000,39.6700,65,98,503570
1.5640,0.0049,39.5400,65,98,503573
1.5005,0.0000,39.6400,65,98,503576
1.5249,0.0000,39.5400,65,98,503580
1.4370,0.0000,39.6400,65,98,503583
1.4125,0.0000,39.6700,65,98,503586
1.4174,0.0000,39.5100,65,98,503589
1.3881,0.0000,39.7300,65,98,503593
1.4076,0.0000,39.5700,65,98,503597
1.3783,0.0000,39.7000,65,98,503600
1.3881,0.0000,39.6700,65,98,503604
1.4027,0.0000,39.5700,65,98,503607
1.4076,0.0000,39.6700,65,98,503610
1.4321,0.0000,39.5400,65,98,503614
1.4174,0.0000,39.6700,65,98,503617
1.4321,0.0000,39.6700,65,98,503620
1.4712,0.0000,39.5700,65,98,503623
1.4663,0.0000,39.3500,65,98,503627
1.5054,0.0000,39.5700,65,98,503630
1.4907,0.0000,39.6400,65,98,503633
1.4956,0.0000,39.6700,65,98,503638
1.5200,0.0000,39.5700,65,98,503641
1.5005,0.0000,39.6400,65,98,503644
1.5396,0.0000,39.5400,65,98,503648
1.5298,0.0000,39.6700,65,98,503651
1.5445,0.0000,39.6700,65,98,503654
1.5689,0.0000,39.5700,65,98,503658
1.5738,0.0000,39.6400,65,98,503661
1.6129,0.0000,39.6000,65,98,503664
1.6276,0.0000,39.6700,65,98,503667
1.6080,0.0000,39.6400,65,98,503671
1.6471,0.0000,39.5100,65,98,503674
1.6276,0.0000,39.6400,65,98,503677
1.6520,0.0000,39.5700,65,98,503682
1.6373,0.0000,39.6700,65,98,503685
1.6520,0.0000,39.6700,65,98,503688
1.6960,0.0000,39.6000,65,98,503692
1.7009,0.0000,39.7000,65,98,503695
1.7400,0.0000,39.5700,65,98,503698
1.7204,0.0000,39.7000,65,98,503702
1.7204,0.0000,39.6700,65,98,503705
1.7253,0.0000,39.4100,65,98,503708
1.7058,0.0000,39.6400,65,98,503711
1.7204,0.0000,39.5100,65,98,503715
1.7155,0.0000,39.7000,65,98,503718
1.7058,0.0000,39.6400,65,98,503721
1.7449,0.0000,39.4800,65,98,503726
1.7351,0.0000,39.6400,65,98,503729
1.7595,0.0000,39.5100,65,98,503732
1.7644,0.0000,39.6700,65,98,503736
1.7546,0.0000,39.6700,65,98,503739
1.7889,0.0293,39.5400,65,98,503742
1.7791,0.0000,39.6400,65,98,503746
1.8035,0.0000,39.5400,65,98,503749
1.7840,0.0000,39.7000,65,98,503752
1.7937,0.0000,39.7000,65,98,503755
1.8182,0.0000,39.6000,65,98,503759
1.8035,0.0000,39.6400,65,98,503762
1.8231,0.0000,39.5100,65,98,503766
1.7986,0.0000,39.6700,65,98,503770
1.8035,0.0000,39.6000,65,98,503773
1.8328,0.0000,39.5100,65,98,503776
1.7986,0.0000,39.6400,65,98,503780
1.8280,0.0000,39.5100,65,98,503783
1.8084,0.0000,39.6700,65,98,503786
1.8084,0.0000,39.7000,65,98,503790
1.8328,0.0000,39.5400,65,98,503793
1.8133,0.0147,39.6000,65,98,503796
1.8377,0.0000,39.5400,65,98,503799
1.8133,0.0000,39.7000,65,98,503803
1.8133,0.0000,39.7000,65,98,503806
1.8280,0.0000,39.8300,65,98,503810
1.8133,0.0000,39.6700,65,98,503814
1.8377,0.0000,39.5400,65,98,503817
1.8035,0.0000,39.6700,65,98,503820
1.8084,0.0000,39.6400,65,98,503824
1.8426,0.0000,39.5100,65,98,503827
1.8182,0.0000,39.6700,65,98,503830
1.8426,0.0000,39.5400,65,98,503833
1.8133,0.0000,39.6700,65,98,503837
1.7986,0.0000,39.6700,65,98,503840
1.8182,0.0049,39.5400,65,98,503843
1.7986,0.0000,39.6400,65,98,503847
1.8182,0.0342,39.5700,65,98,503851
1.7986,0.0000,39.6700,65,98,503854
1.8084,0.0000,39.6700,65,98,503858
1.8133,0.0000,39.5400,65,98,503861
1.8035,0.0000,39.6400,65,98,503864
1.8231,0.0000,39.5400,65,98,503868
1.7986,0.0000,39.6700,65,98,503871
1.8035,0.0000,39.6700,65,98,503874
1.8328,0.0000,39.1900,65,98,503877
1.8084,0.0000,39.2500,65,98,503881
1.8280,0.0000,39.5400,65,98,503884
1.8035,0.0000,39.6700,65,98,503887
1.8035,0.0000,39.8000,65,98,503891
1.8328,0.0000,39.5700,65,98,503895
1.8084,0.0000,39.6400,65,98,503898
1.8377,0.0000,39.5700,65,98,503902
1.8133,0.0000,39.6000,65,98,503905
1.8182,0.0000,39.6000,65,98,503908
1.8377,0.0000,39.6000,65,98,503912
1.8280,0.0000,39.7000,65,98,503915
1.8573,0.0000,39.5700,65,98,503918
1.8280,0.0000,39.1600,65,98,503921
1.8280,0.0000,39.6700,65,98,503925
1.8817,0.0000,39.4400,65,98,503928
1.8231,0.0000,39.6400,65,98,503931
1.8328,0.0000,39.5100,65,98,503936
1.8133,0.0000,39.7000,65,98,503939
1.8182,0.0000,39.6700,65,98,503942
1.8524,0.0000,39.5700,65,98,503946
1.8377,0.0000,39.6400,65,98,503949
1.8622,0.0000,39.5100,65,98,503952
1.8377,0.0000,39.4400,65,98,503955
1.8475,0.0000,39.6400,65,98,503959
1.8671,0.0000,39.6700,65,98,503962
1.8475,0.0000,39.6400,65,98,503965
1.8622,0.0000,39.5100,65,98,503969
1.8280,0.0000,39.7000,65,98,503972
1.8231,0.0000,39.5700,65,98,503975
1.8573,0.0000,39.5100,65,98,503980
1.8377,0.0000,39.6400,65,98,503983
1.8866,0.0000,39.5700,65,98,503988
1.8377,0.0000,39.6700,65,98,503991
1.8426,0.0000,39.7700,65,98,503994
1.8719,0.0000,39.5400,65,98,503998
1.8475,0.0000,39.6400,65,98,504001
1.8622,0.0000,39.5700,65,98,504004
1.8280,0.0000,39.7300,65,98,504007
1.8328,0.0000,39.6400,65,98,504011
1.8475,0.0000,39.6700,65,98,504014
1.8768,0.0000,39.5400,65,98,504017
1.8573,0.0000,39.7000,65,98,504022
1.8768,0.0000,39.4800,65,98,504025
1.8475,0.0000,39.5700,65,98,504028
1.8377,0.0147,39.6700,65,98,504032
1.8524,0.0000,39.5400,65,98,504035
1.8377,0.0000,39.6700,65,98,504038
1.8671,0.0000,39.5100,65,98,504042
1.8573,0.0147,39.6000,65,98,504045
1.8817,0.0000,39.6700,65,98,504048
1.9110,0.0000,39.5100,65,98,504051
1.9013,0.0000,39.6700,65,98,504055
1.9453,0.0000,39.5100,65,98,504058
1.9257,0.0000,39.5100,65,98,504061
1.9453,0.0000,39.6700,65,98,504066
1.9697,0.0000,39.5700,65,98,504069
1.9550,0.0000,39.6700,65,98,504072
1.9746,0.0000,39.4400,65,98,504076
1.9501,0.0000,39.6000,65,98,504079
1.9453,0.0000,39.6700,65,98,504082
1.9697,0.0000,39.5100,65,98,504085
1.9892,0.0000,39.6700,65,98,504089
2.0332,0.0000,39.4400,65,98,504092
2.0235,0.0000,39.6700,65,98,504095
2.0235,0.0000,39.7300,65,98,504099
2.0283,0.0000,39.5100,65,98,504102
1.9795,0.0000,39.7000,65,98,504105
1.9746,0.0000,38.6800,65,98,504110
1.9110,0.0000,39.6400,65,98,504113
1.8866,0.0000,39.7000,65,98,504116
1.8964,0.0000,39.5700,65,98,504119
1.8768,0.0000,39.6700,65,98,504123
1.9453,0.0000,39.4800,65,98,504126
1.8866,0.0000,39.5700,65,98,504129
1.8671,0.0000,39.6700,65,98,504133
1.8622,0.0000,39.5400,65,98,504136
1.8133,0.0000,39.6400,65,98,504139
1.8182,0.0000,39.8600,65,98,504143
1.7742,0.0000,39.6000,65,98,504146
1.7791,0.0000,39.6700,65,98,504150
1.8231,0.0000,39.5400,65,98,504154
1.7791,0.0000,39.6700,65,98,504157
1.8133,0.0000,39.4800,65,98,504160
1.7791,0.0000,39.7700,65,98,504163
1.7742,0.0000,39.6700,65,98,504167
1.7693,0.0000,39.6000,65,98,504170
1.7498,0.0000,39.6700,65,98,504173
1.7546,0.0000,39.4400,65,98,504177
1.7400,0.0000,39.8000,65,98,504180
1.7400,0.0000,39.7000,65,98,504183
1.7693,0.0000,39.5400,65,98,504187
1.7693,0.0000,39.6400,65,98,504190
1.8035,0.0000,39.4800,65,98,504194
1.7840,0.0000,39.6700,65,98,504198
1.8231,0.0000,39.7000,65,98,504201
1.8084,0.0000,39.5400,65,98,504204
1.7937,0.0000,39.6700,65,98,504207
1.8231,0.0000,39.5100,65,98,504211
1.7986,0.0000,39.7700,65,98,504214
1.7986,0.0000,39.6700,65,98,504217
1.8231,0.0000,39.6000,65,98,504221
1.8084,0.0000,39.7000,65,98,504224
1.8377,0.0000,39.4800,65,98,504227
1.8622,0.0000,39.5700,65,98,504231
1.9208,0.0000,39.6700,65,98,504235
2.0577,0.0000,39.5100,65,98,504238
2.2239,0.0000,39.6400,65,98,504242
2.5562,0.0000,39.5400,65,98,504245
2.8935,0.0000,39.6000,65,98,504248
3.3138,0.0000,39.6400,65,98,504251
3.6999,0.0000,39.5100,65,98,504255
3.9296,0.0000,39.7300,65,98,504258
4.1398,0.0000,39.5400,65,98,504261
4.0420,0.0000,39.6700,65,98,504265
3.8123,0.0000,39.6700,65,98,504268
3.4702,0.0000,39.6400,65,98,504271
2.9863,0.0000,39.7000,65,98,504275
2.5367,0.0000,39.5100,65,98,504279
2.0626,0.0000,39.5700,65,98,504282
1.7302,0.0000,39.7300,65,98,504286
1.5445,0.0000,39.5400,65,98,504289
1.4321,0.0000,39.7000,65,98,504292
1.4223,0.0000,39.4800,65,98,504295
1.4125,0.0000,39.6400,65,98,504299
1.4174,0.0000,39.6700,65,98,504302
1.4516,0.0000,39.5100,65,98,504305
1.4516,0.0000,39.6400,65,98,504309
1.4858,0.0000,39.5100,65,98,504312
1.4614,0.0000,39.6700,65,98,504315
1.4761,0.0000,39.6700,65,98,504320
1.5200,0.0000,39.6400,65,98,504323
1.4907,0.0000,39.6700,65,98,504326
1.5249,0.0000,39.5400,65,98,504329
1.5298,0.0000,39.5700,65,98,504333
1.5494,0.0000,39.6700,65,98,504336
1.5885,0.0000,39.5400,65,98,504339
1.5836,0.0000,39.6400,65,98,504343
1.6227,0.0000,39.8600,65,98,504346
1.6227,0.0000,39.6400,65,98,504349
1.6373,0.0000,39.6700,65,98,504353
1.6716,0.0000,39.5400,65,98,504356
1.6716,0.0000,39.6700,65,98,504359
1.7058,0.0000,39.5400,65,98,504364
1.6960,0.0000,39.6700,65,98,504367
1.7155,0.0000,39.7000,65,98,504370
1.7595,0.0000,39.8000,65,98,504374
1.7595,0.0000,39.6400,65,98,504377
1.7889,0.0000,39.5100,65,98,504380
1.7791,0.0000,39.5700,65,98,504383
1.7937,0.0000,39.7700,65,98,504387
1.8231,0.0293,39.5400,65,98,504390
1.8231,0.0000,39.6400,65,98,504393
1.8426,0.0000,39.5100,65,98,504397
1.8280,0.0000,39.6700,65,98,504400
1.8377,0.0000,39.6400,65,98,504403
1.8671,0.0000,39.5400,65,98,504408
1.8622,0.0000,39.6700,65,98,504411
1.8915,0.0098,39.5100,65,98,504414
1.8768,0.0000,39.6700,65,98,504417
1.9208,0.0000,39.6700,65,98,504421
1.9257,0.0000,39.5700,65,98,504424
1.9257,0.0244,39.6700,65,98,504427
1.9844,0.0000,39.4800,65,98,504431
1.9746,0.0000,39.5700,65,98,504434
1.9892,0.0000,39.6400,65,98,504437
2.0332,0.0000,39.5700,65,98,504441
2.0332,0.0000,39.8900,65,98,504444
2.0919,0.0000,39.4800,65,98,504448
2.0772,0.0000,39.7000,65,98,504452
2.0968,0.0000,39.5100,65,98,504455
2.1359,0.0000,39.5400,65,98,504458
2.1457,0.0000,39.6700,65,98,504461
2.1848,0.0049,39.4800,65,98,504465
2.1799,0.0000,39.6700,65,98,504468
2.2092,0.0000,39.6700,65,98,504471
2.2532,0.0049,39.5700,65,98,504475
2.2630,0.0000,39.6700,65,98,504478
2.3265,0.0000,39.4800,65,98,504481
2.3216,0.0000,39.5700,65,98,504485
2.3314,0.0000,39.6700,65,98,504488
2.3754,0.0000,39.6700,65,98,504492
2.3656,0.0000,39.6700,65,98,504496
2.4145,0.0000,39.4800,65,98,504499
2.3851,0.0000,39.5700,65,98,504502
2.3851,0.0000,39.6000,65,98,504505
2.4145,0.0000,39.5100,65,98,504509
2.3754,0.0000,39.6400,65,98,504512
2.3998,0.0000,39.5700,65,98,504515
2.3412,0.0000,39.6000,65,98,504519
2.3216,0.0000,39.6700,65,98,504522
2.3021,0.0000,39.5700,65,98,504525
2.2336,0.0049,39.6400,65,98,504529
2.2043,0.0000,39.4400,65,98,504532
2.1114,0.0000,39.6000,65,98,504536
2.0186,0.0000,39.6700,65,98,504540
1.9599,0.0000,39.5100,65,98,504543
1.8719,0.0000,39.6700,65,98,504546
1.8328,0.0000,39.5400,65,98,504549
1.7498,0.0000,39.6700,65,98,504553
1.6911,0.0000,39.6700,65,98,504556
1.6422,0.0000,39.5100,65,98,504559
1.5640,0.0000,39.7000,65,98,504563
1.5347,0.0000,39.4800,65,98,504566
1.4761,0.0000,39.7000,65,98,504569
1.4516,0.0000,39.7000,65,98,504573
1.4418,0.0000,39.5700,65,98,504577
1.4027,0.0000,39.6400,65,98,504580
1.4174,0.0000,39.4800,65,98,504584
1.3881,0.0000,39.5700,65,98,504587
1.3783,0.0000,39.6700,65,98,504590
1.4125,0.0000,39.5400,65,98,504593
1.3783,0.0000,39.6400,65,98,504598
1.4076,0.0000,39.5100,65,98,504601
1.3832,0.0000,39.6000,65,98,504605
1.3978,0.0000,39.6700,65,98,504608
1.4272,0.0000,39.5400,65,98,504611
1.4321,0.0000,39.7300,65,98,504615
1.4614,0.0000,39.4800,65,98,504619
1.4614,0.0000,39.8000,65,98,504622
1.4809,0.0000,39.6400,65,98,504626
1.5396,0.0000,39.5400,65,98,504629
1.5738,0.0196,39.6000,65,98,504632
1.5787,0.0000,39.6700,65,98,504636
1.6325,0.0000,39.3800,65,98,504639
1.6129,0.0000,39.5400,65,98,504642
1.6178,0.0000,39.8000,65,98,504645
1.6471,0.0000,39.6000,65,98,504649
1.6520,0.0000,39.6700,65,98,504652
1.6764,0.0000,39.5100,65,98,504655
1.6471,0.0000,39.6000,65,98,504659
1.6471,0.0000,39.6700,65,98,504663
1.6716,0.0000,39.6400,65,98,504666
1.6960,0.0000,39.6400,65,98,504670
1.7155,0.0000,39.3800,65,98,504673
1.6960,0.0000,39.5700,65,98,504676
1.7204,0.0000,39.6700,65,98,504680
1.7009,0.0000,39.6000,65,98,504683
1.6960,0.0000,39.6700,65,98,504686
1.7449,0.0000,39.4100,65,98,504689
1.7204,0.0000,39.7000,65,98,504693
1.7204,0.0000,39.7000,65,98,504696
1.7546,0.0000,39.7000,65,98,504699
1.7546,0.0000,39.6700,65,98,504704
1.8182,0.0000,39.4100,65,98,504707
1.7742,0.0000,39.6000,65,98,504710
1.7889,0.0000,39.6700,65,98,504714
1.7937,0.0000,39.8300,65,98,504717
1.7937,0.0000,39.5700,65,98,504720
1.8377,0.0000,39.4400,65,98,504723
1.8084,0.0000,39.5400,65,98,504727
1.7937,0.0000,39.5400,65,98,504730
1.8084,0.0000,39.5400,65,98,504733
1.8035,0.0000,39.6400,65,98,504737
1.8524,0.0147,39.4100,65,98,504740
1.8231,0.0000,39.5700,65,98,504743
1.8133,0.0000,39.6400,65,98,504748
1.8280,0.0000,39.5700,65,98,504751
1.8084,0.0000,39.7000,65,98,504754
1.8573,0.0000,39.4100,65,98,504758
1.8280,0.0000,39.6000,65,98,504761
1.8084,0.0000,39.6700,65,98,504764
1.8182,0.0000,39.6000,65,98,504767
1.7986,0.0000,39.6700,65,98,504771
1.8328,0.0000,39.4100,65,98,504774
1.8035,0.0000,39.6400,65,98,504777
1.7840,0.0000,39.6700,65,98,504781
1.8084,0.0000,39.5700,65,98,504784
1.7840,0.0000,39.7000,65,98,504787
1.8328,0.0000,39.4400,65,98,504792
1.8084,0.0000,39.6000,65,98,504795
1.8133,0.0000,39.6700,65,98,504798
1.8328,0.0098,39.5700,65,98,504802
1.8084,0.0000,39.7000,65,98,504805
1.8475,0.0000,39.5400,65,98,504808
1.8084,0.0000,39.6700,65,98,504811
1.8133,0.0000,39.6700,65,98,504815
1.8328,0.0000,39.6000,65,98,504818
1.8280,0.0000,39.6400,65,98,504821
1.8573,0.0147,39.4100,65,98,504825
1.8377,0.0000,39.5700,65,98,504828
1.8573,0.0000,39.6700,65,98,504832
1.8426,0.0000,39.5700,65,98,504836
1.8182,0.0147,39.6400,65,98,504839
1.8573,0.0000,39.4100,65,98,504842
1.8182,0.0000,39.5700,65,98,504846
1.8084,0.0000,39.6700,65,98,504849
1.8231,0.0000,39.7700,65,98,504852
1.7986,0.0000,39.6700,65,98,504855
1.8475,0.0000,39.4400,65,98,504859
1.7889,0.0000,39.6000,65,98,504862
1.7937,0.0000,39.6400,65,98,504865
1.8133,0.0000,39.6000,65,98,504869
1.8035,0.0000,39.7300,65,98,504872
1.8573,0.0000,39.4100,65,98,504876
1.8328,0.0000,39.6000,65,98,504880
1.8182,0.0000,39.6700,65,98,504883
1.8328,0.0000,39.6000,65,98,504886
1.8133,0.0000,39.6700,65,98,504889
1.8524,0.0000,39.4400,65,98,504893
1.8328,0.0000,39.6000,65,98,504896
1.8182,0.0049,39.7000,65,98,504899
1.8475,0.0000,39.6000,65,98,504903
1.8328,0.0000,39.6700,65,98,504906
1.8817,0.0000,39.3500,65,98,504909
1.8377,0.0000,39.6700,65,98,504913
1.8377,0.0000,39.6700,65,98,504916
1.8573,0.0000,39.6400,65,98,504920
1.8280,0.0000,39.6700,65,98,504923
1.8719,0.0000,39.4100,65,98,504927
1.8426,0.0000,39.6000,65,98,504930
1.8231,0.0000,39.7000,65,98,504933
1.8377,0.0000,39.6000,65,98,504937
1.8182,0.0000,39.6700,65,98,504940
1.8622,0.0000,39.4100,65,98,504943
1.8280,0.0000,39.8900,65,98,504947
1.8280,0.0000,39.6700,65,98,504950
1.8524,0.0000,39.6000,65,98,504953
1.8280,0.0049,39.6400,65,98,504957
1.8719,0.0000,39.4100,65,98,504961
1.8328,0.0000,39.6000,65,98,504964
1.8475,0.0000,39.6700,65,98,504967
1.8719,0.0000,39.4100,65,98,504971
1.8622,0.0000,39.7700,65,98,504974
1.9159,0.0000,39.3800,65,98,504977
1.8719,0.0000,39.5700,65,98,504981
1.8573,0.0000,39.6700,65,98,504984
1.8573,0.0049,39.6400,65,98,504987
1.8377,0.0000,39.6700,65,98,504991
1.8817,0.0000,39.3800,65,98,504994
1.8377,0.0000,39.6400,65,98,504997
1.8328,0.0000,39.7000,65,98,505000
1.8426,0.0000,39.6000,65,98,505005
1.8182,0.0000,39.6700,65,98,505008
1.8719,0.0000,39.3500,65,98,505011
1.8280,0.0000,39.5400,65,98,505015
1.8280,0.0000,39.6700,65,98,505018
1.8377,0.0000,39.6400,65,98,505021
1.8377,0.0000,39.6400,65,98,505025
1.9013,0.0000,39.3800,65,98,505028
1.8622,0.0098,39.5700,65,98,505031
1.8475,0.0000,39.7300,65,98,505034
1.8671,0.0000,39.6400,65,98,505038
1.8622,0.0000,39.6700,65,98,505041
1.9159,0.0147,39.3800,65,98,505044
1.8768,0.0000,39.5700,65,98,505049
1.8866,0.0000,39.6700,65,98,505052
1.8622,0.0000,39.6000,65,98,505055
1.8524,0.0000,39.7000,65,98,505059
1.9013,0.0000,39.3800,65,98,505062
1.8622,0.0000,39.5700,65,98,505065
1.8622,0.0000,39.6700,65,98,505069
1.8719,0.0049,39.6000,65,98,505072
1.8964,0.0000,39.6400,65,98,505075
1.9697,0.0000,39.3800,65,98,505078
1.9501,0.0000,39.5100,65,98,505082
1.9404,0.0000,39.6700,65,98,505085
1.9599,0.0000,39.6400,65,98,505089
1.9501,0.0000,39.6700,65,98,505093
2.0088,0.0000,39.3500,65,98,505096
1.9892,0.0000,39.5700,65,98,505099
2.0186,0.0000,39.6700,65,98,505103
2.0332,0.0000,39.6400,65,98,505106
2.0186,0.0000,39.6700,65,98,505109
2.0626,0.0000,39.3800,65,98,505113
2.0039,0.0000,39.5700,65,98,505116
1.9599,0.0000,39.6000,65,98,505119
1.9355,0.0000,39.6700,65,98,505122
1.9110,0.0000,39.6400,65,98,505126
1.9550,0.0000,39.3800,65,98,505129
1.9062,0.0000,39.7000,65,98,505133
1.8866,0.0000,38.8700,65,98,505137
1.8866,0.0000,38.9600,65,98,505140
1.8524,0.0000,39.6700,65,98,505143
1.8817,0.0000,39.3500,65,98,505147
1.8182,0.0000,39.5700,65,98,505150
1.7937,0.0000,39.6700,65,98,505153
1.7986,0.0000,39.5700,65,98,505157
1.7840,0.0000,39.7300,65,98,505160
1.8231,0.0000,39.4100,65,98,505163
1.7791,0.0000,39.5700,65,98,505166
1.7742,0.0000,39.6700,65,98,505170
1.7742,0.0000,39.8600,65,98,505174
1.7693,0.0000,39.7000,65,98,505177
1.8084,0.0000,39.3800,65,98,505181
1.7840,0.0098,39.6400,65,98,505184
1.7693,0.0244,39.7000,65,98,505187
1.7742,0.0000,39.7300,65,98,505191
1.7742,0.0000,39.6700,65,98,505194
1.8182,0.0000,39.3800,65,98,505197
1.7889,0.0000,39.5700,65,98,505200
1.7889,0.0000,39.6700,65,98,505204
1.8084,0.0000,39.7300,65,98,505207
1.8035,0.0000,39.6700,65,98,505212
1.8426,0.0000,39.3800,65,98,505216
1.7937,0.0000,39.5400,65,98,505219
1.7840,0.0000,39.6000,65,98,505223
1.7840,0.0000,39.6000,65,98,505226
1.7840,0.0000,39.7000,65,98,505229
1.8280,0.0000,39.3800,65,98,505233
1.7937,0.0000,39.5400,65,98,505236
1.7840,0.0000,39.6700,65,98,505239
1.8035,0.0000,39.6000,65,98,505243
1.8280,0.0000,39.6700,65,98,505246
1.9257,0.0000,39.4100,65,98,505249
3.0010,0.0000,39.5100,65,98,505252
3.3675,0.0000,39.6400,65,98,505256
3.6901,0.0000,39.6400,65,98,505260
3.9247,0.0000,39.6400,65,98,505263
4.0567,0.0000,39.7000,65,98,505267
4.0811,0.0049,39.5400,65,98,505270
3.7390,0.0000,39.6400,65,98,505273
3.3578,0.0000,39.5700,65,98,505277
2.8935,0.0049,39.6000,65,98,505280
2.3998,0.0000,39.6700,65,98,505283
2.0235,0.0049,39.4800,65,98,505287
1.6862,0.0000,39.5700,65,98,505290
1.5152,0.0000,39.5700,65,98,505293
1.4370,0.0000,39.6400,65,98,505296
1.4174,0.0000,39.6700,65,98,505300
1.4614,0.0000,39.5400,65,98,505304
1.4614,0.0000,39.5700,65,98,505307
1.4956,0.0000,39.5400,65,98,505311
1.5103,0.0049,39.6400,65,98,505314
1.5200,0.0000,39.6700,65,98,505317
1.5445,0.0000,39.6000,65,98,505321
1.5054,0.0000,39.6400,65,98,505324
1.5103,0.0000,39.2200,65,98,505327
1.5005,0.0000,39.6000,65,98,505331
1.5103,0.0000,39.6700,65,98,505334
1.5591,0.0000,39.4800,65,98,505337
1.5591,0.0000,39.6400,65,98,505340
1.5836,0.0000,39.5400,65,98,505345
1.5934,0.0000,39.7300,65,98,505348
1.6080,0.0000,39.6400,65,98,505351
1.6569,0.0000,39.5100,65,98,505355
1.6520,0.0000,39.6000,65,98,505358
1.6667,0.0000,39.5700,65,98,505361
1.6716,0.0000,39.6700,65,98,505365
1.6911,0.0000,39.6700,65,98,505368
1.7302,0.0000,39.5400,65,98,505371
1.7155,0.0000,39.6000,65,98,505375
1.7351,0.0000,39.5400,65,98,505378
1.7400,0.0000,39.6400,65,98,505381
1.7546,0.0000,39.6700,65,98,505384
1.8035,0.0000,39.5100,65,98,505389
1.7986,0.0000,39.6700,65,98,505392
1.8133,0.0000,39.5400,65,98,505395
1.8133,0.0049,39.6400,65,98,505399
1.8231,0.0049,39.7000,65,98,505402
1.8719,0.0000,39.5400,65,98,505405
1.8817,0.0000,39.6000,65,98,505409
1.8964,0.0000,39.5400,65,98,505412
1.8866,0.0000,39.7000,65,98,505415
1.8915,0.0000,39.7300,65,98,505418
1.9355,0.0000,39.5700,65,98,505422
1.9110,0.0000,39.6400,65,98,505425
1.9404,0.0000,39.5400,65,98,505428
1.9453,0.0000,39.6700,65,98,505433
1.9746,0.0000,39.7000,65,98,505436
2.0381,0.0000,39.4800,65,98,505439
2.0332,0.0000,39.6000,65,98,505443
2.0479,0.0098,39.5400,65,98,505446
2.0381,0.0000,39.6400,65,98,505449
2.0479,0.0000,39.7300,65,98,505453
2.0968,0.0000,39.5400,65,98,505456
2.0919,0.0000,39.6000,65,98,505459
2.1163,0.0000,39.5400,65,98,505462
2.1261,0.0000,39.7300,65,98,505466
2.1554,0.0000,39.8300,65,98,505469
2.2190,0.0000,39.5700,65,98,505473
2.2483,0.0000,39.6400,65,98,505477
2.2678,0.0000,39.5400,65,98,505480
2.2727,0.0000,39.6700,65,98,505483
2.2923,0.0000,39.7300,65,98,505487
2.3558,0.0000,39.5100,65,98,505490
2.3460,0.0000,39.6400,65,98,505493
2.3656,0.0000,39.5400,65,98,505497
2.3558,0.0000,39.5700,65,98,505500
2.3705,0.0000,39.6400,65,98,505503
2.4242,0.0000,39.5100,65,98,505507
2.3949,0.0000,39.6000,65,98,505510
2.3998,0.0000,39.5700,65,98,505513
2.3803,0.0000,39.6400,65,98,505517
2.3900,0.0000,39.6400,65,98,505521
2.3998,0.0000,39.5400,65,98,505524
2.3265,0.0000,39.6400,65,98,505527
2.2776,0.0000,39.5700,65,98,505531
2.2385,0.0000,39.6400,65,98,505534
2.1457,0.0000,39.7000,65,98,505537
2.1261,0.0000,39.6400,65,98,505541
2.0283,0.0000,39.4100,65,98,505544
1.9599,0.0000,39.5700,65,98,505547
1.8768,0.0000,39.6400,65,98,505550
1.8035,0.0000,39.6400,65,98,505554
1.7791,0.0000,39.5400,65,98,505558
1.7009,0.0000,39.6000,65,98,505561
1.6471,0.0000,39.5700,65,98,505565
1.5836,0.0000,39.7000,65,98,505568
1.5396,0.0000,39.6700,65,98,505571
1.5347,0.0000,39.7700,65,98,505575
1.4761,0.0000,39.6000,65,98,505578
1.4712,0.0000,39.5700,65,98,505581
1.4174,0.0000,39.6400,65,98,505585
1.3978,0.0000,39.6400,65,98,505588
1.4272,0.0049,39.5700,65,98,505591
1.4027,0.0000,39.6000,65,98,505594
1.4174,0.0000,39.5700,65,98,505598
1.4027,0.0000,39.7000,65,98,505602
1.4076,0.0000,39.6400,65,98,505605
1.4565,0.0000,39.5100,65,98,505609
1.4418,0.0000,39.6000,65,98,505612
1.4467,0.0000,39.5400,65,98,505615
1.4565,0.0000,39.6400,65,98,505619
1.4712,0.0000,39.6700,65,98,505622
1.5249,0.0000,39.6000,65,98,505625
1.5152,0.0000,39.6400,65,98,505629
1.5152,0.0000,39.5700,65,98,505632
1.5200,0.0000,39.6400,65,98,505635
1.5347,0.0000,39.6400,65,98,505638
1.5787,0.0000,39.4800,65,98,505643
1.5787,0.0000,39.6000,65,98,505646
1.5885,0.0000,39.6000,65,98,505649
1.5885,0.0000,39.6700,65,98,505653
1.5934,0.0000,39.6400,65,98,505656
1.6325,0.0000,39.5700,65,98,505659
1.6178,0.0000,39.6700,65,98,505663
1.6227,0.0000,39.5400,65,98,505666
1.6227,0.0000,39.6400,65,98,505669
1.6276,0.0000,39.6700,65,98,505672
1.6716,0.0000,39.5100,65,98,505676
1.6520,0.0000,39.6400,65,98,505679
1.6618,0.0000,39.5700,65,98,505682
1.6569,0.0000,39.6700,65,98,505687
1.6911,0.0000,39.7000,65,98,505690
1.7253,0.0000,39.5100,65,98,505693
1.7155,0.0244,39.6400,65,98,505697
1.7302,0.0000,39.5400,65,98,505700
1.7107,0.0000,39.6700,65,98,505703
1.7155,0.0000,39.6400,65,98,505707
1.7498,0.0000,39.4800,65,98,505710
1.7351,0.0000,39.6000,65,98,505713
1.7449,0.0000,39.5400,65,98,505716
1.7302,0.0000,39.6700,65,98,505720
1.7400,0.0000,39.6700,65,98,505723
1.7742,0.0000,39.5700,65,98,505726
1.7644,0.0000,39.6000,65,98,505731
1.7791,0.0000,39.5700,65,98,505734
1.7693,0.0000,39.5700,65,98,505737
1.7791,0.0000,39.6700,65,98,505741
1.8182,0.0000,39.5100,65,98,505744
1.7986,0.0000,39.6000,65,98,505747
1.8035,0.0000,39.5400,65,98,505750
1.7986,0.0000,39.6400,65,98,505754
1.8133,0.0000,39.6700,65,98,505757
1.8719,0.0000,39.5100,65,98,505760
1.8280,0.0000,39.6000,65,98,505764
1.8231,0.0000,39.3500,65,98,505767
1.7986,0.0000,39.6700,65,98,505771
1.7840,0.0000,39.6700,65,98,505775
1.8084,0.0000,39.5700,65,98,505778
1.7791,0.0000,39.6400,65,98,505781
1.7889,0.0000,39.5400,65,98,505785
1.7840,0.0000,39.6000,65,98,505788
1.7889,0.0000,39.6700,65,98,505791
1.8328,0.0000,39.5100,65,98,505794
1.8084,0.0000,39.6000,65,98,505798
1.8231,0.0000,39.5700,65,98,505801
1.8133,0.0000,39.6400,65,98,505804
1.8084,0.0000,39.6700,65,98,505808
1.8426,0.0000,39.5100,65,98,505811
1.8182,0.0000,39.6000,65,98,505815
1.8182,0.0000,39.5700,65,98,505819
1.8084,0.0000,39.7700,65,98,505822
1.8035,0.0000,39.6700,65,98,505826
1.8426,0.0000,39.5400,65,98,505829
1.8084,0.0244,39.6400,65,98,505832
1.8084,0.0000,39.5700,65,98,505836
1.8328,0.0000,39.6700,65,98,505839
1.7986,0.0098,39.6400,65,98,505842
1.8426,0.0000,39.4800,65,98,505845
