ecg,gsr,temp,hr,spo2,timest
1.7937,0.5132,38.0200,70,97,498856
1.7889,0.4888,38.0500,70,97,498860
1.7791,0.5132,38.1100,70,97,498864
1.8280,0.5034,37.9300,70,97,498867
1.7937,0.4936,38.0500,70,97,498870
1.7986,0.4936,37.9600,70,97,498874
1.7791,0.4888,38.0800,70,97,498877
1.7791,0.5376,38.0800,70,97,498880
1.8133,0.4985,37.9000,70,97,498884
1.7742,0.4936,38.0500,70,97,498887
1.8035,0.4888,37.9300,70,97,498890
1.7937,0.4888,38.1500,70,97,498893
1.8133,0.4839,38.0500,70,97,498897
1.8622,0.4985,37.9900,70,97,498900
1.8573,0.4888,38.0800,70,97,498904
1.9062,0.4936,37.9000,70,97,498908
1.8866,0.4888,38.0500,70,97,498911
1.8915,0.4888,37.9900,70,97,498914
1.9110,0.4985,38.0200,70,97,498918
1.8768,0.4888,38.0800,70,97,498921
1.9013,0.4936,37.9000,70,97,498924
1.8719,0.4888,38.0800,70,97,498927
1.8964,0.4888,38.0800,70,97,498931
1.9501,0.4985,37.9300,70,97,498934
1.9648,0.4839,38.0800,70,97,498937
2.0479,0.4985,37.9000,70,97,498941
2.0332,0.4936,37.9600,70,97,498945
2.0137,0.4985,38.0800,70,97,498948
2.0088,0.4936,38.0500,70,97,498952
1.9746,0.4888,38.0800,70,97,498955
1.9941,0.4985,37.8000,70,97,498958
1.9208,0.4936,37.9900,70,97,498961
1.8817,0.4839,38.1100,70,97,498965
1.8622,0.4888,38.0800,70,97,498968
1.8524,0.4888,38.0800,70,97,498971
1.8964,0.5132,37.8700,70,97,498975
1.8328,0.4936,38.2400,70,97,498978
1.8182,0.4985,38.0500,70,97,498981
1.7840,0.4839,38.0800,70,97,498985
1.7644,0.4888,38.1100,70,97,498989
1.7889,0.4985,37.9900,70,97,498992
1.7546,0.4888,38.0800,70,97,498995
1.7546,0.4936,37.9600,70,97,498999
1.7204,0.4839,38.0800,70,97,499002
1.7009,0.4936,38.0800,70,97,499005
1.7204,0.4985,37.9000,70,97,499009
1.6960,0.4839,38.0800,70,97,499012
1.7253,0.4985,37.9600,70,97,499015
1.7009,0.4839,38.0500,70,97,499019
1.7058,0.4888,38.0500,70,97,499022
1.7302,0.4936,37.9900,70,97,499025
1.7204,0.4888,38.0200,70,97,499028
1.7546,0.4936,37.9000,70,97,499033
1.7302,0.4888,38.0200,70,97,499036
1.7449,0.4888,38.2700,70,97,499039
1.7498,0.4888,38.0200,70,97,499043
1.7302,0.4888,38.0800,70,97,499046
1.7595,0.4985,37.9000,70,97,499049
1.7253,0.4888,38.0500,70,97,499053
1.7302,0.4888,38.0800,70,97,499056
1.7449,0.5034,38.0200,70,97,499059
1.7400,0.4888,38.0800,70,97,499062
1.7986,0.4985,37.8000,70,97,499066
1.7986,0.4936,38.0500,70,97,499069
1.8377,0.4888,38.0500,70,97,499073
1.9159,0.4936,38.0800,70,97,499077
2.0479,0.4888,38.0800,70,97,499080
2.3558,0.5132,37.8700,70,97,499083
3.9736,0.4936,37.9300,70,97,499088
3.9394,0.4888,38.0500,70,97,499091
3.7830,0.4888,37.9300,70,97,499095
3.3969,0.4839,38.0800,70,97,499098
2.9619,0.4888,38.0800,70,97,499101
2.5073,0.4839,38.0200,70,97,499104
2.0479,0.4888,38.0800,70,97,499108
1.7302,0.4985,37.9300,70,97,499111
1.4858,0.4936,38.0800,70,97,499115
1.4076,0.4839,38.0800,70,97,499119
1.3978,0.4936,38.0500,70,97,499122
1.3832,0.4839,38.0800,70,97,499125
1.4223,0.4936,37.9000,70,97,499129
1.4272,0.5279,37.9600,70,97,499132
1.4418,0.4839,38.0800,70,97,499135
1.4614,0.4936,38.0200,70,97,499138
1.4614,0.4839,38.0800,70,97,499142
1.5152,0.4985,37.8000,70,97,499145
1.5200,0.4888,37.9900,70,97,499148
1.5347,0.4888,38.0800,70,97,499152
1.5640,0.4888,38.0800,70,97,499155
1.5738,0.4839,38.0800,70,97,499159
1.6227,0.5034,37.8000,70,97,499163
1.5885,0.4888,38.1100,70,97,499166
1.5934,0.4790,38.1100,70,97,499169
1.6031,0.4888,38.0800,70,97,499172
1.6031,0.4888,38.1100,70,97,499176
1.6618,0.5034,37.9000,70,97,499179
1.6471,0.4936,38.0500,70,97,499182
1.6618,0.4936,38.0200,70,97,499186
1.6716,0.4888,38.1800,70,97,499189
1.6960,0.4936,38.1800,70,97,499192
1.7498,0.4985,37.9000,70,97,499196
1.7253,0.4839,38.1100,70,97,499200
1.7693,0.4936,37.9300,70,97,499203
1.7449,0.4888,38.1800,70,97,499207
1.7644,0.4790,38.0800,70,97,499210
1.8133,0.4985,37.8700,70,97,499213
1.8084,0.4888,38.0500,70,97,499216
1.8573,0.4985,37.9600,70,97,499220
1.8377,0.4839,38.0500,70,97,499223
1.8426,0.4888,38.1800,70,97,499226
1.8524,0.4888,38.0200,70,97,499230
1.8426,0.4888,38.0800,70,97,499233
1.8768,0.4936,37.9300,70,97,499236
1.8475,0.4888,38.0800,70,97,499240
1.8671,0.4643,38.1100,70,97,499244
1.8964,0.4985,38.0200,70,97,499247
1.8964,0.4888,38.0800,70,97,499251
1.9599,0.4985,37.8300,70,97,499254
1.9795,0.4839,37.9900,70,97,499257
1.9453,0.4888,38.0800,70,97,499260
1.9599,0.4985,38.0800,70,97,499264
1.9697,0.4888,38.0800,70,97,499267
2.0381,0.5034,37.8000,70,97,499270
2.0186,0.4888,37.9900,70,97,499274
2.0381,0.4936,38.0800,70,97,499277
2.0674,0.4888,38.1100,70,97,499280
2.0919,0.4888,38.0800,70,97,499283
2.1750,0.5034,37.6500,70,97,499288
2.1359,0.4839,38.1100,70,97,499291
2.1896,0.4888,38.0200,70,97,499294
2.1701,0.4888,38.0800,70,97,499298
2.1848,0.4888,38.0800,70,97,499301
2.2678,0.4839,37.9600,70,97,499304
2.2239,0.4888,38.0500,70,97,499308
2.2434,0.4936,37.9900,70,97,499311
2.2336,0.4888,38.0800,70,97,499314
2.2630,0.4888,38.2100,70,97,499317
2.3216,0.4985,37.9000,70,97,499321
2.2923,0.4643,38.0800,70,97,499324
2.3216,0.4936,37.9300,70,97,499328
2.2776,0.4888,38.0800,70,97,499332
2.2727,0.4839,38.0800,70,97,499335
2.2825,0.4936,38.0200,70,97,499338
2.2434,0.4936,38.0200,70,97,499342
2.2581,0.4936,37.9300,70,97,499345
2.1994,0.4839,37.7400,70,97,499348
2.1799,0.4936,38.1100,70,97,499351
2.1212,0.4888,38.0200,70,97,499355
2.0479,0.4936,38.0500,70,97,499358
2.0137,0.4985,37.8700,70,97,499361
1.9159,0.4888,37.6200,70,97,499365
1.8573,0.4985,38.0800,70,97,499368
1.8133,0.4936,38.0200,70,97,499372
1.7351,0.4888,38.0800,70,97,499376
1.7253,0.4985,37.8000,70,97,499379
1.6569,0.4936,37.9900,70,97,499382
1.6129,0.5034,38.0800,70,97,499385
1.5934,0.4888,38.0500,70,97,499389
1.5640,0.4888,38.0200,70,97,499392
1.5982,0.4985,37.8000,70,97,499395
1.5396,0.4936,38.0500,70,97,499399
1.5103,0.4839,38.2400,70,97,499402
1.4907,0.4888,38.0800,70,97,499405
1.4712,0.4888,38.0800,70,97,499409
1.5005,0.5034,37.9000,70,97,499412
1.4565,0.5132,38.0500,70,97,499416
1.4565,0.4888,37.9900,70,97,499419
1.4516,0.4888,38.1100,70,97,499423
1.4712,0.4888,38.1500,70,97,499426
1.4907,0.4985,37.9300,70,97,499429
1.4858,0.4888,38.0500,70,97,499433
1.5249,0.4839,37.9300,70,97,499436
1.5054,0.4888,38.0800,70,97,499439
1.5249,0.4936,38.1800,70,97,499443
1.5543,0.4985,37.9300,70,97,499446
1.5298,0.4839,38.0500,70,97,499449
1.5738,0.4888,37.9300,70,97,499453
1.5445,0.4839,38.0200,70,97,499457
1.5543,0.4888,38.0800,70,97,499460
1.5738,0.4985,37.9600,70,97,499463
1.5738,0.4888,38.0800,70,97,499467
1.6227,0.4936,37.9000,70,97,499470
1.6178,0.5327,38.0500,70,97,499473
1.6716,0.4888,38.0800,70,97,499477
1.6618,0.4643,38.0500,70,97,499480
1.6716,0.4888,37.9900,70,97,499483
1.7204,0.5034,37.8000,70,97,499487
1.6911,0.4888,38.0800,70,97,499490
1.7058,0.5034,38.1500,70,97,499493
1.7204,0.4839,38.0200,70,97,499496
1.7058,0.4888,38.1500,70,97,499501
1.7546,0.5376,37.7700,70,97,499504
1.7204,0.4936,37.9600,70,97,499507
1.7155,0.4839,37.9900,70,97,499511
1.7253,0.4888,38.0500,70,97,499514
1.7302,0.4888,37.9600,70,97,499517
1.7937,0.5083,37.8700,70,97,499521
1.7595,0.4936,37.9600,70,97,499524
1.7644,0.4888,37.9600,70,97,499527
1.7498,0.4839,38.0500,70,97,499530
1.7449,0.4888,38.2100,70,97,499534
1.7791,0.4985,37.9600,70,97,499537
1.7546,0.4888,38.0800,70,97,499540
1.7791,0.4936,37.9300,70,97,499545
1.7595,0.4888,38.1100,70,97,499548
1.7644,0.4985,38.0800,70,97,499551
1.7889,0.4936,38.0800,70,97,499555
1.7840,0.4643,38.1100,70,97,499558
1.8133,0.4936,37.9300,70,97,499561
1.7791,0.4888,38.2100,70,97,499565
1.7840,0.4888,38.0800,70,97,499568
1.8035,0.4936,37.9300,70,97,499571
1.7742,0.4888,38.0800,70,97,499574
1.8084,0.5083,37.8700,70,97,499578
1.7986,0.4936,38.1800,70,97,499581
1.7986,0.4888,38.1100,70,97,499585
1.8133,0.4643,38.0500,70,97,499589
1.8035,0.4888,37.9900,70,97,499592
1.8426,0.4936,37.8300,70,97,499595
1.7889,0.4888,38.0200,70,97,499599
1.7840,0.4888,38.1100,70,97,499602
1.7840,0.4936,38.0800,70,97,499605
1.7791,0.4888,38.3300,70,97,499609
1.8622,0.5083,37.7400,70,97,499612
1.7937,0.4936,38.1100,70,97,499615
1.8377,0.4888,38.0200,70,97,499618
1.7937,0.4888,38.2100,70,97,499622
1.7937,0.4839,38.0800,70,97,499625
1.8377,0.5034,37.9900,70,97,499629
1.8084,0.5083,38.0500,70,97,499633
1.8475,0.4839,37.9600,70,97,499636
1.7937,0.5083,38.0800,70,97,499639
1.7986,0.4888,38.0800,70,97,499643
1.8231,0.5034,37.9000,70,97,499646
1.7937,0.5132,38.0500,70,97,499649
1.8280,0.4936,37.9600,70,97,499653
1.7937,0.4888,37.9600,70,97,499656
1.7937,0.4888,38.0800,70,97,499659
1.8084,0.4643,38.0800,70,97,499662
1.7986,0.4888,38.2100,70,97,499666
1.8524,0.4888,37.9000,70,97,499670
1.8133,0.4888,38.0800,70,97,499673
1.8182,0.4936,38.1100,70,97,499677
1.8280,0.4839,38.0200,70,97,499680
1.8084,0.4888,38.0800,70,97,499683
1.8328,0.4936,38.2400,70,97,499687
1.8035,0.4839,38.0800,70,97,499690
1.8182,0.4888,38.1100,70,97,499693
1.8524,0.4985,38.0200,71,97,499696
1.9159,0.4888,38.0800,71,97,499701
1.9208,0.4888,38.0800,71,97,499704
1.9844,0.5034,37.8300,71,97,499708
1.9550,0.4888,38.0500,71,97,499712
1.9892,0.4643,38.0800,71,97,499715
1.9990,0.4936,38.0800,71,97,499719
2.0137,0.4888,38.0800,71,97,499722
2.0381,0.4985,37.9900,71,97,499725
1.9844,0.4888,38.1100,71,97,499729
1.9746,0.4839,37.9600,71,97,499732
1.9062,0.4888,38.0800,71,97,499735
1.8768,0.4888,38.1100,71,97,499738
1.8768,0.4936,38.0500,71,97,499742
1.8475,0.4888,38.2400,71,97,499745
1.8622,0.4936,37.9600,71,97,499748
1.8231,0.4888,38.2100,71,97,499752
1.8524,0.4888,38.1500,71,97,499756
1.8377,0.4936,38.0500,71,97,499759
1.8084,0.4936,38.0500,71,97,499763
1.8084,0.4936,37.9000,71,97,499766
1.7693,0.4888,37.9600,71,97,499769
1.7351,0.5132,38.0800,71,97,499773
1.7253,0.4936,38.0800,71,97,499776
1.7009,0.4936,38.1100,71,97,499779
1.7302,0.4839,37.8300,71,97,499782
1.6911,0.4888,37.3100,71,97,499786
1.6911,0.4888,38.1100,71,97,499789
1.7009,0.4888,38.0500,71,97,499792
1.7009,0.4888,38.1500,71,97,499796
1.7546,0.5034,37.8000,71,97,499800
1.7204,0.4888,38.0200,71,97,499803
1.7253,0.4643,38.0500,71,97,499807
1.7351,0.4888,38.1100,71,97,499810
1.7302,0.4888,38.0800,71,97,499813
1.7889,0.5230,37.9000,71,97,499816
1.7498,0.4985,38.0500,71,97,499820
1.7498,0.4888,37.9900,71,97,499823
1.7546,0.4888,38.1800,71,97,499826
1.7644,0.4888,38.1100,71,97,499830
1.7937,0.4985,37.8700,71,97,499833
1.7595,0.4888,38.0500,71,97,499836
1.7791,0.4936,37.9000,71,97,499841
1.7791,0.4936,38.0800,71,97,499844
1.8182,0.4888,38.0800,71,97,499847
1.8866,0.4936,38.0200,71,97,499850
1.9795,0.4888,38.0800,71,97,499854
2.1505,0.4985,37.9900,71,97,499857
2.3803,0.4888,38.1100,71,97,499860
2.7468,0.4936,38.0800,71,97,499864
3.1769,0.4936,38.0200,71,97,499867
3.5142,0.4888,38.0800,71,97,499870
3.8074,0.4888,37.1600,71,97,499874
3.9003,0.4888,38.0800,71,97,499877
3.8563,0.4643,38.1100,71,97,499880
3.6510,0.4985,38.0500,71,97,499884
3.2600,0.4839,38.1100,71,97,499888
2.8837,0.4985,37.8700,71,97,499891
2.3705,0.4985,37.9900,71,97,499894
1.9355,0.4888,38.0800,71,97,499898
1.6373,0.4936,38.2400,71,97,499901
1.4565,0.4888,38.0800,71,97,499904
1.4370,0.4985,37.7700,71,97,499908
1.3783,0.4888,38.0500,71,97,499911
1.3978,0.4888,38.0800,71,97,499914
1.4125,0.4643,38.1100,71,97,499917
1.4223,0.4888,38.0800,71,97,499921
1.4761,0.5083,37.8300,71,97,499924
1.4565,0.4936,38.1100,71,97,499928
1.5054,0.4888,38.0200,71,97,499932
1.4907,0.4888,38.0800,71,97,499935
1.5005,0.4888,38.0800,71,97,499938
1.5738,0.4839,37.9300,71,97,499942
1.5347,0.4936,38.0800,71,97,499945
1.5494,0.4936,37.9900,71,97,499948
1.5396,0.4888,38.0800,71,97,499952
1.5591,0.4888,38.1500,71,97,499955
1.6031,0.4839,37.9300,71,97,499958
1.5982,0.4888,38.0800,71,97,499961
1.6471,0.4888,37.9900,71,97,499965
1.6422,0.4888,38.1100,71,97,499969
1.6471,0.4888,38.1500,71,97,499972
1.6862,0.4839,38.0200,71,97,499976
1.6471,0.4888,38.0800,71,97,499979
1.6813,0.4888,37.9600,71,97,499982
1.6911,0.4888,38.0500,71,97,499986
1.6862,0.4888,37.9900,71,97,499989
1.7107,0.5132,38.0200,71,97,499992
1.7400,0.4839,38.0800,71,97,499995
1.7595,0.4936,37.8300,71,97,499999
1.7351,0.5230,38.0800,71,97,500002
1.7595,0.4839,38.0800,71,97,500005
1.7840,0.4936,38.0500,71,97,500009
1.7840,0.4936,38.1500,71,97,500013
1.8475,0.4936,37.8000,71,97,500016
1.8231,0.4643,38.0200,71,97,500020
1.8231,0.4888,38.1100,71,97,500023
1.8426,0.4888,38.0800,71,97,500026
1.8524,0.4839,37.9300,71,97,500029
1.9110,0.5083,37.8000,71,97,500033
1.8768,0.4888,38.0200,71,97,500036
1.8866,0.4839,38.0200,71,97,500039
1.9355,0.4888,38.0800,71,97,500043
1.9159,0.4888,38.1100,71,97,500046
1.9844,0.5034,37.9000,71,97,500049
1.9697,0.4839,38.0500,71,97,500054
1.9844,0.4888,37.9900,71,97,500057
1.9844,0.4888,38.0800,71,97,500060
1.9990,0.4839,38.0800,71,97,500063
2.0577,0.4985,37.9900,71,97,500067
2.0430,0.4888,38.1500,71,97,500070
2.0723,0.4936,37.9600,71,97,500073
2.0577,0.4888,38.0800,71,97,500077
2.0870,0.4888,38.0800,71,97,500080
2.1505,0.4985,37.9300,71,97,500083
2.1261,0.4839,38.0800,71,97,500087
2.1701,0.4985,37.9900,71,97,500090
2.1408,0.4839,38.0500,71,97,500093
2.1457,0.4936,38.0800,71,97,500097
2.1652,0.4936,38.0200,71,97,500101
2.1652,0.4888,38.0800,71,97,500104
2.2141,0.4936,37.9300,71,97,500107
2.1994,0.5034,38.0500,71,97,500111
2.2287,0.4888,38.1100,71,97,500114
2.2385,0.4643,38.0500,71,97,500117
2.2385,0.4888,38.0800,71,97,500121
2.2874,0.5230,37.8700,71,97,500124
2.2287,0.4839,38.0800,71,97,500127
2.2043,0.4888,38.1100,71,97,500130
2.1848,0.4936,38.0500,71,97,500134
2.1261,0.4888,38.0800,71,97,500137
2.1408,0.4985,37.7700,71,97,500141
2.0528,0.4839,38.0200,71,97,500145
1.9746,0.4888,38.0800,71,97,500148
1.9208,0.4936,38.0800,71,97,500151
1.8524,0.4888,38.0800,71,97,500155
1.8524,0.5034,37.9300,71,97,500158
1.7498,0.4936,38.0500,71,97,500161
1.7107,0.4888,37.9900,71,97,500164
1.6569,0.5034,38.1100,71,97,500168
1.6129,0.4888,38.0800,71,97,500171
1.6080,0.5034,37.9300,71,97,500174
1.5347,0.4985,38.0500,71,97,500178
1.5249,0.4936,37.9600,71,97,500182
1.4809,0.4888,38.0800,71,97,500185
1.4712,0.4888,38.1100,71,97,500189
1.4614,0.4985,38.0200,71,97,500192
1.4467,0.4888,37.9900,71,97,500195
1.4565,0.4985,37.9600,71,97,500198
1.4370,0.4888,37.9600,71,97,500202
1.4418,0.4888,38.0800,71,97,500205
1.4565,0.4985,37.9600,71,97,500208
1.4418,0.4936,38.1100,71,97,500212
1.4663,0.4936,37.9300,71,97,500215
1.4565,0.4888,37.9900,71,97,500218
1.5054,0.4936,38.0800,71,97,500222
1.4956,0.4888,38.3600,71,97,500226
1.5054,0.4888,38.0800,71,97,500229
1.5591,0.4985,37.8300,71,97,500233
1.5396,0.4888,38.1100,71,97,500236
1.5738,0.4936,38.0800,71,97,500239
1.5787,0.4936,38.1800,71,97,500242
1.5738,0.4888,38.1100,71,97,500246
1.6129,0.4985,37.8000,71,97,500249
1.5640,0.5034,38.0200,71,97,500252
1.5591,0.4888,38.0800,71,97,500256
1.5640,0.4936,38.0800,71,97,500259
1.5591,0.4839,38.0800,71,97,500262
1.6520,0.5083,37.8700,71,97,500267
1.6080,0.4985,38.0500,71,97,500270
1.6080,0.4839,38.0200,71,97,500273
1.6178,0.4839,38.0800,71,97,500276
1.6276,0.4888,38.0800,71,97,500280
1.6911,0.4985,37.1300,71,97,500283
1.6716,0.4839,38.0800,71,97,500286
1.7009,0.4936,38.0500,71,97,500290
1.6960,0.4888,38.2100,71,97,500293
1.7009,0.4790,38.1100,71,97,500296
1.7302,0.4936,37.9900,71,97,500300
1.7204,0.4888,38.0200,71,97,500303
1.7449,0.5083,37.9300,71,97,500306
1.7302,0.4888,38.0800,71,90,500310
1.7253,0.4888,38.1100,71,90,500315
1.7351,0.5034,38.1800,71,90,500318
1.7595,0.4985,37.9900,71,90,500322
1.7400,0.4936,38.0800,71,90,500325
1.7889,0.4985,37.8000,71,90,500328
1.7693,0.4936,37.9600,71,90,500332
1.7595,0.4888,38.1500,71,90,500335
1.7644,0.4936,38.0500,71,90,500338
1.7595,0.4888,38.1100,71,90,500342
1.8084,0.5279,37.7700,71,90,500345
1.7693,0.4888,38.0500,71,90,500348
1.7693,0.4888,38.0500,71,90,500352
1.7791,0.4985,38.0500,71,90,500356
1.7937,0.4888,38.0800,71,90,500359
1.8475,0.5034,37.8700,71,90,500362
1.7986,0.4985,38.0500,71,90,500366
1.7889,0.4985,37.9600,71,90,500369
1.7546,0.4643,38.1100,71,90,500372
1.7351,0.4888,38.0800,71,90,500376
1.7546,0.4985,37.9900,71,90,500379
1.7302,0.4936,38.1100,71,90,500382
1.7449,0.4936,37.9600,71,90,500385
1.7351,0.5181,38.1100,71,90,500389
1.7449,0.4839,38.1100,71,90,500392
1.7840,0.5181,37.9900,71,90,500396
1.7546,0.4839,38.0800,71,90,500400
1.7937,0.4936,37.9600,71,90,500403
1.7644,0.4888,38.0500,71,90,500406
1.7742,0.4888,38.0800,71,90,500410
1.7889,0.5181,37.9600,71,90,500413
1.7742,0.4888,38.0800,71,90,500416
1.7986,0.4936,37.9300,71,90,500420
1.7937,0.4936,38.0500,71,90,500423
1.7644,0.4888,38.1100,71,90,500426
1.7546,0.4936,38.0500,71,90,500429
1.7498,0.4888,38.0800,71,90,500433
1.7986,0.4936,37.8300,71,90,500436
1.7595,0.4888,38.0800,71,90,500440
1.7742,0.4888,38.0800,71,90,500444
1.7986,0.4936,38.0500,71,90,500447
1.8035,0.4888,38.3300,71,90,500450
1.8768,0.4936,37.7700,71,90,500454
1.8671,0.4936,38.0500,71,90,500457
1.8719,0.5230,38.1100,71,90,500460
1.8768,0.4888,38.0800,71,90,500463
1.8768,0.4888,38.1100,71,90,500467
1.9404,0.5083,37.9300,71,90,500470
1.9062,0.4936,38.0800,71,90,500473
1.9306,0.4888,38.0800,71,90,500477
1.9501,0.4741,38.1100,71,90,500481
1.9648,0.4839,38.0800,71,90,500484
2.0235,0.4985,37.9900,71,90,500488
1.9844,0.4888,38.0800,71,90,500491
1.9892,0.4936,37.9600,71,90,500494
1.9404,0.4888,38.1500,71,90,500497
1.9208,0.4839,38.0800,71,90,500501
1.9159,0.4936,38.0500,71,90,500504
1.8817,0.4888,38.1800,71,90,500507
1.8915,0.5132,37.9600,71,90,500511
1.8328,0.4888,38.0200,71,90,500514
1.8084,0.4985,38.0800,71,90,500517
1.7986,0.4985,37.9900,71,90,500521
1.7351,0.4888,38.0800,71,90,500525
1.7253,0.4936,37.9300,71,90,500528
1.7009,0.4936,38.0500,71,90,500532
1.6862,0.4985,38.1100,71,90,500535
1.6911,0.4936,38.0200,71,90,500538
1.6716,0.4888,38.0800,71,90,500541
1.7009,0.4839,37.8300,71,90,500545
1.6764,0.4936,38.0200,71,90,500548
1.6716,0.4839,38.1100,71,90,500551
1.6862,0.4888,38.0500,71,90,500555
1.6764,0.4888,38.0200,71,90,500558
1.7204,0.4936,37.8000,71,90,500561
1.6813,0.4888,38.2700,71,90,500566
1.6862,0.4839,38.0800,71,90,500569
1.6960,0.4888,38.0500,71,90,500572
1.6960,0.4985,38.0800,71,90,500575
1.7546,0.5083,37.8700,71,90,500579
1.7302,0.4936,38.0500,71,90,500582
1.7253,0.4888,38.0500,71,90,500585
1.7253,0.4888,38.1100,71,90,500589
1.7204,0.4888,38.1100,71,90,500592
1.7644,0.4985,37.8700,71,90,500595
1.7351,0.4888,38.0800,71,90,500599
1.7498,0.4936,38.0200,71,90,500602
1.7351,0.4936,38.0800,71,90,500605
1.7644,0.4888,38.1100,71,90,500609
1.8280,0.4985,37.9300,71,90,500613
1.8573,0.4936,38.0800,71,90,500616
1.9550,0.4985,37.9600,71,90,500619
2.0283,0.4888,38.1500,71,90,500623
2.2043,0.4888,38.0800,71,90,500626
2.4927,0.4888,38.0200,71,90,500629
2.8250,0.4888,38.0800,71,90,500633
3.2356,0.4936,37.9600,71,90,500636
3.4751,0.4839,38.0800,71,90,500639
3.6266,0.4888,38.1800,71,90,500642
3.6950,0.4985,37.9900,71,90,500646
3.5386,0.4888,38.1800,71,90,500649
3.3382,0.5181,37.8300,71,90,500653
2.9570,0.4936,37.9900,71,90,500657
2.5367,0.4888,38.1100,71,90,500660
2.1505,0.4936,38.0500,71,90,500663
1.7889,0.4888,38.0800,71,90,500667
1.5640,0.4985,37.9600,71,90,500670
1.3734,0.4888,38.0200,71,90,500673
1.3001,0.4839,38.1100,71,90,500676
1.2854,0.4888,38.0800,71,90,500680
1.2952,0.4936,38.1800,71,90,500683
1.3636,0.5034,37.8000,71,90,500686
1.3685,0.5083,38.1100,71,90,500690
1.4125,0.4888,38.0500,71,90,500694
1.4565,0.4643,38.0800,71,90,500697
1.4809,0.4790,38.1100,71,90,500701
1.5494,0.5034,37.9300,71,90,500704
1.5249,0.4936,37.9600,71,90,500707
1.5347,0.5181,37.9900,71,90,500710
1.5249,0.4888,38.0800,71,90,500714
1.5347,0.4888,38.1100,71,90,500717
1.6129,0.4839,37.9000,71,90,500720
1.5640,0.4888,37.9600,71,90,500724
1.6031,0.4985,37.9300,71,90,500727
1.5982,0.4888,38.0800,71,90,500730
1.6227,0.4888,38.1100,71,90,500734
1.6569,0.4985,37.9900,71,90,500738
1.6520,0.4888,38.0800,71,90,500741
1.6960,0.4936,37.9600,71,90,500745
1.6764,0.4936,38.1100,71,90,500748
1.6862,0.4888,38.1100,71,90,500751
1.7058,0.5132,38.0200,71,90,500754
1.7107,0.4839,38.0800,71,90,500758
1.7546,0.4936,37.9000,71,90,500761
1.7791,0.4839,38.1100,71,90,500764
1.7791,0.4643,38.0800,71,90,500768
1.7986,0.4985,38.0500,71,90,500771
1.7791,0.4888,38.0800,71,90,500774
1.8231,0.4985,37.8000,71,90,500779
1.7937,0.4985,38.0500,71,90,500782
1.7889,0.4839,38.0800,71,90,500785
1.7986,0.4936,38.2100,71,90,500788
1.7986,0.4936,38.0800,71,90,500792
1.8622,0.5034,37.8000,71,90,500795
1.8280,0.5034,37.9600,71,90,500798
1.8377,0.4888,38.1100,71,90,500802
1.8622,0.4888,38.1100,71,90,500805
1.8817,0.5230,38.0800,71,90,500808
1.9648,0.5083,37.9000,71,90,500812
1.9257,0.4936,38.0800,71,90,500815
1.9453,0.4888,38.0500,71,90,500818
1.9453,0.4936,38.1100,71,90,500822
1.9550,0.4888,38.1800,71,90,500826
1.9892,0.4936,37.9900,71,90,500829
1.9746,0.4936,38.0800,71,90,500832
2.0039,0.4936,37.9300,71,90,500836
2.0332,0.4839,38.1100,71,90,500839
2.0283,0.4643,38.1100,71,90,500842
2.0821,0.4985,37.9300,71,90,500846
2.0821,0.4888,38.0800,71,90,500849
2.1212,0.4985,37.9900,71,90,500852
2.0919,0.4839,38.0500,71,90,500855
2.0919,0.4936,38.0800,71,90,500859
2.1163,0.4936,38.0200,71,90,500862
2.1065,0.4888,38.1800,71,90,500866
2.1505,0.4936,37.9000,71,90,500870
2.1359,0.4839,38.0500,71,90,500873
2.1457,0.4839,38.1100,71,90,500876
2.1554,0.4888,38.0200,71,90,500880
2.1457,0.4839,38.0800,71,90,500883
2.1945,0.4985,37.8300,71,90,500886
2.1554,0.4839,38.0800,71,90,500889
2.1848,0.4888,38.1500,71,90,500893
2.1554,0.4936,37.2800,71,90,500896
2.1408,0.4888,38.1100,71,90,500899
2.1505,0.4985,37.8700,71,90,500903
2.0821,0.5230,38.0200,71,90,500907
2.0235,0.4936,38.0800,71,90,500910
1.9795,0.4888,38.1100,71,90,500914
1.9306,0.4936,38.0800,71,90,500917
1.9550,0.5083,37.8300,72,97,500920
1.6764,0.4936,38.0200,72,97,500925
1.6129,0.4888,38.0500,72,97,500928
1.6031,0.4985,37.9300,72,97,500931
1.5494,0.4888,38.1100,72,97,500935
1.5249,0.4790,38.1800,72,97,500938
1.5103,0.4888,38.0500,72,97,500941
1.4858,0.4888,38.1100,72,97,500945
1.4956,0.5083,37.9300,72,97,500948
1.4614,0.4888,38.0800,72,97,500952
1.4663,0.4839,38.0800,72,97,500956
1.4907,0.4936,37.9900,72,97,500959
1.4809,0.4888,38.0500,72,97,500962
1.5200,0.4985,37.9000,72,97,500966
1.5200,0.4839,37.9900,72,97,500969
1.5249,0.4888,38.1100,72,97,500972
1.5591,0.4888,38.0200,72,97,500975
1.5347,0.4888,38.1100,72,97,500979
1.5738,0.4985,37.8000,72,97,500982
1.5445,0.4888,38.0500,72,97,500985
1.5396,0.4888,38.1100,72,97,500989
1.5494,0.5181,38.0800,72,97,500993
1.5591,0.4839,38.0800,72,97,500996
1.6227,0.5034,37.9000,72,97,501000
1.6080,0.4936,38.0500,72,97,501003
1.6080,0.4839,38.0500,72,97,501006
1.6129,0.4936,38.0500,72,97,501009
1.6129,0.4839,38.1100,72,97,501013
1.6764,0.5083,37.9000,72,97,501016
1.6667,0.4936,38.0800,72,97,501019
1.6911,0.5034,37.9600,72,97,501023
1.7009,0.4888,38.1100,72,97,501026
1.7009,0.4888,38.0800,72,97,501029
1.7351,0.5034,37.9000,72,97,501033
1.6960,0.4888,38.0800,72,97,501037
1.7009,0.4936,38.0200,72,97,501040
1.6813,0.5034,38.1800,72,97,501043
1.6960,0.4888,38.1100,72,97,501047
1.7155,0.4985,37.9600,72,97,501050
1.7058,0.4936,38.0800,72,97,501053
1.7400,0.4985,37.9900,72,97,501057
1.7155,0.4888,38.1500,72,97,501060
1.7155,0.4839,38.1100,72,97,501063
1.7351,0.4888,37.9900,72,97,501067
1.7400,0.4936,38.0800,72,97,501070
1.7791,0.4936,37.9000,72,97,501073
1.7644,0.4936,38.1800,72,97,501076
1.7791,0.4888,38.1100,72,97,501081
1.7986,0.4936,38.0200,72,97,501084
1.7791,0.4888,38.1100,72,97,501087
1.8182,0.4985,37.8300,72,97,501091
1.7937,0.5279,37.9900,72,97,501094
1.7791,0.4888,38.1100,72,97,501097
1.7742,0.4936,38.0500,72,97,501101
1.7546,0.4888,38.1100,72,97,501104
1.8035,0.5034,37.8000,72,97,501107
1.7449,0.4643,38.0200,72,97,501111
1.7449,0.4839,38.1100,72,97,501114
1.7693,0.4888,38.0800,72,97,501117
1.7546,0.4643,38.1100,72,97,501121
1.8133,0.5034,37.9000,72,97,501125
1.7742,0.4888,38.0800,72,97,501128
1.7791,0.4888,37.9900,72,97,501131
1.7693,0.4936,38.1100,72,97,501135
1.7595,0.4888,38.1100,72,97,501138
1.7840,0.4985,37.9900,72,97,501141
1.7644,0.4888,38.0500,72,97,501145
1.7840,0.4936,37.9900,72,97,501148
1.7644,0.4839,38.1100,72,97,501151
1.7644,0.4888,38.2100,72,97,501154
1.8084,0.4985,37.9300,72,97,501158
1.7498,0.4888,38.0800,72,97,501161
1.7742,0.4985,37.9600,72,97,501165
1.7449,0.4839,38.0200,72,97,501169
1.7546,0.4888,38.0800,72,97,501172
1.7791,0.4936,38.0200,72,97,501175
1.7644,0.4888,38.2100,72,97,501179
1.7889,0.4985,37.8700,72,97,501182
1.7644,0.4888,38.0200,72,97,501185
1.7644,0.4888,38.1100,72,97,501189
1.7742,0.4985,38.0500,72,97,501192
1.7693,0.4888,38.1100,72,97,501195
1.8182,0.4985,37.8700,72,97,501198
1.7889,0.4888,38.1500,72,97,501202
1.7986,0.4936,38.1100,72,97,501206
1.8133,0.4936,38.0500,72,97,501209
1.8035,0.4936,38.0800,72,97,501213
1.8768,0.5034,37.8000,72,97,501216
1.8573,0.4936,38.0500,72,97,501219
1.8671,0.4839,38.0800,72,97,501223
1.8866,0.4888,38.1100,72,97,501226
1.8866,0.4888,38.1500,72,97,501229
1.9404,0.4839,37.9000,72,97,501233
1.9062,0.4888,38.0500,72,97,501236
1.9355,0.4839,37.9900,72,97,501239
1.9501,0.4888,38.0800,72,97,501242
1.9795,0.4888,38.1800,72,97,501246
2.0235,0.5181,37.9600,72,97,501250
1.9844,0.4888,38.1100,72,97,501253
1.9795,0.4936,37.9600,72,97,501257
1.9257,0.4839,38.0800,72,97,501260
1.8915,0.4888,38.1500,72,97,501263
1.8768,0.4888,38.0500,72,97,501267
1.8426,0.4888,38.0800,72,97,501270
1.8573,0.4888,38.0200,72,97,501273
1.8280,0.4839,38.1100,72,97,501276
1.8377,0.4888,38.1500,72,97,501280
1.8573,0.4936,37.9900,72,97,501283
1.8084,0.4888,38.2100,72,97,501286
1.8035,0.5034,37.8700,72,97,501291
1.7449,0.4936,38.0200,72,97,501294
1.7155,0.4888,38.2100,72,97,501297
1.7155,0.4936,38.0500,72,97,501301
1.6960,0.4888,38.3300,72,97,501304
1.7302,0.5279,37.8300,72,97,501307
1.6813,0.4888,37.6200,72,97,501311
1.6716,0.4839,38.1100,72,97,501314
1.6667,0.4888,38.0800,72,97,501317
1.6667,0.4888,38.0500,72,97,501320
1.7302,0.5034,37.8000,72,97,501324
1.7009,0.4839,38.0800,72,97,501327
1.7058,0.4888,38.0500,72,97,501330
1.7058,0.4839,37.3700,72,97,501335
1.7107,0.4839,38.1100,72,97,501338
1.7546,0.5034,37.5900,72,97,501341
1.7204,0.4936,38.0800,72,97,501345
1.7302,0.4985,37.9900,72,97,501348
1.7204,0.4888,38.1100,72,97,501351
1.7253,0.4888,38.0800,72,97,501354
1.7595,0.4985,37.9600,72,97,501358
1.7204,0.4888,38.0800,72,97,501361
1.7351,0.4936,37.9300,72,97,501364
1.7204,0.4839,38.1100,72,97,501368
1.7253,0.4839,38.1100,72,97,501371
1.7644,0.4936,38.0200,72,97,501374
1.7644,0.4888,38.1100,72,97,501379
1.8328,0.4888,37.9900,72,97,501382
1.8622,0.4888,38.0500,72,97,501385
1.9844,0.4888,38.1100,72,97,501389
2.2190,0.5132,38.0200,72,97,501392
2.5269,0.4936,38.1100,72,97,501395
2.9765,0.4936,37.9000,72,97,501398
3.3236,0.4936,38.0800,72,97,501402
3.6364,0.4888,38.1100,72,97,501405
3.8416,0.4936,38.0200,72,97,501408
3.8661,0.4888,38.1500,72,97,501412
3.7928,0.4985,37.8700,72,97,501415
3.4115,0.4839,38.0200,72,97,501419
2.9814,0.4888,38.1100,72,97,501423
2.5318,0.4936,38.0800,72,97,501426
2.0870,0.4888,38.1500,72,97,501429
1.7840,0.5083,37.8300,72,97,501432
1.5054,0.4985,38.0500,72,97,501436
1.4027,0.4839,38.0500,72,97,501439
1.3441,0.4888,38.1800,72,97,501442
1.3441,0.4936,38.1100,72,97,501446
1.4076,0.5083,37.9300,72,97,501449
1.4076,0.5034,38.1100,72,97,501452
1.4809,0.4888,38.0200,72,97,501456
1.4516,0.4888,38.1100,72,97,501459
1.4663,0.4839,38.1100,72,97,501463
1.5005,0.4985,38.0200,72,97,501467
1.5005,0.4888,38.1500,72,97,501470
1.5396,0.5132,37.9300,72,97,501473
1.5347,0.4888,37.9300,72,97,501476
1.5543,0.4936,38.0800,72,97,501480
1.5934,0.4985,37.9600,72,97,501483
1.5787,0.4888,38.0800,72,97,501486
1.6227,0.4888,37.9300,72,97,501490
1.6080,0.4888,37.9900,72,97,501493
1.6178,0.4888,38.1100,72,97,501496
1.6373,0.4936,37.7400,72,97,501500
1.6325,0.4888,38.0800,72,97,501504
1.6764,0.4936,37.8700,72,97,501507
1.6618,0.5181,38.1100,72,97,501511
1.6813,0.4839,38.1100,72,97,501514
1.7058,0.4936,38.0800,72,97,501517
1.7107,0.4936,38.1100,72,97,501520
1.7644,0.4985,37.8300,72,97,501524
1.7302,0.5181,38.0800,72,97,501527
1.7742,0.4839,38.1100,72,97,501530
1.7546,0.4888,38.0800,73,97,501534
1.8133,0.4888,38.0800,73,97,501538
1.8475,0.4888,38.1100,73,97,501542
1.8768,0.4985,37.9300,73,97,501545
1.8622,0.4936,38.0800,73,97,501549
1.9013,0.4936,37.9300,73,97,501553
1.8915,0.4888,38.1500,73,97,501556
1.9110,0.4888,38.1100,73,97,501559
1.9404,0.4936,37.8300,73,97,501563
1.9208,0.4888,38.1800,73,97,501566
1.9599,0.4888,37.9600,73,97,501569
1.9355,0.4839,38.0800,73,97,501572
1.9599,0.4839,38.0800,73,97,501576
1.9892,0.4888,38.0200,73,97,501579
2.0039,0.4888,38.1100,73,97,501582
2.0626,0.4985,37.9000,73,97,501586
2.0479,0.4643,38.1100,73,97,501590
2.0723,0.4888,38.1100,73,97,501593
2.0968,0.4839,38.0500,73,97,501597
2.0968,0.4888,38.1100,73,97,501600
2.1652,0.4985,37.8700,73,97,501603
2.1603,0.4985,38.0200,73,97,501606
2.1603,0.4839,38.1100,73,97,501610
2.1848,0.4888,38.0800,73,97,501613
2.1799,0.4888,38.1100,73,97,501616
2.2581,0.5034,37.7700,73,97,501620
2.2092,0.4888,38.0500,73,97,501623
2.2092,0.4839,38.0500,73,97,501626
2.2092,0.4888,38.1100,73,97,501630
2.2092,0.4936,38.0800,73,97,501634
2.2678,0.5083,37.9000,73,97,501637
2.2239,0.4936,38.0800,73,97,501640
2.2239,0.4888,38.0200,73,97,501644
2.2336,0.4888,38.0800,73,97,501647
2.1896,0.4643,38.0800,73,97,501650
2.1945,0.5083,37.9900,73,97,501654
2.1212,0.4839,38.0800,73,97,501657
2.0968,0.4936,37.9600,73,97,501660
2.0283,0.5034,38.0800,73,97,501663
1.9941,0.4888,38.1800,73,97,501667
1.9844,0.4985,37.9300,73,97,501670
1.8964,0.4888,38.0800,73,97,501673
1.8671,0.4985,37.9900,73,97,501678
1.7644,0.4839,38.0500,73,97,501681
1.7009,0.4790,38.0800,73,97,501684
1.6667,0.4985,38.0200,73,97,501688
1.5885,0.4643,38.0800,73,97,501691
1.5689,0.5083,37.9000,73,97,501694
1.5103,0.4888,38.0800,73,97,501697
1.4907,0.4888,38.0800,73,97,501701
1.4858,0.4888,37.9000,73,97,501704
1.4663,0.4888,38.1100,73,97,501707
1.4956,0.4936,37.8300,73,97,501711
1.4663,0.4888,38.1100,73,97,501714
1.4712,0.4888,38.1100,73,97,501718
1.4809,0.4985,38.0500,73,97,501722
1.4614,0.4839,38.1100,73,97,501725
1.4907,0.4985,37.7700,73,97,501728
1.4614,0.4936,37.9900,73,97,501731
1.4516,0.4888,38.1500,73,97,501735
1.4761,0.4888,38.0800,73,97,501738
1.4809,0.4888,38.1100,73,97,501741
1.5396,0.5181,37.8700,73,97,501745
1.5103,0.4936,38.0500,73,97,501748
1.5152,0.4888,37.2500,73,97,501751
1.5152,0.4888,38.0800,73,97,501755
1.5249,0.4888,38.1100,73,97,501758
1.5738,0.4985,37.9600,73,97,501762
1.5640,0.4888,38.0500,73,97,501766
1.6031,0.4936,37.9900,73,97,501769
1.5982,0.4888,38.0800,73,97,501772
1.6080,0.4888,38.1100,73,97,501775
1.6325,0.4936,38.0500,73,97,501779
1.6178,0.4888,38.1100,73,97,501782
1.6422,0.4936,37.9600,73,97,501785
1.6373,0.4790,38.1100,73,97,501789
1.6569,0.4888,38.1100,73,97,501792
1.7009,0.4936,37.9000,73,97,501795
1.6911,0.4839,38.0800,73,97,501799
1.7058,0.4936,37.9300,73,97,501803
1.6911,0.4839,38.0200,73,97,501806
1.7204,0.4888,38.1100,73,97,501810
1.7009,0.4936,37.9900,73,97,501813
1.6862,0.4985,38.1100,73,97,501816
1.7253,0.4936,37.8700,73,97,501819
1.6960,0.5181,38.0800,73,97,501823
1.7009,0.4888,38.1800,73,97,501826
1.7058,0.4936,38.0800,73,97,501829
1.7107,0.4888,38.0800,73,97,501833
1.7595,0.5083,37.8300,73,97,501836
1.7253,0.4888,38.0800,73,97,501839
1.7400,0.4839,38.5500,73,97,501843
1.7595,0.4936,38.0500,73,97,501847
1.7693,0.4888,38.1100,73,97,501850
1.8328,0.5425,37.9000,73,97,501853
1.8084,0.4936,38.0500,73,97,501857
1.8035,0.4888,37.9900,73,97,501860
1.8035,0.4839,38.0800,73,97,501863
1.8035,0.4839,38.1100,73,97,501867
1.8377,0.4985,37.8700,73,97,501870
1.7840,0.4888,38.0800,73,97,501873
1.7889,0.4888,38.0200,73,97,501877
1.7693,0.4790,38.0800,73,97,501880
1.7693,0.4888,38.1100,73,97,501883
1.7986,0.4985,37.9600,73,97,501886
1.7742,0.4839,38.1100,73,97,501891
1.7986,0.4936,37.9600,73,97,501894
1.7693,0.4888,38.1500,73,97,501897
1.7546,0.4888,38.1100,73,97,501901
1.7693,0.5034,38.0500,73,97,501904
1.7840,0.4839,38.1100,73,97,501907
1.7742,0.4888,37.9600,73,97,501911
1.7595,0.4839,38.1100,73,97,501914
1.7693,0.4888,38.2400,73,97,501917
1.7889,0.4985,37.9900,73,97,501921
1.7595,0.4888,38.3300,73,97,501924
1.7889,0.4985,37.8700,73,97,501927
1.7644,0.4936,37.9900,73,97,501931
1.7595,0.4888,38.0800,73,97,501935
1.7791,0.4936,38.0500,73,97,501938
1.7546,0.4888,38.1800,73,97,501941
1.8084,0.4985,37.8000,73,97,501945
1.7742,0.4643,38.0500,73,97,501948
1.7742,0.4839,38.0800,73,97,501951
1.7840,0.4985,38.0800,73,97,501955
1.7840,0.4839,38.1100,73,97,501958
1.8426,0.5083,37.8700,73,97,501961
1.8035,0.4888,38.0800,73,97,501964
1.8231,0.4888,38.0200,73,97,501968
1.8182,0.4888,38.2400,73,97,501971
1.8084,0.4839,38.1100,73,97,501975
1.8426,0.5034,37.9300,73,97,501979
1.8035,0.4888,38.0800,73,97,501982
1.7889,0.4888,37.9900,73,97,501985
1.7742,0.5132,38.1800,73,97,501989
1.7742,0.4888,38.0800,73,97,501992
1.8182,0.4985,37.9000,73,97,501995
1.7937,0.4888,38.1500,73,97,501999
1.8182,0.4985,38.0500,73,97,502002
1.8035,0.4888,38.0800,73,97,502005
1.7889,0.4888,38.1100,73,97,502008
1.8377,0.4936,38.0200,73,97,502012
1.8377,0.4888,38.0800,73,97,502016
1.8866,0.4839,37.9600,73,97,502019
1.8817,0.4888,38.0200,73,97,502023
1.9257,0.4839,38.1100,73,97,502026
1.9159,0.4888,38.0200,73,97,502029
1.8964,0.4888,38.1100,73,97,502033
1.9355,0.4985,37.9300,73,97,502036
1.9110,0.4888,38.0800,73,97,502039
1.9355,0.4888,38.1100,73,97,502042
1.9795,0.4936,38.1800,73,97,502046
1.9844,0.4936,38.1100,73,97,502049
2.0528,0.4985,37.9000,73,97,502052
2.0088,0.4888,37.9900,73,97,502056
1.9697,0.4888,38.1800,73,97,502060
1.9453,0.4888,38.1500,73,97,502063
1.9110,0.4985,38.1100,73,97,502067
1.9550,0.5034,37.8300,73,97,502070
1.8915,0.5279,38.0500,73,97,502073
1.9013,0.4888,38.0500,73,97,502077
1.8719,0.4888,38.1100,73,97,502080
1.8622,0.4888,38.1100,73,97,502083
1.8817,0.5034,37.9600,73,97,502086
1.8231,0.4888,38.2100,73,97,502090
1.8084,0.5181,38.0500,73,97,502093
1.7595,0.4888,38.1100,73,97,502096
1.7449,0.4888,38.1100,73,97,502100
1.7546,0.4936,38.0500,73,97,502104
1.7351,0.4888,38.1500,73,97,502107
1.7498,0.4936,37.9900,73,97,502111
1.7253,0.4888,38.3300,73,97,502114
1.7302,0.4888,38.1800,73,97,502117
1.7595,0.4936,37.9900,73,97,502120
1.7302,0.4985,38.1100,73,97,502124
1.7400,0.4936,37.9300,73,97,502127
1.7253,0.4888,38.0200,73,97,502130
1.7155,0.5083,38.1100,73,97,502134
1.7253,0.4936,37.9900,73,97,502137
1.7204,0.4888,38.1100,73,97,502140
1.7840,0.4839,37.8700,73,97,502145
1.7937,0.5034,37.8300,73,97,502149
1.7498,0.5230,38.0500,73,97,502153
1.7840,0.4888,38.0500,73,97,502156
1.7351,0.4888,38.0800,73,97,502159
1.7400,0.4888,38.1800,73,97,502163
1.7986,0.5034,37.9900,73,97,502166
1.7937,0.4936,37.9900,73,97,502169
1.8671,0.5181,37.9900,73,97,502172
1.9453,0.4888,38.2700,73,97,502176
2.1359,0.4888,38.1100,73,97,502179
2.4194,0.4985,37.9300,73,97,502182
2.7273,0.4888,38.0800,73,97,502187
3.1672,0.4985,37.9900,73,97,502190
3.4995,0.4936,38.3300,73,97,502193
3.7732,0.4936,38.1800,73,97,502197
3.9834,0.4936,38.0800,73,97,502200
3.9345,0.4888,38.1100,73,97,502203
3.7586,0.4888,37.9600,73,97,502207
3.3480,0.4888,38.1500,73,97,502210
2.9081,0.4888,38.1100,73,97,502213
2.4585,0.4888,38.0500,73,97,502216
2.0039,0.4888,38.1500,73,97,502220
1.7009,0.4936,37.8300,73,97,502223
1.4663,0.4839,38.1100,73,97,502226
1.3881,0.4888,38.2400,73,97,502231
1.3783,0.4839,38.0500,73,97,502234
1.3783,0.4888,38.1800,73,97,502237
1.4418,0.5083,37.8300,73,97,502241
1.4467,0.4936,38.0200,73,97,502244
1.4614,0.4888,38.1500,73,97,502247
1.4858,0.4888,38.1100,73,97,502250
1.4907,0.4888,38.0200,73,97,502254
1.5396,0.5132,37.8700,73,97,502257
1.5005,0.4936,37.9600,73,97,502260
1.5054,0.4888,37.9900,73,97,502264
1.5152,0.4888,38.1100,73,97,502267
1.5249,0.4888,38.1100,73,97,502270
1.5738,0.4985,37.9300,73,97,502275
1.5591,0.4888,38.0500,73,97,502278
1.5982,0.5132,37.9900,73,97,502281
1.6031,0.4888,38.1100,73,97,502285
1.6373,0.4936,38.1100,73,97,502288
1.6422,0.4936,38.0500,73,97,502291
1.6325,0.4888,38.0500,73,97,502294
1.6618,0.4888,37.9600,73,97,502298
1.6520,0.4888,38.1100,73,97,502301
1.6764,0.5132,38.1100,73,97,502304
1.7302,0.4985,37.9900,73,97,502308
1.7155,0.5132,38.1100,73,97,502311
1.7498,0.4936,37.9300,73,97,502315
1.7351,0.4888,38.0200,73,97,502319
1.7204,0.4839,38.0800,73,97,502322
1.7449,0.4936,38.0800,73,97,502325
1.7449,0.4888,38.1500,73,97,502329
1.8035,0.4985,37.8700,73,97,502332
1.7986,0.4936,38.0800,73,97,502335
1.8133,0.4936,38.1100,73,97,502338
1.8328,0.4936,38.0800,73,97,502342
1.8280,0.4888,38.0800,73,97,502345
1.8817,0.4936,37.8000,73,97,502348
1.8475,0.4888,38.0800,73,97,502352
1.8622,0.4839,38.1500,73,97,502355
1.9013,0.4936,38.0800,73,97,502359
1.8915,0.4888,38.0800,73,97,502363
1.9697,0.5132,37.8700,73,97,502366
1.9404,0.4936,38.0500,73,97,502369
1.9501,0.4888,38.0200,73,97,502372
1.9648,0.4888,38.0800,73,97,502376
1.9746,0.4888,38.1100,73,97,502379
2.0283,0.4985,37.8700,73,97,502382
2.0039,0.4888,38.0800,73,97,502386
2.0430,0.4839,37.9600,73,97,502389
2.0430,0.4888,38.1100,73,97,502392
2.0626,0.4839,38.0800,73,97,502396
2.1261,0.4839,37.9900,73,97,502400
2.1212,0.4888,38.0500,73,97,502403
2.1701,0.4888,37.9600,73,97,502406
2.1603,0.4888,38.1100,73,97,502410
2.1750,0.4888,38.1800,73,97,502413
2.1994,0.4888,38.0500,73,97,502416
2.1994,0.4888,38.1100,73,97,502420
2.2483,0.4888,37.9900,73,97,502423
2.2190,0.4888,38.0800,73,97,502426
2.2385,0.4888,38.1100,73,97,502430
2.2630,0.4936,37.9300,73,97,502433
2.2385,0.4888,38.1100,73,97,502436
2.2727,0.4936,38.0200,73,97,502439
2.2434,0.4888,37.9900,73,97,502444
2.2287,0.4888,38.1100,73,97,502447
2.2385,0.4936,38.0500,73,97,502450
2.1994,0.4888,38.1100,73,97,502454
2.2239,0.4985,37.8000,73,97,502457
2.1310,0.4839,38.0500,73,97,502460
2.0821,0.4888,38.1100,73,97,502464
2.0332,0.4936,38.1100,73,97,502467
2.0137,0.4888,38.1100,73,97,502470
1.9892,0.5034,37.8300,73,97,502473
1.8768,0.4985,38.0500,73,97,502477
1.8084,0.4790,38.0500,73,97,502480
1.7449,0.4888,38.1500,73,97,502483
1.6911,0.4888,38.1500,73,97,502488
1.6764,0.5034,37.9900,73,97,502491
1.6031,0.5034,38.0500,73,97,502494
1.6031,0.4985,37.9900,73,97,502498
1.5347,0.4936,38.0800,73,97,502501
1.5200,0.4888,38.1100,73,97,502504
1.5200,0.4985,37.9600,73,97,502508
1.4809,0.4888,38.1100,73,97,502511
1.4858,0.4936,37.9900,73,97,502514
1.4467,0.4888,38.0500,73,97,502517
1.4418,0.4936,38.1100,73,97,502521
1.4614,0.4936,38.0200,73,97,502524
1.4467,0.4888,38.2400,73,97,502528
1.4761,0.4985,37.9600,73,97,502532
1.4516,0.4839,38.0800,73,97,502535
1.4614,0.4936,38.1100,73,97,502538
1.4712,0.4936,38.0500,73,97,502542
1.4712,0.4888,38.1500,73,97,502545
1.5005,0.4888,37.9300,73,97,502548
1.4809,0.4643,38.1100,73,97,502551
1.4907,0.4888,38.3000,73,97,502555
1.5152,0.4985,38.0500,73,97,502558
1.5054,0.4888,38.1800,73,97,502561
1.5591,0.5279,37.8000,73,97,502565
1.5543,0.4936,38.0200,73,97,502568
1.5640,0.4888,38.1100,73,97,502572
1.5836,0.4839,38.0800,73,97,502576
1.5934,0.4888,38.1500,73,97,502579
1.6520,0.5181,37.8700,73,97,502582
1.6178,0.4936,38.0200,73,97,502586
1.6227,0.4888,38.0800,73,97,502589
1.6276,0.4839,38.2400,73,97,502592
1.6422,0.4643,38.0800,73,97,502595
1.7009,0.5132,37.9300,73,97,502599
1.6862,0.4888,38.1100,73,97,502602
1.7107,0.4888,38.0200,73,97,502605
1.7058,0.4839,38.1100,73,97,502609
1.7107,0.4888,38.1100,73,97,502612
1.7253,0.4839,38.0800,73,97,502616
1.7058,0.4888,38.1100,73,97,502620
1.7253,0.4936,37.9300,73,97,502623
1.7058,0.4643,38.1100,73,97,502626
1.7107,0.4888,38.3000,73,97,502629
1.7449,0.5034,37.9600,73,97,502633
1.7253,0.4888,37.4600,73,97,502636
1.7595,0.5132,37.9600,73,97,502639
1.7351,0.4888,38.0500,73,97,502643
1.7400,0.4888,38.1100,73,97,502646
1.7595,0.4936,37.9900,73,97,502649
1.7546,0.4888,38.1500,73,97,502653
1.7986,0.4985,37.9000,73,97,502657
1.7742,0.4888,38.0500,73,97,502660
1.7742,0.4888,38.1100,73,97,502664
1.8133,0.4888,38.0800,73,97,502667
1.7644,0.4936,38.1100,73,97,502670
1.8084,0.5034,37.7700,73,97,502673
1.7644,0.4888,38.0800,73,97,502677
1.7595,0.4888,38.1100,73,97,502680
1.7644,0.4936,38.1100,73,97,502683
1.7498,0.4839,38.1100,73,97,502687
1.7986,0.5230,37.8700,73,97,502690
1.7595,0.4839,38.0500,73,97,502693
1.7546,0.4839,38.0800,73,97,502697
1.7595,0.4936,38.1100,73,97,502701
1.7644,0.4643,38.1100,73,97,502704
1.8133,0.5132,37.9000,73,97,502707
1.7791,0.4936,38.0800,73,97,502711
1.7840,0.4936,37.9900,73,97,502714
1.7595,0.4888,38.0800,73,97,502717
1.7644,0.4888,38.1500,73,97,502721
1.7840,0.4888,37.9600,73,97,502724
1.7595,0.4839,38.1100,73,97,502727
1.7840,0.4936,37.9900,73,97,502731
1.7595,0.5181,38.1100,73,97,502734
1.7693,0.4888,38.1500,73,97,502737
1.7840,0.4888,38.0500,73,97,502742
1.7840,0.4888,38.1100,73,97,502745
1.7986,0.4936,37.9600,73,97,502748
1.7693,0.4839,38.1100,73,97,502751
1.7644,0.4888,38.1500,73,97,502755
1.7840,0.4985,37.9900,73,97,502758
1.7791,0.4888,38.1100,73,97,502763
1.7889,0.4839,38.1800,73,97,502766
1.8328,0.4985,37.8300,73,97,502769
1.7937,0.4936,38.4000,73,97,502773
1.7937,0.4936,38.0500,73,97,502776
1.7840,0.4888,38.1100,73,97,502779
1.7889,0.4888,38.1100,73,97,502784
1.8328,0.5425,37.9300,73,97,502787
1.7791,0.4936,38.1100,73,97,502790
1.7840,0.4888,37.9900,73,97,502794
1.7644,0.4888,38.0800,73,97,502797
1.7693,0.4839,38.1100,73,97,502800
1.8035,0.4936,38.0500,73,97,502803
1.7889,0.4888,38.0800,73,97,502807
1.8133,0.4936,37.9900,73,97,502810
1.7889,0.4888,38.1100,73,97,502813
1.7937,0.4839,38.1100,73,97,502817
1.8280,0.4985,37.9600,73,97,502820
1.7986,0.4888,38.1500,73,97,502823
1.8231,0.4839,37.9300,73,97,502828
1.7986,0.4888,37.7100,73,97,502831
1.7986,0.4888,38.1100,73,97,502834
1.8133,0.4936,37.9600,73,97,502838
1.8035,0.4888,38.1800,73,97,502841
1.8524,0.4985,37.8700,73,97,502844
1.8377,0.5279,38.0800,73,97,502847
1.8475,0.4888,38.1100,73,97,502851
1.8719,0.4936,38.1500,73,97,502854
1.8964,0.4888,38.1100,73,97,502857
1.9257,0.4985,37.8300,73,97,502861
1.9013,0.4936,38.1100,73,97,502864
1.9110,0.4839,38.0800,73,97,502867
1.9306,0.4888,38.3000,73,97,502872
1.9746,0.4839,38.1100,73,97,502875
2.0381,0.5083,37.9300,73,97,502878
2.0137,0.4936,38.0200,73,97,502881
1.9990,0.4888,38.0200,73,97,502885
1.9795,0.4888,38.1500,73,97,502888
1.9453,0.4888,38.0800,73,97,502891
1.9404,0.4936,37.9300,73,97,502895
1.8719,0.4888,38.1100,73,97,502898
1.8671,0.4839,37.9900,73,97,502901
1.8426,0.4888,38.3300,73,97,502905
1.8377,0.4790,38.0800,73,97,502908
1.8622,0.4985,37.9900,73,97,502912
1.8231,0.4888,38.1100,73,97,502916
1.8377,0.4985,37.9600,73,97,502919
1.7791,0.4888,38.1500,73,97,502922
1.7840,0.4888,38.1100,73,97,502925
1.7595,0.4888,38.0500,73,97,502929
1.7400,0.4888,38.1800,73,97,502932
1.7595,0.4936,37.9300,73,97,502935
1.7155,0.4888,37.4000,73,97,502939
1.7058,0.4839,38.1800,73,97,502942
1.7155,0.4936,38.0800,73,97,502945
1.6911,0.4888,38.1100,73,97,502949
1.7351,0.4985,37.8700,73,97,502952
1.7204,0.5230,38.0200,73,97,502956
1.7155,0.4888,38.1100,73,97,502960
1.7253,0.4936,38.0800,73,97,502963
1.7058,0.4790,38.1100,73,97,502966
1.7498,0.4985,37.8000,73,97,502969
1.7058,0.4888,38.0500,73,97,502973
1.7009,0.4888,38.1100,73,97,502976
1.7107,0.4888,38.0800,73,97,502979
1.7107,0.4888,38.2100,73,97,502983
1.7644,0.5034,37.8700,73,97,502986
1.7302,0.4936,38.0800,73,97,502989
1.7351,0.4888,38.0200,73,97,502993
1.7449,0.4888,38.1100,73,97,502996
1.7498,0.4888,38.1500,73,97,503000
1.7937,0.5034,37.9600,73,97,503003
1.7595,0.4936,38.1800,73,97,503007
1.7742,0.5083,37.9900,73,97,503010
1.7742,0.4888,37.7400,73,97,503013
1.8084,0.4936,38.1800,73,97,503017
1.9013,0.4985,37.9300,73,97,503020
1.9795,0.4936,38.1100,73,97,503023
2.2092,0.4985,37.9900,73,97,503027
2.4633,0.4839,38.0800,73,97,503030
2.8299,0.4839,38.1500,73,97,503033
3.2502,0.4839,38.0200,73,97,503037
3.5191,0.4888,38.2100,73,97,503041
3.7537,0.5132,37.9600,73,97,503044
3.7977,0.4888,38.0800,73,97,503047
3.7195,0.4888,38.2700,73,97,503051
3.4897,0.4936,38.0200,73,97,503054
3.1134,0.4839,38.1100,73,97,503057
2.7517,0.4985,37.2800,73,97,503061
2.2630,0.4888,38.1100,73,97,503064
1.8817,0.4888,38.1100,73,97,503067
1.6080,0.4936,38.1100,73,97,503071
1.4321,0.4888,37.9000,73,97,503074
1.3930,0.5083,37.8300,73,97,503077
1.3490,0.4936,38.0200,73,97,503080
1.3587,0.4839,38.0800,73,97,503085
1.3930,0.5034,38.0800,73,97,503088
1.4370,0.4839,38.0800,73,97,503091
1.5249,0.5034,37.8700,73,97,503095
1.5298,0.4888,38.0500,73,97,503098
1.5738,0.4888,38.0200,73,97,503101
1.5494,0.4888,38.1800,73,97,503105
1.5396,0.4888,38.1500,73,97,503108
1.5640,0.4985,37.9600,73,97,503111
1.5249,0.4888,38.0800,73,97,503114
1.5445,0.4888,38.0500,73,97,503118
1.5445,0.4839,38.1100,73,97,503121
1.5591,0.4888,38.1500,73,97,503124
1.6129,0.4936,38.0500,73,97,503129
1.6080,0.4888,38.2100,73,97,503132
1.6373,0.5132,37.9600,73,97,503135
1.6227,0.4888,38.1100,73,97,503139
1.6325,0.4888,38.1100,73,97,503142
1.6618,0.4985,37.9900,73,97,503145
1.6422,0.4936,38.0800,73,97,503149
1.6667,0.4936,37.9900,73,97,503152
1.6618,0.4888,38.0200,73,97,503155
1.6862,0.4888,38.1800,73,97,503158
1.7107,0.4936,38.0200,73,97,503162
1.7107,0.4936,38.1500,73,97,503165
1.7644,0.4985,37.8700,73,97,503169
1.7449,0.4985,38.0500,73,97,503173
1.7595,0.4839,38.1500,73,97,503176
1.7742,0.4888,38.1800,73,97,503179
1.7840,0.5034,38.1100,73,97,503183
1.8475,0.5034,37.8300,73,97,503186
1.8231,0.4888,38.0200,73,97,503189
1.8426,0.4839,38.1100,73,97,503192
1.8573,0.4643,38.0800,73,97,503196
1.8573,0.4888,38.1100,73,97,503199
1.9306,0.5034,37.8700,73,97,503202
1.8915,0.4936,38.1100,73,97,503206
1.9013,0.4839,38.0500,73,97,503209
1.9062,0.4985,38.0800,73,97,503213
1.9257,0.4839,38.1800,73,97,503217
1.9892,0.4985,37.9300,73,97,503220
1.9795,0.4985,38.0800,73,97,503223
2.0137,0.4936,37.9900,73,97,503227
2.0039,0.4888,38.1500,73,97,503230
2.0137,0.4790,38.1800,73,97,503233
2.0528,0.4936,37.9600,73,97,503236
2.0332,0.4888,38.0500,73,97,503240
2.0772,0.4936,37.9600,73,97,503243
2.0626,0.4839,38.1100,73,97,503246
2.0821,0.4888,38.1100,73,97,503250
2.1065,0.4936,38.0500,73,97,503254
2.1114,0.4936,38.1500,73,97,503257
2.1603,0.4888,37.9600,73,97,503261
2.1457,0.4888,38.1100,73,97,503264
2.1750,0.4839,38.1100,73,97,503267
2.2141,0.4936,38.0200,73,97,503270
2.1945,0.4839,38.1100,73,97,503274
2.2483,0.4936,37.8000,73,97,503277
2.2287,0.4985,38.0500,73,97,503280
2.2336,0.4888,38.1100,73,97,503284
2.2532,0.4936,38.1100,73,97,503287
2.2434,0.4888,38.1500,73,97,503290
2.2678,0.4985,37.8300,73,97,503294
2.1896,0.4888,38.0500,73,97,503298
2.1505,0.4888,38.1100,73,97,503301
2.1261,0.4936,38.0800,73,97,503304
2.0870,0.4888,38.1100,73,97,503308
2.1114,0.5034,37.8300,73,97,503311
2.0088,0.4936,38.1100,73,97,503314
1.9648,0.4888,38.0500,73,97,503318
1.9159,0.4888,38.0800,73,97,503321
1.8671,0.4888,38.1100,73,97,503324
1.8671,0.5034,37.9900,73,97,503328
1.7791,0.4936,38.1100,73,97,503331
1.7400,0.4888,37.9900,73,97,503334
1.6862,0.4888,38.2400,73,97,503339
1.6520,0.4936,38.1800,73,97,503342
1.6422,0.4985,37.9600,73,97,503345
1.5689,0.4888,38.1100,73,97,503348
1.5640,0.4936,37.9900,73,97,503352
1.5103,0.4888,38.1100,73,97,503355
1.4858,0.4839,38.1100,73,97,503358
1.4956,0.4936,38.0200,73,97,503362
1.4614,0.4888,38.1100,73,97,503365
1.4761,0.4936,37.9600,73,97,503368
1.4418,0.4985,37.9000,73,97,503372
1.4663,0.4888,38.1100,73,97,503376
1.4809,0.4888,38.1100,73,97,503380
1.5005,0.5132,38.0500,73,97,503384
1.5054,0.4888,38.1100,73,97,503387
1.5640,0.4985,37.8300,73,97,503390
1.5543,0.5132,37.9900,73,97,503394
1.5591,0.4839,38.0800,73,97,503397
1.5738,0.4936,38.1100,73,97,503400
1.5885,0.4839,38.1500,73,97,503404
1.6325,0.5034,37.1900,73,97,503407
1.5934,0.4839,38.1500,73,97,503410
1.5885,0.4888,37.9600,73,97,503414
1.6031,0.4888,38.1100,73,97,503417
1.5982,0.4888,38.1500,73,97,503420
1.6373,0.4936,37.9600,73,97,503425
1.6325,0.4643,38.1800,73,97,503428
1.6764,0.5181,37.9900,73,97,503431
1.6716,0.4888,38.1500,73,97,503434
1.7155,0.4839,38.1500,73,97,503438
1.7107,0.4888,38.1100,73,97,503441
1.7009,0.5181,38.1500,73,97,503444
1.7253,0.4888,37.9900,73,97,503448
1.7009,0.4985,38.1500,73,97,503451
1.7058,0.4888,38.1100,73,97,503454
1.7302,0.4936,37.9900,73,97,503458
1.7107,0.4888,38.1800,73,97,503461
1.7449,0.4936,37.9000,73,97,503464
1.7302,0.4936,37.9900,73,97,503469
1.7546,0.4839,38.1100,73,97,503472
1.7400,0.5034,38.0500,73,97,503475
1.7302,0.4790,38.1800,73,97,503478
1.7693,0.5034,37.8300,73,97,503482
1.7400,0.4888,38.0500,73,97,503485
1.7400,0.5034,38.1100,73,97,503488
1.7644,0.4985,38.0800,73,97,503492
1.7498,0.4888,38.1100,73,97,503495
1.8084,0.5034,37.8000,73,97,503498
1.7595,0.4839,38.0800,73,97,503502
1.7644,0.4839,38.0800,73,97,503505
1.7840,0.4888,38.1100,73,97,503508
1.7742,0.4888,38.1100,73,97,503512
1.8377,0.5132,37.9900,73,97,503516
1.8133,0.4936,38.0500,73,97,503519
1.8084,0.4888,38.0500,73,97,503522
1.7937,0.4888,38.1800,73,97,503526
1.7937,0.4888,38.1500,73,97,503529
1.8182,0.5376,37.9900,73,97,503532
1.7644,0.4888,38.1100,73,97,503536
1.7742,0.4936,37.9900,73,97,503539
1.7449,0.4888,38.1500,73,97,503542
1.7449,0.4888,38.1500,73,97,503546
1.7644,0.4985,38.0200,73,97,503549
1.7546,0.4888,38.0500,73,97,503553
1.7889,0.4888,37.9600,73,97,503556
1.7693,0.4888,38.1100,73,97,503560
1.7644,0.4936,38.1100,73,97,503563
1.7742,0.4888,38.0500,73,97,503566
1.7498,0.4643,38.0800,73,97,503570
1.7742,0.4936,37.9000,73,97,503573
1.7449,0.4839,38.1500,73,97,503576
1.7546,0.4888,38.0800,73,97,503580
1.7791,0.4936,38.0800,73,97,503583
1.7644,0.4888,38.3000,73,97,503586
1.8133,0.5230,37.8300,73,97,503589
1.7791,0.4936,38.0200,73,97,503593
1.7644,0.4888,38.0500,73,97,503597
1.7791,0.4936,38.0800,73,97,503600
1.7742,0.4888,38.1100,73,97,503604
1.8280,0.5034,37.8700,73,97,503607
1.7840,0.4936,38.0500,73,97,503610
1.7840,0.4888,38.0500,73,97,503614
1.7791,0.5132,38.1100,73,97,503617
1.7791,0.4839,38.1100,73,97,503620
1.8280,0.5034,38.0800,73,97,503623
1.7937,0.4888,38.1100,73,97,503627
1.8084,0.4888,38.0500,73,97,503630
1.7986,0.4888,38.1100,73,97,503633
1.8084,0.4839,38.1100,73,97,503638
1.8524,0.4985,37.8000,73,97,503641
1.8377,0.5132,38.0500,73,97,503644
1.8671,0.4936,37.9600,73,97,503648
1.8524,0.4839,38.0800,73,97,503651
1.8671,0.4839,38.1100,73,97,503654
1.9159,0.4985,37.9900,73,97,503658
1.8964,0.4888,38.1100,73,97,503661
1.9062,0.4888,37.9600,73,97,503664
1.8671,0.4888,38.0200,73,97,503667
1.8622,0.4888,38.1500,73,97,503671
1.9013,0.4888,38.0200,73,97,503674
1.8964,0.4888,38.1100,73,97,503677
1.9648,0.4936,37.8700,73,97,503682
1.9648,0.4936,38.0800,73,97,503685
1.9746,0.4888,38.1100,73,97,503688
1.9844,0.4936,38.0800,73,97,503692
1.9550,0.4888,38.1100,73,97,503695
1.9746,0.5083,37.8700,73,97,503698
1.8915,0.4643,38.0800,73,97,503702
1.8719,0.4888,38.1500,73,97,503705
1.8719,0.4839,38.1100,73,97,503708
1.8573,0.5132,38.0800,73,97,503711
1.9110,0.5132,37.8700,73,97,503715
1.8622,0.4936,38.0800,73,97,503718
1.8426,0.4888,37.9900,73,97,503721
1.8182,0.4888,38.1100,73,97,503726
1.7986,0.5181,38.1100,73,97,503729
1.8182,0.4985,37.9300,73,97,503732
1.7644,0.4936,37.9300,73,97,503736
1.7791,0.4888,37.9900,73,97,503739
1.7302,0.4888,38.1500,73,97,503742
1.7204,0.4888,38.1800,73,97,503746
1.7449,0.4936,37.9900,73,97,503749
1.7155,0.4888,38.1100,73,97,503752
1.7400,0.4985,38.0500,73,97,503755
1.7155,0.4888,38.0800,73,97,503759
1.7253,0.4985,38.1100,73,97,503762
1.7498,0.4888,38.0500,73,97,503766
1.7546,0.4888,38.1100,73,97,503770
1.7791,0.4888,37.9300,73,97,503773
1.7644,0.4888,38.1100,73,97,503776
1.7644,0.4888,38.1500,73,97,503780
1.7742,0.4936,38.1800,73,97,503783
1.7498,0.4839,38.1500,73,97,503786
1.7742,0.4985,37.8300,73,97,503790
1.7791,0.4936,38.0200,73,97,503793
1.7351,0.4888,38.1100,73,97,503796
1.7400,0.4985,38.0800,73,97,503799
1.7400,0.4839,38.1100,73,97,503803
1.7889,0.4985,37.8700,73,97,503806
1.7546,0.4888,38.0500,73,97,503810
1.7449,0.4839,38.0800,73,97,503814
1.7546,0.4888,38.1100,73,97,503817
1.7791,0.4888,38.1500,73,97,503820
1.8817,0.5034,37.1900,73,97,503824
1.8915,0.4936,38.0800,73,97,503827
2.0039,0.4888,38.0200,73,97,503830
2.1848,0.4888,38.1500,73,97,503833
2.4682,0.4888,38.1100,73,97,503837
2.8837,0.5034,37.9600,73,97,503840
3.2405,0.4936,38.1100,73,97,503843
3.5826,0.4936,37.9900,73,97,503847
3.7537,0.4985,38.1100,73,97,503851
3.8416,0.4888,38.1100,73,97,503854
3.8025,0.4985,37.9600,73,97,503858
3.4653,0.4888,38.1100,73,97,503861
3.1281,0.4936,37.9600,73,97,503864
2.6393,0.4888,38.0800,73,97,503868
2.2092,0.4888,38.1500,73,97,503871
1.8475,0.4888,38.0200,73,97,503874
1.5689,0.4888,38.1100,73,97,503877
1.4272,0.4936,37.9300,73,97,503881
1.3685,0.4839,38.0500,73,97,503884
1.3587,0.4888,38.1500,73,97,503887
1.3930,0.4936,38.3000,73,97,503891
1.4321,0.4888,38.1100,73,97,503895
1.5054,0.4985,37.9000,73,97,503898
1.4956,0.4888,38.0800,73,97,503902
1.5200,0.4888,38.1500,73,97,503905
1.5347,0.5034,38.0500,73,97,503908
1.5298,0.4888,38.1500,73,97,503912
1.5787,0.5034,37.8700,73,97,503915
1.5445,0.4936,38.0500,73,97,503918
1.5347,0.4839,38.0800,73,97,503921
1.5787,0.4839,38.0800,73,97,503925
1.5494,0.4839,38.1500,73,97,503928
1.6227,0.5034,37.9000,73,97,503931
1.6031,0.4839,38.0800,73,97,503936
1.6276,0.4888,38.0200,73,97,503939
1.6422,0.5083,38.1100,73,97,503942
1.6764,0.4839,38.1100,73,97,503946
1.7253,0.4985,37.9900,73,97,503949
1.7302,0.4888,38.1500,73,97,503952
1.7546,0.4936,37.9900,73,97,503955
1.7253,0.5230,38.1500,73,97,503959
1.7204,0.4888,38.1100,73,97,503962
1.7351,0.5181,38.0800,73,97,503965
1.7302,0.4839,38.1100,73,97,503969
1.7693,0.4936,37.9900,73,97,503972
1.7449,0.4839,38.1100,73,97,503975
1.7693,0.4888,37.3700,73,97,503980
1.8035,0.4888,38.0500,73,97,503983
1.8573,0.4936,38.0800,73,97,503988
1.8719,0.4888,38.1500,73,97,503991
1.9404,0.4936,37.8000,73,97,503994
1.9110,0.4888,38.0500,73,97,503998
1.9159,0.4839,38.0800,73,97,504001
1.9306,0.4839,38.1100,73,97,504004
1.9355,0.4888,38.1100,73,97,504007
1.9941,0.5034,37.9300,73,97,504011
1.9501,0.4888,38.1100,73,97,504014
1.9795,0.4888,38.1100,73,97,504017
1.9990,0.4888,38.1800,73,97,504022
2.0186,0.4888,38.2100,73,97,504025
2.0674,0.5327,37.9900,73,97,504028
2.0626,0.4888,38.1100,73,97,504032
2.0821,0.4936,37.9900,73,97,504035
2.0626,0.4888,38.1100,73,97,504038
2.0723,0.4839,38.1500,73,97,504042
2.1310,0.4985,37.9900,73,97,504045
2.1114,0.4839,38.1800,73,97,504048
2.1603,0.4985,37.9900,73,97,504051
2.1505,0.4839,38.4300,73,97,504055
2.1994,0.4888,38.1100,73,97,504058
2.2190,0.4936,38.0200,73,97,504061
2.2092,0.4936,38.1100,73,97,504066
2.2532,0.4936,37.9600,73,97,504069
2.2287,0.4888,38.3300,73,97,504072
2.2581,0.4888,38.1500,73,97,504076
2.2434,0.4936,38.0200,73,97,504079
2.2336,0.4936,38.1100,73,97,504082
2.2727,0.4985,37.8700,73,97,504085
2.2092,0.5230,38.0800,73,97,504089
2.1994,0.4839,38.1100,73,97,504092
2.1896,0.4936,38.0800,73,97,504095
2.1408,0.4839,38.1100,73,97,504099
2.1554,0.5034,37.8300,73,97,504102
2.0577,0.4936,37.5600,73,97,504105
1.9844,0.4888,38.2100,73,97,504110
1.9306,0.4888,38.1100,73,97,504113
1.8768,0.4888,38.1500,73,97,504116
1.8915,0.5083,37.9300,73,97,504119
1.7937,0.4888,38.2700,73,97,504123
1.7449,0.4888,38.0200,73,97,504126
1.7009,0.4888,38.1100,73,97,504129
1.6569,0.4888,38.0500,73,97,504133
1.6569,0.4936,37.9600,73,97,504136
1.5787,0.4888,38.1100,73,97,504139
1.5738,0.4936,37.9900,73,97,504143
1.5249,0.4839,38.1100,73,97,504146
1.4956,0.4839,38.1500,73,97,504150
1.4907,0.4985,38.0500,73,97,504154
1.4565,0.4888,38.1100,73,97,504157
1.4663,0.5132,37.9900,73,97,504160
1.4467,0.4888,38.1800,73,97,504163
1.4516,0.4888,38.1100,73,97,504167
1.4858,0.4936,37.9900,73,97,504170
1.4761,0.4888,38.1800,73,97,504173
1.5152,0.4936,37.9300,73,97,504177
1.5005,0.4936,38.0200,73,97,504180
1.5005,0.4936,38.1100,73,97,504183
1.5152,0.4936,37.9900,73,97,504187
1.5200,0.4888,38.1500,73,97,504190
1.5689,0.4985,37.9000,73,97,504194
1.5543,0.5279,38.0500,73,97,504198
1.5689,0.4888,38.1100,73,97,504201
1.5787,0.4888,38.2100,73,97,504204
1.5787,0.4888,38.1500,73,97,504207
1.6373,0.5034,37.8000,73,97,504211
1.6080,0.4888,38.1100,73,97,504214
1.6422,0.4888,38.0800,73,97,504217
1.6373,0.4839,38.0500,73,97,504221
1.6471,0.4936,38.1100,73,97,504224
1.6960,0.5034,37.4300,73,97,504227
1.6716,0.4936,38.1100,73,97,504231
1.6618,0.4888,38.0200,73,97,504235
1.6471,0.4839,38.1100,73,97,504238
1.6471,0.4888,38.1500,73,97,504242
1.6911,0.5230,37.9900,73,97,504245
1.6764,0.4888,38.1500,73,97,504248
1.7155,0.4936,37.9900,73,97,504251
1.7058,0.4839,38.1800,73,97,504255
1.7253,0.4888,38.1500,73,97,504258
1.7644,0.4936,38.0200,73,97,504261
1.7498,0.4888,38.1500,73,97,504265
1.8084,0.4888,37.9600,73,97,504268
1.7498,0.4888,38.0800,73,97,504271
1.7498,0.4936,38.1100,73,97,504275
1.7498,0.4888,38.0800,73,97,504279
1.7351,0.4888,38.2100,73,97,504282
1.7644,0.4985,37.9000,73,97,504286
1.7351,0.4888,38.1500,73,97,504289
1.7498,0.4936,38.2700,73,97,504292
1.7840,0.4936,38.0500,73,97,504295
1.7742,0.5034,38.1100,73,97,504299
1.8280,0.4985,37.8300,73,97,504302
1.8035,0.4936,38.1100,73,97,504305
1.7889,0.5181,38.1100,73,97,504309
1.7937,0.4888,38.0200,73,97,504312
1.7937,0.5083,38.1800,73,97,504315
1.8475,0.5034,37.8700,73,97,504320
1.7937,0.5083,38.0800,73,97,504323
1.7889,0.4888,38.0500,73,97,504326
1.7889,0.4839,38.1100,73,97,504329
1.7937,0.4888,38.0800,73,97,504333
1.8426,0.5034,37.9600,73,97,504336
1.7986,0.4888,38.1100,73,97,504339
1.8084,0.4936,37.9900,73,97,504343
1.7986,0.4839,38.1100,73,97,504346
1.7937,0.4888,38.1100,73,97,504349
1.8231,0.4936,38.0500,73,97,504353
1.7986,0.4888,38.1500,73,97,504356
1.8133,0.4936,37.9600,73,97,504359
1.7791,0.4888,38.0200,73,97,504364
1.7742,0.4888,38.1800,73,97,504367
1.7986,0.4985,37.9900,73,97,504370
1.7693,0.4888,38.1500,73,97,504374
1.8035,0.4888,37.9300,73,97,504377
1.7889,0.5181,38.0500,73,97,504380
1.8084,0.4888,38.0500,73,97,504383
1.7889,0.4936,38.1100,73,97,504387
1.7693,0.4936,38.1500,73,97,504390
1.7986,0.4985,37.9000,73,97,504393
1.7644,0.4936,38.1100,73,97,504397
1.7742,0.4888,38.1500,73,97,504400
1.7840,0.4888,38.2100,73,97,504403
1.7791,0.5132,38.1100,73,97,504408
1.8328,0.5034,37.8300,73,97,504411
1.7937,0.4936,38.0800,73,97,504414
1.7986,0.4888,38.1100,73,97,504417
1.8035,0.4936,38.2100,73,97,504421
1.8280,0.4839,38.1800,73,97,504424
1.8573,0.5083,37.9300,73,97,504427
1.8182,0.4936,38.0500,73,97,504431
1.8182,0.4839,38.0200,73,97,504434
1.7986,0.4839,38.1100,73,97,504437
1.7937,0.4839,38.0800,73,97,504441
1.8280,0.4985,37.9300,73,97,504444
1.7986,0.4888,38.1100,73,97,504448
1.8231,0.4936,37.9600,73,97,504452
1.7937,0.4888,38.1100,73,97,504455
1.8035,0.4839,38.1100,73,97,504458
1.8231,0.4936,37.9900,73,97,504461
1.7986,0.4888,38.1500,73,97,504465
1.8280,0.5181,38.0200,73,97,504468
1.7986,0.4839,38.1500,73,97,504471
1.8182,0.4888,38.1500,73,97,504475
1.8377,0.4936,38.0800,73,97,504478
1.8524,0.4888,38.1500,73,97,504481
1.8817,0.5181,37.9000,73,97,504485
1.8377,0.4643,38.1500,73,97,504488
1.8231,0.4936,38.1500,73,97,504492
1.8280,0.5034,38.0500,73,97,504496
1.8084,0.4839,38.1500,73,97,504499
1.8573,0.4839,37.8700,73,97,504502
1.8328,0.4936,38.2100,73,97,504505
1.8280,0.4936,38.1500,73,97,504509
1.8231,0.4888,38.2700,73,97,504512
1.8133,0.4888,38.1100,73,97,504515
1.8622,0.5034,37.8300,73,97,504519
1.8231,0.4936,38.0800,73,97,504522
1.8035,0.4888,38.0500,73,97,504525
1.7986,0.4888,38.1500,73,97,504529
1.8084,0.4839,38.1500,73,97,504532
1.8573,0.5034,37.8700,73,97,504536
1.8280,0.5132,38.0800,73,97,504540
1.8573,0.4888,37.9900,73,97,504543
1.8377,0.4888,38.3000,73,97,504546
1.8377,0.4888,38.1100,73,97,504549
1.8622,0.4985,38.3000,73,97,504553
1.8426,0.4985,38.1100,73,97,504556
1.8719,0.4936,37.9600,73,97,504559
1.8622,0.4985,38.1100,73,97,504563
1.8817,0.4888,38.1100,73,97,504566
1.9404,0.4985,37.9900,73,97,504569
1.9208,0.4888,38.1100,73,97,504573
1.9599,0.4888,38.1800,73,97,504577
1.9599,0.4888,38.1800,73,97,504580
1.9404,0.4888,38.1500,73,97,504584
1.9648,0.4839,38.0200,73,97,504587
1.9697,0.4888,38.1100,73,97,504590
2.0381,0.4936,37.8300,73,97,504593
1.9990,0.5034,37.8300,73,97,504598
1.9208,0.4888,38.1500,73,97,504601
1.8866,0.4888,38.1100,73,97,504605
1.8573,0.4985,38.1100,73,97,504608
1.8328,0.4888,38.3300,73,97,504611
1.8719,0.5083,37.9300,73,97,504615
1.8377,0.4936,38.0800,73,97,504619
1.8328,0.4888,37.9600,73,97,504622
1.8035,0.4888,38.1500,73,97,504626
1.7889,0.4888,37.9900,73,97,504629
1.8035,0.4936,37.9300,73,97,504632
1.7644,0.4888,38.1500,73,97,504636
1.7791,0.4936,38.0500,73,97,504639
1.7498,0.4839,38.1100,73,97,504642
1.7546,0.4888,38.1500,73,97,504645
1.7742,0.4936,38.0200,73,97,504649
1.7498,0.4888,37.9600,73,97,504652
1.7791,0.4985,38.0500,73,97,504655
1.7742,0.4839,38.0800,73,97,504659
1.7449,0.4936,38.1100,73,97,504663
1.7449,0.4790,38.0500,73,97,504666
1.7302,0.4888,38.1500,73,97,504670
1.7595,0.4936,37.4300,73,97,504673
1.7302,0.4888,38.1100,73,97,504676
1.7400,0.4839,38.1500,73,97,504680
1.7693,0.4839,38.0800,73,97,504683
1.7791,0.4888,38.1500,73,97,504686
1.8377,0.4985,37.8300,73,97,504689
1.8182,0.4936,38.0500,73,97,504693
1.8035,0.4888,38.0800,73,97,504696
1.7986,0.4888,38.1100,73,97,504699
1.7937,0.4888,38.2100,73,97,504704
1.8622,0.4985,37.8700,73,97,504707
1.8231,0.4936,38.1500,73,97,504710
1.8084,0.4936,38.0800,73,97,504714
1.7840,0.4888,38.1500,73,97,504717
1.7693,0.4888,38.2100,73,97,504720
1.8182,0.4985,37.9600,73,97,504723
1.8133,0.4888,38.1100,73,97,504727
1.8915,0.4936,37.9900,73,97,504730
1.9746,0.4839,38.1100,73,97,504733
2.1701,0.4888,38.1100,73,97,504737
2.4976,0.4936,38.0500,73,97,504740
2.8446,0.4888,38.1100,73,97,504743
3.2991,0.5034,38.0200,73,97,504748
3.6119,0.4888,38.1500,73,97,504751
3.8661,0.4888,38.1500,73,97,504754
4.0518,0.4985,37.9900,73,97,504758
3.9492,0.4888,38.1100,73,97,504761
3.7292,0.4888,37.9600,73,97,504764
3.3089,0.4888,38.0500,73,97,504767
2.8495,0.4888,38.1500,73,97,504771
2.4145,0.4936,38.0500,73,97,504774
1.9355,0.4888,38.1100,73,97,504777
1.6569,0.4985,37.8300,73,97,504781
1.4565,0.4936,38.1100,73,97,504784
1.3881,0.4888,38.3600,73,97,504787
1.3881,0.4888,38.0800,73,97,504792
1.4076,0.4888,38.1500,73,97,504795
1.4712,0.5034,37.8000,73,97,504798
1.4565,0.4888,38.1500,73,97,504802
1.4761,0.4839,38.2100,73,97,504805
1.4858,0.4888,38.1500,73,97,504808
1.4761,0.4888,38.2100,73,97,504811
1.5543,0.5083,37.9300,73,97,504815
1.5054,0.4936,38.1500,73,97,504818
1.5152,0.4985,38.1100,73,97,504821
1.5249,0.4888,38.2100,73,97,504825
1.5396,0.4790,38.1500,73,97,504828
1.5787,0.5034,37.9600,73,97,504832
1.5591,0.4888,38.1500,73,97,504836
1.5836,0.4839,37.9900,73,97,504839
1.5885,0.4888,38.3600,73,97,504842
1.6080,0.5181,38.1100,73,97,504846
1.6471,0.4936,38.0800,73,97,504849
1.6325,0.4888,38.1800,73,97,504852
1.6667,0.4936,38.0500,73,97,504855
1.6471,0.4888,38.1100,73,97,504859
1.6764,0.4888,38.1500,73,97,504862
1.7155,0.4839,38.0800,73,97,504865
1.7204,0.4888,38.1100,73,97,504869
1.7595,0.4936,37.9000,73,97,504872
1.7498,0.4888,38.1500,73,97,504876
1.7644,0.4888,38.2100,73,97,504880
1.7889,0.4936,38.0500,73,97,504883
1.7840,0.4888,38.1500,73,97,504886
1.8328,0.4985,37.8700,73,97,504889
1.8182,0.4936,38.0500,73,97,504893
1.8133,0.4888,38.0800,73,97,504896
1.8377,0.4888,38.1100,73,97,504899
1.8475,0.4888,38.3300,73,97,504903
1.9110,0.5034,37.8000,73,97,504906
1.8866,0.4888,38.0500,73,97,504909
1.8964,0.4839,38.0800,73,97,504913
1.9110,0.4888,38.1100,73,97,504916
1.9257,0.4888,38.1100,73,97,504920
1.9990,0.5034,37.9900,73,97,504923
1.9599,0.4936,38.1100,73,97,504927
1.9844,0.4888,38.0200,73,97,504930
1.9795,0.4888,38.1800,73,97,504933
1.9892,0.4888,38.2100,73,97,504937
2.0430,0.4936,38.0200,73,97,504940
2.0283,0.4839,38.1100,73,97,504943
2.0674,0.4936,38.0500,73,97,504947
2.0626,0.4790,38.1100,73,97,504950
2.0821,0.4839,38.1500,73,97,504953
2.1310,0.4985,37.9900,73,97,504957
2.1212,0.4888,38.1100,73,97,504961
2.1554,0.4985,38.0200,73,97,504964
2.1408,0.4839,38.0800,73,97,504967
2.1652,0.4888,38.1100,73,97,504971
2.2190,0.4936,38.0500,73,97,504974
2.2287,0.4888,38.1800,73,97,504977
2.2825,0.4888,37.9600,73,97,504981
2.2727,0.4839,38.0800,73,97,504984
2.2727,0.4888,38.1500,73,97,504987
2.2874,0.4839,38.0800,73,97,504991
2.2678,0.4888,38.1500,73,97,504994
2.3021,0.4985,37.9000,73,97,504997
2.2581,0.4839,38.1100,73,97,505000
2.2434,0.4888,38.2100,73,97,505005
2.2385,0.4985,38.0800,73,97,505008
2.1994,0.4888,38.1100,73,97,505011
2.2287,0.5279,37.8300,73,97,505015
2.1652,0.4936,38.0500,73,97,505018
2.1065,0.4888,38.1100,73,97,505021
2.0772,0.4985,38.1800,73,97,505025
2.0186,0.4888,38.1100,73,97,505028
2.0235,0.5083,37.9300,73,97,505031
1.9159,0.4936,38.0500,73,97,505034
1.8426,0.4888,38.0800,73,97,505038
1.7791,0.4888,38.0800,73,97,505041
1.7204,0.4839,38.1500,73,97,505044
1.7155,0.5034,37.9900,73,97,505049
1.6276,0.5132,38.1100,73,97,505052
1.6031,0.4839,37.9900,73,97,505055
1.5543,0.4888,37.9900,73,97,505059
1.5347,0.4839,38.1100,73,97,505062
1.5298,0.4936,38.0500,73,97,505065
1.5005,0.4936,38.1100,73,97,505069
1.4956,0.4839,38.0200,73,97,505072
1.4712,0.4888,38.1800,73,97,505075
1.4663,0.4888,38.2100,73,97,505078
1.4809,0.5034,37.9900,73,97,505082
1.4516,0.4888,38.1500,73,97,505085
1.4712,0.5083,37.9900,73,97,505089
1.4663,0.4839,38.0200,73,97,505093
1.4516,0.4888,38.2400,73,97,505096
1.4712,0.4936,38.0500,73,97,505099
1.4663,0.4888,38.0800,73,97,505103
1.5103,0.5083,37.8700,73,97,505106
1.4907,0.4839,38.0800,73,97,505109
1.5005,0.4888,38.2700,73,97,505113
1.5298,0.4936,38.1100,73,97,505116
1.5298,0.4888,38.1500,73,97,505119
1.5934,0.4985,37.7700,73,97,505122
1.5640,0.4888,38.0800,73,97,505126
1.5689,0.4839,38.1800,73,97,505129
1.5982,0.4936,38.1100,73,97,505133
1.5787,0.4888,38.1500,73,97,505137
1.6471,0.4839,37.9300,73,97,505140
1.6178,0.4936,38.0800,73,97,505143
1.6227,0.4888,38.0200,73,97,505147
1.6178,0.4888,38.1500,73,97,505150
1.6325,0.4888,38.1100,73,97,505153
1.6813,0.4985,37.9600,73,97,505157
1.6618,0.4985,38.1800,73,97,505160
1.6862,0.4936,37.9900,73,97,505163
1.6764,0.4888,38.1500,73,97,505166
1.6813,0.4888,38.1100,73,97,505170
1.7058,0.4985,38.1100,73,97,505174
1.6862,0.5083,38.1100,73,97,505177
1.7155,0.4839,38.0200,73,97,505181
1.7009,0.4888,38.1500,73,97,505184
1.7107,0.4985,38.1500,73,97,505187
1.7204,0.4888,38.0500,73,97,505191
1.7155,0.4888,38.1500,73,97,505194
1.7400,0.4985,37.9300,73,97,505197
1.7155,0.4643,38.1500,73,97,505200
1.7155,0.5230,38.1500,73,97,505204
1.7400,0.4985,38.0500,73,97,505207
1.7400,0.4888,38.2400,73,97,505212
1.7400,0.4888,38.1500,73,97,505216
1.7986,0.5034,37.9300,73,97,505219
1.7693,0.4936,38.2100,73,97,505223
1.7791,0.4888,38.0500,73,97,505226
1.7791,0.4888,38.1500,73,97,505229
1.7791,0.4888,38.2700,73,97,505233
1.8426,0.4985,37.9900,73,97,505236
1.7742,0.4888,37.9600,73,97,505239
1.7889,0.4985,38.0200,73,97,505243
1.7644,0.4888,38.1500,73,97,505246
1.7644,0.4888,38.1500,73,97,505249
1.7889,0.4936,38.1100,73,97,505252
1.7791,0.4888,38.1800,73,97,505256
1.8084,0.4985,38.0200,73,97,505260
1.7742,0.4936,38.1500,73,97,505263
1.7742,0.4888,38.1500,73,97,505267
1.7840,0.4936,37.9900,73,97,505270
1.7449,0.4888,38.1100,73,97,505273
1.7693,0.4985,37.9000,73,97,505277
1.7546,0.4839,38.0200,73,97,505280
1.7546,0.4643,38.2100,73,97,505283
1.7986,0.4936,38.0800,73,97,505287
1.7791,0.4643,38.1100,73,97,505290
1.8231,0.5230,37.8700,73,97,505293
1.7791,0.4839,38.0800,73,97,505296
1.7546,0.4839,38.1500,73,97,505300
1.7498,0.4888,38.1100,73,97,505304
1.7400,0.4888,38.1500,73,97,505307
1.7889,0.4985,37.7400,73,97,505311
1.7595,0.4888,38.0500,73,97,505314
1.7742,0.4839,38.1100,73,97,505317
1.7889,0.4936,38.1100,73,97,505321
1.7889,0.4888,38.2400,73,97,505324
1.8328,0.5083,37.9600,73,97,505327
1.7937,0.4839,38.1100,73,97,505331
1.7889,0.4888,38.0800,73,97,505334
1.7742,0.4839,38.1500,73,97,505337
1.7693,0.4888,38.2100,73,97,505340
1.8377,0.4936,37.9600,73,97,505345
1.7742,0.4888,38.2400,73,97,505348
1.8084,0.4985,37.9900,73,97,505351
1.7937,0.4888,38.1500,73,97,505355
1.7986,0.5327,38.0800,73,97,505358
1.8280,0.4985,38.0200,73,97,505361
1.8133,0.4888,38.1500,73,97,505365
1.8475,0.4985,38.0200,73,97,505368
1.8280,0.4888,38.1100,73,97,505371
1.8084,0.4888,38.2100,73,97,505375
1.8035,0.4888,38.0800,73,97,505378
1.7889,0.4839,38.1500,73,97,505381
1.8182,0.4936,37.9900,73,97,505384
1.7889,0.4839,38.1500,73,97,505389
1.7937,0.4888,38.1500,73,97,505392
1.8280,0.4936,38.0500,73,97,505395
1.8133,0.4888,38.1800,73,97,505399
1.8573,0.5083,37.8700,73,97,505402
1.8231,0.4936,38.0500,73,97,505405
1.7986,0.4888,38.0800,73,97,505409
1.7986,0.4936,38.1100,73,97,505412
1.7937,0.4888,38.1800,73,97,505415
1.8426,0.5034,37.8300,73,97,505418
1.7986,0.4936,37.9900,73,97,505422
1.8133,0.4985,38.0500,73,97,505425
1.7840,0.4888,38.1100,73,97,505428
1.7986,0.4888,38.1800,73,97,505433
1.8915,0.4839,38.0200,73,97,505436
1.8280,0.4888,38.2100,73,97,505439
1.8475,0.5230,37.9900,73,97,505443
1.8377,0.4888,38.1100,73,97,505446
1.8328,0.4936,38.1500,73,97,505449
1.8475,0.4936,38.0800,73,97,505453
1.8182,0.4888,38.2400,73,97,505456
1.8426,0.4936,37.9900,73,97,505459
1.8133,0.4790,38.1100,73,97,505462
1.8524,0.4839,38.1800,73,97,505466
1.8524,0.4985,38.0200,73,97,505469
1.8328,0.4888,38.1100,73,97,505473
1.8573,0.4888,37.5300,73,97,505477
1.8573,0.4936,38.0500,73,97,505480
1.8328,0.4888,38.1500,73,97,505483
1.8377,0.4839,38.0500,73,97,505487
1.8280,0.4888,38.1100,73,97,505490
1.8622,0.4985,37.8700,73,97,505493
1.8328,0.4936,38.0800,73,97,505497
1.8182,0.4888,38.1500,73,97,505500
1.8328,0.4936,38.1100,73,97,505503
1.8475,0.4888,38.1100,73,97,505507
1.9453,0.5083,37.8000,73,97,505510
1.8866,0.4888,38.1100,73,97,505513
1.8964,0.4888,38.1500,73,97,505517
1.9013,0.4888,38.1100,73,97,505521
1.8964,0.4888,38.1500,73,97,505524
1.9697,0.5034,37.9300,73,97,505527
1.9501,0.4936,38.0500,73,97,505531
1.9941,0.4985,38.0500,73,97,505534
1.9990,0.4888,38.1100,73,97,505537
2.0137,0.4888,38.1500,73,97,505541
2.0381,0.4936,37.9300,73,97,505544
1.9844,0.4888,38.3000,73,97,505547
1.9697,0.5083,38.0200,73,97,505550
1.9501,0.4888,38.1500,73,97,505554
1.8817,0.4643,38.1500,73,97,505558
1.8817,0.4985,37.9900,73,97,505561
1.8377,0.4888,38.1800,73,97,505565
1.8622,0.4985,38.0200,73,97,505568
1.8280,0.4839,38.1100,73,97,505571
1.8328,0.4888,38.1100,73,97,505575
1.8328,0.4888,38.0500,73,97,505578
1.8035,0.4888,38.1500,73,97,505581
1.8084,0.4985,37.9000,73,97,505585
1.7693,0.4888,38.1500,73,97,505588
1.7742,0.4936,38.1500,73,97,505591
1.7937,0.4936,38.1100,73,97,505594
1.7742,0.4888,38.1500,73,97,505598
1.7986,0.4839,37.9000,73,97,505602
1.7644,0.4985,38.0800,73,97,505605
1.7351,0.4888,38.2100,73,97,505609
1.7351,0.4936,38.2400,73,97,505612
1.7204,0.4790,38.1800,73,97,505615
1.7742,0.5034,37.9300,73,97,505619
1.7253,0.4936,38.0500,73,97,505622
1.7155,0.4839,38.0800,73,97,505625
1.7302,0.4888,38.1800,73,97,505629
1.7400,0.4936,38.1500,73,97,505632
1.8084,0.5034,37.9600,73,97,505635
1.7791,0.4936,38.1100,73,97,505638
1.8084,0.4839,38.0500,73,97,505643
1.7693,0.4888,38.1100,73,97,505646
1.7546,0.5132,38.1800,73,97,505649
1.7742,0.4985,38.0500,73,97,505653
1.7449,0.4888,38.1800,73,97,505656
1.7644,0.4888,37.9900,73,97,505659
1.7498,0.4888,38.1500,73,97,505663
1.7595,0.4936,38.1500,73,97,505666
1.7889,0.4985,38.0200,73,97,505669
1.7644,0.4936,38.1500,73,97,505672
1.7986,0.4936,38.0200,73,97,505676
1.7791,0.4839,38.0200,73,97,505679
1.8084,0.4839,38.1500,73,97,505682
1.8573,0.4936,38.0800,73,97,505687
1.8964,0.4888,38.1100,73,97,505690
2.0186,0.4936,37.9300,73,97,505693
2.1505,0.4888,38.1100,73,97,505697
2.4242,0.4839,38.1500,73,97,505700
2.7713,0.4936,38.1500,73,97,505703
3.1574,0.4888,38.1800,73,97,505707
3.6022,0.4985,37.9000,73,97,505710
3.7634,0.4888,38.1100,73,97,505713
3.8954,0.4839,38.1500,73,97,505716
3.8905,0.4936,38.1500,73,97,505720
3.6657,0.4888,38.1500,73,97,505723
3.4018,0.5034,37.9600,73,97,505726
2.9130,0.4839,38.0500,73,97,505731
2.4487,0.4839,38.0800,73,97,505734
2.0186,0.5181,38.1100,73,97,505737
1.6862,0.4839,38.1500,73,97,505741
1.5005,0.4985,37.9600,73,97,505744
1.3587,0.4888,38.1100,73,97,505747
1.3196,0.4888,38.0500,73,97,505750
1.3245,0.4888,38.1500,73,97,505754
1.3587,0.4985,38.1500,73,97,505757
1.4174,0.4985,38.0200,73,97,505760
1.4321,0.5083,38.1100,73,97,505764
1.5152,0.4936,37.9900,73,97,505767
1.4761,0.4888,38.1500,73,97,505771
1.4907,0.4888,38.1500,73,97,505775
1.5103,0.4888,38.1100,73,97,505778
1.5103,0.4888,38.1100,73,97,505781
1.5494,0.4888,38.0200,73,97,505785
1.5494,0.4888,38.1500,73,97,505788
1.5543,0.4888,38.1100,73,97,505791
1.5836,0.5132,38.0200,73,97,505794
1.5836,0.4888,38.1500,73,97,505798
1.6276,0.4936,37.9000,73,97,505801
1.6276,0.4888,37.9300,73,97,505804
1.6373,0.4839,38.1500,73,97,505808
1.6764,0.4936,38.1100,73,97,505811
1.6618,0.4888,38.2700,73,97,505815
1.7204,0.5279,37.8300,73,97,505819
1.7840,0.5034,37.9900,73,97,505822
1.7595,0.4888,38.1500,73,97,505826
1.7742,0.4936,37.9900,73,97,505829
1.7644,0.4888,38.1100,73,97,505832
1.7840,0.5230,38.1800,73,97,505836
1.8231,0.4936,38.0500,73,97,505839
1.8182,0.4888,38.2400,73,97,505842
1.8426,0.4985,38.0500,73,97,505845
1.8133,0.4888,38.1500,73,97,505849
1.8182,0.4888,38.1500,73,97,505852
1.8573,0.4985,38.0200,73,97,505856
1.8426,0.4888,38.1100,73,97,505860
1.8964,0.4888,37.9900,73,97,505863
1.8915,0.4888,38.0800,73,97,505866
1.9159,0.4888,38.1800,73,97,505870
1.9501,0.4936,38.1100,73,97,505873
1.9501,0.5230,38.1500,73,97,505876
2.0039,0.4936,37.9300,73,97,505880
1.9844,0.4888,38.0800,73,97,505883
1.9892,0.4936,38.1500,73,97,505886
2.0137,0.4936,38.0800,73,97,505889
2.0137,0.4888,38.1800,73,97,505893
2.0772,0.5181,37.8700,73,97,505896
2.0430,0.4888,38.1800,73,97,505900
2.0577,0.4936,38.2400,73,97,505904
2.0919,0.4839,38.1100,73,97,505907
2.0919,0.4888,38.0800,73,97,505910
2.1750,0.5083,37.8700,73,97,505914
2.1505,0.4985,38.0800,73,97,505917
2.1554,0.4839,38.1100,73,97,505920
2.1945,0.4888,38.1800,73,97,505923
2.1945,0.4839,38.1500,73,97,505927
2.2532,0.4985,38.0500,73,97,505930
2.2190,0.4936,38.1800,73,97,505933
2.2336,0.4888,38.0200,73,97,505937
2.2190,0.4888,38.0800,73,97,505940
2.2287,0.4839,38.1500,73,97,505944
2.2727,0.5034,37.9900,73,97,505948
2.2434,0.4839,38.1800,73,97,505951
2.2678,0.4936,38.1100,73,97,505954
2.2239,0.4936,38.1800,73,97,505958
2.2043,0.4888,38.1500,73,97,505961
2.1799,0.4936,38.0800,73,97,505964
2.1261,0.4839,38.1500,73,97,505967
2.0968,0.4888,37.9900,73,97,505971
2.0088,0.4888,38.1500,73,97,505974
1.9501,0.4888,38.1500,73,97,505977
1.9159,0.4936,37.9900,73,97,505981
1.8328,0.4888,38.1500,73,97,505985
1.8182,0.4985,37.9000,73,97,505988
1.7595,0.4839,38.0500,73,97,505992
1.7058,0.4839,38.1500,73,97,505995
1.6813,0.4936,38.0800,73,97,505998
1.6325,0.4888,38.1500,73,97,506002
1.6373,0.5132,37.8700,73,97,506005
1.5640,0.4888,37.9900,73,97,506008
1.5298,0.4888,38.1100,73,97,506011
1.5152,0.4888,38.1100,73,97,506015
1.4858,0.4888,38.1800,73,97,506018
1.5298,0.5083,37.8700,73,97,506021
1.4907,0.4936,38.1100,73,97,506025
1.4956,0.4888,38.0800,73,97,506029
1.4761,0.4888,38.1500,73,97,506032
1.4565,0.4888,38.1500,73,97,506036
1.4809,0.5327,37.9900,73,97,506039
1.4565,0.4839,38.1500,73,97,506042
1.4614,0.4888,38.0800,73,97,506046
1.4467,0.4839,38.1500,73,97,506049
1.4614,0.4888,38.1500,73,97,506052
1.5005,0.5034,37.9600,73,97,506055
1.4858,0.4888,38.1100,73,97,506059
1.5298,0.4985,37.9900,73,97,506062
1.5152,0.4936,38.0800,73,97,506065
1.5347,0.4839,38.1500,73,97,506070
1.5591,0.4985,38.0500,73,97,506073
1.5543,0.4839,38.1500,73,97,506076
1.5934,0.4936,37.9600,73,97,506080
1.5934,0.4888,38.1100,73,97,506083
1.6080,0.4888,38.0200,73,97,506086
1.6325,0.4888,38.0800,73,97,506090
1.6325,0.4888,38.1800,73,97,506093
1.6813,0.4985,37.9000,73,97,506096
1.6471,0.4839,38.1100,73,97,506099
1.6618,0.4888,38.1500,73,97,506103
1.6813,0.4936,38.0800,73,97,506106
1.6716,0.4888,38.2700,73,97,506109
1.7302,0.5083,37.8300,73,97,506114
1.7204,0.4936,38.0500,73,97,506117
1.7155,0.4839,38.4600,73,97,506120
1.7253,0.4888,38.1500,73,97,506124
1.7351,0.4888,38.0800,73,97,506127
1.7889,0.5083,37.9600,73,97,506130
1.7498,0.4936,38.1100,73,97,506134
1.7546,0.4839,38.0500,73,97,506137
1.7546,0.4839,38.1500,73,97,506140
1.7498,0.4888,38.1800,73,97,506143
1.7791,0.4936,37.9900,73,97,506147
1.7498,0.4643,38.1800,73,97,506150
1.7742,0.5425,37.9900,73,97,506153
1.7595,0.4888,38.1500,73,97,506158
1.7644,0.4936,38.1800,73,97,506161
1.7791,0.4936,38.1100,73,97,506164
1.7595,0.4936,38.1500,73,97,506168
1.7986,0.4888,38.0200,73,97,506171
1.7644,0.4888,38.1100,73,97,506174
1.7693,0.4936,38.1500,73,97,506178
1.7937,0.4936,38.0800,73,97,506181
1.7742,0.4985,38.1500,73,97,506184
1.7889,0.4936,37.9300,73,97,506187
1.7693,0.5132,38.0200,73,97,506191
1.7644,0.4888,38.1800,73,97,506194
1.7840,0.5230,38.1100,73,97,506198
1.7791,0.4888,38.1500,73,97,506202
1.8182,0.4985,37.8700,73,97,506205
1.7693,0.4888,38.0800,73,97,506208
1.7693,0.4839,38.1800,73,97,506212
1.7791,0.4888,38.3300,73,97,506215
1.7840,0.4839,38.1500,73,97,506218
1.8182,0.5034,37.8300,73,97,506221
1.7693,0.4839,38.1100,73,97,506225
1.7742,0.4839,38.0800,73,97,506228
1.7791,0.4985,38.1800,73,97,506231
1.7840,0.4888,38.1800,73,97,506235
1.8328,0.5083,37.9600,73,97,506238
1.7889,0.4839,38.1100,73,97,506242
1.7986,0.4888,38.0500,73,97,506246
1.7840,0.4936,38.1800,73,97,506249
1.7840,0.4888,38.1500,73,97,506252
1.8231,0.4985,37.9900,73,97,506256
1.7986,0.4888,38.1500,73,97,506259
1.8182,0.4936,38.0800,73,97,506262
1.7840,0.4888,38.1800,73,97,506265
1.7742,0.4888,38.1500,73,97,506269
1.7889,0.5034,38.0500,73,97,506272
1.7693,0.4839,38.1500,73,97,506275
1.8084,0.4888,38.0200,73,97,506279
1.7840,0.5083,38.0800,73,97,506283
1.7937,0.4888,38.1500,73,97,506286
1.8035,0.4888,38.1800,73,97,506290
1.7937,0.4936,38.1500,73,97,506293
1.8231,0.4839,37.9300,73,97,506296
1.7937,0.4936,38.1500,73,97,506299
1.8035,0.4839,38.1800,73,97,506303
1.8280,0.4936,38.0500,73,97,506306
1.8035,0.4839,38.1500,73,97,506309
1.8475,0.4985,37.8300,73,97,506313
1.8084,0.4888,38.0500,73,97,506316
1.7889,0.4839,38.1500,73,97,506319
1.7937,0.4936,38.1100,73,97,506323
1.7937,0.4839,38.1500,73,97,506327
1.8475,0.5083,37.8300,73,97,506330
1.8035,0.4936,38.0800,73,97,506334
1.8133,0.4888,38.0800,73,97,506337
1.8182,0.4888,38.1500,73,97,506340
1.8280,0.4888,38.1500,73,97,506343
1.8622,0.5034,37.9600,73,97,506347
1.8133,0.4936,38.1100,73,97,506350
1.8328,0.4936,38.0500,73,97,506353
1.8182,0.5181,38.1100,73,97,506357
1.8231,0.4936,38.1500,73,97,506360
1.8475,0.5181,38.0800,73,97,506363
1.8280,0.4888,38.1500,73,97,506368
1.8377,0.4985,38.0200,73,97,506371
1.8084,0.4839,38.1500,73,97,506374
1.8084,0.4888,37.6200,73,97,506378
1.8377,0.4985,37.9900,73,97,506381
1.8133,0.4888,38.3000,73,97,506384
1.8475,0.4936,37.9600,73,97,506387
1.8377,0.4888,38.0500,73,97,506391
1.8524,0.4888,38.1800,73,97,506394
1.9110,0.4936,38.0500,73,97,506397
1.8768,0.4643,38.1500,73,97,506401
1.9013,0.4985,37.9000,73,97,506404
1.8573,0.4936,38.1100,73,97,506407
1.8475,0.4888,38.2400,73,97,506412
1.8671,0.4888,38.1500,73,97,506415
1.8768,0.4888,38.1500,73,97,506418
1.9501,0.5279,37.8700,73,97,506422
1.9159,0.4888,38.1500,73,97,506425
1.9257,0.4888,38.1500,73,97,506428
1.9306,0.4888,38.1100,73,97,506431
1.9892,0.4888,38.1100,73,97,506435
1.9941,0.4888,38.1500,73,97,506438
2.0235,0.4985,37.9900,73,97,506442
1.9697,0.4888,38.1500,73,97,506445
1.9697,0.4985,38.0200,73,97,506448
1.9159,0.4888,38.1100,73,97,506452
1.9306,0.4839,38.1500,73,97,506456
1.9110,0.4936,38.3000,73,97,506459
1.8817,0.4936,38.1800,73,97,506463
1.9110,0.4888,37.9900,73,97,506466
1.8768,0.4936,38.1100,73,97,506469
1.8719,0.4888,38.1800,73,97,506473
1.8573,0.4888,38.0800,73,97,506476
1.8133,0.4888,38.1500,73,97,506479
1.8231,0.4985,37.9000,73,97,506482
1.7693,0.4888,38.1100,73,97,506486
1.7693,0.4888,38.1800,73,97,506489
1.7791,0.5083,38.1100,73,97,506492
1.7644,0.4888,38.1500,73,97,506497
1.8182,0.4985,37.8300,73,97,506500
1.7889,0.4839,38.0800,73,97,506503
1.7742,0.4839,38.1100,73,97,506507
1.7693,0.4888,38.1500,73,97,506510
1.7546,0.4888,38.1500,73,97,506513
1.8377,0.5083,37.9300,73,97,506517
1.7595,0.4936,38.1100,73,97,506520
1.7889,0.4888,38.0500,73,97,506523
1.7595,0.4888,38.1500,73,97,506527
1.7693,0.4888,38.1100,73,97,506530
1.8084,0.4985,37.9900,73,97,506533
1.7791,0.4888,38.2100,73,97,506536
1.8182,0.4888,38.0200,73,97,506541
1.7791,0.4888,38.2700,73,97,506544
1.7840,0.4888,38.1500,73,97,506547
1.8035,0.4888,38.0800,73,97,506551
1.7889,0.4888,38.1500,73,97,506554
1.8231,0.4936,38.0200,73,97,506557
1.7889,0.4985,37.9600,73,97,506561
1.7937,0.5083,38.1800,73,97,506564
1.8133,0.4936,38.0500,73,97,506567
1.7986,0.4985,38.1100,73,97,506570
1.8280,0.4839,37.9300,73,97,506574
1.8328,0.4888,38.0200,73,97,506577
1.8573,0.4888,38.1500,73,97,506580
1.9208,0.4985,38.0800,73,97,506585
1.9892,0.4888,38.1800,73,97,506588
2.1896,0.4985,37.9300,73,97,506591
2.4047,0.4888,38.1100,73,97,506595
2.7419,0.4888,38.1800,73,97,506598
3.1623,0.4888,38.2100,73,97,506601
3.5435,0.4888,38.1800,73,97,506605
3.9394,0.5034,37.8700,73,97,506608
4.0225,0.5230,38.0800,73,97,506611
4.0420,0.4936,38.1100,73,97,506614
3.8612,0.4985,38.1100,73,97,506618
3.4995,0.5132,38.1500,73,97,506621
3.1427,0.5034,37.9900,73,97,506625
2.6002,0.4888,38.1500,73,97,506629
2.1359,0.4985,38.0200,73,97,506632
1.7449,0.4888,38.2100,73,97,506635
1.5005,0.5083,38.1500,73,97,506639
1.4076,0.4985,37.9900,73,97,506642
1.3490,0.4936,38.1500,73,97,506645
1.3783,0.5034,37.9900,73,97,506648
1.3978,0.4643,38.1800,73,97,506652
1.4418,0.4888,38.1500,73,97,506655
1.4956,0.4985,37.5300,73,97,506658
1.5005,0.5132,38.1500,73,97,506662
1.5347,0.4888,38.0200,73,97,506665
1.5200,0.4839,38.1500,73,97,506669
1.5396,0.4888,38.1800,73,97,506673
1.5445,0.4888,38.0800,73,97,506676
1.5445,0.4888,38.1500,73,97,506679
1.5836,0.4936,37.9300,73,97,506683
1.5738,0.4985,38.1500,73,97,506686
1.6031,0.4839,38.1500,73,97,506689
1.6325,0.4936,38.1500,73,97,506692
1.6276,0.4888,38.1800,73,97,506696
1.6911,0.4985,37.8700,73,97,506699
1.6911,0.4936,38.0800,73,97,506702
1.6911,0.4888,38.1800,73,97,506706
1.7107,0.4888,38.1100,73,97,506710
1.7302,0.4888,38.2400,73,97,506713
1.7937,0.5181,37.9000,73,97,506717
1.7595,0.4936,38.1100,73,97,506720
1.7595,0.5083,38.1800,73,97,506723
1.7546,0.4888,38.1500,73,97,506727
1.7546,0.4888,38.2100,73,97,506730
1.7986,0.4888,37.9900,73,97,506733
1.7693,0.4888,38.1500,73,97,506736
1.7937,0.4936,37.3400,73,97,506740
1.8182,0.4839,38.1500,73,97,506743
1.7986,0.5083,38.1500,73,97,506746
1.8426,0.4936,38.0800,73,97,506750
1.8426,0.4888,38.1800,73,97,506754
1.8915,0.5230,38.0200,73,97,506757
1.8915,0.4888,38.1800,73,97,506761
1.9159,0.4888,38.0800,73,97,506764
1.9550,0.4839,38.0500,73,97,506767
1.9306,0.4888,38.0200,73,97,506771
1.9501,0.4888,37.9900,73,97,506774
1.9306,0.4839,38.0800,73,97,506777
1.9404,0.4888,38.1500,73,97,506780
1.9795,0.4936,38.0500,73,97,506784
1.9795,0.4888,38.1800,73,97,506787
2.0381,0.5034,37.9000,73,97,506790
2.0235,0.4936,38.1100,73,97,506795
2.0283,0.4888,37.3700,73,97,506798
2.0626,0.4936,38.1800,73,97,506801
2.0626,0.4888,38.1500,73,97,506805
2.1359,0.4985,37.9600,73,97,506808
2.1065,0.4839,38.1100,73,97,506811
2.1261,0.4839,38.2400,73,97,506815
2.1554,0.4888,38.1500,73,97,506818
2.1701,0.4888,37.5600,73,97,506821
2.2581,0.4985,37.9000,73,97,506824
2.2336,0.4985,38.1100,73,97,506828
2.2385,0.4888,38.0800,73,97,506831
2.2776,0.4888,38.1800,73,97,506834
2.2532,0.4888,38.1500,73,97,506839
2.3021,0.5083,37.9900,73,97,506842
2.2727,0.4643,38.1100,73,97,506845
2.2923,0.4936,38.0200,73,97,506849
2.2727,0.4888,38.1800,73,97,506852
2.2776,0.4888,38.1500,73,97,506855
2.3069,0.4888,38.0500,73,97,506858
2.2825,0.4888,38.1800,73,97,506862
2.2874,0.4985,38.0200,73,97,506865
2.2287,0.4888,38.0800,73,97,506868
2.1994,0.4888,38.1800,73,97,506872
2.1799,0.4839,38.1100,73,97,506875
2.1212,0.4888,38.2700,73,97,506878
2.1017,0.4936,37.9900,73,97,506883
2.0137,0.4888,38.1800,73,97,506886
1.9501,0.4936,38.1800,73,97,506889
1.9013,0.4936,38.0500,73,97,506892
1.8084,0.4888,38.1500,73,97,506896
1.8035,0.4936,37.9000,73,97,506899
1.7058,0.4936,38.0500,73,97,506902
1.6471,0.4888,38.1500,73,97,506906
1.6178,0.4936,38.1100,73,97,506909
1.5640,0.4888,38.1500,73,97,506912
1.5738,0.4985,37.8700,73,97,506916
1.5152,0.4888,38.1100,73,97,506919
1.4956,0.5181,38.1800,73,97,506923
1.4907,0.4888,38.1500,73,97,506927
1.4761,0.4888,37.4300,73,97,506930
1.5249,0.5083,37.9000,73,97,506933
1.4516,0.4936,37.5600,73,97,506936
1.4418,0.4888,38.0800,73,97,506940
1.4370,0.4888,38.1500,73,97,506943
1.4370,0.4936,38.1800,73,97,506946
1.4809,0.5034,37.9000,73,97,506950
1.4614,0.4936,38.3300,73,97,506953
1.4761,0.4936,38.0200,73,97,506956
1.4712,0.4888,38.1500,73,97,506960
1.4858,0.4888,38.1800,73,97,506963
1.5200,0.4985,38.1100,73,97,506967
1.5200,0.4888,38.1800,73,97,506971
1.5591,0.4985,38.0500,73,97,506974
1.5347,0.4643,38.1500,73,97,506977
1.5445,0.4839,38.1500,73,97,506980
1.5738,0.4936,38.1100,73,97,506984
1.5738,0.5132,38.1500,73,97,506987
1.6227,0.4936,37.9600,73,97,506990
1.6178,0.4888,38.0500,73,97,506994
1.6325,0.4839,38.1800,73,97,506997
1.6471,0.4936,38.0800,73,97,507000
1.6373,0.4888,38.1800,73,97,507004
1.6716,0.4985,37.9000,73,97,507008
1.6373,0.4888,38.1800,73,97,507011
1.6520,0.4888,38.1800,73,97,507015
1.6764,0.5376,38.0800,73,97,507018
1.6813,0.4839,38.1100,73,97,507021
1.7498,0.5034,37.8300,73,97,507024
1.7595,0.4985,38.0500,73,97,507028
1.7253,0.4839,38.1500,73,97,507031
1.7204,0.4985,38.1500,73,97,507034
1.7204,0.4888,38.1800,73,97,507038
1.7791,0.5034,37.9300,73,97,507041
1.7644,0.4936,37.9900,73,97,507045
1.7546,0.4888,38.1500,73,97,507048
1.7889,0.4839,38.0500,73,97,507052
1.7693,0.4888,38.2100,73,97,507056
1.7791,0.4888,38.1800,73,97,507059
1.7889,0.4888,38.0800,73,97,507062
1.7840,0.4888,38.2100,73,97,507066
1.8084,0.4888,37.9600,73,97,507069
1.7889,0.4888,38.1800,73,97,507072
1.7889,0.4936,38.1500,73,97,507075
1.7986,0.4936,38.0500,73,97,507079
1.7693,0.4888,38.1500,73,97,507082
1.8084,0.4985,37.9300,73,97,507085
1.7889,0.4936,38.0500,73,97,507089
1.7791,0.4839,38.2100,73,97,507092
1.7937,0.4643,38.1500,73,97,507096
1.7840,0.4888,38.1500,73,97,507100
1.8377,0.5034,37.8300,73,97,507103
1.7889,0.4888,38.1100,73,97,507106
1.7791,0.4790,38.1800,73,97,507109
1.7840,0.4888,38.1500,73,97,507113
1.7840,0.4888,38.2700,73,97,507116
1.8377,0.5083,37.9300,73,97,507119
1.7889,0.4936,37.9600,73,97,507123
1.7937,0.4985,38.0500,73,97,507126
1.7889,0.4888,38.1500,73,97,507129
1.7889,0.4888,38.1500,73,97,507133
1.8280,0.4985,38.0500,73,97,507137
1.7937,0.4888,38.1500,73,97,507140
1.7986,0.4936,38.0200,73,97,507144
1.7693,0.4888,38.1800,73,97,507147
1.7693,0.4985,38.1500,73,97,507150
1.7986,0.4985,37.9900,73,97,507153
1.7693,0.4888,38.1800,73,97,507157
1.7986,0.4936,38.0200,73,97,507160
1.7693,0.4888,38.0800,73,97,507163
1.7742,0.4888,38.1500,73,97,507167
1.7889,0.5083,38.1100,73,97,507170
1.7889,0.4888,38.1500,73,97,507173
1.8133,0.4936,37.9600,73,97,507177
1.8035,0.4888,38.0800,73,97,507181
1.8084,0.4839,38.1800,73,97,507184
1.7840,0.4936,38.1100,73,97,507188
1.7742,0.4985,38.1500,73,97,507191
1.8182,0.4985,37.9000,73,97,507194
1.7840,0.5034,38.0800,73,97,507197
1.7937,0.4888,38.1100,73,97,507201
1.8035,0.4936,38.1100,73,97,507204
1.7937,0.4936,38.1800,73,97,507207
1.8573,0.5083,37.8300,73,97,507211
1.8231,0.4936,38.3000,73,97,507214
1.8084,0.4888,38.1100,73,97,507217
1.8084,0.4888,38.2400,73,97,507222
1.7986,0.4888,38.1500,73,97,507225
1.8573,0.5083,37.9600,73,97,507228
1.8035,0.4936,37.5600,73,97,507231
1.8133,0.4839,38.0500,73,97,507235
1.8182,0.4888,38.1800,73,97,507238
1.8231,0.4888,38.1500,73,97,507241
1.8671,0.4985,38.0200,73,97,507245
1.8377,0.4888,38.1100,73,97,507248
1.8475,0.4936,38.0500,73,97,507251
1.8182,0.4888,38.1800,73,97,507255
1.8084,0.4839,38.1500,73,97,507258
1.8231,0.4888,38.1100,73,97,507261
1.8084,0.4888,38.1800,73,97,507266
1.8377,0.5034,38.0800,73,97,507269
1.8084,0.4643,38.1800,73,97,507272
1.8084,0.4888,38.2700,73,97,507275
1.8328,0.4839,38.0200,73,97,507279
1.8133,0.4888,38.1500,73,97,507282
1.8719,0.4936,37.9600,73,97,507285
1.8328,0.4888,38.0500,73,97,507289
1.8231,0.4888,38.1800,73,97,507292
1.8328,0.4936,38.1100,73,97,507295
1.8182,0.5083,38.1500,73,97,507299
1.8671,0.4985,37.9000,73,97,507302
1.8328,0.4888,38.1500,73,97,507305
1.8671,0.4888,38.1800,73,97,507310
1.8377,0.4888,38.1800,73,97,507313
1.8328,0.4936,38.1500,73,97,507316
1.8817,0.5083,37.8300,73,97,507319
1.8280,0.4985,38.1100,73,97,507323
1.8280,0.4888,38.1100,73,97,507326
1.8280,0.4888,38.0500,73,97,507329
1.8280,0.4888,38.1800,73,97,507333
1.8768,0.5034,38.0500,73,97,507336
1.8377,0.4936,38.0500,73,97,507339
1.8377,0.4888,38.0500,73,97,507343
1.8231,0.4888,37.8300,73,97,507346
1.8280,0.4888,38.1800,73,97,507350
1.8768,0.4985,37.9600,73,97,507353
1.8426,0.4888,38.1100,73,97,507357
1.8768,0.4936,37.9900,73,97,507360
1.8426,0.4888,38.2400,73,97,507363
1.8328,0.4936,38.1500,73,97,507367
1.8524,0.4985,38.0800,73,97,507370
1.8280,0.4839,38.1500,73,97,507373
1.8622,0.4888,38.0200,73,97,507377
1.8328,0.4888,38.3300,73,97,507380
1.8426,0.4839,38.1500,73,97,507383
1.8573,0.4888,38.2100,73,97,507387
1.8475,0.4839,38.1800,73,97,507390
1.8866,0.4936,37.9300,73,97,507394
1.8475,0.4839,38.1800,73,97,507397
1.8475,0.4888,38.1800,73,97,507401
1.8622,0.4985,38.1100,73,97,507404
1.8573,0.4888,38.2100,73,97,507407
1.9257,0.5034,37.8700,73,97,507411
1.9159,0.4936,38.0800,73,97,507414
1.9159,0.4888,37.4900,73,97,507417
1.9306,0.4888,38.1500,73,97,507421
1.9257,0.4888,38.1500,73,97,507424
1.9844,0.5132,37.9300,73,97,507427
1.9355,0.4936,38.0800,73,97,507431
1.9453,0.4985,38.0800,73,97,507435
1.9550,0.4888,38.1500,73,97,507438
1.9795,0.4888,38.1800,73,97,507441
2.0430,0.4888,38.0200,73,97,507445
2.0235,0.4839,38.1500,73,97,507448
2.0332,0.4936,38.0200,73,97,507451
2.0039,0.4888,38.1500,73,97,507455
1.9795,0.4888,38.1800,73,97,507458
1.9746,0.4936,38.1100,73,97,507461
1.9306,0.4839,38.1500,73,97,507465
1.9159,0.4985,37.3100,73,97,507468
1.8768,0.4888,38.1800,73,97,507471
1.8671,0.4888,38.1800,73,97,507475
1.8915,0.4936,38.0500,73,97,507479
1.8426,0.4888,38.4000,73,97,507482
1.8475,0.4936,37.9900,73,97,507485
1.8084,0.4839,38.0500,73,97,507489
1.7840,0.4839,38.1800,73,97,507492
1.7937,0.4936,38.0800,73,97,507495
1.7742,0.4888,38.1800,73,97,507499
1.8133,0.4888,37.9000,73,97,507502
1.7840,0.4936,38.1100,73,97,507505
1.7644,0.4888,38.1800,73,97,507509
1.7595,0.4839,38.1100,73,97,507512
1.7400,0.4888,38.1800,73,97,507515
1.7791,0.4985,37.8700,73,97,507518
1.7302,0.4643,38.1100,73,97,507523
1.7302,0.5083,38.1500,73,97,507526
1.7351,0.4888,38.1500,73,97,507529
1.7351,0.4936,38.1500,73,97,507533
1.7937,0.5034,37.9600,73,97,507536
1.7644,0.4888,38.1500,73,97,507539
1.7742,0.4985,38.0800,73,97,507543
1.7791,0.4888,37.8000,73,97,507546
1.7889,0.4985,38.1500,73,97,507549
1.8328,0.4985,37.9900,73,97,507553
1.7986,0.4936,38.1500,73,97,507556
1.8182,0.4936,38.0500,73,97,507559
1.7937,0.4839,38.1500,73,97,507563
1.7986,0.4839,38.1800,73,97,507567
1.8035,0.4985,38.0800,73,97,507570
1.7693,0.4985,38.0800,73,97,507573
1.8231,0.4985,38.0200,73,97,507577
1.7693,0.4888,38.1500,73,97,507580
1.7986,0.4936,38.1500,73,97,507583
1.8524,0.4888,38.1100,73,97,507587
1.9159,0.4888,38.0800,73,97,507590
2.0626,0.4888,37.9600,73,97,507593
2.2434,0.4888,38.1100,73,97,507597
2.5709,0.4936,38.1800,73,97,507600
2.9717,0.4936,38.1100,73,97,507603
3.3773,0.4839,38.1800,73,97,507607
3.7928,0.4985,37.9000,73,97,507611
3.9638,0.4936,38.0200,73,97,507614
4.0420,0.4888,38.1800,73,97,507617
3.9296,0.4936,38.1500,73,97,507621
3.6119,0.4936,38.1500,73,97,507624
3.3040,0.5034,37.8700,73,97,507627
2.7664,0.4985,38.1100,73,97,507631
2.2825,0.4888,38.1100,73,97,507634
1.8768,0.4888,38.1800,73,97,507637
1.5836,0.4936,38.1800,73,97,507641
1.4663,0.5034,37.9900,73,97,507644
1.3636,0.4888,38.1100,73,97,507648
1.3539,0.4839,38.0800,73,97,507651
1.3539,0.4888,38.1800,73,97,507655
1.4858,0.4888,38.1500,73,97,507658
1.5152,0.4936,38.1500,73,97,507662
1.5543,0.4936,38.1100,73,97,507665
1.5445,0.4888,38.1800,73,97,507668
1.5689,0.4936,38.0200,73,97,507672
1.5640,0.4985,38.0500,73,97,507675
1.5689,0.4839,38.1800,73,97,507678
1.5982,0.4839,38.0800,73,97,507682
1.6031,0.4888,38.1800,73,97,507685
1.6471,0.4985,37.9000,73,97,507688
1.6325,0.4888,38.0800,73,97,507693
1.6422,0.4888,38.1800,73,97,507696
1.6569,0.4888,37.3400,73,97,507699
1.6569,0.4888,38.1800,73,97,507702
1.7058,0.5034,37.8700,73,97,507706
1.6862,0.4936,38.0800,73,97,507709
1.7107,0.4839,38.1500,73,97,507712
1.7253,0.4985,38.1500,73,97,507716
1.7400,0.4888,38.1800,73,97,507719
1.8035,0.5034,37.9300,73,97,507722
1.7791,0.4985,38.1100,73,97,507726
1.7889,0.4888,38.0500,73,97,507729
1.7791,0.4985,38.1800,73,97,507732
1.7840,0.4888,38.1800,73,97,507737
1.8377,0.4985,37.9600,73,97,507740
1.8231,0.4936,38.1500,73,97,507743
1.8622,0.4936,38.0200,73,97,507746
1.8622,0.4936,38.1500,73,97,507750
1.8671,0.4888,38.1800,73,97,507753
1.9013,0.4985,38.0500,73,97,507756
1.8817,0.4839,38.1800,73,97,507760
1.9257,0.4936,38.0500,73,97,507763
1.8964,0.4790,38.1800,73,97,507766
1.9159,0.4888,38.2100,73,97,507770
1.9404,0.4839,38.1100,73,97,507773
1.9550,0.4839,38.1800,73,97,507777
1.9990,0.4936,37.9300,73,97,507780
1.9941,0.4839,38.2100,73,97,507784
2.0186,0.4888,38.2400,73,97,507787
2.0577,0.4985,38.1800,73,97,507790
2.0626,0.4888,38.1800,73,97,507794
2.1359,0.4985,37.9000,73,97,507797
2.1212,0.4888,38.0800,73,97,507800
2.1261,0.4888,38.1800,73,97,507804
2.1701,0.4839,38.1500,73,97,507807
2.1457,0.4888,38.1800,73,97,507810
2.2141,0.5034,37.8700,73,97,507814
2.1799,0.4936,38.0800,73,97,507817
2.1896,0.4839,38.1800,73,97,507821
2.2141,0.5181,38.1500,73,97,507824
2.2336,0.4643,38.2100,73,97,507828
2.3069,0.5181,37.9900,73,97,507831
2.2581,0.4888,38.1500,73,97,507834
2.2776,0.4888,38.0800,73,97,507838
2.2630,0.4985,38.1500,73,97,507841
2.2678,0.4888,38.2100,73,97,507844
2.2972,0.5083,38.0500,73,97,507848
2.2630,0.4790,38.1500,73,97,507851
2.2776,0.4936,38.0200,73,97,507854
2.2287,0.4888,38.1500,73,97,507857
2.2141,0.4888,38.1800,73,97,507862
2.2239,0.5034,38.0200,73,97,507865
2.1603,0.4888,38.1800,73,97,507868
2.1457,0.4936,38.0500,73,97,507872
2.0626,0.4839,38.1500,73,97,507875
2.0283,0.4936,38.1500,73,97,507878
1.9795,0.4936,38.1100,73,97,507882
1.9062,0.4888,38.1800,73,97,507885
1.8671,0.4936,37.9600,73,97,507888
1.7693,0.5083,38.0800,73,97,507892
1.7155,0.4888,38.1800,73,97,507895
1.6667,0.4936,38.1500,73,97,507898
1.6178,0.4888,38.1800,73,97,507901
1.6227,0.4985,37.9300,73,97,507906
1.5494,0.4888,38.1500,73,97,507909
1.5298,0.4643,38.1800,73,97,507912
1.5103,0.5132,38.1500,73,97,507916
1.4761,0.4888,38.2100,73,97,507919
1.5005,0.5181,37.8700,73,97,507922
1.4663,0.4936,38.0500,73,97,507926
1.4516,0.4888,38.1500,73,97,507929
1.4565,0.4888,38.1500,73,97,507932
1.4614,0.4888,38.1500,73,97,507936
1.5054,0.4985,37.9900,73,97,507939
1.4663,0.4888,38.2700,73,97,507942
1.5005,0.4985,38.0500,73,97,507945
1.4614,0.4888,38.1500,73,97,507950
1.4712,0.4888,38.0800,73,97,507953
1.5249,0.4936,38.0200,73,97,507956
1.4907,0.4888,38.1500,73,97,507960
1.5200,0.4936,38.0200,73,97,507963
1.5152,0.4936,38.1800,73,97,507966
1.5396,0.4888,38.1800,73,97,507970
1.5738,0.4936,38.1100,73,97,507973
1.5787,0.4888,38.1500,73,97,507976
1.6080,0.5132,38.0200,73,97,507980
1.5885,0.4839,38.1800,73,97,507983
1.5982,0.4839,38.1500,73,97,507986
1.6276,0.4936,38.0200,73,97,507990
1.6080,0.4936,38.1500,73,97,507994
1.6422,0.4985,37.9000,73,97,507997
1.6325,0.4936,38.0800,73,97,508000
1.6276,0.4936,38.1800,73,97,508004
1.6471,0.4936,38.1800,73,97,508007
1.6471,0.4839,38.1500,73,97,508010
1.7058,0.5034,37.8700,73,97,508014
1.6862,0.4985,38.1100,73,97,508017
1.7009,0.4839,38.1500,73,97,508020
1.7107,0.4888,38.2100,73,97,508024
1.7107,0.4839,38.1800,73,97,508027
1.7693,0.5083,37.9300,73,97,508030
1.7351,0.4936,38.1100,73,97,508034
1.7498,0.4888,38.0800,73,97,508038
1.7449,0.4936,38.1500,73,97,508041
1.7400,0.4888,38.1800,73,97,508044
1.7644,0.4985,38.1100,73,97,508048
1.7351,0.4985,38.1500,73,97,508051
1.7400,0.4936,37.9900,73,97,508054
1.7400,0.4985,38.1800,73,97,508058
1.7351,0.4888,38.1800,73,97,508061
1.7742,0.4985,38.0200,73,97,508064
1.7546,0.4888,38.2400,73,97,508068
1.7791,0.4936,38.0200,73,97,508071
1.7449,0.4839,38.1100,73,97,508075
1.7546,0.4888,38.1500,73,97,508078
1.7644,0.4936,38.0800,73,97,508082
1.7449,0.4888,38.1800,73,97,508085
1.7889,0.4985,37.9600,73,97,508088
1.7449,0.4888,38.0800,73,97,508092
1.7449,0.4790,38.1500,73,97,508095
1.7546,0.4936,38.1100,73,97,508098
1.7693,0.4936,38.2400,73,97,508102
1.8133,0.4985,37.9000,73,97,508105
1.7791,0.4888,38.1500,73,97,508108
1.7889,0.4839,38.1500,73,97,508112
1.7986,0.4936,38.0500,73,97,508115
1.7840,0.4839,38.1800,73,97,508119
1.8231,0.5034,37.8700,73,97,508122
1.7742,0.5083,38.0500,73,97,508126
1.7498,0.4888,38.1100,73,97,508129
1.7498,0.5034,38.1500,73,97,508132
1.7595,0.4839,38.1800,73,97,508136
1.8182,0.5034,37.9300,73,97,508139
1.7889,0.4936,38.1500,73,97,508142
1.7986,0.4888,38.0500,73,97,508146
1.7791,0.5181,38.1800,73,97,508149
1.7644,0.4888,38.2400,73,97,508152
1.7937,0.4936,38.0200,73,97,508156
1.7595,0.4839,38.1500,73,97,508160
1.7742,0.4936,38.0200,73,97,508163
1.7400,0.4936,38.1500,73,97,508166
1.7449,0.4888,38.1800,73,97,508170
1.7595,0.4888,38.1100,73,97,508173
1.7400,0.4888,38.1800,73,97,508176
1.7742,0.4888,38.0800,73,97,508180
1.7546,0.4936,38.1800,73,97,508183
1.7595,0.4888,38.1800,73,97,508186
1.7840,0.4936,38.0500,73,97,508190
1.7595,0.4888,38.1800,73,97,508193
1.7937,0.4985,37.9600,73,97,508196
1.7791,0.4888,38.0500,73,97,508199
1.7742,0.4888,38.1800,73,97,508204
1.7840,0.4888,38.1100,73,97,508207
1.7840,0.4985,38.1800,73,97,508210
1.8133,0.4985,37.9000,73,97,508214
1.8182,0.4936,38.0800,73,97,508217
1.7937,0.4839,38.1800,73,97,508220
1.8035,0.4888,38.1500,73,97,508224
1.7937,0.4888,38.1500,73,97,508227
1.8328,0.5034,37.9300,73,97,508230
1.7742,0.4741,38.1800,73,97,508234
1.7644,0.4888,38.0500,73,97,508237
1.7644,0.4888,38.2100,73,97,508240
1.7693,0.4839,38.1800,73,97,508243
1.8231,0.5034,38.3000,73,97,508248
1.7937,0.4888,38.1500,73,97,508251
1.8084,0.4888,38.0500,73,97,508254
1.7937,0.4888,38.2400,73,97,508258
1.8133,0.4888,38.1800,73,97,508261
1.8328,0.4985,37.9600,73,97,508264
1.8426,0.4985,38.1100,73,97,508268
1.8182,0.4888,38.1800,73,97,508271
1.8231,0.4936,38.3000,73,97,508275
1.7791,0.4888,38.1100,73,97,508278
1.7742,0.4888,38.2700,73,97,508281
1.7937,0.5034,38.1800,73,97,508285
1.7986,0.4888,38.1800,73,97,508289
1.8475,0.4985,37.9000,73,97,508292
1.7986,0.4888,38.1500,73,97,508295
1.7986,0.4888,38.2100,73,97,508299
1.7986,0.4888,38.1500,73,97,508302
1.7889,0.4888,38.3600,73,97,508305
1.8573,0.5083,37.9300,73,97,508309
1.8133,0.4936,38.2400,73,97,508312
1.8182,0.4936,38.1100,73,97,508315
1.7889,0.4888,38.1500,73,97,508319
1.7986,0.4839,38.1800,73,97,508322
1.8328,0.4985,37.9900,73,97,508325
1.8182,0.4839,38.1500,73,97,508329
1.8231,0.4936,38.0500,73,97,508333
1.8084,0.4888,38.1500,73,97,508336
1.8280,0.4888,38.1800,73,97,508339
1.8377,0.4936,38.0200,73,97,508343
1.8182,0.5034,38.1500,73,97,508346
1.8573,0.4985,38.0500,73,97,508349
1.8328,0.4888,38.1800,73,97,508353
1.8719,0.4888,38.1800,73,97,508356
1.8377,0.4888,38.1100,73,97,508359
1.8182,0.5034,38.1500,73,97,508363
1.8377,0.4936,38.0200,73,97,508366
1.8133,0.4888,38.1800,73,97,508369
1.8280,0.4888,38.1800,73,97,508374
1.8524,0.4936,38.1100,73,97,508377
1.8377,0.4839,38.1800,73,97,508380
1.8671,0.4985,37.2800,73,97,508383
1.8426,0.4888,38.0800,73,97,508387
1.8133,0.4888,38.1800,73,97,508390
1.8182,0.4936,38.1800,73,97,508393
1.7937,0.4888,38.1800,73,97,508397
1.8475,0.5279,37.8300,73,97,508400
1.8084,0.4936,38.1100,73,97,508403
1.8084,0.4936,38.1500,73,97,508407
1.8182,0.4839,38.1500,73,97,508410
1.8182,0.4888,38.1800,73,97,508413
1.8768,0.5083,37.9900,73,97,508418
1.8377,0.4888,38.1500,73,97,508421
1.8524,0.4888,38.0500,73,97,508424
1.8622,0.4888,38.2100,73,97,508427
1.8768,0.4888,38.1800,73,97,508431
1.9453,0.4936,38.0800,73,97,508434
1.8915,0.4888,38.1800,73,97,508437
1.9257,0.4936,38.0200,73,97,508441
1.9062,0.4888,38.2100,73,97,508444
1.9062,0.4888,38.2100,73,97,508447
1.9501,0.4839,38.0200,73,97,508451
1.9306,0.4888,38.1500,73,97,508454
1.9844,0.4985,38.0500,73,97,508457
1.9746,0.4839,38.1500,73,97,508462
1.9892,0.4985,38.1800,73,97,508465
2.0039,0.4936,38.1800,73,97,508468
1.9746,0.4888,38.2400,73,97,508471
1.9844,0.4985,37.9600,73,97,508475
1.9208,0.4888,38.3300,73,97,508478
1.8964,0.4936,38.1500,73,97,508481
1.8817,0.4936,38.1500,73,97,508485
1.8573,0.4839,38.1800,73,97,508488
1.8964,0.5034,37.9000,73,97,508491
1.8426,0.4888,38.1500,73,97,508495
1.8475,0.4839,38.2400,73,97,508498
1.8426,0.4936,37.4300,73,97,508502
1.8182,0.4888,38.1800,73,97,508506
1.8426,0.5034,37.9000,73,97,508509
1.7742,0.4936,38.1100,73,97,508512
1.7400,0.4888,38.1500,73,97,508515
1.7155,0.4888,38.1500,73,97,508519
1.7107,0.4888,38.1800,73,97,508522
1.7498,0.4985,37.9600,73,97,508525
1.7204,0.4888,38.1500,73,97,508529
1.7351,0.4936,38.0200,73,97,508532
1.7449,0.4888,38.1800,73,97,508535
1.7204,0.4888,38.1800,73,97,508539
1.7449,0.5083,38.0500,73,97,508542
1.7204,0.4985,38.1800,73,97,508546
1.7546,0.4936,38.0200,73,97,508550
1.7400,0.4888,38.1800,73,97,508553
1.7400,0.4888,38.2100,73,97,508556
1.7546,0.4888,38.1500,73,97,508559
1.7693,0.4888,38.1800,73,97,508563
1.7840,0.4936,38.0500,73,97,508566
1.7595,0.4936,38.2100,73,97,508569
1.7546,0.4888,38.1800,73,97,508573
1.7742,0.5132,38.0800,73,97,508576
1.7498,0.4888,38.2100,73,97,508579
1.7889,0.4985,37.9300,73,97,508583
1.7742,0.4936,38.0800,73,97,508587
1.7742,0.4888,38.1800,73,97,508590
1.7937,0.4936,38.1500,73,97,508594
1.7937,0.4888,38.2100,73,97,508597
1.8768,0.5034,37.9000,73,97,508600
1.8719,0.4888,38.1500,73,97,508603
1.9257,0.4888,38.1800,73,97,508607
2.0479,0.4643,38.1800,73,97,508610
2.2483,0.4888,38.2100,73,97,508613
2.6295,0.5083,37.9300,73,97,508617
2.9619,0.4936,38.1500,73,97,508620
3.3627,0.4888,38.1100,73,97,508623
3.6413,0.4888,38.1800,73,97,508627
3.8025,0.4888,38.1800,73,97,508631
3.9101,0.4985,38.0500,73,97,508634
3.7243,0.4936,38.2400,73,97,508638
3.4653,0.4839,38.0500,73,97,508641
3.0450,0.4888,38.3300,73,97,508644
2.6197,0.4888,38.1800,73,97,508647
2.2385,0.4985,37.9900,73,97,508651
1.8280,0.4936,38.1800,73,97,508654
1.5787,0.4839,38.0800,73,97,508657
1.3881,0.4839,38.1800,73,97,508661
1.3148,0.4888,38.1800,73,97,508664
1.3148,0.4936,38.1500,73,97,508667
1.3148,0.4985,38.1800,73,97,508672
1.3734,0.4936,37.9900,73,97,508675
1.3978,0.4888,38.1100,73,97,508678
1.4223,0.4888,38.1800,73,97,508682
1.4712,0.4985,38.1500,73,97,508685
1.4761,0.4839,38.1800,73,97,508688
1.5103,0.4985,38.0200,73,97,508691
1.4858,0.4839,38.1500,73,97,508695
1.5054,0.4888,38.2100,73,97,508698
1.5298,0.4985,38.1800,73,97,508701
1.5347,0.4888,38.3600,73,97,508705
1.5934,0.4985,37.8700,73,97,508708
1.5787,0.4936,38.0800,73,97,508711
1.5836,0.4888,38.1100,73,97,508716
1.6031,0.4888,38.1800,73,97,508719
1.6227,0.4985,38.1800,73,97,508722
1.6960,0.5034,37.9900,73,97,508726
1.6716,0.5230,38.2100,73,97,508729
1.6813,0.4888,38.0500,73,97,508732
1.6911,0.4888,37.4300,73,97,508735
1.6960,0.4790,38.1800,73,97,508739
1.7400,0.4985,38.0200,73,97,508742
1.7253,0.4888,38.2700,73,97,508745
1.7546,0.5083,38.0500,73,97,508749
1.7351,0.4839,38.1800,73,97,508752
1.7449,0.4888,38.2100,73,97,508755
1.7840,0.4888,38.1100,73,97,508760
1.7742,0.4888,38.1800,73,97,508763
1.8133,0.4839,38.0200,73,97,508766
1.7937,0.4888,38.1800,73,97,508769
1.8084,0.4888,38.2400,73,97,508773
1.8475,0.4936,38.0800,73,97,508776
1.8328,0.4888,38.2400,73,97,508779
1.8768,0.4888,37.9600,73,97,508783
1.8768,0.4936,38.0500,73,97,508786
1.8866,0.4888,38.1500,73,97,508789
1.9110,0.4936,38.1100,73,97,508793
1.9013,0.4888,38.1800,73,97,508796
1.9795,0.4936,37.9300,73,97,508800
1.9110,0.5083,38.1100,73,97,508804
1.9159,0.4790,38.1500,73,97,508807
1.9306,0.4888,38.1800,73,97,508810
1.9501,0.4888,38.0800,73,97,508813
2.0235,0.5083,37.9000,73,97,508817
1.9844,0.4888,38.1500,73,97,508820
1.9941,0.4888,38.1500,73,97,508823
2.0088,0.4888,38.1800,73,97,508827
2.0235,0.4888,38.1500,73,97,508830
2.1212,0.5034,38.0200,73,97,508833
2.0821,0.4936,38.1500,73,97,508837
2.1114,0.4888,38.0200,73,97,508840
2.1212,0.4888,38.2100,73,97,508844
2.1457,0.4888,38.1800,73,97,508847
2.2434,0.4936,37.9900,73,97,508851
2.1896,0.4888,38.3000,73,97,508854
2.2239,0.4936,38.0200,73,97,508857
2.2092,0.4888,38.1800,73,97,508861
2.2190,0.4888,38.1800,73,97,508864
2.2532,0.5230,38.0800,73,97,508867
2.2190,0.4888,38.1800,73,97,508871
2.2483,0.4936,38.0800,73,97,508874
2.2092,0.4839,37.9600,73,97,508877
2.1554,0.4839,38.1800,73,97,508881
2.1114,0.4888,38.2700,73,97,508884
2.0772,0.4888,38.1800,73,97,508888
2.0235,0.4643,38.2100,73,97,508892
2.0283,0.4985,37.9000,73,97,508895
1.9648,0.4839,38.0800,73,97,508898
1.8719,0.4839,38.1800,73,97,508902
1.8182,0.4888,38.1500,73,97,508905
1.7595,0.4888,38.1800,73,97,508908
1.7546,0.5181,37.9300,73,97,508912
1.6667,0.4936,38.1800,73,97,508915
1.6178,0.4888,38.1100,73,97,508918
1.5738,0.4888,38.1800,73,97,508922
1.5347,0.4888,38.1800,73,97,508925
1.5347,0.4839,38.0500,73,97,508929
1.4809,0.4888,38.2400,73,97,508932
1.4858,0.5230,38.1100,73,97,508936
1.4614,0.4839,38.1800,73,97,508939
1.4516,0.4985,38.1800,73,97,508942
1.4614,0.4936,38.1500,73,97,508946
1.4370,0.5230,38.1500,73,97,508949
1.4565,0.4985,38.0800,73,97,508952
1.4223,0.4888,38.2100,73,97,508956
1.4663,0.4888,38.1800,73,97,508959
1.4712,0.4985,38.0500,73,97,508962
1.4663,0.4839,38.1800,73,97,508966
1.5005,0.4936,37.9900,73,97,508969
1.4956,0.4888,38.0800,73,97,508973
1.5005,0.4888,38.1800,73,97,508976
1.5200,0.4936,38.1500,73,97,508980
1.5152,0.4839,38.1800,73,97,508983
1.5396,0.4985,37.9900,73,97,508986
1.5298,0.4888,38.1500,73,97,508990
1.5200,0.4888,38.1800,73,97,508993
1.5396,0.4888,38.1500,73,97,508996
1.5543,0.4888,38.1800,73,97,509000
1.6129,0.5034,37.9300,73,97,509003
1.5836,0.4936,38.1500,73,97,509006
1.5934,0.4643,38.1800,73,97,509010
1.6031,0.4985,38.1800,73,97,509014
1.6129,0.4888,38.1100,73,97,509017
1.6862,0.5132,37.9900,73,97,509020
1.6667,0.4936,38.1500,73,97,509024
1.6862,0.4936,38.0500,73,97,509027
1.6862,0.4888,38.1800,73,97,509030
1.7009,0.4936,38.2100,73,97,509034
1.7498,0.4839,38.0200,73,97,509037
1.7155,0.4888,38.2100,73,97,509040
1.7449,0.4839,38.0500,73,97,509044
1.7204,0.4888,38.2100,73,97,509047
1.7253,0.4936,38.2100,73,97,509050
1.7546,0.4985,38.0800,73,97,509054
1.7400,0.4888,38.2100,73,97,509058
1.7693,0.4936,38.0200,73,97,509061
1.7449,0.4888,38.1800,73,97,509064
1.7400,0.4839,38.2400,73,97,509068
1.7498,0.4888,38.1100,73,97,509071
1.7351,0.4888,38.1800,73,97,509074
1.7742,0.5083,37.9600,73,97,509078
1.7449,0.4839,38.1800,73,97,509081
1.7546,0.4888,38.0500,73,97,509084
1.7791,0.4936,38.0800,73,97,509088
1.7644,0.4888,38.2700,73,97,509091
1.8231,0.4985,37.9000,73,97,509094
1.8035,0.4936,38.0500,73,97,509097
1.7937,0.4888,38.2700,73,97,509102
1.7889,0.4936,38.1500,73,97,509105
1.7693,0.4888,38.0500,73,97,509108
1.8084,0.4985,37.9000,73,97,509112
1.7595,0.4936,38.1100,73,97,509115
1.7595,0.4839,38.1500,73,97,509118
1.7693,0.4839,38.1800,73,97,509122
1.7693,0.4888,38.2400,73,97,509125
1.8133,0.5083,38.0200,73,97,509128
1.7693,0.4643,38.2400,73,97,509131
1.7791,0.4936,38.0200,73,97,509135
1.7644,0.4888,38.1800,73,97,509138
1.7644,0.4888,38.2100,73,97,509142
1.7986,0.4985,38.1100,73,97,509146
1.7840,0.4888,38.0800,73,97,509149
1.8084,0.5181,38.0500,73,97,509152
1.7840,0.4888,38.1800,73,97,509156
1.7791,0.4888,38.1500,73,97,509159
1.7986,0.5034,38.0500,73,97,509162
1.7546,0.4888,38.2100,73,97,509166
1.7791,0.5083,38.0500,73,97,509169
1.7595,0.4839,38.1100,73,97,509172
1.7595,0.4888,38.1500,73,97,509175
1.7742,0.4936,38.1100,73,97,509179
1.7644,0.4985,38.1500,73,97,509182
1.7986,0.4985,37.9300,73,97,509186
1.7693,0.4936,38.0800,73,97,509190
1.7693,0.4936,38.2100,73,97,509193
1.7742,0.4936,38.1800,73,97,509196
1.7644,0.4888,38.1800,73,97,509200
1.8035,0.4985,37.9600,73,97,509203
1.7644,0.4839,38.1800,73,97,509206
1.7791,0.4888,38.2100,73,97,509210
1.7889,0.5034,38.1800,73,97,509213
1.7791,0.4839,38.2400,73,97,509216
1.8328,0.5034,37.9300,73,97,509220
1.7986,0.4839,38.1100,73,97,509223
1.7889,0.4888,38.0800,73,97,509227
1.7986,0.4839,38.1800,73,97,509230
1.7986,0.4888,38.1800,73,97,509234
1.8328,0.5230,37.9900,73,97,509237
1.8035,0.4888,38.1800,73,97,509240
1.8182,0.4985,38.0800,73,97,509244
1.8084,0.4888,38.1800,73,97,509247
1.7937,0.4888,38.1800,73,97,509250
1.8133,0.4985,38.0500,73,97,509254
1.7889,0.4888,38.1800,73,97,509257
1.8133,0.4985,38.0500,73,97,509260
1.7889,0.4888,38.1800,73,97,509263
1.7986,0.4888,38.2100,73,97,509267
1.8182,0.5181,38.1100,73,97,509271
1.8280,0.4888,38.2100,73,97,509274
1.8524,0.4936,38.0200,73,97,509278
1.8231,0.4888,38.2100,73,97,509281
1.8280,0.4888,38.2100,73,97,509284
1.8719,0.4839,38.0800,73,97,509288
1.8133,0.4888,38.2100,73,97,509291
1.8817,0.4936,37.9300,73,97,509294
1.8328,0.4936,38.0800,73,97,509298
1.8231,0.4888,38.2400,73,97,509301
1.8377,0.4936,38.1800,73,97,509304
1.8328,0.5034,38.1800,73,97,509307
1.8964,0.5034,37.8700,73,97,509312
1.8524,0.5181,38.1100,73,97,509315
1.8426,0.4839,38.1500,73,97,509318
1.8426,0.4888,38.3300,73,97,509322
1.8475,0.4839,38.2100,73,97,509325
1.9013,0.5034,37.9900,73,97,509328
1.8719,0.4888,38.1800,73,97,509332
1.8866,0.4888,38.1100,73,97,509335
1.8768,0.4888,38.1800,73,97,509338
1.8768,0.4643,38.2100,73,97,509342
1.9110,0.4985,38.1100,73,97,509345
1.8964,0.4839,38.1800,73,97,509348
1.9257,0.4936,38.0200,73,97,509351
1.9159,0.4888,38.1800,73,97,509356
1.9501,0.4888,38.1100,73,97,509359
1.9990,0.5034,38.0200,73,97,509362
1.9697,0.4888,38.1800,73,97,509366
1.9892,0.4888,38.1100,73,97,509369
1.9453,0.4839,38.1500,73,97,509372
1.9159,0.4839,38.2100,73,97,509376
1.9013,0.4936,38.1100,73,97,509379
1.8719,0.4888,38.2700,73,97,509382
1.9257,0.4936,37.9600,73,97,509386
1.8573,0.4936,38.1500,73,97,509389
1.8475,0.4888,38.1800,73,97,509392
1.8524,0.4936,38.1500,73,97,509396
1.8377,0.4936,38.2100,73,97,509400
1.8622,0.4985,37.9300,73,97,509403
1.7986,0.4936,38.1500,73,97,509406
1.7840,0.4839,38.1800,73,97,509410
1.7742,0.4888,38.1800,73,97,509413
1.7449,0.4888,38.1800,73,97,509416
1.7986,0.5181,37.9300,73,97,509420
1.7595,0.4839,38.1100,73,97,509423
1.7498,0.4888,37.6500,73,97,509426
1.7449,0.4888,38.2100,73,97,509430
1.7498,0.4888,38.1800,73,97,509433
1.7791,0.4936,37.9900,73,97,509436
1.7498,0.4888,38.1500,73,97,509441
1.7840,0.4888,38.0500,73,97,509444
1.7351,0.4839,38.1800,73,97,509447
1.7449,0.4936,38.1800,73,97,509450
1.7791,0.4936,38.0800,73,97,509454
1.7644,0.4888,38.3300,73,97,509457
1.8182,0.4839,38.0800,73,97,509460
1.7840,0.4888,38.0500,73,97,509464
1.7889,0.4985,38.1800,73,97,509467
1.8035,0.4888,38.1500,73,97,509470
1.7937,0.4888,38.1100,73,97,509474
1.8231,0.4888,37.9900,73,97,509477
1.7840,0.4888,38.1800,73,97,509480
1.7693,0.4839,38.1800,73,97,509485
1.7742,0.4936,38.1500,73,97,509488
1.9110,0.4985,38.1800,73,97,509492
2.0430,0.4888,38.1800,73,97,509495
2.3460,0.5034,38.2400,73,97,509498
2.6295,0.4839,38.1500,73,97,509501
3.0254,0.4888,38.0800,73,97,509505
3.4115,0.4888,38.3300,73,97,509508
3.7048,0.4839,38.1800,73,97,509511
3.9785,0.4985,38.0200,73,97,509515
3.9687,0.4888,38.1500,73,97,509518
3.8514,0.4839,38.0500,73,97,509521
3.4897,0.4888,38.2100,73,97,509526
3.0694,0.4888,38.2100,73,97,509529
2.6393,0.4936,38.1500,73,97,509532
2.1554,0.4888,38.0800,73,97,509535
1.8035,0.5083,38.0200,73,97,509539
1.5249,0.4839,38.2100,73,97,509542
1.3978,0.4888,37.5300,73,97,509545
1.3734,0.4839,38.0500,73,97,509549
1.3539,0.4888,38.2100,73,97,509552
1.3978,0.4888,38.0200,73,97,509555
1.4321,0.4888,38.1100,73,97,509559
1.4712,0.4839,38.2100,73,97,509562
1.5249,0.4936,38.1800,73,97,509565
1.5298,0.4985,38.1800,73,97,509570
1.5738,0.4985,37.9600,73,97,509573
1.5494,0.4936,38.1100,73,97,509576
1.5543,0.4888,38.1800,73,97,509579
1.5836,0.4936,38.1100,73,97,509583
1.6080,0.4888,38.1800,73,97,509586
1.6373,0.5034,37.9300,73,97,509589
1.5885,0.4888,38.1800,73,97,509593
1.5836,0.4839,38.1500,73,97,509596
1.5787,0.5034,38.2400,73,97,509599
1.5885,0.4888,38.1800,73,97,509603
1.6520,0.5034,37.9900,73,97,509606
1.6325,0.4936,38.1500,73,97,509609
1.6520,0.4888,38.2100,73,97,509614
1.6862,0.4888,38.1800,73,97,509617
1.6813,0.4888,38.1100,73,97,509620
1.7302,0.4985,37.9900,73,97,509624
1.7107,0.4888,37.4000,73,97,509627
1.7449,0.4936,38.0200,73,97,509630
1.7302,0.4888,38.1800,73,97,509633
1.7449,0.4888,38.1800,73,97,509637
1.7840,0.4985,38.0800,73,97,509640
1.7791,0.4888,38.1800,73,97,509643
1.8182,0.4936,38.0800,73,97,509647
1.7986,0.4888,38.1800,73,97,509650
1.8231,0.4936,38.2100,73,97,509654
1.8524,0.4888,38.1100,73,97,509658
1.8671,0.4888,38.1800,73,97,509661
1.9110,0.4936,37.9300,73,97,509664
1.8964,0.4888,38.1800,73,97,509667
1.9110,0.4888,38.2400,73,97,509671
1.9306,0.4985,38.1500,73,97,509674
1.9159,0.4888,38.2100,73,97,509677
1.9990,0.5034,37.9000,73,97,509681
1.9746,0.4936,38.1100,73,97,509684
1.9648,0.4888,38.2100,73,97,509687
1.9941,0.4839,38.1800,73,97,509691
2.0039,0.4888,38.1800,73,97,509694
2.0821,0.5034,37.8700,73,97,509698
2.0626,0.4888,38.1100,73,97,509702
2.0723,0.4839,38.1500,73,97,509705
2.0919,0.4888,38.1800,73,97,509708
2.0919,0.4888,38.1800,73,97,509711
2.1505,0.5034,37.9300,73,97,509715
2.1017,0.4936,38.1800,73,97,509718
2.1163,0.4888,38.0800,73,97,509721
2.1212,0.4888,38.2100,73,97,509725
2.1457,0.4888,38.1800,73,97,509728
2.2043,0.4888,38.0800,73,97,509731
2.2043,0.4839,38.1800,73,97,509735
2.2385,0.4936,38.0500,73,97,509739
2.2239,0.4790,38.2100,73,97,509742
2.2483,0.4888,38.2100,73,97,509745
2.2923,0.5034,38.2700,73,97,509749
2.2727,0.4888,38.2100,73,97,509752
2.3021,0.4888,38.0500,73,97,509755
2.2678,0.4936,38.1500,73,97,509759
2.2678,0.4839,38.1800,73,97,509762
2.2776,0.4985,38.1100,73,97,509765
2.2336,0.4888,38.1800,73,97,509769
2.2581,0.4936,37.9900,73,97,509772
2.1896,0.4888,38.1100,73,97,509775
2.1652,0.4888,38.2100,73,97,509779
2.1408,0.4936,38.2400,73,97,509783
2.0821,0.4888,38.2100,73,97,509786
2.0870,0.4985,37.9300,73,97,509789
1.9746,0.5230,38.1800,73,97,509793
1.9208,0.4839,38.2100,73,97,509796
1.8671,0.4936,38.1500,73,97,509799
1.7986,0.4888,38.2100,73,97,509803
1.7937,0.5034,37.8700,73,97,509806
1.7107,0.4888,38.1100,73,97,509809
1.6471,0.4643,38.1500,73,97,509813
1.6031,0.4839,38.0200,73,97,509816
1.5689,0.4888,38.2400,73,97,509819
1.5738,0.5132,37.9600,73,97,509824
1.5005,0.4936,38.1800,73,97,509827
1.4761,0.4888,38.0800,73,97,509830
1.4467,0.4888,38.1800,73,97,509833
1.4321,0.4888,38.2100,73,97,509837
1.4565,0.4839,38.0500,73,97,509840
1.4272,0.4888,38.1800,73,97,509843
1.4467,0.5279,38.0500,73,97,509847
1.4516,0.4888,38.2100,73,97,509850
1.4272,0.4888,38.2100,73,97,509853
1.4467,0.4888,38.1100,73,97,509857
1.4516,0.4888,38.3600,73,97,509860
1.4809,0.4936,38.0500,73,97,509863
1.4614,0.4888,38.1800,73,97,509868
1.4761,0.4888,38.2100,73,97,509871
1.5103,0.4936,38.0500,73,97,509874
1.5054,0.4839,38.2100,73,97,509877
1.5445,0.4985,37.9600,73,97,509881
1.5347,0.4936,38.1100,73,97,509884
1.5445,0.4888,38.2100,73,97,509887
1.5591,0.5376,38.1500,73,97,509891
1.5640,0.4839,38.1800,73,97,509894
1.6227,0.5034,38.0500,73,97,509897
1.6178,0.4985,38.1100,73,97,509901
1.5982,0.4839,38.1800,73,97,509904
1.6178,0.4790,38.1800,73,97,509907
1.6325,0.4839,38.2100,73,97,509912
1.6862,0.5083,37.9300,73,97,509915
1.6569,0.4936,38.1800,73,97,509918
1.6716,0.4888,38.0800,73,97,509921
1.6716,0.4936,38.1800,73,97,509925
1.6813,0.4888,38.1800,73,97,509928
1.7351,0.4985,38.0500,73,97,509931
1.7204,0.4936,38.1800,73,97,509935
1.7449,0.5034,38.0500,73,97,509938
1.7302,0.4888,38.1800,73,97,509941
1.7351,0.4888,38.1800,73,97,509945
1.7693,0.4985,38.0200,73,97,509948
1.7449,0.4888,38.1800,73,97,509952
1.7791,0.4936,38.0800,73,97,509956
1.7595,0.4936,38.1500,73,97,509959
1.7693,0.4839,38.1800,73,97,509962
1.7742,0.4839,38.1100,73,97,509965
1.7498,0.4839,38.2100,73,97,509969
1.7742,0.4936,38.0500,73,97,509972
1.7449,0.4790,38.1100,73,97,509975
1.7498,0.4888,38.2100,73,97,509979
1.7742,0.4936,38.0800,73,97,509982
1.7791,0.4888,38.1800,73,97,509985
1.8133,0.4985,37.9300,73,97,509989
1.7693,0.4888,38.1500,73,97,509992
1.7791,0.4888,38.2400,73,97,509996
1.7889,0.4985,38.1500,73,97,510000
1.7791,0.4888,38.2700,73,97,510003
1.8280,0.5034,37.9000,73,97,510006
1.8231,0.4888,38.1100,73,97,510009
1.7742,0.4839,38.1500,73,97,510013
1.7840,0.4888,38.1800,73,97,510016
1.7889,0.4888,38.2400,73,97,510019
1.8426,0.5034,37.9900,73,97,510023
1.7937,0.4888,38.1800,73,97,510026
1.7986,0.5083,38.1800,73,97,510029
1.7693,0.4839,38.2100,73,97,510033
1.7546,0.4888,38.1800,73,97,510036
1.7693,0.4985,38.0500,73,97,510040
1.7546,0.4888,38.2100,73,97,510044
1.7840,0.4985,38.0500,73,97,510047
1.7693,0.4839,38.2100,73,97,510050
1.7693,0.4936,38.1800,73,97,510053
1.7889,0.4888,38.1500,73,97,510057
1.7840,0.4888,38.1800,73,97,510060
1.8182,0.4888,38.0200,73,97,510063
1.7889,0.4888,38.2100,73,97,510067
1.8035,0.4888,38.2100,73,97,510070
1.8133,0.4985,38.0800,73,97,510073
1.7937,0.4936,38.2400,73,97,510077
1.8231,0.4985,37.9600,73,97,510081
1.8035,0.5034,38.0800,73,97,510084
1.7937,0.4888,38.2100,73,97,510088
1.8035,0.4936,38.1500,73,97,510091
1.7840,0.4888,38.2100,73,97,510094
1.8328,0.4985,37.9300,73,97,510097
1.8377,0.5034,38.1800,73,97,510101
1.7986,0.4839,38.1800,73,97,510104
1.8182,0.4888,38.0800,73,97,510108
1.7937,0.4888,38.2400,73,97,510111
1.7986,0.4888,38.2400,73,97,510114
1.8231,0.5181,38.1100,73,97,510118
1.8035,0.4888,38.1800,73,97,510121
1.8231,0.4985,38.0200,73,97,510125
1.7986,0.4888,38.2100,73,97,510129
1.8133,0.4888,38.4600,73,97,510132
1.8622,0.4985,38.0500,73,97,510135
1.8426,0.4888,37.4300,73,97,510139
1.8671,0.4985,38.0200,73,97,510142
1.8426,0.4888,38.1500,73,97,510145
1.8328,0.4888,38.1800,73,97,510148
