ecg,gsr,temp,hr,spo2,timest
1.8524,0.4154,39.8900,66,96,94097
1.8133,0.4106,40.0600,66,96,94100
1.8231,0.4154,40.1600,66,96,94103
1.7937,0.4106,40.1600,66,96,94107
1.7937,0.4057,40.1600,66,96,94110
1.8524,0.4057,40.0000,66,96,94113
1.8231,0.4203,40.1600,66,96,94116
1.8377,0.4154,40.0600,66,96,94120
1.8133,0.4057,40.1000,66,96,94124
1.8133,0.4057,40.0600,66,96,94127
1.8231,0.4154,40.0300,66,96,94130
1.7742,0.4154,40.1600,66,96,94134
1.7840,0.4399,40.0300,66,96,94137
1.7742,0.3861,40.1300,66,96,94140
1.8035,0.4057,40.1300,66,96,94143
1.8182,0.4203,39.9600,66,96,94147
1.7986,0.4106,40.2600,66,96,94150
1.8280,0.4154,39.9300,66,96,94153
1.8133,0.4106,40.0600,66,96,94156
1.8231,0.4106,40.2300,66,96,94160
1.8280,0.4154,40.0600,66,96,94163
1.8084,0.4106,40.0600,66,96,94167
1.8280,0.4106,39.9600,66,96,94170
1.8084,0.4106,40.0600,66,96,94174
1.8035,0.4057,40.0600,66,96,94177
1.8328,0.4203,39.9300,66,96,94180
1.8035,0.4057,40.0600,66,96,94183
1.8133,0.4106,39.9300,66,96,94187
1.8084,0.4106,40.0000,66,96,94190
1.8133,0.4106,40.1000,66,96,94193
1.8573,0.4643,40.0300,66,96,94196
1.8377,0.4106,40.1300,66,96,94200
1.8524,0.4106,39.9600,66,96,94203
1.8475,0.4106,40.1000,66,96,94206
1.8426,0.4106,40.1000,66,96,94210
1.8671,0.4252,40.1000,66,96,94214
1.8328,0.4106,40.0600,66,96,94217
1.8426,0.4106,40.0000,66,96,94220
1.8426,0.4057,40.0600,66,96,94223
1.8671,0.4057,40.1300,66,96,94227
1.9306,0.4203,39.9300,66,96,94230
1.8866,0.4154,39.9600,66,96,94234
1.8475,0.4057,40.0600,66,96,94238
1.8622,0.4203,40.0000,66,96,94241
1.8280,0.4057,40.0600,66,96,94244
1.8182,0.4106,40.0600,66,96,94247
1.8280,0.4106,40.1000,66,96,94252
1.8084,0.3861,40.0600,66,96,94255
1.8231,0.4203,39.9600,66,96,94258
1.7937,0.4106,40.1600,66,96,94261
1.7889,0.4057,40.2000,66,96,94265
1.8133,0.4203,39.9300,66,96,94268
1.7791,0.4106,40.1300,66,96,94271
1.8084,0.4154,40.0300,66,96,94274
1.7595,0.4203,40.1600,66,96,94278
1.7449,0.4057,40.1000,66,96,94281
1.7449,0.4203,40.0000,66,96,94284
1.7009,0.4106,40.1600,66,96,94287
1.7107,0.4154,40.0000,66,96,94291
1.6960,0.4106,40.1000,66,96,94295
1.7155,0.4106,40.1000,66,96,94298
1.7546,0.4106,40.0600,66,96,94301
1.7546,0.4106,40.1300,66,96,94305
1.7693,0.4106,40.0000,66,96,94308
1.7400,0.4057,40.0600,66,96,94311
1.7400,0.4057,40.1000,66,96,94314
1.7791,0.4203,40.0300,66,96,94318
1.7595,0.4203,40.1000,66,96,94321
1.7693,0.4154,39.4400,66,96,94324
1.7449,0.4106,40.1000,66,96,94327
1.7546,0.4106,40.1000,66,96,94331
1.7693,0.4106,39.9600,66,96,94334
1.7400,0.4106,40.0000,66,96,94338
1.7400,0.4154,39.9600,66,96,94341
1.6813,0.4008,40.1600,66,96,94345
1.6422,0.4057,40.1600,66,96,94348
1.6520,0.4154,40.0600,66,96,94351
1.6813,0.4057,40.1300,66,96,94354
1.7986,0.4252,40.0300,66,96,94358
1.9453,0.4203,40.1000,66,96,94361
2.1554,0.4057,40.1300,66,96,94364
2.4487,0.4203,39.9300,66,96,94367
2.5953,0.4106,40.1600,66,96,94371
2.7566,0.4154,40.0000,66,96,94374
2.8152,0.4106,40.0600,66,96,94377
2.8495,0.4106,40.1600,66,96,94381
2.8935,0.4497,39.9300,66,96,94385
2.8250,0.4106,40.0300,66,96,94388
2.7810,0.4154,40.0000,66,96,94391
2.6540,0.4106,40.1000,66,96,94394
2.4878,0.4154,40.0600,66,96,94398
2.3412,0.4203,39.9600,66,96,94401
2.1408,0.4106,40.1600,66,96,94404
1.9795,0.4154,40.0000,66,96,94407
1.8231,0.4106,40.1000,66,96,94411
1.7155,0.4057,40.1600,66,96,94414
1.6960,0.4203,39.9300,66,96,94417
1.5982,0.4106,40.0300,66,96,94420
1.5689,0.4154,40.0300,66,96,94424
1.5396,0.3861,40.1300,66,96,94428
1.5152,0.4057,40.1600,66,96,94431
1.5249,0.4154,40.1000,66,96,94434
1.5005,0.4106,40.1300,66,96,94437
1.5054,0.4057,40.0300,66,96,94441
1.4907,0.4203,40.0600,66,96,94444
1.5054,0.4057,40.1000,66,96,94447
1.5591,0.4203,39.9600,66,96,94450
1.5543,0.4154,40.1600,66,96,94454
1.5689,0.4106,40.0000,66,96,94457
1.5689,0.4106,40.1300,66,96,94460
1.5689,0.4106,40.1000,66,96,94464
1.6031,0.4203,39.9300,66,96,94468
1.5934,0.4154,40.1300,66,96,94471
1.6080,0.4106,40.0000,66,96,94474
1.6129,0.4399,40.1000,66,96,94477
1.6227,0.4057,40.0600,66,96,94481
1.6667,0.4154,39.9300,66,96,94484
1.6618,0.4154,40.0300,66,96,94487
1.6764,0.4154,40.1000,66,96,94490
1.6813,0.4106,39.9600,66,96,94494
1.6764,0.4106,40.1300,66,96,94497
1.7155,0.4301,39.9300,66,96,94500
1.7155,0.4106,40.0600,66,96,94503
1.6813,0.4106,39.8900,66,96,94508
1.6764,0.4106,40.0600,66,96,94511
1.6862,0.4057,40.1300,66,96,94514
1.7302,0.4203,39.8900,66,96,94517
1.7204,0.4252,40.1000,66,96,94521
1.7302,0.4106,40.0300,66,96,94524
1.7400,0.4106,40.1300,66,96,94527
1.7449,0.4106,40.1600,66,96,94530
1.7937,0.4252,40.0000,66,96,94534
1.7693,0.3861,40.0600,66,96,94537
1.7693,0.4106,40.0300,66,96,94540
1.7498,0.4203,40.1600,66,96,94543
1.7351,0.4106,40.0600,66,96,94547
1.7742,0.4252,39.9300,66,96,94551
1.7351,0.4057,40.2300,66,96,94554
1.7400,0.4106,40.0000,66,96,94557
1.7546,0.4203,40.0600,66,96,94561
1.7546,0.4106,40.1000,66,96,94564
1.8475,0.4301,39.9300,66,96,94567
1.7986,0.4154,40.1000,66,96,94570
1.7742,0.4350,40.0300,66,96,94574
1.7840,0.4106,39.9600,66,96,94577
1.7840,0.4057,40.1000,66,96,94580
1.8328,0.4301,40.0000,66,96,94583
1.7937,0.4154,40.0300,66,96,94587
1.7742,0.4106,40.0300,66,96,94590
1.7693,0.4057,40.0300,66,96,94594
1.7693,0.4106,40.0600,66,96,94597
1.8328,0.4252,40.0000,66,96,94601
1.7937,0.4154,40.0300,66,96,94604
1.7742,0.4008,40.0600,66,96,94607
1.7791,0.4106,40.1300,66,96,94610
1.7742,0.4057,40.0600,66,96,94614
1.8280,0.4252,39.8900,66,96,94617
1.8084,0.4203,40.0300,66,96,94620
1.7889,0.4203,40.0600,66,96,94623
1.7986,0.4106,40.0600,66,96,94627
1.7937,0.4154,40.1600,66,96,94630
1.8524,0.4350,39.9600,66,96,94633
1.8231,0.4154,39.8900,66,96,94637
1.8035,0.4057,40.0600,66,96,94641
1.8377,0.4106,40.1600,66,96,94644
1.8084,0.4106,40.0600,66,96,94647
1.8622,0.4350,39.9600,66,96,94650
1.8328,0.4203,40.0000,66,96,94654
1.8280,0.4008,40.1300,66,96,94657
1.8426,0.4154,40.0600,66,96,94660
1.8328,0.4057,40.0600,66,96,94663
1.8719,0.4350,39.8900,66,96,94667
1.8328,0.4154,40.1000,66,96,94670
1.8133,0.4057,40.0600,66,96,94673
1.8133,0.4154,40.0600,66,96,94676
1.8084,0.4106,40.1000,66,96,94681
1.8768,0.4301,39.8900,66,96,94684
1.8475,0.4154,40.0000,66,96,94687
1.8475,0.4057,40.1000,66,96,94690
1.8964,0.4106,40.0600,66,96,94694
1.8573,0.4106,40.1000,66,96,94697
1.9062,0.4252,39.8000,66,96,94700
1.8671,0.3861,40.0000,66,96,94703
1.8524,0.4106,40.0600,66,96,94707
1.8475,0.4106,40.0600,66,96,94710
1.8377,0.4106,40.1000,66,96,94713
1.8866,0.4252,39.9600,66,96,94716
1.8524,0.4154,40.0000,66,96,94721
1.8622,0.4057,40.2000,66,96,94724
1.8719,0.4154,40.0600,66,96,94727
1.8768,0.4057,40.1300,66,96,94730
1.9355,0.4252,39.8300,66,96,94734
1.8964,0.3861,40.0000,66,96,94737
1.8719,0.4106,40.2300,66,96,94740
1.8719,0.4106,40.1600,66,96,94743
1.8524,0.4106,40.1300,66,96,94747
1.8915,0.4252,39.9600,66,96,94750
1.8622,0.4154,40.0300,66,96,94753
1.8524,0.4106,40.1000,66,96,94756
1.8671,0.4154,40.1000,66,96,94760
1.8573,0.4057,40.1600,66,96,94764
1.9013,0.4252,39.8300,66,96,94767
1.8622,0.4154,40.0300,66,96,94770
1.8377,0.4057,40.1300,66,96,94774
1.8426,0.4106,40.0300,66,96,94777
1.8280,0.4057,40.0600,66,96,94780
1.8768,0.4252,39.8300,66,96,94783
1.8377,0.4106,39.9600,66,96,94787
1.8133,0.4106,40.1600,66,96,94790
1.8182,0.4350,40.0600,66,96,94793
1.8133,0.4106,40.2300,66,96,94796
1.8719,0.4252,39.8900,66,96,94800
1.8426,0.4106,40.0000,66,96,94803
1.8084,0.4106,40.1300,66,96,94807
1.8035,0.4154,40.2000,66,96,94810
1.7889,0.4106,40.1000,66,96,94814
1.8524,0.4350,39.8900,66,96,94817
1.8133,0.4154,39.9300,66,96,94820
1.7937,0.4057,40.3300,66,96,94823
1.8182,0.4154,40.0600,66,96,94827
1.8182,0.4057,40.1300,66,96,94830
1.8622,0.4350,39.8000,66,96,94833
1.8182,0.4106,39.9600,66,96,94836
1.7986,0.4057,40.1300,66,96,94840
1.8231,0.4154,40.0300,66,96,94843
1.7889,0.4057,40.1000,66,96,94849
1.7889,0.4057,40.0600,66,96,94852
1.8426,0.4057,39.8900,66,96,94855
1.8133,0.4203,40.0300,66,96,94858
1.7986,0.4106,40.0000,66,96,94861
1.7889,0.4106,40.0600,66,96,94865
1.7840,0.4106,40.0600,66,96,94868
1.8280,0.4252,39.9300,66,96,94871
1.7889,0.4057,40.0300,66,96,94874
1.7644,0.4350,40.0600,66,96,94878
1.7546,0.4106,40.1600,66,96,94881
1.7595,0.4057,40.1000,66,96,94884
1.8084,0.4350,40.0000,66,96,94887
1.7742,0.4154,40.1000,66,96,94892
1.7693,0.4057,40.0300,66,96,94895
1.8280,0.4057,40.1600,66,96,94898
1.8084,0.4057,40.0600,66,96,94901
1.8817,0.4301,39.8900,66,96,94905
1.8426,0.4154,40.0300,66,96,94908
1.8231,0.4106,40.1000,66,96,94911
1.8182,0.4545,40.0600,66,96,94914
1.7986,0.3861,40.1000,66,96,94918
1.8768,0.4350,39.8900,66,96,94921
1.8084,0.4057,40.0000,66,96,94924
1.7693,0.4057,40.0600,66,96,94927
1.7840,0.4154,40.1300,66,96,94931
1.7937,0.3861,40.1300,66,96,94935
1.8524,0.4301,39.8900,66,96,94938
1.8035,0.4497,40.0300,66,96,94941
1.7840,0.4057,40.0600,66,96,94945
1.7889,0.4106,40.1600,66,96,94948
1.8035,0.4106,40.1000,66,96,94951
1.8377,0.4301,39.8600,66,96,94954
1.8035,0.4252,40.0000,66,96,94958
1.7742,0.4057,40.1000,66,96,94961
1.7889,0.4106,40.0600,66,96,94964
1.7889,0.4057,40.2000,66,96,94967
1.8426,0.4252,39.8300,66,96,94971
1.8231,0.4203,40.0000,66,96,94974
1.8182,0.4154,40.1600,66,96,94978
1.8280,0.4106,40.0000,66,96,94981
1.8328,0.4106,40.1000,66,96,94985
1.8866,0.4350,39.8600,66,96,94988
1.8719,0.4057,40.0300,66,96,94991
1.8280,0.4106,40.0300,66,96,94994
1.8231,0.4154,40.0600,66,96,94998
1.8035,0.4106,40.1000,66,96,95001
1.8426,0.4350,39.8600,66,96,95004
1.8133,0.4154,40.0000,66,96,95007
1.8035,0.4057,40.2000,66,96,95011
1.8084,0.4154,40.0600,66,96,95014
1.7986,0.4203,40.0600,66,96,95017
1.8573,0.4301,39.8900,66,96,95021
1.8231,0.4154,40.0300,66,96,95025
1.8182,0.4057,40.1000,66,96,95028
1.8231,0.4154,40.0600,66,96,95031
1.8182,0.4106,40.1000,66,96,95034
1.8719,0.4301,39.8900,66,96,95038
1.8328,0.4154,40.0000,66,96,95041
1.8133,0.4057,40.0600,66,96,95044
1.7986,0.4106,40.1000,66,96,95047
1.7889,0.4106,40.3300,66,96,95051
1.8475,0.4252,39.8000,66,96,95054
1.8133,0.4154,40.0000,66,96,95057
1.8133,0.4106,40.1000,66,96,95060
1.8280,0.4154,40.0000,66,96,95065
1.8182,0.4057,40.1600,66,96,95068
1.8719,0.4301,39.8300,66,96,95071
1.8377,0.4154,40.0600,66,96,95074
1.8182,0.4008,40.1000,66,96,95078
1.8182,0.4106,39.9600,66,96,95081
1.8035,0.4106,40.0600,66,96,95084
1.8622,0.4252,39.8300,66,96,95087
1.8231,0.4057,40.1000,66,96,95091
1.8084,0.4106,40.0000,66,96,95094
1.8182,0.4154,40.0600,66,96,95097
1.8035,0.4057,40.0600,66,96,95100
1.8573,0.4252,39.8900,66,96,95105
1.8328,0.4106,39.9600,66,96,95108
1.8231,0.4057,40.0300,66,96,95111
1.8377,0.4154,40.0600,66,96,95114
1.8524,0.4106,40.0600,66,96,95118
1.8622,0.4301,39.8000,66,96,95121
1.8280,0.4154,39.9600,66,96,95124
1.8377,0.4057,40.1600,66,96,95127
1.8622,0.4154,40.0300,66,96,95131
1.8475,0.4057,40.1000,66,96,95134
1.8915,0.4203,39.8600,66,96,95137
1.8524,0.4154,40.0000,66,96,95140
1.8524,0.3861,40.2000,66,96,95144
1.8817,0.4154,40.0300,66,96,95148
1.9062,0.4106,40.1000,66,96,95151
1.9892,0.4252,39.9600,66,96,95154
1.9746,0.4154,39.9600,66,96,95158
1.9550,0.4057,40.1600,66,96,95161
1.9501,0.4154,40.0600,66,96,95164
1.8964,0.4106,40.0600,66,96,95167
1.9159,0.4252,39.8000,66,96,95171
1.8524,0.4106,39.9600,66,96,95174
1.8133,0.4350,40.0600,66,96,95177
1.8035,0.4154,40.1000,66,96,95180
1.7840,0.4106,40.1000,66,96,95184
1.8328,0.4252,39.8300,66,96,95187
1.7986,0.4154,40.0000,66,96,95191
1.7889,0.4106,40.0600,66,96,95194
1.8084,0.4154,39.9600,66,96,95198
1.7986,0.4057,40.1000,66,96,95201
1.8280,0.4252,39.8600,66,96,95204
1.7840,0.4154,39.9300,66,96,95207
1.7644,0.4057,40.1000,66,96,95211
1.7693,0.4106,40.0000,66,96,95214
1.7400,0.4057,40.0600,66,96,95217
1.7693,0.4252,39.8300,66,96,95220
1.7253,0.3861,40.0000,66,96,95224
1.7155,0.4008,40.1000,66,96,95227
1.7302,0.4154,39.9300,66,96,95230
1.7155,0.4106,39.9600,66,96,95234
1.7595,0.4252,39.8600,66,96,95238
1.7595,0.4106,40.0600,66,96,95241
1.7351,0.4106,39.6700,66,96,95244
1.7595,0.4154,40.0000,66,96,95247
1.7498,0.4106,40.1300,66,96,95251
1.7840,0.4252,39.8600,66,96,95254
1.7644,0.4057,39.9600,66,96,95257
1.7351,0.4106,40.0600,66,96,95260
1.7498,0.4154,40.0300,66,96,95264
1.7302,0.4057,40.1000,66,96,95267
1.7791,0.4497,39.8300,66,96,95270
1.7302,0.4057,40.0300,66,96,95273
1.6960,0.4106,40.1000,66,96,95278
1.6862,0.4154,40.2300,66,96,95281
1.6862,0.4106,40.2300,66,96,95284
1.7302,0.4203,39.8600,66,96,95287
1.8133,0.4154,40.0000,66,96,95291
1.9697,0.4057,40.2000,66,96,95294
2.1896,0.4057,40.1000,66,96,95297
2.3656,0.4106,40.1000,66,96,95300
2.6100,0.4203,39.9300,66,96,95304
2.7224,0.4106,40.0600,66,96,95307
2.8104,0.4399,40.1000,66,96,95310
2.9032,0.4203,40.1000,66,96,95313
2.9032,0.4154,40.1000,66,96,95318
2.8886,0.4203,39.8600,66,96,95321
2.7468,0.4057,40.1300,66,96,95324
2.6344,0.4106,40.1000,66,96,95327
2.5318,0.4203,40.0300,66,96,95330
2.3509,0.4106,40.1000,66,96,95334
2.2092,0.4057,39.8900,66,96,95337
2.0039,0.4203,40.0000,66,96,95340
1.8377,0.4057,40.0600,66,96,95343
1.7351,0.4154,40.0600,66,96,95347
1.6325,0.4106,40.0000,66,96,95350
1.6031,0.4203,39.9300,66,96,95353
1.5494,0.4154,40.0000,66,96,95356
1.5103,0.4301,40.1000,66,96,95361
1.5005,0.4154,40.0000,66,96,95364
1.4907,0.4057,40.1000,66,96,95367
1.5152,0.4154,39.9600,66,96,95370
1.5054,0.4252,40.1600,66,96,95374
1.5152,0.4106,40.1000,66,96,95377
1.5347,0.4154,40.0000,66,96,95380
1.5152,0.4106,40.1000,66,96,95383
1.5347,0.4203,39.9600,66,96,95387
1.5347,0.4154,39.9600,66,96,95390
1.5396,0.4106,40.1000,66,96,95393
1.5787,0.4203,40.0300,66,96,95396
1.5738,0.4350,40.0300,66,96,95400
1.6080,0.4154,39.6000,66,96,95404
1.6080,0.3861,40.0600,66,96,95407
1.6178,0.4106,40.0600,66,96,95410
1.6373,0.4154,39.9600,66,96,95414
1.6276,0.4106,40.0600,66,96,95417
1.6667,0.4154,39.9300,66,96,95420
1.6276,0.4057,40.1000,66,96,95423
1.6276,0.4106,40.1000,66,96,95427
1.6520,0.4154,40.0600,66,96,95430
1.6471,0.4106,40.1600,66,96,95433
1.6813,0.4057,40.0300,66,96,95436
1.6813,0.4252,40.1000,66,96,95440
1.6813,0.4106,40.0000,66,96,95443
1.7155,0.4154,39.8900,66,96,95447
1.7155,0.4106,40.1300,66,96,95450
1.7595,0.4154,39.9300,66,96,95454
1.7644,0.4252,39.9300,66,96,95458
1.7302,0.4106,40.0000,66,96,95462
1.7253,0.4106,40.1300,66,96,95465
1.7498,0.4106,40.0300,66,96,95468
1.7498,0.4106,40.1600,66,96,95471
1.8035,0.4252,39.8000,66,96,95475
1.7937,0.4154,40.0000,66,96,95478
1.7889,0.4057,40.1000,66,96,95481
1.8280,0.4154,40.0000,66,96,95484
1.7840,0.4106,40.2000,66,96,95489
1.8182,0.4252,39.8600,66,96,95492
1.7840,0.4154,40.0000,66,96,95495
1.8035,0.4057,40.1600,66,96,95498
1.8035,0.4106,40.1000,66,96,95502
1.7937,0.4106,40.1000,66,96,95505
1.8377,0.4301,39.8900,66,96,95508
1.7986,0.4106,40.0300,66,96,95511
1.7937,0.4106,40.1000,66,96,95515
1.8035,0.4154,40.1000,66,96,95518
1.7840,0.4106,40.1600,66,96,95521
1.8280,0.4252,39.8600,66,96,95524
1.8084,0.4350,40.0600,66,96,95528
1.8084,0.4106,40.1000,66,96,95532
1.8426,0.4154,40.0000,66,96,95535
1.8475,0.4106,40.1000,66,96,95538
1.8622,0.4203,39.8600,66,96,95542
1.8328,0.4203,40.1300,66,96,95545
1.8133,0.3861,40.0600,66,96,95548
1.8524,0.4154,40.0600,66,96,95551
1.7840,0.4106,40.0600,66,96,95555
1.8182,0.4203,39.8600,66,96,95558
1.7791,0.3861,40.0300,66,96,95561
1.7889,0.4154,40.2300,66,96,95564
1.8280,0.4154,40.0300,66,96,95568
1.8231,0.4154,40.1000,66,96,95571
1.8768,0.4203,39.9300,66,96,95575
1.8475,0.4154,39.9600,66,96,95578
1.8377,0.4106,40.1000,66,96,95582
1.8671,0.4203,40.0000,66,96,95585
1.8524,0.4106,39.7700,66,96,95588
1.8964,0.4203,39.9600,66,96,95591
1.8671,0.4106,40.0000,66,96,95595
1.8524,0.4154,40.0600,66,96,95598
1.8622,0.4203,40.0600,66,96,95601
1.8377,0.4057,40.1000,66,96,95604
1.8671,0.4154,39.8600,66,96,95608
1.8377,0.4057,40.1000,66,96,95611
1.8475,0.4203,40.1000,66,96,95614
1.8719,0.4203,39.7000,66,96,95618
1.8524,0.4106,40.3300,66,96,95622
1.8915,0.4203,39.8600,66,96,95625
1.8964,0.4106,40.0000,66,96,95628
1.8622,0.4057,40.1300,66,96,95631
1.8915,0.4350,40.1000,66,96,95635
1.8768,0.4106,40.1000,66,96,95638
1.9110,0.4203,39.8600,66,96,95641
1.8866,0.4154,40.0000,66,96,95644
1.8719,0.4106,40.1600,66,96,95648
1.8964,0.4203,40.0000,66,96,95651
1.9062,0.4106,40.1600,66,96,95654
1.9110,0.4203,39.8300,66,96,95657
1.8622,0.4057,40.0000,66,96,95662
1.8524,0.4106,40.0600,66,96,95665
1.8817,0.4252,39.9600,66,96,95668
1.8377,0.4057,40.1300,66,96,95671
1.8817,0.4252,39.8600,66,96,95675
1.8768,0.4154,39.9600,66,96,95678
1.8719,0.4106,40.1000,66,96,95681
1.8915,0.4203,40.0000,66,96,95684
1.8622,0.4057,40.1000,66,96,95688
1.8915,0.4203,39.8000,66,96,95691
1.8622,0.4154,40.1000,66,96,95694
1.8426,0.4057,40.0600,66,96,95697
1.8524,0.4545,40.1000,66,96,95702
1.8328,0.4106,40.1600,66,96,95705
1.8671,0.4203,39.8900,66,96,95708
1.8280,0.4057,40.0600,66,96,95711
1.8231,0.4154,40.1000,66,96,95715
1.8377,0.4203,40.2600,66,96,95718
1.8133,0.4106,40.2000,66,96,95721
1.8573,0.4154,39.9600,66,96,95724
1.8426,0.4203,39.9600,66,96,95728
1.8280,0.4106,40.1300,66,96,95731
1.8524,0.4252,39.9600,66,96,95734
1.8231,0.4106,40.0600,66,96,95737
1.8377,0.4203,39.8900,66,96,95741
1.8133,0.4448,40.0300,66,96,95745
1.8035,0.4106,40.1000,66,96,95748
1.8328,0.4154,40.0000,66,96,95751
1.8182,0.4106,40.0600,66,96,95755
1.8426,0.4154,40.0000,66,96,95758
1.8182,0.4106,40.1300,66,96,95761
1.8280,0.4057,40.0600,66,96,95764
1.8573,0.4252,40.1000,66,96,95768
1.8280,0.4057,40.1000,66,96,95771
1.8475,0.4154,39.8900,66,96,95774
1.8328,0.4057,40.0000,66,96,95777
1.8133,0.4154,40.0600,66,96,95781
1.8328,0.4301,39.9300,66,96,95784
1.8133,0.4106,40.1300,66,96,95788
1.8377,0.4154,39.8900,66,96,95791
1.8084,0.4154,40.0000,66,96,95795
1.7986,0.4252,40.0600,66,96,95798
1.8084,0.4154,40.0000,66,96,95801
1.7986,0.4057,40.1000,66,96,95804
1.8328,0.4203,39.9300,66,96,95808
1.8084,0.4106,40.1000,66,96,95811
1.8084,0.4106,40.1000,66,96,95814
1.8377,0.4154,39.9600,66,96,95817
1.8133,0.4057,40.1000,66,96,95821
1.8426,0.4106,39.8900,66,96,95824
1.8182,0.4106,40.1600,66,96,95827
1.8035,0.4106,40.1300,66,96,95831
1.8280,0.4154,40.0300,66,96,95835
1.8084,0.4106,40.1000,66,96,95838
1.8475,0.4154,39.8900,66,96,95841
1.8377,0.4106,39.9600,66,96,95844
1.8280,0.4057,40.1000,66,96,95848
1.8377,0.4350,39.9600,66,96,95851
1.8133,0.4106,40.0300,66,96,95854
1.8231,0.4154,39.9300,66,96,95857
1.7742,0.3861,40.0600,66,96,95861
1.7791,0.4106,40.1300,66,96,95864
1.8084,0.4154,39.9600,66,96,95867
1.8035,0.4106,40.0600,66,96,95870
1.8377,0.4154,39.8900,66,96,95875
1.8377,0.4057,40.0000,66,96,95878
1.8280,0.4203,40.1000,66,96,95881
1.8524,0.4154,39.9300,66,96,95884
1.8377,0.4106,40.1000,66,96,95888
1.8768,0.4203,40.0000,66,96,95891
1.8426,0.4106,40.0300,66,96,95894
1.8377,0.4106,40.2300,66,96,95897
1.8475,0.4154,39.9600,66,96,95901
1.8377,0.4057,40.1000,66,96,95904
1.8573,0.4252,39.9300,66,96,95907
1.8426,0.4301,40.1000,66,96,95910
1.8524,0.4106,40.0600,66,96,95915
1.8866,0.4203,40.1000,66,96,95918
1.8622,0.4106,40.0600,66,96,95921
1.8768,0.4154,40.0600,66,96,95924
1.8524,0.4106,40.1300,66,96,95928
1.8377,0.4106,40.0600,66,96,95931
1.8573,0.4154,40.0300,66,96,95934
1.8524,0.4106,40.1000,66,96,95937
1.8622,0.4203,39.9300,66,96,95941
1.8377,0.4106,40.0300,66,96,95944
1.8280,0.4106,40.1000,66,96,95947
1.8377,0.4154,40.0600,66,96,95950
1.8280,0.4154,40.0600,66,96,95954
1.8671,0.4106,39.9300,66,96,95958
1.8475,0.4106,40.1000,66,96,95961
1.8475,0.4106,40.1600,66,96,95964
1.8573,0.4154,40.0000,66,96,95968
1.8328,0.4008,40.0600,66,96,95971
1.8671,0.4106,39.9600,66,96,95974
1.8622,0.4106,40.0000,66,96,95977
1.8768,0.4106,40.1000,66,96,95981
1.9013,0.4203,39.9600,66,96,95984
1.8866,0.4106,40.3000,66,96,95987
1.9062,0.4154,40.0000,66,96,95990
1.8671,0.4154,40.0300,66,96,95994
1.8671,0.4203,40.1000,66,96,95997
1.8768,0.4106,40.0600,66,96,96001
1.8719,0.4106,40.1000,66,96,96004
1.8915,0.4154,40.0000,66,96,96008
1.8622,0.4106,40.1300,66,96,96011
1.8622,0.4106,40.1000,66,96,96014
1.8964,0.4203,40.0000,66,96,96017
1.8719,0.4154,40.1300,66,96,96021
1.8768,0.4154,40.0300,66,96,96024
1.8524,0.4057,40.0000,66,96,96027
1.8524,0.4057,40.1300,66,96,96030
1.8719,0.4106,40.0000,66,96,96034
1.8475,0.4106,40.0300,66,96,96037
1.8768,0.4203,40.0000,66,96,96040
1.8475,0.4106,40.0600,66,96,96044
1.8524,0.4106,40.1000,66,96,96047
1.8719,0.4106,40.0600,66,96,96051
1.8719,0.4106,40.2300,66,96,96054
1.9062,0.4203,39.9300,66,96,96057
1.8866,0.4106,40.1300,66,96,96060
1.9013,0.4057,40.1000,66,96,96064
1.9355,0.4545,39.9300,66,96,96067
1.9404,0.4203,40.0300,66,96,96072
1.9404,0.4154,40.1000,66,96,96075
1.9892,0.4203,39.9300,66,96,96078
1.9892,0.4154,40.3000,66,96,96081
1.9844,0.4057,40.1000,66,96,96086
1.9941,0.4106,39.9600,66,96,96089
1.9550,0.4106,40.1600,66,96,96092
1.9599,0.4154,39.9300,66,96,96095
1.9159,0.4106,40.1300,66,96,96099
1.8964,0.4106,40.1600,66,96,96102
1.9062,0.4203,39.9300,66,96,96105
1.8768,0.4106,40.1600,66,96,96108
1.8964,0.4154,39.9300,66,96,96112
1.8719,0.4154,39.9600,66,96,96115
1.8475,0.4106,40.1000,66,96,96118
1.8622,0.4154,40.0300,66,96,96121
1.8377,0.4106,40.1000,66,96,96125
1.8622,0.4203,39.9300,66,96,96129
1.8377,0.4203,40.0000,66,96,96132
1.8133,0.4057,40.1600,66,96,96135
1.8133,0.4154,39.9600,66,96,96139
1.7889,0.4106,40.0600,66,96,96142
1.8133,0.4106,39.8900,66,96,96145
1.7889,0.4203,40.1000,66,96,96148
1.7937,0.4106,40.1300,66,96,96152
1.8133,0.4203,40.0000,66,96,96155
1.7986,0.4106,40.0600,66,96,96158
1.8084,0.4545,39.9300,66,96,96161
1.7840,0.4106,40.0300,66,96,96165
1.7840,0.4106,40.1000,66,96,96168
1.7937,0.4203,39.9600,66,96,96172
1.7840,0.4106,40.1300,66,96,96175
1.8084,0.4154,40.0000,66,96,96179
1.8133,0.4106,40.1000,66,96,96182
1.8084,0.4106,40.0600,66,96,96185
1.8231,0.4154,40.0600,66,96,96188
1.8035,0.4057,40.0600,66,96,96192
1.8280,0.4106,39.9600,66,96,96195
1.8035,0.4106,40.1600,66,96,96198
1.7889,0.4106,40.1000,66,96,96201
1.7840,0.4057,40.0600,66,96,96205
1.7351,0.4203,40.1000,66,96,96208
1.7400,0.4154,40.0000,66,96,96211
1.7498,0.4106,40.0300,66,96,96215
1.8475,0.4203,40.1600,66,96,96219
2.0283,0.4252,39.9300,66,96,96222
2.1896,0.4106,40.1300,66,96,96225
2.4291,0.4057,40.0000,66,96,96228
2.5806,0.4106,40.1000,66,96,96231
2.7322,0.4106,40.0600,66,96,96235
2.8495,0.4106,40.0000,66,96,96238
2.8739,0.4106,40.1000,66,96,96241
2.9032,0.4203,40.0000,66,96,96244
2.8055,0.4106,40.0600,66,96,96248
2.7175,0.4448,40.1000,66,96,96251
2.6491,0.4203,39.9600,66,96,96254
2.4780,0.4106,40.1000,66,96,96258
2.3558,0.4252,39.9600,66,96,96262
2.1603,0.4057,40.2300,66,96,96265
2.0088,0.4057,40.1000,66,96,96268
1.9013,0.4252,39.9600,66,96,96271
1.7742,0.4106,39.3800,66,96,96275
1.7107,0.4154,39.9600,66,96,96278
1.6178,0.4106,40.1000,66,96,96281
1.5689,0.4106,40.0000,66,96,96284
1.5591,0.4154,40.1300,66,96,96288
1.5445,0.4106,40.0600,66,96,96291
1.5445,0.4203,40.0300,66,96,96294
1.5200,0.4106,40.0600,66,96,96297
1.5200,0.4106,40.0600,66,96,96302
1.5543,0.4252,40.0300,66,96,96305
1.5298,0.4106,40.0600,66,96,96308
1.5445,0.4154,40.0300,66,96,96311
1.5445,0.4106,40.1600,66,96,96315
1.5591,0.4106,40.0300,66,96,96318
1.6031,0.4203,40.0300,66,96,96321
1.5982,0.4203,40.0300,66,96,96324
1.6227,0.4154,39.9600,66,96,96328
1.6129,0.4106,40.1000,66,96,96331
1.6227,0.4106,40.1600,66,96,96334
1.6569,0.4154,40.1300,66,96,96337
1.6373,0.4399,40.1000,66,96,96342
1.6569,0.4154,39.9600,66,96,96345
1.6471,0.4106,40.2600,66,96,96348
1.6471,0.3861,40.1300,66,96,96351
1.7204,0.4252,39.8600,66,96,96355
1.6764,0.4154,40.1300,66,96,96358
1.6960,0.4154,39.9300,66,96,96361
1.6813,0.4106,40.1300,66,96,96364
1.6911,0.4106,40.1300,66,96,96368
1.7253,0.4203,39.9600,66,96,96371
1.7009,0.4106,40.1600,66,96,96374
1.7302,0.4154,40.0000,66,96,96377
1.7253,0.4106,40.0600,66,96,96381
1.7400,0.4106,40.1000,66,96,96385
1.7742,0.4203,40.0000,66,96,96388
1.7546,0.4106,40.0600,66,96,96391
1.7693,0.4154,40.0000,66,96,96395
1.7546,0.4106,40.1600,66,96,96398
1.7595,0.4106,40.1300,66,96,96401
1.7986,0.4203,39.9300,66,96,96404
1.7693,0.4154,40.0600,66,96,96408
1.7742,0.4154,39.9600,66,96,96411
1.7595,0.4106,40.1000,66,96,96414
1.7546,0.3861,40.1600,66,96,96417
1.7937,0.4203,40.0300,66,96,96421
1.7791,0.4106,40.0300,66,96,96424
1.7791,0.4154,40.0600,66,96,96428
1.7644,0.4106,40.1300,66,96,96431
1.7546,0.4106,40.1300,66,96,96435
1.8084,0.4203,40.0000,66,96,96438
1.7644,0.4106,40.0300,66,96,96441
1.7840,0.4154,39.6000,66,96,96444
1.7742,0.4106,40.0600,66,96,96448
1.7742,0.4106,40.0600,66,96,96451
1.8133,0.4252,40.0000,66,96,96454
1.7937,0.4154,40.1300,66,96,96457
1.7986,0.4154,40.0600,66,96,96461
1.7840,0.4106,40.1000,66,96,96464
1.7742,0.4106,40.0300,66,96,96467
1.7986,0.4203,39.9300,66,96,96471
1.7693,0.4106,40.1000,66,96,96475
1.7742,0.4106,40.0000,66,96,96478
1.7742,0.4203,40.0600,66,96,96481
1.7937,0.4106,40.1300,66,96,96484
1.8426,0.4252,40.0300,66,96,96488
1.8280,0.4106,40.0300,66,96,96491
1.8377,0.4106,40.0000,66,96,96494
1.8280,0.4106,40.0600,66,96,96497
1.8231,0.4252,40.1600,66,96,96500
1.8671,0.4203,39.8600,66,96,96504
1.8426,0.4154,40.1000,66,96,96507
1.8426,0.4154,39.9300,66,96,96510
1.8280,0.4106,40.1600,66,96,96514
1.8182,0.4106,40.0300,66,96,96518
1.8573,0.4203,39.9600,66,96,96521
1.8182,0.4057,40.0300,66,96,96524
1.8182,0.4106,40.0300,66,96,96527
1.8133,0.4106,40.1000,66,96,96531
1.8182,0.4106,40.0600,66,96,96534
1.8719,0.4252,40.0300,66,96,96537
1.8475,0.4448,40.0300,66,96,96540
1.8475,0.4106,40.0600,66,96,96544
1.8426,0.4203,40.1000,66,96,96547
1.8280,0.4154,40.1000,66,96,96550
1.8671,0.4252,39.8900,66,96,96553
1.8280,0.4154,40.1300,66,96,96558
1.8182,0.4106,40.0000,66,96,96561
1.8182,0.4057,40.1000,66,96,96564
1.8133,0.4106,40.0600,66,96,96567
1.8719,0.4252,39.9600,66,96,96571
1.8426,0.4154,40.0300,66,96,96574
1.8475,0.4399,40.1000,66,96,96577
1.8622,0.4203,40.3000,66,96,96580
1.8671,0.4106,40.2600,66,96,96584
1.9208,0.4252,40.0000,66,96,96587
1.8964,0.4106,40.0600,66,96,96590
1.8768,0.4106,40.0300,66,96,96593
1.8768,0.4154,40.1600,66,96,96598
1.8622,0.4106,40.1000,66,96,96601
1.9062,0.4301,39.9300,66,96,96604
1.8622,0.4203,40.0300,66,96,96607
1.8377,0.4057,39.5400,66,96,96611
1.8377,0.4106,40.0600,66,96,96614
1.8377,0.4057,40.1000,66,96,96617
1.8719,0.4350,39.9600,66,96,96620
1.8328,0.4154,39.9600,66,96,96624
1.8084,0.4106,40.0600,66,96,96627
1.8084,0.4106,40.0600,66,96,96630
1.7937,0.4301,40.1000,66,96,96633
1.8524,0.4301,39.8600,66,96,96637
1.8280,0.4154,40.1000,66,96,96641
1.8084,0.4057,40.0300,66,96,96644
1.8231,0.4106,40.1000,66,96,96647
1.8231,0.4106,40.1300,66,96,96651
1.8817,0.4350,39.8900,66,96,96654
1.8426,0.4203,40.0000,66,96,96657
1.8231,0.4154,40.0300,66,96,96660
1.8231,0.4203,40.1000,66,96,96664
1.8133,0.4106,40.0300,66,96,96667
1.8622,0.4252,39.8600,66,96,96670
1.8280,0.4203,40.0000,66,96,96673
1.8035,0.4057,40.0300,66,96,96677
1.8084,0.4154,40.0600,66,96,96680
1.8133,0.4106,40.1000,66,96,96686
1.8084,0.4106,40.1300,66,96,96689
1.8573,0.4203,39.9600,66,96,96692
1.8377,0.4154,40.0300,66,96,96695
1.8671,0.4154,40.0600,66,96,96699
1.8280,0.4106,40.0000,66,96,96702
1.8231,0.4106,40.1000,66,96,96705
1.8524,0.4252,39.9300,66,96,96708
1.8280,0.4448,40.0600,66,96,96712
1.8328,0.4154,39.9600,66,96,96715
1.8280,0.4106,40.0600,66,96,96718
1.8377,0.4057,40.0600,66,96,96721
1.8377,0.4252,39.9600,66,96,96724
1.8182,0.4154,40.0600,66,96,96729
1.8622,0.4057,40.1000,66,96,96732
1.8377,0.4106,40.0600,66,96,96735
1.8231,0.4106,40.0600,66,96,96738
1.8622,0.4252,39.8900,66,96,96742
1.8475,0.4154,40.0300,66,96,96745
1.8524,0.4106,40.0000,66,96,96748
1.8426,0.4106,40.1300,66,96,96751
1.8377,0.4106,40.1600,66,96,96755
1.8866,0.4057,39.9300,66,96,96758
1.8426,0.4106,40.1600,66,96,96761
1.8426,0.4106,40.0600,66,96,96764
1.8377,0.4106,40.0600,66,96,96769
1.8622,0.4057,40.0300,66,96,96772
1.8817,0.4350,39.8600,66,96,96775
1.8524,0.4154,40.0300,66,96,96778
1.8622,0.4154,40.1000,66,96,96782
1.8719,0.4106,40.1000,66,96,96785
1.8524,0.4106,40.2000,66,96,96788
1.9062,0.4252,39.8900,66,96,96791
1.8768,0.4154,40.0300,66,96,96795
1.8768,0.4057,40.0000,66,96,96798
1.8768,0.4106,40.1000,66,96,96801
1.9013,0.4154,40.1000,66,96,96804
1.9306,0.4252,39.8900,66,96,96808
1.8915,0.4154,40.1300,66,96,96812
1.8817,0.4106,40.0300,66,96,96815
1.8768,0.4154,40.0300,66,96,96818
1.8719,0.4106,40.1000,66,96,96822
1.9208,0.4594,40.0300,66,96,96825
1.8817,0.4154,40.0600,66,96,96828
1.8817,0.4154,40.0000,66,96,96831
1.9062,0.4106,40.0600,66,96,96835
1.8915,0.4106,40.1600,66,96,96838
1.9501,0.4301,39.9600,66,96,96841
1.9110,0.4203,40.0300,66,96,96844
1.8915,0.4154,40.0300,66,96,96848
1.8964,0.4106,40.1300,66,96,96851
1.8866,0.4106,40.1300,66,96,96855
1.9404,0.4399,39.8900,66,96,96858
1.9013,0.4154,40.0300,66,96,96862
1.8768,0.4057,40.0300,66,96,96865
1.8817,0.4106,40.1300,66,96,96868
1.8671,0.4106,40.1600,66,96,96871
1.9306,0.4350,39.8900,66,96,96875
1.8915,0.4154,40.1000,66,96,96878
1.8817,0.4106,40.0300,66,96,96881
1.8915,0.4203,40.0600,66,96,96884
1.8915,0.4106,40.1600,66,96,96888
1.9501,0.4350,39.8900,66,96,96891
1.9159,0.4154,40.0000,66,96,96894
1.8866,0.4106,40.0300,66,96,96898
1.8817,0.4154,40.0000,66,96,96902
1.8719,0.4106,40.0600,66,96,96905
1.9306,0.4350,39.8300,66,96,96908
1.9013,0.4203,40.0300,66,96,96911
1.8964,0.4057,40.0600,66,96,96915
1.9257,0.4154,40.1000,66,96,96918
1.9355,0.4154,40.2000,66,96,96921
1.9599,0.4350,39.8300,66,96,96924
1.9257,0.4252,40.0000,66,96,96928
1.9159,0.4057,40.0600,66,96,96931
1.9208,0.4154,40.0300,66,96,96934
1.9062,0.4106,40.0600,66,96,96937
1.9501,0.4350,39.9600,66,96,96942
1.9159,0.4252,40.0600,66,96,96945
1.8817,0.4106,40.1600,66,96,96948
1.8915,0.4154,40.2300,66,96,96951
1.8866,0.4106,39.5100,66,96,96955
1.9355,0.4252,39.8600,66,96,96958
1.9013,0.4203,40.0000,66,96,96961
1.8866,0.4301,40.0600,66,96,96964
1.8915,0.4154,40.0600,66,96,96968
1.8817,0.4106,40.1000,66,96,96971
1.9501,0.4252,39.8600,66,96,96974
1.9062,0.4252,40.1000,66,96,96977
1.9013,0.4057,40.0600,66,96,96982
1.9306,0.4154,40.0600,66,96,96985
1.9599,0.4057,40.1600,66,96,96988
2.0039,0.4301,39.8300,66,96,96991
1.9697,0.4154,39.9300,66,96,96995
1.9453,0.4106,40.0600,66,96,96998
1.9550,0.4057,40.0300,66,96,97001
1.9501,0.4106,40.0300,66,96,97004
2.0235,0.4252,39.8900,66,96,97008
1.9990,0.4154,39.9600,66,96,97011
1.9941,0.4106,40.1000,66,96,97014
2.0137,0.4154,40.0300,66,96,97017
1.9941,0.4106,40.1600,66,96,97021
2.0235,0.4301,39.7700,66,96,97025
1.9697,0.4106,40.0000,66,96,97028
1.9306,0.4106,40.2000,66,96,97031
1.9257,0.4154,40.1000,66,96,97035
1.8964,0.4106,40.1000,66,96,97038
1.9355,0.4252,40.0600,66,96,97041
1.8866,0.4154,40.0300,66,96,97044
1.8622,0.4106,40.1000,66,96,97048
1.8817,0.4203,40.1300,66,96,97051
1.8475,0.4399,40.2600,66,96,97054
1.8915,0.4252,39.8300,66,96,97057
1.8475,0.4154,40.0600,66,96,97061
1.8377,0.4057,40.1600,66,96,97064
1.8328,0.4203,40.1300,66,96,97068
1.8035,0.4106,40.0600,66,96,97071
1.8377,0.4252,39.9300,66,96,97075
1.8035,0.4154,39.9300,66,96,97078
1.7889,0.4106,40.0600,66,96,97081
1.8035,0.4106,40.1000,66,96,97084
1.7889,0.4106,40.0600,66,96,97087
1.8280,0.4350,39.8300,66,96,97091
1.7986,0.4203,40.0000,66,96,97094
1.7889,0.4106,40.1000,66,96,97097
1.8084,0.4057,40.0300,66,96,97100
1.7937,0.4106,40.1300,66,96,97104
1.8426,0.4252,39.9600,66,96,97107
1.8133,0.4106,40.0600,66,96,97111
1.8182,0.4106,40.0600,66,96,97114
1.8280,0.4497,40.1000,66,96,97118
1.8231,0.4106,40.1600,66,96,97121
1.8524,0.4252,39.8600,66,96,97124
1.8084,0.4203,40.0300,66,96,97127
1.7742,0.4350,40.1000,66,96,97131
1.7644,0.4203,40.0300,66,96,97134
1.7107,0.4106,40.0600,66,96,97137
1.7155,0.4252,39.8600,66,96,97140
1.7058,0.4057,40.1000,66,96,97144
1.7595,0.4106,40.1300,66,96,97147
1.9110,0.4203,40.0000,66,96,97150
2.0577,0.4106,40.2000,66,96,97154
2.3069,0.4203,39.9600,66,96,97158
2.4731,0.4106,40.0300,66,96,97161
2.6442,0.4106,40.0600,66,96,97164
2.7957,0.4203,40.0600,66,96,97167
2.8592,0.4106,40.0600,66,96,97171
2.9570,0.4154,39.8900,66,96,97174
2.8935,0.4203,40.0300,66,96,97177
2.8152,0.4106,40.0600,66,96,97180
2.7615,0.4203,40.0000,66,96,97184
2.6100,0.4399,40.0600,66,96,97187
2.5073,0.4203,39.8900,66,96,97190
2.2972,0.4203,40.0600,66,96,97193
2.1017,0.4106,40.1300,66,96,97198
1.9648,0.4154,40.0300,66,96,97201
1.8377,0.4057,40.1000,66,96,97204
1.7546,0.4350,39.9300,66,96,97207
1.6569,0.4106,40.0300,66,96,97211
1.6031,0.4106,40.1600,66,96,97214
1.5787,0.4154,40.0000,66,96,97217
1.5445,0.4057,40.1000,66,96,97220
1.5543,0.4203,39.9300,66,96,97224
1.5347,0.4154,40.0600,66,96,97227
1.5249,0.4057,40.1600,66,96,97230
1.5347,0.4203,39.9600,66,96,97233
1.5152,0.4057,40.0600,66,96,97238
1.5347,0.4154,39.8600,66,96,97241
1.5249,0.4154,40.0600,66,96,97244
1.5298,0.4106,40.1300,66,96,97247
1.5738,0.4203,40.1000,66,96,97251
1.5738,0.4106,40.1300,66,96,97254
1.6129,0.4154,39.8900,66,96,97257
1.6129,0.4106,40.1600,66,96,97260
1.6618,0.4106,40.1300,66,96,97264
1.6569,0.4154,40.0000,66,96,97267
1.6520,0.4399,40.0600,66,96,97270
1.6764,0.4154,39.9300,66,96,97273
1.6667,0.4154,40.0000,66,96,97277
1.6667,0.4399,40.1000,66,96,97281
1.6960,0.4252,40.0300,66,96,97284
1.6862,0.4106,40.1000,66,96,97287
1.7498,0.4154,39.9300,66,96,97291
1.7302,0.4301,39.8300,65,96,97295
1.7204,0.4106,40.0000,65,96,97298
1.7155,0.4106,40.0600,65,96,97302
1.7351,0.4399,40.1600,65,96,97305
1.7302,0.4057,40.1000,65,96,97308
1.7791,0.4252,39.9600,65,96,97311
1.7595,0.4154,40.1000,65,96,97315
1.7546,0.4057,40.1000,65,96,97318
1.7742,0.4399,40.0000,65,96,97321
1.7546,0.4106,40.1000,65,96,97325
1.7986,0.4252,39.9300,65,96,97329
1.7889,0.4057,40.0000,65,96,97332
1.7498,0.4057,40.0600,65,96,97335
1.7644,0.4203,40.0300,65,96,97338
1.7351,0.4106,40.0600,65,96,97342
1.7693,0.4399,39.8600,65,96,97345
1.7351,0.4106,40.2000,65,96,97348
1.7449,0.4106,40.1300,65,96,97351
1.7840,0.4106,40.0300,65,96,97355
1.7742,0.4106,40.1000,65,96,97358
1.8280,0.4252,39.8300,65,96,97361
1.7986,0.4154,40.0300,65,96,97364
1.7986,0.4106,40.1000,65,96,97369
1.7937,0.4203,40.1000,65,96,97372
1.7791,0.4106,40.1300,65,96,97375
1.8377,0.4203,39.8900,65,96,97378
1.8182,0.3861,40.1000,65,96,97382
1.8133,0.4106,40.1600,65,96,97385
1.8377,0.4203,40.0600,65,96,97388
1.8231,0.4106,40.1000,65,96,97391
1.8622,0.4154,39.9300,65,96,97395
1.8280,0.4106,40.0000,65,96,97398
1.8377,0.4106,40.1000,65,96,97401
1.8475,0.4154,40.0300,65,96,97404
1.8280,0.4057,40.0600,65,96,97409
1.8475,0.4203,39.9300,65,96,97412
1.8231,0.4154,39.9600,65,96,97415
1.8035,0.4057,40.1000,65,96,97418
1.8280,0.4252,40.0000,65,96,97422
1.7986,0.4106,40.1000,65,96,97425
1.8377,0.4203,39.8600,65,96,97428
1.8084,0.4106,40.0600,65,96,97431
1.7937,0.4252,40.1600,65,96,97435
1.8133,0.4203,40.1000,65,96,97438
1.7937,0.4106,40.1000,65,96,97441
1.8426,0.4301,39.8600,65,96,97444
1.7742,0.4106,40.0600,65,96,97448
1.7742,0.4203,40.1600,65,96,97452
1.8035,0.4203,40.0000,65,96,97455
1.8035,0.4106,40.1000,65,96,97458
1.8573,0.4252,39.9300,65,96,97462
1.8524,0.4154,40.0000,65,96,97465
1.8524,0.3861,40.0600,65,96,97468
1.8719,0.4203,39.9600,65,96,97471
1.8426,0.4154,40.2300,65,96,97475
1.8671,0.4154,39.9300,65,96,97478
1.8280,0.4154,40.0000,65,96,97481
1.8084,0.4106,40.1000,65,96,97484
1.8426,0.4203,40.0000,65,96,97488
1.8084,0.4154,40.0600,65,96,97491
1.8573,0.4203,39.8900,65,96,97495
1.8524,0.3861,40.0600,65,96,97498
1.8964,0.4106,40.1600,65,96,97502
1.9159,0.4203,40.0000,65,96,97505
1.8866,0.4106,40.2300,65,96,97508
1.8964,0.4203,39.8900,65,96,97511
1.8622,0.4203,40.0000,65,96,97515
1.8426,0.4106,40.0600,65,96,97518
1.8622,0.4203,40.0600,65,96,97521
1.8475,0.4106,40.0600,65,96,97524
1.8817,0.4301,39.9300,65,96,97528
1.8719,0.4154,40.1600,65,96,97531
1.8622,0.4106,40.0600,65,96,97534
1.8719,0.4154,39.9600,65,96,97538
1.8182,0.4154,40.1000,65,96,97542
1.8280,0.4203,39.9300,65,96,97545
1.7986,0.4106,40.2000,65,96,97548
1.8035,0.4106,40.1600,65,96,97551
1.8524,0.4106,39.9600,65,96,97555
1.8426,0.4301,40.0600,65,96,97558
1.8768,0.4154,39.4400,65,96,97561
1.8475,0.4154,39.9300,65,96,97564
1.8231,0.4106,40.0600,65,96,97568
1.8133,0.4154,39.9300,65,96,97571
1.7937,0.4203,40.0600,65,96,97574
1.8231,0.4203,39.9300,65,96,97577
1.8084,0.4106,40.0600,65,96,97582
1.8231,0.4106,40.1000,65,96,97585
1.8035,0.4154,39.9600,65,96,97588
1.7840,0.4106,40.1300,65,96,97591
1.8084,0.4154,39.9300,65,96,97595
1.7595,0.4057,40.1600,65,96,97598
1.7693,0.4154,40.0600,65,96,97601
1.7937,0.4203,39.9600,65,96,97604
1.7840,0.4106,40.1600,65,96,97608
1.8182,0.4057,39.8000,65,96,97611
1.8084,0.4203,39.9600,65,96,97614
1.7937,0.4106,40.1600,65,96,97617
1.8084,0.4154,40.0000,65,96,97622
1.7937,0.4106,40.1000,65,96,97625
1.8280,0.4154,40.0000,65,96,97628
1.8084,0.4106,40.0600,65,96,97631
1.8035,0.4106,40.1000,65,96,97635
1.8133,0.4154,40.0300,65,96,97638
1.7937,0.4106,40.0600,65,96,97641
1.8133,0.4154,39.9300,65,96,97644
1.7889,0.4106,40.0600,65,96,97648
1.8084,0.4154,40.1000,65,96,97651
1.8182,0.4203,40.2600,65,96,97654
1.7840,0.4106,40.1300,65,96,97657
1.7986,0.4154,39.9300,65,96,97661
1.7742,0.4203,40.0000,65,96,97665
1.7791,0.4106,40.2600,65,96,97668
1.8035,0.4154,40.0000,65,96,97671
1.7889,0.4057,40.0300,65,96,97675
1.8280,0.4154,39.9300,65,96,97678
1.8084,0.4106,40.0300,65,96,97681
1.8084,0.4057,40.1000,65,96,97684
1.8133,0.4154,40.0300,65,96,97688
1.8084,0.4106,40.0300,65,96,97691
1.8231,0.4106,39.9300,65,96,97694
1.7742,0.4106,40.1000,65,96,97697
1.7889,0.4106,40.1300,65,96,97701
1.8231,0.4252,40.0300,65,96,97704
1.8084,0.4106,40.1000,65,96,97708
1.8426,0.4154,39.8900,65,96,97711
1.8231,0.4106,40.0600,65,96,97715
1.8084,0.4057,40.1000,65,96,97718
1.8133,0.4057,40.0300,65,96,97721
1.7742,0.4301,40.0600,65,96,97724
1.7986,0.4154,40.0300,65,96,97728
1.7693,0.4057,40.0300,65,96,97731
1.7840,0.4301,40.1000,65,96,97734
1.7889,0.4106,40.0600,65,96,97737
1.7840,0.4057,40.0600,65,96,97741
1.8084,0.4203,40.0000,65,96,97744
1.7840,0.4106,40.1300,65,96,97747
1.7840,0.4106,40.1000,65,96,97751
1.8182,0.4203,40.0000,65,96,97754
1.7889,0.4106,40.0600,65,96,97758
1.8084,0.4057,39.9600,65,96,97761
1.7840,0.4057,40.2600,65,96,97764
1.7937,0.4106,40.1000,65,96,97767
1.8133,0.4057,40.0300,65,96,97771
1.7889,0.4203,40.0000,65,96,97774
1.8133,0.4203,39.9600,65,96,97777
1.8328,0.4106,40.0600,65,96,97780
1.8182,0.4252,40.0600,65,96,97784
1.8426,0.4154,40.0300,65,96,97787
1.8328,0.4154,40.1300,65,96,97790
1.8377,0.4154,40.0300,65,96,97794
1.8035,0.4057,40.1600,65,96,97798
1.7937,0.4106,40.1600,65,96,97801
1.8182,0.4252,39.9300,65,96,97804
1.7840,0.4106,40.0300,65,96,97807
1.7986,0.4301,39.9600,65,96,97811
1.7986,0.4106,40.2000,65,96,97814
1.8231,0.4057,40.1300,65,96,97817
1.8622,0.4154,40.0000,65,96,97820
1.8475,0.4106,40.1600,65,96,97824
1.8524,0.4203,39.9300,65,96,97827
1.8231,0.4106,40.2300,65,96,97830
1.8133,0.4106,40.2300,65,96,97833
1.8377,0.4252,40.0600,65,96,97838
1.8231,0.4154,40.1300,65,96,97841
1.8280,0.4203,39.9600,65,96,97844
1.8182,0.4106,40.1000,65,96,97847
1.7791,0.4154,40.1000,65,96,97851
1.8280,0.4203,39.5700,65,96,97854
1.8328,0.4106,40.2300,65,96,97857
1.8768,0.4057,40.0000,65,96,97860
1.8377,0.4106,40.1000,65,96,97864
1.8328,0.4106,40.1600,65,96,97867
1.8475,0.4203,39.9600,65,96,97870
1.8524,0.4057,40.1300,65,96,97873
1.8377,0.4203,39.9300,65,96,97878
1.8231,0.4106,40.0600,65,96,97881
1.8182,0.4106,40.1000,65,96,97884
1.8426,0.4203,40.1000,65,96,97887
1.8280,0.4106,40.0600,65,96,97891
1.8719,0.4154,40.0300,65,96,97894
1.8622,0.4106,40.1600,65,96,97897
1.8719,0.4106,40.1300,65,96,97900
1.8866,0.4057,39.8900,65,96,97904
1.9599,0.4448,40.0600,65,96,97908
1.9746,0.4106,39.4400,65,96,97912
2.0039,0.4154,39.9300,65,96,97915
1.9990,0.4154,40.0000,65,96,97918
1.9404,0.4154,40.2600,65,96,97922
1.9208,0.4154,39.9600,65,96,97926
1.8719,0.4057,40.1000,65,96,97929
1.8671,0.4203,40.0000,65,96,97932
1.8377,0.4106,40.0600,65,96,97935
1.8280,0.4106,40.1600,65,96,97939
1.8426,0.4203,40.0300,65,96,97942
1.8182,0.3861,40.1000,65,96,97945
1.8524,0.4154,39.9300,65,96,97948
1.8377,0.4399,40.0300,65,96,97952
1.8328,0.4106,40.1000,65,96,97955
1.8426,0.4154,40.0000,65,96,97958
1.8084,0.4154,40.1000,65,96,97961
1.7889,0.4154,40.0000,65,96,97966
1.7595,0.4106,40.1000,65,96,97969
1.7595,0.4106,40.0600,65,96,97972
1.7644,0.4154,39.8900,65,96,97975
1.7498,0.4106,40.1000,65,96,97979
1.7840,0.4106,39.9600,65,96,97982
1.7253,0.4057,40.1600,65,96,97985
1.7253,0.4106,40.1000,65,96,97988
1.7546,0.4203,39.4100,65,96,97992
1.7449,0.4106,40.1300,65,96,97995
1.7791,0.4154,39.9600,65,96,97998
1.7595,0.4057,40.0000,65,96,98001
1.7595,0.4106,40.1600,65,96,98006
1.7840,0.4154,40.0300,65,96,98009
1.7693,0.4106,40.1300,65,96,98012
1.7937,0.4203,40.0600,65,96,98015
1.7644,0.4106,40.1000,65,96,98019
1.7791,0.4057,40.1000,65,96,98022
1.8133,0.4154,40.0000,65,96,98025
1.7546,0.4203,40.0600,65,96,98028
1.7498,0.4252,40.0000,65,96,98032
1.6569,0.4106,40.0600,65,96,98035
1.6031,0.4106,40.0600,65,96,98038
1.6373,0.4252,39.9600,65,96,98041
1.6813,0.4106,40.2600,65,96,98045
1.8426,0.4203,40.1000,65,96,98049
2.0137,0.4106,40.1000,65,96,98052
2.1701,0.4106,40.0600,65,96,98055
2.4096,0.4203,40.0600,65,96,98058
2.5660,0.4154,40.1600,65,96,98062
2.7566,0.4203,39.9600,65,96,98065
2.8250,0.4106,40.1600,65,96,98068
2.8886,0.4106,40.0600,65,96,98071
2.9179,0.4154,40.1300,65,96,98075
2.8641,0.4106,40.1000,65,96,98078
2.8201,0.4252,39.9600,65,96,98081
2.6686,0.4057,40.1000,65,96,98084
2.5122,0.4106,40.1000,65,96,98088
2.3803,0.4252,39.9300,65,96,98092
2.1848,0.4106,40.1300,65,96,98095
2.0283,0.4350,39.9600,65,96,98098
1.8671,0.4106,40.1000,65,96,98102
1.7742,0.4057,40.1600,65,96,98105
1.6911,0.4154,40.0000,65,96,98108
1.5885,0.4106,40.1000,65,96,98111
1.5689,0.4154,39.9600,65,96,98115
1.5152,0.4106,40.1000,65,96,98118
1.5005,0.4203,40.0600,65,96,98121
1.5200,0.4203,40.0000,65,96,98124
1.5152,0.4154,40.0600,65,96,98128
1.5396,0.4154,40.0000,65,96,98131
1.5249,0.4106,40.0000,65,96,98135
1.5298,0.4106,40.0600,65,96,98138
1.5640,0.4399,39.8900,65,96,98142
1.5543,0.4154,40.0600,65,96,98145
1.5836,0.4154,40.0000,65,96,98148
1.6227,0.4106,40.0600,65,96,98151
1.5982,0.4106,40.0600,65,96,98155
1.6325,0.4203,40.0600,65,96,98158
1.6227,0.4154,40.1000,65,96,98161
1.6227,0.4252,40.0000,65,96,98164
1.5885,0.4252,40.3000,65,96,98168
1.5836,0.4106,40.2600,65,96,98171
1.6276,0.4203,39.9600,65,96,98174
1.6178,0.4057,40.0600,65,96,98178
1.6373,0.4301,40.0300,65,96,98182
1.6373,0.4301,40.1000,65,96,98185
1.6422,0.4106,40.1000,65,96,98188
1.6813,0.4252,39.9300,65,96,98191
1.6716,0.3861,40.0600,65,96,98195
1.7155,0.4154,39.9600,65,96,98198
1.7009,0.4154,40.1000,65,96,98201
1.7058,0.4106,39.4800,65,96,98204
1.7302,0.4203,39.9600,65,96,98208
1.7107,0.4154,40.1600,65,96,98211
1.7253,0.4154,39.9600,65,96,98214
1.7009,0.4154,40.1000,65,96,98217
1.7155,0.4350,40.1600,65,96,98222
1.7693,0.4203,39.9300,65,96,98225
1.7644,0.4106,40.0600,65,96,98228
1.7840,0.4203,39.9600,65,96,98231
1.7449,0.4399,40.1000,65,96,98235
1.7400,0.4106,40.1300,65,96,98238
1.7791,0.4252,39.9300,65,96,98241
1.7498,0.4154,40.0600,65,96,98244
1.7693,0.4203,40.0600,65,96,98248
1.7546,0.4106,40.2000,65,96,98251
1.7546,0.4106,40.0600,65,96,98254
1.7595,0.4350,39.9300,65,96,98257
1.7449,0.4154,40.0600,65,96,98262
1.7693,0.4154,39.9600,65,96,98265
1.7644,0.4057,40.0600,65,96,98268
1.7742,0.4203,40.1600,65,96,98271
1.7937,0.4252,39.9600,65,96,98275
1.7644,0.4154,40.0600,65,96,98278
1.8084,0.4106,40.0300,65,96,98281
1.7742,0.4106,40.1000,65,96,98284
1.7889,0.4106,40.0000,65,96,98288
1.8426,0.4252,39.9600,65,96,98291
1.8182,0.4154,40.1000,65,96,98294
1.8084,0.4106,39.9600,65,96,98297
1.7937,0.4106,40.1300,65,96,98301
1.7937,0.4106,40.1600,65,96,98305
1.8280,0.4252,40.0300,65,96,98308
1.8035,0.4252,40.0300,65,96,98311
1.8035,0.4154,39.9600,65,96,98315
1.7889,0.4106,40.0600,65,96,98318
1.7840,0.4057,40.0600,65,96,98321
1.8084,0.4252,40.0300,65,96,98324
1.7742,0.4154,40.1000,65,96,98328
1.7840,0.4203,40.0000,65,96,98331
1.7986,0.4203,40.0600,65,96,98334
1.8084,0.4106,40.1300,65,96,98337
1.8377,0.4203,39.9300,65,96,98341
1.8133,0.4154,40.0300,65,96,98344
1.8182,0.4203,40.0600,65,96,98348
1.8182,0.4154,40.1300,65,96,98351
1.8231,0.4106,40.1000,65,96,98355
1.8866,0.4301,39.9300,65,96,98358
1.8328,0.4106,40.1000,65,96,98361
1.8231,0.4106,40.2000,65,96,98364
1.8035,0.4106,40.0600,65,96,98368
1.7840,0.4106,40.1000,65,96,98371
1.8280,0.4301,39.9600,65,96,98374
1.8035,0.4154,40.1000,65,96,98377
1.8231,0.3861,40.0300,65,96,98381
1.8377,0.4154,40.1600,65,96,98384
1.8573,0.4106,40.1300,65,96,98387
1.8719,0.4252,39.9300,65,96,98391
1.8280,0.4106,40.0600,65,96,98395
1.8133,0.4106,40.0300,65,96,98398
1.8328,0.4106,40.0600,65,96,98401
1.8328,0.4106,40.1000,65,96,98404
1.8915,0.4252,39.9600,65,96,98408
1.8622,0.4154,40.1000,65,96,98411
1.8671,0.4203,40.0300,65,96,98414
1.8915,0.4154,40.1000,65,96,98417
1.9013,0.4106,40.0300,65,96,98421
1.9404,0.4252,40.0000,65,96,98424
1.8719,0.4154,40.0600,65,96,98427
1.8475,0.4106,40.0000,65,96,98430
1.8475,0.4106,40.2000,65,96,98435
1.8426,0.4106,40.1000,65,96,98438
1.9306,0.4350,39.9300,65,96,98441
1.8719,0.4154,40.0600,65,96,98444
1.8377,0.4106,40.0300,65,96,98448
1.8182,0.4154,40.0600,65,96,98451
1.8084,0.4106,40.1000,65,96,98454
1.8817,0.4301,39.9300,65,96,98457
1.8719,0.4203,40.0600,65,96,98461
1.8866,0.4106,40.0300,65,96,98464
1.8524,0.4399,40.1000,65,96,98467
1.8377,0.4252,40.0600,65,96,98470
1.8915,0.4350,39.8600,65,96,98475
1.8622,0.4154,40.1000,65,96,98478
1.8280,0.4106,40.0300,65,96,98481
1.8231,0.4154,40.2300,65,96,98484
1.7986,0.4106,40.2600,65,96,98488
1.8524,0.4350,39.9300,65,96,98491
1.8231,0.4154,40.0300,65,96,98494
1.8182,0.4057,40.1000,65,96,98497
1.8133,0.4252,40.1000,65,96,98501
1.8084,0.4106,39.9600,65,96,98504
1.8622,0.4350,39.8900,65,96,98507
1.8280,0.4203,40.1300,65,96,98510
1.7986,0.4154,40.0600,65,96,98514
1.7937,0.4154,40.1300,65,96,98518
1.7889,0.3861,40.0600,65,96,98522
1.7889,0.4106,40.1600,65,96,98526
1.8280,0.4252,39.9600,65,96,98529
1.8133,0.4154,40.0600,65,96,98532
1.8426,0.4154,40.0600,65,96,98535
1.8182,0.4057,40.0600,65,96,98539
1.8133,0.4106,40.0600,65,96,98542
1.8377,0.4203,39.9600,65,96,98545
1.8182,0.4154,40.1300,65,96,98548
1.8231,0.4203,40.0000,65,96,98552
1.7937,0.4154,40.0300,65,96,98555
1.7840,0.4106,40.0300,65,96,98558
1.8133,0.4203,40.0000,65,96,98562
1.7889,0.4301,40.0600,65,96,98566
1.8133,0.4154,40.0300,65,96,98569
1.8084,0.4154,40.1000,65,96,98572
1.7986,0.4106,40.1000,65,96,98575
1.8231,0.4252,40.1000,65,96,98579
1.7986,0.4154,40.0600,65,96,98582
1.8182,0.4203,40.0000,65,96,98585
1.8035,0.4106,40.1300,65,96,98588
1.8035,0.4106,40.1300,65,96,98592
1.8377,0.4252,39.9300,65,96,98595
1.8035,0.4154,40.0600,65,96,98598
1.7986,0.4154,39.8900,65,96,98601
1.7889,0.4154,40.1000,65,96,98606
1.7986,0.4106,40.1300,65,96,98609
1.8426,0.4203,39.9600,65,96,98612
1.8231,0.4154,40.1000,65,96,98615
1.8328,0.4154,40.0600,65,96,98619
1.8231,0.4106,40.0600,65,96,98622
1.8182,0.4106,40.0600,65,96,98625
1.8573,0.4594,39.8900,65,96,98628
1.8133,0.4154,40.1000,65,96,98632
1.7889,0.4154,40.0300,65,96,98635
1.7986,0.4057,40.1000,65,96,98638
1.7889,0.4106,40.0000,65,96,98641
1.8524,0.4252,40.0000,65,96,98646
1.8280,0.4154,40.0300,65,96,98649
1.8328,0.4448,40.0000,65,96,98652
1.8231,0.4154,40.2600,65,96,98655
1.8084,0.4106,40.0600,65,96,98659
1.8377,0.4252,39.9600,65,96,98662
1.8133,0.4106,40.1300,65,96,98665
1.8231,0.4106,40.0300,65,96,98668
1.8280,0.4154,40.1600,65,96,98672
1.8231,0.4106,40.1000,65,96,98675
1.8671,0.4252,39.9300,65,96,98678
1.8328,0.4154,40.0600,65,96,98681
1.8182,0.4399,40.0300,65,96,98685
1.7889,0.4154,40.0600,65,96,98689
1.7791,0.4106,40.1300,65,96,98692
1.8231,0.4301,39.9600,65,96,98695
1.7986,0.4203,40.0000,65,96,98699
1.7986,0.4106,40.0000,65,96,98702
1.7986,0.4106,40.0600,65,96,98705
1.7986,0.4154,40.1600,65,96,98708
1.8573,0.4252,40.2300,65,96,98712
1.8280,0.4106,40.1300,65,96,98715
1.8182,0.4154,40.1000,65,96,98718
1.8084,0.4154,40.1000,65,96,98721
1.7937,0.4106,40.0300,65,96,98725
1.8475,0.4252,39.9600,65,96,98728
1.8231,0.4203,40.0600,65,96,98732
1.8182,0.4008,40.0300,65,96,98735
1.8231,0.4154,40.1300,65,96,98739
1.8182,0.4106,40.2000,65,96,98742
1.8671,0.4301,39.9300,65,96,98745
1.8280,0.4154,40.0300,65,96,98748
1.8133,0.4106,40.0600,65,96,98752
1.8133,0.4154,40.1000,65,96,98755
1.7889,0.4106,40.1000,65,96,98758
1.8622,0.4301,39.8900,65,96,98761
1.8133,0.4203,40.1000,65,96,98765
1.8133,0.4106,40.1300,65,96,98768
1.8182,0.4154,40.0600,65,96,98771
1.8084,0.4106,40.0600,65,96,98775
1.8475,0.4301,39.9300,65,96,98779
1.8328,0.4203,40.1000,65,96,98782
1.7937,0.4106,40.1000,65,96,98785
1.8035,0.4154,40.1300,65,96,98788
1.7986,0.4106,40.1000,65,96,98792
1.8524,0.4497,39.9300,65,96,98795
1.8182,0.4203,39.9300,65,96,98798
1.8280,0.4106,40.1300,65,96,98801
1.8622,0.4154,40.0600,65,96,98805
1.8524,0.4106,40.0600,65,96,98808
1.9110,0.4350,39.8600,65,96,98811
1.8817,0.4154,40.0600,65,96,98814
1.8964,0.4106,40.0300,65,96,98819
1.8768,0.4203,40.1300,65,96,98822
1.8768,0.4106,40.2600,65,96,98825
1.9306,0.4252,39.8900,65,96,98828
1.8915,0.4203,40.0300,65,96,98832
1.8817,0.4106,40.0300,65,96,98835
1.9208,0.4154,39.9600,65,96,98838
1.9453,0.4106,40.1000,65,96,98841
2.0088,0.4350,39.8900,65,96,98845
1.9404,0.4203,40.0300,65,96,98848
1.8964,0.4106,40.0600,65,96,98851
1.9355,0.4106,40.1000,65,96,98854
1.9306,0.4106,40.1000,65,96,98859
1.9501,0.4350,39.9600,65,96,98862
1.8964,0.4203,40.1000,65,96,98865
1.8573,0.4106,40.0600,65,96,98868
1.8426,0.4154,40.1000,65,96,98872
1.8231,0.4106,40.1300,65,96,98875
1.8622,0.4350,39.8900,65,96,98878
1.8133,0.4203,39.9600,65,96,98881
1.7840,0.4106,40.1600,65,96,98885
1.7889,0.4154,40.0600,65,96,98888
1.7791,0.4106,40.0600,65,96,98891
1.8280,0.4350,39.8300,65,96,98894
1.7937,0.4057,40.0000,65,96,98898
1.7449,0.4057,40.0600,65,96,98902
1.7351,0.4154,40.0600,65,96,98905
1.7253,0.4106,40.1000,65,96,98908
1.7840,0.4350,39.8300,65,96,98912
1.7546,0.4203,40.0300,65,96,98915
1.7449,0.4057,39.9600,65,96,98918
1.7498,0.4154,39.8300,65,96,98921
1.7400,0.4106,40.1600,65,96,98925
1.7840,0.4399,39.8300,65,96,98928
1.7546,0.4203,40.0000,65,96,98931
1.7449,0.4057,40.1000,65,96,98934
1.7644,0.4154,40.0300,65,96,98938
1.8035,0.4154,40.1000,65,96,98941
1.8280,0.4301,39.8600,65,96,98945
1.7889,0.4154,40.0600,65,96,98948
1.7595,0.4057,40.1000,65,96,98952
1.7400,0.4154,40.1000,65,96,98955
1.7107,0.4203,40.1000,65,96,98958
1.7449,0.4252,39.8000,65,96,98961
1.6960,0.4154,40.1000,65,96,98965
1.6716,0.4057,40.1000,65,96,98968
1.7253,0.4252,40.0300,65,96,98971
1.8084,0.4106,40.1000,65,96,98974
2.0088,0.4252,39.8000,65,96,98978
2.1505,0.4203,39.9600,65,96,98981
2.3509,0.4106,40.1300,65,96,98984
2.5758,0.4154,40.0600,65,96,98988
2.7615,0.4106,40.1300,65,96,98992
2.9326,0.4252,39.8600,65,96,98995
2.9423,0.4106,40.1000,65,96,98998
2.9081,0.4106,40.2000,65,96,99001
2.8446,0.4154,40.0300,65,96,99004
2.7322,0.4154,40.1000,65,96,99008
2.6931,0.4252,39.8000,65,96,99011
2.5171,0.4154,40.0300,65,96,99014
2.3509,0.4106,40.1000,65,96,99017
2.1994,0.4448,40.0600,65,96,99021
2.0137,0.4106,40.1300,65,96,99024
1.9110,0.4301,39.8900,65,96,99027
1.7546,0.4350,40.0000,65,96,99031
1.6618,0.4106,40.1000,65,96,99035
1.6080,0.4154,40.0300,65,96,99038
1.5445,0.4154,40.0600,65,96,99041
1.5494,0.4252,39.8300,65,96,99044
1.5005,0.4154,40.0600,65,96,99048
1.4907,0.4106,40.1000,65,96,99051
1.5152,0.4154,40.0600,65,96,99054
1.5005,0.4154,40.2600,65,96,99057
1.5249,0.4252,39.8300,65,96,99061
1.5054,0.4106,40.0000,65,96,99064
1.4907,0.4106,39.3800,65,96,99067
1.5152,0.4203,40.2000,65,96,99070
1.5152,0.4106,40.1000,65,96,99075
1.5494,0.4252,39.9300,65,96,99078
1.5347,0.4252,40.1000,65,96,99081
1.5445,0.4106,40.1000,65,96,99084
1.5738,0.4154,40.0300,65,96,99088
1.5640,0.4106,40.0300,65,96,99091
1.5982,0.4203,39.9600,65,96,99094
1.5738,0.4106,40.0600,65,96,99097
1.6031,0.4057,40.0600,65,96,99101
1.6080,0.4154,40.0600,65,96,99104
1.6080,0.4106,40.1000,65,96,99107
1.6471,0.4252,39.9300,65,96,99110
1.6373,0.4497,40.1000,65,96,99115
1.6080,0.4106,40.1000,65,96,99118
1.6227,0.4203,40.0000,65,96,99121
1.6178,0.4106,40.1000,65,96,99124
1.6716,0.4203,39.8600,65,96,99128
1.7400,0.4350,39.8900,65,96,99132
1.7546,0.4252,40.0600,65,96,99136
1.7009,0.4057,40.0600,65,96,99139
1.7009,0.4154,40.0600,65,96,99142
1.7253,0.4106,40.1000,65,96,99145
1.7400,0.4252,39.8300,65,96,99148
1.7204,0.4154,40.0600,65,96,99152
1.7302,0.4106,40.1000,65,96,99155
1.7546,0.4203,40.0300,65,96,99159
1.7449,0.4106,40.2300,65,96,99162
1.7840,0.4252,39.8600,65,96,99166
1.7498,0.4154,39.9600,65,96,99169
1.7351,0.4106,40.1000,65,96,99172
1.7546,0.4154,40.0300,65,96,99175
1.7546,0.4057,40.1600,65,96,99179
1.7937,0.4203,39.8300,65,96,99182
1.7498,0.4301,39.9600,65,96,99185
1.7253,0.4106,40.0600,65,96,99188
1.7253,0.4106,40.0300,65,96,99192
1.7351,0.4106,40.0600,65,96,99195
1.7889,0.4594,39.8000,65,96,99198
1.7693,0.4154,40.1000,65,96,99202
1.7791,0.4106,40.2000,65,96,99206
1.7937,0.4154,40.0300,65,96,99209
1.7791,0.4106,40.2300,65,96,99212
1.8182,0.4252,39.8300,65,96,99215
1.7693,0.4154,39.9600,65,96,99219
1.7498,0.4203,40.1000,65,96,99222
1.7742,0.4154,40.1000,65,96,99225
1.7644,0.4106,40.1000,65,96,99228
1.8133,0.4301,39.9300,65,96,99232
1.7986,0.4106,40.1000,65,96,99235
1.7742,0.4106,40.0600,65,96,99238
1.7889,0.4154,40.0300,65,96,99241
1.7840,0.4106,40.1000,65,96,99246
1.8182,0.4350,39.8600,65,96,99249
1.7937,0.4154,40.0000,65,96,99252
1.7644,0.4106,40.1600,65,96,99255
1.7889,0.4154,40.0300,65,96,99259
1.7791,0.4106,40.1600,65,96,99262
1.8426,0.4252,39.8000,65,96,99265
1.8231,0.4154,40.0600,65,96,99268
1.8182,0.4106,40.1000,65,96,99272
1.8280,0.4154,40.0300,65,96,99275
1.7937,0.4106,40.1000,65,96,99278
1.8231,0.4252,39.8600,65,96,99281
1.7937,0.4057,40.0000,65,96,99286
1.7840,0.4106,40.1000,65,96,99289
1.8035,0.4399,40.0300,65,96,99292
1.8035,0.4106,40.1600,65,96,99295
1.8671,0.4252,39.8600,65,96,99299
1.8768,0.4154,40.1000,65,96,99302
1.8280,0.4203,40.1000,65,96,99305
1.8377,0.4252,40.0000,65,96,99308
1.8182,0.4106,40.1000,65,96,99312
1.8768,0.4252,39.8600,65,96,99315
1.8426,0.4106,40.0000,65,96,99318
1.8426,0.4106,40.1300,65,96,99321
1.8475,0.4203,40.1000,65,96,99325
1.8182,0.4057,40.1000,65,96,99329
1.8573,0.4350,39.8900,65,96,99332
1.8231,0.4350,40.0300,65,96,99335
1.8231,0.4106,40.1000,65,96,99339
1.8377,0.4203,40.0300,65,96,99342
1.8377,0.4106,40.0600,65,96,99345
1.8524,0.4252,39.8900,65,96,99348
1.8328,0.4203,40.0000,65,96,99352
1.8328,0.4106,40.1300,65,96,99355
1.8377,0.4203,40.1000,65,96,99358
1.7986,0.4203,40.1000,65,96,99361
1.8328,0.4252,40.0000,65,96,99365
1.8182,0.4154,40.0000,65,96,99368
1.8426,0.4057,40.0600,65,96,99372
1.8280,0.4545,40.1000,65,96,99375
1.8084,0.4106,40.1000,65,96,99379
1.8475,0.4301,39.8600,65,96,99382
1.7937,0.4106,40.1000,65,96,99385
1.7889,0.4106,40.0600,65,96,99388
1.8035,0.4252,40.0600,65,96,99392
1.7840,0.4203,40.1000,65,96,99395
1.8280,0.4203,39.8000,65,96,99398
1.8084,0.4154,40.0300,65,96,99401
1.7791,0.4106,40.1600,65,96,99405
1.7986,0.4203,40.0300,65,96,99408
1.7937,0.4106,40.2300,65,96,99411
1.8377,0.4203,39.8900,65,96,99415
1.8182,0.4154,40.0300,65,96,99419
1.8133,0.4203,40.1300,65,96,99422
1.8328,0.4252,40.3000,65,96,99425
1.7986,0.3861,40.1000,65,96,99428
1.8133,0.4252,39.8900,65,96,99432
1.7791,0.4057,40.0600,65,96,99435
1.7693,0.4106,40.2300,65,96,99438
1.7986,0.4252,40.0600,65,96,99441
1.7840,0.4057,40.0600,65,96,99445
1.8182,0.4203,39.8900,65,96,99448
1.7986,0.4203,40.0600,65,96,99451
1.7889,0.4106,40.0300,65,96,99454
1.8133,0.4252,40.0300,65,96,99459
1.7889,0.4106,40.1600,65,96,99462
1.8133,0.4154,39.8900,65,96,99465
1.8182,0.4154,40.0300,65,96,99468
1.7840,0.4154,40.1000,65,96,99472
1.8231,0.4252,39.8900,65,96,99475
1.8133,0.4106,40.1000,65,96,99478
1.8377,0.4154,39.9600,65,96,99481
1.8182,0.4008,40.0600,65,96,99485
1.7840,0.4106,40.0600,65,96,99488
1.7986,0.4203,39.9600,65,96,99491
1.7742,0.4057,40.0600,65,96,99494
1.7937,0.4497,39.8900,65,96,99499
1.7742,0.4203,40.1600,65,96,99502
1.7498,0.4106,40.1000,65,96,99505
1.7693,0.4203,39.9600,65,96,99508
1.7498,0.4106,40.2300,65,96,99512
1.7840,0.4203,39.8600,65,96,99515
1.7693,0.4154,40.1300,65,96,99518
1.7742,0.4106,40.1600,65,96,99521
1.8084,0.4154,40.0000,65,96,99525
1.7693,0.4106,40.1300,65,96,99528
1.7791,0.4203,39.9300,65,96,99531
1.7595,0.4106,40.1000,65,96,99534
1.7693,0.4203,40.1000,65,96,99538
1.7937,0.4203,40.0000,65,96,99542
1.7693,0.4154,40.0600,65,96,99545
1.7986,0.4057,39.9300,65,96,99548
1.7889,0.4399,40.1000,65,96,99552
1.7840,0.4106,40.1300,65,96,99555
1.8035,0.4203,40.0600,65,96,99558
1.7840,0.4106,40.0600,65,96,99561
1.8035,0.4154,39.9300,65,96,99565
1.7791,0.4154,40.0300,65,96,99568
1.7693,0.4106,40.1000,65,96,99571
1.7986,0.4252,39.9600,65,96,99574
1.7986,0.4106,40.1300,65,96,99578
1.8231,0.4154,39.9300,65,96,99581
1.7986,0.4106,40.2000,65,96,99585
1.7840,0.4057,40.1000,65,96,99588
1.8084,0.4448,39.9600,65,96,99592
1.7889,0.4106,40.2300,65,96,99595
1.8084,0.4154,39.9300,65,96,99598
1.7889,0.4154,40.0000,65,96,99601
1.7791,0.4203,40.0600,65,96,99605
1.7937,0.4301,39.9300,65,96,99608
1.7742,0.4106,40.2300,65,96,99611
1.8133,0.4154,39.9300,65,96,99614
1.7986,0.4154,40.0300,65,96,99618
1.7937,0.4057,40.0600,65,96,99621
1.8084,0.4154,40.0000,65,96,99624
1.8035,0.4106,40.2000,65,96,99628
1.8182,0.4154,40.0000,65,96,99632
1.7840,0.4154,40.1600,65,96,99635
1.7840,0.4106,40.1600,65,96,99638
1.8182,0.4203,40.0000,65,96,99641
1.7986,0.4203,40.1000,65,96,99645
1.8231,0.4154,39.9600,65,96,99648
1.8182,0.4203,40.0300,65,96,99651
1.7889,0.4350,40.1000,65,96,99654
1.7986,0.4154,39.9600,65,96,99658
1.7791,0.4106,40.1000,65,96,99661
1.8084,0.4154,40.0300,65,96,99664
1.7791,0.4154,40.0600,65,96,99667
1.7742,0.4154,40.0600,65,96,99672
1.7889,0.4154,40.0600,65,96,99675
1.7791,0.4106,40.0600,65,96,99678
1.8133,0.4399,40.0000,65,96,99681
1.7889,0.4154,40.1000,65,96,99685
1.7937,0.4106,40.0600,65,96,99688
1.8231,0.4203,40.0000,65,96,99691
1.8084,0.4106,40.0600,65,96,99694
1.8475,0.4154,40.0000,65,96,99698
1.8280,0.4106,40.0300,65,96,99701
1.8133,0.4106,40.1000,65,96,99704
1.8328,0.4203,40.0000,65,96,99707
1.8133,0.4106,40.1000,65,96,99710
1.8475,0.4203,40.1000,65,96,99715
1.8426,0.4154,40.0300,65,96,99718
1.8231,0.4106,40.1000,65,96,99721
1.8377,0.4154,40.0600,65,96,99725
1.8475,0.4106,40.1000,65,96,99728
1.8964,0.4154,39.9600,65,96,99731
1.9159,0.4106,40.1600,65,96,99734
1.8915,0.4106,40.1300,65,96,99738
1.9257,0.4252,40.0300,65,96,99741
1.9599,0.4057,40.0000,65,96,99744
1.9501,0.4106,40.1000,65,96,99748
1.9795,0.4203,39.8600,65,96,99751
1.9355,0.4154,40.0300,65,96,99755
1.9110,0.4106,40.1300,65,96,99758
1.8915,0.4252,40.0000,65,96,99762
1.8475,0.3861,40.0600,65,96,99765
1.8817,0.4154,39.9600,65,96,99768
1.8133,0.4106,40.0600,65,96,99771
1.8084,0.4106,40.1600,65,96,99775
1.8328,0.4203,40.0000,65,96,99778
1.8231,0.4106,40.0600,65,96,99781
1.8573,0.4448,39.8900,65,96,99784
1.8280,0.4203,40.0000,65,96,99788
1.8035,0.3861,40.1000,65,96,99791
1.7986,0.4203,40.0600,65,96,99794
1.7595,0.4154,40.0600,65,96,99798
1.7889,0.4203,39.9600,65,96,99802
1.7644,0.4154,40.1000,65,96,99805
1.7498,0.4106,40.1000,65,96,99808
1.7595,0.4154,39.9600,65,96,99811
1.7302,0.4106,40.0600,65,96,99815
1.7546,0.4203,39.8900,65,96,99818
1.7400,0.4154,40.1000,65,96,99821
1.7498,0.4106,40.2000,65,96,99824
1.7595,0.4203,40.0000,65,96,99828
1.7449,0.4057,40.1000,65,96,99831
1.7302,0.4203,39.9300,65,96,99834
1.7253,0.4154,40.0000,65,96,99837
1.7400,0.4106,40.1000,65,96,99842
1.7889,0.4057,39.9600,65,96,99845
1.7644,0.4154,40.0600,65,96,99848
1.7889,0.4154,39.8900,65,96,99851
1.7644,0.3861,40.0000,65,96,99855
1.7400,0.4203,40.1000,65,96,99858
1.7155,0.4154,39.7300,65,96,99861
1.6764,0.4106,40.1000,65,96,99864
1.7204,0.4154,39.9300,65,96,99868
1.7204,0.4057,40.1000,65,96,99871
1.8084,0.4106,40.2300,65,96,99874
1.9892,0.4203,39.9600,65,96,99877
2.1505,0.4057,40.1000,65,96,99881
2.3949,0.4350,40.0000,65,96,99885
2.5806,0.4154,40.0000,65,96,99888
2.7175,0.4154,40.1300,65,96,99891
2.8495,0.4203,39.9600,65,96,99895
2.8592,0.4203,40.1000,65,96,99898
2.8935,0.4154,39.9600,65,96,99901
2.8201,0.4057,40.0300,65,96,99904
2.7468,0.4154,40.0600,65,96,99908
2.6540,0.4154,40.1300,65,96,99911
2.4878,0.4154,40.1000,65,96,99914
2.3705,0.4203,39.9300,65,96,99917
2.1408,0.4106,40.1300,65,96,99921
1.9697,0.4106,40.1000,65,96,99924
1.8573,0.4203,39.9600,65,96,99928
1.7302,0.4057,40.1000,65,96,99931
1.6667,0.4203,39.9600,65,96,99935
1.5738,0.4106,39.4800,65,96,99938
1.5249,0.4106,40.1300,65,96,99941
1.5005,0.4203,39.9600,65,96,99944
1.4761,0.4106,40.0600,65,96,99948
1.4858,0.4154,39.9600,65,96,99951
1.4565,0.4106,40.1300,65,96,99954
1.4663,0.4106,40.1000,65,96,99957
1.4761,0.4399,40.1000,65,96,99961
1.4809,0.4106,39.5400,65,96,99964
1.5152,0.4203,40.0000,65,96,99968
1.4858,0.4154,40.1300,65,96,99971
1.4809,0.4106,40.1300,65,96,99975
1.5200,0.4203,40.0600,65,96,99978
1.5152,0.4154,40.1600,65,96,99981
1.5640,0.4154,39.9600,65,96,99984
1.5591,0.4106,40.0600,65,96,99987
1.5787,0.4106,40.1600,65,96,99991
1.6080,0.4154,40.0000,65,96,99994
1.5885,0.4057,40.1000,65,96,99997
1.6227,0.4252,40.0000,65,96,100000
1.6129,0.4154,40.1000,65,96,100004
1.6276,0.3861,40.1000,65,96,100007
1.6422,0.4154,40.0600,65,96,100011
1.6373,0.4154,40.2300,65,96,100015
1.6667,0.4154,39.9600,65,96,100018
1.6471,0.4057,40.1600,65,96,100021
1.6618,0.4106,40.1000,65,96,100025
1.6911,0.4203,40.0300,65,96,100028
1.6764,0.4106,40.1300,65,96,100031
1.7253,0.4252,39.8600,65,96,100035
1.7107,0.4154,40.0000,65,96,100038
1.7009,0.4106,40.1600,65,96,100041
1.7155,0.4057,40.1600,65,96,100044
1.7058,0.4106,40.1000,65,96,100048
1.7498,0.4301,39.8900,65,96,100051
1.7204,0.4154,40.0000,65,96,100055
1.7058,0.4106,40.0600,65,96,100059
1.7155,0.4154,40.0000,65,96,100062
1.7058,0.4203,40.0600,65,96,100065
1.7449,0.4301,39.9300,65,96,100069
1.7204,0.4154,40.0300,65,96,100072
1.7204,0.4154,40.1000,65,96,100075
1.7253,0.4154,40.0600,65,96,100078
1.7400,0.4203,40.0600,65,96,100082
1.7742,0.4203,39.9600,65,96,100085
1.7449,0.4154,40.1600,65,96,100088
1.7498,0.4154,40.0000,65,96,100092
1.7253,0.4106,40.1000,65,96,100096
1.7351,0.4106,40.0600,65,96,100099
1.7742,0.4203,39.9300,65,96,100103
1.7546,0.4154,39.6400,65,96,100106
1.7937,0.4154,40.0000,65,96,100109
1.7644,0.4154,40.0300,65,96,100113
1.7546,0.4106,40.1000,65,96,100116
1.7742,0.4203,40.0300,65,96,100119
1.7546,0.4106,40.1600,65,96,100122
1.7742,0.4399,39.8900,65,96,100126
1.7595,0.4154,40.1000,65,96,100129
1.7498,0.4106,40.1300,65,96,100132
1.7840,0.4154,40.0000,65,96,100136
1.7546,0.3861,40.1000,65,96,100140
1.7986,0.4252,39.8900,65,96,100143
1.7742,0.4154,40.0300,65,96,100147
1.7644,0.4106,40.1000,65,96,100150
1.7742,0.4106,40.1300,65,96,100153
1.7644,0.4106,40.2300,65,96,100157
1.8133,0.4545,39.9300,65,96,100160
1.7791,0.4203,40.0000,65,96,100163
1.7693,0.4106,40.1300,65,96,100166
1.7840,0.4057,40.1000,65,96,100170
1.7840,0.4106,40.0600,65,96,100173
1.8377,0.4252,40.0600,65,96,100176
1.8035,0.4057,40.1300,65,96,100180
1.8133,0.4154,40.0000,65,96,100184
1.7889,0.4154,40.0600,65,96,100187
1.7889,0.4154,40.1000,65,96,100191
1.8280,0.4203,39.9300,65,96,100194
1.8182,0.4154,40.0600,65,96,100197
1.8426,0.4203,39.9600,65,96,100200
1.8133,0.4106,40.1000,65,96,100204
1.8035,0.4154,40.0600,65,96,100207
1.8133,0.4106,40.0000,65,96,100210
1.8084,0.4154,40.1600,65,96,100214
1.8475,0.4252,40.1000,65,96,100217
1.8328,0.4106,40.2300,65,96,100220
1.8377,0.4106,40.0600,65,96,100225
1.8671,0.4057,40.0000,65,96,100228
1.8573,0.4448,40.1600,65,96,100231
1.9159,0.4203,40.0000,65,96,100235
1.8915,0.4203,40.0000,65,96,100238
1.8719,0.4106,40.1600,65,96,100241
1.8915,0.4203,40.0000,65,96,100244
1.8573,0.4106,40.0600,65,96,100248
1.8866,0.4301,39.9300,65,96,100251
1.8524,0.4154,39.8900,65,96,100254
1.8426,0.4008,40.1000,65,96,100258
1.8622,0.4154,40.1300,65,96,100261
1.8524,0.4252,40.1000,65,96,100264
1.9110,0.4350,39.8600,65,96,100269
1.8622,0.4203,39.8900,65,96,100272
1.8426,0.4106,40.0600,65,96,100275
1.8573,0.4154,40.0600,65,96,100278
1.8426,0.4106,40.2600,65,96,100282
1.8817,0.4301,39.9600,65,96,100285
1.8475,0.4154,40.1300,65,96,100288
1.8475,0.4399,39.9600,65,96,100292
1.8328,0.4106,40.1000,65,96,100295
1.8426,0.4106,40.1000,65,96,100298
1.8866,0.4252,39.9300,65,96,100302
1.8524,0.4203,40.1000,65,96,100305
1.8719,0.4203,40.0300,65,96,100308
1.8426,0.4057,40.0300,65,96,100313
1.8524,0.4203,40.0600,65,96,100316
1.8524,0.4154,40.0300,65,96,100319
1.8328,0.4154,40.0300,65,96,100322
1.8622,0.4154,39.9300,65,96,100326
1.8328,0.4106,39.4100,65,96,100329
1.8231,0.4154,40.1000,65,96,100332
1.8231,0.4154,39.9600,65,96,100336
1.7986,0.4203,40.1600,65,96,100339
1.8377,0.4203,39.9600,65,96,100342
1.8084,0.4106,40.0300,65,96,100346
1.8182,0.4057,40.1000,65,96,100349
1.8377,0.4203,39.9600,65,90,100353
1.8280,0.4057,40.1000,65,90,100357
1.8280,0.4057,40.1000,65,90,100360
1.8622,0.4252,39.9300,65,90,100364
1.8280,0.4154,40.1300,65,90,100367
1.8182,0.4154,40.0000,65,90,100370
1.8084,0.4154,40.1000,65,90,100374
1.8182,0.4154,40.2300,65,90,100377
1.8573,0.4203,39.9600,65,90,100380
1.8377,0.4106,40.1300,65,90,100383
1.8719,0.4154,39.9600,65,90,100387
1.8475,0.4106,40.1300,65,90,100390
1.8573,0.4057,40.1600,65,90,100393
1.8573,0.4154,40.1600,65,90,100398
1.8377,0.4106,40.0300,65,90,100401
1.8573,0.4154,39.9300,65,90,100404
1.8524,0.4057,40.1600,65,90,100408
1.8280,0.4106,40.1000,65,90,100411
1.8524,0.4203,39.9600,65,90,100414
1.8328,0.4106,40.0600,65,90,100418
1.8719,0.4252,39.9300,65,90,100421
1.8622,0.4203,40.0000,65,90,100424
1.8573,0.3861,40.1000,65,90,100427
1.8719,0.4301,40.0300,65,90,100431
1.8671,0.4106,40.1600,65,90,100434
1.9110,0.4252,39.7300,65,90,100438
1.9013,0.4057,40.1000,65,90,100442
1.8622,0.4106,40.1000,65,90,100445
1.8719,0.4154,40.0600,65,90,100448
1.8719,0.4057,40.1600,65,90,100452
1.9208,0.4350,39.9600,65,90,100455
1.8817,0.4448,40.0600,65,90,100458
1.8671,0.4057,40.0300,65,90,100461
1.8573,0.4154,40.1000,65,90,100465
1.8768,0.4106,40.1000,65,90,100468
1.8915,0.4252,39.9600,65,90,100471
1.8671,0.4154,40.0600,65,90,100475
1.8817,0.4203,39.9600,65,90,100478
1.8671,0.4106,40.2600,65,90,100482
1.8719,0.4154,40.1300,65,90,100486
1.9159,0.4252,40.0300,65,90,100489
1.9159,0.4203,40.1000,65,90,100492
1.9257,0.4252,40.0000,65,90,100496
1.8817,0.4106,40.1300,65,90,100499
1.8915,0.4106,40.1600,65,90,100502
1.8817,0.4154,39.9300,65,90,100505
1.8719,0.4106,40.1000,65,90,100509
1.8915,0.4154,39.9600,65,90,100512
1.8719,0.4203,40.0000,65,90,100515
1.8719,0.4106,40.1000,65,90,100519
1.8915,0.4252,40.0300,65,90,100523
1.8768,0.4106,40.1000,65,90,100526
1.9257,0.4252,39.8600,65,90,100530
1.8866,0.4350,40.1000,65,90,100533
1.8768,0.4057,40.1000,65,90,100536
1.8915,0.4154,40.1300,65,90,100540
1.8768,0.4154,40.1000,65,90,100543
1.9257,0.4301,39.8900,65,90,100546
1.8915,0.4252,40.0300,65,90,100549
1.8866,0.4106,40.1300,65,90,100553
1.8817,0.4154,40.1300,65,90,100556
1.8671,0.4106,40.1000,65,90,100559
1.9110,0.4301,39.9600,65,90,100563
1.8817,0.4252,40.1000,65,90,100567
1.8768,0.4154,39.9600,65,90,100570
1.8768,0.4154,40.2000,65,90,100574
1.8768,0.4203,40.0600,65,90,100577
1.9062,0.4057,39.9600,65,90,100580
1.8817,0.4154,40.1300,65,90,100583
1.8915,0.4203,39.9300,65,90,100587
1.8671,0.4154,40.0600,65,90,100590
1.8622,0.4106,40.1300,65,90,100593
1.8817,0.4154,40.0600,65,90,100597
1.8719,0.4154,40.1000,65,90,100600
1.9062,0.4252,40.0600,65,90,100603
1.8915,0.4106,40.1000,65,90,100608
1.9110,0.4106,40.1300,65,90,100611
1.9453,0.4203,40.0000,65,90,100614
1.9257,0.4106,40.0600,65,90,100618
1.9648,0.4203,39.8900,65,90,100621
1.9404,0.4154,40.1000,65,90,100624
1.9306,0.4106,40.1000,65,90,100627
1.9599,0.4252,40.0000,65,90,100631
1.9501,0.4106,40.0600,65,90,100634
2.0186,0.4252,39.8300,65,90,100637
1.9990,0.4154,40.0000,65,90,100641
2.0088,0.4154,40.1000,65,90,100644
2.0186,0.4154,40.2000,65,90,100647
1.9795,0.4106,40.1600,65,90,100652
2.0381,0.4301,39.8300,65,90,100655
1.9355,0.4203,40.0000,65,90,100658
1.9013,0.4057,40.1000,65,90,100661
1.8964,0.4154,40.1000,65,90,100665
1.8915,0.4203,40.1000,65,90,100668
1.9550,0.4301,39.9300,65,90,100671
1.9013,0.4154,40.1000,65,90,100675
1.8866,0.4203,40.0300,65,90,100678
1.8719,0.4154,40.1300,65,90,100681
1.8671,0.4399,40.1000,65,90,100685
1.8915,0.4301,39.9300,65,90,100688
1.8524,0.4448,40.1000,65,90,100691
1.8768,0.4154,39.9300,65,90,100696
1.8231,0.4106,40.2000,65,90,100699
1.8133,0.4154,40.0600,65,90,100702
1.8280,0.4252,40.1000,65,90,100705
1.8035,0.4350,40.0600,65,90,100709
1.8280,0.4154,40.0000,65,90,100712
1.7986,0.4106,40.0300,65,90,100715
1.7986,0.4106,40.1000,65,90,100719
1.8231,0.4154,40.0600,65,90,100722
1.8084,0.4106,40.1000,65,90,100725
1.8377,0.4203,39.8600,65,90,100729
1.8133,0.4106,40.1000,65,90,100732
1.8133,0.4106,40.1000,65,90,100736
1.8328,0.4203,40.0300,65,90,100739
1.8182,0.4106,40.1600,65,90,100743
1.8671,0.4252,39.8900,65,90,100746
1.8426,0.4154,40.0000,65,90,100749
1.8133,0.4106,39.9300,65,90,100753
1.8035,0.4154,40.0600,65,90,100756
1.7693,0.4106,40.1600,65,90,100759
1.7889,0.4301,39.8300,65,90,100763
1.7302,0.4301,40.0300,65,90,100766
1.7253,0.4106,40.0600,65,90,100769
1.8035,0.4057,40.0600,65,90,100773
1.9257,0.4057,40.0600,65,90,100776
2.1505,0.4252,40.1600,65,90,100780
2.3265,0.4203,40.0600,65,90,100783
2.5415,0.4057,40.0000,65,90,100787
2.6979,0.4106,40.1000,65,90,100790
2.8201,0.4008,40.1000,65,90,100793
2.9374,0.4252,40.0000,65,90,100797
2.9130,0.4154,40.0600,65,90,100800
2.9228,0.4154,39.9300,65,90,100803
2.8348,0.4106,40.0600,65,90,100807
2.7370,0.4106,40.1000,65,90,100810
2.6540,0.4252,40.0300,65,90,100813
2.4536,0.4154,40.0600,65,90,100816
2.3069,0.4252,40.1000,65,90,100820
2.1065,0.4252,40.0600,65,90,100824
1.9648,0.4106,40.1000,65,90,100827
1.8719,0.4154,40.0000,65,90,100831
1.7644,0.4106,40.1000,65,90,100834
1.7009,0.4203,39.9300,65,90,100837
1.6178,0.4154,40.0300,65,90,100841
1.5591,0.4106,40.0300,65,90,100844
1.5640,0.4057,40.0000,65,90,100847
1.5543,0.4106,40.1300,65,90,100850
1.6080,0.4203,39.8600,65,90,100854
1.6031,0.4057,40.0600,65,90,100857
1.6227,0.4106,40.0600,65,90,100860
1.6373,0.4154,40.0600,65,90,100865
1.6276,0.4057,40.1600,65,90,100868
1.6520,0.4252,39.8300,65,90,100871
1.6178,0.4203,40.0300,65,90,100875
1.6129,0.4057,40.1000,65,90,100878
1.6520,0.4301,40.0600,65,90,100881
1.6764,0.4106,40.0600,65,90,100884
1.7644,0.4252,39.8900,65,90,100888
1.7400,0.4252,40.0300,65,90,100891
1.7351,0.4106,40.0000,65,90,100894
1.7351,0.4154,40.0600,65,90,100898
1.7351,0.4106,40.3300,65,90,100901
1.8084,0.4301,39.9600,65,90,100904
1.7644,0.4154,40.1600,65,90,100909
1.7791,0.4252,40.0000,65,90,100912
1.7742,0.4203,40.1000,65,90,100915
1.7791,0.4106,40.1600,65,90,100918
1.7986,0.4203,40.0600,65,90,100922
1.7937,0.4154,40.1600,65,90,100925
1.8182,0.4252,40.0600,65,90,100928
1.8084,0.4154,40.0600,65,90,100932
1.8133,0.4106,40.1000,65,90,100935
1.8475,0.4252,39.9600,65,90,100938
1.8231,0.4106,40.1600,65,90,100942
1.8524,0.4154,39.9300,65,90,100945
1.8475,0.4106,40.0000,65,90,100948
1.8475,0.4106,40.1000,65,90,100953
1.8817,0.4203,40.0300,65,90,100956
1.8622,0.4106,40.1000,65,90,100959
1.9257,0.4252,39.3200,65,90,100962
1.9795,0.4497,39.8900,65,96,100966
1.9550,0.4203,40.0300,65,96,100969
1.9453,0.4106,40.0600,65,96,100973
1.9550,0.4106,40.1000,65,96,100976
1.9550,0.3861,40.1600,65,96,100979
2.0039,0.4252,40.0000,65,96,100983
1.9697,0.4106,40.0600,65,96,100986
1.9844,0.4154,40.0600,65,96,100989
1.9746,0.4154,40.0000,65,96,100994
1.9746,0.4203,40.1600,65,96,100997
2.0137,0.4252,39.9600,65,96,101000
1.9844,0.4203,40.1000,65,96,101003
2.0137,0.4057,39.9600,65,96,101007
1.9844,0.4057,40.1000,65,96,101010
1.9795,0.4106,40.0600,65,96,101013
2.0088,0.4154,40.0600,65,96,101017
1.9795,0.4154,40.1000,65,96,101020
2.0039,0.4154,40.0000,65,96,101023
1.9746,0.4301,40.0300,65,96,101027
1.9892,0.4057,40.1000,65,96,101030
2.0088,0.4154,40.0300,65,96,101033
1.9990,0.4154,40.0600,65,96,101037
2.0332,0.4350,40.0300,65,96,101041
2.0039,0.4106,40.1600,65,96,101044
2.0039,0.4106,40.1600,65,96,101047
2.0332,0.4106,40.1000,65,96,101051
2.0235,0.4106,40.1300,65,96,101054
2.0626,0.4252,39.8900,65,96,101057
2.0332,0.4203,40.0000,65,96,101061
2.0186,0.4106,40.1600,65,96,101064
2.0381,0.4350,40.1000,65,96,101067
2.0332,0.4154,40.1000,65,96,101070
2.1065,0.4301,39.8300,65,96,101074
2.0723,0.4203,40.3300,65,96,101078
2.0577,0.4154,40.1600,65,96,101081
2.0723,0.4154,40.1000,65,96,101085
2.0723,0.4106,40.1000,65,96,101088
2.1408,0.4350,39.8900,65,96,101091
2.1017,0.4203,40.0600,65,96,101095
2.0919,0.4106,40.0300,65,96,101098
2.0919,0.4154,40.0600,65,96,101101
2.0919,0.4106,40.1000,65,96,101104
2.1261,0.4252,39.9300,65,96,101108
2.0968,0.4399,40.0600,65,96,101111
2.1505,0.4154,40.0000,65,96,101114
2.1065,0.4106,40.1000,65,96,101118
2.1114,0.4106,40.0600,65,96,101122
2.1505,0.4203,39.9600,65,96,101125
2.1212,0.4350,40.0600,65,96,101129
2.1408,0.4203,40.0000,65,96,101132
2.1163,0.4057,40.0300,65,96,101135
2.1114,0.4154,40.2000,65,96,101138
2.1261,0.4154,39.9600,65,96,101142
2.0772,0.4154,39.4100,65,96,101145
2.1017,0.4203,39.9300,65,96,101148
2.0870,0.4154,40.1000,65,96,101152
2.0870,0.4106,40.0600,65,96,101155
2.1114,0.4154,39.9600,65,96,101158
2.0968,0.4106,40.1600,65,96,101163
2.1359,0.4203,39.8900,65,96,101166
2.0919,0.4106,40.0300,65,96,101169
2.0919,0.4057,40.1000,65,96,101172
2.1114,0.4203,40.0600,65,96,101176
2.0870,0.4203,40.1600,65,96,101179
2.1505,0.4301,39.8300,65,96,101182
2.1017,0.4203,40.0300,65,96,101186
2.0723,0.4106,40.2000,65,96,101189
2.0723,0.4203,40.1300,65,96,101192
2.0626,0.4106,40.0600,65,96,101196
2.1163,0.4350,39.8900,65,96,101199
2.1212,0.4203,40.0300,65,96,101202
2.0772,0.4057,40.1600,65,96,101206
2.0821,0.4154,40.0600,65,96,101210
2.0772,0.4106,40.1300,65,96,101213
2.1212,0.4301,39.9300,65,96,101216
2.0821,0.4154,40.0600,65,96,101220
2.0772,0.4203,40.0000,65,96,101223
2.0626,0.4057,40.1600,65,96,101226
2.0479,0.4106,39.9300,65,96,101230
2.0674,0.4399,40.0600,65,96,101233
2.0528,0.4154,40.1000,65,96,101236
2.0723,0.4203,40.0000,65,96,101239
2.0577,0.4154,40.1600,65,96,101243
2.0626,0.4106,40.1000,65,96,101246
2.0919,0.4252,39.9600,65,96,101250
2.0528,0.4301,40.1600,65,96,101254
2.0772,0.4203,40.0000,65,96,101257
2.0479,0.4106,40.0600,65,96,101260
2.0479,0.4106,40.1000,65,96,101264
2.0723,0.4301,39.9600,65,96,101267
2.0626,0.4057,40.1000,65,96,101270
2.0772,0.4154,39.9300,65,96,101273
2.0479,0.4154,40.0300,65,96,101277
2.0430,0.4154,40.1000,65,96,101280
2.0723,0.4154,39.9600,65,96,101283
2.0577,0.4106,40.1600,65,96,101287
2.0968,0.4203,39.8600,65,96,101291
2.0528,0.4154,40.0000,65,96,101294
2.0528,0.4106,40.1000,65,96,101297
2.0772,0.4203,40.0000,65,96,101301
2.0577,0.4106,40.0600,65,96,101304
2.1017,0.4301,39.8900,65,96,101307
2.0674,0.4203,40.0300,65,96,101311
2.0479,0.4106,40.1600,65,96,101314
2.0577,0.4154,40.0300,65,96,101317
2.0528,0.4057,40.1000,65,96,101321
2.1212,0.4350,39.9600,65,96,101324
2.0870,0.4252,40.0000,65,96,101327
2.0821,0.4057,40.1000,65,96,101330
2.0723,0.4154,40.1000,65,96,101335
2.0577,0.4106,40.0000,65,96,101338
2.1017,0.4203,40.0300,65,96,101341
2.0626,0.4154,40.0300,65,96,101345
2.0626,0.4154,40.0000,65,96,101348
2.0430,0.4545,40.1000,65,96,101351
2.0332,0.4106,40.1300,65,96,101355
2.0577,0.4252,40.0300,65,96,101358
2.0283,0.4154,40.1300,65,96,101361
2.0479,0.4399,39.9600,65,96,101364
2.0283,0.4106,40.1000,65,96,101368
2.0235,0.4106,40.1600,65,96,101371
2.0577,0.4301,39.9300,65,96,101374
2.0283,0.4106,40.2300,65,96,101379
2.0577,0.4594,40.0300,65,96,101382
2.0332,0.4203,40.0300,65,96,101385
2.0332,0.4106,40.0600,65,96,101389
2.0577,0.4252,40.0300,65,96,101392
2.0283,0.4154,40.0600,65,96,101395
2.0528,0.4154,39.9300,65,96,101398
2.0235,0.4154,40.0600,65,96,101402
2.0088,0.4106,40.0300,65,96,101405
2.0137,0.4203,40.0600,65,96,101408
1.9795,0.4057,40.1000,65,96,101412
2.0137,0.4252,39.8900,65,96,101415
1.9746,0.4057,40.1000,65,96,101419
1.9892,0.4106,40.1000,65,96,101422
2.0088,0.4203,40.0600,65,96,101426
1.9941,0.4203,40.0600,65,96,101429
2.0430,0.4301,39.8900,65,96,101432
2.0039,0.4203,40.0300,65,96,101436
1.9844,0.4203,40.1600,65,96,101439
1.9844,0.4154,39.9600,65,96,101442
1.9599,0.4154,40.1000,65,96,101446
2.0088,0.4350,39.7300,65,96,101449
1.9648,0.4203,40.0600,65,96,101452
1.9453,0.4057,40.1300,65,96,101456
1.9501,0.4154,40.1600,65,96,101459
1.9404,0.4106,40.1000,65,96,101463
1.9746,0.4301,39.9300,65,96,101466
1.9306,0.4154,40.1000,65,96,101470
1.9306,0.4252,39.9600,65,96,101473
1.9404,0.4057,40.1000,65,96,101476
1.9453,0.4106,40.0600,65,96,101480
1.9844,0.4154,40.1300,65,96,101483
1.9697,0.4203,40.1600,65,96,101486
2.0039,0.4252,39.9600,65,96,101490
1.9795,0.4154,40.0600,65,96,101493
1.9795,0.4106,40.1300,65,96,101496
2.0137,0.4203,39.9600,65,96,101499
1.9990,0.4154,40.1600,65,96,101504
2.0332,0.4154,39.9300,65,96,101507
2.0235,0.4154,39.8300,65,96,101510
2.0235,0.4106,40.1000,65,96,101514
2.0674,0.4252,39.9600,65,96,101517
2.0674,0.4106,40.1300,65,96,101520
2.1310,0.4203,39.9300,65,96,101524
2.1065,0.4154,39.9300,65,96,101527
2.0821,0.4203,40.1000,65,96,101530
2.0772,0.4203,40.0300,65,96,101534
2.0381,0.4106,39.8600,65,96,101537
2.0674,0.4301,39.9300,65,96,101540
2.0186,0.4154,39.9600,65,96,101543
1.9941,0.4106,40.2600,65,96,101548
1.9990,0.4154,40.1000,65,96,101551
1.9844,0.4106,40.1600,65,96,101554
2.0332,0.4350,39.8900,65,96,101558
1.9844,0.4203,40.0000,65,96,101561
1.9599,0.4106,40.0600,65,96,101564
1.9404,0.4154,40.1000,65,96,101568
1.9208,0.4057,40.1000,65,96,101571
1.9453,0.4252,39.9300,65,96,101574
1.9062,0.4448,39.9600,65,96,101578
1.9062,0.4106,40.0600,65,96,101581
1.9257,0.4154,40.0000,65,96,101584
1.8964,0.4106,40.0600,65,96,101588
1.8964,0.4057,40.1000,65,96,101592
1.9062,0.4154,40.0300,65,96,101595
1.8817,0.4106,40.0600,65,96,101599
1.9062,0.4252,39.8900,65,96,101602
1.8768,0.4057,40.0000,65,96,101605
1.8719,0.4203,40.0600,65,96,101609
1.8719,0.4203,40.0300,65,96,101612
1.8622,0.4106,40.0600,65,96,101615
1.9159,0.4301,39.8600,65,96,101619
1.8915,0.4154,40.0300,65,96,101622
1.8768,0.4106,40.1600,65,96,101625
1.8768,0.4154,40.0300,65,96,101628
1.8377,0.4106,40.1600,65,96,101633
1.8475,0.4399,39.8900,65,96,101636
1.7742,0.4203,40.0300,65,96,101639
1.7644,0.4106,40.0000,65,96,101643
1.8475,0.4154,40.1000,65,96,101646
1.9892,0.4106,40.0300,65,96,101649
2.2287,0.4252,39.9300,65,96,101653
2.4291,0.4154,40.1300,65,96,101656
2.6540,0.4203,40.0000,65,96,101659
2.7908,0.4154,40.1000,65,96,101662
2.8983,0.4106,40.1000,65,96,101666
2.9765,0.4203,40.2000,65,96,101669
2.9472,0.4106,40.0000,65,96,101672
2.9423,0.4203,40.0300,65,96,101677
2.8397,0.4106,40.1300,65,96,101680
2.7370,0.4154,40.1000,65,96,101683
2.6344,0.4154,39.9600,65,96,101687
2.4145,0.4106,40.0600,65,96,101690
2.2434,0.4203,39.9600,65,96,101693
2.0479,0.4154,40.0300,65,96,101696
1.8817,0.3861,40.1600,65,96,101700
1.8035,0.4203,40.0000,65,96,101703
1.7498,0.4106,40.1000,65,96,101706
1.7058,0.4203,40.0000,65,96,101710
1.6618,0.4399,40.0300,65,96,101713
1.6667,0.4057,40.1300,65,96,101716
1.6471,0.4203,40.0300,65,96,101721
1.6276,0.4106,40.0600,65,96,101724
1.6569,0.4057,39.8900,65,96,101727
1.6373,0.4154,40.0300,65,96,101730
1.6373,0.4106,40.1000,65,96,101734
1.6618,0.4154,40.0300,65,96,101737
1.6618,0.4203,40.1300,65,96,101740
1.7253,0.4350,39.8300,65,96,101744
1.6960,0.4203,40.0600,65,96,101747
1.6911,0.4154,40.0600,65,96,101750
1.7009,0.4154,40.2300,65,96,101754
1.6960,0.4154,40.0600,65,96,101757
1.7498,0.4057,39.8900,65,96,101761
1.7253,0.4154,39.8900,65,96,101765
1.7302,0.4154,39.9600,65,96,101768
1.7253,0.4106,40.0600,65,96,101771
1.7253,0.4106,40.0000,65,96,101774
1.7546,0.4154,40.0300,65,96,101778
1.7400,0.4154,40.0600,65,96,101781
1.7595,0.4154,40.0000,65,96,101784
1.7498,0.4203,40.0600,65,96,101788
1.7742,0.4106,40.1000,65,96,101791
1.7937,0.4106,40.0600,65,96,101794
1.7937,0.4203,40.1600,65,96,101798
1.8280,0.4203,40.0000,65,96,101801
1.8084,0.4106,40.1300,65,96,101805
1.8133,0.4154,40.1000,65,96,101808
1.8328,0.4203,40.3300,65,96,101812
1.8084,0.4057,40.1000,65,96,101815
1.8328,0.4203,39.9300,65,96,101818
1.8231,0.4301,39.9300,65,96,101822
1.8231,0.4106,40.1300,65,96,101825
1.8524,0.4154,40.0300,65,96,101828
1.8426,0.4106,40.2000,65,96,101832
1.9013,0.4252,39.9300,65,96,101835
1.8768,0.4154,40.1000,65,96,101838
1.8671,0.4106,40.1600,65,96,101842
1.8915,0.4154,40.1300,65,96,101846
1.8768,0.4106,40.1600,65,96,101849
1.9257,0.4399,39.8600,65,96,101853
1.8866,0.4203,40.0300,65,96,101856
1.8671,0.4106,40.0300,65,96,101859
1.8671,0.4106,40.1300,65,96,101862
1.8671,0.4154,40.1000,65,96,101866
1.9110,0.4252,40.0000,65,96,101869
1.8719,0.4154,40.1600,65,96,101872
1.8817,0.4203,40.0000,65,96,101876
1.8622,0.4106,40.1000,65,96,101879
1.8573,0.4106,40.1600,65,96,101882
1.8915,0.4203,40.1000,65,96,101886
1.8671,0.4106,40.0600,65,96,101890
1.8866,0.4448,40.0000,65,96,101893
1.8768,0.4057,40.0300,65,96,101896
1.8671,0.4106,40.1000,65,96,101900
1.9159,0.4057,40.0000,65,96,101903
1.8573,0.4106,40.0600,65,96,101906
1.8768,0.4154,39.9600,65,96,101910
1.8768,0.4057,40.1000,65,96,101913
1.8622,0.4106,40.1000,65,96,101916
1.8915,0.4154,40.1300,65,96,101920
1.9159,0.4106,40.1000,65,96,101923
1.9404,0.4203,39.8900,65,96,101926
1.9062,0.4106,40.0000,65,96,101931
1.9062,0.4106,40.1300,65,96,101934
1.9208,0.4154,40.0300,65,96,101937
1.9062,0.4057,40.1000,65,96,101940
1.9550,0.4252,39.9300,65,96,101944
1.9208,0.4154,40.1300,65,96,101947
1.9013,0.4301,40.1300,65,96,101950
1.9110,0.4154,40.1000,65,96,101954
1.9013,0.4106,40.1300,65,96,101957
1.9648,0.4350,39.8900,65,96,101960
1.9306,0.4154,40.0300,65,96,101964
1.9159,0.4106,40.0300,65,96,101967
1.9159,0.4106,39.9600,65,96,101970
1.9110,0.4057,40.0600,65,96,101974
1.9501,0.4252,40.0300,65,96,101978
1.9306,0.4154,40.1300,65,96,101981
1.9453,0.4448,40.0000,65,96,101984
1.9355,0.4106,40.1000,65,96,101988
1.9355,0.4106,40.0600,65,96,101991
1.9453,0.4154,40.0600,65,96,101994
1.9355,0.4106,40.1300,65,96,101998
1.9746,0.4203,39.9600,65,96,102001
1.9697,0.4106,40.1000,65,96,102004
1.9844,0.4106,40.1300,65,96,102008
2.0186,0.4057,39.9600,65,96,102011
1.9941,0.4106,40.0300,65,96,102014
2.0137,0.4154,40.0300,65,96,102018
2.0039,0.4057,40.0300,65,96,102022
1.9941,0.4106,40.1000,65,96,102025
2.0137,0.4203,39.9600,65,96,102028
1.9941,0.4106,40.0600,65,96,102032
2.0332,0.4203,39.9300,65,96,102035
2.0137,0.4057,40.1000,65,96,102038
2.0088,0.4057,40.1000,65,96,102042
2.0186,0.4154,40.0600,65,96,102045
1.9990,0.4106,39.4400,65,96,102048
2.0479,0.4301,39.8300,65,96,102051
2.0088,0.4106,40.1000,65,96,102055
2.0039,0.4057,40.1600,65,96,102059
2.0137,0.4154,40.0600,65,96,102062
2.0039,0.4106,40.0600,65,96,102066
2.0528,0.4350,39.8900,65,96,102069
2.0039,0.4203,40.0600,65,96,102072
1.9795,0.4106,40.1300,65,96,102075
1.9795,0.4106,40.1600,65,96,102079
1.9697,0.4057,40.0600,65,96,102082
2.0479,0.4057,39.8900,65,96,102085
1.9892,0.4154,40.2000,65,96,102089
1.9941,0.4154,40.0300,65,96,102092
1.9941,0.4057,40.2000,65,96,102095
1.9892,0.4057,40.1600,65,96,102099
2.0332,0.4154,39.9600,65,96,102103
2.0186,0.4106,40.1000,65,96,102106
2.0430,0.4154,40.1000,65,96,102110
2.0235,0.4106,40.1000,65,96,102113
2.0235,0.3861,40.1300,65,96,102116
2.0235,0.4057,40.0000,65,96,102119
2.0088,0.4203,40.1000,65,96,102123
2.0430,0.4154,40.0000,65,96,102126
2.0186,0.4057,40.2000,65,96,102129
2.0186,0.4057,40.1600,65,96,102133
2.0772,0.4203,40.0300,65,96,102136
2.0137,0.4057,40.1000,65,96,102139
2.0430,0.4106,39.8900,65,96,102144
2.0283,0.4057,40.0000,65,96,102147
2.0039,0.4057,40.2000,65,96,102150
2.0186,0.4350,40.1000,65,96,102153
1.9941,0.4154,40.1000,65,96,102157
2.0381,0.4203,39.9600,65,96,102160
2.0088,0.4301,40.1000,65,96,102163
2.0088,0.4154,40.1600,65,96,102167
2.0283,0.4106,40.1300,65,96,102170
2.0039,0.4057,40.2300,65,96,102173
2.0528,0.4252,39.8000,65,96,102176
2.0186,0.4057,40.0600,65,96,102180
2.0088,0.4057,40.1600,65,96,102183
2.0186,0.4106,40.0600,65,96,102187
2.0039,0.4106,40.2300,65,96,102191
2.0039,0.4106,40.0300,65,96,102194
2.0528,0.4203,39.8900,65,96,102198
2.0332,0.4106,40.1300,65,96,102201
2.0577,0.4154,40.0000,65,96,102204
2.0381,0.4106,40.1000,65,96,102208
2.0430,0.4057,40.1000,65,96,102211
2.0674,0.4203,40.0300,65,96,102214
2.0283,0.4057,40.1000,65,96,102217
2.0577,0.4154,40.0000,65,96,102221
2.0283,0.4057,40.1000,65,96,102224
2.0332,0.4057,40.1000,65,96,102227
2.0479,0.4057,40.1000,65,96,102232
2.0479,0.4057,40.0600,65,96,102235
2.0626,0.4057,39.9600,65,96,102238
2.0381,0.4057,40.1600,65,96,102241
2.0430,0.4301,40.2000,65,96,102245
2.0772,0.4106,40.0000,65,96,102248
2.0674,0.4057,40.1000,65,96,102251
2.1114,0.4154,39.8600,65,96,102255
2.1065,0.4057,40.0000,65,96,102258
2.0919,0.4057,40.1600,65,96,102261
2.1212,0.4106,40.0300,65,96,102265
2.1114,0.4057,40.1600,65,96,102268
2.1652,0.4203,39.8600,65,96,102272
2.1212,0.4057,40.0300,65,96,102276
2.1065,0.4008,39.5100,65,96,102279
2.1261,0.4203,40.1000,65,96,102282
2.1310,0.4106,40.1000,65,96,102285
2.2043,0.4252,39.8900,65,96,102289
2.1652,0.4106,40.0300,65,96,102292
2.1554,0.4057,40.0300,65,96,102295
2.1603,0.4203,40.1300,65,96,102299
2.1652,0.4057,40.1600,65,96,102302
2.2092,0.4203,39.9600,65,96,102305
2.1848,0.4154,40.0600,65,96,102309
2.1896,0.4106,40.0000,65,96,102312
2.1603,0.4106,40.0600,65,96,102316
2.1505,0.4154,40.0600,65,96,102319
2.1945,0.4154,39.9300,65,96,102323
2.1701,0.4057,40.1300,65,96,102326
2.2141,0.4154,40.0300,65,96,102329
2.1799,0.4008,40.0000,65,96,102333
2.1848,0.4057,40.0600,65,96,102336
2.2141,0.4057,40.0000,65,96,102339
2.1896,0.4057,40.1600,65,96,102343
2.2239,0.4154,40.1000,65,96,102346
2.1994,0.4057,40.0300,65,96,102349
2.1896,0.4057,40.1300,65,96,102352
2.2043,0.4154,39.9600,65,96,102356
2.1701,0.4057,40.1600,65,96,102360
2.2239,0.4154,39.8900,65,96,102363
2.1896,0.4008,40.1300,65,96,102367
2.1945,0.4057,39.9600,65,96,102370
2.2239,0.4203,40.0300,65,96,102373
2.2190,0.4057,40.1000,65,96,102377
2.2923,0.4203,39.8300,65,96,102380
2.2678,0.4106,40.0000,65,96,102383
2.2581,0.4057,40.1300,65,96,102387
2.2776,0.4057,40.0600,65,96,102390
2.2727,0.4057,40.1600,65,96,102393
2.3460,0.4252,39.8900,65,96,102396
2.3167,0.3861,40.0000,65,96,102401
2.3216,0.4008,40.1300,65,96,102404
2.3412,0.4350,40.2000,65,96,102407
2.3607,0.3959,40.1000,65,96,102411
2.4194,0.4154,40.1300,65,96,102414
2.3754,0.4106,40.0300,65,96,102417
2.3656,0.4057,39.9600,65,96,102421
2.3216,0.4057,40.1300,65,96,102424
2.3021,0.3861,40.1000,65,96,102427
2.3118,0.4106,40.0600,65,96,102430
2.2825,0.4008,40.1600,65,96,102434
2.3167,0.4154,39.9600,65,96,102437
2.2874,0.4106,40.1000,65,96,102440
2.3021,0.4057,40.1600,65,96,102445
2.3363,0.4154,40.0000,65,96,102448
2.3118,0.4057,40.0600,65,96,102451
2.3363,0.4057,40.0000,65,96,102455
2.3118,0.4057,40.0600,65,96,102458
2.2923,0.4057,40.1300,65,96,102461
2.3118,0.4154,40.0300,65,96,102465
2.2874,0.4057,40.0000,65,96,102468
2.3314,0.4154,39.8600,65,96,102471
2.3069,0.4008,40.0300,65,96,102474
2.2972,0.4057,40.2000,65,96,102478
2.3314,0.4106,40.0000,65,96,102481
2.3216,0.4106,40.0600,65,96,102484
2.4047,0.4154,39.9600,65,96,102489
2.3754,0.4057,39.9600,65,96,102492
2.3754,0.4008,40.1300,65,96,102495
2.3851,0.4106,40.0600,65,96,102498
2.3851,0.4057,40.1000,65,96,102502
2.4633,0.4252,39.7300,65,96,102505
2.4438,0.4106,40.1300,65,96,102508
2.4389,0.4008,40.0300,65,96,102512
2.4731,0.4106,40.0600,65,96,102515
2.5073,0.4057,40.2000,65,96,102518
2.6149,0.4154,40.0000,65,96,102522
2.6197,0.4106,40.1600,65,96,102525
2.6979,0.4106,39.9600,65,96,102529
2.6882,0.4057,40.1000,65,96,102532
2.7126,0.4057,39.4800,65,96,102536
2.8104,0.4203,40.0300,65,96,102539
2.8592,0.4057,40.1000,65,96,102542
3.0401,0.4106,39.8600,65,96,102546
3.2063,0.4057,40.0600,65,96,102549
3.4653,0.4008,40.1000,65,96,102552
3.7195,0.4057,40.1000,65,96,102556
3.9101,0.4057,40.1000,65,96,102559
4.1105,0.4252,40.0300,65,96,102562
4.1593,0.4057,40.1000,65,96,102565
4.2180,0.4057,40.0600,65,96,102569
4.2669,0.4154,40.0000,65,96,102573
4.1691,0.4057,40.1000,65,96,102576
4.1349,0.4057,39.9300,65,96,102580
3.9932,0.4057,39.9600,65,96,102583
3.8172,0.4057,40.1000,65,96,102586
3.6755,0.4154,39.8600,65,96,102590
3.4360,0.4106,40.1600,65,96,102593
3.3382,0.4106,39.8600,65,96,102596
3.1720,0.4008,40.0600,65,96,102599
3.0645,0.4106,40.1300,65,96,102603
3.0254,0.4350,40.1000,65,96,102606
2.9374,0.3910,40.0600,65,96,102609
2.9765,0.4057,39.8900,65,96,102614
2.8886,0.4057,40.1000,65,96,102617
2.8592,0.4497,40.0600,65,96,102620
2.8592,0.4154,40.0600,65,96,102623
2.8397,0.4008,40.1000,65,96,102627
2.9130,0.4252,39.8300,65,96,102630
2.8495,0.4106,40.0300,65,96,102633
2.8348,0.4008,40.1300,65,96,102637
2.8348,0.4057,40.0600,65,96,102640
2.8250,0.4301,40.0600,65,96,102643
2.8935,0.4203,39.9300,65,96,102647
2.8446,0.4057,40.1600,65,96,102650
2.8446,0.4301,40.0000,65,96,102653
2.8495,0.3959,40.1600,65,96,102657
2.8543,0.4008,40.2000,65,96,102661
2.9130,0.4106,39.9600,65,96,102664
2.8837,0.4008,40.1300,65,96,102667
2.9374,0.4106,39.9600,65,96,102671
2.8641,0.4008,40.3000,65,96,102674
2.8543,0.4106,40.1000,65,96,102677
2.8886,0.4057,40.0300,65,96,102681
2.8739,0.4008,40.1300,65,96,102684
2.9228,0.4106,39.9300,65,96,102687
2.8886,0.3959,40.1000,65,96,102690
2.8886,0.4008,40.1600,65,96,102694
2.9228,0.4203,40.1000,65,96,102697
2.8788,0.4008,40.1300,65,96,102701
2.9081,0.4057,39.9300,65,96,102705
2.8837,0.4057,39.9600,65,96,102708
2.8543,0.4008,40.1600,65,96,102711
2.8837,0.4057,39.9600,65,96,102715
2.8495,0.4008,40.1300,65,96,102718
2.9032,0.4154,39.8600,65,96,102721
2.8690,0.4008,40.0000,65,96,102724
2.8495,0.4008,40.1000,65,96,102728
2.8690,0.4057,40.0300,65,96,102731
2.8201,0.4008,40.1600,65,96,102734
2.8739,0.4106,40.0000,65,96,102738
2.8250,0.4008,40.0300,65,96,102742
2.8152,0.4008,40.1000,65,96,102745
2.8348,0.4057,40.1600,65,96,102748
2.8348,0.4448,40.1000,65,96,102752
2.9374,0.4154,39.8300,65,96,102755
2.8935,0.4057,40.1000,65,96,102758
2.8837,0.4008,40.1000,65,96,102762
2.8935,0.4008,40.1300,65,96,102765
2.8886,0.4008,40.1300,65,96,102768
2.9668,0.4154,39.8900,65,96,102772
2.9228,0.4057,40.1000,65,96,102775
2.9277,0.4008,40.0000,65,96,102778
2.9179,0.4252,40.0600,65,96,102781
2.9472,0.4008,40.0600,65,96,102786
2.9863,0.4008,39.9600,65,96,102789
2.9570,0.4008,40.1300,65,96,102792
2.9912,0.4057,40.0300,65,96,102796
2.9863,0.3959,40.1600,65,96,102799
3.0890,0.3959,40.1600,65,96,102803
3.1232,0.3959,40.0300,65,96,102806
3.1916,0.4057,40.0000,65,96,102809
3.1965,0.3959,40.0600,65,96,102813
3.2893,0.4008,39.8900,65,96,102816
3.2845,0.4008,40.0300,65,96,102819
3.2747,0.3910,40.1000,65,96,102822
3.3382,0.4008,40.1000,65,96,102827
3.3284,0.3910,39.9300,65,96,102830
3.4409,0.4448,39.8900,65,96,102833
3.4262,0.3959,40.0000,65,96,102837
3.4311,0.4008,40.0600,65,96,102840
3.4751,0.3910,40.0300,65,96,102843
3.4897,0.3910,40.0600,65,96,102846
3.6413,0.4106,39.8900,65,96,102850
3.6119,0.4008,40.0300,65,96,102853
3.6217,0.3861,40.0600,65,96,102856
3.6755,0.3861,40.1000,65,96,102860
3.6852,0.3861,40.1600,65,96,102863
3.8025,0.4008,39.9600,65,96,102866
3.7781,0.3861,40.0300,65,96,102871
3.8270,0.3910,40.0000,65,96,102874
3.8563,0.3861,40.1000,65,96,102877
3.9003,0.3812,40.1600,65,96,102880
4.0127,0.4203,39.9300,65,96,102884
3.9980,0.3861,40.0600,65,96,102887
4.0762,0.3861,40.0600,65,96,102890
4.0665,0.4057,40.0600,65,96,102894
4.0909,0.3812,40.1000,65,96,102897
4.1789,0.3959,40.0000,65,96,102900
4.1447,0.3861,40.0600,65,96,102904
4.2229,0.3959,40.0000,65,96,102907
4.1887,0.3715,40.1600,65,96,102910
4.2424,0.3812,40.2000,65,96,102914
4.2913,0.3910,40.1000,65,96,102918
4.3255,0.3861,40.1000,65,96,102921
4.3988,0.3910,40.0000,65,96,102924
4.3646,0.3812,40.1000,65,96,102928
4.3793,0.3763,40.1000,65,96,102931
4.4477,0.3861,39.8300,65,96,102934
4.4330,0.3910,40.0600,65,96,102938
4.5259,0.3910,39.8900,65,96,102941
4.4917,0.3861,40.0000,65,96,102944
4.4575,0.3812,40.1000,65,96,102947
4.5112,0.3910,39.8600,65,96,102951
4.4868,0.3812,40.0600,65,96,102955
4.6139,0.3910,39.8900,65,96,102958
4.5552,0.3861,39.9600,65,96,102962
4.4917,0.3812,40.1300,65,96,102965
4.5015,0.3861,40.1000,65,96,102968
4.4868,0.3812,40.1000,65,96,102972
4.6139,0.4057,39.8900,65,96,102975
4.5601,0.3910,40.0300,65,96,102978
4.5259,0.3763,40.0300,65,96,102981
4.5357,0.3812,40.1000,65,96,102985
4.5210,0.3763,40.1600,65,96,102988
4.6188,0.3959,39.9600,65,96,102991
4.5748,0.3959,40.0600,65,96,102995
4.6579,0.3910,40.0600,65,96,102999
4.6188,0.3812,40.1000,65,96,103002
4.6481,0.3763,40.1600,65,96,103006
4.7556,0.3861,40.0000,65,96,103009
4.7507,0.3812,40.0600,65,96,103012
4.8485,0.3861,40.0300,65,96,103015
4.8583,0.3715,40.0300,65,96,103019
4.8729,0.3763,40.1000,65,96,103022
4.9511,0.3715,40.0000,65,96,103025
4.9267,0.3666,40.0600,65,96,103029
5.0000,0.3812,40.0000,65,96,103032
4.9462,0.3763,40.0000,65,96,103035
4.9462,0.3812,40.2300,65,96,103040
5.0000,0.3812,40.0300,65,96,103043
4.9560,0.3763,40.0300,65,96,103046
5.0000,0.3812,39.9300,65,96,103049
4.9511,0.3715,40.2000,65,96,103053
4.9951,0.3715,40.1300,65,96,103056
5.0000,0.3812,40.1000,65,96,103059
4.9609,0.3910,40.1600,65,96,103063
5.0000,0.3910,39.9300,65,96,103066
5.0000,0.3812,40.0000,65,96,103069
4.9756,0.3715,40.1000,65,96,103072
4.9951,0.3763,40.0300,65,96,103076
4.9707,0.3666,40.1600,65,96,103079
5.0000,0.3861,39.8000,65,96,103083
5.0000,0.3763,40.0600,65,96,103087
4.9707,0.3715,40.1300,65,96,103090
4.9756,0.3812,40.1000,65,96,103093
4.9609,0.3715,40.1600,65,96,103097
5.0000,0.3910,39.8600,65,96,103100
5.0000,0.3812,40.0300,65,96,103103
4.9853,0.3812,40.1600,65,96,103106
4.9707,0.3715,40.1300,65,96,103110
4.9609,0.3666,40.1600,65,96,103113
5.0000,0.3861,39.9600,65,96,103116
4.9804,0.3715,40.0600,65,96,103120
5.0000,0.3812,40.0000,65,96,103123
4.9609,0.3666,40.1000,65,96,103127
4.9804,0.3763,40.1000,65,96,103131
5.0000,0.3812,39.9600,65,96,103134
4.9756,0.3715,40.1300,65,96,103137
5.0000,0.3715,40.0300,65,96,103140
4.9707,0.3715,40.1300,65,96,103144
4.9756,0.3666,40.1600,65,96,103147
5.0000,0.3812,40.0300,65,96,103150
4.9658,0.3617,40.1300,65,96,103154
5.0000,0.3763,40.0600,65,96,103157
4.9609,0.3666,40.0600,65,96,103160
4.9609,0.3666,40.2000,65,96,103163
5.0000,0.3812,39.9300,65,96,103168
4.9560,0.3715,40.1000,65,96,103171
5.0000,0.3715,39.8600,65,96,103174
4.9462,0.3666,40.1000,65,96,103178
4.9560,0.3715,40.1600,65,96,103181
5.0000,0.3666,40.0000,65,96,103184
4.9462,0.3666,40.2300,65,96,103188
5.0000,0.3812,39.9600,65,96,103191
4.9804,0.3715,40.0000,65,96,103194
4.9413,0.3617,40.1300,65,96,103197
4.9756,0.3763,40.0600,65,96,103201
4.9511,0.3470,40.1000,65,96,103204
5.0000,0.3763,39.8600,65,96,103207
4.9560,0.3666,40.0300,65,96,103212
4.9169,0.3812,40.1600,65,96,103215
4.9413,0.3568,40.0600,65,96,103218
4.9267,0.3617,40.2600,65,96,103221
5.0000,0.3812,39.8900,65,96,103225
4.9707,0.3666,40.0000,65,96,103228
4.9462,0.3568,40.0300,65,96,103231
4.9365,0.3763,40.1000,65,96,103235
4.9267,0.3568,40.1300,65,96,103238
5.0000,0.3763,39.9600,65,96,103241
4.9413,0.3519,40.1000,65,96,103245
4.9609,0.3568,40.0600,65,96,103248
4.9218,0.3568,39.9600,65,96,103251
4.9071,0.3617,40.1000,65,96,103256
4.9902,0.3666,40.0000,65,96,103259
4.9169,0.3617,40.0000,65,96,103262
4.9609,0.3617,39.9600,65,96,103265
4.8925,0.3470,40.0600,65,96,103269
4.8827,0.3568,40.2000,65,96,103272
4.9365,0.3617,39.9600,65,96,103275
4.9071,0.3617,40.1300,65,96,103279
4.9560,0.3617,40.0000,65,96,103282
4.9022,0.3470,40.0300,65,96,103285
4.8778,0.3568,40.1300,65,96,103289
4.9022,0.3666,39.9600,65,96,103292
4.8485,0.3617,40.1300,65,96,103296
4.9022,0.3666,39.9600,65,96,103299
4.8045,0.3519,40.1300,65,96,103303
4.7898,0.3568,40.1000,65,96,103306
4.7996,0.3666,40.0000,65,96,103309
4.7361,0.3568,40.1000,65,96,103313
4.8387,0.3715,39.8600,65,96,103316
4.7605,0.3617,40.0300,65,96,103319
4.7116,0.3617,40.1300,65,96,103323
4.7214,0.3617,40.2000,65,96,103326
4.6579,0.3861,40.1000,65,96,103329
4.7361,0.3666,39.8900,65,96,103332
4.5992,0.3666,40.0600,65,96,103336
4.4966,0.3519,40.1000,65,96,103340
4.4477,0.3568,40.1300,65,96,103343
4.3842,0.3568,40.1000,65,96,103347
4.4428,0.3715,39.9300,65,96,103350
4.3304,0.3617,40.0600,65,96,103353
4.3109,0.3568,40.0300,65,96,103357
4.2522,0.3568,40.1000,65,96,103360
4.2180,0.3568,40.0600,65,96,103363
4.2326,0.3617,40.0000,65,96,103367
4.1691,0.3568,40.0600,65,96,103370
4.1691,0.3617,40.0300,65,96,103373
4.1056,0.3568,40.1600,65,96,103376
4.0518,0.3568,40.1600,65,96,103380
4.0714,0.3666,40.0000,65,96,103384
3.9736,0.3617,40.1000,65,96,103387
4.0078,0.3568,40.0300,65,96,103391
3.9638,0.3568,40.0300,65,96,103394
3.9541,0.3666,40.1600,65,96,103397
4.0127,0.3617,40.1000,65,96,103401
3.9834,0.3568,40.0300,65,96,103404
4.0567,0.3519,39.8900,65,96,103407
4.1642,0.3715,39.7700,65,96,103411
4.1202,0.3617,40.1300,65,96,103414
4.1105,0.3568,40.1000,65,96,103417
4.1398,0.3617,40.0600,65,96,103421
4.1251,0.3519,40.1300,65,96,103425
4.2229,0.3470,39.9600,65,96,103428
4.1202,0.3568,40.0300,65,96,103432
4.1105,0.3519,40.0600,65,96,103435
4.0909,0.3519,40.0600,65,96,103438
4.1202,0.3470,40.1000,65,96,103442
4.3011,0.3617,39.8000,65,96,103445
4.4037,0.3519,40.0600,65,96,103448
4.6383,0.3470,40.0600,65,96,103451
4.7556,0.3470,40.1000,65,96,103455
4.8583,0.3470,40.1300,65,96,103458
4.9707,0.3568,40.0000,65,96,103461
4.9413,0.3519,40.1300,65,96,103465
5.0000,0.3568,40.0600,65,96,103469
4.9462,0.3470,39.9300,65,96,103472
4.9707,0.3421,40.1600,65,96,103476
4.9756,0.3519,40.0000,65,96,103479
4.9022,0.3617,40.1300,65,96,103482
4.8974,0.3519,39.9600,65,96,103485
4.7067,0.3470,40.2000,65,96,103489
4.5601,0.3470,40.1000,65,96,103492
4.4673,0.3568,40.0000,65,96,103495
4.3206,0.3470,40.2000,65,96,103499
4.3157,0.3617,39.8900,65,96,103502
4.1984,0.3470,40.0300,65,96,103505
4.0958,0.3470,40.1600,65,96,103510
4.0909,0.3519,40.1000,65,96,103513
4.0420,0.3421,40.1000,65,96,103516
4.1202,0.3568,39.9600,65,96,103519
4.0518,0.3470,40.0000,65,96,103523
4.0274,0.3324,40.0600,65,96,103526
4.0567,0.3275,40.0300,65,96,103529
4.0567,0.3372,40.1300,65,96,103533
4.1838,0.3568,39.8900,65,96,103536
4.1544,0.3421,39.8900,65,96,103539
4.1496,0.3324,40.0000,65,96,103543
4.2424,0.3275,40.0600,65,96,103546
4.2669,0.3324,40.1000,65,96,103549
4.4233,0.3470,39.8900,65,96,103553
4.4233,0.3324,40.1000,65,96,103557
4.5210,0.3324,39.9600,65,96,103560
4.5894,0.3275,40.1600,65,96,103563
4.6334,0.3275,40.1000,65,96,103567
4.7605,0.3470,39.9300,65,96,103570
4.7507,0.3275,40.1600,65,96,103573
4.8485,0.3324,39.8900,65,96,103577
4.8240,0.3226,40.0600,65,96,103580
4.8534,0.3275,40.0600,65,96,103583
4.9365,0.3324,39.9600,65,96,103586
4.9120,0.3519,40.1300,65,96,103590
5.0000,0.3275,40.0000,65,96,103593
4.9413,0.3226,40.0600,65,96,103597
4.9511,0.3226,40.2300,65,96,103601
5.0000,0.3324,40.0000,65,96,103604
4.9511,0.3226,40.0600,65,96,103607
5.0000,0.3275,39.9600,65,96,103611
4.9462,0.3226,40.1600,65,96,103614
4.9560,0.3226,40.0600,65,96,103617
5.0000,0.3275,40.0600,65,96,103620
4.9560,0.3226,40.2000,65,96,103624
5.0000,0.3324,39.8900,65,96,103627
4.9951,0.3324,40.1000,65,96,103630
4.9609,0.3226,40.1600,65,96,103634
4.9902,0.3372,40.0600,65,96,103638
4.9658,0.3177,40.1300,65,96,103641
5.0000,0.3372,39.8900,65,96,103645
4.9951,0.3226,40.0600,65,96,103648
4.9609,0.3128,40.1600,65,96,103651
4.9658,0.3177,40.0600,65,96,103654
4.9560,0.3177,40.1000,65,96,103658
5.0000,0.3421,39.8000,65,96,103661
4.9951,0.3226,40.0300,65,96,103664
4.9804,0.3177,40.0300,65,96,103668
4.9658,0.3177,40.1300,65,96,103671
4.9756,0.3128,40.1000,65,96,103674
5.0000,0.3275,40.0000,65,96,103678
4.9658,0.3177,40.1600,65,96,103682
5.0000,0.3177,40.0300,65,96,103685
4.9511,0.3128,40.1600,65,96,103688
4.9658,0.3079,40.1000,65,96,103692
5.0000,0.3177,39.9300,65,96,103695
4.9658,0.3128,40.2300,65,96,103698
5.0000,0.3128,39.9600,65,96,103702
4.9609,0.3030,40.1000,65,96,103705
4.9658,0.3128,40.2000,65,96,103708
5.0000,0.3128,40.1000,65,96,103711
4.9707,0.3030,40.1000,65,96,103715
5.0000,0.3177,40.0000,65,96,103718
4.9609,0.3030,40.2000,65,96,103721
4.9609,0.3079,40.1000,65,96,103726
5.0000,0.3079,39.5100,65,96,103729
4.9658,0.3079,40.1600,65,96,103732
5.0000,0.3128,39.9600,65,96,103735
4.9658,0.3079,40.1000,65,96,103739
4.9658,0.3079,40.2000,65,96,103742
5.0000,0.3177,40.0000,65,96,103745
4.9609,0.3079,40.1000,65,96,103749
5.0000,0.3128,39.8900,65,96,103752
4.9951,0.3128,40.0000,65,96,103755
4.9462,0.3079,40.1000,65,96,103758
5.0000,0.3177,40.0000,65,96,103762
4.9365,0.2981,40.1600,65,96,103766
5.0000,0.3177,39.9300,65,96,103769
4.8827,0.3079,40.0300,65,96,103773
4.8045,0.3079,40.1300,65,96,103776
4.7947,0.3128,40.1300,65,96,103779
4.7116,0.3079,39.5400,65,96,103783
4.7849,0.3128,39.8300,65,96,103786
4.6432,0.3177,39.9300,65,96,103789
4.5406,0.3128,40.1000,65,96,103792
4.5015,0.3128,40.1000,65,96,103796
4.4282,0.3079,40.2600,65,96,103799
4.4770,0.3275,39.9300,65,96,103802
4.3402,0.3079,40.0600,65,96,103806
4.2718,0.3079,39.3500,65,96,103810
4.1838,0.3128,40.2000,65,96,103813
4.1251,0.3079,40.1300,65,96,103817
4.1398,0.3177,40.0300,65,96,103820
4.0176,0.3079,40.0300,65,96,103823
3.9932,0.3128,40.0000,65,96,103827
3.8856,0.3030,40.1000,65,96,103830
3.8319,0.3128,40.1000,65,96,103833
3.8123,0.3177,40.0300,65,96,103836
3.7146,0.3079,40.1000,65,96,103840
3.7146,0.3128,39.9600,65,96,103843
3.6217,0.3079,40.0600,65,96,103846
3.5630,0.3128,40.2600,65,96,103851
3.5386,0.3128,40.0300,65,96,103854
3.4604,0.3079,40.1600,65,96,103857
3.4604,0.3128,40.0000,65,96,103860
3.3724,0.3079,40.0600,65,96,103864
3.3382,0.3079,40.1300,65,96,103867
3.3529,0.3177,40.0000,65,96,103870
3.2747,0.3568,40.1600,65,96,103874
3.3138,0.3177,39.8300,65,96,103877
3.2454,0.3128,39.9600,65,96,103880
3.2111,0.2981,40.1000,65,96,103884
3.1867,0.3079,40.0600,65,96,103887
3.1378,0.3177,40.1600,65,96,103890
3.2209,0.3177,39.9300,65,96,103895
3.1476,0.3128,40.0600,65,96,103898
3.1183,0.2981,40.0600,65,96,103901
3.1329,0.3079,40.0600,65,96,103904
3.1281,0.3030,39.9300,65,96,103908
3.2356,0.3128,39.8900,65,96,103911
3.2063,0.3079,40.1300,65,96,103914
3.2454,0.3030,40.0600,65,96,103918
3.2893,0.3030,40.0600,65,96,103921
3.3431,0.2981,40.1300,65,96,103924
3.4506,0.3079,40.0300,65,96,103928
3.4555,0.2933,40.0600,65,96,103931
3.5337,0.2884,39.9600,65,96,103934
3.5337,0.2981,40.1000,65,96,103938
3.5875,0.2884,40.1000,65,96,103942
3.6510,0.3079,40.0300,65,96,103945
3.6119,0.2933,40.1000,65,96,103948
3.6804,0.3079,39.9600,65,96,103952
3.6364,0.2933,40.0600,65,96,103955
3.6413,0.3030,40.0600,65,96,103958
3.6852,0.3030,40.0300,65,96,103962
3.6413,0.2981,40.1300,65,96,103965
3.6755,0.2981,39.9600,65,96,103968
3.6413,0.2981,40.0300,65,96,103971
3.6168,0.2981,40.1300,65,96,103975
3.6413,0.3079,40.0000,65,96,103979
3.5875,0.2981,40.0600,65,96,103982
3.6364,0.3030,39.9300,65,96,103986
3.5630,0.2884,40.1300,65,96,103989
3.5239,0.2981,40.1600,65,96,103992
3.5191,0.3275,40.1000,65,96,103996
3.4702,0.2981,40.1600,65,96,103999
3.5386,0.3079,39.8000,65,96,104002
3.4506,0.3079,40.1000,65,96,104005
3.3920,0.2933,40.2000,65,96,104009
3.3822,0.3030,40.0600,65,96,104012
3.3382,0.2981,40.2600,65,96,104015
3.4115,0.3177,39.8600,65,96,104019
3.3040,0.3030,40.0300,65,96,104023
3.2649,0.2981,40.1000,65,96,104027
3.3040,0.2981,40.0300,65,96,104030
3.2649,0.3030,40.1300,65,96,104033
3.2747,0.2933,40.1000,65,96,104037
3.2942,0.2933,40.1000,65,96,104040
3.2649,0.2933,40.0600,65,96,104043
3.2991,0.3079,40.0000,65,96,104046
3.2405,0.2933,40.1600,65,96,104050
3.2258,0.2933,40.0000,65,96,104053
3.2454,0.3030,39.9600,65,96,104056
3.1867,0.2933,40.1600,65,96,104060
3.2063,0.3030,39.8900,65,96,104064
3.1623,0.2981,40.0000,65,96,104067
3.1183,0.2933,40.2600,65,96,104071
3.1427,0.3030,40.0000,65,96,104074
3.0938,0.2933,40.1000,65,96,104077
3.1427,0.3030,39.9600,65,96,104080
3.0743,0.3030,40.0300,65,96,104084
3.0303,0.2884,40.1600,65,96,104087
3.0352,0.2981,40.1600,65,96,104090
2.9863,0.2933,40.2600,65,96,104094
3.0450,0.3079,39.7700,65,96,104097
2.9668,0.2933,40.0000,65,96,104100
2.9277,0.2884,40.1600,65,96,104104
2.9228,0.3030,40.0300,65,96,104108
2.8983,0.2933,40.1000,65,96,104111
2.9668,0.3079,39.9600,65,96,104114
2.8935,0.2981,40.0600,65,96,104118
2.8983,0.2884,40.0300,65,96,104121
2.8641,0.2933,40.2000,65,96,104124
2.8543,0.3372,40.1300,65,96,104128
2.9081,0.3030,39.9300,65,96,104131
2.8592,0.2981,39.9600,65,96,104134
2.8641,0.2933,39.9600,65,96,104138
2.8397,0.2933,40.1000,65,96,104141
2.8348,0.2933,40.1600,65,96,104144
2.8641,0.2933,39.9600,65,96,104147
2.8348,0.2933,40.1000,65,96,104152
2.8641,0.2981,40.0300,65,96,104155
2.8104,0.2981,40.1000,65,96,104158
2.7957,0.2933,40.1300,65,96,104162
2.7859,0.2835,40.0000,65,96,104165
2.7810,0.2933,40.1300,65,96,104168
2.8104,0.2933,39.9600,65,96,104172
2.7761,0.2933,40.1000,65,96,104175
2.7859,0.2933,40.2000,65,96,104178
2.8201,0.2981,39.8000,65,96,104181
2.8250,0.2933,40.1000,65,96,104185
2.8592,0.2884,39.9600,65,96,104188
2.8397,0.2981,40.1000,65,96,104192
2.8201,0.2981,40.1000,65,96,104196
2.8543,0.3030,40.1600,65,96,104199
2.8250,0.2933,40.1600,65,96,104202
2.9032,0.3030,39.8300,65,96,104206
2.8788,0.2933,39.8900,65,96,104209
2.8837,0.2933,40.1000,65,96,104212
2.9374,0.2688,40.1000,65,96,104216
2.9570,0.2884,40.0300,65,96,104219
3.0645,0.3177,39.8600,65,96,104222
3.0254,0.2981,40.0000,65,96,104225
3.0010,0.2884,40.0300,65,96,104229
2.9912,0.2933,40.0600,65,96,104232
2.9863,0.2884,40.1600,65,96,104236
3.0450,0.3030,40.0300,65,96,104240
3.0059,0.2933,39.8000,65,96,104243
3.0254,0.2884,40.1300,65,96,104246
3.0254,0.2688,40.1000,65,96,104249
3.0205,0.2884,40.1600,65,96,104253
3.0743,0.2981,40.0000,65,96,104256
3.0401,0.2933,40.0300,65,96,104259
3.0645,0.2933,40.0600,65,96,104263
3.0450,0.2884,40.0600,65,96,104266
3.0596,0.3128,40.1600,65,96,104269
3.1085,0.2981,40.0300,65,96,104273
3.0743,0.2884,40.0600,65,96,104276
3.1134,0.2981,40.1300,65,96,104280
3.0890,0.2835,40.0600,65,96,104283
3.0694,0.2884,40.1000,65,96,104287
3.1085,0.2933,40.0000,65,96,104290
3.0938,0.2884,40.1300,65,96,104293
3.1378,0.2981,39.9600,65,96,104297
3.1134,0.2884,40.0300,65,96,104300
3.1329,0.2835,40.1600,65,96,104303
3.1916,0.2981,40.0300,65,96,104307
3.1818,0.2981,40.1000,65,96,104310
3.2698,0.2981,39.8900,65,96,104313
3.2551,0.2933,39.9600,65,96,104316
3.2454,0.2933,40.1000,65,96,104321
3.3040,0.2933,40.0300,65,96,104324
3.3040,0.2835,40.2000,65,96,104327
3.4115,0.3030,39.8900,65,96,104331
3.3724,0.2933,40.0000,65,96,104334
3.3382,0.2835,40.0600,65,96,104337
3.3333,0.2933,40.1300,65,96,104341
3.2991,0.2884,40.1300,65,96,104344
3.3969,0.3079,39.9600,65,96,104347
3.4164,0.2981,40.0000,65,96,104351
3.5533,0.2884,40.0000,65,96,104354
3.7488,0.2933,40.1000,65,96,104357
3.9980,0.2884,40.1600,65,96,104360
4.3304,0.3079,40.0000,65,96,104365
4.5064,0.2933,40.1600,65,96,104368
4.7019,0.2933,40.0000,65,96,104371
4.7556,0.3030,40.0600,65,96,104375
4.8045,0.2933,40.1000,65,96,104378
4.8827,0.2981,40.0000,65,96,104381
4.7703,0.2933,40.1000,65,96,104385
4.7361,0.3177,39.9300,65,96,104388
4.5455,0.2884,40.0600,65,96,104391
4.3842,0.2884,40.1300,65,96,104394
4.2424,0.2981,39.9600,65,96,104398
3.9883,0.2933,40.0600,65,96,104401
3.8759,0.2933,40.0300,65,96,104404
3.7390,0.2933,40.0300,65,96,104409
3.5973,0.2933,40.0600,65,96,104412
3.5484,0.2981,40.0600,65,96,104415
3.4409,0.2933,40.1000,65,96,104419
3.4555,0.3030,39.9600,65,96,104422
3.3431,0.2884,40.0300,65,96,104425
3.3089,0.2981,40.1000,65,96,104428
3.3187,0.2933,40.0300,65,96,104432
3.2649,0.2933,40.1300,65,96,104435
3.3627,0.2981,39.8600,65,96,104438
3.2649,0.2981,40.1000,65,96,104442
3.2258,0.2933,40.1000,65,96,104445
3.2356,0.2688,40.0600,65,96,104449
3.1965,0.2933,40.1000,65,96,104453
3.2698,0.3079,39.8900,65,96,104456
3.2063,0.2884,40.0000,65,96,104459
3.1623,0.2884,40.0300,65,96,104462
3.1525,0.2933,40.2000,65,96,104466
3.1329,0.2981,40.1000,65,96,104469
3.1965,0.3079,39.9600,65,96,104472
3.1378,0.2981,40.0300,65,96,104476
3.1525,0.2884,40.0000,65,96,104479
3.1232,0.2933,40.0600,65,96,104482
3.1183,0.2933,40.2300,65,96,104486
3.1574,0.3030,40.0600,65,96,104489
3.1232,0.2933,40.1600,65,96,104493
3.1525,0.3226,39.9300,65,96,104496
3.1134,0.2933,40.1000,65,96,104500
3.1134,0.2933,40.1000,65,96,104503
3.1574,0.3030,40.0000,65,96,104506
3.0987,0.2933,40.2000,65,96,104510
3.1183,0.2884,40.0300,65,96,104513
3.0743,0.2884,40.0000,65,96,104516
3.0401,0.2933,40.1600,65,96,104520
3.0547,0.3324,39.9600,65,96,104523
3.0156,0.2884,40.1000,65,96,104526
3.0450,0.2981,39.9600,65,96,104529
2.9961,0.2981,40.0300,65,96,104534
2.9570,0.2933,40.1600,65,96,104537
2.9668,0.3030,40.0300,65,96,104540
2.9032,0.2933,40.0600,65,96,104544
2.9423,0.3079,39.8600,65,96,104547
2.8641,0.2933,40.0300,65,96,104550
2.8201,0.2933,40.1600,65,96,104554
2.8055,0.3079,40.1300,65,96,104557
2.7761,0.2933,40.1300,65,96,104560
2.8299,0.3079,39.8900,65,96,104563
2.7615,0.3030,40.0000,65,96,104567
2.7273,0.2884,40.1000,65,96,104570
2.7077,0.2933,40.1000,65,96,104573
2.6735,0.2933,40.0600,65,96,104578
2.7175,0.3079,39.9600,65,96,104581
2.6393,0.2981,40.0300,65,96,104584
2.6051,0.2884,39.9600,65,96,104588
2.5758,0.2933,40.1000,65,96,104591
2.5415,0.2933,40.2000,65,96,104594
2.5513,0.2981,40.0300,65,96,104597
2.4976,0.2981,40.1300,65,96,104601
2.5024,0.2981,40.0000,65,96,104604
2.4633,0.2933,40.1000,65,96,104607
2.4487,0.2933,40.1000,65,96,104611
2.4536,0.3128,40.1300,65,96,104614
2.4242,0.2933,40.0600,65,96,104617
2.4438,0.3030,40.0300,65,96,104622
2.4194,0.3030,40.1000,65,96,104625
2.3949,0.2933,40.1000,65,96,104628
2.4194,0.3030,40.0300,65,96,104631
2.3607,0.3030,40.1000,65,96,104635
2.3216,0.2933,40.1000,65,96,104638
2.3705,0.3079,39.8900,65,96,104642
2.3265,0.2981,40.0000,65,96,104645
2.3021,0.2933,40.1300,65,96,104648
2.3069,0.3030,40.0600,65,96,104652
2.2874,0.2933,40.1600,65,96,104655
2.3509,0.3128,39.8600,65,96,104658
2.3021,0.2981,40.1000,65,96,104663
2.2825,0.2933,40.1000,65,96,104666
2.2972,0.2981,39.9600,65,96,104669
2.3069,0.2933,40.1000,65,96,104672
2.3803,0.3079,39.9600,65,96,104676
2.3509,0.2981,40.1000,65,96,104679
2.3656,0.2933,40.0000,65,96,104682
2.3656,0.2981,40.1000,65,96,104686
2.3851,0.2933,40.0300,65,96,104689
2.4780,0.3079,39.9300,65,96,104692
2.4633,0.2981,40.0600,65,96,104696
2.5171,0.2981,40.0000,65,96,104699
2.5171,0.2884,40.1000,65,96,104702
2.5220,0.2933,40.1600,65,96,104706
2.5758,0.3030,40.0000,65,96,104710
2.5758,0.2981,40.0600,65,96,104713
2.6295,0.3030,40.1000,65,96,104716
2.6197,0.2981,40.1000,65,96,104720
2.6197,0.2933,40.1000,65,96,104723
2.6491,0.3128,40.0600,65,96,104726
2.6491,0.2933,40.0600,65,96,104730
2.7028,0.2981,40.0000,65,96,104733
2.6833,0.2933,40.1000,65,96,104736
2.7077,0.2933,40.1000,65,96,104739
2.7566,0.3079,39.9600,65,96,104743
2.7517,0.3030,40.1600,65,96,104747
2.8446,0.2884,39.8600,65,96,104750
2.8348,0.3030,40.0000,65,96,104754
2.8299,0.3177,40.0600,65,96,104757
2.8739,0.3030,40.0300,65,96,104760
2.8641,0.2981,40.1000,65,96,104764
2.9521,0.3324,39.8000,65,96,104767
2.9228,0.3030,40.0300,65,96,104770
2.9081,0.2933,39.7300,65,96,104773
2.9326,0.2981,40.0300,65,96,104777
2.9277,0.2981,40.1000,65,96,104780
3.0108,0.3079,39.8900,65,96,104783
2.9668,0.3030,40.0300,65,96,104787
2.9472,0.2981,40.1000,65,96,104791
2.9326,0.3030,40.1600,65,96,104794
2.9228,0.2981,40.1600,65,96,104798
2.9570,0.3079,40.0600,65,96,104801
2.9032,0.3275,40.1000,65,96,104804
2.9374,0.3079,40.0600,65,96,104807
2.8641,0.2981,40.1600,65,96,104811
2.8348,0.3128,40.1000,65,96,104814
2.8641,0.3079,39.9300,65,96,104817
2.8104,0.2981,40.1000,65,96,104821
2.8397,0.3079,39.9600,65,96,104824
2.8055,0.2933,40.0600,65,96,104827
2.8104,0.2981,40.2000,65,96,104832
2.8543,0.2981,39.9600,65,96,104835
2.8348,0.2981,40.1300,65,96,104838
2.8788,0.2981,39.9600,65,96,104841
2.8495,0.3030,40.0300,65,96,104845
2.8397,0.2884,40.1600,65,96,104848
2.8495,0.3030,39.9600,65,96,104851
2.8104,0.3226,40.1600,65,96,104855
2.8592,0.2884,39.8600,65,96,104858
2.7957,0.2933,40.0300,65,96,104861
2.7810,0.2981,40.1000,65,96,104865
2.8006,0.3030,40.0300,65,96,104868
2.7761,0.3030,40.1300,65,96,104871
2.8397,0.3177,39.8300,65,96,104875
2.7908,0.3030,39.9600,65,96,104879
2.7566,0.2981,40.0600,65,96,104882
2.7664,0.2981,40.0300,65,96,104885
2.7370,0.2981,40.2300,65,96,104889
2.8104,0.3177,39.8600,65,96,104892
2.7664,0.3030,39.9600,65,96,104895
2.7419,0.2981,40.1000,65,96,104899
2.7419,0.2981,40.1600,65,96,104902
2.7370,0.2981,40.0600,65,96,104905
2.7957,0.3030,39.9600,65,96,104909
2.7615,0.2981,40.0600,65,96,104912
2.7761,0.2981,39.4800,65,96,104915
2.7664,0.2981,40.0600,65,96,104919
2.7566,0.2981,40.1000,65,96,104923
2.7810,0.3519,40.1000,65,96,104926
2.7517,0.2933,40.0600,65,96,104929
2.7908,0.3030,39.9600,65,96,104933
2.7517,0.3079,40.2300,65,96,104936
2.7517,0.2933,40.0600,65,96,104939
2.7810,0.3079,39.8300,65,96,104943
2.7468,0.3030,40.1000,65,96,104946
2.7468,0.2981,40.0300,65,96,104949
2.7077,0.2981,40.1000,65,96,104952
2.6784,0.3030,40.1000,65,96,104956
2.6882,0.3030,40.0000,65,96,104960
2.6442,0.2981,40.1300,65,96,104963
2.6784,0.3030,40.0000,65,96,104967
2.6393,0.3079,40.0300,65,96,104970
2.6051,0.2981,40.1000,65,96,104973
2.6100,0.3079,40.0300,65,96,104977
2.5562,0.2981,40.1000,65,96,104980
2.6002,0.3128,39.8900,65,96,104983
2.5318,0.2981,40.1000,65,96,104986
2.5024,0.3177,40.1000,65,96,104990
2.5220,0.2884,40.0600,65,96,104993
2.4633,0.2981,40.1000,65,96,104996
2.5122,0.3079,39.8900,65,96,105000
2.4487,0.3030,40.0300,65,96,105004
2.4194,0.2933,40.1300,65,96,105007
2.4389,0.2933,40.0300,65,96,105011
2.3803,0.2933,40.1000,65,96,105014
2.4242,0.3079,39.8900,65,96,105017
2.3754,0.2981,40.1300,65,96,105020
2.3656,0.2933,40.0300,65,96,105024
2.3607,0.2933,40.1000,65,96,105027
2.3558,0.2933,40.0600,65,96,105030
2.3949,0.3030,39.9300,65,96,105034
2.3754,0.3226,40.1000,65,96,105037
2.4047,0.2933,40.0000,65,96,105040
2.3900,0.2933,40.1000,65,96,105044
2.3949,0.2884,40.1000,65,96,105048
2.4291,0.2933,40.0000,65,96,105051
2.4291,0.2933,40.0600,65,96,105054
2.4780,0.3030,39.9600,65,96,105058
2.4633,0.2933,40.1000,65,96,105061
2.4829,0.2884,40.1600,65,96,105064
2.5269,0.3177,40.1000,65,96,105068
2.5073,0.2933,39.4100,65,96,105071
2.5464,0.3128,40.0000,65,96,105074
2.5415,0.2981,40.0000,65,96,105078
2.5269,0.2884,40.2000,65,96,105081
2.5660,0.2981,40.0300,65,96,105084
2.5660,0.2933,40.1000,65,96,105088
2.5953,0.2981,39.8300,65,96,105092
2.5513,0.3030,40.1000,65,96,105095
2.5513,0.2933,40.1000,65,96,105098
2.5367,0.2981,40.1000,65,96,105102
2.5122,0.3177,40.1000,65,96,105105
2.6002,0.3030,39.8000,65,96,105108
2.5709,0.2933,40.0000,65,96,105112
2.5709,0.2884,40.0600,65,96,105115
2.5855,0.2835,40.1000,65,96,105118
2.5660,0.2933,40.1000,65,96,105121
2.6149,0.3079,39.8600,65,96,105125
2.5367,0.2981,40.1300,65,96,105128
2.5024,0.2933,40.0300,65,96,105132
2.4682,0.2786,40.0600,65,96,105136
2.4780,0.2933,40.1000,65,96,105139
2.4780,0.3030,39.9300,65,96,105142
2.4291,0.2884,40.1000,65,96,105146
2.4389,0.2884,40.0000,65,96,105149
2.4047,0.2884,40.1000,65,96,105152
2.3998,0.2933,40.1000,65,96,105155
2.4389,0.3030,39.9600,65,96,105159
2.4096,0.2933,40.1000,65,96,105162
2.4340,0.2981,40.0000,65,96,105165
2.3998,0.2933,39.9600,65,96,105169
2.3900,0.2933,40.1000,65,96,105172
2.3998,0.2884,40.0000,65,96,105176
2.3754,0.2884,40.1600,65,96,105180
2.3998,0.3128,40.0000,65,96,105183
2.3656,0.2933,40.1600,65,96,105186
2.3656,0.2933,40.1000,65,96,105189
2.3803,0.2884,39.9600,65,96,105193
2.3509,0.2933,40.1000,65,96,105196
2.3754,0.2981,39.9300,65,96,105199
2.3460,0.2981,40.1000,65,96,105203
2.3167,0.2884,40.1000,65,96,105206
2.3363,0.3030,40.0000,65,96,105209
2.3314,0.2933,40.1300,65,96,105213
2.3509,0.3030,39.9300,65,96,105217
2.3021,0.3079,40.0000,65,96,105220
2.2972,0.2933,40.1600,65,96,105223
2.2678,0.2981,40.0600,65,96,105227
2.2434,0.2933,40.1000,65,96,105230
2.2923,0.3226,39.7700,65,96,105233
2.2287,0.3030,40.1300,65,96,105237
2.1750,0.2884,40.1600,65,96,105240
2.1603,0.2884,40.1000,66,96,105243
2.7566,0.2933,40.1000,66,96,105248
2.9814,0.2884,40.1000,66,96,105251
3.2014,0.3226,39.9300,66,96,105255
3.2796,0.2933,40.1600,66,96,105259
3.3822,0.3030,40.0300,66,96,105262
3.3578,0.2688,40.0300,66,96,105266
3.3138,0.2884,40.2000,66,96,105269
3.3089,0.2981,39.9600,66,96,105272
3.1769,0.2933,40.1600,66,96,105275
3.0938,0.2933,40.0600,66,96,105279
2.9032,0.2933,40.0600,66,96,105282
2.7077,0.2884,40.1000,66,96,105285
2.5758,0.3030,40.1000,66,96,105289
2.4340,0.2884,40.0600,66,96,105292
2.4145,0.2933,39.9300,66,96,105295
2.3314,0.2884,40.0000,66,96,105299
2.3167,0.2981,40.1000,66,96,105303
2.3314,0.2981,40.0300,66,96,105306
2.3265,0.2933,40.1300,66,96,105309
2.4194,0.3079,39.8900,66,96,105313
2.4096,0.2981,40.0300,66,96,105316
2.4389,0.2933,40.0600,66,96,105319
2.4927,0.2933,40.0300,66,96,105323
2.5220,0.3030,40.0600,66,96,105326
2.6246,0.3079,39.9600,66,96,105329
2.6002,0.2981,40.0300,66,96,105333
2.6002,0.2884,40.0300,66,96,105336
2.6100,0.2933,40.1000,66,96,105339
2.6149,0.2981,40.1000,66,96,105342
2.6784,0.3030,39.9600,66,96,105347
2.6540,0.2933,40.1000,66,96,105350
2.6833,0.2981,39.9600,66,96,105353
2.6686,0.2933,40.1000,66,96,105357
2.6735,0.3177,40.0600,66,96,105360
2.7077,0.2981,40.0600,66,96,105363
2.6882,0.2933,40.0600,66,96,105367
2.7175,0.2981,40.0300,66,96,105370
2.6784,0.2933,40.0600,66,96,105373
2.6735,0.2933,40.1300,66,96,105376
2.7126,0.3030,40.0300,66,96,105380
2.6784,0.2933,40.1600,66,96,105383
2.7077,0.2933,39.9300,66,96,105387
2.6882,0.2933,40.0000,66,96,105391
2.6686,0.2933,40.0300,66,96,105394
2.7077,0.3030,40.0000,66,96,105397
2.6735,0.2933,40.1600,66,96,105401
2.7126,0.2981,39.8600,66,96,105404
2.6637,0.2884,40.0300,66,96,105407
2.6295,0.2933,40.1000,66,96,105411
2.6393,0.3030,40.0300,66,96,105414
2.6149,0.2884,40.0300,66,96,105417
2.6784,0.3030,39.8600,66,96,105420
2.6295,0.2933,40.0600,66,96,105424
2.6100,0.2933,40.1000,66,96,105427
2.6002,0.2933,40.1600,66,96,105431
2.6100,0.2884,40.0600,66,96,105435
2.6588,0.3128,39.9600,66,96,105438
2.5904,0.2981,40.2600,66,96,105441
2.5562,0.2933,40.1000,66,96,105445
