ecg,gsr,temp,hr,spo2,timest
1.5347,0.3763,40.3000,62,97,107234
1.5836,0.3812,40.1300,62,97,107238
1.5640,0.3715,40.2300,62,97,107241
1.5982,0.3666,40.1300,62,97,107244
1.5640,0.3666,40.1600,62,97,107248
1.5396,0.3763,40.2300,62,97,107251
1.5494,0.3715,40.1300,62,97,107254
1.5494,0.3666,40.2300,62,97,107258
1.6031,0.3763,40.0000,62,97,107261
1.6129,0.3715,40.1600,62,97,107265
1.6276,0.3666,40.3600,62,97,107269
1.6325,0.3715,40.2000,62,97,107272
1.6227,0.3666,40.2300,62,97,107275
1.6813,0.3959,40.0000,62,97,107278
1.6618,0.3666,40.2300,62,97,107282
1.6716,0.3666,40.2300,62,97,107285
1.6813,0.3715,40.3000,62,97,107288
1.6862,0.3715,40.2300,62,97,107292
1.7155,0.3861,40.1600,62,97,107295
1.6813,0.3715,40.2600,62,97,107298
1.6764,0.3666,40.1600,62,97,107302
1.6716,0.3715,40.2000,62,97,107305
1.6667,0.3666,40.3000,62,97,107309
1.7155,0.3910,40.0600,62,97,107313
1.7058,0.3715,40.4000,62,97,107316
1.7253,0.4106,40.1600,62,97,107319
1.7058,0.3666,40.2300,62,97,107323
1.7107,0.3666,40.4000,62,97,107326
1.7546,0.3812,40.1300,62,97,107329
1.7498,0.3666,40.2000,62,97,107332
1.7986,0.3763,40.1300,62,97,107336
1.7791,0.3666,40.2000,62,97,107339
1.7742,0.3666,40.3300,62,97,107342
1.7791,0.3715,40.1600,62,97,107346
1.7595,0.3763,40.2600,62,97,107350
1.7791,0.3763,40.0600,62,97,107353
1.7449,0.3666,40.1600,62,97,107357
1.7693,0.3715,40.2300,62,97,107360
1.7449,0.3715,40.2000,62,97,107363
1.7204,0.3715,40.2600,62,97,107367
1.7449,0.3812,40.0300,62,97,107370
1.7253,0.3763,40.2300,62,97,107373
1.7302,0.3715,40.3300,62,97,107376
1.7595,0.3715,40.2000,62,97,107380
1.7742,0.3715,40.2300,62,97,107383
1.8573,0.3861,40.0000,62,97,107386
1.8377,0.3715,40.2300,62,97,107390
1.8231,0.3666,40.2000,62,97,107394
1.8133,0.3715,40.2600,62,97,107397
1.8084,0.3666,40.3000,62,97,107401
1.8280,0.3812,40.1000,62,97,107404
1.7644,0.3715,40.2300,62,97,107407
1.7498,0.3715,40.2000,62,97,107411
1.7253,0.3715,40.2600,62,97,107414
1.7302,0.3666,40.2300,62,97,107417
1.7595,0.3763,40.2000,62,97,107421
1.7546,0.3715,40.3300,62,97,107424
1.8084,0.3715,40.2300,62,97,107427
1.8035,0.3666,40.3000,62,97,107430
1.8035,0.3617,40.3300,62,97,107435
1.8280,0.3666,40.1300,62,97,107438
1.7937,0.3568,40.2300,62,97,107441
1.8231,0.3715,40.1300,62,97,107445
1.8182,0.3763,40.1600,62,97,107448
1.8182,0.3715,40.2300,62,97,107451
1.8573,0.3812,40.0000,62,97,107455
1.8133,0.3666,40.2300,62,97,107458
1.8426,0.3812,40.0600,62,97,107461
1.8084,0.3470,40.1300,62,97,107465
1.8231,0.3666,40.3000,62,97,107468
1.8475,0.3715,40.3000,62,97,107471
1.8573,0.3666,40.3000,62,97,107475
1.9110,0.3861,40.1000,62,97,107479
1.8622,0.3715,40.2000,62,97,107482
1.8573,0.3666,40.2300,62,97,107485
1.8622,0.3715,40.2300,62,97,107489
1.8524,0.3715,40.2300,62,97,107492
1.9013,0.3861,40.2300,62,97,107495
1.8817,0.4008,40.2000,62,97,107499
1.9013,0.3715,40.1600,62,97,107502
1.8866,0.3812,40.2000,62,97,107505
1.8866,0.3666,40.2300,62,97,107509
1.9159,0.3763,40.1300,62,97,107512
1.8915,0.3470,40.3000,62,97,107515
1.9110,0.3763,40.1300,62,97,107520
1.9013,0.3666,40.2600,62,97,107523
1.9062,0.3666,40.2300,62,97,107526
1.9062,0.3812,40.1600,62,97,107530
1.8671,0.3715,40.3000,62,97,107533
1.8719,0.3715,40.1300,62,97,107536
1.8719,0.3715,40.1600,62,97,107539
1.8671,0.3666,40.3300,62,97,107543
1.8915,0.3763,40.2300,62,97,107546
1.8915,0.3666,40.2300,62,97,107549
1.9306,0.4008,40.1000,62,97,107553
1.8817,0.3666,40.2600,62,97,107556
1.8622,0.3666,40.3000,62,97,107559
1.8622,0.3763,40.1600,62,97,107564
1.8524,0.3715,40.2300,62,97,107567
1.8768,0.3812,40.0000,62,97,107570
1.8573,0.3763,40.1000,62,97,107574
1.8475,0.3715,40.2000,62,97,107577
1.8524,0.3715,40.1000,62,97,107580
1.8328,0.3715,40.2300,62,97,107583
1.8866,0.3861,40.0600,62,97,107587
1.8573,0.3666,40.2000,62,97,107590
1.8573,0.3715,40.1600,62,97,107593
1.8426,0.3666,40.2600,62,97,107597
1.8328,0.3715,40.2300,62,97,107600
1.8426,0.3910,40.1300,62,97,107603
1.8035,0.3666,40.2300,62,97,107608
1.8328,0.3715,40.1300,62,97,107611
1.8231,0.3715,40.2300,62,97,107614
1.8280,0.3666,40.2600,62,97,107618
1.8328,0.3715,40.2300,62,97,107621
1.8133,0.3666,40.3000,62,97,107624
1.8426,0.3715,40.2300,62,97,107627
1.8182,0.3666,40.3000,62,97,107631
1.8084,0.3666,40.2300,62,97,107634
1.8182,0.3666,40.1000,62,97,107637
1.7986,0.3861,40.2300,62,97,107641
1.8280,0.3812,40.1000,62,97,107644
1.8182,0.3715,40.2000,62,97,107648
1.7937,0.3666,40.2300,62,97,107652
1.8035,0.3763,40.2600,62,97,107655
1.7889,0.3715,40.2300,62,97,107658
1.8475,0.3812,40.0300,62,97,107662
1.8377,0.3666,40.1600,62,97,107665
1.8133,0.3617,40.1300,62,97,107668
1.8084,0.3715,40.3000,62,97,107672
1.7986,0.3666,40.2300,62,97,107675
1.8573,0.4154,40.1300,62,97,107678
1.8133,0.3715,40.2300,62,97,107682
1.8280,0.3666,40.1600,62,97,107685
1.8231,0.3715,40.2300,62,97,107688
1.7840,0.3666,40.2300,62,97,107694
1.7889,0.3617,40.3000,62,97,107697
1.8231,0.3763,40.2000,62,97,107700
1.8035,0.3861,40.2600,62,97,107704
1.8426,0.3715,40.1600,62,97,107707
1.8328,0.3715,40.0600,62,97,107710
1.8231,0.3715,40.2300,62,97,107714
1.8328,0.3812,40.1300,62,97,107717
1.8231,0.3666,40.2300,62,97,107720
1.8768,0.3812,40.0300,62,97,107724
1.8475,0.3715,40.2000,62,97,107727
1.8426,0.3666,40.3000,62,97,107730
1.8426,0.3715,40.2600,62,97,107735
1.8133,0.3666,40.2000,62,97,107738
1.8377,0.3910,40.1000,62,97,107741
1.7986,0.3715,40.2300,62,97,107745
1.8035,0.3715,40.2300,62,97,107748
1.8133,0.3715,40.2300,62,97,107751
1.8231,0.3666,40.2300,62,97,107754
1.8719,0.3861,40.1300,62,97,107758
1.8768,0.3715,40.2600,62,97,107761
1.8524,0.3715,40.3300,62,97,107764
1.8280,0.3666,40.2300,62,97,107768
1.8328,0.3666,40.3000,62,97,107771
1.8817,0.3666,40.1300,62,97,107774
1.8475,0.3715,40.3000,62,97,107779
1.8671,0.3812,40.1300,62,97,107782
1.8280,0.3666,40.2000,62,97,107785
1.8035,0.3715,40.3000,62,97,107789
1.7889,0.3763,40.1300,62,97,107792
1.7742,0.3666,40.2000,62,97,107795
1.8231,0.3715,40.1000,62,97,107799
1.8280,0.3715,40.2600,62,97,107802
1.8475,0.3666,40.2300,62,97,107805
1.8573,0.3812,40.2300,62,97,107808
1.8377,0.3666,40.2300,62,97,107812
1.8768,0.3812,40.0600,62,97,107815
1.8280,0.3666,40.2000,62,97,107819
1.8084,0.3666,40.3000,62,97,107823
1.7937,0.3812,40.2300,62,97,107826
1.7840,0.3666,40.3000,62,97,107829
1.8573,0.3910,40.0300,62,97,107833
1.8475,0.3763,40.1600,62,97,107836
1.8573,0.3666,40.2000,62,97,107839
1.8768,0.3715,40.2300,62,97,107843
1.8719,0.3666,40.1300,62,97,107846
1.8964,0.3666,40.1000,62,97,107849
1.8426,0.3763,40.2000,62,97,107853
1.8768,0.3715,40.1300,62,97,107856
1.8426,0.3666,40.2600,62,97,107859
1.8377,0.3763,40.2300,62,97,107863
1.8573,0.3763,40.1000,62,97,107867
1.8231,0.3666,40.3000,62,97,107870
1.8328,0.3763,40.1000,62,97,107873
1.7986,0.3666,40.3000,62,97,107877
1.7937,0.3666,40.2300,62,97,107880
1.8084,0.3715,40.2000,62,97,107883
1.8231,0.3666,40.3300,62,97,107887
1.8671,0.3715,40.2300,62,97,107890
1.8426,0.3666,40.2300,62,97,107893
1.8524,0.3715,40.2300,62,97,107897
1.8671,0.3763,40.1300,62,97,107900
1.8573,0.3715,40.2300,62,97,107904
1.9110,0.4008,40.0300,62,97,107907
1.8964,0.3812,40.2300,62,97,107911
1.8671,0.3666,40.2600,62,97,107914
1.8671,0.3812,40.2300,62,97,107917
1.8084,0.3666,40.3000,62,97,107921
1.8328,0.3812,40.0300,62,97,107924
1.7937,0.3715,40.1300,62,97,107927
1.7937,0.3617,40.2300,62,97,107931
1.8231,0.3666,40.2000,62,97,107934
1.8426,0.3666,40.3000,62,97,107937
1.9062,0.3861,40.1000,62,97,107941
1.8817,0.3715,40.2300,62,97,107944
1.9110,0.3715,40.1600,62,97,107948
1.9013,0.3666,40.2300,62,97,107952
1.9013,0.3666,40.3000,62,97,107955
1.9306,0.3763,40.2300,62,97,107958
1.9110,0.3617,40.2600,62,97,107961
1.9453,0.3763,40.1000,62,97,107965
1.9159,0.3666,40.2000,62,97,107968
1.9208,0.3715,40.2300,62,97,107971
1.9648,0.3812,40.1300,62,97,107975
1.9648,0.3666,40.2300,62,97,107978
1.9892,0.3715,40.1600,62,97,107981
1.9648,0.3666,40.2300,62,97,107985
1.9453,0.3666,40.3300,62,97,107988
1.9501,0.3763,40.1000,62,97,107992
1.8964,0.3666,40.3300,62,97,107996
1.9159,0.3812,40.1000,62,97,107999
1.8866,0.3666,40.1300,62,97,108002
1.8671,0.3666,40.2300,62,97,108006
1.8671,0.3763,40.2300,62,97,108009
1.8426,0.3861,40.2000,62,97,108012
1.8817,0.3812,40.0000,62,97,108015
1.8328,0.3812,40.1600,62,97,108019
1.8231,0.3715,40.2300,62,97,108022
1.8084,0.3861,40.2000,62,97,108025
1.7840,0.3666,40.2300,62,97,108029
1.8280,0.3861,39.9600,62,97,108033
1.7889,0.3763,40.2300,62,97,108036
1.7986,0.3666,40.2000,62,97,108040
1.7840,0.3715,40.2300,62,97,108043
1.7400,0.3666,40.3300,62,97,108046
1.7644,0.3812,40.1000,62,97,108050
1.7400,0.3715,40.2300,62,97,108053
1.7644,0.3763,40.2000,62,97,108056
1.7840,0.3715,40.2600,62,97,108059
1.7791,0.3666,40.2300,62,97,108063
1.8133,0.3715,40.1300,62,97,108066
1.7889,0.3715,40.2300,62,97,108069
1.8084,0.3812,40.1000,62,97,108073
1.7889,0.3715,40.2600,62,97,108077
1.7791,0.3666,40.2600,62,97,108080
1.7693,0.3715,40.1600,62,97,108084
1.7351,0.3666,40.2600,62,97,108087
1.7546,0.3910,40.1000,62,97,108090
1.7253,0.3666,40.2300,62,97,108094
1.7058,0.3666,40.2300,62,97,108097
1.6960,0.3763,40.2000,62,97,108100
1.6618,0.3666,40.2000,62,97,108104
1.7742,0.3910,40.0000,62,97,108107
1.8573,0.3715,40.2300,62,97,108110
2.0283,0.3666,40.2600,62,97,108113
2.2727,0.3763,40.3000,62,97,108118
2.4976,0.3666,40.4000,62,97,108121
2.7713,0.3910,40.0000,62,97,108124
2.8788,0.3763,40.1600,62,97,108128
2.9619,0.3666,40.2000,62,97,108131
3.0499,0.3666,40.2300,62,97,108134
3.0108,0.3666,40.3300,62,97,108138
3.0303,0.3861,40.2300,62,97,108141
2.8983,0.3715,40.2300,62,97,108144
2.7957,0.3715,40.1300,62,97,108147
2.6149,0.3666,40.2300,62,97,108151
2.3998,0.3617,40.2300,62,97,108154
2.2043,0.3763,40.2300,62,97,108157
1.9795,0.3666,40.2600,62,97,108162
1.8524,0.3763,40.1000,62,97,108165
1.7058,0.3715,40.2300,62,97,108168
1.6227,0.3715,40.2300,62,97,108172
1.5738,0.3763,40.1300,62,97,108175
1.4858,0.3666,40.2300,62,97,108178
1.4663,0.4057,40.1600,62,97,108182
1.4467,0.3715,40.1300,62,97,108185
1.4516,0.3666,40.2300,62,97,108188
1.4907,0.3812,40.2000,62,97,108192
1.5005,0.3666,40.3000,62,97,108195
1.5445,0.4008,40.0300,62,97,108198
1.5152,0.3666,40.1300,62,97,108201
1.5005,0.3666,40.2600,62,97,108206
1.5054,0.3715,40.2300,62,97,108209
1.4956,0.3666,40.2300,62,97,108212
1.5494,0.3861,39.9600,62,97,108216
1.5445,0.3715,40.2600,62,97,108219
1.5738,0.3617,40.2300,62,97,108222
1.5982,0.3715,40.2300,62,97,108226
1.5885,0.3715,40.2300,62,97,108229
1.6129,0.3861,40.0600,62,97,108232
1.5640,0.3959,40.2600,62,97,108236
1.5836,0.3715,40.1300,62,97,108239
1.6031,0.3763,40.2300,62,97,108242
1.6276,0.3666,40.2300,62,97,108247
1.6764,0.3812,40.0600,62,97,108250
1.6569,0.3715,40.3000,62,97,108253
1.6569,0.3763,40.1600,62,97,108256
1.6325,0.3617,40.2000,62,97,108260
1.6471,0.3666,40.3000,62,97,108263
1.6911,0.3715,40.1600,62,97,108266
1.6862,0.3470,40.2000,62,97,108270
1.7253,0.3715,40.1000,62,97,108273
1.7009,0.3715,40.2300,62,97,108276
1.6960,0.3666,40.2300,62,97,108280
1.7155,0.3715,40.2000,62,97,108283
1.7253,0.3666,40.2300,62,97,108286
1.7302,0.3763,40.0300,62,97,108290
1.7107,0.3715,40.2300,62,97,108294
1.7204,0.3666,40.2600,62,97,108297
1.7400,0.3715,40.2000,62,97,108300
1.7693,0.3763,40.2300,62,97,108305
1.7351,0.3666,40.3000,62,97,108308
1.7693,0.3763,40.0600,62,97,108312
1.7449,0.3715,40.2000,62,97,108315
1.7693,0.3715,40.1300,62,97,108318
1.7693,0.3666,40.2000,62,97,108322
1.7742,0.3666,40.2300,62,97,108325
1.8133,0.3812,40.1000,62,97,108328
1.7840,0.3666,40.3000,62,97,108333
1.8035,0.3763,40.2000,62,97,108336
1.7840,0.3715,40.2300,62,97,108339
1.7937,0.3666,40.2300,62,97,108343
1.8182,0.3715,40.2000,62,97,108346
1.8084,0.3666,40.2600,62,97,108349
1.8280,0.3763,40.0600,62,97,108352
1.7840,0.3666,40.2300,62,97,108356
1.7742,0.3666,40.3600,62,97,108359
1.7937,0.3715,40.1300,62,97,108362
1.7840,0.3666,40.2300,62,97,108366
1.8231,0.3812,40.0300,62,97,108369
1.8133,0.3763,40.3000,62,97,108372
1.7889,0.3666,40.2600,62,97,108377
1.7937,0.3763,40.2300,62,97,108380
1.7742,0.3666,40.3000,62,97,108383
1.8377,0.3812,39.9600,62,97,108387
1.8231,0.3812,40.2300,62,97,108390
1.8280,0.3617,40.2600,62,97,108393
1.8328,0.3763,40.2000,62,97,108397
1.8328,0.3763,40.2600,62,97,108400
1.8964,0.3861,40.0300,62,97,108403
1.8426,0.4008,40.2000,62,97,108406
1.8622,0.3715,40.1600,62,97,108410
1.8475,0.3715,40.3300,62,97,108413
1.8524,0.3666,40.2300,62,97,108417
1.8768,0.3861,40.1600,62,97,108421
1.8426,0.3715,40.2300,62,97,108424
1.8719,0.3715,40.1600,62,97,108427
1.8573,0.3715,40.2300,62,97,108431
1.8524,0.3715,40.2600,62,97,108434
1.8768,0.3812,40.1300,62,97,108437
1.8671,0.4057,40.2000,62,97,108441
1.8964,0.3715,40.1000,62,97,108444
1.8671,0.3666,40.2300,62,97,108447
1.8573,0.3715,40.2300,62,97,108450
1.8866,0.3763,40.2300,62,97,108454
1.8817,0.3715,40.2300,62,97,108457
1.9159,0.3763,40.1300,62,97,108461
1.8817,0.3715,40.2000,62,97,108465
1.8719,0.3666,40.2300,62,97,108468
1.9110,0.3715,40.1600,62,97,108471
1.9257,0.3666,40.2300,62,97,108475
1.9746,0.3812,40.0300,62,97,108478
1.9257,0.3470,40.2000,62,97,108481
1.9208,0.3666,40.3000,62,97,108485
1.9208,0.3715,40.2000,62,97,108488
1.9013,0.3666,40.2300,62,97,108491
1.9355,0.3910,40.0300,62,97,108495
1.8768,0.3763,40.1600,62,97,108498
1.8328,0.3666,40.2600,62,97,108502
1.8524,0.3715,40.2300,62,97,108505
1.8671,0.3666,40.2600,62,97,108509
1.9550,0.3812,40.1300,62,97,108512
1.9013,0.3715,40.2000,62,97,108515
1.9159,0.3715,40.1300,62,97,108519
1.8817,0.3666,40.2600,62,97,108522
1.8768,0.3715,40.3000,62,97,108525
1.9013,0.3763,40.2000,62,97,108529
1.8573,0.3666,40.2600,62,97,108532
1.8719,0.3812,40.2300,62,97,108535
1.8426,0.3666,40.2000,62,97,108539
1.8475,0.3666,40.2300,62,97,108542
1.8475,0.3715,40.2300,62,97,108546
1.8377,0.3666,40.3000,62,97,108550
1.8671,0.3715,40.0600,62,97,108553
1.8280,0.3666,40.2300,62,97,108556
1.8280,0.3666,40.2300,62,97,108559
1.8622,0.3812,40.2300,62,97,108563
1.8475,0.3715,40.2300,62,97,108566
1.8915,0.3812,40.0300,62,97,108569
1.8622,0.3812,40.1000,62,97,108573
1.8475,0.3715,40.2000,62,97,108576
1.8328,0.3715,40.2600,62,97,108579
1.8231,0.3715,40.2300,62,97,108583
1.8915,0.3861,40.0300,62,97,108587
1.8671,0.3763,40.2000,62,97,108590
1.8328,0.3666,40.2000,62,97,108594
1.8328,0.3715,40.3000,62,97,108597
1.8182,0.3666,40.2300,62,97,108600
1.8573,0.3812,40.1600,62,97,108604
1.8231,0.3666,40.2300,62,97,108607
1.8524,0.3715,40.1000,62,97,108610
1.8475,0.3666,40.2600,62,97,108613
1.8426,0.3666,40.2000,62,97,108617
1.8573,0.3666,40.2300,62,97,108620
1.8377,0.3715,40.2600,62,97,108623
1.8573,0.4008,40.2300,62,97,108627
1.8133,0.3666,40.2300,62,97,108631
1.8035,0.3715,40.3600,62,97,108634
1.8328,0.3763,40.1300,62,97,108638
1.7986,0.3715,40.2600,62,97,108641
1.8377,0.3715,40.1000,62,97,108644
1.8133,0.4008,40.1600,62,97,108648
1.8035,0.3470,40.2300,62,97,108651
1.8377,0.3763,40.1600,62,97,108654
1.8328,0.3715,40.2300,62,97,108657
1.8866,0.3812,40.0300,62,97,108661
1.8475,0.3715,40.2300,62,97,108664
1.8377,0.3666,40.2300,62,97,108667
1.8377,0.3812,40.2300,62,97,108672
1.8231,0.3666,40.2300,62,97,108675
1.8719,0.3861,40.1000,62,97,108678
1.8231,0.3715,40.2000,62,97,108682
1.8084,0.3666,40.2000,62,97,108685
1.8035,0.3666,40.2300,62,97,108688
1.8084,0.3666,40.2600,62,97,108692
1.8622,0.3861,40.2000,62,97,108695
1.8182,0.3715,40.2600,62,97,108698
1.8280,0.3715,40.1300,62,97,108702
1.8182,0.3715,40.1600,62,97,108705
1.8231,0.3763,40.2300,62,97,108708
1.8671,0.3812,40.0600,62,97,108711
1.8475,0.3763,40.2000,62,97,108716
1.8719,0.3763,40.1000,62,97,108719
1.8426,0.3666,40.2600,62,97,108722
1.8475,0.3715,40.2300,62,97,108726
1.8328,0.3812,40.1300,62,97,108729
1.8280,0.3470,40.2300,62,97,108732
1.8426,0.3715,40.0600,62,97,108736
1.8280,0.3715,40.2000,62,97,108739
1.8377,0.3666,40.2300,62,97,108742
1.8622,0.4057,40.3600,62,97,108746
1.8671,0.3470,40.2300,62,97,108749
1.9062,0.3812,40.0000,62,97,108752
1.8573,0.3666,40.3300,62,97,108756
1.8426,0.3666,40.2600,62,97,108760
1.8475,0.3470,40.2600,62,97,108763
1.8426,0.3959,40.2300,62,97,108766
1.9159,0.3861,40.0300,62,97,108770
1.8817,0.3763,40.2300,62,97,108773
1.8719,0.3666,40.3000,62,97,108776
1.8768,0.3715,40.3000,62,97,108780
1.8719,0.3715,40.3600,62,97,108783
1.9208,0.3861,40.0600,62,97,108786
1.8817,0.3715,40.3000,62,97,108790
1.8817,0.3666,40.1300,62,97,108793
1.8671,0.3666,40.2000,62,97,108796
1.8573,0.3666,40.2600,62,97,108801
1.8719,0.3861,40.2000,62,97,108804
1.8475,0.3666,40.2000,62,97,108807
1.8671,0.3763,40.1300,62,97,108810
1.8377,0.3666,40.3300,62,97,108814
1.8377,0.3666,40.2300,62,97,108817
1.8426,0.3715,40.1600,62,97,108820
1.8328,0.3470,40.2300,62,97,108824
1.8524,0.3715,40.1300,62,97,108827
1.8133,0.3666,40.3000,62,97,108830
1.8182,0.3666,40.3300,62,97,108834
1.8426,0.3763,40.1300,62,97,108837
1.8280,0.3715,40.2300,62,97,108840
1.8622,0.3763,40.0000,62,97,108845
1.8622,0.3959,40.1600,62,97,108848
1.8524,0.3715,40.2300,62,97,108851
1.8719,0.3812,40.2000,62,97,108855
1.8671,0.3666,40.3000,62,97,108858
1.9208,0.3812,40.1000,62,97,108861
1.9062,0.3666,40.2000,62,97,108864
1.8475,0.3617,40.2600,62,97,108868
1.8280,0.3763,40.2600,62,97,108871
1.8377,0.3666,40.2300,62,97,108874
1.8817,0.3861,40.0600,62,97,108878
1.8671,0.3666,40.2300,62,97,108881
1.8719,0.3666,40.1600,62,97,108884
1.8817,0.3763,40.2000,62,97,108889
1.8915,0.3666,40.2600,62,97,108892
1.9306,0.3763,40.2300,62,97,108895
1.8915,0.3715,40.2300,62,97,108899
1.9062,0.3763,40.1000,62,97,108902
1.8817,0.3666,40.3000,62,97,108905
1.8866,0.3666,40.2300,62,97,108908
1.9208,0.3861,40.1000,61,97,108912
1.9404,0.3763,40.1300,61,97,108917
1.9257,0.3666,40.2000,61,97,108920
1.9648,0.3910,40.0000,61,97,108923
1.9257,0.3666,40.2000,61,97,108926
1.9306,0.3666,40.2300,61,97,108931
1.9550,0.3715,40.2600,61,97,108934
1.9550,0.3666,40.2300,61,97,108937
2.0137,0.3812,40.0000,61,97,108941
1.9648,0.3470,40.2300,61,97,108944
1.9355,0.3617,40.1600,61,97,108947
1.9453,0.3763,40.2300,61,97,108951
1.8915,0.3666,40.3000,61,97,108954
1.9306,0.3861,40.1000,61,97,108957
1.8817,0.3715,40.2600,61,97,108960
1.8719,0.3715,40.1600,61,97,108964
1.8524,0.3715,40.2000,61,97,108967
1.8671,0.3763,40.3000,61,97,108971
1.8768,0.3812,40.1300,61,97,108975
1.8768,0.3666,40.2300,61,97,108978
1.8524,0.3763,40.1000,61,97,108981
1.8280,0.3812,40.2300,61,97,108985
1.8280,0.3666,40.3000,61,97,108988
1.8280,0.3715,40.1300,61,97,108991
1.7986,0.3763,40.3000,61,97,108995
1.8035,0.3715,40.1300,61,97,108998
1.7449,0.3715,40.3000,61,97,109001
1.7204,0.3470,40.2000,61,97,109005
1.7204,0.3715,40.2000,61,97,109008
1.7253,0.3617,40.3300,61,97,109011
1.7840,0.3666,40.0600,61,97,109015
1.7791,0.3666,40.2300,61,97,109019
1.8035,0.3666,40.2300,61,97,109022
1.8133,0.3763,40.2000,61,97,109025
1.8280,0.3715,40.2300,61,97,109029
1.8426,0.3812,40.0300,61,97,109032
1.8084,0.3812,40.2000,61,97,109035
1.7937,0.3715,40.3000,61,97,109039
1.7937,0.3715,40.3000,61,97,109042
1.7791,0.3861,40.2300,61,97,109045
1.8084,0.3861,40.0000,61,97,109049
1.7546,0.3715,40.1600,61,97,109052
1.6911,0.3666,40.1600,61,97,109056
1.6667,0.3715,40.2000,61,97,109059
1.6911,0.3666,40.2300,61,97,109063
1.8426,0.3812,40.2000,61,97,109066
1.9746,0.3715,40.2300,61,97,109069
2.2043,0.3715,40.1000,61,97,109073
2.4194,0.3715,40.2000,61,97,109076
2.6442,0.3666,40.4000,61,97,109079
2.8446,0.3715,40.2300,61,97,109083
2.9570,0.3666,40.2300,61,97,109086
3.0694,0.3763,40.2000,61,97,109089
3.0450,0.3470,40.2300,61,97,109093
2.9912,0.3666,40.2300,61,97,109096
2.9374,0.4057,40.1300,61,97,109100
2.7713,0.3666,40.2600,61,97,109103
2.6344,0.3910,40.1000,61,97,109107
2.4242,0.3666,40.2300,61,97,109110
2.1994,0.3666,40.3300,61,97,109113
2.0381,0.3666,40.1600,61,97,109117
1.8524,0.3666,40.2600,61,97,109120
1.7644,0.3910,40.0300,61,97,109123
1.6373,0.3666,40.2000,61,97,109127
1.5591,0.3861,40.2600,61,97,109130
1.5152,0.3715,40.2600,61,97,109133
1.4907,0.3715,40.2000,61,97,109137
1.5249,0.3666,39.9600,61,97,109140
1.4858,0.3715,40.2000,61,97,109144
1.4809,0.3715,40.2000,61,97,109147
1.4712,0.3715,40.2300,61,97,109151
1.4761,0.3666,40.2300,61,97,109154
1.5200,0.3861,40.0300,61,97,109157
1.5005,0.3763,40.2000,61,97,109161
1.5152,0.3715,40.2300,61,97,109164
1.5249,0.3715,40.2000,61,97,109167
1.5200,0.3666,40.2300,61,97,109171
1.5640,0.3812,40.0600,61,97,109174
1.5445,0.3715,40.3000,61,97,109177
1.5787,0.3763,40.1000,61,97,109181
1.5591,0.3666,40.2000,61,97,109185
1.5738,0.3666,40.2300,61,97,109188
1.5982,0.3812,40.1300,61,97,109192
1.6031,0.3715,40.3000,61,97,109195
1.6373,0.3715,40.1300,61,97,109198
1.6227,0.3715,40.2300,61,97,109201
1.6325,0.3666,40.1600,61,97,109205
1.6569,0.3715,40.1600,61,97,109208
1.6422,0.3666,40.2600,61,97,109211
1.6764,0.3910,40.0300,61,97,109215
1.6569,0.3666,40.2300,61,97,109218
1.6716,0.3715,40.2300,61,97,109221
1.6911,0.3715,40.3000,61,97,109225
1.6911,0.3666,40.2300,61,97,109229
1.7400,0.3812,39.8600,61,97,109232
1.7155,0.3617,40.1300,61,97,109236
1.7107,0.3617,40.2300,61,97,109239
1.7107,0.3763,40.3000,61,97,109242
1.7155,0.3715,40.3000,61,97,109246
1.7742,0.3861,40.0000,61,97,109249
1.7449,0.3763,40.2600,61,97,109252
1.7449,0.3715,40.1600,61,97,109255
1.7546,0.3666,40.2300,61,97,109259
1.7302,0.3666,40.1300,61,97,109262
1.7644,0.3763,40.1600,61,97,109265
1.7546,0.3666,40.2000,61,97,109270
1.7840,0.3715,40.2000,61,97,109273
1.7693,0.3666,40.2300,61,97,109276
1.7742,0.4008,40.2300,61,97,109280
1.7986,0.3666,40.2000,61,97,109283
1.7840,0.3715,40.3000,61,97,109286
1.8182,0.3763,40.2600,61,97,109290
1.7986,0.3666,40.2300,61,97,109293
1.8084,0.3666,40.1600,61,97,109296
1.8377,0.3812,40.2300,61,97,109299
1.8133,0.3666,40.2300,61,97,109303
1.8377,0.3470,40.1000,61,97,109306
1.8231,0.3763,40.1600,61,97,109309
1.7986,0.3959,40.2000,61,97,109314
1.8133,0.3763,40.1600,61,97,109317
1.7889,0.3666,40.2600,61,97,109320
1.8377,0.3812,40.0000,61,97,109324
1.7986,0.3617,40.1600,61,97,109327
1.7986,0.3666,40.2300,61,97,109330
1.7937,0.3715,40.2300,61,97,109334
1.7889,0.3666,40.2300,61,97,109337
1.8475,0.3861,40.0300,61,97,109340
1.8035,0.3470,40.2000,61,97,109344
1.8133,0.3666,40.2000,61,97,109347
1.8280,0.3812,40.2300,61,97,109350
1.8231,0.3666,40.3300,61,97,109353
1.8573,0.3861,40.1300,61,97,109358
1.8231,0.3715,40.3000,61,97,109361
1.8377,0.3715,40.2000,61,97,109364
1.8280,0.3666,40.2300,61,97,109368
1.8280,0.3666,40.2000,61,97,109371
1.8475,0.3812,40.1000,61,97,109374
1.8280,0.3715,40.2000,61,97,109378
1.8768,0.3812,40.1300,61,97,109381
1.8182,0.3666,40.2300,61,97,109384
1.8280,0.3763,40.2600,61,97,109388
1.8524,0.3715,40.1300,61,97,109391
1.8524,0.3715,40.3300,61,97,109394
1.8964,0.3470,40.2000,61,97,109398
1.8719,0.3715,40.1600,61,97,109402
1.8719,0.3715,40.2300,61,97,109405
1.8817,0.3763,40.4000,61,97,109408
1.8817,0.3715,40.2300,61,97,109412
1.9355,0.3812,40.0300,61,97,109415
1.9013,0.3666,40.2000,61,97,109418
1.9159,0.3666,40.2000,61,97,109422
1.9355,0.3763,40.2000,61,97,109425
1.9550,0.3715,40.3000,61,97,109428
1.9892,0.3861,39.9600,61,97,109432
1.9501,0.3763,40.3600,61,97,109435
1.9306,0.3519,40.2300,61,97,109438
1.9306,0.3715,40.1300,61,97,109442
1.9208,0.3715,40.2600,61,97,109446
1.9697,0.3861,40.0300,61,97,109449
1.9257,0.4008,40.2000,61,97,109452
1.9159,0.3763,40.1600,61,97,109456
1.9013,0.3715,40.2600,61,97,109459
1.8915,0.3715,40.2300,61,97,109462
1.9159,0.3763,40.3300,61,97,109466
1.8866,0.3715,40.2300,61,97,109469
1.8964,0.3763,40.1600,61,97,109472
1.8671,0.3715,40.2300,61,97,109476
1.8671,0.3666,40.2600,61,97,109479
1.8768,0.3763,40.2300,61,97,109483
1.8768,0.3715,40.2000,61,97,109486
1.9062,0.3715,40.2600,61,97,109490
1.8622,0.3715,40.2300,61,97,109493
1.8622,0.3666,40.2600,61,97,109496
1.8768,0.3763,40.1000,61,97,109500
1.8524,0.3666,40.3000,61,97,109503
1.8866,0.3763,40.0600,61,97,109506
1.8671,0.3715,40.2000,61,97,109510
1.8475,0.3812,40.3000,61,97,109513
1.8622,0.3763,40.2000,61,97,109516
1.8475,0.3666,40.1300,61,97,109520
1.9355,0.3861,40.0000,61,97,109523
1.8866,0.3812,40.1300,61,97,109529
1.8524,0.3715,40.2300,61,97,109532
1.8768,0.3715,40.1600,61,97,109535
1.8475,0.3715,40.2300,61,97,109539
1.8377,0.3666,40.2300,61,97,109542
1.8475,0.3861,40.2300,61,97,109545
1.8280,0.3715,40.2000,61,97,109549
1.8524,0.3812,40.5300,61,97,109552
1.8377,0.3666,40.2300,61,97,109555
1.8475,0.3666,40.2600,61,97,109558
1.8817,0.3666,40.1300,61,97,109562
1.8573,0.4008,40.2300,61,97,109565
1.8768,0.3715,40.1000,61,97,109569
1.8524,0.3763,40.1600,61,97,109573
1.8328,0.3715,40.2300,61,97,109576
1.8475,0.3812,40.1000,61,97,109579
1.8231,0.3715,40.3000,61,97,109583
1.8671,0.3812,40.0300,61,97,109586
1.8280,0.3715,40.1600,61,97,109589
1.8328,0.3666,40.3000,61,97,109593
1.8328,0.3666,40.2300,61,97,109596
1.8182,0.3666,40.3000,61,97,109599
1.8573,0.3861,39.9600,61,97,109602
1.8084,0.3715,40.2300,61,97,109606
1.8133,0.3666,40.2300,61,97,109609
1.8280,0.3812,40.2300,61,97,109613
1.8377,0.3666,40.2300,61,97,109617
1.8719,0.3763,40.1300,61,97,109620
1.8475,0.3715,40.2300,61,97,109623
1.8475,0.3812,40.1300,61,97,109627
1.8377,0.3715,40.3600,61,97,109630
1.8426,0.3715,40.3300,61,97,109633
1.8866,0.3763,40.0600,61,97,109637
1.8622,0.3715,40.2300,61,97,109640
1.8817,0.3763,40.1300,61,97,109643
1.8475,0.3861,40.1600,61,97,109647
1.8426,0.3666,40.2600,61,97,109650
1.8426,0.3812,40.1600,61,97,109654
1.8377,0.3666,40.2600,61,97,109657
1.8622,0.3715,40.1300,61,97,109661
1.8475,0.3666,40.2000,61,97,109664
1.8524,0.3666,40.2600,61,97,109667
1.8622,0.3812,40.2300,61,97,109671
1.8475,0.3666,40.2600,61,97,109674
1.8768,0.3812,40.0300,61,97,109677
1.8328,0.3666,40.2000,61,97,109681
1.8328,0.3666,40.2000,61,97,109684
1.8524,0.3763,40.1600,61,97,109687
1.8377,0.3666,40.3300,61,97,109691
1.8866,0.3910,39.9600,61,97,109694
1.8475,0.3763,40.2000,61,97,109698
1.8280,0.3617,40.2600,61,97,109702
1.8328,0.3715,40.3000,61,97,109705
1.8280,0.3666,40.2600,61,97,109708
1.8866,0.3763,40.1000,61,97,109711
1.8524,0.3715,40.2300,61,97,109715
1.8475,0.3763,40.1300,61,97,109718
1.8328,0.3715,40.3000,61,97,109721
1.8328,0.3763,40.2000,61,97,109725
1.8671,0.3812,40.1600,61,97,109728
1.8475,0.3715,40.2600,61,97,109731
1.8964,0.3763,40.1000,61,97,109735
1.8328,0.3666,40.2600,61,97,109739
1.8328,0.3715,40.3000,61,97,109742
1.8524,0.3715,40.2300,61,97,109746
1.8475,0.3910,40.2300,61,97,109749
1.8817,0.3715,40.1300,61,97,109752
1.8671,0.3715,40.2600,61,97,109755
1.8524,0.3666,40.3000,61,97,109759
1.8719,0.3861,40.2300,61,97,109762
1.8524,0.3666,40.2600,61,97,109765
1.8866,0.3763,40.0600,61,97,109769
1.8817,0.3763,40.1600,61,97,109772
1.8622,0.3763,40.2600,61,97,109775
1.8671,0.3763,40.2000,61,97,109779
1.8426,0.3666,40.2300,61,97,109783
1.9062,0.3666,40.0000,61,97,109786
1.8475,0.3715,40.1300,61,97,109790
1.8377,0.3617,40.2300,61,97,109793
1.8377,0.3666,40.4000,61,97,109796
1.8475,0.3715,40.2300,61,97,109800
1.8964,0.3910,40.1600,61,97,109803
1.8524,0.3715,40.2300,61,97,109806
1.8573,0.3666,40.1600,61,97,109809
1.8426,0.3715,40.2300,61,97,109813
1.8475,0.3666,40.2300,61,97,109816
1.8719,0.3715,40.2300,61,97,109819
1.8426,0.3715,40.3000,61,97,109824
1.8622,0.3763,40.1300,61,97,109827
1.8328,0.3666,40.2600,61,97,109830
1.8426,0.3666,40.2300,61,97,109834
1.8866,0.3812,40.2600,61,97,109837
1.8671,0.3568,40.2300,61,97,109840
1.8866,0.3715,40.1600,61,97,109844
1.8719,0.3715,40.1600,61,97,109847
1.8719,0.3666,40.2300,61,97,109850
1.8964,0.3666,40.1300,61,97,109854
1.8866,0.3666,40.2600,61,97,109857
1.9306,0.3812,40.0300,61,97,109860
1.8964,0.3666,40.1600,61,97,109864
1.8964,0.3715,40.2300,61,97,109868
1.9062,0.3715,40.2600,61,97,109871
1.8964,0.3715,40.2300,61,97,109874
1.9501,0.3812,39.9600,61,97,109878
1.9013,0.3812,40.2000,61,97,109881
1.8964,0.3666,40.3000,61,97,109884
1.9110,0.3715,40.2600,61,97,109888
1.9208,0.3715,40.2300,61,97,109891
1.9892,0.3861,40.2000,61,97,109894
1.9599,0.3812,40.2000,61,97,109898
1.9746,0.3470,40.1600,61,97,109901
1.9746,0.3715,40.2300,61,97,109904
1.9795,0.3666,40.2300,61,97,109908
2.0137,0.3861,40.1000,61,97,109912
1.9746,0.3715,40.2300,61,97,109915
1.9795,0.3763,40.1000,61,97,109919
1.9501,0.3715,40.2300,61,97,109922
1.9110,0.3666,40.2300,61,97,109925
1.9062,0.3763,40.2600,61,97,109928
1.8768,0.3715,40.2600,61,97,109932
1.8964,0.3715,40.1600,61,97,109935
1.8524,0.3666,40.2000,61,97,109938
1.8475,0.3666,40.2000,61,97,109942
1.8475,0.3715,40.1600,61,97,109945
1.8377,0.3666,40.2600,61,97,109948
1.8622,0.3763,40.0300,61,97,109953
1.8133,0.3666,40.2600,61,97,109956
1.8035,0.3715,40.3300,61,97,109959
1.7937,0.3763,40.2600,61,97,109963
1.8035,0.3715,40.2300,61,97,109966
1.8182,0.3861,39.3200,61,97,109969
1.7986,0.3715,40.1600,61,97,109972
1.7644,0.3666,40.2300,61,97,109976
1.7693,0.3715,40.2300,61,97,109979
1.7546,0.3666,40.2300,61,97,109982
1.8084,0.3910,40.0600,61,97,109986
1.7693,0.3763,40.2600,61,97,109989
1.7644,0.3715,40.2000,61,97,109992
1.7595,0.3666,40.2300,61,97,109997
1.7595,0.3666,40.3000,61,97,110000
1.7937,0.3812,40.1300,61,97,110003
1.7693,0.3715,40.2300,61,97,110007
1.8035,0.3812,40.1000,61,97,110010
1.7693,0.3763,40.4000,61,97,110013
1.7546,0.3763,40.2300,61,97,110017
1.7498,0.3715,40.2000,61,97,110020
1.7009,0.3715,40.2300,61,97,110023
1.7204,0.3812,40.1300,61,97,110026
1.6520,0.3666,40.2300,61,97,110030
1.6813,0.3715,40.2300,61,97,110033
1.8231,0.3763,40.0300,61,97,110036
1.9795,0.3715,40.2300,61,97,110041
2.2434,0.3763,40.2300,61,97,110044
2.4829,0.3763,40.2300,61,97,110047
2.6686,0.3666,40.2300,61,97,110051
2.8592,0.3959,40.2300,61,97,110054
2.9472,0.3715,40.3300,61,97,110057
3.0792,0.3812,39.4100,61,97,110061
3.0303,0.3666,40.2000,61,97,110064
2.9668,0.3666,40.3300,61,97,110067
2.8886,0.3568,40.2000,61,97,110070
2.7615,0.3470,40.2300,61,97,110074
2.6686,0.3910,39.8900,61,97,110077
2.4145,0.3666,40.2000,61,97,110081
2.1994,0.3666,40.2000,61,97,110085
2.0186,0.4057,40.2600,61,97,110088
1.8719,0.3666,40.2600,61,97,110091
1.8035,0.3959,40.1600,61,97,110095
1.6862,0.3715,40.2300,61,97,110098
1.6373,0.3715,39.5400,61,97,110101
1.5934,0.3666,40.2300,61,97,110105
1.5738,0.3812,40.2000,61,97,110108
1.5934,0.3666,40.0600,61,97,110111
1.5494,0.3715,40.2000,61,97,110115
1.5787,0.3812,40.1600,61,97,110118
1.5103,0.3666,40.2600,61,97,110121
1.5005,0.3715,40.2600,61,97,110125
1.5005,0.3715,40.2000,61,97,110129
1.5005,0.3666,40.2300,61,97,110132
1.5347,0.3715,40.1000,61,97,110135
1.6325,0.3812,39.9600,61,97,110140
1.6276,0.3715,40.2300,61,97,110143
1.6471,0.3666,40.2000,61,97,110147
1.6618,0.3666,40.2600,61,97,110150
1.6764,0.3666,40.2600,61,97,110153
1.7449,0.3910,40.1000,61,97,110157
1.7058,0.3715,40.1300,61,97,110160
1.6667,0.3715,40.2000,61,97,110163
1.6276,0.3715,40.4300,61,97,110168
1.5885,0.3715,40.2600,61,97,110171
1.6129,0.3812,40.0000,61,97,110174
1.5836,0.3715,40.2000,61,97,110177
1.6227,0.3715,40.0300,61,97,110181
1.6227,0.3715,40.3300,61,97,110184
1.6422,0.3666,40.2300,61,97,110187
1.6764,0.3763,40.2300,61,97,110191
1.6716,0.3666,40.2300,61,97,110194
1.7058,0.3861,40.1300,61,97,110197
1.6911,0.3666,40.2300,61,97,110201
1.7058,0.3715,40.2300,61,97,110204
1.7302,0.3715,40.2000,61,97,110208
1.7253,0.3715,40.2000,61,97,110212
1.7595,0.3666,40.1000,61,97,110215
1.7546,0.3763,40.2600,61,97,110218
1.7889,0.3715,40.2300,61,97,110222
1.8084,0.3763,40.3300,61,97,110225
1.8182,0.3715,40.2300,61,97,110228
1.8133,0.3812,40.0000,61,97,110231
1.7742,0.3861,40.1600,61,97,110235
1.7546,0.3666,40.3300,61,97,110238
1.7546,0.3715,40.2000,61,97,110241
1.7449,0.3715,40.2300,61,97,110245
1.8182,0.3910,40.0000,61,97,110248
1.7889,0.3812,40.2300,61,97,110252
1.7595,0.3666,40.2000,61,97,110256
1.7449,0.3715,40.2600,61,97,110259
1.7253,0.3715,40.2600,61,97,110262
1.7546,0.3812,40.0600,61,97,110266
1.7302,0.3666,40.2300,61,97,110269
1.7498,0.3715,40.2000,61,97,110272
1.7449,0.3861,40.3000,61,97,110275
1.7546,0.3715,40.2600,61,97,110279
1.7791,0.3910,40.1600,61,97,110282
1.7644,0.3715,40.2000,61,97,110285
1.7840,0.3763,40.1000,61,97,110289
1.7644,0.3715,40.2300,61,97,110292
1.7791,0.3666,40.2600,61,97,110296
1.8182,0.3959,40.2000,61,97,110300
1.7986,0.3715,40.3000,61,97,110303
1.8231,0.3715,40.1300,61,97,110306
1.8133,0.3666,40.1600,61,97,110310
1.8035,0.3666,40.3300,61,97,110313
1.8231,0.3812,40.1600,61,97,110316
1.8084,0.3666,40.4000,61,97,110320
1.8524,0.3812,40.0600,61,97,110323
1.8231,0.3666,40.2000,61,97,110326
1.8280,0.3715,40.2300,61,97,110329
1.8426,0.3715,40.2300,61,97,110333
1.8524,0.3715,40.2300,61,97,110337
1.9159,0.3666,39.9600,61,97,110340
1.8671,0.3763,40.2000,61,97,110344
1.8573,0.3715,40.3000,61,97,110347
1.8426,0.3715,40.1600,61,97,110350
1.8328,0.3666,40.2300,61,97,110354
1.8817,0.3861,40.1000,61,97,110357
1.8573,0.3666,40.2300,61,97,110360
1.8671,0.3715,40.1600,61,97,110364
1.8573,0.3715,40.2300,61,97,110367
1.8622,0.3666,40.2300,61,97,110370
1.9062,0.3812,40.0600,61,97,110374
1.8817,0.3715,40.1600,61,97,110377
1.9062,0.3666,40.1000,61,97,110381
1.8768,0.3666,40.2000,61,97,110384
1.8768,0.3666,40.3000,61,97,110388
1.8915,0.3666,40.1600,61,97,110391
1.8719,0.3666,40.3000,61,97,110394
1.9257,0.3666,40.1000,61,97,110398
1.8719,0.3959,40.2000,61,97,110401
1.8768,0.3715,40.3000,61,97,110404
1.8866,0.3715,40.1600,61,97,110408
1.8768,0.3666,40.2300,61,97,110411
1.9355,0.3666,40.0300,61,97,110414
1.8622,0.4008,40.1600,61,97,110418
1.8719,0.3715,40.3000,61,97,110422
1.8964,0.3763,40.1300,61,97,110425
1.8964,0.3715,40.2300,61,97,110428
1.9110,0.3861,40.0300,61,97,110432
1.8866,0.3715,40.1000,61,97,110435
1.8964,0.3715,40.2600,61,97,110438
1.8964,0.4008,40.2000,61,97,110442
1.9013,0.3715,40.2600,61,97,110445
1.9648,0.3861,40.0600,61,97,110448
1.9110,0.3715,40.2300,61,97,110452
1.8915,0.3470,40.2000,61,97,110455
1.8719,0.3666,40.2600,61,97,110458
1.8719,0.3715,40.2600,61,97,110462
1.8964,0.3812,40.4000,61,97,110466
1.8671,0.3666,40.2300,61,97,110469
1.8817,0.3715,40.1300,61,97,110472
1.8524,0.3617,40.2300,61,97,110476
1.8426,0.3666,40.2600,61,97,110479
1.8524,0.3715,40.1600,61,97,110482
1.8231,0.3715,40.2600,61,97,110486
1.8866,0.3715,40.2300,61,97,110489
1.8280,0.3666,40.3000,61,97,110492
1.8377,0.3715,40.3000,61,97,110496
1.8671,0.3763,40.1300,61,97,110499
1.8280,0.3666,40.2300,61,97,110502
1.8475,0.3763,40.1300,61,97,110507
1.8280,0.3763,40.1300,61,97,110510
1.8035,0.3666,40.2000,61,97,110513
1.8182,0.3763,40.1600,61,97,110517
1.8231,0.3666,40.2300,61,97,110520
1.8866,0.3812,40.0300,61,97,110523
1.8524,0.3715,40.1600,61,97,110527
1.8328,0.3715,40.2300,61,97,110530
1.8231,0.3715,40.2300,61,97,110533
1.7986,0.3715,40.2300,61,97,110536
1.8426,0.3861,40.1600,61,97,110540
1.7889,0.3715,40.2300,61,97,110543
1.7986,0.3715,40.2300,61,97,110546
1.8035,0.3715,40.2300,61,97,110551
1.8084,0.3715,40.2600,61,97,110554
1.8426,0.3763,40.1600,61,97,110557
1.8280,0.3715,40.2000,61,97,110561
1.8377,0.3812,40.0600,61,97,110564
1.8035,0.3666,40.2300,61,97,110567
1.7889,0.3666,40.2000,61,97,110571
1.8231,0.3812,40.1000,61,97,110574
1.8084,0.3715,40.3300,61,97,110577
1.8524,0.4106,40.2000,61,97,110580
1.8426,0.3666,40.2000,61,97,110584
1.8377,0.3666,40.2600,61,97,110587
1.8475,0.3715,40.1300,61,97,110590
1.8133,0.3666,40.3000,61,97,110595
1.8231,0.3763,40.1300,61,97,110598
1.7840,0.3715,40.4700,61,97,110601
1.7791,0.3715,40.3000,61,97,110605
1.7937,0.3763,40.2000,61,97,110608
1.7889,0.3666,40.2300,61,97,110611
1.8622,0.3812,40.0000,61,97,110615
1.7889,0.3959,40.2000,61,97,110618
1.7889,0.3763,40.2300,61,97,110621
1.8035,0.3763,40.3000,61,97,110624
1.8035,0.3666,40.2300,61,97,110628
1.8817,0.3910,40.0300,61,97,110631
1.8573,0.3763,40.4300,61,97,110635
1.8524,0.3715,40.2000,61,97,110639
1.8475,0.3715,40.4000,61,97,110642
1.8231,0.3715,40.2300,61,97,110645
1.8475,0.3812,40.1600,61,97,110649
1.8035,0.3715,40.2300,61,97,110652
1.8084,0.3715,40.2600,61,97,110655
1.7889,0.3812,40.2300,61,97,110659
1.7986,0.3666,40.2300,61,97,110662
1.8328,0.3812,40.2600,61,97,110665
1.8280,0.3715,40.3000,61,97,110669
1.8622,0.3763,39.4800,61,97,110672
1.8280,0.3666,40.2300,61,97,110675
1.8328,0.3666,40.2000,61,97,110679
1.8377,0.3715,40.2300,61,97,110683
1.8328,0.3715,40.2300,61,97,110686
1.8573,0.3715,40.1600,61,97,110689
1.8280,0.3666,40.2300,61,97,110693
1.8182,0.3861,40.2300,61,97,110696
1.8377,0.3763,40.1600,61,97,110699
1.8133,0.3666,40.2600,61,97,110703
1.8768,0.3812,40.1300,61,97,110706
1.8524,0.3715,40.2000,61,97,110709
1.8377,0.3666,40.2300,61,97,110713
1.8671,0.3715,40.2300,61,97,110716
1.8524,0.3666,40.2600,61,97,110720
1.9110,0.3910,39.9600,61,97,110724
1.8671,0.3763,40.1600,61,97,110727
1.8377,0.3763,40.2300,61,97,110730
1.8328,0.3715,40.2300,61,97,110733
1.8280,0.3666,40.3000,61,97,110737
1.8866,0.3861,40.1000,61,97,110740
1.8524,0.3715,40.3000,61,97,110743
1.8817,0.3666,40.1600,61,97,110747
1.8328,0.3715,40.1300,61,97,110750
1.7937,0.3715,40.2000,61,97,110754
1.7986,0.3666,40.2300,61,97,110757
1.8328,0.3812,40.2000,61,97,110760
1.8280,0.3715,40.2300,61,97,110765
1.8768,0.3763,40.1600,61,97,110768
1.8866,0.3715,40.1300,61,97,110771
1.8768,0.3666,40.2300,61,97,110775
1.8915,0.3763,40.1600,61,97,110778
1.8622,0.3666,40.2600,61,97,110781
1.9257,0.3861,39.9600,61,97,110785
1.8768,0.3715,40.2000,61,97,110788
1.8817,0.3715,40.3000,61,97,110791
1.8817,0.3715,40.2300,61,97,110794
1.8622,0.3812,40.3000,61,97,110798
1.9062,0.3910,40.0600,61,97,110801
1.8524,0.3861,40.2000,61,97,110804
1.8524,0.3666,40.2300,61,97,110809
1.8671,0.3715,40.3000,61,97,110812
1.8915,0.3666,40.2300,61,97,110815
1.9550,0.3812,40.1300,61,97,110819
1.9795,0.3763,40.2600,61,97,110822
1.9746,0.3715,40.2000,61,97,110825
1.9355,0.3715,40.3000,61,97,110829
1.9110,0.3666,40.4000,61,97,110832
1.9306,0.4057,40.0300,61,97,110835
1.9013,0.3666,40.2300,61,97,110839
1.9355,0.3812,40.1300,61,97,110842
1.9159,0.3715,40.1600,61,97,110845
1.9110,0.3666,40.2000,61,97,110849
1.9257,0.3763,40.1300,61,97,110853
1.9110,0.3666,40.3000,61,97,110856
1.9404,0.3812,40.1000,61,97,110859
1.9013,0.3715,40.2300,61,97,110863
1.8915,0.3666,40.2000,61,97,110866
1.8866,0.3763,40.2000,61,97,110869
1.8817,0.3666,40.2300,61,97,110873
1.9404,0.3861,40.1000,61,97,110876
1.8866,0.3666,40.2300,61,97,110879
1.8524,0.3666,40.2000,61,97,110883
1.8182,0.3666,40.2000,61,97,110886
1.7742,0.3666,40.2300,61,97,110889
1.7937,0.3910,40.0000,61,97,110893
1.7449,0.3763,40.2000,61,97,110897
1.7204,0.3666,40.2000,61,97,110900
1.7595,0.3715,40.2600,61,97,110903
1.7546,0.3666,40.2300,61,97,110907
1.8426,0.3812,40.1300,61,97,110910
1.8426,0.3715,40.1300,61,97,110913
1.8866,0.3715,40.2000,61,97,110917
1.8182,0.3666,40.2600,61,97,110920
1.7742,0.3666,40.2600,61,97,110923
1.7546,0.3763,40.2000,61,97,110927
1.7107,0.3715,40.2600,61,97,110930
1.7302,0.3763,40.1300,61,97,110934
1.7253,0.3666,40.2300,61,97,110937
1.7889,0.3715,40.2300,61,97,110941
1.7791,0.3715,40.1600,61,97,110944
1.7693,0.3715,40.3300,61,97,110947
1.7840,0.3715,40.2000,61,97,110951
1.7400,0.3666,40.2600,61,97,110954
1.6960,0.3715,40.4000,61,97,110957
1.7009,0.3715,40.1600,61,97,110961
1.7058,0.3715,40.1600,61,97,110964
1.8524,0.3910,40.0300,61,97,110967
2.0137,0.3470,40.1600,61,97,110971
2.2336,0.3666,40.2600,61,97,110974
2.4976,0.3763,40.2000,61,97,110978
2.6637,0.3666,40.2300,61,97,110982
2.8739,0.3763,39.9600,61,97,110985
2.9081,0.3763,40.1300,61,97,110988
2.9277,0.3763,40.2600,61,97,110991
2.9326,0.3715,40.3000,61,97,110995
2.8935,0.3666,40.2600,61,97,110998
2.8935,0.3910,40.0600,61,97,111001
2.7175,0.3715,40.2600,61,97,111005
2.5513,0.3715,40.2300,61,97,111008
2.3265,0.3715,40.3000,61,97,111011
2.1065,0.3715,40.2300,61,97,111015
1.9550,0.3812,40.1300,61,97,111019
1.7937,0.3715,40.2000,61,97,111022
1.7400,0.3763,40.1300,61,97,111026
1.6227,0.3715,40.3000,61,97,111029
1.5689,0.3715,40.2300,61,97,111032
1.5787,0.3812,40.2300,61,97,111035
1.5543,0.3666,40.2300,61,97,111039
1.5640,0.3715,40.1600,61,97,111042
1.5249,0.3715,40.1600,61,97,111045
1.5103,0.3666,40.2300,61,97,111049
1.5249,0.3763,40.1300,61,97,111052
1.5054,0.3666,40.2600,61,97,111055
1.5249,0.3763,40.0600,61,97,111059
1.5152,0.3715,40.2000,61,97,111063
1.4761,0.3666,40.2000,61,97,111066
1.5152,0.3715,40.2300,61,97,111070
1.5005,0.3666,40.1300,61,97,111073
1.5640,0.4008,39.9600,61,97,111076
1.5494,0.3715,40.2000,61,97,111080
1.5640,0.3666,40.3300,61,97,111083
1.5738,0.3617,40.2600,61,97,111086
1.5689,0.3666,40.4000,61,97,111089
1.6325,0.3959,40.0000,61,97,111093
1.6276,0.3666,40.2600,61,97,111096
1.6569,0.3666,40.3000,61,97,111099
1.6764,0.3715,40.2300,61,97,111104
1.6716,0.3666,40.3300,61,97,111107
1.7009,0.3812,40.0600,61,97,111110
1.6667,0.3715,40.4300,61,97,111114
1.6716,0.3715,40.1300,61,97,111117
1.6716,0.3715,40.4300,61,97,111120
1.7204,0.3763,40.2600,61,97,111124
1.7351,0.3763,40.2600,61,97,111127
1.7107,0.3666,40.2300,61,97,111130
1.7204,0.3812,40.2000,61,97,111133
1.6716,0.3666,40.1300,61,97,111137
1.6764,0.3715,40.2300,61,97,111140
1.6813,0.3715,40.2000,61,97,111143
1.6618,0.3666,40.2300,61,97,111148
1.6764,0.3763,40.0300,61,97,111151
1.6618,0.3666,40.2300,61,97,111154
1.6862,0.3666,40.3300,61,97,111158
1.7302,0.3666,40.2000,61,97,111161
1.7302,0.3666,40.3600,61,97,111164
1.7889,0.3812,40.0000,61,97,111168
1.7889,0.3763,40.2600,61,97,111171
1.7937,0.3715,40.2300,61,97,111174
1.8133,0.3715,40.2000,61,97,111178
1.7937,0.3715,40.3000,61,97,111181
1.8377,0.3861,40.0600,61,97,111184
1.7986,0.3763,40.1600,61,97,111188
1.7937,0.3666,39.5700,61,97,111192
1.8035,0.3763,40.3000,61,97,111195
1.8035,0.3666,40.3300,61,97,111198
1.8280,0.3763,40.1600,61,97,111202
1.7840,0.3715,40.2300,61,97,111205
1.7937,0.3715,40.1000,61,97,111208
1.7937,0.3715,40.2300,61,97,111212
1.8084,0.3763,40.2000,61,97,111215
1.8328,0.3470,40.1600,61,97,111218
1.8035,0.3666,40.3600,61,97,111222
1.8035,0.4057,40.1000,61,97,111225
1.7498,0.3666,40.2300,61,97,111228
1.7351,0.3568,40.2300,61,97,111233
1.7595,0.3763,40.1600,61,97,111236
1.7791,0.3763,40.2000,61,97,111239
1.7986,0.3763,40.0600,61,97,111242
1.7840,0.3715,40.2300,61,97,111246
1.7595,0.3715,40.2300,61,97,111249
1.7742,0.3763,40.2000,61,97,111252
1.7742,0.3715,40.2600,61,97,111256
1.8426,0.3812,40.0300,61,97,111259
1.8377,0.3715,40.1600,61,97,111262
1.8377,0.3470,40.3300,61,97,111266
1.8231,0.3910,40.3000,61,97,111269
1.8182,0.3666,40.2300,61,97,111272
1.8133,0.3861,39.9600,61,97,111277
1.7644,0.3715,40.2600,61,97,111280
1.7644,0.3666,40.2300,61,97,111283
1.7791,0.3666,40.2300,61,97,111287
1.7840,0.3666,40.2600,61,97,111290
1.8280,0.3861,40.1000,61,97,111293
1.8035,0.3715,40.1600,61,97,111296
1.8328,0.3763,40.2300,61,97,111300
1.8377,0.3715,40.2000,61,97,111303
1.8622,0.3666,40.2300,61,97,111306
1.9159,0.3763,40.0600,61,97,111310
1.8866,0.3715,40.2300,61,97,111313
1.8915,0.3812,40.1300,61,97,111316
1.8426,0.3715,40.2000,61,97,111321
1.8377,0.3666,40.1300,61,97,111324
1.8524,0.3715,40.2000,61,97,111327
1.8622,0.3666,40.3000,61,97,111331
1.8964,0.3666,40.0600,61,97,111334
1.8817,0.3763,40.1300,61,97,111337
1.9013,0.3763,40.2300,61,97,111341
1.8915,0.3763,40.2000,61,97,111344
1.8768,0.3715,40.2600,61,97,111347
1.9110,0.3812,40.0300,61,97,111350
1.8719,0.3715,40.2000,61,97,111354
1.8719,0.3470,40.2600,61,97,111357
1.8915,0.3763,40.2000,61,97,111361
1.8671,0.3666,40.3300,61,97,111365
1.8671,0.3715,40.3000,61,97,111368
1.9159,0.3812,40.1000,61,97,111372
1.8866,0.3715,40.2000,61,97,111375
1.8915,0.3763,40.1600,61,97,111378
1.8622,0.3715,40.3000,61,97,111382
1.8622,0.3470,40.2300,61,97,111385
1.8866,0.3763,40.2000,61,97,111388
1.8768,0.3715,40.2300,61,97,111392
1.9013,0.3763,40.1300,61,97,111395
1.8573,0.3715,40.2000,61,97,111398
1.8475,0.3666,40.2300,61,97,111403
1.8573,0.3715,40.1600,61,97,111406
1.8671,0.3666,40.3000,61,97,111409
1.9110,0.3763,40.0600,61,97,111412
1.8866,0.3666,40.2300,61,97,111416
1.8622,0.3666,39.5700,61,97,111419
1.8524,0.3763,40.1300,61,97,111422
1.8035,0.3812,40.2300,61,97,111426
1.8377,0.3666,40.0000,61,97,111429
1.8231,0.3763,40.2000,61,97,111432
1.8133,0.3666,40.2000,61,97,111436
1.8133,0.3763,40.2000,61,97,111439
1.8084,0.3666,40.4000,61,97,111442
1.8524,0.4154,39.9600,61,97,111447
1.8182,0.3763,40.2600,61,97,111450
1.8133,0.3666,40.2000,61,97,111453
1.8231,0.3715,40.2300,61,97,111456
1.8231,0.3666,40.2300,61,97,111460
1.8524,0.3861,40.1600,61,97,111463
1.8035,0.3715,40.2300,61,97,111466
1.8035,0.3715,40.1300,61,97,111470
1.7937,0.3715,40.2300,61,97,111473
1.7986,0.3666,40.3300,61,97,111476
1.8231,0.3763,40.2000,61,97,111480
1.7986,0.3470,40.2300,61,97,111483
1.8280,0.3812,40.1600,61,97,111486
1.8182,0.3666,40.2300,61,97,111491
1.8426,0.3666,40.3600,61,97,111494
1.8719,0.3666,40.1000,61,97,111497
1.8426,0.3715,40.3000,61,97,111501
1.8622,0.3715,40.1000,61,97,111504
1.8377,0.3763,40.0600,61,97,111507
1.8133,0.3617,40.2600,61,97,111510
1.8182,0.3812,40.2300,61,97,111514
1.7889,0.3715,40.2600,61,97,111517
1.8231,0.3812,40.0000,61,97,111520
1.7937,0.3666,40.1600,61,97,111524
1.7791,0.3666,40.2300,61,97,111527
1.7937,0.3763,40.2600,61,97,111531
1.8084,0.3666,40.2600,61,97,111535
1.8719,0.3861,39.9600,61,97,111538
1.8377,0.3470,40.2600,61,97,111541
1.8377,0.3666,40.2000,61,97,111545
1.8475,0.3715,40.2300,61,97,111548
1.8622,0.3666,40.3300,61,97,111551
1.9208,0.3812,40.1300,61,97,111555
1.9110,0.3715,40.2300,61,97,111558
1.9110,0.3763,40.1600,61,97,111561
1.8573,0.3715,40.2300,61,97,111564
1.8133,0.3617,40.2300,61,97,111568
1.8182,0.3812,40.1000,61,97,111571
1.7840,0.3715,40.2300,61,97,111575
1.8035,0.3812,40.1300,61,97,111579
1.7840,0.3666,40.2300,61,97,111582
1.8133,0.3666,40.2300,61,97,111585
1.8573,0.3763,40.2300,61,97,111589
1.8622,0.3666,40.3000,61,97,111592
1.8915,0.3715,40.1300,61,97,111595
1.8377,0.3715,40.2000,61,97,111599
1.8084,0.3666,40.2300,61,97,111602
1.7986,0.3470,40.2300,61,97,111605
1.7791,0.3666,40.3300,61,97,111609
1.8182,0.3812,40.0000,61,97,111612
1.7840,0.3617,40.2600,61,97,111616
1.7937,0.3763,40.2300,61,97,111619
1.8133,0.3763,40.2000,61,97,111623
1.8084,0.3763,40.3000,61,97,111626
1.8719,0.3861,40.0000,61,97,111629
1.8475,0.3763,40.2000,61,97,111633
1.8475,0.3617,40.2300,61,97,111636
1.8622,0.3715,40.2000,61,97,111639
1.8573,0.3715,40.2300,61,97,111643
1.9062,0.3812,40.1000,61,97,111646
1.8768,0.3715,40.2600,61,97,111649
1.8768,0.3715,40.2300,61,97,111653
1.8671,0.3715,40.2300,61,97,111656
1.9062,0.3666,40.3000,61,97,111660
2.0088,0.3763,40.1600,61,97,111664
1.9844,0.3666,40.3000,61,97,111667
1.9941,0.3763,40.1300,61,97,111670
1.9453,0.3715,40.2300,61,97,111673
1.8622,0.3666,40.2600,61,97,111677
1.8475,0.3763,40.2000,61,97,111680
1.8671,0.3715,40.2600,61,97,111683
1.9208,0.3763,40.1300,61,97,111687
1.9062,0.3715,40.3300,61,97,111690
1.9159,0.3715,40.2300,61,97,111693
1.9453,0.3763,40.2600,61,97,111697
1.9208,0.3715,40.2300,61,97,111700
1.9599,0.3812,40.0000,61,97,111704
1.9599,0.3812,40.1600,61,97,111708
1.9795,0.3666,40.2300,61,97,111711
1.9892,0.3715,40.2300,61,97,111714
1.9306,0.3666,40.2300,61,97,111718
1.9306,0.4106,40.1000,61,97,111721
1.8964,0.3763,40.2000,61,97,111724
1.9306,0.3666,40.3600,61,97,111727
1.9501,0.3715,40.3000,61,97,111731
1.8866,0.3666,40.2000,61,97,111734
1.8328,0.3861,40.1000,61,97,111737
1.7400,0.3666,40.2300,61,97,111741
1.6960,0.3715,40.1300,61,97,111745
1.7107,0.3812,40.3000,61,97,111748
1.7400,0.3666,40.2300,61,97,111752
1.7937,0.3812,40.2300,61,97,111755
1.8035,0.3715,40.2300,61,97,111758
1.8573,0.3763,40.1000,61,97,111762
1.8719,0.3715,40.2300,61,97,111765
1.8964,0.3666,40.3000,61,97,111768
1.9501,0.3812,40.1300,61,97,111771
1.9208,0.3715,40.2000,61,97,111775
1.9599,0.3715,40.1600,61,97,111778
1.9501,0.3715,40.2600,61,97,111781
1.9550,0.3666,40.2300,61,97,111785
1.9501,0.3763,40.0000,61,97,111789
1.8915,0.4008,40.3000,61,97,111792
1.8964,0.3763,40.0300,61,97,111796
1.8475,0.3666,40.2000,61,97,111799
1.8328,0.3666,40.2000,61,97,111802
1.8377,0.3763,40.2600,61,97,111806
1.8133,0.3715,40.4300,61,97,111809
1.8719,0.3812,40.0000,61,97,111812
1.8426,0.3715,40.2600,61,97,111815
1.8280,0.3959,40.2300,61,97,111819
1.7986,0.3715,40.2000,61,97,111822
1.7791,0.3715,40.2600,61,97,111825
1.7889,0.3861,40.0300,61,97,111830
1.7546,0.3763,40.1300,61,97,111833
1.7595,0.3666,40.1600,61,97,111836
1.7351,0.3666,40.2300,61,97,111840
1.7009,0.3666,40.2300,61,97,111843
1.7107,0.3812,40.0300,61,97,111846
1.6813,0.3470,40.2600,61,97,111850
1.7009,0.3715,40.2000,61,97,111853
1.6960,0.3715,40.2000,61,97,111856
1.7009,0.3666,40.2300,61,97,111859
1.7400,0.3763,40.0600,61,97,111863
1.7302,0.4008,40.3000,61,97,111866
1.7595,0.3812,40.1300,61,97,111869
1.7351,0.3715,40.2000,61,97,111874
1.7204,0.3617,40.2300,61,97,111877
1.6960,0.3763,40.2600,61,97,111880
1.6373,0.3715,40.2000,61,97,111884
1.6471,0.3763,40.1000,61,97,111887
1.6520,0.3715,40.2000,61,97,111890
1.7546,0.3715,40.2300,61,97,111894
1.9453,0.3763,40.1000,61,97,111897
2.1505,0.3715,40.2300,61,97,111900
2.4340,0.3812,40.1300,61,97,111903
2.6295,0.4008,40.2000,61,97,111907
2.7713,0.3666,40.2300,61,97,111910
2.9179,0.3763,40.1600,61,97,111913
2.9814,0.3715,40.2600,61,97,111918
3.0694,0.3861,39.9600,61,97,111921
3.0059,0.3763,40.2300,61,97,111924
2.8788,0.3666,40.2300,61,97,111928
2.7664,0.3763,40.3600,61,97,111931
2.6100,0.3763,40.2300,61,97,111934
2.4927,0.3861,40.0600,61,97,111938
2.2385,0.3715,40.2300,61,97,111941
2.0577,0.3715,40.1600,61,97,111944
1.9013,0.3715,40.2600,61,97,111947
1.7742,0.3666,40.3000,61,97,111951
1.6960,0.3812,40.2600,61,97,111954
1.5934,0.3715,40.2300,61,97,111958
1.5591,0.3763,39.6400,61,97,111962
1.5005,0.3666,40.2300,61,97,111965
1.4956,0.3666,40.2600,61,97,111968
1.5543,0.3812,40.1300,61,97,111972
1.5249,0.3763,39.5400,61,97,111975
1.5298,0.3715,40.2300,61,97,111979
1.5982,0.3812,40.0300,61,97,111982
1.5982,0.3715,40.2300,61,97,111985
1.6129,0.3666,40.2600,61,97,111989
1.6080,0.3812,40.2300,61,97,111992
1.5689,0.3666,40.2300,61,97,111995
1.5982,0.3910,40.0300,61,97,112000
1.5640,0.3715,40.2000,61,97,112003
1.5934,0.3666,40.1300,61,97,112006
1.6422,0.3715,40.2300,61,97,112009
1.6569,0.3666,40.2300,61,97,112013
1.7009,0.3861,40.1300,61,97,112016
1.6373,0.3715,40.2000,61,97,112019
1.6276,0.3763,40.1600,61,97,112023
1.5885,0.3715,40.2000,61,97,112026
1.5836,0.3666,40.3000,61,97,112029
1.6276,0.3812,40.1000,61,97,112033
1.6422,0.3715,40.3300,61,97,112036
1.7107,0.3812,40.2300,61,97,112039
1.7155,0.3910,40.1600,61,97,112044
1.7302,0.3666,40.2300,61,97,112047
1.7155,0.3959,40.1600,61,97,112050
1.6862,0.3715,40.2600,61,97,112054
1.7058,0.3715,40.1000,61,97,112057
1.6911,0.3666,40.2300,61,97,112060
1.6960,0.3666,40.2600,61,97,112063
1.7155,0.3763,40.1600,61,97,112067
1.7204,0.3666,40.3000,61,97,112070
1.7742,0.3763,39.9600,61,97,112073
1.7595,0.3666,40.2300,61,97,112077
1.7693,0.3666,40.2600,61,97,112080
1.7986,0.3715,40.2600,61,97,112083
1.8035,0.3861,40.3300,61,97,112088
1.8573,0.3861,40.0000,61,97,112091
1.8231,0.3763,40.2600,61,97,112094
1.8133,0.3715,40.2000,61,97,112098
1.8182,0.3715,40.2000,61,97,112101
1.7986,0.3666,40.2600,61,97,112104
1.8084,0.3812,40.1000,61,97,112108
1.7595,0.3763,40.2300,61,97,112111
1.7595,0.3715,40.1300,61,97,112114
1.7546,0.3666,40.3300,61,97,112117
1.7742,0.3666,40.2300,61,97,112121
1.8133,0.3763,40.1600,61,97,112124
1.7840,0.3715,40.2300,61,97,112128
1.7937,0.3812,40.1000,61,97,112132
1.7498,0.3715,40.2300,61,97,112135
1.7449,0.3666,40.2300,61,97,112138
1.7595,0.3763,40.2300,61,97,112142
1.7595,0.3715,40.3300,61,97,112145
1.7986,0.3715,40.1600,61,97,112148
1.7986,0.3715,40.1000,61,97,112152
1.8231,0.3617,40.2600,61,97,112155
1.8524,0.3763,40.1600,61,97,112158
1.8475,0.3763,40.3000,61,97,112162
1.8671,0.3812,40.0300,61,97,112165
1.8280,0.3763,40.1300,61,97,112168
1.8035,0.3763,40.2300,61,97,112172
1.8084,0.3763,40.3300,61,97,112176
1.7937,0.3666,40.2000,61,97,112179
1.8426,0.3861,39.9600,61,97,112182
1.8182,0.3959,40.1300,61,97,112186
1.8182,0.3715,40.2000,61,97,112189
1.8426,0.3715,40.2600,61,97,112192
1.8622,0.3715,40.2300,61,97,112196
1.8964,0.3861,40.1300,61,97,112199
1.8524,0.3715,40.3000,61,97,112202
1.8622,0.3715,40.2000,61,97,112206
1.8719,0.3715,40.2000,61,97,112209
1.8622,0.3666,40.1000,61,97,112212
1.9110,0.3666,40.2000,61,97,112217
1.8671,0.3715,40.4000,61,97,112220
1.8964,0.3715,40.1000,61,97,112223
1.8768,0.3666,40.2300,61,97,112226
1.8817,0.3666,40.2000,61,97,112230
1.9208,0.3812,40.1000,61,97,112233
1.8915,0.3715,40.3600,61,97,112236
1.9404,0.3715,40.1600,61,97,112240
1.9306,0.3715,40.1300,61,97,112243
1.9355,0.3959,40.2600,61,97,112246
1.9404,0.3763,40.1300,61,97,112250
1.8915,0.3666,40.3000,61,97,112253
1.9110,0.3715,40.0300,61,97,112257
1.8768,0.3666,40.4000,61,97,112261
1.8817,0.3715,40.3000,61,97,112264
1.8964,0.3763,40.2000,61,97,112267
1.8866,0.3715,40.2000,61,97,112270
1.9404,0.3812,40.0000,61,97,112274
1.9062,0.3715,40.1600,61,97,112277
1.8915,0.3910,40.3600,61,97,112280
1.8866,0.3763,40.1600,61,97,112284
1.8719,0.3812,40.3000,61,97,112287
1.9453,0.3861,40.0600,61,97,112290
1.9208,0.3763,40.1300,61,97,112294
1.9013,0.3617,40.1600,61,97,112297
1.8866,0.3715,40.3000,61,97,112301
1.8671,0.3715,40.3300,61,97,112305
1.8964,0.3812,40.0000,61,97,112308
1.8622,0.3470,40.2000,61,97,112311
1.8622,0.3763,40.1300,61,97,112314
1.8328,0.3715,40.3600,61,97,112318
1.8377,0.3666,40.2600,61,97,112321
1.8524,0.3715,40.2600,61,97,112324
1.8328,0.3715,40.3000,61,97,112328
1.8573,0.3812,40.1300,61,97,112331
1.8377,0.3470,40.3000,61,97,112334
1.8622,0.3666,40.2600,61,97,112338
1.9208,0.3763,40.1600,61,97,112342
1.8719,0.3715,40.3000,61,97,112345
1.8671,0.3812,40.1000,61,97,112349
1.8231,0.3666,40.3300,61,97,112352
1.8231,0.3666,40.2300,61,97,112355
1.8524,0.3812,40.1600,61,97,112359
1.8377,0.3666,40.2300,61,97,112362
1.8915,0.3812,39.3500,61,97,112365
1.8817,0.3763,40.1300,61,97,112368
1.8817,0.3666,40.3000,61,97,112372
1.8915,0.3812,40.2300,61,97,112375
1.8622,0.3666,40.2300,61,97,112378
1.8964,0.3959,40.0000,61,97,112382
1.8475,0.3715,40.2300,61,97,112386
1.8182,0.3666,40.2000,61,97,112389
1.8426,0.3666,40.2600,61,97,112393
1.8182,0.3666,40.3000,61,97,112396
1.8671,0.3812,40.1300,61,97,112399
1.8377,0.3715,40.3600,61,97,112403
1.8426,0.3763,40.2000,61,97,112406
1.8084,0.3715,40.2300,61,97,112409
1.7986,0.3763,40.3000,61,97,112413
1.8182,0.3763,40.2000,61,97,112416
1.8084,0.3715,40.2300,61,97,112419
1.8573,0.4008,40.2000,61,97,112422
1.8084,0.3715,40.2600,61,97,112427
1.8084,0.3812,40.3600,61,97,112430
1.8524,0.3812,40.1000,61,97,112433
1.8328,0.4057,40.3000,61,97,112437
1.8719,0.3763,40.1300,61,97,112440
1.8671,0.3715,40.1600,61,97,112443
1.8573,0.3715,40.2600,61,97,112447
1.8671,0.3910,40.2000,61,97,112450
1.8475,0.3666,40.2300,61,97,112453
1.8524,0.3812,39.9600,61,97,112457
1.7889,0.3715,40.1600,61,97,112460
1.7693,0.3666,40.4000,61,97,112463
1.7791,0.3715,40.2000,61,97,112466
1.7937,0.3715,40.2600,61,97,112471
1.8524,0.3861,40.0300,61,97,112474
1.7937,0.3715,40.2300,61,97,112477
1.7986,0.3568,40.3000,61,97,112481
1.8182,0.3470,40.2000,61,97,112484
1.8328,0.3666,40.2300,61,97,112487
1.8915,0.3666,40.1600,61,97,112491
1.8622,0.3715,40.3600,61,97,112494
1.8573,0.3763,40.2300,61,97,112497
1.8231,0.3715,40.2300,61,97,112501
1.8133,0.3470,40.3000,61,97,112504
1.8622,0.3812,40.0600,61,97,112507
1.8573,0.3715,40.2300,61,97,112512
1.8719,0.4154,40.1600,61,97,112515
1.8133,0.3470,40.2000,61,97,112518
1.7791,0.3666,40.2300,61,97,112521
1.7889,0.3666,40.1300,61,97,112525
1.7742,0.3715,40.4300,61,97,112528
1.8084,0.3715,40.0600,61,97,112531
1.8035,0.3715,40.2300,61,97,112535
1.8182,0.3861,40.3000,61,97,112538
1.8524,0.3763,40.2000,61,97,112541
1.8671,0.3715,40.2300,61,97,112545
1.9159,0.3959,40.0300,61,97,112548
1.8524,0.3666,40.3000,61,97,112551
1.8231,0.3715,40.2600,61,97,112556
1.8182,0.3715,40.2600,61,97,112559
1.8182,0.3470,40.3000,61,97,112562
1.8768,0.3861,40.0300,61,97,112566
1.8524,0.3812,40.2300,61,97,112569
1.8524,0.3470,40.2300,61,97,112572
1.8915,0.3715,40.2300,61,97,112575
1.9110,0.3666,40.2300,61,97,112579
1.9648,0.3910,40.0600,61,97,112582
1.8133,0.3763,40.2300,61,97,112586
1.7840,0.3715,40.2300,61,97,112589
1.8084,0.3763,40.1300,61,97,112592
1.7840,0.3470,40.3000,61,97,112596
1.7986,0.3666,39.5400,61,97,112600
1.8182,0.3715,40.1600,61,97,112603
1.8231,0.3666,40.2600,61,97,112607
1.8719,0.3861,40.0600,61,97,112610
1.8524,0.3666,40.2300,61,97,112613
1.8622,0.3666,40.2300,61,97,112617
1.8817,0.3763,40.1600,61,97,112620
1.8866,0.3763,40.2300,61,97,112623
1.9257,0.3812,40.0600,61,97,112627
1.9159,0.4008,40.1300,61,97,112630
1.9110,0.3666,40.2600,61,97,112633
1.9062,0.3763,40.2000,61,97,112636
1.8671,0.3715,40.2300,61,97,112641
1.9110,0.3910,40.1300,61,97,112644
1.8719,0.3666,40.2600,61,97,112647
1.8671,0.3666,40.3600,61,97,112651
1.8622,0.3763,40.2600,61,97,112654
1.8622,0.3666,40.3000,61,97,112657
1.9159,0.3910,40.1300,61,97,112661
1.9013,0.3715,40.4000,61,97,112664
1.9306,0.3715,40.1300,61,97,112667
1.8964,0.3666,40.2300,61,97,112671
1.9013,0.3617,40.2300,61,97,112674
1.9208,0.3763,40.2600,61,97,112677
1.9159,0.3812,40.2000,61,97,112681
1.9795,0.3861,40.1300,61,97,112685
1.9501,0.3715,40.2300,61,97,112688
1.9648,0.3666,40.2300,61,97,112691
2.0186,0.3763,40.2000,61,97,112695
2.0088,0.3715,40.3000,61,97,112698
2.0479,0.3763,40.2000,61,97,112701
2.0137,0.3763,40.2000,61,97,112705
1.9941,0.3715,40.3000,61,97,112708
1.9453,0.3812,40.2600,61,97,112711
1.9013,0.3763,40.2300,61,97,112715
1.9404,0.3812,40.0600,61,97,112718
1.8915,0.3715,40.2300,61,97,112721
1.8866,0.3666,40.2300,61,97,112726
1.8866,0.3666,40.2000,61,97,112729
1.8768,0.3666,40.2300,61,97,112732
1.9159,0.3861,39.9600,61,97,112735
1.8475,0.3715,40.2300,61,97,112739
1.8133,0.3666,40.2300,61,97,112742
1.8035,0.3715,40.2300,61,97,112745
1.8133,0.3666,39.5400,61,97,112749
1.8866,0.3763,40.1000,61,97,112752
1.8817,0.3715,40.3000,61,97,112755
1.8915,0.3715,40.2000,61,97,112759
1.8426,0.3763,40.2300,61,97,112762
1.7937,0.3715,40.2000,61,97,112765
1.7693,0.3812,40.0600,61,97,112770
1.7253,0.3959,40.2600,61,97,112773
1.7546,0.3666,40.1600,61,97,112776
1.7693,0.3666,40.1300,61,97,112780
1.8280,0.3666,40.2300,61,97,112783
1.8280,0.3715,40.2000,61,97,112786
1.8133,0.3715,40.3000,61,97,112789
1.8182,0.3715,40.1000,61,97,112793
1.7986,0.3666,40.2600,61,97,112796
1.7937,0.3666,40.2300,61,97,112799
1.8035,0.3763,40.2000,61,97,112803
1.7937,0.3617,40.3000,61,97,112806
1.8084,0.3812,40.0000,61,97,112809
1.7400,0.3666,40.2000,61,97,112814
1.7058,0.3666,40.3600,61,97,112817
1.6911,0.3763,40.2600,61,97,112820
1.7058,0.3861,40.2300,61,97,112823
1.8524,0.3861,39.9600,61,97,112827
1.9941,0.3763,40.2300,61,97,112830
2.2141,0.3715,40.3000,61,97,112833
2.4780,0.3715,40.2000,61,97,112837
2.6686,0.3763,40.2000,61,97,112840
2.8886,0.3910,40.0600,61,97,112843
2.9423,0.3763,40.2000,61,97,112847
2.9961,0.3666,40.3000,61,97,112850
3.0303,0.3715,40.2300,61,97,112854
3.0156,0.3666,40.3000,61,97,112858
3.0156,0.4154,40.1300,61,97,112861
2.8983,0.3715,40.2300,61,97,112864
2.7566,0.3715,40.0600,61,97,112867
2.5318,0.3715,40.2300,61,97,112871
2.3167,0.3666,39.8000,61,97,112874
2.1505,0.3812,40.2300,61,97,112877
1.9844,0.3666,40.3300,61,97,112881
1.8964,0.3812,40.2000,61,97,112884
1.7595,0.3715,40.3300,61,97,112887
1.6764,0.3666,40.3600,61,97,112891
1.6569,0.3763,40.1600,61,97,112894
1.6325,0.3617,40.2600,61,97,112898
1.6569,0.3763,40.0600,61,97,112902
1.6325,0.3861,40.1600,61,97,112905
1.5934,0.3715,40.3000,61,97,112908
1.5885,0.3812,40.1600,61,97,112912
1.5689,0.3666,40.3000,61,97,112915
1.6373,0.3812,40.0600,61,97,112918
1.6325,0.3715,40.2000,61,97,112921
1.6373,0.3666,39.7000,61,97,112925
1.6373,0.3715,40.2300,61,97,112928
1.6178,0.3715,40.3000,61,97,112931
1.6569,0.3910,40.1000,61,97,112935
1.6227,0.3715,40.3000,61,97,112939
1.6276,0.3666,40.2000,61,97,112942
1.6471,0.3666,40.2300,61,97,112946
1.6716,0.3666,40.3300,61,97,112949
1.7253,0.3812,40.1300,61,97,112952
1.7009,0.3715,40.3300,61,97,112956
1.7155,0.3763,40.2000,61,97,112959
1.7009,0.3715,40.3000,61,97,112962
1.7107,0.3812,40.2300,61,97,112965
1.7498,0.3763,40.0300,61,97,112969
1.7644,0.3715,40.3000,61,97,112972
1.7791,0.3812,40.1600,61,97,112975
1.7595,0.3910,40.2300,61,97,112979
1.7742,0.3470,40.2300,61,97,112983
1.7693,0.4008,40.2300,61,97,112986
1.7840,0.3715,40.2300,61,97,112990
1.7986,0.3715,40.0600,61,97,112993
1.7840,0.3763,40.2300,61,97,112996
1.7889,0.3666,40.2300,61,97,113000
1.7937,0.3861,40.2300,61,97,113003
1.7840,0.3666,40.2300,61,97,113006
1.8280,0.3812,40.0600,61,97,113010
1.8035,0.3666,40.3000,61,97,113013
1.7986,0.3666,40.2300,61,97,113016
1.7840,0.3715,40.2600,61,97,113019
1.7595,0.3666,40.2300,61,97,113024
1.8084,0.3812,40.0600,61,97,113027
1.7937,0.3763,40.1600,61,97,113030
1.8084,0.3666,40.2000,61,97,113034
1.8182,0.3715,40.2300,61,97,113037
1.7937,0.3666,40.1600,61,97,113040
1.8182,0.3861,40.0600,61,97,113044
1.7644,0.3763,40.1600,61,97,113047
1.7742,0.3715,40.1600,61,97,113050
1.7742,0.3666,40.3000,61,97,113054
1.7840,0.3715,40.3000,61,97,113057
1.8182,0.3812,40.1300,61,97,113060
1.7889,0.3666,40.4000,61,97,113063
1.8280,0.3763,40.1000,61,97,113068
1.8231,0.3666,40.2300,61,97,113071
1.8328,0.3715,40.2300,61,97,113074
1.8231,0.3715,40.2000,61,97,113078
1.7889,0.3763,40.4000,61,97,113081
1.8084,0.3763,40.2300,61,97,113084
1.7889,0.3666,40.2300,61,97,113088
1.8035,0.3763,40.2300,61,97,113091
1.8328,0.3763,40.0600,61,97,113094
1.7986,0.3715,40.2600,61,97,113098
1.8280,0.3763,40.0600,61,97,113101
1.8231,0.3812,40.1300,61,97,113104
1.8573,0.3666,40.2600,61,97,113107
1.8768,0.3812,40.2000,61,97,113112
1.8768,0.3715,40.2300,61,97,113115
1.9208,0.3861,40.1000,61,97,113118
1.8671,0.3715,40.1300,61,97,113122
1.8475,0.3666,40.2000,61,97,113125
1.8524,0.3666,40.2300,61,97,113128
1.8622,0.3666,40.3000,61,97,113132
1.9159,0.3861,40.0600,61,97,113135
1.8622,0.3715,40.2000,61,97,113138
1.8573,0.3666,40.1300,61,97,113142
1.8524,0.3715,40.2300,61,97,113145
1.8622,0.3715,40.3000,61,97,113148
1.9159,0.3812,40.1600,61,97,113153
1.8915,0.3666,40.2000,61,97,113156
1.8866,0.3763,40.1000,61,97,113159
1.8328,0.3666,40.2000,61,97,113162
1.8328,0.3666,40.2000,61,97,113166
1.8866,0.3812,40.1300,61,97,113169
1.8622,0.3715,40.3600,61,97,113172
1.8817,0.3763,40.2000,61,97,113176
1.8671,0.3666,40.0300,61,97,113179
1.8817,0.3715,40.2300,61,97,113182
1.9208,0.3715,40.1300,61,97,113186
1.9257,0.3470,40.2600,61,97,113189
1.9355,0.3763,40.0300,61,97,113192
1.9110,0.3812,40.0000,61,97,113197
1.8671,0.3715,40.1600,61,97,113200
1.8719,0.3666,40.2300,61,97,113204
1.8768,0.3812,40.3000,61,97,113207
1.8817,0.3666,40.2300,61,97,113210
1.9453,0.4008,40.1300,61,97,113214
1.9404,0.3763,40.2600,61,97,113217
1.9599,0.3715,40.1000,61,97,113220
1.9355,0.3666,40.2300,61,97,113223
1.8964,0.3666,40.1600,61,97,113227
1.8915,0.3812,40.1000,61,97,113230
1.8426,0.3666,40.3000,61,97,113233
1.8573,0.3715,40.1000,61,97,113238
1.8475,0.3617,40.2300,61,97,113241
1.8622,0.3617,40.3300,61,97,113244
1.8817,0.3666,40.2000,61,97,113248
1.8622,0.3715,40.2300,61,97,113251
1.8817,0.3715,40.1600,61,97,113254
1.8866,0.3715,40.2300,61,97,113258
1.8622,0.3666,40.2300,61,97,113261
1.8719,0.3617,40.2300,61,97,113264
1.8622,0.3715,40.2300,61,97,113268
1.9013,0.3715,40.0000,61,97,113271
1.8671,0.3666,40.3000,61,97,113274
1.8768,0.3666,40.3000,61,97,113277
1.9062,0.3715,40.1600,61,97,113282
1.8768,0.3666,40.3300,61,97,113285
1.9306,0.3763,39.9600,61,97,113288
1.8524,0.3763,40.2300,61,97,113292
1.8133,0.3617,40.2000,61,97,113295
1.7937,0.3715,40.1300,61,97,113298
1.7840,0.3666,40.2600,61,97,113302
1.8622,0.3861,40.4300,61,97,113305
1.8671,0.3666,40.2000,61,97,113308
1.8964,0.3715,40.1300,61,97,113312
1.8719,0.3715,40.2000,61,97,113315
1.8328,0.3666,40.3000,61,97,113318
1.7986,0.3666,40.1300,61,97,113323
1.7400,0.3666,40.2300,61,97,113326
1.7595,0.3666,40.1000,61,97,113329
1.7449,0.3666,40.2600,61,97,113332
1.7791,0.3666,40.2300,61,97,113336
1.8133,0.3715,40.2000,61,97,113339
1.8084,0.3666,40.2000,61,97,113342
1.8475,0.3763,40.1300,61,97,113346
1.8280,0.3666,40.2000,61,97,113349
1.8231,0.3715,40.3000,61,97,113352
1.8426,0.3763,40.1000,61,97,113356
1.8280,0.3861,40.2000,61,97,113359
1.8817,0.3763,40.0300,61,97,113362
1.8622,0.3763,40.2000,61,97,113367
1.8328,0.3666,40.2000,61,97,113370
1.8280,0.3763,40.1600,61,97,113373
1.7840,0.3666,40.2600,61,97,113376
1.8133,0.3812,40.0000,61,97,113380
1.7840,0.3715,40.1300,61,97,113383
1.7840,0.3666,40.2300,61,97,113386
1.7889,0.3715,40.2300,61,97,113390
1.7791,0.3861,40.2300,61,97,113393
1.8182,0.3861,40.0300,61,97,113396
1.7840,0.3763,40.2300,61,97,113400
1.8231,0.3666,40.2000,61,97,113403
1.8622,0.3715,40.3000,61,97,113406
1.8817,0.3666,40.2600,61,97,113411
1.9062,0.3715,40.2000,61,97,113414
1.8426,0.3715,40.2600,61,97,113417
1.8182,0.3715,40.0600,61,97,113421
1.7742,0.3666,40.2300,61,97,113424
1.7742,0.3666,40.2300,61,97,113427
1.8426,0.3812,40.1300,61,97,113430
1.8622,0.3666,40.3600,61,97,113434
1.9208,0.3763,40.2300,61,97,113437
1.8964,0.3666,40.2000,61,97,113440
1.8817,0.3617,40.2600,61,97,113444
1.8768,0.3715,39.8300,61,97,113447
1.8328,0.3568,40.2300,61,97,113451
1.8622,0.3715,40.0300,61,97,113455
1.8622,0.3715,40.2300,61,97,113458
1.8573,0.3666,40.3000,61,97,113461
1.8671,0.3715,40.2600,61,97,113465
1.7889,0.3666,40.3000,61,97,113468
1.8133,0.3910,40.0300,61,97,113471
1.7742,0.3666,40.1600,61,97,113475
1.7986,0.3861,40.2600,61,97,113478
1.8426,0.3666,40.2300,61,97,113481
1.8671,0.3715,40.2000,61,97,113484
1.9257,0.3861,40.1300,61,97,113488
1.8719,0.3715,40.2000,61,97,113491
1.8573,0.3715,40.2000,61,97,113495
1.8622,0.3910,40.2000,61,97,113499
1.8817,0.3715,40.3000,61,97,113502
1.8964,0.3812,39.9600,61,97,113505
1.8719,0.3666,40.2300,61,97,113509
1.8622,0.3715,40.1000,61,97,113512
1.7986,0.3715,40.2600,61,97,113515
1.7693,0.3666,40.1300,61,97,113519
1.7889,0.3763,40.2000,61,97,113522
1.7937,0.3666,40.3000,61,97,113525
1.8426,0.3812,40.2000,61,97,113529
1.8280,0.3666,40.2300,61,97,113532
1.8280,0.3666,40.1300,61,97,113536
1.8377,0.3715,40.2000,61,97,113539
1.8328,0.3666,40.4000,61,97,113543
1.8866,0.3715,40.0600,61,97,113546
1.9013,0.3666,40.2300,61,97,113549
1.9404,0.3666,40.2300,61,97,113553
1.9404,0.3763,40.2300,61,97,113556
1.8622,0.3666,40.2300,61,97,113559
1.8475,0.3812,40.0300,61,97,113563
1.7937,0.3715,40.1000,61,97,113566
1.7840,0.3715,40.2000,61,97,113569
1.8133,0.3715,40.2000,61,97,113573
1.8426,0.3666,40.2600,61,97,113576
1.9404,0.3861,40.1600,61,97,113580
1.9746,0.3715,40.1600,61,97,113583
2.0088,0.3617,40.2300,61,97,113587
2.0137,0.3959,40.2300,61,97,113590
1.9697,0.3666,40.3000,61,97,113593
1.9501,0.3812,40.1000,61,97,113597
1.8719,0.3715,40.2300,61,97,113600
1.8817,0.3666,40.1300,61,97,113603
1.9208,0.3812,40.2000,61,97,113607
1.9844,0.3666,40.2600,61,97,113610
2.0332,0.3763,40.2000,61,97,113613
1.9990,0.3715,40.2300,61,97,113617
1.9795,0.3715,40.1000,61,97,113620
1.9208,0.3715,40.2600,61,97,113624
1.8915,0.3470,40.2300,61,97,113627
1.9062,0.3763,40.1300,61,97,113631
1.8915,0.3715,40.2300,61,97,113634
1.9013,0.3666,40.0600,61,97,113637
1.9013,0.3715,40.1000,61,97,113641
1.9013,0.3666,40.2600,61,97,113644
1.9355,0.3715,40.1000,61,97,113647
1.9062,0.3666,40.2300,61,97,113651
1.9062,0.3763,40.1000,61,97,113654
1.8426,0.3666,40.2000,61,97,113657
1.8133,0.3666,40.2600,61,97,113661
1.8084,0.3666,40.2600,61,97,113665
1.8035,0.3470,40.3300,61,97,113668
1.8573,0.3812,40.1000,61,97,113671
1.8377,0.3666,40.1600,61,97,113675
1.8622,0.3617,40.3000,61,97,113678
1.8866,0.3470,40.2300,61,97,113681
1.8768,0.3666,40.2600,61,97,113685
1.8768,0.3666,40.0600,61,97,113688
1.7644,0.3666,40.2300,61,97,113691
1.7155,0.3666,40.3000,61,97,113695
1.6960,0.3666,40.3000,61,97,113698
1.7107,0.3666,40.3000,61,97,113701
1.7595,0.3812,40.0600,61,97,113705
1.7449,0.3666,40.3300,61,97,113709
1.7742,0.3666,40.1300,61,97,113712
1.7546,0.3666,40.3000,61,97,113715
1.7595,0.3763,40.3000,61,97,113719
1.7986,0.3470,40.1600,61,97,113722
1.7791,0.3666,40.3000,61,97,113725
1.8084,0.3812,40.1300,61,97,113729
1.7693,0.3617,40.3000,61,97,113732
1.7400,0.3763,40.2600,61,97,113735
1.7204,0.3666,40.2000,61,97,113739
1.6716,0.3666,40.3000,61,97,113742
1.6862,0.3617,40.0600,61,97,113745
1.7204,0.3666,40.2600,61,97,113750
1.8573,0.3666,40.2600,61,97,113753
2.0626,0.3715,40.2600,61,97,113756
2.2825,0.3666,40.3000,61,97,113759
2.5953,0.3812,40.0000,61,97,113763
2.7566,0.3715,40.1300,61,97,113766
2.8886,0.3666,40.2600,61,97,113769
3.0108,0.3715,40.2000,61,97,113773
3.0401,0.3666,39.5700,61,97,113776
3.1183,0.4057,40.1000,61,97,113779
3.0156,0.3763,40.1300,61,97,113783
2.8983,0.3617,40.2300,61,97,113786
2.8250,0.3715,40.2000,61,97,113789
2.6540,0.3666,40.3000,61,97,113793
2.5269,0.3861,40.0600,61,97,113797
2.2532,0.3666,40.2000,61,97,113800
2.0674,0.3666,40.1600,61,97,113803
1.9062,0.3666,40.2000,62,97,113807
1.6129,0.3666,40.2000,62,97,113810
1.6031,0.3666,40.2300,62,97,113814
1.6227,0.3763,40.1600,62,97,113817
1.5982,0.3666,40.3000,62,97,113820
1.6325,0.3763,40.0600,62,97,113824
1.6227,0.3666,40.1600,62,97,113827
1.6325,0.3666,40.2300,62,97,113830
1.6569,0.3763,40.1300,62,97,113835
1.6471,0.3666,40.3300,62,97,113838
1.7009,0.3812,40.0000,62,97,113841
1.6911,0.3666,40.1600,62,97,113845
1.7058,0.3617,40.2300,62,97,113848
1.7302,0.3715,40.2300,62,97,113851
1.7302,0.3715,40.2000,62,97,113854
1.7889,0.3861,40.0000,62,97,113858
1.7498,0.3666,40.1600,62,97,113861
1.7400,0.3666,40.2300,62,97,113864
1.7400,0.3666,40.3600,62,97,113868
1.7302,0.3568,40.2300,62,97,113871
1.7889,0.3812,40.1000,62,97,113874
1.7791,0.3666,40.2000,62,97,113879
1.8231,0.3715,40.2000,62,97,113882
1.8231,0.3666,40.2300,62,97,113885
1.8182,0.3666,40.2300,62,97,113889
1.8377,0.3763,40.0600,62,97,113892
1.8035,0.3666,40.2300,62,97,113895
1.8084,0.3715,40.1300,62,97,113899
1.8035,0.3617,40.2000,62,97,113902
1.7595,0.3666,40.3000,62,97,113905
1.7742,0.3715,40.2000,62,97,113908
1.7693,0.3666,40.3000,62,97,113912
1.8084,0.3763,40.0600,62,97,113915
1.7986,0.3666,40.1600,62,97,113918
1.7937,0.3666,40.4000,62,97,113923
1.8377,0.3715,40.2300,62,97,113926
1.8084,0.3666,40.2600,62,97,113929
1.8622,0.3763,40.1300,62,97,113933
1.8377,0.3666,40.2600,62,97,113936
1.8475,0.3861,40.2300,62,97,113939
1.8524,0.3715,40.2600,62,97,113943
1.8182,0.3666,40.3000,62,97,113946
1.8573,0.3812,39.9300,62,97,113949
1.8524,0.3715,40.2000,62,97,113953
1.8133,0.3617,39.5400,62,97,113956
1.8524,0.3666,40.3000,62,97,113959
1.8817,0.3666,40.4000,62,97,113963
1.9501,0.3715,40.1000,62,97,113967
1.9062,0.3715,40.2000,62,97,113970
1.8719,0.3666,40.0600,62,97,113973
1.8328,0.3666,40.2600,62,97,113977
1.8231,0.3666,40.2300,62,97,113980
1.8573,0.3666,40.1300,62,97,113983
1.8426,0.3666,40.4000,62,97,113987
1.8719,0.3812,40.1300,62,97,113990
1.8475,0.3666,40.2300,62,97,113993
1.8426,0.3666,40.2000,62,97,113997
1.8377,0.3715,40.2300,62,97,114000
1.8280,0.3666,40.3600,62,97,114003
1.8622,0.3666,40.1000,62,97,114007
1.8426,0.3666,40.2300,62,97,114011
1.8524,0.3666,40.3000,62,97,114014
1.8817,0.3715,40.1600,62,97,114017
1.8573,0.3763,40.2600,62,97,114021
1.8915,0.3715,40.0300,62,97,114024
1.8817,0.3812,40.2300,62,97,114027
1.8719,0.3470,40.2600,62,97,114031
1.8915,0.3715,40.2000,62,97,114034
1.8768,0.3715,40.2300,62,97,114037
1.9355,0.3812,39.9600,62,97,114041
1.8964,0.3666,40.1600,62,97,114044
1.8671,0.3617,40.4000,62,97,114048
1.9013,0.3666,40.2300,62,97,114052
1.8817,0.3617,40.2600,62,97,114055
1.9501,0.4008,40.1000,62,97,114058
1.9110,0.3666,40.2300,62,97,114061
1.9013,0.3666,40.1000,62,97,114065
1.8817,0.3666,40.2000,62,97,114068
1.8622,0.3666,40.2300,62,97,114071
1.8817,0.3666,40.1300,62,97,114075
1.8768,0.3666,40.3300,62,97,114078
1.9306,0.3715,40.1600,62,97,114081
1.9453,0.3666,40.2000,62,97,114085
1.9746,0.3568,40.2300,62,97,114088
1.9501,0.3763,39.5400,62,97,114092
1.8915,0.3666,40.2300,62,97,114096
1.8964,0.3666,40.2000,62,97,114099
1.8866,0.3568,40.2300,62,97,114102
1.9013,0.3568,40.2000,62,97,114106
1.9306,0.3666,40.1300,62,97,114109
1.9110,0.3666,40.3000,62,97,114112
1.9453,0.3715,40.0000,62,97,114115
1.9257,0.3666,40.2600,62,97,114119
1.9110,0.3617,40.2300,62,97,114122
1.9550,0.3715,40.1600,62,97,114125
1.9306,0.3617,40.1600,62,97,114129
1.9844,0.4106,40.0300,62,97,114132
1.9306,0.3666,40.2600,62,97,114136
1.9110,0.3617,40.2300,62,97,114140
1.9159,0.3666,40.2600,62,97,114143
1.8915,0.3666,40.3000,62,97,114146
1.9599,0.3861,40.0300,62,97,114150
1.9208,0.3861,40.3300,62,97,114153
1.9208,0.3812,40.1600,62,97,114156
1.9110,0.3666,40.1600,62,97,114159
1.9159,0.3617,40.2300,62,97,114163
1.9550,0.3763,40.1300,62,97,114166
1.9159,0.3715,40.2000,62,97,114169
1.9257,0.3666,40.1000,62,97,114173
1.9110,0.3617,40.2600,62,97,114177
1.9257,0.3617,40.2600,62,97,114180
1.9404,0.3861,40.1600,62,97,114184
1.8817,0.3617,40.2300,62,97,114187
1.8426,0.3763,40.1300,62,97,114190
1.7840,0.3617,40.2600,62,97,114194
1.7742,0.3617,40.3000,62,97,114197
1.7644,0.3715,40.2300,62,97,114200
1.7498,0.3617,40.2600,62,97,114203
1.7840,0.3666,40.0000,62,97,114207
1.7840,0.3617,40.2300,62,97,114210
1.8182,0.3617,40.2300,62,97,114213
1.8573,0.3763,40.1300,62,97,114217
1.8475,0.3763,40.3000,62,97,114221
1.9062,0.3763,40.0000,62,97,114224
1.8817,0.3715,40.2300,62,97,114228
1.8573,0.3763,40.2600,62,97,114231
1.8719,0.3666,40.1000,62,97,114234
1.8524,0.3666,40.2600,62,97,114238
1.9013,0.3861,39.9600,62,97,114241
1.8475,0.3470,40.1600,62,97,114244
1.8133,0.3617,39.8300,62,97,114248
1.7986,0.3568,40.2300,62,97,114251
1.7986,0.3617,40.3000,62,97,114254
1.8524,0.3763,40.0600,62,97,114257
1.8475,0.3666,40.2300,62,97,114262
1.8573,0.3666,40.2000,62,97,114265
1.8475,0.3861,40.2300,62,97,114268
1.8524,0.3617,40.2300,62,97,114272
1.8817,0.4008,40.2600,62,97,114275
1.8768,0.3617,40.2600,62,97,114278
1.8671,0.3715,40.1600,62,97,114282
1.8182,0.3470,40.2300,62,97,114285
1.8035,0.3617,40.2000,62,97,114288
1.8328,0.3763,40.1000,62,97,114292
1.8133,0.3617,40.3000,62,97,114295
1.8426,0.3617,40.0600,62,97,114298
1.8328,0.3666,40.1300,62,97,114302
1.8280,0.3617,40.2600,62,97,114306
1.8475,0.3763,40.3600,62,97,114309
1.8182,0.3959,40.3000,62,97,114312
1.8524,0.3666,40.0300,62,97,114316
1.8280,0.3617,40.1300,62,97,114319
1.8377,0.3568,40.2600,62,97,114322
1.8768,0.3666,40.3600,62,97,114326
1.8817,0.3617,40.2300,62,97,114329
1.9306,0.3763,39.9600,62,97,114332
1.8915,0.3617,40.2300,62,97,114336
1.8964,0.3568,40.2300,62,97,114339
1.8915,0.3666,40.3000,62,97,114342
1.8817,0.3617,40.2600,62,97,114347
1.9257,0.3812,40.1000,62,97,114350
1.8866,0.3666,40.2000,62,97,114353
1.8671,0.3617,40.1300,62,97,114356
1.8475,0.3617,40.2300,62,97,114360
1.8475,0.3617,40.2600,62,97,114363
1.8768,0.3715,40.1000,62,97,114366
1.8377,0.3617,40.2300,62,97,114370
1.8622,0.3666,40.1000,62,97,114373
1.8475,0.3617,40.3600,62,97,114376
1.8622,0.3470,40.2300,62,97,114380
1.8866,0.3715,40.1600,62,97,114383
1.8573,0.3470,40.3000,62,97,114386
1.8866,0.3617,40.1300,62,97,114391
1.8671,0.3617,40.1600,62,97,114394
1.8622,0.3617,40.2600,62,97,114397
1.8671,0.3617,40.1600,62,97,114401
1.8231,0.3617,40.3000,62,97,114404
1.8426,0.3715,40.0300,62,97,114407
1.8084,0.3617,40.2000,62,97,114410
1.8426,0.3519,40.2000,62,97,114414
1.8964,0.3666,40.2600,62,97,114417
1.8768,0.3617,40.1300,62,97,114421
1.8719,0.3568,40.2600,62,97,114424
1.9110,0.3715,40.1000,62,97,114427
1.8817,0.3617,40.2300,62,97,114432
1.8866,0.3666,40.1300,62,97,114435
1.8671,0.3617,40.3000,62,97,114438
1.8573,0.3617,40.2600,62,97,114442
1.8768,0.3763,40.1300,62,97,114445
1.8524,0.3617,40.2300,62,97,114448
1.8866,0.3715,40.3300,62,97,114452
1.8671,0.3470,40.2000,62,97,114455
1.8719,0.3617,40.3000,62,97,114458
1.8768,0.3666,40.1600,62,97,114462
1.8671,0.3617,40.2300,62,97,114465
1.8817,0.3617,40.0600,62,97,114468
1.8573,0.3617,40.3300,62,97,114472
1.8622,0.3666,40.2600,62,97,114476
1.8915,0.3666,40.1600,62,97,114479
1.8817,0.3617,40.3000,62,97,114482
1.9306,0.3715,40.0000,62,97,114486
1.9110,0.3666,40.1300,62,97,114489
1.9062,0.3617,40.3300,62,97,114492
1.9257,0.4008,40.2000,62,97,114496
1.9208,0.3519,40.2300,62,97,114499
1.9795,0.3812,40.0000,62,97,114502
1.9599,0.3715,40.1600,62,97,114506
1.9550,0.3568,40.2000,62,97,114509
1.9501,0.3617,40.3300,62,97,114512
1.9453,0.3617,40.2300,62,97,114516
1.9697,0.3715,40.2000,62,97,114520
1.9501,0.3568,40.2000,62,97,114523
1.9453,0.3617,40.1600,62,97,114526
1.9550,0.3666,40.2300,62,97,114530
1.9892,0.3568,40.2600,62,97,114533
2.0430,0.3666,40.2300,62,97,114536
2.0381,0.3617,40.3000,62,97,114540
2.0626,0.3666,40.1600,62,97,114543
2.0088,0.3617,40.2300,62,97,114546
1.9892,0.3568,40.3000,62,97,114550
1.9990,0.3715,40.3300,62,97,114553
1.9550,0.3617,40.3000,62,97,114556
1.9599,0.3617,40.2300,62,97,114561
1.9013,0.3568,40.1600,62,97,114564
1.8573,0.3568,40.3300,62,97,114567
1.8524,0.3470,40.2000,62,97,114570
1.8133,0.3568,40.2300,62,97,114574
1.8622,0.3666,40.0000,62,97,114577
1.8475,0.3617,40.2000,62,97,114580
1.8328,0.3568,40.3000,62,97,114584
1.8328,0.3519,40.2300,62,97,114587
1.8133,0.3568,40.3000,62,97,114590
1.8671,0.3715,40.0000,62,97,114594
1.8231,0.3617,40.3000,62,97,114597
1.8084,0.3519,40.2000,62,97,114600
1.8084,0.3617,40.2600,62,97,114605
1.7937,0.3568,40.3300,62,97,114608
1.8328,0.3812,40.0300,62,97,114611
1.7840,0.3617,40.2000,62,97,114614
1.7791,0.3568,40.2000,62,97,114618
1.7791,0.3617,40.2300,62,97,114621
1.7889,0.3617,40.2000,62,97,114624
1.8377,0.3812,40.1000,62,97,114628
1.8182,0.3617,40.3600,62,97,114631
1.8328,0.3617,40.1300,62,97,114634
1.8035,0.3568,40.2600,62,97,114638
1.7840,0.3568,40.3300,62,97,114641
1.7742,0.3666,40.2600,62,97,114644
1.7155,0.3812,40.3000,62,97,114649
1.7204,0.3715,40.1300,62,97,114652
1.6813,0.3568,40.2600,62,97,114655
1.7351,0.3568,40.2600,62,97,114658
1.8719,0.3617,40.1300,62,97,114662
2.0528,0.3617,40.2300,62,97,114665
2.2923,0.3666,40.0600,62,97,114668
2.4878,0.3617,40.3000,62,97,114672
2.6833,0.3568,40.2600,62,97,114675
2.8446,0.3617,40.2000,62,97,114678
2.9228,0.3568,40.2300,62,97,114682
3.0401,0.3715,40.0600,62,97,114685
2.9912,0.3763,40.1600,62,97,114689
2.9374,0.3617,40.2600,62,97,114693
2.8543,0.3617,40.1000,62,97,114696
2.7077,0.3519,40.2000,62,97,114699
2.6295,0.3812,40.0000,62,97,114702
2.3705,0.3666,40.1600,62,97,114706
2.1505,0.3617,40.2000,62,97,114709
1.9844,0.3617,40.2300,62,97,114712
1.8475,0.3568,40.3300,62,97,114716
1.8133,0.3666,40.0600,62,97,114719
1.6569,0.3617,40.1300,62,97,114722
1.6031,0.3617,40.1600,62,97,114726
1.5543,0.3568,40.2300,62,97,114729
1.5249,0.3470,40.2600,62,97,114733
1.5200,0.3666,40.1600,62,97,114737
1.4907,0.3617,40.3600,62,97,114740
1.5103,0.3666,40.1000,62,97,114743
1.5005,0.3617,40.3000,62,97,114746
1.5103,0.3568,40.2000,62,97,114750
1.5494,0.3666,40.1300,62,97,114753
1.5347,0.3617,40.2600,62,97,114756
1.5591,0.3617,40.0600,62,97,114760
1.5445,0.3568,40.1300,62,97,114763
1.5298,0.3568,40.2300,62,97,114766
1.5689,0.3715,40.2000,62,97,114770
1.5836,0.3568,40.2000,62,97,114774
1.6373,0.3715,40.0300,62,97,114777
1.6373,0.3568,40.2300,62,97,114781
1.6276,0.3568,40.2600,62,97,114784
1.6422,0.3715,40.2300,62,97,114787
1.6373,0.3568,40.2300,62,97,114790
1.6862,0.3715,40.0600,62,97,114794
1.6667,0.3568,40.2000,62,97,114797
1.6813,0.3519,40.2600,62,97,114800
1.7253,0.3617,40.2600,62,97,114804
1.7009,0.3568,40.2300,62,97,114807
1.7791,0.3763,40.1600,62,97,114810
1.7498,0.3617,40.1300,62,97,114814
1.7644,0.3568,40.2300,62,97,114818
1.7693,0.3812,40.2600,62,97,114821
1.7644,0.3617,40.2300,62,97,114825
1.7889,0.3666,40.0600,62,97,114828
1.7644,0.3617,40.2600,62,97,114831
1.7791,0.3617,40.2600,62,97,114835
1.7742,0.3519,40.2000,62,97,114838
1.7693,0.3568,40.2300,62,97,114841
1.7937,0.3666,40.2300,62,97,114844
1.7644,0.3568,40.3000,62,97,114848
1.8084,0.3617,40.1000,62,97,114851
1.7986,0.3568,40.1600,62,97,114854
1.7937,0.3568,40.3300,62,97,114859
1.8182,0.3861,40.1300,62,97,114862
1.8133,0.3568,40.3000,62,97,114865
1.8475,0.3617,40.0600,62,97,114869
1.8133,0.3568,40.2000,62,97,114872
1.8182,0.3568,40.2300,62,97,114875
1.8328,0.3568,40.2600,62,97,114879
1.8231,0.3568,40.2300,62,97,114882
1.8671,0.3715,40.0600,62,97,114885
1.8328,0.3617,40.2300,62,97,114889
1.8133,0.3568,40.2300,62,97,114892
1.8231,0.3568,40.2000,62,97,114895
1.8084,0.3519,40.3600,62,97,114898
1.8573,0.3763,40.0600,62,97,114903
1.8084,0.3617,40.1600,62,97,114906
1.7937,0.3519,40.1600,62,97,114909
1.7840,0.3568,40.2600,62,97,114913
1.7889,0.3568,40.3000,62,97,114916
1.8426,0.3666,40.1000,62,97,114919
1.8426,0.3715,40.2000,62,97,114923
1.8915,0.3568,40.1300,62,97,114926
1.8817,0.3568,40.2000,62,97,114929
1.8768,0.3519,40.2600,62,97,114933
1.8817,0.3666,40.2000,62,97,114936
1.8915,0.3568,40.3300,62,97,114939
1.8817,0.3666,40.1600,62,97,114942
1.8475,0.3519,40.2300,62,97,114947
1.8426,0.3519,40.2000,62,97,114950
1.8719,0.3715,40.1300,62,97,114953
1.8573,0.3568,40.2000,62,97,114957
1.8866,0.3617,40.1000,62,97,114960
1.8768,0.3617,40.1600,62,97,114963
1.8524,0.3519,40.4000,62,97,114967
1.8915,0.3617,40.1600,62,97,114970
1.8719,0.3519,40.2300,62,97,114973
1.9599,0.3568,40.0300,62,97,114977
1.9159,0.3568,40.1600,62,97,114980
1.9501,0.3519,40.2600,62,97,114983
1.9355,0.3568,40.2600,62,97,114988
1.9257,0.3568,40.2300,62,97,114991
1.9697,0.3715,40.1000,62,97,114994
1.9159,0.3519,40.2000,62,97,114997
1.9159,0.3470,40.2000,62,97,115001
1.9306,0.3568,40.3300,62,97,115004
1.9453,0.3519,40.2600,62,97,115007
1.9697,0.3666,39.8900,62,97,115011
1.9404,0.3568,40.2300,62,97,115014
1.9550,0.3470,40.1600,62,97,115017
1.9453,0.3617,40.2300,62,97,115021
1.9404,0.3519,40.1000,62,97,115024
1.9746,0.3568,40.1300,62,97,115027
1.9746,0.3568,40.1000,62,97,115032
1.9404,0.3519,40.3000,62,97,115035
1.9599,0.3617,40.1300,62,97,115039
1.9257,0.3519,40.1600,62,97,115042
1.9110,0.3519,40.4300,62,97,115045
1.9306,0.3519,40.1600,62,97,115048
1.9208,0.3470,40.2600,62,97,115052
1.9599,0.3666,40.0300,62,97,115055
1.9110,0.3519,40.1600,62,97,115058
1.9062,0.3519,40.2300,62,97,115062
1.9208,0.3617,40.2300,62,97,115065
1.9062,0.3519,40.2000,62,97,115068
1.9355,0.3763,40.0300,62,97,115073
1.8817,0.3617,40.1600,62,97,115076
1.8573,0.3519,40.2000,62,97,115079
1.8719,0.3519,40.2300,62,97,115083
1.8915,0.3519,40.3600,62,97,115086
1.9404,0.3470,40.0600,62,97,115089
1.9110,0.3568,40.2300,62,97,115093
1.9208,0.3470,40.1600,62,97,115096
1.8915,0.3519,40.2300,62,97,115099
1.9013,0.3470,40.2300,62,97,115102
1.9355,0.3617,40.1300,62,97,115106
1.9013,0.3568,40.2000,62,97,115109
1.9013,0.3568,40.1600,62,97,115112
1.8573,0.3617,40.2000,62,97,115117
1.8426,0.3470,40.2300,62,97,115120
1.8622,0.3568,40.1600,62,97,115123
1.8524,0.3519,40.3000,62,97,115127
1.8622,0.3568,40.0300,62,97,115130
1.8475,0.3519,40.2000,62,97,115133
1.8573,0.3519,40.3000,62,97,115137
1.8768,0.3568,40.1300,62,97,115140
1.8475,0.3519,40.2600,62,97,115143
1.8964,0.3617,40.0000,62,97,115146
1.8817,0.3568,40.1300,62,97,115150
1.8866,0.3519,40.3300,62,97,115153
1.8964,0.3519,40.2000,62,97,115156
1.8866,0.3519,40.2000,62,97,115161
1.9355,0.3666,39.9600,62,97,115164
1.8915,0.3617,40.1600,62,97,115167
1.8524,0.3470,40.2000,62,97,115171
1.8377,0.3519,40.2600,62,97,115174
1.8231,0.3519,40.2300,62,97,115177
1.8915,0.3666,40.1000,62,97,115181
1.8231,0.3519,40.2000,62,97,115184
1.8426,0.3519,40.1000,62,97,115187
1.8328,0.3519,40.2300,62,97,115190
1.8377,0.3519,40.3000,62,97,115194
1.8866,0.3568,40.2000,62,97,115197
1.8768,0.3519,40.2300,62,97,115201
1.8866,0.3519,40.1300,62,97,115205
1.8475,0.3519,40.2600,62,97,115208
1.8328,0.3519,40.2300,62,97,115211
1.8524,0.3617,40.1000,62,97,115215
1.8133,0.3519,40.2300,62,97,115218
1.8280,0.3519,40.1300,62,97,115221
1.8133,0.3519,40.1300,62,97,115225
1.8182,0.3470,40.3300,62,97,115228
1.8426,0.3763,40.1000,62,97,115231
1.8426,0.3470,40.2300,62,97,115235
1.8866,0.3568,40.0600,62,97,115238
1.8671,0.3519,40.1300,62,97,115241
1.8524,0.3470,40.3000,62,97,115245
1.8671,0.3568,40.1300,62,97,115249
1.8524,0.3568,40.2300,62,97,115252
1.8915,0.3617,40.0300,62,97,115255
1.8475,0.3519,40.1600,62,97,115259
1.8426,0.3470,40.2600,62,97,115262
1.8622,0.3519,40.2300,62,97,115265
1.8719,0.3470,40.2300,62,97,115269
1.9404,0.3861,40.0300,62,97,115272
1.9013,0.3519,40.2000,62,97,115275
1.8915,0.3470,40.1300,62,97,115279
1.8719,0.3470,40.2300,62,97,115282
1.8573,0.3470,40.1300,62,97,115286
1.8915,0.3666,40.0600,62,97,115289
1.8671,0.3519,40.2000,62,97,115293
1.8915,0.3715,40.1300,62,97,115296
1.8768,0.3470,40.3300,62,97,115299
1.8719,0.3470,40.4000,62,97,115303
1.9062,0.3666,40.1600,62,97,115306
1.8280,0.3470,40.2300,62,97,115309
1.8524,0.3617,40.1600,62,97,115313
1.8475,0.3470,40.2600,62,97,115316
1.8671,0.3470,40.3000,62,97,115319
1.9013,0.3519,40.1600,62,97,115323
1.9013,0.3470,40.2600,62,97,115326
1.9306,0.3519,40.0300,62,97,115330
1.8915,0.3519,40.3300,62,97,115333
1.8915,0.3470,40.3000,62,97,115337
1.9257,0.3617,40.1600,62,97,115340
1.8915,0.3470,40.2000,62,97,115343
1.9355,0.3617,40.0300,62,97,115347
1.9110,0.3470,40.1600,62,97,115350
1.8915,0.3470,40.3300,62,97,115353
1.9013,0.3470,40.2300,62,97,115357
1.8866,0.3470,40.1300,62,97,115360
1.9404,0.3715,40.0000,62,97,115363
1.9062,0.3568,40.4000,62,97,115367
1.8866,0.3470,40.2000,62,97,115371
1.8866,0.3470,40.2300,62,97,115374
1.8817,0.3470,40.2600,62,97,115377
1.9257,0.3959,40.0600,62,97,115381
1.8866,0.3470,40.2300,62,97,115384
1.9013,0.3470,40.2000,62,97,115387
1.9306,0.3470,40.2300,62,97,115391
1.9013,0.3470,40.2300,62,97,115394
1.9404,0.3568,40.2600,62,97,115397
1.9306,0.3519,40.2000,62,97,115401
1.9550,0.3519,40.2000,62,97,115404
1.9306,0.3421,40.2000,62,97,115407
1.9355,0.3470,40.2600,62,97,115410
1.9599,0.3568,40.1300,62,97,115415
1.9648,0.3470,40.3000,62,97,115418
1.9648,0.3470,40.2300,62,97,115421
1.9501,0.3763,40.1300,62,97,115425
1.9550,0.3275,40.3000,62,97,115428
1.9844,0.3568,40.1300,62,97,115431
1.9746,0.3372,40.3000,62,97,115435
2.0088,0.3519,40.0600,62,97,115438
1.9892,0.3519,40.4300,62,97,115441
1.9990,0.3470,40.2300,62,97,115445
1.9746,0.3470,40.2000,62,97,115448
1.9501,0.3470,40.2300,62,97,115451
1.9844,0.3568,40.0300,62,97,115454
1.9257,0.3470,40.2000,62,97,115459
1.9159,0.3470,40.2600,62,97,115462
1.9110,0.3715,40.3000,62,97,115465
1.8915,0.3470,40.2300,62,97,115469
1.9404,0.3715,40.0000,62,97,115472
1.8866,0.3519,40.2300,62,97,115475
1.8671,0.3421,40.2000,62,97,115479
1.8524,0.3470,40.2000,62,97,115482
1.8377,0.3470,40.2300,62,97,115485
1.8719,0.3568,40.0600,62,97,115488
1.8377,0.3519,40.2600,62,97,115492
1.8328,0.3470,40.3300,62,97,115495
1.8133,0.3470,40.3000,62,97,115499
1.8035,0.3421,40.2600,62,97,115503
1.8231,0.3421,40.1000,62,97,115506
1.7937,0.3470,40.2300,62,97,115509
1.8133,0.3519,40.1000,62,97,115513
1.7986,0.3372,40.2300,62,97,115516
1.7889,0.3470,40.3600,62,97,115519
1.7986,0.3519,40.2300,62,97,115523
1.7889,0.3470,40.3000,62,97,115526
1.8231,0.3470,40.1600,62,97,115529
1.7986,0.3519,40.2000,62,97,115532
1.8035,0.3421,40.4000,62,97,115536
1.8280,0.3470,40.1300,62,97,115539
1.7986,0.3470,40.4300,62,97,115543
1.8133,0.3519,40.0300,62,97,115547
1.7889,0.3519,40.1300,62,97,115550
1.7155,0.3470,40.2300,62,97,115553
1.6911,0.3519,40.1300,62,97,115557
1.6667,0.3421,40.2600,62,97,115560
1.7595,0.3812,40.0600,62,97,115563
1.8622,0.3519,40.1300,62,97,115567
2.0381,0.3421,40.3000,62,97,115570
2.2678,0.3470,40.2300,62,97,115573
2.5073,0.3421,40.2300,62,97,115576
2.7859,0.3666,40.0000,62,97,115580
2.8739,0.3470,40.2600,62,97,115584
2.9717,0.3421,40.2600,62,97,115587
3.0352,0.3372,40.2300,62,97,115591
2.9863,0.3470,40.1600,62,97,115594
2.9765,0.3568,40.1300,62,97,115597
2.8348,0.3470,40.2300,62,97,115601
2.7224,0.3470,40.1600,62,97,115604
2.5269,0.3470,40.2300,62,97,115607
2.3314,0.3470,40.3300,62,97,115611
2.1945,0.3568,40.0600,62,97,115614
1.9599,0.3470,40.2300,62,97,115617
1.8426,0.3666,40.2000,62,97,115620
1.7498,0.3275,40.2000,62,97,115624
1.6471,0.3470,40.3300,62,97,115628
1.6422,0.3519,40.1300,62,97,115631
1.5689,0.3470,40.2300,62,97,115635
1.5591,0.3470,40.1600,62,97,115638
1.5543,0.3763,40.1000,62,97,115642
1.5249,0.3470,40.2000,62,97,115645
1.5347,0.3421,40.3000,62,97,115648
1.5494,0.3421,40.2300,62,97,115652
1.5591,0.3470,40.2600,62,97,115655
1.6227,0.3715,40.1000,62,97,115658
1.5934,0.3470,40.2000,62,97,115662
1.5934,0.3421,40.2000,62,97,115665
1.5982,0.3470,40.2300,62,97,115668
1.5982,0.3470,40.2300,62,97,115672
1.6471,0.3519,40.1000,62,97,115676
1.6373,0.3470,40.3000,62,97,115679
1.6618,0.3812,40.1600,62,97,115682
1.6618,0.3470,40.2300,62,97,115686
1.6618,0.3421,40.1600,62,97,115689
1.6862,0.3470,40.1600,62,97,115692
1.6716,0.3470,40.1300,62,97,115696
1.7009,0.3568,40.1600,62,97,115699
1.7009,0.3421,40.2300,62,97,115702
1.6813,0.3421,40.1600,62,97,115706
1.7302,0.3470,40.1600,62,97,115709
1.7058,0.3470,40.3000,62,97,115713
1.7400,0.3470,40.2300,62,97,115716
1.7253,0.3421,40.3300,62,97,115720
1.7449,0.3421,40.2300,62,97,115723
1.7742,0.3519,40.1600,62,97,115726
1.7595,0.3421,40.2600,62,97,115730
1.8280,0.3519,40.0600,62,97,115733
1.7937,0.3470,40.1600,62,97,115736
1.7791,0.3421,40.3000,62,97,115740
1.7937,0.3470,40.2300,62,97,115743
1.7889,0.3421,40.3000,62,97,115746
1.8475,0.3617,39.9600,62,97,115750
1.8182,0.3519,40.2000,62,97,115753
1.8084,0.3421,40.2300,62,97,115757
1.8133,0.3421,40.2300,62,97,115760
1.8035,0.3421,40.2000,62,97,115764
1.8573,0.3568,40.1000,62,97,115767
1.8084,0.3470,40.2300,62,97,115770
1.8182,0.3421,40.1600,62,97,115774
1.8084,0.3421,40.2600,62,97,115777
1.8133,0.3421,40.2000,62,97,115780
1.8475,0.3470,40.2600,62,97,115784
1.8280,0.3763,40.2000,62,97,115787
1.8573,0.3470,40.1000,62,97,115790
1.8133,0.3421,40.2300,62,97,115794
1.8182,0.3421,40.2300,62,97,115798
1.8426,0.3519,40.2300,62,97,115801
1.8182,0.3421,40.2300,62,97,115805
1.8426,0.3715,40.1300,62,97,115808
1.8377,0.3470,40.2300,62,97,115811
1.8280,0.3421,40.3000,62,97,115814
1.8426,0.3470,40.1300,62,97,115818
1.8084,0.3421,40.3000,62,97,115821
1.8426,0.3470,40.1000,62,97,115824
1.8231,0.3372,40.1600,62,97,115828
1.8231,0.3421,40.2600,62,97,115831
1.8377,0.3421,40.2000,62,97,115834
1.8426,0.3421,40.3000,62,97,115838
1.9013,0.3519,39.9600,62,97,115842
1.8671,0.3421,40.2000,62,97,115845
1.8768,0.3372,40.2300,62,97,115849
1.8671,0.3421,40.2000,62,97,115852
1.8622,0.3421,40.2300,62,97,115855
1.9110,0.3568,40.1000,62,97,115859
1.8719,0.3519,40.1600,62,97,115862
1.8768,0.3421,40.1300,62,97,115865
1.8671,0.3421,40.3000,62,97,115868
1.8671,0.3372,40.3600,62,97,115872
1.9208,0.3519,40.1000,62,97,115875
1.8817,0.3421,40.3000,62,97,115878
1.9062,0.3421,40.0300,62,97,115883
1.8964,0.3372,40.2300,62,97,115886
1.8915,0.3372,40.3300,62,97,115889
1.9257,0.3519,40.2300,62,97,115893
1.9062,0.3421,40.3300,62,97,115896
1.9404,0.3421,40.1000,62,97,115899
1.9110,0.3372,40.2300,62,97,115903
1.9110,0.3324,40.2600,62,97,115906
1.9257,0.3470,40.2300,62,97,115909
1.9208,0.3421,40.3300,62,97,115912
1.9550,0.3470,40.1300,62,97,115916
1.9257,0.3372,39.6000,62,97,115919
1.9599,0.3421,40.2600,62,97,115922
1.9550,0.3470,40.1600,62,97,115927
1.9208,0.3421,40.2000,62,97,115930
1.9550,0.3519,40.0000,62,97,115933
1.9257,0.3470,39.5700,62,97,115937
1.9062,0.3421,40.3000,62,97,115940
1.9159,0.3421,40.0300,62,97,115943
1.9159,0.3421,40.2300,62,97,115947
1.9892,0.3568,40.1000,62,97,115950
1.9501,0.3372,40.2000,62,97,115953
1.9501,0.3421,40.1600,62,97,115956
1.9453,0.3421,40.2600,62,97,115960
1.9453,0.3421,40.2600,62,97,115963
1.9746,0.3470,39.9600,62,97,115966
1.9306,0.3421,40.2000,62,97,115971
1.9355,0.3421,40.1000,62,97,115974
1.8964,0.3421,40.3000,62,97,115977
1.8817,0.3372,40.2300,62,97,115981
1.8866,0.3470,40.1300,62,97,115984
1.8768,0.3421,40.2300,62,97,115987
1.9013,0.3470,40.0600,62,97,115991
1.8768,0.3275,40.2600,62,97,115994
1.8768,0.3372,40.3000,62,97,115997
1.8964,0.3470,40.2300,62,97,116000
1.8671,0.3421,40.2300,62,97,116004
1.8719,0.3470,40.1300,62,97,116007
1.8866,0.3421,40.1600,62,97,116011
1.8622,0.3372,40.3000,62,97,116015
1.8964,0.3470,40.1300,62,97,116018
1.8768,0.3372,40.1600,62,97,116021
1.9159,0.3519,40.0000,62,97,116025
1.8524,0.3421,40.2300,62,97,116028
1.8231,0.3568,40.2300,62,97,116031
1.8231,0.3421,40.2000,62,97,116035
1.8280,0.3372,40.3000,62,97,116038
1.9013,0.3470,40.0000,62,97,116041
1.8671,0.3421,40.1000,62,97,116045
1.8866,0.3324,40.2300,62,97,116048
1.8719,0.3421,40.1600,62,97,116051
1.8719,0.3372,40.2600,62,97,116055
1.9062,0.3617,40.1000,62,97,116059
1.8671,0.3275,40.2300,62,97,116062
1.8622,0.3421,39.8300,62,97,116065
1.8426,0.3421,40.3300,62,97,116069
1.8328,0.3372,40.3000,62,97,116072
1.8671,0.3470,40.1000,62,97,116075
1.8280,0.3421,40.2000,62,97,116079
1.8475,0.3519,40.2000,62,97,116082
1.8231,0.3372,40.2600,62,97,116085
1.8328,0.3470,40.3000,62,97,116089
1.8719,0.3421,40.2300,62,97,116092
1.8524,0.3372,40.2000,62,97,116096
1.8964,0.3470,40.1000,62,97,116100
1.8573,0.3372,40.1600,62,97,116103
1.8280,0.3470,40.2000,62,97,116106
1.8280,0.3421,40.2300,62,97,116109
1.8231,0.3372,40.2000,62,97,116113
1.8671,0.3470,40.0300,62,97,116116
1.8231,0.3372,40.2600,62,97,116119
1.8182,0.3275,40.2300,62,97,116123
1.8475,0.3421,40.2600,62,97,116126
1.8475,0.3372,40.2300,62,97,116129
1.9062,0.3568,39.9600,62,97,116133
1.8768,0.3275,40.2300,62,97,116136
1.8524,0.3324,40.2300,62,97,116140
1.8426,0.3421,40.2300,62,97,116144
1.8133,0.3372,40.3000,62,97,116147
1.8524,0.3519,40.0600,62,97,116150
1.8231,0.3421,40.2000,62,97,116154
1.8426,0.3372,40.2000,62,97,116157
1.8133,0.3372,40.2300,62,97,116160
1.8182,0.3715,40.2300,62,97,116163
1.8573,0.3470,40.1300,62,97,116167
1.8377,0.3372,40.2300,62,97,116170
1.8719,0.3421,40.2000,62,97,116173
1.8573,0.3372,39.5700,62,97,116177
1.8671,0.3324,40.2300,62,97,116180
1.8866,0.3421,40.1300,62,97,116184
1.8719,0.3421,40.2300,62,97,116188
1.8768,0.3421,40.2000,62,97,116191
1.8280,0.3275,40.2600,62,97,116194
1.8133,0.3372,40.3000,62,97,116198
1.8719,0.3470,40.1300,62,97,116201
1.8377,0.3372,40.2600,62,97,116204
1.8768,0.3519,40.0600,62,97,116208
1.8817,0.3421,40.1300,62,97,116211
1.8817,0.3666,40.2300,62,97,116214
1.9013,0.3421,40.1300,62,97,116217
1.8573,0.3324,40.2000,62,97,116221
1.8915,0.3470,39.9600,62,97,116225
1.8475,0.3372,40.1300,62,97,116228
1.8377,0.3324,40.3000,62,97,116232
1.8377,0.3324,40.2300,62,97,116235
1.8426,0.3372,40.2600,62,97,116238
1.8915,0.3617,40.1600,62,97,116242
1.8524,0.3372,40.2000,62,97,116245
1.8671,0.3372,40.2000,62,97,116248
1.8622,0.3372,40.3000,63,97,116252
1.8133,0.3372,40.3000,63,97,116255
1.8133,0.3617,40.2300,63,97,116259
1.8622,0.3470,40.1600,63,97,116262
1.8622,0.3372,40.2000,63,97,116265
1.9013,0.3421,40.0600,63,97,116270
1.8866,0.3568,40.2000,63,97,116273
1.8964,0.3421,40.2600,63,97,116276
1.9062,0.3470,40.1000,63,97,116279
1.8768,0.3372,40.3300,63,97,116283
1.8964,0.3519,40.0000,63,97,116286
1.8622,0.3421,40.1300,63,97,116289
1.8475,0.3372,40.2600,63,97,116293
1.8719,0.3421,40.2600,63,97,116296
1.9110,0.3275,40.2300,63,97,116299
1.9501,0.3568,40.0600,63,97,116303
1.9159,0.3275,40.2600,63,97,116306
1.9355,0.3324,40.1600,63,97,116310
1.9453,0.3372,40.2300,63,97,116314
1.9550,0.3372,40.2000,63,97,116317
2.0039,0.3519,40.1000,63,97,116320
1.9795,0.3372,40.2000,63,97,116324
2.0039,0.3372,39.5400,63,97,116327
1.9941,0.3324,40.2000,63,97,116330
1.9795,0.3372,40.2300,63,97,116333
1.9844,0.3812,40.2300,63,97,116337
1.9208,0.3372,40.2300,63,97,116340
1.9159,0.3519,40.1300,63,97,116343
1.8817,0.3324,40.2600,63,97,116347
1.8817,0.3812,40.2600,63,97,116350
1.9062,0.3421,40.1300,63,97,116354
1.8866,0.3666,40.3600,63,97,116358
1.9013,0.3372,40.0600,63,97,116361
1.8719,0.3372,40.1300,63,97,116364
1.8622,0.3372,40.2600,63,97,116368
1.8768,0.3421,40.2000,63,97,116371
1.8622,0.3372,40.3600,63,97,116374
1.8768,0.3470,40.0000,63,97,116377
1.8084,0.3324,40.3000,63,97,116381
1.7889,0.3324,40.2300,63,97,116384
1.7889,0.3421,40.3000,63,97,116387
1.7840,0.3372,40.2300,63,97,116391
1.8328,0.3470,39.4100,63,97,116395
1.8133,0.3470,40.2600,63,97,116398
1.8084,0.3275,40.2600,63,97,116402
1.8231,0.3324,40.3000,63,97,116405
1.8182,0.3372,40.2300,63,97,116408
1.8719,0.3470,40.0600,63,97,116412
1.8426,0.3421,40.1600,63,97,116415
1.8377,0.3372,39.5400,63,97,116418
1.8182,0.3421,40.2600,63,97,116422
1.7791,0.3079,40.3000,63,97,116425
1.8035,0.3372,40.1300,63,97,116428
1.7644,0.3372,40.2300,63,97,116431
1.7644,0.3470,40.1600,63,97,116435
1.7302,0.3275,40.2600,63,97,116439
1.7351,0.3617,40.2000,63,97,116442
1.7155,0.3372,40.2600,63,97,116446
1.6764,0.3372,40.3000,63,97,116449
1.7155,0.3372,40.1600,63,97,116452
1.7644,0.3324,40.3000,63,97,116456
1.8964,0.3275,40.2300,63,97,116459
2.1065,0.3421,40.1300,63,97,116462
2.3167,0.3372,40.2000,63,97,116466
2.6051,0.3421,40.0000,63,97,116469
2.7761,0.3372,40.2300,63,97,116472
2.9032,0.3324,40.2300,63,97,116475
3.0108,0.3470,40.1600,63,97,116480
3.0156,0.3324,40.2300,63,97,116483
3.0792,0.3470,40.0600,63,97,116486
2.9717,0.3372,40.1300,63,97,116490
2.8837,0.3324,40.2600,63,97,116493
2.7175,0.3372,39.6000,63,97,116496
2.5318,0.3372,40.2000,63,97,116500
2.4047,0.3568,40.0000,63,97,116503
2.1505,0.3372,40.3000,63,97,116506
1.9892,0.3763,40.2000,63,97,116509
1.8964,0.3324,40.2600,63,97,116513
1.7693,0.3324,40.3000,63,97,116516
1.7302,0.3519,40.1300,63,97,116519
1.6373,0.3324,40.2300,63,97,116524
1.5934,0.3861,40.1600,63,97,116527
1.5494,0.3324,40.4000,63,97,116530
1.5298,0.3568,40.2300,63,97,116534
1.5396,0.3470,40.1600,63,97,116537
1.5249,0.3275,40.2300,63,97,116540
1.5543,0.3421,40.1600,63,97,116544
1.5396,0.3324,40.2300,63,97,116547
1.5640,0.3275,40.2600,63,97,116550
1.6129,0.3519,40.1300,63,97,116554
1.6227,0.3324,40.2300,63,97,116557
1.6716,0.3421,40.0600,63,97,116560
1.6667,0.3372,40.2300,63,97,116563
1.6471,0.3324,40.3000,63,97,116568
1.6471,0.3372,40.2000,63,97,116571
1.6422,0.3324,40.3000,63,97,116574
1.6764,0.3421,40.0600,63,97,116578
1.6471,0.3324,40.2300,63,97,116581
1.6716,0.3470,40.3000,63,97,116584
1.6813,0.3372,40.2000,63,97,116588
1.6911,0.3324,40.2600,63,97,116591
1.7302,0.3519,40.0600,63,97,116594
1.6813,0.3372,40.1600,63,97,116598
1.6862,0.3324,40.2000,63,97,116601
1.7253,0.3324,40.2300,63,97,116604
1.7498,0.3324,40.3300,63,97,116609
1.7986,0.3421,40.1300,63,97,116612
1.7644,0.3372,40.1300,63,97,116615
1.7644,0.3324,40.2300,63,97,116618
1.7546,0.3324,40.2300,63,97,116622
1.7595,0.3275,40.3000,63,97,116625
1.7889,0.3421,40.1600,63,97,116628
1.7644,0.3275,40.2300,63,97,116632
1.7889,0.3519,40.1000,63,97,116635
1.7693,0.3275,40.2600,63,97,116638
1.7546,0.3275,40.2300,63,97,116642
1.7546,0.3275,40.2000,63,97,116645
1.7400,0.3275,40.2600,63,97,116648
1.7791,0.3324,40.1600,63,97,116653
1.7840,0.3275,40.1600,63,97,116656
1.8133,0.3226,40.3600,63,97,116659
1.8426,0.3372,40.1600,63,97,116663
1.8475,0.3275,40.2300,63,97,116666
1.9013,0.3421,40.0000,63,97,116669
1.8817,0.3372,40.2000,63,97,116672
1.8622,0.3275,40.2300,63,97,116676
1.8328,0.3324,40.2600,63,97,116679
1.8084,0.3324,40.3000,63,97,116682
1.8524,0.3470,40.0000,63,97,116686
1.8133,0.3372,40.1600,63,97,116689
1.7937,0.3275,40.2000,63,97,116692
1.8133,0.3324,40.2300,63,97,116697
1.8377,0.3324,40.3000,63,97,116700
1.8915,0.3568,40.1000,63,97,116703
1.8377,0.3324,40.3000,63,97,116707
1.8280,0.3324,40.1300,63,97,116710
1.8084,0.3275,40.3000,63,97,116713
1.8133,0.3275,40.2600,63,97,116716
1.8377,0.3324,40.1600,63,97,116720
1.8182,0.3079,40.3600,63,97,116723
1.8573,0.3421,40.1600,63,97,116726
1.8328,0.3275,40.1600,63,97,116730
1.8328,0.3324,40.2300,63,97,116733
1.8573,0.3372,40.1300,63,97,116737
1.8573,0.3079,40.2600,63,97,116741
1.8964,0.3324,40.4000,63,97,116744
1.8915,0.3372,40.1300,63,97,116747
1.8719,0.3275,40.2300,63,97,116751
1.8671,0.3372,40.2000,63,97,116754
1.8524,0.3275,39.6000,63,97,116757
1.8915,0.3421,40.0300,63,97,116761
1.8622,0.3275,39.5400,63,97,116764
1.8622,0.3324,40.2600,63,97,116767
1.8719,0.3324,40.3000,63,97,116771
1.8573,0.3324,40.2300,63,97,116774
1.9062,0.3470,40.0300,63,97,116777
1.8573,0.3421,40.2000,63,97,116781
1.8475,0.3226,40.2000,63,97,116785
1.8622,0.3324,40.2300,63,97,116788
1.8719,0.3275,40.2300,63,97,116791
1.9355,0.3617,40.1000,63,97,116795
1.9110,0.3275,40.2000,63,97,116798
1.9110,0.3275,40.2600,63,97,116801
1.8866,0.3275,40.2300,63,97,116805
1.8964,0.3275,40.1300,63,97,116808
1.9550,0.3372,40.1000,63,97,116811
1.9453,0.3275,40.3300,63,97,116815
1.9844,0.3324,40.1000,63,97,116818
1.9648,0.3226,40.1600,63,97,116822
1.9697,0.3226,40.2600,63,97,116826
1.9892,0.3324,40.1600,63,97,116829
1.9746,0.3275,40.2300,63,97,116832
1.9795,0.3079,40.0600,63,97,116835
1.9453,0.3421,40.2000,63,97,116839
1.9453,0.3275,40.2300,63,97,116842
1.9648,0.3324,40.2600,63,97,116845
1.9550,0.3275,40.2600,63,97,116849
1.9795,0.3372,40.0000,63,97,116852
1.9355,0.3226,40.2300,63,97,116855
1.9501,0.3226,40.4000,63,97,116859
1.9746,0.3324,40.2300,63,97,116862
1.9404,0.3275,40.3000,63,97,116868
1.9404,0.3226,40.2600,63,97,116871
2.0137,0.3275,40.1300,63,97,116874
1.9453,0.3275,40.2300,63,97,116878
1.9550,0.3324,40.1300,63,97,116881
1.9159,0.3226,40.3000,63,97,116884
1.9110,0.3275,40.2000,63,97,116888
1.9453,0.3275,40.1300,63,97,116891
1.9159,0.3226,40.4000,63,97,116894
1.9501,0.3421,40.1300,63,97,116897
1.9062,0.3226,40.2000,63,97,116901
1.8719,0.3226,40.2300,63,97,116904
1.8719,0.3275,40.2000,63,97,116908
1.8915,0.3079,40.3000,63,97,116912
1.9501,0.3275,40.0300,63,97,116915
1.9453,0.3226,40.2600,63,97,116918
1.9453,0.3226,40.2600,63,97,116922
1.9599,0.3372,40.1300,63,97,116925
1.9013,0.3226,40.3600,63,97,116928
1.9159,0.3275,40.0000,63,97,116932
1.8866,0.3079,40.1600,63,97,116935
1.8719,0.3226,40.2300,63,97,116938
1.9062,0.3275,40.3600,63,97,116941
1.9062,0.3324,40.2600,63,97,116945
1.9648,0.3275,39.9600,63,97,116948
1.9306,0.3519,40.1300,63,97,116952
1.8964,0.3177,40.3000,63,97,116956
1.9110,0.3226,40.3600,63,97,116959
1.9110,0.3470,40.2000,63,97,116962
1.9648,0.3275,40.1000,63,97,116966
1.9159,0.3275,40.1300,63,97,116969
1.8915,0.3177,40.1600,63,97,116972
1.8671,0.3226,40.2600,63,97,116976
1.8622,0.3226,40.2300,63,97,116979
1.8964,0.3275,40.2300,63,97,116982
1.8866,0.3177,40.2300,63,97,116985
1.9013,0.3275,40.2000,63,97,116989
1.8671,0.3226,40.2600,63,97,116993
1.8671,0.3177,40.3000,63,97,116996
1.9110,0.3275,40.1300,63,97,117000
1.8915,0.3275,40.2300,63,97,117003
1.9110,0.3226,40.1000,63,97,117006
1.8964,0.3226,40.1600,63,97,117010
1.8964,0.3226,40.2300,63,97,117013
1.9110,0.3324,40.2000,63,97,117016
1.8866,0.3177,40.2300,63,97,117020
1.9257,0.3275,40.0300,63,97,117023
1.8964,0.3226,40.2300,63,97,117026
1.9013,0.3226,40.4000,63,97,117030
1.9306,0.3324,40.1600,63,97,117033
1.9159,0.3226,40.3000,63,97,117037
1.9648,0.3324,40.0000,63,97,117040
1.9257,0.3275,40.1300,63,97,117044
1.8915,0.3079,40.0600,63,97,117047
1.8817,0.3470,40.2000,63,97,117050
1.8768,0.3226,40.2300,63,97,117054
1.9501,0.3372,40.0600,63,97,117057
1.9257,0.3177,40.2000,63,97,117060
1.9257,0.3226,40.2300,63,97,117064
1.9110,0.3177,40.3000,63,97,117067
1.8915,0.3226,40.2600,63,97,117070
1.9062,0.3519,40.1000,63,97,117074
1.8719,0.3079,40.2000,63,97,117078
1.9110,0.3275,40.2000,63,97,117081
1.9208,0.3226,40.2300,63,97,117084
1.9355,0.3226,40.3000,63,97,117088
1.9648,0.3421,40.1600,63,97,117091
1.9501,0.3226,40.2300,63,97,117094
1.9892,0.3275,40.1000,63,97,117098
1.9648,0.3226,40.2000,63,97,117101
1.9697,0.3177,40.2600,63,97,117104
1.9795,0.3226,40.1600,63,97,117108
1.9550,0.3177,40.2600,63,97,117111
1.9795,0.3226,40.0600,63,97,117114
1.9453,0.3177,40.2300,63,97,117118
1.9550,0.3177,40.3300,63,97,117122
2.0088,0.3275,40.1600,63,97,117125
1.9697,0.3177,40.1600,63,97,117128
2.0332,0.3324,39.9600,63,97,117132
2.0283,0.3275,40.1600,63,97,117135
2.0283,0.3177,40.2000,63,97,117138
2.0332,0.3226,40.2000,63,97,117142
1.9990,0.3177,40.0300,63,97,117145
2.0479,0.3470,40.0000,63,97,117148
2.0235,0.3275,40.2000,63,97,117152
2.0039,0.3177,40.2000,63,97,117155
2.0088,0.3226,39.9600,63,97,117158
2.0186,0.3226,40.2000,63,97,117161
2.0919,0.3324,40.1600,63,97,117166
2.0528,0.3275,40.2000,63,97,117169
2.0381,0.3177,39.6400,63,97,117172
2.0235,0.3128,40.2600,63,97,117176
2.0235,0.3177,40.2300,63,97,117179
2.0577,0.3275,40.1300,63,97,117182
2.0235,0.3226,40.2000,63,97,117186
2.0283,0.3079,40.1000,63,97,117189
1.9892,0.3226,40.2300,63,97,117192
1.9844,0.3226,40.3000,63,97,117195
2.0137,0.3324,39.9600,63,97,117199
1.9599,0.3226,40.2300,63,97,117202
1.9795,0.3275,40.2000,63,97,117206
1.9746,0.3226,40.2300,63,97,117210
1.9892,0.3177,40.2600,63,97,117213
2.0674,0.3226,40.1600,63,97,117216
2.0430,0.3079,40.2300,63,97,117220
2.0674,0.3226,40.1300,63,97,117223
2.0430,0.3226,40.2300,63,97,117226
2.0332,0.3177,40.2600,63,97,117230
2.0674,0.3275,40.2300,63,97,117233
2.0381,0.3226,40.3000,63,97,117236
2.0772,0.3324,40.0300,63,97,117239
2.0381,0.3177,40.2300,63,97,117243
2.0577,0.3226,40.2300,63,97,117246
2.0430,0.3079,40.3000,63,97,117250
2.0235,0.3470,40.2000,63,97,117254
2.0821,0.3372,40.0000,63,97,117257
2.0723,0.3226,40.1600,63,97,117260
2.0821,0.3128,40.2600,63,97,117264
2.0919,0.3177,40.2000,63,97,117267
2.0528,0.3177,40.3000,63,97,117270
2.0674,0.3372,40.1000,63,97,117273
1.9990,0.3275,40.2300,63,97,117277
1.9941,0.3177,40.2300,63,97,117280
2.0039,0.3177,40.2600,63,97,117283
2.0088,0.3128,40.2300,63,97,117287
2.0430,0.3275,40.2000,63,97,117291
2.0137,0.3177,40.1600,63,97,117294
2.0039,0.3226,40.2300,63,97,117298
1.9550,0.3128,40.2600,63,97,117301
1.9306,0.3177,40.2300,63,97,117304
1.9404,0.3226,40.2000,63,97,117307
1.9110,0.3177,40.3000,63,97,117311
1.9306,0.3275,40.2300,63,97,117314
1.8768,0.3128,40.2300,63,97,117317
1.8866,0.3128,40.3300,63,97,117321
1.8915,0.3226,40.1600,63,97,117324
1.9013,0.3128,40.2300,63,97,117327
1.9159,0.3079,40.0300,63,97,117331
1.9110,0.3519,40.2300,63,97,117335
1.9013,0.3128,40.2300,63,97,117338
1.9159,0.3324,40.1300,63,97,117342
1.8915,0.3128,40.2300,63,97,117345
1.9550,0.3226,40.0000,63,97,117348
1.9453,0.3128,40.1600,63,97,117352
1.9355,0.3128,40.2000,63,97,117355
1.9355,0.3226,40.1600,63,97,117358
1.9013,0.3128,40.2300,63,97,117361
1.9257,0.3715,40.0300,63,97,117365
1.8622,0.3079,40.0600,63,97,117368
1.8084,0.3128,40.2000,63,97,117371
1.7986,0.3128,40.2300,63,97,117376
1.8084,0.3079,40.2600,63,97,117379
1.9306,0.3275,40.1000,63,97,117382
2.0381,0.3079,40.3000,63,97,117386
2.2287,0.3079,40.1600,63,97,117389
2.4536,0.3030,40.2300,63,97,117392
2.7077,0.3030,40.3000,63,97,117395
2.9668,0.3128,40.0600,63,97,117399
3.0890,0.3079,40.2300,63,97,117402
3.2405,0.3079,40.1000,63,97,117405
3.2502,0.3030,40.6400,63,97,117409
3.2405,0.3030,40.2000,63,97,117412
3.2454,0.3128,40.1300,63,97,117415
3.0841,0.3030,40.2600,63,97,117420
2.9765,0.3079,40.2300,63,97,117423
2.7664,0.2981,40.2300,63,97,117426
2.5855,0.2981,40.2300,63,97,117429
2.4096,0.3275,40.1300,63,97,117433
2.2239,0.3030,40.3000,63,97,117436
2.1114,0.3030,40.0600,63,97,117439
1.9648,0.3030,40.2600,63,97,117443
1.8671,0.2933,40.3300,63,97,117446
1.8035,0.3079,40.2000,63,97,117449
1.7204,0.2933,40.2300,63,97,117453
1.7107,0.3128,40.0300,63,97,117456
1.6618,0.3128,40.1600,63,97,117459
1.6569,0.3030,40.2300,63,97,117463
1.6569,0.3030,40.1600,63,97,117467
1.6373,0.2981,40.3000,63,97,117470
1.6813,0.3128,39.9600,64,96,117473
1.7351,0.3079,40.1300,64,96,117478
1.7204,0.2981,40.1600,64,96,117481
1.7595,0.3030,40.2300,64,96,117485
1.7302,0.2981,40.3000,64,96,117488
1.7302,0.2933,40.2300,64,96,117491
1.7595,0.3030,40.1600,64,96,117495
1.7644,0.2981,40.1300,64,96,117498
1.8328,0.3079,40.1300,64,96,117501
1.7986,0.2933,40.2300,64,96,117506
1.8328,0.2933,40.2600,64,96,117509
1.8524,0.2981,40.0600,64,96,117512
1.8426,0.2933,40.2300,64,96,117516
1.8817,0.2981,40.0600,64,96,117519
1.8768,0.2884,40.2300,64,96,117522
1.8573,0.2933,40.2300,64,96,117525
1.8671,0.3030,40.1600,64,96,117529
1.8377,0.2933,40.2300,64,96,117532
1.9013,0.3128,40.0000,64,96,117535
1.8866,0.2933,40.2300,64,96,117539
1.8915,0.2933,40.2600,64,96,117542
1.9257,0.2981,39.6400,64,96,117545
1.9208,0.2933,40.2300,64,96,117550
1.9844,0.3128,40.0000,64,96,117553
1.9355,0.3030,40.2300,64,96,117556
1.9013,0.2688,40.2600,64,96,117560
1.8964,0.2933,40.2000,64,96,117563
1.8915,0.2933,40.2300,64,96,117566
1.9306,0.3079,40.1600,64,96,117570
1.8964,0.2981,40.2300,64,96,117573
1.9110,0.2981,40.2300,64,96,117576
1.8915,0.2835,40.2300,64,96,117579
1.8817,0.2933,40.2600,64,96,117583
1.9062,0.3079,40.0300,64,96,117586
1.8719,0.2981,40.2300,64,96,117590
1.9062,0.3079,40.2300,64,96,117594
1.8964,0.2933,40.2000,64,96,117597
1.8964,0.2933,40.2000,64,96,117600
1.9159,0.2981,40.1000,64,96,117604
1.8915,0.2933,40.4000,64,96,117607
1.9159,0.3079,40.2000,64,96,117610
1.8964,0.2884,40.2000,64,96,117614
1.8866,0.2884,40.3300,64,96,117617
1.9404,0.3030,40.1000,64,96,117620
1.9062,0.2884,40.2300,64,96,117623
1.9306,0.2981,40.0300,64,96,117627
1.8817,0.2933,40.1600,64,96,117630
1.8817,0.2884,40.2300,64,96,117634
1.8915,0.2981,40.2000,64,96,117638
1.8915,0.2884,40.2300,64,96,117641
1.9648,0.3030,39.9600,64,96,117644
1.9453,0.2884,40.1600,64,96,117648
1.9404,0.2884,40.2300,64,96,117651
1.9404,0.2884,40.1600,64,96,117654
1.9159,0.2884,40.2300,64,96,117658
1.9697,0.3079,40.0300,64,96,117661
1.9453,0.2981,40.2000,64,96,117664
1.9355,0.2933,40.1600,64,96,117667
1.9257,0.2884,40.2000,64,96,117671
1.9062,0.2884,40.2300,64,96,117675
1.9306,0.3030,40.1000,64,96,117678
1.9159,0.2933,40.2000,64,96,117682
1.9306,0.2933,40.1300,64,96,117685
1.9208,0.2933,40.2300,64,96,117688
1.9501,0.2884,40.3000,64,96,117692
1.9844,0.2933,40.2300,64,96,117695
1.9795,0.2933,40.2300,64,96,117698
2.0186,0.2981,40.1600,64,96,117702
1.9892,0.2884,40.2300,64,96,117705
1.9844,0.2933,40.2300,64,96,117708
2.0088,0.2981,40.1000,64,96,117711
1.9844,0.2884,40.3000,64,96,117715
2.0381,0.3030,40.0300,64,96,117719
2.0137,0.2688,40.1300,64,96,117722
2.0088,0.2884,40.2600,64,96,117726
2.0430,0.3030,40.1600,64,96,117729
2.0235,0.2933,40.2300,64,96,117732
2.0381,0.2981,40.0300,64,96,117736
1.9990,0.2933,40.1600,64,96,117739
2.0088,0.2884,40.2600,64,96,117742
2.0283,0.2981,40.2300,64,96,117745
2.0332,0.2884,40.1300,64,96,117749
2.1065,0.2981,39.9300,64,96,117752
2.0723,0.2981,39.7300,64,96,117755
2.0528,0.3079,40.2000,64,96,117760
2.0528,0.2981,40.2000,64,96,117763
2.0283,0.2884,40.3300,64,96,117766
2.0870,0.3079,40.0300,64,96,117770
2.0479,0.2981,40.2000,64,96,117773
2.0332,0.2981,40.1600,64,96,117776
2.0283,0.2933,40.2600,64,96,117779
2.0186,0.2933,40.2300,64,96,117783
2.0723,0.2981,40.1000,64,96,117786
2.0577,0.2981,40.2300,64,96,117789
2.0723,0.2933,40.1300,64,96,117793
2.0332,0.2884,40.3300,64,96,117796
2.0137,0.2884,40.2000,64,96,117799
2.0235,0.2981,40.1300,64,96,117804
1.9844,0.2884,40.3000,64,96,117807
2.0088,0.3030,40.1000,64,96,117810
2.0088,0.2884,40.2300,64,96,117813
1.9892,0.2884,40.2300,64,96,117817
1.9990,0.2981,40.2000,64,96,117820
1.9795,0.2884,40.2000,64,96,117823
1.9844,0.2933,40.1000,64,96,117827
1.9599,0.2933,40.3600,64,96,117830
1.9941,0.2884,40.2300,64,96,117833
2.0528,0.2981,40.1300,64,96,117837
2.0381,0.2884,40.2300,64,96,117840
2.0919,0.2981,40.0000,64,96,117843
2.0723,0.2981,40.1300,64,96,117847
2.0430,0.2884,40.2300,64,96,117851
2.0479,0.2933,40.1000,64,96,117854
2.0283,0.2933,40.2000,64,96,117857
2.0968,0.3030,39.9600,64,96,117861
2.0772,0.2933,40.1300,64,96,117864
2.0772,0.2884,40.2000,64,96,117867
2.1163,0.2933,40.2000,64,96,117871
2.0723,0.2884,40.2300,64,96,117874
2.1163,0.3079,40.0000,64,96,117877
2.0626,0.2688,40.2600,64,96,117880
2.0381,0.2835,40.2000,64,96,117884
2.0479,0.2884,40.3000,64,96,117888
2.0577,0.2884,40.2300,64,96,117891
2.1163,0.3030,40.1300,64,96,117895
2.0821,0.2933,40.1600,64,96,117898
2.0821,0.2884,40.2300,64,96,117901
2.0626,0.2884,40.2600,64,96,117905
2.0528,0.2981,40.2600,64,96,117908
2.0968,0.2884,40.1000,64,96,117911
2.0674,0.2884,40.3000,64,96,117914
2.0821,0.2933,40.1000,64,96,117918
2.0626,0.2835,40.2300,64,96,117921
2.0430,0.2884,40.2300,64,96,117924
2.0577,0.2933,40.1300,64,96,117928
2.0283,0.2786,40.2300,64,96,117932
2.0626,0.2884,40.1600,64,96,117935
2.0430,0.2933,40.3000,64,96,117939
2.0577,0.2786,40.2300,64,96,117942
2.0772,0.2884,40.2300,64,96,117945
2.0479,0.2835,40.2600,64,96,117948
2.0772,0.3128,40.0600,64,96,117952
2.0577,0.2786,40.2300,64,96,117955
2.0674,0.2981,40.3300,64,96,117958
2.0870,0.2688,40.1600,64,96,117962
2.0723,0.2835,40.2600,64,96,117965
2.1212,0.3226,40.1000,64,96,117968
2.0919,0.2933,40.1300,64,96,117972
2.0430,0.2786,40.3600,64,96,117976
2.0430,0.2786,40.2600,64,96,117979
2.0283,0.2786,40.2300,64,96,117982
2.0968,0.2933,39.9600,64,96,117986
2.0674,0.3079,40.2000,64,96,117989
2.0626,0.3128,40.2000,64,96,117992
2.0723,0.2835,40.2000,64,96,117996
2.0577,0.2786,40.2300,64,96,117999
2.1212,0.2981,40.0300,64,96,118002
2.0821,0.2835,40.1600,64,96,118006
2.0772,0.2786,40.2000,64,96,118009
2.0577,0.2835,40.3000,64,96,118012
2.0528,0.2688,40.2300,64,96,118016
2.0821,0.2884,40.1300,64,96,118020
2.0626,0.2786,40.2300,64,96,118023
2.0723,0.2933,40.1300,64,96,118026
2.0381,0.2786,40.4000,64,96,118030
2.0283,0.2786,40.2300,64,96,118033
2.0626,0.2884,40.1000,64,96,118036
2.0381,0.2786,40.2000,64,96,118040
2.0674,0.2835,40.2300,64,96,118043
2.0381,0.2737,40.2000,64,96,118046
2.0577,0.2737,40.3000,64,96,118049
2.0821,0.2835,40.2300,64,96,118053
2.0577,0.2786,40.3000,64,96,118056
2.0870,0.2786,40.1600,64,96,118060
2.0674,0.3226,40.2300,64,96,118064
2.0821,0.2786,40.3300,64,96,118067
2.0968,0.2835,40.1300,64,96,118070
2.0821,0.2786,40.2300,64,96,118074
2.1457,0.2835,40.0300,64,96,118077
2.0772,0.3128,40.2000,64,96,118080
2.0626,0.3079,40.3000,64,96,118083
2.0968,0.2835,40.1300,64,96,118087
2.0528,0.2786,40.3000,64,96,118091
2.0430,0.2737,40.3000,64,96,118095
2.1017,0.2884,40.1000,64,96,118098
2.0626,0.2884,40.2300,64,96,118102
2.0577,0.2737,40.1300,64,96,118106
2.0283,0.2786,40.2000,64,96,118109
2.0186,0.2786,40.2600,64,96,118112
2.0479,0.2835,40.1300,64,96,118116
2.0088,0.2786,40.1600,64,96,118119
2.0186,0.2835,40.2300,64,96,118122
1.9990,0.2786,40.2600,64,96,118125
2.0283,0.2737,40.3300,64,96,118129
2.0674,0.2835,40.1300,64,96,118132
2.0674,0.2786,40.2300,64,96,118135
2.0968,0.2884,40.1000,64,96,118139
2.1017,0.2737,40.3000,64,96,118142
2.0723,0.2737,40.2600,64,96,118146
2.0968,0.2981,40.2000,64,96,118150
2.0626,0.2786,40.3300,64,96,118153
2.0674,0.2786,40.1000,64,96,118156
2.0577,0.2786,40.1300,64,96,118159
2.0674,0.2737,40.2300,64,96,118163
2.1212,0.2884,40.1600,64,96,118166
2.1212,0.2835,40.1600,64,96,118169
2.1701,0.2688,40.0300,64,96,118173
2.1261,0.2737,40.2000,64,96,118176
2.1114,0.2786,40.2300,64,96,118179
2.0919,0.2835,40.2300,64,96,118183
2.0479,0.2786,40.3000,64,96,118187
2.0821,0.2933,39.9600,64,96,118190
2.0283,0.2835,40.1600,64,96,118194
2.0186,0.2737,40.2000,64,96,118197
1.9941,0.2786,40.2300,64,96,118200
1.9697,0.2737,40.3000,64,96,118203
2.0186,0.2933,40.0300,64,96,118207
1.9746,0.2786,40.2600,64,96,118210
1.9892,0.2737,40.1600,64,96,118213
1.9648,0.2786,40.3600,64,96,118217
1.9550,0.2737,40.2600,64,96,118220
1.9648,0.2835,40.4000,64,96,118223
1.9062,0.2835,40.2300,64,96,118227
1.9257,0.2786,40.1300,64,96,118231
1.9062,0.2688,40.2300,64,96,118234
1.9159,0.2688,40.2300,64,96,118238
1.9355,0.2835,40.1600,64,96,118241
1.9159,0.2688,40.3300,64,96,118244
1.9208,0.2786,40.2000,64,96,118247
1.8768,0.2786,40.3000,64,96,118251
1.8671,0.2737,40.2300,64,96,118254
1.8768,0.2786,40.1300,64,96,118257
1.8622,0.2737,40.2300,64,96,118261
1.9013,0.2786,40.1300,64,96,118264
1.8768,0.2737,40.2000,64,96,118267
1.8671,0.2737,40.4000,64,96,118272
1.8817,0.2884,40.2300,64,96,118275
1.8573,0.2737,40.3000,64,96,118278
1.8817,0.2884,39.9600,64,96,118282
1.8280,0.2688,40.2300,64,96,118285
1.7791,0.2688,40.2600,64,96,118288
1.8035,0.2835,40.2000,64,96,118291
1.8231,0.2688,40.2300,64,96,118295
2.0088,0.2933,39.9600,64,96,118298
2.1554,0.2688,40.2300,64,96,118301
2.3509,0.2737,39.6400,64,96,118305
2.5904,0.2835,40.2300,64,96,118308
2.7957,0.2737,40.2300,64,96,118311
3.0352,0.2884,40.2000,64,96,118316
3.1183,0.2835,40.2600,64,96,118319
3.2014,0.2688,40.2000,64,96,118322
3.1720,0.2737,40.2300,64,96,118325
3.1085,0.2786,40.2300,64,96,118329
3.0352,0.2835,40.2600,64,96,118332
2.8397,0.2835,40.2000,64,96,118335
2.6882,0.2786,40.1000,64,96,118339
2.4291,0.2786,40.1300,64,96,118342
2.2141,0.2737,40.2600,64,96,118345
2.0772,0.2835,40.1600,64,96,118349
1.9257,0.2737,40.2300,64,96,118352
1.8035,0.2786,40.1000,64,96,118355
1.6911,0.2737,40.2000,64,96,118360
1.6080,0.2688,40.2600,64,96,118363
1.5787,0.2737,40.1300,64,96,118366
1.5152,0.2737,40.2300,64,96,118369
1.5152,0.2835,40.0300,64,96,118373
1.5152,0.2688,40.1600,64,96,118376
1.4809,0.2737,40.3300,64,96,118379
1.5152,0.2786,40.2300,64,96,118383
1.5152,0.2737,40.2300,64,96,118386
1.5689,0.2835,39.9600,64,96,118389
1.5543,0.2688,40.1300,64,96,118393
1.5494,0.2639,40.2300,64,96,118396
1.5591,0.2786,40.2300,64,96,118400
1.5543,0.2737,40.2300,64,96,118404
1.6178,0.2933,40.2300,64,96,118407
1.6031,0.2786,40.2000,64,96,118410
1.6227,0.2737,40.2300,64,96,118414
1.6618,0.2737,40.2300,64,96,118417
1.6373,0.2737,40.3600,64,96,118420
1.6764,0.2835,40.1000,64,96,118423
1.6520,0.2737,40.2600,64,96,118427
1.6764,0.2786,40.1300,64,96,118430
1.6667,0.2737,40.3000,64,96,118433
1.6764,0.2737,40.2300,64,96,118437
1.7253,0.2786,40.1600,64,96,118440
1.7107,0.2737,40.3300,64,96,118444
1.7400,0.2933,40.1300,64,96,118448
1.7204,0.2688,40.3000,64,96,118451
1.7351,0.2688,40.1600,64,96,118454
1.7693,0.2688,40.1600,64,96,118458
1.7498,0.2737,40.3000,64,96,118461
1.7791,0.3030,40.0300,64,96,118464
1.7498,0.2688,40.2000,64,96,118467
1.7595,0.2737,40.3600,64,96,118471
1.8182,0.2835,40.2300,64,96,118474
1.7840,0.2737,40.3000,64,96,118477
1.8280,0.2786,40.1000,64,96,118481
1.7986,0.2786,40.1600,64,96,118484
1.7791,0.2737,40.2000,64,96,118488
1.7840,0.2786,40.2000,64,96,118492
1.7791,0.2737,40.2300,64,96,118495
1.8328,0.2981,40.0000,64,96,118498
1.8084,0.2786,40.2300,64,96,118502
1.8084,0.2639,40.1600,64,96,118505
1.8280,0.2786,40.2300,64,96,118508
1.8280,0.2737,40.2600,64,96,118511
1.8719,0.2884,39.9600,64,96,118515
1.8426,0.2786,40.2000,64,96,118518
1.8475,0.3030,40.2000,64,96,118521
1.8280,0.2737,40.2300,64,96,118525
1.8084,0.2737,40.3300,64,96,118529
1.8280,0.2786,40.2000,64,96,118532
1.8084,0.2737,40.3300,64,96,118536
1.8377,0.2786,40.1600,64,96,118539
