ecg,gsr,temp,hr,spo2,timest
1.7937,0.2102,39.5100,89,97,154867
1.9208,0.2102,39.5100,89,97,154871
2.0039,0.2346,39.3800,89,97,154874
1.8915,0.2542,39.5700,89,97,154877
1.7986,0.2493,39.3200,89,97,154882
1.7449,0.2297,39.4100,89,97,154885
1.8182,0.2199,39.5100,89,97,154888
1.9697,0.2199,39.4100,89,97,154891
1.9795,0.2346,39.5100,89,97,154895
1.9355,0.2542,39.2800,89,97,154898
1.7742,0.2444,39.4400,89,97,154901
1.7449,0.2297,39.4800,89,97,154905
1.8377,0.2102,39.4800,89,97,154908
1.9501,0.2102,39.5100,89,97,154911
2.0283,0.2493,39.2500,89,97,154915
1.8719,0.2493,39.4800,89,97,154918
1.7546,0.2395,39.4400,89,97,154921
1.7449,0.2346,39.5400,89,97,154926
1.8426,0.1906,39.5100,89,97,154929
1.9941,0.1906,39.3800,89,97,154932
1.9746,0.2297,39.4800,89,97,154936
1.8671,0.2444,39.3800,89,97,154939
1.7400,0.2444,39.4800,89,97,154942
1.7449,0.2395,39.4800,89,97,154945
1.8915,0.2151,39.3800,89,97,154949
1.9844,0.2151,39.4800,89,97,154952
2.0088,0.2395,39.4100,89,97,154955
1.8671,0.2493,39.4400,89,97,154959
1.7742,0.2395,39.5100,89,97,154962
1.8182,0.2346,39.4400,89,97,154966
1.9257,0.2053,39.4800,89,97,154970
2.0674,0.2102,39.3200,89,97,154973
2.0381,0.2395,39.4100,89,97,154976
1.9208,0.2444,39.5100,89,97,154980
1.8671,0.2444,39.4800,89,97,154983
1.9062,0.2199,39.5100,89,97,154986
2.0870,0.2102,39.2500,89,97,154989
2.1359,0.2151,39.4800,89,97,154993
2.1065,0.2395,39.5400,89,97,154996
1.9941,0.2493,39.4800,89,97,154999
1.8915,0.2346,39.5100,89,97,155003
1.9844,0.2297,39.2500,89,97,155006
2.0577,0.2102,39.5700,89,97,155010
2.1163,0.2151,39.4800,89,97,155014
2.0626,0.2395,39.5100,89,97,155017
1.8866,0.2444,39.5400,89,97,155020
1.8280,0.2346,39.3500,89,97,155024
1.8328,0.2199,39.4400,89,97,155027
1.9159,0.2053,39.4100,89,97,155030
1.9404,0.2199,39.5100,89,97,155034
1.8475,0.2395,39.5400,89,97,155037
1.7204,0.2542,39.3500,89,97,155040
1.6276,0.2248,39.5100,89,97,155043
1.7009,0.2199,39.3500,89,97,155047
1.7889,0.2053,39.5400,89,97,155051
1.8426,0.2248,39.5100,89,97,155054
1.7693,0.2444,39.4800,89,97,155058
1.6325,0.2493,39.5100,89,97,155061
1.6129,0.2297,39.3500,89,97,155064
1.6667,0.2102,39.5400,89,97,155068
1.7937,0.2151,39.5700,89,97,155071
1.8817,0.2346,39.4400,89,97,155074
1.7644,0.2395,39.5700,89,97,155078
1.6813,0.2444,39.2800,89,97,155081
1.6325,0.2346,39.4100,89,97,155084
1.7058,0.2053,39.5400,89,97,155087
1.8573,0.2102,39.5100,89,97,155091
1.9062,0.2248,39.3800,89,97,155095
1.9648,0.2542,39.2200,89,97,155098
1.8866,0.2346,39.3800,89,97,155102
2.0430,0.2102,39.4800,89,97,155105
2.3021,0.2053,39.4800,89,97,155108
2.5367,0.2004,39.5100,89,97,155112
2.7517,0.2444,39.3500,89,97,155115
2.6051,0.2444,39.5700,89,97,155118
2.4340,0.2346,39.4400,89,97,155122
2.2630,0.2248,39.5400,89,97,155125
2.1652,0.2004,39.4800,89,97,155128
2.1163,0.2151,39.3200,89,97,155131
1.9306,0.2297,39.5100,89,97,155136
1.7058,0.2297,39.3800,89,97,155139
1.4956,0.2346,39.5100,89,97,155142
1.4614,0.2199,39.5100,89,97,155146
1.5885,0.2151,39.4800,89,97,155149
1.6813,0.2151,39.5700,89,97,155152
1.7400,0.2346,39.3800,89,97,155156
1.5689,0.2395,39.5700,89,97,155159
1.4858,0.2395,39.5700,89,97,155162
1.5347,0.2248,39.3500,89,97,155166
1.6422,0.2004,39.5100,89,97,155169
1.7889,0.2151,39.3200,89,97,155172
1.7595,0.2248,39.4100,89,97,155176
1.6422,0.2297,39.5100,89,97,155180
1.5689,0.2346,39.5100,89,97,155183
1.5982,0.2151,39.5100,89,97,155186
1.7693,0.2102,39.2800,89,97,155190
1.8280,0.2102,39.5700,89,97,155193
1.7986,0.2297,39.4800,89,97,155196
1.6813,0.2395,39.4800,89,97,155200
1.6129,0.2297,39.4800,89,97,155203
1.7058,0.2346,39.3200,89,97,155206
1.7937,0.2053,39.5400,89,97,155210
1.8866,0.2151,39.5100,89,97,155213
1.8328,0.2297,39.4800,89,97,155216
1.7058,0.2395,39.4800,89,97,155220
1.6764,0.2444,39.4400,89,97,155224
1.7204,0.2151,39.4800,89,97,155227
1.8622,0.2004,39.3500,89,97,155231
1.9159,0.2151,39.4800,89,97,155234
1.8524,0.2346,39.5100,89,97,155237
1.7546,0.2493,39.4100,89,97,155240
1.6813,0.2102,39.5100,89,97,155244
1.7889,0.2102,39.3800,89,97,155247
1.8866,0.1955,39.4800,89,97,155250
1.9550,0.2199,39.4800,89,97,155254
1.8915,0.2444,39.4400,89,97,155257
1.7546,0.2346,39.5400,89,97,155260
1.7498,0.2346,39.3200,89,97,155265
1.8035,0.2053,39.5700,89,97,155268
1.9306,0.2004,39.5100,89,97,155271
1.9990,0.2248,39.5100,89,97,155275
1.9110,0.2395,39.4800,89,97,155278
1.8280,0.2444,39.3200,89,97,155281
1.7840,0.2248,39.4400,89,97,155285
1.8671,0.1955,39.5100,89,97,155288
2.0088,0.2053,39.4800,89,97,155291
2.0381,0.2199,39.5100,89,97,155294
1.9990,0.2590,39.3800,89,97,155298
1.8524,0.2444,39.3800,89,97,155301
1.8377,0.2151,39.4100,89,97,155304
1.9404,0.2004,39.5400,89,97,155309
2.0723,0.2004,39.5400,89,97,155312
2.1505,0.2346,39.3500,89,97,155315
2.0479,0.2493,39.5100,89,97,155319
1.9208,0.2346,39.4100,89,97,155322
1.9110,0.2199,39.5100,89,97,155325
2.0235,0.2004,39.5400,89,97,155328
2.1652,0.2639,39.4400,89,97,155332
2.1701,0.2248,39.5100,89,97,155335
2.0723,0.2444,39.3500,89,97,155338
1.9404,0.2346,39.5100,89,97,155342
1.9550,0.2151,39.5100,89,97,155345
2.0919,0.2102,39.5400,89,97,155348
2.1701,0.2248,39.5100,89,97,155353
2.1896,0.2248,39.3800,89,97,155356
2.0332,0.2346,39.4400,89,97,155359
1.9257,0.2395,39.5100,89,97,155363
1.9648,0.2199,39.4800,89,97,155366
2.0381,0.1955,39.5100,89,97,155369
2.1603,0.2151,38.4000,89,97,155373
2.0821,0.2346,39.4400,89,97,155376
1.9159,0.2346,39.5100,89,97,155379
1.8084,0.2297,39.5100,89,97,155382
1.8231,0.2151,39.5400,89,97,155386
1.9599,0.1906,39.2200,89,97,155389
1.9746,0.2102,39.4800,89,97,155393
1.9110,0.2248,39.4800,89,97,155397
1.7693,0.2395,39.5100,89,97,155400
1.6667,0.2297,39.4800,89,97,155403
1.7498,0.2199,39.3500,89,97,155407
1.8182,0.2004,39.4800,89,97,155410
1.8768,0.2151,39.4400,89,97,155413
1.8035,0.2688,39.5100,89,97,155417
1.6618,0.2346,39.5400,89,97,155420
1.6325,0.2297,39.3800,89,97,155423
1.6667,0.2395,39.3800,89,97,155427
1.6080,0.2199,39.4800,89,97,155430
1.7107,0.2053,39.2500,89,97,155435
1.8182,0.1955,39.4800,89,97,155438
1.8622,0.2053,39.5100,89,97,155441
1.7840,0.2395,39.4400,89,97,155444
1.6569,0.2297,39.4800,89,97,155448
1.6618,0.2297,39.2500,89,97,155451
1.7058,0.2053,39.4800,89,97,155454
1.8328,0.1955,39.4800,89,97,155458
1.8866,0.2248,39.4800,89,97,155461
1.7840,0.2590,39.6400,89,97,155464
1.7302,0.2493,39.2500,89,97,155468
1.6716,0.2248,39.4100,89,97,155471
1.7498,0.1955,39.3800,89,97,155474
1.8817,0.2004,39.4800,89,97,155479
1.9013,0.2199,39.5100,89,97,155482
1.8328,0.2444,39.3200,89,97,155485
1.6960,0.2346,39.4400,89,97,155489
1.7009,0.2151,39.3500,89,97,155492
1.7889,0.1955,39.5400,89,97,155495
1.9062,0.2004,39.4800,89,97,155498
1.9599,0.2346,39.3500,89,97,155502
1.8035,0.2297,39.5100,89,97,155505
1.7253,0.2395,39.3500,89,97,155508
1.7107,0.2102,39.5400,89,97,155512
1.8231,0.1955,39.5100,89,97,155515
1.9453,0.2053,39.4800,89,97,155518
1.9306,0.2248,39.5400,89,97,155523
1.8328,0.2395,39.3500,89,97,155526
1.7107,0.2248,39.5400,89,97,155529
1.7400,0.2151,39.4800,89,97,155533
1.8719,0.2053,39.4100,89,97,155536
1.9599,0.2053,39.5400,89,97,155539
1.9795,0.2346,39.3200,89,97,155542
1.8328,0.2346,39.4100,89,97,155546
1.7253,0.2248,39.5700,89,97,155549
1.7742,0.2199,39.4400,89,97,155552
1.8915,0.1955,39.5100,89,97,155556
2.0283,0.2102,39.2200,89,97,155559
1.9404,0.2346,39.3500,89,97,155563
1.7937,0.2346,39.5100,89,97,155567
1.7204,0.2297,39.5700,89,97,155570
1.7595,0.2053,39.4800,89,97,155573
1.9306,0.2102,39.3500,89,97,155577
1.9697,0.2444,39.4400,89,97,155580
1.9257,0.2346,39.4400,89,97,155583
1.7791,0.2346,39.5400,89,97,155586
1.7058,0.2199,39.5100,89,97,155590
1.7937,0.2151,39.4400,89,97,155593
1.8964,0.1955,39.5400,89,97,155596
1.9892,0.2151,39.3800,89,97,155600
1.9013,0.2297,39.5100,89,97,155603
1.7840,0.2297,39.6000,89,97,155607
1.7742,0.2199,39.3800,89,97,155611
1.8231,0.2053,39.4800,89,97,155614
1.9795,0.1955,39.3800,89,97,155617
2.0283,0.2151,39.4100,89,97,155621
1.9599,0.2346,39.5100,89,97,155624
1.8671,0.2395,39.2800,89,97,155627
1.8133,0.2199,39.5100,89,97,155631
1.9550,0.2053,39.2800,89,97,155634
2.0674,0.2004,39.4800,89,97,155637
2.1163,0.2151,39.5100,89,97,155640
2.0577,0.2444,39.4800,89,97,155644
1.9257,0.2297,39.5100,89,97,155648
1.9404,0.2297,39.2200,89,97,155651
1.9844,0.1906,39.4800,89,97,155655
2.0919,0.1955,39.4800,89,97,155658
2.1212,0.2199,39.4800,89,97,155661
2.0283,0.2346,39.5700,89,97,155665
1.9306,0.2493,39.3200,89,97,155668
1.8622,0.2248,39.4400,89,97,155671
1.9257,0.2053,39.5100,89,97,155675
2.0137,0.2053,39.5400,89,97,155678
2.0039,0.2248,39.4800,89,97,155681
1.8866,0.2444,39.3500,89,97,155684
1.7400,0.2346,39.5100,89,97,155688
1.6960,0.2199,39.3800,89,97,155692
1.7546,0.1955,39.5100,89,97,155695
1.8573,0.2004,39.5400,89,97,155699
1.8768,0.2297,39.3500,89,97,155702
1.7302,0.2346,39.5100,89,97,155705
1.6422,0.2395,39.4100,89,97,155709
1.6178,0.2151,39.5100,89,97,155712
1.7253,0.1955,39.5100,89,97,155715
1.8377,0.2053,39.4800,89,97,155719
1.8182,0.2248,39.5100,89,97,155722
1.7253,0.2346,39.3200,89,97,155725
1.6080,0.2297,39.4800,89,97,155729
1.6325,0.2053,39.5700,89,97,155732
1.7644,0.2053,39.4400,89,97,155736
1.8426,0.1906,39.4800,89,97,155739
1.8719,0.2346,39.2800,89,97,155743
1.7253,0.2346,39.4400,89,97,155746
1.6569,0.2248,39.5700,89,97,155749
1.7889,0.2151,39.4800,89,97,155753
2.0235,0.1955,39.5100,89,97,155756
2.3460,0.2297,39.2200,89,97,155759
2.4389,0.2395,39.4100,89,97,155763
2.4389,0.2199,39.4400,89,97,155766
2.4389,0.2248,39.5700,89,97,155769
2.4682,0.2053,39.5100,89,97,155773
2.5415,0.2004,39.3800,89,97,155777
2.4047,0.2102,39.4800,89,97,155780
2.1799,0.2346,39.4400,89,97,155783
1.8622,0.2297,39.5100,89,97,155787
1.6667,0.2248,39.5100,89,97,155790
1.5787,0.2102,39.4400,89,97,155793
1.6178,0.1906,39.5100,89,97,155797
1.6911,0.2199,39.3800,89,97,155800
1.6129,0.2346,39.5100,89,97,155803
1.5152,0.2297,39.5100,89,97,155807
1.5103,0.2297,39.4100,89,97,155810
1.5396,0.2004,39.4800,89,97,155813
1.6862,0.1955,39.3200,89,97,155817
1.7400,0.2151,39.3800,89,97,155821
1.6716,0.2346,39.5700,89,97,155824
1.5787,0.2493,39.3800,89,97,155828
1.5640,0.2199,39.5100,89,97,155831
1.6618,0.2004,39.2800,89,97,155834
1.7595,0.1906,39.4400,89,97,155837
1.8035,0.2151,39.4800,89,97,155841
1.7302,0.2297,39.4400,89,97,155844
1.6080,0.2346,39.5100,89,97,155847
1.6325,0.2297,39.2800,89,97,155851
1.6813,0.2004,39.4400,89,97,155854
1.8328,0.1955,39.4800,89,97,155857
1.8426,0.2199,39.5100,89,97,155862
1.7449,0.2346,39.5100,89,97,155865
1.6764,0.2493,39.3500,89,97,155868
1.6422,0.2199,39.4800,89,97,155872
1.7546,0.2053,39.3800,89,97,155875
1.8622,0.1906,39.5100,89,97,155878
1.8817,0.1906,39.5100,89,97,155881
1.8084,0.2688,39.3500,89,97,155885
1.6813,0.2297,39.4800,89,97,155888
1.7009,0.2199,39.3800,89,97,155891
1.7889,0.1955,39.5100,89,97,155895
1.9062,0.2102,39.5100,89,97,155898
1.9453,0.2102,39.3800,89,97,155901
1.8035,0.2346,39.7700,89,97,155906
1.7351,0.2346,39.3500,89,97,155909
1.7302,0.2102,39.4800,89,97,155912
1.8475,0.1955,39.4800,89,97,155916
1.9697,0.2102,39.4800,89,97,155919
1.9501,0.2248,39.5100,89,97,155922
1.8768,0.2297,39.2500,89,97,155926
1.7449,0.2248,39.5100,89,97,155929
1.7840,0.2102,39.5100,89,97,155932
1.9110,0.1955,39.4800,89,97,155935
2.0088,0.2102,39.5400,89,97,155939
2.0381,0.2590,39.2200,89,97,155942
1.8915,0.2395,39.4800,89,97,155945
1.7937,0.2199,39.4800,89,97,155950
1.8622,0.2102,39.4400,89,97,155953
1.9844,0.1906,39.5100,89,97,155956
2.1457,0.2248,39.3500,89,97,155960
2.0772,0.2395,39.4100,89,97,155963
1.9501,0.2346,39.4100,89,97,155966
1.8719,0.2297,39.5100,89,97,155970
1.9453,0.2004,39.5100,89,97,155973
2.1017,0.2004,39.3800,89,97,155976
2.1505,0.2151,39.5400,89,97,155979
2.1261,0.2346,39.3800,89,97,155983
1.9697,0.2542,39.5100,89,97,155986
1.9159,0.2199,39.5700,89,97,155990
1.9941,0.2053,39.5400,89,97,155994
2.1114,0.1906,39.6000,89,97,155997
2.2190,0.2151,39.4100,89,97,156000
2.1114,0.2346,39.5400,89,97,156004
1.9746,0.2297,39.4800,89,97,156007
1.9355,0.2102,39.4100,89,97,156010
1.9795,0.2004,39.5400,89,97,156014
2.1261,0.2004,39.3200,89,97,156017
2.1457,0.2151,39.4100,89,97,156020
2.0332,0.2395,39.5100,89,97,156023
1.9159,0.2395,39.3800,89,97,156027
1.8524,0.2151,39.5100,89,97,156030
1.9404,0.2102,39.2200,89,97,156034
1.7546,0.2297,39.3800,89,97,156038
1.7742,0.2004,39.4800,89,97,156041
1.8866,0.1906,39.4100,89,97,156045
1.8768,0.2199,39.4800,89,97,156048
1.7742,0.2346,39.5400,89,97,156051
1.6569,0.2395,39.4400,89,97,156055
1.6276,0.2199,39.4800,89,97,156058
1.7400,0.2004,39.3800,89,97,156061
1.8280,0.2248,39.5100,89,97,156065
1.8524,0.2199,39.5400,89,97,156068
1.7449,0.2444,39.5100,89,97,156071
1.6129,0.2297,39.5100,89,97,156076
1.6422,0.2151,39.3800,89,97,156079
1.7253,0.2248,39.4100,89,97,156082
1.8377,0.2053,39.5100,89,97,156085
1.8573,0.2346,39.6400,89,97,156089
1.7107,0.2297,39.5400,89,97,156092
1.6520,0.2346,39.2800,89,97,156095
1.6471,0.2151,39.4400,89,97,156099
1.7546,0.1906,39.2800,89,97,156102
1.8671,0.2053,39.5700,89,97,156105
1.8328,0.2248,39.6400,89,97,156109
1.7595,0.2444,39.2800,89,97,156112
1.6325,0.2199,39.4400,89,97,156115
1.6716,0.1906,39.5100,89,97,156120
1.7986,0.2004,39.4800,89,97,156123
1.8817,0.2053,39.4100,89,97,156126
1.9013,0.2639,39.3200,89,97,156130
1.7400,0.2395,39.4400,89,97,156133
1.6618,0.2248,39.4800,89,97,156136
1.7058,0.2102,39.4800,89,97,156139
1.8328,0.1906,39.5100,89,97,156143
1.9550,0.2199,39.3500,89,97,156146
1.8719,0.2346,39.4800,89,97,156149
1.7595,0.2297,39.3800,89,97,156153
1.6764,0.2297,39.5700,89,97,156156
1.7400,0.2053,39.5100,89,97,156160
1.9110,0.2102,39.4400,89,97,156164
1.9453,0.2151,39.5100,89,97,156167
1.9110,0.2346,39.3800,89,97,156170
1.7498,0.2248,39.5100,89,97,156174
1.6960,0.2199,39.3500,89,97,156177
1.7791,0.2102,39.4400,89,97,156180
1.8964,0.2444,39.5100,89,97,156183
1.9844,0.2151,39.3200,89,97,156187
1.8719,0.2346,39.5400,89,97,156190
1.7791,0.2346,39.4800,89,97,156193
1.7351,0.2297,39.7300,89,97,156197
1.7937,0.2004,39.4800,89,97,156200
1.9648,0.2151,39.2500,89,97,156204
1.9795,0.2248,39.4400,89,97,156208
1.8719,0.2297,39.5400,89,97,156211
1.7546,0.2346,39.4800,89,97,156214
1.7204,0.2151,39.5700,89,97,156218
1.8622,0.2199,39.2200,89,97,156221
1.9550,0.2102,39.4100,89,97,156224
1.9648,0.2151,39.4100,89,97,156228
1.8524,0.2346,39.5100,89,97,156231
1.7302,0.2346,39.5100,89,97,156234
1.7498,0.2248,39.3800,89,97,156237
1.8182,0.2004,39.4800,89,97,156241
1.9501,0.2004,39.3800,89,97,156244
1.9404,0.2297,39.5700,89,97,156248
1.8280,0.2297,39.5100,89,97,156252
1.7302,0.2297,39.4400,89,97,156255
1.7204,0.2151,39.4800,89,97,156258
1.8475,0.1906,39.4100,89,97,156262
1.9306,0.2004,39.5700,89,97,156265
1.9355,0.2199,39.5700,89,97,156268
1.8475,0.2444,39.3800,89,97,156272
1.7155,0.2297,39.6000,89,97,156275
1.7595,0.2102,39.2800,89,97,156278
1.8671,0.1906,39.4100,89,97,156281
1.9795,0.2297,39.5100,89,97,156285
2.0088,0.2395,39.4400,89,97,156289
1.8719,0.2346,39.5100,89,97,156292
1.8426,0.2346,39.2500,89,97,156296
1.8524,0.2102,39.4400,89,97,156299
1.9697,0.1955,39.4800,89,97,156302
2.0870,0.2297,39.4800,89,97,156306
2.0674,0.2248,39.5100,89,97,156309
2.0137,0.2493,39.2500,89,97,156312
1.8817,0.2199,39.4100,89,97,156316
1.9306,0.2053,39.4800,89,97,156319
2.0479,0.1955,39.5100,89,97,156322
2.1212,0.2102,39.5400,89,97,156325
2.1212,0.2493,39.3200,89,97,156329
1.9355,0.2395,39.4800,89,97,156333
1.8573,0.2248,39.4100,89,97,156336
1.8817,0.2102,39.5100,89,97,156340
1.9844,0.1906,39.5100,89,97,156343
2.0723,0.2199,39.3500,89,97,156346
1.9550,0.2395,39.4800,89,97,156350
1.8084,0.2395,39.4400,89,97,156353
1.6862,0.2248,39.6400,89,97,156356
1.7155,0.2053,39.5400,89,97,156360
1.8426,0.1955,39.4100,89,97,156363
1.8768,0.2151,39.5400,89,97,156366
1.8231,0.2346,39.3800,89,97,156369
1.6520,0.2346,39.4800,89,97,156374
1.6031,0.2248,39.5400,89,97,156377
1.6716,0.2053,39.5400,89,97,156380
1.7742,0.1955,39.5100,89,97,156384
1.8671,0.2199,39.2800,89,97,156387
1.7498,0.2297,39.5400,89,97,156390
1.6325,0.2346,39.5700,89,97,156394
1.6129,0.2248,39.4800,89,97,156397
1.6813,0.2297,39.4800,89,97,156400
1.8524,0.2151,39.2500,89,97,156404
1.8964,0.2151,39.4400,89,97,156407
1.7546,0.2297,39.4800,89,97,156410
1.6471,0.2395,39.4400,89,97,156414
1.6471,0.2199,39.6400,89,97,156418
1.8573,0.2151,39.2800,89,97,156421
2.0577,0.2004,39.4400,89,97,156425
2.2336,0.2297,39.4100,89,97,156428
2.2874,0.2346,39.5100,89,97,156431
2.3216,0.2297,39.5100,89,97,156434
2.4340,0.2297,39.3500,89,97,156438
2.4878,0.2004,39.3200,89,97,156441
2.5367,0.2004,39.3800,89,97,156444
2.3656,0.2248,39.6700,89,97,156448
2.1114,0.2346,39.5100,89,97,156451
1.8133,0.2346,39.5100,89,97,156454
1.6422,0.2151,39.5100,89,97,156459
1.6422,0.1906,39.3800,89,97,156462
1.6373,0.2004,39.5100,89,97,156465
1.6178,0.2248,39.6400,89,97,156469
1.5347,0.2395,39.4400,89,97,156472
1.4418,0.2395,39.5100,89,97,156475
1.5054,0.2199,39.3200,89,97,156478
1.6031,0.1906,39.4100,89,97,156482
1.7155,0.2053,39.5100,89,97,156485
1.7351,0.2346,39.4400,89,97,156488
1.6080,0.2346,39.4400,89,97,156492
1.5689,0.2395,39.2500,89,97,156495
1.5787,0.2151,39.4100,89,97,156498
1.7009,0.2053,39.5700,89,97,156503
1.8035,0.2053,39.4800,89,97,156506
1.7840,0.2297,39.5100,89,97,156509
1.7058,0.2590,39.2200,89,97,156513
1.6080,0.2346,39.4800,89,97,156516
1.6325,0.1906,39.4400,89,97,156519
1.7498,0.1955,39.5100,89,97,156522
1.8377,0.2102,39.4800,89,97,156526
1.8328,0.2493,39.3800,89,97,156529
1.6813,0.2395,39.4100,89,97,156532
1.6325,0.2297,39.3800,89,97,156536
1.6764,0.2053,39.4800,89,97,156539
1.8035,0.1955,39.4800,89,97,156542
1.9159,0.2248,39.3800,89,97,156547
1.8377,0.2297,39.5100,89,97,156550
1.7351,0.2444,39.3800,89,97,156553
1.6618,0.2199,39.4800,89,97,156557
1.7302,0.2053,39.5100,89,97,156560
1.8768,0.2004,39.3500,89,97,156563
1.9257,0.2151,39.4800,89,97,156567
1.9159,0.2444,39.3200,89,97,156570
1.7351,0.2297,39.4100,89,97,156573
1.6862,0.2199,39.5100,89,97,156576
1.7937,0.2053,39.4800,89,97,156580
1.9110,0.1955,39.5100,89,97,156583
2.0186,0.2297,39.2800,89,97,156587
1.8866,0.2444,39.5100,89,97,156591
1.7742,0.2297,39.5100,89,97,156594
1.7498,0.2297,39.5100,89,97,156597
1.8377,0.1906,39.5100,89,97,156601
2.0235,0.1906,39.2800,89,97,156604
2.0235,0.2248,39.4800,89,97,156607
1.9257,0.2346,39.4100,89,97,156611
1.8182,0.2346,39.5100,89,97,156614
1.8035,0.2199,39.4800,89,97,156617
1.9453,0.2248,39.3200,89,97,156621
2.0479,0.2053,39.4800,89,97,156624
2.0870,0.2248,39.4100,89,97,156627
1.9746,0.2346,39.4800,89,97,156631
1.8768,0.2346,39.5100,89,97,156635
1.9013,0.2248,39.3500,89,97,156638
1.9795,0.2004,39.5100,89,97,156641
2.1310,0.2102,39.1600,89,97,156645
2.1163,0.2590,39.5100,90,97,156648
2.1261,0.1955,39.5100,90,97,156652
2.1212,0.2297,39.5100,90,97,156655
2.0088,0.2444,39.5100,90,97,156658
1.8964,0.2346,39.4800,90,97,156662
1.9599,0.2248,38.3600,90,97,156665
2.0381,0.2053,39.3500,90,97,156668
2.1163,0.2053,39.5400,90,97,156672
2.0870,0.2639,39.5100,90,97,156676
1.9648,0.2346,39.5400,90,97,156679
1.8768,0.2493,39.2500,90,97,156682
1.8622,0.2199,39.3800,90,97,156686
1.9501,0.1955,39.4400,90,97,156689
2.0088,0.2102,39.5100,90,97,156692
1.9501,0.2346,39.5100,90,97,156696
1.8475,0.2542,39.3500,90,97,156699
1.7155,0.2297,39.4800,90,97,156702
1.7546,0.2102,39.2800,90,97,156706
1.8377,0.1955,39.5100,90,97,156709
1.9306,0.2151,39.4800,90,97,156712
1.8573,0.2444,39.4400,90,97,156717
1.6960,0.2444,39.5100,90,97,156720
1.6520,0.2346,39.3800,90,97,156723
1.6764,0.2004,39.5100,90,97,156726
1.7937,0.1955,39.5100,90,97,156730
1.8817,0.2346,39.3800,90,97,156733
1.7840,0.2395,39.5100,90,97,156736
1.6716,0.2395,39.3200,90,97,156740
1.6031,0.2248,39.4100,90,97,156743
1.6667,0.2053,39.4800,90,97,156746
1.8084,0.2102,39.3800,90,97,156750
1.8475,0.2199,39.4100,90,97,156753
1.8035,0.2395,39.2500,90,97,156756
1.6667,0.2395,39.4400,90,97,156761
1.6178,0.2248,39.5100,90,97,156764
1.7058,0.1906,39.4800,90,97,156767
1.8231,0.2004,39.5100,90,97,156770
1.9257,0.2346,39.2200,90,97,156774
1.7840,0.2444,39.4800,90,97,156777
1.6569,0.2297,39.4800,90,97,156780
1.6422,0.2248,39.5100,90,97,156784
1.7253,0.2004,39.4800,90,97,156787
1.8964,0.2248,39.3800,90,97,156790
1.8964,0.2297,39.4400,90,97,156794
1.7986,0.2395,39.4100,90,97,156797
1.6813,0.2297,39.4800,90,97,156801
1.6716,0.2199,39.5100,90,97,156805
1.8426,0.2151,39.3500,90,97,156808
1.9013,0.2053,39.4800,90,97,156811
1.9453,0.2297,39.3800,90,97,156815
1.8084,0.2346,39.5100,90,97,156818
1.7009,0.2346,39.5100,90,97,156821
1.7351,0.2248,39.4100,90,97,156824
1.8328,0.2053,39.5100,90,97,156828
1.9501,0.2053,39.4400,90,97,156831
1.9159,0.2248,39.4400,90,97,156834
1.8035,0.2639,39.5100,90,97,156838
1.7204,0.2346,39.4400,90,97,156841
1.7204,0.2151,39.5100,90,97,156845
1.8671,0.2053,39.2800,90,97,156849
1.9355,0.2151,39.5700,90,97,156852
1.9208,0.2102,39.5100,90,97,156855
1.8084,0.2444,39.3500,90,97,156859
1.6960,0.2297,39.5100,90,97,156862
1.7742,0.2248,39.2200,90,97,156865
1.8622,0.2053,39.5400,90,97,156868
1.9453,0.2053,39.5100,90,97,156872
1.9599,0.2346,39.5100,90,97,156875
1.7889,0.2346,39.5100,90,97,156878
1.7595,0.2688,39.3200,90,97,156882
1.7644,0.2199,39.4400,90,97,156886
1.8671,0.1955,39.5100,90,97,156889
1.9453,0.2102,39.4800,90,97,156893
1.8964,0.2542,39.5100,90,97,156896
1.7937,0.2493,39.2500,90,97,156899
1.7302,0.2199,39.5100,90,97,156903
1.7693,0.2102,39.3800,90,97,156906
1.8719,0.1955,39.5100,90,97,156909
1.9453,0.2151,39.5100,90,97,156913
1.9062,0.2346,39.4400,90,97,156916
1.7595,0.2395,39.5100,90,97,156919
1.7253,0.2639,39.4100,90,97,156922
1.7644,0.2053,39.4800,90,97,156926
1.8817,0.1906,39.5100,90,97,156930
1.9795,0.2248,39.4100,90,97,156933
1.8817,0.2346,39.5700,90,97,156937
1.7889,0.2395,39.2800,90,97,156940
1.7351,0.2248,39.3800,90,97,156943
1.8133,0.2102,39.5100,90,97,156947
1.9746,0.2102,39.4400,90,97,156950
2.0088,0.2199,39.5100,90,97,156953
1.9844,0.2493,39.2800,90,97,156957
1.8280,0.2395,39.4100,90,97,156960
1.8035,0.2199,39.5100,90,97,156963
1.9110,0.2151,39.4800,90,97,156967
2.0430,0.2004,39.5100,90,97,156971
2.1554,0.2395,39.2800,90,97,156974
2.0186,0.2444,39.6000,90,97,156977
1.9013,0.2346,39.4100,90,97,156981
1.8915,0.2248,39.5100,90,97,156984
1.9746,0.2004,39.5100,90,97,156987
2.1359,0.2151,39.3800,90,97,156991
2.1212,0.2297,39.6400,90,97,156994
2.0137,0.2493,39.4400,90,97,156997
1.8671,0.2346,39.5700,90,97,157001
1.8671,0.2199,39.5100,90,97,157004
1.9453,0.2102,39.3500,90,97,157007
1.9990,0.2053,39.4800,90,97,157011
1.9941,0.2346,39.4100,90,97,157015
1.8133,0.2248,39.4800,90,97,157018
1.6813,0.2346,39.5700,90,97,157021
1.6813,0.2248,39.3800,90,97,157025
1.7498,0.2004,39.5100,90,97,157028
1.8768,0.2053,39.3500,90,97,157031
1.8328,0.2297,39.4800,90,97,157035
1.6911,0.2395,39.5100,90,97,157038
1.6080,0.2395,39.4100,90,97,157041
1.6129,0.2199,39.5400,90,97,157045
1.7595,0.2151,39.3200,90,97,157048
1.8280,0.1906,39.4800,90,97,157051
1.8035,0.2297,39.5100,90,97,157056
1.6911,0.2395,39.5700,90,97,157059
1.5982,0.2297,39.6000,90,97,157062
1.6764,0.2297,39.2200,90,97,157066
1.7546,0.2004,39.4100,90,97,157069
1.8328,0.2053,39.5100,90,97,157072
1.8084,0.2297,39.4800,90,97,157075
1.7009,0.2395,39.4800,90,97,157079
1.7498,0.2346,39.3200,90,97,157082
1.8622,0.2151,39.4800,90,97,157085
2.1212,0.2004,39.4100,90,97,157089
2.3412,0.2199,39.4800,90,97,157092
2.4438,0.2346,39.5100,90,97,157095
2.4536,0.2493,39.2800,90,97,157100
2.3656,0.2297,39.4800,90,97,157103
2.3656,0.2151,39.3800,90,97,157106
2.2972,0.2004,39.6700,90,97,157110
2.1896,0.2151,39.5100,90,97,157113
1.9795,0.2444,39.4400,90,97,157116
1.7058,0.2395,39.5100,90,97,157119
1.5543,0.2248,39.3500,90,97,157123
1.5054,0.2102,39.5100,90,97,157126
1.5836,0.2004,39.5100,90,97,157129
1.6520,0.2248,39.4400,90,97,157133
1.5738,0.2444,39.4800,90,97,157136
1.5005,0.2444,39.3800,90,97,157139
1.4614,0.2297,39.4100,90,97,157144
1.5396,0.2004,39.5100,90,97,157147
1.7204,0.2102,39.4100,90,97,157150
1.7449,0.2199,39.5100,90,97,157154
1.7351,0.2493,39.0300,90,97,157157
1.5934,0.2395,39.3800,90,97,157160
1.5640,0.2199,39.5100,90,97,157163
1.6520,0.2053,39.5100,90,97,157167
1.7742,0.2004,39.3500,90,97,157170
1.8671,0.2395,39.2800,90,97,157173
1.7302,0.2444,39.4800,90,97,157177
1.6276,0.2346,39.3800,90,97,157180
1.6373,0.2102,39.5100,90,97,157184
1.7058,0.2004,39.5400,90,97,157188
1.8622,0.2151,39.4400,90,97,157191
1.8622,0.2248,39.4800,90,97,157194
1.8133,0.2395,39.3800,90,97,157198
1.6471,0.2444,39.5100,90,97,157201
1.6471,0.2199,39.5400,90,97,157204
1.7791,0.2151,39.3800,90,97,157208
1.8768,0.2053,39.5100,90,97,157211
1.9110,0.2297,39.3800,90,97,157214
1.7742,0.2395,39.4400,90,97,157217
1.6813,0.2346,39.5100,90,97,157221
1.7204,0.2248,39.3200,90,97,157224
1.8084,0.2004,39.5400,90,97,157228
1.9550,0.2102,39.3200,90,97,157232
1.9208,0.2346,38.5800,90,97,157235
1.7937,0.2444,39.5100,90,97,157238
1.7107,0.2395,39.4800,90,97,157242
1.7302,0.2151,39.4800,90,97,157245
1.9013,0.2102,39.2500,90,97,157248
1.9599,0.2004,39.4800,90,97,157252
1.9453,0.2297,39.5100,90,97,157255
1.8328,0.2493,39.4800,90,97,157258
1.9648,0.2346,39.5100,90,97,157262
1.8377,0.2590,39.5100,90,97,157265
1.8084,0.2297,39.3200,90,97,157270
1.8573,0.2151,39.4400,90,97,157273
2.0039,0.2444,39.3800,90,97,157276
2.0577,0.2151,39.5400,90,97,157279
2.0088,0.2395,39.5400,90,97,157283
1.9110,0.2444,39.3800,90,97,157286
1.8377,0.2297,39.4800,90,97,157289
1.9355,0.2248,39.3800,90,97,157293
2.0430,0.2004,39.4400,90,97,157296
2.1114,0.2151,39.5100,90,97,157299
2.0577,0.2444,38.8400,90,97,157303
1.9159,0.2444,39.5100,90,97,157306
1.9062,0.2297,39.2800,90,97,157309
1.9453,0.1955,39.5700,90,97,157314
2.0723,0.2004,39.5100,90,97,157317
2.1212,0.2199,39.4800,90,97,157320
2.0283,0.2395,39.6000,90,97,157323
1.9501,0.2590,39.2200,90,97,157327
1.8817,0.2297,39.4400,90,97,157330
1.9404,0.2004,39.5100,90,97,157333
2.0577,0.2053,39.4800,90,97,157337
2.0723,0.2199,39.5100,90,97,157340
2.0235,0.2590,38.5800,90,97,157343
1.8524,0.2493,39.4400,90,97,157347
1.7889,0.2199,39.4100,90,97,157350
1.8573,0.2102,39.5100,90,97,157353
1.9550,0.2053,39.4800,90,97,157357
2.0039,0.2346,39.3800,90,97,157361
1.8524,0.2395,39.4800,90,97,157364
1.7302,0.2395,39.3800,90,97,157367
1.6813,0.2199,39.5100,90,97,157371
1.7644,0.2053,39.5100,90,97,157374
1.8866,0.2102,39.4400,90,97,157377
1.8768,0.2297,39.5100,90,97,157381
1.7791,0.2835,39.3800,90,97,157384
1.6373,0.2346,39.7300,90,97,157387
1.6325,0.2248,39.5100,90,97,157391
1.7498,0.2102,39.3800,90,97,157394
1.8426,0.2102,39.4800,90,97,157398
1.8671,0.2542,39.3800,90,97,157402
1.7302,0.2395,39.4100,90,97,157405
1.6276,0.2346,39.5400,90,97,157408
1.6667,0.2297,39.4100,90,97,157411
1.7449,0.2053,39.5100,90,97,157415
1.8964,0.2151,39.2500,90,97,157418
1.8524,0.2248,39.4100,90,97,157421
1.7253,0.2395,39.5400,90,97,157425
1.6373,0.2737,39.4800,90,97,157428
1.6618,0.2151,39.5400,90,97,157431
1.8231,0.2199,39.2500,90,97,157435
1.8719,0.2151,39.4400,90,97,157438
1.8475,0.2297,39.4400,90,97,157442
1.7204,0.2444,39.5400,90,97,157446
1.6422,0.2297,39.4100,90,97,157449
1.7253,0.2248,39.7000,90,97,157452
1.8231,0.2053,39.5100,90,97,157456
1.9257,0.2199,39.3800,90,97,157459
1.8671,0.2395,39.5100,90,97,157462
1.7400,0.2395,39.6000,90,97,157465
1.7058,0.2444,39.3200,90,97,157469
1.7400,0.2151,39.4800,90,97,157472
1.8915,0.1906,39.4100,90,97,157475
1.9404,0.2102,39.4800,90,97,157479
1.8817,0.2395,39.4400,90,97,157483
1.7742,0.2395,39.3800,90,97,157486
1.7009,0.2248,39.5100,90,97,157490
1.7937,0.2199,39.3500,90,97,157493
1.9062,0.2053,39.4400,90,97,157496
1.9697,0.1906,39.5100,90,97,157500
1.9062,0.2444,39.6400,90,97,157503
1.7693,0.2493,39.5100,90,97,157506
1.7546,0.2297,39.2500,90,97,157509
1.7937,0.2053,39.4800,90,97,157513
1.9208,0.2297,39.5400,90,97,157516
1.9844,0.2248,39.4800,90,97,157519
1.8817,0.2395,39.3800,90,97,157523
1.8182,0.2493,39.2500,90,97,157527
1.7449,0.2297,39.5100,90,97,157530
1.8084,0.2004,39.4400,90,97,157534
1.9355,0.2004,39.4800,90,97,157537
1.9648,0.2151,39.5100,90,97,157540
1.9110,0.2493,39.3800,90,97,157544
1.7644,0.2444,39.4400,90,97,157547
1.7449,0.2248,39.4100,90,97,157550
1.8231,0.2199,39.5100,90,97,157554
1.9404,0.2053,39.5100,90,97,157557
1.9941,0.2346,39.3500,90,97,157560
1.8573,0.2395,39.5400,90,97,157563
1.7595,0.2395,39.4400,90,97,157568
1.7253,0.2248,39.5100,90,97,157571
1.8231,0.2053,39.6000,90,97,157574
1.9453,0.2102,39.3800,90,97,157578
1.9501,0.2297,39.5100,90,97,157581
1.8622,0.2395,39.3800,90,97,157584
1.7400,0.2346,39.5100,90,97,157588
1.7595,0.2199,39.5400,90,97,157591
1.9013,0.2102,39.4100,90,97,157594
1.9990,0.2151,39.3500,90,97,157598
2.0381,0.2444,39.2800,90,97,157601
1.8964,0.2444,39.4100,90,97,157604
1.7986,0.2346,39.5400,90,97,157608
1.8475,0.2248,39.4400,90,97,157612
1.9599,0.2053,39.5100,90,97,157615
2.1310,0.2199,39.2200,90,97,157618
2.0870,0.2346,39.3800,90,97,157622
1.9697,0.2346,39.4800,90,97,157625
1.8817,0.2346,39.4800,90,97,157628
1.9208,0.2248,39.5100,90,97,157632
2.0919,0.2248,39.3500,90,97,157635
2.1310,0.2151,39.4800,90,97,157638
2.1017,0.2297,39.4100,90,97,157642
1.9453,0.2786,39.4800,90,97,157645
1.8524,0.2346,39.5700,90,97,157648
1.9110,0.2297,39.3800,90,97,157652
1.9941,0.2199,39.5700,90,97,157656
2.0674,0.2199,39.3500,90,97,157659
1.9550,0.2297,39.5100,90,97,157662
1.7889,0.2395,39.4800,90,97,157666
1.7155,0.2395,39.3800,90,97,157669
1.7155,0.2151,39.5100,90,97,157672
1.8377,0.2053,39.3800,90,97,157676
1.8622,0.2248,39.4400,90,97,157679
1.7937,0.2297,39.5100,90,97,157682
1.6716,0.2493,39.3500,90,97,157686
1.5982,0.2297,39.6700,90,97,157689
1.6911,0.2151,39.4800,90,97,157692
1.7840,0.2053,39.4100,90,97,157697
1.8377,0.2297,39.5100,90,97,157700
1.7693,0.2444,39.4800,90,97,157703
1.6373,0.2493,39.5100,90,97,157707
1.6471,0.2297,39.2500,90,97,157710
1.6813,0.2199,39.4400,90,97,157713
1.8084,0.2053,39.5700,90,97,157716
1.8671,0.2444,39.4800,90,97,157720
1.7693,0.2444,39.3500,90,97,157723
1.7058,0.2493,39.3200,90,97,157726
1.6764,0.2297,39.4400,90,97,157730
1.8475,0.2053,39.4100,90,97,157733
2.0919,0.2053,39.4800,90,97,157736
2.2727,0.2297,39.5100,90,97,157741
2.3949,0.2542,39.3500,90,97,157744
2.3900,0.2395,39.4400,90,97,157747
2.4536,0.2297,39.3800,90,97,157751
2.4878,0.2053,39.5100,90,97,157754
2.4829,0.2053,39.4800,90,97,157757
2.3558,0.2395,39.4100,90,97,157760
2.0332,0.2444,39.5100,90,97,157764
1.7937,0.2542,39.4100,90,97,157767
1.6080,0.2199,39.6000,90,97,157770
1.5934,0.2053,39.6000,90,97,157774
1.6471,0.2102,39.5700,90,97,157777
1.6227,0.2297,39.5400,90,97,157780
1.5591,0.2395,39.3500,90,97,157785
1.4418,0.2493,39.5100,90,97,157788
1.4712,0.2102,39.5100,90,97,157791
1.6031,0.2102,39.5700,90,97,157795
1.7107,0.2102,39.5400,90,97,157798
1.7595,0.2444,39.2500,90,97,157801
1.6325,0.2493,39.4400,90,97,157805
1.5347,0.2346,39.5100,90,97,157808
1.5787,0.2248,39.4800,90,97,157811
1.6862,0.2004,39.4800,90,97,157814
1.8475,0.2297,39.1900,90,97,157818
1.8035,0.2444,39.4400,90,97,157821
1.6716,0.2395,39.2800,90,97,157825
1.6129,0.2395,39.4800,90,97,157829
1.6422,0.2151,39.5100,90,97,157832
1.8035,0.2102,39.4400,90,97,157835
1.8671,0.2199,39.4800,90,97,157839
1.8426,0.2639,39.4400,90,97,157842
1.7009,0.2444,39.5100,90,97,157845
1.6422,0.2346,39.5100,90,97,157849
1.7058,0.2199,39.5700,90,97,157852
1.8182,0.2004,39.5100,90,97,157855
1.9306,0.2297,39.4800,90,97,157859
1.8573,0.2395,39.5100,90,97,157862
1.7302,0.2395,39.5100,90,97,157865
1.7009,0.2297,39.4100,89,97,157869
1.7644,0.2493,39.4800,89,97,157873
1.7058,0.2542,39.5100,89,97,157876
1.8475,0.2248,39.2200,89,97,157880
1.9453,0.2102,39.3800,89,97,157883
1.9892,0.2199,39.4800,89,97,157886
1.9013,0.2542,39.4800,89,97,157890
1.7742,0.2297,39.5400,89,97,157893
1.8133,0.2493,39.3200,89,97,157896
1.8671,0.2102,39.4800,89,97,157900
1.9990,0.2004,39.4400,89,97,157903
2.0332,0.2297,39.5100,89,97,157906
1.9306,0.2444,39.5400,89,97,157911
1.8524,0.2493,39.4100,89,97,157914
1.8182,0.2248,39.5100,89,97,157917
1.9453,0.2102,39.3800,89,97,157921
2.0430,0.2053,39.4800,89,97,157924
2.0723,0.2199,39.5100,89,97,157927
2.0088,0.2590,39.3800,89,97,157930
1.8768,0.2346,39.5400,89,97,157934
1.9110,0.2346,39.3800,89,97,157937
1.9941,0.2004,39.4400,89,97,157940
2.1163,0.2151,39.5100,89,97,157944
2.1457,0.2346,39.3800,89,97,157947
2.0137,0.2395,39.5100,89,97,157950
1.9355,0.2444,39.5100,89,97,157955
1.9599,0.2199,39.4800,89,97,157958
2.0381,0.2004,39.5100,89,97,157961
2.1408,0.2199,39.4800,89,97,157965
2.1163,0.2346,39.5400,89,97,157968
2.0479,0.2493,39.2500,89,97,157971
1.9062,0.2346,39.4800,89,97,157974
1.9306,0.2199,39.4400,89,97,157978
2.0430,0.2053,39.5100,89,97,157981
2.1212,0.2151,39.4800,89,97,157984
2.1457,0.2542,39.2800,89,97,157988
1.9550,0.2590,39.4400,89,97,157991
1.8475,0.2346,39.4100,89,97,157995
1.8573,0.2199,39.4400,89,97,157999
1.9501,0.1955,39.5100,89,97,158002
2.0626,0.2248,39.3200,89,97,158005
1.9795,0.2395,39.4400,89,97,158009
1.8280,0.2786,39.3800,89,97,158012
1.7058,0.2346,39.5100,89,97,158015
1.7351,0.2151,39.5700,89,97,158019
1.8768,0.2102,39.4100,89,97,158022
1.9110,0.2395,39.4800,89,97,158025
1.8719,0.2493,39.4100,89,97,158028
1.6960,0.2444,39.5400,89,97,158032
1.6422,0.2297,39.5100,89,97,158035
1.6764,0.2151,39.4100,89,97,158039
1.7791,0.2053,39.5100,89,97,158043
1.8768,0.2639,39.3500,89,97,158046
1.7791,0.2297,39.5100,89,97,158049
1.6520,0.2639,39.4800,89,97,158053
1.6227,0.2297,39.4400,89,97,158056
1.6716,0.2102,39.4400,89,97,158059
1.8426,0.2102,39.2200,89,97,158063
1.8768,0.2248,39.4100,89,97,158066
1.7693,0.2395,39.5100,89,97,158069
1.6618,0.2542,39.4400,89,97,158073
1.6080,0.2248,39.5100,89,97,158076
1.7351,0.2297,39.2500,89,97,158080
1.8328,0.2151,39.3800,89,97,158083
1.8671,0.2248,39.4400,89,97,158087
1.7742,0.2297,39.5100,89,97,158090
1.6520,0.2688,39.5100,89,97,158093
1.6716,0.2297,39.3500,89,97,158097
1.7351,0.2102,39.3500,89,97,158100
1.8768,0.2102,38.5500,89,97,158103
1.8866,0.2297,39.5400,89,97,158107
1.7840,0.2395,39.5100,89,97,158110
1.6911,0.2493,39.4400,89,97,158113
1.6667,0.2297,39.5100,89,97,158117
1.7889,0.2151,39.4100,89,97,158120
1.8817,0.2053,39.4800,89,97,158124
1.9013,0.2395,39.5100,89,97,158128
1.8280,0.2493,39.3800,89,97,158131
1.6960,0.2395,39.5100,89,97,158134
1.7253,0.2248,39.3200,89,97,158137
1.8133,0.2053,39.3800,89,97,158141
1.9208,0.2102,39.7300,89,97,158144
1.9453,0.2493,39.3800,89,97,158147
1.8084,0.2395,39.5100,89,97,158151
1.7498,0.2444,39.2500,89,97,158154
1.7449,0.2199,39.4100,89,97,158157
1.8524,0.2053,39.5100,89,97,158161
1.9746,0.2102,39.4800,89,97,158164
1.9501,0.2346,38.6800,89,97,158168
1.8719,0.2639,39.2800,89,97,158172
1.7351,0.2346,39.6700,89,97,158175
1.7595,0.2248,39.4800,89,97,158178
1.9110,0.2102,39.4800,89,97,158181
1.9697,0.2151,39.5100,89,97,158185
1.9795,0.2493,39.4100,89,97,158188
1.8231,0.2542,39.4800,89,97,158191
1.7400,0.2346,39.3200,89,97,158195
1.7595,0.2151,39.5400,89,97,158198
1.8817,0.2004,39.5100,89,97,158201
2.0039,0.2297,39.3200,89,97,158205
1.9257,0.2395,39.4100,89,97,158209
1.8084,0.2493,39.3800,89,97,158212
1.7107,0.2297,38.6500,89,97,158216
1.7595,0.2102,39.5100,89,97,158219
1.9110,0.2004,39.3800,89,97,158222
1.9599,0.2102,39.5100,89,97,158226
1.9306,0.2395,39.3500,89,97,158229
1.7791,0.2395,39.4400,89,97,158232
1.7302,0.2297,39.5100,89,97,158235
1.8182,0.2151,39.4400,89,97,158239
1.9453,0.2004,39.7000,89,97,158242
2.0674,0.2297,39.3200,89,97,158245
1.9697,0.2395,39.4800,89,97,158249
1.8475,0.2395,39.5100,89,97,158253
1.8231,0.2346,39.4800,89,97,158256
1.8915,0.2102,39.5100,89,97,158260
2.0919,0.2151,39.2500,89,97,158263
2.1212,0.2297,39.0900,89,97,158266
2.0381,0.2395,39.4800,89,97,158270
1.9257,0.2444,39.4800,89,97,158273
1.8866,0.2542,39.5700,89,97,158276
2.0283,0.2248,39.3200,89,97,158279
2.1114,0.2102,39.4400,89,97,158283
2.1310,0.2248,39.4100,89,97,158286
2.0137,0.2737,39.4800,89,97,158289
1.8817,0.2395,39.5100,89,97,158294
1.8817,0.2346,39.3500,89,97,158297
1.9257,0.2004,39.4800,89,97,158300
2.0430,0.2199,39.4400,89,97,158304
2.0039,0.2297,39.5100,89,97,158307
1.8671,0.2395,39.5100,89,97,158310
1.7400,0.2444,39.4400,89,97,158314
1.6862,0.2248,39.5100,89,97,158317
1.7840,0.2053,38.8700,89,97,158320
1.8524,0.2102,39.5100,89,97,158324
1.8475,0.2346,39.5100,89,97,158327
1.7498,0.2493,39.4400,89,97,158330
1.6178,0.2395,39.4800,89,97,158333
1.6373,0.2297,39.3800,89,97,158338
1.7204,0.2102,39.4100,89,97,158341
1.8182,0.2053,39.4800,89,97,158344
1.8377,0.2395,39.4400,89,97,158348
1.6960,0.2395,39.4400,89,97,158351
1.6667,0.2395,39.2200,89,97,158354
1.6325,0.2248,39.3500,89,97,158358
1.7351,0.2102,39.4800,89,97,158361
1.8719,0.2151,39.4800,89,97,158364
1.8133,0.2297,39.5100,89,97,158368
1.7449,0.2786,39.3500,89,97,158371
1.6471,0.2346,39.5400,89,97,158374
1.7546,0.2151,39.4800,89,97,158379
1.9746,0.1955,39.5700,89,97,158382
2.2190,0.2151,39.5100,89,97,158385
2.3900,0.2493,39.5100,89,97,158389
2.4047,0.2639,39.5700,89,97,158392
2.4731,0.2346,39.3800,89,97,158395
2.5073,0.2151,39.4800,89,97,158398
2.5611,0.2053,39.4800,89,97,158402
2.5415,0.2248,39.3500,89,97,158405
2.2678,0.2395,39.5100,89,97,158408
1.9844,0.2444,39.3800,89,97,158412
1.7204,0.2248,39.4400,89,97,158415
1.6178,0.2102,39.5100,89,97,158418
1.6618,0.2151,39.3500,89,97,158423
1.6716,0.2444,39.5100,89,97,158426
1.6422,0.2444,39.3200,89,97,158429
1.5054,0.2493,39.4800,89,97,158433
1.4614,0.2297,39.5400,89,97,158436
1.5396,0.2102,39.3200,89,97,158439
1.6569,0.2053,39.4800,89,97,158443
1.7693,0.2346,39.2500,89,97,158446
1.6569,0.2297,39.4800,89,97,158449
1.5494,0.2395,39.5100,89,97,158452
1.5249,0.2297,39.4800,89,97,158456
1.6031,0.2102,39.6400,89,97,158459
1.7889,0.2248,39.2800,89,97,158462
1.8035,0.2297,39.4800,89,97,158467
1.7155,0.2444,39.4100,89,97,158470
1.5982,0.2444,39.4100,89,97,158473
1.5787,0.2199,39.5100,89,97,158477
1.7107,0.2199,39.3200,89,97,158480
1.6471,0.2297,39.3800,89,97,158484
1.7302,0.2053,39.5100,89,97,158487
1.8866,0.2004,39.3200,89,97,158490
1.8768,0.2346,39.4400,89,97,158494
1.7693,0.2395,39.5100,89,97,158497
1.6764,0.2444,38.7100,89,97,158500
1.6813,0.2346,39.4800,89,97,158504
1.8280,0.2297,39.2500,89,97,158508
1.9355,0.2102,39.4800,89,97,158511
1.9110,0.2297,39.5100,89,97,158514
1.8035,0.2444,39.4800,89,97,158518
1.7009,0.2297,39.5400,89,97,158521
1.7791,0.2297,39.2500,89,97,158524
1.8671,0.2297,39.4100,89,97,158528
1.9599,0.2199,39.5700,89,97,158531
1.9501,0.2395,39.5100,89,97,158534
1.8231,0.2444,39.5100,89,97,158538
1.7937,0.2444,39.3200,89,97,158541
1.8035,0.2248,39.5100,89,97,158544
1.9306,0.2004,39.4100,89,97,158548
2.0137,0.2151,39.5100,89,97,158552
1.9844,0.2346,39.5100,89,97,158555
1.8866,0.2493,39.5100,89,97,158559
1.7986,0.2346,39.5100,89,97,158562
1.8768,0.2199,39.3800,89,97,158565
1.9844,0.2004,39.5700,89,97,158568
2.0821,0.2151,39.4100,89,97,158572
2.0528,0.2493,39.4400,89,97,158575
1.9306,0.2444,39.4800,89,97,158578
1.9013,0.2493,39.3800,89,97,158582
1.9453,0.1906,39.5100,89,97,158585
2.0772,0.1906,39.5100,89,97,158588
2.1848,0.2248,39.4400,89,97,158593
2.1065,0.2395,39.3800,89,97,158596
2.0186,0.2542,39.2800,89,97,158599
1.9501,0.2346,39.5400,89,97,158603
1.9990,0.2102,39.5400,89,97,158606
2.1457,0.2053,39.4400,89,97,158609
2.1799,0.2346,39.4800,89,97,158612
2.1945,0.2590,39.2200,89,97,158616
1.9892,0.2444,39.3500,89,97,158619
1.9306,0.2248,39.5100,89,97,158622
2.0088,0.2102,39.4800,89,97,158626
2.1114,0.2004,39.5100,89,97,158629
2.2092,0.2444,39.3200,89,97,158632
2.0626,0.2493,39.5100,89,97,158637
1.9110,0.2395,39.4100,89,97,158640
1.8573,0.2297,39.5400,89,97,158643
1.9159,0.2151,39.5100,89,97,158646
2.0430,0.2199,39.4100,89,97,158650
2.0186,0.2297,39.4800,89,97,158653
1.9013,0.2444,39.3800,89,97,158656
1.7449,0.2444,39.5100,89,97,158660
1.6960,0.2248,39.5400,89,97,158663
1.7986,0.2199,39.0900,89,97,158666
1.8719,0.2102,39.5700,89,97,158670
1.9062,0.2395,39.3800,89,97,158673
1.7595,0.2297,39.4800,89,97,158676
1.6373,0.2395,39.5700,89,97,158681
1.6422,0.2297,39.3500,89,97,158684
1.7204,0.2053,39.5100,89,97,158687
1.8573,0.2102,39.3200,89,97,158691
1.8377,0.2297,39.8600,89,97,158694
1.7155,0.2395,39.5100,89,97,158697
1.6178,0.2395,39.4800,89,97,158700
1.6178,0.2248,39.4800,89,97,158704
1.7693,0.2102,39.2800,89,97,158707
1.8328,0.2053,39.4800,89,97,158710
1.8328,0.2297,39.6000,89,97,158714
1.7351,0.2493,39.4400,89,97,158717
1.6178,0.2639,39.4100,89,97,158721
1.7009,0.2444,39.2500,89,97,158725
1.7693,0.2102,39.4100,89,97,158728
1.8573,0.2053,39.4800,89,97,158731
1.8377,0.2346,39.4800,89,97,158735
1.7155,0.2395,39.5100,89,97,158738
1.6716,0.2444,39.3800,89,97,158741
1.6813,0.2248,39.4800,89,97,158745
1.8084,0.2053,39.3800,89,97,158748
1.8866,0.2151,39.5100,89,97,158751
1.8524,0.2346,39.5700,89,97,158754
1.7742,0.2493,39.4400,89,97,158758
1.6569,0.2297,39.5700,89,97,158761
1.7302,0.2248,39.3500,89,97,158765
1.8280,0.2102,39.5700,89,97,158769
1.9159,0.2297,39.5100,89,97,158772
1.8768,0.2395,39.4400,89,97,158775
1.7351,0.2786,39.5700,89,97,158779
1.6911,0.2346,39.3500,89,97,158782
1.7253,0.2444,39.5100,89,97,158785
1.8573,0.2053,39.5100,89,97,158789
1.9648,0.2297,39.4100,89,97,158792
1.8768,0.2395,39.4400,89,97,158795
1.7986,0.2542,39.2500,89,97,158798
1.7204,0.2346,39.4800,89,97,158802
1.7742,0.2053,39.5700,89,97,158806
1.9208,0.2199,39.4400,89,97,158809
1.9648,0.2199,39.5100,89,97,158813
1.9453,0.2542,39.2500,89,97,158816
1.7742,0.2444,39.3500,89,97,158819
1.7155,0.2248,39.4800,89,97,158823
1.7937,0.2102,39.5100,89,97,158826
1.9110,0.2053,39.4800,89,97,158829
2.0088,0.2395,39.3200,89,97,158833
1.8768,0.2297,39.4800,89,97,158836
1.7595,0.2395,39.3800,89,97,158839
1.7498,0.2102,39.4800,89,97,158843
1.8035,0.2053,39.5100,89,97,158846
1.9501,0.2151,39.4400,89,97,158850
1.9648,0.2297,39.5100,89,97,158853
1.8719,0.2444,39.3500,89,97,158857
1.7351,0.2395,39.5100,89,97,158860
1.7595,0.2199,39.4800,89,97,158863
1.8475,0.2151,39.3800,89,97,158867
1.9306,0.2053,39.7000,89,97,158870
1.9697,0.2297,39.2800,89,97,158873
1.8377,0.2346,39.4100,89,97,158877
1.7302,0.2395,39.5100,89,97,158880
1.7840,0.2346,39.3800,89,97,158883
1.8377,0.2004,39.5100,89,97,158887
1.9990,0.2151,39.2800,89,97,158891
1.9892,0.2297,39.4400,89,97,158894
1.8719,0.2395,39.4400,89,97,158897
1.7937,0.2395,39.4800,89,97,158901
1.8035,0.2199,39.5700,89,97,158904
1.9795,0.2151,39.2500,89,97,158907
2.0577,0.2151,39.4800,89,97,158911
2.0528,0.2199,39.5100,89,97,158914
1.9501,0.2444,39.4800,89,97,158917
1.8671,0.2346,39.5100,89,97,158921
1.9648,0.2346,39.2500,89,97,158924
2.0528,0.2102,39.4400,89,97,158927
2.1457,0.2102,39.4100,89,97,158931
2.1114,0.2395,39.4800,89,97,158935
1.9697,0.2444,39.5400,89,97,158938
1.9159,0.2395,39.3200,89,97,158942
1.9159,0.2199,39.4800,89,97,158945
2.0332,0.2053,39.1200,89,97,158948
2.0821,0.2151,39.5100,89,97,158951
2.0137,0.2346,39.5100,89,97,158955
1.8866,0.2542,39.4100,89,97,158958
1.7546,0.2297,39.5100,89,97,158961
1.7937,0.2444,39.3800,89,97,158965
1.8524,0.1955,39.4800,89,97,158968
1.8964,0.2151,39.5100,89,97,158971
1.8280,0.2884,39.4100,89,97,158976
1.6813,0.2444,39.5100,89,97,158979
1.6325,0.2346,39.2500,89,97,158982
1.6618,0.2102,39.5100,89,97,158986
1.7644,0.2004,39.5100,89,97,158989
1.8524,0.2346,39.4400,89,97,158992
1.7595,0.2346,39.5100,89,97,158996
1.6716,0.2542,39.2800,89,97,158999
1.5982,0.2297,39.4100,89,97,159002
1.6569,0.2004,39.5100,89,97,159005
1.7889,0.2102,39.4400,89,97,159009
1.8377,0.2199,39.5100,89,97,159012
1.8231,0.2639,39.2800,89,97,159015
1.6667,0.2493,39.4400,89,97,159020
1.6178,0.2248,39.4100,89,97,159023
1.7107,0.2151,39.5100,89,97,159026
1.8719,0.1906,39.5100,89,97,159030
2.0381,0.2346,39.3800,89,97,159033
2.0430,0.2444,39.5700,89,97,159036
2.1261,0.2395,39.3500,89,97,159040
2.2336,0.2248,39.5400,89,97,159043
2.4585,0.2053,39.5100,89,97,159046
2.6686,0.2151,39.5100,89,97,159049
2.6588,0.2297,39.5100,89,97,159053
2.4927,0.2493,39.4100,89,97,159056
2.1652,0.2346,39.5100,89,97,159059
1.9648,0.2248,39.5100,89,97,159064
1.9013,0.2151,39.3800,89,97,159067
1.8231,0.2053,39.4800,89,97,159070
1.7498,0.2346,39.3200,89,97,159074
1.5689,0.2444,39.3800,89,97,159077
1.4418,0.2444,39.5700,89,97,159080
1.4712,0.2297,39.4100,89,97,159084
1.5640,0.2053,39.5700,89,97,159087
1.7204,0.2151,39.2500,89,97,159090
1.7009,0.2248,39.3500,89,97,159094
1.7791,0.2102,39.4800,89,97,159097
1.7840,0.2346,39.4400,89,97,159101
1.6471,0.2444,39.5100,89,97,159105
1.5640,0.2346,39.5100,89,97,159108
1.6276,0.2248,39.5100,89,97,159111
1.7302,0.2053,39.4400,89,97,159115
1.8475,0.2199,39.3800,89,97,159118
1.7986,0.2297,39.5100,89,97,159121
1.6764,0.2395,39.5400,89,97,159125
1.6373,0.2395,39.3800,89,97,159128
1.6618,0.2151,39.4800,89,97,159131
1.8133,0.2053,39.3800,89,97,159135
1.8719,0.2248,39.4100,89,97,159138
1.8280,0.2395,39.5100,89,97,159141
1.7302,0.2493,39.3200,89,97,159145
1.6569,0.2297,39.5100,89,97,159149
1.7498,0.2199,39.2800,89,97,159152
1.8573,0.2102,39.4800,89,97,159156
1.9257,0.2199,39.4400,89,97,159159
1.8719,0.2444,39.4800,89,97,159162
1.7351,0.2395,39.5100,89,97,159165
1.7351,0.2444,39.2500,89,97,159169
1.7644,0.2102,39.4400,89,97,159172
1.8964,0.1955,39.4800,89,97,159175
1.9599,0.2493,39.5100,89,97,159179
1.8817,0.2395,39.6000,89,97,159182
1.8133,0.2688,39.3800,89,97,159185
1.7449,0.2297,39.4400,89,97,159190
1.8280,0.2053,39.4100,89,97,159193
1.9501,0.2151,39.4100,89,97,159196
1.9941,0.2199,39.5700,89,97,159200
1.9501,0.2297,39.3500,89,97,159203
1.8035,0.2444,39.4400,89,97,159206
1.8035,0.2346,39.4400,89,97,159210
1.8768,0.1906,39.4800,89,97,159213
2.0088,0.2053,39.5100,89,97,159216
2.0870,0.2395,39.4100,89,97,159219
1.9648,0.2444,39.4800,89,97,159223
1.9013,0.2395,39.3800,89,97,159226
1.8426,0.2199,39.4800,89,97,159229
1.9501,0.2102,39.4800,89,97,159234
2.0870,0.2102,39.4100,89,97,159237
2.1065,0.2297,39.5400,89,97,159240
2.0381,0.2639,39.3200,89,97,159244
1.9062,0.2395,39.5100,89,97,159247
1.9062,0.2248,39.5400,89,97,159250
2.0283,0.2199,39.4100,89,97,159253
2.1310,0.2102,39.5100,89,97,159257
2.1896,0.2395,39.2800,89,97,159260
2.0528,0.2493,39.4400,89,97,159263
1.9306,0.2346,39.5100,89,97,159267
1.9550,0.2297,39.4400,89,97,159270
2.0430,0.2053,39.4800,89,97,159273
2.2043,0.2248,39.2200,89,97,159278
2.1457,0.2395,39.3800,89,97,159281
1.9941,0.2395,39.4800,89,97,159284
1.8817,0.2395,39.4800,89,97,159288
1.8866,0.2151,39.5100,89,97,159291
2.0235,0.2199,39.4100,89,97,159294
2.0626,0.2151,39.5100,89,97,159297
2.0235,0.2346,39.4100,89,97,159301
1.8915,0.2493,39.5100,89,97,159304
1.7449,0.2493,39.5100,89,97,159307
1.7840,0.2248,39.4800,89,97,159311
1.8524,0.2053,39.4800,89,97,159314
1.9453,0.2199,39.3800,89,97,159318
1.8573,0.2346,39.5100,89,97,159322
1.7107,0.2395,39.5700,89,97,159325
1.6471,0.2493,39.3500,89,97,159328
1.6471,0.2151,39.5100,89,97,159332
1.7840,0.2053,39.4400,89,97,159335
1.8475,0.2199,39.5100,89,97,159338
1.7840,0.2395,39.5400,89,97,159342
1.6716,0.2493,39.3800,89,97,159345
1.5836,0.2297,39.5100,89,97,159348
1.6764,0.2151,39.2200,89,97,159351
1.7791,0.1906,39.4100,89,97,159355
1.8377,0.2248,39.5100,89,97,159358
1.7791,0.2395,39.4800,89,97,159362
1.6422,0.2444,39.4800,89,97,159366
1.6422,0.2395,39.1600,89,97,159369
1.6716,0.2102,39.4800,89,97,159372
1.7937,0.2004,39.4800,89,97,159376
1.8622,0.2297,39.5100,89,97,159379
1.7889,0.2395,39.5100,89,97,159382
1.6960,0.2590,39.3800,89,97,159386
1.6373,0.2346,39.4400,89,97,159389
1.7351,0.2102,39.4100,89,97,159392
1.8328,0.2004,39.6000,89,97,159396
1.8768,0.2248,39.4800,89,97,159399
1.8182,0.2835,39.3500,89,97,159403
1.6764,0.2444,39.6400,89,97,159407
1.6716,0.2346,39.3800,89,97,159410
1.7400,0.2053,39.4800,89,97,159413
1.8573,0.1906,39.5100,89,97,159416
1.9159,0.2297,39.1900,89,97,159420
1.7889,0.2542,39.5100,89,97,159423
1.7009,0.2395,39.3500,89,97,159426
1.6716,0.2444,39.4400,89,97,159430
1.7937,0.2004,39.5100,89,97,159433
1.9013,0.2102,39.4400,89,97,159436
1.9208,0.2297,39.5100,89,97,159440
1.8377,0.2493,39.3200,89,97,159443
1.6862,0.2297,39.5100,89,97,159447
1.6960,0.2199,39.3200,89,97,159451
1.8133,0.2102,39.4400,89,97,159454
1.9159,0.2004,39.5100,89,97,159457
1.9697,0.2444,39.1900,89,97,159460
1.8182,0.2444,39.3800,89,97,159464
1.7253,0.2346,39.4800,89,97,159467
1.7302,0.2444,39.4400,89,97,159470
1.8280,0.2151,39.5100,89,97,159474
2.0186,0.2199,39.3200,89,97,159477
1.9306,0.2444,39.2500,89,97,159480
1.7937,0.2444,39.4400,89,97,159484
1.6911,0.2346,39.5100,89,97,159488
1.7253,0.2199,39.5100,89,97,159491
1.8671,0.2151,39.3800,89,97,159495
1.9404,0.2102,39.5100,89,97,159498
1.9257,0.2395,39.4100,89,97,159501
1.7595,0.2444,39.4400,89,97,159505
1.6911,0.2346,39.3500,89,97,159508
1.7449,0.2151,39.4400,89,97,159511
1.8622,0.1906,39.5100,89,97,159515
1.9746,0.2199,39.3800,89,97,159518
1.8964,0.2395,39.5100,89,97,159521
1.7742,0.2297,39.5100,89,97,159524
1.7204,0.2395,39.3800,89,97,159528
1.7449,0.2102,39.5100,89,97,159532
1.9062,0.2102,39.2800,89,97,159535
1.9648,0.2102,39.4100,89,97,159539
1.8915,0.2395,39.5100,89,97,159542
1.7889,0.2297,39.4400,89,97,159545
1.7204,0.2297,39.4100,89,97,159549
1.8524,0.2248,39.2500,89,97,159552
1.9550,0.2102,39.3800,89,97,159555
2.0235,0.2199,39.4800,89,97,159559
1.9550,0.2444,39.4800,89,97,159562
1.8328,0.2395,39.4800,89,97,159565
1.8524,0.2444,39.4100,89,97,159569
1.9013,0.2639,39.4800,89,97,159572
2.0528,0.2102,39.3800,89,97,159576
2.1065,0.2297,39.5100,89,97,159579
2.0332,0.2444,39.5700,89,97,159583
1.9453,0.2542,39.4400,89,97,159586
1.8964,0.2297,39.4800,89,97,159589
1.9941,0.2102,39.4400,89,97,159593
2.0772,0.2053,39.5100,89,97,159596
2.1017,0.2248,39.5400,89,97,159599
2.0332,0.2493,39.3800,89,97,159603
1.8622,0.2444,39.5100,89,97,159606
1.8524,0.2199,39.3800,89,97,159609
1.8964,0.2053,39.5400,89,97,159613
1.9844,0.2053,39.4800,89,97,159617
1.9892,0.2933,39.3200,89,97,159620
1.8133,0.2444,39.5100,89,97,159623
1.7107,0.2493,39.3200,89,97,159627
1.6569,0.2297,39.5100,89,97,159630
1.7302,0.2053,39.5100,89,97,159633
1.8377,0.2102,39.4800,89,97,159637
1.8231,0.2297,39.6400,89,97,159640
1.7840,0.2542,39.2200,89,97,159643
1.5982,0.2395,39.4400,89,97,159647
1.6325,0.2151,39.4800,89,97,159650
1.7155,0.2102,39.5100,89,97,159653
1.8182,0.2102,39.5100,89,97,159657
1.8573,0.2493,39.3200,89,97,159661
1.7058,0.2493,39.4400,89,97,159664
1.6031,0.2444,39.4400,89,97,159668
1.6227,0.2199,39.4800,89,97,159671
1.7351,0.2004,39.6000,89,97,159674
1.8622,0.2199,39.3500,89,97,159678
1.8084,0.2297,39.4800,89,97,159681
1.7058,0.2493,39.5100,89,97,159684
1.6471,0.2395,39.5400,89,97,159687
1.7791,0.2199,39.5100,89,97,159691
2.0674,0.2053,39.6000,89,97,159694
2.2825,0.2151,39.5100,89,97,159697
2.4438,0.2395,39.3500,89,97,159702
2.4145,0.2346,39.2500,89,97,159705
2.0137,0.2395,39.1900,89,97,159710
1.7302,0.2444,39.5100,89,97,159713
1.5494,0.2297,39.5100,89,97,159716
1.5054,0.2346,39.4800,89,97,159720
1.6227,0.2199,39.3200,89,97,159723
1.6471,0.2297,39.4100,89,97,159726
1.5689,0.2395,39.4400,89,97,159730
1.4761,0.2444,39.4800,89,97,159733
1.4418,0.2297,38.9000,89,97,159736
1.5738,0.2199,39.6000,89,97,159740
1.6911,0.2151,39.5100,89,97,159744
1.7595,0.2199,39.3800,89,97,159747
1.6813,0.2444,39.4800,89,97,159750
1.5689,0.2444,39.5100,89,97,159754
1.5738,0.2346,39.3500,89,97,159757
1.6471,0.2102,39.4800,89,97,159760
1.7986,0.2151,39.5400,89,97,159764
1.8182,0.2590,39.5100,89,97,159767
1.7302,0.2395,39.5100,89,97,159770
1.6325,0.2346,39.4400,89,97,159774
1.6080,0.2102,39.5100,89,97,159777
1.7253,0.1906,39.3500,89,97,159780
1.8231,0.2053,39.4400,89,97,159784
1.8524,0.2297,39.4800,89,97,159788
1.7693,0.2493,39.4400,89,97,159791
1.6471,0.2395,39.5100,89,97,159795
1.6862,0.2346,39.3800,89,97,159798
1.7693,0.2102,39.4100,89,97,159801
1.8719,0.2102,39.3200,89,97,159804
1.9062,0.2395,39.4800,89,97,159808
1.7644,0.2395,39.4100,89,97,159811
1.7107,0.2590,39.2200,89,97,159814
1.6960,0.2297,39.3500,89,97,159818
1.7986,0.2102,39.4100,89,97,159821
1.9208,0.2102,39.4800,89,97,159824
1.9208,0.2346,39.4800,89,97,159828
1.8524,0.2590,39.3500,89,97,159832
1.7204,0.2395,39.7300,89,97,159835
1.7595,0.2248,39.3800,89,97,159839
1.8719,0.2053,39.5100,89,97,159842
1.9697,0.2151,39.5100,89,97,159845
1.9648,0.2444,39.3200,89,97,159848
1.8280,0.2542,39.5100,89,97,159852
1.7693,0.2395,39.3200,89,97,159855
1.7937,0.2248,39.5100,89,97,159858
1.9159,0.2004,39.5100,89,97,159862
2.0479,0.2248,39.4100,89,97,159865
1.9844,0.2395,39.4800,89,97,159868
1.8964,0.2493,39.3800,89,97,159873
1.7937,0.2346,39.4100,89,97,159876
1.8475,0.2297,39.4800,89,97,159879
2.0039,0.2102,39.3800,89,97,159883
2.0626,0.2199,39.5100,89,97,159886
2.0577,0.2493,39.2800,89,97,159889
1.9110,0.2493,39.4100,89,97,159893
1.8671,0.2346,39.5100,89,97,159896
1.9306,0.2199,39.4800,89,97,159899
2.0479,0.2053,39.5100,89,97,159902
2.1799,0.2297,39.2500,89,97,159906
2.0626,0.2346,39.4400,89,97,159909
1.9355,0.2395,39.5100,89,97,159912
1.8866,0.2346,39.5100,89,97,159917
1.9550,0.2151,39.4800,89,97,159920
2.1359,0.2248,39.3500,89,97,159923
2.1505,0.2297,39.4400,89,97,159927
2.0626,0.2444,39.4400,89,97,159930
1.9208,0.2444,39.4800,89,97,159933
1.8719,0.2346,39.4800,89,97,159937
1.9844,0.2248,39.3200,89,97,159940
2.0674,0.2102,39.4800,89,97,159943
2.1212,0.2297,39.3500,89,97,159947
1.9844,0.2444,39.4800,89,97,159950
1.8475,0.2395,39.5100,89,97,159953
1.8280,0.2590,39.3500,89,97,159956
1.8719,0.2346,39.5700,89,97,159961
1.9990,0.2004,39.4100,89,97,159964
1.9795,0.2297,39.4800,89,97,159967
1.8524,0.2444,39.0900,89,97,159971
1.7302,0.2395,39.4100,89,97,159974
1.6960,0.2297,39.5100,89,97,159977
1.7986,0.2151,39.3200,89,97,159981
1.8719,0.2102,39.7700,89,97,159984
1.8768,0.2297,39.4800,89,97,159987
1.7742,0.2297,39.4400,89,97,159991
1.6520,0.2395,39.5100,89,97,159994
1.6618,0.2346,39.2500,89,97,159997
1.7302,0.2102,39.6700,89,97,160001
1.8280,0.2102,39.9300,89,97,160005
1.8671,0.2346,39.4800,89,97,160008
1.7107,0.2444,39.5100,89,97,160011
1.6618,0.2835,39.2800,89,97,160015
1.6422,0.2297,39.4100,89,97,160018
1.7351,0.2053,39.4400,89,97,160021
1.8328,0.2102,39.5100,89,97,160025
1.8231,0.2346,39.5700,89,97,160028
1.7498,0.2542,39.3800,89,97,160031
1.6178,0.2395,39.5700,89,97,160035
1.6618,0.2248,39.4100,89,97,160038
1.7546,0.2151,39.5100,89,97,160041
1.8524,0.2151,39.5100,89,97,160046
1.8426,0.2444,39.5700,89,97,160049
1.7155,0.2444,39.5100,89,97,160052
1.6569,0.2444,39.3800,89,97,160055
1.6764,0.2199,39.5700,89,97,160059
1.7986,0.2004,39.5100,89,97,160062
1.9208,0.2297,39.3800,89,97,160065
1.8524,0.2346,39.5100,89,97,160069
1.7546,0.2542,39.3200,89,97,160072
1.6716,0.2346,39.4400,89,97,160075
1.7155,0.2151,39.4800,89,97,160079
1.8671,0.2151,39.3500,89,97,160082
1.9257,0.2151,39.5100,89,97,160086
1.9159,0.2542,39.2500,89,97,160090
1.7449,0.2297,39.3800,89,97,160093
1.6813,0.2297,39.5100,89,97,160096
1.7693,0.2151,39.4800,89,97,160100
1.8573,0.2004,39.5100,89,97,160103
1.9941,0.2444,39.2500,89,97,160106
1.8719,0.2542,39.5100,89,97,160109
1.7498,0.2395,39.4400,89,97,160113
1.7009,0.2346,39.5100,89,97,160116
1.7742,0.2151,39.4800,89,97,160119
1.9306,0.2199,39.3800,89,97,160123
1.9599,0.2297,39.4800,89,97,160126
1.8866,0.2444,39.3800,89,97,160130
1.7449,0.2444,39.6000,89,97,160134
1.7155,0.2297,39.5400,89,97,160137
1.8280,0.2151,39.3500,89,97,160140
1.9306,0.2102,39.4800,89,97,160144
1.9844,0.2346,39.3800,89,97,160147
1.8573,0.2395,39.4400,89,97,160150
1.7449,0.2395,39.5100,89,97,160154
1.7546,0.2346,39.4100,89,97,160157
1.8084,0.2053,39.5700,89,97,160160
1.9550,0.2395,39.2800,89,97,160163
1.9550,0.2346,39.4100,89,97,160167
1.8377,0.2444,39.5100,89,97,160171
1.7253,0.2542,39.4400,89,97,160174
1.7058,0.2346,39.5100,89,97,160178
1.8524,0.2151,39.2800,89,97,160181
1.9257,0.2102,39.5100,89,97,160184
1.9404,0.2346,39.5700,89,97,160188
1.8377,0.2297,39.4800,89,97,160191
1.7449,0.2395,39.5100,89,97,160194
1.7937,0.2444,39.2500,89,97,160198
1.8817,0.2151,39.4100,89,97,160201
1.9892,0.2444,39.4100,89,97,160204
1.9941,0.2346,39.4800,89,97,160208
1.8719,0.2444,39.5100,89,97,160211
1.8377,0.2297,39.3200,89,97,160215
1.8524,0.2395,39.5100,89,97,160218
1.9941,0.2151,39.3800,89,97,160222
2.0919,0.2199,39.5100,89,97,160225
2.0821,0.2346,39.5100,89,97,160228
1.9892,0.2542,39.3800,89,97,160232
1.8817,0.2444,39.5100,89,97,160235
1.9404,0.2297,39.4100,89,97,160238
2.0186,0.2053,39.5400,89,97,160242
2.1065,0.2199,39.5100,89,97,160245
2.0723,0.2444,39.4100,89,97,160248
1.9257,0.2493,39.5100,89,97,160252
1.8524,0.2346,39.3200,89,97,160256
1.8524,0.2151,39.5100,89,97,160259
1.9501,0.2053,39.5100,89,97,160262
2.0186,0.2346,39.4400,89,97,160266
1.9062,0.2395,39.5100,89,97,160269
1.7742,0.2493,39.2500,89,97,160272
1.6618,0.2395,39.6400,89,97,160276
1.6813,0.2297,39.4800,89,97,160279
1.8084,0.2102,39.4400,89,97,160282
1.8671,0.2248,39.5100,89,97,160286
1.8280,0.2590,39.5400,89,97,160289
1.6520,0.2493,39.3800,89,97,160292
1.5836,0.2248,39.5400,89,97,160296
1.6422,0.2248,39.5100,89,97,160300
1.7595,0.2102,39.5400,89,97,160303
1.8719,0.2395,39.3500,89,97,160307
1.7595,0.2444,39.2200,89,97,160310
1.6422,0.2444,39.4100,89,97,160313
1.5934,0.2297,39.5100,90,97,160316
1.6471,0.2395,39.5100,90,97,160321
1.7107,0.2248,39.5100,90,97,160324
1.9159,0.2199,39.3800,90,97,160328
2.1554,0.2102,39.5100,90,97,160331
2.3803,0.2346,39.2800,90,97,160334
2.4145,0.2444,39.3800,90,97,160338
2.3851,0.2395,39.5100,90,97,160342
2.4096,0.2346,39.4100,90,97,160345
2.3900,0.2297,39.4800,90,97,160349
2.4047,0.2199,39.3800,90,97,160352
2.1994,0.2346,39.4100,90,97,160355
1.9257,0.2444,39.5400,90,97,160359
1.6813,0.2444,39.5100,90,97,160362
1.5640,0.2297,39.5100,90,97,160365
1.6227,0.2102,39.2500,90,97,160368
1.6471,0.2102,39.4800,90,97,160372
1.6471,0.2346,39.5700,90,97,160375
1.5494,0.2444,39.5100,90,97,160378
1.4614,0.2395,39.4800,90,97,160382
1.5249,0.2444,39.4100,90,97,160386
1.6031,0.2102,39.4800,90,97,160389
1.7302,0.1906,39.3800,90,97,160393
1.7155,0.2395,39.6000,90,97,160396
1.6080,0.2444,39.5100,90,97,160399
1.5640,0.2493,39.3200,90,97,160403
1.5738,0.2248,39.4800,90,97,160406
1.7107,0.2053,39.3500,90,97,160409
1.7937,0.2199,39.4800,90,97,160412
1.7742,0.2297,39.5100,90,97,160416
1.6716,0.2786,39.3800,90,97,160419
1.5738,0.2346,39.5100,90,97,160422
1.6471,0.2151,39.3500,90,97,160427
1.7595,0.2004,39.4100,90,97,160430
1.8475,0.2199,39.1900,90,97,160433
1.8182,0.2444,39.4400,90,97,160437
1.6764,0.2444,39.5100,90,97,160440
1.6569,0.2786,39.3200,90,97,160443
1.6764,0.2151,39.4800,90,97,160447
1.8084,0.2053,39.5100,90,97,160450
1.9062,0.2248,39.4800,90,97,160453
1.8377,0.2444,39.5100,90,97,160457
1.7644,0.2590,39.2200,90,97,160460
1.6764,0.2346,39.4100,90,97,160463
1.7351,0.2151,39.4800,90,97,160466
1.8719,0.2102,39.5100,90,97,160471
1.9404,0.2248,39.5100,90,97,160474
1.9208,0.2590,39.3500,90,97,160477
1.7693,0.2493,39.4400,90,97,160481
1.7155,0.2297,39.4100,90,97,160484
1.7889,0.2199,39.4800,90,97,160487
1.9257,0.1906,39.4800,90,97,160491
2.0186,0.2346,39.3500,90,97,160494
1.9062,0.2444,39.5100,90,97,160497
1.8133,0.2542,39.3800,90,97,160501
1.7595,0.2297,38.8100,90,97,160504
1.8524,0.2151,39.5100,90,97,160507
2.0039,0.2102,39.4400,90,97,160512
2.0283,0.2395,39.5100,90,97,160515
1.9697,0.2297,39.4100,90,97,160518
1.8182,0.2395,39.5100,90,97,160521
1.8035,0.2248,39.5100,90,97,160525
1.9306,0.2151,39.4400,90,97,160528
2.0381,0.2151,39.5700,90,97,160531
2.1163,0.2639,39.2800,90,97,160535
1.9990,0.2493,39.4100,90,97,160538
1.8817,0.2395,39.4800,90,97,160541
1.9062,0.2346,39.4400,90,97,160545
1.9892,0.2053,39.5100,90,97,160548
2.1652,0.2199,39.2200,90,97,160551
2.1359,0.2346,39.3500,90,97,160556
2.0332,0.2346,39.4800,90,97,160559
1.9062,0.2444,39.5700,90,97,160562
1.9110,0.2248,39.5100,90,97,160565
2.0772,0.2297,39.3200,90,97,160569
2.1408,0.2151,39.4800,90,97,160572
2.1310,0.2346,39.4400,90,97,160575
2.0039,0.2444,39.5400,90,97,160579
1.9013,0.2395,39.5100,90,97,160582
1.9501,0.2346,39.6000,90,97,160585
2.0186,0.2102,39.5100,90,97,160589
2.1261,0.2151,39.3800,90,97,160592
2.0674,0.2346,39.5100,90,97,160595
1.9257,0.2444,39.5100,90,97,160600
1.8475,0.2639,39.3500,90,97,160603
1.8328,0.2248,39.4800,90,97,160606
1.9550,0.2151,39.4100,90,97,160609
1.9990,0.2151,39.4800,90,97,160613
1.9453,0.2346,39.5100,90,97,160616
1.8133,0.2493,39.3800,90,97,160619
1.6960,0.2639,39.5100,90,97,160623
1.7498,0.2151,39.3200,90,97,160626
1.8328,0.2053,38.5500,90,97,160629
1.8964,0.2199,39.6000,90,97,160633
1.8475,0.2493,39.4800,90,97,160636
1.7009,0.2444,39.5400,90,97,160640
1.6618,0.2444,39.2800,90,97,160644
1.6667,0.2151,39.4800,90,97,160647
1.7840,0.2053,39.5400,90,97,160650
1.8768,0.2297,39.4800,90,97,160654
1.8035,0.2444,39.6000,90,97,160657
1.7302,0.2590,39.2500,90,97,160660
1.6178,0.2297,39.4100,90,97,160663
1.6716,0.2102,39.5100,90,97,160667
1.7986,0.2199,39.4800,90,97,160670
1.8622,0.2199,39.5100,90,97,160673
1.8377,0.2542,38.8400,90,97,160677
1.6813,0.2297,39.4800,90,97,160680
1.6422,0.2346,39.4100,90,97,160684
1.7009,0.2151,39.4800,90,97,160688
1.8280,0.2004,39.5100,90,97,160691
1.9062,0.2346,39.3200,90,97,160694
1.7889,0.2444,39.4800,90,97,160698
1.6862,0.2933,39.3800,90,97,160701
1.6373,0.2297,39.5100,90,97,160704
1.7204,0.2151,39.5100,90,97,160707
1.8573,0.2102,39.5700,90,97,160711
1.8915,0.2297,39.5100,90,97,160714
1.8231,0.2542,39.4400,90,97,160717
1.6862,0.2444,39.4800,90,97,160721
1.7009,0.2102,39.5100,90,97,160724
1.7840,0.2199,39.4100,90,97,160728
1.8964,0.2102,39.5100,90,97,160732
1.9648,0.2395,39.2200,90,97,160735
1.8377,0.2542,39.4100,90,97,160738
1.7107,0.2395,39.3800,90,97,160742
1.7204,0.2297,39.4400,90,97,160745
1.8133,0.2151,39.5100,90,97,160748
1.9892,0.2248,39.2800,90,97,160752
1.9550,0.2493,39.3500,90,97,160755
1.8182,0.2444,39.4800,90,97,160758
1.7204,0.2444,39.6000,90,97,160761
1.7253,0.2444,39.5400,90,97,160765
1.8817,0.2248,39.3500,90,97,160769
1.9599,0.2248,39.4800,90,97,160772
1.9599,0.2346,39.4100,90,97,160776
1.8280,0.2444,39.4800,90,97,160779
1.7253,0.2395,39.5100,90,97,160782
1.7693,0.2297,39.5700,90,97,160786
1.8719,0.2346,39.4800,90,97,160789
1.9941,0.2151,39.3200,90,97,160792
1.9453,0.2297,39.5100,90,97,160796
1.8133,0.2395,39.5100,90,97,160799
1.7546,0.2297,39.3500,90,97,160802
1.7546,0.2297,39.5700,90,97,160806
1.8915,0.2102,39.3800,90,97,160809
1.9648,0.2199,39.4800,90,97,160813
1.9257,0.2346,39.5100,90,97,160816
1.8133,0.2444,39.3800,90,97,160820
1.7204,0.2346,39.5400,90,97,160823
1.8035,0.2248,39.2800,90,97,160826
1.9062,0.2102,39.4100,90,97,160830
1.9892,0.2199,39.3800,90,97,160833
1.9697,0.2444,39.4800,90,97,160836
1.8328,0.2444,39.5700,90,97,160840
1.8231,0.2444,39.2500,90,97,160843
1.8426,0.2151,39.4400,90,97,160846
1.9795,0.2004,39.4800,90,97,160850
2.0674,0.2248,39.4800,90,97,160854
2.0039,0.2444,39.4800,90,97,160857
1.9453,0.2688,39.3200,90,97,160860
1.8719,0.2395,39.5700,90,97,160864
1.9550,0.2151,39.4100,90,97,160867
2.0772,0.2004,39.4800,90,97,160870
2.1310,0.2199,39.5400,90,97,160874
2.0968,0.2590,39.3500,90,97,160877
1.9306,0.2737,39.4400,90,97,160880
1.9208,0.2346,39.4400,90,97,160884
1.9453,0.1906,39.5100,90,97,160887
2.0577,0.2053,39.5100,90,97,160890
2.1212,0.2395,39.4100,90,97,160894
1.9844,0.2786,39.5100,90,97,160898
1.8573,0.2493,39.3800,90,97,160901
1.7644,0.2248,39.4800,90,97,160904
1.8133,0.2151,39.4800,90,97,160908
1.9159,0.2102,39.4400,90,97,160911
1.9306,0.2102,39.4800,90,97,160914
1.8084,0.2493,39.3200,90,97,160918
1.6422,0.2395,39.5100,90,97,160921
1.6178,0.2297,39.5700,90,97,160924
1.7107,0.2444,39.4100,90,97,160928
1.6031,0.2297,39.4800,90,97,160932
1.7009,0.2102,39.5100,90,97,160936
1.8671,0.2346,39.3200,90,97,160940
1.8377,0.2493,39.4800,90,97,160943
1.7204,0.2444,39.3800,90,97,160947
1.6031,0.2395,39.5100,90,97,160950
1.6129,0.2248,39.4800,90,97,160953
1.7595,0.2151,39.3500,90,97,160957
1.8719,0.2102,39.7300,90,97,160960
1.9550,0.2395,39.3500,90,97,160963
1.9110,0.2444,39.5100,90,97,160966
1.9844,0.2395,39.5100,90,97,160970
2.1896,0.2248,39.4400,90,97,160973
2.4389,0.2053,39.5100,90,97,160976
2.6686,0.2151,39.4100,90,97,160980
2.6051,0.2395,39.5100,90,97,160984
2.4047,0.2444,39.4800,90,97,160987
2.1896,0.2444,39.3200,90,97,160991
2.0430,0.2248,39.4800,90,97,160994
1.9746,0.2151,39.2800,90,97,160997
1.8817,0.2199,39.3800,90,97,161001
1.7107,0.2395,39.5100,90,97,161004
1.5298,0.2542,39.4100,90,97,161007
1.4076,0.2297,39.4800,90,97,161010
1.4956,0.2297,39.2200,90,97,161014
1.6031,0.2395,39.4100,90,97,161017
1.6862,0.2151,39.5100,90,97,161020
1.6471,0.2444,39.5100,90,97,161025
1.5298,0.2444,39.5400,90,97,161028
1.5347,0.2493,39.2800,90,97,161031
1.5640,0.2151,39.3800,90,97,161035
1.7009,0.2053,39.8900,90,97,161038
1.7742,0.2248,39.4800,90,97,161041
1.7204,0.2444,39.5100,90,97,161045
1.6276,0.2688,39.3800,90,97,161048
1.5640,0.2346,39.4800,90,97,161051
1.6667,0.2151,39.4400,90,97,161055
1.7742,0.2053,39.6000,90,97,161058
1.8377,0.2248,39.5100,90,97,161061
1.7937,0.2835,39.3800,90,97,161064
1.6520,0.2444,39.4800,90,97,161069
1.6471,0.2346,39.3500,90,97,161072
1.7009,0.2151,39.4400,90,97,161075
1.8280,0.2102,39.4800,90,97,161079
1.8964,0.2346,39.3800,90,97,161082
1.7937,0.2444,39.6000,90,97,161085
1.7058,0.2444,39.3800,90,97,161089
1.6667,0.2297,39.4400,90,97,161092
1.7595,0.2102,39.7300,90,97,161095
1.8915,0.2151,39.4800,90,97,161099
1.9159,0.2297,39.5400,90,97,161102
1.8573,0.2639,39.2500,90,97,161105
1.7058,0.2395,39.4800,90,97,161108
1.7009,0.2297,39.5100,90,97,161113
1.8084,0.2151,39.4800,90,97,161116
1.9208,0.2102,39.5100,90,97,161119
2.0039,0.2542,39.3200,90,97,161123
1.8573,0.2639,39.4400,90,97,161126
1.7400,0.2297,39.4400,90,97,161129
1.7498,0.2297,39.5100,90,97,161133
1.8622,0.2297,39.5100,90,97,161136
2.0283,0.2199,39.3200,90,97,161139
2.0088,0.2395,39.4400,90,97,161143
1.8964,0.2444,39.4100,90,97,161146
1.7889,0.2395,39.3200,90,97,161149
1.8133,0.2248,39.5100,90,97,161153
1.9697,0.2199,39.3800,90,97,161157
2.0528,0.2151,39.5400,90,97,161160
2.0723,0.2346,39.3800,90,97,161163
1.9355,0.2493,39.5100,90,97,161167
1.8475,0.2346,39.5100,90,97,161170
1.8964,0.2248,39.4800,90,97,161173
2.0137,0.2102,39.6000,90,97,161177
2.1505,0.2151,39.3500,90,97,161180
2.0968,0.2395,39.5100,90,97,161183
1.9795,0.2493,39.5100,90,97,161187
1.9208,0.2444,39.4100,90,97,161190
1.9550,0.2199,39.5100,90,97,161193
2.1163,0.2151,39.2800,90,97,161197
2.1750,0.2102,39.4100,90,97,161201
2.1261,0.2297,39.5400,90,97,161204
2.0137,0.2639,39.4800,90,97,161207
1.9257,0.2297,39.5100,90,97,161211
2.0283,0.2297,39.3800,90,97,161214
2.1065,0.2053,39.3800,90,97,161217
2.1652,0.2199,39.4800,90,97,161221
2.1017,0.2444,39.4800,90,97,161224
1.9648,0.2444,39.1200,90,97,161227
1.9453,0.2542,39.3200,90,97,161231
1.9404,0.2199,39.4400,90,97,161234
2.0528,0.2053,39.4100,90,97,161238
2.0919,0.2248,39.4800,90,97,161241
1.9892,0.2444,39.4800,90,97,161245
1.8671,0.2639,39.4100,90,97,161248
1.7644,0.2346,39.4800,90,97,161251
1.8280,0.2151,39.3800,90,97,161255
1.9062,0.2102,39.5100,90,97,161258
1.9355,0.2248,39.5100,90,97,161261
1.8622,0.2639,39.3800,90,97,161265
1.6911,0.2444,38.6500,90,97,161268
1.6667,0.2151,39.3800,90,97,161271
1.7058,0.2151,39.4400,90,97,161275
1.8231,0.2053,39.5100,90,97,161278
1.8817,0.2346,39.3500,90,97,161282
1.7644,0.2542,39.4800,90,97,161286
1.6716,0.2493,39.2800,90,97,161289
1.6178,0.2248,39.4100,90,97,161292
1.7058,0.2004,39.5100,90,97,161295
1.8231,0.2102,39.4400,90,97,161299
1.8768,0.2346,39.5100,90,97,161302
1.7889,0.2542,39.3200,90,97,161305
1.6325,0.2395,39.4800,90,97,161309
1.6276,0.2248,39.4800,90,97,161312
1.7351,0.2248,39.5100,90,97,161315
1.8573,0.2151,39.5100,90,97,161319
1.9257,0.2493,39.4400,90,97,161323
1.7742,0.2542,39.4100,90,97,161326
1.6520,0.2395,39.4400,90,97,161330
1.6618,0.2248,39.4800,90,97,161333
1.7498,0.2151,39.4800,90,97,161336
1.9062,0.2248,39.3500,90,97,161340
1.8817,0.2395,39.5100,90,97,161343
1.7791,0.2493,39.4400,90,97,161346
1.6569,0.2444,39.5700,90,97,161350
1.6716,0.2248,39.5100,90,97,161353
1.8133,0.2151,39.3800,90,97,161356
1.8915,0.2151,39.5100,90,97,161359
1.9062,0.2395,39.3800,90,97,161363
1.7595,0.2444,39.4400,90,97,161367
1.6716,0.2395,39.4800,90,97,161370
1.7204,0.2248,39.4800,90,97,161374
1.8328,0.1906,39.4800,90,97,161377
1.9599,0.2151,39.2800,90,97,161380
1.9013,0.2444,39.4800,90,97,161384
1.7889,0.2444,39.5100,90,97,161387
1.7253,0.2590,39.4400,90,97,161390
1.7546,0.2102,39.4800,90,97,161394
1.9257,0.2199,39.2500,90,97,161397
1.9844,0.2248,39.4100,90,97,161400
1.9159,0.2395,39.5400,90,97,161404
1.7986,0.2493,39.4400,90,97,161408
1.7155,0.2395,39.5400,90,97,161411
1.8573,0.2346,39.4400,90,97,161414
1.9110,0.2151,39.4400,90,97,161418
1.9746,0.2248,39.4800,90,97,161421
1.9208,0.2493,39.5100,90,97,161424
1.7742,0.2493,39.5100,90,97,161428
1.7498,0.2395,39.3500,90,97,161431
1.7986,0.2151,39.4800,90,97,161434
1.9453,0.2102,39.4100,90,97,161438
1.9844,0.2248,39.5700,90,97,161441
1.9159,0.2395,39.4800,90,97,161444
1.7840,0.2493,39.3800,90,97,161448
1.7302,0.2346,39.4800,90,97,161452
1.8426,0.2151,39.3800,90,97,161455
1.9306,0.2102,39.4800,90,97,161459
1.9795,0.2297,39.5100,90,97,161462
1.9159,0.2542,39.4100,90,97,161465
1.7693,0.2444,39.4800,90,97,161469
1.7889,0.2297,39.2800,90,97,161472
1.8719,0.2151,39.4100,90,97,161475
1.9941,0.2102,39.4800,90,97,161478
2.0577,0.2346,39.4100,90,97,161482
1.9404,0.2444,39.5100,90,97,161485
1.8817,0.2542,39.2800,90,97,161488
1.8475,0.2297,39.3800,90,97,161492
1.9404,0.2053,39.5100,90,97,161496
2.0723,0.2102,39.4800,90,97,161499
2.0968,0.2297,39.5700,90,97,161503
2.0626,0.2737,39.3200,90,97,161506
1.9110,0.2444,39.5400,90,97,161509
1.9208,0.2248,39.5100,90,97,161513
2.0186,0.2102,39.4800,90,97,161516
2.1359,0.2151,39.4800,90,97,161519
2.1603,0.2297,39.3500,90,97,161522
2.0039,0.2493,39.7000,90,97,161526
1.8964,0.2444,39.4100,90,97,161529
1.8817,0.2248,39.5100,90,97,161532
1.9746,0.2102,39.5100,90,97,161537
2.0919,0.2248,39.3200,90,97,161540
1.8524,0.2151,39.3800,90,97,161545
1.9159,0.2151,39.5100,90,97,161548
1.8817,0.2444,39.2800,90,97,161551
1.7302,0.2542,39.4400,90,97,161555
1.6178,0.2346,39.6000,90,97,161558
1.6520,0.2590,39.5100,90,97,161561
1.7546,0.2053,39.4800,90,97,161565
1.8866,0.2297,39.2500,90,97,161568
1.7840,0.2297,39.4800,90,97,161571
1.6618,0.2444,39.6000,90,97,161574
1.5982,0.2444,39.4800,90,97,161579
1.6422,0.1906,39.5100,90,97,161582
1.8182,0.2248,39.3200,90,97,161585
1.8622,0.2297,39.4400,90,97,161589
1.7986,0.2444,39.4100,90,97,161592
1.6667,0.2493,39.7000,90,97,161595
1.6129,0.2248,39.5100,90,97,161599
1.7498,0.2248,39.3200,90,97,161602
1.9306,0.2102,39.5700,90,97,161605
2.1310,0.2297,39.3800,90,97,161609
2.1945,0.2688,39.4800,90,97,161612
2.2434,0.2444,39.5100,90,97,161615
2.3851,0.2444,38.7100,90,97,161618
2.5073,0.2151,39.4800,90,97,161623
2.6637,0.2151,39.3800,90,97,161626
2.6051,0.2297,39.4800,90,97,161629
2.3460,0.2444,39.5100,90,97,161633
2.0528,0.2493,39.4100,90,97,161636
1.8475,0.2346,39.4800,90,97,161639
1.7644,0.2151,39.3200,90,97,161643
1.7351,0.2102,39.5100,90,97,161646
1.7009,0.2542,39.5100,90,97,161649
1.6031,0.2493,39.4400,90,97,161653
1.5005,0.2444,39.4800,90,97,161656
1.5054,0.2297,39.2500,90,97,161659
1.5689,0.2151,39.5100,90,97,161664
1.6813,0.2102,39.4800,90,97,161667
1.7400,0.2346,39.4400,90,97,161670
1.6276,0.2444,39.5100,90,97,161673
1.5738,0.2639,39.2500,90,97,161677
1.5494,0.2395,39.4100,90,97,161680
1.6471,0.2053,39.4400,90,97,161683
1.7644,0.2102,39.5100,90,97,161687
1.7791,0.2297,39.5400,90,97,161690
1.7155,0.2786,39.3500,90,97,161693
1.5738,0.2444,39.4800,90,97,161697
1.5982,0.2297,39.3800,90,97,161700
1.6960,0.2151,39.5700,90,97,161703
1.8133,0.2151,39.5100,90,97,161708
1.8426,0.2444,39.0600,90,97,161711
1.7155,0.2542,39.4800,90,97,161714
1.6422,0.2493,39.3800,90,97,161717
1.6422,0.2248,39.4800,90,97,161721
1.7889,0.1906,39.5100,90,97,161724
1.8866,0.2248,39.4100,90,97,161727
1.8426,0.2395,39.5400,90,97,161731
1.7840,0.2542,39.3200,90,97,161734
1.6471,0.2395,39.3800,90,97,161737
1.6813,0.2395,39.5400,90,97,161741
1.8280,0.1906,39.4100,90,97,161744
1.9404,0.2151,39.5100,90,97,161747
1.9306,0.2493,39.2500,90,97,161752
1.7742,0.2444,39.4100,90,97,161755
1.6911,0.2346,39.5400,90,97,161758
1.7400,0.2199,39.5100,90,97,161762
1.8622,0.2053,39.5400,90,97,161765
2.0039,0.2297,39.3200,90,97,161768
1.9110,0.2444,39.4400,90,97,161771
1.7889,0.2444,39.4800,90,97,161775
1.7498,0.2346,39.4800,90,97,161778
1.7937,0.2151,39.5400,90,97,161781
1.9697,0.2199,39.3500,90,97,161785
2.0137,0.2297,39.4400,90,97,161788
1.9599,0.2737,39.4100,90,97,161792
1.8231,0.2444,39.4800,90,97,161796
1.7791,0.2346,39.5100,90,97,161799
1.8866,0.2248,39.3200,90,97,161802
1.9941,0.2199,39.4800,90,97,161806
2.0870,0.2346,39.3800,90,97,161809
1.9941,0.2444,39.4800,90,97,161812
1.8817,0.2444,39.4800,90,97,161816
1.8768,0.2346,39.3500,90,97,161819
1.9501,0.2102,39.5100,90,97,161822
2.1114,0.2102,39.3200,90,97,161825
2.1359,0.2297,39.5400,90,97,161829
2.0430,0.2688,39.5700,90,97,161832
1.9697,0.2493,39.4400,90,97,161836
1.9013,0.2297,39.5100,90,97,161840
2.0332,0.2199,38.4600,90,97,161843
2.1163,0.2053,39.5700,90,97,161846
2.1603,0.2346,39.4400,90,97,161850
2.0723,0.2297,39.4400,90,97,161853
1.9404,0.2444,39.5700,90,97,161856
1.9844,0.2395,39.1900,90,97,161860
2.0332,0.2151,39.5700,90,97,161863
2.1261,0.2053,39.4800,90,97,161866
2.1408,0.2493,39.5700,90,97,161869
2.0137,0.2444,39.4800,90,97,161873
1.9355,0.2590,39.3500,90,97,161876
1.8768,0.2346,39.4100,90,97,161880
1.9453,0.2102,39.4100,90,97,161884
2.0235,0.2102,39.5100,90,97,161887
2.0039,0.2346,39.5100,90,97,161890
1.8964,0.2542,39.3800,90,97,161894
1.7351,0.2444,39.4800,90,97,161897
1.7351,0.2297,39.3200,90,97,161900
1.7889,0.2102,39.5100,90,97,161904
1.9013,0.2102,39.5100,90,97,161907
1.8671,0.2395,39.4400,90,97,161910
1.7204,0.2493,39.4800,90,97,161913
1.6373,0.2395,39.3500,90,97,161917
1.6227,0.2248,39.5100,90,97,161921
1.7400,0.2053,39.5100,90,97,161924
1.8622,0.2248,39.4400,90,97,161928
1.8035,0.2395,39.5700,90,97,161931
1.7058,0.2542,39.2800,90,97,161934
1.6080,0.2444,39.4400,90,97,161938
1.6276,0.2199,39.4800,90,97,161941
1.7644,0.2151,39.4100,90,97,161944
1.8328,0.2151,39.5100,90,97,161948
1.8426,0.2493,39.2200,90,97,161951
1.7107,0.2542,39.3800,90,97,161954
1.5982,0.2297,39.5400,90,97,161958
1.6471,0.2199,39.4800,90,97,161961
1.7840,0.2053,39.5100,90,97,161965
1.9110,0.2590,39.3200,90,97,161968
1.8133,0.2444,39.4800,90,97,161972
1.6862,0.2639,39.4100,90,97,161975
1.6178,0.2346,39.4800,90,97,161978
1.6862,0.2151,39.5700,90,97,161982
1.8426,0.2248,39.4100,90,97,161985
1.8915,0.2297,39.4800,90,97,161988
1.8377,0.2493,39.3500,90,97,161992
1.6911,0.2493,39.5100,90,97,161995
1.6471,0.2297,39.3800,90,97,161998
1.7498,0.2199,39.3800,90,97,162002
1.8524,0.2053,39.4800,90,97,162006
1.9453,0.2346,39.3800,90,97,162009
1.8231,0.2444,39.5700,90,97,162013
1.7107,0.2444,39.5100,90,97,162016
1.6862,0.2444,39.3800,90,97,162019
1.7498,0.2151,39.5100,90,97,162023
1.9159,0.2102,39.2800,90,97,162026
1.9355,0.2297,39.4400,90,97,162029
1.8328,0.2444,39.5400,90,97,162032
1.7302,0.2493,39.4800,90,97,162036
1.6960,0.2297,39.5400,90,97,162039
1.8377,0.2199,39.1900,90,97,162042
1.9159,0.2053,39.4100,90,97,162046
1.9453,0.2542,39.5100,90,97,162050
1.8524,0.2493,39.6000,90,97,162053
1.7644,0.2395,39.5100,90,97,162057
1.7742,0.2493,39.2500,90,97,162060
1.8426,0.2297,39.4400,90,97,162063
1.9501,0.2639,39.4400,90,97,162067
1.9599,0.2346,39.4800,90,97,162070
1.8426,0.2444,39.5700,90,97,162073
1.7742,0.2297,39.3200,90,97,162077
1.7498,0.2297,39.4400,90,97,162080
1.8719,0.2151,39.3500,90,97,162083
1.9599,0.2151,39.4800,90,97,162086
1.9599,0.2346,39.5100,90,97,162091
1.8671,0.2542,39.4100,90,97,162094
1.7449,0.2297,39.5100,90,97,162097
1.7889,0.2248,39.3500,90,97,162101
1.8671,0.2102,39.5100,90,97,162104
1.9697,0.2395,39.5100,90,97,162107
1.9648,0.2395,39.4400,90,97,162111
1.8328,0.2444,39.5100,90,97,162114
1.7840,0.2297,39.3500,90,97,162117
1.7986,0.2346,39.4800,90,97,162121
1.9306,0.1955,39.5400,90,97,162124
2.0626,0.2297,39.4400,90,97,162127
2.0088,0.2346,39.5400,90,97,162131
1.9404,0.2639,39.2500,90,97,162135
1.8475,0.2395,39.4400,90,97,162138
1.8964,0.2151,39.5100,90,97,162141
2.0381,0.2102,39.3500,90,97,162145
2.1261,0.2199,39.5700,90,97,162148
2.1457,0.2590,39.2500,90,97,162151
2.1408,0.2346,39.6700,90,97,162156
2.0332,0.2444,39.5100,90,97,162159
1.9208,0.2493,39.3500,90,97,162163
1.8133,0.2297,39.6400,90,97,162166
1.8573,0.2151,39.5100,90,97,162169
1.9648,0.2102,39.4100,90,97,162173
1.9746,0.2248,39.5100,90,97,162177
1.8866,0.2493,39.3500,90,97,162180
1.7351,0.2444,39.5100,90,97,162184
1.6422,0.2297,39.5100,90,97,162187
1.7253,0.2248,39.4100,90,97,162190
1.8231,0.2102,39.4800,90,97,162194
1.8866,0.2346,39.3200,90,97,162197
1.7595,0.2542,39.4100,90,97,162200
1.6227,0.2444,39.5400,90,97,162203
1.6031,0.2444,39.5100,90,97,162207
1.6911,0.2053,39.5100,90,97,162210
1.8475,0.2248,39.1900,90,97,162213
1.8475,0.2346,39.3800,90,97,162217
1.7253,0.2444,39.4400,90,97,162221
1.6178,0.2297,39.4800,90,97,162224
1.6031,0.2297,39.5100,90,97,162228
1.7498,0.2248,39.3800,90,97,162231
1.8280,0.2151,39.5100,90,97,162234
1.8622,0.2346,39.4100,90,97,162238
1.7498,0.2444,39.4800,90,97,162241
1.6911,0.2395,39.6000,90,97,162244
1.8133,0.2346,39.4100,90,97,162248
2.0528,0.2102,39.4800,90,97,162251
2.3460,0.2102,39.3500,90,97,162254
2.4780,0.2346,39.5100,90,97,162257
2.4927,0.2444,39.4800,90,97,162262
2.4682,0.2493,39.3500,90,97,162265
2.3998,0.2248,39.4100,90,97,162268
2.4096,0.2102,39.3800,90,97,162272
2.3069,0.2151,39.3800,90,97,162275
2.1065,0.2395,39.5400,90,97,162278
1.8426,0.2542,39.4400,90,97,162282
1.5836,0.2786,39.5100,90,97,162285
1.5347,0.2297,39.2800,90,97,162288
1.5738,0.2151,39.1600,90,97,162292
1.6618,0.2151,39.5700,90,97,162295
1.6520,0.2542,39.4800,90,97,162298
1.5347,0.2444,38.6800,90,97,162302
1.5054,0.2688,39.2200,90,97,162306
1.5200,0.2199,39.4400,90,97,162309
1.6422,0.2004,39.2500,90,97,162312
1.7595,0.2248,39.4800,90,97,162316
1.7155,0.2395,39.6000,90,97,162319
1.6520,0.2493,39.3200,90,97,162322
1.5543,0.2395,39.5400,90,97,162326
1.6129,0.2151,39.4100,90,97,162329
1.7400,0.2151,39.4800,90,97,162332
1.8182,0.2248,39.5100,90,97,162336
1.7937,0.2542,39.3500,90,97,162339
1.6471,0.2493,39.5100,90,97,162342
1.6031,0.2395,39.3500,90,97,162347
1.6471,0.2151,39.4800,90,97,162350
1.7840,0.2053,39.5100,90,97,162353
1.8768,0.2297,39.3800,90,97,162357
1.7840,0.2444,39.4100,90,97,162360
1.7253,0.2444,39.3800,90,97,162363
1.6227,0.2297,39.5700,90,97,162366
1.7009,0.2493,39.5700,90,97,162370
1.8377,0.2102,39.5100,90,97,162373
1.8915,0.2542,39.4100,90,97,162376
1.8475,0.2493,39.2800,90,97,162380
1.7107,0.2395,39.5700,90,97,162383
1.6813,0.2297,39.5100,90,97,162386
1.7693,0.2199,39.5700,90,97,162391
1.8817,0.2199,39.5400,90,97,162394
1.9795,0.2346,39.3200,90,97,162397
1.8573,0.2297,39.4400,90,97,162401
1.7302,0.2542,39.5700,90,97,162404
1.7302,0.2297,39.4800,90,97,162407
1.8182,0.2102,38.7100,90,97,162410
2.0039,0.2297,39.3500,90,97,162414
1.9941,0.2395,39.3800,90,97,162417
1.8768,0.2395,39.4100,90,97,162420
1.7644,0.2444,39.4800,90,97,162424
1.7644,0.2297,39.5700,90,97,162427
1.9013,0.2248,39.3500,90,97,162430
2.0283,0.2102,39.5100,90,97,162435
2.0332,0.2346,39.3800,90,97,162438
1.9062,0.2493,39.5100,90,97,162441
1.8280,0.2395,39.5100,90,97,162445
1.8377,0.2297,39.4800,90,97,162448
1.9355,0.2102,39.5100,90,97,162451
2.0870,0.2199,39.3800,90,97,162454
2.0626,0.2590,39.5700,90,97,162458
1.9501,0.2444,39.5100,90,97,162461
1.8866,0.2493,39.5700,90,97,162464
1.8915,0.2297,39.5100,90,97,162468
2.0528,0.2151,39.3200,90,97,162471
2.1310,0.2151,39.4100,90,97,162475
2.1114,0.2297,39.5100,90,97,162479
2.0137,0.2639,39.3500,90,97,162482
1.9110,0.2395,39.5100,90,97,162485
1.9844,0.2297,39.4400,90,97,162489
2.0723,0.2151,39.4100,90,97,162492
2.1505,0.2151,39.5100,90,97,162495
2.1261,0.2444,39.4800,90,97,162498
1.9844,0.2444,39.5400,90,97,162502
1.9550,0.2542,39.2500,90,97,162505
1.9306,0.2199,39.3800,90,97,162508
2.0381,0.2004,39.5100,90,97,162512
2.1114,0.2248,39.4800,90,97,162515
2.0430,0.2395,39.5100,90,97,162519
1.9404,0.2639,39.2800,90,97,162523
1.8084,0.2395,39.4800,90,97,162526
1.8622,0.2102,39.3800,90,97,162529
1.9257,0.2053,39.5100,90,97,162533
1.9697,0.2199,39.5100,90,97,162536
1.9257,0.2542,39.3500,90,97,162539
1.7449,0.2493,39.5700,90,97,162543
1.6813,0.2346,39.3500,90,97,162546
1.7009,0.2151,39.5100,90,97,162549
1.8084,0.2053,39.5100,90,97,162552
1.8915,0.2297,39.4100,90,97,162556
1.7840,0.2542,39.4800,90,97,162560
1.6813,0.2395,39.3500,90,97,162563
1.6031,0.2297,39.5100,90,97,162567
1.6716,0.2444,39.5700,90,97,162570
1.7986,0.2102,39.4100,90,97,162573
1.8426,0.2346,39.5100,90,97,162577
1.7889,0.2542,39.3200,90,97,162580
1.6227,0.2395,39.4800,90,97,162583
1.5934,0.2297,39.6400,90,97,162587
1.6911,0.2199,39.4100,90,97,162590
1.8084,0.2102,39.5100,90,97,162593
1.9013,0.2346,39.1900,90,97,162596
1.7693,0.2493,39.3500,90,97,162600
1.6422,0.2444,39.5100,90,97,162604
1.6373,0.2297,39.3500,90,97,162607
1.7155,0.2102,39.4800,90,97,162611
1.8866,0.2297,39.3800,90,97,162614
1.8768,0.2395,39.4400,90,97,162617
1.7644,0.2444,39.4800,90,97,162621
1.6471,0.2395,39.5700,90,97,162624
1.6422,0.2248,39.6000,90,97,162627
1.7693,0.2199,39.3500,90,97,162631
1.8671,0.2102,39.5400,90,97,162634
1.9306,0.2346,39.3500,90,97,162637
1.7742,0.2444,39.4800,90,97,162641
1.6667,0.2395,39.5400,90,97,162644
1.6862,0.2297,39.4400,90,97,162648
1.7889,0.2151,39.4400,90,97,162651
1.9208,0.2102,39.3800,90,97,162655
1.8817,0.2444,39.5400,90,97,162658
1.7693,0.2444,39.5100,90,97,162661
1.6960,0.2542,39.3500,90,97,162665
1.6960,0.2248,39.5100,90,97,162668
1.8475,0.2102,39.2800,90,97,162671
1.9404,0.2199,39.4800,90,97,162675
1.9013,0.2346,39.5100,90,97,162678
1.7986,0.2542,39.3800,90,97,162681
1.6911,0.2444,39.4800,90,97,162685
1.7693,0.2346,39.2500,90,97,162689
1.8524,0.2053,39.4400,90,97,162692
1.9404,0.2151,39.5400,90,97,162696
1.9013,0.2590,39.5100,90,97,162699
1.7791,0.2542,39.5100,90,97,162702
1.7400,0.2590,39.4100,90,97,162705
1.7449,0.2151,39.4400,90,97,162709
1.8719,0.2053,39.4100,90,97,162712
1.9550,0.2248,39.5100,90,97,162715
1.9013,0.2395,39.5100,90,97,162719
1.8084,0.2590,39.3800,90,97,162722
1.7204,0.2346,39.5400,90,97,162725
1.7840,0.2199,39.8000,90,97,162729
1.8866,0.1955,39.5700,90,97,162733
1.9550,0.2151,39.5100,90,97,162736
1.9257,0.2590,39.3500,90,97,162740
1.7595,0.2493,39.4800,90,97,162743
1.7302,0.2297,39.4100,90,97,162746
1.7693,0.2102,39.5700,90,97,162749
1.8915,0.2053,39.5100,90,97,162753
1.9599,0.2248,39.4100,90,97,162756
1.8671,0.2444,39.5100,90,97,162759
1.7693,0.2493,39.3200,90,97,162763
1.9501,0.2688,39.2500,91,97,162767
1.7937,0.2444,39.4800,91,97,162771
1.7840,0.2248,39.5100,91,97,162775
1.8915,0.2151,39.5100,91,97,162778
2.0186,0.2004,39.5100,91,97,162782
2.1261,0.2493,39.3200,91,97,162785
1.9990,0.2835,39.4400,91,97,162788
1.8964,0.2395,39.4100,91,97,162792
1.8817,0.2297,39.4800,91,97,162795
1.9844,0.2102,39.5100,91,97,162798
2.1359,0.2199,39.3200,91,97,162802
2.1163,0.2346,39.5700,91,97,162805
2.0186,0.2542,39.3500,91,97,162808
1.8817,0.2395,39.5400,91,97,162811
1.8719,0.2248,39.5400,91,97,162816
1.9746,0.2102,38.5800,91,97,162819
2.0430,0.2102,39.6400,91,97,162822
2.0381,0.2346,39.3500,91,97,162826
1.8475,0.2444,39.4800,91,97,162829
1.7155,0.2395,39.4100,91,97,162832
1.7302,0.2248,39.4100,91,97,162836
1.7742,0.2053,39.4800,91,97,162839
1.8768,0.2102,39.3200,91,97,162842
1.8231,0.2346,39.3800,91,97,162846
1.6911,0.2542,39.5400,91,97,162849
1.6031,0.2444,39.4100,91,97,162852
1.6031,0.2248,39.5100,91,97,162855
1.7498,0.2199,39.2200,91,97,162860
1.8377,0.2248,39.4400,91,97,162863
1.7742,0.2297,39.4800,91,97,162866
1.6569,0.2542,39.4800,91,97,162870
1.5738,0.2346,39.6400,91,97,162873
1.6716,0.2395,39.3200,91,97,162876
1.7595,0.2102,39.4400,91,97,162880
1.8426,0.2199,39.4100,91,97,162883
1.7840,0.2786,39.4800,91,97,162886
1.6471,0.2395,39.4400,91,97,162890
1.6178,0.2444,39.3500,91,97,162893
1.6716,0.2199,39.5100,91,97,162896
1.8817,0.2102,39.3800,91,97,162900
2.0528,0.2102,39.4800,91,97,162904
2.1457,0.2444,39.6000,91,97,162907
2.2043,0.2395,39.4400,91,97,162910
2.2776,0.2346,39.5100,91,97,162914
2.4585,0.2248,39.3800,91,97,162917
2.5269,0.2102,39.4800,91,97,162920
2.4976,0.2297,39.5100,91,97,162924
2.3021,0.2297,39.4100,91,97,162927
1.9746,0.2542,39.5700,91,97,162930
1.7937,0.2346,39.2800,91,97,162934
1.7009,0.2151,39.3800,91,97,162937
1.6960,0.2053,39.5400,91,97,162940
1.6862,0.2346,39.4800,91,97,162945
1.5591,0.2395,39.5400,91,97,162948
1.4761,0.2542,39.2800,91,97,162951
1.4272,0.2248,39.4400,91,97,162955
1.5249,0.2102,39.5400,91,97,162958
1.6667,0.2102,39.4800,91,97,162961
1.7204,0.2297,39.4400,91,97,162964
1.6862,0.2737,39.2500,91,97,162968
1.5396,0.2444,39.3800,91,97,162971
1.5347,0.2297,39.4400,91,97,162974
1.6276,0.2102,39.5100,91,97,162978
1.7644,0.2053,39.5100,91,97,162981
1.8328,0.2444,39.4100,91,97,162984
1.7204,0.2493,39.5100,91,97,162989
1.6080,0.2444,39.4800,91,97,162992
1.5836,0.2102,39.5100,91,97,162995
1.6911,0.2102,39.5100,91,97,162999
1.8524,0.2199,39.3500,91,97,163002
1.8426,0.2346,39.4800,91,97,163005
1.7595,0.2542,39.4100,91,97,163008
1.6373,0.2346,39.4800,91,97,163012
1.6520,0.2248,39.5700,91,97,163015
1.7791,0.2102,39.4100,91,97,163018
1.8719,0.2102,39.5100,91,97,163022
1.9013,0.2395,39.3200,91,97,163025
1.7546,0.2395,39.4400,91,97,163028
1.6618,0.2297,39.5100,91,97,163033
1.7009,0.2297,39.5100,91,97,163036
1.8084,0.2102,39.5100,91,97,163039
1.9599,0.2248,39.3200,91,97,163043
1.8964,0.2297,39.4800,91,97,163046
1.7791,0.2444,39.5400,91,97,163049
1.7107,0.2297,39.4800,91,97,163053
1.7449,0.2444,39.4800,91,97,163056
1.9208,0.2199,39.2500,91,97,163059
1.9795,0.2053,39.4100,91,97,163062
1.9501,0.2395,39.4800,91,97,163066
1.8133,0.2493,39.4800,91,97,163069
1.7449,0.2346,39.5100,91,97,163073
1.8426,0.2297,39.3200,91,97,163077
1.9355,0.2102,39.4400,91,97,163080
2.0479,0.2199,39.3800,91,97,163083
1.9599,0.2395,39.5100,91,97,163087
1.8426,0.2933,39.4100,91,97,163090
1.8084,0.2395,39.4400,91,97,163093
1.8573,0.2151,39.6700,91,97,163097
2.0137,0.2151,39.3800,91,97,163100
2.0577,0.2444,39.4800,91,97,163103
1.9990,0.2493,39.5100,91,97,163107
1.8915,0.2493,39.4400,91,97,163110
1.8377,0.2639,39.5700,91,97,163113
1.9453,0.2151,39.3200,91,97,163117
2.0528,0.2053,39.5400,91,97,163121
2.1163,0.2248,39.5700,91,97,163124
2.0479,0.2542,39.4400,91,97,163127
1.9062,0.2444,39.5700,91,97,163131
1.9110,0.2346,39.2500,91,97,163134
1.9746,0.1906,39.4100,91,97,163137
2.0870,0.2004,39.5100,91,97,163141
2.1457,0.2297,39.4800,91,97,163144
2.0381,0.2444,39.5400,91,97,163147
1.9746,0.2493,39.1900,91,97,163151
1.8915,0.2542,39.3800,91,97,163154
1.9648,0.1955,39.4100,91,97,163158
2.0772,0.2102,39.4800,91,97,163162
2.1017,0.2297,39.5100,91,97,163165
2.0381,0.2639,39.3800,91,97,163168
1.8622,0.2444,39.4400,91,97,163171
1.8377,0.2297,39.3800,91,97,163175
1.9013,0.2102,39.4800,91,97,163178
1.9990,0.2151,39.4800,91,97,163181
2.0235,0.2444,39.4400,91,97,163185
1.8719,0.2444,39.6000,91,97,163188
1.7937,0.2444,39.3800,91,97,163191
1.7204,0.2248,39.4800,91,97,163195
1.8084,0.2053,39.5100,91,97,163198
1.9306,0.2199,39.4800,91,97,163202
1.8817,0.2346,39.4800,91,97,163206
1.7742,0.2444,39.4100,91,97,163209
1.6373,0.2444,39.4400,91,97,163212
1.6422,0.2199,39.4400,91,97,163215
1.7546,0.2102,39.5100,91,97,163219
1.8377,0.2102,39.5700,91,97,163222
1.8573,0.2444,39.2800,91,97,163225
1.6960,0.2444,39.4800,91,97,163229
1.6080,0.2395,39.5100,91,97,163232
1.6422,0.2297,39.5100,91,97,163235
1.7449,0.2102,39.4800,91,97,163239
1.9159,0.2248,39.2200,91,97,163243
1.8231,0.2346,39.7700,91,97,163246
1.7009,0.2395,39.4800,91,97,163250
1.6227,0.2395,38.7700,91,97,163253
1.6471,0.2151,39.5100,91,97,163256
1.8182,0.2248,39.2800,91,97,163260
1.8768,0.2248,39.4400,91,97,163263
1.8231,0.2395,39.4400,91,97,163266
1.6911,0.2542,39.4800,91,97,163269
1.6178,0.2297,39.5100,91,97,163273
1.7058,0.2248,39.3200,91,97,163276
1.8231,0.2004,39.4800,91,97,163279
1.9110,0.2199,39.4400,91,97,163283
1.8328,0.2444,39.5100,91,97,163287
1.7155,0.2395,39.4800,91,97,163290
1.6764,0.2395,39.8300,91,97,163294
1.7302,0.2151,39.5100,91,97,163297
1.8817,0.2102,39.4100,91,97,163300
1.9208,0.2199,39.4800,91,97,163304
1.8524,0.2444,39.5100,91,97,163307
1.7400,0.2444,39.4100,91,97,163310
1.6862,0.2346,39.5100,91,97,163313
1.7889,0.2151,39.2800,91,97,163317
1.8817,0.2053,39.5400,91,97,163320
1.9404,0.2248,39.5100,91,97,163323
1.9110,0.2444,39.4400,91,97,163328
1.7302,0.2444,39.5100,91,97,163331
1.7400,0.2395,39.2200,91,97,163334
1.8035,0.2151,39.4100,91,97,163338
1.9110,0.1906,39.5100,91,97,163341
1.9599,0.2297,39.4800,91,97,163344
1.8719,0.2444,39.4800,91,97,163348
1.7937,0.2639,39.2800,91,97,163351
1.7302,0.2346,39.4400,91,97,163354
1.8084,0.2053,39.4100,91,97,163358
1.9404,0.2102,39.5400,91,97,163361
1.9404,0.2297,39.5100,91,97,163364
1.8768,0.2590,39.3500,91,97,163367
1.7351,0.2395,39.4800,91,97,163372
1.7302,0.2297,39.4100,91,97,163375
1.8133,0.2102,39.4100,91,97,163378
1.7107,0.2248,39.5100,91,97,163383
1.8133,0.2053,39.5100,91,97,163386
1.9550,0.2199,39.0300,91,97,163390
1.9208,0.2542,39.5100,91,97,163393
1.8573,0.2493,39.2800,91,97,163396
1.7302,0.2444,39.4100,91,97,163400
1.7498,0.2199,39.5100,91,97,163403
1.8866,0.2102,39.4400,91,97,163406
1.9795,0.2151,39.5100,91,97,163410
2.0088,0.2493,39.1900,91,97,163414
1.8426,0.2297,39.4100,91,97,163417
1.7693,0.2346,39.4800,91,97,163421
1.8280,0.2248,39.5100,91,97,163424
1.9697,0.2004,39.5100,91,97,163427
2.1408,0.2395,39.3200,91,97,163430
2.0674,0.2444,39.4400,91,97,163434
1.9550,0.2444,39.4100,91,97,163437
1.8817,0.2297,39.5400,91,97,163440
1.9257,0.2151,39.4800,91,97,163444
2.0772,0.2199,39.4400,91,97,163447
2.1310,0.2199,39.4800,91,97,163450
2.0821,0.2444,39.3800,91,97,163454
1.9208,0.2737,39.5100,91,97,163458
1.8573,0.2346,39.5100,91,97,163461
1.9306,0.2248,39.3200,91,97,163465
2.0039,0.2248,39.4800,91,97,163468
2.0723,0.2395,39.3800,91,97,163471
1.9697,0.2444,39.4400,91,97,163474
1.7742,0.2493,39.6000,91,97,163478
1.7009,0.2346,39.4100,91,97,163481
1.7498,0.2151,39.5100,91,97,163484
1.8671,0.2151,39.3200,91,97,163488
1.8768,0.2248,39.7000,91,97,163491
1.7889,0.2444,39.5100,91,97,163494
1.6569,0.2493,39.4400,91,97,163499
1.6080,0.2395,39.5700,91,97,163502
1.7204,0.2493,39.2500,91,97,163505
1.7986,0.1906,39.4400,91,97,163509
1.8426,0.2248,39.4800,91,97,163512
1.7546,0.2639,39.5700,91,97,163515
1.6276,0.2444,39.5100,91,97,163519
1.6569,0.2444,39.2500,91,97,163522
1.7155,0.1906,39.4400,91,97,163525
1.8328,0.2004,39.4400,91,97,163528
1.8622,0.2297,39.4800,91,97,163532
1.7546,0.2444,39.5100,91,97,163535
1.6764,0.2297,39.3500,91,97,163538
1.6667,0.2297,39.4400,91,97,163543
1.8426,0.2151,39.4400,91,97,163546
2.0528,0.2102,39.4800,91,97,163549
2.2239,0.2346,39.5100,91,97,163553
2.3021,0.2493,39.4800,91,97,163556
2.3314,0.2395,39.4800,91,97,163559
2.4585,0.2297,39.4800,91,97,163563
2.5122,0.2151,39.4800,91,97,163566
2.5318,0.2102,39.5100,91,97,163569
2.3803,0.2297,39.5400,91,97,163573
2.0772,0.2493,39.5100,91,97,163576
1.8377,0.2395,39.3800,91,97,163579
1.6716,0.2248,39.4100,91,97,163582
1.6618,0.2004,39.5100,91,97,163587
1.7009,0.2248,39.4400,91,97,163590
1.6325,0.2346,39.5100,91,97,163593
1.5494,0.2542,39.2500,91,97,163597
1.4565,0.2444,39.4100,91,97,163600
1.4858,0.2199,39.6000,91,97,163603
1.6178,0.2053,39.5100,91,97,163607
1.7253,0.2199,39.5100,91,97,163610
1.7644,0.2590,39.2800,91,97,163613
1.6129,0.2639,39.4100,91,97,163617
1.5445,0.2346,39.4400,91,97,163620
1.5885,0.2199,39.4800,91,97,163623
1.7155,0.2297,39.4800,91,97,163628
1.8524,0.2297,39.3800,91,97,163631
1.7840,0.2444,39.5400,91,97,163634
1.6764,0.2493,39.3800,91,97,163637
1.6031,0.2297,39.4800,91,97,163641
1.6569,0.2151,39.4800,91,97,163644
1.7986,0.2053,39.4100,91,97,163647
1.8719,0.2248,39.5700,91,97,163651
1.8524,0.2542,39.4100,91,97,163654
1.6911,0.2395,39.5100,91,97,163657
1.6422,0.2346,39.5100,91,97,163661
1.7351,0.2199,39.4400,91,97,163664
1.8426,0.2151,39.5100,91,97,163667
1.9453,0.2346,39.3500,91,97,163672
1.8524,0.2444,39.4100,91,97,163675
1.7155,0.2444,39.5100,91,97,163678
1.6960,0.2395,39.4100,91,97,163682
1.7595,0.2151,39.4800,91,97,163685
1.9355,0.2297,39.2200,91,97,163688
1.9404,0.2248,39.4400,91,97,163691
1.8671,0.2444,39.5100,91,97,163695
1.7449,0.2395,39.5100,91,97,163698
1.7155,0.2297,39.5100,91,97,163701
1.8573,0.2297,39.2800,91,97,163705
1.9404,0.2151,39.4400,91,97,163708
1.9795,0.2346,39.4400,91,97,163712
1.8866,0.2444,39.4800,91,97,163716
1.7742,0.2297,39.5100,91,97,163719
1.8035,0.2786,39.4100,91,97,163722
1.8768,0.2151,39.5100,91,97,163726
2.0186,0.2151,39.3800,91,97,163729
2.0235,0.2297,39.3800,91,97,163732
1.9208,0.2542,39.4800,91,97,163736
1.8475,0.2542,39.3800,91,97,163739
1.8280,0.2248,39.4800,91,97,163742
1.9795,0.2151,39.3800,91,97,163746
2.0626,0.2004,39.4400,91,97,163749
2.0723,0.2346,39.4800,91,97,163752
1.9795,0.2493,39.3500,91,97,163756
1.8768,0.2395,39.4800,91,97,163760
1.9208,0.2297,39.3800,91,97,163763
2.0137,0.2053,39.4800,91,97,163766
2.1212,0.2102,39.4800,91,97,163770
2.1310,0.2444,39.4400,91,97,163773
1.9990,0.2444,39.5100,91,97,163776
1.9501,0.2493,39.2800,91,97,163780
1.9208,0.2199,39.4800,91,97,163783
2.0430,0.2004,39.5400,91,97,163786
2.1505,0.2199,39.4400,91,97,163789
2.1163,0.2395,39.5100,91,97,163793
2.0381,0.2884,39.3200,91,97,163796
1.9062,0.2395,39.4400,91,97,163800
1.9257,0.2199,39.4400,91,97,163804
2.0430,0.2151,39.4800,91,97,163807
2.1212,0.2151,39.4800,91,97,163810
2.1114,0.2493,39.3200,91,97,163814
1.9404,0.2444,39.4400,91,97,163817
1.8573,0.2346,39.3800,91,97,163820
1.8671,0.2199,39.5100,91,97,163824
1.9697,0.2053,39.4400,91,97,163827
2.0528,0.2297,39.4100,91,97,163830
1.9892,0.2444,39.5100,91,97,163834
1.8280,0.2493,39.4400,91,97,163837
1.7155,0.2444,39.5100,91,97,163841
1.7546,0.2151,39.5100,91,97,163844
1.8671,0.2102,39.4400,91,97,163848
1.9159,0.2248,39.5100,91,97,163851
1.8573,0.2493,39.3500,91,97,163854
1.6911,0.2444,39.5100,91,97,163858
1.6276,0.2346,39.4800,91,97,163861
1.7107,0.2199,39.5100,91,97,163864
1.8084,0.2199,39.5100,91,97,163868
1.9013,0.2346,39.2200,91,97,163871
1.7986,0.2542,39.3800,91,97,163874
1.6569,0.2444,39.5700,91,97,163878
1.6422,0.2444,39.4400,91,97,163881
1.7009,0.2102,39.5100,91,97,163885
1.8719,0.2102,39.1900,91,97,163889
1.8671,0.2297,39.3800,91,97,163892
1.7644,0.2639,39.4800,91,97,163895
1.6520,0.2444,39.4800,91,97,163898
1.6276,0.2297,39.4100,91,97,163902
1.7595,0.2542,39.3500,91,97,163905
1.8768,0.2151,39.4800,91,97,163908
1.8866,0.2346,39.4100,91,97,163912
1.7791,0.2493,39.4400,91,97,163915
1.6618,0.2297,39.5100,91,97,163918
1.6764,0.2395,39.4100,91,97,163922
1.7595,0.2346,39.4800,91,97,163926
1.8964,0.2199,39.4400,91,97,163929
1.8915,0.2297,39.4800,91,97,163933
1.7889,0.2444,39.4800,91,97,163936
1.7107,0.2493,39.3800,91,97,163939
1.6911,0.2395,39.4800,91,97,163943
1.8182,0.2151,39.3500,91,97,163946
1.9159,0.2102,39.4400,91,97,163949
1.9159,0.2346,39.5100,91,97,163952
1.8133,0.2590,39.4100,91,97,163956
1.7009,0.2395,39.5100,91,97,163959
1.7595,0.2639,39.2800,91,97,163962
1.8377,0.2004,39.4800,91,97,163966
1.9404,0.2151,39.5100,91,97,163970
1.9355,0.2395,39.5100,91,97,163973
1.7986,0.2346,39.4800,91,97,163977
1.7546,0.2493,39.1900,91,97,163980
1.7400,0.2297,39.4400,91,97,163983
1.8573,0.2053,39.4800,91,97,163987
1.9697,0.2248,39.4800,91,97,163990
1.8866,0.2102,39.3800,91,97,163995
1.9697,0.2199,39.5400,91,97,163998
1.9501,0.2542,39.4400,91,97,164001
1.7889,0.2493,39.4100,91,97,164005
1.7449,0.2395,39.4400,91,97,164008
1.7742,0.2102,39.4800,91,97,164012
1.9013,0.2004,39.5100,91,97,164015
1.9892,0.2248,39.3500,91,97,164019
1.9062,0.2542,39.5400,91,97,164022
1.7986,0.2297,39.3200,91,97,164025
1.7204,0.2297,39.4800,91,97,164029
1.7889,0.2395,39.4800,91,97,164032
1.9208,0.2151,39.4100,91,97,164035
1.9795,0.2297,39.5100,91,97,164039
1.9404,0.2542,39.3200,91,97,164042
1.7986,0.2395,39.4400,91,97,164045
1.7449,0.2346,39.5100,91,97,164049
1.8426,0.2151,39.4100,91,97,164052
1.9795,0.2004,39.5100,91,97,164056
2.0870,0.2444,39.2200,91,97,164059
1.9697,0.2297,39.4100,91,97,164063
1.8377,0.2395,39.4100,91,97,164066
1.8280,0.2346,39.2500,91,97,164069
1.9306,0.2102,39.4800,91,97,164073
2.1163,0.2199,39.3200,91,97,164076
2.1310,0.2346,39.4100,91,97,164079
2.0332,0.2395,39.4100,91,97,164083
1.9110,0.2444,39.4800,91,97,164086
1.8964,0.2248,39.4800,91,97,164089
2.0186,0.2199,39.3800,91,97,164093
2.1163,0.2151,39.4800,91,97,164097
2.1505,0.2297,39.3500,91,97,164100
2.0039,0.2444,39.5100,91,97,164103
1.8817,0.2395,39.4800,91,97,164107
1.8671,0.2297,38.8400,91,97,164110
1.9306,0.2102,39.5100,91,97,164113
2.0381,0.2102,39.3800,91,97,164117
1.9746,0.2346,39.5100,91,97,164120
1.8280,0.2444,39.5400,91,97,164123
1.7107,0.2493,39.3800,91,97,164127
1.6716,0.2248,38.7100,91,97,164130
1.7937,0.2151,39.3800,91,97,164133
1.8671,0.2199,39.3800,91,97,164137
1.8328,0.2444,39.4800,91,97,164141
1.7107,0.2493,39.4400,91,97,164144
1.5934,0.2395,39.5100,91,97,164148
1.6618,0.2346,39.2500,91,97,164151
1.7302,0.2053,39.3800,91,97,164154
1.8280,0.2102,39.5100,91,97,164157
1.8035,0.2395,39.5700,91,97,164161
1.6813,0.2444,39.6000,91,97,164164
1.6471,0.2688,39.3200,91,97,164167
1.6471,0.2199,39.4400,91,97,164171
1.7742,0.2004,39.4400,91,97,164174
1.8573,0.2199,39.4800,91,97,164177
1.8133,0.2395,39.5100,91,97,164182
1.7253,0.2297,39.4100,91,97,164185
1.6716,0.2395,39.4800,91,97,164188
1.8182,0.2151,39.3800,91,97,164192
2.0479,0.2053,39.5100,91,97,164195
2.2923,0.2199,39.6400,91,97,164198
2.4536,0.2542,39.3200,91,97,164201
2.4340,0.2493,39.4800,91,97,164205
2.4731,0.2346,39.3500,91,97,164208
2.4682,0.2151,39.4100,91,97,164211
2.4829,0.2151,39.5100,91,97,164215
2.3949,0.2297,39.3800,91,97,164218
2.1212,0.2444,39.7300,91,97,164221
1.8866,0.2493,39.3200,91,97,164226
1.6129,0.2297,39.5700,91,97,164229
1.5591,0.2151,39.4100,91,97,164232
1.6276,0.2248,39.4800,91,97,164236
1.6667,0.2346,39.5100,91,97,164239
1.6422,0.2590,39.2500,91,97,164242
1.4907,0.2444,39.4400,91,97,164246
1.4663,0.2297,39.4800,91,97,164249
1.5494,0.2151,39.3500,91,97,164252
1.6764,0.2053,39.5100,91,97,164256
1.7889,0.2493,39.2800,91,97,164259
1.6716,0.2493,39.5700,91,97,164262
1.5591,0.2395,39.4400,91,97,164265
1.5445,0.2297,39.4800,91,97,164270
1.6422,0.2102,39.5100,91,97,164273
1.7986,0.2346,39.3800,91,97,164276
1.8133,0.2346,39.4800,91,97,164280
1.7302,0.2493,39.4800,91,97,164283
1.6178,0.2444,39.5100,91,97,164286
1.5934,0.2346,39.5700,91,97,164290
1.7107,0.2151,39.3500,91,97,164293
1.8182,0.2102,39.4100,91,97,164296
1.8719,0.2444,39.3800,91,97,164300
1.7400,0.2444,39.5100,91,97,164303
1.6422,0.2395,39.5700,91,97,164306
1.6569,0.2346,39.4100,91,97,164310
1.7595,0.2102,39.5100,91,97,164314
1.9159,0.2151,39.3200,91,97,164317
1.8768,0.2346,39.3500,91,97,164320
1.7693,0.2444,39.5100,91,97,164324
1.6911,0.2444,39.6000,91,97,164327
1.7302,0.2248,39.5100,91,97,164330
1.8573,0.2248,39.2200,91,97,164334
1.9648,0.2248,39.4400,91,97,164337
1.9159,0.2297,39.5400,91,97,164340
1.8377,0.2493,39.4400,91,97,164344
1.7107,0.2395,39.5100,91,97,164347
1.7937,0.2444,39.2800,91,97,164350
1.8817,0.2151,39.4100,91,97,164355
1.9746,0.1906,39.4100,91,97,164358
1.9404,0.2395,39.7000,91,97,164361
1.8133,0.2444,39.5400,91,97,164364
1.7791,0.2297,39.3800,91,97,164368
1.7937,0.2199,39.5700,91,97,164371
1.9404,0.2053,39.4400,91,97,164374
2.0137,0.2199,39.5100,91,97,164378
1.9746,0.2444,39.5700,91,97,164381
1.8719,0.2542,39.4400,91,97,164384
1.7937,0.2346,39.4800,91,97,164388
1.8817,0.2199,39.3800,91,97,164391
1.9941,0.2053,39.4800,91,97,164395
2.0821,0.2199,39.5100,91,97,164399
2.0674,0.2542,39.1600,91,97,164402
1.9159,0.2542,39.4800,91,97,164405
1.8915,0.2346,39.3500,91,97,164408
1.9501,0.2151,38.7100,91,97,164412
2.0772,0.2102,39.5100,91,97,164415
2.1701,0.2395,39.3800,91,97,164418
2.0870,0.2444,39.4800,91,97,164422
2.0039,0.2542,39.3500,91,97,164425
1.9159,0.2248,39.4800,91,97,164428
1.9892,0.2151,39.5100,91,97,164432
2.1212,0.2151,39.4800,91,97,164435
2.1652,0.2248,39.4400,91,97,164439
2.1359,0.2590,39.1900,91,97,164443
1.9599,0.2444,39.4800,91,97,164446
1.9159,0.2248,39.4800,91,97,164449
1.9892,0.2151,39.5100,91,97,164452
2.1017,0.2102,39.4800,91,97,164456
2.1848,0.2493,39.4400,91,97,164459
2.0283,0.2444,39.4400,91,97,164462
1.8817,0.2444,39.4100,91,97,164466
1.8280,0.2346,39.4800,91,97,164469
1.8964,0.2151,39.4800,91,97,164472
2.0283,0.2297,39.3200,91,97,164476
2.0039,0.2346,39.4800,91,97,164480
1.8866,0.2493,39.3500,91,97,164483
1.7253,0.2444,39.5100,91,97,164487
1.6960,0.2297,39.5100,91,97,164490
1.7840,0.2151,39.5100,91,97,164493
1.8671,0.2102,39.5100,91,97,164496
1.8964,0.2346,39.8600,91,97,164500
1.7498,0.2444,39.5100,91,97,164503
1.6276,0.2395,39.5700,91,97,164506
1.6276,0.2493,39.4100,91,97,164510
1.7155,0.2053,39.5100,91,97,164513
1.8622,0.2248,39.2800,91,97,164516
1.8231,0.2346,39.5100,91,97,164520
1.7058,0.2444,39.4800,91,97,164524
1.6276,0.2493,39.4400,91,97,164527
1.6178,0.2248,39.5400,91,97,164531
1.7742,0.2199,39.2200,91,97,164534
1.8573,0.2199,39.3800,91,97,164537
1.8328,0.2297,39.5700,91,97,164540
1.7253,0.2493,39.4800,91,97,164544
1.6227,0.2346,39.5700,91,97,164547
1.7009,0.2297,39.2800,91,97,164550
1.7791,0.2151,39.4400,91,97,164554
1.8671,0.2151,39.4100,91,97,164557
1.8328,0.2444,39.4800,91,97,164560
1.7107,0.2444,39.5400,91,97,164564
1.6667,0.2444,39.3800,91,97,164568
1.6764,0.2102,39.4800,91,97,164571
1.8133,0.2102,39.3500,91,97,164575
1.8866,0.2199,39.4800,91,97,164578
1.8426,0.2395,39.2800,91,97,164581
1.7400,0.2297,39.4100,91,97,164585
1.6618,0.2395,39.4800,91,97,164588
1.7351,0.2297,39.3500,91,97,164591
1.8622,0.1906,39.5100,91,97,164594
1.9453,0.2248,39.5100,91,97,164598
1.8915,0.2542,38.6200,91,97,164601
1.9648,0.2346,39.4800,91,97,164606
1.8671,0.2444,39.4800,91,97,164610
1.7937,0.2639,39.2200,91,97,164613
1.7204,0.2346,39.4100,91,97,164617
1.7889,0.2053,39.6000,91,97,164620
1.9159,0.2102,39.5400,91,97,164623
1.9599,0.2297,39.2500,91,97,164627
1.9306,0.2688,39.3200,91,97,164630
1.7595,0.2493,38.7100,91,97,164633
1.7351,0.2248,39.5100,91,97,164637
1.8182,0.2102,39.4800,91,97,164640
1.9306,0.2102,39.5100,91,97,164643
1.9990,0.2444,39.4100,91,97,164646
1.8768,0.2493,39.3800,91,97,164651
1.7644,0.2444,39.3500,91,97,164654
1.7302,0.2639,39.4800,91,97,164657
1.8231,0.2151,39.5100,91,97,164661
1.9746,0.2248,39.3500,91,97,164664
1.9599,0.2297,39.7300,91,97,164667
1.8768,0.2542,39.4400,91,97,164671
1.7351,0.2395,39.5400,91,97,164674
1.7351,0.2493,39.5700,91,97,164677
1.8573,0.2151,39.3800,91,97,164681
1.9501,0.2102,39.5100,91,97,164684
1.9795,0.2395,39.2800,91,97,164687
1.8280,0.2395,39.4800,91,97,164691
1.7253,0.2395,39.5100,91,97,164695
1.7546,0.2297,39.4400,91,97,164698
1.8622,0.2004,39.5400,91,97,164701
2.0186,0.2248,39.2200,91,97,164705
1.9648,0.2395,39.4800,91,97,164708
1.8573,0.2444,39.6400,91,97,164711
1.7791,0.2395,39.4800,91,97,164715
1.8133,0.2248,39.4800,91,97,164718
1.9990,0.2297,39.2500,91,97,164721
2.0723,0.2297,39.4100,91,97,164725
2.0479,0.2346,39.4400,91,97,164728
1.9306,0.2493,39.7300,91,97,164731
1.8622,0.2395,39.5100,91,97,164736
1.9501,0.2346,39.3200,91,97,164739
2.0528,0.2102,39.4100,91,97,164742
2.1554,0.2199,39.7000,91,97,164746
2.0821,0.2346,39.5100,91,97,164749
1.9648,0.2542,39.5100,91,97,164752
1.8817,0.2688,39.4100,91,97,164755
1.9062,0.2248,39.5100,91,97,164759
2.0430,0.2102,39.3800,91,97,164762
2.0772,0.2248,39.4800,91,97,164765
1.9990,0.2395,39.5100,91,97,164769
1.8475,0.2493,39.5400,91,97,164772
1.7742,0.2346,39.5100,91,97,164775
1.7840,0.2199,39.3500,91,97,164780
1.8475,0.2102,39.5100,91,97,164783
1.8964,0.2248,39.6000,91,97,164786
1.8328,0.2835,39.4100,91,97,164789
1.6716,0.2444,39.5400,91,97,164793
1.6471,0.2395,39.2500,91,97,164796
1.6911,0.2102,39.4400,91,97,164799
1.7889,0.1906,39.5100,91,97,164803
1.8573,0.2297,39.5400,91,97,164806
1.7644,0.2444,39.4800,91,97,164809
1.6862,0.2297,39.1900,91,97,164813
1.6129,0.2395,39.3800,91,97,164816
1.7107,0.2004,39.4800,91,97,164819
1.8035,0.1906,39.5100,91,97,164824
1.8671,0.2102,39.5100,91,97,164827
1.8280,0.2639,39.3800,91,97,164830
1.6618,0.2395,39.4800,91,97,164834
1.6422,0.2297,39.4100,91,97,164837
1.7253,0.2151,39.4800,91,97,164840
1.8964,0.2102,39.5100,91,97,164843
2.0528,0.2395,39.4100,91,97,164847
2.0674,0.2493,39.4800,91,97,164850
2.1408,0.2493,39.3800,91,97,164853
2.2630,0.2297,39.5100,91,97,164857
2.4878,0.1906,39.4800,91,97,164860
2.7077,0.2199,39.3800,91,97,164864
2.6540,0.2297,39.4400,91,97,164868
2.4633,0.2542,39.4400,91,97,164871
2.1457,0.2395,39.3500,91,97,164874
1.9453,0.2248,39.5400,91,97,164878
1.8768,0.2151,39.3800,91,97,164881
1.8231,0.2151,39.4800,91,97,164884
1.7498,0.2395,39.2800,91,97,164887
1.5543,0.2493,39.5400,91,97,164891
1.4467,0.2395,39.5700,91,97,164894
1.4712,0.2444,39.4400,91,97,164897
1.5787,0.2151,39.5100,91,97,164901
1.7400,0.2542,39.2200,91,97,164904
1.7058,0.2395,39.4400,91,97,164908
1.5982,0.2444,39.4800,91,97,164912
1.5152,0.2444,39.5100,91,97,164915
1.5396,0.2199,39.5400,91,97,164918
1.7107,0.2395,39.2800,91,97,164922
1.7742,0.2199,39.4800,91,97,164925
1.7546,0.2444,39.4400,91,97,164928
1.6373,0.2493,39.5700,91,97,164932
1.5591,0.2395,39.5100,91,97,164935
1.6373,0.2346,39.3200,91,97,164938
1.7400,0.2199,39.5700,91,97,164941
1.8524,0.2248,39.3800,91,97,164945
1.7986,0.2444,39.4800,91,97,164948
1.6716,0.2444,39.5400,91,97,164952
1.6178,0.2395,39.4800,91,97,164956
1.6520,0.2102,39.5100,91,97,164959
1.8182,0.2151,39.4100,91,97,164962
1.8719,0.2199,39.5100,91,97,164966
1.8182,0.2444,39.5100,91,97,164969
1.7058,0.2493,39.4400,91,97,164972
1.6422,0.2346,38.6800,91,97,164976
1.7351,0.2199,38.6800,91,97,164979
1.8671,0.2004,39.5100,91,97,164982
1.9159,0.2248,39.4800,91,97,164985
1.8622,0.2493,39.4400,91,97,164989
1.7302,0.2395,39.4800,91,97,164993
1.7204,0.2444,39.5100,91,97,164996
1.7791,0.2199,39.3800,91,97,165000
1.8964,0.2151,39.5100,91,97,165003
1.9599,0.2297,39.4800,91,97,165006
1.8768,0.2444,39.5100,91,97,165010
1.8084,0.2688,39.2500,91,97,165013
1.7400,0.2395,39.3200,91,97,165016
1.8182,0.2102,39.4100,91,97,165020
1.9550,0.2102,39.5700,91,97,165023
2.0088,0.2297,39.4800,91,97,165026
1.9697,0.2639,39.4400,91,97,165029
1.8084,0.2493,39.4800,91,97,165033
1.8035,0.2297,39.3800,91,97,165037
1.8915,0.2102,39.7000,91,97,165040
2.0235,0.2102,39.4800,91,97,165044
2.0821,0.2346,39.4100,91,97,165047
1.9844,0.2493,39.4800,91,97,165050
1.8768,0.2493,39.3500,91,97,165054
1.8475,0.2199,39.5400,91,97,165057
1.9648,0.2102,39.5100,91,97,165060
2.1310,0.2248,39.4100,91,97,165064
2.1212,0.2297,39.4800,91,97,165067
2.0479,0.2493,39.3800,91,97,165070
1.9257,0.2297,39.4100,91,97,165073
1.9306,0.2297,39.4100,91,97,165078
2.0577,0.2151,39.4100,91,97,165081
2.1848,0.2151,39.4800,91,97,165084
2.1994,0.2297,39.2800,91,97,165088
2.0430,0.2493,39.4800,91,97,165091
1.9355,0.2444,39.4800,91,97,165094
1.9550,0.2297,39.4400,91,97,165098
2.0479,0.2102,39.4800,91,97,165101
2.2092,0.2248,39.2500,91,97,165104
2.1359,0.2395,39.4100,91,97,165108
2.0088,0.2542,39.4800,91,97,165111
1.9013,0.2297,39.5100,91,97,165114
1.9062,0.2248,39.4800,91,97,165117
2.0577,0.2590,39.3200,91,97,165122
2.0870,0.2297,39.4100,91,97,165125
2.0235,0.2395,39.4400,91,97,165128
1.8671,0.2493,39.4100,91,97,165132
1.7498,0.2395,39.5100,91,97,165135
1.7937,0.2297,39.3800,91,97,165138
1.8622,0.2151,39.4400,91,97,165142
1.9453,0.2151,39.3800,91,97,165145
1.8622,0.2297,39.5100,91,97,165148
1.7155,0.2493,39.5400,91,97,165152
1.6471,0.2444,39.4400,91,97,165155
1.6667,0.2199,39.5100,91,97,165158
1.8035,0.2151,39.3800,91,97,165161
1.8475,0.2248,39.4800,91,97,165166
1.8231,0.2395,39.5100,91,97,165169
1.6667,0.2493,39.6000,91,97,165172
1.5885,0.2346,39.5100,91,97,165176
1.6764,0.2199,39.3200,91,97,165179
1.7742,0.2053,39.4800,91,97,165182
1.8475,0.2248,39.3500,91,97,165186
1.8035,0.2639,39.4100,91,97,165189
1.6520,0.2444,39.4800,91,97,165192
1.6422,0.2493,39.2200,91,97,165196
1.6911,0.2199,39.4100,91,97,165199
1.8035,0.2053,39.5100,91,97,165202
1.8768,0.2297,39.5700,91,97,165207
1.7937,0.2444,39.4800,91,97,165210
1.7155,0.2688,39.2500,91,97,165213
1.7986,0.2590,39.4100,91,97,165218
1.6618,0.2444,39.4800,91,97,165221
1.6667,0.2346,39.3800,91,97,165225
1.7400,0.2004,39.4800,91,97,165228
1.8915,0.2151,39.5100,91,97,165231
1.9110,0.2297,39.4400,91,97,165234
1.7986,0.2493,39.6000,91,97,165238
1.7155,0.2493,39.3800,91,97,165241
1.6862,0.2297,39.4400,91,97,165244
1.7840,0.2102,39.4800,91,97,165249
1.9208,0.2199,39.3800,91,97,165252
1.9208,0.2346,39.5100,91,97,165255
1.8231,0.2542,39.2500,91,97,165259
1.7009,0.2444,39.3800,91,97,165262
1.7009,0.2248,39.5700,91,97,165265
1.8377,0.2199,39.4400,91,97,165269
1.9257,0.2102,39.5400,91,97,165272
1.9746,0.2493,39.2500,91,97,165275
1.8084,0.2444,39.4400,91,97,165278
1.7009,0.2346,39.4800,91,97,165282
1.7204,0.2297,39.5100,91,97,165285
1.8280,0.2053,39.4800,91,97,165288
1.9892,0.2444,39.2500,91,97,165293
1.9159,0.2444,39.4800,91,97,165296
1.7937,0.2688,39.4100,91,97,165299
1.6960,0.2395,39.5100,91,97,165303
1.7351,0.2199,39.5400,91,97,165306
1.8866,0.2199,39.4400,91,97,165309
1.9550,0.2297,39.4800,91,97,165313
1.9257,0.2395,39.3800,91,97,165316
1.7791,0.2493,39.4100,91,97,165319
1.7058,0.2346,39.5400,91,97,165322
1.7791,0.2297,39.3500,91,97,165326
1.8768,0.2102,39.1900,91,97,165329
1.9844,0.2297,39.4100,91,97,165332
1.9013,0.2493,39.4800,91,97,165337
1.7742,0.2444,39.5100,91,97,165340
1.7204,0.2395,39.3500,91,97,165343
1.7693,0.1906,39.4800,91,97,165347
1.9159,0.2151,39.3200,91,97,165350
1.9599,0.2248,38.7100,91,97,165353
1.8915,0.2493,39.4800,91,97,165357
1.7742,0.2493,39.4400,91,97,165360
1.7107,0.2346,39.4400,91,97,165363
1.8328,0.2248,39.2500,91,97,165367
1.9355,0.2053,39.4800,91,97,165370
2.0088,0.2248,39.5100,91,97,165373
1.9501,0.2493,39.5400,91,97,165377
1.8182,0.2444,39.4800,91,97,165381
1.8475,0.2493,39.2500,91,97,165384
1.9062,0.2151,39.4400,91,97,165387
2.0430,0.2004,39.4400,91,97,165391
2.1065,0.2346,39.4800,91,97,165394
2.0332,0.2444,39.4800,91,97,165397
1.9599,0.2639,39.3200,91,97,165401
1.9013,0.2346,39.3800,91,97,165404
1.9941,0.2151,39.5100,91,97,165407
2.0919,0.2102,39.5400,91,97,165411
2.1163,0.2297,39.5400,91,97,165414
2.0332,0.2493,39.3800,91,97,165417
1.8768,0.2444,39.5100,91,97,165421
1.8719,0.2639,39.3500,91,97,165425
1.9404,0.2102,39.4800,91,97,165428
2.0137,0.2151,39.5100,91,97,165431
2.0088,0.2346,39.4400,91,97,165435
1.8524,0.2493,39.5100,91,97,165438
1.7253,0.2346,39.4400,91,97,165441
1.6667,0.2297,39.7000,91,97,165445
1.7498,0.2102,39.5400,91,97,165448
1.8671,0.2199,39.4400,91,97,165451
1.8524,0.2346,39.5100,91,97,165455
1.7546,0.2542,39.4100,91,97,165458
1.6373,0.2493,39.4400,91,97,165462
1.6080,0.2248,39.5100,91,97,165465
1.7204,0.2199,39.4800,91,97,165469
1.8133,0.2151,39.4800,91,97,165472
1.8573,0.2493,39.3200,91,97,165475
1.6960,0.2493,39.4100,91,97,165479
1.6031,0.2444,39.4400,91,97,165482
1.6618,0.2297,39.4800,91,97,165485
1.7400,0.1906,39.4800,91,97,165489
1.8964,0.2346,39.3200,91,97,165492
1.8328,0.2444,39.7000,91,97,165495
1.7155,0.2493,39.4100,91,97,165499
1.6422,0.2395,39.5400,91,97,165502
1.7449,0.2248,39.4800,91,97,165506
2.0039,0.2151,39.4400,91,97,165510
2.2287,0.2297,39.5700,91,97,165513
2.3803,0.2395,39.3500,91,97,165516
2.3705,0.2493,39.5100,91,97,165519
2.3851,0.2346,39.5100,91,97,165523
2.4633,0.2297,39.3500,91,97,165526
2.4487,0.2102,39.5100,91,97,165529
2.3949,0.2248,39.3500,91,97,165533
2.1359,0.2395,39.4100,91,97,165536
1.8377,0.2444,39.5100,91,97,165539
1.6373,0.2395,39.3800,91,97,165543
1.5494,0.2199,39.5100,91,97,165547
1.6178,0.2102,39.2800,91,97,165550
1.6325,0.2248,39.4800,91,97,165554
1.5787,0.2884,39.4800,91,97,165557
1.4858,0.2493,39.4800,91,97,165560
1.4370,0.2346,39.6700,91,97,165563
1.5494,0.2199,39.1900,91,97,165567
1.6520,0.1906,39.4400,91,97,165570
1.7400,0.2102,39.5400,91,97,165573
1.6862,0.2493,39.4800,91,97,165577
1.5738,0.2395,39.5100,91,97,165580
1.5885,0.2493,39.2800,91,97,165583
1.6373,0.2590,39.4400,91,97,165587
1.7595,0.2199,39.4100,91,97,165591
1.8084,0.2346,39.5100,91,97,165594
1.7253,0.2444,39.5100,91,97,165598
1.6569,0.2493,39.3200,91,97,165601
1.5934,0.2297,39.4400,91,97,165604
1.6960,0.2199,39.3800,91,97,165608
1.8035,0.2297,39.5100,91,97,165611
1.8475,0.2346,39.4400,91,97,165614
1.7742,0.2542,39.4800,91,97,165617
1.6520,0.2542,39.4800,91,97,165621
1.6716,0.2395,39.3800,91,97,165624
1.7400,0.2102,39.5100,91,97,165627
1.8622,0.2248,39.4800,91,97,165632
1.8915,0.2444,39.4400,91,97,165635
1.7791,0.2297,39.6000,91,97,165638
1.6960,0.2493,39.2800,91,97,165642
1.6813,0.2297,39.5100,91,97,165645
1.7937,0.2102,39.5400,91,97,165648
1.9306,0.2199,39.4800,91,97,165652
1.9208,0.2444,39.4800,91,97,165655
1.8573,0.2590,39.2500,91,97,165658
1.7302,0.2493,39.3200,91,97,165661
1.7302,0.2346,39.5700,91,97,165665
1.8426,0.2102,39.4800,91,97,165668
1.9599,0.2102,39.5100,91,97,165671
2.0039,0.2590,39.2800,91,97,165676
1.8426,0.2590,39.3800,91,97,165679
1.7693,0.2395,39.4400,91,97,165682
1.7840,0.2248,39.4800,91,97,165686
1.9062,0.2102,39.4800,91,97,165689
2.0479,0.2346,39.3200,91,97,165692
1.9892,0.2444,39.4800,91,97,165696
1.8817,0.2297,39.4100,91,97,165699
1.7889,0.2395,39.4800,91,97,165702
1.8377,0.2199,39.5100,91,97,165705
1.9892,0.2151,39.5400,91,97,165709
2.0723,0.2199,39.6000,91,97,165712
2.0626,0.2493,39.3500,91,97,165715
1.9159,0.2493,39.4800,91,97,165720
1.8524,0.2395,39.5700,91,97,165723
1.9355,0.2297,39.3800,91,97,165726
2.0381,0.2102,39.4800,91,97,165730
2.1505,0.2248,38.4600,91,97,165733
2.0772,0.2444,39.4800,91,97,165736
1.9599,0.2395,39.4800,91,97,165740
1.9013,0.2395,39.3800,91,97,165743
1.9404,0.2102,39.4800,91,97,165746
2.1017,0.2151,39.2800,91,97,165749
2.1310,0.2297,39.4800,91,97,165753
2.0577,0.2395,39.4400,91,97,165756
1.9404,0.2493,39.5100,91,97,165760
1.8768,0.2346,39.5100,91,97,165764
1.9892,0.2346,39.2500,91,97,165767
2.0626,0.2102,39.4400,91,97,165770
2.1163,0.2248,39.4800,91,97,165774
2.0137,0.2493,39.3500,91,97,165777
1.8622,0.2444,39.4800,91,97,165780
1.8524,0.2493,39.2800,91,97,165784
1.8719,0.2199,39.4100,91,97,165787
1.9697,0.1955,39.4400,91,97,165790
1.9941,0.2346,39.4800,91,97,165793
1.8768,0.2444,39.4100,91,97,165797
1.7791,0.2493,39.3200,91,97,165800
1.6911,0.2346,39.5700,91,97,165804
1.7742,0.2151,39.3800,91,97,165808
1.8573,0.2248,39.5100,91,97,165811
1.8768,0.2346,39.5700,91,97,165814
1.7840,0.2542,39.4100,91,97,165818
1.6422,0.2542,39.4800,91,97,165821
1.6325,0.2297,39.3800,91,97,165824
1.6960,0.2102,39.2800,91,97,165828
1.5885,0.2248,39.4400,91,97,165832
1.7107,0.2053,39.7000,91,97,165836
1.8426,0.2199,39.4400,91,97,165839
1.8231,0.2688,39.4800,91,97,165842
1.7546,0.2493,39.2200,91,97,165846
1.6276,0.2493,39.4100,91,97,165850
1.6325,0.2199,39.4800,91,97,165853
1.7498,0.2151,39.5100,91,97,165856
1.8524,0.2151,39.5400,91,97,165860
1.8915,0.3079,39.3200,91,97,165863
1.7351,0.2542,39.4800,91,97,165866
1.6569,0.2395,39.3800,91,97,165870
1.6618,0.2248,39.4800,91,97,165873
1.7840,0.2102,39.5100,91,97,165876
1.9110,0.2297,39.3800,91,97,165880
1.8573,0.2444,39.5100,91,97,165883
1.7644,0.2542,39.3500,91,97,165886
1.6569,0.2444,39.4800,91,97,165891
1.7400,0.2199,39.5100,91,97,165894
1.8524,0.2151,39.4400,91,97,165897
1.9355,0.2199,39.4800,91,97,165900
1.9110,0.2444,39.4100,91,97,165904
1.7498,0.2493,39.5100,91,97,165907
1.6862,0.2346,39.4800,91,97,165910
1.7937,0.2199,39.3500,91,97,165914
1.8622,0.2102,39.4800,91,97,165917
1.9795,0.2297,39.2800,91,97,165920
1.8964,0.2542,39.3800,91,97,165924
1.7546,0.2444,39.5400,91,97,165927
1.7155,0.2395,39.4400,91,97,165931
1.7791,0.1906,39.5100,91,97,165935
1.9550,0.1906,39.2200,91,97,165938
1.9746,0.2297,39.4100,91,97,165941
1.8915,0.2639,39.4400,91,97,165945
1.7693,0.2493,39.5100,91,97,165948
1.7155,0.2297,39.4800,91,97,165951
1.8426,0.2346,39.3200,91,97,165954
1.9208,0.2102,39.4400,91,97,165958
1.9795,0.2297,39.4100,91,97,165961
1.8719,0.2639,39.5100,91,97,165964
1.7498,0.2444,39.5100,91,97,165968
1.7498,0.2493,39.3800,91,97,165971
1.8182,0.1906,39.4800,91,97,165975
1.9550,0.2102,39.3800,91,97,165979
1.9550,0.2297,39.4800,91,97,165982
1.8475,0.2444,39.6400,91,97,165985
1.7498,0.2590,39.3800,91,97,165989
1.7058,0.2297,39.5400,91,97,165992
1.8280,0.2102,39.3800,91,97,165995
1.9159,0.2004,39.5700,91,97,165999
1.9453,0.2346,39.5700,91,97,166002
1.8524,0.2493,39.3200,91,97,166005
1.7302,0.2395,39.5100,91,97,166008
1.7595,0.2346,39.2500,91,97,166012
1.8426,0.2102,39.3800,91,97,166016
1.9697,0.2102,39.7700,91,97,166019
2.0039,0.2395,39.4400,91,97,166023
1.9159,0.2493,39.4800,91,97,166026
1.8377,0.2542,39.2500,91,97,166029
1.8328,0.2199,39.4800,91,97,166033
1.9453,0.2151,39.5100,91,97,166036
2.0821,0.2199,39.5100,91,97,166039
2.0821,0.2444,39.5100,91,97,166043
2.0332,0.2688,39.2800,91,97,166046
1.9013,0.2493,39.4800,91,97,166049
1.9110,0.2248,39.4100,91,97,166052
2.0235,0.2102,39.4800,91,97,166056
2.1310,0.2151,39.5100,91,97,166060
2.1261,0.2493,39.3800,91,97,166063
1.9648,0.2493,39.4800,91,97,166067
1.8719,0.2444,39.3500,91,97,166070
1.8671,0.2248,39.5100,91,97,166073
1.9599,0.2004,39.5100,91,97,166077
2.0381,0.2297,39.4400,91,97,166080
1.9501,0.2444,39.4400,91,97,166083
1.8084,0.2835,39.3800,91,97,166087
1.7107,0.2346,39.4800,91,97,166090
1.6960,0.2199,39.4800,91,97,166093
1.8035,0.2102,39.4400,91,97,166097
1.8622,0.2199,39.5100,91,97,166100
1.8377,0.2395,39.3200,91,97,166104
1.6569,0.2444,39.5100,91,97,166107
1.5787,0.2346,39.5400,91,97,166111
1.6520,0.2297,39.5100,91,97,166114
1.7546,0.2102,39.5100,91,97,166117
1.8622,0.2346,39.2500,91,97,166121
1.7742,0.2542,39.4100,91,97,166124
1.6325,0.2444,39.5100,91,97,166127
1.5934,0.2493,39.4400,91,97,166131
1.6569,0.2199,39.4800,91,97,166134
1.8328,0.2590,39.2500,91,97,166137
1.8573,0.2395,39.3800,91,97,166141
1.7595,0.2444,39.2500,91,97,166145
1.6422,0.2493,39.5100,91,97,166148
1.6227,0.2297,39.6000,91,97,166152
1.7986,0.2297,39.3800,91,97,166155
1.9990,0.2053,39.4800,91,97,166158
2.2092,0.2444,39.3800,91,97,166161
2.2678,0.2493,39.4800,91,97,166165
2.2972,0.2444,39.4800,91,97,166168
2.3949,0.2297,39.4400,91,97,166171
2.4633,0.2199,39.4800,91,97,166175
2.5269,0.2199,39.4800,91,97,166178
