ecg,gsr,temp,hr,spo2,timest
1.9404,0.2297,37.0600,80,96,63608
1.9355,0.2297,36.9600,80,96,63612
1.8866,0.2248,37.1000,80,96,63616
1.8524,0.2248,37.0600,80,96,63619
1.8524,0.2395,36.9300,80,96,63622
1.7889,0.2493,37.0000,80,96,63626
1.7840,0.2297,37.0000,80,96,63629
1.7840,0.2248,37.0600,80,96,63632
1.7498,0.2248,37.0600,80,96,63635
1.7791,0.2346,37.2300,80,96,63639
1.7498,0.2297,37.0300,80,96,63642
1.7546,0.2297,36.9600,80,96,63645
1.7058,0.2346,37.1000,80,96,63648
1.6373,0.2248,37.3300,80,96,63653
1.6422,0.2248,37.0600,80,96,63656
1.6667,0.2395,37.0000,80,96,63661
1.6569,0.2346,37.1000,80,96,63664
1.6911,0.2248,36.9600,80,96,63667
1.6862,0.2248,37.0300,80,96,63670
1.6911,0.2199,37.1000,80,96,63674
1.7253,0.2542,36.9300,80,96,63677
1.7155,0.2248,37.0600,80,96,63680
1.7449,0.2248,36.8900,80,96,63683
1.7302,0.2151,37.0300,80,96,63687
1.7155,0.2151,37.0600,80,96,63690
1.7204,0.2297,37.0600,80,96,63693
1.7155,0.2248,37.0600,80,96,63696
1.7351,0.2346,36.9300,80,96,63700
1.7204,0.2542,37.0600,80,96,63704
1.7351,0.2199,37.0600,80,96,63707
1.7693,0.2346,36.9600,80,96,63710
1.7498,0.2102,37.0600,80,96,63714
1.7693,0.2248,36.8900,80,96,63717
1.7351,0.2248,37.0000,80,96,63720
1.7253,0.2102,37.0600,80,96,63723
1.7400,0.2346,36.9300,80,96,63727
1.7204,0.2248,37.0300,80,96,63730
1.7595,0.2248,36.9300,80,96,63733
1.7546,0.2102,37.0300,80,96,63736
1.7986,0.2590,37.0000,80,96,63740
1.8622,0.2297,37.0000,80,96,63744
1.9257,0.2248,37.0300,80,96,63747
1.9746,0.2248,36.8600,80,96,63750
1.9795,0.2248,37.0000,80,96,63754
2.0235,0.2248,37.0600,80,96,63757
2.0821,0.2444,36.9300,80,96,63760
2.0968,0.2248,36.9300,80,96,63763
2.1848,0.2248,37.0000,80,96,63767
2.2092,0.2248,37.0600,80,96,63770
2.2630,0.2248,37.1300,80,96,63773
2.3558,0.2297,36.6400,80,96,63776
2.4047,0.2248,37.1000,80,96,63780
2.5318,0.2248,36.9300,80,96,63783
2.6100,0.2395,37.0600,80,96,63787
2.7370,0.2248,37.0600,80,96,63790
2.8837,0.2346,37.0000,80,96,63794
2.9326,0.2248,37.2600,80,96,63797
3.0401,0.2297,36.9600,80,96,63800
3.0547,0.2102,37.0600,80,96,63803
3.1281,0.2248,37.2000,80,96,63806
3.2893,0.2297,36.8900,80,96,63810
3.3871,0.2248,37.0600,80,96,63813
3.5679,0.2346,36.9600,80,96,63816
3.6461,0.2199,37.2000,80,96,63820
3.7488,0.2248,37.0600,80,96,63823
3.8465,0.2346,36.9300,80,96,63826
3.7634,0.2248,37.0600,80,96,63830
3.6413,0.2346,36.9600,80,96,63833
3.2747,0.2297,37.1000,80,96,63837
2.8886,0.2248,37.1000,80,96,63840
2.5122,0.2248,37.0000,80,96,63843
2.1114,0.2248,37.0600,80,96,63846
1.7693,0.2297,37.0000,80,96,63850
1.4418,0.2248,37.1300,80,96,63853
1.2219,0.2248,37.1300,80,96,63856
1.0899,0.2395,36.9300,80,96,63859
0.9824,0.2199,37.1000,80,96,63863
0.9140,0.2297,36.9300,80,96,63866
0.8847,0.2199,37.1000,80,96,63869
0.8651,0.2248,37.1000,80,96,63873
0.8651,0.2346,36.9300,80,96,63877
0.8651,0.2493,37.0600,80,96,63880
0.8944,0.2297,37.0000,80,96,63883
0.9091,0.2199,37.0600,80,96,63886
0.9335,0.2248,37.0300,80,96,63890
0.9726,0.2297,37.0600,80,96,63893
0.9873,0.2346,37.0600,80,96,63896
1.0264,0.2297,36.9600,80,96,63899
1.0508,0.2248,37.1000,80,96,63903
1.0802,0.2199,37.0600,80,96,63906
1.1290,0.2297,36.9300,80,96,63909
1.1339,0.2248,37.0300,80,96,63912
1.1584,0.2151,36.9300,80,96,63917
1.1779,0.2248,36.9300,80,96,63920
1.2219,0.2248,37.1000,80,96,63923
1.3148,0.2346,36.9300,80,96,63926
1.3148,0.2297,37.0300,80,96,63930
1.3539,0.2297,36.3800,80,96,63933
1.3587,0.2248,37.0600,80,96,63936
1.3685,0.2248,37.0600,80,96,63939
1.3978,0.2297,36.9600,80,96,63943
1.3685,0.2297,37.0600,80,96,63946
1.3685,0.2248,36.9300,80,96,63949
1.3490,0.2248,37.0600,80,96,63952
1.3587,0.2248,37.0600,80,96,63956
1.3978,0.2297,36.8900,80,96,63960
1.3832,0.2297,37.0300,80,96,63963
1.4076,0.2199,36.9300,80,96,63966
1.3930,0.2248,37.1600,80,96,63970
1.3832,0.2248,37.0600,80,96,63973
1.4027,0.2346,36.9300,80,96,63976
1.3881,0.2297,37.0600,80,96,63979
1.3832,0.2248,36.9600,80,96,63983
1.3930,0.2102,37.1000,80,96,63986
1.3832,0.2346,37.0600,80,96,63989
1.4027,0.2346,37.0300,80,96,63992
1.3783,0.2297,37.0300,80,96,63996
1.3832,0.2297,36.9600,80,96,64000
1.3734,0.2346,37.0600,80,96,64003
1.3685,0.2199,37.0600,80,96,64006
1.3930,0.2346,36.8900,80,96,64010
1.3685,0.2297,37.0000,80,96,64013
1.3587,0.2346,36.9600,80,96,64016
1.3490,0.2248,37.0600,80,96,64019
1.3441,0.2444,37.0600,80,96,64023
1.3832,0.2297,37.0300,80,96,64026
1.3832,0.2297,37.0300,80,96,64029
1.3978,0.2297,36.9600,80,96,64032
1.4125,0.2248,37.0300,80,96,64036
1.4321,0.2248,36.9300,80,96,64039
1.4761,0.2346,36.9600,80,96,64043
1.4565,0.2102,37.0300,80,96,64046
1.4467,0.2444,36.9300,80,96,64050
1.4272,0.2248,37.1300,80,96,64053
1.4223,0.2248,37.1000,80,96,64056
1.4858,0.2346,36.8600,80,96,64059
1.4858,0.2395,37.0300,80,96,64063
1.5249,0.2248,37.0000,80,96,64066
1.5396,0.2248,37.0300,80,96,64069
1.5591,0.2297,37.0600,80,96,64072
1.6276,0.2297,36.8900,80,96,64076
1.6422,0.2297,37.0300,80,96,64079
1.7058,0.2102,36.9600,80,96,64082
1.6911,0.2248,37.1000,80,96,64086
1.7009,0.2248,37.0000,80,96,64090
1.7498,0.2395,36.9600,80,96,64093
1.7400,0.2297,37.0300,80,96,64096
1.7644,0.2248,37.0000,80,96,64099
1.7986,0.2297,37.0600,80,96,64102
1.8328,0.2248,37.0600,80,96,64106
1.9208,0.2346,36.8600,80,96,64109
1.9355,0.2346,36.9600,80,96,64112
1.9599,0.2199,37.0000,80,96,64115
1.9990,0.2248,37.1000,80,96,64119
2.0283,0.2346,37.1000,80,96,64122
2.1114,0.2444,37.0000,80,96,64125
2.0919,0.2102,37.0000,80,96,64129
2.0821,0.2199,37.2300,80,96,64133
2.0772,0.2248,37.0300,80,96,64136
2.0821,0.2248,37.0600,80,96,64139
2.1114,0.2444,36.6400,80,96,64142
2.0626,0.2297,37.0300,80,96,64146
2.0528,0.2248,37.0300,80,96,64149
2.0821,0.2297,37.1000,80,96,64152
2.0919,0.2248,37.0600,80,96,64155
2.1799,0.2639,36.8300,80,96,64159
2.1359,0.2297,36.9600,80,96,64162
2.1017,0.2199,37.0600,80,96,64165
2.0919,0.2102,37.0300,80,96,64168
2.0283,0.2248,37.1600,80,96,64173
2.0626,0.2444,36.8300,80,96,64176
2.0137,0.2199,36.9600,80,96,64179
1.9844,0.2199,36.5100,80,96,64182
2.0039,0.2297,37.0300,80,96,64186
2.0381,0.2199,37.1000,80,96,64189
2.0723,0.2395,36.8300,80,96,64192
2.0332,0.2297,37.0600,80,96,64195
2.0186,0.2199,37.0300,80,96,64199
2.0283,0.2297,36.9300,80,96,64202
2.0039,0.2248,37.1000,80,96,64205
2.0430,0.2346,36.7700,80,96,64208
1.9844,0.2297,37.0300,80,96,64211
1.9697,0.2248,37.0600,80,96,64216
1.9746,0.2395,37.0300,80,96,64219
1.9746,0.2248,37.1000,80,96,64222
2.0430,0.2346,36.8000,80,96,64225
1.9941,0.2248,37.0000,80,96,64229
1.9990,0.2248,37.1000,80,96,64232
2.0039,0.2248,37.1000,80,96,64235
1.9990,0.2248,37.0600,80,96,64238
2.0723,0.2346,36.8300,80,96,64242
2.0039,0.2297,37.0300,80,96,64245
1.9746,0.2248,37.0600,80,96,64248
1.9892,0.2346,37.0300,80,96,64251
1.9453,0.2248,37.1300,80,96,64256
1.9844,0.2346,36.8300,80,96,64259
1.9941,0.2297,36.9300,80,96,64264
1.9697,0.2297,37.1000,80,96,64267
1.9746,0.2199,37.0300,80,96,64270
1.9648,0.2199,37.0600,80,96,64273
1.9501,0.2248,37.0600,80,96,64277
2.0039,0.2297,36.8300,80,96,64280
1.9550,0.2199,37.0000,80,96,64283
1.9501,0.2199,37.0300,80,96,64286
1.9648,0.2297,37.0300,80,96,64290
1.9599,0.2248,37.1000,80,96,64293
2.0137,0.2444,36.8900,80,96,64296
1.9599,0.2346,36.9600,80,96,64300
1.9208,0.2297,37.0300,80,96,64303
1.9062,0.2297,37.0600,80,96,64307
1.9062,0.2248,37.0600,80,96,64310
1.9550,0.2444,36.1200,80,96,64313
1.9306,0.2248,36.9600,80,96,64316
1.9404,0.2151,37.0600,80,96,64320
1.9501,0.2297,37.0600,80,96,64323
1.9355,0.2248,37.1000,80,96,64326
2.0137,0.2444,36.7700,80,96,64329
1.9306,0.2493,37.0000,80,96,64333
1.9013,0.2199,37.0600,80,96,64336
1.9062,0.2346,37.0300,80,96,64339
1.8768,0.2297,37.0600,80,96,64343
1.9306,0.2346,36.8000,80,96,64347
1.9013,0.2248,36.9600,80,96,64350
1.8915,0.2297,37.1300,80,96,64353
1.9110,0.2395,37.0300,80,96,64356
1.9013,0.2248,37.1600,80,96,64360
1.9648,0.2297,36.8000,80,96,64363
1.9257,0.2248,36.9600,80,96,64366
1.9208,0.2199,37.1000,80,96,64369
1.9306,0.2297,37.0600,80,96,64373
1.9159,0.2199,37.0600,80,96,64376
1.9648,0.2346,36.8900,80,96,64379
1.9062,0.2297,37.0300,80,96,64382
1.8768,0.2248,37.0600,80,96,64387
1.8915,0.2297,37.0300,80,96,64390
1.8768,0.2248,37.0600,80,96,64393
1.9404,0.2346,36.8000,80,96,64396
1.9355,0.2102,36.9600,80,96,64400
1.9013,0.2248,37.1600,80,96,64403
1.9110,0.2297,37.0300,80,96,64406
1.9110,0.2248,37.0600,80,96,64409
1.9550,0.2346,36.8900,80,96,64413
1.9110,0.2248,37.0000,80,96,64416
1.9159,0.2248,37.1000,80,96,64419
1.9355,0.2297,37.1000,80,96,64422
1.9208,0.2248,37.0600,80,96,64427
1.9550,0.2346,36.8600,80,96,64430
1.9110,0.2297,37.0000,80,96,64433
1.8719,0.2248,37.0000,80,96,64436
1.8817,0.2297,37.1000,80,96,64440
1.8719,0.2248,37.1000,80,96,64443
1.9208,0.2297,36.8300,80,96,64446
1.8964,0.2248,37.0000,80,96,64449
1.8915,0.2248,37.0600,80,96,64453
1.9062,0.2199,37.0300,80,96,64456
1.8817,0.2248,36.7700,80,96,64459
1.9355,0.2297,36.8300,80,96,64462
1.8817,0.2199,37.0000,80,96,64466
1.9062,0.2297,37.1000,80,96,64470
1.9306,0.2297,37.0300,80,96,64473
1.9208,0.2248,37.1000,80,96,64476
1.9892,0.2346,36.8300,80,96,64480
1.9062,0.2297,36.9300,80,96,64483
1.8622,0.2248,37.1000,80,96,64486
1.8768,0.2297,37.0000,80,96,64489
1.8475,0.2493,37.1000,80,96,64493
1.9013,0.2346,36.8300,80,96,64496
1.8866,0.2199,37.0000,80,96,64499
1.9013,0.2248,37.0300,80,96,64502
1.9306,0.2297,37.0300,80,96,64506
1.9257,0.2248,37.0600,80,96,64509
1.9697,0.2346,36.8000,80,96,64513
1.9159,0.2199,37.0300,80,96,64516
1.9062,0.2248,37.0600,80,96,64520
1.9013,0.2248,37.1000,80,96,64523
1.8719,0.2248,37.0300,80,96,64526
1.9110,0.2346,36.8300,80,96,64529
1.8866,0.2346,37.0000,80,96,64533
1.8719,0.2248,37.1600,80,96,64536
1.9062,0.2297,36.9600,80,96,64539
1.8866,0.2248,37.1000,80,96,64542
1.9550,0.2346,36.8300,80,96,64546
1.9013,0.2542,37.0300,80,96,64549
1.8817,0.2248,37.0600,80,96,64552
1.8866,0.2346,37.0000,80,96,64556
1.8671,0.2297,37.0600,80,96,64560
1.9062,0.2297,36.8600,80,96,64563
1.8768,0.2199,37.0600,80,96,64566
1.8915,0.2248,37.0600,80,96,64569
1.9208,0.2444,37.0000,80,96,64572
1.9062,0.2248,37.1000,80,96,64576
1.9404,0.2346,36.8600,80,96,64579
1.9208,0.2248,37.0300,80,96,64582
1.9159,0.2248,37.1000,80,96,64585
1.9648,0.2395,36.9600,80,96,64589
1.9453,0.2248,37.0600,80,96,64592
1.9746,0.2297,36.8600,80,96,64595
1.9453,0.2248,36.9600,80,96,64599
1.8915,0.2248,37.0600,80,96,64603
1.8866,0.2395,36.9600,80,96,64606
1.8573,0.2102,37.0300,80,96,64609
1.8817,0.2346,36.8600,80,96,64612
1.8475,0.2248,37.0600,80,96,64616
1.8475,0.2248,37.1000,80,96,64619
1.8719,0.2297,37.0600,80,96,64622
1.9013,0.2297,37.1000,80,96,64625
1.9159,0.2297,36.8900,80,96,64629
1.9062,0.2248,36.9600,80,96,64632
1.8915,0.2199,37.0600,80,96,64635
1.9208,0.2346,36.9300,80,96,64638
1.9062,0.2248,37.0300,80,96,64643
1.9550,0.2297,36.8600,80,96,64646
1.9550,0.2199,37.0000,80,96,64649
1.9501,0.2248,37.1300,80,96,64652
1.9746,0.2102,36.9600,80,96,64656
1.9550,0.2542,37.0600,80,96,64659
1.9941,0.2346,36.8900,80,96,64662
1.9599,0.2248,37.0600,80,96,64665
1.9501,0.2590,37.1000,80,96,64669
1.9550,0.2297,37.0000,80,96,64672
1.9159,0.2248,37.0600,80,96,64675
1.9159,0.2346,36.8900,80,96,64678
1.9013,0.2248,36.1900,80,96,64683
1.9257,0.2248,37.1000,80,96,64686
1.9795,0.2297,36.9300,80,96,64689
1.9795,0.2199,37.1000,80,96,64692
2.0235,0.2248,36.9300,80,96,64696
2.0039,0.2199,37.0300,80,96,64699
2.0088,0.2248,37.0600,80,96,64702
2.0186,0.2248,36.9600,80,96,64705
1.9844,0.2248,37.1000,80,96,64709
1.9795,0.2248,36.9600,80,96,64712
1.9208,0.2248,37.1000,80,96,64715
1.9013,0.2199,37.0600,80,96,64718
1.9257,0.2297,36.9600,80,96,64722
1.9013,0.2248,37.0600,80,96,64726
1.9501,0.2102,36.9300,80,96,64729
1.9013,0.2248,37.1000,80,96,64732
1.9062,0.2248,37.0600,80,96,64736
1.9159,0.2346,36.9300,80,96,64739
1.8915,0.2248,37.0600,80,96,64742
1.8671,0.2248,37.2600,80,96,64745
1.8182,0.2199,37.1000,80,96,64749
1.8426,0.2199,37.1000,80,96,64752
1.8133,0.2199,36.9600,80,96,64755
1.7937,0.2248,37.1000,80,96,64758
1.8133,0.2248,36.9300,80,96,64762
1.7840,0.2248,37.1300,80,96,64765
1.7889,0.2493,37.0600,80,96,64769
1.8328,0.2346,37.0600,80,96,64772
1.8280,0.2248,37.0600,80,96,64776
1.8719,0.2297,36.9300,80,96,64779
1.8475,0.2199,37.1000,80,96,64782
1.8280,0.2199,37.0600,80,96,64785
1.8035,0.2199,36.9300,80,96,64789
1.7449,0.2248,37.0000,80,96,64792
1.7595,0.2346,37.0000,80,96,64795
1.7546,0.2199,37.2000,80,96,64798
1.8035,0.2248,37.1000,80,96,64802
1.8915,0.2248,37.0000,80,96,64805
2.0283,0.2493,37.0600,80,96,64808
2.2727,0.2297,36.9600,80,96,64812
2.5024,0.2248,37.0600,80,96,64816
2.7761,0.2590,37.1000,80,96,64819
3.0645,0.2346,37.0300,80,96,64822
3.1623,0.2248,37.0300,80,96,64825
3.2160,0.2297,36.9300,80,96,64828
3.0499,0.2248,37.0600,80,96,64832
2.8397,0.2248,37.0600,80,96,64835
2.6197,0.2297,36.9600,80,96,64838
2.3265,0.2199,37.0600,80,96,64841
2.1114,0.2297,36.3200,80,96,64845
1.9159,0.2248,37.0600,80,96,64848
1.8084,0.2199,37.0600,80,96,64851
1.7742,0.2395,37.0000,80,96,64855
1.7204,0.2248,37.0600,80,96,64859
1.7107,0.2248,36.9300,80,96,64862
1.6667,0.2199,37.1000,80,96,64865
1.6520,0.2248,37.2000,80,96,64868
1.6716,0.2346,36.9600,80,96,64872
1.6129,0.2297,37.0600,80,96,64876
1.6080,0.2248,37.1000,80,96,64880
1.6422,0.2248,37.1000,80,96,64883
1.6325,0.2199,37.1000,80,96,64886
1.6422,0.2199,37.0600,80,96,64889
1.6520,0.2346,37.0000,80,96,64892
1.6422,0.2248,37.1000,80,96,64897
1.7009,0.2102,36.9300,80,96,64900
1.6667,0.2199,37.0600,80,96,64903
1.6764,0.2248,37.1300,80,96,64906
1.7302,0.2346,36.9600,80,96,64910
1.7253,0.2248,37.0600,80,96,64913
1.7791,0.2248,36.9300,80,96,64916
1.7498,0.2199,37.0600,80,96,64919
1.7400,0.2102,37.0600,80,96,64923
1.7546,0.2248,36.9300,80,96,64926
1.7400,0.2248,37.1600,80,96,64929
1.7791,0.2248,37.0000,80,96,64932
1.7498,0.2248,37.0600,80,96,64936
1.7449,0.2248,37.0600,80,96,64940
1.7595,0.2102,36.9600,80,96,64943
1.7449,0.2248,37.0600,80,96,64946
1.7889,0.2297,36.9300,80,96,64950
1.7889,0.2248,37.0300,80,96,64953
1.8084,0.2199,37.2000,80,96,64956
1.8622,0.2346,36.9300,80,96,64959
1.8426,0.2248,37.0600,80,96,64963
1.8573,0.2346,37.0000,80,96,64966
1.8231,0.2395,37.0300,80,96,64969
1.8231,0.2248,37.0600,80,96,64972
1.8475,0.2346,37.0000,80,96,64976
1.8426,0.2248,37.0600,80,96,64979
1.8817,0.2297,36.9300,80,96,64983
1.8671,0.2248,37.0600,80,96,64986
1.8719,0.2248,37.0600,80,96,64990
1.8964,0.2248,37.1000,80,96,64993
1.9013,0.2102,37.0600,80,96,64996
1.9404,0.2297,36.8900,80,96,64999
1.9208,0.2248,37.0000,80,96,65003
1.9404,0.2102,37.1000,80,96,65006
1.9795,0.2297,36.9300,80,96,65009
1.9599,0.2248,37.0000,80,96,65012
1.9697,0.2297,36.9300,80,96,65016
1.9404,0.2102,37.1000,80,96,65019
1.9257,0.2248,37.1600,80,96,65022
1.9501,0.2297,36.9600,80,96,65026
1.9355,0.2248,37.0600,80,96,65030
1.9648,0.2297,36.8900,80,96,65033
1.9501,0.2248,37.0600,80,96,65036
1.9697,0.2248,37.0600,80,96,65039
2.0186,0.2346,37.0600,80,96,65043
2.0283,0.2248,37.1000,80,96,65046
2.0723,0.2297,36.9300,80,96,65049
2.0674,0.2199,37.1000,80,96,65052
2.0577,0.2199,37.0600,80,96,65056
2.0919,0.2297,36.9300,80,96,65059
2.0674,0.2297,37.0300,80,96,65062
2.0626,0.2248,36.9600,80,96,65065
2.0283,0.2248,37.0600,80,96,65070
2.0137,0.2248,37.1000,80,96,65073
2.0381,0.2297,36.9300,80,96,65076
2.0186,0.2297,37.0600,80,96,65079
2.0235,0.2248,37.0600,80,96,65082
2.0137,0.2248,37.0300,80,96,65086
2.0283,0.2248,37.1000,80,96,65089
2.0528,0.2297,37.0300,80,96,65092
2.0430,0.2297,37.0000,80,96,65095
2.0088,0.2248,36.9600,80,96,65099
1.9746,0.2248,37.0600,80,96,65102
1.9453,0.2297,37.0600,80,96,65105
1.9746,0.2346,37.0300,80,96,65108
1.9648,0.2297,37.0300,80,96,65113
1.9746,0.2248,36.9300,80,96,65116
1.9648,0.2542,37.0600,80,96,65119
1.9453,0.2248,37.0600,80,96,65122
1.9453,0.2297,36.9300,80,96,65126
1.8866,0.2102,37.0300,80,96,65129
1.8622,0.2248,36.9300,80,96,65132
1.8182,0.2248,37.1600,80,96,65135
1.7986,0.2248,37.1300,80,96,65139
1.8133,0.2346,36.9600,80,96,65142
1.7742,0.2248,37.0300,80,96,65145
1.7644,0.2248,37.0000,80,96,65148
1.7546,0.2248,37.0600,80,96,65153
1.7840,0.2102,37.0600,80,96,65156
1.7986,0.2346,36.9300,80,96,65159
1.7791,0.2297,37.1600,80,96,65162
1.7742,0.2248,36.9600,80,96,65166
1.7595,0.2297,37.0600,80,96,65169
1.7693,0.2248,37.0000,80,96,65172
1.8182,0.2297,36.9300,80,96,65175
1.8084,0.2297,37.0300,80,96,65179
1.8084,0.2248,36.9300,80,96,65182
1.7937,0.2248,37.0600,80,96,65185
1.7791,0.2199,37.1000,80,96,65188
1.8328,0.2444,36.9600,80,96,65192
1.8182,0.2297,37.0300,80,96,65196
1.8573,0.2199,37.0000,80,96,65199
1.8231,0.2248,37.0300,80,96,65202
1.8280,0.2297,37.1300,80,96,65206
1.8622,0.2297,36.8900,80,96,65209
1.8133,0.2297,37.0300,80,96,65212
1.7791,0.2346,37.1000,80,96,65215
1.7644,0.2248,37.1000,80,96,65219
1.7595,0.2199,37.1000,80,96,65222
1.8182,0.2444,36.9300,80,96,65225
1.8035,0.2297,37.0000,80,96,65228
1.8084,0.2248,37.0600,80,96,65232
1.8328,0.2297,37.0300,80,96,65235
1.8133,0.2248,37.1000,80,96,65239
1.8719,0.2395,36.8300,80,96,65242
1.8524,0.2297,37.0000,80,96,65246
1.8426,0.2297,37.0300,80,96,65249
1.8475,0.2346,37.0600,80,96,65252
1.8573,0.2248,37.1600,80,96,65255
1.9257,0.2395,36.8900,80,96,65259
1.9208,0.2297,36.9600,80,96,65262
1.9110,0.2248,37.0300,80,96,65265
1.9062,0.2297,37.1000,80,96,65268
1.8915,0.2248,37.0600,80,96,65272
1.9404,0.2493,36.8600,80,96,65275
1.9013,0.2297,37.0600,80,96,65278
1.8768,0.2248,37.0600,80,96,65282
1.8719,0.2297,37.0000,80,96,65286
1.8426,0.2248,37.2000,80,96,65289
1.8866,0.2395,36.9600,80,96,65292
1.8328,0.2346,36.9600,80,96,65295
1.8182,0.2199,37.0000,80,96,65299
1.8231,0.2297,36.9300,80,96,65302
1.8328,0.2248,37.1000,80,96,65305
1.9208,0.2444,36.8900,80,96,65308
1.8866,0.2395,36.9600,80,96,65312
1.8817,0.2199,37.0600,80,96,65315
1.8915,0.2248,37.0600,80,96,65318
1.8768,0.2248,37.0600,80,96,65321
1.9257,0.2444,36.8600,80,96,65326
1.8671,0.2297,36.9600,80,96,65329
1.8377,0.2248,37.0300,80,96,65332
1.8524,0.2297,37.1000,80,96,65335
1.8671,0.2444,37.0600,80,96,65339
1.9404,0.2395,36.8600,80,96,65342
1.9110,0.2297,36.9600,80,96,65345
1.8964,0.2444,37.1000,80,96,65348
1.8915,0.2248,37.1000,80,96,65352
1.8719,0.2248,37.1000,80,96,65355
1.9404,0.2395,36.8600,80,96,65358
1.8671,0.2346,36.9600,80,96,65361
1.8426,0.2590,37.0600,80,96,65366
1.8524,0.2248,37.0600,80,96,65369
1.8719,0.2199,37.0600,80,96,65372
1.9159,0.2493,36.7700,80,96,65375
1.8964,0.2297,36.8900,80,96,65379
1.9110,0.2199,37.0300,80,96,65382
1.9355,0.2297,37.1000,80,96,65385
1.9453,0.2248,37.0600,80,96,65388
2.0137,0.2444,36.8600,80,96,65392
1.9746,0.2199,37.0000,80,96,65395
1.9599,0.2199,37.1000,80,96,65398
1.9599,0.2297,37.0300,80,96,65401
1.9404,0.2248,37.1000,80,96,65405
1.9795,0.2444,36.8300,80,96,65409
1.9257,0.2297,36.9300,80,96,65412
1.9013,0.2199,37.0300,80,96,65415
1.9306,0.2102,37.0600,80,96,65419
1.8768,0.2248,37.0600,80,96,65422
1.9110,0.2395,36.8000,80,96,65425
1.8426,0.2542,36.9600,80,96,65428
1.8133,0.2199,36.2800,80,96,65432
1.7986,0.2297,37.0600,80,96,65435
1.7742,0.2248,37.0600,80,96,65438
1.8035,0.2590,36.8900,80,96,65441
1.7644,0.2297,37.0000,80,96,65445
1.7498,0.2151,37.1000,80,96,65448
1.7644,0.2346,37.0300,80,96,65452
1.7791,0.2395,37.0600,80,96,65455
1.8475,0.2297,36.8000,80,96,65459
1.8182,0.2248,36.9300,80,96,65462
1.7937,0.2248,37.1000,80,96,65465
1.7889,0.2297,37.0000,80,96,65468
1.7693,0.2248,37.1000,80,96,65472
1.8231,0.2346,36.8000,80,96,65475
1.7742,0.2199,36.9600,80,96,65478
1.7791,0.2199,37.1300,80,96,65481
1.7937,0.2297,37.0300,80,96,65485
1.6764,0.2248,37.0300,80,96,65489
1.6960,0.2199,37.0600,80,96,65492
1.7937,0.2395,36.8900,80,96,65497
1.8573,0.2493,37.0000,80,96,65500
1.9844,0.2248,37.0300,80,96,65503
2.1896,0.2102,37.0600,80,96,65506
2.4047,0.2248,37.0600,80,96,65510
2.7566,0.2346,36.9300,80,96,65513
2.9277,0.2346,37.0300,80,96,65516
3.0938,0.2199,37.0000,80,96,65519
3.1281,0.2297,37.0600,80,96,65523
3.0303,0.2199,37.1000,80,96,65526
2.9179,0.2395,36.8900,80,96,65529
2.6246,0.2297,37.0600,80,96,65532
2.3509,0.2199,37.0300,80,96,65537
2.1212,0.2248,37.0600,80,96,65540
1.9453,0.2102,37.0600,80,96,65543
1.8768,0.2395,36.8000,80,96,65546
1.7742,0.2297,36.8600,80,96,65550
1.7155,0.2199,37.0300,80,96,65553
1.6813,0.2199,37.1000,80,96,65556
1.6520,0.2199,37.1000,80,96,65559
1.6862,0.2395,36.8900,80,96,65563
1.6276,0.2346,36.9600,80,96,65566
1.6031,0.2199,37.1300,80,96,65569
1.5982,0.2248,37.0600,80,96,65572
1.5982,0.2248,37.1300,80,96,65576
1.6422,0.2395,36.8900,80,96,65580
1.6178,0.2297,37.0300,80,96,65583
1.6129,0.2102,37.0300,80,96,65586
1.6227,0.2297,37.0600,80,96,65590
1.6080,0.2248,37.0600,80,96,65593
1.6520,0.2444,36.8300,80,96,65596
1.6227,0.2297,36.9600,80,96,65599
1.6031,0.2199,37.0300,80,96,65603
1.6178,0.2297,37.0600,80,96,65606
1.6325,0.2102,37.0300,80,96,65609
1.7009,0.2444,36.8000,80,96,65612
1.6960,0.2248,36.9600,80,96,65616
1.7351,0.2151,37.0300,80,96,65619
1.7400,0.2297,37.0300,80,96,65623
1.7449,0.2248,37.0000,80,96,65626
1.7889,0.2297,36.8300,80,96,65630
1.7742,0.2297,36.9600,80,96,65633
1.7302,0.2199,36.3800,80,96,65636
1.7449,0.2297,37.0300,80,96,65639
1.7449,0.2199,37.0600,80,96,65643
1.7937,0.2395,36.7300,80,96,65646
1.7546,0.2248,36.8900,80,96,65649
1.7400,0.2199,37.0600,80,96,65652
1.7400,0.2346,37.1000,80,96,65656
1.7351,0.2248,37.1000,80,96,65659
1.8035,0.2346,36.7700,80,96,65662
1.7889,0.2102,36.9600,80,96,65666
1.7986,0.2199,37.0600,80,96,65670
1.8231,0.2297,37.0300,80,96,65673
1.8377,0.2248,37.0600,80,96,65676
1.8964,0.2346,36.8300,80,96,65679
1.8671,0.2297,37.0000,80,96,65683
1.8475,0.2199,37.0600,80,96,65686
1.8524,0.2297,37.0300,80,96,65689
1.8328,0.2297,37.0600,80,96,65692
1.8964,0.2346,36.7700,80,96,65695
1.8768,0.2248,36.9600,80,96,65699
1.8817,0.2395,37.0300,80,96,65702
1.9110,0.2297,37.0000,80,96,65705
1.9257,0.2102,37.1000,80,96,65709
1.9404,0.2444,36.8900,80,96,65713
1.8915,0.2590,37.0300,80,96,65716
1.8964,0.2199,37.1000,80,96,65719
1.9110,0.2346,37.1000,80,96,65722
1.9208,0.2248,37.0000,80,96,65726
1.9844,0.2346,36.8300,80,96,65729
1.9990,0.2199,36.9600,80,96,65732
1.9697,0.2248,37.0600,80,96,65735
2.0137,0.2297,37.0300,80,96,65739
2.0137,0.2248,37.0600,80,96,65742
2.0772,0.2346,36.8000,80,96,65745
2.0332,0.2248,37.0000,80,96,65748
2.0088,0.2248,37.0600,80,96,65753
2.0283,0.2297,37.0600,80,96,65756
2.0186,0.2248,37.1300,80,96,65759
2.0821,0.2346,36.8000,80,96,65762
2.0430,0.2199,37.0000,80,96,65766
2.0430,0.2248,37.0600,80,96,65769
2.0479,0.2346,37.1000,80,96,65772
2.0235,0.2248,37.0600,80,96,65775
2.0626,0.2297,37.0300,80,96,65779
2.0332,0.2297,36.9600,80,96,65782
2.0137,0.2248,37.0600,80,96,65785
2.0332,0.2297,36.9600,80,96,65788
2.0235,0.2199,37.0600,80,96,65793
2.0235,0.2297,36.8300,80,96,65796
1.9795,0.2248,37.0000,80,96,65799
1.9550,0.2248,37.0600,80,96,65802
1.9599,0.2297,36.9600,80,96,65805
1.9257,0.2248,37.0600,80,96,65809
1.9257,0.2297,36.8600,80,96,65812
1.8622,0.2248,37.0600,80,96,65815
1.8328,0.2102,37.1000,80,96,65818
1.8524,0.2297,36.9600,80,96,65822
1.7742,0.2248,37.0600,80,96,65825
1.7791,0.2297,36.8900,80,96,65828
1.7351,0.2199,36.9600,80,96,65831
1.7155,0.2248,37.0000,80,96,65836
1.7302,0.2297,36.8900,80,96,65839
1.7155,0.2248,37.0600,80,96,65842
1.7449,0.2395,36.8600,80,96,65845
1.7155,0.2248,36.9600,80,96,65849
1.6960,0.2248,37.0600,80,96,65852
1.7009,0.2297,36.9300,80,96,65855
1.6716,0.2248,37.0600,80,96,65858
1.6911,0.2297,36.8900,80,96,65862
1.6716,0.2248,37.0600,80,96,65865
1.6764,0.2248,37.0600,80,96,65868
1.7058,0.2297,36.9600,80,96,65871
1.6960,0.2248,37.1000,80,96,65875
1.7253,0.2444,36.8600,80,96,65879
1.7107,0.2248,37.0300,80,96,65882
1.7058,0.2199,37.0300,80,96,65885
1.7253,0.2346,36.8900,80,96,65889
1.7058,0.2248,37.0300,80,96,65892
1.7204,0.2248,36.8900,80,96,65895
1.7009,0.2248,37.0000,80,96,65898
1.7155,0.2248,37.2300,80,96,65902
1.7546,0.2297,36.9600,80,96,65905
1.7937,0.2248,37.0300,80,96,65908
1.8231,0.2248,36.8600,80,96,65911
1.8182,0.2248,36.9600,80,96,65915
1.8231,0.2248,37.1000,80,96,65918
1.8426,0.2248,37.0300,80,96,65922
1.7986,0.2248,37.1000,80,96,65925
1.8035,0.2248,36.1200,80,96,65929
1.7742,0.2248,37.0000,80,96,65932
1.7644,0.2297,37.1000,80,96,65935
1.7742,0.2346,36.9300,80,96,65938
1.7498,0.2248,37.0600,80,96,65942
1.7693,0.2248,36.9300,80,96,65945
1.7351,0.2297,37.0600,80,96,65948
1.7449,0.2248,36.4400,80,96,65951
1.7644,0.2297,37.0000,80,96,65955
1.7595,0.2248,37.0300,80,96,65958
1.7937,0.2248,37.1000,80,96,65961
1.7693,0.2248,37.1600,80,96,65965
1.7840,0.2248,37.0600,80,96,65969
1.8084,0.2688,36.9300,80,96,65972
1.7937,0.2248,37.1600,80,96,65975
1.8280,0.2346,36.9300,80,96,65978
1.8084,0.2199,37.0300,80,96,65982
1.8182,0.2248,37.1600,80,96,65985
1.8475,0.2248,37.0300,80,96,65988
1.8328,0.2248,37.0300,80,96,65991
1.8719,0.2395,36.9300,80,96,65995
1.8622,0.2199,37.0300,80,96,65998
1.8671,0.2248,37.0600,80,96,66001
1.8573,0.2248,37.0000,80,96,66004
1.8328,0.2248,37.1600,80,96,66009
1.8377,0.2297,36.9600,80,96,66012
1.7986,0.2248,37.1300,80,96,66015
1.8035,0.2297,37.0600,80,96,66018
1.8524,0.2297,36.9300,80,96,66022
1.8377,0.2248,37.0300,80,96,66025
1.8671,0.2346,36.9300,80,96,66028
1.8231,0.2688,37.0300,80,96,66031
1.8084,0.2248,37.0600,80,96,66035
1.8328,0.2102,36.9600,80,96,66038
1.7937,0.2590,37.0600,80,96,66041
1.8280,0.2346,37.0000,80,96,66044
1.8133,0.2297,37.0600,80,96,66049
1.8182,0.2248,37.2600,80,96,66052
1.8328,0.2248,37.0000,80,96,66055
1.8280,0.2199,37.0600,80,96,66058
1.8622,0.2297,36.9300,80,96,66061
1.8426,0.2248,37.1000,80,96,66065
1.8524,0.2102,37.1000,80,96,66068
1.8866,0.2444,36.9300,80,96,66071
1.8671,0.2248,37.1000,80,96,66075
1.9013,0.2297,36.9600,80,96,66078
1.8817,0.2248,37.0600,80,96,66081
1.8964,0.2297,37.0600,80,96,66084
1.9159,0.2297,36.2500,80,96,66088
1.8768,0.2248,37.0600,80,96,66092
1.8817,0.2493,36.9600,80,96,66095
1.8426,0.2297,37.1600,80,96,66098
1.9110,0.2248,37.0600,80,96,66103
1.9501,0.2248,37.0600,80,96,66106
1.9892,0.2346,37.0000,80,96,66109
1.9550,0.2248,37.0300,80,96,66113
1.9599,0.2248,36.8900,80,96,66116
1.9062,0.2102,37.0000,80,96,66119
1.8817,0.2248,37.0000,80,96,66122
1.8964,0.2297,37.0300,80,96,66126
1.8719,0.2248,37.0300,80,96,66129
1.9013,0.2346,36.9300,80,96,66132
1.8671,0.2248,37.0600,80,96,66136
1.8622,0.2248,37.0600,80,96,66140
1.8573,0.2248,36.9600,80,96,66143
1.8280,0.2248,37.1300,80,96,66146
1.8475,0.2102,36.9300,80,96,66149
1.8231,0.2248,37.1300,80,96,66153
1.8035,0.2444,37.0600,80,96,66156
1.8035,0.2297,36.9600,80,96,66159
1.7498,0.2248,37.0600,80,96,66162
1.7351,0.2248,36.9300,80,96,66166
1.6960,0.2248,36.8300,80,96,66169
1.7009,0.2248,37.0600,80,96,66172
1.7204,0.2346,36.9300,80,96,66176
1.7204,0.2248,37.0000,80,96,66180
1.7546,0.2248,36.9300,80,96,66183
1.7400,0.2444,37.0000,80,96,66186
1.7498,0.2248,37.1000,80,96,66189
1.7693,0.2248,36.9600,80,96,66193
1.7546,0.2346,37.1000,80,96,66196
1.7840,0.2248,36.8900,80,96,66199
1.7595,0.2248,37.1000,80,96,66202
1.7595,0.2102,37.1000,80,96,66206
1.7937,0.2297,36.9300,80,96,66209
1.7400,0.2248,36.9600,80,96,66212
1.7204,0.2248,37.0000,80,96,66215
1.6862,0.2248,37.0300,80,96,66220
1.6520,0.2199,37.1600,80,96,66223
1.7107,0.2248,36.9600,80,96,66226
1.7400,0.2297,37.1300,80,96,66229
1.8426,0.2297,37.0300,80,96,66232
1.9453,0.2248,37.1000,80,96,66236
2.1603,0.2248,37.0600,80,96,66239
2.4438,0.2248,36.9600,80,96,66242
2.7224,0.2248,37.0600,80,96,66245
3.0059,0.2297,36.9300,80,96,66249
3.1232,0.2248,37.1300,80,96,66252
3.1427,0.2248,37.1000,80,96,66255
3.0694,0.2346,36.9300,80,96,66258
2.8055,0.2248,37.0600,80,96,66263
2.5611,0.2297,36.9600,80,96,66266
2.2776,0.2199,37.1000,80,96,66269
2.0283,0.2248,36.8900,80,96,66272
1.8964,0.2395,37.0000,80,96,66276
1.7742,0.2297,37.0600,80,96,66279
1.7400,0.2297,36.9300,80,96,66282
1.6862,0.2248,37.1000,80,96,66285
1.6764,0.2102,37.0300,80,96,66289
1.6569,0.2248,37.1000,80,96,66292
1.5982,0.2248,37.2600,80,96,66295
1.5982,0.2297,36.9300,80,96,66298
1.5396,0.2248,37.1000,80,96,66302
1.5347,0.2248,37.0600,80,96,66306
1.5689,0.2297,36.9600,80,96,66309
1.5640,0.2297,37.0600,80,96,66312
1.5885,0.2248,36.9300,80,96,66316
1.5689,0.2248,37.1000,80,96,66319
1.5640,0.2248,37.1000,80,96,66322
1.6031,0.2346,36.9600,80,96,66325
1.5591,0.2297,37.0600,80,96,66329
1.5982,0.2346,36.8900,80,96,66332
1.5885,0.2248,37.0600,80,96,66335
1.5982,0.2248,37.0600,80,96,66338
1.6178,0.2297,37.0300,80,96,66342
1.6471,0.2346,37.0600,80,96,66345
1.6569,0.2297,36.1900,80,96,66349
1.6569,0.2248,37.2000,80,96,66352
1.6764,0.2248,37.0600,80,96,66356
1.7204,0.2346,36.8900,80,96,66359
1.6960,0.2297,37.0600,80,96,66362
1.7058,0.2297,36.9600,80,96,66365
1.6813,0.2248,37.0600,80,96,66369
1.6764,0.2248,37.1000,80,96,66372
1.7107,0.2297,36.9300,80,96,66375
1.6960,0.2346,37.1000,80,96,66378
1.7204,0.2248,36.9300,80,96,66382
1.7155,0.2248,37.0000,80,96,66385
1.7400,0.2248,36.6700,80,96,66388
1.7840,0.2297,37.0000,80,96,66392
1.7693,0.2346,37.1000,80,96,66396
1.7742,0.2297,36.9600,80,96,66399
1.7546,0.2248,37.0600,80,96,66402
1.7449,0.2493,37.1000,80,96,66405
1.7742,0.2346,36.9600,80,96,66409
1.7546,0.2297,37.0600,80,96,66412
1.7742,0.2199,36.9600,80,96,66415
1.7693,0.2248,37.0300,80,96,66418
1.7840,0.2248,37.0300,80,96,66422
1.8426,0.2444,36.9300,80,96,66425
1.8377,0.2297,37.0300,80,96,66428
1.8622,0.2248,36.9600,80,96,66432
1.8475,0.2297,37.0600,80,96,66436
1.8475,0.2297,37.1000,80,96,66439
1.8768,0.2297,36.9600,80,96,66442
1.8426,0.2102,37.0600,80,96,66445
1.8524,0.2248,36.9300,80,96,66449
1.8377,0.2248,37.1300,80,96,66452
1.8475,0.2248,37.1000,80,96,66455
1.9208,0.2346,36.8900,80,96,66458
1.9306,0.2102,37.0300,80,96,66462
1.9404,0.2248,37.1000,80,96,66465
1.9599,0.2248,37.0300,80,96,66468
1.9648,0.2248,37.1300,80,96,66471
2.0039,0.2346,36.8900,80,96,66476
1.9746,0.2297,37.0300,80,96,66479
1.9599,0.2151,37.1000,80,96,66482
1.9404,0.2248,37.0300,80,96,66485
1.9501,0.2248,37.1000,80,96,66489
2.0039,0.2444,36.9600,80,96,66492
1.9795,0.2297,37.0300,80,96,66495
2.0039,0.2199,37.0000,80,96,66498
1.9844,0.2297,37.1300,80,96,66501
1.9795,0.2248,37.1000,80,96,66505
2.0381,0.2346,36.8900,80,96,66508
2.0088,0.2346,37.0000,80,96,66511
1.9941,0.2248,37.0000,80,96,66514
1.9746,0.2297,37.0600,80,96,66519
1.9599,0.2248,37.0300,80,96,66522
1.9892,0.2395,36.9300,80,96,66525
1.9404,0.2346,37.0300,80,96,66528
1.8964,0.2248,37.0300,80,96,66532
1.8719,0.2297,37.1000,80,96,66535
1.8475,0.2248,37.1000,80,96,66538
1.8866,0.2786,36.8600,80,96,66541
1.8377,0.2297,37.0600,80,96,66545
1.8231,0.2151,37.0000,80,96,66548
1.8084,0.2297,37.0600,80,96,66551
1.7742,0.2248,37.1300,80,96,66554
1.7937,0.2395,36.9600,80,96,66558
1.7253,0.2346,37.0000,80,96,66562
1.6764,0.2248,37.1000,80,96,66565
1.6471,0.2297,37.1000,80,96,66568
1.6178,0.2248,37.0600,80,96,66572
1.6520,0.2395,36.8600,80,96,66575
1.6031,0.2297,37.1000,80,96,66578
1.5934,0.2199,37.0300,80,96,66581
1.5934,0.2297,37.0600,80,96,66585
1.6325,0.2248,37.1000,80,96,66588
1.6716,0.2444,36.8900,80,96,66591
1.6471,0.2297,37.0300,80,96,66594
1.6325,0.2248,37.0300,80,96,66598
1.6520,0.2297,37.0300,80,96,66601
1.6276,0.2248,37.0600,80,96,66605
1.6764,0.2444,36.8300,80,96,66608
1.6422,0.2346,36.9600,80,96,66612
1.6471,0.2248,37.0300,80,96,66615
1.6618,0.2297,37.0300,80,96,66618
1.6618,0.2248,37.0600,80,96,66621
1.7155,0.2444,36.8300,80,96,66625
1.6862,0.2395,37.0000,80,96,66628
1.6813,0.2199,37.0600,80,96,66631
1.6960,0.2297,37.0000,80,96,66634
1.6862,0.2542,37.1000,80,96,66638
1.7400,0.2444,36.8300,80,96,66641
1.7155,0.2297,36.9300,80,96,66644
1.7058,0.2297,37.0300,80,96,66648
1.7253,0.2297,37.0300,80,96,66652
1.7253,0.2248,37.1000,80,96,66655
1.7986,0.2395,36.8300,80,96,66658
1.7742,0.2297,36.9300,80,96,66661
1.7791,0.2199,37.0300,80,96,66665
1.8084,0.2297,37.0600,80,96,66668
1.8231,0.2395,37.0600,80,96,66671
1.9110,0.2395,36.8300,80,96,66674
1.9013,0.2248,36.2200,80,96,66678
1.9355,0.2199,37.0600,80,96,66681
1.9892,0.2199,37.0300,80,96,66684
2.0479,0.2297,37.0600,80,96,66688
2.1896,0.2444,36.8000,80,96,66692
2.2483,0.2248,36.9600,80,96,66695
2.3412,0.2199,37.0300,80,96,66698
2.4780,0.2297,36.9300,80,96,66701
2.5953,0.2102,37.1000,80,96,66705
2.7517,0.2346,36.7300,80,96,66708
3.2063,0.2395,36.9600,80,96,66712
3.3138,0.2297,37.0300,80,96,66716
3.4800,0.2248,36.9600,80,96,66719
3.6119,0.2297,37.1000,80,96,66722
3.7243,0.2248,37.1600,80,96,66725
3.8710,0.2297,36.9600,80,96,66729
3.8612,0.2199,37.0000,80,96,66733
3.7488,0.2248,37.0600,80,96,66736
3.5288,0.2297,37.1000,80,96,66739
3.2063,0.2248,37.1000,80,96,66743
2.8837,0.2346,36.8900,80,96,66746
2.4487,0.2297,37.0000,80,96,66749
2.0626,0.2248,36.9600,80,96,66752
1.7155,0.2297,37.0600,80,96,66756
1.4321,0.2248,37.1300,80,96,66759
1.2512,0.2493,36.9300,80,96,66762
1.0655,0.2395,37.0300,80,96,66765
0.9384,0.2248,36.9600,80,96,66769
0.8553,0.2199,37.1600,80,96,66772
0.7967,0.2248,37.0000,80,96,66776
0.7967,0.2395,36.8900,80,96,66779
0.7576,0.2346,37.0300,80,96,66783
0.7478,0.2199,37.0300,80,96,66786
0.7674,0.2297,37.0300,80,96,66789
0.7771,0.2248,36.9300,80,96,66792
0.8407,0.2444,36.8600,80,96,66796
0.8553,0.2346,36.9300,80,96,66799
0.8895,0.2199,37.0000,80,96,66802
0.9238,0.2297,37.0600,80,96,66805
0.9482,0.2248,37.0600,80,96,66809
1.0020,0.2395,36.8000,80,96,66812
0.9873,0.2395,36.9600,80,96,66816
0.9971,0.2199,37.0600,80,96,66819
1.0166,0.2199,37.0000,80,96,66822
1.0313,0.2248,37.0600,80,96,66826
1.0899,0.2346,36.8000,80,96,66829
1.0899,0.2297,37.0000,80,96,66832
1.1535,0.2248,37.1000,80,96,66835
1.1681,0.2102,37.0300,80,96,66839
1.1681,0.2248,37.0600,80,96,66842
1.2170,0.2297,36.8000,80,96,66845
1.1975,0.2248,36.9300,80,96,66848
1.2121,0.2248,37.0000,80,96,66852
1.2463,0.2297,37.1000,80,96,66855
1.2561,0.2248,37.0600,80,96,66859
1.3099,0.2395,36.8300,80,96,66862
1.3001,0.2248,36.9600,80,96,66866
1.3196,0.2248,37.0600,80,96,66869
1.3587,0.2297,37.0000,80,96,66872
1.3832,0.2199,37.0600,80,96,66875
1.4418,0.2346,36.8600,80,96,66879
1.4565,0.2297,37.0300,80,96,66882
1.4467,0.2248,37.0600,80,96,66885
1.4614,0.2297,37.1000,80,96,66888
1.4370,0.2102,37.0600,80,96,66892
1.4663,0.2493,36.8000,80,96,66895
1.4321,0.2444,37.0300,80,96,66898
1.4272,0.2248,37.1000,80,96,66902
1.4272,0.2297,37.0300,80,96,66906
1.4027,0.2297,37.0300,80,96,66909
1.4223,0.2346,36.8300,80,96,66912
1.3734,0.2248,37.0600,80,96,66915
1.3587,0.2297,37.0600,80,96,66919
1.3441,0.2297,37.2300,80,96,66922
1.3099,0.2248,37.0300,80,96,66925
1.3196,0.2346,36.8300,80,96,66928
1.2805,0.2248,37.1000,80,96,66932
1.2659,0.2248,37.1000,80,96,66935
1.2805,0.2297,37.0000,80,96,66938
1.2659,0.2297,37.0600,80,96,66941
1.3050,0.2346,36.2500,80,96,66946
1.2903,0.2248,37.0300,80,96,66949
1.2854,0.2248,37.0600,80,96,66952
1.3148,0.2297,37.1600,80,96,66955
1.3148,0.2248,37.1000,80,96,66959
1.3539,0.2346,36.8300,80,96,66962
1.3392,0.2444,37.1000,80,96,66965
1.3539,0.2248,37.1000,80,96,66968
1.3881,0.2346,37.0000,80,96,66972
1.4125,0.2199,37.0600,80,96,66975
1.4614,0.2346,36.8600,80,96,66978
1.4663,0.2297,37.0000,80,96,66981
1.4712,0.2248,37.1000,80,96,66985
1.5200,0.2346,37.1000,80,96,66989
1.5298,0.2248,37.1000,80,96,66992
1.6129,0.2346,36.8300,80,96,66995
1.6227,0.2346,37.0600,80,96,66999
1.6569,0.2248,36.5100,80,96,67002
1.7155,0.2297,37.0000,80,96,67005
1.7302,0.2199,37.0600,80,96,67008
1.7937,0.2297,36.8900,80,96,67012
1.7840,0.2199,37.1600,80,96,67015
1.8133,0.2199,37.1000,80,96,67018
1.8475,0.2297,37.0000,80,96,67021
1.8573,0.2248,37.0600,80,96,67025
1.9208,0.2346,36.8300,80,96,67028
1.9355,0.2395,36.9600,80,96,67032
1.9257,0.2248,37.0000,80,96,67035
1.9697,0.2395,37.3300,80,96,67039
1.9550,0.2248,37.1000,80,96,67042
2.0039,0.2346,36.8900,80,96,67045
1.9746,0.2248,36.5400,80,96,67048
1.9697,0.2248,37.1300,80,96,67052
2.0235,0.2346,36.9600,80,96,67055
1.9795,0.2248,37.1300,80,96,67058
2.0137,0.2297,36.8900,80,96,67061
1.9746,0.2102,37.1000,80,96,67065
1.9697,0.2151,37.1000,80,96,67068
1.9844,0.2297,37.3300,80,96,67072
1.9599,0.2248,37.0600,80,96,67075
1.9990,0.2346,36.8900,80,96,67079
1.9746,0.2297,36.9300,80,96,67082
1.9648,0.2199,37.2000,80,96,67085
1.9844,0.2297,36.9600,80,96,67088
1.9599,0.2102,37.0600,80,96,67092
1.9892,0.2395,36.8900,80,96,67095
1.9550,0.2248,37.0000,80,96,67098
1.9355,0.2102,37.0600,80,96,67101
1.9404,0.2297,36.8600,80,96,67104
1.9062,0.2248,37.0600,80,96,67108
1.9208,0.2346,36.8900,80,96,67111
1.8817,0.2248,37.1000,80,96,67115
1.8719,0.2248,37.1000,80,96,67118
1.9110,0.2346,36.9600,80,96,67122
1.8524,0.2199,37.0600,80,96,67125
1.8866,0.2248,36.8600,80,96,67128
1.8768,0.2248,37.0000,80,96,67131
1.8915,0.2199,37.0600,80,96,67135
1.9257,0.2297,37.0000,80,96,67138
1.9110,0.2248,37.1000,80,96,67141
1.9306,0.2297,36.8900,80,96,67144
1.8915,0.2248,36.9300,80,96,67148
1.8866,0.2248,37.1000,80,96,67151
1.9062,0.2102,36.9600,80,96,67154
1.8915,0.2248,37.1300,80,96,67158
1.9208,0.2248,36.9300,80,96,67162
1.9013,0.2248,37.0600,80,96,67165
1.9013,0.2297,37.1300,80,96,67168
1.9110,0.2297,37.2000,80,96,67171
1.8671,0.2248,37.1000,80,96,67175
1.8671,0.2248,36.9300,80,96,67178
1.8328,0.2395,37.0000,80,96,67181
1.8231,0.2248,37.1000,80,96,67184
1.8377,0.2297,37.0000,80,96,67188
1.8231,0.2199,37.1000,80,96,67191
1.8573,0.2248,36.9300,80,96,67194
1.8475,0.2199,37.0600,80,96,67197
1.8866,0.2199,37.0600,80,96,67202
1.8866,0.2297,37.0000,80,96,67205
1.8866,0.2248,37.0600,80,96,67208
1.9062,0.2297,36.9300,80,96,67211
1.8573,0.2493,37.0600,80,96,67215
1.8377,0.2248,37.1000,80,96,67218
1.8622,0.2346,36.9600,80,96,67221
1.8622,0.2248,37.1000,80,96,67224
1.8671,0.2248,36.9300,80,96,67228
1.8524,0.2199,37.0000,80,96,67231
1.8671,0.2248,37.0600,80,96,67234
1.8915,0.2102,36.9600,80,96,67237
1.8573,0.2248,37.1300,80,96,67241
1.8524,0.2248,36.9300,80,96,67245
1.7986,0.2199,37.0300,80,96,67248
1.7742,0.2248,37.0300,80,96,67251
1.7889,0.2248,37.4300,80,96,67255
1.7840,0.2248,37.1000,80,96,67258
1.8377,0.2346,36.9300,80,96,67261
1.8280,0.2297,37.1000,80,96,67264
1.8377,0.2248,37.1300,80,96,67268
1.8719,0.2297,36.9600,80,96,67271
1.8475,0.2102,37.0600,80,96,67274
1.8524,0.2248,36.8900,80,96,67277
1.8084,0.2199,37.0600,80,96,67281
1.7937,0.2199,37.1000,80,96,67284
1.8133,0.2248,36.9600,80,96,67288
1.7937,0.2248,37.1000,80,96,67291
1.8377,0.2346,36.9300,80,96,67295
1.8280,0.2248,37.0600,80,96,67298
1.8377,0.2248,37.0600,80,96,67301
1.8768,0.2248,37.0000,80,96,67304
1.8524,0.2248,37.0000,80,96,67308
1.8817,0.2297,37.0000,80,96,67311
1.8524,0.2248,37.0600,80,96,67314
1.8377,0.2199,37.0600,80,96,67317
1.8524,0.2297,37.0300,80,96,67321
1.8084,0.2444,36.9600,80,96,67324
1.8084,0.2248,37.1000,80,96,67328
1.8524,0.2542,36.8300,80,96,67332
1.8328,0.2248,37.0300,80,96,67335
1.8328,0.2248,37.0600,80,96,67338
1.8475,0.2248,36.8900,80,96,67341
1.8328,0.2248,37.1300,80,96,67345
1.8622,0.2297,36.8900,80,96,67348
1.8280,0.2248,37.1000,80,96,67351
1.8280,0.2248,37.0000,80,96,67354
1.8377,0.2297,36.9600,80,96,67358
1.8182,0.2248,37.0600,80,96,67361
1.8426,0.2493,36.8900,80,96,67364
1.8231,0.2248,37.1000,80,96,67367
1.8231,0.2248,37.1300,80,96,67372
1.8475,0.2346,36.9600,80,96,67375
1.8280,0.2248,37.0600,80,96,67378
1.8524,0.2248,36.9300,80,96,67381
1.8280,0.2102,37.0000,80,96,67385
1.8231,0.2297,37.0600,80,96,67388
1.8328,0.2297,37.0000,80,96,67391
1.8377,0.2199,37.1000,80,96,67394
1.8524,0.2395,36.9300,80,96,67398
1.8231,0.2248,37.0000,80,96,67401
1.8133,0.2248,37.1000,80,96,67404
1.8426,0.2346,37.0000,80,96,67407
1.7791,0.2248,37.0600,80,96,67411
1.7986,0.2248,36.9300,80,96,67415
1.7840,0.2199,37.0000,80,96,67418
1.8084,0.2248,37.0600,80,96,67421
1.8573,0.2297,37.0000,80,96,67425
1.8573,0.2248,37.0600,80,96,67428
1.8817,0.2346,36.8900,80,96,67431
1.8475,0.2542,37.1300,80,96,67434
1.8328,0.2248,37.0600,80,96,67438
1.8475,0.2102,37.0000,80,96,67441
1.8231,0.2248,37.0300,80,96,67444
1.8475,0.2248,36.9300,80,96,67447
1.8231,0.2248,37.1000,80,96,67451
1.8182,0.2248,37.1000,80,96,67454
1.8377,0.2346,36.8600,80,96,67458
1.8133,0.2248,37.1600,80,96,67461
1.8377,0.2248,36.9600,80,96,67465
1.8084,0.2151,37.0000,80,96,67468
1.8035,0.2248,37.1300,80,96,67471
1.8182,0.2297,37.0000,80,96,67474
1.7986,0.2248,37.0600,80,96,67478
1.8328,0.2248,36.9300,80,96,67481
1.8084,0.2199,37.0600,80,96,67484
1.8182,0.2199,37.1000,80,96,67487
1.8133,0.2395,37.0300,80,96,67491
1.8084,0.2248,37.0600,80,96,67494
1.8475,0.2346,36.9300,80,96,67497
1.8280,0.2297,37.0600,80,96,67501
1.8426,0.2248,37.1000,80,96,67505
1.9013,0.2346,36.9600,80,96,67508
1.8426,0.2248,37.0300,80,96,67511
1.8622,0.2297,36.9600,80,96,67514
1.8280,0.2199,37.0300,80,96,67518
1.8182,0.2297,37.1000,80,96,67521
1.8426,0.2297,36.9600,80,96,67524
1.8182,0.2248,37.1000,80,96,67527
1.8426,0.2346,36.9600,80,96,67531
1.8133,0.2395,36.2800,80,96,67534
1.8133,0.2248,37.0600,80,96,67537
1.8231,0.2248,37.0000,80,96,67540
1.8133,0.2444,37.0600,80,96,67545
1.8328,0.2297,37.0000,80,96,67548
1.7986,0.2248,37.0600,80,96,67551
1.7937,0.2199,37.0600,80,96,67554
1.8133,0.2346,36.6700,80,96,67558
1.7840,0.2297,36.9300,80,96,67561
1.8133,0.2346,36.9300,80,96,67564
1.7889,0.2297,37.1000,80,96,67567
1.7986,0.2199,37.2600,80,96,67571
1.8328,0.2346,36.9600,80,96,67574
1.8231,0.2248,37.0300,80,96,67577
1.8573,0.2297,36.9600,80,96,67580
1.8377,0.2248,37.2600,80,96,67585
1.8426,0.2248,37.0600,80,96,67588
1.8817,0.2199,37.0000,80,96,67591
1.8328,0.2297,37.1000,80,96,67594
1.8622,0.2297,36.9300,80,96,67598
1.8328,0.2248,37.1600,80,96,67601
1.8377,0.2102,37.1000,80,96,67604
1.8426,0.2346,36.9300,80,96,67607
1.7937,0.2151,37.1000,80,96,67611
1.8084,0.2297,36.9600,80,96,67614
1.7937,0.2248,37.0600,80,96,67617
1.8035,0.2199,37.1300,80,96,67620
1.8475,0.2297,37.0000,80,96,67624
1.8231,0.2102,37.0600,80,96,67628
1.8426,0.2297,36.9300,80,96,67631
1.8084,0.2248,37.1000,80,96,67634
1.8035,0.2248,37.0300,80,96,67638
1.8133,0.2248,37.0300,80,96,67641
1.8035,0.2248,37.0600,80,96,67644
1.8426,0.2102,36.9300,80,96,67647
1.8475,0.2248,37.0600,80,96,67651
1.8426,0.2199,37.1000,80,96,67654
1.8915,0.2297,37.0000,80,96,67657
1.8719,0.2248,37.0600,80,96,67660
1.8964,0.2297,36.9300,80,96,67664
1.8817,0.2248,37.0300,80,96,67667
1.8817,0.2248,37.0600,80,96,67671
1.9062,0.2346,36.9600,80,96,67674
1.8719,0.2297,37.0600,80,96,67678
1.9013,0.2297,37.0000,80,96,67681
1.9013,0.2248,37.1000,80,96,67684
1.9355,0.2102,37.0600,80,96,67687
1.9746,0.2395,37.0300,80,96,67691
1.9501,0.2248,37.0600,80,96,67694
1.9892,0.2199,36.9300,80,96,67697
1.9404,0.2199,37.1000,80,96,67700
1.9110,0.2248,37.1000,80,96,67704
1.9648,0.2346,36.9300,80,96,67707
1.9013,0.2248,37.0600,80,96,67710
1.8964,0.2297,36.9600,80,96,67714
1.8573,0.2102,37.0300,80,96,67717
1.8377,0.2248,37.1300,80,96,67721
1.8524,0.2297,36.9600,80,96,67724
1.8182,0.2297,37.0300,80,96,67727
1.8231,0.2248,36.9300,80,96,67730
1.7937,0.2248,37.1600,80,96,67734
1.7889,0.2248,37.0600,80,96,67737
1.8231,0.2297,37.0300,80,96,67740
1.7937,0.2444,37.0000,80,96,67743
1.8084,0.2297,36.9300,80,96,67747
1.7791,0.2248,37.0600,80,96,67750
1.8035,0.2102,37.0600,80,96,67753
1.7889,0.2297,36.9600,80,96,67757
1.7595,0.2297,37.0300,80,96,67761
1.7986,0.2248,36.9300,80,96,67764
1.7595,0.2248,37.1600,80,96,67767
1.7595,0.2248,37.0600,80,96,67770
1.7791,0.2444,36.9300,80,96,67774
1.7595,0.2639,37.0000,80,96,67777
1.7693,0.2248,37.0000,80,96,67780
1.7546,0.2346,37.1000,80,96,67783
1.7400,0.2590,37.0600,80,96,67787
1.7351,0.2297,36.9600,80,96,67790
1.6764,0.2297,37.0600,80,96,67793
1.6813,0.2248,37.0000,80,96,67796
1.6911,0.2248,37.0600,80,96,67801
1.7302,0.2248,37.0600,80,96,67804
1.8377,0.2395,36.9300,80,96,67807
1.9599,0.2297,37.0300,80,96,67810
2.1750,0.2248,37.0000,80,96,67814
2.4145,0.2297,37.0600,80,96,67817
2.6833,0.2248,37.1000,80,96,67820
2.9717,0.2346,37.0000,80,96,67823
3.0841,0.2297,37.0300,80,96,67827
3.0938,0.2248,37.0000,80,96,67830
2.9472,0.2297,37.0600,80,96,67833
2.7322,0.2199,37.1000,80,96,67836
2.5367,0.2542,36.9600,80,96,67841
2.2532,0.2297,37.0600,80,96,67844
2.0528,0.2346,37.0000,80,96,67847
1.8964,0.2248,37.0600,80,96,67850
1.7889,0.2248,37.0600,80,96,67854
1.7742,0.2346,36.9300,80,96,67857
1.6667,0.2395,37.0000,80,96,67860
1.6080,0.2248,37.0000,80,96,67863
1.5591,0.2248,37.0600,80,96,67867
1.5200,0.2248,37.1600,80,96,67870
1.5640,0.2444,36.8900,80,96,67873
1.5396,0.2590,37.0300,80,96,67876
1.5543,0.2199,37.0300,80,96,67880
1.5640,0.2248,37.0600,80,96,67884
1.5787,0.2199,37.1000,80,96,67887
1.6276,0.2395,36.8600,80,96,67890
1.5836,0.2297,37.0300,80,96,67894
1.5738,0.2248,37.1000,80,96,67897
1.5885,0.2346,37.0300,80,96,67900
1.6031,0.2248,37.1600,80,96,67903
1.6716,0.2395,36.8900,80,96,67907
1.6618,0.2346,37.0300,80,96,67910
1.6422,0.2248,37.0600,80,96,67913
1.6373,0.2297,37.0600,80,96,67916
1.6227,0.2248,37.1000,80,96,67920
1.6618,0.2493,36.8000,80,96,67923
1.6227,0.2297,37.0600,80,96,67927
1.6325,0.2199,37.0000,80,96,67930
1.6422,0.2346,37.0600,80,96,67934
1.7058,0.2248,37.1000,80,96,67937
1.6960,0.2248,37.0600,80,96,67940
1.7400,0.2297,36.8900,80,96,67944
1.7351,0.2297,37.0600,80,96,67947
1.7644,0.2297,36.9300,80,96,67950
1.7693,0.2248,37.0600,80,96,67953
1.7791,0.2248,37.1300,80,96,67957
1.8133,0.2346,36.9300,80,96,67960
1.7986,0.2248,37.0300,80,96,67963
1.8133,0.2248,36.9600,80,96,67966
1.7889,0.2248,37.0600,80,96,67971
1.7791,0.2199,37.0600,80,96,67974
1.7986,0.2346,37.2600,80,96,67977
1.7742,0.2297,37.0600,80,96,67980
1.7937,0.2199,36.9300,80,96,67984
1.7986,0.2199,37.0600,80,96,67987
1.8133,0.2248,37.1600,80,96,67990
1.8622,0.2346,36.9300,80,96,67993
1.8377,0.2297,37.0600,80,96,67997
1.8524,0.2395,36.9300,80,96,68000
1.8328,0.2248,37.1600,80,96,68003
1.8328,0.2248,37.0600,80,96,68006
1.8622,0.2346,36.9600,80,96,68011
1.8524,0.2297,37.0000,80,96,68014
1.8768,0.2248,36.9600,80,96,68017
1.8573,0.2297,37.1000,80,96,68020
1.8622,0.2199,37.0600,80,96,68024
1.9013,0.2346,36.9600,80,96,68027
1.8915,0.2297,37.0600,80,96,68030
1.9404,0.2297,36.9300,80,96,68033
1.9453,0.2199,37.1000,80,96,68037
1.9599,0.2248,37.1300,80,96,68040
2.0283,0.2297,36.9600,80,96,68043
2.0235,0.2346,37.0300,80,96,68046
2.0283,0.2297,36.9300,80,96,68050
2.0137,0.2248,37.0600,80,96,68054
1.9844,0.2248,37.0600,80,96,68057
2.0088,0.2297,36.9300,80,96,68060
1.9697,0.2297,37.0300,80,96,68064
1.9648,0.2444,36.9600,80,96,68067
1.9599,0.2248,37.0600,80,96,68070
1.9697,0.2248,37.0600,80,96,68073
2.0137,0.2346,36.9600,80,96,68077
1.9746,0.2297,37.0600,80,96,68080
1.9648,0.2248,37.0000,80,96,68083
1.9404,0.2199,37.0300,80,96,68086
1.9355,0.2248,36.2500,80,96,68090
1.9892,0.2346,36.9300,80,96,68093
1.9599,0.2297,37.0000,80,96,68097
1.9501,0.2248,37.0000,80,96,68100
1.9257,0.2248,37.0600,80,96,68104
1.8964,0.2248,37.1000,80,96,68107
1.9208,0.2395,36.8900,80,96,68110
1.8719,0.2297,37.0000,80,96,68113
1.8768,0.2199,37.0000,80,96,68117
1.8231,0.2297,37.0300,80,96,68120
1.8084,0.2248,37.1000,80,96,68123
1.8426,0.2395,36.9600,80,96,68126
1.7937,0.2297,37.0000,80,96,68130
1.7644,0.2248,37.0600,80,96,68133
1.7351,0.2297,37.0600,80,96,68136
1.7155,0.2297,37.0600,80,96,68140
1.7546,0.2444,36.9300,80,96,68144
1.7107,0.2297,37.0000,80,96,68147
1.6813,0.2102,37.0000,80,96,68150
1.6716,0.2248,37.0600,80,96,68153
1.6569,0.2248,37.0600,80,96,68157
1.7009,0.2395,36.8600,80,96,68160
1.6471,0.2297,36.9600,80,96,68163
1.6373,0.2199,37.0300,80,96,68166
1.6422,0.2199,37.0300,80,96,68169
1.6471,0.2199,37.0600,80,96,68173
1.7058,0.2444,36.9600,80,96,68176
1.6764,0.2346,36.9600,80,96,68179
1.6569,0.2248,37.0300,80,96,68183
1.6618,0.2297,37.2600,80,96,68187
1.6471,0.2248,37.1000,80,96,68190
1.6911,0.2395,36.8600,80,96,68193
1.6618,0.2297,36.9600,80,96,68196
1.6520,0.2199,37.0300,80,96,68200
1.6911,0.2297,37.1000,80,96,68203
1.6764,0.2248,37.1000,80,96,68206
1.7546,0.2493,36.8000,80,96,68209
1.7498,0.2297,36.9600,80,96,68213
1.7498,0.2248,37.1000,80,96,68216
1.7644,0.2297,37.2600,80,96,68219
1.7546,0.2248,37.0600,80,96,68222
1.7840,0.2444,36.8300,80,96,68227
1.7400,0.2297,36.8900,80,96,68230
1.7107,0.1906,37.0600,80,96,68233
1.7302,0.2199,37.0600,80,96,68236
1.7155,0.2248,37.1600,80,96,68240
1.7791,0.2297,36.8300,80,96,68243
1.7498,0.2297,36.9300,80,96,68246
1.7351,0.2199,37.0600,80,96,68249
1.7449,0.2297,36.3800,80,96,68253
1.7400,0.2248,37.1000,80,96,68256
1.7937,0.2395,36.8000,80,96,68259
1.7595,0.2346,36.9600,80,96,68262
1.7498,0.2199,37.1600,80,96,68267
1.7644,0.2297,37.0000,80,96,68270
1.7400,0.2248,37.1000,80,96,68273
1.7889,0.2346,36.7700,80,96,68276
1.7595,0.2297,36.9600,80,96,68280
1.7400,0.2199,37.1000,80,96,68283
1.7546,0.2639,37.0000,80,96,68286
1.7498,0.2248,37.1000,80,96,68289
1.8231,0.2444,36.7700,80,96,68293
1.7498,0.2102,37.0300,80,96,68296
1.7449,0.2248,37.0600,80,96,68299
1.7644,0.2297,37.0600,80,96,68302
1.7644,0.2248,37.1000,80,96,68306
1.8328,0.2346,36.8000,80,96,68310
1.8084,0.2248,37.0000,80,96,68313
1.8084,0.2102,37.1300,80,96,68316
1.8182,0.2346,37.0600,80,96,68320
1.8035,0.2297,37.0600,80,96,68323
1.8426,0.2297,36.8300,80,96,68326
1.8182,0.2346,36.9600,80,96,68329
1.7693,0.2248,37.0600,80,96,68333
1.7644,0.2297,37.1000,80,96,68336
1.7400,0.2248,37.0600,80,96,68339
1.7840,0.2639,36.8000,80,96,68342
1.7498,0.2248,36.9600,80,96,68346
1.7498,0.2248,37.1300,80,96,68349
1.7742,0.2102,37.0000,80,96,68353
1.7595,0.2248,37.1600,80,96,68356
1.8035,0.2346,36.8300,80,96,68360
1.7595,0.2248,37.0000,80,96,68363
1.7693,0.2199,37.1000,80,96,68366
1.7840,0.2297,37.0300,80,96,68369
1.7693,0.2248,37.1000,80,96,68373
1.8133,0.2346,36.8000,80,96,68376
1.7693,0.2542,37.0000,80,96,68379
1.7546,0.2248,37.0600,80,96,68382
1.7840,0.2297,37.0300,80,96,68386
1.7742,0.2297,37.0600,80,96,68389
1.8280,0.2297,36.9600,80,96,68392
1.7889,0.2248,37.0000,80,96,68396
1.7644,0.2248,37.0000,80,96,68400
1.7644,0.2297,37.0300,80,96,68403
1.7400,0.2248,37.0600,80,96,68406
1.7742,0.2346,36.8600,80,96,68409
1.7302,0.2199,36.9600,80,96,68413
1.7449,0.2248,37.1000,80,96,68416
1.7742,0.2346,37.0300,80,96,68419
1.7791,0.2248,37.1000,80,96,68422
1.8426,0.2346,36.8600,80,96,68426
1.8377,0.2297,36.9600,80,96,68429
1.8280,0.2248,37.0600,80,96,68432
1.8524,0.2346,37.0000,80,96,68435
1.8280,0.2248,37.0600,80,96,68440
1.8622,0.2346,36.8300,80,96,68443
1.8231,0.2395,37.0000,80,96,68446
1.8084,0.2248,37.0600,80,96,68449
1.8280,0.2395,37.0000,80,96,68453
1.8231,0.2248,37.1300,80,96,68456
1.8915,0.2346,36.8300,80,96,68459
1.8817,0.1906,37.0600,80,96,68462
1.9159,0.2346,37.0600,80,96,68466
1.9501,0.2297,37.0300,80,96,68469
1.9257,0.2248,37.0600,80,96,68472
1.9453,0.2639,36.8900,80,96,68475
1.8817,0.2297,37.0300,80,96,68480
1.8426,0.2248,37.1000,80,96,68483
1.8426,0.2297,37.0000,80,96,68486
1.8084,0.2248,37.0600,80,96,68489
1.8426,0.2346,36.8600,80,96,68493
1.8133,0.2297,37.0300,80,96,68496
1.7986,0.2199,37.1000,80,96,68499
1.8035,0.2346,37.0000,80,96,68502
1.7791,0.2102,37.0600,80,96,68505
1.7986,0.2297,36.8600,80,96,68509
1.7498,0.2248,37.0600,80,96,68512
1.7400,0.2248,37.0600,80,96,68515
1.7400,0.2346,36.9300,80,96,68518
1.7155,0.2297,37.0600,80,96,68523
1.7498,0.2297,36.8900,80,96,68526
1.7449,0.2297,37.0000,80,96,68529
1.7400,0.2248,37.1300,80,96,68532
1.7791,0.2346,36.9300,80,96,68536
1.7742,0.2248,37.0600,80,96,68539
1.8280,0.2346,36.8900,80,96,68542
1.7302,0.2346,36.8000,80,96,68546
1.6813,0.2297,37.0000,80,96,68549
1.6764,0.2248,37.1300,80,96,68552
1.6813,0.2297,37.0300,80,96,68556
1.6471,0.2248,37.0600,80,96,68559
1.6813,0.2346,36.8600,80,96,68562
1.6618,0.2297,37.2600,80,96,68566
1.6667,0.2199,37.1000,80,96,68570
1.7204,0.2346,37.1000,80,96,68573
1.7742,0.2248,37.1000,80,96,68576
1.9501,0.2346,36.8000,80,96,68579
2.1065,0.2297,36.9600,80,96,68583
2.3460,0.2346,37.1300,80,96,68586
2.6442,0.2297,36.5700,80,96,68589
2.8739,0.2248,37.0600,80,96,68592
3.1036,0.2542,36.8000,80,96,68596
3.0547,0.2248,37.3000,80,96,68599
2.9374,0.2102,37.1000,80,96,68602
2.7566,0.2297,37.0000,80,96,68605
2.5024,0.2248,37.2000,80,96,68610
2.3216,0.2346,36.8300,80,96,68613
2.0821,0.2297,37.0300,80,96,68616
1.9110,0.2248,37.1000,80,96,68619
1.8231,0.2346,37.0000,80,96,68623
1.7155,0.2395,37.0600,80,96,68626
1.6960,0.2297,36.8600,80,96,68629
1.6276,0.2102,37.0000,80,96,68632
1.5787,0.2248,37.0600,80,96,68636
1.5885,0.2297,37.0300,80,96,68639
1.5738,0.2102,37.1000,80,96,68642
1.6129,0.2346,36.8300,80,96,68645
1.5787,0.2199,37.0600,80,96,68649
1.5934,0.2248,37.1000,80,96,68653
1.6080,0.2346,37.1000,80,96,68656
1.5885,0.2248,37.1000,80,96,68659
1.6080,0.2346,36.8300,80,96,68662
1.5836,0.2297,37.0300,80,96,68666
1.5787,0.2248,37.1000,80,96,68669
1.6178,0.2297,36.9600,80,96,68672
1.6471,0.2102,37.1000,80,96,68675
1.6716,0.2297,36.8000,80,96,68679
1.6569,0.2297,37.0300,80,96,68682
1.6520,0.2248,37.1000,80,96,68685
1.6618,0.2590,37.0300,80,96,68688
1.6422,0.2248,37.0600,80,96,68692
1.6764,0.2395,36.8600,80,96,68696
1.6520,0.2248,37.0600,80,96,68699
1.6618,0.2248,37.0600,80,96,68702
1.6813,0.2346,37.0300,80,96,68706
1.6764,0.2199,37.1000,80,96,68709
1.7302,0.2297,36.9300,80,96,68712
1.7204,0.2297,36.9600,80,96,68715
1.7253,0.2248,37.0600,80,96,68719
1.7595,0.2688,37.0000,80,96,68722
1.7498,0.2248,37.0600,80,96,68725
1.7937,0.2346,36.8600,80,96,68728
1.7840,0.2297,37.0000,80,96,68732
1.7840,0.2248,37.0600,80,96,68736
1.8133,0.2199,36.9600,80,96,68739
1.7595,0.2248,37.1300,80,96,68742
1.7644,0.2297,36.8900,80,96,68746
1.7351,0.2248,37.0600,80,96,68749
1.7400,0.2199,37.1000,80,96,68752
1.7791,0.2297,36.9600,80,96,68755
1.7889,0.2248,37.1300,80,96,68759
1.8426,0.2297,36.8600,80,96,68762
1.8475,0.2248,36.9600,80,96,68765
1.8475,0.2248,37.1000,80,96,68768
1.8671,0.2297,36.8000,80,96,68772
1.8524,0.2199,37.1000,80,96,68775
1.8768,0.2297,36.8600,80,96,68779
1.8622,0.2248,37.0000,80,96,68782
1.8671,0.2248,37.1000,80,96,68786
1.8817,0.2346,36.9600,80,96,68789
1.8622,0.2248,37.0600,80,96,68792
1.8964,0.2297,36.8900,80,96,68795
1.8817,0.2248,37.1000,80,96,68799
1.8964,0.2248,37.1000,80,96,68802
1.9306,0.2297,36.9600,80,96,68805
1.9257,0.2248,37.0600,80,96,68808
1.9795,0.2346,36.8900,80,96,68812
1.9501,0.2151,37.0000,80,96,68815
1.9501,0.2248,37.0600,80,96,68818
1.9746,0.2297,36.9600,80,96,68822
1.9550,0.2199,37.0300,80,96,68826
1.9746,0.2297,36.9600,80,96,68829
1.9453,0.2248,37.0300,80,96,68832
1.9599,0.2199,37.1000,80,96,68835
1.9941,0.2297,36.9600,80,96,68839
1.9990,0.2248,37.1000,80,96,68842
2.0332,0.2248,36.9300,80,96,68845
2.0088,0.2248,37.0600,80,96,68848
2.0137,0.2248,37.1000,80,96,68852
2.0528,0.2248,36.9600,80,96,68855
2.0283,0.2297,37.0600,80,96,68858
2.0479,0.2248,36.9300,80,96,68861
1.9990,0.2248,37.0300,80,96,68866
1.9746,0.2248,37.1000,80,96,68869
1.9697,0.2297,36.9600,80,96,68872
1.9355,0.2102,37.0600,80,96,68875
1.9355,0.2590,36.9300,80,96,68879
1.8817,0.2199,37.0300,80,96,68882
1.8573,0.2199,37.0600,80,96,68885
1.8328,0.2248,36.9600,80,96,68888
1.7986,0.2248,37.0600,80,96,68892
1.7986,0.2297,36.9600,80,96,68895
1.7644,0.2297,37.0600,80,96,68898
1.7449,0.2248,37.1000,80,96,68901
1.7644,0.2346,36.9600,80,96,68904
1.7302,0.2248,37.0600,80,96,68909
1.7498,0.2297,37.0000,80,96,68912
1.7155,0.2199,37.1300,80,96,68915
1.7302,0.2248,37.1000,80,96,68918
1.7449,0.2346,37.0000,80,96,68922
1.7204,0.2248,37.1000,80,96,68925
1.7693,0.2346,37.0000,80,96,68928
1.6960,0.2248,37.1300,80,96,68931
1.6960,0.2248,37.1000,80,96,68935
1.7253,0.2248,37.0300,80,96,68938
1.6764,0.2297,37.1600,80,96,68941
1.6813,0.2346,36.9600,80,96,68944
1.6471,0.2248,37.0600,80,96,68948
1.6520,0.2297,37.0300,80,96,68952
1.6911,0.2346,36.9300,80,96,68955
1.6764,0.2297,37.0600,80,96,68958
1.7058,0.2346,36.9600,80,96,68962
1.6911,0.2444,37.1600,80,96,68965
1.6960,0.2248,37.3000,80,96,68968
1.7253,0.2297,37.0300,80,96,68971
1.7155,0.2297,37.2000,80,96,68975
1.7498,0.2297,37.0300,80,96,68978
1.7400,0.2248,37.1300,80,96,68981
1.7351,0.2199,37.0600,80,96,68984
1.7400,0.2297,37.0300,80,96,68988
1.7253,0.2248,37.1000,80,96,68992
1.7595,0.2444,36.9300,80,96,68995
1.7595,0.2346,37.1300,80,96,68998
1.7791,0.2248,37.1000,80,96,69002
1.8133,0.2297,36.9300,80,96,69005
1.7840,0.2297,37.0600,80,96,69008
1.7937,0.2346,36.8900,80,96,69011
1.7644,0.2248,37.0600,80,96,69015
1.7693,0.2102,37.1000,80,96,69018
1.7791,0.2395,36.9600,80,96,69021
1.7546,0.2248,37.0300,80,96,69024
1.7742,0.2297,36.9300,80,96,69028
1.7449,0.2248,37.1000,80,96,69031
1.7693,0.2248,37.1000,80,96,69035
1.7937,0.2395,37.1000,80,96,69038
1.7937,0.2248,37.0600,80,96,69042
1.8426,0.2297,36.9300,80,96,69045
1.7840,0.2102,37.0600,80,96,69048
1.7791,0.2248,37.0000,80,96,69051
1.8035,0.2297,36.8900,80,96,69055
1.7742,0.2297,37.0600,80,96,69058
1.7937,0.2346,36.9600,80,96,69061
1.7889,0.2248,37.0600,80,96,69064
1.8084,0.2248,36.9300,80,96,69068
1.8573,0.2346,36.9600,80,96,69071
1.8719,0.2248,37.0300,80,96,69074
1.8964,0.2297,37.0600,80,96,69078
1.8573,0.2346,37.1000,80,96,69082
1.8133,0.2248,37.1000,80,96,69085
1.8133,0.2346,37.0300,80,96,69088
1.7791,0.2297,36.8900,80,96,69091
1.7986,0.2297,36.9600,80,96,69095
1.7791,0.2248,37.0600,80,96,69098
1.7937,0.2199,37.0600,80,96,69101
1.8328,0.2395,36.8600,80,96,69104
1.8182,0.2297,37.2600,80,96,69108
1.8377,0.2297,36.9300,80,96,69111
1.8280,0.2199,37.0600,80,96,69114
1.8133,0.2248,37.1000,80,96,69117
1.8426,0.2297,36.9600,80,96,69122
1.8133,0.2199,37.0300,80,96,69125
1.8280,0.2297,36.9300,80,96,69128
1.7986,0.2248,37.0600,80,96,69131
1.8035,0.2248,37.1000,80,96,69135
1.8280,0.2248,37.0300,80,96,69138
1.8280,0.2297,37.0600,80,96,69141
1.8524,0.2248,36.9300,80,96,69144
1.8328,0.2346,37.1000,80,96,69148
1.8231,0.2248,37.1000,80,96,69151
1.8524,0.2346,36.9300,80,96,69154
1.8426,0.2297,36.9300,80,96,69158
1.8377,0.2248,37.0600,80,96,69161
1.8671,0.2346,36.9300,80,96,69165
1.8328,0.2297,37.0300,80,96,69169
1.8231,0.2248,37.1600,80,96,69172
1.8182,0.2297,37.0000,80,96,69175
1.7937,0.2248,37.1000,80,96,69178
1.8133,0.2248,37.0300,80,96,69182
1.7889,0.2248,37.1000,80,96,69185
1.7986,0.2248,37.1000,80,96,69188
1.8328,0.2346,36.9600,80,96,69191
1.8182,0.2346,37.0600,80,96,69195
1.8573,0.2248,37.0300,80,96,69198
1.8377,0.2199,37.0600,80,96,69201
1.8475,0.2151,37.1000,80,96,69204
1.8817,0.2444,36.9300,80,96,69209
1.8719,0.2297,37.1600,80,96,69212
1.9013,0.2297,36.9300,80,96,69215
1.8719,0.2297,37.1300,80,96,69218
1.8817,0.2248,37.1000,80,96,69222
1.9159,0.2248,37.0600,80,96,69225
1.9453,0.2102,37.0600,80,96,69228
1.9892,0.2590,36.9300,80,96,69231
1.9599,0.2493,37.1000,80,96,69235
1.9599,0.2248,37.1000,80,96,69238
1.9844,0.2346,36.9600,80,96,69241
1.9453,0.2199,37.0600,80,96,69244
1.9550,0.2297,37.1300,80,96,69249
1.8964,0.2199,37.1000,80,96,69252
1.8719,0.2199,37.1000,80,96,69255
1.8768,0.2493,36.9600,80,96,69258
1.8377,0.2248,37.0600,80,96,69262
1.8866,0.2346,37.0000,80,96,69265
1.8084,0.2493,37.0300,80,96,69268
1.8035,0.2248,37.1000,80,96,69271
1.8133,0.2248,37.0300,80,96,69275
1.7937,0.2297,37.1000,80,96,69278
1.8133,0.2346,37.0000,80,96,69281
1.7937,0.2346,37.0600,80,96,69284
1.7937,0.2248,37.1600,80,96,69287
1.8231,0.2346,37.0000,80,96,69292
1.7986,0.2297,37.1000,80,96,69295
1.8084,0.2346,36.9600,80,96,69298
1.7693,0.2248,37.0300,80,96,69301
1.7595,0.2248,37.0600,80,96,69305
1.7595,0.2346,37.0000,80,96,69308
1.7351,0.2444,37.0600,80,96,69311
1.7546,0.2297,36.9600,80,96,69314
1.7302,0.2297,37.0600,80,96,69318
1.7400,0.2248,37.0600,80,96,69321
1.7791,0.2297,37.0300,80,96,69324
1.7693,0.2199,37.0600,80,96,69327
1.8084,0.2297,36.9300,80,96,69331
1.7889,0.2297,37.0600,80,96,69335
1.7693,0.2248,37.1000,80,96,69338
1.7546,0.2346,36.8900,80,96,69341
1.6862,0.2248,37.1000,80,96,69345
1.6667,0.2297,36.9600,80,96,69348
1.6325,0.2102,37.0600,80,96,69351
1.6569,0.2493,37.1000,80,96,69354
1.7498,0.2297,36.8900,80,96,69358
1.8622,0.2297,37.0600,80,96,69361
2.0870,0.2297,36.9300,80,96,69364
2.3412,0.2248,37.3000,80,96,69367
2.6491,0.2248,37.1000,80,96,69371
2.9472,0.2346,37.0600,80,96,69374
3.1183,0.2297,37.0300,80,96,69378
3.2160,0.2297,36.9300,80,96,69381
3.0792,0.2248,37.0600,80,96,69385
2.8739,0.2444,37.0600,80,96,69388
2.6637,0.2297,36.8900,80,96,69391
2.3509,0.2297,37.0300,80,96,69394
2.1163,0.2346,36.9300,80,96,69398
1.9208,0.2248,37.0600,80,96,69401
1.8231,0.2248,37.1000,80,96,69404
1.7791,0.2346,36.9600,80,96,69407
1.7204,0.2444,37.0600,80,96,69411
1.7058,0.2297,36.9300,80,96,69414
1.6813,0.2297,37.1000,80,96,69417
1.6520,0.2199,37.0600,80,96,69421
1.6471,0.2297,37.1000,80,96,69425
1.5982,0.2297,37.0300,80,96,69428
1.5738,0.2639,36.9600,80,96,69431
1.5347,0.2346,37.0600,80,96,69434
1.5152,0.2248,37.0600,80,96,69438
1.5836,0.2346,36.9300,80,96,69441
1.5640,0.2199,37.0300,80,96,69444
1.5836,0.2248,37.0600,80,96,69447
1.5885,0.2248,37.0600,80,96,69451
1.5982,0.2542,37.1000,80,96,69454
1.6422,0.2297,36.8600,80,96,69457
1.6373,0.2297,37.0300,80,96,69460
1.6471,0.2297,37.0000,80,96,69465
1.6325,0.2248,37.2000,80,96,69468
1.6325,0.2248,37.1000,80,96,69471
1.6667,0.2395,36.9600,80,96,69474
1.6569,0.2248,37.0600,80,96,69478
1.6862,0.2248,36.9300,80,96,69481
1.6862,0.2297,37.1300,80,96,69484
1.6960,0.2102,37.0600,80,96,69487
1.7351,0.2346,36.8600,80,96,69491
1.7107,0.2297,37.0600,80,96,69494
1.7107,0.2248,37.0000,80,96,69497
1.7058,0.2297,37.1000,80,96,69500
1.7155,0.2248,36.8300,80,96,69505
1.7693,0.2346,36.9300,80,96,69508
1.7546,0.2297,37.0000,80,96,69511
1.7546,0.2248,36.8900,80,96,69514
1.7498,0.2248,37.1000,80,96,69518
1.7546,0.2248,37.1000,80,96,69521
1.8377,0.2395,36.9600,80,96,69524
1.7889,0.2297,37.0600,80,96,69527
1.8084,0.2248,37.0000,80,96,69531
1.8035,0.2297,37.0600,80,96,69534
1.8084,0.2297,37.0600,80,96,69537
1.8622,0.2346,36.8900,80,96,69540
1.8377,0.2346,37.0000,80,96,69544
1.8231,0.2151,37.0000,80,96,69548
1.8133,0.2297,37.2000,80,96,69551
1.8084,0.2248,37.1000,80,96,69554
1.8964,0.2444,36.8900,80,96,69558
1.8426,0.2297,37.0300,80,96,69561
1.8573,0.2248,37.0000,80,96,69564
1.8622,0.2248,37.0600,80,96,69567
1.8671,0.2248,37.1000,80,96,69571
1.9062,0.2395,36.9300,80,96,69574
1.8768,0.2297,37.0300,80,96,69577
1.8817,0.2248,37.0000,80,96,69580
1.8817,0.2346,37.0600,80,96,69584
1.8915,0.2199,37.0600,80,96,69587
1.9599,0.2346,36.9300,80,96,69591
1.9550,0.2297,37.0000,80,96,69594
1.9746,0.2297,37.0000,80,96,69598
2.0088,0.2248,37.2000,80,96,69601
2.0186,0.2248,37.0600,80,96,69604
2.0919,0.2395,36.8900,80,96,69607
2.0381,0.2346,37.0000,80,96,69610
2.0088,0.2151,37.0000,80,96,69614
1.9941,0.2248,37.0600,80,96,69617
1.9941,0.2248,37.1000,80,96,69620
2.0674,0.2493,36.8900,80,96,69623
2.0430,0.2297,36.9600,80,96,69627
2.0430,0.2248,37.0600,80,96,69630
2.0283,0.2248,37.1000,80,96,69634
2.0088,0.2248,37.0600,80,96,69637
2.0577,0.2444,36.8300,80,96,69641
2.0088,0.2444,36.9300,80,96,69644
1.9795,0.2199,37.0600,80,96,69647
1.9746,0.2297,37.0600,80,96,69650
1.9550,0.2248,37.1000,80,96,69654
2.0039,0.2444,36.8300,80,96,69657
1.9501,0.2346,36.9600,80,96,69660
1.9355,0.2199,37.2600,80,96,69663
1.9208,0.2297,37.0600,80,96,69667
1.8817,0.2248,37.1000,80,96,69670
1.9110,0.2493,36.8600,80,96,69673
1.8475,0.2297,37.0300,80,96,69677
1.8182,0.2102,37.0600,80,96,69681
1.8084,0.2102,37.0300,80,96,69684
1.7791,0.2248,37.1000,80,96,69687
1.8231,0.2346,36.8000,80,96,69690
1.7889,0.2297,36.9600,80,96,69694
1.7693,0.2199,37.0600,80,96,69697
1.7742,0.2297,37.0600,80,96,69700
1.7595,0.2297,37.1000,80,96,69703
1.7791,0.2346,36.8300,80,96,69707
1.7009,0.2248,37.0300,80,96,69710
1.6569,0.2199,37.0600,80,96,69713
1.6422,0.2297,37.0300,80,96,69716
1.6716,0.2297,37.0600,80,96,69721
1.6862,0.2346,36.8000,80,96,69724
1.6569,0.2297,36.9600,80,96,69727
1.6667,0.2199,37.1000,80,96,69730
1.7253,0.2199,37.0300,80,96,69734
1.6960,0.2248,37.0000,80,96,69737
1.7498,0.2346,36.8000,80,96,69740
1.7107,0.2297,36.9600,80,96,69743
1.7058,0.2248,37.0600,80,96,69747
1.7107,0.2297,37.0300,80,96,69750
1.6960,0.2297,37.1000,80,96,69753
1.7400,0.2346,36.8300,80,96,69756
1.7058,0.2248,37.0000,80,96,69761
1.7107,0.2297,37.0600,80,96,69764
1.7351,0.2297,37.1000,80,96,69767
1.7937,0.2297,37.0600,80,96,69771
1.7791,0.2248,37.0000,80,96,69774
1.8084,0.2395,36.8900,80,96,69777
1.7693,0.2346,37.0000,80,96,69780
1.7400,0.2248,36.9300,80,96,69784
1.7498,0.2297,37.0600,80,96,69787
1.7498,0.2248,37.1300,80,96,69790
1.8084,0.2395,36.8900,80,96,69793
1.7742,0.2297,37.0000,80,96,69797
1.7840,0.2102,37.0300,80,96,69800
1.7546,0.2297,37.0600,80,96,69804
1.7498,0.2248,37.0600,80,96,69807
1.8133,0.2444,36.8900,80,96,69811
1.7840,0.2248,37.0000,80,96,69814
1.7791,0.2199,37.0300,80,96,69817
1.7840,0.2346,37.0300,80,96,69820
1.7791,0.2199,37.0600,80,96,69824
1.8475,0.2444,36.5100,80,96,69827
1.8280,0.2395,37.0600,80,96,69830
1.8328,0.2199,37.0300,80,96,69833
1.8524,0.2297,37.0000,80,96,69837
1.8426,0.2248,37.1000,80,96,69840
1.8817,0.2395,36.8300,80,96,69843
1.8377,0.2297,36.9600,80,96,69847
1.8182,0.2199,37.1000,80,96,69851
1.8231,0.2297,37.0600,80,96,69854
1.8084,0.2248,37.1000,80,96,69857
1.8524,0.2493,36.8300,80,96,69860
1.8231,0.2297,37.0600,80,96,69864
1.8084,0.2199,37.0600,80,96,69867
1.8280,0.2199,37.0600,80,96,69870
1.8133,0.2248,37.1600,80,96,69873
1.8622,0.2444,36.8300,80,96,69877
1.8280,0.2346,36.9600,80,96,69880
1.8182,0.2199,37.0600,80,96,69883
1.8280,0.2297,37.0600,80,96,69886
1.8280,0.2248,37.1000,80,96,69891
1.8719,0.2590,36.8300,80,96,69894
1.8280,0.2297,36.9600,80,96,69897
1.8280,0.2199,37.1000,80,96,69900
1.8426,0.2297,37.0300,80,96,69904
1.8573,0.2297,37.0600,80,96,69907
1.9159,0.2395,36.8000,80,96,69910
1.8719,0.2297,37.0300,80,96,69913
1.8426,0.2151,37.1000,80,96,69917
1.8328,0.2297,37.0300,80,96,69920
1.8133,0.2248,37.0600,80,96,69923
1.8768,0.2297,36.8300,80,96,69926
1.8475,0.2297,36.9300,80,96,69931
1.8377,0.2444,37.1000,80,96,69934
1.8426,0.2297,36.8900,80,96,69937
1.8231,0.2248,37.0600,80,96,69940
1.8622,0.2444,36.8300,80,96,69944
1.8182,0.2199,36.9600,80,96,69947
1.8133,0.2199,37.1600,80,96,69950
1.8182,0.2346,37.0300,80,96,69953
1.8084,0.2248,37.1000,80,96,69957
1.8573,0.2493,36.7700,80,96,69960
1.8133,0.2297,37.0600,80,96,69963
1.7986,0.2199,37.0600,80,96,69966
1.8084,0.2346,37.0600,80,96,69970
1.8084,0.2248,37.1600,80,96,69974
1.8768,0.2346,36.7700,80,96,69977
1.8622,0.2297,36.9600,80,96,69980
1.8768,0.2248,37.0600,80,96,69984
1.9062,0.2297,37.1000,80,96,69987
1.9013,0.2248,37.0600,80,96,69990
1.9355,0.2639,36.8300,80,96,69993
1.8622,0.2346,37.1000,80,96,69997
1.8280,0.2248,37.1300,80,96,70000
1.8182,0.2297,37.0300,80,96,70003
1.8035,0.2248,37.0600,80,96,70006
1.8671,0.2346,37.0000,80,96,70010
1.8524,0.2346,37.0000,80,96,70013
1.8475,0.2395,37.1300,80,96,70017
1.8719,0.2199,37.0300,80,96,70020
1.8671,0.2248,37.0300,80,96,70024
1.9159,0.2297,36.8000,80,96,70027
1.8768,0.2102,36.9600,80,96,70030
1.8719,0.2297,37.1000,80,96,70033
1.8964,0.2297,37.1000,80,96,70037
1.9159,0.2102,37.0600,80,96,70040
1.9990,0.2737,36.8000,80,96,70043
1.9795,0.2248,37.2000,80,96,70046
1.9941,0.2248,37.1000,80,96,70050
2.0235,0.2297,37.0300,80,96,70053
1.9795,0.2199,37.1000,80,96,70056
2.0186,0.2346,36.9300,80,96,70060
1.9648,0.2297,37.0000,80,96,70064
1.9257,0.2297,37.1300,80,96,70067
1.9208,0.2688,37.0300,80,96,70070
1.8768,0.2248,37.0600,80,96,70073
1.9013,0.2395,36.8000,80,96,70077
1.8475,0.2248,37.0300,80,96,70080
1.8280,0.2248,37.0600,80,96,70083
1.8280,0.2297,37.0300,80,96,70086
1.7986,0.2590,37.0600,80,96,70090
1.8231,0.2346,36.8300,80,96,70093
1.7644,0.2248,37.0300,80,96,70096
1.7595,0.2199,37.0600,80,96,70099
1.7498,0.2346,37.0300,80,96,70104
1.7449,0.2297,37.0600,80,96,70107
1.7986,0.2297,36.8300,80,96,70110
1.8182,0.2297,36.9600,80,96,70113
1.7937,0.2248,37.0600,80,96,70117
1.8231,0.2297,37.1000,80,96,70120
1.8133,0.2199,37.0600,80,96,70123
1.8671,0.2297,36.8600,80,96,70126
1.8524,0.2199,36.9300,80,96,70130
1.8524,0.2248,37.0600,80,96,70133
1.8915,0.2102,37.0300,80,96,70136
1.8328,0.2199,37.1000,80,96,70139
1.8671,0.2346,36.7700,80,96,70144
1.8084,0.2199,36.9600,80,96,70147
1.7791,0.2199,37.1300,80,96,70150
1.7351,0.2542,37.0300,80,96,70153
1.6667,0.2542,37.0600,80,96,70157
1.6716,0.2297,36.8900,80,96,70160
1.6520,0.2297,37.0000,80,96,70163
1.6764,0.2346,37.1000,80,96,70166
1.7742,0.2248,37.0000,80,96,70170
1.8817,0.2248,37.0600,80,96,70173
2.1212,0.2346,36.8300,80,96,70176
2.3656,0.2199,37.0000,80,96,70179
2.6344,0.2248,36.9600,80,96,70183
2.9326,0.2297,37.0300,80,96,70187
3.1134,0.2199,37.1000,80,96,70190
3.2600,0.2590,36.8900,80,96,70193
3.1134,0.2199,37.0000,80,96,70197
2.9326,0.2248,37.0600,80,96,70200
2.7077,0.2346,37.0000,80,96,70203
2.4242,0.2199,37.0600,80,96,70206
2.2483,0.2346,36.8600,80,96,70210
2.0381,0.2248,36.9600,80,96,70213
1.8866,0.2199,37.0600,80,96,70216
1.8035,0.2297,36.9600,80,96,70219
1.7107,0.2248,37.1000,80,96,70223
1.6813,0.2297,36.8900,80,96,70226
1.6178,0.2297,37.1600,80,96,70230
1.5885,0.2248,37.0600,80,96,70233
1.6276,0.2346,37.0000,80,96,70237
1.5787,0.2248,37.1000,80,96,70240
1.6178,0.2297,36.8300,80,96,70243
1.5934,0.2199,37.0600,80,96,70246
1.6031,0.2199,37.1000,80,96,70250
1.6276,0.2346,37.0000,80,96,70253
1.6178,0.2248,37.2000,80,96,70256
1.6422,0.2346,36.8900,80,96,70259
1.6325,0.2346,36.9600,80,96,70263
1.6276,0.2248,37.0300,80,96,70266
1.6716,0.2346,36.7000,80,96,70269
1.6667,0.2248,37.1000,80,96,70273
1.7302,0.2395,36.8600,80,96,70277
1.7253,0.2248,37.0300,80,96,70280
1.7302,0.2248,37.1000,80,96,70283
1.7400,0.2346,36.9600,80,96,70286
1.7155,0.2297,37.0300,80,96,70290
1.7351,0.2297,36.9600,80,96,70293
1.6911,0.2248,37.0600,80,96,70296
1.6862,0.2297,37.0600,80,96,70299
1.7107,0.2346,37.0000,80,96,70303
1.7155,0.2248,37.1300,80,96,70306
1.7644,0.2297,36.9600,80,96,70309
1.7498,0.2248,36.9600,80,96,70312
1.7498,0.2248,37.1600,80,96,70317
1.7840,0.2395,36.9600,80,96,70320
1.7791,0.2248,37.1000,80,96,70323
1.8231,0.2346,36.8300,80,96,70326
1.8084,0.2297,37.0000,80,96,70330
1.8084,0.2248,37.1000,80,96,70333
1.8280,0.2346,36.9600,80,96,70336
1.8035,0.2297,37.0600,80,96,70339
1.8377,0.2346,36.8600,80,96,70343
1.8133,0.2248,37.1000,80,96,70346
1.8377,0.2248,37.1300,80,96,70349
1.8817,0.2297,37.0300,80,96,70352
1.8817,0.2248,37.0600,80,96,70356
1.9159,0.2297,36.8900,80,96,70360
1.8817,0.2248,37.0300,80,96,70363
1.8719,0.2248,37.0600,80,96,70366
1.8866,0.2346,36.9600,80,96,70370
1.8622,0.2248,37.1000,80,96,70373
1.8866,0.2346,36.8600,80,96,70376
1.9599,0.2297,36.8300,80,96,70380
1.9257,0.2248,37.0000,80,96,70383
1.9404,0.2590,37.1000,80,96,70386
1.9648,0.2297,37.0600,80,96,70389
1.9795,0.2248,37.1000,80,96,70393
2.0626,0.2346,36.8000,80,96,70396
2.0430,0.2297,37.0600,80,96,70400
2.0430,0.2151,37.1000,80,96,70403
2.0626,0.2639,37.1000,80,96,70407
2.0479,0.2248,37.1000,80,96,70410
2.0968,0.2542,36.8300,80,96,70413
2.0479,0.2248,37.0000,80,96,70416
2.0332,0.2102,37.0600,80,96,70420
2.0479,0.2297,37.0600,80,96,70423
2.0430,0.2248,37.0600,80,96,70426
2.1163,0.2346,36.8000,80,96,70429
2.0821,0.2199,37.1600,80,96,70433
2.1163,0.2102,37.1000,80,96,70436
2.1065,0.2248,37.1000,80,96,70439
2.0870,0.2248,37.0300,80,96,70443
2.1359,0.2346,36.8300,80,96,70447
2.0870,0.2248,36.9300,80,96,70450
2.0479,0.2248,37.1000,80,96,70453
2.0430,0.2346,37.0000,80,96,70456
1.9795,0.2248,37.0600,80,96,70459
1.9844,0.2346,36.8300,80,96,70463
1.9110,0.2395,37.1000,80,96,70466
1.8768,0.2248,37.0600,80,96,70469
1.8915,0.2346,37.0000,80,96,70472
1.8573,0.2297,37.0600,80,96,70476
1.8817,0.2297,36.8300,80,96,70479
1.8377,0.2248,37.0600,80,96,70482
1.8182,0.2248,37.1000,80,96,70486
1.8182,0.2297,37.1000,80,96,70490
1.7791,0.2248,37.1000,80,96,70493
1.7889,0.2346,36.8600,80,96,70496
1.7400,0.2248,36.9300,80,96,70499
1.7107,0.2248,37.0600,80,96,70503
1.7302,0.2297,36.9600,80,96,70506
1.7009,0.2248,37.0600,80,96,70509
1.7400,0.2346,36.8900,80,96,70512
1.7155,0.2297,37.0000,80,96,70516
1.7009,0.2248,37.0600,80,96,70519
1.7253,0.2199,36.9300,80,96,70522
1.7107,0.2248,37.0600,80,96,70525
1.7351,0.2297,36.8900,80,96,70530
1.7107,0.2248,37.0300,80,96,70533
1.7204,0.2248,37.0600,80,96,70536
1.7400,0.2248,36.9300,80,96,70539
1.7155,0.2248,37.0600,80,96,70543
1.7253,0.2297,36.8600,80,96,70546
1.7302,0.2248,37.0000,80,96,70549
1.7058,0.2248,37.0600,80,96,70552
1.7351,0.2297,37.0000,80,96,70556
1.7400,0.2102,37.0600,80,96,70559
1.7742,0.2297,36.9600,80,96,70562
1.7644,0.2297,37.0300,80,96,70565
1.7693,0.2346,37.0600,80,96,70569
1.7840,0.2297,36.9300,80,96,70573
1.7644,0.2248,37.0600,80,96,70576
1.7840,0.2199,36.9300,80,96,70579
1.7546,0.2248,37.0600,80,96,70583
1.7595,0.2248,37.0600,80,96,70586
1.7889,0.2346,36.9600,80,96,70589
1.8035,0.2199,37.1000,80,96,70592
1.8035,0.2248,37.0000,80,96,70596
1.7986,0.2102,37.0300,80,96,70599
1.7937,0.2395,37.0600,80,96,70602
1.8133,0.2199,36.9300,80,96,70605
1.7986,0.2248,37.1300,80,96,70609
1.8671,0.2248,36.9300,80,96,70612
1.8182,0.2199,37.0300,80,96,70616
1.8280,0.2248,37.0600,80,96,70619
1.8280,0.2297,37.0000,80,96,70623
1.8084,0.2248,37.0600,80,96,70626
1.8182,0.2248,36.9300,80,96,70629
1.7791,0.2248,37.0300,80,96,70632
1.7742,0.2151,37.1300,80,96,70636
1.8035,0.2297,36.9300,80,96,70639
1.7889,0.2248,37.0000,80,96,70642
1.8328,0.2248,36.9600,80,96,70645
1.8084,0.2248,37.0000,80,96,70649
1.8133,0.2248,37.0600,80,96,70652
1.8426,0.2346,36.9600,80,96,70656
1.8328,0.2248,37.1000,80,96,70659
1.8671,0.2199,36.9600,80,96,70663
1.8328,0.2199,37.1000,80,96,70666
1.8280,0.2297,37.1300,80,96,70669
1.8377,0.2297,37.0000,80,96,70672
1.8328,0.2248,37.1000,80,96,70675
1.8622,0.2346,37.0000,80,96,70679
1.8328,0.2346,37.0600,80,96,70682
1.8377,0.2248,37.0600,80,96,70685
1.8719,0.2346,36.9300,80,96,70688
1.8573,0.2248,37.0600,80,96,70692
1.8768,0.2297,36.9300,80,96,70695
1.8475,0.2199,37.0600,80,96,70699
1.8524,0.2297,37.0600,80,96,70702
1.8866,0.2346,36.9600,80,96,70706
1.8768,0.2248,37.0600,80,96,70709
1.9110,0.2346,37.0300,80,96,70712
1.8817,0.2248,37.1000,80,96,70715
1.8866,0.2248,37.1000,80,96,70719
1.9013,0.2346,37.0000,80,96,70722
1.8915,0.2248,37.0600,80,96,70725
1.9110,0.2346,36.9600,80,96,70728
1.8719,0.2199,37.0600,80,96,70732
1.8426,0.2248,37.2600,80,96,70735
1.8524,0.2346,36.8900,80,96,70738
1.8133,0.2297,37.0600,80,96,70742
1.8231,0.2542,36.9300,80,96,70746
1.7986,0.2248,37.0000,80,96,70749
1.8133,0.2248,37.1000,80,96,70752
1.8573,0.2346,37.0000,80,96,70755
1.8524,0.2297,37.0300,80,96,70759
1.8817,0.2297,36.9600,80,96,70762
1.8524,0.2199,37.0600,80,96,70765
1.8475,0.2542,37.1000,80,96,70768
1.8719,0.2297,37.2600,80,96,70772
1.8622,0.2297,37.1000,80,96,70775
1.9013,0.2248,36.8900,80,96,70778
1.8768,0.2542,37.1600,80,96,70781
1.8768,0.2248,36.8900,80,96,70786
1.9013,0.2297,36.9300,80,96,70789
1.8719,0.2297,37.0600,80,96,70792
1.8915,0.2444,36.9300,80,96,70795
1.8719,0.2248,37.1300,80,96,70799
1.8719,0.2248,37.0600,80,96,70802
1.8964,0.2346,36.9300,80,96,70805
1.8622,0.2346,37.0300,80,96,70808
1.8817,0.2297,36.9300,80,96,70812
1.8671,0.2248,37.1000,80,96,70815
1.8817,0.2248,37.0600,80,96,70818
1.9013,0.2297,37.0000,80,96,70821
1.8768,0.2297,37.1000,80,96,70825
1.8964,0.2297,36.9300,80,96,70829
1.8719,0.2346,37.1000,80,96,70832
1.8768,0.2248,37.2000,80,96,70835
1.9159,0.2346,36.9600,80,96,70839
1.8964,0.2297,37.0600,80,96,70842
1.9208,0.2346,36.8900,80,96,70845
1.9257,0.2248,36.4400,80,96,70848
1.9550,0.2102,37.0600,80,96,70852
2.0137,0.2395,36.9300,80,96,70855
1.9990,0.2297,37.1300,80,96,70858
2.0137,0.2248,36.9300,80,96,70861
1.9746,0.2346,37.1000,80,96,70865
1.9648,0.2248,37.0600,80,96,70868
1.9697,0.2346,37.0300,80,96,70872
1.9404,0.2297,37.0300,80,96,70875
1.9208,0.2248,36.9600,80,96,70879
1.8817,0.2248,37.2000,80,96,70882
1.8573,0.2248,37.1000,80,96,70885
1.8768,0.2395,36.9300,80,96,70888
1.8426,0.2248,37.1000,80,96,70892
1.8573,0.2297,36.9600,80,96,70895
1.8377,0.2248,37.1300,80,96,70898
1.8377,0.2102,37.1000,80,96,70901
1.8573,0.2444,36.9300,80,96,70905
1.8280,0.2297,37.0600,80,96,70908
1.8231,0.2297,36.9300,80,96,70912
1.7791,0.2102,37.1000,80,96,70915
1.7693,0.2248,37.1000,80,96,70919
1.7937,0.2297,36.7000,80,96,70922
1.7791,0.2297,37.0600,80,96,70925
1.7986,0.2297,36.9600,80,96,70928
1.7889,0.2102,37.1000,80,96,70932
1.7986,0.2444,37.0600,80,96,70935
1.8377,0.2346,36.9600,80,96,70938
1.8182,0.2297,37.0300,80,96,70941
1.8231,0.2199,36.9300,80,96,70945
1.8035,0.2493,37.0300,80,96,70948
1.8035,0.2248,37.1000,80,96,70951
1.8426,0.2346,36.9300,80,96,70955
1.7986,0.2297,37.0600,80,96,70959
1.7644,0.2297,36.9300,80,96,70962
1.7009,0.2248,37.1000,80,96,70965
1.6764,0.2248,37.1000,80,96,70968
1.7009,0.2346,37.0300,80,96,70972
1.7204,0.2297,37.1600,80,96,70975
1.7986,0.2102,36.9600,80,96,70978
1.9355,0.2297,37.0600,80,96,70981
2.1310,0.2248,37.0600,80,96,70985
2.4536,0.2297,36.9300,80,96,70988
3.0547,0.2297,37.0300,80,96,70992
2.8006,0.2248,37.0600,80,96,70995
2.5709,0.2346,37.4000,80,96,70999
2.2874,0.2248,37.1000,80,96,71002
2.1114,0.2199,37.1000,80,96,71006
1.9648,0.2248,37.0300,80,96,71009
1.8524,0.2248,37.0300,80,96,71012
1.8084,0.2346,36.9300,80,96,71015
1.7449,0.2102,37.0600,80,96,71019
1.6960,0.2444,37.0600,80,96,71022
1.6862,0.2297,36.9600,80,96,71025
1.6373,0.2297,37.0600,80,96,71028
1.6325,0.2248,36.9600,80,96,71032
1.5982,0.2248,37.0300,80,96,71035
1.6031,0.2248,37.1000,80,96,71038
1.6325,0.2395,36.9600,80,96,71042
1.6227,0.2199,37.1000,80,96,71046
1.6471,0.2346,37.0000,80,96,71049
1.6325,0.2248,37.1000,80,96,71052
1.6373,0.2248,37.1000,80,96,71055
1.6569,0.2248,37.0300,80,96,71059
1.6569,0.2248,37.1000,80,96,71062
1.6911,0.2346,36.9600,80,96,71065
1.6764,0.2199,37.1000,80,96,71068
1.6862,0.2248,37.1300,80,96,71071
1.7155,0.2395,36.9300,80,96,71075
1.6911,0.2297,37.0600,80,96,71078
1.7058,0.2395,37.1000,80,96,71081
1.6716,0.2248,37.1000,80,96,71085
1.6618,0.2248,37.0600,80,96,71089
1.6960,0.2444,36.9600,80,96,71092
1.7009,0.2297,37.0600,80,96,71095
1.7498,0.2346,36.9600,80,96,71098
1.7595,0.2248,36.9300,80,96,71102
1.7840,0.2248,37.0300,80,96,71105
1.7986,0.2297,37.0600,80,96,71108
1.7791,0.2542,37.1300,80,96,71111
1.7889,0.2297,36.9300,80,96,71115
1.7644,0.2248,37.0600,80,96,71118
1.7791,0.2248,37.0600,80,96,71121
1.8084,0.2444,36.8900,80,96,71124
1.7986,0.2297,37.1000,80,96,71129
1.8328,0.2297,36.9600,80,96,71132
1.8328,0.2248,37.0600,80,96,71135
1.8426,0.2248,37.0000,80,96,71138
1.8915,0.2297,36.9600,80,96,71142
1.9110,0.2297,37.0300,80,96,71145
1.9062,0.2297,36.3500,80,96,71148
1.8768,0.2248,37.1000,80,96,71151
1.8671,0.2248,37.1000,80,96,71155
1.8866,0.2346,37.0000,80,96,71158
1.8622,0.2297,37.0000,80,96,71161
1.8768,0.2297,36.8000,80,96,71164
1.8768,0.2102,37.0600,80,96,71169
1.8817,0.2248,37.1600,80,96,71172
1.9355,0.2297,36.9600,80,96,71175
1.9208,0.2297,37.0300,80,96,71178
1.9355,0.2395,36.9600,80,96,71182
1.9110,0.2297,37.2600,80,96,71185
1.9062,0.2248,37.1000,80,96,71188
1.9306,0.2395,36.9300,80,96,71191
1.9257,0.2346,37.0300,80,96,71195
1.9648,0.2297,36.9600,80,96,71198
1.9746,0.2248,37.0600,80,96,71201
2.0088,0.2199,37.1000,80,96,71204
2.0723,0.2346,37.0600,80,96,71208
2.0723,0.2248,37.0600,80,96,71212
2.0968,0.2297,37.0000,80,96,71215
2.0772,0.2297,37.0600,80,96,71218
2.0723,0.2151,37.1000,80,96,71222
2.1065,0.2346,37.0300,80,96,71225
2.0772,0.2297,37.0300,80,96,71228
2.0674,0.2248,37.0300,80,96,71231
2.0479,0.2248,37.1000,80,96,71235
2.0528,0.2248,37.1000,80,96,71238
2.1065,0.2346,36.9300,80,96,71241
2.0821,0.2297,36.7700,80,96,71244
2.1017,0.2297,37.0000,80,96,71248
2.0528,0.2297,37.1300,80,96,71251
2.0381,0.2248,37.2000,80,96,71255
2.0772,0.2395,36.9600,80,96,71258
2.0430,0.2297,37.0300,80,96,71262
2.0381,0.2102,37.0000,80,96,71265
2.0088,0.2297,37.0600,80,96,71268
1.9795,0.2248,37.1600,80,96,71271
2.0039,0.2395,36.8900,80,96,71274
1.9404,0.2444,36.9600,80,96,71278
1.8964,0.2248,37.0300,80,96,71281
1.8768,0.2297,37.0600,80,96,71284
1.8426,0.2248,37.2000,80,96,71287
1.8719,0.2444,36.8600,80,96,71291
1.8084,0.2297,37.0300,80,96,71294
1.7742,0.2395,37.0300,80,96,71298
1.7546,0.2297,37.0600,80,96,71301
1.7400,0.2346,37.0600,80,96,71305
1.7937,0.2444,36.8600,80,96,71308
1.7644,0.2297,36.9600,80,96,71311
1.7595,0.2199,37.1000,80,96,71314
1.7644,0.2297,37.0600,80,96,71318
1.7400,0.2297,37.1000,80,96,71321
1.7791,0.2444,37.3300,80,96,71324
1.7253,0.2395,36.9300,80,96,71327
1.6960,0.2248,37.0300,80,96,71331
1.7351,0.2346,37.0600,80,96,71334
1.7058,0.2248,37.1300,80,96,71337
1.7644,0.2444,36.8600,80,96,71341
1.7204,0.2346,37.0000,80,96,71345
1.7058,0.2199,37.0300,80,96,71348
1.7058,0.2297,37.0600,80,96,71351
1.7107,0.2248,37.1000,80,96,71354
1.7644,0.2395,36.8600,80,96,71358
1.7400,0.2297,37.2300,80,96,71361
1.7351,0.2248,37.0600,80,96,71364
1.7449,0.2297,37.0600,80,96,71367
1.7400,0.2248,37.1000,80,96,71371
1.8035,0.2444,36.9600,80,96,71374
1.7937,0.2297,36.9600,80,96,71377
1.7937,0.2102,37.1000,80,96,71380
1.8035,0.2297,37.1000,80,96,71385
1.7840,0.2248,37.1000,80,96,71388
1.8035,0.2493,36.8000,80,96,71391
1.7449,0.2248,36.9600,80,96,71394
1.7351,0.2248,37.0600,80,96,71398
1.7595,0.2346,37.0300,80,96,71401
1.7644,0.2199,37.0600,80,96,71404
1.8328,0.2542,36.8900,80,96,71407
1.8035,0.2297,37.0300,80,96,71411
1.7889,0.2248,37.0600,80,96,71414
1.8133,0.2346,37.0300,80,96,71417
1.8084,0.2297,37.0600,80,96,71420
1.8817,0.2395,36.8300,80,96,71425
1.8377,0.2346,36.9300,80,96,71428
1.8084,0.2542,37.0600,80,96,71431
1.7889,0.2297,37.0300,80,96,71434
1.7595,0.2199,37.0600,80,96,71438
1.7986,0.2395,37.2000,80,96,71441
1.7595,0.2297,37.0000,80,96,71444
1.7644,0.2248,37.1000,80,96,71447
1.7937,0.2248,37.0300,80,96,71451
1.8035,0.2346,37.1000,80,96,71454
1.8671,0.2395,36.8000,80,96,71457
1.8622,0.2346,36.9600,80,96,71460
1.8280,0.2493,37.0600,80,96,71464
1.8377,0.2297,36.9600,80,96,71468
1.8133,0.2248,37.0600,80,96,71471
1.8622,0.2346,36.8600,80,96,71474
1.8231,0.2346,36.9600,80,96,71478
1.8182,0.2248,37.0600,80,96,71481
1.8475,0.2297,37.0600,80,96,71484
1.8524,0.2346,37.1000,80,96,71487
1.9110,0.2346,36.7300,80,96,71491
1.8622,0.2248,37.4000,80,96,71494
1.8426,0.2102,37.1000,80,96,71497
1.8426,0.2346,37.0300,80,96,71500
1.8280,0.2297,37.0600,80,96,71504
1.8768,0.2297,36.8300,80,96,71507
1.8524,0.2346,37.0000,80,96,71511
1.8377,0.2248,37.0600,80,96,71514
1.8475,0.2297,37.0600,80,96,71518
1.8133,0.2248,37.1000,80,96,71521
1.8573,0.2346,36.8300,80,96,71524
1.8182,0.2248,36.9600,80,96,71527
1.8133,0.2248,37.1600,80,96,71531
1.8280,0.2297,37.0300,80,96,71534
1.8182,0.2199,37.0600,80,96,71537
1.8671,0.2395,36.8000,80,96,71540
1.8280,0.2248,37.0600,80,96,71544
1.8231,0.2248,37.1000,80,96,71547
1.8231,0.2395,37.0600,80,96,71550
1.8084,0.2297,37.0600,80,96,71554
1.8622,0.2297,36.8600,80,96,71558
1.8426,0.2346,36.9600,80,96,71561
1.8475,0.2395,37.0600,80,96,71564
1.8768,0.2297,37.0600,80,96,71567
1.8768,0.2248,37.1000,80,96,71571
1.9306,0.2346,36.8300,80,96,71574
1.8866,0.2346,37.0000,80,96,71577
1.8622,0.2248,37.1000,80,96,71580
1.8475,0.2346,37.1000,80,96,71584
1.8084,0.2199,37.1000,80,96,71587
1.8426,0.2346,36.8600,80,96,71590
1.7937,0.2248,37.0000,80,96,71593
1.8084,0.2199,37.0600,80,96,71598
1.8182,0.2297,37.2600,80,96,71601
1.8084,0.2297,37.0600,80,96,71605
1.8231,0.2248,37.0600,80,96,71609
1.8866,0.2444,36.8900,80,96,71612
1.8671,0.2346,37.0000,80,96,71615
1.8524,0.2297,37.0300,80,96,71618
1.8622,0.2297,37.0600,80,96,71622
1.8964,0.2199,37.0600,80,96,71625
1.9355,0.2590,36.8300,80,96,71628
1.8964,0.2346,37.0600,80,96,71631
1.8768,0.2248,37.0300,80,96,71635
1.8573,0.2297,37.0600,80,96,71639
1.8524,0.2346,37.1000,80,96,71642
1.9208,0.2444,36.9600,80,96,71645
1.9110,0.2346,37.0600,80,96,71649
1.9062,0.2248,37.1600,80,96,71652
1.9306,0.2297,37.1000,80,96,71655
1.9257,0.2297,37.1000,80,96,71658
1.9697,0.2981,36.8300,80,96,71662
1.9257,0.2297,36.9600,80,96,71665
1.9013,0.2248,37.0300,80,96,71668
1.8817,0.2346,37.0600,80,96,71671
1.8524,0.2395,37.1600,80,96,71675
1.8817,0.2444,36.8600,80,96,71678
1.8231,0.2297,37.0000,80,96,71682
1.8280,0.2248,37.0600,80,96,71685
1.7889,0.2297,37.0300,80,96,71689
1.7840,0.2248,37.2600,80,96,71692
1.8280,0.2493,36.8300,80,96,71695
1.7840,0.2542,37.1000,80,96,71698
1.7546,0.2199,37.0600,80,96,71702
1.7644,0.2297,37.0300,80,96,71705
1.7595,0.2248,37.0300,80,96,71708
1.8084,0.2444,36.8000,80,96,71711
1.7595,0.2346,36.9600,80,96,71715
1.7302,0.2102,37.0600,80,96,71718
1.7351,0.2297,37.2300,80,96,71721
1.7253,0.2248,37.1000,80,96,71725
1.7742,0.2444,36.8000,80,96,71729
1.7351,0.2346,36.9600,80,96,71732
1.7351,0.2248,37.3000,80,96,71735
1.7449,0.2346,37.0600,80,96,71738
1.7498,0.2102,37.1000,80,96,71742
1.8133,0.2786,36.8300,80,96,71745
1.7889,0.2297,37.0300,80,96,71748
1.7693,0.2248,37.0600,80,96,71751
1.7546,0.2395,37.0600,80,96,71755
1.6911,0.2493,37.1300,80,96,71758
1.6911,0.2395,36.8000,80,96,71761
1.6325,0.2297,36.9600,80,96,71764
1.6422,0.2248,37.0600,80,96,71769
1.6667,0.2493,37.1000,80,96,71772
1.6911,0.2297,37.1000,80,96,71775
1.8280,0.2395,36.8000,80,96,71778
1.9453,0.2297,37.0000,80,96,71782
2.1848,0.2248,37.1000,80,96,71785
2.4829,0.2297,37.0300,80,96,71788
2.7517,0.2297,37.0600,80,96,71791
3.0596,0.2395,36.8300,80,96,71795
3.1085,0.2346,37.0000,80,96,71798
3.0352,0.2248,37.1300,80,96,71801
2.8837,0.2297,37.0300,80,96,71804
2.6295,0.2297,37.1300,80,96,71809
2.4291,0.2688,36.8300,80,96,71812
2.1359,0.2297,37.0300,80,96,71815
1.9355,0.2248,37.1300,80,96,71818
1.8280,0.2346,37.0300,80,96,71822
1.7595,0.2297,37.0300,80,96,71825
1.7595,0.2346,36.8300,80,96,71828
1.6862,0.2248,37.0300,80,96,71831
1.6471,0.2102,37.0600,80,96,71835
1.6178,0.2248,37.0600,80,96,71838
1.5591,0.2444,37.1600,80,96,71841
1.5738,0.2395,36.8300,80,96,71844
1.5249,0.2297,37.0000,80,96,71848
1.5054,0.2346,37.0600,80,96,71852
1.5200,0.2346,37.0000,80,96,71855
1.5005,0.2297,37.1000,80,96,71858
1.5494,0.2395,36.8000,80,96,71862
1.5249,0.2297,36.9600,80,96,71865
1.5347,0.2248,37.1000,80,96,71868
1.5640,0.2297,37.0300,80,96,71871
1.5689,0.2297,37.0000,80,96,71875
1.6227,0.2346,36.8300,80,96,71878
1.5934,0.2346,37.0300,80,96,71881
1.6276,0.2248,37.1000,80,96,71884
1.6178,0.2297,37.1300,80,96,71888
1.6129,0.2248,37.0600,80,96,71891
1.6569,0.2346,36.8300,80,96,71895
1.6276,0.2346,36.9600,80,96,71898
1.6178,0.2248,37.1300,80,96,71902
1.6520,0.2346,37.2600,80,96,71905
1.6618,0.2297,37.1000,80,96,71908
1.7253,0.2395,36.8000,80,96,71911
1.7302,0.2248,36.9600,80,96,71915
1.7302,0.2248,37.0600,80,96,71918
1.7449,0.2297,37.0300,80,96,71921
1.7107,0.2297,37.1000,80,96,71924
1.7204,0.2346,36.8300,80,96,71928
1.6520,0.2102,37.0300,80,96,71931
1.6422,0.2248,37.2000,80,96,71934
1.6520,0.2297,37.0600,80,96,71938
1.6471,0.2102,37.0600,80,96,71942
1.7155,0.2346,36.8600,80,96,71945
1.7253,0.2297,37.0600,80,96,71948
1.7351,0.2248,37.1300,80,96,71951
1.7791,0.2297,37.0000,80,96,71955
1.7693,0.2248,37.0600,80,96,71958
1.8182,0.2346,36.8600,80,96,71961
1.7889,0.2297,37.0000,80,96,71964
1.7791,0.2297,37.1000,80,96,71968
1.7986,0.2346,36.8600,80,96,71971
1.7791,0.2297,37.1000,80,96,71974
1.8133,0.2395,36.8300,80,96,71977
1.7840,0.2248,37.0600,80,96,71982
1.7937,0.2297,37.0300,80,96,71985
1.8231,0.2346,37.0300,80,96,71988
1.8328,0.2297,37.0600,80,96,71991
1.8768,0.2542,36.8900,80,96,71995
1.8475,0.2297,36.8900,80,96,71998
1.8231,0.2248,37.1000,80,96,72001
1.8426,0.2297,37.0000,80,96,72004
1.8182,0.2346,37.0600,80,96,72008
1.8573,0.2346,36.8300,80,96,72011
1.8426,0.2346,37.0600,80,96,72014
1.8475,0.2248,37.1000,80,96,72017
1.8915,0.2346,37.0600,80,96,72022
1.8964,0.2297,37.0600,80,96,72025
1.9550,0.2297,36.8900,80,96,72028
1.9306,0.2199,37.1000,80,96,72031
1.9453,0.2297,37.0600,80,96,72035
1.9599,0.2346,37.0300,80,96,72038
1.9453,0.2199,37.0600,80,96,72041
1.9844,0.2395,36.0600,80,96,72044
1.9599,0.2297,37.0000,80,96,72048
1.9453,0.2199,37.1600,80,96,72051
1.9746,0.2493,36.9600,80,96,72054
1.9550,0.2297,37.0600,80,96,72057
2.0088,0.2346,36.8600,80,96,72061
1.9844,0.2639,37.0000,80,96,72065
1.9844,0.2297,37.1300,80,96,72068
1.9941,0.2297,36.9600,80,96,72071
1.9306,0.2542,37.1000,80,96,72074
1.9159,0.2297,36.8600,80,96,72078
1.8328,0.2297,37.1000,80,96,72081
1.7889,0.2297,37.0600,80,96,72084
1.7840,0.2444,36.9600,80,96,72088
1.7449,0.2297,37.0300,80,96,72091
1.7693,0.2297,36.9300,80,96,72094
1.7498,0.2297,36.9600,80,96,72097
1.7253,0.2297,37.1000,80,96,72100
1.7400,0.2444,36.9600,80,96,72104
1.7155,0.2346,37.1000,80,96,72108
1.7302,0.2346,36.8900,80,96,72111
1.6862,0.2639,36.9600,80,96,72114
1.6520,0.2297,37.1300,80,96,72118
1.6276,0.2346,36.9600,80,96,72121
1.5885,0.2297,37.0600,80,96,72124
1.6031,0.2297,36.9300,80,96,72127
1.5689,0.2297,37.1000,80,96,72131
1.5787,0.2297,37.1000,80,96,72134
1.6031,0.2395,36.9600,80,96,72137
1.6031,0.2297,37.0600,80,96,72141
1.6422,0.2297,36.9600,80,96,72144
1.6471,0.2346,37.0000,80,96,72147
1.6227,0.2297,37.0000,80,96,72151
1.6325,0.2346,36.9600,80,96,72154
1.6080,0.2297,37.0600,80,96,72158
1.6373,0.2297,36.9300,80,96,72161
1.6129,0.2297,37.3000,80,96,72164
1.6129,0.2297,37.1000,80,96,72167
1.6471,0.2346,37.0300,80,96,72171
1.6178,0.2297,37.2600,80,96,72174
1.6520,0.2346,36.9300,80,96,72177
1.6373,0.2297,37.1000,80,96,72180
1.6373,0.2248,37.1000,80,96,72184
1.6618,0.2297,37.0600,80,96,72187
1.6422,0.2248,37.0600,80,96,72190
1.6764,0.2346,36.9300,80,96,72194
1.6667,0.2395,37.0000,80,96,72198
1.6764,0.2297,37.1000,80,96,72201
1.6911,0.2297,37.0000,80,96,72204
1.6618,0.2248,37.1000,80,96,72207
1.6764,0.2297,37.0000,80,96,72211
1.6471,0.2346,36.8300,80,96,72214
1.7204,0.2248,37.0600,80,96,72219
1.7058,0.2248,36.7000,80,96,72222
1.7107,0.2297,37.0000,80,96,72225
1.7107,0.2297,37.0600,80,96,72228
1.7058,0.2786,36.8300,80,96,72232
1.6813,0.2346,36.9600,80,96,72236
1.6716,0.2297,37.0600,80,96,72239
1.7107,0.2346,37.0000,80,96,72242
1.6960,0.2297,37.0300,80,96,72246
1.7546,0.2346,36.8300,80,96,72249
1.7400,0.2346,37.0300,80,96,72252
1.7400,0.2248,37.1300,80,96,72255
1.7693,0.2297,37.0000,80,96,72258
1.7546,0.2248,37.0600,80,96,72262
1.7889,0.2346,36.9300,80,96,72265
1.7400,0.2248,37.1000,80,96,72268
1.7693,0.2102,37.1300,80,96,72271
1.7595,0.2395,36.9600,80,96,72275
1.7449,0.2346,37.1600,80,96,72279
1.7791,0.2346,36.8900,80,96,72282
1.7449,0.2346,36.9600,80,96,72286
1.7302,0.2199,37.1000,80,96,72289
1.7595,0.2493,36.9600,80,96,72292
1.7498,0.2297,37.1300,80,96,72295
1.7986,0.2297,36.8600,80,96,72299
1.7742,0.2248,37.0600,80,96,72302
1.7546,0.2248,37.2000,80,96,72305
1.7546,0.2395,36.9600,80,96,72308
1.7302,0.2297,37.0600,80,96,72311
1.7546,0.2346,36.8300,80,96,72315
1.7204,0.2297,36.2800,80,96,72318
1.7204,0.2297,37.0600,80,96,72322
1.7351,0.2395,36.9600,80,96,72325
1.7155,0.2297,37.0600,80,96,72329
1.7546,0.2297,36.8600,80,96,72332
1.7400,0.2346,37.0000,80,96,72335
1.7449,0.2297,37.0600,80,96,72338
1.7742,0.2346,36.9600,80,96,72342
1.7693,0.2199,37.1000,80,96,72345
1.7889,0.2346,36.8600,80,96,72348
1.7546,0.2297,37.0000,80,96,72351
1.7644,0.2199,37.1000,80,96,72355
1.7449,0.2542,36.9600,80,96,72358
1.7302,0.2297,37.1000,80,96,72361
1.7595,0.2346,36.9300,80,96,72365
1.7449,0.2248,37.0600,80,96,72369
1.7546,0.2297,37.0600,80,96,72372
1.7791,0.2346,37.0000,80,96,72375
1.7498,0.2102,37.1000,80,96,72378
1.7693,0.2297,36.9300,80,96,72382
1.7351,0.2297,37.0000,80,96,72385
1.7595,0.2297,37.1000,80,96,72388
1.7400,0.2346,36.9300,80,96,72391
1.7351,0.2297,37.2000,80,96,72395
1.7742,0.2297,36.8900,80,96,72398
1.7791,0.2297,37.0300,80,96,72401
1.7742,0.2297,37.0600,80,96,72404
1.7840,0.2297,37.0300,80,96,72409
1.7595,0.2297,37.1000,80,96,72412
1.7791,0.2297,37.0000,80,96,72415
1.7546,0.2297,37.2000,80,96,72418
1.7742,0.2248,37.0600,80,96,72422
1.7937,0.2346,37.0000,80,96,72425
1.7791,0.2444,37.0300,80,96,72428
1.8182,0.2297,36.9600,80,96,72431
1.8133,0.2297,37.0300,80,96,72435
1.8426,0.2297,37.0600,80,96,72438
1.8866,0.2346,36.9300,80,96,72441
1.8768,0.2297,37.0600,80,96,72444
1.8964,0.2395,36.9300,80,96,72449
1.8573,0.2248,36.9300,80,96,72452
1.8377,0.2297,37.1000,80,96,72455
1.8182,0.2346,37.0000,80,96,72458
1.7840,0.2248,37.0600,80,96,72462
1.7937,0.2297,36.9600,80,96,72465
1.7595,0.2297,37.1000,80,96,72468
1.7546,0.2297,37.0600,80,96,72471
1.7742,0.2346,36.9600,80,96,72475
1.7351,0.2297,37.1000,80,96,72478
1.7400,0.2346,36.9300,80,96,72481
1.7058,0.2395,37.1000,80,96,72484
1.7107,0.2297,37.0600,80,96,72488
1.7253,0.2297,37.0000,80,96,72492
1.7155,0.2395,37.1000,80,96,72495
1.7400,0.2297,36.9600,80,96,72498
1.7155,0.2248,37.0300,80,96,72502
1.7107,0.2199,37.1000,80,96,72505
1.7155,0.2297,37.1300,80,96,72508
1.7107,0.2346,37.0600,80,96,72511
1.7400,0.2346,36.9600,80,96,72515
1.7107,0.2297,37.1000,80,96,72518
1.7155,0.2248,37.0000,80,96,72521
1.7400,0.2297,36.9600,80,96,72524
1.7155,0.2297,37.0600,80,96,72528
1.7302,0.2395,36.9300,80,96,72531
1.7009,0.2248,36.2200,80,96,72535
1.7400,0.2297,37.1000,80,96,72538
1.7302,0.2395,36.9600,80,96,72542
1.6862,0.2297,37.0600,80,96,72545
1.6862,0.2346,36.9300,80,96,72548
1.5982,0.2248,37.1000,80,96,72551
1.5934,0.2297,37.1000,80,96,72555
1.6276,0.2346,37.0300,80,96,72558
1.6618,0.2542,37.1000,80,96,72561
1.7742,0.2346,37.0000,80,96,72564
1.9110,0.2297,37.1000,80,96,72568
2.1701,0.2297,37.1000,80,96,72571
2.4780,0.2395,36.9300,80,96,72574
2.7370,0.2297,37.1000,80,96,72578
3.0108,0.2444,37.0000,80,96,72582
3.1036,0.2297,37.2000,80,96,72585
3.0890,0.2297,37.0600,80,96,72588
2.9961,0.2346,37.0300,80,96,72591
2.7566,0.2346,37.0600,80,96,72594
2.5269,0.2346,36.9300,80,96,72598
2.2434,0.2297,37.2000,80,96,72601
2.0235,0.2297,37.1000,80,96,72604
1.8768,0.2395,37.0300,80,96,72607
1.7449,0.2297,36.8300,80,96,72611
1.6911,0.2297,36.9600,80,96,72614
1.6276,0.2297,37.1000,80,96,72617
1.5982,0.2297,37.1000,80,96,72621
1.6129,0.2346,36.8300,80,96,72625
1.5738,0.2297,37.1000,80,96,72628
1.5640,0.2297,36.9300,80,96,72631
1.5249,0.2346,37.0600,80,96,72634
1.5103,0.2248,37.2300,80,96,72638
1.5200,0.2346,36.9600,80,96,72641
1.5152,0.2297,37.0600,80,96,72644
1.5103,0.2297,36.8900,80,96,72647
1.4956,0.2346,37.1000,80,96,72651
1.5054,0.2346,37.1000,80,96,72654
1.5445,0.2346,37.0000,80,96,72657
1.5543,0.2297,37.0600,80,96,72660
1.5836,0.2346,36.9300,80,96,72665
1.5885,0.2346,37.1000,80,96,72668
1.5885,0.2297,36.2500,80,96,72671
1.6227,0.2346,36.8900,80,96,72674
1.6031,0.2297,37.0600,80,96,72678
1.6227,0.2346,36.9600,80,96,72681
1.6178,0.2395,37.0600,80,96,72684
1.6373,0.2248,37.1000,80,96,72687
1.6813,0.2346,36.9600,80,96,72691
1.6764,0.2346,37.1000,80,96,72694
1.6911,0.2297,37.0300,80,96,72697
1.6618,0.2297,37.0600,80,96,72700
1.6569,0.2297,37.0600,80,96,72705
1.6813,0.2395,37.0000,80,96,72708
1.6618,0.2297,37.0300,80,96,72711
1.6911,0.2346,36.9600,80,96,72714
1.6813,0.2199,37.0300,80,96,72718
1.6911,0.2297,37.1600,80,96,72721
1.7302,0.2395,36.8600,80,96,72724
1.7253,0.2297,37.0600,80,96,72727
1.7498,0.2199,36.9600,80,96,72731
1.7449,0.2542,37.0600,80,96,72734
1.7351,0.2297,37.1000,80,96,72737
1.7693,0.2346,36.9300,80,96,72740
1.7351,0.2346,37.1000,80,96,72744
1.7449,0.2297,37.0300,80,96,72748
1.7400,0.2297,37.0600,80,96,72751
1.7791,0.2248,37.0600,80,96,72754
1.8133,0.2395,37.0000,80,96,72758
1.8035,0.2297,37.0600,80,96,72761
1.8182,0.2297,36.9300,80,96,72764
1.8084,0.2248,37.1000,80,96,72767
1.8035,0.2248,37.1000,80,96,72771
1.8475,0.2346,36.9600,80,96,72774
1.8328,0.2346,37.0300,80,96,72777
1.8524,0.2297,37.0000,80,96,72780
1.8573,0.2297,37.1000,80,96,72784
1.8622,0.2395,37.0600,80,96,72787
1.9110,0.2346,36.9300,80,96,72791
1.8915,0.2297,37.0600,80,96,72794
1.9013,0.2297,37.1000,80,96,72798
1.8915,0.2297,37.1000,80,96,72801
1.8964,0.2248,37.0300,80,96,72804
1.9404,0.2297,37.0000,80,96,72807
1.9257,0.2542,37.0300,80,96,72811
1.9501,0.2297,37.0000,80,96,72814
1.9648,0.2297,37.0000,80,96,72817
1.9844,0.2297,37.0000,80,96,72820
2.0479,0.2395,37.0000,80,96,72824
2.0088,0.2346,37.0000,80,96,72828
1.9892,0.2297,37.0600,80,96,72832
2.0088,0.2737,36.9600,80,96,72836
1.9795,0.2297,37.0600,80,96,72839
1.9795,0.2248,37.1000,80,96,72842
1.9892,0.2297,37.0300,80,96,72845
1.9599,0.2297,37.1000,80,96,72849
1.9599,0.2346,36.9300,80,96,72852
1.9062,0.2297,37.0600,80,96,72855
1.8768,0.2297,37.2000,80,96,72858
1.8866,0.2297,36.8900,80,96,72862
1.8426,0.2346,37.1000,80,96,72865
1.8328,0.2346,36.9300,80,96,72868
1.7791,0.2297,37.1600,80,96,72871
1.7595,0.2248,37.1000,80,96,72876
1.7742,0.2444,36.9300,80,96,72879
1.7449,0.2297,37.0600,80,96,72882
1.7595,0.2346,36.9600,80,96,72885
1.7400,0.2297,37.0600,80,96,72889
1.7155,0.2297,37.1000,80,96,72892
1.7107,0.2346,37.1000,80,96,72895
1.6569,0.2297,37.0600,80,96,72898
1.6520,0.2590,36.9300,80,96,72902
1.6227,0.2248,37.0300,80,96,72905
1.6227,0.2248,37.1000,80,96,72908
1.6520,0.2444,36.9300,80,96,72911
1.6520,0.2395,37.1000,80,96,72915
1.6520,0.2297,36.9300,80,96,72919
1.6471,0.2297,37.0600,80,96,72922
1.6667,0.2297,37.1000,80,96,72925
1.6960,0.2590,36.9600,80,96,72929
1.6813,0.2297,37.0600,80,96,72932
1.7009,0.2346,36.9600,80,96,72935
1.6764,0.2297,37.0600,80,96,72938
1.6764,0.2248,37.0600,80,96,72942
1.7058,0.2346,37.0000,80,96,72945
1.6911,0.2297,37.0600,80,96,72948
1.7107,0.2297,36.6000,80,96,72951
1.7107,0.2297,37.0000,80,96,72955
1.7253,0.2102,37.1000,80,96,72958
1.7498,0.2395,36.9300,80,96,72962
1.7204,0.2346,37.1000,80,96,72965
1.7204,0.2297,36.9600,80,96,72969
1.7009,0.2297,37.0300,80,96,72972
1.6862,0.2542,36.2800,80,96,72975
1.7155,0.2346,36.9600,80,96,72978
1.7107,0.2346,37.0300,80,96,72982
1.7204,0.2688,36.9600,80,96,72985
1.7058,0.2297,36.2500,80,96,72988
1.7058,0.2297,37.1300,80,96,72991
1.7351,0.2346,36.9600,80,96,72995
1.7253,0.2346,37.0300,80,96,72998
1.7351,0.2297,37.0000,80,96,73001
1.7449,0.2297,37.1000,80,96,73005
1.7449,0.2248,37.1000,80,96,73009
1.7840,0.2346,36.8600,80,96,73012
1.7644,0.2297,37.0300,80,96,73015
1.7840,0.2102,37.0300,80,96,73018
1.7644,0.2297,37.0000,80,96,73022
1.7742,0.2248,37.1000,80,96,73025
1.8182,0.2346,36.9300,80,96,73028
1.7742,0.2542,37.0300,80,96,73031
1.7644,0.2297,37.0300,80,96,73035
1.7449,0.2297,37.0600,80,96,73038
1.7595,0.2248,37.1000,80,96,73041
1.8035,0.2346,36.9600,80,96,73044
1.7937,0.2297,37.2300,80,96,73049
1.8035,0.2297,36.9600,80,96,73052
1.7986,0.2297,37.1000,80,96,73055
1.7840,0.2199,37.1000,80,96,73058
1.8231,0.2297,36.9300,80,96,73062
1.8035,0.2297,37.0300,80,96,73065
1.8035,0.2346,37.0300,80,96,73068
1.7937,0.2297,37.1300,80,96,73071
1.7937,0.2248,37.0600,80,96,73075
1.8377,0.2444,36.9600,80,96,73078
1.8182,0.2590,37.0300,80,96,73081
1.8231,0.2248,37.0000,80,96,73084
1.8475,0.2297,37.0600,80,96,73089
1.8280,0.2444,37.1000,80,96,73092
1.8768,0.2395,37.1300,80,96,73095
1.8328,0.2297,37.0300,80,96,73098
1.8133,0.2346,37.0000,80,96,73102
1.7986,0.2346,37.1000,80,96,73105
1.7986,0.2248,37.1600,80,96,73108
1.8426,0.2346,36.8900,80,96,73111
1.8280,0.2346,37.0000,80,96,73115
1.8231,0.2346,37.0000,80,96,73118
1.8084,0.2297,37.0600,80,96,73121
1.7986,0.2248,37.0600,80,96,73124
1.8328,0.2444,36.9300,80,96,73128
1.8035,0.2297,37.0000,80,96,73132
1.8280,0.2248,37.0300,80,96,73135
1.8133,0.2444,37.2300,80,96,73138
1.8133,0.2248,37.0600,80,96,73142
1.8671,0.2444,36.9600,80,96,73145
1.8573,0.2346,37.0300,80,96,73148
1.8133,0.2639,37.0000,80,96,73151
1.8133,0.2590,37.0600,80,96,73155
1.8133,0.2297,37.1000,80,96,73158
1.8719,0.2444,36.9300,80,96,73161
1.8817,0.2395,37.0000,80,96,73164
1.8231,0.2248,37.0300,80,96,73168
1.8182,0.2297,37.0600,80,96,73171
1.8133,0.2199,37.1000,80,96,73175
1.8719,0.2444,36.8600,80,96,73178
1.8475,0.2297,37.0300,80,96,73182
1.8475,0.2199,37.0000,80,96,73185
1.8377,0.2297,37.0600,80,96,73188
1.8280,0.2248,37.0600,80,96,73191
1.8719,0.2444,36.8900,80,96,73195
1.8475,0.2395,37.0000,80,96,73198
1.8133,0.2248,37.1600,80,96,73201
1.8133,0.2297,37.1600,80,96,73204
1.8084,0.2248,37.1000,80,96,73208
1.8671,0.2395,36.9300,80,96,73211
1.8377,0.2346,36.9600,80,96,73214
1.8328,0.2248,37.0600,80,96,73218
1.8573,0.2297,37.1300,80,96,73222
1.8671,0.2151,37.0600,80,96,73225
1.9306,0.2444,36.8300,80,96,73228
1.8866,0.2395,37.0000,80,96,73231
1.8671,0.2248,36.8900,80,96,73235
1.8573,0.2297,37.0600,80,96,73238
1.8817,0.2199,37.0600,80,96,73241
1.9208,0.2346,36.8900,80,96,73244
1.9110,0.2297,36.9600,80,96,73248
1.9257,0.2248,37.1000,80,96,73251
1.9550,0.2297,37.0600,80,96,73254
1.9404,0.2248,37.1600,80,96,73257
1.9795,0.2444,36.8900,80,96,73262
1.9159,0.2395,36.9600,80,96,73265
1.8719,0.2493,37.0600,80,96,73268
1.8573,0.2297,37.0600,80,96,73271
1.8377,0.2297,37.1000,80,96,73275
1.8915,0.2444,36.8300,80,96,73278
1.8524,0.2297,37.0000,80,96,73281
1.8475,0.2248,37.0600,80,96,73284
1.8573,0.2297,37.0600,80,96,73288
1.8671,0.2102,37.1000,80,96,73291
1.8964,0.2444,36.8900,80,96,73294
1.8524,0.2297,37.0000,80,96,73297
1.8280,0.2102,37.0300,80,96,73302
1.8182,0.2346,37.1000,80,96,73305
1.7986,0.2248,37.0600,80,96,73308
1.8622,0.2395,36.8600,80,96,73311
1.7889,0.2444,36.9600,80,96,73315
1.7742,0.2199,37.2000,80,96,73318
1.7889,0.2297,37.2000,80,96,73321
1.7937,0.2199,37.0600,80,96,73324
1.8524,0.2639,36.8600,80,96,73328
1.8182,0.2297,36.9600,80,96,73331
1.8035,0.2199,37.0600,80,96,73334
1.8084,0.2199,37.0600,80,96,73337
1.7889,0.2248,37.1600,80,96,73341
1.8328,0.2493,36.8900,80,96,73345
1.7937,0.2297,37.0300,80,96,73348
1.7791,0.2248,37.0300,80,96,73351
1.7791,0.2346,37.0300,80,96,73355
1.7498,0.2248,37.1000,80,96,73358
1.7742,0.2444,36.8300,80,96,73361
1.7155,0.2346,36.9300,80,96,73364
1.7058,0.2542,37.0600,80,96,73368
1.7449,0.2297,37.0600,80,96,73371
1.8035,0.2199,37.0600,80,96,73374
1.9501,0.2444,36.8000,80,96,73377
2.0772,0.2297,36.9600,80,96,73381
2.3363,0.2151,37.0600,80,96,73384
2.5953,0.2688,37.0600,80,96,73388
2.8592,0.2248,37.1000,80,96,73391
3.1623,0.2395,36.8300,80,96,73395
3.2063,0.2346,37.0300,80,96,73398
3.1525,0.2248,37.2000,80,96,73401
3.0010,0.2297,37.1300,80,96,73404
2.7322,0.2248,37.1000,80,96,73408
2.5318,0.2444,36.8000,80,96,73411
2.2434,0.2297,37.0000,80,96,73414
2.0381,0.2248,37.1000,80,96,73417
1.9257,0.2346,37.0600,80,96,73421
1.8182,0.2248,37.1000,80,96,73424
1.7937,0.2395,36.8300,80,96,73427
1.6862,0.2102,37.0000,80,96,73431
1.6325,0.2346,37.1000,80,96,73435
1.6080,0.2297,37.1600,80,96,73438
1.6325,0.2297,37.1000,80,96,73442
1.6373,0.2248,37.1000,80,96,73446
1.6716,0.2346,36.9300,80,96,73449
1.6422,0.2297,37.0300,80,96,73452
1.6325,0.2248,37.0000,80,96,73455
1.6227,0.2297,37.0600,80,96,73459
1.6276,0.2102,37.0600,80,96,73462
1.6813,0.2542,36.8900,80,96,73465
1.6716,0.2297,36.4400,80,96,73468
1.6667,0.2248,37.0000,80,96,73473
1.6667,0.2199,37.1000,80,96,73476
1.6667,0.2199,37.1000,80,96,73479
1.7155,0.2395,37.0300,80,96,73482
1.7009,0.2297,37.0300,80,96,73486
1.7155,0.2248,36.9600,80,96,73489
1.7302,0.2297,37.0600,80,96,73492
1.7351,0.2248,37.1000,80,96,73495
1.8280,0.2346,36.9600,80,96,73499
1.7644,0.2395,37.0000,80,96,73502
1.7498,0.2248,37.1000,80,96,73505
1.7498,0.2297,37.1000,80,96,73508
1.7546,0.2199,37.1000,80,96,73512
1.8182,0.2395,36.9300,80,96,73516
1.7937,0.2297,36.6400,80,96,73519
1.7937,0.2248,37.0000,80,96,73522
1.7937,0.2297,37.1000,80,96,73526
1.7937,0.2444,37.0600,80,96,73529
1.8426,0.2444,36.9600,80,96,73532
1.8035,0.2346,37.0600,80,96,73535
1.7986,0.2248,36.9600,80,96,73539
1.8035,0.2297,37.0600,80,96,73542
1.8133,0.2297,37.1000,80,96,73545
1.8768,0.2590,36.8900,80,96,73548
1.8671,0.2346,36.9600,80,96,73552
1.8719,0.2248,37.0300,80,96,73555
1.8915,0.2102,37.0600,80,96,73559
1.8915,0.2493,37.0600,80,96,73562
1.9501,0.2493,36.8900,80,96,73566
1.9159,0.2297,37.0000,80,96,73569
1.9062,0.2199,37.1000,80,96,73572
1.9013,0.2297,37.1000,80,96,73575
1.8964,0.2248,37.1000,80,96,73579
1.9501,0.2444,36.8600,80,96,73582
1.9110,0.2297,37.0300,80,96,73585
1.9110,0.2248,37.0300,80,96,73588
1.9208,0.2297,37.0600,80,96,73592
1.9159,0.2248,37.0600,80,96,73595
1.9844,0.2444,36.9300,80,96,73598
1.9550,0.2395,37.1600,80,96,73602
1.9550,0.2199,37.0300,80,96,73606
1.9795,0.2639,37.1000,80,96,73609
1.9892,0.2248,37.1000,80,96,73612
2.0772,0.2444,36.8600,80,96,73615
2.0528,0.2346,36.9600,80,96,73619
2.0381,0.2199,37.1300,80,96,73622
2.0577,0.2297,37.0600,80,96,73625
2.0674,0.2248,37.1000,80,96,73628
2.1408,0.2444,36.8000,80,96,73632
2.1114,0.2346,37.0300,80,96,73635
2.0968,0.2248,37.0600,80,96,73638
2.1114,0.2297,37.0600,80,96,73641
2.0919,0.2248,37.1300,80,96,73646
2.1505,0.2493,36.8000,80,96,73649
2.0919,0.2297,36.8900,80,96,73652
2.0626,0.2199,37.0600,80,96,73655
2.0528,0.2346,37.0600,80,96,73659
2.0235,0.2248,37.2000,80,96,73662
2.0626,0.2395,36.7700,80,96,73665
1.9941,0.2297,37.0000,80,96,73668
1.9648,0.2248,37.0600,80,96,73672
1.9453,0.2297,37.1000,80,96,73675
1.9013,0.2248,37.0600,80,96,73678
1.9208,0.2395,36.8000,80,96,73681
1.8573,0.2297,37.0000,80,96,73684
1.8231,0.2542,37.1000,80,96,73689
1.8182,0.2444,37.0000,80,96,73692
1.7889,0.2297,37.1000,80,96,73695
1.8133,0.2444,36.8300,80,96,73698
1.7595,0.2297,36.9600,80,96,73702
1.7546,0.2248,37.3300,80,96,73705
1.7693,0.2297,37.0300,80,96,73708
1.7595,0.2297,37.1000,80,96,73711
1.7986,0.2395,36.8300,80,96,73715
1.7351,0.2248,37.0000,80,96,73718
1.7155,0.2248,37.1000,80,96,73721
1.7155,0.2346,37.0300,80,96,73724
1.7058,0.2395,37.0600,80,96,73729
1.7595,0.2297,36.8300,80,96,73732
1.7204,0.2346,36.9600,80,96,73735
1.7107,0.2248,37.1300,80,96,73738
1.7155,0.2297,37.0600,80,96,73742
1.7058,0.2297,37.1000,80,96,73745
1.7595,0.2395,36.8900,80,96,73748
1.7351,0.2248,37.0000,80,96,73751
1.7302,0.2248,37.1000,80,96,73755
1.7498,0.2346,37.0300,80,96,73758
1.7400,0.2248,37.2000,80,96,73761
1.7986,0.2346,36.8300,80,96,73764
1.7546,0.2248,37.0300,80,96,73768
1.7742,0.2395,37.0300,80,96,73772
1.7937,0.2297,37.0300,80,96,73775
1.7840,0.2297,37.1000,80,96,73778
1.8377,0.2590,36.8300,80,96,73782
1.8231,0.2297,37.0000,80,96,73785
1.8133,0.2248,37.0600,80,96,73788
1.8328,0.2346,37.0300,80,96,73791
1.7986,0.2248,37.0600,80,96,73795
1.8182,0.2297,36.8600,80,96,73798
1.7986,0.2346,37.0000,80,96,73801
1.7546,0.2248,37.1600,80,96,73804
1.7742,0.2297,37.1000,80,96,73808
1.7644,0.2248,37.0600,80,96,73811
1.8182,0.2444,36.8600,80,96,73815
1.7889,0.2248,37.0600,80,96,73818
1.8084,0.2248,37.1000,80,96,73822
1.8622,0.2444,36.9600,80,96,73825
1.8328,0.2297,37.1000,80,96,73828
1.8768,0.2346,36.9300,80,96,73831
1.8426,0.2346,37.0000,80,96,73835
1.8133,0.2297,37.1000,80,96,73838
1.8231,0.2639,37.0300,80,96,73841
1.7986,0.2297,37.1000,80,96,73844
1.8524,0.2346,36.8600,80,96,73848
1.8475,0.2346,37.0600,80,96,73851
1.8524,0.2248,36.9600,80,96,73854
1.8817,0.2297,37.0000,80,96,73858
1.8573,0.2199,37.0600,80,96,73862
1.8866,0.2346,36.8000,80,96,73865
1.8328,0.2248,37.1000,80,96,73868
1.8524,0.2248,37.1000,80,96,73871
1.8426,0.2493,37.0000,80,96,73875
1.8182,0.2444,37.1000,80,96,73878
1.8622,0.2346,36.8600,80,96,73881
1.8426,0.2297,37.0000,80,96,73884
1.8524,0.2199,37.1000,80,96,73888
1.8817,0.2542,37.0300,80,96,73891
1.8622,0.2297,37.1300,80,96,73894
1.9062,0.2346,36.8600,80,96,73897
1.8573,0.2297,37.0300,80,96,73902
1.8377,0.2248,37.0600,80,96,73905
1.8475,0.2395,37.0000,80,96,73908
1.8328,0.2297,37.1000,80,96,73911
1.8817,0.2346,36.9300,80,96,73915
1.8573,0.2297,36.8900,80,96,73918
1.8622,0.2248,37.1000,80,96,73921
1.9062,0.2346,37.0000,80,96,73924
1.8573,0.2248,37.0600,80,96,73928
1.8915,0.2346,36.8600,80,96,73931
1.8964,0.2346,37.0000,80,96,73934
1.8622,0.2248,37.1300,80,96,73937
1.8719,0.2444,36.9600,80,96,73942
1.8524,0.2297,36.2500,80,96,73945
1.8964,0.2346,36.8900,80,96,73948
1.8719,0.2297,37.0000,80,96,73951
1.8622,0.2248,37.0600,80,96,73955
1.8768,0.2346,36.9600,80,96,73958
1.8817,0.2297,37.1000,80,96,73961
1.8915,0.2346,36.8600,80,96,73964
1.8622,0.2297,37.1600,80,96,73968
1.8622,0.2248,37.1000,80,96,73971
1.8964,0.2346,36.9600,80,96,73974
1.8671,0.2346,37.0300,80,96,73977
1.8964,0.2346,36.8900,80,96,73981
1.8719,0.2297,37.0000,80,96,73985
1.8622,0.2297,37.1000,80,96,73988
1.9013,0.2395,36.9600,80,96,73991
1.8524,0.2297,37.1300,80,96,73995
1.8866,0.2346,36.8900,80,96,73998
1.8573,0.2297,37.0000,80,96,74001
1.8524,0.2248,37.1000,80,96,74004
1.8719,0.2395,37.0300,80,96,74008
1.8573,0.2297,37.1000,80,96,74011
1.9257,0.2346,36.8600,80,96,74014
1.8573,0.2248,37.1000,80,96,74017
1.8622,0.2248,37.0300,80,96,74021
1.8866,0.2297,37.0300,80,96,74024
1.8671,0.2297,37.0600,80,96,74028
1.9013,0.2346,36.9300,80,96,74031
1.8817,0.2297,37.0300,80,96,74035
1.8768,0.2248,37.1000,80,96,74038
1.9062,0.2346,36.9300,80,96,74041
1.8866,0.2395,37.0600,80,96,74044
1.9208,0.2297,36.9600,80,96,74048
2.0186,0.2395,36.8600,80,96,74052
1.9795,0.2248,37.0300,80,96,74056
1.9795,0.2102,37.1000,80,96,74059
1.9599,0.2297,37.0000,80,96,74062
1.9355,0.2248,37.0600,80,96,74065
1.9697,0.2395,36.8600,80,96,74070
1.9355,0.2346,36.9600,80,96,74073
1.8964,0.2297,37.0600,80,96,74076
1.9159,0.2346,37.2000,80,96,74079
1.8964,0.2297,37.1300,80,96,74083
1.9404,0.2444,36.8300,80,96,74086
1.8866,0.2248,36.9600,80,96,74089
1.8671,0.2248,36.8900,80,96,74092
1.8719,0.2297,37.0300,80,96,74096
1.8524,0.2199,37.1000,80,96,74099
1.9013,0.2395,37.0600,80,96,74102
1.8426,0.2248,37.0300,80,96,74105
1.8377,0.2297,37.1000,80,96,74109
1.8231,0.2444,37.0300,80,96,74113
1.8035,0.2639,37.0300,80,96,74116
1.8475,0.2395,36.8600,80,96,74119
1.8133,0.2346,37.0000,80,96,74123
1.7937,0.2297,37.2000,80,96,74126
1.8182,0.2346,37.1000,80,96,74129
1.8035,0.2102,37.0600,80,96,74132
1.8768,0.2542,36.8300,80,96,74136
1.8622,0.2248,36.9300,80,96,74139
1.8622,0.2248,37.1000,80,96,74142
1.8768,0.2346,37.1000,80,96,74145
1.8573,0.2297,37.0600,80,96,74149
1.8964,0.2297,36.8300,80,96,74152
1.8377,0.2248,37.0300,80,96,74156
1.8084,0.2493,37.1000,80,96,74159
1.7791,0.2297,37.2000,80,96,74162
1.7351,0.2297,37.1000,80,96,74166
1.7644,0.2346,36.8600,80,96,74169
1.7693,0.2297,37.0000,80,96,74172
1.7986,0.2297,37.1000,80,96,74175
1.9013,0.2346,37.0000,80,96,74179
2.0186,0.2297,37.0600,80,96,74182
2.2776,0.2346,36.8300,80,96,74185
2.5073,0.2346,37.0000,80,96,74188
2.7517,0.2248,37.0600,80,96,74192
3.0205,0.2346,37.0000,80,96,74195
3.1329,0.2297,37.0600,80,96,74199
3.2258,0.2297,36.8600,80,96,74202
3.0450,0.2248,37.0600,80,96,74206
2.8201,0.2297,37.0000,80,96,74209
2.5758,0.2297,37.0000,80,96,74212
2.3069,0.2297,37.1300,80,96,74215
2.1310,0.2346,36.8300,80,96,74219
1.9599,0.2297,37.0000,80,96,74222
1.8475,0.2102,37.0600,80,96,74225
1.8035,0.2639,36.9300,80,96,74228
1.7449,0.2297,37.1000,80,96,74232
1.7644,0.2346,36.8900,80,96,74235
1.6862,0.2346,37.0000,80,96,74238
1.6618,0.2248,36.3500,80,96,74242
1.6471,0.2297,36.9600,80,96,74246
1.6129,0.2297,37.1000,80,96,74249
1.6276,0.2346,36.9600,80,96,74252
1.6080,0.2297,37.2000,80,96,74255
1.6569,0.2102,37.1300,80,96,74259
1.6716,0.2297,37.0000,80,96,74262
1.6764,0.2297,37.0600,80,96,74265
1.7107,0.2346,36.9600,80,96,74268
1.7107,0.2346,36.9600,80,96,74272
1.6569,0.2248,37.0600,80,96,74275
1.6618,0.2346,37.1600,80,96,74278
1.6422,0.2297,37.0600,80,96,74281
1.6716,0.2444,36.9300,80,96,74286
1.6716,0.2297,37.0300,80,96,74289
1.6960,0.2248,37.3000,80,96,74292
1.7351,0.2346,36.9600,80,96,74295
1.7449,0.2248,37.0600,80,96,74299
1.7791,0.2297,36.9600,80,96,74302
1.7498,0.2297,37.0600,80,96,74305
1.7693,0.2199,37.0600,80,96,74308
1.7742,0.2346,37.0300,80,96,74312
1.7644,0.2297,37.1300,80,96,74315
1.8035,0.2346,36.8900,80,96,74318
1.7937,0.2102,37.0000,80,96,74321
1.7937,0.2248,37.1000,80,96,74326
1.8231,0.2346,36.7300,80,96,74329
1.7986,0.2346,37.0600,80,96,74332
1.8231,0.2346,36.8900,80,96,74335
1.8035,0.2346,37.1000,80,96,74339
1.8133,0.2248,37.0000,80,96,74342
1.8426,0.2346,36.9600,80,96,74345
1.8280,0.2297,37.0600,80,96,74348
1.8671,0.2297,36.9300,80,96,74352
1.8475,0.2297,37.1000,80,96,74355
1.8475,0.2297,37.1300,80,96,74358
1.8622,0.2639,36.9600,80,96,74361
1.8377,0.2297,37.0600,80,96,74365
1.8622,0.2297,36.8900,80,96,74369
1.8524,0.2248,37.0300,80,96,74372
1.8622,0.2493,37.0600,80,96,74375
1.9062,0.2346,36.9300,80,96,74379
1.9062,0.2297,37.1000,80,96,74382
1.9501,0.2346,36.8900,80,96,74385
1.9257,0.2248,37.0600,80,96,74388
1.9306,0.2248,37.3000,80,96,74392
1.9550,0.2297,36.9600,80,96,74395
1.9550,0.2395,37.0600,80,96,74398
1.9941,0.2297,36.9600,80,96,74401
1.9746,0.2297,37.0600,80,96,74405
1.9941,0.2199,37.1000,80,96,74408
2.0088,0.2346,36.9600,80,96,74412
1.9892,0.2297,37.0600,80,96,74415
2.0479,0.2346,36.9600,80,96,74419
1.9941,0.2297,37.0000,80,96,74422
1.9892,0.2297,37.1000,80,96,74425
2.0283,0.2297,36.9600,80,96,74428
2.0283,0.2346,37.0600,80,96,74432
2.0821,0.2297,36.9300,80,96,74435
2.0821,0.2248,37.0600,80,96,74438
2.0674,0.2248,37.0600,80,96,74441
2.0723,0.2297,37.0000,80,96,74445
2.0381,0.2297,37.0600,80,96,74448
2.0626,0.2297,36.9300,80,96,74451
2.0332,0.2297,37.0300,80,96,74455
2.0479,0.2248,37.3000,80,96,74458
2.0968,0.2395,36.9600,80,96,74462
2.0870,0.2297,37.1000,80,96,74465
2.1261,0.2346,37.1300,80,96,74468
2.0968,0.2248,37.0600,80,96,74471
2.0821,0.2297,37.3300,80,96,74475
2.0821,0.2395,36.9600,80,96,74478
2.0235,0.2346,37.0300,80,96,74481
2.0137,0.2346,36.8900,80,96,74484
1.9599,0.2297,37.1000,80,96,74488
1.9501,0.2248,37.1000,80,96,74491
1.9453,0.2346,37.0300,80,96,74494
1.9159,0.2297,37.0600,80,96,74498
1.9453,0.2346,36.9600,80,96,74502
1.8475,0.2297,37.1000,80,96,74505
1.8133,0.2248,37.1300,80,96,74508
1.8182,0.2395,37.2600,80,96,74511
1.7742,0.2297,37.1000,80,96,74515
1.7742,0.2346,36.9300,80,96,74518
1.7302,0.2542,37.0600,80,96,74521
1.7155,0.2297,37.1000,80,96,74524
1.7302,0.2395,37.0000,80,96,74528
1.7107,0.2346,37.0600,80,96,74531
1.7351,0.2297,37.0300,80,96,74534
1.7204,0.2297,37.1000,80,96,74537
1.7253,0.2297,37.1000,80,96,74542
1.7644,0.2346,37.0000,80,96,74545
1.7546,0.2297,37.0000,80,96,74548
1.7742,0.2346,36.9600,80,96,74551
1.7449,0.2297,37.1000,80,96,74555
1.7400,0.2297,37.1000,80,96,74558
1.7644,0.2346,37.0000,80,96,74561
1.7449,0.2297,37.1000,80,96,74564
1.7889,0.2346,36.9300,80,96,74568
1.7595,0.2346,37.1000,80,96,74571
1.7644,0.2297,37.1300,80,96,74574
1.7937,0.2346,36.9600,80,96,74577
1.7644,0.2346,37.0600,80,96,74582
1.7791,0.2297,36.2500,80,96,74585
1.7546,0.2297,37.0600,80,96,74588
1.7595,0.2297,37.0600,80,96,74591
1.7840,0.2346,37.0300,80,96,74595
1.7889,0.2297,37.0600,80,96,74598
1.7986,0.2346,36.9600,80,96,74601
1.7742,0.2297,37.1000,80,96,74604
1.7595,0.2248,37.1000,80,96,74608
1.7791,0.2346,36.9600,80,96,74611
1.7498,0.2297,37.0300,80,96,74614
1.7791,0.2297,36.9600,80,96,74617
1.7791,0.2199,37.1000,80,96,74621
1.7986,0.2248,37.0600,80,96,74625
1.8426,0.2346,36.9300,80,96,74628
1.8524,0.2297,37.0300,80,96,74631
1.8426,0.2297,36.9300,80,96,74635
1.8182,0.2297,36.8300,80,96,74638
1.8133,0.2297,37.1000,80,96,74641
1.8328,0.2297,37.0300,80,96,74644
1.8182,0.2248,37.1000,80,96,74648
1.8328,0.2297,37.0600,80,96,74651
1.8231,0.2297,37.0300,80,96,74654
1.8524,0.2297,37.1000,80,96,74657
1.8524,0.2737,36.8900,80,96,74661
1.8426,0.2346,37.0000,80,96,74665
1.8231,0.2297,37.0600,80,96,74670
1.8426,0.2297,36.9300,80,96,74673
1.8182,0.2248,37.0600,80,96,74676
1.8133,0.2248,37.0600,80,96,74679
1.8377,0.2297,37.0000,80,96,74683
1.8426,0.2297,37.1300,80,96,74686
1.8866,0.2346,36.9300,80,96,74689
1.8719,0.2297,37.1000,80,96,74692
1.8573,0.2297,37.0300,80,96,74696
1.8866,0.2346,36.9600,80,96,74699
1.8671,0.2297,37.1000,80,96,74702
1.8866,0.2346,36.9300,80,96,74705
1.8671,0.2248,37.1000,80,96,74710
1.8671,0.2297,37.1000,80,96,74713
1.8719,0.2346,36.9600,80,96,74716
1.8377,0.2297,37.0600,80,96,74719
1.8573,0.2346,36.8900,80,96,74723
1.8280,0.2248,37.0600,80,96,74726
1.8280,0.2297,37.1000,80,96,74729
1.8524,0.2346,37.0000,80,96,74732
1.8524,0.2297,37.1600,80,96,74736
1.8866,0.2297,36.9300,80,96,74739
1.8671,0.2297,37.1300,80,96,74742
1.8622,0.2199,37.1000,80,96,74745
1.8817,0.2346,36.8900,80,96,74749
1.8475,0.2297,37.1600,80,96,74753
1.8671,0.2297,36.9300,80,96,74756
1.8377,0.2297,37.0000,80,96,74759
1.8475,0.2297,36.8900,80,96,74763
1.8719,0.2297,37.1000,80,96,74766
1.8573,0.2297,37.0600,80,96,74769
1.8817,0.2395,36.9300,80,96,74772
1.8524,0.2248,37.1600,80,96,74776
1.8573,0.2297,37.1000,80,96,74779
1.8768,0.2346,37.0000,80,96,74782
1.8768,0.2493,37.0600,80,96,74785
1.9110,0.2297,36.9600,80,96,74789
1.8768,0.2297,37.1300,80,96,74792
1.8768,0.2199,37.1000,80,96,74796
1.8817,0.2444,36.9600,80,96,74799
1.8622,0.2297,37.0300,80,96,74803
1.8964,0.2297,36.9300,80,96,74806
1.8622,0.2346,37.1000,80,96,74809
1.8475,0.2297,37.0300,80,96,74812
1.8524,0.2297,37.0000,80,96,74816
1.8182,0.2297,37.0600,80,96,74819
1.8475,0.2346,36.9300,80,96,74822
1.8231,0.2297,37.1600,80,96,74825
1.8426,0.2297,37.1000,80,96,74829
1.8719,0.2346,36.9600,80,96,74832
1.8768,0.2297,37.1600,80,96,74835
1.9159,0.2346,37.0600,80,96,74839
1.8817,0.2297,37.2000,80,96,74843
1.8768,0.2297,37.1000,80,96,74846
1.9110,0.2248,36.8000,80,96,74849
1.8768,0.2590,37.0600,80,96,74852
1.8915,0.2297,37.0000,80,96,74856
1.8671,0.2248,37.1000,80,96,74859
1.8768,0.2248,37.1300,80,96,74862
1.9306,0.2346,37.0000,80,96,74865
1.9453,0.2346,37.0600,80,96,74869
2.0039,0.2346,36.9300,80,96,74872
1.9844,0.2297,37.0600,80,96,74875
1.9795,0.2248,37.0600,80,96,74878
1.9892,0.2297,37.0600,80,96,74883
1.9648,0.2297,37.1300,80,96,74886
1.9648,0.2395,36.9600,80,96,74889
1.9159,0.2346,37.0600,80,96,74892
1.8915,0.2297,37.1300,80,96,74896
1.9013,0.2395,36.9600,80,96,74899
1.8671,0.2297,37.0600,80,96,74902
1.8768,0.2297,36.9600,80,96,74905
1.8426,0.2297,37.0000,80,96,74909
1.8377,0.2297,37.1000,80,96,74912
1.8671,0.2395,37.0000,80,96,74915
1.8524,0.2297,37.0600,80,96,74918
1.8817,0.2346,36.9600,80,96,74923
1.8524,0.2199,37.0600,80,96,74926
1.8475,0.2297,37.1000,80,96,74929
1.8475,0.2297,37.0300,80,96,74932
1.8133,0.2297,37.0600,80,96,74936
1.8328,0.2346,36.9600,80,96,74939
1.7986,0.2297,37.1000,80,96,74942
1.7986,0.2297,37.2300,80,96,74945
1.8328,0.2395,36.9600,80,96,74949
1.8133,0.2297,37.0600,80,96,74952
1.8426,0.2346,36.9600,80,96,74955
1.8280,0.2395,37.0000,80,96,74958
1.8426,0.2199,37.0600,80,96,74962
1.8866,0.2395,36.9600,80,96,74966
1.8475,0.2297,36.9300,80,96,74969
1.8573,0.2297,36.9600,80,96,74972
1.8084,0.2297,37.0600,80,96,74976
1.7644,0.2199,37.1000,80,96,74979
1.7400,0.2346,37.0300,80,96,74982
1.7058,0.2297,37.0600,80,96,74985
1.7400,0.2346,36.9300,80,96,74989
1.7546,0.2395,37.1000,80,96,74992
1.8231,0.2297,37.0300,80,96,74995
1.9844,0.2395,36.9300,80,96,74998
2.1505,0.2346,37.1300,80,96,75002
2.4194,0.2688,36.9600,80,96,75005
2.6491,0.2297,37.1600,80,96,75009
2.8788,0.2346,37.1000,80,96,75012
3.0938,0.2346,36.9300,80,96,75016
3.1085,0.2297,37.0600,80,96,75019
3.0694,0.2297,36.9300,80,96,75022
