ecg,gsr,temp,hr,spo2,timest
2.0235,0.4106,35.8700,82,94,272251
1.9501,0.4008,36.1000,82,94,272254
1.9453,0.4008,36.1000,82,94,272258
1.9990,0.4008,36.1900,82,94,272262
2.0381,0.3861,36.2200,82,94,272265
2.1017,0.4252,35.9500,82,94,272268
2.0186,0.4057,36.1300,82,94,272272
1.9648,0.4057,36.1300,82,94,272275
1.9599,0.4008,36.1000,82,94,272278
2.0039,0.3959,36.2200,82,94,272282
2.0870,0.4154,36.1000,82,94,272285
2.0577,0.4057,36.2500,82,94,272288
2.0235,0.4106,36.0700,82,94,272292
1.9648,0.4008,36.4300,82,94,272295
1.9697,0.4008,36.2200,82,94,272299
2.0528,0.4106,36.0100,82,93,272302
2.0137,0.4057,36.1000,82,93,272306
2.0528,0.4008,36.2200,82,93,272309
2.1505,0.4106,35.9200,82,93,272313
2.1065,0.4057,36.1300,82,93,272316
2.0479,0.4008,36.2200,82,93,272319
2.0430,0.4057,36.1600,82,93,272323
2.0528,0.4106,36.1900,82,93,272326
2.1603,0.4154,35.9000,82,93,272329
2.1505,0.3959,36.1300,82,93,272333
2.1701,0.3959,36.2200,82,93,272336
2.0968,0.3910,36.1900,82,93,272339
2.0772,0.4008,36.2500,82,93,272344
2.1701,0.4203,35.9800,82,93,272347
2.1799,0.4106,36.1900,82,93,272350
2.2043,0.4008,36.1000,82,93,272353
2.2092,0.3959,36.1900,82,93,272357
2.1457,0.4008,36.1900,82,93,272360
2.1750,0.4106,36.0100,82,93,272363
2.1750,0.4057,36.2200,82,93,272367
2.2385,0.3959,36.0700,82,93,272370
2.2434,0.4008,36.3100,82,93,272373
2.2190,0.4008,36.2500,82,93,272377
2.2092,0.4106,36.1000,82,93,272380
2.1750,0.4008,36.1900,82,93,272384
2.2434,0.4203,36.0700,82,93,272388
2.2678,0.4008,36.1900,82,93,272391
2.2776,0.4057,36.2200,82,93,272394
2.2581,0.3861,36.1000,82,93,272398
2.1848,0.4057,36.1900,82,93,272401
2.1994,0.4057,35.9800,82,93,272404
2.1848,0.4008,36.1900,82,93,272407
2.2434,0.4008,36.1900,82,93,272411
2.2190,0.4057,36.0700,82,93,272414
2.1310,0.3959,36.2200,82,93,272417
2.0919,0.4154,35.9800,82,93,272421
2.0186,0.4154,36.1600,82,93,272424
1.9990,0.4008,36.2500,82,93,272428
2.0479,0.3959,36.1600,82,93,272432
1.9795,0.3861,36.2200,82,93,272435
1.9550,0.4545,35.9200,82,93,272438
1.8328,0.4057,36.1000,82,93,272442
1.7889,0.3959,36.1300,82,93,272445
1.8133,0.4008,36.3100,82,93,272448
1.8377,0.3959,36.1900,82,93,272452
1.8524,0.4106,36.0700,82,93,272455
1.7889,0.3959,36.1600,82,93,272458
1.7155,0.4057,36.0700,82,93,272461
1.6911,0.3959,36.2200,82,93,272465
1.7351,0.4008,36.1900,82,93,272468
1.7889,0.4057,36.1300,82,93,272472
1.7644,0.4008,36.1900,82,93,272476
1.7253,0.4057,36.1000,82,93,272479
1.6667,0.3910,36.1900,82,93,272482
1.6813,0.3959,36.3100,82,93,272486
1.7595,0.4448,36.0400,82,93,272489
1.7840,0.4008,36.3400,82,93,272492
1.7986,0.4252,35.9800,82,93,272496
1.7400,0.4057,36.1900,82,93,272499
1.7009,0.4203,36.1900,82,93,272502
1.7449,0.4106,36.1600,82,93,272506
1.7840,0.4008,36.2200,82,93,272509
1.8573,0.4154,35.9000,82,93,272513
1.8231,0.4008,36.0700,82,93,272517
1.7400,0.3861,36.2200,82,93,272520
1.7204,0.4057,36.1600,82,93,272523
1.7449,0.3959,36.2200,82,93,272526
1.8524,0.4497,35.9500,82,93,272530
1.8475,0.4106,36.4000,82,93,272533
1.8231,0.4008,36.1300,82,93,272536
1.7791,0.4008,36.1900,82,93,272540
1.7546,0.4057,36.2200,82,93,272543
1.8231,0.4154,35.9800,82,93,272546
1.8719,0.4106,36.1900,82,93,272550
1.8866,0.4057,36.0400,82,93,272553
1.8328,0.4008,36.1900,82,93,272557
1.7791,0.4008,36.2200,82,93,272561
1.7840,0.4106,36.0400,82,93,272564
1.8035,0.4057,36.2800,82,93,272567
1.8768,0.4106,36.0700,82,93,272570
1.8719,0.4008,36.1600,82,93,272574
1.8426,0.4008,36.2200,82,93,272577
1.8084,0.4057,36.0400,82,93,272580
1.7742,0.4008,36.1900,82,93,272584
1.8426,0.4057,36.0100,82,93,272587
1.8768,0.4008,36.1600,82,93,272590
1.8866,0.4008,36.1900,82,93,272594
1.8622,0.4106,36.1600,82,93,272598
1.8035,0.4008,36.1900,82,93,272601
1.8328,0.4106,35.9200,82,93,272605
1.8328,0.3910,36.1300,82,93,272608
1.8817,0.3861,36.2200,82,93,272611
1.9062,0.4008,36.1600,82,93,272615
1.8524,0.4008,35.6000,82,93,272618
1.8524,0.4203,35.9200,82,93,272621
1.8133,0.4106,36.1000,82,93,272625
1.8377,0.4008,36.1300,82,93,272628
1.8817,0.4008,36.2800,82,93,272631
1.8817,0.4008,36.1900,82,93,272634
1.8817,0.4106,36.0100,82,93,272638
1.8231,0.4154,36.1600,82,93,272642
1.8280,0.4057,36.0700,82,93,272645
1.8622,0.4106,36.1900,82,93,272649
1.9013,0.4008,36.2200,82,93,272652
1.9208,0.4106,36.0700,82,93,272655
1.8524,0.3959,36.1900,82,93,272659
1.8328,0.4106,36.0700,82,93,272662
1.8231,0.4008,36.1900,82,93,272665
1.8671,0.4008,36.3100,82,93,272669
1.9306,0.4057,36.1000,82,93,272672
1.8915,0.4008,36.2800,82,93,272675
1.8671,0.4057,36.2200,82,93,272678
1.7986,0.4008,36.2200,82,93,272683
1.8084,0.3959,36.2200,82,93,272686
1.8817,0.4057,36.1600,82,93,272689
1.9306,0.4057,36.2200,82,93,272693
1.9404,0.4106,35.9200,82,93,272696
1.8768,0.4154,36.1000,82,93,272699
1.8182,0.4008,36.2200,82,93,272703
1.8475,0.4057,36.1600,82,93,272706
1.8866,0.4008,36.2800,82,93,272709
1.9648,0.4106,35.9200,82,93,272713
1.9110,0.4106,36.0400,82,93,272716
1.8475,0.3959,36.1300,82,93,272719
1.8231,0.4057,36.2500,82,93,272723
1.8524,0.4057,36.2200,82,93,272727
1.9501,0.4106,36.0400,82,93,272730
1.9697,0.4057,36.1900,82,93,272734
1.9550,0.4057,36.2500,82,93,272737
1.8866,0.4008,36.1900,82,93,272740
1.8817,0.4057,36.2500,82,93,272743
1.9746,0.4057,36.1300,82,93,272747
1.9892,0.4008,36.2200,82,93,272750
2.0479,0.4106,36.0700,82,93,272753
1.9990,0.4008,36.2200,82,93,272757
1.9648,0.3959,36.2200,82,93,272760
1.9746,0.4106,36.1000,82,93,272763
1.9795,0.4008,36.2500,82,93,272768
2.0381,0.4057,35.9500,82,93,272771
1.9990,0.4057,36.0700,82,93,272774
1.9208,0.4008,36.2200,82,93,272778
1.8671,0.4106,36.1000,82,93,272781
1.8231,0.4008,36.2200,82,93,272784
1.8915,0.4203,35.9000,82,93,272788
1.8964,0.4008,36.0700,82,93,272791
1.8866,0.4350,36.2200,82,93,272794
1.8328,0.4057,36.1900,82,93,272797
1.7791,0.4252,36.1900,82,93,272801
1.8084,0.4252,35.9800,82,93,272804
1.8133,0.4057,36.1000,82,93,272807
1.8426,0.4008,36.1300,82,93,272812
1.8475,0.3910,36.1900,82,93,272815
1.8035,0.3959,36.2200,82,93,272818
1.7986,0.4154,36.1000,82,93,272822
1.7791,0.4057,36.1900,82,93,272825
1.8377,0.4106,36.0700,82,93,272828
1.8671,0.4252,36.1900,82,93,272832
1.8671,0.4008,36.1900,82,93,272835
1.8573,0.4154,36.0100,82,93,272838
1.7889,0.4057,36.2500,82,93,272842
1.8182,0.4203,36.1000,82,93,272845
1.8377,0.3959,36.1600,82,93,272848
1.8817,0.3959,36.1900,82,93,272852
1.8964,0.4057,36.0400,82,93,272856
1.8524,0.3959,36.2200,82,93,272859
1.8475,0.4106,35.9500,82,93,272863
1.8524,0.4057,36.1300,82,93,272866
1.8915,0.4008,36.1900,82,93,272869
1.9257,0.4057,36.1300,82,93,272872
1.9013,0.4008,36.1900,82,93,272876
1.9599,0.4154,35.9000,82,93,272879
1.9746,0.4008,36.1600,82,93,272882
2.0968,0.4008,36.1900,82,93,272886
2.2092,0.4008,36.3400,82,93,272889
2.2287,0.4008,36.2200,82,93,272892
2.1896,0.4203,35.9200,82,93,272897
1.9599,0.4106,36.1600,82,93,272900
1.7253,0.4008,36.1300,82,93,272903
1.5543,0.3861,36.1900,82,93,272907
1.5005,0.4008,36.1900,82,93,272910
1.5787,0.4154,36.0400,82,93,272913
1.9599,0.4057,36.0700,82,93,272917
1.9892,0.4008,36.1900,82,93,272920
1.9844,0.4008,35.9800,82,93,272924
1.9110,0.4008,36.1600,82,93,272927
1.8964,0.4057,36.2200,82,93,272930
1.9501,0.4057,36.1300,82,93,272933
1.9795,0.4008,36.1900,82,93,272937
2.0626,0.4106,35.9200,82,93,272941
1.9501,0.4154,36.1900,82,93,272944
1.9062,0.3861,36.2200,82,93,272948
1.9013,0.4106,36.1900,82,93,272951
1.9306,0.4008,35.6000,82,93,272954
2.0283,0.4154,35.8700,82,93,272958
1.9990,0.4057,36.1300,82,93,272961
1.9453,0.3959,36.1000,82,93,272964
1.9013,0.4057,36.1900,82,93,272968
1.8915,0.4008,36.2200,82,93,272971
1.9795,0.4106,35.9800,82,93,272974
1.9990,0.4057,36.1300,82,93,272978
1.9892,0.4008,36.1000,82,93,272982
1.9306,0.4252,36.2200,82,93,272985
1.8866,0.4008,36.2500,82,93,272989
1.9257,0.4154,36.0700,82,93,272992
1.9404,0.4008,36.2200,82,93,272995
1.9990,0.4057,36.0400,82,93,272998
1.9648,0.4008,36.2200,82,93,273002
1.9208,0.4008,36.2200,82,93,273005
1.8866,0.4106,36.1000,82,93,273008
1.8866,0.4008,36.1300,82,93,273012
1.9892,0.4057,36.0100,82,93,273015
1.9746,0.4008,36.1900,82,93,273018
1.9697,0.4057,36.2200,82,93,273022
1.9453,0.4106,36.1600,82,93,273026
1.8964,0.4008,36.1300,82,93,273029
1.9550,0.4106,35.9200,82,93,273033
1.9892,0.4057,36.1300,82,93,273036
2.0235,0.4008,36.2200,82,93,273039
2.0088,0.4057,36.1000,82,93,273043
1.9550,0.4008,36.1900,82,93,273046
1.9746,0.4154,35.9000,82,93,273049
1.9746,0.4106,36.0100,82,93,273052
2.0186,0.3861,36.1600,82,93,273056
2.0577,0.4057,36.1600,82,93,273059
2.0332,0.4008,36.2200,82,93,273062
2.0479,0.4154,36.0400,82,93,273067
2.0039,0.4106,36.1600,82,93,273070
2.0430,0.4057,36.1000,82,93,273073
2.0968,0.4008,36.3400,82,93,273077
2.1310,0.4008,36.1900,82,93,273080
2.1554,0.4106,36.1600,82,93,273083
2.0968,0.4057,36.1900,82,93,273087
2.1065,0.4106,36.0700,82,93,273090
2.1359,0.3959,36.2200,82,93,273093
2.1848,0.4008,36.2200,82,93,273096
2.2483,0.4154,36.0700,82,93,273100
2.1945,0.4008,36.1300,82,93,273103
2.1750,0.4008,36.0100,82,93,273106
2.1310,0.4008,36.1300,82,93,273111
2.1652,0.4008,36.2500,82,93,273114
2.2385,0.4057,35.9200,82,93,273117
2.2239,0.4008,36.3100,82,93,273121
2.2336,0.4057,35.9200,82,93,273124
2.1310,0.4057,36.1600,82,93,273127
2.1017,0.4057,36.1900,82,93,273131
2.1212,0.4057,36.1000,82,93,273134
2.1212,0.4106,36.2200,82,93,273137
2.1457,0.4154,35.9000,82,93,273141
2.0186,0.4008,36.1300,82,93,273144
1.9257,0.3959,36.1900,82,93,273147
1.8768,0.4057,36.1900,82,93,273150
1.8671,0.3959,36.1900,82,93,273155
1.9110,0.4154,36.0100,82,93,273158
1.8719,0.4106,36.1600,82,93,273161
1.7644,0.4057,36.1000,82,93,273165
1.6862,0.3959,36.1900,82,93,273168
1.6618,0.4008,36.1900,82,93,273171
1.7204,0.4106,36.0400,82,93,273175
1.7253,0.4057,36.1600,82,93,273178
1.7204,0.4106,36.0700,82,93,273181
1.6520,0.4008,36.2200,82,93,273185
1.6031,0.4252,36.2500,82,93,273188
1.6276,0.4057,36.0700,82,93,273191
1.6618,0.4008,36.2500,82,93,273196
1.7253,0.4008,36.0400,82,93,273199
1.7009,0.4008,36.1900,82,93,273202
1.6618,0.4448,36.1900,82,93,273205
1.6422,0.3861,36.0700,82,93,273209
1.6471,0.4106,36.1300,82,93,273212
1.7351,0.4057,35.9500,82,93,273215
1.7449,0.4008,36.1900,82,93,273219
1.7351,0.4008,36.2200,82,93,273222
1.7058,0.4350,36.1300,82,93,273225
1.6667,0.4008,36.2200,82,93,273229
1.7351,0.4106,35.9000,82,93,273232
1.7595,0.4057,36.0700,82,93,273235
1.7791,0.4008,36.1900,82,93,273240
1.7791,0.4057,36.2800,82,93,273243
1.7155,0.4008,36.1900,82,93,273246
1.7400,0.4203,35.9800,82,93,273250
1.7351,0.4057,36.1000,82,93,273253
1.7791,0.3861,36.1000,82,93,273256
1.8035,0.4008,36.1900,82,93,273259
1.8035,0.4008,36.2200,82,93,273263
1.7595,0.4106,36.0700,82,93,273266
1.7449,0.4106,36.1600,82,93,273269
1.7595,0.4057,36.0400,82,93,273273
1.7986,0.4057,36.2200,82,93,273276
1.8280,0.4057,36.2500,82,93,273280
1.8133,0.3861,36.1300,82,93,273284
1.7546,0.4008,36.2200,82,93,273287
1.7595,0.4008,36.0400,82,93,273290
1.7644,0.4301,36.1900,82,93,273294
1.8231,0.4008,36.2200,82,93,273297
1.8573,0.4057,36.0400,82,93,273300
1.8035,0.4008,36.2200,82,93,273304
1.7840,0.4106,35.9200,82,93,273307
1.7595,0.4057,36.1000,82,93,273310
1.7889,0.4008,36.2500,82,93,273313
1.8719,0.4057,36.1300,82,93,273317
1.8671,0.4008,36.1900,82,93,273320
1.8915,0.4154,35.9000,82,93,273324
1.8133,0.4106,36.0700,82,93,273328
1.8084,0.3959,36.1900,82,93,273331
1.8719,0.4057,36.1600,82,93,273334
1.9355,0.4008,36.2200,82,93,273338
2.0088,0.4203,35.9800,82,93,273341
1.9404,0.4057,36.1300,82,93,273344
1.8817,0.4008,36.4900,82,93,273348
1.8622,0.3959,36.2200,82,93,273351
1.8866,0.4545,36.2200,82,93,273354
1.9404,0.4106,36.1300,82,93,273358
1.9062,0.4106,36.2200,82,93,273361
1.8671,0.4057,36.0100,82,93,273364
1.8182,0.4057,36.1900,82,93,273369
1.7742,0.4008,36.2200,82,93,273372
1.8328,0.4106,36.0400,82,93,273375
1.8377,0.4008,36.1300,82,93,273378
1.8622,0.4057,36.0100,82,93,273382
1.7644,0.4008,36.6700,82,93,273385
1.7155,0.4008,36.2200,82,93,273388
1.7449,0.4057,36.3100,82,93,273392
1.7937,0.3959,36.1900,82,93,273395
1.8475,0.4106,35.9000,82,93,273398
1.8182,0.4057,36.1600,82,93,273402
1.7546,0.4008,35.5400,82,93,273405
1.7351,0.4106,36.1600,82,93,273409
1.7400,0.4008,36.2800,82,93,273413
1.8426,0.4154,35.8400,82,93,273416
1.8426,0.4008,36.0700,82,93,273419
1.8182,0.4008,36.1600,82,93,273423
1.7742,0.4057,36.2800,82,93,273426
1.7400,0.3959,36.2500,82,93,273429
1.8133,0.4203,36.0100,82,93,273433
1.8475,0.3959,36.1600,82,93,273436
1.8915,0.4008,36.1000,82,93,273439
1.8671,0.4057,36.2200,82,93,273442
1.8084,0.4008,36.2800,82,93,273446
1.7986,0.4008,36.0400,82,93,273449
1.8084,0.4057,36.1900,82,93,273453
1.9208,0.4106,36.0400,82,93,273457
2.0186,0.4008,36.1900,82,93,273460
2.0968,0.4008,36.2200,82,93,273463
2.1408,0.4106,36.0700,82,93,273467
2.0919,0.3959,36.1900,82,93,273470
2.0772,0.4057,36.0700,82,93,273473
1.9355,0.3959,36.1900,82,93,273476
1.7498,0.3959,36.2200,82,93,273480
1.5298,0.4399,36.1000,82,93,273483
1.3734,0.4008,36.2200,82,93,273486
1.3930,0.4106,35.9500,82,93,273490
1.5103,0.4008,36.2200,82,93,273494
1.6911,0.4008,36.2200,82,93,273497
1.8231,0.4057,36.1600,82,93,273501
1.8622,0.4008,36.2200,82,93,273504
1.9013,0.4154,35.8700,82,93,273507
1.9062,0.4154,36.1000,82,93,273511
1.9110,0.3959,36.2200,82,93,273514
1.9795,0.3861,36.1900,82,93,273517
1.9795,0.4008,36.2500,82,93,273521
1.9990,0.4203,35.9800,82,93,273524
1.9892,0.4057,36.1000,82,93,273528
1.9257,0.4057,36.2200,82,93,273531
1.9110,0.4106,36.0700,82,93,273534
1.8866,0.3910,36.1900,82,93,273539
1.9453,0.4008,36.2200,82,93,273542
1.9941,0.4106,36.1000,82,93,273545
1.9697,0.4008,36.2200,82,93,273549
1.9453,0.4057,36.0100,82,93,273552
1.8719,0.4008,36.4300,82,93,273555
1.8817,0.4203,36.2200,82,93,273558
1.9550,0.4106,36.1900,82,93,273562
1.9746,0.4008,36.2200,82,93,273565
2.0039,0.4106,35.9200,82,93,273568
1.9208,0.4106,36.1000,82,93,273572
1.8622,0.3861,36.2200,82,93,273575
1.8964,0.4057,36.1600,82,93,273579
1.9404,0.4008,36.1900,82,93,273583
2.0381,0.4252,35.9200,82,93,273586
1.9844,0.4154,36.1300,82,93,273589
1.9257,0.4008,36.1300,82,93,273593
1.8964,0.4106,36.1600,82,93,273596
1.9208,0.3861,36.2200,82,93,273599
2.0088,0.4399,36.0400,82,93,273603
2.0137,0.4057,36.2200,82,93,273606
2.0039,0.4057,36.0400,82,93,273609
1.9306,0.4106,36.1900,82,93,273613
1.9110,0.4008,36.4300,82,93,273616
1.9599,0.4057,36.1300,82,93,273619
2.0039,0.4008,36.1900,82,93,273623
2.0626,0.4106,35.8400,82,93,273627
2.0088,0.3861,36.1900,82,93,273630
1.9648,0.4008,36.2800,82,93,273633
1.9892,0.4106,36.1000,82,93,273637
2.0039,0.4008,36.2200,82,93,273640
2.0919,0.4008,36.0100,82,93,273643
2.1065,0.4008,36.0700,82,93,273647
2.0821,0.4008,36.1900,82,93,273650
2.0723,0.4497,36.1000,82,93,273653
2.0723,0.4008,36.2200,82,93,273656
2.1359,0.4106,35.9200,82,93,273660
2.1994,0.4008,36.1300,82,93,273664
2.1848,0.4008,36.2800,82,93,273667
2.1750,0.4106,36.1600,82,93,273671
2.1310,0.4008,36.2200,82,93,273674
2.1848,0.4154,35.8700,82,93,273677
2.1896,0.4008,36.1900,82,93,273681
2.2385,0.4106,36.1300,82,93,273684
2.2532,0.4008,36.2200,82,93,273687
2.2043,0.3959,36.2200,82,93,273691
2.2043,0.4203,36.0400,82,93,273694
2.1505,0.4399,36.1600,82,93,273697
2.2141,0.3959,36.1000,82,93,273701
2.1848,0.4301,36.2200,82,93,273704
2.1554,0.4008,36.1900,82,93,273708
2.1114,0.4106,36.0400,82,93,273711
2.0039,0.4057,36.1900,82,93,273715
1.9746,0.4106,36.1900,82,93,273718
1.9697,0.4008,36.1900,82,93,273721
1.9453,0.4008,36.2200,82,93,273725
1.9208,0.4008,36.0700,82,93,273728
1.8280,0.4057,36.2200,82,93,273731
1.7693,0.4008,36.1300,82,93,273735
1.7155,0.3959,36.1600,82,93,273738
1.7400,0.4008,36.2200,82,93,273741
1.8035,0.4057,36.0700,82,93,273745
1.7253,0.4008,36.2500,82,93,273748
1.6911,0.4106,35.9500,82,93,273752
1.6227,0.4008,36.3400,82,93,273756
1.6325,0.4008,36.2200,82,93,273759
1.6911,0.4057,36.2200,82,93,273762
1.7155,0.4008,36.2200,82,93,273765
1.7449,0.4154,35.9000,82,93,273769
1.6813,0.3861,36.1300,82,93,273772
1.6422,0.3910,36.1900,82,93,273775
1.6667,0.4057,35.4200,82,93,273779
1.7400,0.4057,36.2200,82,93,273782
1.8035,0.4154,36.1000,82,93,273785
1.7644,0.4057,36.1300,82,93,273789
1.7107,0.4008,36.0700,82,93,273793
1.6911,0.4008,36.2200,82,93,273796
1.6911,0.3861,36.1900,82,93,273800
1.8035,0.4057,36.0700,82,93,273803
1.7889,0.4008,36.1900,82,93,273806
1.7840,0.4057,36.0700,82,93,273810
1.7204,0.3959,36.2500,82,93,273813
1.7009,0.4008,36.1900,82,93,273816
1.7400,0.4106,36.1000,82,93,273819
1.7889,0.4057,36.2200,82,93,273823
1.8377,0.4106,36.1000,82,93,273826
1.7791,0.3959,36.1300,82,93,273829
1.7351,0.4008,36.2200,82,93,273833
1.7351,0.4106,36.1300,82,93,273837
1.7595,0.3861,36.1900,82,93,273840
1.8475,0.4399,35.9200,82,93,273844
1.8426,0.4057,35.8700,82,93,273847
1.8035,0.3959,36.2200,82,93,273850
1.7546,0.4154,36.1000,82,93,273854
1.7253,0.3959,36.2200,82,93,273857
1.8133,0.4154,35.9000,82,93,273860
1.8328,0.4057,36.0400,82,93,273864
1.8231,0.4203,36.1600,82,93,273867
1.7889,0.3861,36.2200,82,93,273870
1.7400,0.4106,36.1900,82,93,273874
1.7693,0.4154,36.0400,82,93,273878
1.7840,0.4106,36.2200,82,93,273881
1.8280,0.4057,36.0700,82,93,273885
1.8182,0.4008,36.1900,82,93,273888
1.7742,0.4008,36.1900,82,93,273891
1.7498,0.4106,36.1600,82,93,273894
1.7449,0.4057,36.2200,82,93,273898
1.8182,0.4008,36.0100,82,93,273901
1.8426,0.4008,36.1900,82,93,273904
1.8426,0.4008,36.2200,82,93,273908
1.8133,0.4106,36.1000,82,93,273911
1.7595,0.4106,36.2200,82,93,273914
1.7791,0.4057,35.9500,82,93,273918
1.8280,0.4057,36.1000,82,93,273922
1.8475,0.4008,36.2200,82,93,273925
1.8866,0.4106,36.0700,82,93,273929
1.7840,0.4008,36.2200,82,93,273932
1.7840,0.4106,35.9200,82,93,273935
1.7693,0.4008,36.1300,82,93,273939
1.8035,0.4057,36.2200,82,93,273942
1.8475,0.4057,36.1900,82,93,273945
1.8231,0.4008,36.1900,82,93,273948
1.8328,0.4057,35.8700,82,93,273952
1.7546,0.4106,36.1000,82,93,273955
1.7644,0.4008,36.1600,82,93,273958
1.8182,0.4057,36.2200,82,93,273963
1.8524,0.4008,36.1900,82,93,273966
1.9013,0.4154,36.0700,82,93,273969
1.7937,0.4057,36.4000,82,93,273973
1.7791,0.4154,36.0700,82,93,273976
1.7889,0.4008,36.2200,82,93,273979
1.8328,0.4057,36.2200,82,93,273983
1.8915,0.4106,36.0700,82,93,273986
1.8377,0.4057,36.2200,82,93,273989
1.8133,0.4106,36.1000,82,93,273993
1.7595,0.3959,36.1600,82,93,273996
1.7840,0.4008,36.1900,82,93,273999
1.8573,0.3861,36.0700,82,93,274003
1.8671,0.3959,36.1900,82,93,274007
1.8622,0.4106,35.9800,82,93,274010
1.8182,0.4008,36.1000,82,93,274014
1.8133,0.4008,36.2200,82,93,274017
1.8671,0.4106,36.1600,82,93,274020
1.9062,0.4008,36.2200,82,93,274023
1.9550,0.4154,35.9000,82,93,274027
1.8671,0.4008,36.1300,82,93,274030
1.8182,0.3959,36.2200,82,93,274033
1.8182,0.4057,36.1900,82,93,274037
1.8866,0.4008,36.2200,82,93,274040
1.9599,0.4203,35.9800,82,93,274043
1.9208,0.4106,36.1300,82,93,274048
1.8719,0.4008,36.1300,82,93,274051
1.8280,0.4057,36.1900,82,93,274054
1.8231,0.4008,36.2500,82,93,274058
1.9062,0.4154,35.9800,82,93,274061
1.9501,0.4106,36.1600,82,93,274064
1.9599,0.4057,36.0700,82,93,274068
1.9062,0.4106,36.1900,82,93,274071
1.8768,0.4008,36.2200,82,93,274074
1.8964,0.4203,36.1000,82,93,274078
1.9257,0.4008,36.1900,82,93,274081
1.9990,0.4106,36.1600,82,93,274084
1.9648,0.4008,36.1900,82,93,274087
1.9159,0.4008,36.2200,82,93,274092
1.8817,0.4106,36.1000,82,93,274095
1.8719,0.4008,36.2200,82,93,274098
1.9453,0.4057,35.9500,82,93,274102
1.9648,0.4008,36.3100,82,93,274105
1.9648,0.4008,36.2200,82,93,274108
1.9355,0.4057,36.1600,82,93,274112
1.9110,0.3959,36.2200,82,93,274115
1.9453,0.4154,35.9500,82,93,274118
1.9697,0.4057,36.1300,82,93,274122
1.9844,0.4008,36.1900,82,93,274125
1.9795,0.4057,36.1600,82,93,274128
1.9208,0.4545,36.1600,82,93,274132
1.9501,0.4203,35.9800,82,93,274136
1.9501,0.4106,36.0700,82,93,274140
1.9013,0.4057,36.2200,82,93,274143
1.9550,0.4106,36.0700,82,93,274146
1.9844,0.4399,36.1900,82,93,274150
2.0186,0.4008,36.2500,82,93,274153
2.0137,0.4106,36.1000,82,93,274156
1.9697,0.4008,36.2200,82,93,274159
1.9697,0.4057,36.0100,82,93,274163
1.9746,0.4008,36.2200,82,93,274166
2.0235,0.4008,36.2500,82,93,274169
2.0528,0.4057,36.1000,82,93,274173
1.9892,0.4008,36.2200,82,93,274177
1.9599,0.4106,35.9200,82,93,274180
1.9062,0.3861,36.1000,82,93,274184
1.9062,0.4106,36.1900,82,93,274187
1.9501,0.4057,36.1300,82,93,274190
1.9306,0.4008,36.1900,82,93,274194
1.9404,0.4154,35.9000,82,93,274197
1.8719,0.4057,36.0400,82,93,274200
1.8377,0.3959,36.1600,82,93,274203
1.8817,0.3959,36.2200,82,93,274207
1.9306,0.3861,36.2200,82,93,274210
1.9892,0.4106,36.0100,82,93,274213
1.9159,0.4057,36.2800,82,93,274217
1.8719,0.4008,36.0700,82,93,274221
1.8622,0.4008,36.2200,82,93,274224
1.9110,0.3959,36.2200,82,93,274228
1.9844,0.4057,36.1000,82,93,274231
1.9990,0.4008,36.1900,82,93,274234
1.9453,0.3861,36.0400,82,93,274238
1.8768,0.3959,36.2200,82,93,274241
1.8768,0.4008,36.1000,82,93,274244
1.9453,0.4106,36.1000,82,93,274248
1.9599,0.4008,36.1900,82,93,274251
1.9697,0.4008,36.0100,82,93,274254
1.9013,0.4008,36.1000,82,93,274258
1.8475,0.4008,36.1900,82,93,274262
1.8817,0.4154,36.0400,82,93,274265
1.9208,0.4008,36.1900,82,93,274268
2.0430,0.4106,35.9200,82,93,274272
1.9697,0.4057,36.1600,82,93,274275
1.9110,0.3959,36.2200,82,93,274278
1.8964,0.4057,36.2200,82,93,274282
1.9306,0.4057,36.2200,82,93,274285
2.0479,0.4154,35.8700,82,93,274288
2.0528,0.3861,36.1300,82,93,274292
2.0283,0.3959,36.1600,82,93,274295
1.9844,0.3861,36.1900,82,93,274298
2.0088,0.3959,36.2500,82,93,274302
2.1652,0.4154,36.0700,82,93,274306
2.2727,0.4057,36.1900,82,93,274309
2.3558,0.4057,36.0700,82,93,274313
2.3216,0.4008,36.1900,82,93,274316
2.2239,0.4008,36.2200,82,93,274319
2.1212,0.4106,36.0100,82,93,274322
1.9746,0.4057,36.2200,82,93,274326
1.8573,0.4057,36.0700,82,93,274329
1.7204,0.4008,36.2200,82,93,274332
1.6716,0.4008,36.2200,82,93,274336
1.7009,0.3861,36.0700,82,93,274339
1.7595,0.4008,36.2800,82,93,274342
1.8964,0.4057,36.0400,82,93,274347
1.9941,0.3861,36.1600,82,93,274350
2.0674,0.4008,36.2200,82,93,274353
2.0674,0.4057,36.1300,82,93,274357
2.0088,0.4252,36.2200,82,93,274360
2.0332,0.4057,35.9200,82,93,274363
2.0137,0.4057,36.1600,82,93,274367
2.0528,0.4008,36.2200,82,93,274370
2.0723,0.4057,36.1600,82,93,274373
2.0235,0.4008,36.2200,82,93,274376
2.0283,0.4154,36.2500,82,93,274380
2.0088,0.4106,36.1300,82,93,274383
1.9990,0.3959,36.1600,82,93,274386
2.0821,0.4057,36.1600,82,93,274391
2.0577,0.4008,36.2200,82,93,274394
2.0674,0.4203,36.0400,82,93,274397
1.9941,0.4106,36.1000,82,93,274401
1.9648,0.4008,36.1000,82,93,274404
1.9990,0.4008,36.2200,82,93,274407
2.0430,0.3861,36.2200,82,93,274411
2.0821,0.4106,36.0400,82,93,274414
2.0137,0.4057,36.1900,82,93,274417
1.9892,0.4057,36.0400,82,93,274420
1.9746,0.4008,36.1900,82,93,274424
2.0235,0.4008,36.1900,82,93,274427
2.0772,0.4008,36.0700,82,93,274430
2.0674,0.4154,36.1900,82,93,274435
2.0479,0.4106,36.0400,82,93,274438
1.9746,0.4008,36.1900,82,93,274441
1.9892,0.4008,36.2200,82,93,274445
2.0626,0.4154,36.1000,82,93,274448
2.0968,0.4057,36.2200,82,93,274451
2.1212,0.4301,35.9500,82,93,274455
2.0577,0.3861,36.1000,82,93,274458
2.0088,0.4008,36.2200,82,93,274461
2.0430,0.4106,36.0700,82,93,274464
2.0723,0.4008,36.2200,82,93,274468
2.1652,0.4106,35.9200,82,93,274471
2.1359,0.4008,36.1000,82,93,274475
2.0870,0.4008,36.1900,82,93,274479
2.0626,0.4106,36.1600,82,93,274482
2.0723,0.4008,36.2200,82,93,274485
2.1896,0.4203,35.9000,82,93,274489
2.1945,0.4008,36.3100,82,93,274492
2.1750,0.3959,36.2200,82,93,274495
2.1408,0.3959,36.2200,82,93,274498
2.1065,0.4008,36.2500,82,93,274502
2.1799,0.4154,36.1000,82,93,274505
2.2043,0.4057,36.1900,82,93,274508
2.2581,0.4008,36.0100,82,93,274512
2.2385,0.4008,36.2200,82,93,274515
2.2092,0.4203,36.2200,82,93,274519
2.2483,0.4106,36.0100,82,93,274523
2.2581,0.4008,36.1600,82,93,274526
2.3412,0.4057,36.0400,82,93,274529
2.3509,0.4008,36.1900,82,93,274533
2.3412,0.4154,36.1900,82,93,274536
2.3314,0.4350,35.9800,82,93,274539
2.3021,0.4057,36.1900,82,93,274543
2.3705,0.4057,36.0100,82,93,274546
2.3998,0.4252,36.1600,82,93,274549
2.4291,0.4008,36.2200,82,93,274552
2.4242,0.4057,36.0700,82,93,274556
2.3607,0.4008,36.2200,82,93,274560
2.3851,0.4106,35.9800,82,93,274563
2.3754,0.3959,36.1600,82,93,274567
2.4145,0.4106,36.1900,82,93,274570
2.4194,0.4057,36.1900,82,93,274573
2.3705,0.3959,36.1900,82,93,274577
2.3314,0.4154,35.1600,82,93,274580
2.2336,0.4057,36.1300,82,93,274583
2.2190,0.3959,36.1300,82,93,274587
2.2239,0.4008,36.1900,82,93,274590
2.1848,0.4008,36.2800,82,93,274593
2.1554,0.4106,35.9800,82,93,274597
2.0479,0.4154,36.1300,82,93,274600
2.0332,0.4008,36.0400,82,93,274604
2.0186,0.4008,36.1900,82,93,274607
2.0430,0.4008,36.2200,82,93,274611
2.0577,0.4008,36.1000,82,93,274614
1.9795,0.4057,36.1900,82,93,274617
1.9453,0.4057,36.0400,82,93,274621
1.9159,0.3959,36.2200,82,93,274624
1.9697,0.4008,36.1600,82,93,274627
2.0186,0.4008,36.1000,82,93,274631
2.0039,0.4008,36.2200,82,93,274634
1.9892,0.4008,36.0100,82,93,274637
1.9159,0.4008,36.2200,82,93,274641
1.9257,0.4008,36.2200,82,93,274644
2.0039,0.4106,36.0400,82,93,274648
2.0332,0.4057,36.1900,82,93,274651
2.0723,0.4106,35.9200,82,93,274655
2.0088,0.4008,36.1000,82,93,274658
1.9648,0.4008,36.2200,82,93,274661
2.0088,0.4057,35.9800,82,93,274665
2.0479,0.4008,36.2800,82,93,274668
2.1408,0.4399,35.9000,82,93,274671
2.1017,0.4008,36.0700,82,93,274675
2.0528,0.4008,36.2500,82,93,274678
2.0235,0.4106,36.2200,82,93,274681
2.0332,0.4008,36.1600,82,93,274685
2.1408,0.4106,35.9200,82,93,274689
2.1359,0.4057,36.1600,82,93,274692
2.1163,0.4008,36.1300,82,93,274695
2.0674,0.4008,36.1900,82,93,274699
2.0381,0.4008,36.1900,82,93,274702
2.0919,0.4154,36.1000,82,93,274705
2.1114,0.4057,36.2800,82,93,274709
2.1408,0.4008,36.0400,82,93,274712
2.1114,0.4008,36.1900,82,93,274715
2.0870,0.4008,36.2200,82,93,274719
2.0626,0.4106,35.9800,82,93,274722
2.0626,0.4106,36.1600,82,93,274725
2.1359,0.4057,36.0400,82,93,274729
2.1310,0.4008,35.5100,82,93,274733
2.0968,0.4008,36.1900,82,93,274736
2.0626,0.4057,36.0400,82,93,274739
2.0235,0.4008,36.1900,82,93,274743
2.1017,0.4008,36.0100,82,93,274746
2.1163,0.4106,35.9200,82,93,274749
2.0723,0.4008,36.1600,82,93,274753
2.1408,0.4008,36.4000,82,93,274756
2.1848,0.4057,36.1900,82,93,274760
2.1505,0.4008,36.2200,82,93,274763
2.1554,0.4203,35.9500,82,93,274766
2.1065,0.4057,36.0700,82,93,274770
2.1212,0.3959,36.2500,82,93,274774
2.1799,0.3861,36.1900,82,93,274777
2.1896,0.3959,36.2500,82,93,274780
2.1994,0.4106,35.9800,82,93,274784
2.1408,0.4252,36.1600,82,93,274787
2.1408,0.4057,36.0400,82,93,274790
2.1554,0.4008,36.1300,82,93,274794
2.1994,0.3959,36.1600,82,93,274797
2.2385,0.4154,36.0700,82,93,274800
2.1750,0.4008,36.1900,82,93,274804
2.1652,0.4106,36.0400,82,93,274807
2.1408,0.4008,36.2200,82,93,274810
2.1994,0.4008,36.2200,82,93,274814
2.2630,0.4399,36.1600,82,93,274818
2.2532,0.4008,36.1900,82,93,274821
2.2336,0.4057,36.0100,82,93,274825
2.1652,0.3861,36.2200,82,93,274828
2.1701,0.4008,36.1900,82,93,274831
2.2434,0.4106,36.1000,82,93,274834
2.2678,0.4008,36.1900,82,93,274838
2.3265,0.4106,35.9200,82,93,274841
2.2483,0.4057,36.0700,82,93,274844
2.1896,0.3959,36.2200,82,93,274848
2.2141,0.4106,36.1300,82,93,274851
2.2483,0.4008,36.2200,82,93,274854
2.3460,0.4203,35.8700,82,93,274859
2.2972,0.4057,35.7500,82,93,274862
2.2336,0.4008,36.1600,82,93,274865
2.2141,0.4057,36.1900,82,93,274869
2.2336,0.4106,36.2200,82,93,274872
2.3460,0.4106,36.0400,82,93,274875
2.3558,0.4106,36.1300,82,93,274879
2.3509,0.4008,36.0700,82,93,274882
2.2923,0.4008,36.3100,82,93,274885
2.2678,0.4008,36.2200,82,93,274888
2.3216,0.4057,36.1600,82,93,274892
2.3656,0.3959,36.1900,82,93,274895
2.4340,0.4057,36.0400,82,93,274898
2.4047,0.4008,36.1900,82,93,274903
2.3754,0.4008,36.2200,82,93,274906
2.4096,0.4106,36.0700,82,93,274909
2.4194,0.4008,36.1900,82,93,274913
2.4927,0.4008,36.0100,82,93,274916
2.4878,0.4008,36.1000,82,93,274919
2.4878,0.4008,36.2200,82,93,274923
2.4242,0.4106,36.0100,82,93,274926
2.3900,0.4057,36.2200,82,93,274929
2.4194,0.4106,35.9200,82,93,274932
2.4194,0.3959,36.1600,82,93,274936
2.4194,0.4008,36.2200,82,93,274939
2.3900,0.4106,36.1600,82,93,274942
2.3118,0.3861,36.2200,82,93,274947
2.3363,0.4203,35.8700,82,93,274950
2.3021,0.4008,36.1300,82,93,274953
2.3363,0.3959,36.1900,82,93,274957
2.3460,0.4008,36.0100,82,93,274960
2.3558,0.4008,36.1900,82,93,274963
2.3412,0.4154,36.2500,82,93,274967
2.2972,0.4106,36.1300,82,93,274970
2.3412,0.4008,36.1000,82,93,274973
2.3851,0.3959,36.1900,82,93,274977
2.3900,0.4008,36.2800,82,93,274980
2.3900,0.4203,36.0100,82,93,274983
2.3118,0.4057,36.1600,82,93,274987
2.3118,0.4203,36.1000,82,93,274991
2.3216,0.4008,36.2200,82,93,274994
2.3607,0.4154,36.1900,82,93,274997
2.3900,0.4008,36.1000,82,93,275001
2.3216,0.4008,36.2200,82,93,275004
2.3118,0.4057,36.0400,82,93,275007
2.2825,0.3959,36.1900,82,93,275011
2.3265,0.3959,36.1900,82,93,275014
2.3851,0.4057,36.1000,82,93,275017
2.3607,0.4106,36.1900,82,93,275021
2.3558,0.4057,35.9500,82,93,275024
2.2678,0.4008,36.2200,82,93,275027
2.2727,0.4008,36.2200,82,93,275032
2.3314,0.4106,36.1600,82,93,275035
2.3656,0.4008,36.2500,82,93,275038
2.4291,0.4106,35.9000,82,93,275041
2.3705,0.4106,36.1300,82,93,275045
2.3412,0.3959,36.1900,82,93,275048
2.3705,0.4057,36.1600,82,93,275051
2.3998,0.4057,36.2200,82,93,275055
2.5171,0.3861,35.9800,82,93,275058
2.5269,0.4106,36.1300,82,93,275061
2.5464,0.4008,36.1000,82,93,275065
2.5953,0.3959,36.2200,82,93,275068
2.6491,0.4008,36.2200,82,93,275072
2.7273,0.4106,36.0400,82,93,275076
2.6491,0.4008,36.1900,82,93,275079
2.5220,0.4057,36.0400,82,93,275082
2.2825,0.3959,36.2200,82,93,275086
2.0674,0.3959,36.1900,82,93,275089
1.9795,0.4008,36.1300,82,93,275092
2.0235,0.4008,36.2200,82,93,275095
2.1701,0.4057,36.0100,82,93,275099
2.2336,0.4008,36.2200,82,93,275102
2.2825,0.4057,36.1900,82,93,275105
2.3509,0.4057,36.1300,82,93,275109
2.3949,0.3959,36.2200,82,93,275112
2.4976,0.4106,36.0100,82,93,275116
2.5220,0.4057,36.0700,82,93,275120
2.4438,0.4008,36.1900,82,93,275123
2.4096,0.4106,36.1000,82,93,275126
2.3607,0.4008,36.2200,82,93,275130
2.4438,0.4106,36.0100,82,93,275133
2.4487,0.4008,36.1000,82,93,275136
2.4536,0.4008,36.1600,82,93,275140
2.4242,0.3959,36.1900,82,93,275143
2.3656,0.4008,36.2200,82,93,275146
2.4145,0.4154,35.9800,82,93,275149
2.4047,0.4057,36.1300,82,93,275153
2.4487,0.3910,36.1300,82,93,275156
2.4585,0.4008,36.1900,82,93,275160
2.4291,0.4008,36.1900,82,93,275164
2.4194,0.4154,36.1600,82,93,275167
2.3851,0.4106,36.1900,82,93,275170
2.4438,0.4057,36.0400,82,93,275174
2.4633,0.4008,36.1600,82,93,275177
2.4633,0.4008,36.1900,82,93,275180
2.4682,0.4057,36.0700,82,93,275184
2.3803,0.4008,36.1900,82,93,275187
2.4194,0.4106,36.0700,82,93,275190
2.4145,0.3959,36.0700,82,93,275194
2.4585,0.4008,36.2200,82,93,275197
2.4829,0.4057,36.0400,82,93,275201
2.4096,0.3959,36.1900,82,93,275204
2.4047,0.4057,35.9500,82,93,275208
2.3705,0.4008,36.1300,82,93,275211
2.4096,0.3959,36.2500,82,93,275214
2.4780,0.4057,36.1300,82,93,275218
2.4487,0.3959,36.1900,82,93,275221
2.4585,0.4106,35.9200,82,93,275224
2.3558,0.4008,36.1300,82,93,275228
2.3607,0.3959,36.2200,82,93,275231
2.4194,0.4301,36.1600,82,93,275234
2.4487,0.4008,35.9500,82,93,275238
2.4976,0.4203,35.9200,82,93,275241
2.3949,0.4057,36.1300,82,93,275245
2.3412,0.4008,36.1600,82,93,275249
2.3509,0.4008,36.1900,82,93,275252
2.3998,0.4008,36.2500,82,93,275255
2.4829,0.4106,36.0100,82,93,275258
2.4438,0.4057,36.1300,82,93,275262
2.3998,0.3959,36.0400,82,93,275265
2.3509,0.4008,36.1900,82,93,275268
2.3705,0.4008,36.2800,82,93,275272
2.4731,0.4106,36.0400,82,93,275275
2.4682,0.4008,36.1900,82,93,275278
2.4780,0.4154,36.0400,82,93,275282
2.3900,0.4008,36.2200,82,93,275286
2.3656,0.4008,36.2500,82,93,275289
2.4047,0.4008,36.1000,82,93,275292
2.4487,0.4008,36.1900,82,93,275296
2.5122,0.4008,36.0400,82,93,275299
2.4487,0.3959,36.2200,82,93,275302
2.3998,0.4008,36.2200,82,93,275306
2.3949,0.4008,36.1300,82,93,275309
2.3998,0.4008,36.2800,82,93,275312
2.4927,0.4008,35.9200,82,93,275316
2.4780,0.4057,36.1300,82,93,275319
2.4145,0.3959,36.2200,82,93,275322
2.3656,0.4057,36.1600,82,93,275326
2.2972,0.4057,36.2200,82,93,275330
2.3558,0.4154,35.9800,82,93,275333
2.3265,0.3959,36.0400,82,93,275337
2.2825,0.3959,36.2200,82,93,275340
2.2141,0.4008,36.1900,82,93,275343
2.1114,0.3959,36.4600,82,93,275346
2.0919,0.4106,36.0400,82,93,275350
2.0479,0.4057,36.1900,82,93,275353
2.0577,0.4008,36.0400,82,93,275356
2.0137,0.4008,36.1900,82,93,275360
1.9159,0.4008,36.2200,82,93,275363
1.9208,0.4008,36.2200,82,93,275367
1.9159,0.4057,36.0700,82,93,275371
1.8377,0.4106,36.2200,82,93,275374
1.8524,0.4057,35.9800,82,93,275378
1.8817,0.4301,36.0400,82,93,275381
1.9208,0.4008,36.2200,82,93,275384
1.9404,0.4106,36.1300,82,93,275388
1.8671,0.4008,36.2200,82,93,275391
1.8671,0.4106,35.9000,82,93,275394
1.8426,0.4008,36.1000,82,93,275398
1.8817,0.4008,36.2500,82,93,275401
1.9453,0.3959,36.1900,82,93,275404
1.9110,0.4008,36.2500,82,93,275407
1.9110,0.4154,35.9200,82,93,275411
1.8280,0.4106,36.1300,82,93,275415
1.8377,0.4008,36.1300,82,93,275418
1.8866,0.4008,36.1900,82,93,275422
1.9355,0.4008,36.1900,82,93,275425
1.9648,0.4154,36.1000,82,93,275428
1.9062,0.4057,36.1600,82,93,275432
1.8817,0.4057,36.0100,82,93,275435
1.8915,0.4008,36.2200,82,93,275438
1.9453,0.4057,36.2500,82,93,275442
2.0283,0.4106,36.0100,82,93,275445
2.0332,0.3959,36.1900,82,93,275448
2.0088,0.4106,36.1300,82,93,275452
1.9648,0.4008,36.1000,82,93,275456
1.9892,0.3861,36.2200,82,93,275459
2.0528,0.4106,36.0400,82,93,275463
2.0430,0.4008,36.2200,82,93,275466
2.0283,0.4057,35.9500,82,93,275469
1.9404,0.4008,36.1000,82,93,275472
1.9062,0.4008,36.2200,82,93,275476
1.9501,0.4301,36.1300,82,93,275479
1.9795,0.4008,36.2200,82,93,275482
2.0381,0.4106,35.9000,82,93,275486
1.9550,0.3861,36.1600,82,93,275489
1.8964,0.3959,36.2800,82,93,275492
1.8866,0.4057,36.1900,82,93,275496
1.8964,0.4008,36.2500,82,93,275500
2.0039,0.4203,35.9500,82,93,275503
1.9844,0.4057,36.1600,82,93,275507
1.9257,0.4008,36.1300,82,93,275510
1.8768,0.4057,36.2200,82,93,275513
1.8622,0.4008,36.2200,82,93,275517
1.9355,0.4106,36.0700,82,93,275520
1.9697,0.4057,36.1600,82,93,275523
1.9892,0.4008,36.0400,82,93,275526
1.9453,0.3959,36.1900,82,93,275530
1.8964,0.4008,36.0700,82,93,275533
1.9355,0.4106,36.1000,82,93,275536
1.9306,0.4008,36.1900,82,93,275540
2.0039,0.4106,36.0700,82,93,275544
1.9990,0.4008,36.2200,82,93,275547
1.9501,0.4008,36.2200,82,93,275551
1.9159,0.4106,36.1000,82,93,275554
1.9159,0.4008,36.2200,82,93,275557
1.9892,0.4008,36.1000,82,93,275560
2.0235,0.3959,36.1900,82,93,275564
2.0039,0.4008,36.1900,82,93,275567
1.9892,0.4106,36.1000,82,93,275570
1.9550,0.4008,36.2500,82,93,275574
2.0772,0.4106,35.9000,82,93,275577
2.2141,0.4057,36.1000,82,93,275580
2.3167,0.4008,36.1900,82,93,275585
2.3460,0.4057,36.1300,82,93,275588
2.2287,0.4008,36.1900,82,93,275591
2.1457,0.4154,35.8400,82,93,275595
1.8964,0.4008,36.0400,82,93,275598
1.7400,0.3959,36.1600,82,93,275601
1.6520,0.4008,36.1900,82,93,275605
1.6520,0.4008,36.2200,82,93,275608
1.7595,0.4154,36.1000,82,93,275611
1.8231,0.4106,36.2800,82,93,275614
1.9355,0.4008,36.1600,82,93,275618
2.0528,0.3959,36.1900,82,93,275621
2.1212,0.4008,36.2200,82,93,275624
2.1505,0.4057,36.1000,82,93,275629
2.0674,0.4008,36.1000,82,93,275632
2.0479,0.4301,36.0400,82,93,275635
2.0381,0.4008,36.2200,82,93,275639
2.0870,0.4008,36.2500,82,93,275642
2.1505,0.4008,36.0400,82,93,275645
2.0968,0.4008,36.1900,82,93,275649
2.0674,0.4008,36.0700,82,93,275652
1.9941,0.4106,36.1300,82,93,275655
2.0137,0.4008,36.2200,82,93,275658
2.1017,0.3959,36.0400,82,93,275662
2.0919,0.4008,36.2200,82,93,275665
2.0919,0.4008,36.0100,82,93,275668
2.0137,0.4008,36.1300,82,93,275673
1.9599,0.4008,36.2200,82,93,275676
2.0088,0.3910,36.1300,82,93,275679
2.0479,0.3861,36.2200,82,93,275683
2.1261,0.4106,35.8700,82,93,275686
2.0528,0.4008,36.0700,82,93,275689
1.9941,0.4106,36.1900,82,93,275693
1.9746,0.3861,36.1900,82,93,275696
1.9941,0.4008,36.0700,82,93,275699
2.1017,0.4203,35.9500,82,93,275702
2.0723,0.4057,36.1000,82,93,275706
2.0283,0.3959,36.1300,82,93,275709
1.9746,0.3959,36.1900,82,93,275713
1.9599,0.4008,36.4000,82,93,275717
2.0283,0.4252,36.0100,82,93,275720
2.0577,0.4057,36.1600,82,93,275723
2.0723,0.4154,36.1000,82,93,275727
2.0039,0.4008,36.2200,82,93,275730
1.9599,0.4008,36.2500,82,93,275733
1.9746,0.3959,36.1000,82,93,275737
2.0039,0.4008,36.2200,82,93,275740
2.0870,0.4106,36.0400,82,93,275743
2.0772,0.3959,36.1900,82,93,275746
2.0430,0.4008,36.2200,82,93,275750
2.0088,0.4008,36.0100,82,93,275753
1.9941,0.3959,36.1900,82,93,275757
2.0674,0.4008,36.0100,82,93,275761
2.0968,0.4154,36.2200,82,93,275764
2.1114,0.4008,36.2200,82,93,275767
2.0968,0.4252,36.1600,82,93,275771
2.0381,0.4008,36.2800,82,93,275774
2.0821,0.4106,35.9500,82,93,275777
2.1114,0.4057,36.1000,82,93,275781
2.1554,0.4008,36.3100,82,93,275784
2.1896,0.3861,36.1300,82,93,275787
2.1408,0.4008,36.3100,82,93,275790
2.1701,0.4154,35.9000,82,93,275794
2.1505,0.4057,36.1000,82,93,275798
2.1896,0.4008,36.1600,82,93,275801
2.2483,0.4008,36.1900,82,93,275805
2.2385,0.3959,36.1300,82,93,275808
2.2483,0.4057,35.9800,82,93,275811
2.1750,0.4057,36.1600,82,93,275815
2.1799,0.3959,36.0700,82,93,275818
2.2141,0.4008,36.2200,82,93,275821
2.2483,0.4008,36.2200,82,93,275825
2.2385,0.4057,36.1600,82,93,275828
2.1457,0.4008,36.1900,82,93,275831
2.1017,0.4057,36.0700,82,93,275835
2.0577,0.4008,36.2200,82,93,275838
2.0723,0.3959,36.2200,82,93,275842
2.1017,0.4106,36.0700,82,93,275845
2.0137,0.4008,36.1900,82,93,275849
1.9404,0.4057,36.0100,82,93,275852
1.8377,0.3959,36.1300,82,93,275855
1.8133,0.4008,36.2200,82,93,275859
1.8524,0.4057,36.0700,82,93,275862
1.8328,0.3959,36.2200,82,93,275865
1.8182,0.4057,35.9200,82,93,275869
1.7351,0.4057,36.1300,82,93,275872
1.6716,0.4008,36.2800,82,93,275875
1.7253,0.4057,36.1600,82,93,275879
1.7155,0.4008,36.2200,82,93,275883
1.7889,0.4106,35.9000,82,93,275886
1.7204,0.4008,36.1300,82,93,275890
1.6618,0.3861,36.1900,82,93,275893
1.6373,0.4008,36.1600,82,93,275896
1.6667,0.4008,36.2200,82,93,275900
1.7644,0.4154,36.0100,82,93,275903
1.7546,0.4057,36.2500,82,93,275906
1.7302,0.4008,36.0700,82,93,275909
1.6764,0.4008,36.1900,82,93,275913
1.6569,0.4008,36.2200,82,93,275916
1.7204,0.4057,36.0100,82,93,275919
1.7498,0.4057,36.1900,82,93,275923
1.7791,0.4057,36.0100,82,93,275927
1.7204,0.3910,36.1900,82,93,275930
1.6764,0.4008,36.2200,82,93,275934
1.6813,0.4106,36.0400,82,93,275937
1.7204,0.4008,36.2200,82,93,275940
1.7840,0.4008,36.0100,82,93,275944
1.7742,0.4008,36.1300,82,93,275947
1.7351,0.3959,36.3400,82,93,275950
1.7107,0.4057,36.0700,82,93,275954
1.6911,0.4008,36.2200,82,93,275957
1.7693,0.4203,35.9000,82,93,275960
1.7889,0.3959,36.1600,82,93,275963
1.7986,0.3959,36.2200,82,93,275968
1.7644,0.4106,36.1600,82,93,275971
1.7986,0.4008,36.2200,82,93,275975
1.7546,0.4008,36.1900,82,93,275978
1.7498,0.4057,36.0100,82,93,275981
1.7498,0.4057,36.1900,82,93,275985
1.8133,0.3861,36.0400,82,93,275988
1.8328,0.4008,36.2200,82,93,275991
1.8231,0.3861,36.2200,82,93,275995
1.8133,0.4057,36.0700,82,93,275998
1.7449,0.4008,36.2200,82,93,276001
1.7840,0.3959,36.0400,82,93,276005
1.8084,0.4008,36.3100,82,93,276008
1.8719,0.3959,36.2200,82,93,276012
1.8328,0.4008,36.0700,82,93,276016
1.7693,0.4008,36.1900,82,93,276019
1.7742,0.4057,35.9500,82,93,276022
1.7791,0.3959,36.2200,82,93,276026
1.8280,0.3959,36.2200,82,93,276029
1.8915,0.4057,36.1600,82,93,276032
1.8328,0.4154,36.2200,82,93,276036
1.8182,0.4106,35.8700,82,93,276039
1.7546,0.4154,36.1000,82,93,276042
1.7644,0.3861,36.1900,82,93,276045
1.8328,0.3959,36.1900,82,93,276049
1.8328,0.4008,36.3400,82,93,276052
1.8671,0.4154,35.9800,82,93,276056
1.7986,0.4057,36.1300,82,93,276060
1.7742,0.3959,36.0700,82,93,276063
1.7937,0.4008,36.2500,82,93,276066
1.8377,0.4057,36.2200,82,93,276070
1.8768,0.4057,36.0700,82,93,276073
1.8133,0.4106,36.1900,82,93,276076
1.7742,0.4057,36.0400,82,93,276080
1.7400,0.4008,36.2200,82,93,276083
1.7791,0.4008,36.2200,82,93,276086
1.8377,0.4008,36.1000,82,93,276090
1.8475,0.3861,36.2200,82,93,276093
1.8377,0.4252,36.0400,82,93,276097
1.7693,0.4008,36.2800,82,93,276101
1.7644,0.4008,36.1900,82,93,276104
1.8280,0.4057,36.1000,82,93,276107
1.8573,0.4057,36.1300,82,93,276110
1.8964,0.4106,35.9800,82,93,276114
1.8280,0.4057,36.1000,82,93,276117
1.7742,0.3959,36.2200,82,93,276120
1.7840,0.4106,36.1300,82,93,276124
1.8182,0.3959,36.2200,82,93,276127
1.9062,0.4106,35.8700,82,93,276130
1.8719,0.4008,35.3900,82,93,276134
1.8133,0.3959,36.1600,82,93,276137
1.7742,0.4008,36.2200,82,93,276141
1.7742,0.3959,36.2200,82,93,276145
1.8719,0.4154,36.0400,82,93,276148
1.8817,0.4057,36.1600,82,93,276151
1.8719,0.4008,36.0700,82,93,276155
1.8084,0.4008,36.2200,82,93,276158
1.7546,0.4497,36.2200,82,93,276161
1.7840,0.4057,36.1600,82,93,276165
1.8133,0.4008,36.2200,82,93,276168
1.8622,0.4057,36.0700,82,93,276171
1.8328,0.3959,36.2200,82,93,276175
1.7840,0.3959,36.1600,82,93,276178
1.7791,0.4057,36.1000,82,93,276182
1.7693,0.4057,36.2200,82,93,276185
1.8426,0.3861,35.9800,82,93,276189
1.8622,0.4106,36.1000,82,93,276192
1.8328,0.3959,36.1900,82,93,276195
1.8035,0.4106,36.1000,82,93,276199
1.7498,0.4008,36.2200,82,93,276202
1.8133,0.4154,35.9000,82,93,276205
1.8475,0.4008,35.7200,82,93,276209
1.8719,0.3959,36.1900,82,93,276212
1.8573,0.4008,36.1900,82,93,276215
1.8231,0.4008,36.2200,82,93,276219
1.8231,0.4203,35.9000,82,93,276222
1.8133,0.4057,36.1000,82,93,276226
1.8573,0.3959,36.1300,82,93,276230
1.8622,0.3861,36.2200,82,93,276233
1.8280,0.4008,36.2200,82,93,276236
1.8035,0.4106,36.1900,82,93,276240
1.7546,0.3959,36.1900,82,93,276243
1.8035,0.4008,36.0700,82,93,276246
1.8475,0.4057,36.2200,82,93,276249
1.8719,0.4008,36.2200,82,93,276253
1.8719,0.4008,36.0400,82,93,276256
1.8035,0.4008,36.2800,82,93,276259
1.8084,0.4203,36.0700,82,93,276263
1.8280,0.3910,36.1600,82,93,276267
1.8866,0.4008,36.2500,82,93,276270
1.9257,0.4057,36.0700,82,93,276274
1.8817,0.4057,36.1900,82,93,276277
1.8671,0.4057,35.9800,82,93,276280
1.8573,0.3959,36.1600,82,93,276284
1.8915,0.3861,36.2200,82,93,276287
1.9648,0.4106,36.1300,82,93,276290
1.9404,0.3959,36.3100,82,93,276294
1.9208,0.4106,35.9000,82,93,276297
1.8133,0.4008,35.4800,82,93,276300
1.8035,0.4008,36.2200,82,93,276303
1.8475,0.4008,36.1900,82,93,276307
1.8768,0.3910,36.2200,82,93,276311
1.9257,0.4154,35.9800,82,93,276314
1.8328,0.4057,36.1600,82,93,276318
1.7644,0.4008,36.2800,82,93,276321
1.7595,0.3861,36.1900,82,93,276324
1.8035,0.4008,36.1900,82,93,276328
1.8866,0.3861,36.0100,82,93,276331
1.8573,0.4106,36.1600,82,93,276334
1.8133,0.4057,36.0400,82,93,276338
1.7595,0.3910,36.2200,82,93,276341
1.7644,0.4008,36.2200,82,93,276344
1.8377,0.4106,36.1000,82,93,276348
1.8573,0.4008,36.2200,82,93,276352
1.8622,0.4057,36.0700,82,93,276355
1.7840,0.3959,36.1900,82,93,276359
1.7498,0.4008,36.2200,82,93,276362
1.7791,0.4008,36.1000,82,93,276365
1.8231,0.4008,36.2200,82,93,276368
1.8915,0.4448,35.9500,82,93,276372
1.8426,0.4008,36.2500,82,93,276375
1.7840,0.4106,36.1900,82,93,276378
1.7546,0.4057,36.1600,82,93,276382
1.7644,0.3959,36.2200,82,93,276385
1.8573,0.4106,35.9000,82,93,276388
1.8573,0.4057,36.1600,82,93,276392
1.8231,0.3959,36.2500,82,93,276396
1.7889,0.4057,36.1900,82,93,276399
1.7644,0.4008,36.1000,82,93,276403
1.8719,0.4252,35.9800,82,93,276406
1.9257,0.4106,36.1000,82,93,276409
1.9453,0.3861,36.1000,82,93,276413
1.9013,0.4008,36.2200,82,93,276416
1.8426,0.3861,36.2200,82,93,276419
1.8817,0.4106,36.0700,82,93,276423
1.9697,0.4008,36.1900,82,93,276426
2.1408,0.4008,35.9800,82,93,276429
2.1945,0.3959,36.2200,82,93,276432
2.1603,0.4008,36.1600,82,93,276436
2.1114,0.3959,36.1300,82,93,276440
1.9550,0.4008,36.1900,82,93,276443
1.8768,0.4057,36.0400,82,93,276447
1.7107,0.4008,36.0700,82,93,276450
1.5787,0.4057,36.2200,82,93,276453
1.4956,0.4057,36.1300,82,93,276457
1.4712,0.3861,36.2200,82,93,276460
1.5836,0.4301,35.9500,82,93,276463
1.7058,0.3861,36.1000,82,93,276467
1.8377,0.3959,36.2800,82,93,276470
1.9257,0.4057,35.3900,82,93,276473
1.8915,0.4057,36.2200,82,93,276477
1.8915,0.4057,35.9200,82,93,276481
1.8426,0.4008,36.0400,82,93,276484
1.8719,0.3959,36.1900,82,93,276488
1.9404,0.4008,36.1600,82,93,276491
1.9110,0.3959,36.3100,82,93,276494
1.9208,0.4203,35.9800,82,93,276497
1.8377,0.4057,36.1300,82,93,276501
1.8377,0.4057,36.1000,82,93,276504
1.8817,0.4008,35.7500,82,93,276507
1.9208,0.4008,36.2200,82,93,276511
1.9501,0.4057,36.1000,82,93,276514
1.8719,0.4008,36.1900,82,93,276517
1.8524,0.4057,36.0400,82,93,276521
1.8328,0.4008,36.2800,82,93,276525
1.8719,0.4252,36.1900,82,93,276528
1.9355,0.4106,36.1900,82,93,276532
1.8915,0.3959,36.2200,82,93,276535
1.8671,0.4008,36.0700,82,93,276538
1.7937,0.4008,36.1300,82,93,276542
1.8084,0.3861,36.2200,82,93,276545
1.8866,0.4057,36.0100,82,93,276548
1.9159,0.4008,36.2200,82,93,276551
1.9355,0.4106,35.9500,82,93,276555
1.8573,0.4008,36.1300,82,93,276558
1.8328,0.3959,36.2200,82,93,276561
1.8426,0.4057,36.1300,82,93,276566
1.8768,0.3959,36.1900,82,93,276569
1.9697,0.4106,35.8400,82,93,276572
1.9110,0.3861,36.1000,82,93,276576
1.8573,0.3959,36.1600,82,93,276579
1.8426,0.4008,36.2200,82,93,276582
1.8915,0.4008,36.1900,82,93,276586
1.8866,0.4057,36.2200,82,93,276589
1.9599,0.4106,36.0700,82,93,276593
1.9941,0.4008,36.2200,82,93,276596
2.0430,0.4106,36.0400,82,93,276599
1.9844,0.4008,36.1600,82,93,276603
1.9355,0.4008,36.2200,82,93,276606
1.9648,0.4008,36.0400,82,93,276610
1.9697,0.3959,36.2200,82,93,276614
2.0577,0.4252,35.9800,82,93,276617
2.0772,0.4008,36.1600,82,93,276620
2.0528,0.4008,36.3100,82,93,276623
2.0332,0.4154,36.1300,82,93,276627
2.0137,0.4008,36.1900,82,93,276630
2.0968,0.4106,35.9000,82,93,276633
2.1114,0.3959,36.2200,82,93,276637
2.1359,0.4497,36.2200,82,93,276640
2.1212,0.4008,36.4000,82,93,276643
2.0626,0.3959,36.2200,82,93,276647
2.1065,0.4203,35.9800,82,93,276651
2.1017,0.4057,36.1300,82,93,276654
2.1408,0.3959,36.1600,82,93,276658
2.1554,0.4008,36.2200,82,93,276661
2.1017,0.4008,36.2200,82,93,276664
2.0870,0.4399,35.9800,82,93,276667
2.0528,0.4057,36.1600,82,93,276671
2.0870,0.4008,36.0400,82,93,276674
2.1065,0.4057,36.2200,82,93,276677
2.0919,0.3861,36.2200,82,93,276681
2.0430,0.4106,36.0700,82,93,276684
1.9453,0.4008,36.1900,82,93,276687
1.9257,0.4057,36.0400,82,93,276691
1.9110,0.3959,36.1900,82,93,276695
1.9110,0.4008,36.1900,82,93,276698
1.8671,0.4008,36.1300,82,93,276702
1.7693,0.4008,36.1000,82,93,276705
1.7009,0.4008,36.0100,82,93,276708
1.6471,0.4008,36.2200,82,93,276712
1.6716,0.4008,36.1900,82,93,276715
1.6960,0.4057,36.1900,82,93,276718
1.6520,0.4008,36.2200,82,93,276721
1.6276,0.4057,35.9500,82,93,276725
1.5591,0.4154,36.1000,82,93,276728
1.5494,0.3959,36.2200,82,93,276731
1.6129,0.4106,36.1300,82,93,276736
1.6325,0.4008,36.2800,82,93,276739
1.6618,0.4252,35.8700,82,93,276742
1.5934,0.4350,36.0400,82,93,276746
1.5640,0.3959,36.1600,82,93,276749
1.5982,0.4008,36.1900,82,93,276752
1.6520,0.4008,36.2200,82,93,276756
1.7253,0.4154,36.0400,82,93,276759
1.6911,0.4057,36.1600,82,93,276762
1.6227,0.4008,36.1900,82,93,276766
1.5885,0.4008,36.1900,82,93,276769
1.6178,0.4008,36.1900,82,93,276772
1.7204,0.4057,36.1300,82,93,276775
1.7009,0.4008,36.1900,82,93,276780
1.6862,0.4057,36.0400,82,93,276783
1.6178,0.4008,36.2200,82,93,276786
1.6129,0.3910,36.2200,82,93,276790
1.6716,0.4057,36.1300,82,93,276793
1.7155,0.4008,36.2200,82,93,276796
1.7644,0.4399,35.9800,82,93,276800
1.7253,0.4008,36.1300,82,93,276803
1.6764,0.4008,36.2800,82,93,276806
1.6764,0.4106,36.1900,82,93,276810
1.7058,0.4350,36.1900,82,93,276813
1.7986,0.4106,35.9200,82,93,276816
1.7840,0.4008,36.1300,82,93,276820
1.7546,0.3959,36.2200,82,93,276824
1.7058,0.4154,36.1600,82,93,276827
1.6911,0.4008,36.2200,82,93,276831
1.7791,0.4154,35.9200,82,93,276834
1.7889,0.4008,36.1900,82,93,276837
1.7840,0.4301,36.1600,82,93,276840
1.7546,0.4008,36.1900,82,93,276844
1.7155,0.4008,36.2200,82,93,276847
1.7498,0.4154,36.1300,82,93,276850
1.7742,0.4057,36.1600,82,93,276854
1.8182,0.4008,35.3600,82,93,276857
1.8084,0.4008,36.1900,82,93,276860
1.7644,0.4008,36.1300,82,93,276865
1.7498,0.4106,36.0400,82,93,276868
1.7498,0.4106,36.1900,82,93,276871
1.8182,0.4106,36.0400,82,93,276875
1.8426,0.3959,36.1900,82,93,276878
1.8377,0.4008,36.2200,82,93,276881
1.8426,0.3959,36.0400,82,93,276885
1.7595,0.4008,36.1900,82,93,276888
1.7937,0.4057,36.0100,82,93,276891
1.8280,0.4008,36.1300,82,93,276895
1.8719,0.4008,36.3100,82,93,276898
1.8866,0.4057,36.1300,82,93,276901
1.8182,0.4008,36.1900,82,93,276904
1.8475,0.4057,35.9200,82,93,276909
1.7937,0.4008,36.1600,82,93,276912
1.8475,0.3959,36.2200,82,93,276915
1.8866,0.4057,36.1600,82,93,276919
1.8622,0.4008,36.2200,82,93,276922
1.8622,0.4301,35.9200,82,93,276925
1.7937,0.4057,36.3400,82,93,276929
1.7986,0.4008,36.1600,82,93,276932
1.8524,0.4008,36.2200,82,93,276935
1.8817,0.4008,36.2200,82,93,276939
1.8964,0.4106,36.1300,82,93,276942
1.8328,0.4057,36.1600,82,93,276945
1.8231,0.4106,36.0400,82,93,276950
1.8377,0.3861,36.2800,82,93,276953
1.8915,0.4008,36.1900,82,93,276956
1.9453,0.3861,36.1300,82,93,276960
1.8964,0.4545,36.1900,82,93,276963
1.8768,0.4106,36.0400,82,93,276966
1.8231,0.3959,36.1300,82,93,276969
1.8573,0.3861,36.2200,82,93,276973
1.9159,0.4057,36.1000,82,93,276976
1.9257,0.4008,36.2200,82,93,276979
1.9208,0.4057,35.9500,82,93,276983
1.8426,0.4008,36.2200,82,93,276986
1.8280,0.4008,36.1900,82,93,276989
1.8817,0.4057,36.1600,82,93,276994
1.9355,0.4008,36.2200,82,93,276997
1.9844,0.4106,35.8700,82,93,277000
1.9159,0.4057,36.1000,82,93,277004
1.8524,0.4008,36.2200,82,93,277007
1.8573,0.4057,36.1600,82,93,277010
1.8964,0.4008,36.2200,82,93,277014
2.0235,0.4154,35.9800,82,93,277017
2.0088,0.4106,36.1000,82,93,277020
1.9990,0.3959,36.1000,82,93,277024
1.9306,0.4008,36.2500,82,93,277027
1.9355,0.4008,36.2200,82,93,277030
2.0088,0.4106,36.0400,82,93,277033
2.0332,0.4008,36.2200,82,93,277038
2.0430,0.4106,36.0700,82,93,277041
1.9795,0.4008,36.1900,82,93,277044
1.9257,0.4008,36.1600,82,93,277048
1.9306,0.4057,36.1300,82,93,277051
1.9404,0.4008,36.2500,82,93,277054
1.9892,0.4106,36.0700,82,93,277058
1.9501,0.4008,36.1900,82,93,277061
1.8817,0.4008,36.2200,82,93,277064
1.8524,0.4057,36.0400,82,93,277068
1.8182,0.4008,36.1900,82,93,277071
1.8768,0.4057,35.9500,82,93,277074
1.8915,0.3959,36.0700,82,93,277078
1.8817,0.3959,36.2200,82,93,277082
1.8866,0.4057,36.1000,82,93,277085
1.8133,0.4008,35.9800,82,93,277088
1.8719,0.4008,35.9000,82,93,277092
1.9062,0.4008,36.1000,82,93,277095
1.9404,0.4203,36.1900,82,93,277098
1.9404,0.4008,36.1600,82,93,277102
1.8768,0.4008,36.1900,82,93,277105
1.9062,0.4057,35.9200,82,93,277108
1.8671,0.4057,36.1300,82,93,277112
1.9110,0.3959,36.1300,82,93,277115
1.9795,0.3959,36.1900,82,93,277118
1.9208,0.4301,36.1900,82,93,277123
1.9062,0.4057,36.1000,82,93,277126
1.8475,0.4008,36.2500,82,93,277129
1.8768,0.4008,36.0700,82,93,277132
1.9208,0.4008,36.1900,82,93,277136
1.9453,0.3959,36.2500,82,93,277139
1.9550,0.4057,36.0400,82,93,277142
1.8719,0.4057,36.1900,82,93,277146
1.8817,0.4106,36.0700,82,93,277149
1.8817,0.3959,36.4300,82,93,277152
1.9453,0.3959,36.2200,82,93,277156
1.9941,0.4106,36.0400,82,93,277159
1.9648,0.3861,36.2200,82,93,277163
1.9648,0.4008,35.9500,82,93,277167
1.9501,0.3861,36.1300,82,93,277170
1.9795,0.4008,36.2200,82,93,277173
2.0430,0.4057,36.1300,82,93,277177
2.0626,0.3959,36.1900,82,93,277180
2.1554,0.4106,35.9000,82,93,277183
2.1652,0.4008,36.1300,82,93,277187
2.2532,0.4008,36.2200,82,93,277190
2.3314,0.4008,36.1900,82,93,277193
1.7009,0.4008,36.2200,82,93,277197
1.6618,0.4008,36.2800,82,93,277200
1.7742,0.4106,36.0100,82,93,277203
1.8573,0.4057,36.2200,82,93,277208
1.9355,0.3959,36.0400,82,93,277211
1.9550,0.4008,36.2200,82,93,277214
2.0137,0.4008,36.1900,82,93,277218
2.1114,0.4057,36.0700,82,93,277221
2.1457,0.4008,36.1900,82,93,277224
2.1652,0.4106,36.0400,82,93,277228
2.0919,0.3959,36.5500,82,93,277231
2.0479,0.4008,36.2200,82,93,277234
2.0528,0.4057,36.0400,82,93,277238
2.0821,0.3959,36.1900,82,93,277241
2.1603,0.4057,35.9500,82,93,277244
2.1114,0.3959,36.1900,82,93,277249
2.0674,0.4008,36.1900,82,93,277252
2.0674,0.4057,36.1600,82,93,277255
2.0381,0.4008,36.2500,82,93,277258
2.1359,0.4057,35.8700,82,93,277262
2.1408,0.4057,36.1900,82,93,277265
2.1114,0.4008,36.1900,82,93,277268
2.0723,0.4008,36.1600,82,93,277272
2.0283,0.4008,36.2500,82,93,277275
2.1114,0.4203,36.0100,82,93,277278
2.1359,0.4106,36.1300,82,93,277282
2.1799,0.3959,36.1000,82,93,277285
2.1310,0.4008,36.1900,82,93,277288
2.0821,0.4008,36.1900,82,93,277293
2.0870,0.4106,36.0400,82,93,277296
2.0919,0.4008,36.2200,82,93,277299
2.1554,0.4008,36.0700,82,93,277302
2.1701,0.4008,36.1900,82,93,277306
2.1408,0.4008,36.2200,82,93,277309
2.1114,0.4106,36.1300,82,93,277312
2.0674,0.4008,36.1900,82,93,277316
2.1261,0.4106,36.0700,82,93,277319
2.1603,0.4008,36.2200,82,93,277322
2.1896,0.3910,36.1900,82,93,277326
2.1994,0.4057,36.1000,82,93,277329
2.1310,0.3959,36.2200,82,93,277332
2.1457,0.4057,35.9800,82,93,277337
2.1652,0.3959,36.0700,82,93,277340
2.2043,0.3959,36.1900,82,93,277343
2.2532,0.4057,36.1300,82,93,277347
2.1896,0.4008,36.2500,82,93,277350
2.1896,0.4106,35.6900,82,93,277353
2.1408,0.4008,36.3400,82,93,277356
2.1701,0.4008,36.2800,82,93,277360
2.2287,0.4008,36.1900,82,93,277363
2.2483,0.3959,36.1900,82,93,277366
2.2776,0.4057,35.9200,82,93,277370
2.1945,0.4057,36.1000,82,93,277373
2.2043,0.3959,36.1900,82,93,277377
2.2434,0.4008,36.1600,82,93,277381
2.3021,0.4008,36.2200,82,93,277384
2.3607,0.4154,36.0700,82,93,277387
2.2923,0.4008,36.1600,82,93,277391
2.2630,0.4008,36.0700,82,93,277394
2.2434,0.4057,36.1900,82,93,277397
2.2972,0.3959,36.2200,82,93,277400
2.3803,0.4106,36.0400,82,93,277404
2.3558,0.4008,36.1900,82,93,277407
2.3363,0.4057,36.0100,82,93,277410
2.2630,0.3959,36.1900,82,93,277414
2.2532,0.3959,36.2800,82,93,277417
2.3167,0.4057,36.0400,82,93,277421
2.3363,0.4008,35.4200,82,93,277425
2.3509,0.4106,35.9800,82,93,277428
2.2630,0.4008,36.1600,82,93,277431
2.1994,0.3910,36.2200,82,93,277435
2.1994,0.4008,36.1300,82,93,277438
2.1945,0.3959,36.1900,82,93,277441
2.2434,0.4106,35.9200,82,93,277445
2.1457,0.4008,36.1300,82,93,277448
2.0626,0.4008,36.3400,82,93,277451
1.9941,0.4057,36.1600,82,93,277454
1.9550,0.4008,36.2200,82,93,277458
2.0137,0.4252,35.9000,82,93,277462
1.9746,0.4057,36.1000,82,93,277465
1.9062,0.3959,36.1600,82,93,277469
1.8377,0.4008,36.1900,82,93,277472
1.7791,0.4057,36.1900,82,93,277475
1.8133,0.3861,35.9800,82,93,277479
1.8377,0.3959,36.1600,82,93,277482
1.8475,0.4008,36.0700,82,93,277485
1.7986,0.4057,36.2200,82,93,277489
1.7449,0.4008,36.1900,82,93,277492
1.7351,0.4106,36.1000,82,93,277495
1.7351,0.4008,36.1600,82,93,277499
1.8084,0.4057,36.0700,82,93,277502
1.8182,0.4008,36.1900,82,93,277506
1.7937,0.3959,35.4200,82,93,277509
1.7644,0.4008,36.1000,82,93,277513
1.7351,0.4008,36.4000,82,93,277516
1.7889,0.4008,35.9800,82,93,277519
1.8328,0.4008,36.3700,82,93,277523
1.8622,0.4008,36.2200,82,93,277526
1.8573,0.4106,35.8400,82,93,277529
1.7986,0.4008,36.2200,82,93,277533
1.8182,0.4106,35.9000,82,93,277536
1.8475,0.4057,36.0400,82,93,277539
1.8768,0.3959,36.3100,82,93,277543
1.9013,0.4057,36.1300,82,93,277547
1.8524,0.4008,36.3100,82,93,277550
1.8573,0.4154,35.9200,82,93,277554
1.7986,0.4008,35.9800,82,93,277557
1.8182,0.3959,36.1300,82,93,277560
1.8671,0.4008,36.2500,82,93,277563
1.8817,0.4008,36.2200,82,93,277567
1.8817,0.4154,36.0100,82,93,277570
1.8035,0.4008,36.1600,82,93,277573
1.7986,0.4008,36.0400,82,93,277577
1.8475,0.4008,36.1900,82,93,277580
1.8671,0.4008,36.0700,82,93,277583
1.8866,0.4057,36.1300,82,93,277587
1.8328,0.4008,36.1600,82,93,277591
1.8377,0.4106,36.0400,82,93,277594
1.7791,0.4057,36.2200,82,93,277598
1.8328,0.3861,36.2200,82,93,277601
1.9062,0.4106,36.0400,82,93,277604
1.8866,0.4008,36.2200,82,93,277608
1.8622,0.4106,35.9800,82,93,277611
1.8035,0.4008,36.0400,82,93,277614
1.7986,0.4008,36.2200,82,93,277618
1.8719,0.4106,35.4200,82,93,277621
1.8915,0.3959,36.2200,82,93,277624
1.9306,0.4106,35.9500,82,93,277627
1.8524,0.4008,36.1000,82,93,277632
1.7986,0.3959,36.2200,82,93,277635
1.8133,0.4008,36.1600,82,93,277638
1.8475,0.3861,36.2200,82,93,277642
1.9355,0.4203,35.9200,82,93,277645
1.8817,0.4057,36.1300,82,93,277648
1.8280,0.4008,36.1300,82,93,277652
1.7937,0.4203,36.1900,82,93,277655
1.8035,0.4008,36.2800,82,93,277658
1.8866,0.4106,36.0700,82,93,277662
1.8964,0.4057,36.1600,82,93,277665
1.8817,0.4008,36.0700,82,93,277668
1.8133,0.4008,36.2200,82,93,277672
1.7791,0.4203,36.2200,82,93,277676
1.8280,0.4106,36.2200,82,93,277679
1.8573,0.4008,36.1900,82,93,277683
1.9110,0.4106,36.0700,82,93,277686
1.8671,0.3910,36.1600,82,93,277689
1.8182,0.4008,36.2800,82,93,277693
1.8182,0.4057,36.0400,82,93,277696
1.8328,0.3959,36.1300,82,93,277699
1.9159,0.4106,35.9500,82,93,277702
1.9159,0.4008,35.5100,82,93,277706
1.8817,0.4008,36.2200,82,93,277709
1.8475,0.4057,36.1900,82,93,277712
1.8084,0.3959,36.2200,82,93,277716
1.8866,0.4106,35.9000,82,93,277720
1.8964,0.3959,36.1300,82,93,277723
1.9159,0.3959,36.1900,82,93,277727
1.8915,0.4008,36.1900,82,93,277730
1.8377,0.4008,36.1900,82,93,277733
1.8768,0.4203,35.9800,82,93,277737
1.8817,0.4154,36.1600,82,93,277740
1.9257,0.3959,36.1000,82,93,277743
1.9648,0.4008,36.1900,82,93,277747
1.9110,0.4008,36.1900,82,93,277750
1.9159,0.4350,36.0100,82,93,277753
1.9110,0.4057,36.1600,82,93,277757
1.9941,0.4057,36.0400,82,93,277761
2.0381,0.3861,36.2200,82,93,277764
2.0626,0.3959,36.2200,82,93,277767
2.0528,0.3861,36.0700,82,93,277771
1.9844,0.4008,36.1300,82,93,277774
1.9990,0.4008,36.0700,82,93,277777
2.0088,0.3910,36.1900,82,93,277781
2.0381,0.4008,35.4500,82,93,277784
2.0283,0.4301,36.0700,82,93,277787
1.9453,0.3959,36.2200,82,93,277791
1.9062,0.4057,35.9500,82,93,277794
1.8622,0.4008,36.3100,82,93,277797
1.8915,0.3959,36.2200,82,93,277801
1.9306,0.4057,36.1900,82,93,277805
1.8524,0.3910,36.1900,82,93,277809
1.9062,0.4008,36.2200,82,93,277812
1.9550,0.4154,35.9800,82,93,277815
1.8866,0.4057,36.1300,82,93,277819
1.8475,0.4008,36.0700,82,93,277822
1.8475,0.3861,36.1600,82,93,277825
1.8964,0.3959,36.1900,82,93,277828
1.9404,0.3861,36.0700,82,93,277832
1.8915,0.4008,36.1300,82,93,277835
1.8475,0.4057,36.0400,82,93,277838
1.7889,0.4008,36.2200,82,93,277842
1.8084,0.4008,36.2200,82,93,277846
1.8719,0.4008,36.0700,82,93,277849
1.8964,0.4057,36.1900,82,93,277853
1.8964,0.4008,36.0400,82,93,277856
1.8182,0.4057,36.1600,82,93,277859
1.7986,0.4008,36.2200,82,93,277863
1.8377,0.4203,36.1000,82,93,277866
1.8719,0.4008,36.4300,82,93,277869
1.9257,0.4106,35.9200,82,93,277873
1.8817,0.4057,36.1000,82,93,277876
1.8133,0.4106,36.2200,82,93,277879
1.8084,0.4057,36.2800,82,93,277882
1.8328,0.4057,36.1900,82,93,277886
1.9599,0.3861,35.9000,82,93,277890
1.9599,0.4008,36.0400,82,93,277893
1.9110,0.3959,36.1900,82,93,277897
1.8426,0.4008,36.2500,82,93,277900
1.8280,0.3959,36.2200,82,93,277903
1.9599,0.4154,36.2800,82,93,277907
2.0626,0.4106,36.1600,82,93,277910
2.1701,0.4008,36.1000,82,93,277913
2.1652,0.3959,36.1900,82,93,277917
2.0968,0.4008,35.8700,82,93,277920
2.0381,0.4008,36.1300,82,93,277923
1.9306,0.4008,36.1600,82,93,277926
1.8084,0.4008,36.0400,82,93,277931
1.6471,0.4008,36.1900,82,93,277934
1.4907,0.4008,36.2200,82,93,277937
1.4907,0.4350,36.0400,82,93,277941
1.5640,0.4008,36.1900,82,93,277944
1.7400,0.4008,36.0700,82,93,277947
1.8573,0.3959,36.1300,82,93,277951
1.9306,0.3959,36.3100,82,93,277954
1.9501,0.4057,36.0100,82,93,277957
1.8964,0.4008,36.0700,82,93,277961
1.9306,0.4106,35.9200,82,93,277964
1.9501,0.4008,36.3700,82,93,277967
1.9795,0.4057,36.2200,82,93,277971
1.9844,0.4057,36.0700,82,93,277975
1.9404,0.4008,36.1900,82,93,277978
1.9159,0.4154,35.9000,82,93,277981
1.8964,0.3959,36.1300,82,93,277985
1.9306,0.3959,36.1900,82,93,277988
1.9892,0.3959,36.1900,82,93,277991
1.9550,0.4008,36.1900,82,93,277995
1.9550,0.4154,35.9800,82,93,277998
1.8768,0.4057,36.1600,82,93,278001
1.8817,0.4350,36.1000,82,93,278005
1.9306,0.4008,36.1900,82,93,278008
1.9599,0.3959,36.2200,82,93,278011
1.9795,0.4106,36.0100,82,93,278016
1.9013,0.4008,36.1600,82,93,278019
1.8768,0.4057,36.0100,82,93,278022
1.9013,0.4008,36.1900,82,93,278026
1.9306,0.3959,36.2200,82,93,278029
2.0186,0.4106,36.1000,82,93,278032
1.9501,0.3861,36.1900,82,93,278035
1.9208,0.4057,36.0700,82,93,278039
1.8524,0.3910,36.1900,82,93,278042
1.8817,0.4008,35.9500,82,93,278045
1.9453,0.4008,36.1000,82,93,278049
1.9599,0.4008,36.2200,82,93,278052
1.9697,0.4057,35.9500,82,93,278055
1.8915,0.3861,36.2200,82,93,278060
1.8817,0.3910,36.2200,82,93,278063
1.9306,0.4057,36.1900,82,93,278066
1.9892,0.3959,36.2200,82,93,278070
2.0674,0.4154,35.8700,82,93,278073
2.0088,0.4057,36.1900,82,93,278076
1.9501,0.3959,36.5800,82,93,278080
1.9404,0.4008,36.1900,82,93,278083
1.9599,0.3959,36.2500,82,93,278086
2.0772,0.4154,35.9800,82,93,278089
2.0577,0.4106,36.1000,82,93,278093
2.0283,0.3959,36.1000,82,93,278096
1.9746,0.4008,36.2200,82,93,278099
1.9795,0.4350,36.1900,82,93,278104
2.0772,0.4057,36.0400,82,93,278107
2.1163,0.4057,36.1600,82,93,278110
2.1554,0.4106,36.0700,82,93,278114
2.0919,0.4008,36.2500,82,93,278117
2.0674,0.4008,36.1900,82,93,278120
2.0626,0.4008,36.1300,82,93,278124
2.0919,0.4350,36.1900,82,93,278127
2.1799,0.4057,36.0700,82,93,278130
2.1603,0.4301,36.1900,82,93,278133
2.1310,0.3959,36.1900,82,93,278137
2.1212,0.4057,36.0100,82,93,278140
2.1114,0.4008,36.2200,82,93,278144
2.1945,0.4057,35.9500,82,93,278148
2.2287,0.4008,36.1000,82,93,278151
2.2141,0.3959,36.2500,82,93,278154
2.2043,0.4057,36.1300,82,93,278158
2.1310,0.4350,36.1900,82,93,278161
2.1701,0.4106,35.9000,82,93,278164
2.1652,0.3959,36.0700,82,93,278168
2.1848,0.3861,36.2200,82,93,278171
2.1603,0.4106,36.1600,82,93,278174
2.0821,0.3959,36.1900,82,93,278178
2.0626,0.4203,35.9500,82,93,278181
1.9941,0.4106,36.1000,82,93,278184
1.9941,0.3959,36.1000,82,93,278189
1.9892,0.4008,36.2200,82,93,278192
1.9306,0.4154,36.2200,82,93,278195
1.8719,0.4106,36.1000,82,93,278198
1.7791,0.4008,36.1300,82,93,278202
1.7693,0.4008,36.0700,82,93,278205
1.7791,0.4008,36.2200,82,93,278208
1.7937,0.3959,36.2200,82,93,278212
1.7889,0.4057,36.0400,82,93,278215
1.7009,0.4008,36.2800,82,93,278218
1.6716,0.4057,36.0400,82,93,278222
1.6569,0.3959,36.1600,82,93,278225
1.7009,0.3959,36.2800,82,93,278228
1.7498,0.4057,36.0400,82,93,278233
1.7107,0.3959,36.1000,82,93,278236
1.7253,0.3959,35.9500,82,93,278239
1.6569,0.4008,36.1000,82,93,278243
1.6911,0.4301,36.1900,82,93,278246
1.7644,0.4057,36.1600,82,93,278249
1.7791,0.4008,36.2200,82,93,278252
1.7889,0.4106,35.9200,82,93,278256
1.7009,0.3959,36.1300,82,93,278259
1.6764,0.3959,36.1900,82,93,278262
1.7204,0.3861,36.1600,82,93,278266
1.7644,0.4203,36.2200,82,93,278269
1.8328,0.4203,36.1000,82,93,278273
1.7791,0.4057,36.1000,82,93,278277
1.7302,0.3959,36.1300,82,93,278280
1.7253,0.4008,36.1900,82,93,278283
1.7644,0.3959,36.1900,82,93,278287
1.8573,0.4106,36.0100,82,93,278290
1.8475,0.4106,36.1600,82,93,278293
1.8182,0.4057,36.0400,82,93,278297
1.7400,0.4252,36.2200,82,93,278300
1.7302,0.4008,36.1900,82,93,278303
1.7889,0.4057,36.0700,82,93,278307
1.8182,0.4008,36.1900,82,93,278310
1.8622,0.4008,36.0400,82,93,278313
1.7937,0.4057,36.1600,82,93,278317
1.7498,0.3861,36.2200,82,93,278321
1.7937,0.4057,36.1000,82,93,278324
1.8084,0.3959,36.2200,82,93,278327
1.8915,0.4106,35.9500,82,93,278331
1.8622,0.3959,36.1900,82,93,278334
1.8280,0.3959,36.2200,82,93,278337
1.8084,0.4008,36.1600,82,93,278341
1.7986,0.3959,36.2500,82,93,278344
1.8817,0.4057,35.8700,82,93,278347
1.9013,0.4057,36.0700,82,93,278351
1.8719,0.4106,36.1900,82,93,278354
1.8426,0.4008,36.4000,82,93,278358
1.8035,0.3861,36.2200,82,93,278362
1.8671,0.4154,35.9800,82,93,278365
1.8964,0.4057,36.1300,82,93,278368
1.9306,0.4008,36.1900,82,93,278372
1.9159,0.4008,36.2200,82,93,278375
1.8622,0.4008,36.4300,82,93,278378
1.8622,0.4057,36.0700,82,93,278382
1.8426,0.4008,36.3400,82,93,278385
1.9062,0.4106,36.0400,82,93,278388
1.9110,0.3959,36.2200,82,93,278391
1.8866,0.4008,36.2200,82,93,278395
1.8524,0.4008,36.4300,82,93,278398
1.8524,0.3959,36.2200,82,93,278402
1.8768,0.4008,35.9500,82,93,278406
1.9062,0.4008,36.2200,82,93,278409
1.9306,0.3959,36.0700,82,93,278412
1.9208,0.4057,36.0700,82,93,278416
1.9501,0.4008,36.1600,82,93,278419
1.9110,0.3959,36.4300,82,93,278423
1.9159,0.4106,35.9500,82,93,278426
1.8719,0.4154,36.0700,82,93,278429
1.8964,0.3959,36.1300,82,93,278433
1.9404,0.4008,36.1900,82,93,278436
1.9453,0.3959,36.2200,82,93,278439
1.9501,0.4301,36.0400,82,93,278444
1.8768,0.4008,36.1900,82,93,278447
1.8671,0.4008,36.0700,82,93,278450
1.8768,0.3910,36.2200,82,93,278453
1.9208,0.3959,35.4500,82,93,278457
1.9599,0.4106,36.1300,82,93,278460
1.8866,0.4008,36.3700,82,93,278463
1.8622,0.4008,36.0700,82,93,278467
1.8377,0.4008,36.2200,82,93,278470
1.8915,0.4008,36.2200,82,93,278473
1.9844,0.4008,36.0700,82,93,278477
1.9746,0.4008,36.2200,82,93,278480
1.9648,0.4008,35.9800,82,93,278483
1.8964,0.4008,36.0700,82,93,278488
1.8817,0.3959,36.2200,82,93,278491
1.9453,0.4008,36.1000,82,93,278494
1.9550,0.3959,36.1900,82,93,278498
1.9746,0.4057,35.9500,82,93,278501
1.8768,0.3959,36.1000,82,93,278504
1.8182,0.3959,36.1900,82,93,278507
1.8182,0.4008,36.1900,82,93,278511
1.8475,0.3959,36.2200,82,93,278514
1.9355,0.4154,35.9200,82,93,278517
1.8768,0.4057,36.1000,82,93,278521
1.8182,0.3959,36.1300,82,93,278524
1.7693,0.4106,36.1600,82,93,278528
1.7791,0.3959,36.2200,82,93,278532
1.8768,0.4106,36.1000,82,93,278535
1.9013,0.4008,36.1300,82,93,278538
1.9013,0.4008,36.0400,82,93,278542
1.8328,0.4008,36.2200,82,93,278545
1.7889,0.4008,36.2200,82,93,278548
1.8377,0.4106,36.0100,82,93,278552
1.8573,0.3959,36.1900,82,93,278555
1.9110,0.4057,35.3100,82,93,278558
1.8475,0.3910,36.1300,82,93,278562
1.7937,0.3959,36.1900,82,93,278565
1.7840,0.3861,36.0700,82,93,278568
1.7889,0.4008,35.6300,82,93,278573
1.8719,0.4106,35.9500,82,93,278576
1.8866,0.4008,35.9800,82,93,278579
1.8573,0.4008,36.1900,82,93,278582
1.8182,0.4057,36.1600,82,93,278586
1.7693,0.4008,36.2200,82,93,278589
1.8377,0.4106,35.8700,82,93,278592
1.8573,0.3959,36.1000,82,93,278596
1.8768,0.3959,36.1900,82,93,278599
1.8524,0.3959,36.2200,82,93,278602
1.7986,0.4252,36.1900,82,93,278606
1.8377,0.4106,36.0400,82,93,278609
1.8475,0.4106,36.1600,82,93,278612
1.9208,0.3959,36.1000,82,93,278617
1.9648,0.4008,36.1900,82,93,278620
1.9013,0.3959,36.2200,82,93,278623
1.8817,0.4057,35.9800,82,93,278627
1.8866,0.4008,36.1900,82,93,278630
2.0235,0.4008,36.0400,82,93,278633
2.1896,0.4057,36.1900,82,93,278636
2.2874,0.3861,36.2200,82,93,278640
2.3607,0.4106,36.1000,82,93,278643
2.2483,0.4008,36.1900,82,93,278646
2.1848,0.4057,36.0700,82,93,278650
2.0479,0.3959,36.1900,82,93,278653
1.9062,0.3959,36.1900,82,93,278657
1.7498,0.4008,36.1000,82,93,278661
1.6178,0.3959,36.1900,82,93,278664
1.6178,0.3959,35.9500,82,93,278667
1.6813,0.3959,36.2500,82,93,278671
1.8231,0.3959,36.2200,82,93,278674
1.9599,0.4106,36.1600,82,93,278677
2.0039,0.3959,36.4300,82,93,278681
2.0332,0.4203,35.9000,82,93,278684
1.9599,0.4057,36.1300,82,93,278687
1.9306,0.4008,36.2800,82,93,278690
1.9697,0.4008,36.1300,82,93,278694
1.9892,0.4203,36.1900,82,93,278697
2.0283,0.4154,35.9800,82,93,278701
1.9746,0.4106,36.1000,82,93,278705
1.8768,0.3959,36.1300,82,93,278708
1.8866,0.3910,36.2200,82,93,278711
1.9355,0.3959,36.2500,82,93,278715
2.0039,0.4106,36.0400,82,93,278718
1.9746,0.3861,36.1900,82,93,278721
1.9404,0.4301,36.0400,82,93,278725
1.8915,0.3861,36.2200,82,93,278728
1.9062,0.4008,36.1900,82,93,278731
1.9648,0.3959,36.1300,82,93,278735
1.9795,0.4008,36.1900,82,93,278738
1.9844,0.4057,36.0700,82,93,278742
1.9013,0.3959,36.1900,82,93,278746
1.8768,0.3959,36.2200,82,93,278749
1.9257,0.4106,36.1000,82,93,278752
1.9648,0.3959,36.1900,82,93,278755
2.0283,0.4057,35.9500,82,93,278759
1.9746,0.4008,36.0700,82,93,278762
1.9013,0.4008,36.1900,82,93,278765
1.8964,0.4057,36.1300,82,93,278769
1.9355,0.4008,36.2200,82,93,278772
1.9892,0.4106,35.9200,82,93,278775
1.9795,0.4008,36.0700,82,93,278779
1.9501,0.3959,36.2800,82,93,278782
1.9110,0.3959,36.1900,82,93,278786
1.8915,0.3959,36.2200,82,93,278790
1.9844,0.4252,35.9800,82,93,278793
1.9990,0.4057,36.1300,82,93,278796
2.0088,0.3959,36.1000,82,93,278800
1.9746,0.3959,36.2200,82,93,278803
1.9453,0.4008,36.2200,82,93,278806
1.9648,0.4057,36.1300,82,93,278810
1.9990,0.3861,36.1900,82,93,278813
2.0772,0.4008,36.0100,82,93,278816
2.0772,0.4008,36.1900,82,93,278819
2.0528,0.3959,36.2200,82,93,278823
2.0430,0.4203,36.0700,82,93,278827
2.0186,0.4008,36.1900,82,93,278830
2.0919,0.4008,36.0400,82,93,278834
2.1212,0.4008,36.1300,82,93,278837
2.1457,0.3861,36.2200,82,93,278840
2.1457,0.4106,35.9800,82,93,278844
2.0919,0.3959,36.1300,82,93,278847
2.1701,0.4057,35.9500,82,93,278850
2.1652,0.4008,36.0700,82,93,278854
2.2141,0.4008,36.1900,82,93,278857
2.2385,0.4057,36.1600,82,93,278860
2.1799,0.4203,36.1600,82,93,278863
2.2092,0.4106,35.9000,82,93,278867
2.1701,0.4106,36.1000,82,93,278871
2.2239,0.3959,36.2200,82,93,278874
2.2678,0.4057,36.1900,82,93,278878
2.2678,0.3959,36.1900,82,93,278881
2.2776,0.4203,35.9500,82,93,278884
2.1848,0.4106,36.1600,82,93,278888
2.1750,0.3959,36.1300,82,93,278891
2.2043,0.4008,36.1900,82,93,278894
2.2092,0.4106,36.1900,82,93,278898
2.2385,0.4057,35.9800,82,93,278901
2.1017,0.4154,36.1600,82,93,278904
2.0381,0.4106,36.0400,82,93,278908
1.9892,0.4008,36.2500,82,93,278912
1.9941,0.4057,36.1900,82,93,278915
2.0088,0.4057,36.1000,82,93,278918
1.9306,0.4008,36.0700,82,93,278922
1.8671,0.4106,36.0700,82,93,278925
1.7742,0.3959,36.1600,82,93,278928
1.7693,0.3959,36.2200,82,93,278932
1.8035,0.3910,36.1000,82,93,278935
1.8035,0.4008,36.2200,82,93,278938
1.7840,0.4008,35.9200,82,93,278942
1.6960,0.3959,36.2200,82,93,278945
1.6667,0.4008,36.1900,82,93,278948
1.7009,0.4106,36.1300,82,93,278952
1.7400,0.4008,36.1900,82,93,278956
1.8328,0.4106,35.9000,82,93,278959
1.7546,0.4008,36.1300,82,93,278963
1.6862,0.4008,36.2200,82,93,278966
1.6764,0.4008,36.1900,82,93,278969
1.6960,0.4008,36.1900,82,93,278972
1.8035,0.4154,35.9800,82,93,278976
1.8182,0.4154,36.0700,82,93,278979
1.7595,0.3959,36.1300,82,93,278982
1.7009,0.4057,36.1600,82,93,278986
1.6960,0.3959,36.2200,82,93,278989
1.7693,0.4057,36.0100,82,93,278992
1.7937,0.4008,36.1900,82,93,278996
1.8231,0.4057,36.0700,82,93,279000
1.7693,0.3959,36.2200,82,93,279003
1.7253,0.3959,36.2200,82,93,279007
1.7302,0.4057,36.1300,82,93,279010
1.7693,0.3861,36.1900,82,93,279013
1.8426,0.4154,36.0700,82,93,279017
1.8280,0.3959,36.2200,82,93,279020
1.8231,0.4008,36.1900,82,93,279023
1.7693,0.4057,36.1900,82,93,279027
1.8084,0.4008,36.1600,82,93,279030
1.7840,0.4008,36.2200,82,93,279034
1.8280,0.4154,36.3100,82,93,279037
1.8622,0.4008,36.0100,82,93,279041
1.8964,0.3910,36.1300,82,93,279044
1.9062,0.3959,36.1900,82,93,279048
1.8426,0.3959,36.3100,82,93,279051
1.8426,0.4106,36.0100,82,93,279054
1.8231,0.4008,36.1600,82,93,279058
1.8866,0.4008,36.0700,82,93,279061
1.9013,0.4008,36.4300,82,93,279064
1.8817,0.3910,36.2200,82,93,279068
1.8524,0.4057,36.0700,82,93,279071
1.7937,0.4008,36.1900,82,93,279074
1.8182,0.4057,36.0400,82,93,279078
1.8377,0.3959,36.2200,82,93,279081
1.8768,0.3959,36.2500,82,93,279085
1.9159,0.4106,36.0400,82,93,279089
1.8133,0.4008,36.1900,82,93,279092
1.8035,0.4008,36.0100,82,93,279095
1.8084,0.4008,36.1300,82,93,279099
1.8622,0.3910,36.2200,82,93,279102
1.9159,0.4106,36.0700,82,93,279105
1.8817,0.4008,36.2200,82,93,279108
1.8719,0.4057,35.9200,82,93,279112
1.8182,0.3861,36.1300,82,93,279115
1.8426,0.4057,36.2200,82,93,279118
1.9062,0.3861,36.1900,82,93,279122
1.9159,0.4057,36.1900,82,93,279126
1.9355,0.4154,35.9200,82,93,279129
1.8573,0.3959,36.1000,82,93,279133
1.8182,0.3959,36.1600,82,93,279136
1.8866,0.4008,36.1900,82,93,279139
1.9062,0.3959,36.0700,82,93,279143
1.9550,0.4057,36.0400,82,93,279146
1.8915,0.4008,36.1300,82,93,279149
1.8475,0.4008,36.0400,82,93,279153
1.8133,0.4008,36.2200,82,93,279156
1.8475,0.3910,36.2200,82,93,279159
1.9306,0.4057,36.0100,82,93,279163
1.9159,0.4008,36.1600,82,93,279166
1.8964,0.4057,36.0700,82,93,279170
1.8182,0.3910,36.1600,82,93,279173
1.8133,0.3959,36.2200,82,93,279177
1.8768,0.4057,36.0400,82,93,279180
1.9062,0.3959,36.1900,82,93,279183
1.9453,0.4008,36.0100,82,93,279187
1.8768,0.3959,36.2200,82,93,279190
1.8328,0.4008,36.1900,82,93,279193
1.8475,0.4057,36.1300,82,93,279197
1.9159,0.3959,36.1900,82,93,279200
1.9844,0.4106,35.9500,82,93,279203
1.9550,0.3959,36.1300,82,93,279207
1.9208,0.4154,36.1900,82,93,279211
1.8817,0.4008,36.1900,82,93,279214
1.8817,0.4057,36.2200,82,93,279218
1.9746,0.4203,36.0400,82,93,279221
1.9648,0.4057,36.1300,82,93,279224
1.9355,0.3959,36.1000,82,93,279228
1.8915,0.4008,36.1600,82,93,279231
1.8328,0.3959,36.3400,82,93,279234
1.8671,0.4106,36.0100,82,93,279237
1.8866,0.4252,36.1600,82,93,279241
1.9159,0.4008,36.0400,82,93,279244
1.8671,0.4008,36.1900,82,93,279247
1.8280,0.4008,36.2200,82,93,279251
1.7986,0.4057,36.1000,82,93,279255
1.8035,0.3959,36.1900,82,93,279258
1.8915,0.4057,36.1300,82,93,279262
1.9110,0.3959,36.1900,82,93,279265
1.8915,0.4057,36.0700,82,93,279268
1.8622,0.4057,36.1000,82,93,279272
1.8133,0.4008,35.4800,82,93,279275
1.8573,0.4057,35.9500,82,93,279278
1.8768,0.3959,36.1900,82,93,279282
1.9013,0.4008,36.1900,82,93,279285
1.8915,0.4057,36.1300,82,93,279288
1.8280,0.4008,36.2200,82,93,279292
1.8524,0.4106,35.1300,82,93,279296
1.8573,0.3959,36.1000,82,93,279299
1.8915,0.3959,36.2200,82,93,279302
1.9208,0.4008,36.1600,82,93,279306
1.8768,0.3959,36.1900,82,93,279309
1.8768,0.4203,35.9800,82,93,279312
1.8280,0.4057,36.1000,82,93,279316
1.8622,0.3959,36.1000,82,93,279319
1.9110,0.3959,36.2200,82,93,279322
1.9550,0.3959,36.2200,82,93,279326
1.9306,0.4106,35.5400,82,93,279329
1.8573,0.4008,36.1900,82,93,279332
1.8768,0.4057,36.1300,82,93,279336
1.9257,0.3910,36.2200,82,93,279340
1.9892,0.3959,36.1900,82,93,279343
2.0137,0.4008,36.1300,82,93,279347
1.9599,0.3959,36.1300,82,93,279350
1.9697,0.4057,36.0700,82,93,279353
2.0039,0.3959,36.2200,82,93,279357
2.1457,0.3959,36.2200,82,93,279360
2.2874,0.3959,36.1000,82,93,279363
2.2825,0.3959,36.1900,82,93,279366
2.2287,0.4106,35.9500,82,93,279370
2.0577,0.4008,36.1000,82,93,279373
1.8719,0.3959,36.3100,82,93,279376
1.7351,0.4057,36.1600,82,93,279380
1.6031,0.4008,36.2200,82,93,279384
1.6178,0.4106,35.9000,82,93,279387
1.6520,0.4008,36.0400,82,93,279391
1.6813,0.3959,36.2500,82,93,279394
1.7937,0.4057,36.1600,82,93,279397
1.9159,0.3959,36.2200,82,93,279401
2.0577,0.4448,35.9800,82,93,279404
2.0430,0.4008,36.1300,82,93,279407
1.9892,0.4008,36.0700,82,93,279411
1.9501,0.3959,36.2200,82,93,279414
1.9550,0.4008,36.1900,82,93,279417
2.0430,0.4106,36.1000,82,93,279420
2.0479,0.4008,36.1900,82,93,279425
2.0479,0.4008,36.0100,82,93,279428
1.9844,0.3959,36.1900,82,93,279431
1.9453,0.3959,36.2500,82,93,279435
1.9941,0.4057,36.0400,82,93,279438
2.0235,0.3959,36.1900,82,93,279441
2.0626,0.4057,36.0700,82,93,279445
2.0088,0.4203,36.1300,82,93,279448
1.9892,0.4008,36.2200,82,93,279451
1.9453,0.4057,36.0100,82,93,279455
1.9453,0.4008,36.1900,82,93,279458
2.0283,0.4154,35.9500,82,93,279461
2.0283,0.4008,36.1300,82,93,279465
1.9892,0.3959,36.3700,82,93,279469
1.9453,0.4057,36.1300,82,93,279472
1.8964,0.4008,36.1900,82,93,279475
1.9648,0.4106,35.9000,82,93,279479
1.9697,0.4008,36.1000,82,93,279482
1.9795,0.3959,36.2200,82,93,279485
1.9599,0.4008,36.1900,82,93,279489
1.9110,0.3959,36.1900,82,93,279492
1.9453,0.4154,35.9500,82,93,279495
1.9404,0.4057,36.1600,82,93,279499
1.9844,0.3959,36.1600,82,93,279502
1.9990,0.4008,36.0700,82,93,279505
1.9599,0.3910,36.2200,82,93,279510
1.9550,0.3861,35.9800,82,93,279513
1.9208,0.3959,36.1600,82,93,279516
1.9697,0.4008,36.0400,82,93,279520
2.0039,0.3959,36.1900,82,93,279523
2.0235,0.3959,36.2200,82,93,279526
1.9990,0.4106,36.1000,82,93,279529
1.9404,0.3959,36.1900,82,93,279533
1.9501,0.4057,36.0400,82,93,279536
1.9697,0.3959,36.1900,82,93,279539
2.0332,0.3861,36.2200,82,93,279543
2.0626,0.4008,36.1000,82,93,279546
2.0088,0.3959,36.2200,82,93,279549
2.0088,0.4057,35.9800,82,93,279554
1.9795,0.4008,36.2200,82,93,279557
2.0332,0.3959,36.2200,82,93,279560
2.1065,0.4057,36.1600,82,93,279564
2.1065,0.3959,36.2200,82,93,279567
2.1359,0.4106,35.9000,82,93,279570
2.0626,0.4057,36.0700,82,93,279574
2.0528,0.3910,36.1900,82,93,279577
2.1261,0.4008,35.9800,82,93,279580
2.1701,0.4057,36.2200,82,93,279583
2.2385,0.4203,35.9500,82,93,279587
2.1603,0.4106,36.0700,82,93,279590
2.1163,0.3959,36.1000,82,93,279593
2.1261,0.4057,36.1900,82,93,279598
2.1750,0.4008,36.2200,82,93,279601
2.2581,0.4057,36.0100,82,93,279604
2.2190,0.4008,36.1600,82,93,279608
2.1799,0.4008,36.0700,82,93,279611
2.1114,0.3959,36.1900,82,93,279614
2.1065,0.3959,36.2200,82,93,279618
2.1603,0.4057,36.1300,82,93,279621
2.1457,0.4008,36.3400,82,93,279624
2.1261,0.4008,36.1000,82,93,279627
2.0088,0.3959,36.1900,82,93,279631
1.9355,0.4008,36.1900,82,93,279634
1.9453,0.4057,36.1600,82,93,279638
1.7351,0.4057,36.1600,82,93,279642
1.7302,0.3959,36.2200,82,93,279645
1.8084,0.4106,35.8400,82,93,279649
1.7986,0.4057,36.0700,82,93,279652
1.7498,0.3959,36.1600,82,93,279655
1.6960,0.3861,36.1900,82,93,279659
1.6667,0.3959,36.1900,82,93,279662
1.7351,0.4154,36.0100,82,93,279665
1.7498,0.4057,36.1600,82,93,279669
1.7693,0.4008,36.0400,82,93,279672
1.7302,0.3959,36.1900,82,93,279675
1.6764,0.3959,36.1900,82,93,279680
1.6862,0.4057,36.1600,82,93,279683
1.7107,0.4008,36.1600,82,93,279686
1.7889,0.4057,36.0400,82,93,279690
1.7791,0.4301,36.1600,82,93,279693
1.7449,0.3959,36.2200,82,93,279696
1.7302,0.4448,36.1000,82,93,279700
1.7155,0.3959,36.2500,82,93,279703
1.7889,0.3959,35.9800,82,93,279706
1.8231,0.3959,36.0700,82,93,279710
1.8377,0.3959,36.2200,82,93,279713
1.8280,0.4057,36.0700,82,93,279716
1.7791,0.3861,36.1900,82,93,279719
1.8524,0.4106,35.9000,82,93,279724
1.9110,0.4008,36.1300,82,93,279727
1.9648,0.4057,36.2200,82,93,279730
1.9746,0.4008,36.1900,82,93,279734
1.9110,0.3910,36.1900,82,93,279737
1.9062,0.4203,35.9200,82,93,279740
1.8622,0.4057,36.1300,82,93,279744
1.8817,0.4008,36.2200,82,93,279747
1.9257,0.4008,36.1900,82,93,279750
1.8915,0.3959,36.1900,82,93,279754
1.8768,0.4106,36.0700,82,93,279757
1.7986,0.4008,36.1600,82,93,279760
1.8035,0.4008,36.0400,82,93,279764
1.8328,0.3959,36.1900,82,93,279768
1.8622,0.4057,36.1900,82,93,279771
1.8768,0.4057,36.0400,82,93,279775
1.8084,0.4106,36.1900,82,93,279778
1.7937,0.4057,36.0100,82,93,279781
1.8133,0.3910,36.1600,82,93,279784
1.8377,0.4008,36.2800,82,93,279788
1.9257,0.3959,36.0400,82,93,279791
1.8573,0.3959,36.1900,82,93,279794
1.8328,0.3959,35.9500,82,93,279798
1.7937,0.3959,36.1000,82,93,279801
1.8182,0.4057,36.2200,82,93,279804
1.8866,0.4008,35.9800,82,93,279809
1.9013,0.3910,36.2200,82,93,279812
1.9159,0.4057,35.9200,82,93,279815
1.8280,0.4008,36.1300,82,93,279819
1.7986,0.3959,36.3100,82,93,279822
1.8328,0.4057,36.1600,82,93,279825
1.8866,0.4252,36.1900,82,93,279829
1.9697,0.4154,35.9800,82,93,279832
1.9208,0.4008,36.1300,82,93,279835
1.8768,0.3959,36.1300,82,93,279839
1.8671,0.4008,36.1900,82,93,279842
1.9062,0.3959,36.1900,82,93,279845
2.0137,0.4106,36.0100,82,93,279848
2.0821,0.4008,36.0700,82,93,279853
2.1505,0.4057,36.0100,82,93,279856
2.1603,0.3959,36.2200,82,93,279859
2.1408,0.3959,36.1900,82,93,279863
2.1554,0.4106,36.0700,82,93,279866
2.0626,0.4008,36.4300,82,93,279869
1.9257,0.4057,36.0700,82,93,279873
1.6716,0.3959,36.2200,82,93,279876
1.4712,0.4008,36.2200,82,93,279879
1.4370,0.4008,36.1000,82,93,279883
1.5494,0.3959,36.1900,82,93,279886
1.7595,0.4008,35.9500,82,93,279889
1.8671,0.4008,36.1900,82,93,279892
1.9257,0.3959,36.1900,82,93,279897
1.9501,0.4057,36.1300,82,93,279900
1.9550,0.3959,36.2200,82,93,279903
2.0479,0.4106,35.9000,82,93,279907
2.0674,0.4008,36.1000,82,93,279910
2.0430,0.3959,36.2200,82,93,279913
1.9990,0.4008,36.1600,82,93,279917
1.9404,0.3959,36.2500,82,93,279920
1.9941,0.4203,35.9500,82,93,279923
2.0088,0.4057,36.0700,82,93,279927
2.0283,0.4008,36.1300,82,93,279930
2.0186,0.3959,36.2200,82,93,279933
1.9599,0.4008,36.1900,82,93,279938
1.9550,0.4106,36.0400,82,93,279941
1.9453,0.4008,36.1300,82,93,279944
2.0332,0.4008,36.0700,82,93,279947
2.0283,0.4008,36.2200,82,93,279951
2.0088,0.4008,36.1900,82,93,279954
1.9892,0.4057,36.1300,82,93,279957
1.9257,0.4008,36.3100,82,93,279961
1.9501,0.3959,36.0400,82,93,279964
1.9844,0.3959,36.2200,82,93,279967
2.0186,0.3959,36.2200,82,93,279971
2.0235,0.4106,36.0700,82,93,279974
1.9453,0.4008,36.2500,82,93,279977
1.9306,0.3959,35.9800,82,93,279982
1.9306,0.4008,35.8700,82,93,279985
1.9746,0.3959,36.1900,82,93,279988
2.0283,0.4057,36.1000,82,93,279992
1.9844,0.4057,36.1900,82,93,279995
1.9697,0.4057,35.9000,82,93,279998
1.9257,0.4008,36.1000,82,93,280001
1.9501,0.3959,36.2200,82,93,280005
2.0235,0.4008,36.1600,82,93,280008
2.0479,0.3959,36.1900,82,93,280011
2.0919,0.4154,35.9000,82,93,280015
1.9990,0.3959,36.1000,82,93,280018
1.9844,0.3861,36.1600,82,93,280022
2.0235,0.3910,36.1900,82,93,280026
2.0772,0.3959,36.2200,82,93,280029
2.1554,0.4154,36.0400,82,93,280032
2.0870,0.4008,36.1600,82,93,280036
2.0430,0.4008,36.0400,82,93,280039
2.0332,0.4008,36.2200,82,93,280042
2.0821,0.3959,36.2200,82,93,280045
2.1896,0.4057,35.8700,82,93,280049
2.1945,0.4008,36.1900,82,93,280052
2.1848,0.4154,36.0400,82,93,280055
2.1163,0.3959,36.2200,82,93,280059
2.1212,0.3959,36.1900,82,93,280062
2.1994,0.4008,36.0400,82,93,280066
2.2336,0.3959,36.3100,82,93,280070
2.2776,0.4008,36.0100,82,93,280073
2.2190,0.4008,36.1600,82,93,280076
2.1848,0.3959,36.1900,82,93,280080
2.2043,0.4057,36.1000,82,93,280083
2.2336,0.4106,36.1900,82,93,280086
2.3314,0.4106,35.9200,82,93,280089
2.2874,0.3910,36.1900,82,93,280093
2.2434,0.3959,36.2200,82,93,280096
2.2043,0.4057,36.1600,82,93,280099
2.1750,0.3959,36.2200,82,93,280103
2.2581,0.4057,35.8700,82,93,280107
2.2385,0.4008,36.1600,82,93,280110
2.1799,0.4008,36.1900,82,93,280114
2.1065,0.4008,36.1900,82,93,280117
2.0186,0.4008,36.1900,82,93,280120
2.0332,0.4106,35.9800,82,93,280124
2.0039,0.4057,36.1600,82,93,280127
1.9844,0.4008,36.0700,82,93,280130
1.9355,0.4008,36.2200,82,93,280134
1.8475,0.3959,36.2800,82,93,280137
1.8035,0.4106,36.0700,82,93,280140
1.7693,0.4008,35.8100,82,93,280143
1.8084,0.4008,36.0400,82,93,280147
1.8133,0.4008,36.1900,82,93,280151
1.7840,0.4008,36.1900,82,93,280154
1.7400,0.4008,36.1300,82,93,280158
1.6911,0.4154,36.1900,82,93,280161
1.7204,0.4106,36.0400,82,93,280164
1.7449,0.3959,36.1900,82,93,280168
1.7693,0.3959,36.1900,82,93,280171
1.7644,0.4106,36.0700,82,93,280174
1.6960,0.3959,36.1900,82,93,280178
1.7058,0.4057,35.9200,82,93,280181
1.7155,0.4008,36.0700,82,93,280184
1.7595,0.3959,36.1900,82,93,280188
1.8231,0.4203,36.1300,82,93,280192
1.7791,0.3959,36.1600,82,93,280195
1.7791,0.4106,35.8700,82,93,280199
1.7302,0.4008,35.9500,82,93,280202
1.7546,0.4008,36.1900,82,93,280205
1.8231,0.3861,36.1900,82,93,280208
1.8426,0.3959,36.1900,82,93,280212
1.8671,0.4154,36.1000,82,93,280215
1.8035,0.4057,36.1300,82,93,280218
1.7693,0.4008,36.0700,82,93,280222
1.8035,0.4008,36.1900,82,93,280225
1.8573,0.3959,36.2200,82,93,280228
1.9013,0.4106,36.1000,82,93,280232
1.8524,0.4008,36.1900,82,93,280236
1.8231,0.4057,36.0400,82,93,280239
1.7937,0.4008,36.2500,82,93,280243
1.8280,0.3959,36.2200,82,93,280246
1.9062,0.4057,36.2800,82,93,280249
1.8817,0.4350,36.1000,82,93,280253
1.9159,0.3959,36.2200,82,93,280256
1.9746,0.4106,35.9000,82,93,280260
1.9062,0.4008,36.1000,82,93,280263
1.8573,0.3959,36.1900,82,93,280266
1.8622,0.3861,36.1600,82,93,280270
1.8964,0.4008,36.2200,82,93,280273
1.9941,0.4203,35.9500,82,93,280276
1.9453,0.4057,36.1300,82,93,280281
1.8866,0.3959,36.1000,82,93,280284
1.8475,0.4008,36.2200,82,93,280287
1.8524,0.4008,36.1900,82,93,280290
1.9306,0.3861,36.0700,82,93,280294
1.9453,0.4008,36.3700,82,93,280297
1.9501,0.4057,36.0400,82,93,280300
1.8719,0.4008,36.1900,82,93,280304
1.8328,0.4008,36.2200,82,93,280307
1.8768,0.4106,36.0400,82,93,280310
1.9208,0.4008,36.1900,82,93,280314
1.9501,0.4057,36.1900,82,93,280317
1.8964,0.3910,36.1600,82,93,280321
1.8426,0.3959,36.1900,82,93,280325
1.8280,0.4057,36.0400,82,93,280328
1.8231,0.3959,36.1300,82,93,280331
1.9013,0.4057,35.9500,82,93,280335
1.9062,0.4008,36.1300,82,93,280338
1.8817,0.3959,36.1900,82,93,280341
1.8377,0.4057,36.1900,82,93,280344
1.7889,0.3959,36.2200,82,93,280348
1.8573,0.4106,35.9000,82,93,280351
1.8719,0.3959,36.1300,82,93,280354
1.8866,0.3959,36.1900,82,93,280358
1.8622,0.4008,36.1900,82,93,280361
1.7986,0.3959,36.1900,82,93,280365
1.8377,0.3861,35.9500,82,93,280369
1.8280,0.4057,36.1600,82,93,280372
1.8964,0.3959,36.1000,82,93,280375
1.8866,0.4008,36.2200,82,93,280379
1.8524,0.3959,36.2200,82,93,280382
1.8328,0.4203,36.0100,82,93,280385
1.7986,0.4008,36.1300,82,93,280389
1.8377,0.4154,36.0400,82,93,280392
1.8671,0.3959,36.2200,82,93,280395
1.8671,0.3910,36.1900,82,93,280399
1.8377,0.4057,36.0700,82,93,280402
1.7595,0.4057,36.2200,82,93,280406
1.7742,0.4008,36.1900,82,93,280409
1.7840,0.3910,36.1600,82,93,280413
1.8377,0.3959,36.2200,82,93,280416
1.8475,0.4008,36.0700,82,93,280419
1.7840,0.3959,36.1900,82,93,280423
1.7595,0.4057,35.9500,82,93,280426
1.7253,0.3959,36.2200,82,93,280429
1.7644,0.3959,36.2200,82,93,280433
1.8084,0.4057,36.1300,82,93,280436
1.7889,0.3959,36.2200,82,93,280439
1.7791,0.4399,35.8700,82,93,280443
1.7058,0.4057,36.1000,82,93,280446
1.6911,0.3861,36.1900,82,93,280450
1.7449,0.4008,36.2500,82,93,280454
1.7889,0.4008,36.2200,82,93,280457
1.8280,0.3861,36.0100,82,93,280460
1.7840,0.4057,36.1300,82,93,280464
1.7107,0.4008,36.1000,82,93,280467
1.7107,0.4008,36.2200,82,93,280470
1.7644,0.3861,36.2200,82,93,280473
1.8377,0.4057,36.0400,82,93,280477
1.7889,0.4008,36.1900,82,93,280480
1.7498,0.4008,36.2500,82,93,280483
1.6862,0.4008,36.2200,82,93,280487
1.7009,0.3959,36.2200,82,93,280491
1.7595,0.4008,36.1000,82,93,280494
1.7840,0.3959,36.1900,82,93,280498
1.7889,0.4008,36.0100,82,93,280501
1.7058,0.4252,36.1900,82,93,280504
1.6764,0.4008,36.2200,82,93,280508
1.7107,0.4057,36.1000,82,93,280511
1.7351,0.3959,36.1900,82,93,280514
1.8035,0.4252,35.9200,82,93,280518
1.7693,0.4057,36.0100,82,93,280521
1.7107,0.3910,36.1900,82,93,280524
1.7107,0.4057,35.9500,82,93,280528
1.7302,0.4008,36.2200,82,93,280531
1.8377,0.4106,35.8700,82,93,280535
1.8377,0.3861,36.0400,82,93,280538
1.8035,0.3959,36.3100,82,93,280542
1.7693,0.4008,36.1600,82,93,280545
1.7546,0.4008,36.2200,82,93,280548
1.8377,0.4203,36.0100,82,93,280552
1.8573,0.4057,36.1900,82,93,280555
1.8573,0.3959,36.1000,82,93,280558
1.8035,0.4008,36.4000,82,93,280562
1.7400,0.4008,36.2200,82,93,280565
1.7498,0.4057,36.1300,82,93,280568
1.7546,0.4008,36.1900,82,93,280572
1.8035,0.4008,36.0400,82,93,280576
1.7840,0.4008,36.1900,82,93,280579
1.7351,0.4008,36.2200,82,93,280583
1.6960,0.4057,36.0400,82,93,280586
1.6471,0.3861,36.2200,82,93,280589
1.7058,0.4154,36.0100,82,93,280592
1.7204,0.3959,36.1300,82,93,280596
1.7155,0.4057,36.2200,82,93,280599
1.6862,0.4057,35.9800,82,93,280602
1.6129,0.4008,36.1900,82,93,280606
1.6276,0.4106,35.9200,82,93,280609
1.6520,0.4106,36.1300,82,93,280612
1.6862,0.3861,36.1900,82,93,280616
1.6960,0.4106,36.1600,82,93,280620
1.6422,0.3959,36.2500,82,93,280623
1.6422,0.4497,35.8700,82,93,280627
1.6129,0.4008,36.1000,82,93,280630
1.6569,0.3959,36.1600,82,93,280633
1.6960,0.4008,36.0100,82,93,280637
1.6862,0.3910,36.1900,82,93,280640
1.6764,0.4154,35.2800,82,93,280643
1.6031,0.3959,36.1600,82,93,280647
1.6129,0.4008,36.0700,82,93,280650
1.6569,0.4008,36.1900,82,93,280653
1.6960,0.3959,36.2200,82,93,280656
1.7107,0.4154,36.0100,82,93,280660
1.6373,0.4008,36.1900,82,93,280664
1.6471,0.4057,36.0400,82,93,280667
1.6422,0.4008,36.2200,82,93,280671
1.6862,0.3959,36.2200,82,93,280674
1.7155,0.4008,36.0400,82,93,280677
1.6960,0.3959,36.2200,82,93,280681
1.7155,0.4008,36.0100,82,93,280684
1.7498,0.3959,36.1300,82,93,280687
1.8719,0.4008,36.1900,82,93,280691
2.0137,0.4057,36.1300,82,93,280694
1.9697,0.3959,36.4300,82,93,280697
1.8866,0.4057,35.9200,82,93,280701
1.6618,0.3910,36.4000,82,93,280705
1.4809,0.3910,36.2200,82,93,280708
1.3245,0.4008,36.1900,82,93,280711
1.3050,0.4008,36.2200,82,93,280715
1.4174,0.4106,35.9000,82,93,280718
1.4663,0.3959,36.1600,82,93,280721
1.5152,0.3959,36.1600,82,93,280725
1.5836,0.4008,36.1900,82,93,280728
1.6569,0.3959,36.2200,82,93,280731
1.7937,0.4106,35.9800,82,93,280735
1.7840,0.4057,36.1300,82,93,280738
1.7693,0.4008,36.0700,82,93,280741
1.6862,0.4008,36.1300,82,93,280745
1.6569,0.4008,36.2200,82,93,280749
1.7155,0.4057,36.0700,82,93,280752
1.7449,0.4008,36.1600,82,93,280756
1.7791,0.4057,36.0400,82,93,280759
1.7204,0.3959,36.2200,82,93,280762
1.6813,0.3959,36.1900,82,93,280766
1.6813,0.3959,36.1000,82,93,280769
1.7155,0.4008,36.3100,82,93,280772
1.7840,0.4008,36.0100,82,93,280775
1.7644,0.3959,36.1900,82,93,280779
1.7351,0.3910,36.2200,82,93,280782
1.6960,0.4057,36.1300,82,93,280785
1.6813,0.4008,36.1900,82,93,280790
1.7449,0.4106,35.9500,82,93,280793
1.7595,0.3959,36.1300,82,93,280796
1.7400,0.3959,36.3100,82,93,280800
1.7009,0.4008,36.1600,82,93,280803
1.6520,0.3959,36.2200,82,93,280806
1.7009,0.4252,35.9000,82,93,280810
1.7155,0.4008,35.7500,82,93,280813
1.7449,0.3910,36.1600,82,93,280816
1.7449,0.4008,36.3100,82,93,280820
1.7009,0.4008,36.1900,82,93,280823
1.7107,0.4154,36.0100,82,93,280826
1.6960,0.3959,36.1300,82,93,280829
1.7595,0.4008,36.0700,82,93,280834
1.7986,0.3959,36.1000,82,93,280837
1.7986,0.3959,36.2200,82,93,280840
1.7742,0.4399,36.1600,82,93,280844
1.7253,0.3861,36.1900,82,93,280847
1.7693,0.4008,36.0700,82,93,280850
1.8084,0.4008,36.2200,82,93,280854
1.8475,0.3910,36.1900,82,93,280857
1.8622,0.4057,36.1000,82,93,280860
1.9062,0.4154,36.1300,82,93,280865
1.8622,0.3959,36.1900,82,93,280868
1.8915,0.4106,35.8700,82,93,280872
1.8573,0.4008,35.7500,82,93,280876
1.8915,0.3812,36.1900,82,93,280879
1.9599,0.4008,36.2200,82,93,280883
1.9844,0.4057,36.2200,82,93,280886
2.0235,0.4154,36.1900,82,93,280889
1.9599,0.4057,36.1300,82,93,280893
1.9355,0.4008,36.1300,82,93,280896
1.9746,0.3959,36.2200,82,93,280899
2.0235,0.4106,36.2200,82,93,280903
2.0626,0.4057,36.1600,82,93,280906
2.0088,0.4057,36.1900,82,93,280909
1.9844,0.3959,35.9800,82,93,280912
1.9453,0.4008,36.1900,82,93,280916
1.9941,0.3959,36.2200,82,93,280920
2.0821,0.4106,36.0700,82,93,280923
2.0626,0.4008,36.2500,82,93,280927
2.0381,0.4008,36.0100,82,93,280930
1.9648,0.3959,36.1000,82,93,280933
1.9501,0.3959,36.2200,82,93,280937
1.9941,0.4057,36.0700,82,93,280940
1.9844,0.4008,35.4200,82,93,280943
1.9892,0.4154,35.9200,82,93,280947
1.8866,0.4057,36.1300,82,93,280950
1.8035,0.3959,36.2200,82,93,280953
1.7693,0.3959,36.1900,82,93,280957
1.7693,0.3959,36.2200,82,93,280961
1.8084,0.4106,35.8700,82,93,280964
1.7253,0.4008,35.4500,82,93,280968
1.6373,0.4008,36.1600,82,93,280971
1.5738,0.4008,36.1900,82,93,280974
1.5445,0.4008,36.2200,82,93,280977
1.6031,0.4154,36.0400,82,93,280981
1.5982,0.4057,36.1600,82,93,280984
1.5787,0.4008,36.0700,82,93,280987
1.5249,0.4008,36.2200,82,93,280991
1.4956,0.3959,36.2200,82,93,280994
1.5347,0.4154,36.0100,82,93,280997
1.5591,0.4399,36.1900,82,93,281001
1.6276,0.4057,36.0400,82,93,281005
1.5787,0.4008,36.4600,82,93,281008
1.5347,0.4008,36.2200,82,93,281012
1.5200,0.4008,35.9800,82,93,281015
1.5249,0.4008,36.1600,82,93,281018
1.6080,0.3861,36.0100,82,93,281022
1.6276,0.3959,36.3700,82,93,281025
1.6227,0.3959,36.2200,82,93,281028
1.5982,0.4154,36.1000,82,93,281032
1.5640,0.3861,36.1900,82,93,281035
1.5982,0.4057,35.9000,82,93,281038
1.6227,0.3959,36.1600,82,93,281041
1.6471,0.3910,36.1900,82,93,281046
1.6373,0.4057,36.2200,82,93,281049
1.5836,0.4008,36.2200,82,93,281052
1.6031,0.4203,35.9000,82,93,281056
1.6129,0.4057,36.0700,82,93,281059
1.6569,0.3959,36.0700,82,93,281062
1.6813,0.3861,36.2200,82,93,281066
1.6569,0.3910,36.2200,82,93,281069
1.6569,0.4106,36.0100,82,93,281072
1.6667,0.3959,36.1300,82,93,281076
1.6764,0.4008,35.3900,82,93,281079
1.7302,0.4008,36.1900,82,93,281082
1.7449,0.3959,36.2200,82,93,281086
1.7400,0.4057,36.0700,82,93,281090
1.6813,0.4008,36.1900,82,93,281093
1.6960,0.4301,36.0700,82,93,281097
1.7107,0.4008,36.2500,82,93,281100
1.7546,0.3959,36.1900,82,93,281103
1.7791,0.4008,36.1000,82,93,281106
1.7400,0.4008,36.1900,82,93,281110
1.7058,0.4106,35.9800,82,93,281113
1.6716,0.3959,36.2500,82,93,281116
1.7449,0.3959,36.1900,82,93,281120
1.7791,0.4399,36.1000,82,93,281123
1.7546,0.3959,36.2200,82,93,281126
1.7644,0.4106,35.9000,82,93,281131
1.6960,0.4057,36.1000,82,93,281134
1.6667,0.3959,36.1600,82,93,281137
1.7107,0.4057,36.2500,82,93,281141
1.7400,0.4008,36.1900,82,93,281144
1.7937,0.4057,35.9200,82,93,281147
1.7253,0.4106,36.1000,82,93,281151
1.6667,0.3959,36.1600,82,93,281154
1.6813,0.4008,36.1900,82,93,281157
1.7302,0.3959,36.1900,82,93,281160
1.8133,0.4057,36.1300,82,93,281164
1.7742,0.4008,36.1600,82,93,281167
1.7253,0.4008,36.0700,82,93,281170
1.7107,0.4008,36.1900,82,93,281175
1.6911,0.3959,36.1900,82,93,281178
1.7693,0.4057,36.1600,82,93,281181
1.7889,0.4057,36.1900,82,93,281185
1.7986,0.4106,36.0400,82,93,281188
1.7204,0.4008,36.0700,82,93,281191
1.7107,0.4057,36.2200,82,93,281195
1.7400,0.4057,36.0700,82,93,281198
1.7791,0.3959,36.1900,82,93,281201
1.8573,0.4106,35.9500,82,93,281205
1.8377,0.4008,36.1000,82,93,281208
1.8084,0.4008,36.2800,82,93,281211
1.8426,0.4057,36.0700,82,93,281214
1.8671,0.3959,36.1600,82,93,281219
1.9599,0.4350,35.9200,82,93,281222
1.9648,0.3959,36.2500,82,93,281225
1.9550,0.4008,36.2200,82,93,281229
1.8817,0.4008,36.1600,82,93,281232
1.8377,0.4252,36.1900,82,93,281235
1.8915,0.4203,35.9200,82,93,281239
1.8719,0.3959,36.1000,82,93,281242
1.8768,0.3959,36.1300,82,93,281245
1.8524,0.3959,36.1900,82,93,281249
1.7693,0.4008,36.2200,82,93,281252
1.7644,0.4057,36.0700,82,93,281255
1.7595,0.4008,35.9800,82,93,281260
1.8182,0.4008,36.0400,82,93,281263
1.7937,0.4008,36.1900,82,93,281266
1.7644,0.4008,36.1900,82,93,281269
1.7595,0.4057,35.9800,82,93,281273
1.7302,0.4057,36.1900,82,93,281276
1.7889,0.4057,36.0700,82,93,281279
1.8133,0.4008,36.1600,82,93,281283
1.8280,0.3959,36.2200,82,93,281286
1.8035,0.4008,36.0400,82,93,281289
1.7302,0.4008,36.2200,82,93,281293
1.7302,0.4008,35.9800,82,93,281296
1.7449,0.3959,36.1300,82,93,281299
1.7889,0.4008,36.1900,82,93,281304
1.8035,0.4057,36.1000,82,93,281307
1.7449,0.4008,36.2500,82,93,281310
1.7351,0.4106,35.9000,82,93,281314
1.6960,0.3959,36.1300,82,93,281317
1.7400,0.3959,36.2200,82,93,281320
1.8133,0.4008,36.1900,82,93,281323
1.8182,0.4008,36.1900,82,93,281327
1.8231,0.4203,35.9200,82,93,281330
1.7351,0.4008,36.1000,82,93,281333
1.7302,0.3959,36.1000,82,93,281337
1.7937,0.4008,36.1900,82,93,281340
1.8280,0.3959,36.1300,82,93,281344
1.8573,0.4057,36.0100,82,93,281348
1.7937,0.4106,36.1300,82,93,281351
1.7546,0.4008,36.0700,82,93,281354
1.7644,0.4008,36.1900,82,93,281358
1.8377,0.3959,36.2200,82,93,281361
1.9159,0.4057,36.0700,82,93,281364
1.8768,0.4008,36.2200,82,93,281368
1.8328,0.4106,36.0700,82,93,281371
1.7644,0.3959,36.2200,82,93,281374
1.8475,0.4399,36.1900,82,93,281378
2.0137,0.4008,36.1000,82,93,281381
2.1457,0.4008,36.2500,82,93,281384
2.2190,0.4008,35.9800,82,93,281388
2.1457,0.4008,36.2800,82,93,281392
2.0626,0.4008,36.1900,82,93,281395
1.9892,0.4057,36.1300,82,93,281398
1.8671,0.4008,36.2200,82,93,281402
1.7595,0.4106,35.9200,82,93,281405
1.6031,0.4008,36.1300,82,93,281408
1.5298,0.3959,36.2200,82,93,281412
1.5885,0.4057,36.1600,82,93,281415
1.6960,0.3959,36.2200,82,93,281418
1.9159,0.4203,35.9200,82,93,281422
1.9257,0.4203,36.0700,82,93,281425
1.9159,0.3959,36.1300,82,93,281428
1.8622,0.4057,36.1900,82,93,281433
1.8280,0.4008,36.2200,82,93,281436
1.8915,0.4154,36.0700,82,93,281439
1.9062,0.4008,36.1600,82,93,281443
1.9257,0.4008,36.0100,82,93,281446
1.8719,0.3959,36.1900,82,93,281449
1.8280,0.3959,36.2200,82,93,281452
1.8328,0.4057,36.1300,82,93,281456
1.8524,0.4008,36.1900,82,93,281459
1.9306,0.4057,36.1000,82,93,281462
1.9159,0.4008,36.1900,82,93,281466
1.8768,0.4008,36.2200,82,93,281469
1.8573,0.4057,36.1000,82,93,281473
1.8768,0.4057,36.1300,82,93,281478
1.8182,0.3959,36.1900,82,93,281481
1.8719,0.4057,35.8700,82,93,281485
1.9013,0.3959,36.0400,82,93,281488
1.9355,0.3910,36.1600,82,93,281491
1.9404,0.3959,36.2200,82,93,281495
1.8866,0.3959,36.2200,82,93,281498
1.8866,0.4203,36.0400,82,93,281501
1.8622,0.4057,36.2500,82,93,281505
1.9355,0.4057,36.0400,82,93,281508
1.9501,0.4008,36.2800,82,93,281511
1.9599,0.4008,36.1900,82,93,281516
1.9208,0.4057,36.1600,82,93,281519
1.8622,0.4008,36.1900,82,93,281522
1.8915,0.4057,36.0400,82,93,281525
1.9208,0.3910,36.1900,82,93,281529
1.9599,0.3959,36.2200,82,93,281532
1.9746,0.4106,36.0700,82,93,281535
1.9062,0.4008,36.1900,82,93,281539
1.9062,0.3959,36.0100,82,93,281542
1.9062,0.4008,36.1300,82,93,281545
1.9648,0.4008,36.2200,82,93,281549
2.0283,0.4106,35.8100,82,93,281552
1.9990,0.4057,36.1900,82,93,281555
1.9990,0.4106,35.9200,82,93,281560
1.9648,0.3959,36.1300,82,93,281563
1.9697,0.4008,36.4000,82,93,281566
2.0381,0.3959,36.1600,82,93,281570
2.0626,0.3959,35.4500,82,93,281573
2.1114,0.4203,35.8700,82,93,281576
2.0283,0.4008,36.0700,82,93,281580
2.0235,0.3959,36.1600,82,93,281583
2.0577,0.4008,36.1300,82,93,281586
2.1212,0.3959,36.1900,82,93,281589
2.1896,0.4154,36.1300,82,93,281593
2.1212,0.4008,36.1600,82,93,281596
2.0870,0.4008,36.2800,82,93,281600
2.0723,0.3959,36.1900,82,93,281604
2.0919,0.4008,36.1000,82,93,281607
2.1848,0.4154,35.9800,82,93,281610
2.1750,0.4008,36.1900,82,93,281614
2.1603,0.4057,36.0400,82,93,281617
2.0870,0.3959,36.2200,82,93,281620
2.0577,0.3959,36.2200,82,93,281624
2.1114,0.4008,36.0700,82,93,281627
2.1163,0.4008,36.1900,82,93,281630
2.1212,0.4008,36.0100,82,93,281633
2.0235,0.3959,36.1000,82,93,281637
1.9306,0.3959,36.2200,82,93,281640
1.8866,0.3959,36.0700,82,93,281644
1.8671,0.4008,36.1600,82,93,281648
1.9013,0.4057,35.9200,82,93,281651
1.8328,0.3959,36.1600,82,93,281654
1.7546,0.3959,36.1900,82,93,281658
1.7009,0.4057,36.0400,82,93,281661
1.6569,0.3959,36.2200,82,93,281664
1.7204,0.4106,35.9000,82,93,281668
1.7155,0.4057,36.1000,82,93,281671
1.6911,0.3861,36.1900,82,93,281674
1.6422,0.4008,36.1600,82,93,281678
1.5934,0.4008,36.2800,82,93,281681
1.6276,0.4203,35.9800,82,93,281684
1.6471,0.4057,36.2500,82,93,281688
1.6716,0.3959,36.1000,82,93,281692
1.6618,0.4008,36.2800,82,93,281695
1.6129,0.3959,36.2200,82,93,281698
1.5982,0.4057,36.0700,82,93,281702
1.5885,0.4057,36.1600,82,93,281705
1.6618,0.4057,36.0400,82,93,281708
1.6813,0.3910,36.1900,82,93,281712
1.6813,0.3959,36.2500,82,93,281715
1.6716,0.3959,36.1000,82,93,281718
1.6227,0.4008,36.3100,82,93,281722
1.6618,0.4008,36.0100,82,93,281725
1.6862,0.3959,36.1900,82,93,281729
1.7204,0.3959,36.2200,82,93,281733
1.7253,0.4350,36.1000,82,93,281736
1.6569,0.4008,36.2800,82,93,281739
1.6618,0.4301,35.9200,82,93,281743
1.6618,0.4057,36.1000,82,93,281746
1.7009,0.4301,36.1900,82,93,281749
1.7498,0.4057,36.1900,82,93,281753
1.7204,0.4106,36.1900,82,93,281756
1.7204,0.4154,35.9000,82,93,281759
1.6764,0.3959,36.0100,82,93,281762
1.6911,0.3959,36.1600,82,93,281766
1.7742,0.4057,36.1900,82,93,281769
1.7693,0.3959,36.2200,82,93,281773
1.8035,0.4203,36.0400,82,93,281777
1.7009,0.4057,36.1600,82,93,281780
1.6813,0.4008,36.0400,82,93,281783
1.7107,0.4008,36.1900,82,93,281787
1.7644,0.3959,36.1900,82,93,281790
1.8084,0.4057,36.1900,82,93,281793
1.7693,0.4008,36.1900,82,93,281797
1.7644,0.3959,36.0400,82,93,281800
1.7058,0.4008,36.1900,82,93,281803
1.7449,0.3910,36.2200,82,93,281806
1.8280,0.4057,36.0400,82,93,281810
1.8426,0.4008,36.1600,82,93,281814
1.7840,0.4008,35.9800,82,93,281817
1.7107,0.4008,36.1000,82,93,281821
1.6911,0.3959,36.1900,82,93,281824
1.7595,0.4106,36.0400,82,93,281827
1.7791,0.3959,36.2200,82,93,281831
1.8231,0.4057,35.9000,82,93,281834
1.7546,0.4057,36.1300,82,93,281837
1.7009,0.4154,36.1900,82,93,281841
1.7058,0.4057,36.1600,82,93,281844
1.7302,0.4008,36.1900,82,93,281847
1.8475,0.4057,35.8700,82,93,281851
1.7840,0.4106,36.1000,82,93,281854
1.7351,0.3861,36.1600,82,93,281858
1.6960,0.4008,36.1900,82,93,281862
1.6960,0.3959,36.1900,82,93,281865
1.7889,0.4448,36.0100,82,93,281868
1.8133,0.4057,36.1300,82,93,281871
1.8133,0.4057,36.1000,82,93,281875
1.7693,0.4008,36.4000,82,93,281878
1.7449,0.4252,36.2200,82,93,281881
1.7986,0.4106,36.0100,82,93,281885
1.8426,0.4008,36.1600,82,93,281888
1.9013,0.4057,36.1900,82,93,281891
1.8768,0.4057,36.1900,82,93,281895
1.8475,0.3959,36.4000,82,93,281899
1.8328,0.4008,36.0400,82,93,281902
1.8231,0.4008,36.2200,82,93,281906
1.8866,0.4008,36.0100,82,93,281909
1.8866,0.3959,36.1600,82,93,281912
1.8622,0.3959,36.1900,82,93,281916
1.8231,0.4106,36.1000,82,93,281919
1.7742,0.4008,36.1900,82,93,281922
1.8182,0.4106,35.9200,82,93,281925
1.8328,0.3959,36.1600,82,93,281929
1.8524,0.3959,36.2200,82,93,281932
1.8524,0.4057,36.1600,82,93,281935
1.7644,0.4008,36.1900,82,93,281939
1.7693,0.4154,35.9000,82,93,281943
1.7693,0.4008,36.3100,82,93,281946
1.8035,0.3910,36.1600,82,93,281950
1.8328,0.4008,36.1900,82,93,281953
1.7986,0.4203,36.1900,82,93,281956
1.7937,0.4106,35.9800,82,93,281960
1.7449,0.4154,36.1300,82,93,281963
1.7693,0.4008,36.1000,82,93,281966
1.8084,0.3959,36.2200,82,93,281970
1.8231,0.3861,36.2200,82,93,281973
1.7986,0.4057,36.0400,82,93,281976
1.7302,0.3861,36.1600,82,93,281980
1.7302,0.4399,36.0400,82,93,281984
1.7449,0.4008,36.2200,82,93,281987
1.8035,0.4497,36.1900,82,93,281990
1.8377,0.3959,36.1000,82,93,281994
1.7986,0.4008,36.2500,82,93,281997
1.7595,0.4106,36.0100,82,93,282000
1.7009,0.4008,36.1900,82,93,282004
1.7498,0.4008,36.2200,82,93,282007
1.8719,0.4057,36.1600,82,93,282010
1.9648,0.4008,36.1900,82,93,282014
2.0772,0.4057,35.9800,82,93,282017
2.0626,0.4154,36.0700,82,93,282020
2.0283,0.4008,36.2200,82,93,282024
2.0235,0.4057,36.1000,82,93,282028
1.9062,0.4008,36.2200,82,93,282031
1.7840,0.4106,35.8700,82,93,282034
1.5445,0.3959,36.0400,82,93,282038
1.3978,0.3959,36.1600,82,93,282041
1.4272,0.4008,36.1900,82,93,282044
1.5689,0.4008,36.2200,82,93,282048
1.7742,0.4497,36.0100,82,93,282051
1.8426,0.4057,36.1600,82,93,282054
1.8622,0.3910,36.0700,82,93,282058
1.8426,0.3959,36.1900,82,93,282061
1.8964,0.4008,36.2200,82,93,282064
1.9306,0.4057,36.3100,82,93,282068
1.9453,0.4008,36.1900,82,93,282072
1.9501,0.3861,36.0400,82,93,282075
1.8671,0.4008,36.2200,82,93,282079
1.8182,0.3959,36.1000,82,93,282082
1.8524,0.4106,36.1000,82,93,282085
1.8328,0.4057,36.1300,82,93,282090
1.8426,0.4154,36.2200,82,93,282093
1.9501,0.4106,35.9000,82,93,282097
1.9746,0.4008,36.0700,82,93,282100
1.9257,0.4008,36.2200,82,93,282103
1.8817,0.4008,36.1600,82,93,282106
1.8524,0.4008,36.2200,82,93,282110
1.9257,0.4203,35.9800,82,93,282114
1.9355,0.4057,36.1300,82,93,282117
1.9501,0.3959,36.1600,82,93,282121
1.9110,0.4008,36.1900,82,93,282124
1.8475,0.3910,36.2200,82,93,282127
1.8475,0.4106,36.1300,82,93,282131
1.8524,0.4008,36.1900,82,93,282134
1.9159,0.3861,36.0400,82,93,282137
1.9355,0.3910,36.1900,82,93,282141
1.8915,0.3959,36.2200,82,93,282144
1.8719,0.4154,36.0100,82,93,282147
1.8377,0.4008,36.1900,82,93,282151
1.8964,0.4106,36.0400,82,93,282155
1.9208,0.3959,36.0100,82,93,282158
1.9453,0.3959,36.1900,82,93,282162
1.9306,0.4008,36.0100,82,93,282165
1.8719,0.4008,36.2200,82,93,282168
1.9013,0.4057,35.9500,82,93,282171
1.9257,0.3959,36.1300,82,93,282175
1.9697,0.4008,36.2200,82,93,282178
1.9941,0.3959,36.1300,82,93,282181
1.9355,0.4008,36.1300,82,93,282185
1.9453,0.4203,35.9200,82,93,282188
1.9159,0.4008,36.1000,82,93,282191
1.9746,0.3959,36.1900,82,93,282195
2.0381,0.4008,36.2200,82,93,282199
2.0479,0.3959,36.1300,82,93,282202
2.0723,0.4154,36.0100,82,93,282206
2.0039,0.4057,36.2500,82,93,282209
2.0137,0.4008,36.0700,82,93,282212
2.0723,0.3861,36.2200,82,93,282216
2.1163,0.3959,36.1900,82,93,282219
2.1554,0.4106,36.0100,82,93,282222
2.1261,0.4008,36.2200,82,93,282226
2.0723,0.4057,35.4800,82,93,282229
2.0674,0.4008,36.1900,82,93,282232
2.1457,0.3959,36.2200,82,93,282235
2.1945,0.4008,36.1000,82,93,282240
2.1896,0.3959,36.1900,82,93,282243
2.1505,0.4057,36.0700,82,93,282246
2.0821,0.4203,36.1600,82,93,282250
2.0919,0.4008,36.2200,82,93,282253
2.1408,0.4008,36.1300,82,93,282256
2.1408,0.3959,36.1900,82,93,282260
2.1359,0.4057,35.9800,82,93,282263
2.0235,0.4008,36.2200,82,93,282266
1.9648,0.3959,36.2500,82,93,282270
1.9550,0.4057,36.1300,82,93,282273
1.9501,0.4008,36.2200,82,93,282276
1.9795,0.4106,35.9000,82,93,282279
1.8817,0.4057,36.0100,82,93,282284
1.7791,0.4008,36.1900,82,93,282287
1.7204,0.4008,36.2800,82,93,282290
1.7058,0.3959,36.2200,82,93,282294
1.7889,0.4203,36.1000,82,93,282297
1.7595,0.4057,36.0700,82,93,282300
1.7107,0.3959,36.1300,82,93,282304
1.6667,0.4008,36.1900,82,93,282307
1.6178,0.3959,36.2200,82,93,282310
1.6520,0.4106,36.0400,82,93,282314
1.6911,0.4008,36.1900,82,93,282317
1.7107,0.4008,36.0400,82,93,282320
1.6667,0.4008,36.2200,82,93,282324
1.6178,0.4106,36.2200,82,93,282328
1.6227,0.4008,36.3100,82,93,282331
1.6520,0.3959,36.1900,82,93,282334
1.7400,0.4106,36.0700,82,93,282338
1.7351,0.4057,36.2200,82,93,282341
1.7204,0.3959,36.2200,82,93,282344
1.7058,0.3959,36.0700,82,93,282348
1.6911,0.4008,36.3100,82,93,282351
1.7693,0.4008,35.9500,82,93,282354
1.8182,0.4008,36.0700,82,93,282358
1.8280,0.3959,36.2800,82,93,282361
1.8231,0.3861,36.1000,82,93,282364
1.7644,0.4008,36.1900,82,93,282369
1.7986,0.4154,35.8700,82,93,282372
1.8231,0.3910,36.0700,82,93,282375
1.8622,0.4008,36.2200,82,93,282379
1.8866,0.4008,36.1900,82,93,282382
1.8426,0.4008,36.2200,82,93,282385
1.8426,0.4203,35.9200,82,93,282388
1.8084,0.4057,36.1300,82,93,282392
1.8328,0.3959,36.0700,82,93,282395
1.8671,0.3959,36.1900,82,93,282398
1.8671,0.4008,36.1900,82,93,282402
1.8426,0.4106,36.1000,82,93,282405
1.7840,0.4106,36.1000,82,93,282408
1.8231,0.4057,36.0400,82,93,282413
1.8280,0.4008,36.1900,82,93,282416
1.8915,0.4008,36.2500,82,93,282419
1.8866,0.4106,36.1900,82,93,282423
1.8035,0.4008,36.1900,82,93,282426
1.7986,0.4106,36.1300,82,93,282429
1.7986,0.3959,36.1300,82,93,282433
1.8426,0.3959,36.2800,82,93,282436
1.9013,0.4057,36.0400,82,93,282439
1.8719,0.4008,36.2500,82,93,282443
1.8475,0.4399,35.9500,82,93,282446
1.7937,0.4008,36.1900,82,93,282449
1.8035,0.3959,36.1900,82,93,282452
1.8768,0.4057,36.1600,82,93,282457
1.8866,0.4008,36.0700,82,93,282460
1.9062,0.4203,35.9000,82,93,282463
1.8084,0.3959,36.1300,82,93,282467
1.7791,0.3959,36.1900,82,93,282470
1.8133,0.4008,36.1300,82,93,282473
1.8622,0.3959,36.1900,82,93,282477
1.9404,0.4301,35.9500,82,93,282480
1.8768,0.4057,36.1000,82,93,282483
1.8084,0.3959,36.1600,82,93,282487
1.7791,0.4008,36.2800,82,93,282490
1.8035,0.4008,36.1900,82,93,282493
1.8915,0.4106,35.9800,82,93,282498
1.8964,0.3959,36.1600,82,93,282501
1.8768,0.4008,36.0700,82,93,282504
1.8035,0.4008,36.1900,82,93,282507
1.8035,0.3959,36.2200,82,93,282511
1.8426,0.4203,36.0700,82,93,282514
1.8817,0.4008,36.1900,82,93,282517
1.9208,0.4057,36.1600,82,93,282521
1.8573,0.4008,36.1900,82,93,282524
1.8084,0.4008,36.1900,82,93,282527
1.8377,0.4008,36.0700,82,93,282531
1.8377,0.3861,36.1900,82,93,282534
1.9062,0.4008,36.0400,82,93,282537
1.8866,0.4008,36.2200,82,93,282542
1.8475,0.4008,36.2200,82,93,282545
1.8035,0.4057,36.1300,82,93,282548
1.7840,0.4008,36.2200,82,93,282552
1.8671,0.4106,36.0400,82,93,282555
1.8915,0.4008,36.0700,82,93,282558
1.8768,0.4008,36.1900,82,93,282561
1.8573,0.4057,36.1600,82,93,282565
1.8035,0.4008,36.2200,82,93,282568
1.8426,0.4203,35.9200,82,93,282571
1.8622,0.4057,36.0700,82,93,282575
1.8866,0.3959,36.0700,82,93,282578
1.9013,0.4008,36.1900,82,93,282582
1.8377,0.4008,36.1900,82,93,282586
1.8280,0.4252,35.9800,82,93,282589
1.8035,0.3861,36.1600,82,93,282592
1.8524,0.4008,36.0400,82,93,282596
1.8817,0.3959,36.1900,82,93,282599
1.8719,0.4008,36.1900,82,93,282602
1.8524,0.4057,36.1600,82,93,282605
1.7937,0.4008,36.2800,82,93,282609
1.8280,0.4252,36.0700,82,93,282612
1.8622,0.4008,36.2500,82,93,282615
1.9013,0.4008,36.2200,82,93,282619
1.9257,0.4106,36.0700,82,93,282622
1.8524,0.3959,36.1900,82,93,282626
1.8377,0.4008,35.9500,82,93,282630
1.8328,0.4008,36.1000,82,93,282633
1.8768,0.4008,36.2200,82,93,282636
1.9550,0.4106,36.0700,82,93,282640
1.9013,0.3959,36.2200,82,93,282643
1.8964,0.4106,35.8700,82,93,282646
1.8426,0.3959,36.1600,82,93,282650
1.8768,0.3959,36.1900,82,93,282653
1.9159,0.4008,36.2200,82,93,282656
1.9404,0.4008,36.1900,82,93,282659
1.9795,0.4057,35.8700,82,93,282663
1.8915,0.3959,36.1000,82,93,282667
1.8573,0.3959,36.1600,82,93,282670
1.9208,0.4057,36.1600,82,93,282674
1.9306,0.3959,36.1900,82,93,282677
1.9941,0.4106,36.0700,82,93,282680
1.9404,0.4008,36.2500,82,93,282684
1.8964,0.3959,36.0400,82,93,282687
1.8671,0.4008,35.4200,82,93,282690
1.9062,0.3910,36.2200,82,93,282694
2.0039,0.4057,35.9500,82,93,282697
1.9257,0.4594,36.0100,82,93,282702
1.9550,0.3861,36.2200,82,93,282705
2.0039,0.4154,35.9200,82,93,282708
1.9355,0.4057,36.1600,82,93,282713
1.8768,0.3910,36.1900,82,93,282716
1.8719,0.4008,36.1600,82,93,282719
1.8817,0.4203,36.2200,82,93,282723
1.9648,0.4106,35.9200,82,93,282726
1.9257,0.4008,36.1000,82,93,282729
1.8768,0.3959,36.1900,82,93,282733
1.8377,0.4106,36.1900,82,93,282736
1.8328,0.4008,36.3700,82,93,282739
1.9257,0.4154,35.9800,82,93,282742
1.9404,0.4008,36.1600,82,93,282746
1.9404,0.4008,36.0700,82,93,282749
1.8817,0.3861,36.1900,82,93,282753
1.8328,0.3959,36.1900,82,93,282757
1.8622,0.4106,35.9800,82,93,282760
1.8768,0.3959,36.1600,82,93,282763
1.9355,0.4057,36.0400,82,93,282767
1.9013,0.4008,36.2200,82,93,282770
1.8671,0.3861,36.2200,82,93,282773
1.8475,0.4008,36.0700,82,93,282777
1.8426,0.4008,36.1900,82,93,282780
1.9159,0.4008,36.0400,82,93,282783
1.9453,0.3959,36.1600,82,93,282787
1.9110,0.3959,36.1600,82,93,282790
1.8671,0.4008,36.1000,82,93,282793
1.8182,0.4008,36.2200,82,93,282797
1.8671,0.4301,35.9500,82,93,282801
1.8915,0.3910,36.1300,82,93,282804
1.9550,0.3959,36.2200,82,93,282807
1.9697,0.4057,36.0400,82,93,282811
1.9306,0.4008,36.1900,82,93,282814
1.9453,0.4106,35.8700,82,93,282817
1.9257,0.4106,36.1000,82,93,282821
1.9746,0.3910,36.1900,82,93,282824
2.0577,0.4008,36.1600,82,93,282827
2.1212,0.4008,36.2200,82,93,282831
2.2141,0.4203,35.9500,82,93,282834
2.1848,0.4057,36.0100,82,93,282838
2.1603,0.3959,36.1000,82,93,282842
2.1114,0.4008,36.2200,82,93,282845
1.9941,0.3959,36.1900,82,93,282848
1.8182,0.4057,36.0700,82,93,282851
1.5787,0.3959,36.2200,82,93,282855
1.4907,0.4057,36.0700,82,93,282858
1.5298,0.4057,36.1900,82,93,282861
1.6764,0.3959,36.2800,82,93,282865
1.8328,0.3959,36.1000,82,93,282868
1.8817,0.4008,36.2200,82,93,282871
1.9159,0.4008,36.0400,82,93,282875
1.9013,0.4008,36.1900,82,93,282878
1.9501,0.3959,36.1900,82,93,282882
2.0137,0.4057,36.1300,82,93,282886
2.0039,0.4106,36.2200,82,93,282889
2.0039,0.4106,35.9200,82,93,282892
1.9110,0.4057,36.0700,82,93,282896
1.8768,0.4008,36.1900,82,93,282899
1.9306,0.4057,36.1900,82,93,282902
1.9550,0.3910,36.2200,82,93,282905
2.0137,0.4106,35.8700,82,93,282909
1.9453,0.4008,36.0700,82,93,282912
1.8817,0.3959,36.1900,82,93,282915
1.8817,0.4301,36.1600,82,93,282919
1.9208,0.3959,36.2200,82,93,282923
2.0283,0.4252,36.0100,82,93,282926
1.9990,0.4008,36.1300,82,93,282930
1.9550,0.4008,36.1300,82,93,282933
1.9062,0.3959,36.1900,82,93,282936
1.9159,0.3959,36.1900,82,93,282940
1.9892,0.4106,36.1300,82,93,282943
2.0088,0.4106,36.2200,82,93,282946
2.0332,0.3861,36.0400,82,93,282950
1.9599,0.4057,36.2200,82,93,282953
1.9159,0.3959,36.2200,82,93,282956
1.9453,0.4106,36.0700,82,93,282960
1.9648,0.4008,36.2200,82,93,282963
2.0381,0.4008,35.9800,82,93,282967
1.9844,0.3910,36.1300,82,93,282970
1.9306,0.4008,36.2200,82,93,282974
1.9110,0.4057,35.7500,82,93,282977
1.9013,0.3959,36.2200,82,93,282980
1.9892,0.4057,36.0100,82,93,282984
1.9990,0.4057,36.1600,82,93,282987
1.9746,0.3959,36.1300,82,93,282990
1.9453,0.4008,36.1300,82,93,282994
1.9062,0.4008,36.1300,82,93,282997
1.9795,0.4106,35.8700,82,93,283000
1.9941,0.4008,36.1000,82,93,283004
2.0283,0.3959,36.1900,82,93,283008
2.0186,0.3959,36.1300,82,93,283011
1.9746,0.3959,36.1900,82,93,283015
1.9990,0.4301,36.0100,82,93,283018
1.9990,0.4008,36.1600,82,93,283021
2.0626,0.4008,36.1300,82,93,283024
2.0919,0.4008,36.1900,82,93,283028
2.0674,0.3959,36.3400,82,93,283031
2.0577,0.4448,35.9800,82,93,283034
2.0235,0.4008,36.2200,82,93,283038
2.0821,0.4008,36.0400,82,93,283041
2.1505,0.4008,36.1900,82,93,283044
2.1603,0.3959,36.2200,82,93,283048
2.1652,0.4106,36.0700,82,93,283052
2.0968,0.3861,36.1900,82,93,283055
2.1212,0.4057,36.0100,82,93,283059
2.1359,0.3959,36.1600,82,93,283062
2.1994,0.3959,36.1900,82,93,283065
2.2776,0.4008,36.1000,82,93,283068
2.2043,0.3861,36.2500,82,93,283072
2.1896,0.4057,35.9500,82,93,283075
2.1359,0.3861,36.1900,82,93,283078
2.1750,0.4154,36.1900,82,93,283082
2.2239,0.4057,36.2500,82,93,283085
2.2190,0.3959,36.2200,82,93,283088
2.1994,0.4106,35.8700,82,93,283092
2.0919,0.4057,36.1000,82,93,283096
2.0381,0.3910,36.2500,82,93,283099
2.0626,0.4057,36.1900,82,93,283103
2.0674,0.3959,36.2500,82,93,283106
2.0968,0.4350,35.9500,82,93,283109
1.9844,0.4057,36.1000,82,93,283113
1.8768,0.4203,36.1300,82,93,283116
1.8182,0.4008,36.1900,82,93,283119
1.8182,0.3959,36.1600,82,93,283122
1.8671,0.4106,36.0100,82,93,283126
1.8280,0.4057,36.1900,82,93,283129
1.7791,0.4008,36.0400,82,93,283132
1.6960,0.4008,36.2800,82,93,283137
1.7009,0.3959,36.2200,82,93,283140
1.7155,0.4008,36.1300,82,93,283143
1.7840,0.4008,36.1900,82,93,283147
1.7693,0.4057,36.0700,82,93,283150
1.6862,0.4008,36.2200,82,93,283153
1.6569,0.3959,35.4500,82,93,283157
1.7302,0.4057,36.0400,82,93,283160
1.7400,0.4008,36.1900,82,93,283163
1.7986,0.4057,35.9500,82,93,283167
1.7791,0.3959,36.1000,82,93,283170
1.7204,0.4350,36.1900,82,93,283173
1.7107,0.4057,36.0700,82,93,283176
1.7058,0.4008,36.2200,82,93,283181
1.7986,0.4106,35.9000,82,93,283184
1.8084,0.4057,36.1000,82,93,283187
1.7840,0.3959,36.1900,82,93,283191
1.7449,0.4057,36.1900,82,93,283194
1.7107,0.4008,36.2200,82,93,283197
1.7791,0.4203,35.9500,82,93,283201
1.7937,0.4057,36.1300,82,93,283204
1.8133,0.3959,36.1000,82,93,283207
1.7937,0.4008,36.2200,82,93,283211
1.7742,0.3959,36.2200,82,93,283214
1.7498,0.4106,36.3100,82,93,283217
1.7546,0.4008,36.1600,82,93,283222
1.8280,0.3861,36.0700,82,93,283225
1.8426,0.4008,36.1900,82,93,283228
1.8231,0.3959,36.2200,82,93,283232
1.8084,0.4106,36.0400,82,93,283235
1.7644,0.4008,36.2200,82,93,283238
1.8133,0.3959,36.0400,82,93,283241
1.8231,0.3959,36.1600,82,93,283245
1.8524,0.4252,36.1900,82,93,283248
1.8377,0.4057,35.9800,82,93,283251
1.7986,0.3959,36.1600,82,93,283255
1.8084,0.4057,35.9500,82,93,283258
1.8231,0.3959,36.1300,82,93,283261
1.8719,0.3959,36.1900,82,93,283266
1.8964,0.4106,36.1300,82,93,283269
1.8426,0.4008,36.2200,82,93,283272
1.8573,0.4106,35.9000,82,93,283276
1.7742,0.4301,36.1000,82,93,283279
1.8182,0.3861,36.1900,82,93,283282
1.8768,0.4106,36.1900,82,93,283286
1.8817,0.3959,35.8700,82,93,283289
1.8866,0.4057,36.0100,82,93,283292
1.8182,0.4057,36.1900,82,93,283296
1.8084,0.4154,36.1000,82,93,283299
1.8475,0.4008,36.1600,82,93,283302
1.8915,0.4057,36.2200,82,93,283305
1.9257,0.4106,36.1600,82,93,283310
1.9306,0.3959,36.0400,82,93,283315
1.9159,0.3959,36.2500,82,93,283318
1.9062,0.4106,35.9500,82,93,283321
1.8719,0.3959,36.0700,82,93,283324
1.8915,0.4008,36.1900,82,93,283328
1.9648,0.3861,36.1300,82,93,283331
1.9746,0.3959,36.1300,82,93,283334
2.0039,0.4106,35.9200,82,93,283338
1.9110,0.3910,36.1600,82,93,283341
1.8768,0.3959,36.1900,82,93,283344
1.8964,0.4008,36.1600,82,93,283348
1.9355,0.3959,36.1900,82,93,283352
2.0528,0.4057,35.9500,82,93,283355
1.9697,0.4057,35.9500,82,93,283359
1.9110,0.4008,36.1300,82,93,283362
1.8817,0.4008,36.1900,82,93,283365
1.9110,0.4008,36.2200,82,93,283369
1.9990,0.4106,35.9800,82,93,283372
2.0088,0.4008,36.1600,82,93,283375
1.9990,0.4008,36.0400,82,93,283378
1.9257,0.4008,36.1900,82,93,283382
1.8964,0.4008,36.1300,82,93,283385
1.9453,0.4057,36.0700,82,93,283388
1.9746,0.4008,36.1900,82,93,283393
2.0332,0.4301,36.0400,82,93,283396
1.9941,0.3959,36.2200,82,93,283399
1.9599,0.4008,36.2200,82,93,283403
1.9648,0.4008,36.0700,82,93,283406
1.9892,0.4350,36.1900,82,93,283409
2.0577,0.4008,35.9800,82,93,283413
2.0381,0.3959,36.1900,82,93,283416
1.9941,0.3959,36.2200,82,93,283419
1.9599,0.4350,36.1000,82,93,283422
1.9013,0.4008,36.2200,82,93,283426
1.9501,0.4154,35.9200,82,93,283429
1.9599,0.3861,36.0700,82,93,283432
1.9355,0.4057,36.2200,82,93,283437
1.9062,0.4057,35.4500,82,93,283440
1.8426,0.4008,36.1900,82,93,283443
1.8915,0.4154,35.9000,82,93,283447
1.9013,0.3959,36.0700,82,93,283450
1.9453,0.3861,36.1300,82,93,283453
1.9746,0.4008,36.1900,82,93,283457
1.9062,0.3959,36.2200,82,93,283460
1.9013,0.4154,36.0400,82,93,283463
1.8719,0.4008,36.2500,82,93,283467
1.9208,0.4008,36.0700,82,93,283470
1.9453,0.3959,36.2200,82,93,283473
1.9599,0.4203,36.1600,82,93,283478
1.9404,0.3861,36.1600,82,93,283481
1.8817,0.3910,36.1900,82,93,283484
1.9159,0.4057,36.0700,82,93,283487
1.9306,0.4008,36.1900,82,93,283491
1.9795,0.3861,36.1900,82,93,283494
1.9990,0.4057,36.0700,82,93,283497
1.9306,0.4008,36.2200,82,93,283501
1.9110,0.4057,35.9800,82,93,283504
1.9013,0.3959,36.0700,82,93,283507
1.9501,0.4008,36.1900,82,93,283511
2.0235,0.4106,36.1000,82,93,283514
1.9892,0.3959,36.1900,82,93,283517
1.9990,0.4057,35.9000,82,93,283522
1.9404,0.3959,36.1300,82,93,283525
1.9746,0.3959,36.2200,82,93,283528
2.0577,0.4399,36.1300,82,93,283532
2.0821,0.3959,36.2200,82,93,283535
2.1065,0.4154,35.9200,82,93,283538
2.0137,0.4008,36.1300,82,93,283541
2.0186,0.3959,36.1000,82,93,283545
2.1359,0.4008,36.1900,82,93,283548
2.2874,0.3959,36.1900,82,93,283551
2.4242,0.4057,36.0400,82,93,283555
2.3705,0.4008,35.4500,82,93,283558
2.2776,0.4008,36.0700,82,93,283561
2.1261,0.4008,36.2200,82,93,283566
