ecg,gsr,temp,hr,spo2,timest
1.8377,0.2786,40.0600,72,95,281502
1.8768,0.2884,39.8900,72,95,281505
1.8671,0.2786,39.9600,72,95,281508
1.8524,0.2835,39.9300,72,95,281512
1.8866,0.2981,40.0000,72,95,281516
1.8768,0.2835,40.0600,72,95,281519
1.9306,0.2933,39.8900,72,95,281523
1.8964,0.2835,40.0300,72,95,281526
1.9013,0.2835,40.2000,72,95,281529
1.9159,0.3079,40.0600,72,95,281533
1.9159,0.2835,40.1000,72,95,281536
1.9795,0.3030,39.8900,72,95,281539
1.9453,0.2835,40.0600,72,95,281542
1.9501,0.2786,40.0300,72,95,281546
1.9599,0.3128,40.0000,72,95,281549
1.9746,0.2786,40.0600,72,95,281552
2.0332,0.2933,39.9600,72,95,281556
2.0039,0.2786,40.0300,72,95,281560
2.0235,0.2835,40.0000,72,95,281563
2.0235,0.2835,40.0600,72,95,281567
2.0332,0.2835,40.0600,72,95,281570
2.0723,0.2884,39.9300,72,95,281573
2.0626,0.2835,40.0600,72,95,281576
2.0919,0.2884,39.9600,72,95,281580
2.0772,0.2835,40.1600,72,95,281583
2.0821,0.2835,40.1000,72,95,281586
2.1163,0.2835,40.0300,72,95,281590
2.1065,0.2835,40.0600,72,95,281593
2.1408,0.3079,39.9600,72,95,281596
2.1114,0.2835,40.0600,72,95,281601
2.1163,0.2835,40.1300,72,95,281604
2.1554,0.2884,39.9600,72,95,281607
2.1212,0.2835,40.2000,72,95,281610
2.1554,0.2933,39.8600,72,95,281614
2.1359,0.2835,40.0000,72,95,281617
2.1114,0.2835,40.0600,72,95,281620
2.1114,0.2884,40.0000,72,95,281624
2.0821,0.2835,40.0600,72,95,281627
2.1065,0.2884,39.8600,72,95,281630
2.0528,0.2786,40.0300,72,95,281634
2.0186,0.2835,40.0600,72,95,281637
2.0039,0.2884,40.0000,72,95,281640
1.9550,0.2835,40.2600,72,95,281644
1.9795,0.2981,39.8300,72,95,281648
1.9062,0.2835,39.8600,72,95,281651
1.8719,0.2737,40.1000,72,95,281654
1.8573,0.2688,40.0600,72,95,281658
1.8182,0.2835,39.9300,72,95,281661
1.8475,0.3030,39.9600,72,95,281664
1.7937,0.2884,40.0300,72,95,281668
1.7595,0.2835,40.1300,72,95,281671
1.7302,0.2835,40.0600,72,95,281674
1.7155,0.2835,40.0600,72,95,281677
1.7351,0.3128,39.8900,72,95,281681
1.6960,0.2835,40.0600,72,95,281684
1.7009,0.2835,40.0000,72,95,281688
1.6764,0.2884,40.0300,72,95,281692
1.6764,0.2835,40.0600,72,95,281695
1.7009,0.2884,40.0000,72,95,281698
1.6764,0.2835,40.0600,72,95,281702
1.7009,0.2884,39.9300,72,95,281705
1.6667,0.2835,40.1000,72,95,281708
1.6716,0.2835,40.0300,72,95,281711
1.6862,0.2786,40.0000,72,95,281715
1.6813,0.2835,40.0600,72,95,281718
1.7155,0.2933,39.9300,72,95,281721
1.6764,0.2835,40.0600,72,95,281725
1.6960,0.2835,40.1000,72,95,281729
1.7302,0.2688,39.9600,72,95,281732
1.7107,0.2835,40.0300,72,95,281736
1.7595,0.2933,39.8600,72,95,281739
1.7351,0.2884,40.1000,72,95,281742
1.7204,0.3128,40.1000,72,95,281746
1.7351,0.2884,40.0600,72,95,281749
1.7302,0.2835,40.2000,72,95,281752
1.7742,0.2884,39.8900,72,95,281755
1.7400,0.2835,40.0300,72,95,281759
1.7351,0.2786,40.1300,72,95,281762
1.7449,0.2786,40.0300,72,95,281765
1.7351,0.2835,40.0600,72,95,281769
1.7986,0.3030,39.8900,72,95,281773
1.7693,0.2884,40.0300,72,95,281776
1.7595,0.2786,40.0600,72,95,281780
1.7546,0.2884,40.0600,72,95,281783
1.7449,0.2835,40.0600,72,95,281786
1.7937,0.2933,39.8300,72,95,281790
1.7693,0.2884,40.0300,72,95,281793
1.7840,0.2835,39.9600,72,95,281796
1.7644,0.2835,40.1000,72,95,281799
1.7644,0.2835,40.0600,72,95,281803
1.7937,0.2933,39.8900,72,95,281806
1.7742,0.2786,40.0600,72,95,281809
1.7889,0.2933,40.0000,72,95,281814
1.7595,0.2786,40.0000,72,95,281817
1.7644,0.2835,40.0600,72,95,281820
1.7791,0.2884,40.0000,72,95,281824
1.7595,0.2786,40.0600,72,95,281827
1.7840,0.2835,39.9300,72,95,281830
1.7546,0.2835,40.0600,72,95,281833
1.7546,0.2786,40.0600,72,95,281837
1.7693,0.2835,39.9600,72,95,281840
1.7546,0.2835,40.1000,72,95,281843
1.7889,0.2884,39.8600,72,95,281847
1.7546,0.2786,40.1300,72,95,281850
1.7595,0.2737,40.1600,72,95,281853
1.7595,0.2884,40.0300,72,95,281858
1.7546,0.2786,40.0300,72,95,281861
1.8084,0.2933,39.8300,72,95,281864
1.7742,0.2884,40.0000,72,95,281868
1.7595,0.2786,40.1300,72,95,281871
1.7644,0.2835,40.0600,72,95,281874
1.7644,0.2835,40.2000,72,95,281877
1.8182,0.2981,39.8900,72,95,281881
1.7742,0.2884,40.0300,72,95,281884
1.7742,0.2835,40.0300,72,95,281887
1.7693,0.2884,40.0300,72,95,281891
1.7693,0.2835,40.1300,72,95,281894
1.7986,0.2933,39.8900,72,95,281897
1.7742,0.2786,40.0300,72,95,281902
1.7840,0.2835,39.9600,72,95,281905
1.7693,0.2835,40.0600,72,95,281908
1.7693,0.2835,40.0600,72,95,281911
1.7937,0.2884,40.0300,72,95,281915
1.7840,0.2835,40.2300,72,95,281918
1.8035,0.2884,39.9600,72,95,281921
1.7937,0.2835,40.1000,72,95,281925
1.7986,0.2688,40.1000,72,95,281928
1.8328,0.2933,39.8900,72,95,281931
1.8182,0.2835,40.0600,72,95,281935
1.8475,0.2835,39.9300,72,95,281938
1.8377,0.2786,39.8900,72,95,281942
1.8475,0.2835,40.0600,72,95,281946
1.8768,0.2933,40.0300,72,95,281949
1.8719,0.2835,40.0600,72,95,281952
1.9208,0.2884,39.8000,72,95,281955
1.9355,0.2786,40.0300,72,95,281959
1.9062,0.2835,40.0600,72,95,281962
1.9355,0.2884,40.0000,72,95,281965
1.9355,0.2884,40.0300,72,95,281969
1.9990,0.2933,39.8300,72,95,281972
1.9501,0.2835,40.0000,72,95,281975
1.9306,0.2786,40.0600,72,95,281979
1.9110,0.2884,40.1000,72,95,281982
1.8719,0.3030,40.0300,72,95,281986
1.9404,0.2981,39.9600,72,95,281989
1.8524,0.2884,40.0000,72,95,281993
1.8231,0.2786,40.0000,72,95,281996
1.8035,0.2835,40.0600,72,95,281999
1.7986,0.2835,40.0600,72,95,282003
1.8328,0.2933,39.9300,72,95,282006
1.7986,0.2835,40.0300,72,95,282009
1.7986,0.2835,40.0000,72,95,282013
1.7595,0.2835,40.0600,72,95,282016
1.7498,0.2835,40.0600,72,95,282019
1.7595,0.3226,39.9600,72,95,282022
1.7351,0.2835,40.0600,72,95,282027
1.7449,0.2884,40.0000,72,95,282030
1.7155,0.3177,40.0600,72,95,282033
1.7204,0.2688,40.0600,72,95,282037
1.7302,0.2835,40.0000,72,95,282040
1.7253,0.2835,40.0600,72,95,282043
1.7498,0.2835,39.9300,72,95,282047
1.7302,0.2884,40.0600,72,95,282050
1.7351,0.2835,40.0600,72,95,282053
1.7595,0.2884,39.9600,72,95,282057
1.7400,0.2786,40.0600,72,95,282060
1.7840,0.2933,39.9300,72,95,282063
1.7546,0.2884,39.9600,72,95,282066
1.7449,0.2835,40.1000,72,95,282071
1.7644,0.2884,40.0300,72,95,282074
1.7546,0.2835,40.0300,72,95,282077
1.8084,0.3030,39.8900,72,95,282081
1.7742,0.2835,40.0300,72,95,282084
1.7449,0.2786,40.1000,72,95,282087
1.7155,0.2981,40.1000,72,95,282091
1.6862,0.2835,40.0600,72,95,282094
1.7204,0.3030,39.8600,72,95,282097
1.7009,0.2933,40.0000,72,95,282100
1.7742,0.2835,40.0600,72,95,282104
1.9062,0.2835,40.0600,73,95,282107
3.4262,0.2835,40.1000,73,95,282113
3.5533,0.2884,40.0600,73,95,282116
3.4702,0.2933,39.9600,73,95,282119
3.0792,0.2835,40.0600,73,95,282123
2.6882,0.2835,39.9300,73,95,282126
2.2092,0.2786,40.0000,73,95,282129
1.8280,0.2835,40.1300,73,95,282133
1.5445,0.2933,40.0000,73,95,282136
1.3294,0.2835,40.0600,73,95,282139
1.2317,0.2835,39.9300,73,95,282142
1.1730,0.2835,39.9600,73,95,282146
1.1486,0.2835,40.0600,73,95,282149
1.2023,0.2884,39.9300,73,95,282152
1.2512,0.2884,40.0600,73,95,282157
1.3539,0.2884,39.8300,73,95,282160
1.3881,0.2835,40.0000,73,95,282163
1.4516,0.2835,40.1000,73,95,282167
1.5103,0.2884,40.0300,73,95,282170
1.5543,0.2835,40.0600,73,95,282173
1.6276,0.3030,39.9600,73,95,282177
1.6227,0.2981,40.0000,73,95,282180
1.6276,0.2835,40.0300,73,95,282183
1.6471,0.2835,40.0000,73,95,282186
1.6618,0.2786,40.0600,73,95,282190
1.7107,0.2933,40.0000,73,95,282193
1.6911,0.3030,40.1000,73,95,282196
1.7351,0.2786,39.9600,73,95,282201
1.7009,0.2835,40.0600,73,95,282204
1.7058,0.2786,40.1600,73,95,282207
1.7400,0.2688,39.9600,73,95,282211
1.7253,0.2835,40.0600,73,95,282214
1.7498,0.3030,40.0300,73,95,282217
1.7302,0.2786,40.0600,73,95,282220
1.7400,0.2835,40.0600,73,95,282224
1.7595,0.2884,40.0000,73,95,282227
1.7546,0.3079,40.0600,73,95,282230
1.7889,0.2884,40.0000,73,95,282234
1.7693,0.2835,40.0600,73,95,282237
1.7986,0.2786,40.0600,73,95,282241
1.8084,0.2884,40.0000,73,95,282245
1.7937,0.2884,40.1000,73,95,282248
1.8280,0.2688,39.8900,73,95,282251
1.8133,0.2835,39.9600,73,95,282254
1.8133,0.2884,40.1000,73,95,282258
1.8328,0.2884,40.0300,73,95,282261
1.8280,0.2835,40.1600,73,95,282264
1.8964,0.2981,39.8600,73,95,282268
1.8573,0.2835,40.0000,73,95,282271
1.8573,0.2835,40.0600,73,95,282274
1.8768,0.2884,40.0600,73,95,282278
1.8768,0.2835,40.0600,73,95,282281
1.9404,0.2981,39.8000,73,95,282285
1.9110,0.2835,39.9600,73,95,282289
1.9110,0.2786,40.1300,73,95,282292
1.9306,0.2835,40.0600,73,95,282295
1.9257,0.2835,40.0600,73,95,282298
1.9892,0.2933,39.8900,73,95,282302
1.9599,0.2884,40.0600,73,95,282305
1.9746,0.2835,39.9600,73,95,282308
1.9795,0.2786,40.1000,73,95,282312
1.9892,0.2786,40.1000,73,95,282315
2.0430,0.2884,39.9300,73,95,282318
2.0186,0.2835,40.0600,73,95,282322
2.0528,0.2884,40.1600,73,95,282326
2.0381,0.2835,40.1000,73,95,282329
2.0870,0.2786,40.1300,73,95,282332
2.0919,0.2933,40.0000,73,95,282336
2.0772,0.2835,39.4400,73,95,282339
2.1114,0.2884,40.0000,73,95,282342
2.0821,0.2835,40.1000,73,95,282346
2.0919,0.2835,40.1000,73,95,282349
2.1114,0.2835,39.9300,73,95,282352
2.1065,0.2835,40.0600,73,95,282356
2.1310,0.2835,39.9300,73,95,282359
2.1017,0.2933,40.0600,73,95,282362
2.1065,0.2835,40.1000,73,95,282365
2.1212,0.2884,40.1000,73,95,282370
2.1163,0.2786,40.0600,73,95,282373
2.1261,0.2884,39.8600,73,95,282376
2.0870,0.2884,40.0600,73,95,282380
2.0528,0.3128,40.1000,73,95,282383
2.0479,0.2884,40.0300,73,95,282386
2.0137,0.2835,40.1300,73,95,282390
2.0430,0.2981,39.8300,73,95,282393
1.9746,0.2835,40.1300,73,95,282396
1.9404,0.2737,40.1000,73,95,282399
1.9208,0.2884,40.0300,73,95,282403
1.8817,0.2835,40.0600,73,95,282406
1.9110,0.3030,39.8900,73,95,282409
1.8377,0.2884,40.1300,73,95,282414
1.8084,0.2835,40.0000,73,95,282417
1.7840,0.2884,40.0600,73,95,282420
1.7546,0.2835,40.1000,73,95,282424
1.7791,0.2981,39.9600,73,95,282427
1.7693,0.2884,40.1000,73,95,282430
1.7253,0.2835,39.9600,73,95,282433
1.6960,0.2786,40.1300,73,95,282437
1.6862,0.2835,40.1000,73,95,282440
1.7107,0.2933,39.9300,73,95,282443
1.6764,0.2835,40.0600,73,95,282447
1.6960,0.2884,40.0000,73,95,282450
1.6716,0.2884,40.1300,73,95,282454
1.6716,0.2688,40.1000,73,95,282458
1.6862,0.3128,40.0000,73,95,282461
1.6667,0.2933,40.0600,73,95,282464
1.6960,0.2835,39.9300,73,95,282468
1.6813,0.2835,40.0000,73,95,282471
1.6911,0.2835,40.0600,73,95,282474
1.7107,0.2884,40.0000,73,95,282477
1.6960,0.2933,40.0600,73,95,282481
1.7400,0.2884,39.9300,73,95,282484
1.7058,0.2786,40.0300,73,95,282487
1.7155,0.2981,40.0600,73,95,282491
1.7400,0.2884,40.0600,73,95,282494
1.7253,0.2835,40.0600,73,95,282498
1.7742,0.2981,39.8900,73,95,282502
1.7498,0.2884,39.9600,73,95,282505
1.7351,0.2786,40.1000,73,95,282508
1.7351,0.2835,40.0600,73,95,282512
1.7449,0.2835,40.0600,73,95,282515
1.7986,0.3030,39.8900,73,95,282518
1.7595,0.2884,40.1000,73,95,282521
1.7546,0.2835,39.9600,73,95,282525
1.7595,0.2688,40.0600,73,95,282528
1.7498,0.2835,40.0600,73,95,282531
1.7889,0.2933,39.9300,73,95,282535
1.7644,0.2835,40.0600,73,95,282539
1.7742,0.2835,39.9600,73,95,282542
1.7546,0.2835,40.0600,73,95,282546
1.7546,0.2835,40.2300,73,95,282549
1.8035,0.2933,40.0300,73,95,282552
1.7595,0.2835,40.0600,73,95,282555
1.7791,0.2884,40.0300,73,95,282559
1.7498,0.2688,40.0300,73,95,282562
1.7546,0.2835,40.1000,73,95,282565
1.7791,0.3128,39.9300,73,95,282569
1.7498,0.2835,40.1000,73,95,282572
1.7693,0.2786,40.0300,73,95,282575
1.7498,0.2688,40.0000,73,95,282579
1.7449,0.2835,40.1000,73,95,282583
1.7595,0.2884,40.0300,73,95,282586
1.7400,0.2835,40.0600,73,95,282590
1.7791,0.2884,39.7300,73,95,282593
1.7449,0.2835,40.0300,73,95,282596
1.7400,0.2835,40.0600,73,95,282599
1.7498,0.2884,40.2000,73,95,282603
1.7351,0.2884,40.0600,73,95,282606
1.7889,0.2933,39.8300,73,95,282609
1.7498,0.2835,40.0300,73,95,282613
1.7498,0.2786,40.0600,73,95,282616
1.7595,0.2884,40.0300,73,95,282619
1.7791,0.2835,40.1300,73,95,282624
1.8035,0.2981,39.9600,73,95,282627
1.7644,0.3030,40.0000,73,95,282630
1.7693,0.2835,40.0000,73,95,282633
1.7498,0.2835,40.0600,73,95,282637
1.7449,0.2884,40.0600,73,95,282640
1.7840,0.2933,39.9300,73,95,282643
1.7546,0.2933,40.1600,73,95,282647
1.7840,0.2835,39.9600,73,95,282650
1.7644,0.2835,40.0600,73,95,282653
1.7693,0.2835,40.0600,73,95,282657
1.7986,0.2933,40.0000,73,95,282660
1.7840,0.2835,40.0300,73,95,282663
1.8182,0.2981,40.0000,73,95,282668
1.7986,0.2688,40.0600,73,95,282671
1.8133,0.2835,40.0300,73,95,282674
1.8377,0.2786,39.9600,73,95,282677
1.8377,0.2835,39.5400,73,95,282681
1.8719,0.2981,39.8900,73,95,282684
1.8573,0.2835,39.9300,73,95,282687
1.8671,0.2786,40.1000,73,95,282691
1.8915,0.2884,40.0000,73,95,282694
1.8866,0.2786,40.1000,73,95,282697
1.9550,0.2933,39.9600,73,95,282701
1.9453,0.2884,40.0000,73,95,282704
1.9306,0.2835,40.1000,73,95,282707
1.9355,0.2835,40.0600,73,95,282712
1.9110,0.2835,40.1600,73,95,282715
1.9453,0.2981,39.8300,73,95,282718
1.8280,0.2884,39.9300,74,95,282723
1.8035,0.2884,40.1000,74,95,282726
1.8133,0.2884,40.0300,74,95,282729
1.7889,0.2835,40.0600,74,95,282733
1.7791,0.2786,40.0600,74,95,282736
1.7742,0.2835,40.0000,74,95,282739
1.7449,0.2835,40.0600,74,95,282743
1.7840,0.2884,39.9600,74,95,282746
1.7155,0.2835,39.9300,74,95,282749
1.7155,0.2835,40.0600,74,95,282754
1.7351,0.2933,39.9600,74,95,282757
1.7155,0.2786,40.0600,74,95,282760
1.7351,0.2884,39.8900,74,95,282764
1.7253,0.3128,39.9600,74,95,282767
1.7204,0.2835,40.0600,74,95,282770
1.7351,0.3030,40.0300,74,95,282773
1.7253,0.2835,40.0600,74,95,282777
1.7644,0.2933,39.8600,74,95,282780
1.7400,0.2835,40.0600,74,95,282783
1.7546,0.2835,40.0600,74,95,282787
1.7498,0.2884,40.0300,74,95,282790
1.7400,0.2835,40.1300,74,95,282793
1.7986,0.2933,39.8000,74,95,282798
1.7595,0.2835,40.0600,74,95,282801
1.7546,0.2884,40.0000,74,95,282804
1.7595,0.2835,40.0600,74,95,282808
1.7400,0.2835,40.2000,74,95,282811
1.7595,0.3030,39.8900,74,95,282814
1.6862,0.2786,40.0300,74,95,282817
1.6813,0.2835,40.0000,74,95,282821
1.6862,0.2835,40.0600,74,95,282824
1.7498,0.2688,40.0600,74,95,282827
1.9159,0.2933,39.9300,74,95,282831
2.0870,0.2786,40.0600,74,95,282834
2.3754,0.2688,39.9300,74,95,282838
2.6784,0.2835,40.0300,74,95,282842
3.0303,0.2835,40.1000,74,95,282845
3.3920,0.2884,40.0000,74,95,282848
3.5044,0.2835,40.0600,74,95,282851
3.4457,0.2884,39.9300,74,95,282855
3.0987,0.2884,40.0600,74,95,282858
2.6686,0.2835,40.0600,74,95,282861
2.2532,0.2884,39.9600,74,95,282865
1.8622,0.2835,40.1000,74,95,282868
1.5738,0.2688,39.9300,74,95,282871
1.3539,0.2835,40.1000,74,95,282875
1.2414,0.2786,40.0600,74,95,282878
1.1926,0.2884,40.0000,74,95,282882
1.1828,0.2786,40.1300,74,95,282885
1.2219,0.2884,39.9600,74,95,282889
1.2659,0.2884,40.0300,74,95,282892
1.3245,0.2786,40.1000,74,95,282895
1.4027,0.2884,40.0600,74,95,282899
1.4516,0.2835,40.1000,74,95,282902
1.5494,0.2933,39.8300,74,95,282905
1.5543,0.2884,40.0000,74,95,282909
1.5787,0.2737,40.0300,74,95,282912
1.5982,0.2688,40.0600,74,95,282915
1.6227,0.2835,40.0600,74,95,282918
1.6911,0.3030,39.8600,74,95,282923
1.6667,0.2884,40.0000,74,95,282926
1.6716,0.2786,40.0300,74,95,282929
1.6716,0.2786,40.0600,74,95,282933
1.6764,0.2835,40.0600,74,95,282936
1.7155,0.2933,39.9600,74,95,282939
1.7009,0.2835,40.0600,74,95,282943
1.7155,0.2835,39.9600,74,95,282946
1.7058,0.2884,40.0600,74,95,282949
1.7155,0.2835,40.0600,74,95,282953
1.7546,0.2884,39.9300,74,95,282956
1.7351,0.2835,40.1000,74,95,282959
1.7644,0.2884,40.0000,74,95,282962
1.7498,0.2786,40.0600,74,95,282967
1.7546,0.2786,40.0600,74,95,282970
1.7986,0.2884,40.0000,74,95,282973
1.7644,0.2835,40.0600,74,95,282977
1.7986,0.2835,39.3200,74,95,282980
1.8084,0.2835,40.0300,74,95,282983
1.7840,0.2835,40.0600,74,95,282987
1.8084,0.2884,40.0000,74,95,282990
1.7937,0.2835,40.0600,74,95,282993
1.8377,0.2933,39.8600,74,95,282996
1.8084,0.2786,40.0000,74,95,283000
1.8182,0.3079,40.1000,74,95,283003
1.8377,0.2884,40.1300,74,95,283006
1.8280,0.3030,40.1000,74,95,283011
1.8964,0.2884,39.8000,74,95,283014
1.8622,0.2884,40.0000,74,95,283017
1.8622,0.2933,40.0600,74,95,283021
1.8768,0.2835,40.0600,74,95,283024
1.8817,0.2835,40.0600,74,95,283027
1.9697,0.2981,39.8900,74,95,283031
1.9159,0.2884,40.1300,74,95,283034
1.9257,0.2835,40.0000,74,95,283037
1.9306,0.2835,40.0600,74,95,283040
1.9404,0.2835,40.0600,74,95,283044
1.9892,0.2981,39.9300,74,95,283047
1.9746,0.2688,40.1000,74,95,283051
2.0039,0.2835,40.0300,74,95,283055
1.9892,0.2835,40.0300,74,95,283058
1.9990,0.2835,40.0600,74,95,283061
2.0283,0.2884,39.9600,74,95,283065
2.0235,0.2835,40.0600,74,95,283068
2.0626,0.2835,39.9600,74,95,283071
2.0381,0.2835,40.0600,74,95,283074
2.0479,0.2835,40.0600,74,95,283078
2.0919,0.3128,39.9600,74,95,283081
2.0674,0.2835,40.1000,74,95,283084
2.0968,0.2835,39.9300,74,95,283088
2.0772,0.2835,40.0600,74,95,283091
2.0772,0.2835,40.0600,74,95,283095
2.0919,0.3128,39.9600,74,95,283099
2.0772,0.2835,40.0600,74,95,283102
2.1163,0.2884,39.8600,74,95,283105
2.0723,0.2835,40.0600,74,95,283108
2.0577,0.2737,40.1000,74,95,283112
2.0674,0.2688,40.0300,74,95,283115
2.0332,0.2835,40.0600,74,95,283118
2.0626,0.2933,39.8300,74,95,283122
1.9990,0.2688,40.0300,74,95,283125
1.9697,0.2835,40.0600,74,95,283128
1.9599,0.3177,40.0600,74,95,283131
1.9208,0.2835,40.0600,74,95,283136
1.9404,0.2981,39.8000,74,95,283139
1.8817,0.2884,39.9300,74,95,283142
1.8671,0.2835,40.0300,74,95,283146
1.8133,0.2884,40.0300,74,95,283149
1.7840,0.2786,40.0300,74,95,283152
1.8084,0.2933,39.8900,74,95,283156
1.7498,0.2786,40.0300,74,95,283159
1.7253,0.2835,40.0000,74,95,283162
1.7009,0.2933,40.0600,74,95,283166
1.6813,0.2835,40.0600,74,95,283169
1.7009,0.2884,39.9600,74,95,283172
1.6667,0.3079,40.1000,74,95,283175
1.6764,0.2884,39.9300,74,95,283180
1.6520,0.2835,40.0300,74,95,283183
1.6471,0.2786,40.0600,74,95,283186
1.6618,0.2835,40.0000,74,95,283190
1.6520,0.2835,40.0600,74,95,283193
1.6764,0.2786,39.9300,74,95,283196
1.6520,0.2835,40.2000,74,95,283200
1.6569,0.2835,40.1300,74,95,283203
1.6813,0.2884,39.9600,74,95,283206
1.6569,0.2835,40.0600,74,95,283210
1.7009,0.2933,39.8900,74,95,283213
1.6813,0.2835,40.0000,74,95,283216
1.6764,0.2835,40.0600,74,95,283219
1.6960,0.2884,40.0300,74,95,283224
1.6862,0.2835,40.0600,74,95,283227
1.7302,0.3030,39.8900,74,95,283230
1.6960,0.2835,40.0300,74,95,283234
1.6960,0.2835,40.3000,74,95,283237
1.7107,0.2884,40.1000,74,95,283240
1.7009,0.2835,40.1600,74,95,283244
1.7595,0.2981,39.8300,74,95,283247
1.7204,0.2786,40.0000,74,95,283250
1.7058,0.2786,40.0300,74,95,283253
1.7155,0.2835,40.0300,74,95,283257
1.7058,0.2688,40.0600,74,95,283260
1.7644,0.2981,40.0000,74,95,283264
1.7351,0.2884,40.0600,74,95,283268
1.7400,0.2786,39.9600,74,95,283271
1.7351,0.2835,40.2300,74,95,283274
1.7253,0.2835,40.0600,74,95,283278
1.7546,0.2933,39.8900,74,95,283281
1.7204,0.2786,40.0600,74,95,283284
1.7498,0.2884,39.9600,74,95,283287
1.7204,0.2835,40.0600,74,95,283291
1.7204,0.2737,40.1000,74,95,283294
1.7449,0.2884,39.9600,74,95,283297
1.7155,0.2835,40.0600,74,95,283301
1.7498,0.2786,39.9600,74,95,283304
1.7204,0.2786,39.7300,74,95,283308
1.7253,0.2981,40.0300,74,95,283312
1.7400,0.2933,39.9600,74,95,283315
1.7253,0.2835,40.0600,74,95,283318
1.7546,0.2933,39.8900,74,95,283322
1.7253,0.2835,40.3600,74,95,283325
1.7253,0.2835,40.0600,74,95,283328
1.7449,0.2884,40.1000,75,95,283331
1.7302,0.2835,40.0600,75,95,283336
1.7302,0.2835,40.0600,75,95,283339
1.7742,0.3030,39.8900,75,95,283343
1.7400,0.2884,40.1300,75,95,283346
1.7498,0.2835,39.9600,75,95,283350
1.7400,0.2688,40.0600,75,95,283354
1.7351,0.2835,40.0600,75,95,283357
1.7644,0.2884,39.9600,75,95,283360
1.7449,0.2835,40.0300,75,95,283364
1.7644,0.2835,40.0000,75,95,283367
1.7449,0.2835,40.0600,75,95,283370
1.7498,0.2933,40.1000,75,95,283374
1.7693,0.2835,40.0300,75,95,283377
1.7595,0.2835,40.0000,75,95,283380
1.7937,0.2835,39.9300,75,95,283383
1.7791,0.2835,39.9600,75,95,283387
1.7937,0.2835,40.0600,75,95,283390
1.8231,0.2884,39.9600,75,95,283394
1.8084,0.2786,40.1000,75,95,283398
1.8573,0.2884,39.8600,75,95,283401
1.8475,0.2884,40.0300,75,95,283404
1.8475,0.2786,40.1000,75,95,283408
1.8622,0.2884,40.0600,75,95,283411
1.8671,0.2835,40.1000,75,95,283414
1.9306,0.2933,39.9600,75,95,283418
1.9306,0.2786,40.0300,75,95,283421
1.9062,0.2786,40.0600,75,95,283424
1.9208,0.2884,40.0600,75,95,283427
1.9013,0.3177,40.0300,75,95,283431
1.9453,0.3030,39.8300,75,95,283435
1.8719,0.2884,40.0000,75,95,283438
1.8475,0.2835,40.0300,75,95,283442
1.8231,0.2835,40.0600,75,95,283445
1.7986,0.2835,40.0600,75,95,283448
1.8328,0.2981,39.9600,75,95,283452
1.7937,0.2884,40.0300,75,95,283455
1.7986,0.2835,40.0000,75,95,283458
1.7791,0.2835,40.0600,75,95,283462
1.7693,0.2835,40.0000,75,95,283465
1.7889,0.2981,39.9300,75,95,283468
1.7449,0.2835,40.1000,75,95,283471
1.7498,0.2884,39.9300,75,95,283475
1.7155,0.2688,40.0600,75,95,283479
1.7058,0.2884,40.1000,75,95,283482
1.7498,0.2933,40.0000,75,95,283486
1.7009,0.2835,40.0600,75,95,283489
1.7204,0.2835,39.8900,75,95,283492
1.6960,0.2786,40.0300,75,95,283496
1.7009,0.2835,40.0600,75,95,283499
1.7155,0.2835,40.0000,75,95,283502
1.7009,0.2786,40.0600,75,95,283505
1.7400,0.2688,39.8600,75,95,283509
1.7107,0.2835,40.1000,75,95,283512
1.7302,0.2688,40.1000,75,95,283515
1.7351,0.2884,39.8900,75,95,283520
1.7107,0.2688,40.1000,75,95,283523
1.7644,0.2933,40.0000,75,95,283526
1.7595,0.2786,39.9600,75,95,283530
1.7351,0.2786,40.1300,75,95,283533
1.7449,0.2786,40.1000,75,95,283536
1.7498,0.2835,40.1000,75,95,283540
1.7644,0.2981,39.8600,75,95,283543
1.7204,0.2786,40.0300,75,95,283546
1.6569,0.2786,40.0000,75,95,283549
1.6569,0.2835,40.2300,75,95,283553
1.6862,0.2835,40.1000,75,95,283556
1.8084,0.2884,40.0300,75,95,283559
1.9306,0.2884,40.0300,75,95,283564
2.1603,0.2786,39.9600,75,95,283567
2.4291,0.2835,40.1000,75,95,283570
2.7908,0.2835,40.1000,75,95,283574
3.1427,0.2884,40.0300,75,95,283577
3.3773,0.2835,40.0600,75,95,283580
3.4800,0.2981,39.9300,75,95,283583
3.2502,0.2835,40.1000,75,95,283587
2.8935,0.2835,40.0600,75,95,283590
2.5122,0.2981,39.9600,75,95,283593
2.0674,0.2835,40.0600,75,95,283597
1.7400,0.3079,40.1000,75,95,283600
1.4956,0.2835,40.0000,75,95,283603
1.2952,0.2835,40.1000,75,95,283608
1.2072,0.2835,40.0000,75,95,283611
1.1535,0.2835,40.1000,75,95,283614
1.1877,0.2884,39.8600,75,95,283617
1.2072,0.3030,40.0300,75,95,283621
1.2659,0.2737,40.1000,75,95,283624
1.3587,0.2688,40.1300,75,95,283627
1.4027,0.2835,40.0000,75,95,283631
1.5005,0.2933,39.8000,75,95,283634
1.5152,0.2786,40.0000,75,95,283637
1.5591,0.2835,40.0600,75,95,283641
1.6227,0.2884,40.0300,75,95,283644
1.6080,0.2835,40.1300,75,95,283648
1.6716,0.2933,39.8900,75,95,283651
1.6520,0.2884,40.0300,75,95,283655
1.6569,0.2786,40.0300,75,95,283658
1.6569,0.2835,40.0600,75,95,283661
1.6716,0.2835,40.0000,75,95,283665
1.7155,0.2933,39.8900,75,95,283668
1.6960,0.2835,40.1600,75,95,283671
1.7107,0.2933,39.9600,75,95,283675
1.7058,0.2835,40.0600,75,95,283678
1.7107,0.2835,40.0600,75,95,283681
1.7400,0.2884,39.9300,75,95,283685
1.7253,0.2835,40.0600,75,95,283688
1.7546,0.2884,39.9600,75,95,283692
1.7351,0.2884,40.0600,75,95,283695
1.7449,0.2835,40.1000,75,95,283699
1.7644,0.2884,40.1000,75,95,283702
1.7595,0.2786,40.0600,75,95,283705
1.7937,0.2835,39.9300,75,95,283709
1.7791,0.2835,40.0600,75,95,283712
1.7742,0.2835,40.0600,75,95,283715
1.8035,0.2884,39.6400,75,95,283719
1.7937,0.2835,40.0600,75,95,283722
1.8377,0.2884,39.8600,75,95,283725
1.8377,0.2933,40.0000,75,95,283729
1.8182,0.2835,40.0000,75,95,283732
1.8377,0.2933,40.0300,75,95,283736
1.8280,0.2835,40.0600,75,95,283739
1.8866,0.2933,39.7700,75,95,283743
1.8524,0.2835,40.0000,75,95,283746
1.8524,0.2786,40.0600,75,95,283749
1.8671,0.2835,40.0600,75,95,283753
1.8671,0.2786,40.0600,75,95,283756
1.9404,0.3030,39.8900,75,95,283759
1.9062,0.2933,40.0000,75,95,283763
1.9159,0.2835,40.0300,75,95,283766
1.9208,0.2835,40.0300,75,95,283769
1.9501,0.2786,40.0300,75,95,283773
1.9844,0.2933,39.9600,75,95,283777
1.9648,0.2786,40.0300,75,95,283780
1.9990,0.2786,39.9600,75,95,283783
1.9844,0.2835,40.0600,75,95,283787
2.0039,0.2786,40.0600,75,95,283790
2.0528,0.2884,39.9300,75,95,283793
2.0283,0.2835,40.0600,75,95,283797
2.0674,0.2835,39.9600,75,95,283800
2.0821,0.2688,40.0300,75,95,283803
2.0577,0.2835,40.1000,75,95,283807
2.0870,0.2933,40.0000,75,95,283810
2.0723,0.2884,40.0600,75,95,283813
2.1065,0.2786,39.9300,75,95,283816
2.0772,0.2835,40.1000,75,95,283821
2.0821,0.2933,40.1300,75,95,283824
2.0968,0.2786,40.0300,75,95,283827
2.0870,0.2835,40.0600,75,95,283831
2.1261,0.2884,39.8600,75,95,283834
2.1017,0.2786,40.1300,75,95,283837
2.0821,0.2835,40.1000,75,95,283840
2.0919,0.2884,39.5100,75,95,283844
2.0577,0.2835,40.0600,75,95,283847
2.0919,0.2933,39.8300,75,95,283850
2.0381,0.2884,40.0000,75,95,283854
1.9990,0.2737,40.0600,75,95,283857
1.9844,0.2884,40.0600,75,95,283860
1.9501,0.2835,40.0600,75,95,283865
1.9795,0.3030,39.8300,75,95,283868
1.9110,0.2884,40.0000,75,95,283871
1.8768,0.2786,40.0600,75,95,283875
1.8524,0.2835,40.0600,75,95,283878
1.8182,0.2835,40.0600,75,95,283881
1.8377,0.2981,39.9300,75,95,283884
1.7742,0.2884,40.0600,75,95,283888
1.7498,0.2835,39.9600,75,95,283891
1.7204,0.2835,40.0600,75,95,283894
1.7009,0.2835,40.1000,75,95,283898
1.7155,0.2933,40.0300,75,95,283901
1.6813,0.2933,40.0300,75,95,283905
1.6960,0.2835,40.0000,75,95,283909
1.6569,0.2835,40.0600,75,95,283912
1.6618,0.2835,40.1000,75,95,283915
1.6862,0.2884,39.9300,75,95,283918
1.6569,0.2688,40.0600,75,95,283922
1.6813,0.2835,39.2800,75,95,283925
1.6569,0.2835,40.0300,75,95,283928
1.6618,0.2835,40.0600,75,95,283932
1.6764,0.2884,40.0000,75,95,283935
1.6667,0.2835,40.1300,75,95,283938
1.7009,0.2884,39.8900,75,95,283942
1.7351,0.2981,39.8900,75,95,283947
1.7058,0.2835,40.0000,75,95,283951
1.7009,0.2786,40.0600,75,95,283954
1.7155,0.2933,40.0600,75,95,283957
1.7107,0.2835,40.1300,75,95,283961
1.7644,0.3177,39.9300,75,95,283964
1.7351,0.2884,40.0300,75,95,283967
1.7351,0.2835,39.9300,75,95,283971
1.7302,0.2835,40.0300,75,95,283974
1.7351,0.2884,40.0300,75,95,283977
1.7644,0.2933,39.9300,75,95,283980
1.7400,0.2884,40.0600,75,95,283984
1.7644,0.2933,39.9300,75,95,283987
1.7351,0.2786,40.0600,75,95,283991
1.7351,0.2835,40.0600,75,95,283995
1.7644,0.2884,39.9600,75,95,283998
1.7400,0.2835,40.1000,75,95,284001
1.7693,0.3128,39.9300,75,95,284005
1.7351,0.2786,40.0600,75,95,284008
1.7498,0.2835,40.0300,75,95,284011
1.7644,0.2884,39.9600,75,95,284015
1.7498,0.2835,40.2000,75,95,284018
1.7791,0.2835,39.8900,75,95,284021
1.7449,0.2786,40.0300,75,95,284024
1.7449,0.3079,40.1000,75,95,284028
1.7644,0.2884,40.0300,75,95,284032
1.7400,0.2884,40.1000,75,95,284035
1.7840,0.2884,39.8300,75,95,284039
1.7546,0.2884,39.9600,75,95,284042
1.7400,0.3079,40.1000,75,95,284045
1.7498,0.2688,40.1000,75,95,284049
1.7498,0.2835,40.2000,75,95,284052
1.7986,0.3275,39.8300,75,95,284055
1.7595,0.2884,40.1000,75,95,284058
1.7498,0.2786,40.0000,75,95,284062
1.7644,0.2786,40.0600,75,95,284065
1.7498,0.2835,40.1000,75,95,284068
1.7889,0.2884,39.9300,75,95,284072
1.7644,0.2688,40.0300,75,95,284076
1.7595,0.2835,40.0000,75,95,284079
1.7449,0.2884,40.0600,75,95,284083
1.7449,0.2835,40.0600,75,95,284086
1.7644,0.3079,40.0000,75,95,284089
1.7546,0.2786,39.9600,75,95,284093
1.7742,0.2884,39.9600,75,95,284096
1.7449,0.2933,40.1000,75,95,284099
1.7498,0.2688,40.1000,75,95,284102
1.7742,0.2884,39.9300,75,95,284106
1.7498,0.2835,40.0600,75,95,284109
1.7742,0.2835,39.9600,75,95,284112
1.7595,0.2835,40.0600,75,95,284116
1.7595,0.2835,40.0600,75,95,284120
1.7840,0.2981,40.1000,75,95,284123
1.7791,0.2835,40.0600,75,95,284127
1.8133,0.2884,39.8600,75,95,284130
1.8035,0.2933,40.0000,75,95,284133
1.8035,0.2786,40.0600,75,95,284136
1.8328,0.2884,40.0300,75,95,284140
1.8231,0.2835,40.1600,75,95,284143
1.8817,0.2981,39.8600,75,95,284146
1.8524,0.2835,40.1600,75,95,284150
1.8622,0.2835,40.0600,75,95,284153
1.8719,0.2786,40.0300,75,95,284156
1.8719,0.2737,40.1000,75,95,284161
1.9453,0.2981,39.8600,75,95,284164
1.9257,0.2884,40.0300,75,95,284167
1.9257,0.2835,40.0300,75,95,284171
1.9257,0.2835,40.0300,75,95,284174
1.9110,0.2835,40.0600,75,95,284177
1.9355,0.2933,39.8900,75,95,284180
1.8671,0.2835,40.0000,75,95,284184
1.8573,0.2933,40.0300,75,95,284187
1.8231,0.2835,40.0600,75,95,284190
1.8084,0.2786,40.0000,75,95,284194
1.8231,0.2884,39.9300,75,95,284197
1.7986,0.2835,40.0600,75,95,284200
1.8182,0.3177,39.9600,75,95,284205
1.7937,0.2835,40.0600,75,95,284208
1.7840,0.3079,40.1600,75,95,284211
1.8133,0.2786,40.0000,75,95,284215
1.7498,0.2835,40.0600,75,95,284218
1.7546,0.2835,39.8600,75,95,284221
1.7204,0.2835,40.0300,75,95,284224
1.7155,0.2835,40.2000,75,95,284228
1.7253,0.2933,40.0000,75,95,284231
1.7107,0.2835,40.0600,75,95,284234
1.7449,0.2933,39.8600,75,95,284238
1.7302,0.2688,40.0000,75,95,284241
1.7155,0.2835,40.1300,75,95,284244
1.7351,0.2933,40.0300,75,95,284249
1.7204,0.2835,40.0600,75,95,284252
1.7693,0.2981,39.8000,75,95,284255
1.7400,0.2835,40.0000,75,95,284258
1.7351,0.2786,40.0600,75,95,284262
1.7449,0.2981,40.0300,75,95,284265
1.7546,0.2884,40.0600,75,95,284268
1.8035,0.2981,39.9600,75,95,284272
1.7644,0.2884,40.0000,75,95,284275
1.7595,0.2786,40.0300,75,95,284278
1.7546,0.2835,39.4400,75,95,284282
1.7400,0.2835,40.1300,75,95,284285
1.7400,0.2933,39.9600,75,95,284289
1.6716,0.2835,40.0300,75,95,284293
1.6520,0.2835,40.0300,75,95,284296
1.6325,0.3177,40.1000,75,95,284299
1.6716,0.2688,40.0600,75,95,284302
1.7937,0.2933,39.9600,75,95,284306
1.9404,0.2786,40.0000,75,95,284309
2.2239,0.2884,40.0600,75,95,284312
2.5269,0.2786,40.0300,75,95,284316
2.9032,0.2884,40.1000,75,95,284319
3.2991,0.2884,40.1300,75,95,284322
3.5288,0.2835,40.0600,75,95,284326
3.6022,0.2835,39.8900,75,95,284329
3.3236,0.2835,39.8300,75,95,284333
2.9423,0.2835,40.0600,75,95,284337
2.4927,0.2884,39.8900,75,95,284340
2.0577,0.2786,40.0300,75,95,284343
1.7546,0.2933,39.8600,75,95,284346
1.4418,0.2786,40.1000,75,95,284350
1.2805,0.2786,40.1000,75,95,284353
1.1877,0.2884,40.0600,75,95,284356
1.1388,0.2835,40.0600,75,95,284360
1.1779,0.2933,39.8000,75,95,284363
1.1975,0.2884,40.0000,75,95,284366
1.2512,0.2835,40.1300,75,95,284370
1.3196,0.2835,40.0600,75,95,284374
1.3783,0.2835,40.0600,75,95,284377
1.4907,0.2981,39.8900,75,95,284380
1.5005,0.2884,40.1600,75,95,284384
1.5347,0.2884,39.9600,75,95,284387
1.5543,0.2835,40.0600,75,95,284390
1.5787,0.2835,40.0600,75,95,284394
1.6276,0.2933,39.9300,75,95,284397
1.6227,0.2884,40.0300,75,95,284400
1.6471,0.2884,39.9600,75,95,284404
1.6422,0.2786,40.0300,75,95,284407
1.6520,0.2835,40.0600,75,95,284410
1.6813,0.2933,40.0000,75,95,284414
1.6667,0.2835,40.0600,75,95,284418
1.7058,0.2884,40.0000,75,95,284421
1.7204,0.2835,40.0600,75,95,284424
1.7009,0.2835,40.0600,75,95,284428
1.7253,0.2884,39.9600,75,95,284431
1.7058,0.2835,40.1000,75,95,284434
1.7400,0.2688,39.9300,75,95,284438
1.7302,0.2835,40.2300,75,95,284441
1.7302,0.2884,40.0300,75,95,284444
1.7546,0.2884,40.0000,75,95,284448
1.7498,0.2835,40.1300,75,95,284451
1.8035,0.2884,39.8600,75,95,284454
1.7791,0.2884,40.0000,75,95,284457
1.7791,0.2884,40.0600,75,95,284462
1.7986,0.2884,40.0600,75,95,284465
1.7986,0.2835,40.0600,75,95,284468
1.8524,0.2981,39.8300,75,95,284472
1.8231,0.2835,40.0000,75,95,284475
1.8280,0.2737,40.0600,75,95,284478
1.8328,0.2835,40.0300,75,95,284482
1.8328,0.2786,40.0600,75,95,284485
1.8866,0.2981,39.8900,75,95,284488
1.8524,0.2884,40.1000,75,95,284492
1.8622,0.3128,40.0000,75,95,284495
1.8622,0.2835,40.0600,75,95,284498
1.8719,0.2884,40.0600,75,95,284502
1.9110,0.2933,39.9300,75,95,284506
1.8964,0.2835,39.9300,75,95,284509
1.9257,0.2786,39.9300,75,95,284512
1.9159,0.2835,40.2000,75,95,284516
1.9306,0.2786,40.0600,75,95,284519
1.9746,0.2933,39.9600,75,95,284522
1.9599,0.3079,40.0300,75,95,284526
1.9990,0.2786,39.9300,75,95,284529
1.9746,0.2786,40.0300,75,95,284532
1.9892,0.3079,40.0600,75,95,284535
2.0283,0.2884,40.0000,75,95,284539
2.0039,0.2835,40.0600,75,95,284542
2.0430,0.2835,39.8900,75,95,284546
2.0186,0.2835,40.1000,75,95,284550
2.0332,0.2688,40.0600,75,95,284553
2.0626,0.2884,40.0000,76,95,284556
2.0626,0.2835,40.0600,76,95,284561
2.0577,0.2835,40.0600,76,95,284564
2.1212,0.2981,39.8600,76,95,284568
2.0723,0.2884,40.0300,76,95,284571
2.0626,0.2786,39.9300,76,95,284574
2.0479,0.2786,40.0600,76,95,284577
2.0332,0.2835,40.0600,76,95,284581
2.0626,0.2933,39.9600,76,95,284584
2.0088,0.2835,40.1000,76,95,284588
1.9941,0.2835,39.9600,76,95,284592
1.9550,0.2835,40.1000,76,95,284595
1.9257,0.2884,40.1000,76,95,284598
1.9257,0.2884,40.0000,76,95,284602
1.8817,0.2835,40.1000,76,95,284605
1.8768,0.2933,39.9300,76,95,284608
1.8231,0.2835,40.1600,76,95,284611
1.7937,0.2884,40.0600,76,95,284615
1.7986,0.2688,40.0000,76,95,284618
1.7400,0.2835,39.9300,76,95,284621
1.7351,0.2835,39.9300,76,95,284625
1.7009,0.2835,40.0000,76,95,284628
1.6862,0.2835,40.0300,76,95,284632
1.6862,0.2688,40.0000,76,95,284636
1.6569,0.2835,39.7300,76,95,284639
1.6813,0.3177,39.8600,76,95,284642
1.6520,0.2884,40.1000,76,95,284646
1.6422,0.2835,39.4400,76,95,284649
1.6862,0.2884,40.0000,76,95,284652
1.6422,0.2835,40.0600,76,95,284655
1.6862,0.2933,39.8300,76,95,284659
1.6520,0.2835,40.0300,76,95,284662
1.6569,0.2786,40.0600,76,95,284665
1.6764,0.2884,40.0300,76,95,284669
1.6618,0.2835,40.2300,76,95,284673
1.7155,0.2981,39.8600,76,95,284676
1.6911,0.2884,39.9600,76,95,284680
1.6813,0.2835,40.0000,76,95,284683
1.6813,0.2835,40.1600,76,95,284686
1.6813,0.2835,40.0300,76,95,284690
1.7253,0.2933,39.9600,76,95,284693
1.7009,0.2884,40.0300,76,95,284696
1.7204,0.2884,39.8600,76,95,284699
1.7009,0.2835,40.0300,76,95,284703
1.7009,0.2835,40.0000,76,95,284706
1.7302,0.2981,39.9600,76,95,284709
1.7058,0.2835,40.1000,76,95,284713
1.7302,0.2933,40.0000,76,95,284717
1.7058,0.2835,40.0600,76,95,284720
1.7155,0.2835,39.8300,76,95,284724
1.7351,0.2786,40.0300,76,95,284727
1.7204,0.2835,40.0300,76,95,284730
1.7498,0.3128,39.8900,76,95,284734
1.7253,0.2835,40.3000,76,95,284737
1.7546,0.2835,40.0600,76,95,284740
1.7449,0.2933,40.0000,76,95,284743
1.7155,0.2835,40.0600,76,95,284747
1.7595,0.2884,39.8600,76,95,284750
1.7351,0.2884,39.9600,76,95,284753
1.7155,0.2884,40.0600,76,95,284758
1.7155,0.2884,40.0300,76,95,284761
1.7204,0.2737,40.1000,76,95,284764
1.7693,0.2981,39.8300,76,95,284768
1.7302,0.2835,40.0600,76,95,284771
1.7253,0.2786,39.7300,76,95,284774
1.7498,0.2835,40.0600,76,95,284778
1.7253,0.2835,40.0600,76,95,284781
1.7693,0.2981,39.9300,76,95,284784
1.7400,0.2933,40.0300,76,95,284788
1.7400,0.2835,39.9600,76,95,284791
1.7204,0.2933,40.0600,76,95,284794
1.7204,0.2835,40.0600,76,95,284797
1.7449,0.2981,39.9600,76,95,284802
1.7302,0.2835,40.0600,76,95,284805
1.7351,0.2884,39.9600,76,95,284808
1.7204,0.2835,40.0300,76,95,284812
1.7107,0.2688,40.0600,76,95,284815
1.7498,0.2933,39.9600,76,95,284818
1.7204,0.2835,40.0600,76,95,284822
1.7449,0.2835,39.9600,76,95,284825
1.7302,0.2835,40.0000,76,95,284828
1.7253,0.2835,40.0600,76,95,284831
1.7351,0.2835,40.0000,76,95,284835
1.7204,0.2835,40.0600,76,95,284838
1.7644,0.2884,39.8600,76,95,284841
1.7351,0.2884,40.0600,76,95,284846
1.7400,0.2786,40.0600,76,95,284849
1.7546,0.2884,40.1000,76,95,284852
1.7351,0.2835,40.0600,76,95,284856
1.7791,0.2884,39.8300,76,95,284859
1.7400,0.2835,40.0300,76,95,284862
1.7498,0.2737,40.1600,76,95,284866
1.7644,0.2884,40.0300,76,95,284869
1.7693,0.2884,40.1600,76,95,284872
1.8328,0.3030,39.8300,76,95,284875
1.7986,0.2933,39.9600,76,95,284879
1.8182,0.2786,40.0000,76,95,284882
1.8084,0.2835,40.0600,76,95,284886
1.8182,0.2835,40.1000,76,95,284890
1.8671,0.2933,39.8900,76,95,284893
1.8475,0.2933,40.1000,76,95,284896
1.9062,0.2835,40.0300,76,95,284900
1.8768,0.2835,40.0600,76,95,284903
1.8964,0.2835,40.1000,76,95,284906
1.9404,0.2884,40.0000,76,95,284910
1.9257,0.2835,40.1600,76,95,284913
1.9404,0.2981,39.9300,76,95,284916
1.9013,0.2688,40.0600,76,95,284919
1.8817,0.2835,40.0600,76,95,284923
1.8817,0.2786,40.0000,76,95,284926
1.8328,0.2835,40.0600,76,95,284930
1.8377,0.2835,40.0000,76,95,284934
1.8035,0.2835,40.0600,76,95,284937
1.7937,0.2835,40.1300,76,95,284940
1.8084,0.3226,39.9600,76,95,284944
1.7742,0.2835,40.0300,76,95,284947
1.8035,0.2835,39.8300,76,95,284950
1.7840,0.2884,39.9600,76,95,284953
1.7400,0.2835,40.1000,76,95,284957
1.7302,0.2884,40.0300,76,95,284960
1.7155,0.2835,40.0600,76,95,284963
1.7546,0.2933,39.8300,76,95,284967
1.7107,0.2835,40.1000,76,95,284971
1.7107,0.2786,40.0600,76,95,284974
1.7155,0.2884,40.0300,76,95,284978
1.7107,0.2786,40.0600,76,95,284981
1.7644,0.3030,39.8300,76,95,284984
1.7302,0.3275,40.0000,76,95,284988
1.7302,0.2786,40.0300,76,95,284991
1.7302,0.2835,40.1300,76,95,284994
1.7400,0.2786,40.0300,76,95,284997
1.7791,0.2981,39.9600,76,95,285001
1.7498,0.3030,40.1000,76,95,285004
1.7693,0.2786,39.9300,76,95,285007
1.7546,0.2981,40.1000,76,95,285011
1.7840,0.2786,40.0600,76,95,285015
1.7986,0.2933,39.9600,76,95,285018
1.7644,0.2884,40.0600,76,95,285022
1.7693,0.2884,39.9300,76,95,285025
1.6960,0.2786,40.2600,76,95,285028
1.6618,0.2884,40.1000,76,95,285031
1.6716,0.2884,40.0000,76,95,285035
1.6862,0.2835,40.0600,76,95,285038
1.8328,0.2835,39.9300,76,95,285041
1.9501,0.2835,39.4400,76,95,285045
2.2239,0.2835,40.0600,76,95,285048
2.5562,0.2884,40.0000,76,95,285051
2.9081,0.2786,40.1300,76,95,285056
3.3431,0.2933,39.8600,76,95,285059
3.5484,0.2786,40.0600,76,95,285062
3.5875,0.3030,40.1000,76,95,285066
3.3822,0.2933,40.0300,76,95,285069
2.9521,0.2835,40.0600,76,95,285072
2.5660,0.2933,39.8300,76,95,285075
2.0870,0.2933,40.0000,76,95,285079
1.7107,0.2786,40.1000,76,95,285082
1.4516,0.2688,40.0600,76,95,285085
1.2757,0.2835,40.1300,76,95,285089
1.2268,0.2933,39.8900,76,95,285092
1.1584,0.2884,39.4800,76,95,285095
1.1632,0.2835,39.9600,76,95,285100
1.1975,0.2835,40.0600,76,95,285103
1.2610,0.2835,40.0000,76,95,285106
1.3636,0.2981,40.0300,76,95,285110
1.4125,0.2835,40.0300,76,95,285113
1.4809,0.2884,39.9600,76,95,285116
1.5152,0.2835,40.0600,76,95,285119
1.5591,0.2884,40.0600,76,95,285123
1.6031,0.2884,40.0000,76,95,285126
1.6178,0.2835,40.0300,76,95,285129
1.6569,0.2884,40.0000,76,95,285133
1.6471,0.2835,40.0600,76,95,285136
1.6667,0.2835,39.9300,76,95,285139
1.6960,0.2933,39.9600,76,95,285144
1.6813,0.2835,40.0600,76,95,285147
1.7155,0.2835,39.8900,76,95,285150
1.7107,0.2835,39.9600,76,95,285154
1.7155,0.2835,40.0600,76,95,285157
1.7253,0.2884,40.0000,76,95,285160
1.7351,0.2786,40.1300,76,95,285163
1.7791,0.2981,39.8300,76,95,285167
1.8182,0.2981,39.8900,77,95,285171
1.7937,0.2884,39.9300,77,95,285175
1.8084,0.2786,40.0000,77,95,285178
1.7986,0.2835,40.0300,77,95,285181
1.7986,0.2835,40.0300,77,95,285186
1.8377,0.2933,39.9300,77,95,285189
1.8231,0.2835,40.0300,77,95,285192
1.8524,0.2884,39.9300,77,95,285196
1.8328,0.2933,40.1000,77,95,285199
1.8426,0.2835,40.0600,77,95,285202
1.8768,0.2933,39.9300,77,95,285206
1.8622,0.2835,40.0600,77,95,285209
1.8964,0.2835,39.8000,77,95,285212
1.8768,0.2884,40.0000,77,95,285216
1.8915,0.2688,40.0600,77,95,285219
1.9110,0.2884,40.0000,77,95,285222
1.9110,0.2884,40.0300,77,95,285225
1.9550,0.2884,39.8900,77,95,285230
1.9355,0.3128,40.0300,77,95,285233
1.9453,0.2688,40.0600,77,95,285236
1.9697,0.2884,40.2300,77,95,285240
1.9550,0.2884,40.0600,77,95,285243
2.0137,0.2884,39.8600,77,95,285246
1.9844,0.2786,39.7000,77,95,285250
1.9990,0.2933,40.1600,77,95,285253
2.0235,0.2933,40.1000,77,95,285256
2.0283,0.2835,40.0600,77,95,285259
2.0968,0.2933,39.8300,77,95,285263
2.0723,0.2835,40.0000,77,95,285266
2.0674,0.2786,40.0300,77,95,285270
2.0821,0.2933,40.0300,77,95,285274
2.0919,0.2688,40.1000,77,95,285277
2.1505,0.2981,39.7000,77,95,285280
2.1163,0.2884,40.0300,77,95,285284
2.1212,0.2835,40.0000,77,95,285287
2.1163,0.2835,40.0600,77,95,285290
2.1163,0.2835,40.0600,77,95,285293
2.1505,0.2688,39.9600,77,95,285297
2.1261,0.2884,40.2000,77,95,285300
2.1408,0.2933,39.9300,77,95,285303
2.1114,0.2835,40.0600,77,95,285307
2.1065,0.2835,40.0600,77,95,285310
2.1114,0.2835,40.0000,77,95,285314
2.0821,0.2835,40.1600,77,95,285318
2.0968,0.2884,40.0300,77,95,285321
2.0479,0.2835,40.0600,77,95,285324
2.0332,0.2835,40.0300,77,95,285327
2.0381,0.2981,40.0300,77,95,285331
1.9844,0.2835,40.0600,77,95,285334
1.9844,0.2835,39.9600,77,95,285337
1.9404,0.2884,40.0000,77,95,285341
1.9013,0.2688,40.0600,77,95,285344
1.8866,0.2884,40.0000,77,95,285347
1.8426,0.2884,40.0300,77,95,285351
1.8573,0.2933,39.8600,77,95,285355
1.7986,0.2981,40.0300,77,95,285358
1.7840,0.2786,40.0600,77,95,285362
1.7742,0.2884,40.0300,77,95,285365
1.7400,0.2835,39.9600,77,95,285368
1.7742,0.2933,39.8000,77,95,285371
1.7253,0.2835,40.0600,77,95,285375
1.7155,0.2786,40.0600,77,95,285378
1.7204,0.2884,40.0000,77,95,285381
1.7058,0.2835,40.0600,77,95,285385
1.7546,0.3030,39.8900,77,95,285388
1.7155,0.2933,40.0000,77,95,285391
1.7107,0.2786,40.0000,77,95,285395
1.7058,0.2835,40.0600,77,95,285399
1.7009,0.2786,40.0600,77,95,285402
1.7498,0.2933,39.9600,77,95,285405
1.7204,0.2884,40.0600,77,95,285409
1.7400,0.2884,39.9300,77,95,285412
1.7253,0.2835,40.0300,77,95,285415
1.7302,0.2835,40.0600,77,95,285419
1.7546,0.2884,39.9600,77,95,285422
1.7400,0.2835,40.1000,77,95,285425
1.7693,0.2884,40.0300,77,95,285429
1.7449,0.2688,40.0600,77,95,285432
1.7546,0.2835,40.1000,77,95,285435
1.7644,0.3030,40.0000,77,95,285438
1.7595,0.2835,40.0300,77,95,285443
1.7889,0.2835,39.9300,77,95,285446
1.7986,0.2786,40.0600,77,95,285449
1.7742,0.2835,40.0300,77,95,285453
1.7937,0.2835,40.0000,77,95,285456
1.7742,0.2835,40.0600,77,95,285459
1.8133,0.2884,39.8600,77,95,285463
1.8231,0.2835,40.0000,77,95,285466
1.7791,0.2835,40.0600,77,95,285469
1.7840,0.2884,40.0300,77,95,285473
1.7791,0.2835,40.0300,77,95,285476
1.8280,0.2933,39.2500,77,95,285479
1.7937,0.2933,40.0000,77,95,285483
1.7840,0.2786,40.0300,77,95,285487
1.7937,0.2933,40.0600,77,95,285490
1.7889,0.2835,40.0600,77,95,285493
1.8377,0.3030,39.9600,77,95,285497
1.8133,0.2933,40.0000,77,95,285500
1.7937,0.2835,40.1000,77,95,285503
1.7840,0.3079,40.1600,77,95,285507
1.7889,0.2835,40.0600,77,95,285510
1.8231,0.2933,40.0000,77,95,285513
1.8328,0.2884,40.0300,77,95,285516
1.8084,0.2835,40.0000,77,95,285520
1.7791,0.2786,40.1000,77,95,285523
1.7791,0.2835,40.0600,77,95,285527
1.8133,0.2933,39.9300,77,95,285531
1.7889,0.2835,40.0300,77,95,285534
1.8084,0.2933,39.9600,77,95,285537
1.7840,0.2786,40.0300,77,95,285541
1.8182,0.2933,40.0600,77,95,285544
1.8035,0.2884,39.9600,77,95,285547
1.7889,0.2835,40.0600,77,95,285551
1.8133,0.2835,39.8900,77,95,285554
1.7937,0.2884,39.9600,77,95,285557
1.7986,0.2688,40.0600,77,95,285560
1.8133,0.2933,40.0000,77,95,285564
1.7937,0.2835,40.0600,77,95,285568
1.8671,0.2933,39.8600,77,95,285571
1.7889,0.2786,40.0300,77,95,285575
1.7937,0.2786,40.1000,77,95,285578
1.8035,0.2884,40.0300,77,95,285581
1.7840,0.2835,40.1000,77,95,285585
1.8426,0.2933,39.8300,77,95,285588
1.8084,0.2884,40.0000,77,95,285591
1.7986,0.2786,40.1000,77,95,285594
1.8084,0.2835,40.1000,77,95,285598
1.8133,0.2835,40.0600,77,95,285601
1.8817,0.2884,39.8900,77,95,285604
1.8426,0.2884,40.0300,77,95,285608
1.8475,0.3128,39.9300,77,95,285612
1.8573,0.2835,40.0600,77,95,285615
1.8573,0.2835,40.2600,77,95,285619
1.9013,0.2933,39.8900,77,95,285622
1.8866,0.2786,39.9300,77,95,285625
1.9159,0.2933,39.9600,77,95,285629
1.9062,0.2835,40.2600,77,95,285632
1.9306,0.2786,40.1300,77,95,285635
1.9501,0.2835,39.9300,77,95,285639
1.9599,0.2884,40.2300,77,95,285642
2.0039,0.2835,39.9300,77,95,285645
1.9746,0.3030,40.1000,77,95,285648
1.9746,0.2786,40.0600,77,95,285652
1.9795,0.2884,40.0300,77,95,285656
1.9355,0.2786,40.0600,77,95,285659
1.9404,0.2688,39.8900,77,95,285663
1.8915,0.2835,39.9300,77,95,285666
1.8524,0.2835,40.0600,77,95,285669
1.8573,0.2884,40.0600,77,95,285673
1.8573,0.2835,40.0600,77,95,285676
1.8719,0.2933,39.8600,77,95,285679
1.8280,0.2786,40.0000,77,95,285683
1.8084,0.2786,40.0600,77,95,285686
1.7986,0.2884,40.0300,77,95,285689
1.7693,0.3128,40.0300,77,95,285692
1.7986,0.3030,39.8300,77,95,285697
1.7546,0.2835,39.9600,77,95,285700
1.7400,0.2786,40.1000,77,95,285703
1.7498,0.2786,40.0600,77,95,285707
1.7400,0.2884,40.0600,77,95,285710
1.7840,0.2933,39.9300,77,95,285713
1.7546,0.2884,40.0300,77,95,285717
1.7595,0.2835,40.0300,77,95,285720
1.7498,0.2688,40.0600,77,95,285723
1.7498,0.2835,40.1000,77,95,285726
1.7889,0.3030,39.9300,77,95,285730
1.7644,0.2688,40.0300,77,95,285733
1.7889,0.2884,40.2300,77,95,285736
1.7791,0.2884,40.0600,77,95,285741
1.7742,0.2835,40.0300,77,95,285744
1.8035,0.3275,39.9600,77,95,285747
1.8182,0.2835,40.0300,77,95,285751
1.8182,0.2835,39.9600,77,95,285754
1.7791,0.2835,40.0300,77,95,285757
1.7546,0.2835,40.0600,77,95,285760
1.7351,0.2884,39.9300,77,95,285764
1.7155,0.2786,40.0600,77,95,285767
1.7302,0.2884,39.8900,77,95,285770
1.7400,0.2786,40.0600,77,95,285774
1.8524,0.2835,40.0600,77,95,285777
2.0381,0.2884,40.0000,78,96,285780
3.5728,0.2981,40.0600,78,96,285786
3.5728,0.2786,40.0600,78,96,285789
3.4115,0.2981,39.9300,78,96,285793
2.9326,0.2884,40.0000,78,96,285796
2.4927,0.2688,40.0600,78,96,285799
2.0626,0.2835,40.0600,78,96,285803
1.7155,0.2835,40.1000,78,96,285806
1.4858,0.2933,39.8600,78,96,285809
1.3050,0.2884,40.0600,78,96,285812
1.2414,0.2835,39.9600,78,96,285816
1.2023,0.2884,40.0600,78,96,285819
1.2072,0.2835,40.1000,78,96,285822
1.2659,0.2981,39.9600,78,96,285827
1.3245,0.2786,40.0300,78,96,285830
1.4125,0.2884,39.9600,78,96,285833
1.4614,0.2786,40.0600,78,96,285837
1.5152,0.2786,40.0600,78,96,285840
1.5934,0.2884,40.0600,78,96,285843
1.6129,0.2835,40.0600,78,96,285846
1.6618,0.2835,39.8900,78,96,285850
1.6667,0.2835,40.0000,78,96,285853
1.6764,0.2835,40.1000,78,96,285856
1.7058,0.2933,40.0300,78,96,285860
1.7351,0.2786,40.0600,78,96,285863
1.7546,0.2884,39.8300,78,96,285867
1.7400,0.2884,40.0000,78,96,285871
1.7498,0.2786,40.1000,78,96,285874
1.7595,0.2884,40.0300,78,96,285877
1.7546,0.2835,40.0600,78,96,285880
1.8084,0.2981,39.8300,78,96,285884
1.7791,0.2835,39.9600,78,96,285887
1.7791,0.2884,40.0600,78,96,285890
1.7840,0.2835,40.0600,78,96,285894
1.7889,0.2835,40.0300,78,96,285897
1.8573,0.3030,39.8600,78,96,285900
1.8182,0.2884,40.0300,78,96,285904
1.8231,0.2835,40.0300,78,96,285907
1.8231,0.2835,40.0300,78,96,285911
1.8231,0.2835,40.2000,78,96,285915
1.8671,0.2884,40.0000,78,96,285918
1.8426,0.3177,40.0300,78,96,285921
1.8671,0.2688,39.9600,78,96,285924
1.8524,0.2835,40.0600,78,96,285928
1.8671,0.2835,40.1000,78,96,285931
1.8964,0.2933,39.9300,78,96,285934
1.8817,0.2933,40.0300,78,96,285938
1.9159,0.2835,39.9300,78,96,285941
1.8915,0.2737,40.0600,78,96,285944
1.9062,0.2835,40.0600,78,96,285948
1.9257,0.2884,39.9300,78,96,285952
1.9257,0.2786,40.0600,78,96,285955
1.9648,0.2884,39.8900,78,96,285959
1.9599,0.2786,40.1000,78,96,285962
1.9501,0.2835,40.0600,78,96,285965
1.9746,0.2884,40.0300,78,96,285969
1.9697,0.2835,40.0600,78,96,285972
2.0283,0.2933,39.8600,78,96,285975
2.0088,0.2835,39.9600,78,96,285978
2.0137,0.2835,40.1000,78,96,285982
2.0283,0.2884,40.0300,78,96,285985
2.0332,0.2835,40.1000,78,96,285988
2.0968,0.2884,39.8300,78,96,285992
2.0674,0.2884,40.0000,78,96,285996
2.0674,0.2835,40.0600,78,96,285999
2.0870,0.2835,40.0300,78,96,286003
2.0919,0.2688,40.0600,78,96,286006
2.1554,0.2981,39.9600,78,96,286009
2.1212,0.2933,40.0300,78,96,286012
2.1310,0.2835,40.0000,78,96,286016
2.1212,0.2835,40.0600,78,96,286019
2.1261,0.2835,40.0600,78,96,286022
2.1554,0.2933,39.8600,78,96,286026
2.1457,0.2884,40.0600,78,96,286029
2.1603,0.2884,39.9300,78,96,286032
2.1359,0.2835,40.0600,78,96,286036
2.1310,0.2835,40.0600,78,96,286040
2.1603,0.2933,39.8300,78,96,286043
2.1212,0.2688,40.0600,78,96,286046
2.1457,0.2835,39.9600,78,96,286050
2.0968,0.2835,40.0000,78,96,286053
2.0821,0.2688,40.0600,78,96,286056
2.0870,0.2884,39.9300,78,96,286060
2.0430,0.2835,40.0300,78,96,286063
2.0772,0.2835,39.8900,78,96,286066
2.0088,0.2835,40.0000,78,96,286070
1.9746,0.2835,40.0600,78,96,286073
1.9746,0.2981,39.9600,78,96,286076
1.9257,0.2835,40.0600,78,96,286080
1.9404,0.2933,39.9300,78,96,286084
1.8671,0.2786,40.0300,78,96,286087
1.8475,0.2835,40.0600,78,96,286090
1.8377,0.2688,40.0000,78,96,286094
1.8035,0.2835,40.0600,78,96,286097
1.8377,0.3030,39.8300,78,96,286100
1.7889,0.2884,39.9600,78,96,286104
1.7595,0.2786,40.0600,78,96,286107
1.7498,0.2786,40.0600,78,96,286110
1.7400,0.2835,40.0300,78,96,286114
1.7791,0.2933,39.8900,78,96,286117
1.7449,0.2884,40.0300,78,96,286120
1.7449,0.2835,40.0000,78,96,286124
1.7351,0.2835,40.1000,78,96,286128
1.7253,0.2835,40.0600,78,96,286131
1.7595,0.2981,39.9300,78,96,286134
1.7351,0.2835,40.0600,78,96,286138
1.7595,0.2884,40.0000,78,96,286141
1.7400,0.2786,40.0600,78,96,286144
1.7351,0.2835,40.1600,78,96,286148
1.7498,0.2786,39.9600,78,96,286151
1.7449,0.2835,40.0600,78,96,286154
1.7693,0.2835,39.9300,78,96,286158
1.7449,0.2835,40.0600,78,96,286161
1.7546,0.2835,40.0600,78,96,286164
1.7937,0.2884,39.9300,78,96,286168
1.7644,0.2835,40.0300,78,96,286172
1.7986,0.2933,39.8600,78,96,286175
1.7840,0.2884,39.9600,78,96,286178
1.7742,0.2884,40.1000,78,96,286182
1.7937,0.2884,40.1000,78,96,286185
1.7791,0.2933,40.0600,78,96,286188
1.8280,0.2933,39.8900,78,96,286192
1.7937,0.2884,39.9600,78,96,286195
1.7840,0.2786,40.0600,78,96,286198
1.7986,0.2884,40.0300,78,96,286202
1.7840,0.2835,40.1000,78,96,286205
1.8328,0.3030,39.8900,78,96,286209
1.8035,0.2884,39.9600,78,96,286212
1.7889,0.2786,40.0000,78,96,286216
1.7889,0.2835,40.0600,78,96,286219
1.7840,0.2835,39.3800,78,96,286222
1.8280,0.3030,39.9600,78,96,286226
1.7986,0.2884,40.1000,78,96,286229
1.8035,0.2835,40.0000,78,96,286232
1.7937,0.2688,40.0600,78,96,286236
1.7937,0.2835,40.0600,78,96,286239
1.8231,0.2933,39.8900,78,96,286242
1.7937,0.2835,40.0600,78,96,286246
1.8133,0.2884,39.9300,78,96,286249
1.7937,0.2835,40.1300,78,96,286253
1.7937,0.2835,40.1300,78,96,286256
1.8133,0.2884,39.9300,78,96,286260
1.7937,0.2835,40.0300,78,96,286263
1.8426,0.2786,39.8600,78,96,286266
1.7937,0.2835,40.0000,78,96,286270
1.7937,0.2884,40.1000,78,96,286273
1.8084,0.2688,39.9600,78,96,286276
1.7937,0.2835,40.0600,78,96,286280
1.8280,0.2933,39.8600,78,96,286283
1.7889,0.2786,40.0600,78,96,286286
1.7937,0.2835,40.0600,78,96,286289
1.8084,0.2933,40.0000,78,96,286294
1.7937,0.2835,40.0600,78,96,286297
1.8426,0.2933,39.8600,78,96,286300
1.8133,0.2884,40.0000,78,96,286304
1.8084,0.2786,40.0600,78,96,286307
1.8084,0.2933,40.1000,78,96,286310
1.8035,0.2835,40.0600,78,96,286314
1.8573,0.3030,39.8900,78,96,286317
1.8133,0.2884,40.0000,78,96,286320
1.8133,0.2688,39.9600,78,96,286324
1.8133,0.2835,40.0300,78,96,286327
1.8182,0.2688,40.0600,78,96,286330
1.8524,0.2884,39.9600,78,96,286333
1.8231,0.2786,40.0300,78,96,286338
1.8328,0.2884,40.0000,78,96,286341
1.8182,0.3079,40.1000,78,96,286344
1.8133,0.2835,40.0600,78,96,286348
1.8328,0.2884,39.9300,78,96,286351
1.8133,0.2884,40.0600,78,96,286354
1.8475,0.2933,39.9600,78,96,286358
1.8524,0.2835,40.1300,78,96,286361
1.8328,0.2835,40.0600,78,96,286364
1.8719,0.2933,39.9600,78,96,286368
1.8573,0.2835,40.0600,78,96,286371
1.8964,0.2835,39.8900,78,96,286374
1.8866,0.2835,39.9600,78,96,286377
1.8866,0.2835,40.0600,78,96,286382
1.9110,0.2884,40.0300,78,96,286385
1.9013,0.2835,40.2300,78,96,286388
1.9550,0.2933,39.8300,78,96,286392
2.0332,0.2981,39.9300,78,96,286396
1.9941,0.2884,39.8900,78,96,286400
1.9892,0.2835,40.0000,78,96,286403
1.9550,0.2835,40.0600,78,96,286406
1.9306,0.3030,40.1000,78,96,286410
1.9404,0.2884,39.9600,78,96,286413
1.8915,0.2884,40.0600,78,96,286416
1.8866,0.2884,40.0000,78,96,286420
1.8524,0.2688,40.0600,78,96,286424
1.8475,0.2835,40.0600,78,96,286427
1.8719,0.3079,39.9300,78,96,286430
1.8328,0.2835,40.0600,78,96,286434
1.8377,0.2884,40.0000,78,96,286437
1.7937,0.2835,40.0300,78,96,286440
1.7742,0.2835,40.0600,78,96,286444
1.7840,0.2933,39.9600,78,96,286447
1.7595,0.2786,40.0600,78,96,286450
1.7791,0.2835,39.8900,78,96,286454
1.7595,0.2835,40.0000,78,96,286457
1.7546,0.2835,40.0600,78,96,286460
1.7693,0.2884,40.1600,78,96,286464
1.7498,0.2835,40.0600,78,96,286468
1.7986,0.2884,39.8600,78,96,286471
1.7546,0.2835,40.0300,78,96,286474
1.7595,0.2835,40.0600,78,96,286478
1.7742,0.2884,40.1000,78,96,286481
1.7644,0.2786,40.0600,78,96,286484
1.8182,0.2933,39.8600,78,96,286488
1.7889,0.3079,40.0000,78,96,286491
1.8133,0.2786,40.0600,78,96,286494
1.7889,0.2835,40.0600,78,96,286498
1.7889,0.2884,40.0600,78,96,286501
1.8426,0.2981,40.0000,78,96,286504
1.7840,0.3079,40.0000,78,96,286508
1.7498,0.2835,40.0000,78,96,286512
1.7155,0.2835,40.0600,78,96,286515
1.6960,0.2835,40.0300,78,96,286518
1.7498,0.2933,39.8900,78,96,286522
1.7986,0.2884,40.0000,78,96,286525
1.9355,0.2981,39.9300,78,96,286528
2.1114,0.2835,40.0600,78,96,286532
2.3754,0.2981,40.0600,78,96,286535
2.7273,0.2884,40.1000,78,96,286538
3.0596,0.2835,40.0600,78,96,286542
3.4164,0.2933,40.1000,78,96,286545
3.5093,0.2835,40.0600,78,96,286548
3.4018,0.2835,40.0600,78,96,286552
3.1329,0.2933,39.9600,78,96,286556
2.6686,0.2835,40.0600,78,96,286559
2.2776,0.2884,39.8600,78,96,286562
1.8964,0.2835,39.9600,78,96,286566
1.5885,0.2835,40.0600,78,96,286569
1.4272,0.2884,40.0300,78,96,286572
1.2805,0.2835,40.1300,78,96,286576
1.2561,0.3128,39.8300,78,96,286579
1.2317,0.2835,40.0000,78,96,286582
1.2512,0.2835,40.0600,78,96,286585
1.3196,0.2884,40.0300,78,96,286589
1.3783,0.2835,40.1000,78,96,286593
1.4809,0.2933,39.8300,78,96,286596
1.5396,0.2786,39.9600,78,96,286600
1.5640,0.2786,39.8600,78,96,286603
1.6080,0.2835,40.0600,78,96,286606
1.6373,0.2835,40.0600,78,96,286610
1.7058,0.3030,39.8900,78,96,286613
1.6862,0.2786,40.0300,78,96,286616
1.7058,0.2835,39.9600,78,96,286620
1.7107,0.2884,40.0600,78,96,286623
1.7253,0.2835,40.0600,78,96,286626
1.7644,0.2933,39.8600,78,96,286629
1.7449,0.2835,40.0300,78,96,286633
1.7693,0.2884,40.0000,78,96,286637
1.7546,0.2884,40.0600,78,96,286640
1.7595,0.2688,40.1000,78,96,286644
1.8035,0.2981,39.9300,78,96,286647
1.7889,0.2835,40.0600,78,96,286650
1.8231,0.2688,39.9300,78,96,286654
1.7986,0.2786,40.0600,78,96,286657
1.7986,0.2786,40.0600,78,96,286660
1.8231,0.2835,39.9600,78,96,286663
1.8133,0.2884,40.1000,78,96,286667
1.8768,0.2786,39.8900,78,96,286670
1.8280,0.2835,40.0300,78,96,286673
1.8377,0.2835,40.1300,78,96,286678
1.8622,0.2884,40.0300,78,96,286681
1.8768,0.2835,40.0300,78,96,286684
1.9013,0.2933,39.8300,78,96,286688
1.8817,0.2933,39.9600,78,96,286691
1.8768,0.2835,40.0600,78,96,286694
1.8866,0.2835,40.0000,78,96,286698
1.8866,0.2786,40.1300,78,96,286701
1.9453,0.3030,40.0300,78,96,286704
1.9257,0.2786,40.0000,78,96,286708
1.9159,0.2786,40.0600,78,96,286711
1.9257,0.2835,40.0300,78,96,286714
1.9306,0.2835,40.0600,78,96,286717
1.9892,0.2981,39.9600,78,96,286722
1.9648,0.2933,40.0000,78,96,286725
1.9746,0.2688,39.9600,78,96,286728
1.9697,0.2835,40.1000,78,96,286732
1.9844,0.2835,40.0600,78,96,286735
2.0186,0.2884,40.0000,78,96,286738
2.0039,0.2835,40.0000,78,96,286742
2.0381,0.3177,39.8900,78,96,286745
2.0283,0.2835,40.1000,78,96,286748
2.0381,0.2835,40.0300,78,96,286751
2.0919,0.2981,39.9600,78,96,286755
2.0626,0.2835,40.0600,78,96,286758
2.1065,0.2835,39.9300,78,96,286761
2.1017,0.2786,40.0000,78,96,286766
2.0968,0.2835,40.0600,78,96,286769
2.1261,0.2884,39.9600,78,96,286772
2.1114,0.2835,40.0600,78,96,286776
2.1457,0.2884,39.8900,78,96,286779
2.1261,0.2835,39.9600,78,96,286782
2.1163,0.2835,40.0600,78,96,286785
2.1505,0.2933,39.9600,78,96,286789
2.1261,0.3177,40.0300,78,96,286792
2.1799,0.2933,39.8300,78,96,286795
2.1261,0.2786,40.0600,78,96,286799
2.1310,0.2835,40.0600,78,96,286802
2.1359,0.2884,40.0000,78,96,286806
2.1212,0.2835,40.0600,78,96,286810
2.1701,0.2933,39.8300,78,96,286813
2.1163,0.2884,39.9600,78,96,286816
2.0919,0.2786,40.0300,78,96,286819
2.0723,0.2786,40.0600,78,96,286823
2.0479,0.2835,40.1000,78,96,286826
2.0870,0.2981,39.8600,78,96,286829
2.0137,0.2933,40.0300,78,96,286833
1.9892,0.2835,39.9600,78,96,286836
1.9550,0.2835,40.0300,78,96,286839
1.9257,0.3030,40.0600,78,96,286843
1.9355,0.2688,39.9300,78,96,286846
1.8817,0.2835,39.8900,78,96,286850
1.8768,0.2884,39.9300,78,96,286853
1.8280,0.2835,40.0300,78,96,286857
1.7986,0.2981,40.0600,78,96,286860
1.7986,0.2884,40.0300,78,96,286863
1.7693,0.2835,40.0300,78,96,286867
1.7791,0.3177,39.9600,78,96,286870
1.7400,0.2835,40.0600,78,96,286873
1.7351,0.3079,40.0600,78,96,286877
1.7498,0.2933,39.9300,78,96,286880
1.7204,0.3079,40.1000,78,96,286883
1.7546,0.2884,39.8900,78,96,286887
1.7204,0.2835,39.9600,78,96,286891
1.7155,0.2981,40.1000,78,96,286894
1.7253,0.2884,40.0000,78,96,286897
1.7155,0.2981,40.0600,78,96,286901
1.7546,0.2933,39.8300,78,96,286904
1.7351,0.2835,40.0000,78,96,286907
1.7204,0.2835,40.0600,78,96,286911
1.7644,0.2884,40.0300,78,96,286914
1.7302,0.2835,40.1300,78,96,286917
1.7840,0.2933,39.2500,78,96,286921
1.7449,0.2835,39.9300,78,96,286924
1.7449,0.2786,40.0600,78,96,286927
1.7791,0.2786,40.0300,78,96,286930
1.7498,0.2835,40.1000,78,96,286935
1.8035,0.3030,39.8900,78,96,286938
1.7986,0.2933,40.0300,78,96,286941
1.7693,0.2835,39.9600,78,96,286945
1.7840,0.2786,40.0600,78,96,286948
1.7595,0.2835,40.0600,78,96,286951
1.7937,0.2884,40.0000,78,96,286955
1.7791,0.2688,40.0300,78,96,286958
1.7889,0.2884,39.9600,78,96,286961
1.7644,0.2884,40.0300,78,96,286965
1.7742,0.2884,40.0600,78,96,286968
1.7937,0.2933,39.9600,78,96,286971
1.7693,0.3128,40.1000,78,96,286974
1.7889,0.2933,39.9300,78,96,286979
1.7693,0.2786,40.0600,78,96,286982
1.7986,0.2835,40.0600,78,96,286985
1.7791,0.2835,39.9600,78,96,286989
1.7693,0.2933,40.1000,78,96,286992
1.7986,0.2884,39.8900,78,96,286995
1.7693,0.2835,40.1000,78,96,286999
1.7693,0.2835,40.0600,78,96,287002
1.7840,0.2933,39.9600,79,96,287005
1.7595,0.2835,40.0000,79,96,287010
1.7546,0.3177,40.0600,79,96,287013
1.8182,0.2981,39.8600,79,96,287017
1.7693,0.2884,40.0600,79,96,287021
1.7986,0.2786,39.9600,79,96,287024
1.7644,0.2835,40.0600,79,96,287027
1.7644,0.2835,39.9600,79,96,287031
1.8084,0.2981,40.0000,79,96,287034
1.7791,0.2884,40.0300,79,96,287037
1.7889,0.2835,39.9600,79,96,287041
1.7693,0.3079,40.0600,79,96,287044
1.7644,0.2835,40.0600,79,96,287047
1.7840,0.2884,40.2000,79,96,287051
1.7644,0.3079,40.0600,79,96,287054
1.7840,0.2933,39.9300,79,96,287057
1.7595,0.2835,40.1000,79,96,287060
1.7595,0.2737,40.0600,79,96,287065
1.7840,0.2933,39.9300,79,96,287068
1.7644,0.2835,40.0600,79,96,287071
1.7937,0.2688,39.9300,79,96,287075
1.7693,0.2835,39.8600,79,96,287078
1.7644,0.2786,40.1000,79,96,287081
1.7791,0.2884,39.9300,79,96,287085
1.7644,0.2786,40.0600,79,96,287088
1.8035,0.2884,39.8600,79,96,287091
1.7791,0.3324,40.1000,79,96,287094
1.7742,0.2688,40.0600,79,96,287098
1.7937,0.2884,40.0000,79,96,287101
1.7791,0.2835,40.0300,79,96,287105
1.8280,0.2884,39.8300,79,96,287109
1.7889,0.2835,40.0300,79,96,287112
1.8084,0.2835,40.0300,79,96,287115
1.7937,0.2933,40.0300,79,96,287119
1.7889,0.2835,40.0600,79,96,287122
1.8475,0.2884,39.9600,79,96,287125
1.8084,0.2884,40.0300,79,96,287129
1.8084,0.2835,39.9300,79,96,287132
1.8133,0.2835,40.0600,79,96,287135
1.8231,0.2835,39.4800,79,96,287138
1.8719,0.2933,39.8900,79,96,287142
1.8377,0.3177,40.0000,79,96,287145
1.8671,0.2835,39.9300,79,96,287149
1.8475,0.2835,40.0600,79,96,287153
1.8524,0.2835,40.0600,79,96,287156
1.8866,0.2884,39.9600,79,96,287159
1.8817,0.2835,40.0600,79,96,287163
1.9208,0.2884,40.0300,79,96,287166
1.9062,0.2786,40.1000,79,96,287169
1.9208,0.2688,40.0600,79,96,287172
1.9599,0.2835,40.0000,79,96,287176
1.9550,0.2835,40.0300,79,96,287179
1.9746,0.2884,39.9300,79,96,287182
1.9355,0.2835,40.1000,79,96,287186
1.9208,0.2786,40.0600,79,96,287190
1.9257,0.2884,40.0300,79,96,287193
1.8768,0.2835,40.1300,79,96,287197
1.8915,0.2884,39.8600,79,96,287200
1.8524,0.2884,40.0000,79,96,287203
1.8280,0.2884,40.0600,79,96,287207
1.8328,0.2884,39.9600,79,96,287210
1.8133,0.2981,40.0600,79,96,287213
1.8475,0.2884,39.8300,79,96,287216
1.7889,0.2884,40.0300,79,96,287220
1.7595,0.2786,40.0600,79,96,287223
1.7546,0.2688,39.9600,79,96,287226
1.7302,0.2835,40.0600,79,96,287230
1.7742,0.3177,39.8600,79,96,287234
1.7351,0.2884,40.0000,79,96,287237
1.7302,0.2835,40.1000,79,96,287241
1.7302,0.2688,40.0600,79,96,287244
1.7302,0.2835,40.0600,79,96,287247
1.7693,0.2981,39.9600,79,96,287250
1.7400,0.2884,40.0300,79,96,287254
1.7546,0.2835,39.9600,79,96,287257
1.7449,0.2786,40.0600,79,96,287260
1.7400,0.2835,40.0600,79,96,287264
1.7742,0.2933,39.8900,79,96,287267
1.7449,0.2835,40.0300,79,96,287270
1.7791,0.2933,40.0300,79,96,287275
1.7644,0.2884,40.0300,79,96,287278
1.7644,0.2835,40.0600,79,96,287281
1.7889,0.2835,39.9600,79,96,287285
1.7644,0.2835,40.0600,79,96,287288
1.7546,0.2835,39.9600,79,96,287291
1.6911,0.2835,40.0300,79,96,287294
1.6618,0.2835,40.0600,79,96,287298
1.6716,0.3177,39.9600,79,96,287301
1.6813,0.2835,40.0600,79,96,287304
1.8084,0.2884,39.8600,79,96,287308
1.9306,0.2786,40.0300,79,96,287311
2.1701,0.2688,40.0600,79,96,287314
2.5024,0.2884,40.0000,79,96,287319
2.8592,0.2933,40.0600,79,96,287322
3.3138,0.2933,39.8000,79,96,287325
3.5239,0.2884,40.0000,79,96,287328
3.5582,0.2884,40.0600,79,96,287332
3.3675,0.2884,40.0300,79,96,287335
2.9814,0.2835,40.0600,79,96,287338
2.6149,0.2884,39.8900,79,96,287342
2.1310,0.2835,40.0600,79,96,287345
1.7644,0.2835,40.0300,79,96,287348
1.4858,0.2835,40.1300,79,96,287352
1.3050,0.2835,40.1000,79,96,287355
1.2317,0.3177,39.9300,79,96,287358
1.1681,0.2884,40.0300,79,96,287363
1.1730,0.2835,40.0000,79,96,287366
1.1975,0.2786,40.0600,79,96,287369
1.2561,0.2835,40.0600,79,96,287372
1.3441,0.3177,40.0300,79,96,287376
1.3978,0.2835,40.0600,79,96,287379
1.4761,0.2933,40.0300,79,96,287382
1.5005,0.2835,40.0600,79,96,287386
1.5445,0.2835,40.0600,79,96,287389
1.5934,0.2933,40.0000,79,96,287392
1.5934,0.2688,40.0600,79,96,287396
1.6373,0.2835,39.9300,79,96,287399
1.6373,0.2786,39.9600,79,96,287403
1.6520,0.2835,40.0600,79,96,287406
1.6764,0.2981,40.1000,79,96,287410
1.6911,0.2786,40.0600,79,96,287413
1.7253,0.2884,39.7700,79,96,287416
1.7058,0.2933,40.0000,79,96,287420
1.7058,0.2835,40.1600,79,96,287423
1.7253,0.2884,39.9300,79,96,287426
1.7058,0.2786,40.0600,79,96,287430
1.7644,0.2933,39.8300,79,96,287433
1.7546,0.2786,39.9600,79,96,287436
1.7351,0.2786,40.0300,79,96,287440
1.7498,0.3030,40.0600,79,96,287443
1.7546,0.2835,40.0600,79,96,287447
1.8133,0.2981,39.8900,79,96,287450
1.7791,0.2835,40.0300,79,96,287454
1.7742,0.2786,39.9300,79,96,287457
1.7986,0.2933,40.0600,79,96,287460
1.7889,0.2835,40.0600,79,96,287464
1.8328,0.3128,39.9300,79,96,287467
1.8133,0.2835,40.1000,79,96,287470
1.8377,0.2884,39.8900,79,96,287474
1.8475,0.2786,40.0600,79,96,287477
1.8231,0.2835,40.1000,79,96,287480
1.8573,0.2933,39.9600,79,96,287484
1.8426,0.2835,40.0600,79,96,287488
1.8768,0.2835,39.9300,79,96,287491
1.8573,0.2786,40.0600,79,96,287494
1.8671,0.2835,39.9600,79,96,287498
1.8915,0.2933,39.9600,79,96,287501
1.8817,0.2835,40.1300,79,96,287504
1.9257,0.2933,39.9300,79,96,287508
1.9013,0.2835,40.0600,79,96,287511
1.9159,0.2884,40.0600,79,96,287514
1.9404,0.2884,40.0000,79,96,287518
1.9355,0.3275,40.0600,79,96,287521
2.0039,0.2884,39.8600,79,96,287524
1.9746,0.2688,40.0000,79,96,287528
1.9746,0.2835,40.0600,79,96,287532
2.0039,0.2835,40.0300,79,96,287535
1.9892,0.2835,40.0600,79,96,287538
2.0528,0.2981,39.8300,79,96,287542
2.0186,0.2835,40.0000,79,96,287545
2.0235,0.2786,40.1000,79,96,287548
2.0332,0.2884,40.0600,79,96,287552
2.0381,0.2835,40.0300,79,96,287555
2.1065,0.3275,39.8900,79,96,287558
2.0723,0.2884,40.0000,79,96,287561
2.0723,0.2835,40.0300,79,96,287565
2.0674,0.2835,40.0300,79,96,287568
2.0723,0.2835,40.0600,79,96,287571
2.1114,0.2933,39.9600,79,96,287576
2.0821,0.2884,40.1000,79,96,287579
2.0968,0.2835,39.9300,79,96,287582
2.0723,0.2835,39.8300,79,96,287586
2.0674,0.2933,40.0600,79,96,287589
2.1017,0.2933,39.9300,79,96,287592
2.0577,0.3079,40.1300,79,96,287596
2.0870,0.2933,39.9300,79,96,287599
2.0235,0.2737,40.1300,79,96,287602
2.0088,0.2835,40.0300,79,96,287605
2.0137,0.2884,39.9600,79,96,287609
1.9697,0.2835,40.1300,79,96,287612
1.9697,0.2933,39.8900,79,96,287616
1.8768,0.2933,39.8300,79,96,287621
1.7986,0.3128,40.0000,79,96,287624
1.7644,0.2786,40.0000,79,96,287628
1.7595,0.2884,40.0300,79,96,287631
1.7302,0.2835,40.1000,79,96,287634
1.7693,0.3030,39.9300,79,96,287638
1.7204,0.2981,40.0000,79,96,287641
1.7058,0.2835,40.0000,79,96,287644
1.6960,0.2835,40.0600,79,96,287648
1.6911,0.2835,40.0300,79,96,287651
1.7204,0.2933,39.8900,79,96,287654
1.6911,0.2835,40.0600,79,96,287657
1.7009,0.2933,39.9300,79,96,287662
1.6862,0.2835,40.0600,79,96,287665
1.6813,0.2835,40.0600,79,96,287668
1.7058,0.2884,39.9600,79,96,287672
1.6862,0.2835,40.0600,79,96,287675
1.7107,0.3079,40.0300,79,96,287678
1.6862,0.2688,40.0600,79,96,287682
1.7058,0.3128,40.0300,79,96,287685
1.7253,0.2786,39.9600,79,96,287688
1.7204,0.2835,40.1300,79,96,287691
1.7449,0.2835,39.9300,79,96,287695
1.7253,0.2835,40.1300,79,96,287698
1.7253,0.2786,40.0600,79,96,287702
1.7546,0.2933,39.9600,79,96,287706
1.7351,0.2786,40.0600,79,96,287709
1.7791,0.2933,39.8600,79,96,287712
1.7595,0.3128,39.9600,79,96,287716
1.7449,0.2786,40.0600,79,96,287719
1.7546,0.2884,40.0300,79,96,287722
1.7400,0.2786,40.1000,79,96,287726
1.7937,0.2688,39.8000,79,96,287729
1.7840,0.3226,39.9600,79,96,287732
1.7742,0.2786,40.0300,79,96,287736
1.7449,0.2884,40.0300,79,96,287739
1.7400,0.3030,40.1600,79,96,287742
1.7937,0.2981,39.9300,79,96,287746
1.7546,0.2884,40.0300,79,96,287750
1.7546,0.2835,39.9600,79,96,287753
1.7449,0.2835,40.0600,79,96,287756
1.7449,0.3030,40.0300,79,96,287760
1.7693,0.2933,39.9600,79,96,287763
1.7498,0.2884,40.0300,79,96,287766
1.7644,0.2835,39.9300,79,96,287770
1.7449,0.2835,40.0600,79,96,287773
1.7449,0.2835,40.0600,79,96,287776
1.7693,0.2884,39.9300,79,96,287779
1.7449,0.2835,40.0000,79,96,287783
1.7742,0.2835,39.9300,79,96,287787
1.7449,0.2786,40.0300,79,96,287790
1.7400,0.2835,40.0300,79,96,287794
1.7595,0.2884,40.0000,79,96,287797
1.7400,0.2835,40.0600,79,96,287800
1.7644,0.2884,39.8900,79,96,287804
1.7498,0.2835,40.0000,79,96,287807
1.7498,0.2835,39.9600,79,96,287810
1.7693,0.2981,40.0300,79,96,287813
1.7595,0.2786,40.0300,79,96,287817
1.7986,0.2933,39.8300,79,96,287820
1.7791,0.2835,40.0300,79,96,287823
1.7595,0.2835,40.0600,79,96,287827
1.7644,0.2884,40.0300,79,96,287831
1.7546,0.2688,40.1000,79,96,287834
1.8035,0.2981,39.7700,79,96,287838
1.7693,0.2933,39.9600,79,96,287841
1.7595,0.2786,40.0300,79,96,287844
1.7546,0.2835,40.0600,79,96,287848
1.7595,0.2835,40.0300,79,96,287851
1.8084,0.2981,39.9300,79,96,287854
1.7693,0.2688,40.0300,79,96,287857
1.7791,0.2835,39.9300,79,96,287861
1.7644,0.2884,40.0600,79,96,287864
1.7595,0.2835,40.0600,79,96,287867
1.7889,0.2933,39.8900,79,96,287872
1.7791,0.2786,40.0300,79,96,287875
1.7840,0.2884,39.8900,79,96,287878
1.7595,0.2835,40.0600,79,96,287882
1.7595,0.2835,40.0600,79,96,287885
1.7742,0.2835,40.0000,79,96,287888
1.7889,0.2786,40.0300,79,96,287892
1.7937,0.2835,39.9300,79,96,287895
1.7889,0.2835,40.1000,79,96,287898
1.7693,0.2835,40.0600,79,96,287901
1.7937,0.2884,39.9600,79,96,287905
1.7742,0.2786,40.0600,79,96,287908
1.7937,0.2884,39.9300,79,96,287911
1.7791,0.2835,39.9600,79,96,287916
1.7693,0.2835,40.0600,79,96,287919
1.8182,0.2884,40.0300,79,96,287922
1.7742,0.2835,40.0600,79,96,287926
1.8231,0.2933,39.2200,79,96,287929
1.7937,0.2835,40.0000,79,96,287932
1.7840,0.2835,40.1300,79,96,287936
1.7937,0.2884,40.0300,79,96,287939
1.7937,0.2835,40.0600,79,96,287942
1.8573,0.3030,39.9600,79,96,287945
1.8231,0.2981,40.0000,79,96,287949
1.8280,0.2786,40.0000,79,96,287952
1.8328,0.2884,40.1600,79,96,287955
1.8377,0.2835,40.0600,79,96,287960
1.8915,0.2981,39.9300,79,96,287963
1.8719,0.2884,40.0300,79,96,287966
1.9013,0.2835,40.0300,79,96,287970
1.9062,0.2835,40.0600,79,96,287973
1.9208,0.2835,40.1300,79,96,287976
1.9648,0.2933,39.9600,79,96,287980
1.9306,0.2835,40.0600,79,96,287983
1.9501,0.2933,39.8900,79,96,287986
1.9208,0.2835,40.0300,79,96,287989
1.8817,0.2835,40.0600,79,96,287993
1.8964,0.2884,39.9600,79,96,287996
1.8280,0.2835,40.0600,79,96,288000
1.8328,0.2835,39.9600,79,96,288004
1.7986,0.2835,40.0000,79,96,288007
1.7889,0.2786,40.0600,79,96,288010
1.7986,0.2884,39.9600,79,96,288014
1.7693,0.2884,40.0600,79,96,288017
1.7937,0.2933,39.8600,79,96,288020
1.7351,0.2786,40.0000,79,96,288023
1.7302,0.2884,40.1300,79,96,288027
1.7400,0.2884,40.0300,79,96,288030
1.7204,0.3079,40.1000,79,96,288033
1.7644,0.3030,39.8300,79,96,288037
1.7351,0.2884,40.1000,79,96,288040
1.7253,0.2786,40.0600,79,96,288044
1.7351,0.2884,40.0300,79,96,288048
1.7253,0.2835,39.5100,79,96,288051
1.7791,0.2933,39.8600,79,96,288054
1.7449,0.2884,40.0000,79,96,288058
1.7449,0.2933,40.0600,79,96,288061
1.7449,0.2835,40.1300,79,96,288064
1.7449,0.2835,39.9600,79,96,288067
1.8035,0.2688,39.8900,79,96,288071
1.7595,0.2884,40.0600,79,96,288074
1.7742,0.2835,39.9300,79,96,288077
1.7595,0.2835,40.1000,79,96,288081
1.7644,0.2835,40.0600,79,96,288084
1.7644,0.2884,40.0000,79,96,288088
1.7155,0.2884,40.0600,79,96,288092
1.7155,0.2884,40.0000,79,96,288095
1.6520,0.2835,40.1300,79,96,288098
1.6569,0.2884,40.0600,79,96,288102
1.7400,0.2933,40.0000,79,96,288105
1.8426,0.2835,39.9300,79,96,288108
2.1114,0.2933,39.8900,79,96,288111
2.3607,0.2835,39.4100,79,96,288115
2.7126,0.2933,40.0600,79,96,288118
3.1329,0.2884,40.0600,79,96,288121
3.4604,0.2786,40.0600,79,96,288125
3.7341,0.2884,39.8300,79,96,288129
3.6022,0.2884,40.0000,79,96,288132
3.2551,0.2835,40.2000,79,96,288136
2.8299,0.2981,40.0300,79,96,288139
2.3558,0.2835,40.0600,79,96,288142
1.9990,0.2933,39.8300,79,96,288145
1.6520,0.2835,40.0600,79,96,288149
1.3734,0.2786,40.0300,79,96,288152
1.2366,0.2835,40.0600,79,96,288155
1.1632,0.2688,40.0300,79,96,288159
1.1681,0.2981,39.8600,79,96,288162
1.1632,0.2786,40.0300,79,96,288165
1.2170,0.2786,39.9600,79,96,288169
1.2805,0.2835,40.0300,79,96,288173
1.3490,0.2835,40.1000,79,96,288176
1.4516,0.2884,39.8900,79,96,288179
1.4809,0.2884,40.0300,79,96,288183
1.5396,0.2835,39.9300,79,96,288186
1.5640,0.2835,40.0600,79,96,288189
1.5934,0.2835,40.0600,79,96,288193
1.6325,0.2884,39.9300,79,96,288196
1.6373,0.2835,40.0300,79,96,288199
1.6764,0.2835,39.9600,79,96,288203
1.6618,0.2835,40.0600,79,96,288206
1.6764,0.2835,40.0600,79,96,288209
1.7009,0.2786,39.9600,79,96,288214
1.7009,0.2884,40.0600,79,96,288217
1.7302,0.2688,39.9300,79,96,288220
1.7155,0.2884,40.1300,79,96,288223
1.7253,0.2835,40.0600,79,96,288227
1.7449,0.2884,40.2300,79,96,288230
1.7742,0.2884,40.0300,79,96,288235
1.7742,0.2835,40.0600,79,96,288238
1.8328,0.3030,39.8600,79,96,288241
1.8182,0.2884,40.0000,79,96,288245
1.8035,0.2786,40.0000,79,96,288248
1.8133,0.2835,40.1300,79,96,288251
1.8133,0.2835,40.1300,79,96,288256
1.8622,0.2933,39.9600,79,96,288259
1.8426,0.2884,40.0300,79,96,288262
1.8573,0.2933,39.9600,79,96,288266
1.8475,0.2835,40.0000,79,96,288269
1.8622,0.2835,40.0600,79,96,288272
1.8866,0.2884,40.0300,79,96,288275
1.8768,0.2884,40.0300,79,96,288279
1.9110,0.2933,39.9600,79,96,288282
1.8964,0.3030,40.0600,79,96,288285
1.9110,0.2933,40.1000,79,96,288289
1.9550,0.2933,39.9600,79,96,288292
1.9355,0.2933,40.0600,79,96,288295
1.9648,0.2835,39.9300,79,96,288300
1.9599,0.2835,40.0000,79,96,288303
1.9697,0.2786,40.0600,79,96,288306
1.9990,0.2884,39.9600,79,96,288309
1.9941,0.2884,40.0600,79,96,288313
2.0528,0.2884,39.9300,79,96,288316
2.0283,0.2884,40.0300,79,96,288319
2.0283,0.2884,40.1000,79,96,288323
2.0674,0.2933,40.0000,79,96,288326
2.0479,0.2835,40.0600,79,96,288329
2.1065,0.2933,39.8900,79,96,288333
2.0723,0.2786,40.0000,79,96,288336
2.0772,0.2835,40.1000,79,96,288339
2.0968,0.2884,40.0300,79,96,288343
2.0870,0.2835,40.0600,79,96,288347
2.1799,0.3030,39.8300,79,96,288350
2.1163,0.2884,40.0600,79,96,288353
2.1065,0.2786,40.0300,79,96,288357
2.1212,0.2835,40.0600,79,96,288360
2.1163,0.2835,40.1300,79,96,288363
2.1701,0.2835,39.8600,79,96,288367
2.1261,0.2884,40.1000,79,96,288370
2.1359,0.2835,39.9300,79,96,288373
2.1114,0.2835,40.0300,79,96,288376
2.0968,0.2835,40.0600,79,96,288380
2.1163,0.2884,39.9300,79,96,288384
2.0772,0.2835,40.0300,79,96,288387
2.0821,0.2884,39.9600,79,96,288391
2.0332,0.2835,40.1000,79,96,288394
2.0137,0.2835,40.0600,79,96,288397
2.0039,0.2933,39.5400,79,96,288401
1.9648,0.2835,40.0300,79,96,288404
1.9697,0.2835,39.9300,79,96,288407
1.9110,0.2835,40.0300,79,96,288411
1.8817,0.2884,40.0600,79,96,288414
1.8817,0.2884,39.9600,79,96,288417
1.8377,0.2835,40.0600,79,96,288420
1.8475,0.2884,39.8600,79,96,288424
1.8084,0.2835,40.1600,79,96,288428
1.7791,0.2835,40.0300,79,96,288431
1.7791,0.2884,39.3500,79,96,288435
1.7498,0.2835,40.1000,79,96,288438
1.7791,0.2933,39.8300,79,96,288441
1.7400,0.2884,40.1000,79,96,288445
1.7204,0.2786,40.0600,79,96,288448
1.7351,0.2884,40.0000,79,96,288451
1.7204,0.2884,40.0600,79,96,288454
1.7742,0.2981,39.8300,79,96,288458
1.7400,0.2835,39.9600,79,96,288461
1.7302,0.2786,39.9300,79,96,288464
1.7498,0.2786,40.0300,79,96,288468
1.7351,0.2835,40.1300,79,96,288472
1.8182,0.3030,39.9300,79,96,288475
1.7644,0.2884,40.0300,79,96,288479
1.7693,0.3177,40.0300,79,96,288482
1.7595,0.2835,40.0600,79,96,288485
1.7644,0.2835,40.0300,79,96,288489
1.8035,0.2884,39.9300,79,96,288492
1.7791,0.2835,40.0300,79,96,288495
1.7986,0.2884,39.8600,79,96,288498
1.7937,0.2786,40.1000,79,96,288502
1.7840,0.2835,40.0600,79,96,288505
1.8133,0.3275,40.0000,79,96,288508
1.7937,0.2786,40.0600,79,96,288513
1.8133,0.2835,39.9600,79,96,288516
1.7840,0.2835,40.0300,79,96,288519
1.7840,0.2835,40.0600,79,96,288523
1.8084,0.2884,39.9300,79,96,288526
1.8035,0.2835,40.0600,79,96,288529
1.8231,0.2884,39.8600,79,96,288532
1.7937,0.2835,40.1000,79,96,288536
1.7986,0.2688,40.0600,79,96,288539
1.8182,0.2933,40.0300,79,96,288542
1.7889,0.2786,40.0600,79,96,288546
1.8426,0.2933,39.8300,79,96,288549
1.8133,0.2933,39.9600,79,96,288552
1.7986,0.2688,40.1000,79,96,288557
1.8035,0.3177,40.0600,79,96,288560
1.7937,0.2835,40.0300,79,96,288563
1.8475,0.3030,39.8000,79,96,288567
1.8084,0.2884,40.0600,79,96,288570
1.7937,0.2933,40.0000,79,96,288573
1.7986,0.2688,40.0300,79,96,288576
1.7986,0.2835,40.0600,79,96,288580
1.8475,0.2933,39.9300,79,96,288583
1.8231,0.2884,40.0000,79,96,288586
1.8231,0.2835,39.8600,79,96,288590
1.8280,0.2786,40.0600,79,96,288593
1.8084,0.2835,40.2300,79,96,288596
1.8280,0.3030,39.9600,79,96,288601
1.8084,0.2835,40.0300,79,96,288604
1.8280,0.2835,39.9600,79,96,288607
1.8231,0.2786,40.0600,79,96,288610
1.8035,0.2835,40.0600,79,96,288614
1.8328,0.2933,39.9300,79,96,288617
1.8035,0.2835,40.1300,79,96,288620
1.8280,0.2835,39.9300,79,96,288624
1.7986,0.2737,40.0000,79,96,288627
1.8035,0.2835,40.0300,79,96,288630
1.8231,0.2933,39.9600,79,96,288634
1.7986,0.2835,40.0300,79,96,288637
1.8328,0.2884,39.8900,79,96,288641
1.8084,0.2688,40.0000,79,96,288645
1.8084,0.2835,40.1000,79,96,288648
1.8328,0.2933,39.3200,79,96,288651
1.8133,0.2835,40.0600,79,96,288654
1.8622,0.2933,39.8300,79,96,288658
1.8182,0.2835,40.0000,79,96,288661
1.8133,0.2835,40.0600,79,96,288664
1.8280,0.2884,40.0000,79,96,288668
1.8231,0.2835,40.0600,79,96,288671
1.8719,0.3030,39.8300,79,96,288674
1.8328,0.2884,40.0000,79,96,288678
1.8084,0.2786,40.0300,79,96,288681
1.8182,0.2835,40.0000,79,96,288685
1.8182,0.2884,40.1600,79,96,288688
1.8622,0.2933,39.8900,79,96,288692
1.8280,0.2786,40.0300,79,96,288695
1.8475,0.2688,39.9300,79,96,288698
1.8231,0.2835,40.0600,79,96,288702
1.8231,0.2737,40.1000,79,96,288705
1.8524,0.2933,39.9600,79,96,288708
1.8328,0.2835,40.0300,79,96,288712
1.8817,0.2884,39.9300,79,96,288715
1.8231,0.2835,40.1000,79,96,288718
1.8475,0.2786,40.0300,79,96,288722
1.8328,0.2835,39.9600,79,96,288726
1.8231,0.2884,40.0600,79,96,288729
1.8866,0.2835,39.9300,79,96,288732
1.8231,0.2835,40.0300,79,96,288736
1.8671,0.2786,40.0600,79,96,288739
1.8719,0.2884,39.9600,79,96,288742
1.8573,0.2786,40.0300,79,96,288746
1.9013,0.2884,39.8600,79,96,288749
1.8915,0.3128,40.0000,79,96,288752
1.8866,0.2835,40.0600,79,96,288756
1.9110,0.2884,40.1000,79,96,288759
1.9013,0.2981,40.0300,79,96,288762
1.9599,0.2933,39.8300,79,96,288765
1.9306,0.2884,40.0300,79,96,288770
1.9355,0.2835,40.1000,79,96,288773
1.9599,0.2884,40.0300,79,96,288776
1.9648,0.2835,40.0300,79,96,288780
2.0381,0.2981,39.8900,79,96,288783
2.0039,0.2933,40.0000,79,96,288786
1.9892,0.2786,40.2000,79,96,288790
1.9795,0.2933,40.1300,79,96,288793
1.9550,0.2835,40.1300,79,96,288796
1.9746,0.2933,39.9600,79,96,288800
1.9159,0.2884,40.0300,79,96,288803
1.8964,0.2884,39.9300,79,96,288806
1.8671,0.2835,40.0600,79,96,288809
1.8524,0.2835,40.1300,79,96,288814
1.9062,0.2933,39.9600,79,96,288817
1.8377,0.2835,40.0300,79,96,288820
1.8475,0.2884,39.9300,79,96,288824
1.8084,0.2786,40.0600,79,96,288827
1.7889,0.2835,40.1300,79,96,288830
1.7986,0.2884,39.9600,79,96,288834
1.7693,0.2835,40.0600,79,96,288837
1.7889,0.3128,39.9300,79,96,288840
1.8084,0.2933,39.8600,79,96,288844
1.7742,0.2835,40.0000,79,96,288848
1.7742,0.2933,40.0300,79,96,288852
1.7791,0.2688,40.0300,79,96,288856
1.7791,0.2884,40.0600,79,96,288859
1.8622,0.2981,39.8300,79,96,288862
1.7986,0.2884,39.8600,79,96,288866
1.7937,0.2835,40.1000,79,96,288869
1.7937,0.2835,40.0600,79,96,288872
1.7937,0.2835,40.0600,79,96,288876
1.8328,0.2933,39.8900,79,96,288879
1.7791,0.2835,40.0600,79,96,288882
1.7498,0.2884,39.9300,79,96,288886
1.7107,0.2835,40.1000,79,96,288889
1.6911,0.2835,40.0600,79,96,288892
1.7351,0.2884,39.9300,79,96,288897
1.7840,0.2835,40.0600,79,96,288900
1.9404,0.2835,39.9300,79,96,288903
2.1212,0.2835,40.1000,79,96,288906
2.4047,0.2835,40.0600,79,96,288910
2.7615,0.2786,40.0300,79,96,288913
3.1134,0.2688,40.0600,79,96,288916
3.4751,0.2835,39.9600,79,96,288920
3.5973,0.2835,40.0600,79,96,288923
3.4653,0.2688,40.0600,79,96,288926
3.1672,0.2884,39.9600,79,96,288930
2.7028,0.2835,40.0600,79,96,288933
2.3069,0.2884,39.9300,79,96,288936
1.8915,0.2884,39.9300,79,96,288940
1.5689,0.2835,40.0600,79,96,288944
1.3881,0.2884,40.0000,79,96,288947
1.2610,0.2786,40.0600,79,96,288950
1.2414,0.2884,39.8300,79,96,288954
1.2023,0.2933,40.0300,79,96,288957
1.2561,0.2786,40.0600,79,96,288960
1.2854,0.2884,40.0300,79,96,288964
1.3490,0.2835,40.0300,79,96,288967
1.4614,0.2981,39.8300,79,96,288970
1.4956,0.2884,40.0000,79,96,288974
1.5640,0.2786,40.0000,79,96,288977
1.5787,0.2786,40.0300,79,96,288980
1.6129,0.2933,40.1000,79,96,288984
1.6716,0.2981,39.9300,79,96,288988
1.6667,0.2884,40.1300,79,96,288991
1.6960,0.2933,39.9300,79,96,288994
1.6862,0.2835,40.0600,79,96,288998
1.7058,0.2786,40.0600,79,96,289001
1.7351,0.2933,39.8900,79,96,289004
1.7449,0.2884,40.0600,79,96,289008
1.7546,0.2884,39.9300,79,96,289011
1.7302,0.2786,40.0000,79,96,289014
1.7546,0.2835,40.1000,79,96,289018
1.7693,0.2884,39.3200,79,96,289021
1.7546,0.2884,40.0600,79,96,289025
1.7937,0.2688,39.8900,79,96,289028
1.7742,0.3128,40.0000,79,96,289032
1.8084,0.2835,40.0600,79,96,289035
1.8035,0.2884,39.9600,79,96,289038
1.7937,0.2835,40.0600,79,96,289042
1.8377,0.2981,39.8300,79,96,289045
1.8084,0.2786,40.0300,79,96,289048
1.8182,0.2835,40.0600,79,96,289052
1.8377,0.2786,40.0300,79,96,289055
1.8280,0.2835,40.2000,79,96,289058
1.8817,0.3030,39.8000,79,96,289061
1.8817,0.2786,40.0000,79,96,289065
1.8524,0.2835,40.1600,79,96,289069
1.8671,0.2933,40.1000,79,96,289072
1.8719,0.2688,40.0300,79,96,289076
1.9404,0.3030,39.8600,79,96,289079
1.9013,0.2786,40.0600,79,96,289082
1.9110,0.2688,40.0000,79,96,289086
1.9159,0.2835,39.9300,79,96,289089
1.9208,0.2786,40.0300,79,96,289092
1.9697,0.2933,39.9300,79,96,289095
1.9501,0.2835,40.0300,79,96,289099
1.9746,0.2835,39.9300,79,96,289102
1.9599,0.2835,40.0000,79,96,289105
1.9697,0.2835,40.0600,79,96,289110
1.9990,0.2884,40.0600,79,96,289113
1.9941,0.2835,40.0300,79,96,289116
2.0283,0.2933,39.9600,79,96,289120
2.0186,0.2835,40.1300,79,96,289123
2.0381,0.2933,40.0600,79,96,289126
2.0723,0.2933,39.9300,79,96,289130
2.0528,0.2835,40.0600,79,96,289133
2.0919,0.2786,39.8900,79,96,289136
2.0821,0.2835,40.0000,79,96,289139
2.0870,0.2835,39.9600,79,96,289143
2.1457,0.2933,40.0000,79,96,289146
2.0968,0.2835,40.0600,79,96,289149
2.1408,0.2884,39.8900,79,96,289154
2.1163,0.2884,40.0300,79,96,289157
2.1114,0.2835,40.0600,79,96,289160
2.1310,0.2884,40.0600,79,96,289164
2.1114,0.2884,40.0300,79,96,289167
2.1799,0.2933,39.8000,79,96,289170
2.1261,0.2835,39.9600,79,96,289173
2.1163,0.2835,40.0600,79,96,289177
2.1261,0.2884,40.0300,79,96,289180
2.1114,0.2737,40.1000,79,96,289183
2.1652,0.3030,39.8600,79,96,289187
2.1065,0.2933,39.5400,79,96,289190
2.0772,0.2786,40.0000,79,96,289193
2.0528,0.2835,40.0300,79,96,289198
2.0332,0.2835,40.1600,79,96,289201
2.0626,0.3030,39.8900,79,96,289204
1.9990,0.2884,40.0300,79,96,289207
1.9844,0.2835,39.8900,79,96,289211
1.9501,0.2835,40.0600,79,96,289214
1.9110,0.2835,40.0600,79,96,289217
1.9159,0.2933,39.8900,79,96,289221
1.8719,0.2688,40.0300,79,96,289224
1.8573,0.2884,39.9300,79,96,289227
1.8084,0.2933,40.1000,79,96,289231
1.7840,0.2835,40.0600,79,96,289234
1.7791,0.2835,40.0000,79,96,289238
1.7840,0.2835,40.0600,79,96,289241
1.7644,0.2688,39.9300,79,96,289245
1.7253,0.2884,40.0600,79,96,289248
1.7400,0.2786,40.1300,79,96,289251
1.7400,0.2933,39.9600,79,96,289255
1.7107,0.2884,40.0600,79,96,289258
1.7351,0.2884,39.8900,79,96,289261
1.7204,0.2884,39.9600,79,96,289265
1.7155,0.2835,40.0600,79,96,289268
1.7253,0.3275,40.1000,79,96,289271
1.7107,0.2688,40.0600,79,96,289275
1.7693,0.2933,39.8300,79,96,289278
1.7400,0.2884,40.1000,79,96,289282
1.7351,0.2786,40.0600,79,96,289286
1.7449,0.2835,40.0300,79,96,289289
1.7449,0.2688,40.0300,79,96,289292
1.7986,0.3030,39.8600,79,96,289295
1.7595,0.2981,39.9600,79,96,289299
1.7595,0.2835,40.0000,79,96,289302
1.7644,0.2835,39.9300,79,96,289305
1.7595,0.2835,40.0600,79,96,289309
1.8084,0.2981,39.9600,79,96,289312
1.7840,0.2933,40.1000,79,96,289315
1.7986,0.2835,39.9300,79,96,289319
1.7791,0.2933,40.0300,79,96,289323
1.7840,0.2835,40.0600,79,96,289326
1.8182,0.2933,39.9600,79,96,289329
1.7986,0.2688,40.0600,79,96,289333
1.8133,0.2933,40.0000,79,96,289336
1.7937,0.2737,40.0300,79,96,289339
1.7937,0.2688,40.0600,79,96,289343
1.8182,0.3177,40.0300,79,96,289346
1.7986,0.2786,40.0600,79,96,289349
1.8182,0.2835,39.9600,79,96,289353
1.7986,0.2786,39.9600,79,96,289356
1.7986,0.2835,40.0600,79,96,289359
1.8133,0.2884,39.9600,79,96,289363
1.7889,0.2835,40.0600,79,96,289367
1.8280,0.2933,39.8600,79,96,289370
1.7937,0.2786,40.0000,79,96,289373
1.7889,0.2835,40.0600,79,96,289377
1.7986,0.2884,39.8900,79,96,289380
1.7840,0.2835,40.0600,79,96,289383
1.8231,0.2933,39.7700,79,96,289387
1.7986,0.2933,39.9600,79,96,289390
1.7693,0.2786,40.1300,79,96,289393
1.7791,0.2835,40.0300,79,96,289397
1.7644,0.2835,40.0600,79,96,289400
1.8182,0.2981,39.8600,79,96,289403
1.7742,0.2884,40.0300,79,96,289408
1.7791,0.2835,40.0000,79,96,289411
1.7693,0.2835,40.1000,79,96,289414
1.7644,0.2835,40.1300,79,96,289417
1.8035,0.2933,40.2300,79,96,289421
1.7840,0.2884,40.0300,79,96,289424
1.7986,0.2884,39.9300,79,96,289427
1.7791,0.2835,40.2000,79,96,289431
1.7840,0.2835,40.0600,79,96,289434
1.7986,0.2884,40.0000,79,96,289437
1.7840,0.2835,39.9300,79,96,289441
1.8084,0.2981,39.9600,79,96,289444
1.7791,0.2835,40.1000,79,96,289447
1.7791,0.2835,40.0600,79,96,289451
1.8231,0.2933,39.9600,78,96,289455
1.8084,0.2884,40.0300,78,96,289460
1.7937,0.2835,40.1000,78,96,289463
1.8426,0.2933,39.8000,78,96,289466
1.8084,0.2884,40.0000,78,96,289469
1.7986,0.2786,40.1600,78,96,289473
1.8133,0.2884,40.0300,78,96,289476
1.7986,0.2835,40.0600,78,96,289479
1.8573,0.3030,39.8300,78,96,289483
1.8182,0.2933,40.0000,78,96,289486
1.8133,0.2835,40.0000,78,96,289489
1.8084,0.2933,40.0300,78,96,289494
1.8035,0.2835,40.0600,78,96,289497
1.8426,0.2981,39.8900,78,96,289500
1.8133,0.2786,40.0300,78,96,289503
1.8280,0.2835,39.9600,78,96,289507
1.8084,0.2835,40.0600,78,96,289510
1.7986,0.2835,40.0600,78,96,289513
1.8426,0.2933,39.8300,78,96,289517
1.8133,0.2688,40.0300,78,96,289520
1.8377,0.2884,39.9300,78,96,289523
1.8377,0.2835,40.0600,78,96,289527
1.8182,0.2835,40.0600,78,96,289530
1.8377,0.2933,39.9600,78,96,289533
1.8182,0.2835,40.0600,78,96,289538
1.8475,0.2835,40.0300,78,96,289541
1.8377,0.2786,39.9600,78,96,289544
1.8377,0.2835,40.0600,78,96,289547
1.8719,0.2933,39.9600,78,96,289551
1.8573,0.2835,40.0600,78,96,289554
1.9062,0.2884,39.8300,78,96,289557
1.8719,0.2786,40.0300,78,96,289561
1.8817,0.2835,40.0300,78,96,289564
1.9013,0.2981,40.0300,78,96,289567
1.8964,0.2835,39.7000,78,96,289571
1.9599,0.3030,39.7700,78,96,289574
1.9404,0.2884,39.9600,78,96,289577
1.9404,0.2786,40.0300,78,96,289581
1.9599,0.2835,40.0300,78,96,289585
1.9746,0.2884,40.0600,78,96,289588
2.0430,0.3030,39.9600,78,96,289591
1.9990,0.2884,40.0000,78,96,289595
1.9941,0.2786,40.0000,78,96,289598
1.9697,0.2835,40.0600,78,96,289601
1.9453,0.2981,40.0600,78,96,289605
1.9941,0.2884,39.9300,78,96,289608
1.9062,0.2884,40.1000,78,96,289611
1.8964,0.3275,39.9600,78,96,289614
1.8671,0.2835,40.0600,78,96,289618
1.8524,0.2884,40.1000,78,96,289622
1.8573,0.2884,40.0300,78,96,289625
1.8280,0.2835,40.0300,78,96,289629
1.8377,0.2933,39.9600,78,96,289632
1.7937,0.2835,40.1300,78,96,289635
1.7791,0.2981,40.0300,78,96,289639
1.7889,0.2933,40.0300,78,96,289642
1.7546,0.3128,40.0600,78,96,289645
1.7791,0.2884,39.8900,78,96,289649
1.7546,0.2835,40.0000,78,96,289652
1.7498,0.2884,40.0300,78,96,289655
1.7693,0.2884,39.8600,78,96,289659
1.7498,0.2835,40.1000,78,96,289662
1.7791,0.2688,39.8300,78,96,289666
1.7693,0.2835,40.3300,78,96,289669
1.7546,0.2835,40.1600,78,96,289673
1.7742,0.2884,40.0300,78,96,289676
1.7644,0.2835,40.0000,78,96,289679
1.8133,0.2981,39.8300,78,96,289683
1.7791,0.2835,39.9300,78,96,289686
1.7986,0.2786,40.0300,78,96,289689
1.7889,0.2835,40.1000,78,96,289693
1.8133,0.2835,40.0600,78,96,289696
1.8231,0.2981,39.8900,78,96,289699
1.7498,0.2884,40.0000,78,96,289702
1.7498,0.2786,39.9600,78,96,289707
1.6862,0.2835,40.0600,78,96,289710
1.6911,0.2835,40.0600,78,96,289713
1.7742,0.2933,39.9300,78,96,289717
1.8671,0.2933,40.0300,78,96,289720
2.0723,0.2688,40.0300,78,96,289723
2.3069,0.2835,40.1300,78,96,289727
2.6295,0.2835,40.1600,78,96,289730
3.0352,0.2981,39.9300,78,96,289733
3.3187,0.2835,40.0600,78,96,289737
3.5435,0.2737,39.9300,78,96,289740
3.4409,0.2786,40.0300,78,96,289743
3.1623,0.2835,40.0600,78,96,289746
2.8055,0.2835,39.9600,78,96,289751
2.3607,0.2786,40.0300,78,96,289754
1.9795,0.2884,39.8900,78,96,289757
1.6373,0.2933,40.0300,78,96,289761
1.4174,0.2688,40.0600,78,96,289764
1.3001,0.3030,40.0000,78,96,289767
1.2219,0.2835,40.0600,78,96,289771
1.2317,0.2884,39.8300,78,96,289774
1.2366,0.2884,40.0300,78,96,289777
1.2708,0.2835,40.0600,78,96,289780
1.3539,0.2884,40.0600,78,96,289784
1.4076,0.2884,40.0300,78,96,289787
1.5103,0.2981,39.8000,78,96,289790
1.5347,0.2884,40.0300,78,96,289795
1.5689,0.2786,40.0300,78,96,289798
1.6080,0.2884,40.0300,78,96,289801
1.6178,0.2835,40.0600,78,96,289805
1.6960,0.3030,39.9300,78,96,289808
1.6764,0.2933,40.0000,78,96,289811
1.6813,0.2835,40.0000,78,96,289814
1.6862,0.2835,40.1300,78,96,289818
1.7009,0.2835,40.0600,78,96,289821
1.7400,0.2933,40.0300,78,96,289824
1.7204,0.2835,40.0600,78,96,289828
1.7400,0.2835,39.9600,78,96,289831
1.7302,0.2835,40.0600,78,96,289835
1.7351,0.2835,40.1000,78,96,289839
1.7791,0.2933,39.8900,78,96,289842
1.7644,0.2835,40.0600,78,96,289845
1.7889,0.2933,39.9600,78,96,289849
1.7693,0.2786,40.0600,78,96,289852
1.7791,0.2835,40.0600,78,96,289855
1.8035,0.2884,39.9300,78,96,289858
1.7889,0.2933,40.0300,78,96,289862
1.8133,0.2884,39.8900,78,96,289865
1.8035,0.2835,39.9600,78,96,289868
1.7986,0.2688,40.0600,78,96,289872
1.8280,0.2981,40.0000,78,96,289875
1.8133,0.2981,40.0000,78,96,289879
1.8622,0.2933,39.8300,78,96,289883
1.8328,0.2981,40.0000,78,96,289886
1.8768,0.2786,40.0600,78,96,289889
1.8671,0.2884,40.0300,78,96,289892
1.8622,0.2835,40.0300,78,96,289896
1.9208,0.2933,39.8600,78,96,289899
1.8866,0.2884,40.1300,78,96,289902
1.8817,0.2786,40.1000,78,96,289906
1.8964,0.2835,40.1000,78,96,289909
1.9013,0.2737,40.1000,78,96,289912
1.9599,0.2981,39.8900,78,96,289916
1.9355,0.2981,40.0300,78,96,289920
1.9453,0.2835,39.9300,78,96,289923
1.9453,0.2835,40.0600,78,96,289927
1.9550,0.2835,40.0600,78,96,289930
1.9941,0.2884,39.9300,78,96,289933
1.9795,0.2884,40.2000,78,96,289936
2.0088,0.2835,39.9300,78,96,289940
2.0039,0.2835,40.0600,78,96,289943
2.0137,0.2835,40.1300,78,96,289946
2.0430,0.2835,40.0000,78,96,289950
2.0381,0.2835,40.1300,78,96,289953
2.0772,0.2933,39.9600,78,96,289956
2.0577,0.2835,40.0300,78,96,289960
2.0674,0.2835,40.0600,78,96,289964
2.1065,0.2933,39.9600,78,96,289967
2.0870,0.2835,40.0300,78,96,289970
2.1212,0.2884,39.8900,78,96,289974
2.1065,0.2835,39.9600,78,96,289977
2.1017,0.2786,40.0600,78,96,289980
2.1212,0.2884,40.0000,78,96,289984
2.1017,0.2835,40.0600,78,96,289987
2.1701,0.2933,39.8600,78,96,289990
2.1261,0.2884,40.0000,78,96,289994
2.1065,0.2933,40.0600,78,96,289997
2.1310,0.2835,40.0000,78,96,290000
2.0919,0.2835,40.0600,78,96,290003
2.1408,0.2933,39.8300,78,96,290008
2.1017,0.2835,39.9600,78,96,290011
2.0528,0.2786,40.0600,78,96,290014
2.0430,0.2884,40.0600,78,96,290018
2.0088,0.2786,40.0300,78,96,290021
2.0430,0.3030,39.8600,78,96,290024
1.9795,0.2933,40.0000,78,96,290028
1.9404,0.2835,40.1600,78,96,290031
1.9110,0.2835,40.0300,78,96,290034
1.8817,0.2835,40.0600,78,96,290037
1.8915,0.2981,39.8600,78,96,290041
1.8328,0.2884,40.0600,78,96,290044
1.8182,0.2786,39.9300,78,96,290048
1.7840,0.2688,40.0300,78,96,290052
1.7546,0.2835,40.1300,78,96,290055
1.7693,0.2933,39.8900,78,96,290058
1.7302,0.2835,40.0600,78,96,290062
1.7400,0.2884,40.0300,78,96,290065
1.7204,0.2835,40.0600,78,96,290068
1.6862,0.2835,40.0600,78,96,290072
1.6911,0.3030,40.0600,78,96,290075
1.7107,0.2884,39.9600,78,96,290078
1.6911,0.2835,40.0600,78,96,290082
1.7351,0.2933,39.9300,78,96,290085
1.7155,0.2884,39.9600,78,96,290088
1.7058,0.2933,40.0600,78,96,290093
1.7155,0.2884,40.0300,78,96,290096
1.7107,0.2835,40.0600,78,96,290099
1.7840,0.3030,39.8300,78,96,290103
1.7302,0.2884,40.0000,78,96,290106
1.7253,0.2786,40.0000,78,96,290109
1.7400,0.2786,40.0300,78,96,290113
1.7302,0.2835,40.1300,78,96,290116
1.7791,0.3079,39.9300,78,96,290119
1.7498,0.2933,40.0000,78,96,290122
1.7498,0.2835,39.9600,78,96,290126
1.7449,0.2786,40.0600,78,96,290129
1.7449,0.2835,39.9300,78,96,290132
1.7693,0.2884,39.9600,78,96,290137
1.7498,0.2884,40.0300,78,96,290140
1.7693,0.2933,39.9300,78,96,290143
1.7498,0.2835,40.0600,78,96,290147
1.7546,0.2835,40.1000,78,96,290150
1.8133,0.2933,39.9300,78,96,290153
1.7546,0.2835,40.0600,78,96,290157
1.7791,0.2786,40.0000,78,96,290160
1.7546,0.2835,40.0000,78,96,290163
1.7498,0.2835,39.9600,78,96,290166
1.7595,0.2933,40.0000,78,96,290170
1.7498,0.2835,40.0300,78,96,290173
1.7791,0.2884,39.8900,78,96,290177
1.7546,0.2835,40.0300,78,96,290181
1.7546,0.2835,40.1600,78,96,290184
1.7693,0.2933,40.0300,78,96,290187
1.7595,0.2835,40.0600,78,96,290191
1.7986,0.2933,39.8000,78,96,290194
1.7498,0.2884,40.0300,78,96,290197
1.7546,0.2835,40.0600,78,96,290200
1.7595,0.3079,40.0000,78,96,290204
1.7449,0.2835,40.0600,78,96,290207
1.7937,0.3030,39.6400,78,96,290210
1.7546,0.3177,39.9600,78,96,290214
1.7449,0.2786,40.0000,78,96,290217
1.7449,0.2786,40.0300,78,96,290221
1.7449,0.2835,40.0600,78,96,290225
1.7889,0.2933,39.7300,78,96,290228
1.7546,0.2688,40.0300,78,96,290231
1.7693,0.2835,39.9600,78,96,290235
1.7498,0.2933,40.0300,78,96,290238
1.7498,0.2835,40.0300,78,96,290241
1.7693,0.2981,39.9600,78,96,290244
1.7498,0.2835,40.0300,78,96,290248
1.7791,0.2884,39.9600,78,96,290251
1.7498,0.2884,40.0600,78,96,290254
1.7546,0.2835,40.0600,78,96,290258
1.7644,0.2884,40.0000,78,96,290262
1.7693,0.2835,40.0600,78,96,290265
1.7791,0.2835,39.9300,78,96,290269
1.7595,0.2884,40.0600,78,96,290272
1.7644,0.2835,40.0600,78,96,290275
1.7840,0.2884,39.9600,78,96,290279
1.7546,0.2786,40.0600,78,96,290282
1.7986,0.2884,39.8600,78,96,290285
1.7791,0.3079,39.9600,78,96,290288
1.7693,0.2884,40.0600,78,96,290292
1.7791,0.2884,39.9300,78,96,290295
1.7937,0.2786,40.0600,78,96,290298
1.8182,0.2933,39.8000,78,96,290302
1.7840,0.2786,40.0000,78,96,290306
1.7693,0.2786,40.0600,78,96,290309
1.7742,0.2835,40.1000,78,96,290313
1.7742,0.2933,40.0600,78,96,290316
1.8622,0.2981,39.8600,78,96,290319
1.7840,0.2884,40.0000,78,96,290322
1.7889,0.2835,40.0000,78,96,290326
1.7889,0.2884,40.0600,78,96,290329
1.7840,0.2933,40.1000,78,96,290332
1.8133,0.2981,39.9600,78,96,290336
1.7889,0.2884,40.0300,78,96,290339
1.8280,0.2884,39.9300,78,96,290342
1.7791,0.2933,40.0600,78,96,290347
1.8133,0.2835,40.0600,78,96,290350
1.8328,0.2933,39.9600,78,96,290353
1.8084,0.2835,40.0600,78,96,290357
1.8426,0.2933,39.9300,78,96,290360
1.8231,0.2786,39.9600,78,96,290363
1.8328,0.2786,40.0600,78,96,290366
1.8622,0.2884,39.8900,78,96,290370
1.8573,0.2884,40.0300,78,96,290373
1.8964,0.2688,39.8900,78,96,290376
1.8817,0.2835,40.0300,78,96,290380
1.9110,0.2835,40.0600,78,96,290383
1.9208,0.2884,40.0000,78,96,290386
1.9257,0.2835,40.1000,78,96,290391
1.9795,0.2981,39.8600,78,96,290394
1.9404,0.2835,40.0300,78,96,290397
1.9404,0.2835,40.0600,78,96,290401
1.9355,0.2884,40.0300,78,96,290404
1.9013,0.2835,40.0600,78,96,290407
1.9257,0.3275,39.7700,78,96,290410
1.8671,0.2884,39.9600,78,96,290414
1.8328,0.2786,40.0300,78,96,290417
1.8182,0.2835,40.1600,78,96,290420
1.8084,0.2786,40.0600,78,96,290424
1.8622,0.2981,39.8900,78,96,290427
1.8035,0.2884,40.0300,78,96,290430
1.7889,0.2786,39.9600,78,96,290435
1.7644,0.2835,40.0600,78,96,290438
1.7498,0.2835,40.0000,78,96,290441
1.7644,0.2981,40.0000,78,96,290445
1.7302,0.2835,40.0300,78,96,290448
1.7449,0.2884,39.9300,78,96,290451
1.7302,0.2835,40.0300,78,96,290454
1.7204,0.2835,40.0600,78,96,290458
1.7693,0.2786,40.1000,78,96,290461
1.7253,0.2835,40.0300,78,96,290464
1.7546,0.2933,40.0600,78,96,290468
1.7351,0.2835,40.0300,78,96,290471
1.7351,0.2786,39.3500,78,96,290475
1.7595,0.2933,39.9600,78,96,290479
1.7351,0.2835,39.3800,78,96,290482
1.7644,0.2933,39.9300,78,96,290485
1.7498,0.2835,39.9600,78,96,290489
1.7449,0.2884,40.0300,78,96,290492
1.7595,0.2884,40.1300,78,96,290495
1.7498,0.2884,40.1000,78,96,290498
1.7937,0.2933,39.8300,78,96,290502
1.7155,0.2835,40.1000,78,96,290505
1.6667,0.2835,40.0600,78,96,290508
1.6373,0.2884,40.0300,78,96,290512
1.6178,0.2835,40.0600,78,96,290515
1.6862,0.3030,39.8900,78,96,290519
1.7400,0.2884,40.0300,78,96,290523
1.9013,0.2835,40.0300,78,96,290526
2.1505,0.2835,40.0300,78,96,290529
2.4780,0.2835,40.0600,78,96,290533
2.9130,0.2933,39.9300,78,96,290536
3.2307,0.2688,40.0300,78,96,290539
3.5288,0.2835,40.1600,78,96,290542
3.5630,0.2835,40.0600,78,96,290546
3.3578,0.2835,40.0600,78,96,290549
3.0352,0.3177,39.9300,78,96,290552
2.5415,0.2835,40.1300,78,96,290556
2.1505,0.2884,39.9300,78,96,290560
1.7840,0.2835,40.1000,78,96,290563
1.4956,0.2835,40.1000,78,96,290567
1.3245,0.2933,40.0000,78,96,290570
1.1975,0.2688,40.0600,78,96,290573
1.1779,0.2835,39.9300,78,96,290576
1.1535,0.2786,40.0300,78,96,290580
1.1828,0.2688,40.0600,78,96,290583
1.2512,0.2884,40.0000,78,96,290586
1.3099,0.2835,40.1600,78,96,290590
1.3978,0.2884,39.8900,78,96,290593
1.4370,0.2835,40.1300,78,96,290596
1.4907,0.2933,40.1000,78,96,290600
1.5445,0.2884,40.1000,78,96,290604
1.5591,0.2835,40.0600,78,96,290607
1.6178,0.2933,39.8300,78,96,290611
1.6227,0.2884,40.0300,78,96,290614
1.6276,0.2786,40.1000,78,96,290617
1.6471,0.2835,40.0000,78,96,290620
1.6569,0.2786,40.0300,78,96,290624
1.7204,0.3030,39.8300,78,96,290627
1.6813,0.2884,40.0000,78,96,290630
1.6862,0.2835,40.0600,78,96,290634
1.6960,0.2835,40.0600,78,96,290637
1.6960,0.2835,40.0300,78,96,290640
1.7449,0.2981,39.9300,78,96,290644
1.7155,0.2884,40.1000,78,96,290648
1.7302,0.2835,39.8900,78,96,290651
1.7253,0.2884,40.0300,78,96,290654
1.7351,0.2835,40.0600,78,96,290658
1.7644,0.3079,40.0000,78,96,290661
1.7693,0.2786,40.0300,78,96,290664
1.7840,0.2688,39.9600,78,96,290668
1.7595,0.2835,40.0000,78,96,290671
1.7693,0.2835,40.0600,78,96,290674
1.8035,0.2933,39.9300,77,97,290678
1.8280,0.2884,39.9300,77,97,290681
1.8280,0.2835,40.0600,77,97,290685
1.8768,0.2884,39.8600,77,97,290689
1.8524,0.2835,39.4100,77,97,290692
1.8573,0.2835,40.1600,77,97,290695
1.8768,0.2884,40.0300,77,97,290699
1.8768,0.2835,40.0600,77,97,290702
1.9404,0.2933,39.8000,77,97,290705
1.9013,0.2835,40.3000,77,97,290709
1.9110,0.2835,40.0300,77,97,290712
1.9257,0.2933,40.0600,77,97,290715
1.9306,0.2786,40.0600,77,97,290719
1.9941,0.2981,39.8900,77,97,290722
1.9648,0.2884,40.0600,77,97,290725
1.9795,0.2835,39.9600,77,97,290729
1.9844,0.2835,40.0300,77,97,290733
1.9941,0.2835,39.9300,77,97,290736
2.0528,0.2884,39.9300,77,97,290739
2.0283,0.2835,40.1000,77,97,290743
2.0577,0.3177,39.8900,77,97,290746
2.0723,0.2835,40.0600,77,97,290749
2.0479,0.2835,40.0600,77,97,290753
2.0723,0.2884,40.1000,77,97,290756
2.0577,0.2786,40.0600,77,97,290759
2.0919,0.2933,39.9300,77,97,290763
2.0674,0.2835,40.1300,77,97,290766
2.0674,0.2835,40.0600,77,97,290769
2.0870,0.2688,40.0000,77,97,290772
2.0772,0.2835,40.0600,77,97,290777
2.1065,0.2835,40.0000,77,97,290780
2.1065,0.2884,40.0600,77,97,290783
2.0821,0.2786,40.0600,77,97,290787
2.1017,0.2884,39.9600,77,97,290790
2.0723,0.2933,40.2300,77,97,290793
2.1017,0.2933,39.9300,77,97,290797
2.0577,0.2884,40.1000,77,97,290800
2.0186,0.2933,40.0600,77,97,290803
2.0088,0.2835,40.0300,77,97,290806
1.9746,0.2835,39.4100,77,97,290810
1.9990,0.3030,39.8000,77,97,290813
1.9306,0.2835,40.0300,77,97,290817
1.8964,0.2786,40.0600,77,97,290821
1.8866,0.2884,40.0300,77,97,290824
1.8426,0.2835,40.1000,77,97,290827
1.8719,0.3030,39.8300,77,97,290831
1.8035,0.2884,40.0300,77,97,290834
1.7742,0.2835,40.0600,77,97,290837
1.7546,0.2786,40.0600,77,97,290840
1.7302,0.2835,40.0300,77,97,290844
1.7400,0.3079,39.9300,77,97,290847
1.6960,0.2786,40.0600,77,97,290850
1.6911,0.2688,39.9600,77,97,290854
1.6618,0.2786,40.0300,77,97,290857
1.6667,0.2835,40.0300,77,97,290861
1.6862,0.2933,39.9600,77,97,290865
1.6569,0.2786,40.0300,77,97,290868
1.6764,0.2933,39.9600,77,97,290871
1.6520,0.2786,40.0300,77,97,290875
1.6764,0.2786,40.0600,77,97,290878
1.6716,0.2981,40.0000,77,97,290881
1.6813,0.2786,40.1000,77,97,290884
1.6862,0.2835,39.9300,77,97,290888
1.6813,0.2835,40.0300,77,97,290891
1.6911,0.2835,40.0600,77,97,290894
1.7009,0.2884,40.0600,77,97,290898
1.6960,0.2884,40.1000,77,97,290902
1.7693,0.2884,39.8600,77,97,290905
1.7058,0.2786,40.0300,77,97,290909
1.7155,0.2835,40.0600,77,97,290912
1.7253,0.2884,40.0000,77,97,290915
1.7107,0.2786,40.0600,77,97,290919
1.7595,0.2933,39.7700,77,97,290922
1.7302,0.2884,39.9600,77,97,290925
1.7204,0.2835,40.0300,77,97,290928
1.7253,0.2835,40.0600,77,97,290932
1.7253,0.2933,40.1300,77,97,290935
1.7791,0.2981,39.8900,77,97,290938
1.7498,0.2786,40.0300,77,97,290942
1.7449,0.2835,40.0000,77,97,290946
1.7351,0.2835,40.0300,77,97,290949
1.7351,0.2835,40.0300,77,97,290953
1.7546,0.2933,39.8900,77,97,290956
1.7302,0.2688,40.0300,77,97,290959
1.7498,0.2884,40.0300,77,97,290963
1.7302,0.2933,40.1000,77,97,290966
1.7302,0.2835,40.0600,77,97,290969
1.7449,0.2835,40.0300,77,97,290972
1.7449,0.2786,40.0600,77,97,290976
1.7693,0.2884,39.9300,77,97,290979
1.7351,0.2786,40.1300,77,97,290982
1.7351,0.2835,40.0600,77,97,290987
1.7546,0.3079,39.9300,77,97,290990
1.7302,0.2835,40.0600,77,97,290993
1.7595,0.2933,39.8900,77,97,290997
1.7400,0.2835,39.9600,77,97,291000
1.7351,0.2835,39.3800,77,97,291003
1.7449,0.2884,40.0300,77,97,291007
1.7302,0.2835,40.1000,77,97,291010
1.7791,0.2933,39.8300,77,97,291013
1.7498,0.2884,40.0600,77,97,291016
1.7400,0.2981,40.0600,77,97,291020
1.7595,0.2786,40.0300,77,97,291023
1.7400,0.2835,40.0600,77,97,291026
1.7889,0.2981,39.8300,77,97,291031
1.7889,0.2884,39.9600,77,97,291034
1.7449,0.2786,40.0000,77,97,291037
1.7498,0.2884,40.1300,77,97,291041
1.7449,0.2835,40.0600,77,97,291044
1.7840,0.2981,39.8900,77,97,291047
1.7498,0.2933,40.0300,77,97,291050
1.7595,0.2688,39.9600,77,97,291054
1.7546,0.2786,40.0600,77,97,291057
1.7449,0.2835,40.0600,77,97,291060
1.7791,0.2933,39.9300,77,97,291064
1.7498,0.2835,40.0600,77,97,291067
1.7742,0.2884,39.9300,77,97,291070
1.7498,0.2786,40.1300,77,97,291075
1.7546,0.2835,40.0600,77,97,291078
1.7840,0.2981,39.9300,77,97,291081
1.7498,0.2688,40.0300,77,97,291085
1.7791,0.2835,39.9300,77,97,291088
1.7498,0.2884,40.0300,77,97,291091
1.7546,0.2835,40.0600,77,97,291094
1.7693,0.2884,39.9300,77,97,291098
1.7498,0.2835,40.0600,77,97,291101
1.7937,0.2884,39.8600,77,97,291104
1.7791,0.2835,40.0300,77,97,291108
1.7644,0.2835,40.0600,77,97,291111
1.7840,0.3177,39.9600,77,97,291115
1.7693,0.2835,40.0600,77,97,291119
1.8231,0.2933,39.7700,77,97,291122
1.7986,0.2884,39.9600,77,97,291125
1.7937,0.2786,40.0600,77,97,291129
1.8084,0.2835,40.0300,77,97,291132
1.8084,0.2835,40.0600,77,97,291135
1.8719,0.3030,39.8600,77,97,291138
1.8475,0.2933,40.0000,77,97,291142
1.8475,0.2688,40.0000,77,97,291145
1.8573,0.2835,40.1300,77,97,291148
1.8671,0.2835,40.2000,77,97,291152
1.9208,0.2933,39.9600,77,97,291155
1.9110,0.2835,40.0300,77,97,291159
1.9453,0.2688,39.9300,77,97,291163
1.9355,0.2835,40.0600,77,97,291166
1.9306,0.2835,40.0600,77,97,291169
1.9404,0.2884,40.0600,77,97,291173
1.9013,0.2835,40.0000,77,97,291176
1.9306,0.2933,39.9300,77,97,291179
1.8573,0.2835,40.0300,77,97,291182
1.8328,0.2786,40.0600,77,97,291186
1.8328,0.2884,39.9300,77,97,291189
1.8231,0.2835,40.0600,77,97,291192
1.8182,0.2835,39.8900,77,97,291196
1.7937,0.2835,40.0300,77,97,291200
1.7840,0.2786,40.1600,77,97,291203
1.7840,0.3177,40.0000,77,97,291207
1.7498,0.2835,40.0600,77,97,291210
1.7791,0.2884,39.8300,77,97,291213
1.7449,0.2884,39.9600,77,97,291217
1.7253,0.2786,40.0600,77,97,291220
1.7400,0.2884,39.9600,77,97,291223
1.7204,0.2835,40.1000,77,97,291226
1.7644,0.2884,39.8000,77,97,291230
1.7253,0.2835,40.0300,77,97,291233
1.7204,0.3128,40.0600,77,97,291236
1.7253,0.2786,40.0300,77,97,291240
1.7204,0.2835,40.2000,77,97,291244
1.7742,0.3275,39.8300,77,97,291247
1.7400,0.2884,40.0300,77,97,291251
1.7351,0.2835,39.9600,77,97,291254
1.7302,0.2884,40.0300,77,97,291257
1.7400,0.2835,40.0600,77,97,291260
1.7840,0.2981,39.9300,77,97,291264
1.7644,0.2884,40.0300,77,97,291267
1.7791,0.2884,39.9300,77,97,291270
1.7449,0.2884,40.0300,77,97,291274
1.7058,0.2835,39.9600,77,97,291277
1.6911,0.3030,39.9300,77,97,291280
1.6520,0.2835,40.0300,77,97,291284
1.6667,0.2933,40.0000,77,97,291288
1.6960,0.2933,39.9300,76,96,291291
3.0938,0.2786,40.0600,76,96,291295
3.4457,0.2835,40.0600,76,96,291298
3.6559,0.3177,40.0000,76,96,291302
3.5582,0.2835,40.0300,76,96,291305
3.3236,0.2933,39.8000,76,96,291308
2.8299,0.2786,40.0000,76,96,291311
2.3412,0.2786,40.0600,76,96,291315
1.9501,0.2884,40.1000,76,96,291318
1.6178,0.2786,40.0600,76,96,291321
1.4321,0.3030,39.8600,76,96,291325
1.2512,0.2933,40.0000,76,96,291329
1.1779,0.2835,40.0000,76,96,291332
1.1535,0.2835,39.3800,76,96,291336
1.1681,0.2835,40.0600,76,96,291339
1.2512,0.2933,40.0000,76,96,291342
1.3001,0.2884,40.0300,76,96,291345
1.3734,0.2933,39.9300,76,96,291349
1.4223,0.2835,40.0600,76,96,291352
1.4907,0.2835,40.0600,76,96,291355
1.5543,0.2884,40.0300,76,96,291359
1.5787,0.2835,40.0600,76,96,291362
1.6276,0.2884,40.0000,76,96,291365
1.6276,0.2835,40.0600,76,96,291369
1.6471,0.2835,40.0600,76,96,291373
1.6911,0.2933,39.9300,76,96,291376
1.6764,0.2835,40.0600,76,96,291380
1.7107,0.2835,39.9300,76,96,291383
1.7058,0.2835,39.9600,76,96,291386
1.7107,0.2835,40.0300,76,96,291389
1.7351,0.2884,39.9600,76,96,291393
1.7302,0.2835,40.0300,76,96,291396
1.7889,0.2933,39.8300,76,96,291399
1.7546,0.2884,40.2000,76,96,291403
1.7498,0.2884,40.0600,76,96,291406
1.7742,0.2884,40.0000,76,96,291409
1.7693,0.2835,40.0300,76,96,291414
1.8231,0.2884,39.8600,76,96,291417
1.7889,0.2835,40.0300,76,96,291420
1.7889,0.2884,40.0300,76,96,291424
1.7986,0.2835,40.0300,76,96,291427
1.7986,0.2933,40.1000,76,96,291430
1.8622,0.2884,39.8600,76,96,291433
1.8231,0.2884,40.0300,76,96,291437
1.8280,0.2786,39.9600,76,96,291440
1.8280,0.3079,40.0300,76,96,291443
1.8377,0.2786,40.0300,76,96,291447
1.8866,0.2933,39.8900,76,96,291450
1.8573,0.2835,40.0300,76,96,291453
1.8866,0.2884,39.9300,76,96,291458
1.8719,0.2835,39.4800,76,96,291461
1.8768,0.2835,40.0600,76,96,291464
1.9257,0.2933,39.9600,76,96,291468
1.9110,0.2737,40.0300,76,96,291471
1.9550,0.2884,39.9600,76,96,291474
1.9306,0.2786,40.1600,76,96,291477
1.9404,0.2884,40.1300,76,96,291481
1.9697,0.2884,39.9600,76,96,291484
1.9648,0.2835,40.0600,76,96,291487
2.0039,0.2786,39.8900,76,96,291491
1.9892,0.2835,40.0600,76,96,291494
2.0039,0.2835,40.2300,76,96,291497
2.0626,0.3128,40.0300,76,96,291502
2.0235,0.2835,40.0600,76,96,291505
2.0821,0.2933,39.8600,76,96,291508
2.0674,0.2933,39.9600,76,96,291511
2.0626,0.2786,40.0600,76,96,291515
2.0821,0.3079,40.0300,76,96,291518
2.0821,0.2835,40.1000,76,96,291521
2.1505,0.2933,39.8000,76,96,291525
2.1114,0.2835,40.0300,76,96,291528
2.1065,0.2737,40.0300,76,96,291531
2.1163,0.2884,40.0300,76,96,291535
2.1114,0.2835,40.1000,76,96,291538
2.1750,0.3030,39.8900,76,96,291542
2.1359,0.2884,40.0300,76,96,291545
2.1261,0.2835,40.1000,76,96,291549
2.1212,0.2884,40.0300,76,96,291552
2.1212,0.2835,40.0600,76,96,291555
2.1603,0.2933,40.0000,76,96,291559
2.1212,0.2786,40.0300,76,96,291562
2.1163,0.2835,39.9300,76,96,291565
2.0772,0.2786,40.0600,76,96,291569
2.0674,0.2688,40.0300,76,96,291572
2.0772,0.2933,39.8900,76,96,291575
2.0186,0.2835,40.0300,76,96,291578
2.0235,0.2933,39.9300,76,96,291582
1.9648,0.2786,39.8900,76,96,291586
1.9355,0.2835,40.0600,76,96,291589
1.9306,0.2884,39.9600,76,96,291593
1.8866,0.2835,40.0300,76,96,291596
1.8866,0.2835,39.9300,76,96,291599
1.8377,0.3128,40.0300,76,96,291603
1.8084,0.2786,40.0600,76,96,291606
1.8035,0.2884,40.0000,76,96,291609
1.7644,0.2884,40.0600,76,96,291613
1.7840,0.2884,39.8300,76,96,291616
1.7351,0.2786,40.0600,76,96,291619
1.7253,0.2884,40.0600,76,96,291622
1.7302,0.2884,40.0300,76,96,291627
1.7058,0.2884,40.0300,76,96,291630
1.7498,0.2933,39.8000,76,96,291633
1.7155,0.3079,39.9600,76,96,291637
1.7009,0.2737,40.0300,76,96,291640
1.7058,0.2835,40.1600,76,96,291643
1.7009,0.2786,40.0300,76,96,291647
1.7595,0.2981,39.8900,76,96,291650
1.7204,0.2981,40.0000,76,96,291653
1.7204,0.2835,40.1000,76,96,291657
1.7155,0.2884,40.0600,76,96,291660
1.7204,0.2835,40.0300,76,96,291663
1.7595,0.2884,39.9300,76,96,291666
1.7400,0.2884,40.0000,76,96,291671
1.7595,0.2835,39.9300,76,96,291674
1.7449,0.2835,40.1000,76,96,291677
1.7498,0.3079,40.0600,76,96,291681
1.7693,0.2933,40.0600,76,96,291684
1.7546,0.2884,40.1000,76,96,291687
1.7840,0.2933,40.1300,76,96,291691
1.7595,0.2688,40.0300,76,96,291694
1.7644,0.2835,40.0600,76,96,291697
1.7937,0.2981,39.9300,76,96,291700
1.7693,0.2835,40.1000,76,96,291704
1.7986,0.2884,39.8900,76,96,291707
1.7986,0.2786,39.9600,76,96,291710
1.7791,0.2835,40.0600,76,96,291715
1.7937,0.2933,40.0000,76,96,291718
1.7840,0.2835,40.0300,76,96,291721
1.8280,0.2933,39.9300,76,96,291725
1.7986,0.2884,40.0000,76,96,291728
1.7937,0.2835,40.0300,76,96,291731
1.8035,0.2884,40.0000,76,96,291735
1.7889,0.2884,40.0600,76,96,291738
1.8426,0.2933,39.7700,76,96,291741
1.7986,0.2835,39.9600,76,96,291744
1.7840,0.2688,40.0300,76,96,291748
1.7937,0.2884,40.0600,76,96,291751
1.7791,0.2786,40.0600,76,96,291755
1.8328,0.2981,39.8900,76,96,291759
1.8035,0.2933,40.0000,76,96,291762
1.7986,0.2688,39.9600,76,96,291765
1.7840,0.2835,40.0600,76,96,291769
1.8182,0.2786,40.0600,76,96,291772
1.8133,0.2933,39.9600,76,96,291775
1.7840,0.2786,40.0300,76,96,291779
1.8084,0.2688,39.9300,76,96,291782
1.7840,0.2835,40.0300,76,96,291785
1.8084,0.2835,40.0300,76,96,291788
1.8084,0.2981,39.5400,76,96,291792
1.7840,0.2981,40.0300,76,96,291795
1.8035,0.2884,39.9300,76,96,291799
1.7791,0.2786,40.0000,76,96,291803
1.7889,0.2835,40.0600,76,96,291806
1.7937,0.2884,39.9300,76,96,291809
1.7791,0.2933,40.0600,76,96,291813
1.8084,0.2884,39.8900,76,96,291816
1.7791,0.2835,40.0600,76,96,291819
1.7840,0.2688,40.0600,76,96,291822
1.8084,0.2884,40.0000,76,96,291826
1.7937,0.2835,40.0300,76,96,291829
1.8377,0.2933,39.8300,76,96,291832
1.8133,0.3177,39.9600,76,96,291836
1.7986,0.2835,40.0600,76,96,291840
1.8084,0.2933,40.0300,76,96,291843
1.8084,0.2688,40.0600,76,96,291847
1.8573,0.3030,39.8900,76,96,291850
1.8133,0.2786,40.0000,76,96,291853
1.8084,0.2688,40.0300,76,96,291857
1.8133,0.2884,39.9600,76,96,291860
1.8084,0.3177,40.1600,76,96,291863
1.8475,0.2981,39.8900,76,96,291866
1.8182,0.2835,40.0000,76,96,291870
1.8231,0.2835,39.9300,76,96,291873
1.8035,0.2835,39.9300,76,96,291876
1.8084,0.2835,40.0300,76,96,291880
1.8328,0.2884,39.9600,76,96,291884
1.8182,0.2786,40.1000,76,96,291887
1.8524,0.2933,39.9300,76,96,291891
1.8377,0.3177,40.0300,76,96,291894
1.8622,0.2835,40.0600,76,96,291897
1.8866,0.2933,39.9300,76,96,291901
1.8964,0.2884,40.0000,76,96,291904
1.8964,0.2835,40.1000,76,96,291908
1.9648,0.2884,39.8300,76,96,291911
1.9501,0.3128,40.0000,76,96,291914
1.9599,0.2786,40.0600,76,96,291917
1.9844,0.2884,40.0600,76,96,291921
1.9697,0.2835,40.0600,76,96,291924
2.0186,0.2933,39.8000,76,96,291928
1.9501,0.2835,39.9600,76,96,291932
1.9208,0.2786,40.0000,76,96,291935
1.9062,0.2688,40.0300,76,96,291938
1.8768,0.2835,40.0000,76,96,291942
1.9062,0.3030,39.8900,76,96,291945
1.8622,0.2884,40.0000,76,96,291948
1.8475,0.2835,40.0000,76,96,291951
1.8377,0.2884,40.0600,76,96,291955
1.8231,0.2835,40.0600,76,96,291958
1.8377,0.2933,40.0300,76,96,291961
1.7889,0.2786,40.1300,76,96,291965
1.7889,0.2884,39.9600,76,96,291969
1.7498,0.2884,40.0600,76,96,291972
1.7498,0.2786,40.0600,76,96,291976
1.7693,0.2933,39.9300,76,96,291979
1.7449,0.2835,40.0300,76,96,291982
1.7742,0.2884,39.9600,76,96,291986
1.7498,0.2786,40.0300,76,96,291989
1.7546,0.2835,40.0600,76,96,291992
1.7693,0.2884,40.0000,76,96,291995
1.7595,0.2835,40.0300,76,96,291999
1.7840,0.2688,39.8600,76,96,292002
1.7595,0.2835,40.0600,76,96,292005
1.7937,0.2786,40.0600,76,96,292009
1.7889,0.2933,39.9600,76,96,292013
1.7693,0.2786,40.0600,76,96,292016
1.8182,0.2933,39.8600,76,96,292020
1.7937,0.2981,39.9300,76,96,292023
1.7889,0.2835,40.0600,76,96,292026
1.7889,0.2835,40.0300,76,96,292030
1.7498,0.2688,40.0600,76,96,292033
1.7644,0.2981,39.7000,76,96,292036
1.7107,0.2933,40.0000,76,96,292039
1.6960,0.2786,40.0300,76,96,292043
1.7400,0.2884,40.1300,76,96,292046
1.8328,0.2835,40.0300,76,96,292049
2.0528,0.2981,39.9600,76,96,292054
2.2581,0.2884,40.0000,76,96,292057
2.5758,0.2884,39.9600,76,96,292060
2.9179,0.2835,40.0600,76,96,292064
3.2698,0.2933,40.0300,76,96,292067
3.5777,0.2884,40.0000,76,96,292070
3.5582,0.2835,40.1300,76,96,292073
3.3578,0.2835,39.9300,76,96,292077
2.9228,0.2835,40.0600,76,96,292080
2.4780,0.2981,40.0600,76,96,292083
2.1017,0.2933,39.9300,76,96,292087
1.7155,0.2835,40.1300,76,96,292090
1.4907,0.2786,39.9300,76,96,292093
1.3050,0.2835,40.0300,76,96,292098
1.2219,0.2835,39.9600,76,96,292101
1.1975,0.2884,40.0000,76,96,292104
1.2023,0.2835,40.1600,76,96,292108
1.2708,0.2933,39.8600,76,96,292111
1.3196,0.2835,40.0300,76,96,292114
1.3832,0.2835,39.9600,76,96,292117
1.4663,0.2884,39.9600,76,96,292121
1.5103,0.2835,40.0600,76,96,292124
1.5934,0.3128,39.8000,76,96,292127
1.5934,0.2835,39.9600,76,96,292131
1.6373,0.2835,40.0600,76,96,292134
1.6471,0.2884,40.0300,76,96,292137
1.6618,0.2835,40.0600,76,96,292142
1.7204,0.3030,39.8300,76,96,292145
1.6960,0.2884,40.0000,76,96,292148
1.7009,0.2786,40.0000,76,96,292151
1.7058,0.2835,40.0600,76,96,292155
1.7204,0.2835,40.0600,76,96,292158
1.7742,0.2933,39.8000,76,96,292161
1.7498,0.2688,40.0300,76,96,292165
1.7644,0.2835,40.0600,76,96,292168
1.7546,0.2884,40.0000,76,96,292171
1.7742,0.2786,40.1300,76,96,292175
1.7937,0.2933,39.9300,76,96,292178
1.7742,0.2786,40.0300,76,96,292182
1.8035,0.2884,39.9300,76,96,292186
1.7889,0.2933,40.1000,76,96,292189
1.8035,0.2688,40.0300,76,96,292192
1.8133,0.2835,40.0000,76,96,292195
1.8084,0.2835,40.0300,76,96,292199
1.8377,0.2835,39.9300,76,96,292202
1.8133,0.2835,40.0000,76,96,292205
1.8231,0.2835,40.1000,76,96,292209
1.8524,0.2884,39.9600,76,96,292212
1.8377,0.2884,40.1000,76,96,292215
1.8768,0.2933,39.8600,76,96,292219
1.8671,0.2835,39.8600,76,96,292222
1.8622,0.2835,40.0600,76,96,292226
1.8866,0.2884,40.1000,76,96,292230
1.8768,0.2884,40.0600,76,96,292233
1.9355,0.2884,39.8300,76,96,292236
1.9062,0.2835,39.9600,76,96,292239
1.9110,0.2835,40.0600,76,96,292243
1.9306,0.2884,40.0000,76,96,292246
1.9306,0.2835,40.1000,76,96,292249
2.0039,0.2884,39.8300,76,96,292253
1.9697,0.2884,39.9600,76,96,292256
1.9648,0.2835,40.1000,76,96,292259
1.9795,0.2933,40.0600,76,96,292263
1.9892,0.2933,40.1300,76,96,292267
2.0772,0.2981,39.9300,76,96,292270
2.0235,0.2884,40.1000,76,96,292273
2.0430,0.2835,40.0000,76,96,292277
2.0430,0.2786,40.0300,76,96,292280
2.0528,0.2786,40.0300,76,96,292283
2.1017,0.2933,39.8900,76,96,292287
2.0772,0.2737,40.0600,76,96,292290
2.1065,0.2786,39.9300,76,96,292293
2.0968,0.2835,40.0600,76,96,292297
2.1017,0.2835,40.0300,76,96,292300
2.1359,0.2933,39.9600,76,96,292303
2.1163,0.2835,40.0600,76,96,292306
2.1505,0.2835,39.9300,76,96,292311
2.1261,0.2786,40.0300,76,96,292314
2.1261,0.2835,40.0600,76,96,292317
2.1554,0.2884,39.9600,76,96,292321
2.1261,0.2835,40.1300,76,96,292324
2.1505,0.3079,39.8900,76,96,292327
2.1065,0.2835,40.1000,76,96,292331
2.1017,0.2835,40.1300,76,96,292334
2.1114,0.2981,39.9600,76,96,292337
2.0674,0.2835,40.0600,76,96,292340
2.0968,0.2933,39.8000,76,96,292344
2.0430,0.2835,39.9600,76,96,292347
2.0186,0.2786,40.0600,76,96,292350
1.9844,0.2884,40.0000,76,96,292355
1.9453,0.2884,40.0300,76,96,292358
1.9746,0.2933,39.7700,76,96,292361
1.9062,0.2884,40.0000,76,96,292365
1.8671,0.2786,40.0300,76,96,292368
1.8475,0.2884,40.0300,76,96,292371
1.8182,0.2688,40.1300,76,96,292375
1.8426,0.2981,39.8900,76,96,292378
1.7791,0.2884,40.0000,76,96,292381
1.7693,0.2835,39.9600,76,96,292384
1.7400,0.3030,40.1000,76,96,292388
1.7253,0.2835,40.0300,76,96,292391
1.7351,0.2884,39.9600,76,96,292395
1.7155,0.2688,40.0300,76,96,292399
1.7204,0.2884,40.0000,76,96,292402
1.7058,0.2786,40.0600,76,96,292405
1.6862,0.2835,40.0300,76,96,292409
1.7204,0.2933,39.8600,76,96,292412
1.7253,0.2835,40.0600,76,96,292415
1.7204,0.2835,39.9300,76,96,292419
1.6960,0.3079,40.0000,76,96,292422
1.7155,0.2786,40.1000,76,96,292425
1.7253,0.2884,40.0000,76,96,292428
1.7155,0.2835,40.1000,76,96,292432
1.7595,0.2933,39.8900,76,96,292435
1.7351,0.2835,40.0000,76,96,292439
1.7253,0.2737,40.0300,76,96,292443
1.7595,0.2884,40.0600,76,96,292446
1.7400,0.2835,40.0600,76,96,292449
1.7889,0.2933,39.8300,76,96,292453
1.7546,0.2835,39.9600,76,96,292456
1.7840,0.2786,40.1000,76,96,292459
1.7693,0.2884,40.0300,76,96,292462
1.7595,0.2835,40.0600,76,96,292466
1.8084,0.3030,39.8300,76,96,292469
1.7791,0.2884,40.0000,76,96,292472
1.7693,0.2835,39.9300,76,96,292476
1.7742,0.2884,40.0300,76,96,292480
1.7742,0.2835,40.0600,76,96,292483
1.8231,0.2981,39.8900,76,96,292487
1.7889,0.2884,40.1300,76,96,292490
1.8182,0.2933,39.9600,76,96,292493
1.7840,0.2835,40.1600,76,96,292497
1.7840,0.2835,40.1000,76,96,292500
1.8035,0.2933,39.9300,76,96,292503
1.7937,0.2884,40.1000,76,96,292506
1.8182,0.3177,39.9300,76,96,292510
1.7937,0.2688,40.0600,75,96,292513
1.7840,0.2835,40.1300,75,96,292517
1.7840,0.2835,39.3500,75,96,292520
1.7986,0.2981,39.9600,75,96,292524
1.7742,0.2835,39.9600,75,96,292528
1.8182,0.2981,39.8300,75,96,292531
1.7937,0.2884,39.6000,75,96,292534
1.7742,0.2835,40.0600,75,96,292538
1.7840,0.2884,40.0300,75,96,292541
1.7742,0.2835,40.1300,75,96,292544
1.8377,0.2884,39.8000,75,96,292548
1.7840,0.2884,40.0300,75,96,292551
1.7742,0.2786,40.0600,75,96,292554
1.7791,0.2688,40.0300,75,96,292557
1.7693,0.2835,40.0600,75,96,292561
1.8133,0.2933,39.9300,75,96,292564
1.7840,0.2884,40.0000,75,96,292568
1.7889,0.2835,39.9600,75,96,292572
1.7986,0.2786,40.0300,75,96,292575
1.7742,0.2835,40.2000,75,96,292578
1.8133,0.2933,40.0000,75,96,292582
1.7791,0.2835,40.0300,75,96,292585
1.8035,0.2884,39.8900,75,96,292588
1.7840,0.2835,40.0600,75,96,292592
1.7840,0.2835,40.0600,75,96,292595
1.8133,0.3275,39.9600,75,96,292598
1.7840,0.2835,40.0600,75,96,292601
1.8133,0.2884,39.8600,75,96,292605
1.8133,0.2835,40.0600,75,96,292609
1.7889,0.2835,40.0600,75,96,292612
1.8084,0.2981,39.9600,75,96,292616
1.7937,0.2835,40.0600,75,96,292619
1.8328,0.2835,39.8000,75,96,292622
1.8084,0.2884,40.0000,75,96,292626
1.7986,0.2835,40.0600,75,96,292629
1.8231,0.2884,40.0000,75,96,292632
1.8035,0.2786,40.0300,75,96,292635
1.8426,0.2933,39.8300,75,96,292639
1.8377,0.2786,40.0000,75,96,292642
1.8084,0.2835,39.8600,75,96,292645
1.8133,0.2835,40.0300,75,96,292649
1.7937,0.2835,40.1300,75,96,292653
1.8622,0.3030,39.8600,75,96,292656
1.8280,0.2884,40.0000,75,96,292660
1.8182,0.2786,39.9300,75,96,292663
1.8133,0.2688,40.0600,75,96,292666
1.8182,0.2835,40.1000,75,96,292670
1.8671,0.2981,39.8900,75,96,292673
1.8475,0.2835,39.5100,75,96,292676
1.8719,0.2933,39.9300,75,96,292679
1.8671,0.2835,40.1600,75,96,292683
1.8671,0.2835,40.0600,75,96,292686
1.9013,0.2933,39.9300,75,96,292689
1.8866,0.2835,40.0000,75,96,292694
1.9453,0.2884,39.9300,75,96,292697
1.9013,0.2835,40.1600,75,96,292700
1.9159,0.2835,40.0300,75,96,292704
1.9453,0.2884,40.0000,75,96,292707
1.9453,0.2835,40.1300,75,96,292710
1.9941,0.2933,39.8900,75,96,292714
1.9648,0.2835,40.0600,75,96,292717
1.9599,0.2786,40.0600,75,96,292720
1.9697,0.2933,39.9600,75,96,292723
1.9306,0.2884,40.1000,75,96,292727
1.9550,0.2933,39.8300,75,96,292730
1.9062,0.2884,40.0300,75,96,292733
1.8964,0.2835,40.0600,75,96,292738
1.8475,0.2981,40.0000,75,96,292741
1.8328,0.2835,40.0300,75,96,292744
1.8768,0.2981,39.8000,75,96,292748
1.8280,0.2884,39.9600,75,96,292751
1.8426,0.2835,40.0600,75,96,292754
1.8035,0.2884,40.0300,75,96,292758
1.7791,0.2835,40.0600,75,96,292761
1.8182,0.2981,39.8900,75,96,292764
1.7693,0.2884,40.0000,75,96,292767
1.7595,0.3079,39.9300,75,96,292771
1.7400,0.2835,40.0300,75,96,292774
1.7400,0.2884,40.0600,75,96,292777
1.7840,0.2933,40.0000,75,96,292782
1.7546,0.2835,40.0300,75,96,292785
1.7742,0.2884,39.9600,75,96,292788
1.7595,0.2835,40.0300,75,96,292792
1.7595,0.2835,40.0300,75,96,292795
