ecg,gsr,temp,hr,spo2,timest
2.0186,0.1222,38.3300,77,98,274649
2.0283,0.1320,38.1100,77,98,274652
1.9746,0.1222,38.2700,77,98,274655
1.9795,0.1222,38.0500,77,98,274658
1.9257,0.1222,38.2700,77,98,274662
1.9013,0.1124,38.2700,77,98,274665
1.8964,0.1417,38.1500,77,98,274668
1.8524,0.1173,38.2700,77,98,274672
1.8719,0.1662,38.0500,77,98,274675
1.8573,0.1222,38.1500,77,98,274678
1.8035,0.1173,38.3000,77,98,274682
1.7986,0.1271,38.2100,77,98,274685
1.7791,0.1124,38.2400,77,98,274689
1.8231,0.1369,37.9600,77,98,274693
1.7742,0.1222,38.1800,77,98,274696
1.7742,0.1173,38.1100,77,98,274699
1.7693,0.1271,38.2400,77,98,274703
1.7644,0.1222,38.2700,77,98,274706
1.8084,0.1320,38.0800,77,98,274709
1.7791,0.1271,38.2400,77,98,274712
1.7791,0.1222,38.1100,77,98,274716
1.7791,0.1222,38.2100,77,98,274719
1.7889,0.1173,38.2700,77,98,274722
1.8133,0.1173,38.1800,77,98,274726
1.7986,0.1124,38.2700,77,98,274729
1.8133,0.1271,38.1800,77,98,274733
1.7937,0.1124,38.2700,77,98,274737
1.8035,0.1222,38.2700,77,98,274740
1.8426,0.1222,38.1800,77,98,274743
1.8182,0.1222,38.3300,77,98,274747
1.8426,0.1173,38.0800,77,98,274750
1.8231,0.1222,38.1800,77,98,274753
1.8231,0.1466,38.2700,77,98,274756
1.8475,0.1222,38.1800,77,98,274760
1.8377,0.1222,37.5300,77,98,274763
1.8964,0.1320,37.9900,77,98,274766
1.8426,0.1222,37.8000,77,98,274770
1.8377,0.1173,38.2700,77,98,274774
1.8671,0.1271,38.1800,77,98,274777
1.8475,0.1222,38.2400,77,98,274781
1.9013,0.1222,37.9300,77,98,274784
1.8622,0.1222,38.1100,77,98,274787
1.8524,0.1222,38.2400,77,98,274791
1.8622,0.1222,38.1500,77,98,274794
1.8573,0.1222,38.2700,77,98,274799
1.8524,0.1173,38.3000,77,98,274802
1.8866,0.1515,38.1100,77,98,274805
1.8622,0.1222,38.2700,77,98,274809
1.8964,0.1271,38.1500,77,98,274812
1.8622,0.1124,38.2100,77,98,274816
1.8622,0.1222,38.1800,77,98,274820
1.8768,0.1222,38.1800,77,98,274823
1.8671,0.1222,38.2400,77,98,274826
1.8964,0.1271,38.0800,77,98,274829
1.8719,0.1222,38.2400,77,98,274833
1.8671,0.1173,38.2700,77,98,274836
1.8866,0.1222,38.1500,77,98,274839
1.8719,0.1222,38.3300,77,98,274843
1.9208,0.1222,37.9900,77,98,274846
1.8768,0.1173,38.1500,77,98,274849
1.8915,0.1173,38.2700,77,98,274853
1.8817,0.1271,38.3300,77,98,274856
1.8671,0.1271,38.2700,77,98,274860
1.9257,0.1417,38.0200,77,98,274864
1.8817,0.1271,38.2400,77,98,274867
1.8768,0.1271,38.1800,77,98,274870
1.8768,0.1222,38.2400,77,98,274873
1.8817,0.1173,38.3000,77,98,274877
1.9159,0.1320,38.0500,77,98,274880
1.8817,0.1222,38.2700,77,98,274883
1.8915,0.1222,38.1500,77,98,274887
1.8817,0.1222,38.2700,77,98,274890
1.8768,0.1173,38.2400,77,98,274893
1.9013,0.1271,38.1500,77,98,274897
1.8817,0.1173,38.2400,77,98,274900
1.9062,0.1271,38.1100,77,98,274904
1.8768,0.1222,38.1100,77,98,274908
1.8768,0.1173,38.2400,77,98,274911
1.8915,0.1222,38.1800,77,98,274914
1.8817,0.1320,38.2100,77,98,274917
1.9013,0.1222,38.0800,77,98,274921
1.8768,0.1222,38.2700,77,98,274924
1.8817,0.1515,38.2700,77,98,274927
1.8964,0.1271,38.1800,77,98,274931
1.8768,0.1222,38.3600,77,98,274934
1.9159,0.1271,38.0200,77,98,274937
1.8915,0.1271,38.1800,77,98,274941
1.8768,0.1417,38.2700,77,98,274945
1.8866,0.1222,38.2400,77,98,274948
1.8817,0.1222,38.2400,77,98,274952
1.9355,0.1271,37.9300,77,98,274955
1.8817,0.1222,38.2100,77,98,274958
1.8817,0.1124,38.2400,77,98,274962
1.8866,0.1222,38.2400,77,98,274965
1.8817,0.1173,38.2700,77,98,274968
1.9355,0.1369,38.0800,77,98,274971
1.9062,0.1515,38.2400,77,98,274975
1.8964,0.1173,38.1500,77,98,274978
1.8817,0.1222,38.2700,77,98,274981
1.8915,0.1271,38.2400,77,98,274985
1.9306,0.1320,38.2100,77,98,274989
1.9208,0.1320,38.2400,77,98,274992
1.9795,0.1222,38.1500,77,98,274996
1.9404,0.1222,38.3000,77,98,274999
1.9550,0.1173,38.2400,77,98,275002
1.9990,0.1320,38.1800,77,98,275006
1.9746,0.1173,38.2700,77,98,275009
2.0088,0.1222,38.1100,77,98,275012
1.9746,0.1173,38.2100,77,98,275015
1.9941,0.1173,38.2400,77,98,275019
1.9844,0.1271,38.1800,77,98,275022
1.9844,0.1222,38.2400,77,98,275025
2.0332,0.1222,38.0800,77,98,275030
2.0137,0.1271,38.2400,77,98,275033
2.0088,0.1222,38.2400,77,98,275036
2.0332,0.1320,38.2100,77,98,275040
2.0039,0.1222,38.2400,77,98,275043
2.0479,0.1417,38.0200,77,98,275046
1.9892,0.1173,38.1800,77,98,275049
1.9697,0.1222,38.3300,77,98,275053
1.9550,0.1271,38.2700,77,98,275056
1.9257,0.1124,38.1100,77,98,275059
1.9844,0.1369,37.9900,77,98,275063
1.9208,0.1271,38.3000,77,98,275066
1.9013,0.1173,38.1500,77,98,275069
1.8964,0.1222,38.2400,77,98,275074
1.8817,0.1222,38.4600,77,98,275077
1.9110,0.1222,38.0500,77,98,275080
1.8671,0.1222,38.2400,77,98,275084
1.8719,0.1271,38.1500,77,98,275087
1.8475,0.1222,38.2700,77,98,275090
1.8328,0.1222,38.0200,77,98,275094
1.8475,0.1271,38.1500,77,98,275097
1.8328,0.1222,38.2700,77,98,275100
1.8475,0.1369,38.1100,77,98,275103
1.8280,0.1222,38.2700,77,98,275107
1.8328,0.1222,38.2400,77,98,275110
1.8426,0.1222,38.1100,77,98,275113
1.8377,0.1222,38.3300,77,98,275118
1.8573,0.1173,38.0500,77,98,275121
1.8280,0.1222,38.2400,77,98,275124
1.8573,0.1173,38.2700,77,98,275128
1.8328,0.1320,38.2400,77,98,275131
1.8280,0.1173,38.2400,77,98,275134
1.8964,0.1271,38.0200,77,98,275138
1.9355,0.1466,38.1500,77,98,275141
2.0186,0.1222,38.2700,77,98,275144
2.1505,0.1515,38.2100,77,98,275147
2.3167,0.1222,38.2700,77,98,275151
2.5464,0.1320,37.9900,77,98,275154
2.6882,0.1271,38.2100,77,98,275158
2.7713,0.1173,38.2100,77,98,275162
2.7224,0.1271,38.1100,77,98,275165
2.5709,0.1222,38.2700,77,98,275168
2.4096,0.1369,38.0800,77,98,275172
2.1799,0.1271,38.3600,77,98,275175
2.0283,0.1271,38.2400,77,98,275178
1.9306,0.1124,38.2700,77,98,275182
1.8866,0.1222,38.2700,77,98,275185
1.8817,0.1320,38.1800,77,98,275188
1.8280,0.1222,38.2400,77,98,275191
1.8182,0.1271,38.0800,77,98,275195
1.7693,0.1173,38.2400,77,98,275198
1.7449,0.1173,38.2400,77,98,275202
1.7595,0.1320,38.1100,77,98,275206
1.7204,0.1173,38.2400,77,98,275209
1.7449,0.1222,38.1100,77,98,275212
1.7155,0.1222,38.1500,77,98,275216
1.7155,0.1173,38.2700,77,98,275219
1.7351,0.1271,38.2100,77,98,275222
1.7302,0.1222,38.2100,77,98,275226
1.7742,0.1271,37.9900,77,98,275229
1.7498,0.1271,38.2100,77,98,275232
1.7449,0.1222,38.2700,77,98,275236
1.7693,0.1271,38.1800,77,98,275239
1.7498,0.1222,38.2700,77,98,275243
1.8035,0.1320,37.9900,77,98,275246
1.7742,0.1173,38.1500,77,98,275250
1.7742,0.1173,38.3000,77,98,275253
1.7840,0.1417,38.3300,77,98,275256
1.7889,0.1124,38.2400,77,98,275260
1.8524,0.1417,38.1100,77,98,275263
1.8133,0.1271,38.2400,77,98,275266
1.8231,0.1124,38.2100,77,98,275270
1.8182,0.1271,38.3000,77,98,275273
1.8231,0.1222,38.2700,77,98,275276
1.8622,0.1320,38.0800,77,98,275280
1.8426,0.1124,38.2400,77,98,275283
1.8671,0.1271,38.1800,77,98,275287
1.8524,0.1271,38.2400,77,98,275290
1.8573,0.1222,38.2700,77,98,275294
1.8768,0.1320,38.1500,77,98,275297
1.8671,0.1222,38.2700,77,98,275300
1.8964,0.1320,37.5900,77,98,275304
1.8719,0.1271,38.1500,77,98,275307
1.8866,0.1124,38.2700,77,98,275310
1.9013,0.1222,37.7100,77,98,275314
1.8915,0.1271,38.2700,77,98,275317
1.9355,0.1222,38.0500,77,98,275320
1.9062,0.1417,38.3000,77,98,275324
1.9159,0.1222,38.2700,77,98,275328
1.9306,0.1271,38.2400,77,98,275331
1.9550,0.1173,38.2400,77,98,275334
1.9599,0.1271,37.9900,77,98,275338
1.9501,0.1271,38.2100,77,98,275341
1.9404,0.1271,38.3000,77,98,275344
1.9501,0.1271,38.2400,77,98,275348
1.9599,0.1271,38.3000,77,98,275351
2.0479,0.1320,37.9600,77,98,275354
1.9795,0.1222,38.2100,77,98,275358
1.9795,0.1466,38.2100,77,98,275361
1.9941,0.1222,38.2400,77,98,275364
1.9941,0.1222,38.4000,77,98,275368
2.0577,0.1369,38.0800,77,98,275372
2.0479,0.1222,38.2100,77,98,275375
2.0430,0.1222,38.1800,77,98,275378
2.0381,0.1222,38.2400,77,98,275382
2.0430,0.1222,38.2700,77,98,275385
2.0919,0.1320,38.1100,77,98,275388
2.0723,0.1222,38.2100,77,98,275392
2.1261,0.1222,38.1100,77,98,275395
2.0772,0.1222,38.3300,77,98,275398
2.0821,0.1271,38.2700,77,98,275402
2.1261,0.1369,38.1100,77,98,275405
2.1017,0.1271,38.2100,77,98,275410
2.0919,0.1222,38.2700,77,98,275414
2.1310,0.1271,37.9900,77,98,275417
2.0821,0.1222,38.2400,77,98,275420
2.0626,0.1222,38.2400,77,98,275424
2.0674,0.1124,38.2100,77,98,275427
2.0235,0.1173,38.2400,77,98,275430
2.0577,0.1271,37.9600,77,98,275434
1.9941,0.1124,38.1500,77,98,275437
1.9550,0.1124,38.2100,77,98,275440
1.9306,0.1222,38.2400,77,98,275444
1.9013,0.1173,38.2100,77,98,275447
1.9599,0.1417,38.0500,77,98,275450
1.8817,0.1271,38.1800,77,98,275454
1.8524,0.1173,38.4300,77,98,275458
1.8280,0.1124,38.2400,77,98,275461
1.8084,0.1173,38.1800,77,98,275464
1.8280,0.1515,38.0500,77,98,275468
1.7986,0.1124,38.2400,77,98,275471
1.7986,0.1222,38.1800,77,98,275474
1.7742,0.1173,38.2700,77,98,275478
1.7742,0.1124,38.2400,77,98,275481
1.7889,0.1173,38.1500,77,98,275484
1.7742,0.1124,38.2400,77,98,275488
1.7937,0.1222,38.2100,77,98,275491
1.7742,0.1173,38.2700,77,98,275494
1.7840,0.1124,38.2100,77,98,275499
1.7986,0.1271,38.1100,77,98,275502
1.7937,0.1173,38.2400,77,98,275505
1.8133,0.1173,38.0500,77,98,275508
1.7889,0.1173,38.2700,77,98,275512
1.7986,0.1173,38.2700,77,98,275515
1.8231,0.1271,38.1800,77,98,275518
1.8084,0.1173,38.2700,77,98,275522
1.8524,0.1320,37.9900,77,98,275525
1.8280,0.1222,38.1500,77,98,275528
1.8182,0.1173,38.1800,77,98,275532
1.8231,0.1222,38.2700,77,98,275535
1.8231,0.1173,38.2700,77,98,275538
1.8768,0.1320,38.0200,77,98,275543
1.8280,0.1222,38.2100,77,98,275546
1.8328,0.1124,38.1500,77,98,275549
1.8377,0.1222,38.2400,77,98,275553
1.8377,0.1173,38.2400,77,98,275556
1.8768,0.1320,38.1100,77,98,275559
1.8524,0.1222,38.3300,77,98,275562
1.8671,0.1222,38.1500,77,98,275566
1.8475,0.1173,38.2700,77,98,275569
1.8475,0.1124,38.2400,77,98,275572
1.8719,0.1222,38.1500,77,98,275576
1.8573,0.1222,38.2400,77,98,275579
1.8768,0.1271,38.2100,77,98,275582
1.8426,0.1173,38.2700,77,98,275587
1.8475,0.1173,38.2700,77,98,275590
1.8768,0.1320,38.1100,77,98,275593
1.8524,0.1173,38.3000,77,98,275597
1.8817,0.1173,38.0800,77,98,275600
1.8622,0.1222,38.1800,77,98,275603
1.8524,0.1124,38.2700,77,98,275606
1.8622,0.1271,38.2100,77,98,275610
1.8475,0.1124,38.2700,77,98,275613
1.8964,0.1222,37.9900,77,98,275616
1.8524,0.1173,38.1800,77,98,275620
1.8426,0.1124,38.2700,77,98,275623
1.8622,0.1222,38.2400,77,98,275627
1.8475,0.1173,38.2700,77,98,275631
1.9013,0.1271,37.9600,77,98,275634
1.8622,0.1222,38.1100,77,98,275637
1.8524,0.1124,38.2100,77,98,275641
1.8524,0.1173,38.3000,77,98,275644
1.8524,0.1173,38.2700,77,98,275647
1.8915,0.1369,38.1100,77,98,275651
1.8573,0.1222,38.2100,77,98,275654
1.8671,0.1173,38.0800,77,98,275657
1.8475,0.1124,38.2700,77,98,275660
1.8475,0.1173,38.3300,77,98,275664
1.9159,0.1271,38.0800,77,98,275667
1.8573,0.1173,38.2700,77,98,275671
1.8768,0.1222,38.1100,77,98,275675
1.8524,0.1173,38.2700,77,98,275678
1.8475,0.1173,38.1800,77,98,275681
1.8671,0.1222,38.1800,77,98,275685
1.8426,0.1173,38.3300,77,98,275688
1.8671,0.1173,38.0800,77,98,275691
1.8475,0.1173,38.2100,77,98,275695
1.8524,0.1173,38.2100,77,98,275698
1.8719,0.1222,38.1100,77,98,275701
1.8475,0.1173,38.2700,77,98,275704
1.8817,0.1222,38.0200,77,98,275708
1.8426,0.1124,38.2400,77,98,275712
1.8524,0.1173,38.4300,77,98,275715
1.8719,0.1271,38.2100,77,98,275719
1.8524,0.1271,38.2700,77,98,275722
1.9208,0.1222,37.9600,77,98,275725
1.8622,0.1222,38.2100,77,98,275729
1.8524,0.1173,38.2700,77,98,275732
1.8524,0.1222,38.2400,77,98,275735
1.8475,0.1173,38.2700,77,98,275739
1.8964,0.1320,38.0500,77,98,275742
1.8524,0.1222,38.3000,77,98,275745
1.8524,0.1369,38.2100,77,98,275748
1.8475,0.1173,38.2700,77,98,275752
1.8475,0.1173,38.4000,77,98,275756
1.8719,0.1369,38.1800,77,98,275759
1.8524,0.1124,38.2100,77,98,275763
1.8573,0.1173,38.1500,77,98,275766
1.8280,0.1173,38.3000,77,98,275769
1.8377,0.1173,38.2700,77,98,275773
1.8573,0.1173,38.1800,77,98,275776
1.8426,0.1222,38.2400,77,98,275779
1.8719,0.1222,38.1500,77,98,275783
1.8475,0.1173,38.2700,77,98,275786
1.8622,0.1173,38.2700,77,98,275789
1.9062,0.1222,38.1500,77,98,275793
1.9013,0.1075,38.3000,77,98,275796
1.9404,0.1173,38.0500,77,98,275800
1.9159,0.1222,38.1500,77,98,275803
1.9110,0.1173,38.2100,77,98,275807
1.9306,0.1222,38.1800,77,98,275810
1.9208,0.1173,38.2100,77,98,275813
1.9697,0.1271,37.9900,77,98,275817
1.9306,0.1173,38.1800,77,98,275820
1.9355,0.1173,38.3300,77,98,275823
1.9648,0.1222,38.2400,77,98,275827
1.9550,0.1173,38.2700,77,98,275830
2.0137,0.1466,38.0200,77,98,275833
1.9746,0.1271,38.1500,77,98,275837
1.9501,0.1222,38.1800,77,98,275841
1.9306,0.1222,38.2400,77,98,275844
1.9062,0.1173,38.2100,77,98,275847
1.9208,0.1124,38.1100,77,98,275851
1.8768,0.1222,38.3000,77,98,275854
1.8671,0.1466,38.1500,77,98,275857
1.8377,0.1173,38.3300,77,98,275861
1.8280,0.1222,38.2700,77,98,275864
1.8524,0.1271,38.0800,77,98,275867
1.8182,0.1222,38.3000,77,98,275871
1.8426,0.1271,38.1100,77,98,275874
1.7986,0.1173,38.2700,77,98,275877
1.7889,0.1173,38.3000,77,98,275881
1.7840,0.1222,38.2100,77,98,275885
1.7595,0.1222,38.2400,77,98,275888
1.7791,0.1222,38.0500,77,98,275891
1.7449,0.1222,38.3000,77,98,275895
1.7449,0.1222,38.2700,77,98,275898
1.7644,0.1320,38.1800,77,98,275901
1.7449,0.1222,38.2400,77,98,275905
1.7889,0.1222,38.0200,77,98,275908
1.7498,0.1173,38.2100,77,98,275911
1.7644,0.1222,38.2700,77,98,275915
1.7595,0.1222,37.7700,77,98,275918
1.7400,0.1173,38.2400,77,98,275921
1.7840,0.1320,37.9600,77,98,275926
1.7449,0.1271,38.1800,77,98,275929
1.7595,0.1173,38.2400,77,98,275932
1.8133,0.1222,38.3300,77,98,275936
1.8915,0.1173,38.2700,77,98,275939
2.0528,0.1320,38.0500,77,98,275942
2.1359,0.1222,38.1100,77,98,275945
2.2923,0.1222,38.1800,77,98,275949
2.4731,0.1222,38.2400,77,98,275952
2.6442,0.1320,38.2400,77,98,275955
2.7224,0.1222,38.1800,77,98,275959
2.5953,0.1222,38.2100,77,98,275962
2.4340,0.1271,38.1800,77,98,275965
2.2043,0.1222,38.3000,77,98,275970
2.0235,0.1222,38.2700,77,98,275973
1.9355,0.1222,38.1500,77,98,275976
1.8084,0.1222,38.2700,77,98,275979
1.7840,0.1662,38.1100,77,98,275983
1.7253,0.1222,38.2700,77,98,275986
1.7058,0.1222,38.2700,77,98,275989
1.7107,0.1271,38.1500,77,98,275993
1.6716,0.1173,38.2700,77,98,275996
1.6813,0.1222,37.9900,77,98,275999
1.6520,0.1271,38.1800,77,98,276003
1.6667,0.1173,38.2400,77,98,276006
1.6373,0.1222,38.2400,77,98,276009
1.6520,0.1222,38.2700,77,98,276014
1.6764,0.1271,38.0800,77,98,276017
1.6960,0.1320,38.4000,77,98,276022
1.6862,0.1320,38.2400,77,98,276025
1.6911,0.1271,38.1500,77,98,276028
1.6862,0.1222,38.1100,77,98,276032
1.6960,0.1222,38.2700,77,98,276035
1.7155,0.1271,38.4000,77,98,276038
1.7058,0.1564,38.2400,77,98,276041
1.7546,0.1271,38.1800,77,98,276045
1.7107,0.1222,38.3300,77,98,276048
1.7204,0.1222,38.2700,77,98,276051
1.7498,0.1320,38.1800,77,98,276056
1.7302,0.1222,38.2400,77,98,276059
1.7595,0.1222,38.0800,77,98,276062
1.7449,0.1173,38.1100,77,98,276066
1.7400,0.1222,38.2400,77,98,276069
1.7546,0.1222,38.2400,77,98,276072
1.7498,0.1466,38.2400,77,98,276076
1.7937,0.1124,38.0500,77,98,276079
1.7693,0.1222,38.2700,77,98,276082
1.7742,0.1271,38.3000,77,98,276085
1.7986,0.1124,38.1800,77,98,276089
1.7742,0.1222,38.3000,77,98,276092
1.8231,0.1564,37.9900,77,98,276096
1.7889,0.1222,38.1800,77,98,276100
1.7937,0.1173,38.2400,77,98,276103
1.8377,0.1222,38.2400,77,98,276106
1.8035,0.1271,38.2700,77,98,276110
1.8622,0.1417,38.0500,77,98,276113
1.8280,0.1271,38.2400,77,98,276116
1.8377,0.1222,38.1500,77,98,276120
1.8426,0.1222,38.2700,77,98,276123
1.8524,0.1173,38.2400,77,98,276126
1.8866,0.1320,38.0800,77,98,276129
1.8671,0.1222,38.3600,77,98,276133
1.8866,0.1222,38.1800,77,98,276136
1.8768,0.1222,38.2700,77,98,276140
1.8817,0.1222,38.3600,77,98,276144
1.9110,0.1124,38.2100,77,98,276147
1.8964,0.1222,38.2700,77,98,276150
1.9453,0.1271,38.1500,77,98,276154
1.9159,0.1222,38.2400,77,98,276157
1.9257,0.1222,38.2400,77,98,276160
1.9550,0.1222,38.1500,77,98,276164
1.9501,0.1466,38.2100,77,98,276167
1.9990,0.1271,38.0500,77,98,276170
1.9599,0.1222,38.2700,77,98,276174
1.9697,0.1173,38.2700,77,98,276177
1.9990,0.1320,38.2100,77,98,276180
1.9892,0.1222,38.3000,77,98,276184
2.0430,0.1320,37.9900,77,98,276188
2.0186,0.1222,38.1800,77,98,276191
1.9892,0.1222,38.2700,77,98,276194
1.9941,0.1222,38.2400,77,98,276198
1.9892,0.1222,38.2700,77,98,276201
2.0479,0.1808,37.9600,77,98,276204
2.0039,0.1124,38.2100,77,98,276208
1.9892,0.1173,38.2100,77,98,276211
1.9990,0.1613,38.2400,77,98,276214
1.9746,0.1271,38.2700,77,98,276217
2.0088,0.1369,38.0800,77,98,276221
1.9501,0.1271,38.4000,77,98,276225
1.9159,0.1466,38.1500,77,98,276228
1.8768,0.1222,38.2400,77,98,276232
1.8475,0.1222,38.3000,77,98,276235
1.8524,0.1320,38.1800,77,98,276238
1.8133,0.1222,38.2400,77,98,276242
1.8035,0.1271,38.1800,77,98,276245
1.7595,0.1222,38.2100,77,98,276248
1.7400,0.1173,38.2700,77,98,276252
1.7498,0.1124,38.1100,77,98,276255
1.7058,0.1173,38.3000,77,98,276258
1.7400,0.1271,38.1100,77,98,276261
1.6813,0.1173,38.2100,77,98,276265
1.6716,0.1222,38.3000,77,98,276269
1.6716,0.1124,38.1800,77,98,276272
1.6520,0.1222,38.2700,77,98,276276
1.6813,0.1369,38.0200,77,98,276279
1.6569,0.1222,38.2400,77,98,276282
1.6618,0.1320,38.3000,77,98,276286
1.6911,0.1320,38.1800,77,98,276289
1.6667,0.1222,38.2400,77,98,276292
1.7107,0.1417,37.9900,77,98,276296
1.6764,0.1173,38.2700,77,98,276299
1.6813,0.1173,38.3000,77,98,276302
1.6960,0.1271,38.2400,77,98,276305
1.6813,0.1222,38.3300,77,98,276310
1.7449,0.1320,38.0200,77,98,276313
1.7058,0.1320,38.2100,77,98,276316
1.7009,0.1173,38.2400,77,98,276320
1.7107,0.1173,38.2400,77,98,276323
1.7107,0.1222,38.3300,77,98,276326
1.7693,0.1369,38.0500,77,98,276330
1.7204,0.1271,38.2700,77,98,276333
1.7351,0.1222,38.1100,77,98,276336
1.7253,0.1271,38.2700,77,98,276340
1.7253,0.1222,38.3600,77,98,276343
1.7498,0.1271,38.1500,77,98,276346
1.7253,0.1222,38.1800,77,98,276349
1.7595,0.1320,38.1500,77,98,276354
1.7302,0.1222,38.1500,77,98,276357
1.7449,0.1271,38.2700,77,98,276360
1.7546,0.1222,37.6500,77,98,276364
1.7449,0.1271,38.2400,77,98,276367
1.7693,0.1222,38.0500,77,98,276370
1.7351,0.1173,38.3000,77,98,276374
1.7400,0.1222,38.2700,77,98,276377
1.7644,0.1320,38.1800,77,98,276380
1.7498,0.1173,38.2700,77,98,276384
1.7937,0.1124,37.9900,77,98,276387
1.7693,0.1271,38.1800,77,98,276390
1.7498,0.1222,38.3000,77,98,276393
1.7546,0.1271,38.2700,77,98,276398
1.7449,0.1466,38.2700,77,98,276401
1.8280,0.1320,37.9600,77,98,276404
1.7595,0.1222,38.2700,77,98,276408
1.7449,0.1222,38.2400,77,98,276411
1.7546,0.1271,38.2700,77,98,276414
1.7498,0.1222,38.3000,77,98,276418
1.8328,0.1369,38.0800,77,98,276421
1.7791,0.1271,38.2100,77,98,276424
1.7742,0.1222,38.1500,77,98,276428
1.7693,0.1124,38.2400,77,98,276431
1.7546,0.1222,38.2700,77,98,276434
1.8035,0.1320,38.1800,77,98,276438
1.7595,0.1271,38.2700,77,98,276442
1.7791,0.1271,38.0800,77,98,276445
1.7595,0.1222,38.2700,77,98,276448
1.7595,0.1222,38.2700,77,98,276452
1.7889,0.1417,38.1100,77,98,276455
1.7644,0.1222,37.5300,77,98,276458
1.7937,0.1173,38.1100,77,98,276462
1.7644,0.1222,38.1800,77,98,276465
1.7644,0.1222,38.2700,77,98,276468
1.7791,0.1271,38.1500,77,98,276472
1.7546,0.1222,38.2400,77,98,276475
1.7840,0.1271,38.0500,77,98,276478
1.7595,0.1222,38.1800,77,98,276482
1.7498,0.1222,38.2700,77,98,276486
1.7742,0.1369,38.1800,77,98,276489
1.7546,0.1222,38.2700,77,98,276492
1.7986,0.1271,38.0200,77,98,276496
1.7595,0.1173,38.1800,77,98,276499
1.7693,0.1124,38.2700,77,98,276502
1.7791,0.1271,38.3000,77,98,276506
1.7693,0.1222,38.2700,77,98,276509
1.8182,0.1417,38.0200,77,98,276512
1.7791,0.1271,38.1800,77,98,276516
1.7693,0.1173,38.1800,77,98,276519
1.7693,0.1173,38.3000,77,98,276523
1.7889,0.1222,38.2400,77,98,276526
1.8035,0.1320,38.1800,77,98,276530
1.7937,0.1271,38.2100,77,98,276533
1.7889,0.1222,38.1500,77,98,276536
1.7742,0.1222,38.2700,77,98,276540
1.7791,0.1222,38.2700,77,98,276543
1.8035,0.1271,38.0800,77,98,276546
1.7791,0.1271,38.2100,77,98,276550
1.7986,0.1271,38.1100,77,98,276553
1.7742,0.1222,38.3000,77,98,276556
1.7742,0.1173,38.2700,77,98,276560
1.7840,0.1222,38.1500,77,98,276563
1.7791,0.1222,38.3000,77,98,276567
1.8035,0.1173,38.1800,77,98,276570
1.7791,0.1222,37.5900,77,98,276574
1.7840,0.1271,38.3000,77,98,276577
1.8231,0.1271,38.1800,77,98,276580
1.8084,0.1222,38.3300,77,98,276584
1.8573,0.1320,38.0200,77,98,276587
1.8475,0.1222,38.1800,77,98,276590
1.8377,0.1222,38.3000,77,98,276594
1.8524,0.1271,38.2400,77,98,276597
1.8524,0.1222,37.8700,77,98,276600
1.9013,0.1320,37.9300,77,98,276604
1.8671,0.1222,38.2100,77,98,276608
1.8622,0.1173,38.2100,77,98,276611
1.8768,0.1271,38.2100,77,98,276614
1.8817,0.1222,38.3300,77,98,276618
1.9501,0.1417,38.0500,77,98,276621
1.9306,0.1320,38.1800,77,98,276624
1.9110,0.1173,38.2700,77,98,276628
1.8964,0.1271,38.2400,76,98,276631
1.8035,0.1222,38.2700,76,98,276636
1.7937,0.1222,38.2700,76,98,276639
1.8084,0.1369,38.1800,76,98,276642
1.7791,0.1222,38.3000,76,98,276646
1.7937,0.1564,38.0800,76,98,276649
1.7644,0.1271,38.1500,76,98,276653
1.7498,0.1222,38.2700,76,98,276657
1.7449,0.1222,38.1800,76,98,276660
1.7253,0.1222,38.2700,76,98,276663
1.7498,0.1369,38.0200,76,98,276666
1.7253,0.1271,38.2100,76,98,276670
1.7155,0.1222,38.3000,76,98,276673
1.7302,0.1271,38.1800,76,98,276676
1.7155,0.1222,38.2700,76,98,276680
1.7644,0.1369,37.9300,76,98,276683
1.7302,0.1222,38.1100,76,98,276686
1.7253,0.1173,38.1800,76,98,276690
1.7302,0.1271,38.2400,76,98,276694
1.7204,0.1417,38.2400,76,98,276697
1.7546,0.1320,38.1100,76,98,276701
1.7058,0.1271,38.2100,76,98,276704
1.7155,0.1222,38.1500,76,98,276707
1.7400,0.1222,38.2400,76,98,276711
1.8084,0.1271,38.2700,76,98,276714
1.9355,0.1320,38.0800,76,98,276717
2.0283,0.1222,38.2400,76,98,276720
2.2092,0.1271,38.1100,76,98,276724
2.3607,0.1222,38.2700,76,98,276727
2.5660,0.1222,38.2700,76,98,276730
2.7175,0.1320,38.1800,76,98,276734
2.6491,0.1222,38.2400,76,98,276738
2.5611,0.1222,38.1100,76,98,276741
2.2923,0.1222,38.2100,76,98,276745
2.0919,0.1271,38.2400,76,98,276748
1.9501,0.1271,38.1100,76,98,276751
1.8231,0.1222,38.3300,76,98,276755
1.7889,0.1271,38.0200,76,98,276758
1.7155,0.1222,38.2400,76,98,276761
1.6911,0.1222,38.2700,76,98,276764
1.6813,0.1271,38.2400,76,98,276768
1.6520,0.1222,38.2700,76,98,276771
1.6764,0.1320,37.9900,76,98,276774
1.6325,0.1271,38.1800,76,98,276779
1.6031,0.1173,38.2700,76,98,276782
1.6031,0.1320,38.2400,76,98,276785
1.6227,0.1271,38.2700,76,98,276789
1.6569,0.1417,38.1100,76,98,276792
1.6227,0.1369,38.2700,76,98,276795
1.6227,0.1222,38.1500,76,98,276799
1.6227,0.1222,38.2400,76,98,276802
1.6178,0.1222,38.3300,76,98,276805
1.6520,0.1320,38.1100,76,98,276809
1.6471,0.1271,38.2400,76,98,276812
1.6618,0.1271,38.1100,76,98,276815
1.6422,0.1271,38.2700,76,98,276818
1.6520,0.1515,38.2100,76,98,276823
1.6716,0.1222,38.1800,76,98,276826
1.6716,0.1173,38.3600,76,98,276829
1.6911,0.1124,38.1500,76,98,276833
1.6716,0.1271,38.2400,76,98,276836
1.6813,0.1173,38.2400,76,98,276839
1.6960,0.1320,38.2100,76,98,276843
1.6862,0.1222,38.2400,76,98,276846
1.7253,0.1271,38.0200,76,98,276849
1.7155,0.1320,38.1500,76,98,276853
1.7204,0.1271,38.2700,76,98,276856
1.7253,0.1466,38.1500,76,98,276859
1.7107,0.1222,38.2400,76,98,276864
1.7693,0.1271,37.9600,76,98,276867
1.7400,0.1369,38.2100,76,98,276870
1.7400,0.1271,38.2700,76,98,276873
1.7546,0.1271,38.2100,76,98,276877
1.7449,0.1271,38.1800,76,98,276880
1.8035,0.1369,38.0200,76,98,276883
1.7742,0.1320,38.1500,76,98,276887
1.7742,0.1173,38.2400,76,98,276890
1.7791,0.1124,38.2400,76,98,276893
1.7791,0.1320,38.2400,76,98,276897
1.8182,0.1320,38.1500,76,98,276900
1.7937,0.1271,38.2400,76,98,276903
1.8182,0.1222,38.1800,76,98,276908
1.8084,0.1222,37.8700,76,98,276911
1.8182,0.1515,38.2700,76,98,276914
1.8573,0.1320,38.0800,76,98,276917
1.8328,0.1173,38.2400,76,98,276921
1.8671,0.1320,38.1500,76,98,276924
1.8524,0.1173,38.3300,76,98,276927
1.8622,0.1173,38.2700,76,98,276931
1.8866,0.1320,38.2100,76,98,276934
1.8719,0.1173,38.2400,76,98,276937
1.9062,0.1271,38.0500,76,98,276941
1.8915,0.1222,38.1500,76,98,276944
1.8964,0.1124,38.2400,76,98,276947
1.9355,0.1320,38.1800,76,98,276952
1.9208,0.1222,38.3000,76,98,276955
1.9648,0.1320,37.9900,76,98,276958
1.9306,0.1173,38.2700,76,98,276961
1.9404,0.1173,38.2700,76,98,276965
1.9550,0.1124,38.2400,76,98,276968
1.9501,0.1271,38.2400,76,98,276971
2.0088,0.1124,37.9600,76,98,276975
1.9697,0.1271,38.1800,76,98,276978
1.9501,0.1222,38.2700,76,98,276981
1.9599,0.1271,38.2400,76,98,276985
1.9599,0.1222,38.2700,76,98,276988
2.0088,0.1320,38.0500,76,98,276992
1.9746,0.1271,38.2400,76,98,276996
1.9697,0.1222,38.1500,76,98,276999
1.9550,0.1222,38.2400,76,98,277002
1.9404,0.1222,38.3000,76,98,277005
1.9599,0.1320,38.1500,76,98,277009
1.9599,0.1320,38.2100,76,98,277012
1.9208,0.1271,38.1100,76,98,277015
1.8719,0.1222,38.3000,76,98,277019
1.8475,0.1124,38.2400,76,98,277022
1.8328,0.1222,38.1800,76,98,277025
1.7937,0.1320,38.2400,76,98,277029
1.7986,0.1124,38.1500,76,98,277032
1.7449,0.1222,38.2400,76,98,277036
1.7302,0.1222,38.2400,76,98,277039
1.7351,0.1320,38.0800,76,98,277043
1.7204,0.1222,38.1800,76,98,277046
1.7107,0.1271,38.0500,76,98,277049
1.6813,0.1222,38.3600,76,98,277053
1.6618,0.1222,38.2400,76,98,277056
1.6618,0.1271,38.1500,76,98,277059
1.6422,0.1271,38.2700,76,98,277063
1.6813,0.1271,37.9900,76,98,277066
1.6569,0.1271,38.1800,76,98,277069
1.6471,0.1222,38.2700,76,98,277073
1.6520,0.1271,38.2100,76,98,277076
1.6422,0.1222,38.2400,76,98,277080
1.6911,0.1417,37.9600,76,98,277083
1.6618,0.1222,38.1100,76,98,277087
1.6569,0.1173,38.2100,76,98,277090
1.6667,0.1320,38.2400,76,98,277093
1.6667,0.1222,38.2700,76,98,277097
1.7058,0.1613,38.1500,76,98,277100
1.6813,0.1271,38.2100,76,98,277103
1.6960,0.1222,38.3000,76,98,277107
1.7107,0.1222,38.2400,76,98,277110
1.6960,0.1222,38.3000,76,98,277113
1.7204,0.1320,38.0500,76,98,277117
1.7009,0.1173,38.2400,76,98,277121
1.7204,0.1124,38.1100,76,98,277124
1.7058,0.1271,38.2700,76,98,277127
1.7107,0.1222,38.2400,76,98,277131
1.7400,0.1271,38.1500,76,98,277134
1.7155,0.1222,38.2700,76,98,277137
1.7449,0.1320,38.1100,76,98,277141
1.7204,0.1173,38.2400,76,98,277144
1.7204,0.1222,38.2700,76,98,277147
1.7253,0.1271,38.1100,76,98,277151
1.7302,0.1222,38.2700,76,98,277154
1.7595,0.1271,38.0500,76,98,277157
1.7302,0.1173,38.2400,76,98,277161
1.7302,0.1222,38.4000,76,98,277165
1.7693,0.1222,38.1800,76,98,277168
1.7302,0.1222,38.3000,76,98,277171
1.7791,0.1369,37.9900,76,98,277175
1.7498,0.1271,38.1500,76,98,277178
1.7400,0.1173,38.3000,76,98,277181
1.7449,0.1222,38.2400,76,98,277185
1.7449,0.1222,38.2700,76,98,277188
1.7937,0.1320,38.0800,76,98,277191
1.7595,0.1320,38.4000,76,98,277195
1.7546,0.1564,38.1500,76,98,277198
1.7498,0.1124,38.2700,76,98,277201
1.7498,0.1222,38.2700,76,98,277206
1.7937,0.1320,38.0800,76,98,277209
1.7693,0.1271,38.2400,76,98,277212
1.7693,0.1466,38.1500,76,98,277215
1.7449,0.1222,38.2700,76,98,277219
1.7449,0.1271,38.3000,76,98,277222
1.7644,0.1271,38.1800,76,98,277225
1.7546,0.1222,38.3000,76,98,277229
1.7791,0.1320,38.2700,76,98,277232
1.7449,0.1222,38.2700,76,98,277235
1.7498,0.1222,38.2400,76,98,277239
1.7644,0.1320,38.1500,76,98,277242
1.7546,0.1271,37.7700,76,98,277248
1.7400,0.1320,38.2700,76,98,277251
1.8035,0.1369,37.9600,76,98,277254
1.7644,0.1320,38.2100,76,98,277258
1.7546,0.1271,38.2400,76,98,277261
1.7644,0.1271,38.2400,76,98,277264
1.7546,0.1417,38.2400,76,98,277268
1.8377,0.1320,38.0800,76,98,277271
1.7742,0.1320,38.1800,76,98,277274
1.7644,0.1222,38.2100,76,98,277277
1.7595,0.1124,38.2400,76,98,277281
1.7546,0.1222,38.2700,76,98,277284
1.7840,0.1320,38.1500,76,98,277287
1.7546,0.1222,38.2400,76,98,277292
1.7791,0.1515,38.0800,76,98,277295
1.7595,0.1222,38.2700,76,98,277298
1.7595,0.1466,38.2700,76,98,277302
1.7791,0.1320,38.1100,76,98,277305
1.7546,0.1515,38.2400,76,98,277308
1.7791,0.1222,38.1100,76,98,277312
1.7595,0.1222,38.4300,76,98,277315
1.7644,0.1271,38.2700,76,98,277318
1.7840,0.1271,38.1800,76,98,277321
1.7693,0.1222,38.2700,76,98,277325
1.7986,0.1271,38.0200,76,98,277328
1.7742,0.1222,38.2100,76,98,277331
1.7840,0.1222,38.2700,76,98,277336
1.7937,0.1320,38.1800,76,98,277339
1.7644,0.1271,38.2700,76,98,277342
1.8328,0.1369,37.9900,76,98,277346
1.7693,0.1124,38.2400,76,98,277349
1.7889,0.1173,38.2700,76,98,277352
1.7937,0.1271,38.2400,76,98,277356
1.7986,0.1222,38.2700,76,98,277359
1.8671,0.1417,38.0200,76,98,277362
1.8377,0.1271,38.0500,76,98,277365
1.8328,0.1173,38.2100,76,98,277369
1.8475,0.1222,38.2700,76,98,277372
1.8573,0.1222,38.2700,76,98,277376
1.9013,0.1369,38.0500,76,98,277380
1.8719,0.1320,38.0800,76,98,277383
1.8817,0.1173,38.1500,76,98,277386
1.8817,0.1124,38.3000,76,98,277390
1.8817,0.1222,38.2700,76,98,277393
1.9257,0.1271,38.0800,76,98,277396
1.9159,0.1271,38.2400,76,98,277400
1.9355,0.1271,38.1800,76,98,277403
1.9013,0.1271,38.2700,76,98,277406
1.8915,0.1222,38.2700,76,98,277409
1.8866,0.1222,38.1800,76,98,277413
1.8671,0.1222,38.2700,76,98,277416
1.8671,0.1222,38.0800,76,98,277420
1.8133,0.1222,38.2400,76,98,277424
1.8035,0.1222,38.2400,76,98,277427
1.8426,0.1271,38.1800,76,98,277430
1.7840,0.1222,38.2400,76,98,277434
1.8231,0.1271,38.0200,76,98,277437
1.7986,0.1271,38.1800,76,98,277440
1.7742,0.1222,38.2400,76,98,277444
1.7693,0.1271,38.0200,76,98,277447
1.7449,0.1222,38.2100,76,98,277450
1.7840,0.1369,37.9600,76,98,277453
1.7400,0.1271,38.2100,76,98,277457
1.7302,0.1173,38.2400,76,98,277460
1.7302,0.1222,38.2400,76,98,277464
1.7204,0.1124,38.2700,76,98,277468
1.7742,0.1417,38.0500,76,98,277471
1.7400,0.1222,38.1800,76,98,277474
1.7498,0.1222,38.1800,76,98,277478
1.7400,0.1222,38.3300,76,98,277481
1.7351,0.1222,38.2700,76,98,277484
1.7546,0.1320,38.2400,76,98,277488
1.7253,0.1222,38.2400,76,98,277491
1.7253,0.1222,38.1100,76,98,277494
1.7107,0.1124,38.2700,76,98,277497
1.7400,0.1222,38.3000,76,98,277501
1.8280,0.1320,38.1100,76,98,277505
1.8964,0.1271,38.2400,76,98,277508
2.0479,0.1222,38.1500,76,98,277512
2.1652,0.1271,38.2100,76,98,277515
2.3460,0.1124,38.2700,76,98,277518
2.5758,0.1320,38.1500,76,98,277522
2.6637,0.1320,38.2400,76,98,277525
2.6588,0.1271,38.0800,76,98,277528
2.4731,0.1222,38.1500,76,98,277532
2.2727,0.1173,38.2700,76,98,277535
2.1065,0.1320,38.1800,76,98,277538
1.9355,0.1222,38.2700,76,98,277541
1.8768,0.1271,37.9900,76,98,277545
1.7791,0.1320,38.1800,76,98,277549
1.7400,0.1173,38.2700,76,98,277552
1.7155,0.1271,38.2400,76,98,277556
1.7155,0.1124,38.2700,76,98,277559
1.7107,0.1417,38.0200,76,98,277562
1.6520,0.1271,38.2100,76,98,277566
1.6276,0.1173,38.2400,76,98,277569
1.6422,0.1173,38.2700,76,98,277572
1.6178,0.1222,38.2400,76,98,277576
1.6569,0.1662,38.0800,76,98,277579
1.6276,0.1124,38.2400,76,98,277582
1.6373,0.1271,38.1500,76,98,277586
1.6276,0.1222,38.2400,76,98,277590
1.6227,0.1222,38.3600,76,98,277593
1.6520,0.1320,38.1100,76,98,277596
1.6471,0.1271,38.2400,76,98,277600
1.6716,0.1320,38.1100,76,98,277603
1.6471,0.1222,38.3300,76,98,277606
1.6618,0.1222,38.2400,76,98,277610
1.6813,0.1124,38.1500,76,98,277613
1.6764,0.1222,38.2700,76,98,277616
1.7058,0.1271,38.0800,76,98,277620
1.6960,0.1222,38.3300,76,98,277623
1.7058,0.1271,38.3000,76,98,277626
1.7498,0.1271,38.1800,76,98,277630
1.7155,0.1222,38.1800,76,98,277634
1.7546,0.1222,37.9900,76,98,277637
1.7400,0.1271,38.1800,76,98,277640
1.7253,0.1271,38.2700,76,98,277644
1.7351,0.1271,38.3000,76,98,277647
1.7351,0.1320,38.3000,76,98,277650
1.7889,0.1320,37.9900,76,98,277654
1.7595,0.1271,38.2400,76,98,277657
1.7595,0.1222,38.2100,76,98,277660
1.7693,0.1271,38.2400,76,98,277664
1.7644,0.1417,38.2700,76,98,277667
1.8133,0.1369,38.1100,76,98,277670
1.7986,0.1320,38.1800,76,98,277675
1.7986,0.1271,38.1800,76,98,277678
1.7889,0.1222,38.3000,76,98,277681
1.7986,0.1173,38.3000,76,98,277684
1.8280,0.1320,38.1800,76,98,277688
1.8084,0.1222,38.4000,76,98,277691
1.8328,0.1271,38.1100,76,98,277694
1.8182,0.1222,38.3000,76,98,277698
1.8280,0.1222,38.4000,76,98,277701
1.8671,0.1417,38.1500,76,98,277704
1.8426,0.1222,38.2700,76,98,277708
1.8768,0.1222,38.1100,76,98,277711
1.8573,0.1222,38.2400,76,98,277714
1.8719,0.1417,38.3000,76,98,277719
1.8915,0.1271,38.2700,76,98,277722
1.8817,0.1320,38.2400,76,98,277725
1.9208,0.1222,38.0500,76,98,277728
1.9062,0.1222,38.1800,76,98,277732
1.9110,0.1222,38.2700,76,98,277735
1.9501,0.1222,38.1800,76,98,277738
1.9355,0.1222,38.2700,76,98,277742
1.9892,0.1320,37.9900,76,98,277745
1.9550,0.1222,38.1800,76,98,277748
1.9599,0.1222,38.2700,76,98,277752
1.9795,0.1124,38.2400,76,98,277755
1.9795,0.1271,38.2700,76,98,277758
2.0479,0.1320,38.0200,76,98,277763
1.9990,0.1271,38.2100,76,98,277766
1.9892,0.1173,38.2100,76,98,277769
2.0039,0.1271,38.2400,76,98,277772
1.9990,0.1124,38.2700,76,98,277776
2.0381,0.1320,38.1100,76,98,277779
1.9941,0.1124,38.2100,76,98,277782
2.0039,0.1222,38.1500,76,98,277786
1.9795,0.1222,38.2700,76,98,277789
1.9795,0.1222,38.2700,76,98,277792
1.9990,0.1320,38.1100,76,98,277796
1.9599,0.1271,38.2400,76,98,277799
1.9599,0.1124,38.1100,76,98,277803
1.9159,0.1222,38.3000,76,98,277806
1.8915,0.1271,38.3000,76,98,277810
1.8817,0.1222,38.1800,76,98,277813
1.8524,0.1222,38.3000,76,98,277816
1.8524,0.1271,38.0800,76,98,277820
1.7986,0.1222,38.2400,76,98,277823
1.7742,0.1222,38.1800,76,98,277826
1.7986,0.1320,38.1100,76,98,277830
1.7400,0.1320,37.5900,76,98,277833
1.7546,0.1271,38.1800,76,98,277836
1.7449,0.1271,38.1500,76,98,277840
1.6960,0.1222,38.2700,76,98,277843
1.6911,0.1222,38.2100,76,98,277847
1.6764,0.1222,38.2700,76,98,277850
1.7155,0.1271,37.9600,76,98,277854
1.7009,0.1515,38.0800,76,98,277858
1.6911,0.1417,38.2100,76,98,277862
1.6911,0.1222,38.1800,76,98,277865
1.6764,0.1222,38.2700,76,98,277868
1.6764,0.1222,38.2700,76,98,277872
1.7009,0.1320,38.2100,76,98,277875
1.6862,0.1173,38.3000,76,98,277878
1.7009,0.1222,38.0800,76,98,277882
1.6960,0.1222,38.3600,76,98,277885
1.7009,0.1369,38.2700,76,98,277889
1.7302,0.1222,38.1100,76,98,277892
1.7107,0.1173,38.2400,76,98,277896
1.7498,0.1271,38.1500,76,98,277899
1.7204,0.1222,38.0800,76,98,277902
1.7253,0.1222,38.2700,76,98,277906
1.7498,0.1271,38.1800,76,98,277909
1.7351,0.1173,38.3000,76,98,277912
1.7693,0.1271,38.0500,76,98,277916
1.7498,0.1222,38.2700,76,98,277919
1.7449,0.1320,38.2400,76,98,277922
1.7742,0.1320,38.1800,76,98,277926
1.7546,0.1222,38.2700,76,98,277929
1.7986,0.1320,37.9900,76,98,277933
1.7595,0.1222,38.2100,76,98,277937
1.7742,0.1271,38.2700,76,98,277940
1.7791,0.1271,38.2100,76,98,277943
1.7693,0.1369,38.2700,76,98,277946
1.8280,0.1417,38.0500,76,98,277950
1.7889,0.1271,38.2700,76,98,277953
1.7742,0.1173,38.1800,76,98,277956
1.7693,0.1222,38.3300,76,98,277960
1.7693,0.1271,38.3000,76,98,277963
1.8084,0.1320,38.0500,76,98,277966
1.7791,0.1222,38.3000,76,98,277970
1.7889,0.1271,38.1100,76,98,277974
1.7742,0.1124,38.2400,76,98,277977
1.7742,0.1222,38.1500,76,98,277981
1.8084,0.1271,38.1800,76,98,277984
1.7840,0.1222,38.4300,76,98,277987
1.8035,0.1320,38.1500,76,98,277990
1.7742,0.1124,38.2700,76,98,277994
1.7791,0.1222,38.2700,76,98,277997
1.7986,0.1222,38.1500,76,98,278000
1.7840,0.1222,38.2700,76,98,278004
1.8084,0.1222,38.0800,76,98,278007
1.7840,0.1222,38.2700,76,98,278010
1.7889,0.1222,38.2400,76,98,278014
1.8133,0.1320,38.1800,76,98,278018
1.7889,0.1222,38.2400,76,98,278021
1.8377,0.1271,37.9900,76,98,278025
1.8084,0.1271,38.1500,76,98,278028
1.8035,0.1173,38.2400,76,98,278031
1.7986,0.1271,38.2400,76,98,278034
1.7889,0.1320,38.2700,76,98,278038
1.8475,0.1320,37.9600,76,98,278041
1.8035,0.1222,38.2700,76,98,278044
1.7986,0.1173,38.2100,76,98,278048
1.8035,0.1222,38.3000,76,98,278051
1.7986,0.1222,38.2700,76,98,278054
1.8524,0.1369,38.0800,76,98,278059
1.8280,0.1271,38.1800,76,98,278062
1.8231,0.1222,38.1500,76,98,278065
1.8084,0.1222,38.2700,76,98,278069
1.7986,0.1222,38.2400,76,98,278072
1.8426,0.1320,38.1800,76,98,278075
1.8084,0.1222,38.2400,76,98,278078
1.8280,0.1222,38.0800,76,98,278082
1.8084,0.1222,38.2400,76,98,278085
1.8084,0.1222,38.2700,76,98,278088
1.8377,0.1417,38.0800,76,98,278092
1.8084,0.1222,38.2400,76,98,278095
1.8328,0.1222,38.1500,76,98,278098
1.8084,0.1173,38.2100,76,98,278103
1.8084,0.1222,38.2700,76,98,278106
1.8280,0.1271,38.1800,76,98,278109
1.8084,0.1222,38.2700,76,98,278113
1.8377,0.1222,38.0200,76,98,278116
1.8426,0.1173,38.1800,76,98,278119
1.8133,0.1222,38.3300,76,98,278122
1.8377,0.1369,38.1800,76,98,278126
1.8133,0.1222,38.3000,76,98,278129
1.8573,0.1271,38.1100,76,98,278132
1.8133,0.1124,38.1800,76,98,278136
1.8231,0.1222,38.3000,76,98,278139
1.8719,0.1222,38.2700,76,98,278142
1.8475,0.1222,38.2700,76,98,278147
1.9404,0.1320,38.0200,76,98,278150
1.8817,0.1271,38.1800,76,98,278153
1.8768,0.1271,38.1500,76,98,278157
1.8768,0.1222,38.3000,76,98,278160
1.8817,0.1222,38.2700,76,98,278163
1.9501,0.1124,38.0500,76,98,278166
1.8915,0.1222,37.5600,76,98,278170
1.9110,0.1173,38.1500,76,98,278173
1.9013,0.1222,38.2700,76,98,278176
1.9110,0.1222,38.2400,76,98,278180
1.9599,0.1271,38.1100,76,98,278183
1.9453,0.1222,38.2400,76,98,278187
1.9746,0.1320,38.1500,76,98,278191
1.9453,0.1222,38.2400,76,98,278194
1.9355,0.1222,38.2700,76,98,278197
1.9355,0.1124,38.1500,76,98,278201
1.9062,0.1222,38.4000,76,98,278204
1.9110,0.1369,38.0500,76,98,278207
1.8622,0.1222,38.1100,76,98,278211
1.8426,0.1271,38.2700,76,98,278214
1.8426,0.1320,38.2100,76,98,278217
1.8280,0.1271,38.2400,76,98,278220
1.8622,0.1271,37.9900,76,98,278224
1.8328,0.1271,38.1800,76,98,278227
1.8133,0.1124,38.2700,76,98,278231
1.8035,0.1320,38.2400,76,98,278235
1.7889,0.1222,38.2400,76,98,278238
1.8328,0.1320,37.9900,76,98,278241
1.8035,0.1271,38.2100,76,98,278245
1.7742,0.1173,38.2400,76,98,278248
1.7742,0.1320,38.2400,76,98,278251
1.7693,0.1222,38.2700,76,98,278255
1.8084,0.1320,38.1100,76,98,278258
1.8182,0.1222,38.2100,76,98,278261
1.7937,0.1222,38.1500,76,98,278264
1.7791,0.1222,38.2700,76,98,278268
1.7742,0.1222,38.2700,76,98,278272
1.7937,0.1320,38.2400,76,98,278275
1.7693,0.1271,38.2400,76,98,278279
1.7791,0.1271,38.1500,76,98,278282
1.7498,0.1222,38.2400,76,98,278285
1.7937,0.1222,38.2700,76,98,278289
1.8817,0.1320,38.1800,76,98,278292
1.9306,0.1222,38.3600,76,98,278295
2.0772,0.1271,38.1100,76,98,278299
2.2043,0.1222,38.1800,76,98,278302
2.3607,0.1222,38.2700,76,98,278305
2.6002,0.1124,38.1800,76,98,278309
2.7028,0.1222,38.2700,76,98,278312
2.7370,0.1271,38.0200,76,98,278316
2.5709,0.1271,38.1800,76,98,278319
2.3656,0.1222,38.2700,76,98,278323
2.1896,0.1271,38.2100,76,98,278326
2.0332,0.1173,38.2700,76,98,278329
1.9453,0.1320,37.9600,76,98,278333
1.8426,0.1173,38.1800,76,98,278336
1.7986,0.1173,38.2400,76,98,278339
1.7742,0.1369,38.2700,76,98,278343
1.7351,0.1222,38.2700,76,98,278346
1.7693,0.1320,38.1100,76,98,278349
1.7058,0.1271,38.2400,76,98,278353
1.6764,0.1173,38.2700,76,98,278356
1.6813,0.1124,38.2400,76,98,278360
1.6618,0.1222,38.2100,76,98,278363
1.6960,0.1271,38.0800,76,98,278367
1.6716,0.1222,38.2400,76,98,278370
1.6911,0.1271,38.1100,76,98,278373
1.6813,0.1222,38.2400,76,98,278377
1.6862,0.1222,38.2700,76,98,278380
1.7204,0.1320,38.1500,76,98,278383
1.7058,0.1222,38.2700,76,98,278387
1.7351,0.1515,38.1500,76,98,278390
1.7058,0.1173,38.2400,76,98,278393
1.7155,0.1222,38.2700,76,98,278397
1.7400,0.1271,38.1100,76,98,278401
1.7351,0.1222,37.4900,76,98,278404
1.7742,0.1271,38.0500,76,98,278407
1.7498,0.1222,38.2700,76,98,278411
1.7546,0.1320,38.2100,76,98,278414
1.7693,0.1271,38.1800,76,98,278417
1.7644,0.1222,38.2400,76,98,278421
1.8231,0.1271,37.9900,76,98,278424
1.7937,0.1271,38.2100,76,98,278427
1.7889,0.1173,38.2700,76,98,278431
1.7840,0.1222,38.2100,76,98,278434
1.7840,0.1271,38.2700,76,98,278437
1.8475,0.1417,38.0500,76,98,278441
1.8133,0.1369,38.2100,76,98,278445
1.8182,0.1124,38.2100,76,98,278448
1.8231,0.1222,38.2700,76,98,278452
1.8231,0.1320,38.2400,76,98,278455
1.8622,0.1271,38.1100,76,98,278458
1.8475,0.1222,38.3000,76,98,278461
1.8671,0.1222,38.1800,76,98,278465
1.8524,0.1222,38.4600,76,98,278468
1.8719,0.1124,38.3600,76,98,278473
1.8866,0.1222,38.2700,76,98,278476
1.9110,0.1271,38.2100,76,98,278479
1.9013,0.1124,38.2700,76,98,278483
1.9404,0.1271,38.0200,76,98,278487
1.9257,0.1320,38.1800,76,98,278490
1.9159,0.1222,38.2700,76,98,278494
1.9453,0.1320,38.2400,76,98,278497
1.9404,0.1222,38.2700,76,98,278500
1.9990,0.1271,37.9600,76,98,278504
1.9648,0.1271,38.1800,76,98,278507
1.9697,0.1124,38.2700,76,98,278510
1.9892,0.1222,38.1100,76,98,278513
1.9941,0.1271,38.2700,76,98,278517
2.0577,0.1369,38.0500,76,98,278520
2.0283,0.1320,38.1800,76,98,278523
2.0235,0.1466,38.1500,76,98,278528
2.0332,0.1222,38.2700,76,98,278531
2.0381,0.1271,38.2400,76,98,278534
2.0772,0.1320,38.1500,76,98,278538
2.0479,0.1271,38.2400,76,98,278541
2.0577,0.1222,37.4000,76,98,278544
2.0723,0.1222,38.2700,76,98,278548
2.0479,0.1222,38.3000,76,98,278551
2.0870,0.1320,38.0800,76,98,278554
2.0479,0.1320,38.2400,76,98,278557
2.0674,0.1320,38.1800,76,98,278561
2.0381,0.1222,38.2700,76,98,278564
2.0332,0.1222,37.6800,76,98,278567
2.0577,0.1271,38.1800,76,98,278572
2.0235,0.1222,38.2400,76,98,278575
2.0235,0.1173,38.0800,76,98,278578
1.9697,0.1124,38.2400,76,98,278581
1.9550,0.1124,38.3000,76,98,278585
1.9453,0.1222,38.2100,76,98,278588
1.9013,0.1222,38.2700,76,98,278591
1.9062,0.1124,38.0500,76,98,278595
1.8426,0.1222,38.2700,76,98,278598
1.8231,0.1271,38.2700,76,98,278601
1.8133,0.1320,38.3300,76,98,278605
1.7742,0.1222,38.2400,76,98,278608
1.8035,0.1271,37.9900,76,98,278611
1.7595,0.1320,38.1500,76,98,278616
1.7351,0.1222,38.2700,76,98,278619
1.7253,0.1222,38.2400,76,98,278622
1.7204,0.1222,38.2700,76,98,278626
1.7693,0.1515,38.0500,76,98,278629
1.7351,0.1271,38.2100,76,98,278632
1.7302,0.1173,38.1500,76,98,278635
1.7302,0.1222,38.2400,76,98,278639
1.7253,0.1222,38.2700,76,98,278642
1.7546,0.1271,38.1800,76,98,278645
1.7449,0.1271,38.2100,76,98,278649
1.7595,0.1222,38.1500,76,98,278652
1.7498,0.1124,38.2400,76,98,278656
1.7449,0.1466,38.2700,76,98,278660
1.7693,0.1222,38.1800,76,98,278663
1.7546,0.1222,38.3000,76,98,278666
1.7889,0.1320,38.1800,76,98,278670
1.7644,0.1222,38.2400,76,98,278673
1.7742,0.1222,38.2700,76,98,278676
1.7986,0.1271,38.1100,76,98,278679
1.7742,0.1222,38.2700,76,98,278683
1.8377,0.1271,38.0500,76,98,278686
1.7889,0.1222,38.1800,76,98,278689
1.7840,0.1222,38.3600,76,98,278693
1.8035,0.1271,38.1800,76,98,278696
1.7937,0.1222,38.2400,76,98,278700
1.8377,0.1222,38.0200,76,98,278704
1.8084,0.1222,38.1800,76,98,278707
1.8035,0.1222,38.3000,76,98,278710
1.8182,0.1271,38.2400,76,98,278714
1.8035,0.1320,38.3000,76,98,278717
1.8524,0.1320,37.9900,76,98,278720
1.8182,0.1271,38.1800,76,98,278723
1.8084,0.1173,38.2100,76,98,278727
1.8035,0.1222,38.2700,76,98,278730
1.8084,0.1271,38.2400,76,98,278733
1.8524,0.1369,38.1100,76,98,278737
1.8231,0.1271,38.3000,76,98,278740
1.8231,0.1173,38.1500,76,98,278744
1.8084,0.1222,38.2400,76,98,278748
1.8084,0.1222,38.2700,76,98,278751
1.8426,0.1271,38.0800,76,98,278754
1.8133,0.1222,38.2400,76,98,278758
1.8426,0.1271,38.1100,76,98,278761
1.8084,0.1173,38.1500,76,98,278764
1.8084,0.1222,38.2400,76,98,278767
1.8328,0.1271,37.9600,76,98,278771
1.8182,0.1222,38.2700,76,98,278774
1.8426,0.1222,38.1100,76,98,278777
1.8133,0.1173,38.1800,76,98,278781
1.8084,0.1222,38.2700,76,98,278785
1.8328,0.1271,38.1100,76,98,278788
1.8182,0.1222,38.3000,76,98,278792
1.8573,0.1271,38.0200,76,98,278795
1.8182,0.1417,38.1800,76,98,278798
1.8231,0.1173,38.2700,76,98,278802
1.8280,0.1271,38.4000,76,98,278805
1.8182,0.1222,38.2700,76,98,278808
1.8622,0.1320,37.9000,76,98,278812
1.8280,0.1515,38.1500,76,98,278815
1.8280,0.1173,38.2700,76,98,278818
1.8084,0.1222,38.2400,76,98,278821
1.8035,0.1271,38.2400,76,98,278825
1.8622,0.1369,38.0800,76,98,278829
1.8182,0.1271,38.2100,76,98,278832
1.8231,0.1222,38.1500,76,98,278836
1.8133,0.1369,38.3600,76,98,278839
1.8133,0.1173,38.2700,76,98,278842
1.8426,0.1271,38.1500,76,98,278846
1.8280,0.1271,38.2400,76,98,278849
1.8328,0.1222,38.1100,76,98,278852
1.8084,0.1466,38.2400,76,98,278856
1.8035,0.1173,38.3300,76,98,278859
1.8231,0.1173,38.1800,76,98,278862
1.8084,0.1222,38.2400,76,98,278865
1.8475,0.1222,38.1500,76,98,278870
1.8426,0.1173,38.3000,76,98,278873
1.8182,0.1173,38.2700,76,98,278876
1.8328,0.1320,38.1800,76,98,278880
1.8084,0.1222,38.2700,76,98,278883
1.8426,0.1222,38.0200,76,98,278886
1.8280,0.1222,38.1800,76,98,278890
1.8133,0.1173,38.2700,76,98,278893
1.8328,0.1222,38.2100,76,98,278896
1.8084,0.1222,38.2700,76,98,278900
1.8524,0.1271,37.9900,76,98,278903
1.8182,0.1222,38.2100,76,98,278906
1.8133,0.1173,38.2700,76,98,278910
1.8280,0.1124,38.2700,76,98,278914
1.8182,0.1222,38.2400,76,98,278917
1.8719,0.1369,38.0200,76,98,278920
1.8475,0.1271,38.1500,76,98,278924
1.8475,0.1173,38.1500,76,98,278927
1.8573,0.1222,38.2400,76,98,278930
1.8719,0.1173,38.2700,76,98,278934
1.9062,0.1320,38.2100,76,98,278937
1.8817,0.1222,38.3000,76,98,278940
1.8866,0.1222,38.1500,76,98,278944
1.8719,0.1369,38.2100,76,98,278947
1.8768,0.1173,38.2400,76,98,278950
1.9110,0.1320,38.0800,76,98,278955
1.8866,0.1173,38.2400,76,98,278958
1.9355,0.1271,38.1500,76,98,278961
1.9110,0.1124,38.2100,76,98,278964
1.9257,0.1271,38.2700,76,98,278968
1.9501,0.1320,38.0200,76,98,278971
1.9306,0.1320,38.3000,76,98,278974
1.9746,0.1173,38.0500,76,98,278978
1.8964,0.1173,37.8000,76,98,278981
1.8719,0.1173,38.2700,76,98,278984
1.8719,0.1320,38.1800,76,98,278988
1.8328,0.1173,38.2700,76,98,278991
1.8622,0.1222,37.9900,76,98,278994
1.8035,0.1173,38.2400,76,98,278999
1.8328,0.1173,38.2700,76,98,279002
1.8035,0.1222,38.3000,76,98,279005
1.7889,0.1271,38.1800,76,98,279008
1.8280,0.1320,38.0500,76,98,279012
1.7840,0.1222,38.1800,76,98,279015
1.7546,0.1173,38.2100,76,98,279018
1.7351,0.1222,38.2400,76,98,279022
1.7302,0.1173,38.3600,76,98,279025
1.7693,0.1271,38.0800,76,98,279028
1.7351,0.1320,38.2100,76,98,279032
1.7449,0.1271,38.1800,76,98,279035
1.7302,0.1222,38.2400,76,98,279038
1.7302,0.1320,38.3000,76,98,279043
1.7595,0.1271,38.1500,76,98,279046
1.7400,0.1222,38.3300,76,98,279049
1.7595,0.1320,38.0800,76,98,279052
1.7351,0.1222,38.2400,76,98,279056
1.7253,0.1173,38.2400,76,98,279059
1.7204,0.1173,38.2100,76,98,279062
1.7302,0.1222,38.2700,76,98,279066
1.7937,0.1222,38.1500,76,98,279069
1.8328,0.1173,38.4600,76,98,279072
1.9306,0.1173,38.2400,76,98,279076
2.0821,0.1271,38.1800,75,98,279079
2.6393,0.1222,38.1100,75,98,279085
2.4585,0.1222,38.3000,75,98,279088
2.3216,0.1369,37.9900,75,98,279091
2.0674,0.1320,38.2400,75,98,279095
1.9355,0.1173,38.2100,75,98,279098
1.8084,0.1222,38.3000,75,98,279101
1.7449,0.1173,38.2400,75,98,279104
1.7742,0.1320,38.1100,75,98,279108
1.7009,0.1222,38.1100,75,98,279111
1.6764,0.1271,38.1500,75,98,279114
1.6520,0.1124,38.2700,75,98,279118
1.6325,0.1173,38.2400,75,98,279121
1.6471,0.1124,38.2100,75,98,279124
1.6227,0.1222,37.9600,75,98,279129
1.6325,0.1271,38.1100,75,98,279132
1.6080,0.1173,38.2700,75,98,279135
1.6178,0.1124,38.3000,75,98,279139
1.6471,0.1271,38.1500,75,98,279142
1.6276,0.1271,38.2400,75,98,279145
1.6520,0.1173,38.0800,75,98,279149
1.6373,0.1173,38.2400,75,98,279152
1.6471,0.1173,38.2400,75,98,279155
1.6667,0.1222,38.2100,75,98,279158
1.6618,0.1173,38.2700,75,98,279162
1.7009,0.1222,37.9900,75,98,279165
1.6764,0.1222,38.2100,75,98,279169
1.6813,0.1222,38.2700,75,98,279173
1.7009,0.1271,38.2400,75,98,279176
1.6911,0.1222,38.2700,75,98,279179
1.7449,0.1369,37.9600,75,98,279183
1.7058,0.1173,38.2100,75,98,279186
1.7058,0.1173,38.2400,75,98,279189
1.7107,0.1173,38.3000,75,98,279193
1.7155,0.1173,38.2700,75,98,279196
1.7693,0.1320,38.0800,75,98,279199
1.7351,0.1613,38.2400,75,98,279202
1.7449,0.1173,38.1800,75,98,279206
1.7302,0.1173,38.2700,75,98,279209
1.7302,0.1124,38.2700,75,98,279213
1.7742,0.1271,38.3600,75,98,279217
1.7546,0.1124,38.3000,75,98,279220
1.7791,0.1222,38.1100,75,98,279223
1.7644,0.1222,38.2700,75,98,279227
1.7693,0.1173,38.3300,75,98,279230
1.7937,0.1222,38.1500,75,98,279233
1.7840,0.1222,38.2700,75,98,279237
1.8182,0.1173,38.0800,75,98,279240
1.8035,0.1173,38.2400,75,98,279243
1.7986,0.1173,38.2700,75,98,279246
1.8182,0.1222,38.1100,75,98,279250
1.8084,0.1173,38.2400,75,98,279254
1.8426,0.1222,37.9900,75,98,279257
1.8182,0.1173,38.2700,75,98,279261
1.8280,0.1173,38.2700,75,98,279264
1.8524,0.1271,38.2400,75,98,279267
1.8377,0.1173,38.3300,75,98,279271
1.8915,0.1369,38.0200,75,98,279274
1.8719,0.1222,38.1800,75,98,279277
1.8671,0.1173,38.2700,75,98,279281
1.8817,0.1222,38.2400,75,98,279284
1.8817,0.1173,38.2700,75,98,279287
1.9599,0.1369,38.0500,75,98,279291
1.9159,0.1222,38.3300,75,98,279294
1.9257,0.1173,38.1800,75,98,279298
1.9355,0.1222,37.4900,75,98,279301
1.9404,0.1271,38.2700,75,98,279305
1.9795,0.1271,38.1100,75,98,279308
1.9550,0.1466,38.2100,75,98,279311
1.9795,0.1222,38.1800,75,98,279315
1.9648,0.1173,38.3000,75,98,279318
1.9746,0.1173,38.2700,75,98,279321
1.9941,0.1222,38.5500,75,98,279325
1.9795,0.1222,38.2400,75,98,279328
2.0137,0.1222,38.1500,75,98,279331
1.9844,0.1222,38.2400,75,98,279335
1.9892,0.1173,38.3000,75,98,279339
2.0039,0.1271,38.2100,75,98,279342
1.9795,0.1173,38.3000,75,98,279346
1.9892,0.1173,38.0500,75,98,279349
1.9501,0.1173,38.4300,75,98,279352
1.9208,0.1173,38.2700,75,98,279355
1.9159,0.1222,38.4300,75,98,279359
1.8817,0.1173,38.2700,75,98,279362
1.9062,0.1271,37.9900,75,98,279365
1.8475,0.1369,38.2100,75,98,279369
1.8231,0.1173,38.2700,75,98,279372
1.8035,0.1222,38.1500,75,98,279375
1.7840,0.1173,38.2700,75,98,279379
1.8035,0.1320,37.9900,75,98,279383
1.7400,0.1124,38.1800,75,98,279386
1.7058,0.1173,38.2400,75,98,279390
1.6911,0.1222,38.2700,75,98,279393
1.6716,0.1124,38.2700,75,98,279396
1.7107,0.1320,38.0800,75,98,279399
1.6764,0.1564,38.2100,75,98,279403
1.6813,0.1173,38.1500,75,98,279406
1.6471,0.1222,38.3000,75,98,279409
1.6569,0.1173,38.2700,75,98,279413
1.6764,0.1271,38.1100,75,98,279416
1.6520,0.1173,38.2400,75,98,279419
1.6862,0.1124,38.1100,75,98,279424
1.6618,0.1173,38.1800,75,98,279427
1.6716,0.1124,38.2400,75,98,279430
1.6911,0.1271,38.1500,75,98,279434
1.6813,0.1271,38.2400,75,98,279437
1.7009,0.1173,37.4900,75,98,279440
1.6813,0.1075,38.2400,75,98,279443
1.6862,0.1173,38.2700,75,98,279447
1.7058,0.1222,38.0500,75,98,279450
1.6960,0.1222,38.2700,75,98,279453
1.7253,0.1222,38.0200,75,98,279457
1.7009,0.1222,38.3000,75,98,279460
1.7253,0.1173,38.3000,75,98,279463
1.7302,0.1222,38.2100,75,98,279468
1.7107,0.1173,38.2400,75,98,279471
1.7644,0.1271,38.0200,75,98,279474
1.7449,0.1320,38.1500,75,98,279478
1.7400,0.1173,38.2700,75,98,279481
1.7400,0.1173,38.3000,75,98,279484
1.7351,0.1173,38.2400,75,98,279487
1.7937,0.1124,38.0500,75,98,279491
1.7595,0.1271,38.2700,75,98,279494
1.7644,0.1173,38.2100,75,98,279497
1.7742,0.1222,38.2700,75,98,279501
1.7693,0.1320,38.2700,75,98,279504
1.8035,0.1271,38.1100,75,98,279507
1.7791,0.1222,38.2700,75,98,279512
1.7889,0.1222,38.1500,75,98,279515
1.7742,0.1173,38.2700,75,98,279518
1.7986,0.1173,38.2700,75,98,279522
1.7742,0.1222,38.2700,75,98,279525
1.7595,0.1173,38.2400,75,98,279528
1.7791,0.1222,38.1500,75,98,279531
1.7546,0.1466,38.2400,75,98,279535
1.7595,0.1173,38.2700,75,98,279538
1.7937,0.1271,38.3000,75,98,279541
1.7840,0.1173,38.2400,75,98,279545
1.7937,0.1173,38.0500,75,98,279548
1.7742,0.1271,38.1800,75,98,279552
1.7644,0.1124,38.2700,75,98,279556
1.7840,0.1320,38.1800,75,98,279559
1.8084,0.1271,38.2400,75,98,279562
1.8182,0.1222,37.9900,75,98,279566
1.7840,0.1271,38.2100,75,98,279569
1.7840,0.1173,38.2700,75,98,279572
1.7889,0.1222,38.2100,75,98,279575
1.7791,0.1124,38.3000,75,98,279579
1.8280,0.1222,37.9600,75,98,279582
1.7889,0.1173,38.1500,75,98,279585
1.7742,0.1173,38.2100,75,98,279589
1.7742,0.1173,38.2700,75,98,279592
1.7742,0.1173,38.2400,75,98,279596
1.8133,0.1320,38.1500,75,98,279600
1.7840,0.1271,38.2100,75,98,279603
1.8035,0.1124,38.1800,75,98,279606
1.7791,0.1173,38.2100,75,98,279610
1.7840,0.1173,38.2400,75,98,279613
1.8133,0.1222,38.0800,75,98,279616
1.7937,0.1173,38.2400,75,98,279619
1.8133,0.1222,38.1100,75,98,279623
1.7889,0.1124,38.2400,75,98,279626
1.7937,0.1173,38.2700,75,98,279629
1.8084,0.1271,38.1100,75,98,279633
1.7937,0.1173,38.2700,75,98,279636
1.8133,0.1124,38.1100,75,98,279640
1.7889,0.1173,38.2100,75,98,279644
1.7889,0.1173,38.2700,75,98,279647
1.8035,0.1222,38.0800,75,98,279650
1.7840,0.1271,38.3000,75,98,279654
1.8182,0.1173,38.0200,75,98,279657
1.7889,0.1173,38.3600,75,98,279660
1.7937,0.1173,38.3000,75,98,279663
1.8084,0.1124,38.2100,75,98,279667
1.7889,0.1173,38.2400,75,98,279670
1.8622,0.1124,37.9600,75,98,279673
1.8035,0.1222,38.1800,75,98,279677
1.7937,0.1173,38.2700,75,98,279681
1.7986,0.1173,38.2400,75,98,279684
1.7937,0.1173,38.2700,75,98,279688
1.8426,0.1369,38.0500,75,98,279691
1.8671,0.1222,38.1500,75,98,279695
1.8573,0.1222,38.2700,75,98,279698
1.9159,0.1173,38.1100,75,98,279701
1.8671,0.1173,38.3600,75,98,279705
1.9062,0.1173,38.2700,75,98,279708
1.8817,0.1124,37.9600,75,98,279711
1.8719,0.1173,38.2700,75,98,279715
1.9062,0.1173,38.0800,75,98,279718
1.8915,0.1466,38.2700,75,98,279721
1.9306,0.1222,38.2700,75,98,279725
1.9453,0.1222,38.2400,75,98,279729
1.9306,0.1173,38.2700,75,98,279732
1.9697,0.1222,37.9600,75,98,279735
1.9404,0.1271,38.1500,75,98,279739
1.9159,0.1124,38.2700,75,98,279742
1.9062,0.1124,38.2400,75,98,279745
1.8866,0.1173,38.2400,75,98,279749
1.9013,0.1271,38.0200,75,98,279752
1.8573,0.1173,38.1800,75,98,279755
1.8231,0.1124,38.2400,75,98,279759
1.8231,0.1124,38.2400,75,98,279762
1.8182,0.1124,38.2400,75,98,279766
1.8573,0.1320,38.0800,75,98,279769
1.8426,0.1222,38.1500,75,98,279773
1.7986,0.1173,38.1500,75,98,279776
1.7693,0.1173,38.3000,75,98,279779
1.7546,0.1124,38.2700,75,98,279783
1.7693,0.1222,38.1800,75,98,279786
1.7400,0.1124,38.2400,75,98,279789
1.7498,0.1173,38.1100,75,98,279793
1.7302,0.1124,38.2700,75,98,279796
1.7302,0.1124,38.3000,75,98,279799
1.7644,0.1320,38.1800,75,98,279803
1.7498,0.1173,38.2700,75,98,279806
1.7791,0.1075,38.1100,75,98,279810
1.7595,0.1124,38.2100,75,98,279813
1.7546,0.1124,38.2700,75,98,279817
1.7791,0.1222,38.1800,75,98,279820
1.7302,0.1173,38.2700,75,98,279823
1.7546,0.1173,38.0200,75,98,279827
1.7498,0.1124,38.2100,75,98,279830
1.7840,0.1124,38.3300,75,98,279833
1.8817,0.1320,38.1800,75,98,279837
1.9697,0.1173,38.2400,75,98,279840
2.1554,0.1222,37.9900,75,98,279843
2.2678,0.1124,38.1100,75,98,279847
2.4585,0.1124,38.2400,75,98,279851
2.6442,0.1271,38.2400,75,98,279854
2.6735,0.1124,38.3300,75,98,279858
2.6442,0.1369,38.0200,75,98,279861
2.3998,0.1222,38.2400,75,98,279864
2.1945,0.1124,38.2100,75,98,279867
2.0088,0.1173,38.2400,75,98,279871
1.8817,0.1124,38.3300,75,98,279874
1.8377,0.1222,38.1800,75,98,279877
1.7693,0.1173,38.2700,75,98,279881
1.7498,0.1222,38.1800,75,98,279884
1.7107,0.1124,38.2700,75,98,279887
1.6862,0.1124,38.2400,75,98,279891
1.6911,0.1222,38.1800,75,98,279895
1.6520,0.1173,38.2100,75,98,279898
1.6618,0.1271,38.1800,75,98,279902
1.6325,0.1173,38.3000,75,98,279905
1.6325,0.1173,38.3000,75,98,279908
1.6422,0.1173,38.1800,75,98,279911
1.6276,0.1173,38.1800,75,98,279915
1.6862,0.1173,38.0800,75,98,279918
1.6373,0.1173,38.2100,75,98,279921
1.6618,0.1173,38.2700,75,98,279925
1.6667,0.1222,38.2100,75,98,279928
1.6764,0.1173,38.2700,75,98,279931
1.6960,0.1222,38.0200,75,98,279936
1.6813,0.1222,38.1100,75,98,279939
1.6716,0.1222,38.2700,75,98,279942
1.6862,0.1173,38.2100,75,98,279946
1.7009,0.1173,38.2700,75,98,279949
1.7400,0.1320,37.9900,75,98,279952
1.7058,0.1173,37.6500,75,98,279955
1.7009,0.1124,38.2100,75,98,279959
1.7155,0.1173,38.2400,75,98,279962
1.7155,0.1124,38.2700,75,98,279965
1.7693,0.1222,38.1100,75,98,279969
1.7351,0.1222,38.2100,75,98,279972
1.7644,0.1173,38.1500,75,98,279975
1.7302,0.1173,38.2100,75,98,279980
1.7400,0.1173,38.2700,75,98,279983
1.7644,0.1222,37.8300,75,98,279986
1.7498,0.1271,38.3000,75,98,279990
1.7791,0.1173,38.1500,75,98,279993
1.7546,0.1075,38.2700,75,98,279996
1.7546,0.1271,38.2700,75,98,280000
1.7986,0.1271,38.1500,75,98,280003
1.7986,0.1173,38.3000,75,98,280006
1.8035,0.1173,38.1100,75,98,280009
1.7889,0.1124,38.2100,75,98,280013
1.7889,0.1173,38.2700,75,98,280016
1.8035,0.1222,38.1800,75,98,280019
1.7986,0.1173,38.2400,75,98,280024
1.8426,0.1124,38.0200,75,98,280027
1.8231,0.1222,38.1500,75,98,280030
1.8280,0.1124,38.3000,75,98,280034
1.8426,0.1222,38.2100,75,98,280037
1.8280,0.1173,38.2700,75,98,280040
1.8866,0.1369,37.9600,75,98,280043
1.8573,0.1173,38.2100,75,98,280047
1.8622,0.1466,38.3000,75,98,280050
1.8719,0.1124,38.2400,75,98,280053
1.8768,0.1124,38.2700,75,98,280057
1.9648,0.1369,38.0500,75,98,280060
1.9110,0.1222,38.2100,75,98,280064
1.9159,0.1124,38.3600,75,98,280068
1.9208,0.1124,38.2400,75,98,280071
1.9208,0.1173,38.3300,75,98,280074
1.9697,0.1564,38.0500,75,98,280078
1.9453,0.1173,38.2400,75,98,280081
1.9697,0.1173,38.1100,75,98,280084
1.9599,0.1124,38.2700,75,98,280087
1.9648,0.1124,38.2700,75,98,280091
1.9990,0.1222,38.1500,75,98,280094
1.9746,0.1173,38.2400,75,98,280097
2.0039,0.1222,38.1500,75,98,280101
1.9746,0.1173,38.2700,75,98,280104
1.9795,0.1124,38.0800,75,98,280108
1.9892,0.1222,38.1500,75,98,280112
1.9746,0.1124,38.3000,75,98,280115
1.9990,0.1173,38.0500,75,98,280118
1.9599,0.1271,38.2700,75,98,280122
1.9599,0.1124,38.2700,75,98,280125
1.9697,0.1222,38.1800,75,98,280128
1.9306,0.1124,38.2700,75,98,280131
1.9501,0.1222,37.3400,75,98,280135
1.9013,0.1271,38.1500,75,98,280138
1.8622,0.1124,38.2700,75,98,280141
1.8426,0.1173,38.2400,75,98,280145
1.8133,0.1124,38.2700,75,98,280148
1.8377,0.1271,37.9600,75,98,280152
1.7840,0.1173,38.1500,75,98,280156
1.7498,0.1075,38.1800,75,98,280159
1.7400,0.1222,38.3000,75,98,280162
1.7107,0.1124,38.2700,75,98,280166
1.7400,0.1320,38.0800,75,98,280169
1.7009,0.1222,38.1800,75,98,280172
1.6764,0.1173,38.1500,75,98,280175
1.6618,0.1173,38.3000,75,98,280179
1.6520,0.1173,38.2700,75,98,280182
1.6813,0.1124,38.1800,75,98,280185
1.6569,0.1173,38.1500,75,98,280189
1.6716,0.1173,38.1100,75,98,280193
1.6471,0.1173,38.2400,75,98,280196
1.6569,0.1173,38.2700,75,98,280200
1.6764,0.1222,38.1100,75,98,280203
1.6716,0.1173,38.2700,75,98,280206
1.6862,0.1173,38.3000,75,98,280210
1.6569,0.1271,38.1800,75,98,280213
1.6716,0.1173,38.2700,75,98,280216
1.6862,0.1124,38.1800,75,98,280220
1.6862,0.1124,38.2700,75,98,280223
1.7155,0.1173,38.2100,75,98,280226
1.6911,0.1173,38.1800,75,98,280229
1.6862,0.1124,38.2700,75,98,280233
1.7107,0.1173,38.1800,75,98,280237
1.7009,0.1124,38.2700,75,98,280240
1.7498,0.1222,37.9900,75,98,280244
1.7204,0.1173,38.2400,75,98,280247
1.7204,0.1124,38.2700,75,98,280250
1.7302,0.1271,38.2400,75,98,280254
1.7302,0.1124,38.3300,75,98,280257
1.7889,0.1417,38.0500,75,98,280260
1.7644,0.1124,38.2100,75,98,280264
1.7546,0.1124,38.1800,75,98,280267
1.7840,0.1173,38.2400,75,98,280270
1.7498,0.1124,38.2700,75,98,280273
1.7840,0.1613,38.0800,75,98,280278
1.7644,0.1173,38.3000,75,98,280281
1.7791,0.1173,38.1100,75,98,280284
1.7595,0.1173,38.3000,75,98,280288
1.7595,0.1124,38.2700,75,98,280291
1.7840,0.1320,38.1100,75,98,280294
1.7791,0.1222,38.2700,75,98,280298
1.7889,0.1222,38.1500,75,98,280301
1.7644,0.1124,38.2400,75,97,280304
1.7644,0.1173,38.2700,75,97,280308
1.7742,0.1124,38.2700,75,97,280311
1.7937,0.1222,38.2100,75,97,280314
1.7742,0.1124,38.3000,75,97,280318
1.8182,0.1222,37.9300,75,97,280322
1.7840,0.1173,38.1800,75,97,280325
1.7742,0.1124,38.3000,75,97,280329
1.7937,0.1173,38.3300,75,97,280332
1.7742,0.1124,38.2700,75,97,280335
1.8231,0.1320,37.9900,75,97,280339
1.7791,0.1222,38.1800,75,97,280342
1.7693,0.1124,38.1500,75,97,280345
1.7693,0.1124,38.2700,75,97,280349
1.7742,0.1124,38.2700,75,97,280352
1.8133,0.1222,38.0500,75,97,280355
1.7937,0.1173,38.2400,75,97,280358
1.7889,0.1173,38.2100,75,97,280363
1.7693,0.1173,38.2700,75,97,280366
1.7644,0.1124,38.2700,75,97,280369
1.7889,0.1222,38.2100,75,97,280373
1.8084,0.1173,38.3000,75,97,280376
1.8035,0.1173,38.1500,75,97,280379
1.7693,0.1369,38.2400,75,97,280383
1.7889,0.1173,38.2700,75,97,280386
1.8084,0.1222,38.2100,75,97,280389
1.7840,0.1173,38.2400,75,97,280393
1.8084,0.1173,38.0800,75,97,280396
1.7889,0.1124,38.1800,75,97,280399
1.7840,0.1173,38.3000,75,97,280402
1.8035,0.1173,38.1800,75,97,280407
1.7986,0.1124,38.1500,75,97,280410
1.8377,0.1173,38.0200,75,97,280413
1.8084,0.1222,38.2400,75,97,280417
1.7937,0.1075,38.3300,75,97,280420
1.7889,0.1124,38.2400,75,97,280423
1.7889,0.1124,38.4000,75,97,280427
1.8377,0.1222,37.9600,75,97,280430
1.8035,0.1124,38.2700,75,97,280433
1.7986,0.1173,38.2400,75,97,280437
1.8035,0.1124,38.2700,75,97,280440
1.7937,0.1222,38.2700,75,97,280443
1.8426,0.1124,38.0800,75,97,280446
1.8084,0.1222,38.1500,75,97,280451
1.8035,0.1271,38.1800,75,97,280454
1.7986,0.1173,38.4600,75,97,280457
1.8035,0.1026,38.2400,75,97,280461
1.8475,0.1222,38.0800,75,97,280464
1.8280,0.1173,38.2400,75,97,280467
1.8622,0.1173,38.1100,75,97,280471
1.8524,0.1124,38.3600,75,97,280474
1.8573,0.1075,38.2700,75,97,280477
1.8817,0.1271,38.1800,75,97,280481
1.8671,0.1124,38.3000,75,97,280484
1.9013,0.1173,38.2100,75,97,280487
1.8768,0.1173,38.2400,75,97,280491
1.8817,0.1124,38.2700,75,97,280495
1.8964,0.1173,38.2100,75,97,280498
1.8964,0.1124,38.2700,75,97,280501
1.9355,0.1173,38.0500,75,97,280505
1.9208,0.1124,38.2700,75,97,280508
1.9306,0.1124,38.4300,75,97,280511
1.9453,0.1271,38.2400,75,97,280515
1.9257,0.1124,38.2700,75,97,280518
1.9599,0.1222,37.9900,75,97,280521
1.9159,0.1173,38.1800,75,97,280525
1.8768,0.1124,38.4300,75,97,280528
1.8671,0.1173,38.2700,75,97,280531
1.8377,0.1124,38.2700,75,97,280535
1.8719,0.1271,38.0500,75,97,280539
1.8133,0.1124,38.1800,75,97,280542
1.7937,0.1222,38.2400,75,97,280545
1.7889,0.1173,38.2400,75,97,280549
1.7791,0.1124,38.2700,75,97,280552
1.8084,0.1173,38.1100,75,97,280555
1.7644,0.1173,38.0800,75,97,280559
1.7644,0.1369,38.1100,75,97,280562
1.7449,0.1124,38.2700,75,97,280565
1.7400,0.1124,38.2700,75,97,280569
1.7937,0.1271,38.2100,75,97,280572
1.7351,0.1173,38.2400,75,97,280576
1.7644,0.1222,38.1500,75,97,280579
1.7351,0.1124,38.2700,75,97,280583
1.7498,0.1124,38.2400,75,97,280586
1.7742,0.1222,38.1500,75,97,280589
1.7498,0.1173,38.3000,75,97,280593
1.7693,0.1124,38.0800,75,97,280596
1.7400,0.1124,38.1800,75,97,280599
1.7253,0.1173,38.2400,75,97,280603
1.7351,0.1222,38.1800,75,97,280606
1.7400,0.1369,38.2700,75,97,280609
1.8231,0.1173,38.0200,75,97,280613
1.8622,0.1173,38.2700,75,97,280616
1.9550,0.1222,38.2700,75,97,280620
2.0968,0.1173,38.2400,75,97,280624
2.2434,0.1124,38.4600,75,97,280627
2.4976,0.1271,37.9300,75,97,280630
2.6295,0.1173,38.2700,75,97,280633
2.6784,0.1026,38.2400,75,97,280637
2.5904,0.1173,38.2400,75,97,280640
2.4096,0.1124,38.2700,75,97,280643
2.2825,0.1271,38.0800,75,97,280647
2.0479,0.1124,38.2100,75,97,280650
1.9208,0.1124,38.1800,75,97,280653
1.8475,0.1173,38.2400,75,97,280657
1.7889,0.1124,38.2700,75,97,280660
1.7889,0.1222,38.0800,75,97,280664
1.7400,0.1173,38.2400,75,97,280667
1.7351,0.1173,38.1800,75,97,280671
1.6960,0.1173,38.2700,75,97,280674
1.6667,0.1124,38.3000,75,97,280677
1.6862,0.1271,38.2400,75,97,280681
1.6911,0.1173,38.3000,75,97,280684
1.6764,0.1124,38.1500,75,97,280687
1.6520,0.1124,38.2400,75,97,280691
1.6520,0.1173,38.2400,75,97,280694
1.6667,0.1173,38.2400,75,97,280697
1.6618,0.1173,38.2700,75,97,280701
1.6960,0.1173,38.1100,75,97,280705
1.6764,0.1222,38.3000,75,97,280708
1.6960,0.1173,38.2400,75,97,280711
1.7107,0.1222,38.3300,75,97,280715
1.7009,0.1173,38.3000,75,97,280718
1.7449,0.1222,37.9900,75,97,280721
1.7253,0.1173,38.1800,75,97,280725
1.7204,0.1124,38.2700,75,97,280728
1.7253,0.1271,38.2400,75,97,280731
1.7302,0.1124,38.2700,75,97,280735
1.7840,0.1320,37.9600,75,97,280738
1.7498,0.1173,38.2100,75,97,280741
1.7498,0.1075,38.1800,75,97,280745
1.7595,0.1173,38.3000,75,97,280749
1.7644,0.1124,38.2700,75,97,280752
1.8133,0.1271,38.0800,75,97,280755
1.7791,0.1173,38.2400,75,97,280759
1.7937,0.1124,38.2100,75,97,280762
1.7791,0.1271,38.2400,75,97,280765
1.7889,0.1173,38.2700,75,97,280769
1.8182,0.1515,38.2100,75,97,280772
1.8182,0.1173,38.2400,75,97,280775
1.8328,0.1222,38.1500,75,97,280779
1.8035,0.1124,38.2700,75,97,280782
1.8133,0.1124,38.4600,75,97,280785
1.8475,0.1271,38.1500,75,97,280790
1.8280,0.1124,38.2100,75,97,280793
1.8573,0.1271,38.0800,75,97,280796
1.8377,0.1173,38.1800,75,97,280800
1.8377,0.1124,38.3600,75,97,280803
1.8573,0.1222,38.1800,75,97,280806
1.8573,0.1124,38.3000,75,97,280809
1.9062,0.1222,38.0200,75,97,280813
1.8866,0.1124,38.2100,75,97,280816
1.8768,0.1124,38.2700,75,97,280819
1.8866,0.1173,38.2400,75,97,280823
1.8915,0.1124,38.2700,75,97,280826
1.9501,0.1271,37.8000,75,97,280829
1.9501,0.1173,38.2100,75,97,280834
1.9306,0.1124,38.2700,75,97,280837
1.9404,0.1173,38.2400,75,97,280840
1.9501,0.1173,38.3300,75,97,280844
2.0137,0.1320,38.0800,75,97,280847
1.9892,0.1222,38.2400,75,97,280850
2.0039,0.1173,38.1800,75,97,280853
1.9990,0.1173,38.1500,75,97,280857
2.0039,0.1173,38.2700,75,97,280860
2.0577,0.1124,38.0800,75,97,280863
2.0235,0.1173,38.4000,75,97,280867
2.0479,0.1173,38.1100,75,97,280870
2.0381,0.1222,38.2700,75,97,280873
2.0332,0.1124,38.2400,75,97,280878
2.0577,0.1271,38.1500,75,97,280881
2.0332,0.1173,38.2700,75,97,280884
2.0674,0.1222,38.1800,75,97,280887
2.0381,0.1124,38.2400,75,97,280891
2.0626,0.1173,38.2700,75,97,280894
2.0430,0.1173,38.2100,75,97,280897
2.0283,0.1173,38.2400,75,97,280901
2.0430,0.1124,38.1100,75,97,280904
2.0039,0.1124,38.3300,75,97,280907
1.9941,0.1124,38.2700,75,97,280911
1.9990,0.1173,38.1800,75,97,280914
1.8524,0.1222,38.2400,75,97,280919
1.8280,0.1124,38.2700,75,97,280922
1.8573,0.1320,38.0200,75,97,280925
1.7937,0.1222,38.2100,75,97,280929
1.7742,0.1124,38.2400,75,97,280932
1.7498,0.1271,38.2700,75,97,280935
1.7351,0.1124,38.2700,75,97,280938
1.7595,0.1515,38.1100,75,97,280942
1.7204,0.1173,38.2400,75,97,280945
1.7253,0.1173,38.1100,75,97,280948
1.7058,0.1173,38.2700,75,97,280952
1.7009,0.1173,38.2400,75,97,280955
1.7204,0.1173,38.2100,75,97,280958
1.7107,0.1173,38.2400,75,97,280963
1.7351,0.1222,38.1500,75,97,280966
1.7107,0.1173,38.2700,75,97,280969
1.7204,0.1417,38.2700,75,97,280973
1.7546,0.1271,38.1500,75,97,280976
1.7302,0.1271,38.2700,75,97,280979
1.7595,0.1173,38.0800,75,97,280982
1.7400,0.1173,38.1500,75,97,280986
1.7351,0.1124,38.3000,75,97,280989
1.7498,0.1271,38.2100,75,97,280992
1.7498,0.1124,38.2700,75,97,280996
1.7986,0.1222,37.9900,75,97,280999
1.7791,0.1173,38.2100,75,97,281003
1.7742,0.1124,38.4600,75,97,281007
1.7791,0.1222,38.2400,75,97,281010
1.7742,0.1124,38.4300,75,97,281013
1.8280,0.1466,37.9900,75,97,281017
1.7889,0.1173,38.1800,75,97,281020
1.7889,0.1173,38.2100,75,97,281023
1.7937,0.1173,38.2400,75,97,281026
1.7889,0.1124,38.2400,75,97,281030
1.8377,0.1320,38.1100,75,97,281033
1.8133,0.1222,38.2100,75,97,281036
1.8133,0.1124,38.1500,75,97,281040
1.8084,0.1173,38.2700,75,97,281043
1.8035,0.1124,38.2400,75,97,281047
1.8328,0.1222,38.0800,75,97,281051
1.8084,0.1173,38.3300,75,97,281054
1.8377,0.1173,38.1100,75,97,281057
1.8084,0.1173,38.2700,75,97,281061
1.8084,0.1124,38.2700,75,97,281064
1.8328,0.1124,38.1800,75,97,281067
1.8084,0.1124,38.2700,75,97,281070
1.8377,0.1173,38.1100,75,97,281074
1.8084,0.1173,38.2100,75,97,281077
1.8133,0.1124,38.3600,75,97,281080
1.8133,0.1222,38.1800,75,97,281084
1.8084,0.1173,38.1500,75,97,281088
1.8377,0.1173,38.0200,75,97,281091
1.8084,0.1124,38.2700,75,97,281095
1.8133,0.1124,38.2700,75,97,281098
1.8328,0.1222,38.2100,75,97,281101
1.8084,0.1222,38.3000,75,97,281105
1.8573,0.1222,37.9600,75,97,281108
1.8280,0.1173,38.1800,75,97,281111
1.8133,0.1369,38.3000,75,97,281115
1.8182,0.1173,38.3000,75,97,281118
1.8182,0.1124,38.2100,75,97,281121
1.8719,0.1271,38.0500,75,97,281124
1.8280,0.1173,38.2100,75,97,281128
1.8231,0.1124,38.1500,75,97,281132
1.8182,0.1124,38.2700,75,97,281135
1.8182,0.1124,38.2700,75,97,281139
1.8475,0.1271,38.1100,75,97,281142
1.8182,0.1173,38.2400,75,97,281145
1.8280,0.1173,38.1500,75,97,281149
1.8084,0.1173,38.2700,75,97,281152
1.8182,0.1222,38.2400,75,97,281155
1.8377,0.1124,38.2100,75,97,281159
1.8231,0.1173,38.2700,75,97,281162
1.8524,0.1271,38.1500,75,97,281165
1.8182,0.1124,38.2400,75,97,281168
1.8280,0.1173,38.2700,75,97,281172
1.8475,0.1222,38.0500,75,97,281176
1.8524,0.1222,38.2700,75,97,281179
1.8524,0.1124,38.0500,75,97,281183
1.8328,0.1173,38.1100,75,97,281186
1.8182,0.1173,38.2700,75,97,281189
1.8377,0.1124,38.2100,75,97,281193
1.8280,0.1173,38.2700,75,97,281196
1.8768,0.1222,37.9900,75,97,281199
1.8719,0.1173,38.2100,75,97,281203
1.8377,0.1124,38.2700,75,97,281206
1.8426,0.1173,38.2400,75,97,281209
1.8328,0.1173,38.2700,75,97,281213
1.8866,0.1320,38.4300,75,97,281217
1.8280,0.1173,38.2100,75,97,281220
1.8328,0.1173,38.1800,75,97,281223
1.8280,0.1173,38.3000,75,97,281227
1.8280,0.1173,38.2400,75,97,281230
1.8671,0.1271,38.1800,75,97,281233
1.8426,0.1222,38.2100,75,97,281237
1.8622,0.1173,38.1500,75,97,281240
1.8524,0.1173,38.2400,75,97,281243
1.8622,0.1124,38.2700,75,97,281247
1.9013,0.1515,38.1100,75,97,281250
1.8866,0.1173,38.3000,75,97,281253
1.9257,0.1222,38.1500,75,97,281257
1.9110,0.0929,38.2400,75,97,281261
1.9062,0.1124,38.2700,75,97,281264
1.9257,0.1173,38.1800,75,97,281267
1.9110,0.1124,38.2700,75,97,281271
1.9404,0.1173,37.4000,75,97,281274
1.9159,0.1173,38.2100,75,97,281277
1.9306,0.1124,38.2700,75,97,281281
1.9501,0.1075,38.2100,75,97,281284
1.9550,0.1173,38.2700,75,97,281287
1.9990,0.1173,38.0200,75,97,281291
1.9941,0.1173,38.2400,75,97,281294
1.9648,0.1124,38.3300,75,97,281297
1.9697,0.1515,38.2100,75,97,281302
1.9404,0.1124,38.2700,75,97,281305
1.9648,0.1271,37.9600,75,97,281308
1.9404,0.1173,38.1800,75,97,281311
1.8768,0.1124,38.2400,75,97,281315
1.8866,0.1173,38.2400,75,97,281318
1.8573,0.1124,38.2700,75,97,281321
1.8964,0.1515,38.0500,75,97,281325
1.8475,0.1173,38.2400,75,97,281328
1.8426,0.1173,38.1500,75,97,281331
1.8133,0.1173,38.2400,75,97,281335
1.8035,0.1124,38.2400,75,97,281338
1.8182,0.1271,38.1100,75,97,281341
1.7889,0.1173,38.2700,75,97,281346
1.7986,0.1173,38.0800,75,97,281349
1.7742,0.1222,38.2700,75,97,281352
1.7742,0.1124,38.3000,75,97,281356
1.8084,0.1173,38.1800,75,97,281359
1.7840,0.1173,38.2400,75,97,281362
1.8084,0.1173,38.1500,75,97,281365
1.7840,0.1173,38.2700,75,97,281369
1.7889,0.1173,38.3000,75,97,281372
1.8084,0.1173,38.1500,75,97,281375
1.7889,0.1124,38.2700,75,97,281379
1.8084,0.1222,38.0200,75,97,281382
1.7742,0.1173,38.1500,75,97,281385
1.7693,0.1124,38.2700,75,97,281390
1.8084,0.1417,38.2400,75,97,281393
1.8768,0.1173,38.2700,75,97,281396
1.9990,0.1222,37.9900,75,97,281399
2.1065,0.1173,38.1800,75,97,281403
2.2190,0.1124,38.2700,75,97,281406
2.4047,0.1173,38.2400,75,97,281409
2.6100,0.1271,38.2700,75,97,281413
2.8348,0.1369,38.0200,75,97,281416
2.7517,0.1173,38.2100,75,97,281419
2.6442,0.1173,38.2100,75,97,281423
2.4194,0.1173,38.3600,75,97,281426
2.2385,0.1173,38.2700,75,97,281430
2.0723,0.1271,38.1500,75,97,281434
1.9159,0.1417,38.3000,75,97,281437
1.8475,0.1173,38.1500,75,97,281440
1.7840,0.1222,38.2400,75,97,281444
1.7546,0.1222,38.2700,75,97,281447
1.7644,0.1222,38.1100,75,97,281450
1.7107,0.1173,38.2700,75,97,281453
1.7253,0.1222,38.1800,75,97,281457
1.6911,0.1173,38.3000,75,97,281460
1.6813,0.1173,38.2700,75,97,281463
1.6911,0.1320,38.1800,75,97,281467
1.6813,0.1173,38.2400,75,97,281470
1.7009,0.1173,37.3400,75,97,281474
1.6862,0.1173,38.2400,75,97,281478
1.6911,0.1173,38.2700,75,97,281481
1.7058,0.1369,38.2400,75,97,281484
1.7107,0.1124,38.2700,75,97,281488
1.7449,0.1222,38.1100,75,97,281491
1.7155,0.1173,38.2400,75,97,281494
1.7204,0.1124,38.3300,75,97,281497
1.7351,0.1124,38.2400,75,97,281501
1.7302,0.1173,38.3600,75,97,281504
1.7889,0.1369,37.9900,75,97,281507
1.7546,0.1222,38.1800,75,97,281511
1.7498,0.1124,38.1800,75,97,281515
1.7546,0.1173,38.1100,75,97,281518
1.7546,0.1173,38.2400,75,97,281522
1.7889,0.1271,38.0800,75,97,281525
1.8084,0.1222,38.1500,75,97,281529
1.7889,0.1173,38.2100,75,97,281532
1.8231,0.1222,38.1100,75,97,281535
1.7986,0.1124,38.2400,75,97,281539
1.8133,0.1222,38.3000,75,97,281542
1.8377,0.1173,38.1800,75,97,281545
1.8328,0.1173,38.3000,75,97,281549
1.8671,0.1271,38.0800,75,97,281552
1.8377,0.1124,38.2700,75,97,281555
1.8475,0.1124,38.4000,75,97,281559
1.8817,0.1271,38.1800,75,97,281563
1.8573,0.1173,38.2700,75,97,281566
1.9062,0.1222,38.0200,75,97,281569
1.8768,0.1222,38.2100,75,97,281573
1.8671,0.1320,38.2400,75,97,281576
1.8768,0.1173,38.2400,75,97,281579
1.8817,0.1173,38.2400,75,97,281583
1.9453,0.1320,38.0200,75,97,281586
1.9110,0.1222,38.2100,75,97,281589
1.9062,0.1173,38.1500,75,97,281593
1.9062,0.1173,38.2700,75,97,281596
1.9159,0.1124,38.3000,75,97,281600
1.9697,0.1613,38.0800,75,97,281603
1.9453,0.1173,38.2700,75,97,281607
1.9648,0.1173,38.1800,75,97,281610
1.9550,0.1271,38.2400,75,97,281613
1.9599,0.1173,38.2700,75,97,281617
1.9892,0.1271,38.1800,75,97,281620
2.0186,0.1173,38.2400,75,97,281623
2.0186,0.1222,38.1100,75,97,281627
1.9990,0.1271,38.2700,75,97,281630
2.0039,0.1173,38.2700,75,97,281633
2.0332,0.1271,37.9300,75,97,281637
2.0137,0.1173,38.2700,75,97,281640
2.0381,0.1173,38.0800,75,97,281644
2.0235,0.1124,37.8000,75,97,281647
2.0235,0.1173,38.2700,75,97,281651
2.0430,0.1222,38.1800,75,97,281654
2.0235,0.1173,38.2400,75,97,281657
2.0626,0.1173,38.0200,75,97,281661
2.0381,0.1173,38.2100,75,97,281664
2.0186,0.1173,38.2700,75,97,281667
2.0235,0.1222,38.2700,75,97,281671
1.9990,0.1515,38.2400,75,97,281674
2.0332,0.1271,37.9900,75,97,281677
1.9746,0.1124,38.1100,75,97,281680
1.9599,0.1173,38.2700,75,97,281684
1.9501,0.1222,38.2400,75,97,281688
1.9110,0.1417,38.2400,75,97,281691
1.9453,0.1320,38.0200,75,97,281695
1.8768,0.1222,38.1800,75,97,281698
1.8426,0.1124,38.2100,75,97,281701
1.8182,0.1173,38.3000,75,97,281705
1.7986,0.1124,38.2700,75,97,281708
1.8328,0.1271,38.0500,75,97,281711
1.7742,0.1173,38.2400,75,97,281715
1.7742,0.1173,38.1500,75,97,281718
1.7498,0.1173,38.2700,75,97,281721
1.7400,0.1124,38.2400,75,97,281724
1.7595,0.1222,38.1100,75,97,281729
1.7204,0.1173,38.2400,75,97,281732
1.7400,0.1222,38.1100,75,97,281735
1.7107,0.1173,38.2700,75,97,281739
1.7155,0.1124,38.3300,75,97,281742
1.7498,0.1271,38.2100,75,97,281745
1.7204,0.1173,38.2700,75,97,281749
1.7351,0.1124,38.0800,75,97,281752
1.7107,0.1173,38.2700,75,97,281755
1.7204,0.1222,38.2400,75,97,281759
1.7546,0.1222,38.1800,75,97,281762
1.7400,0.1124,38.2700,75,97,281765
1.7840,0.1222,38.0200,75,97,281768
1.7595,0.1173,38.1500,75,97,281773
1.7546,0.1124,38.2700,75,97,281776
1.7693,0.1222,38.2400,75,97,281779
1.7742,0.1124,38.2700,75,97,281783
1.8231,0.1271,37.9600,75,97,281786
1.7889,0.1124,38.2100,75,97,281789
1.7791,0.1173,38.2400,75,97,281793
1.7937,0.1173,38.2700,75,97,281796
1.7742,0.1173,38.2700,75,97,281799
1.8280,0.1417,38.0800,75,97,281803
1.7889,0.1173,38.2400,75,97,281806
1.7986,0.1124,38.1100,75,97,281809
1.7889,0.1271,38.2700,75,97,281812
1.7889,0.1124,38.3300,75,97,281817
1.8231,0.1222,38.1800,75,97,281820
1.8133,0.1124,38.2400,75,97,281823
1.8328,0.1173,38.1100,75,97,281827
1.8133,0.1124,38.2700,75,97,281830
1.8133,0.1320,38.2700,75,97,281833
1.8524,0.1271,38.1500,75,97,281837
1.8182,0.1613,38.3000,75,97,281840
1.8524,0.1173,38.1500,75,97,281843
1.8182,0.1124,38.2100,75,97,281847
1.8182,0.1369,38.3000,75,97,281850
1.8280,0.1222,38.1800,75,97,281853
1.8182,0.1124,38.3000,75,97,281857
1.8573,0.1271,38.0200,75,97,281861
1.8231,0.1124,38.2100,75,97,281864
1.8231,0.1173,38.2400,75,97,281867
1.8328,0.1124,38.2400,75,97,281871
1.8182,0.1173,38.4300,75,97,281874
1.8671,0.1173,37.9900,75,97,281877
1.8231,0.1124,38.2400,75,97,281881
1.8328,0.1173,38.2700,75,97,281884
1.8280,0.1222,38.1500,75,97,281887
1.8231,0.1124,38.3000,75,97,281891
1.8719,0.1320,38.2400,75,97,281894
1.8328,0.1417,38.2100,75,97,281897
1.8377,0.1124,38.1800,75,97,281902
1.8231,0.1271,38.2400,75,97,281905
1.8280,0.1124,38.2700,75,97,281908
1.8622,0.1222,38.0200,75,97,281911
1.8280,0.1173,38.2400,75,97,281915
1.8475,0.1173,38.1500,75,97,281918
1.8280,0.1222,38.2700,75,97,281921
1.8377,0.1124,38.2700,75,97,281925
1.8573,0.1222,38.1100,75,97,281928
1.8280,0.1124,38.2700,75,97,281931
1.8573,0.1222,38.1800,75,97,281935
1.8280,0.1222,38.2700,75,97,281938
1.8377,0.1124,38.3300,75,97,281942
1.8524,0.1515,38.2400,75,97,281946
1.8377,0.1173,38.2400,75,97,281949
1.8671,0.1173,38.0500,75,97,281952
1.8719,0.1173,38.2700,75,97,281955
1.8377,0.1124,38.2700,75,97,281959
1.8573,0.1271,38.1800,75,97,281962
1.8426,0.1124,38.2100,75,97,281965
1.8866,0.1271,38.0500,75,97,281969
1.8573,0.1222,38.1800,75,97,281972
1.8426,0.1124,38.3000,75,97,281975
1.8573,0.1124,38.2400,75,97,281979
1.8426,0.1124,38.3300,75,97,281982
1.9013,0.1320,37.9900,75,97,281986
1.8573,0.1173,38.2100,75,97,281990
1.8524,0.1271,38.2100,75,97,281993
1.8475,0.1173,38.2700,75,97,281996
1.8573,0.1173,38.3300,75,97,282000
1.9013,0.1369,38.1100,75,97,282003
1.8671,0.1173,38.2400,75,97,282006
1.8768,0.1173,38.1500,75,97,282009
1.8573,0.1124,38.2700,75,97,282013
1.8524,0.1124,38.2400,75,97,282016
1.8817,0.1222,38.2100,75,97,282019
1.8622,0.1173,38.2400,75,97,282023
1.8866,0.1222,38.1100,75,97,282027
1.8622,0.1124,38.3600,75,97,282030
1.8719,0.1222,38.3000,75,97,282034
1.9013,0.1222,38.1100,75,97,282037
1.8964,0.1173,38.2700,75,97,282040
1.9355,0.1173,38.0800,75,97,282044
1.9306,0.1173,38.1500,75,97,282047
1.9257,0.1320,38.2700,75,97,282050
1.9453,0.1222,38.1800,75,97,282053
1.9355,0.1173,38.2700,75,97,282057
1.9795,0.1173,38.0200,75,97,282060
1.9599,0.1173,38.2400,75,97,282063
1.9599,0.1124,38.3000,75,97,282067
1.9844,0.1124,38.2400,75,97,282071
1.9795,0.1124,38.3300,75,97,282074
2.0577,0.1320,37.9600,75,97,282078
2.0039,0.1124,38.2100,75,97,282081
2.0039,0.1124,38.2700,75,97,282084
2.0039,0.1173,38.2700,75,97,282088
1.9795,0.1173,38.3300,75,97,282091
2.0186,0.1320,38.0500,75,97,282094
1.9501,0.1222,38.4000,75,97,282097
1.9257,0.1173,38.2100,75,97,282101
1.9062,0.1173,38.3600,75,97,282104
1.8964,0.1075,38.2700,75,97,282107
1.9208,0.1222,38.0800,75,97,282112
1.8817,0.1173,38.2700,75,97,282115
1.8817,0.1173,38.1500,75,97,282118
1.8573,0.1173,38.2700,75,97,282122
1.8475,0.1662,38.3000,75,97,282125
1.8622,0.1271,38.1500,75,97,282128
1.8231,0.1173,38.3000,75,97,282131
1.8328,0.1369,38.1500,75,97,282135
1.7986,0.1173,38.0200,75,97,282138
1.8182,0.1124,38.2700,75,97,282142
1.8231,0.1173,38.2700,75,97,282145
1.8377,0.1124,38.2400,75,97,282148
1.8328,0.1124,38.2400,75,97,282152
1.8671,0.1222,38.0200,75,97,282156
1.8182,0.1173,38.1800,75,97,282159
1.8035,0.1124,38.2100,75,97,282163
1.8328,0.1173,38.2400,75,97,282166
1.8866,0.1124,38.3300,75,97,282169
2.0235,0.1369,38.1100,75,97,282173
2.0919,0.1222,38.2100,75,97,282176
2.2287,0.1173,38.1800,75,97,282179
2.3851,0.1173,38.3000,75,97,282183
2.5904,0.1124,38.2100,75,97,282186
2.7859,0.1222,38.1100,75,97,282189
2.7468,0.1124,38.2700,75,97,282192
2.6393,0.1173,38.1100,75,97,282196
2.4194,0.1173,38.2700,75,97,282200
2.2190,0.1173,38.2700,75,97,282203
2.0674,0.1222,38.2100,75,97,282207
1.9550,0.1173,38.2400,75,97,282210
1.9257,0.1222,38.2100,75,97,282213
1.8426,0.1124,38.2700,75,97,282217
1.8133,0.1173,38.3000,75,97,282220
1.8035,0.1320,38.1500,75,97,282223
1.7546,0.1173,38.2400,75,97,282227
1.7693,0.1222,38.0200,75,97,282230
1.7546,0.1173,38.1800,75,97,282233
1.7204,0.1124,38.3000,75,97,282236
1.7204,0.1271,38.2100,75,97,282241
1.7107,0.1124,38.3000,75,97,282244
1.7498,0.1222,37.9900,75,97,282247
1.7253,0.1173,38.2100,75,97,282251
1.7253,0.1124,38.2700,75,97,282254
1.7253,0.1515,38.2400,75,97,282257
1.7253,0.1124,38.2700,75,97,282261
1.7791,0.1320,38.0500,75,97,282264
1.7449,0.1173,38.2700,75,97,282267
1.7546,0.1124,38.2700,75,97,282271
1.7595,0.1271,38.3000,75,97,282274
1.7644,0.1124,38.2700,75,97,282277
1.8084,0.1320,38.1500,75,97,282280
1.7840,0.1271,38.3000,75,97,282285
1.8231,0.1173,38.1800,75,97,282288
1.7937,0.1173,38.1800,75,97,282291
1.7986,0.1173,38.2700,75,97,282295
1.8328,0.1222,38.0800,75,97,282298
1.7986,0.1173,38.2400,75,97,282301
1.8182,0.1124,38.1500,75,97,282305
1.8084,0.1173,38.1500,75,97,282308
1.8133,0.1222,38.2700,75,97,282311
1.8426,0.1222,38.1800,75,97,282314
1.8231,0.1173,38.2700,75,97,282318
1.8573,0.1173,38.1100,75,97,282321
1.8377,0.1124,38.3300,75,97,282324
1.8866,0.1173,38.2400,75,97,282329
1.8671,0.1173,38.0500,75,97,282332
1.8622,0.1075,38.2700,75,97,282335
1.8866,0.1173,38.0200,75,97,282339
1.8573,0.1173,38.2400,75,97,282342
1.9013,0.1173,38.3300,75,97,282345
1.8866,0.1222,38.2400,75,97,282349
1.8817,0.1173,38.2700,75,97,282352
1.9355,0.1222,37.9600,75,97,282355
1.9013,0.1466,38.2100,75,97,282359
1.8866,0.1124,38.2400,75,97,282362
1.9062,0.1417,38.2400,75,97,282365
1.9404,0.1173,38.2400,75,97,282369
1.9746,0.1320,38.1100,75,97,282373
1.9599,0.1222,38.2400,75,97,282376
1.9404,0.1173,38.1800,75,97,282379
1.9404,0.1173,38.2700,75,97,282383
1.9453,0.1173,38.3000,75,97,282386
1.9941,0.1222,38.1100,75,97,282389
1.9697,0.1320,38.3000,75,97,282393
1.9941,0.1173,38.1500,75,97,282396
1.9795,0.1173,38.2700,75,97,282399
1.9892,0.1173,38.3000,75,97,282403
2.0186,0.1124,38.2100,75,97,282406
2.0186,0.1173,38.2700,75,97,282409
2.0528,0.1222,38.1500,75,97,282413
2.0283,0.1124,38.2700,75,97,282417
2.0332,0.1124,38.2700,75,97,282420
2.0626,0.1222,38.1500,75,97,282423
2.0430,0.1173,38.2700,75,97,282427
2.0723,0.1173,38.0800,75,97,282430
2.0577,0.1173,38.1500,75,97,282433
2.0626,0.1222,38.2700,75,97,282437
2.0626,0.1222,38.1800,75,97,282440
2.0479,0.1173,38.2700,75,97,282443
2.0870,0.1222,37.9900,75,97,282446
2.0577,0.1124,38.2100,75,97,282450
2.0479,0.1124,38.3300,75,97,282454
2.0479,0.1222,38.2400,75,97,282457
2.0283,0.1173,38.2700,75,97,282461
2.0674,0.1222,37.9900,75,97,282464
2.0039,0.1124,38.1800,75,97,282467
1.9892,0.1124,38.3600,75,97,282470
1.9844,0.1222,38.2100,75,97,282474
1.9453,0.1173,38.2700,75,97,282477
1.9795,0.1320,38.0200,75,97,282480
1.9110,0.1222,38.1800,75,97,282484
1.8768,0.1124,38.1800,75,97,282487
1.8524,0.1173,38.2700,75,97,282490
1.8280,0.1124,38.2700,75,97,282494
1.8622,0.1271,38.1100,75,97,282498
1.7889,0.1173,38.2100,75,97,282501
1.7889,0.1173,38.1500,75,97,282505
1.7595,0.1173,38.2700,75,97,282508
1.7449,0.1173,38.2700,75,97,282511
1.7595,0.1124,38.1500,75,97,282515
1.7253,0.1173,38.2700,75,97,282518
1.7400,0.1222,38.1500,75,97,282521
1.7204,0.1173,38.2700,75,97,282524
1.7204,0.1124,38.2700,75,97,282528
1.7351,0.1173,38.1800,75,97,282531
1.7351,0.1173,38.1800,75,97,282534
1.7546,0.1124,38.0500,75,97,282539
1.7302,0.1173,38.2700,75,97,282542
1.7400,0.1124,38.2700,75,97,282545
1.7693,0.1222,38.2100,75,97,282549
1.7498,0.1173,38.3000,75,97,282552
1.7889,0.1271,38.0200,75,97,282555
1.7693,0.1124,38.1500,75,97,282559
1.7546,0.1124,38.3000,75,97,282562
1.7693,0.1271,38.2400,75,97,282565
1.7693,0.1173,38.2700,75,97,282568
1.8231,0.1320,37.9900,75,97,282572
1.7889,0.1124,38.1800,75,97,282575
1.7791,0.1124,38.2100,75,97,282578
1.7840,0.1173,38.2400,75,97,282583
1.7791,0.1124,38.2400,75,97,282586
1.8328,0.1320,38.1100,75,97,282589
1.8084,0.1173,38.2700,75,97,282593
1.8133,0.1124,38.1800,75,97,282596
1.7937,0.1173,38.2400,75,97,282599
1.7937,0.1124,38.2700,75,97,282603
1.8182,0.1320,38.1800,75,97,282606
1.8035,0.1124,38.2100,75,97,282609
1.8182,0.1173,38.0800,75,97,282612
1.8133,0.1173,38.2700,75,97,282616
1.7986,0.1124,38.2700,75,97,282619
1.8280,0.1271,38.1100,75,97,282622
1.7937,0.1173,38.2400,75,97,282627
1.8328,0.1173,38.0800,75,97,282630
1.8084,0.1124,38.2100,75,97,282633
1.8084,0.1173,38.2700,75,97,282637
1.8231,0.1173,38.2100,75,97,282640
1.8035,0.1173,38.2700,75,97,282643
1.8426,0.1222,38.0200,75,97,282647
1.8182,0.1173,38.2100,75,97,282650
1.8133,0.1124,38.2100,75,97,282653
1.8524,0.1173,38.2400,75,97,282656
1.8133,0.1173,38.2700,75,97,282660
1.8573,0.1564,37.9900,75,97,282663
1.8133,0.1124,38.2700,75,97,282667
1.8182,0.1173,38.2700,75,97,282671
1.8231,0.1222,38.4600,75,97,282674
1.8182,0.1173,38.3000,75,97,282677
1.8622,0.1320,38.1500,75,97,282681
1.8182,0.1369,38.2100,75,97,282684
1.8084,0.1124,38.1800,75,97,282687
1.8084,0.1173,38.2400,75,97,282691
1.8084,0.1173,38.2700,75,97,282694
1.8475,0.1271,37.4000,75,97,282697
1.8182,0.1173,38.2400,75,97,282701
1.8377,0.1124,38.1500,75,97,282704
1.8182,0.1075,38.2700,75,97,282707
1.8328,0.1173,38.2700,75,97,282711
1.8426,0.1271,38.1500,75,97,282715
1.8133,0.1173,38.3000,75,97,282718
1.8719,0.1222,38.1500,75,97,282721
1.8084,0.1173,38.0500,75,97,282725
1.8182,0.1075,38.3000,75,97,282728
1.8671,0.1173,38.2400,75,97,282731
1.8280,0.1173,38.3000,75,97,282735
1.8524,0.1173,38.0500,75,97,282738
1.8231,0.1124,38.2700,75,97,282741
1.8280,0.1124,38.3600,75,97,282744
1.8524,0.1173,38.2400,76,97,282748
1.8133,0.1271,38.2400,76,97,282753
1.8231,0.1173,38.2700,76,97,282756
1.8817,0.1222,38.0500,76,97,282759
1.8328,0.1173,38.3300,76,97,282762
1.8377,0.1075,38.1500,76,97,282766
1.8231,0.1173,38.3000,76,97,282769
1.8280,0.1124,38.3300,76,97,282772
1.8622,0.1222,38.1100,76,97,282776
1.8377,0.1124,38.3000,76,97,282779
1.8524,0.1173,38.0500,76,97,282782
1.8280,0.1173,38.2400,76,97,282786
1.8280,0.1124,38.3000,76,97,282789
1.8426,0.1075,38.2100,76,97,282792
1.8475,0.1271,38.2400,76,97,282797
1.8622,0.1222,38.1500,76,97,282800
1.8328,0.1173,38.2400,76,97,282803
1.8524,0.1124,38.2700,76,97,282806
1.8915,0.1222,38.1500,76,97,282810
1.8817,0.1173,38.3000,76,97,282813
1.9257,0.1369,38.1100,76,97,282816
1.9208,0.1173,38.1500,76,97,282820
1.9110,0.1124,38.2700,76,97,282823
1.9501,0.1222,38.2100,76,97,282826
1.9159,0.1124,38.3000,76,97,282830
1.9599,0.1222,37.9600,76,97,282833
1.9501,0.1173,38.1800,76,97,282836
1.9306,0.1124,38.2700,76,97,282841
1.9453,0.1222,38.2400,76,97,282844
1.9453,0.1173,38.3300,76,97,282847
2.0137,0.1320,37.2500,76,97,282850
1.9599,0.1173,38.2100,76,97,282854
1.9697,0.1075,38.2100,76,97,282857
1.9648,0.1466,38.2400,76,97,282860
1.9501,0.1124,38.3000,76,97,282864
1.9697,0.1271,38.0200,76,97,282867
1.9110,0.1075,38.2400,76,97,282870
1.8964,0.1173,38.1800,76,97,282874
1.8671,0.1173,38.3000,76,97,282877
1.8524,0.1173,38.3000,76,97,282881
1.8719,0.1222,37.9900,76,97,282885
1.8328,0.1173,38.2400,76,97,282888
1.8328,0.1173,38.1500,76,97,282891
1.8084,0.1271,38.3300,76,97,282894
1.8084,0.1124,38.2700,76,97,282898
1.8133,0.1222,38.2100,76,97,282901
1.7791,0.1173,38.3000,76,97,282904
1.7986,0.1124,38.1100,76,97,282908
1.7693,0.1124,38.2100,76,97,282911
1.7693,0.1173,38.2700,76,97,282914
1.7791,0.1173,38.1500,76,97,282918
1.7693,0.1075,38.2400,76,97,282921
1.8035,0.1173,38.0500,76,97,282925
1.7644,0.1173,38.2700,76,97,282929
1.7742,0.1173,38.2700,76,97,282932
1.7840,0.1222,38.2400,76,97,282935
1.7644,0.1222,38.2700,76,97,282938
1.8182,0.1271,37.9900,76,97,282942
1.7986,0.1173,38.1800,76,97,282945
1.7546,0.1075,38.2700,76,97,282948
1.7937,0.1173,38.3000,76,97,282952
1.8377,0.1173,38.2700,76,97,282955
1.9795,0.1320,38.0800,76,97,282958
2.0528,0.1124,38.2100,76,97,282962
2.1799,0.1124,38.1800,76,97,282966
2.3314,0.1173,38.3000,76,97,282969
2.5367,0.1173,38.2700,76,97,282973
2.7370,0.1222,38.1100,76,97,282976
2.7077,0.1271,38.2400,76,97,282979
2.6149,0.1173,38.1100,76,97,282982
2.3900,0.1124,38.3600,76,97,282986
2.1994,0.1075,38.3000,76,97,282989
2.0430,0.1124,38.2100,76,97,282992
1.9208,0.1173,38.2700,76,97,282996
1.8817,0.1222,38.3600,76,97,282999
1.8133,0.1124,38.2700,76,97,283002
1.7791,0.1515,38.2700,76,97,283006
1.7742,0.1222,38.1800,76,97,283010
1.7204,0.1173,38.2700,76,97,283013
1.7253,0.1173,38.0800,76,97,283017
1.6911,0.1124,38.1500,76,97,283020
1.6764,0.1271,38.2700,76,97,283023
1.6813,0.1222,38.4000,76,97,283026
1.6667,0.1320,38.2700,76,97,283030
1.7155,0.1173,38.0500,76,97,283033
1.6911,0.1173,37.9900,76,97,283036
1.6813,0.1173,38.2700,76,97,283040
1.6862,0.1173,38.2400,76,97,283043
1.6813,0.1124,38.2700,76,97,283046
1.7351,0.1271,37.9900,76,97,283051
1.7009,0.1173,38.2100,76,97,283054
1.7107,0.1075,38.2700,76,97,283057
1.7155,0.1173,38.2700,76,97,283061
1.7204,0.1124,38.2700,76,97,283064
1.7742,0.1320,38.1500,76,97,283067
1.7498,0.1173,38.2100,76,97,283070
1.7595,0.1124,38.1800,76,97,283074
1.7595,0.1222,38.2700,76,97,283077
1.7595,0.1124,38.3000,76,97,283080
1.7937,0.1271,38.0800,76,97,283084
1.7693,0.1173,38.2700,76,97,283087
1.7986,0.1320,38.1500,76,97,283090
1.8035,0.1173,38.2400,76,97,283095
1.7889,0.1124,38.2700,76,97,283098
1.8133,0.1173,38.1800,76,97,283101
1.7937,0.1124,38.2700,76,97,283105
1.8231,0.1173,38.1500,76,97,283108
1.8084,0.1173,38.2100,76,97,283111
1.8182,0.1124,38.2100,76,97,283115
1.8328,0.1222,38.2100,76,97,283118
1.8280,0.1124,38.2700,76,97,283121
1.8622,0.1173,37.9600,76,97,283124
1.8328,0.1173,38.2700,76,97,283128
1.8426,0.1124,38.3600,76,97,283131
1.8768,0.1222,38.2700,76,97,283134
1.8573,0.1124,38.2100,76,97,283139
1.9453,0.1271,37.9300,76,97,283142
1.8768,0.1173,38.2700,76,97,283145
1.8719,0.1075,38.2100,76,97,283149
1.8817,0.1173,38.2700,76,97,283152
1.8866,0.1124,38.1500,76,97,283155
1.9550,0.1320,38.0500,76,97,283159
1.9159,0.1222,38.2400,76,97,283162
1.9257,0.1124,38.1800,76,97,283165
1.9159,0.1173,38.2400,76,97,283168
1.9257,0.1124,38.2700,76,97,283172
1.9844,0.1222,38.1100,76,97,283175
1.9501,0.1173,38.2400,76,97,283179
1.9795,0.1124,38.1100,76,97,283183
1.9648,0.1173,38.2700,76,97,283186
1.9697,0.1515,38.2700,76,97,283189
1.9990,0.1173,38.2100,76,97,283193
1.9990,0.1173,38.2700,76,97,283196
2.0381,0.1124,38.1800,76,97,283199
2.0137,0.1124,38.3300,76,97,283203
2.0186,0.1124,38.2700,76,97,283206
2.0528,0.1222,38.1800,76,97,283209
2.0332,0.1173,38.2400,76,97,283212
2.0723,0.1173,37.9900,76,97,283216
2.0577,0.1271,38.1500,76,97,283219
2.0674,0.1173,38.2700,76,97,283223
2.0577,0.1222,38.4300,76,97,283227
2.0430,0.1173,38.2400,76,97,283230
2.0968,0.1222,37.9900,76,97,283233
2.0674,0.1173,38.2100,76,97,283237
2.0479,0.1124,38.2700,76,97,283240
2.0430,0.1173,38.2400,76,97,283243
2.0235,0.1173,38.2400,76,97,283246
2.0674,0.1222,38.0800,76,97,283250
1.9990,0.1075,38.2400,76,97,283253
1.9746,0.1124,38.2700,76,97,283256
1.9599,0.1173,38.4600,76,97,283260
1.9257,0.1173,38.3300,76,97,283264
1.9501,0.1320,38.3300,76,97,283267
1.8915,0.1271,38.2400,76,97,283271
1.8671,0.1124,38.1500,76,97,283274
1.8328,0.1222,38.2400,76,97,283277
1.8133,0.1124,38.2700,76,97,283281
1.8280,0.1515,38.1100,76,97,283284
1.7791,0.1173,38.2700,76,97,283287
1.7840,0.1173,38.1500,76,97,283290
1.7498,0.1222,38.2700,76,97,283294
1.7351,0.1124,38.2400,76,97,283297
1.7546,0.1173,38.1800,76,97,283300
1.7302,0.1124,38.2400,76,97,283304
1.7498,0.1124,37.4000,76,97,283308
1.7204,0.1173,38.2100,76,97,283311
1.7253,0.1124,38.2700,76,97,283315
1.7400,0.1124,38.1800,76,97,283318
1.7302,0.1173,38.2700,76,97,283321
1.7595,0.1173,38.0500,76,97,283325
1.7302,0.1173,38.2700,76,97,283328
1.7302,0.1173,38.2700,76,97,283331
1.7644,0.1222,38.2400,76,97,283334
1.7498,0.1124,38.2700,76,97,283338
1.7937,0.1222,38.0200,76,97,283341
1.7644,0.1222,38.1500,76,97,283344
1.7546,0.1124,38.3000,76,97,283348
1.7595,0.1369,38.2400,76,97,283352
1.7644,0.1124,38.2700,76,97,283355
1.8231,0.1320,38.0200,76,97,283359
1.8133,0.1613,38.1100,76,97,283362
1.7937,0.1173,38.3000,76,97,283366
1.8231,0.1173,38.1100,76,97,283369
1.7986,0.1173,38.3000,76,97,283372
1.8035,0.1124,38.2700,76,97,283376
1.8182,0.1222,38.2100,76,97,283379
1.8182,0.1124,38.2700,76,97,283382
1.8328,0.1173,38.1500,76,97,283386
1.8035,0.1124,38.2700,76,97,283389
1.8035,0.1124,38.3600,76,97,283393
1.8231,0.1222,38.1800,76,97,283396
1.8035,0.1173,38.2700,76,97,283400
1.8426,0.1271,37.9900,76,97,283403
1.8231,0.1173,38.2100,76,97,283406
1.8035,0.1173,38.3000,76,97,283410
1.8133,0.1124,38.2400,76,97,283413
1.8084,0.1320,38.2400,76,97,283416
1.8622,0.1173,38.0200,76,97,283420
1.8280,0.1173,38.5200,76,97,283423
1.8182,0.1075,38.3000,76,97,283426
1.8231,0.1173,38.2400,76,97,283430
1.8084,0.1124,38.2700,76,97,283433
1.8622,0.1271,38.0500,76,97,283437
1.8182,0.1124,38.2400,76,97,283440
1.8280,0.1124,38.2100,76,97,283444
1.8182,0.1222,38.2700,76,97,283447
1.8182,0.1124,38.2700,76,97,283450
1.8573,0.1222,38.1800,76,97,283454
1.8280,0.1173,38.4600,76,97,283457
1.8475,0.1173,38.1800,76,97,283460
1.8231,0.1124,38.4000,76,97,283464
1.8231,0.1320,38.2400,76,97,283467
1.8573,0.1124,38.1100,76,97,283470
1.8231,0.1222,38.2400,76,97,283474
1.8475,0.1173,38.1500,76,97,283478
1.8231,0.1124,38.3300,76,97,283481
1.8231,0.1173,38.2700,76,97,283485
1.8328,0.1222,38.0800,76,97,283488
1.8182,0.1222,38.3000,76,97,283491
1.8524,0.1173,38.0200,76,97,283494
1.8328,0.1173,38.2400,76,97,283498
1.8328,0.1271,38.2400,76,97,283501
1.8426,0.1222,38.2700,76,97,283504
1.8328,0.1320,38.2400,76,97,283508
1.8866,0.1173,38.0200,76,97,283511
1.8231,0.1124,38.2400,76,97,283514
1.8280,0.1173,38.2700,76,97,283518
1.8377,0.1222,38.2400,76,97,283522
1.8280,0.1124,38.2700,76,97,283525
1.8817,0.1320,37.9900,76,97,283529
1.8328,0.1271,38.3000,76,97,283532
1.8280,0.1173,38.2100,76,97,283535
1.8231,0.1173,38.2400,76,97,283538
1.8328,0.1173,38.2700,76,97,283542
1.8671,0.1222,38.1500,76,97,283545
1.8377,0.1124,38.2400,76,97,283548
1.8475,0.1173,38.1100,76,97,283552
1.8231,0.1173,38.2700,76,97,283555
1.8231,0.1124,38.2700,76,97,283558
1.8475,0.1222,38.1100,76,97,283563
1.8280,0.1173,38.2700,76,97,283566
1.8475,0.1222,38.2100,76,97,283569
1.8133,0.1271,38.2400,76,97,283573
1.8133,0.1124,37.6800,76,97,283576
1.8231,0.1271,38.2400,76,97,283579
1.8133,0.1124,38.3000,76,97,283583
1.8377,0.1173,38.3300,76,97,283586
1.8084,0.1222,38.3000,76,97,283589
1.8133,0.1124,38.3600,76,97,283592
1.8377,0.1271,38.1800,76,97,283596
1.8328,0.1124,38.3600,76,97,283599
1.8915,0.1271,38.0500,76,97,283602
1.8768,0.1124,38.0800,76,97,283607
1.8622,0.1124,38.2700,76,97,283610
1.8817,0.1271,38.2400,76,97,283613
1.8719,0.1124,38.2700,76,97,283617
1.9306,0.1417,37.9900,76,97,283620
1.8915,0.1173,38.2100,76,97,283623
1.8817,0.1124,38.2100,76,97,283627
1.8964,0.1271,38.2400,76,97,283630
1.8915,0.1124,38.2700,76,97,283633
1.9550,0.1222,38.1100,76,97,283636
1.9306,0.1173,38.2100,76,97,283640
1.9453,0.1173,38.1100,76,97,283643
1.9208,0.1173,38.2400,76,97,283646
1.9159,0.1320,38.2700,76,97,283651
1.9453,0.1173,38.2100,76,97,283654
1.8768,0.1173,38.3000,76,97,283657
1.8768,0.1222,38.0800,76,97,283661
1.8280,0.1173,38.2700,76,97,283664
1.8084,0.1124,38.2700,76,97,283667
1.8280,0.1222,38.1500,76,97,283671
1.7889,0.1173,38.3600,76,97,283674
1.8328,0.1173,38.0800,76,97,283677
1.7693,0.1173,38.1800,76,97,283680
1.7546,0.1173,38.3600,76,97,283684
1.7498,0.1222,38.2100,76,97,283687
1.7204,0.1124,38.2700,76,97,283691
1.7693,0.1271,37.9900,76,97,283695
1.7107,0.1222,38.1100,76,97,283698
1.7253,0.1173,38.4300,76,97,283701
1.7058,0.1173,38.2700,76,97,283705
1.7009,0.1369,38.3000,76,97,283708
1.7449,0.1271,37.9600,76,97,283711
1.7058,0.1173,38.2400,76,97,283715
1.7204,0.1026,38.2700,76,97,283718
1.7204,0.1173,38.2700,76,97,283721
1.7155,0.1173,38.2700,76,97,283725
1.7546,0.1320,38.0800,76,97,283728
1.7155,0.1222,38.2400,76,97,283731
1.7009,0.1173,38.2100,76,97,283735
1.6911,0.1173,38.2700,76,97,283739
1.7155,0.1173,38.3000,76,97,283742
1.7986,0.1222,38.1100,76,97,283745
1.8426,0.1173,38.2400,76,97,283749
1.9795,0.1124,38.1100,76,97,283752
2.0919,0.1515,38.2700,76,97,283755
2.2581,0.1173,38.2400,76,97,283759
2.4927,0.1271,38.1500,76,97,283762
2.6295,0.1075,38.3000,76,97,283765
2.7224,0.1173,38.1100,76,97,283769
2.5415,0.1124,38.2100,76,97,283772
2.3607,0.1271,38.3300,76,97,283776
2.1701,0.1124,38.2100,76,97,283779
1.9746,0.1173,38.3600,76,97,283783
1.8622,0.1271,38.0500,76,97,283786
1.7351,0.1173,38.3000,76,97,283789
1.6862,0.1124,38.2400,76,97,283793
1.6716,0.1222,38.2100,76,97,283796
1.6373,0.1173,38.2700,76,97,283799
1.6618,0.1124,37.9900,76,97,283803
1.6178,0.1222,38.2400,76,97,283806
1.5885,0.1173,38.2700,76,97,283809
1.5836,0.1173,38.2400,76,97,283813
1.6080,0.1173,38.2700,76,97,283816
1.6178,0.1320,37.9900,76,97,283820
1.5836,0.1271,38.1800,76,97,283823
1.5689,0.1124,38.2100,76,97,283827
1.5689,0.1173,38.2400,76,97,283830
1.5689,0.1173,38.2700,76,97,283833
1.6080,0.1271,38.1100,76,97,283837
1.5885,0.1173,38.2100,76,97,283840
1.6031,0.1173,38.1800,76,97,283843
1.5787,0.1173,38.3000,76,97,283847
1.5836,0.1173,38.3000,76,97,283850
1.6080,0.1222,38.2700,76,97,283853
1.5982,0.1173,38.3000,76,97,283857
1.6325,0.1515,38.1100,76,97,283860
1.6178,0.1173,37.9000,76,97,283864
1.6227,0.1124,38.2700,76,97,283867
1.6569,0.1271,38.1800,76,97,283871
1.6325,0.1173,38.2400,76,97,283874
1.6618,0.1124,38.1100,76,97,283877
1.6471,0.1173,38.1500,76,97,283881
1.6471,0.1222,38.2700,76,97,283884
1.6667,0.1222,38.1800,76,97,283887
1.6569,0.1173,38.2700,76,97,283891
1.6960,0.1222,38.0500,76,97,283894
1.6716,0.1222,38.4000,76,97,283897
1.6667,0.1222,38.3000,76,97,283901
1.6764,0.1222,38.2400,76,97,283905
1.6716,0.1222,38.2700,76,97,283908
1.7204,0.1222,37.9600,76,97,283911
1.6813,0.1417,38.2100,76,97,283915
1.6911,0.1124,38.2400,76,97,283918
1.7009,0.1173,38.2100,76,97,283921
1.7009,0.1173,38.2400,76,97,283925
1.7546,0.1320,38.2400,76,97,283928
1.7204,0.1369,38.2400,76,97,283931
1.7204,0.1222,38.1800,76,97,283935
1.7253,0.1173,38.2400,76,97,283938
1.7400,0.1124,38.2700,76,97,283941
1.7742,0.1271,38.1100,76,97,283945
1.7449,0.1124,38.3000,76,97,283949
1.7693,0.1173,38.1100,76,97,283952
1.7546,0.1320,38.3000,76,97,283956
1.7791,0.1173,38.2700,76,97,283959
1.7937,0.1271,38.1800,76,97,283962
1.7742,0.1222,38.3000,76,97,283965
1.8182,0.1124,38.1500,76,97,283969
1.7889,0.1222,38.0500,76,97,283972
1.8231,0.1173,38.1800,76,97,283976
1.8475,0.1173,38.2400,76,97,283979
1.8475,0.1222,38.3000,76,97,283982
1.8426,0.1173,38.2700,76,97,283986
1.9013,0.1320,38.0500,76,97,283990
1.8671,0.1222,38.1500,76,97,283993
1.8524,0.1173,38.2100,76,97,283997
1.8524,0.1124,38.3000,76,97,284000
1.8475,0.1124,38.2700,76,97,284003
1.9013,0.1271,38.0800,76,97,284007
1.8817,0.1173,38.2700,76,97,284010
1.8768,0.1124,38.1500,76,97,284013
1.8573,0.1173,38.3600,76,97,284017
1.8817,0.1222,38.3000,76,97,284020
1.8719,0.1222,38.1100,76,97,284023
1.8377,0.1173,38.3000,76,97,284026
1.8475,0.1124,38.1100,76,97,284030
1.7986,0.1173,38.3300,76,97,284034
1.7742,0.1173,38.2400,76,97,284037
1.7595,0.1222,37.4600,76,97,284041
1.7253,0.1515,38.2400,76,97,284044
1.7302,0.1124,38.0800,76,97,284047
1.6813,0.1515,38.2700,76,97,284051
1.6569,0.1124,38.2700,76,97,284054
1.6520,0.1222,38.0200,76,97,284057
1.6080,0.1173,38.2400,76,97,284061
1.6276,0.1222,38.0200,76,97,284064
1.5982,0.1222,38.2100,76,97,284067
1.5787,0.1271,38.3000,76,97,284070
1.5787,0.1222,38.2100,76,97,284075
1.5591,0.1173,38.2700,76,97,284078
1.6178,0.1271,38.0200,76,97,284081
1.5543,0.1271,38.1800,76,97,284085
1.5445,0.1173,38.3000,76,97,284088
1.5494,0.1173,38.3600,76,97,284091
1.5445,0.1222,38.3600,76,97,284095
1.5885,0.1320,38.1500,76,97,284098
1.5494,0.1222,38.2400,76,97,284101
1.5640,0.1124,38.1500,76,97,284105
1.5591,0.1173,38.2700,76,97,284108
1.5640,0.1124,38.2700,76,97,284111
1.5934,0.1271,38.1800,76,97,284114
1.5787,0.1515,38.2100,76,97,284119
1.5934,0.1124,38.1100,76,97,284122
1.5738,0.1173,38.2700,76,97,284125
1.5787,0.1124,38.3000,76,97,284129
1.6129,0.1271,38.0800,76,97,284132
1.5836,0.1124,38.3300,76,97,284135
1.6129,0.1173,38.3000,76,97,284139
1.5836,0.1173,38.2100,76,97,284142
1.5934,0.1173,38.2700,76,97,284145
1.6129,0.1173,38.1500,76,97,284149
1.6031,0.1124,38.2100,76,97,284152
1.6276,0.1173,38.1500,76,97,284155
1.6129,0.1124,38.1800,76,97,284160
1.6031,0.1173,38.2700,76,97,284163
1.6227,0.1222,38.2400,76,97,284166
1.6080,0.1124,38.3300,76,97,284169
1.6520,0.1222,37.9600,76,97,284173
1.6129,0.1124,38.2700,76,97,284176
1.6178,0.1173,38.2400,76,97,284179
1.6178,0.1222,38.2100,76,97,284183
1.6227,0.1173,38.3000,76,97,284186
1.6667,0.1320,38.0800,76,97,284189
1.6373,0.1222,38.1800,76,97,284193
1.6227,0.1124,38.2400,76,97,284196
1.6178,0.1173,38.2700,76,97,284199
1.6178,0.1173,38.2700,76,97,284204
1.6569,0.1271,38.0500,76,97,284207
1.6325,0.1222,38.2400,76,97,284210
1.6422,0.1222,38.1800,76,97,284213
1.6276,0.1173,38.2700,76,97,284217
1.6227,0.1222,38.2700,76,97,284220
1.6471,0.1222,38.1800,76,97,284223
1.6227,0.1173,38.0800,76,97,284227
1.6471,0.1271,38.2100,76,97,284230
1.6178,0.1222,38.2400,76,97,284233
1.6276,0.1173,38.2700,76,97,284237
1.6373,0.1173,38.1800,76,97,284240
1.6276,0.1173,38.2700,76,97,284243
1.6471,0.1173,38.0800,76,97,284248
1.6325,0.1173,38.2400,76,97,284251
1.6373,0.1173,38.2700,76,97,284254
1.6520,0.1271,38.4300,76,97,284258
1.6325,0.1173,38.2400,76,97,284261
1.6716,0.1222,38.0200,76,97,284264
1.6520,0.1173,38.1800,76,97,284267
1.6716,0.1124,38.2700,76,97,284271
1.6471,0.1222,38.2100,76,97,284274
1.6422,0.1173,38.2700,76,97,284277
1.6862,0.1320,37.9600,76,97,284281
1.6471,0.1222,38.2100,76,97,284284
1.6569,0.1124,38.2100,76,97,284288
1.6569,0.1222,38.2400,76,97,284292
1.6569,0.1124,38.2400,76,97,284295
1.7058,0.1271,38.0200,76,97,284298
1.6667,0.1222,38.2400,76,97,284302
1.6716,0.1173,37.4600,76,97,284305
1.6618,0.1173,38.2400,76,97,284308
1.6618,0.1124,38.2700,76,97,284311
1.7058,0.1222,38.1800,76,97,284315
1.6569,0.1124,38.2700,76,97,284318
1.6764,0.1222,38.1500,76,97,284321
1.6471,0.1124,38.2700,76,97,284325
1.6618,0.1124,38.2400,76,97,284328
1.6862,0.1222,38.1500,76,97,284332
1.6618,0.1369,38.3000,76,97,284336
1.6813,0.1173,38.0500,76,97,284339
1.6618,0.1173,38.1500,76,97,284342
1.6618,0.1173,38.2700,76,97,284346
1.6813,0.1222,38.2100,76,97,284349
1.6667,0.1173,38.2400,76,97,284352
1.7155,0.1222,37.9600,76,97,284356
1.6862,0.1515,38.2400,76,97,284359
1.6813,0.1124,38.2700,76,97,284362
1.7058,0.1173,38.3000,76,97,284365
1.7155,0.1124,38.4600,76,97,284369
1.7742,0.1271,38.0200,76,97,284372
1.7449,0.1417,38.2400,76,97,284376
1.7400,0.1124,38.2400,76,97,284380
1.7595,0.1173,38.2400,76,97,284383
1.7791,0.1173,38.2700,76,97,284386
1.8133,0.1320,38.3300,76,97,284390
1.7840,0.1222,38.2400,76,97,284393
1.7791,0.1173,38.1500,76,97,284396
1.7742,0.1271,38.3000,76,97,284400
1.7889,0.1173,38.3000,76,97,284403
1.8328,0.1222,38.1100,76,97,284406
1.8280,0.1173,38.2700,76,97,284409
1.8475,0.1124,38.1100,76,97,284413
1.8231,0.1222,38.2700,76,97,284417
1.8133,0.1173,38.3000,76,97,284420
1.8328,0.1222,38.2100,76,97,284424
1.8035,0.1222,38.2700,76,97,284427
1.8035,0.1124,38.0500,76,97,284430
1.7546,0.1124,38.2700,76,97,284434
1.7644,0.1173,38.2400,76,97,284437
1.7302,0.1222,38.1800,76,97,284440
1.7107,0.1173,38.2700,76,97,284444
1.7498,0.1222,38.0500,76,97,284447
1.7009,0.1173,38.2700,76,97,284450
1.6911,0.1075,38.2700,76,97,284453
1.6911,0.1222,38.2100,76,97,284457
1.6716,0.1173,38.2700,76,97,284461
1.6960,0.1222,38.0200,76,97,284464
1.6667,0.1222,38.1800,76,97,284468
1.6471,0.1222,38.2400,76,97,284471
1.6422,0.1222,38.2400,76,97,284474
1.6520,0.1222,38.2700,76,97,284478
1.6862,0.1320,38.1800,76,97,284481
1.6471,0.1124,38.2700,76,97,284484
1.6520,0.1124,38.2700,76,97,284488
1.6520,0.1222,38.3000,76,97,284491
1.6569,0.1124,38.2700,76,97,284494
1.6862,0.1222,38.0800,76,97,284498
1.6569,0.1173,38.3000,76,97,284502
1.6667,0.1173,38.1500,76,97,284505
1.6373,0.1173,38.3000,76,97,284508
1.6471,0.1173,38.2700,76,97,284512
1.7009,0.1222,38.1800,76,97,284515
1.7498,0.1173,38.2700,76,97,284518
1.8768,0.1222,38.1800,76,97,284522
1.9844,0.1075,38.2400,76,97,284525
2.1408,0.1173,38.2700,76,97,284528
2.3607,0.1222,38.2400,76,97,284532
2.5415,0.1173,38.2700,76,97,284535
2.6784,0.1173,38.0500,76,97,284538
2.6051,0.1173,38.1100,76,97,284542
2.4389,0.1173,38.2700,76,97,284546
2.2532,0.1222,38.1800,76,97,284549
2.0283,0.1417,38.2400,76,97,284552
1.9110,0.1271,37.9900,76,97,284556
1.7889,0.1173,38.4300,76,97,284559
1.7204,0.1124,38.3000,76,97,284562
1.6911,0.1222,38.2400,76,97,284566
1.6618,0.1124,38.2700,76,97,284569
1.6813,0.1173,37.9300,76,97,284572
1.6178,0.1173,37.6200,76,97,284576
1.5982,0.1271,38.2400,76,97,284579
1.5885,0.1124,38.2700,76,97,284582
1.5738,0.1124,38.2700,76,97,284587
1.5885,0.1124,38.1500,76,97,284590
1.6471,0.1271,38.1100,76,97,284594
1.6080,0.1173,38.2700,76,97,284597
1.6373,0.1124,38.1800,76,97,284600
1.6129,0.1124,38.2100,76,97,284603
1.6178,0.1173,38.3300,76,97,284607
1.6422,0.1222,38.1800,76,97,284610
1.6373,0.1173,38.3000,76,97,284613
1.6764,0.1173,38.0500,76,97,284617
1.6618,0.1173,38.1800,76,97,284620
1.6618,0.1320,38.2400,76,97,284623
1.6716,0.1222,38.2100,76,97,284627
1.6716,0.1173,38.3300,76,97,284631
1.7204,0.1271,37.9900,76,97,284634
1.6862,0.1124,38.2400,76,97,284638
1.6960,0.1173,38.2700,76,97,284641
1.7009,0.1222,38.3300,76,97,284644
1.6960,0.1173,38.2700,76,97,284648
1.7498,0.1320,38.0200,76,97,284651
1.7253,0.1222,38.2100,76,97,284654
1.7204,0.1271,38.2100,76,97,284657
1.7302,0.1173,38.2700,76,97,284661
1.7351,0.1173,38.2700,76,97,284664
1.7840,0.1271,38.0800,76,97,284667
1.7546,0.1173,38.2400,76,97,284672
1.7889,0.1222,38.1500,76,97,284675
1.7644,0.1173,38.2700,76,97,284678
1.7693,0.1515,38.2700,76,97,284682
1.8035,0.1222,38.1100,76,97,284685
1.7840,0.1173,38.2400,76,97,284688
1.8182,0.1466,38.1800,76,97,284692
1.7986,0.1173,38.3300,76,97,284695
1.8084,0.1222,38.2700,76,97,284698
1.8377,0.1271,38.2100,76,97,284701
1.8182,0.1173,38.4600,76,97,284705
1.8475,0.1271,38.1100,76,97,284708
1.8328,0.1173,38.3000,76,97,284711
1.8475,0.1222,38.2400,76,97,284716
1.8768,0.1222,38.1800,76,97,284719
1.8622,0.1075,38.3000,76,97,284722
1.9159,0.1222,38.0200,76,97,284726
1.8964,0.1222,38.1800,76,97,284729
1.8964,0.1124,38.2100,76,97,284732
1.9159,0.1222,38.2400,76,97,284736
1.9159,0.1173,38.2700,76,97,284739
1.9795,0.1124,37.9600,76,97,284742
1.9453,0.1222,38.2100,76,97,284745
1.9599,0.0929,38.2400,76,97,284749
1.9599,0.1173,38.2400,76,97,284752
1.9648,0.1173,38.2400,76,97,284755
2.0283,0.1320,38.0800,76,97,284760
1.9844,0.1173,38.2100,76,97,284763
1.9892,0.1515,38.1100,76,97,284766
1.9844,0.1173,38.2700,76,97,284770
2.0283,0.1075,38.2700,76,97,284773
2.0381,0.1271,38.1800,76,97,284776
2.0088,0.1173,38.3000,76,97,284780
2.0186,0.1173,38.1800,76,97,284783
1.9892,0.1173,38.2700,76,97,284786
1.9844,0.1124,38.2700,76,97,284789
2.0137,0.1466,38.0500,76,97,284793
1.9746,0.1173,38.2700,76,97,284796
1.9844,0.1222,38.1100,76,97,284800
1.9453,0.1173,38.1800,76,97,284804
1.9159,0.1124,38.4600,76,97,284807
1.9110,0.1222,38.1800,76,97,284810
1.8719,0.1124,38.2700,76,97,284814
1.8768,0.1320,38.0200,76,97,284817
1.8328,0.1173,38.1800,76,97,284820
1.7986,0.1124,38.2700,76,97,284824
1.7889,0.1124,38.2100,76,97,284827
1.7644,0.1173,38.2700,76,97,284830
1.7840,0.1222,38.0500,76,97,284833
1.7498,0.1173,38.2100,76,97,284837
1.7204,0.1124,38.2700,76,97,284840
1.7155,0.1222,38.2700,76,97,284844
1.7009,0.1124,38.3600,76,97,284848
1.7400,0.1417,37.9900,76,97,284851
1.7449,0.1124,38.2100,76,97,284854
1.6960,0.1124,38.2100,76,97,284858
1.6960,0.1271,38.2400,76,97,284861
1.6911,0.1173,38.3000,76,97,284864
1.7351,0.1222,38.0800,76,97,284868
1.7058,0.1173,38.2700,76,97,284871
1.7204,0.1124,38.1800,76,97,284874
1.7058,0.1173,38.2400,76,97,284877
1.7009,0.1173,38.2400,76,97,284881
1.7400,0.1222,38.1100,76,97,284884
1.7204,0.1075,38.3000,76,97,284888
1.7595,0.1173,38.1100,76,97,284892
1.7253,0.1173,38.2700,76,97,284895
1.7302,0.1173,38.2700,76,97,284898
1.7449,0.1173,38.2100,76,97,284902
1.7400,0.1466,38.2700,76,97,284905
1.7742,0.1222,38.0800,76,97,284908
1.7546,0.1173,38.1100,76,97,284911
1.7693,0.1173,38.2400,76,97,284915
1.7937,0.1222,38.1500,76,97,284918
1.7742,0.1173,38.2700,76,97,284921
1.8084,0.1173,38.0200,76,97,284925
1.7937,0.1173,38.0800,76,97,284929
1.7840,0.1173,38.3000,76,97,284932
1.8035,0.1173,38.1800,76,97,284936
1.7937,0.1124,38.2100,76,97,284939
1.8377,0.1271,37.9900,76,97,284942
1.8035,0.1173,38.4300,76,97,284946
1.7986,0.1173,38.3000,76,97,284949
1.8035,0.1124,38.2400,76,97,284952
1.8084,0.1124,38.2700,76,97,284955
1.8622,0.1320,38.0500,76,97,284959
1.8182,0.1173,38.2100,76,97,284962
1.8231,0.1124,38.2400,76,97,284965
1.8182,0.1173,38.2700,76,97,284969
1.8182,0.1124,38.3000,76,97,284973
1.8524,0.1417,38.1100,76,97,284976
1.8377,0.1222,38.2400,76,97,284980
1.8328,0.1173,37.4300,76,97,284983
1.8182,0.1124,38.2100,76,97,284986
1.8182,0.1124,38.2100,76,97,284990
1.8475,0.1271,38.1100,76,97,284993
1.8182,0.1124,38.2700,76,97,284996
1.8377,0.1515,38.1500,76,97,285000
1.8084,0.1075,38.2100,76,97,285003
1.8133,0.1124,38.2400,76,97,285006
1.8671,0.1222,38.1800,76,97,285009
1.8231,0.1173,38.2700,76,97,285014
1.8524,0.1466,38.0800,76,97,285017
1.8328,0.1124,38.1800,76,97,285020
1.8280,0.1124,38.1500,76,97,285024
1.8328,0.1271,38.2400,76,97,285027
1.8280,0.1124,38.2700,76,97,285030
1.8719,0.1222,37.9600,76,97,285034
1.8328,0.1124,38.2400,76,97,285037
1.8328,0.1124,38.2700,76,97,285040
1.8377,0.1124,38.2400,76,97,285044
1.8280,0.1124,38.2700,76,97,285047
1.8817,0.1369,37.9900,76,97,285050
1.8426,0.1173,38.1800,76,97,285053
1.8377,0.1075,38.2100,76,97,285058
1.8426,0.1173,38.3000,76,97,285061
1.8328,0.1124,38.3000,76,97,285064
1.8817,0.1222,38.0500,76,97,285068
1.8426,0.1173,38.2400,76,97,285071
1.8524,0.1173,38.1500,76,97,285074
1.8377,0.1222,38.2700,76,97,285078
1.8426,0.1124,38.2700,76,97,285081
1.8671,0.1222,38.1100,76,97,285084
1.8426,0.1124,38.2700,76,97,285088
1.8671,0.1173,38.1500,76,97,285091
1.8377,0.1124,38.2700,76,97,285094
1.8426,0.1124,38.2700,76,97,285097
1.8524,0.1173,38.2700,76,97,285102
1.8426,0.1173,38.4300,76,97,285105
1.8671,0.1222,38.1100,76,97,285108
1.8426,0.1173,38.2400,76,97,285112
1.8719,0.1173,38.2400,76,97,285115
1.8719,0.1222,38.0500,76,97,285118
1.8719,0.1173,38.3300,76,97,285122
1.8866,0.1173,38.0200,76,97,285125
1.8671,0.1320,38.1800,76,97,285128
1.8671,0.1173,38.2700,76,97,285132
1.8768,0.1173,38.2100,76,97,285135
1.8719,0.1173,38.2700,76,97,285138
1.9404,0.1222,37.5900,76,97,285143
1.9159,0.1173,38.1800,76,97,285146
1.9110,0.1124,38.3000,76,97,285149
1.9306,0.1222,38.2400,76,97,285152
1.9306,0.1222,38.2700,76,97,285156
1.9941,0.1320,38.0800,76,97,285159
1.9453,0.1173,38.2700,76,97,285162
1.9795,0.1173,38.1800,76,97,285166
1.9453,0.1173,38.2400,76,97,285169
1.9501,0.1173,38.2700,76,97,285172
1.9941,0.1222,38.3300,76,97,285176
2.0088,0.1173,38.2700,76,97,285179
2.0186,0.1124,38.1100,76,97,285182
1.9892,0.1173,38.2400,76,97,285187
1.9892,0.1173,38.2700,76,97,285190
2.0137,0.1222,38.1800,76,97,285193
1.9013,0.1222,38.2100,76,97,285198
1.8768,0.1173,38.2700,76,97,285201
1.9208,0.1222,38.0500,76,97,285204
1.8817,0.1173,38.2100,76,97,285208
1.8866,0.1222,38.2400,76,97,285211
1.8524,0.1173,38.2400,76,97,285214
1.8377,0.1173,38.3000,76,97,285218
1.8768,0.1369,37.9600,76,97,285221
1.8328,0.1173,38.1800,76,97,285224
1.8133,0.1026,38.2400,76,97,285229
1.8084,0.1173,38.3300,76,97,285232
1.8035,0.1173,38.2700,76,97,285235
1.8524,0.1320,38.1100,76,97,285239
1.8182,0.1222,38.2100,76,97,285242
1.8377,0.1173,38.1800,76,97,285245
1.8133,0.1173,38.2400,76,97,285248
1.8182,0.1173,38.2700,76,97,285252
1.8426,0.1222,38.0500,76,97,285255
1.8377,0.1124,38.3000,76,97,285258
1.8280,0.1173,38.1100,76,97,285262
1.7937,0.1124,38.2700,76,97,285265
1.7840,0.1173,38.2700,76,97,285268
1.8231,0.1222,37.9600,76,97,285273
1.8426,0.1662,38.2700,76,97,285276
1.9453,0.1173,38.1100,76,97,285279
2.0186,0.1173,38.2400,76,97,285283
2.1505,0.1173,38.3000,76,97,285286
2.3118,0.1173,38.2100,76,97,285289
2.4780,0.1173,38.3000,76,97,285293
2.7175,0.1222,38.0500,76,97,285296
2.7517,0.1124,38.3000,76,97,285299
2.6882,0.1124,38.2700,76,97,285302
2.5367,0.1271,38.2400,76,97,285306
2.3118,0.1124,38.2700,76,97,285309
2.1848,0.1222,37.9900,76,97,285313
2.0039,0.1222,38.2100,76,97,285317
1.9110,0.1271,38.2700,76,97,285320
1.8719,0.1124,38.2400,76,97,285323
1.8328,0.1173,38.3300,76,97,285327
1.8475,0.1417,38.0200,76,97,285330
1.7791,0.1222,38.1500,76,97,285333
1.7498,0.1173,38.1800,76,97,285337
1.7302,0.1124,38.2700,76,97,285340
1.7155,0.1124,38.3000,76,97,285343
1.7546,0.1173,38.0800,76,97,285346
1.7107,0.1173,38.2400,76,97,285350
1.7204,0.1417,38.1500,76,97,285353
1.7155,0.1173,38.2400,76,97,285357
1.7155,0.1124,38.2100,76,97,285361
1.7351,0.1222,38.2100,76,97,285364
1.7302,0.1173,38.2400,76,97,285367
1.7644,0.1271,38.1800,76,97,285371
1.7351,0.1173,38.2400,76,97,285374
1.7400,0.1173,38.2700,76,97,285377
1.7742,0.1222,38.2400,76,97,285381
1.7644,0.1124,38.2700,76,97,285384
1.7937,0.1173,38.0800,76,97,285387
1.7742,0.1173,38.1100,76,97,285390
1.7742,0.1173,38.3000,76,97,285394
1.7840,0.1222,38.4000,76,97,285398
1.7791,0.1173,38.2700,76,97,285401
1.8328,0.1222,38.0200,76,97,285405
1.8133,0.1173,38.2100,76,97,285408
1.8084,0.1124,38.2700,76,97,285411
1.8182,0.1222,38.4300,76,97,285415
1.8182,0.1124,38.2700,76,97,285418
1.8768,0.1320,38.0200,76,97,285421
1.8377,0.1124,38.2400,76,97,285425
1.8426,0.1124,38.2400,76,97,285428
1.8475,0.1222,38.2700,76,97,285431
1.8524,0.1173,38.2700,76,97,285435
1.9013,0.1320,38.1500,76,97,285438
1.8768,0.1173,38.2400,76,97,285442
1.8964,0.1173,38.1500,76,97,285445
1.8817,0.1173,38.2400,76,97,285449
1.8817,0.1124,38.2700,76,97,285452
1.9257,0.1271,38.1100,76,97,285455
1.9013,0.1124,38.3000,76,97,285459
1.9306,0.1222,38.1100,76,97,285462
1.9062,0.1124,38.2100,76,97,285465
1.9159,0.1173,38.3000,76,97,285469
1.9453,0.1515,38.1500,76,97,285472
1.9355,0.1124,38.2700,76,97,285475
1.9648,0.1173,37.7100,76,97,285479
1.9404,0.1173,38.2100,76,97,285483
1.9501,0.1173,38.2400,76,97,285486
1.9697,0.1173,38.1800,76,97,285489
1.9697,0.1124,38.3300,76,97,285493
2.0186,0.1222,38.0500,76,97,285496
1.9892,0.1222,38.2700,76,97,285499
2.0039,0.1124,38.2700,76,97,285503
2.0283,0.1222,38.2400,76,97,285506
2.0235,0.1173,38.3000,76,97,285509
2.0870,0.1222,37.9900,76,97,285513
2.0626,0.1222,38.1800,76,97,285516
2.0577,0.1124,38.3300,76,97,285519
2.0723,0.1173,38.2400,76,97,285522
2.0723,0.1124,38.2700,76,97,285527
2.1408,0.1662,38.0200,76,97,285530
2.0968,0.1222,38.2100,76,97,285533
2.0968,0.1124,38.1800,76,97,285537
2.0919,0.1173,38.2100,76,97,285540
2.1065,0.1173,38.2700,76,97,285543
2.1408,0.1222,38.1100,76,97,285547
2.1017,0.1271,38.2700,76,97,285550
2.1114,0.1173,38.1500,76,97,285553
2.0968,0.1173,38.3300,76,97,285556
2.0968,0.1173,38.2400,76,97,285560
2.1212,0.1222,38.2100,76,97,285563
2.0968,0.1173,38.2400,76,97,285566
2.1065,0.1271,38.1100,76,97,285571
2.0626,0.1173,38.3000,76,97,285574
2.0479,0.1124,38.2700,76,97,285577
2.0626,0.1222,38.1800,76,97,285581
2.0088,0.1124,38.2700,76,97,285584
2.0088,0.1417,38.0500,76,97,285587
1.9550,0.1271,38.1800,76,97,285590
1.9550,0.1173,38.2400,76,97,285594
1.9257,0.1222,38.1500,76,97,285597
1.8866,0.1173,38.2700,76,97,285600
1.9062,0.1124,38.0200,76,97,285604
1.8573,0.1173,38.1500,76,97,285607
1.8426,0.1173,38.2700,76,97,285611
1.8328,0.1222,37.5600,76,97,285615
1.8133,0.1271,38.3000,76,97,285618
1.8671,0.1124,37.9900,76,97,285621
1.8084,0.1222,38.2400,76,97,285625
1.8182,0.1173,38.2700,76,97,285628
1.8084,0.1173,38.2100,76,97,285631
1.8035,0.1173,38.3000,76,97,285635
1.8524,0.1320,38.0500,76,97,285638
1.8231,0.1222,37.8300,76,97,285641
1.8133,0.1173,38.2400,76,97,285644
1.8133,0.1173,38.2700,76,97,285648
1.8084,0.1173,38.2700,76,97,285651
1.8524,0.1222,37.9300,76,97,285655
1.8280,0.1124,38.2400,76,97,285659
1.8524,0.1124,38.1100,76,97,285662
1.8377,0.1173,38.2700,76,97,285665
1.8377,0.1124,38.2400,76,97,285669
1.8671,0.1271,38.0500,76,97,285672
1.8426,0.1173,38.2400,76,97,285675
1.8768,0.1222,38.1800,76,97,285679
1.8524,0.1173,38.2400,76,97,285682
1.8573,0.1124,38.3000,76,97,285685
1.8719,0.1173,38.1800,76,97,285688
1.8622,0.1222,38.2700,76,97,285692
1.8915,0.1124,38.0800,76,97,285696
1.8671,0.1222,38.2700,76,97,285699
1.8768,0.1124,38.2700,76,97,285703
1.9013,0.1320,38.1500,76,97,285706
1.8817,0.1124,38.2700,76,97,285709
1.9257,0.1417,38.0500,76,97,285713
1.8964,0.1173,38.1800,76,97,285716
1.8866,0.1124,38.3000,76,97,285719
1.8964,0.1222,38.2400,76,97,285723
1.8964,0.1124,38.2400,76,97,285726
1.9453,0.1320,37.9600,76,97,285729
1.8964,0.1173,38.1800,76,97,285732
1.8866,0.1124,38.2100,76,97,285736
1.8866,0.1173,38.2400,76,97,285740
1.8817,0.1124,38.3000,76,97,285743
1.9306,0.1320,38.2700,76,97,285747
1.8915,0.1173,38.2400,76,97,285750
1.9062,0.1173,38.1500,76,97,285753
1.8964,0.1124,38.2400,76,97,285757
1.8915,0.1173,38.3000,76,97,285760
1.9208,0.1222,38.4000,76,97,285763
1.9062,0.1271,38.2400,76,97,285767
1.9257,0.1173,38.1100,76,97,285770
1.8964,0.1222,38.2700,76,97,285773
1.9013,0.1173,38.2700,76,97,285776
1.9355,0.1222,38.3300,76,97,285780
1.9013,0.1124,38.2700,76,97,285784
1.9257,0.1173,38.0800,76,97,285787
1.9208,0.1124,38.1800,76,97,285791
1.9013,0.1124,38.2700,76,97,285794
1.9159,0.1369,38.2400,76,97,285797
1.9110,0.1124,38.2700,76,97,285801
1.9453,0.1173,38.1100,76,97,285804
1.9501,0.1320,38.0500,76,97,285809
1.8964,0.1173,38.2100,76,97,285812
1.9013,0.1124,38.2100,76,97,285815
1.8964,0.1173,38.2400,76,97,285819
1.8915,0.1124,38.2700,76,97,285822
1.9355,0.1271,38.1500,76,97,285826
1.9110,0.1124,38.2100,76,97,285830
1.9208,0.1124,38.1800,76,97,285833
1.9355,0.1173,38.2700,76,97,285836
1.9013,0.1124,38.2700,76,97,285839
1.9355,0.1222,38.1500,76,97,285843
1.9062,0.1124,38.2700,76,97,285846
1.9306,0.1222,38.1100,76,97,285849
1.9013,0.1173,38.2700,76,97,285853
1.9062,0.1124,38.2700,76,97,285856
1.9306,0.1271,38.2100,76,97,285859
1.9013,0.1124,38.2700,76,97,285863
1.9306,0.1173,38.1100,76,97,285867
1.9159,0.1124,38.2100,76,97,285870
1.9110,0.1124,38.4300,76,97,285874
1.9257,0.1222,38.2100,76,97,285877
1.9159,0.1173,38.3000,76,97,285880
1.9501,0.1222,38.0500,76,97,285883
1.9062,0.1173,38.2700,76,97,285887
1.9159,0.1124,38.2700,76,97,285890
1.9257,0.1466,38.3000,76,97,285893
1.9159,0.1124,38.2400,76,97,285897
1.9746,0.1271,37.9900,76,97,285900
1.9453,0.1173,38.1500,76,97,285903
1.9501,0.1075,38.2700,76,97,285907
1.9550,0.1173,38.2400,76,97,285911
1.9648,0.1124,38.3000,76,97,285914
2.0186,0.1417,38.0800,76,97,285918
1.9892,0.1173,38.2700,76,97,285921
1.9892,0.1124,38.1800,76,97,285924
1.9795,0.1271,38.3000,76,97,285927
2.0186,0.1173,38.3000,76,97,285931
2.0235,0.1222,38.1100,76,97,285934
2.0039,0.1173,38.2400,76,97,285937
2.0332,0.1222,38.1100,76,97,285941
2.0186,0.1124,38.2700,76,97,285944
2.0235,0.1124,38.2700,76,97,285947
2.0430,0.1173,38.2100,76,97,285952
