ecg,gsr,temp,hr,spo2,timest
2.7126,0.1662,39.0900,80,97,190336
2.6735,0.1760,39.0000,80,97,190340
2.4682,0.1955,39.0900,80,97,190343
2.2972,0.1711,39.0000,80,97,190346
2.0674,0.1662,39.1200,80,97,190349
1.9257,0.1662,39.1900,80,97,190353
1.8622,0.1711,39.0600,80,97,190356
1.8133,0.1711,39.0900,80,97,190359
1.7986,0.1760,39.0300,80,97,190363
1.7546,0.1662,39.0900,80,97,190366
1.7498,0.1662,39.0900,80,97,190369
1.7546,0.1760,39.0300,80,97,190373
1.7449,0.1662,39.0900,80,97,190376
1.7400,0.1711,38.9300,80,97,190380
1.7253,0.1662,39.0000,80,97,190384
1.7449,0.1613,39.1200,80,97,190387
1.7400,0.1808,39.0000,80,97,190390
1.7155,0.1711,39.1200,80,97,190393
1.7595,0.1760,38.8700,80,97,190397
1.7351,0.1662,39.0000,80,97,190400
1.7302,0.1662,39.1200,80,97,190403
1.7400,0.1711,39.0900,80,97,190407
1.7400,0.1662,39.1600,80,97,190410
1.7937,0.1760,38.8100,80,97,190413
1.7595,0.1662,39.0300,80,97,190417
1.7693,0.1662,39.1200,80,97,190420
1.7791,0.1515,39.0900,80,97,190424
1.8035,0.1662,39.0900,80,97,190428
1.8280,0.1857,38.9300,80,97,190431
1.7937,0.1711,39.1900,80,97,190434
1.7986,0.1808,39.0300,80,97,190437
1.8084,0.1711,39.0900,80,97,190441
1.8133,0.1662,39.1200,80,97,190444
1.8524,0.1857,38.9300,80,97,190447
1.8328,0.1711,39.1200,80,97,190451
1.8426,0.1760,39.0000,80,97,190454
1.8280,0.1662,39.0900,80,97,190457
1.8328,0.1515,39.1200,80,97,190461
1.8671,0.1760,39.0000,80,97,190465
1.8475,0.1662,39.0900,80,97,190468
1.8768,0.1760,39.1600,80,97,190471
1.8573,0.1711,39.1200,80,97,190475
1.8573,0.1662,38.9300,80,97,190478
1.9062,0.1760,39.0600,80,97,190481
1.8719,0.1662,39.1200,80,97,190485
1.9013,0.1711,39.0000,80,97,190488
1.8768,0.1662,39.1200,80,97,190491
1.8768,0.1662,39.1200,80,97,190495
1.9355,0.1711,39.0300,80,97,190498
1.9013,0.1662,39.1200,80,97,190501
1.9550,0.1711,38.8400,80,97,190505
1.9257,0.1711,39.2800,80,97,190509
1.9110,0.1613,39.1200,80,97,190512
1.9355,0.1760,39.0300,80,97,190516
1.9355,0.1662,39.0900,80,97,190519
2.0039,0.1906,38.8700,80,97,190522
1.9795,0.1711,39.1900,80,97,190525
1.9599,0.1613,39.0600,80,97,190529
1.9648,0.1515,39.0900,80,97,190532
1.9697,0.1662,39.0600,80,97,190535
2.0283,0.1857,38.9300,80,97,190539
1.9990,0.1711,38.3000,80,97,190542
2.0186,0.1808,39.0600,80,97,190545
2.0137,0.1711,39.1200,80,97,190550
2.0137,0.1662,39.1200,80,97,190553
2.0430,0.1760,39.0300,80,97,190556
2.0332,0.1711,39.0900,80,97,190559
2.0577,0.1711,38.9600,80,97,190563
2.0381,0.1613,39.0900,80,97,190566
2.0381,0.1662,39.0900,80,97,190569
2.0723,0.1808,39.0300,80,97,190573
2.0479,0.1711,39.0900,80,97,190576
2.0919,0.1760,39.0000,80,97,190579
2.0528,0.1613,39.0600,80,97,190583
2.0577,0.1515,39.0900,80,97,190586
2.0772,0.1808,38.9600,80,97,190589
2.0577,0.1662,39.1200,80,97,190593
2.0772,0.1711,38.2100,80,97,190597
2.0430,0.1613,39.0600,80,97,190600
2.0332,0.1613,39.1200,80,97,190603
2.0235,0.1711,39.2200,80,97,190607
1.9892,0.1711,39.0900,80,97,190610
2.0137,0.1760,38.8700,80,97,190613
1.9453,0.1662,39.0900,80,97,190617
1.9306,0.1662,39.0900,80,97,190620
1.9208,0.1760,39.0600,80,97,190623
1.8768,0.2151,39.1200,80,97,190626
1.8964,0.1808,38.8100,80,97,190630
1.8328,0.1711,39.1200,80,97,190633
1.7986,0.1662,39.0600,80,97,190637
1.7986,0.1711,39.0900,80,97,190641
1.7693,0.1564,39.1200,80,97,190644
1.8035,0.1857,38.9300,80,97,190647
1.7742,0.1857,39.0600,80,97,190651
1.7595,0.1662,39.0300,80,97,190654
1.7351,0.1711,39.1200,80,97,190657
1.7302,0.1808,39.1200,80,97,190660
1.7889,0.1711,38.9600,80,97,190664
1.7302,0.1711,39.0600,80,97,190667
1.7449,0.1711,38.9600,80,97,190670
1.7253,0.1515,39.0300,80,97,190674
1.7302,0.1613,39.0900,80,97,190678
1.7498,0.1515,39.0600,80,97,190681
1.7449,0.1711,39.2200,80,97,190685
1.8084,0.1711,39.0000,80,97,190688
1.7449,0.1662,39.1200,80,97,190691
1.7498,0.1662,39.0900,80,97,190695
1.7791,0.1760,38.9600,80,97,190698
1.7644,0.1760,39.1200,80,97,190701
1.7986,0.1711,38.9000,80,97,190704
1.7791,0.1662,39.0300,80,97,190708
1.7693,0.1662,39.1200,80,97,190711
1.7889,0.2004,39.0600,80,97,190714
1.7840,0.1662,39.0900,80,97,190718
1.8377,0.1760,38.9300,80,97,190722
1.8035,0.1857,39.0600,80,97,190725
1.7889,0.1613,39.1200,80,97,190729
1.7937,0.1711,39.1600,80,97,190732
1.7889,0.1711,39.1200,80,97,190735
1.8426,0.1906,38.8700,80,97,190739
1.8035,0.1760,39.0600,80,97,190742
1.7986,0.1613,39.0600,80,97,190745
1.8084,0.1711,39.0900,80,97,190748
1.7986,0.1955,39.1200,80,97,190752
1.8475,0.1808,38.9600,80,97,190755
1.8231,0.1711,39.2200,80,97,190758
1.8377,0.1613,39.0000,80,97,190763
1.8133,0.1760,39.0900,80,97,190766
1.8084,0.1662,39.0900,80,97,190769
1.8377,0.1711,38.9300,80,97,190773
1.8084,0.1662,39.1200,80,97,190776
1.8377,0.1711,38.9600,80,97,190779
1.8084,0.1662,39.2200,80,97,190783
1.8035,0.1662,39.0900,80,97,190786
1.8328,0.1760,39.0000,80,97,190789
1.8084,0.1662,38.4000,80,97,190792
1.8377,0.1906,38.9300,80,97,190796
1.8182,0.1613,39.0900,80,97,190799
1.8182,0.1662,39.1200,80,97,190802
1.8328,0.1808,39.0600,80,97,190807
1.8231,0.1662,39.1200,80,97,190810
1.8475,0.1711,39.2800,80,97,190813
1.8182,0.1662,39.0900,80,97,190817
1.8231,0.1662,39.0900,80,97,190820
1.8671,0.1760,39.0600,80,97,190823
1.8280,0.1662,39.1900,80,97,190827
1.8671,0.1906,38.8400,80,97,190830
1.8377,0.1711,39.0300,80,97,190833
1.8182,0.1711,39.0900,80,97,190836
1.8182,0.1711,39.1200,80,97,190840
1.8133,0.1711,39.1200,80,97,190843
1.8671,0.1906,38.9300,80,97,190846
1.8231,0.1711,39.0300,80,97,190851
1.8182,0.1613,39.0300,80,97,190854
1.8133,0.1711,39.1600,80,97,190857
1.8426,0.1662,39.0900,80,97,190861
1.8524,0.1760,38.9600,80,97,190864
1.8231,0.1760,39.0900,80,97,190867
1.8426,0.1711,39.0000,80,97,190871
1.8182,0.1662,39.0900,80,97,190874
1.8280,0.1662,39.1200,80,97,190877
1.8426,0.1711,39.2500,80,97,190880
1.8280,0.1662,39.0900,80,97,190884
1.8671,0.1711,39.0000,80,97,190887
1.8182,0.1662,39.1200,80,97,190891
1.8524,0.1564,39.1200,80,97,190895
1.8475,0.1760,39.0000,80,97,190898
1.8231,0.1760,39.1600,80,97,190901
1.8475,0.1515,38.9000,80,97,190905
1.8280,0.1662,39.0300,80,97,190908
1.8377,0.1662,39.1200,80,97,190911
1.8280,0.1760,39.0300,80,97,190915
1.8133,0.1662,39.1200,80,97,190918
1.8622,0.1760,38.8700,80,97,190921
1.9159,0.1857,38.9000,79,97,190925
1.8915,0.1613,39.0600,79,97,190928
1.9062,0.1662,39.0300,79,97,190932
1.9062,0.1711,39.1200,79,97,190936
1.9062,0.1662,39.1200,79,97,190939
1.9404,0.1711,39.0000,79,97,190942
1.9257,0.1760,39.0600,79,97,190946
1.9404,0.1711,38.9600,79,97,190949
1.9159,0.1662,39.0900,79,97,190952
1.9159,0.1662,39.2200,79,97,190956
1.9550,0.1808,38.9600,79,97,190959
1.9355,0.1662,39.1200,79,97,190962
1.9697,0.1613,38.9600,79,97,190966
1.9453,0.1662,39.1200,79,97,190969
1.9404,0.1564,39.0900,79,97,190972
1.9453,0.1760,38.3600,79,97,190977
1.9062,0.1564,39.0900,79,97,190980
1.9159,0.1711,38.9300,79,97,190983
1.8768,0.1711,39.0300,79,97,190986
1.8524,0.1613,39.0900,79,97,190990
1.8377,0.1711,39.1200,79,97,190993
1.8133,0.1662,39.0900,79,97,190996
1.8475,0.1808,38.8400,79,97,191000
1.7986,0.1955,39.0600,79,97,191003
1.8035,0.1662,39.1200,79,97,191006
1.7840,0.1711,38.3600,79,97,191010
1.7644,0.1711,39.0900,79,97,191013
1.7986,0.1906,38.9000,79,97,191016
1.7498,0.2053,39.0600,79,97,191021
1.7253,0.1613,39.0300,79,97,191024
1.7302,0.1760,39.1900,79,97,191027
1.7302,0.1662,39.1200,79,97,191031
1.7595,0.1808,38.9000,79,97,191034
1.7302,0.1711,39.1200,79,97,191037
1.7449,0.1711,38.3300,79,97,191040
1.7693,0.1711,39.0900,79,97,191044
1.7498,0.1662,39.1200,79,97,191047
1.7791,0.1711,39.0000,79,97,191050
1.7546,0.1662,39.1200,79,97,191054
1.7693,0.1760,39.0300,79,97,191057
1.7351,0.1711,39.1200,79,97,191060
1.7449,0.1662,38.3600,79,97,191065
1.8084,0.1711,39.0300,79,97,191068
1.8475,0.1515,39.1200,79,97,191071
1.9697,0.1711,38.9000,79,97,191075
2.0626,0.1515,39.0900,79,97,191078
2.2043,0.1662,39.1600,79,97,191081
2.3949,0.1808,39.0300,79,97,191084
2.5611,0.1662,39.0900,79,97,191088
2.6979,0.1711,38.8400,79,97,191091
2.5953,0.1760,39.0300,79,97,191094
2.3949,0.1662,39.1600,79,97,191098
2.1994,0.1711,39.0900,79,97,191101
1.9990,0.1662,39.1200,79,97,191105
1.9110,0.1857,38.8100,79,97,191109
1.7937,0.1711,39.0300,79,97,191112
1.7400,0.1808,39.1200,79,97,191115
1.7351,0.1613,39.0900,79,97,191119
1.6911,0.1662,39.1600,79,97,191122
1.7155,0.1711,38.9600,79,97,191125
1.6667,0.1662,39.0900,79,97,191128
1.6618,0.1662,39.0300,79,97,191132
1.6422,0.1515,39.0900,79,97,191135
1.6325,0.1711,39.1200,79,97,191138
1.6520,0.1808,39.0600,79,97,191142
1.6373,0.1711,39.0900,79,97,191145
1.6569,0.1760,39.0000,79,97,191149
1.6373,0.1662,39.1600,79,97,191153
1.6422,0.1662,39.1200,79,97,191156
1.6764,0.1808,39.0300,79,97,191159
1.6618,0.1613,39.0900,79,97,191163
1.6764,0.1711,38.9600,79,97,191166
1.6716,0.1613,39.0300,79,97,191169
1.6667,0.1613,39.0900,79,97,191173
1.6862,0.1857,39.0600,79,97,191176
1.7009,0.1613,39.0900,79,97,191179
1.7204,0.1711,38.9300,79,97,191182
1.6960,0.1711,39.0900,79,97,191186
1.7204,0.1760,39.0900,79,97,191190
1.7155,0.1711,39.0600,79,97,191193
1.7058,0.1662,39.2200,79,97,191197
1.7498,0.1711,38.8400,79,97,191200
1.7155,0.1662,39.1200,79,97,191203
1.7498,0.1613,39.1200,79,97,191207
1.7351,0.1711,39.0000,79,97,191210
1.7400,0.1760,39.1200,79,97,191213
1.7937,0.1906,38.9000,79,97,191216
1.7546,0.1711,39.1200,79,97,191220
1.7937,0.1662,39.0300,79,97,191223
1.7644,0.1711,39.0900,79,97,191226
1.7693,0.1613,39.0900,79,97,191230
1.8084,0.1808,38.9300,79,97,191234
1.7840,0.1711,39.0900,79,97,191237
1.7986,0.1760,38.9600,79,97,191241
1.7840,0.1662,39.1200,79,97,191244
1.7937,0.1662,38.7400,79,97,191247
1.8231,0.1711,38.9600,79,97,191251
1.8035,0.1662,39.0900,79,97,191254
1.8280,0.1857,39.0000,79,97,191257
1.8084,0.1662,39.1200,79,97,191260
1.8231,0.1662,39.3200,79,97,191264
1.8768,0.1711,39.0600,79,97,191267
1.8426,0.1662,39.0900,79,97,191270
1.8671,0.1662,38.9000,79,97,191275
1.8475,0.1662,39.1200,79,97,191278
1.8573,0.1662,39.0900,79,97,191281
1.8817,0.1760,39.0000,79,97,191285
1.8768,0.1662,39.1200,79,97,191288
1.9208,0.1711,38.8700,79,97,191291
1.9208,0.1711,39.0300,79,97,191295
1.9013,0.1515,39.1200,79,97,191298
1.9453,0.1760,39.0300,79,97,191301
1.9257,0.1515,39.1200,79,97,191304
1.9844,0.1808,38.8100,79,97,191308
1.9550,0.1662,39.0600,79,97,191311
1.9501,0.1613,39.1200,79,97,191314
1.9550,0.1711,39.1600,79,97,191319
1.9599,0.1662,39.2200,79,97,191322
2.0235,0.1808,38.9600,79,97,191325
1.9795,0.1711,39.0900,79,97,191329
1.9844,0.1662,39.0300,79,97,191332
1.9795,0.1711,39.0900,79,97,191335
1.9746,0.1662,39.1600,79,97,191339
2.0039,0.1760,39.0300,79,97,191342
1.9795,0.1711,39.0900,79,97,191345
1.9990,0.1857,38.9600,79,97,191348
1.9697,0.1662,39.0900,79,97,191352
1.9648,0.1613,39.1200,79,97,191355
1.9892,0.1808,39.0000,79,97,191358
1.9453,0.1662,39.0600,79,97,191363
1.9501,0.1711,39.0300,79,97,191366
1.9013,0.1613,39.0300,79,97,191369
1.8719,0.1662,39.1900,79,97,191373
1.8573,0.1711,39.0000,79,97,191376
1.8035,0.1662,39.1200,79,97,191379
1.8084,0.1711,38.9000,79,97,191383
1.7693,0.1662,39.0300,79,97,191386
1.7400,0.1662,39.0900,79,97,191389
1.7302,0.1760,39.0600,79,97,191392
1.6960,0.1662,39.1200,79,97,191396
1.7155,0.1760,38.9000,79,97,191399
1.6667,0.1662,39.0900,79,97,191403
1.6618,0.1515,39.1200,79,97,191407
1.6618,0.1808,39.0600,79,97,191410
1.6471,0.1515,39.1200,79,97,191413
1.6862,0.1906,38.8400,79,97,191417
1.6520,0.1760,39.0000,79,97,191420
1.6373,0.1515,39.0600,79,97,191423
1.6422,0.1760,39.0900,79,97,191426
1.6422,0.1662,39.1200,79,97,191430
1.6862,0.1808,38.9000,79,97,191433
1.6471,0.1711,39.0600,79,97,191436
1.6569,0.1662,38.9600,79,97,191440
1.6520,0.1613,39.0900,79,97,191443
1.6618,0.1662,39.1200,79,97,191447
1.6960,0.1613,39.0000,79,97,191451
1.6618,0.1711,39.0900,79,97,191454
1.6960,0.1515,39.0000,79,97,191457
1.6716,0.1955,39.1200,79,97,191461
1.6764,0.1515,39.1200,79,97,191464
1.6960,0.1760,39.0600,79,97,191467
1.6862,0.1662,39.1200,79,97,191470
1.7058,0.1662,39.0000,79,97,191474
1.6911,0.1613,39.1200,79,97,191477
1.6911,0.1662,39.1200,79,97,191480
1.7204,0.1808,39.0000,79,97,191484
1.7058,0.1662,39.0900,79,97,191488
1.7351,0.1711,38.9600,79,97,191491
1.7400,0.1760,39.0000,79,97,191495
1.7009,0.1662,39.0900,79,97,191498
1.7155,0.1711,39.1200,79,97,191501
1.7058,0.1662,39.0900,79,97,191505
1.7595,0.1760,38.8400,79,97,191508
1.7302,0.1662,39.0300,79,97,191511
1.7302,0.1613,39.1200,79,97,191514
1.7253,0.1711,39.0900,79,97,191518
1.7351,0.1613,39.1200,79,97,191521
1.7791,0.1906,39.0000,79,97,191524
1.7693,0.1613,39.0600,79,97,191528
1.7400,0.1613,39.0300,79,97,191532
1.7302,0.1711,39.1600,79,97,191535
1.7302,0.1662,39.0900,79,97,191540
1.7351,0.1662,39.1200,79,97,191543
1.7595,0.1808,39.0000,79,97,191547
1.7400,0.1662,39.1600,79,97,191550
1.7595,0.1662,38.9000,79,97,191553
1.7351,0.1613,39.0600,79,97,191557
1.7302,0.1662,39.1200,79,97,191560
1.7449,0.1760,39.0000,79,97,191563
1.7400,0.1613,39.0900,79,97,191566
1.7546,0.1711,38.9000,79,97,191570
1.7400,0.1711,39.0600,79,97,191574
1.7351,0.1662,39.1200,79,97,191577
1.7449,0.1711,39.0900,79,97,191581
1.7351,0.1662,39.1200,79,97,191584
1.7742,0.1808,38.9300,79,97,191587
1.7302,0.1662,39.0600,79,97,191591
1.7400,0.1613,39.0900,79,97,191594
1.7449,0.1955,39.1200,79,97,191597
1.7351,0.1662,39.1900,79,97,191601
1.7937,0.1955,38.9000,79,97,191604
1.7546,0.1711,39.0600,79,97,191607
1.7498,0.1662,39.0300,79,97,191610
1.7449,0.1711,39.1200,79,97,191614
1.7498,0.1662,39.2200,79,97,191618
1.7791,0.1711,38.9300,79,97,191621
1.7546,0.1711,39.0300,79,97,191625
1.7693,0.1613,39.0000,79,97,191628
1.7498,0.1662,39.0000,79,97,191631
1.7546,0.1711,39.0900,79,97,191635
1.7742,0.1808,39.0000,79,97,191638
1.7595,0.1662,38.4300,79,97,191641
1.7840,0.1662,39.0000,79,97,191645
1.7546,0.1613,39.1200,79,97,191648
1.7546,0.1662,39.0900,79,97,191651
1.7889,0.1760,39.0300,79,97,191655
1.7595,0.1662,39.1200,79,97,191659
1.7840,0.1711,38.9000,79,97,191662
1.7546,0.1662,39.1200,79,97,191665
1.7595,0.1662,39.0600,79,97,191669
1.7937,0.1760,39.0300,79,97,191672
1.7742,0.1662,39.1600,79,97,191675
1.8377,0.1711,38.8700,79,97,191679
1.8182,0.1711,38.9600,79,97,191682
1.8231,0.1711,39.1900,79,97,191685
1.8328,0.1808,39.0900,79,97,191689
1.8377,0.1662,39.0900,79,97,191692
1.9013,0.1906,38.8400,79,97,191695
1.8671,0.1760,39.0600,79,97,191699
1.8573,0.1613,39.0600,79,97,191703
1.8524,0.1662,39.1200,79,97,191706
1.8573,0.1857,39.1200,79,97,191709
1.9062,0.1808,38.9600,79,97,191713
1.8964,0.1711,39.0600,79,97,191716
1.9062,0.1662,38.9600,79,97,191719
1.9062,0.1711,38.9600,79,97,191723
1.9013,0.1662,39.1200,79,97,191726
1.9159,0.1760,39.0300,79,97,191729
1.9062,0.1711,39.0900,79,97,191733
1.8915,0.1711,38.9600,79,97,191736
1.8426,0.1662,39.1200,79,97,191739
1.8231,0.1662,39.1200,79,97,191744
1.8231,0.1711,39.0000,79,97,191747
1.7840,0.1662,38.3300,79,97,191750
1.7986,0.1711,38.9000,79,97,191754
1.7693,0.1662,39.0300,79,97,191757
1.7546,0.1662,39.0600,79,97,191760
1.7595,0.1711,39.0300,79,97,191763
1.7302,0.1662,39.1600,79,97,191767
1.7742,0.1808,38.8700,79,97,191770
1.7302,0.1711,39.0600,79,97,191773
1.7155,0.1906,39.1200,79,97,191777
1.7058,0.1711,39.0900,79,97,191780
1.6960,0.1662,38.7700,79,97,191783
1.7351,0.1760,38.8100,79,97,191788
1.6960,0.1662,39.0600,79,97,191791
1.7009,0.1613,39.1200,79,97,191794
1.7107,0.1711,39.0900,79,97,191798
1.7058,0.1662,39.1200,79,97,191801
1.7498,0.1711,38.9600,79,97,191804
1.7155,0.1711,39.0300,79,97,191807
1.7351,0.1760,39.0300,79,97,191811
1.7058,0.1711,39.1200,79,97,191814
1.7058,0.1711,39.1200,79,97,191817
1.7498,0.1515,38.9600,79,97,191821
1.7546,0.1711,39.1200,79,97,191824
1.8475,0.1711,38.2400,79,97,191827
1.9257,0.1662,39.1900,79,97,191832
2.0528,0.1662,39.1200,79,97,191835
2.2532,0.1808,39.0000,79,97,191838
2.3754,0.1760,39.0900,79,97,191842
2.5855,0.1662,39.0000,79,97,191845
2.6344,0.1613,39.0300,79,97,191848
2.5855,0.1662,39.1200,79,97,191851
2.4438,0.1711,39.0600,79,97,191855
2.2385,0.1906,39.1600,79,97,191858
2.1065,0.1711,38.9000,79,97,191861
1.8768,0.1662,39.1200,79,97,191865
1.7937,0.1613,39.1200,79,97,191868
1.7351,0.1711,39.1200,79,97,191872
1.6960,0.1662,39.1200,79,97,191876
1.7155,0.1760,39.1900,79,97,191879
1.7155,0.1808,39.0600,79,97,191882
1.6520,0.1662,39.1200,79,97,191886
1.6422,0.1711,39.0900,79,97,191889
1.6422,0.1662,39.0900,79,97,191892
1.6911,0.1906,38.9000,79,97,191896
1.6471,0.1711,39.0600,79,97,191899
1.6471,0.1662,39.0300,79,97,191902
1.6471,0.1662,39.0900,79,97,191905
1.6471,0.1662,39.1200,79,97,191909
1.6911,0.1857,38.9600,79,97,191912
1.6764,0.1711,39.0900,79,97,191916
1.6960,0.1711,38.9600,79,97,191920
1.6813,0.1662,39.0900,79,97,191923
1.6764,0.1760,39.0900,79,97,191926
1.6911,0.1711,39.0600,79,97,191930
1.6911,0.1662,39.1900,79,97,191933
1.7351,0.1711,39.0000,79,97,191936
1.7058,0.1662,39.0900,79,97,191940
1.7107,0.1662,39.1200,79,97,191943
1.7351,0.1760,39.0900,79,97,191946
1.7302,0.1662,39.0900,79,97,191949
1.7595,0.1711,38.9300,79,97,191953
1.7498,0.1662,39.0000,79,97,191956
1.7400,0.1613,39.1200,79,97,191960
1.7595,0.1711,39.0300,79,97,191964
1.7449,0.1662,39.1200,79,97,191967
1.7937,0.1760,38.9300,79,97,191970
1.7693,0.1711,39.0600,79,97,191974
1.7693,0.1662,39.3200,79,97,191977
1.7742,0.1613,39.0900,79,97,191980
1.7742,0.1662,39.0900,79,97,191984
1.8280,0.1906,39.0600,79,97,191987
1.8182,0.1711,39.0600,79,97,191990
1.8035,0.1613,39.4100,79,97,191994
1.8133,0.1711,39.1900,79,97,191997
1.8182,0.1662,39.0900,79,97,192001
1.8719,0.1808,39.0000,79,97,192004
1.8328,0.1711,39.0600,79,97,192008
1.8426,0.1662,39.0000,79,97,192011
1.8377,0.1711,39.1200,79,97,192014
1.8475,0.1662,39.1200,79,97,192018
1.8866,0.1808,38.9300,79,97,192021
1.8622,0.1515,39.0900,79,97,192024
1.8866,0.1711,38.9600,79,97,192028
1.8622,0.1613,39.0900,79,97,192031
1.8817,0.1662,39.1200,79,97,192034
1.9159,0.1760,39.0300,79,97,192038
1.9013,0.1515,39.1200,79,97,192041
1.9306,0.1662,38.9300,79,97,192045
1.9159,0.1613,39.0600,79,97,192048
1.9257,0.1662,39.1200,79,97,192052
1.9453,0.1662,39.0600,79,97,192055
1.9404,0.1662,39.1200,79,97,192058
1.9892,0.1711,38.9600,79,97,192062
1.9599,0.1662,39.0900,79,97,192065
1.9697,0.1662,39.0300,79,97,192068
1.9941,0.1760,39.0600,79,97,192072
1.9941,0.1662,39.2200,79,97,192075
2.0528,0.1711,38.8400,79,97,192078
2.0186,0.1711,38.9600,79,97,192082
1.9990,0.1613,39.0900,79,97,192086
2.0039,0.1760,39.1200,79,97,192089
2.0088,0.1613,39.1200,79,97,192092
2.0674,0.1857,38.9300,79,97,192096
2.0283,0.1808,39.0600,79,97,192099
2.0186,0.1613,39.0300,79,97,192102
2.0088,0.1613,39.0900,79,97,192106
1.9941,0.1515,39.1200,79,97,192109
2.0332,0.1808,38.9300,79,97,192112
1.9941,0.1662,39.0900,79,97,192115
1.9844,0.1662,39.0000,79,97,192119
1.9501,0.1662,39.1200,79,97,192122
1.9257,0.1662,39.0300,79,97,192125
1.9208,0.1760,39.0900,79,97,192130
1.8719,0.1711,39.0900,79,97,192133
1.8915,0.1760,38.9600,79,97,192136
1.8231,0.1662,39.0900,79,97,192140
1.7986,0.1760,39.1900,79,97,192143
1.8035,0.1760,39.0000,79,97,192146
1.7155,0.1711,39.0300,79,97,192151
1.6960,0.1662,39.1200,79,97,192154
1.7302,0.1808,38.8700,79,97,192158
1.7058,0.1711,38.9000,79,97,192161
1.6960,0.1711,39.1200,79,97,192164
1.6960,0.1711,39.0900,79,97,192167
1.6813,0.1662,39.1200,79,97,192172
1.7253,0.1906,38.8400,79,97,192175
1.6862,0.1662,39.0900,79,97,192178
1.6960,0.1564,39.0600,79,97,192182
1.7107,0.1760,39.0900,79,97,192185
1.7058,0.1662,39.1200,79,97,192188
1.7498,0.1760,38.9600,79,97,192192
1.7253,0.1711,39.0600,79,97,192195
1.7351,0.1711,39.0600,79,97,192198
1.7302,0.1662,39.0000,79,97,192202
1.7400,0.1760,39.1200,79,97,192205
1.7791,0.1711,39.0000,79,97,192208
1.7449,0.1711,39.1200,79,97,192211
1.7693,0.1760,38.9600,79,97,192216
1.7498,0.1515,39.1200,79,97,192219
1.7546,0.1613,39.1200,79,97,192222
1.7791,0.1711,39.0000,79,97,192226
1.7595,0.1760,39.0900,79,97,192229
1.7840,0.1662,38.9600,79,97,192232
1.7644,0.1662,39.1200,79,97,192236
1.7742,0.1662,39.1200,79,97,192239
1.7937,0.1711,39.0900,79,97,192242
1.7840,0.1760,39.0900,79,97,192246
1.8133,0.1760,38.9000,79,97,192249
1.7742,0.1662,39.0900,79,97,192252
1.7791,0.1662,38.9600,79,97,192256
1.7937,0.1760,39.0600,79,97,192260
1.7889,0.1662,39.0900,79,97,192263
1.8328,0.1906,38.8400,79,97,192266
1.8084,0.1711,39.0300,79,97,192270
1.7889,0.1662,39.1200,79,97,192273
1.7937,0.1711,39.0900,79,97,192276
1.7937,0.1662,39.1200,79,97,192280
1.8524,0.1857,38.9000,79,97,192283
1.8133,0.1711,39.1900,79,97,192286
1.8035,0.1711,39.0300,79,97,192290
1.7937,0.1662,39.1200,79,97,192293
1.7937,0.1662,39.0900,79,97,192296
1.8377,0.1711,38.9600,79,97,192300
1.8084,0.1662,39.1200,79,97,192304
1.8280,0.1711,39.0000,79,97,192307
1.8035,0.1662,39.0900,79,97,192310
1.7986,0.1564,39.1200,79,97,192314
1.8182,0.1760,39.0600,79,97,192317
1.8035,0.1662,39.0900,79,97,192320
1.8280,0.1760,39.0000,79,97,192324
1.7937,0.1662,39.1200,79,97,192327
1.7937,0.1613,38.4000,79,97,192330
1.8231,0.1808,39.0000,79,97,192333
1.7986,0.1662,39.1200,79,97,192337
1.8231,0.1711,38.8700,79,97,192340
1.8084,0.1613,39.0300,79,97,192344
1.8084,0.1662,39.1900,79,97,192348
1.8280,0.1711,39.0600,79,97,192351
1.8084,0.1662,39.0900,79,97,192354
1.8524,0.1760,38.9000,79,97,192358
1.8328,0.1760,39.0600,79,97,192361
1.8231,0.1662,39.1200,79,97,192364
1.8280,0.1711,39.1200,79,97,192368
1.8280,0.1613,39.1200,79,97,192371
1.8671,0.1808,38.8400,79,97,192374
1.8231,0.1662,39.0600,79,97,192377
1.8182,0.1613,39.0900,79,97,192381
1.8280,0.1955,39.1200,79,97,192385
1.8231,0.1662,39.1200,79,97,192388
1.8671,0.1906,38.9000,79,97,192392
1.8182,0.1711,39.0600,79,97,192395
1.8231,0.1662,39.0900,79,97,192398
1.8182,0.1662,39.1200,79,97,192402
1.8133,0.1662,38.6200,79,97,192405
1.8671,0.1760,38.9600,79,97,192408
1.8182,0.1711,39.1200,79,97,192412
1.8377,0.1760,38.9600,79,97,192415
1.8133,0.1515,39.1200,79,97,192418
1.8231,0.1662,39.1200,79,97,192421
1.8573,0.1711,39.0000,79,97,192425
1.8328,0.1662,39.1600,79,97,192429
1.8622,0.1760,38.9600,79,97,192432
1.8426,0.1613,39.0600,79,97,192436
1.8573,0.1760,39.1200,79,97,192439
1.8915,0.1711,39.0600,79,97,192442
1.8915,0.1662,39.0900,79,97,192446
1.9257,0.1955,38.8700,79,97,192449
1.9013,0.1662,39.1200,79,97,192452
1.9062,0.1662,39.1200,79,97,192456
1.9257,0.1760,39.0600,79,97,192459
1.9159,0.1662,39.1900,79,97,192462
1.9697,0.1760,38.8400,79,97,192465
1.9550,0.1711,39.0300,79,97,192470
1.9404,0.1515,39.1200,79,97,192473
1.9892,0.1711,39.0900,79,97,192476
1.9648,0.1662,39.1200,79,97,192480
2.0283,0.2102,38.8700,79,97,192483
1.9795,0.1515,39.0600,79,97,192486
1.9599,0.1613,39.0000,79,97,192490
1.9404,0.1662,39.1200,79,97,192493
1.9159,0.1662,39.1200,79,97,192496
1.9355,0.1808,38.9300,79,97,192500
1.8768,0.1662,39.0900,79,97,192503
1.8817,0.1515,39.0000,79,97,192506
1.8573,0.1662,39.1200,79,97,192509
1.8426,0.1662,39.1600,79,97,192514
1.8524,0.1808,39.0600,79,97,192517
1.8182,0.1662,39.0900,79,97,192520
1.8328,0.1515,39.0000,79,97,192524
1.8035,0.1711,39.1200,79,97,192527
1.7840,0.1662,39.1200,79,97,192530
1.8084,0.1760,38.9600,79,97,192534
1.7693,0.1662,39.0900,79,97,192537
1.7986,0.1662,38.9600,79,97,192540
1.7791,0.1808,39.0600,79,97,192543
1.7840,0.1662,39.1200,79,97,192547
1.7889,0.1711,39.0300,79,97,192550
1.7693,0.1613,39.0900,79,97,192553
1.8084,0.1711,38.8700,79,97,192558
1.7937,0.1760,39.0600,79,97,192561
1.7840,0.1613,39.1200,79,97,192564
1.7937,0.1711,39.0900,79,97,192568
1.7742,0.1662,39.1200,79,97,192571
1.8035,0.1760,38.8400,79,97,192574
1.7937,0.1662,39.0600,79,97,192578
1.8182,0.1613,39.0900,79,97,192581
1.8866,0.1711,39.0900,79,97,192584
1.9844,0.1662,39.1200,79,97,192588
2.1603,0.1857,38.8400,79,97,192591
2.2532,0.1760,39.0600,79,97,192594
2.4194,0.1662,39.0300,79,97,192598
2.6051,0.2004,39.1200,79,97,192602
2.7077,0.1662,39.1200,79,97,192605
2.7028,0.1760,38.9600,79,97,192608
2.4976,0.1955,39.1200,79,97,192612
2.3118,0.1662,38.9600,79,97,192615
2.0821,0.1662,39.0900,79,97,192618
1.9306,0.2151,39.1200,79,97,192622
1.8622,0.1515,38.9600,79,97,192625
1.7937,0.1760,39.0900,79,97,192628
1.7889,0.1760,39.0300,79,97,192631
1.7498,0.1662,39.1600,79,97,192635
1.7400,0.1662,39.1200,79,97,192638
1.7449,0.1711,39.0600,79,97,192642
1.7253,0.1662,39.2200,79,97,192646
1.7351,0.1760,38.9000,79,97,192649
1.7009,0.1662,39.2800,79,97,192652
1.7009,0.1662,39.1200,79,97,192656
1.7302,0.1711,39.0600,79,97,192659
1.7155,0.1662,39.0900,79,97,192662
1.7546,0.1808,38.8700,79,97,192666
1.7400,0.1711,39.0300,79,97,192669
1.7155,0.1662,39.1600,79,97,192672
1.7302,0.1711,39.1200,79,97,192675
1.7302,0.1662,39.1200,79,97,192679
1.7840,0.1808,38.8100,79,97,192683
1.7546,0.1711,39.0000,79,97,192686
1.7498,0.1662,39.0900,79,97,192690
1.7449,0.1613,39.1200,79,97,192693
1.7546,0.1662,39.1200,79,97,192696
1.8133,0.1857,38.9600,79,97,192700
1.7840,0.1711,39.0300,79,97,192703
1.7986,0.1808,39.0300,79,97,192706
1.7986,0.1662,39.1200,79,97,192710
1.8035,0.1613,39.0600,79,97,192713
1.8328,0.1760,39.0300,79,97,192716
1.8182,0.1662,39.0900,79,97,192719
1.8426,0.1711,39.0000,79,97,192723
1.8280,0.1662,39.1200,79,97,192727
1.8328,0.1711,39.0900,79,97,192730
1.8671,0.1760,38.9600,79,97,192734
1.8426,0.1662,39.0900,79,97,192737
1.8719,0.1662,38.9600,79,97,192740
1.8475,0.1613,39.0900,79,97,192744
1.8573,0.1662,39.0900,79,97,192747
1.8768,0.1711,39.0300,79,97,192750
1.8622,0.1662,39.1200,79,97,192754
1.9062,0.1760,38.9000,79,97,192757
1.9550,0.1808,38.8400,79,97,192762
1.9159,0.1662,39.0300,79,97,192765
1.9257,0.1662,39.0900,79,97,192769
1.9306,0.1711,39.0900,79,97,192772
1.9355,0.1613,39.1200,79,97,192776
1.9892,0.1857,38.9600,79,97,192779
1.9550,0.1857,39.0600,79,97,192782
1.9990,0.1613,39.0300,79,97,192786
1.9648,0.1662,39.1600,79,97,192789
1.9746,0.1613,39.1200,79,97,192792
2.0235,0.1760,38.9600,79,97,192796
1.9941,0.1760,39.0900,79,97,192799
2.0332,0.1711,38.9600,79,97,192802
2.0137,0.1662,39.0900,79,97,192806
2.0235,0.1760,39.1200,79,97,192809
2.0626,0.1515,39.0600,79,97,192813
2.0381,0.1662,38.3600,79,97,192816
2.0772,0.1906,38.9600,79,97,192820
2.0430,0.1613,39.1200,79,97,192823
2.0528,0.1662,39.0900,79,97,192826
2.0674,0.2053,39.0300,79,97,192830
2.0577,0.1662,39.1200,79,97,192833
2.0919,0.1662,38.9300,79,97,192836
2.0577,0.1857,39.1200,79,97,192840
2.0626,0.1662,39.1600,79,97,192843
2.0821,0.1760,38.9600,79,97,192846
2.0674,0.1711,39.0900,79,97,192849
2.1163,0.1760,38.8700,79,97,192854
2.0723,0.1711,39.0600,79,97,192857
2.0430,0.1613,39.0900,79,97,192860
2.0283,0.1760,39.0600,79,97,192864
1.9990,0.1662,39.1200,79,97,192867
2.0381,0.1760,38.8400,79,97,192870
1.9990,0.1613,39.0300,79,97,192874
1.9355,0.1613,39.1200,79,97,192877
1.9110,0.1662,39.0900,79,97,192880
1.8768,0.1613,39.0900,79,97,192883
1.9208,0.1857,38.9300,79,97,192887
1.8524,0.1711,39.1200,79,97,192890
1.8573,0.1613,39.0300,79,97,192893
1.8035,0.1662,39.1200,79,97,192898
1.7791,0.1662,39.0900,79,97,192901
1.7937,0.1760,39.0300,79,97,192904
1.7791,0.1760,39.0600,79,97,192908
1.7644,0.1662,39.0000,79,97,192911
1.7449,0.1662,39.1600,79,97,192914
1.7498,0.1662,39.0900,79,97,192918
1.7644,0.1760,38.2100,79,97,192921
1.7400,0.1711,39.1200,79,97,192924
1.7742,0.1711,39.0000,79,97,192927
1.7449,0.1613,39.0900,79,97,192931
1.7498,0.1662,39.0900,79,97,192934
1.7693,0.1711,39.0900,79,97,192937
1.7546,0.1662,39.1600,79,97,192942
1.7840,0.1613,38.9000,79,97,192945
1.7742,0.1662,39.0900,79,97,192948
1.7742,0.1760,39.1200,79,97,192952
1.7889,0.1711,39.0600,79,97,192955
1.7742,0.1662,39.1200,79,97,192958
1.8182,0.1711,38.8700,79,97,192961
1.7791,0.1515,39.1200,79,97,192965
1.8231,0.1662,39.0900,79,97,192968
1.8133,0.1711,39.0600,79,97,192971
1.7986,0.1613,39.1200,79,97,192975
1.8475,0.1808,38.8700,79,97,192978
1.8182,0.1711,39.0000,79,97,192982
1.8035,0.1662,39.0600,79,97,192986
1.8133,0.1662,39.1900,79,97,192989
1.8133,0.1662,39.1200,79,97,192992
1.8671,0.1760,38.9300,79,97,192996
1.8622,0.1613,39.0600,79,97,192999
1.8377,0.1662,39.0000,79,97,193002
1.8280,0.1662,39.2800,79,97,193006
1.8328,0.1662,39.1200,79,97,193009
1.8671,0.1760,38.9600,79,97,193012
1.8377,0.1711,39.1200,79,97,193015
1.8524,0.1711,38.9600,79,97,193019
1.8328,0.1711,39.1600,79,97,193022
1.8328,0.1662,39.1900,79,97,193026
1.8475,0.1711,39.0300,79,97,193030
1.8475,0.1662,39.1600,79,97,193033
1.8622,0.1662,38.9600,79,97,193036
1.8426,0.1662,38.9600,79,97,193040
1.8377,0.1711,39.1600,79,97,193043
1.8671,0.1760,39.0300,79,97,193046
1.8377,0.1662,39.1200,79,97,193050
1.8866,0.1760,38.9300,79,97,193053
1.8622,0.1662,39.0300,79,97,193056
1.8377,0.1662,39.1200,79,97,193060
1.8768,0.1760,39.0900,79,97,193063
1.8377,0.1662,39.1600,79,97,193067
1.8964,0.1808,38.8100,79,97,193070
1.8573,0.1711,39.0300,79,97,193074
1.8426,0.1613,39.0300,79,97,193077
1.8426,0.1760,39.1200,79,97,193080
1.8377,0.1662,39.3200,79,97,193084
1.8817,0.1711,38.9300,79,97,193087
1.8475,0.1711,39.0600,79,97,193090
1.8573,0.1613,39.0000,79,97,193094
1.8426,0.1662,39.1200,79,97,193097
1.8377,0.1662,39.1200,79,97,193100
1.8573,0.1711,39.0300,79,97,193104
1.8377,0.1760,39.0900,79,97,193107
1.8768,0.1711,38.9600,79,97,193111
1.8377,0.1857,39.0900,79,97,193115
1.8426,0.1662,39.1200,79,97,193118
1.8671,0.1760,38.8100,79,97,193121
1.8426,0.1662,39.1200,79,97,193124
1.8719,0.1662,38.9000,79,97,193128
1.8475,0.1662,39.0300,79,97,193131
1.8524,0.1515,39.0900,79,97,193134
1.8573,0.1760,39.0600,79,97,193138
1.8377,0.1662,39.1200,79,97,193141
1.8768,0.1711,38.8400,79,97,193144
1.8524,0.1711,39.0300,79,97,193148
1.8475,0.1662,38.9600,79,97,193152
1.8524,0.1711,39.0900,79,97,193155
1.8524,0.1662,39.0900,79,97,193159
1.9013,0.1808,38.8400,79,97,193162
1.8573,0.1662,39.0600,79,97,193165
1.8622,0.1613,39.0900,79,97,193168
1.8671,0.1760,39.0600,79,97,193172
1.8622,0.1662,39.1200,79,97,193175
1.9110,0.1906,38.9000,79,97,193178
1.8719,0.1760,39.0600,79,97,193182
1.8622,0.1662,39.0300,79,97,193185
1.8719,0.1760,39.1200,79,97,193188
1.8817,0.1662,39.1200,79,97,193192
1.9355,0.1760,38.9000,79,97,193196
1.9159,0.1662,39.1200,79,97,193199
1.9453,0.1711,38.9600,79,97,193203
1.9404,0.1662,39.1200,79,97,193206
1.9501,0.1662,39.0000,79,97,193209
1.9844,0.1711,39.0300,79,97,193213
1.9550,0.1515,39.1200,79,97,193216
1.9844,0.1711,38.9600,79,97,193219
1.9550,0.1662,39.0600,79,97,193222
1.9648,0.1662,39.1900,79,97,193226
1.9892,0.1760,39.0900,79,97,193229
1.9941,0.1662,39.1200,79,97,193232
2.0332,0.1662,38.8700,79,97,193236
2.0088,0.1662,39.1200,79,97,193240
2.0039,0.1662,39.1200,79,97,193243
2.0137,0.1760,39.0300,79,97,193247
1.9844,0.1662,39.0900,79,97,193250
2.0039,0.1760,38.8100,79,97,193253
1.9550,0.1955,38.9600,79,97,193256
1.9159,0.1662,39.1600,79,97,193260
1.8964,0.1613,39.0900,79,97,193263
1.8817,0.1662,39.1200,79,97,193266
1.9257,0.1857,38.8400,79,97,193270
1.8768,0.1711,39.0900,79,97,193273
1.8573,0.1613,39.0600,79,97,193276
1.8426,0.1857,39.1200,79,97,193281
1.8280,0.1662,39.0900,79,97,193284
1.8671,0.1808,38.9300,79,97,193287
1.8182,0.1662,39.0900,79,97,193291
1.8182,0.1662,39.0000,79,97,193294
1.7937,0.1613,39.0900,79,97,193297
1.7889,0.1662,39.1200,79,97,193300
1.8084,0.1808,39.0300,79,97,193304
1.7937,0.1613,39.1200,79,97,193307
1.8182,0.1711,38.9300,79,97,193310
1.7937,0.1613,39.1200,79,97,193314
1.7986,0.1662,39.0900,79,97,193317
1.8426,0.1760,39.0000,79,97,193320
1.8035,0.1662,39.1200,79,97,193325
1.8231,0.1711,38.9300,79,97,193328
1.7986,0.1662,39.0300,79,97,193331
1.7986,0.1662,39.0900,79,97,193335
1.8426,0.1711,39.0300,79,97,193338
1.8768,0.1662,39.1900,79,97,193341
1.9990,0.1808,38.8700,79,97,193345
2.0919,0.1711,39.0600,79,97,193348
2.2190,0.1662,39.1900,79,97,193351
2.3851,0.1711,39.0900,79,97,193354
2.5660,0.1662,39.1200,79,97,193358
2.7566,0.1515,38.7400,79,97,193361
2.6882,0.1662,39.0600,79,97,193364
2.5415,0.1515,39.0900,79,97,193369
2.3509,0.1662,39.1200,79,97,193372
1.8280,0.1711,39.0900,79,97,193377
1.7742,0.1515,39.1200,79,97,193380
1.7986,0.1760,39.0000,79,97,193383
1.7546,0.1662,39.0900,79,97,193387
1.7546,0.1711,38.9000,79,97,193390
1.7204,0.1662,39.1900,79,97,193393
1.7204,0.1662,39.1200,79,97,193396
1.7400,0.1906,39.0300,79,97,193400
1.7155,0.1662,39.1200,79,97,193403
1.7302,0.1662,39.0000,79,97,193406
1.7107,0.1613,39.0600,79,97,193411
1.7204,0.1613,39.1200,79,97,193414
1.7400,0.1711,39.0600,79,97,193417
1.7449,0.1662,39.1200,79,97,193421
1.7791,0.1711,38.9000,79,97,193424
1.7546,0.1662,39.0900,79,97,193427
1.7595,0.1662,39.0900,79,97,193431
1.7840,0.1760,39.0600,79,97,193434
1.7791,0.1662,39.1200,79,97,193437
1.8328,0.2199,38.8700,79,97,193440
1.8084,0.1711,39.0300,79,97,193444
1.7937,0.1662,39.2200,79,97,193447
1.7986,0.1711,39.0900,79,97,193451
1.8035,0.1662,39.1200,79,97,193455
1.8671,0.1857,38.9000,79,97,193458
1.8328,0.1760,39.0600,79,97,193461
1.8280,0.1613,39.0600,79,97,193465
1.8426,0.1613,39.1200,79,97,193468
1.8328,0.1515,38.6500,79,97,193471
1.8768,0.1955,39.0600,79,97,193475
1.8573,0.1662,39.0900,79,97,193478
1.8671,0.1662,39.0000,79,97,193481
1.8524,0.1711,39.1200,79,97,193484
1.8524,0.1662,39.1200,79,97,193488
1.8719,0.1760,39.0600,79,97,193491
1.8622,0.1662,39.0900,79,97,193495
1.9013,0.1760,39.0300,79,97,193499
1.8768,0.1711,39.0900,79,97,193502
1.8866,0.1515,39.1200,79,97,193505
1.9159,0.1760,39.0000,79,97,193509
1.8964,0.1662,39.0900,79,97,193512
1.9208,0.1662,38.9300,79,97,193515
1.9110,0.1662,39.0300,79,97,193518
1.9257,0.1662,39.1200,79,97,193522
1.9306,0.1711,39.0000,79,97,193525
1.9208,0.1613,39.0900,79,97,193528
1.9648,0.1760,38.9000,79,97,193532
1.9453,0.1711,39.0600,79,97,193536
1.9404,0.1662,39.1600,79,97,193539
1.9599,0.1711,39.0900,79,97,193543
1.9550,0.1662,39.3200,79,97,193546
2.0137,0.1808,38.8400,79,97,193549
1.9746,0.1662,39.1200,79,97,193553
1.9795,0.1662,39.0900,79,97,193556
1.9990,0.1711,39.0900,79,97,193559
1.9990,0.1711,39.0900,79,97,193562
2.0870,0.1808,38.9000,79,97,193566
2.0674,0.1760,39.0600,79,97,193569
2.0235,0.1613,39.0600,79,97,193572
2.0332,0.1711,39.2200,79,97,193576
2.0381,0.1662,39.1900,79,97,193580
2.0772,0.1760,39.0000,79,97,193583
2.0479,0.1760,39.0600,79,97,193587
2.0577,0.1613,39.0000,79,97,193590
2.0381,0.1613,39.0900,79,97,193593
2.0528,0.1662,39.1200,79,97,193596
2.0870,0.1711,39.0600,79,97,193600
2.0674,0.1613,39.0900,79,97,193603
2.0821,0.1711,38.9600,79,97,193606
2.0479,0.1662,39.1200,79,97,193610
2.0479,0.1662,39.1200,79,97,193613
2.0479,0.1711,39.0000,79,97,193616
2.0235,0.2053,39.1600,79,97,193620
2.0283,0.1613,38.9600,79,97,193624
1.9746,0.1662,39.0900,79,97,193627
1.9501,0.1711,39.1200,79,97,193630
1.9501,0.1760,39.0000,79,97,193634
1.9062,0.1711,39.1900,79,97,193637
1.9159,0.1711,38.9300,79,97,193640
1.8671,0.1711,39.0300,79,97,193644
1.8426,0.1662,39.1200,79,97,193647
1.8182,0.2248,39.0600,79,97,193650
1.7889,0.1613,39.0900,79,97,193654
1.8231,0.1760,38.8400,79,97,193657
1.7742,0.1662,39.0300,79,97,193660
1.7595,0.1613,39.1600,79,97,193665
1.7449,0.1808,39.0900,79,97,193668
1.7400,0.1711,39.0900,79,97,193671
1.7791,0.1711,38.8700,79,97,193674
1.7302,0.1906,39.0600,79,97,193678
1.7302,0.1613,39.0300,79,97,193681
1.7253,0.1711,39.1200,79,97,193684
1.7155,0.1662,39.0900,79,97,193688
1.7449,0.1808,39.0300,79,97,193691
1.7302,0.1711,39.1200,79,97,193694
1.7693,0.1662,39.0000,79,97,193698
1.7302,0.1662,39.1600,79,97,193701
1.7546,0.1711,39.1200,79,97,193704
1.7644,0.1760,38.9000,79,97,193709
1.7400,0.1662,39.0900,79,97,193712
1.7644,0.1515,39.0000,79,97,193715
1.7400,0.1613,39.0600,79,97,193718
1.7449,0.1906,39.0900,79,97,193722
1.7693,0.1711,39.0000,79,97,193725
1.7449,0.1662,39.2200,79,97,193728
1.7742,0.1955,38.9600,79,97,193732
1.7595,0.1662,39.0600,79,97,193735
1.7693,0.1711,39.1200,79,97,193738
1.7791,0.1711,39.0600,79,97,193742
1.7644,0.1613,39.1200,79,97,193745
1.7937,0.1760,38.8700,79,97,193748
1.7644,0.1955,39.0900,79,97,193753
1.7791,0.1662,39.1200,79,97,193756
1.7889,0.1711,39.2800,79,97,193759
1.7791,0.1760,39.1600,79,97,193762
1.8231,0.1808,38.8100,79,97,193766
1.7937,0.1808,39.0000,79,97,193769
1.7840,0.1613,39.0900,79,97,193772
1.7889,0.2004,39.0900,79,97,193776
1.7889,0.1613,39.1200,79,97,193779
1.8377,0.1808,38.9300,79,97,193782
1.8182,0.1662,39.0600,79,97,193786
1.7889,0.1662,39.0300,79,97,193789
1.7840,0.1662,39.1200,79,97,193793
1.7840,0.1857,39.1200,79,97,193796
1.8133,0.1711,38.9600,79,97,193800
1.7889,0.1760,39.1900,79,97,193803
1.8133,0.1515,38.9600,79,97,193806
1.7937,0.1662,39.1600,79,97,193810
1.7986,0.1662,39.1200,79,97,193813
1.8084,0.1711,39.0600,79,97,193816
1.7986,0.1662,39.1200,79,97,193820
1.8231,0.1613,39.0300,79,97,193823
1.7840,0.1515,39.1200,79,97,193826
1.7937,0.1662,39.1600,79,97,193830
1.8133,0.1760,39.0000,79,97,193833
1.7986,0.2199,39.0600,79,97,193837
1.8328,0.1760,38.9300,79,97,193841
1.8084,0.1515,39.0000,79,97,193844
1.7889,0.1662,39.1600,79,97,193847
1.8035,0.1711,39.0600,79,97,193850
1.7889,0.1662,39.1200,79,97,193854
1.8280,0.1808,38.8400,79,97,193857
1.7937,0.1711,39.0300,79,97,193860
1.7840,0.1760,39.1200,79,97,193864
1.7791,0.1711,39.0900,79,97,193867
1.7742,0.1662,39.0600,79,97,193870
1.8280,0.1955,38.8700,79,97,193874
1.7889,0.1711,38.9300,79,97,193878
1.7889,0.1613,39.0300,79,97,193881
1.7840,0.1711,39.1200,79,97,193885
1.7791,0.1613,39.1900,79,97,193888
1.8084,0.1808,39.0000,79,97,193891
1.7889,0.1711,39.0600,79,97,193894
1.7986,0.1662,38.9600,79,97,193898
1.7840,0.1662,39.1200,79,97,193901
1.7840,0.1857,38.4300,79,97,193904
1.8133,0.1760,38.9600,79,97,193908
1.7840,0.1662,39.1600,79,97,193911
1.8084,0.1711,39.0000,79,97,193914
1.7840,0.1613,39.0900,79,97,193918
1.7840,0.1662,39.1200,79,97,193922
1.8035,0.2102,39.0000,79,97,193925
1.7742,0.1711,39.0900,79,97,193928
1.7986,0.1662,38.9600,79,97,193932
1.7791,0.1662,39.0600,79,97,193935
1.7889,0.1662,39.1200,79,97,193938
1.7937,0.1711,39.0600,79,97,193942
1.7742,0.1662,39.0900,79,97,193945
1.8133,0.1711,38.8400,79,97,193948
1.7791,0.1662,39.0900,79,97,193952
1.7840,0.1662,39.1200,79,97,193955
1.8035,0.1711,39.0600,79,97,193958
1.8035,0.1662,39.1200,79,97,193963
1.8622,0.1808,38.8700,79,97,193966
1.8426,0.1760,39.0300,79,97,193969
1.8426,0.1613,39.0900,79,97,193973
1.8524,0.1760,39.0900,79,97,193976
1.8524,0.1662,39.0900,79,97,193979
1.9159,0.1857,39.1900,78,97,193982
1.9208,0.1711,38.9600,78,97,193987
1.9159,0.1662,39.0900,78,97,193990
1.9306,0.1760,39.0000,78,97,193994
1.9062,0.1662,39.1200,78,97,193997
1.9062,0.1662,39.1200,78,97,194000
1.9062,0.1711,39.0600,78,97,194004
1.8768,0.1662,39.0900,78,97,194008
1.9062,0.1613,38.9300,78,97,194011
1.8182,0.1662,39.0900,78,97,194015
1.7986,0.1613,39.1900,78,97,194018
1.8035,0.1760,39.0300,78,97,194021
1.7742,0.1662,39.0900,78,97,194025
1.8084,0.1808,38.9000,78,97,194028
1.7693,0.1711,39.0300,78,97,194031
1.7400,0.1662,39.1600,78,97,194034
1.7351,0.1711,39.0600,78,97,194038
1.7155,0.1662,39.0000,78,97,194041
1.7498,0.1857,38.8400,78,97,194044
1.7107,0.1711,39.3800,78,97,194049
1.7009,0.1613,39.0900,78,97,194052
1.6911,0.1711,39.0900,78,97,194055
1.6813,0.1662,39.1900,78,97,194059
1.7498,0.1808,38.9300,78,97,194062
1.7009,0.1662,39.1200,78,97,194065
1.7058,0.1662,39.0600,78,97,194068
1.7009,0.1662,39.0900,78,97,194072
1.6960,0.1662,39.1200,78,97,194075
1.7253,0.2102,39.0000,78,97,194078
1.6960,0.1711,39.0900,78,97,194082
1.7058,0.1711,39.0000,78,97,194085
1.6813,0.1613,39.1200,78,97,194088
1.6960,0.1662,39.0900,78,97,194093
1.7595,0.1760,38.9600,78,97,194096
1.7889,0.1662,39.0900,78,97,194099
1.9110,0.1760,39.0300,78,97,194103
2.0088,0.1662,39.0600,78,97,194106
2.1457,0.1613,39.0900,78,97,194109
2.3363,0.1760,39.0600,78,97,194112
2.4829,0.1955,39.1200,78,97,194116
2.6344,0.1662,38.9300,78,97,194119
2.5318,0.1906,39.0300,78,97,194122
2.3803,0.1662,39.0900,78,97,194126
2.1896,0.1711,39.0900,78,97,194129
1.9746,0.1662,39.0900,78,97,194132
1.8573,0.1760,38.9000,78,97,194137
1.7351,0.1613,39.1200,78,97,194140
1.6960,0.1613,39.1200,78,97,194143
1.6862,0.1711,39.0900,78,97,194146
1.6569,0.1808,39.1200,78,97,194150
1.6960,0.1760,38.8100,78,97,194153
1.6325,0.1711,39.0600,78,97,194156
1.6080,0.1613,39.0900,78,97,194160
1.6031,0.1711,39.0600,78,97,194163
1.5982,0.1662,39.1200,78,97,194166
1.6764,0.2053,38.8100,78,97,194170
1.5982,0.1711,39.0300,78,97,194173
1.6080,0.1662,39.0000,78,97,194177
1.5885,0.1662,39.0900,78,97,194181
1.5934,0.1662,39.1900,78,97,194184
1.6325,0.1760,38.9600,78,97,194187
1.5982,0.1662,39.0900,78,97,194190
1.6276,0.1711,38.9600,78,97,194194
1.6178,0.1662,39.0900,78,97,194197
1.6178,0.1662,39.0900,78,97,194200
1.6422,0.1760,39.0300,78,97,194204
1.6422,0.1662,39.0900,78,97,194207
1.6716,0.1760,39.0300,78,97,194210
1.6520,0.1613,39.0900,78,97,194214
1.6569,0.1515,39.0900,78,97,194217
1.6813,0.1906,38.9600,78,97,194221
1.6667,0.1662,39.0900,78,97,194225
1.6960,0.1711,38.9000,78,97,194228
1.6764,0.1662,39.0000,78,97,194231
1.6667,0.1662,39.0900,78,97,194234
1.6911,0.1857,39.0000,78,97,194238
1.6960,0.1662,39.1600,78,97,194241
1.7253,0.1760,38.8700,78,97,194244
1.7058,0.1711,39.0300,78,97,194248
1.7058,0.1662,39.1200,78,97,194251
1.7058,0.1711,39.1200,78,97,194254
1.7058,0.1662,39.0900,78,97,194258
1.7595,0.1808,38.8400,78,97,194262
1.7302,0.1955,39.0600,78,97,194265
1.7302,0.1662,39.0900,78,97,194268
1.7302,0.1515,39.0900,78,97,194272
1.7253,0.1808,39.0900,78,97,194275
1.7840,0.1808,38.9600,78,97,194278
1.7546,0.1711,39.0900,78,97,194282
1.7595,0.1662,39.0300,78,97,194285
1.7546,0.1613,39.1200,78,97,194288
1.7546,0.1662,39.1600,78,97,194292
1.8182,0.1808,38.9600,78,97,194295
1.7840,0.1711,39.1600,78,97,194298
1.8084,0.1906,38.9600,78,97,194302
1.7889,0.1662,39.1200,78,97,194306
1.7937,0.1662,39.1200,78,97,194309
1.8280,0.1808,39.0000,78,97,194312
1.8084,0.1662,39.0300,78,97,194316
1.8426,0.1662,38.9600,78,97,194319
1.8231,0.1613,39.0600,78,97,194322
1.8377,0.1760,39.1200,78,97,194326
1.8573,0.1711,39.0900,78,97,194329
1.8573,0.1662,39.3200,78,97,194332
1.8964,0.1711,38.8700,78,97,194336
1.8671,0.1857,39.1200,78,97,194339
1.8817,0.1662,39.0900,78,97,194342
1.9062,0.1760,39.0000,78,97,194347
1.8768,0.1613,39.0900,78,97,194350
1.9306,0.1760,38.8700,78,97,194353
1.9110,0.1711,39.0900,78,97,194356
1.9013,0.1711,39.1200,78,97,194360
1.9110,0.1711,39.0900,78,97,194363
1.9062,0.1662,39.1200,78,97,194366
1.9648,0.1906,38.9000,78,97,194370
1.9159,0.1711,39.0000,78,97,194373
1.9013,0.1711,39.0600,78,97,194376
1.8915,0.1711,39.1200,78,97,194380
1.8866,0.1662,39.0900,78,97,194383
1.9257,0.1808,38.9600,78,97,194386
1.8671,0.1711,39.0900,78,97,194390
1.8524,0.1662,38.9600,78,97,194394
1.8182,0.1662,39.1200,78,97,194397
1.7937,0.1760,39.1200,78,97,194400
1.7986,0.1760,39.0600,78,97,194404
1.7595,0.1711,38.5200,78,97,194407
1.7546,0.1808,39.0000,78,97,194410
1.7058,0.1515,39.1200,78,97,194414
1.6813,0.1662,39.0900,78,97,194417
1.6960,0.1760,38.9600,78,97,194420
1.6471,0.1662,39.2800,78,97,194424
1.6471,0.1760,39.0000,78,97,194427
1.6080,0.1662,39.0600,78,97,194430
1.5934,0.1662,39.1200,78,97,194434
1.5982,0.1711,39.0000,78,97,194438
1.5836,0.1662,39.1200,78,97,194441
1.6129,0.1711,38.9000,78,97,194444
1.5934,0.1711,39.0600,78,97,194448
1.5836,0.1662,39.0600,78,97,194451
1.5885,0.1760,39.0900,78,97,194454
1.5738,0.1613,39.1200,78,97,194458
1.6178,0.1760,38.9300,78,97,194461
1.5836,0.1613,39.0600,78,97,194464
1.5836,0.1662,39.1200,78,97,194468
1.5934,0.1711,39.1200,78,97,194471
1.5836,0.1662,39.1600,78,97,194475
1.6373,0.1857,38.8700,78,97,194478
1.6178,0.1760,39.0300,78,97,194482
1.6129,0.1662,39.0300,78,97,194485
1.6080,0.1711,39.1200,78,97,194488
1.6178,0.1662,39.2800,78,97,194492
1.6569,0.1808,38.9300,78,97,194495
1.6227,0.1711,39.0300,78,97,194498
1.6422,0.1711,39.0300,78,97,194502
1.6325,0.1515,39.2200,78,97,194505
1.6373,0.1613,39.1200,78,97,194508
1.6667,0.1808,39.0600,78,97,194512
1.6471,0.1711,39.1200,78,97,194515
1.6764,0.1711,39.0000,78,97,194519
1.6471,0.1613,39.0900,78,97,194523
1.6422,0.1711,39.1200,78,97,194526
1.6569,0.1711,39.1200,78,97,194529
1.6422,0.1613,39.0600,78,97,194532
1.6667,0.1711,38.9000,78,97,194536
1.6422,0.1711,39.0900,78,97,194539
1.6520,0.1613,39.1200,78,97,194542
1.6813,0.1760,39.0900,78,97,194546
1.6667,0.1662,39.1200,78,97,194549
1.7058,0.1760,38.8700,78,97,194552
1.6813,0.1711,39.0600,78,97,194556
1.6667,0.1662,39.1200,78,97,194560
1.6813,0.1760,39.0900,78,97,194563
1.6813,0.1662,39.1200,78,97,194567
1.7253,0.1857,38.8700,78,97,194570
1.6862,0.1711,39.0300,78,97,194573
1.6764,0.1613,39.0900,78,97,194576
1.6813,0.1662,39.0900,78,97,194580
1.6862,0.1662,39.1200,78,97,194583
1.7302,0.1760,38.9300,78,97,194586
1.7155,0.1613,39.0600,78,97,194590
1.6960,0.1515,39.0300,78,97,194593
1.6911,0.1662,39.0600,78,97,194596
1.6813,0.1662,39.1200,78,97,194601
1.6862,0.1662,39.0900,78,97,194605
1.7155,0.1760,38.9000,78,97,194609
1.7107,0.1662,39.1200,78,97,194612
1.7351,0.1711,38.9600,78,97,194615
1.7253,0.1662,39.0600,78,97,194619
1.7155,0.1515,39.1200,78,97,194622
1.7302,0.1711,39.0600,78,97,194625
1.7107,0.1662,39.0900,78,97,194628
1.7546,0.1515,38.8700,78,97,194632
1.7302,0.1613,39.0600,78,97,194635
1.7107,0.1613,39.1200,78,97,194638
1.7107,0.1857,39.0900,78,97,194642
1.7009,0.1662,39.1600,78,97,194646
1.7546,0.1857,38.9300,78,97,194649
1.7155,0.1613,39.0600,78,97,194653
1.7253,0.1613,39.0600,78,97,194656
1.7302,0.1662,39.0600,78,97,194659
1.7204,0.1613,39.1200,78,97,194663
1.7644,0.1808,39.0600,78,97,194666
1.7302,0.1662,39.0900,78,97,194669
1.7351,0.1613,39.0300,78,97,194672
1.7253,0.1662,39.0000,78,97,194676
1.7449,0.1613,39.1600,78,97,194679
1.7644,0.1760,39.0000,78,97,194682
1.7351,0.1613,39.0900,78,97,194686
1.7595,0.1711,38.9600,78,97,194690
1.7302,0.1662,39.1200,78,97,194693
1.7204,0.1662,39.0900,78,97,194697
1.7498,0.1711,39.0000,78,97,194700
1.7253,0.1564,39.0600,78,97,194703
1.7840,0.1613,38.9600,78,97,194707
1.7449,0.1613,39.0600,78,97,194710
1.7644,0.1613,39.0900,78,97,194713
1.7889,0.1760,39.0300,78,97,194716
1.7889,0.1662,39.1200,78,97,194720
1.8280,0.2053,38.9000,78,97,194723
1.7986,0.1515,39.1200,78,97,194726
1.8133,0.1662,38.9600,78,97,194731
1.8719,0.1711,39.0600,78,97,194734
1.8280,0.1662,39.1600,78,97,194737
1.9110,0.1711,38.8400,78,97,194741
1.8524,0.1711,39.0300,78,97,194744
1.8475,0.1662,39.1200,78,97,194747
1.8671,0.1613,39.0600,78,97,194751
1.8768,0.1613,39.1200,78,97,194754
1.9404,0.1857,39.3500,78,97,194757
1.8964,0.1711,39.0600,78,97,194760
1.8817,0.1613,39.0300,78,97,194764
1.8573,0.1808,39.0900,78,97,194767
1.8377,0.1662,39.1200,78,97,194770
1.8524,0.1515,38.9600,78,97,194775
1.8035,0.1760,39.1200,78,97,194778
1.7937,0.1662,38.9600,78,97,194781
1.7693,0.1662,39.1200,78,97,194785
1.7644,0.1613,39.1200,78,97,194788
1.7693,0.1760,39.1200,78,97,194791
1.7449,0.1662,39.1600,78,97,194795
1.7644,0.1711,38.2700,78,97,194798
1.7253,0.1662,39.1200,78,97,194801
1.7155,0.1613,39.3800,78,97,194804
1.7253,0.1711,39.0300,78,97,194808
1.7058,0.1662,39.0900,78,97,194811
1.7351,0.1760,38.9000,78,97,194814
1.7204,0.1662,39.0000,78,97,194819
1.7058,0.1613,39.1900,78,97,194822
1.7204,0.1760,39.0600,78,97,194825
1.7155,0.1613,39.1900,78,97,194829
1.7546,0.1662,38.9000,78,97,194832
1.7351,0.2004,39.0600,78,97,194835
1.7546,0.1564,39.0900,78,97,194839
1.7253,0.1515,39.0900,78,97,194842
1.7058,0.1613,39.2500,78,97,194845
1.7498,0.1760,38.8100,78,97,194848
1.7204,0.1662,39.0600,78,97,194852
1.7498,0.1613,39.0600,78,97,194855
1.8133,0.1662,39.0900,78,97,194859
1.8866,0.1906,39.1200,78,97,194863
2.0626,0.1808,38.9300,78,97,194866
2.1603,0.1711,39.0600,78,97,194869
2.3314,0.1662,39.0000,78,97,194873
2.5269,0.1662,39.1200,78,97,194876
2.6540,0.1662,39.3200,78,97,194879
2.6784,0.1760,38.9600,78,97,194882
2.4927,0.1662,39.0000,78,97,194886
2.3216,0.1613,39.0000,78,97,194889
2.0919,0.1662,39.1200,78,97,194892
1.9159,0.1613,39.1600,78,97,194896
1.8182,0.1760,39.0000,78,97,194899
1.7253,0.1662,39.0900,78,97,194903
1.7155,0.1662,38.9600,78,97,194907
1.7009,0.1564,39.0900,78,97,194910
1.6716,0.1515,39.1200,78,97,194913
1.6667,0.1760,39.0600,78,97,194917
1.6471,0.1662,39.1200,78,97,194920
1.6667,0.1662,38.9000,78,97,194923
1.6373,0.1662,39.1200,78,97,194926
1.6373,0.1613,39.0900,78,97,194930
1.6471,0.1760,39.0900,78,97,194933
1.6373,0.1662,39.1900,78,97,194936
1.6862,0.1857,38.8400,78,97,194940
1.6618,0.1662,39.0300,78,97,194944
1.6569,0.1613,39.1900,78,97,194947
1.6716,0.1711,39.1200,78,97,194951
1.6764,0.1662,39.0900,78,97,194954
1.7351,0.1857,38.9000,78,97,194957
1.7351,0.1760,39.0600,78,97,194961
1.6960,0.1613,39.0600,78,97,194964
1.6960,0.1662,39.2200,78,97,194967
1.7009,0.1857,39.0900,78,97,194970
1.7644,0.1760,38.9300,78,97,194974
1.7204,0.1662,39.2800,78,97,194977
1.7351,0.1613,39.0000,78,97,194980
1.7253,0.1662,39.0900,78,97,194984
1.7351,0.1662,39.1200,78,97,194988
1.7595,0.1515,39.0600,78,97,194991
1.7546,0.1662,39.1900,78,97,194995
1.7791,0.1760,39.0000,78,97,194998
1.7644,0.1662,39.1900,78,97,195001
1.7644,0.1564,39.1200,78,97,195005
1.7986,0.1515,39.0300,78,97,195008
1.7840,0.1711,39.0900,78,97,195011
1.8133,0.1662,38.9300,78,97,195015
1.7937,0.1662,39.0300,78,97,195018
1.7889,0.1613,39.1900,78,97,195021
1.8084,0.1711,38.9000,78,97,195024
1.7986,0.1662,39.1900,78,97,195028
1.8426,0.1711,38.8700,78,97,195032
1.8328,0.1808,39.0600,78,97,195035
1.8280,0.1613,39.1200,78,97,195039
1.8280,0.1662,39.0600,78,97,195042
1.8231,0.1662,39.0900,78,97,195045
1.8817,0.1760,38.7400,78,97,195049
1.8426,0.1662,39.0600,78,97,195052
1.8475,0.1564,39.0600,78,97,195055
1.8573,0.1515,39.0900,78,97,195058
1.8573,0.1906,39.1200,78,97,195062
1.9159,0.1857,38.9300,78,97,195065
1.8964,0.1613,39.0600,78,97,195068
1.9062,0.1662,39.0000,78,97,195073
1.9159,0.1662,39.0900,78,97,195076
1.9208,0.1613,39.1600,78,97,195079
1.9648,0.1711,38.9300,78,97,195083
1.9355,0.1662,39.1600,78,97,195086
1.9648,0.1662,38.9600,78,97,195089
1.9501,0.1662,39.2500,78,97,195093
1.9599,0.1662,39.1900,78,97,195096
1.9990,0.1808,39.1200,78,97,195099
1.9697,0.1662,39.0600,78,97,195102
2.0430,0.1613,39.0300,78,97,195106
1.9844,0.1564,39.0600,78,97,195109
1.9892,0.1613,39.0300,78,97,195112
2.0235,0.1613,39.0600,78,97,195117
1.9990,0.1662,39.1200,78,97,195120
2.0235,0.1662,38.9000,78,97,195123
1.9990,0.1613,39.1200,78,97,195127
1.9990,0.1613,39.1900,78,97,195130
2.0577,0.1760,39.0300,78,97,195133
2.0039,0.1613,39.1900,78,97,195137
2.0381,0.1711,38.8700,78,97,195140
2.0039,0.1711,39.0600,78,97,195143
1.9697,0.1515,39.1200,78,97,195146
1.9648,0.1662,39.0900,78,97,195150
1.9453,0.1515,39.1200,78,97,195153
1.9795,0.1955,38.8400,78,97,195156
1.9159,0.1662,39.0600,78,97,195161
1.8768,0.1613,39.0300,78,97,195164
1.8622,0.1662,39.0000,78,97,195167
1.8328,0.1613,39.1200,78,97,195171
1.8524,0.1808,38.9300,78,97,195174
1.7937,0.1515,39.0900,78,97,195177
1.7742,0.1613,39.0000,78,97,195181
1.7449,0.1613,39.1200,78,97,195184
1.7253,0.1613,39.0600,78,97,195187
1.7449,0.1760,39.0600,78,97,195190
1.7155,0.1662,39.0900,78,97,195194
1.7302,0.1711,39.0000,78,97,195197
1.7009,0.1515,39.1900,78,97,195201
1.6911,0.1711,39.1200,78,97,195205
1.7155,0.1711,38.9600,78,97,195208
1.7107,0.1711,39.0300,78,97,195213
1.7107,0.1613,39.1200,78,97,195216
1.7546,0.1711,38.9600,78,97,195219
1.7351,0.1662,39.0900,78,97,195223
1.7253,0.1613,39.1600,78,97,195226
1.7400,0.1613,39.0900,78,97,195229
1.7253,0.1613,39.1200,78,97,195233
1.7889,0.1808,38.9000,78,97,195236
1.7449,0.1662,39.0600,78,97,195239
1.7546,0.1515,39.0000,78,97,195244
1.7595,0.1662,39.0300,78,97,195247
1.7546,0.1613,39.1200,78,97,195250
1.7889,0.1760,38.8400,78,97,195253
1.7693,0.1662,39.0600,78,97,195257
1.7889,0.1662,39.0300,78,97,195260
1.7742,0.1613,39.0900,78,97,195263
1.7742,0.1662,39.1200,78,97,195267
1.8133,0.1711,39.0600,78,97,195270
1.7840,0.1613,39.1200,78,97,195273
1.8084,0.1515,39.0000,78,97,195277
1.7840,0.1613,39.0900,78,97,195280
1.7840,0.1662,39.0900,78,97,195283
1.8084,0.1515,39.0300,78,97,195288
1.7840,0.1613,39.0600,78,97,195291
1.8084,0.1613,38.9600,78,97,195294
1.7840,0.1613,39.0300,78,97,195297
1.7986,0.1613,39.1600,78,97,195301
1.8377,0.1662,39.0900,78,97,195304
1.7986,0.1613,39.0900,78,97,195307
1.8328,0.1662,38.8400,78,97,195311
1.7986,0.1613,39.1200,78,97,195314
1.8035,0.1564,39.1200,78,97,195317
1.8231,0.1711,39.0900,78,97,195321
1.8035,0.1662,39.1600,78,97,195324
1.8524,0.1760,38.8400,78,97,195328
1.8182,0.1662,39.0300,78,97,195331
1.7986,0.1857,39.0600,78,97,195335
1.8084,0.1662,39.1200,78,97,195338
1.8084,0.1662,39.0900,78,97,195341
1.8622,0.1711,38.9300,78,97,195345
1.8231,0.1808,39.0300,78,97,195348
1.8133,0.1613,39.0600,78,97,195351
1.8084,0.1515,39.1200,78,97,195355
1.8133,0.1613,39.0900,78,97,195358
1.8866,0.1711,38.9600,78,97,195361
1.8231,0.1662,39.0900,78,97,195365
1.8377,0.1662,38.9600,78,97,195368
1.8182,0.1662,39.0900,78,97,195372
1.8231,0.1808,39.1200,78,97,195375
1.8377,0.1662,39.0600,78,97,195379
1.8280,0.1515,39.0900,78,97,195382
1.8475,0.1711,39.0000,78,97,195385
1.8182,0.1613,39.1600,78,97,195389
1.8133,0.1613,38.9600,78,97,195392
1.8377,0.1711,39.0000,78,97,195395
1.8231,0.1613,39.0900,78,97,195399
1.8524,0.1662,38.9000,78,97,195402
1.8280,0.1662,39.0300,78,97,195405
1.8182,0.1613,39.1200,78,97,195409
1.8280,0.1760,39.0300,78,97,195412
1.8133,0.1515,39.0900,78,97,195416
1.8622,0.1711,38.8700,78,97,195419
1.8475,0.1662,39.0300,78,97,195423
1.8280,0.1613,39.2800,78,97,195426
1.8280,0.1662,39.0900,78,97,195429
1.8133,0.1613,39.0900,78,97,195433
1.8719,0.1760,38.8400,78,97,195436
1.8524,0.1613,39.0600,78,97,195439
1.8377,0.1564,39.0900,78,97,195443
1.8328,0.1662,38.3600,78,97,195446
1.8328,0.1662,39.0900,78,97,195449
1.8768,0.1808,39.0300,78,97,195452
1.8426,0.1711,39.0300,78,97,195457
1.8426,0.1613,39.0000,78,97,195460
1.8377,0.1662,39.0300,78,97,195463
1.8328,0.1711,39.1200,78,97,195467
1.8671,0.1515,38.9600,78,97,195470
1.8719,0.1613,39.1200,78,97,195473
1.8768,0.1515,38.9600,78,97,195477
1.8719,0.1760,39.1200,78,97,195480
1.8866,0.1515,39.1600,78,97,195483
1.9257,0.1711,39.0000,78,97,195487
1.9062,0.1613,39.0900,78,97,195490
1.9404,0.1662,38.9000,78,97,195493
1.9208,0.1564,39.0300,78,97,195496
1.9355,0.1613,39.0900,78,97,195501
1.9453,0.1662,39.0900,78,97,195504
1.9404,0.1662,39.0900,78,97,195507
1.9746,0.1613,38.9000,78,97,195511
1.9501,0.1662,39.2200,78,97,195514
1.9599,0.1613,39.1200,78,97,195517
1.9990,0.1711,39.0900,78,97,195521
1.9892,0.1662,39.1200,78,97,195524
2.0186,0.1515,38.9600,78,97,195527
1.9795,0.1857,39.0600,78,97,195531
1.9550,0.1613,39.0900,78,97,195534
1.9355,0.1662,39.0600,78,97,195537
1.9110,0.1711,39.0900,78,97,195540
1.9453,0.1808,38.8400,78,97,195545
1.8866,0.1662,39.0300,78,97,195548
1.8719,0.1564,39.0900,78,97,195551
1.8573,0.1662,39.1200,78,97,195555
1.8475,0.1613,39.0900,78,97,195558
1.8866,0.1808,38.9600,78,97,195561
1.8328,0.1662,39.0900,78,97,195565
1.8280,0.1808,39.0300,78,97,195568
1.7986,0.1662,39.0900,78,97,195571
1.7937,0.1613,39.0900,78,97,195575
1.8084,0.1808,39.0300,78,97,195578
1.7791,0.1613,39.1200,78,97,195581
1.8035,0.1662,38.9300,78,97,195585
1.7791,0.1613,39.0900,78,97,195589
1.7791,0.1613,39.1900,78,97,195592
1.8133,0.1760,39.0000,78,97,195595
1.7937,0.1662,39.0300,78,97,195599
1.8182,0.1760,38.9300,78,97,195602
1.7986,0.1613,39.0600,78,97,195605
1.7937,0.1613,39.0600,78,97,195609
1.8035,0.1711,39.0000,78,97,195612
1.7791,0.1613,39.0900,78,97,195615
1.8133,0.1662,38.9300,78,97,195618
1.8475,0.1613,39.0000,78,97,195622
1.8671,0.1515,39.1200,78,97,195625
1.9648,0.1711,39.1200,78,97,195629
2.0723,0.1662,39.1200,78,97,195633
2.2630,0.1760,38.3000,78,97,195636
2.3803,0.1662,39.0600,78,97,195639
2.5660,0.1613,39.1200,78,97,195643
2.6979,0.1662,39.0600,78,97,195646
2.6637,0.1564,39.1200,78,97,195649
2.5855,0.1857,38.9600,78,97,195653
2.3363,0.1662,39.0300,78,97,195656
2.1310,0.1613,39.0600,78,97,195659
1.9697,0.1662,39.0600,78,97,195662
1.8719,0.1662,39.0900,78,97,195666
1.8622,0.1760,38.9000,78,97,195670
1.7937,0.1711,39.1200,78,97,195673
1.7889,0.1613,39.0000,78,97,195677
1.7595,0.1662,39.1900,78,97,195680
1.7400,0.1711,39.1900,78,97,195683
1.7546,0.1711,38.9600,78,97,195687
1.7155,0.1662,39.0900,78,97,195690
1.7400,0.1711,39.0000,78,97,195693
1.7107,0.1515,39.1200,78,97,195697
1.7155,0.1857,39.0900,78,97,195700
1.7302,0.1515,39.0600,78,97,195703
1.7155,0.1662,39.1200,78,97,195706
1.7400,0.1955,38.9300,78,97,195710
1.7204,0.1662,39.1900,78,97,195714
1.7302,0.1857,39.1600,78,97,195717
1.7595,0.1711,39.0600,78,97,195721
1.7449,0.1955,39.1200,78,97,195724
1.7791,0.1760,38.9300,78,97,195727
1.7546,0.1711,38.9000,78,97,195731
1.7546,0.1613,39.1600,78,97,195734
1.7742,0.1711,39.1200,78,97,195737
1.7693,0.1613,39.1900,78,97,195741
1.8280,0.1760,38.8700,78,97,195744
1.7889,0.1613,39.0600,78,97,195747
1.7889,0.1564,39.0900,78,97,195750
1.7937,0.1662,39.1200,78,97,195755
1.7937,0.1662,39.0900,78,97,195758
1.8573,0.1857,38.9000,78,97,195761
1.8182,0.1662,39.1600,78,97,195765
1.8524,0.1662,39.0600,78,97,195768
1.8231,0.1662,39.1200,78,97,195771
1.8182,0.1613,39.1200,78,97,195775
1.8622,0.1760,39.1600,78,97,195778
1.8719,0.1760,39.0900,78,97,195781
1.8622,0.1662,39.0000,78,97,195785
1.8524,0.1906,39.0900,78,97,195788
1.8622,0.1662,39.0900,78,97,195791
1.8915,0.1808,38.9600,78,97,195794
1.8671,0.1662,39.1200,78,97,195799
1.9013,0.1662,39.0000,78,97,195802
1.8768,0.1613,39.0000,78,97,195805
1.8768,0.1662,39.1200,78,97,195809
1.9062,0.1760,39.0300,78,97,195812
1.9159,0.1662,39.0900,78,97,195815
1.9355,0.1662,38.9000,78,97,195819
1.9844,0.1760,38.8400,78,97,195823
1.9453,0.1662,39.0600,78,97,195827
1.9550,0.1564,39.1200,78,97,195830
1.9648,0.1662,39.0900,78,97,195833
1.9697,0.1613,39.1200,78,97,195837
2.0283,0.1808,38.9300,78,97,195841
1.9990,0.2053,39.1200,78,97,195844
2.0039,0.1613,39.0300,78,97,195847
2.0039,0.1662,39.3500,78,97,195851
2.0088,0.1711,39.1200,78,97,195854
2.0528,0.1711,38.9000,78,97,195857
2.0283,0.1662,39.1900,78,97,195861
2.0528,0.1760,39.0000,78,97,195864
2.0430,0.1662,39.0900,78,97,195867
2.0430,0.1613,39.0900,78,97,195871
2.0723,0.1760,38.9600,78,97,195874
2.0430,0.1564,39.1200,78,97,195877
2.0723,0.1808,38.9600,78,97,195880
2.0528,0.1662,39.0900,78,97,195885
2.0528,0.1613,39.1600,78,97,195888
2.0626,0.1613,39.0600,78,97,195891
2.0479,0.1662,39.0600,78,97,195895
2.0577,0.1515,38.9600,78,97,195898
2.0186,0.1613,39.1200,78,97,195901
2.0088,0.1613,39.1200,78,97,195905
2.0186,0.1711,39.0000,78,97,195908
1.9746,0.1613,39.1200,78,97,195911
1.9844,0.1711,38.8400,78,97,195914
1.9404,0.1662,39.0000,78,97,195918
1.8866,0.1613,39.1200,78,97,195921
1.8719,0.1613,39.0900,78,97,195924
1.8426,0.1613,39.1200,78,97,195929
1.8622,0.1760,38.8400,78,97,195932
1.8035,0.1662,39.0300,78,97,195935
1.7742,0.1613,39.0900,78,97,195939
1.7644,0.1613,39.1200,78,97,195942
1.7449,0.1515,39.1200,78,97,195945
1.7840,0.1857,38.9300,78,97,195949
1.7302,0.1662,39.0900,78,97,195952
1.7204,0.1613,39.0900,78,97,195955
1.7058,0.1711,39.1200,78,97,195958
1.7058,0.1613,39.1200,78,97,195962
1.7351,0.2053,39.0600,78,97,195965
1.7204,0.1662,39.0900,78,97,195969
1.7302,0.1515,38.9600,78,97,195973
1.7107,0.1613,39.0900,78,97,195976
1.7204,0.1613,39.0900,78,97,195979
1.7498,0.1760,38.9300,78,97,195983
1.7302,0.1613,39.0900,78,97,195986
1.7644,0.1711,39.0000,78,97,195989
1.7449,0.1564,39.0300,78,97,195993
1.7449,0.1662,39.1200,78,97,195996
1.7644,0.1955,38.9600,78,97,195999
1.7449,0.1613,39.1200,78,97,196002
1.7693,0.1662,38.9000,78,97,196006
1.7595,0.2004,39.0000,78,97,196009
1.7546,0.1662,39.1200,78,97,196013
1.7644,0.1711,39.0600,78,97,196017
1.7595,0.1613,39.2200,78,97,196020
1.8035,0.1711,38.8700,78,97,196023
1.7742,0.1662,39.0600,78,97,196027
1.8084,0.1662,39.1200,78,97,196030
1.7986,0.1711,39.0600,78,97,196033
1.7889,0.1711,39.0900,78,97,196037
1.8377,0.1808,38.8400,78,97,196040
1.8133,0.1711,39.0600,78,97,196043
1.8133,0.1662,39.0900,78,97,196046
1.8084,0.1662,39.1900,78,97,196050
1.8035,0.1662,39.1200,78,97,196054
1.8524,0.1760,38.9000,78,97,196057
1.8182,0.1906,39.0900,78,97,196061
1.8231,0.1857,39.0000,78,97,196064
1.8182,0.1662,39.1200,78,97,196067
1.8231,0.1613,39.0900,78,97,196071
1.8573,0.1760,38.9600,78,97,196074
1.8231,0.1662,39.0900,78,97,196077
1.8377,0.1662,38.9600,78,97,196081
1.8133,0.1515,39.1200,78,97,196084
1.8377,0.1662,39.1200,78,97,196087
1.8231,0.1662,38.9600,78,97,196090
1.8084,0.1662,39.0900,78,97,196094
1.8377,0.1613,39.0000,78,97,196098
1.8035,0.1662,39.0900,78,97,196101
1.8084,0.1711,39.1200,78,97,196105
1.8377,0.1711,39.0000,78,97,196108
1.8231,0.1711,39.0600,78,97,196111
1.8866,0.1711,38.9300,78,97,196115
1.8328,0.1662,38.9300,78,97,196118
1.8182,0.1564,39.1200,78,97,196121
1.8328,0.1808,39.0600,78,97,196125
1.8280,0.1662,39.1900,78,97,196128
1.8622,0.1760,38.8400,78,97,196131
1.8328,0.1711,39.0600,78,97,196134
1.8182,0.1613,39.1200,78,97,196139
1.8231,0.1760,39.0900,78,97,196142
1.8231,0.1662,39.1200,78,97,196145
1.8866,0.1857,38.9000,78,97,196149
1.8377,0.1613,39.0900,78,97,196152
1.8377,0.1613,39.0300,78,97,196155
1.8280,0.1711,39.1200,78,97,196159
1.8231,0.1662,39.1200,78,97,196162
1.8524,0.1760,39.0000,78,97,196165
1.8377,0.1662,39.0900,78,97,196169
1.8524,0.1515,39.0000,78,97,196172
1.8280,0.1662,39.1900,78,97,196175
1.8328,0.1515,39.1200,78,97,196178
1.8622,0.1808,38.9600,78,97,196183
1.8377,0.1515,39.1200,78,97,196186
1.8671,0.1711,39.0000,78,97,196189
1.8377,0.1613,39.0600,78,97,196193
1.8328,0.1564,39.1900,78,97,196196
1.8622,0.1711,39.0000,78,97,196199
1.8377,0.1662,39.1200,78,97,196203
1.8719,0.1857,38.9000,78,97,196206
1.8524,0.1662,39.1200,78,97,196209
1.8524,0.1662,39.1200,78,97,196213
1.8622,0.1711,39.0600,78,97,196216
1.8475,0.1662,39.1200,78,97,196219
1.9013,0.1711,38.8700,78,97,196224
1.8524,0.1662,39.0900,78,97,196227
1.8573,0.1613,39.1600,78,97,196230
1.8671,0.1711,39.0600,78,97,196233
1.8573,0.1662,39.1200,78,97,196237
1.9110,0.2053,38.8700,78,97,196240
1.8768,0.1711,39.0300,78,97,196243
1.8866,0.1515,39.0900,78,97,196247
1.9208,0.1662,39.1200,78,97,196250
1.9013,0.1662,39.1200,78,97,196253
1.9599,0.1808,38.9300,78,97,196257
1.9404,0.1711,39.0900,78,97,196260
1.9550,0.1662,39.0000,78,97,196263
1.9501,0.1662,39.1200,78,97,196268
1.9550,0.1662,39.1200,78,97,196271
1.9795,0.1711,39.0000,78,97,196274
1.9501,0.1760,39.1200,78,97,196277
1.9795,0.1613,39.0000,78,97,196281
1.9648,0.1662,39.1200,78,97,196284
1.9746,0.1662,39.1200,78,97,196287
1.9941,0.1662,39.1200,78,97,196291
1.9844,0.1662,39.0900,78,97,196294
2.0088,0.1613,38.9600,78,97,196297
1.9697,0.1662,39.1200,78,97,196301
1.9501,0.1662,39.1200,78,97,196304
1.9550,0.1711,38.9600,78,97,196307
1.9110,0.1662,39.1200,78,97,196312
1.9159,0.1711,38.9600,78,97,196315
1.8768,0.1857,39.0300,78,97,196318
1.8524,0.1662,39.0900,78,97,196321
1.8573,0.1662,39.1200,78,97,196325
1.8475,0.1613,39.1200,78,97,196328
1.8817,0.1760,38.8100,78,97,196331
1.8328,0.1662,39.0600,78,97,196335
1.8084,0.1613,39.0900,78,97,196338
1.8035,0.1711,39.0600,78,97,196341
1.7937,0.1711,39.1900,78,97,196345
1.8426,0.1857,38.9300,78,97,196348
1.8328,0.1613,39.0900,78,97,196352
1.7937,0.1613,39.0600,78,97,196356
1.7840,0.1662,39.1200,78,97,196359
1.7840,0.1613,39.1200,78,97,196362
1.8231,0.1760,39.0300,78,97,196365
1.8035,0.1613,39.1900,78,97,196369
1.8133,0.1662,39.0000,78,97,196372
1.7986,0.1662,39.1900,78,97,196375
1.7937,0.1662,39.0900,78,97,196379
1.8133,0.1808,38.9000,78,97,196382
1.8133,0.1662,39.1200,78,97,196385
1.8280,0.1711,39.0600,78,97,196389
1.8328,0.1662,39.1200,78,97,196392
1.9062,0.1613,39.1200,78,97,196396
2.0235,0.1711,39.0600,78,97,196400
2.1261,0.1662,39.1200,78,97,196403
2.3069,0.1662,38.9000,78,97,196406
2.4682,0.1613,39.0000,78,97,196409
2.6246,0.1613,39.1200,78,97,196413
2.7077,0.1711,39.0600,78,97,196416
2.6197,0.1613,39.1200,78,97,196419
2.5073,0.1711,38.8700,78,97,196423
2.2483,0.1564,39.0900,78,97,196426
2.0626,0.1662,39.1600,78,97,196429
1.9355,0.1662,39.1200,78,97,196433
1.7595,0.1711,39.1600,78,97,196438
1.7449,0.1613,39.1200,78,97,196442
1.7644,0.1760,38.9300,78,97,196445
1.7302,0.1662,39.0900,78,97,196448
1.7449,0.1662,39.0900,78,97,196452
1.7204,0.1711,39.0900,78,97,196455
1.7204,0.1613,39.0900,78,97,196458
1.7546,0.1808,39.1900,78,97,196461
1.7302,0.1662,39.1200,78,97,196465
1.7595,0.1711,39.0000,78,97,196468
1.7351,0.1613,39.1200,78,97,196471
1.7302,0.1662,39.1200,78,97,196475
1.7595,0.1662,39.0900,78,97,196478
1.7546,0.1564,39.1200,78,97,196482
1.7889,0.1662,38.9000,78,97,196486
1.7644,0.1662,39.1200,78,97,196489
1.7986,0.1613,39.0900,78,97,196492
1.7986,0.1711,39.0600,78,97,196496
1.8035,0.1662,39.1900,78,97,196499
1.8377,0.1760,38.8700,78,97,196502
1.8084,0.1711,39.0300,78,97,196505
1.7986,0.1662,39.1200,78,97,196509
1.8133,0.1711,39.3500,78,97,196512
1.8133,0.1662,39.1200,78,97,196515
1.8768,0.1857,38.8700,78,97,196519
1.8817,0.1711,39.0600,78,97,196523
1.8426,0.1515,39.0600,78,97,196526
1.8524,0.1662,39.2800,78,97,196530
1.8622,0.1613,39.1200,78,97,196533
1.9062,0.1760,39.0000,78,97,196536
1.8671,0.1662,39.0900,78,97,196540
1.8915,0.1613,39.0000,78,97,196543
1.8671,0.1662,39.1200,78,97,196546
1.8671,0.1662,39.1200,78,97,196549
1.9013,0.1760,39.1200,78,97,196553
1.8915,0.1613,39.1200,78,97,196556
1.9257,0.1711,38.9600,78,97,196559
1.9013,0.1613,39.0900,78,97,196563
1.9062,0.1515,39.1200,78,97,196567
1.9404,0.1808,38.9600,78,97,196570
1.9208,0.1662,39.1200,78,97,196574
1.9501,0.1662,38.9600,78,97,196577
1.9355,0.1711,39.0600,78,97,196580
1.9306,0.1515,39.1200,78,97,196584
1.9599,0.1711,39.0300,78,97,196587
1.9550,0.1515,39.1200,78,97,196590
2.0039,0.1711,38.8700,78,97,196594
1.9941,0.1711,39.0300,78,97,196597
1.9892,0.1613,39.1200,78,97,196600
1.9990,0.1662,39.0900,78,97,196603
1.9941,0.1662,39.1200,78,97,196608
2.0528,0.1760,38.8400,78,97,196611
2.0137,0.1613,39.0600,78,97,196614
2.0283,0.1613,39.0900,78,97,196618
2.0381,0.1662,39.2200,78,97,196621
2.0332,0.1662,39.1200,78,97,196624
2.1065,0.1857,38.8700,78,97,196628
2.0674,0.1662,39.0300,78,97,196631
2.0772,0.1613,39.0300,78,97,196634
2.0674,0.1662,39.0300,78,97,196637
2.0723,0.1613,39.1200,78,97,196641
2.1114,0.1760,38.9300,78,97,196644
2.0821,0.1711,39.0900,78,97,196647
2.0968,0.1662,39.0000,78,97,196652
2.0821,0.1613,39.1200,78,97,196655
2.0772,0.1662,39.1200,78,97,196658
2.1114,0.1808,38.8100,78,97,196662
2.0821,0.1662,39.0900,78,97,196665
2.0870,0.1711,39.0000,78,97,196668
2.0479,0.1662,39.1900,78,97,196671
2.0332,0.1662,39.1200,78,97,196675
2.0283,0.1711,39.0600,78,97,196678
1.9941,0.1662,39.1200,78,97,196681
1.9892,0.1760,38.9600,78,97,196685
1.9306,0.1662,39.0900,78,97,196688
1.9062,0.1613,39.1200,78,97,196691
1.9062,0.1515,38.9600,78,97,196696
1.8573,0.1760,39.1200,78,97,196699
1.8671,0.1515,38.9000,78,97,196702
1.8231,0.1711,38.6500,78,97,196706
1.7889,0.1613,39.1200,78,97,196709
1.7889,0.1857,39.0300,78,97,196712
1.7644,0.1613,39.1900,78,97,196715
1.8084,0.1760,38.8400,78,97,196719
1.7986,0.1662,39.0600,78,97,196722
1.7498,0.1613,39.0900,78,97,196725
1.7498,0.1662,39.2200,78,97,196729
1.7400,0.1662,39.1200,78,97,196732
1.7986,0.1857,38.9300,78,97,196736
1.7546,0.1613,39.0600,78,97,196740
1.7546,0.1613,39.0300,78,97,196743
1.7498,0.1662,39.0300,78,97,196746
1.7498,0.1662,39.1200,78,97,196750
1.7840,0.1906,39.0300,78,97,196753
1.7693,0.1711,39.0900,78,97,196756
1.7840,0.1515,39.0000,78,97,196759
1.7644,0.1613,39.1200,78,97,196763
1.7644,0.1613,39.1200,78,97,196766
1.7986,0.1711,38.9600,78,97,196769
1.7840,0.1711,38.8700,78,97,196773
1.8182,0.1760,38.9600,78,97,196776
1.7937,0.1613,39.0600,78,97,196780
1.7937,0.1613,39.2500,78,97,196784
1.8133,0.1711,39.0000,78,97,196787
1.7986,0.1662,39.0900,78,97,196790
1.8328,0.1662,38.9000,78,97,196794
1.8231,0.1662,39.0000,78,97,196797
1.8182,0.1613,39.0900,78,97,196800
1.8622,0.1711,39.0900,78,97,196803
1.8182,0.1662,39.1200,78,97,196807
1.8622,0.1760,38.8700,78,97,196810
1.8231,0.1662,39.0900,78,97,196813
1.8328,0.1613,39.2800,78,97,196817
1.8475,0.1711,39.0900,78,97,196820
1.8377,0.1711,39.0900,78,97,196824
1.8866,0.1808,38.8700,78,97,196828
1.8524,0.1515,39.0300,78,97,196831
1.8475,0.1613,39.0000,78,97,196834
1.8524,0.1662,39.0900,78,97,196838
1.8475,0.1613,39.1200,78,97,196841
1.8915,0.1760,38.9000,78,97,196844
1.8622,0.1711,39.2200,78,97,196847
1.8719,0.1613,39.0600,78,97,196851
1.8573,0.1662,39.0900,78,97,196854
1.8622,0.1613,39.2200,78,97,196857
1.8915,0.1711,38.9600,78,97,196861
1.8524,0.1662,39.1900,78,97,196865
1.8719,0.1662,38.9600,78,97,196868
1.8475,0.1613,39.2200,78,97,196872
1.8524,0.1662,39.1200,78,97,196875
1.8671,0.1662,39.0600,78,97,196878
1.8573,0.1760,39.0900,78,97,196882
1.8768,0.1662,38.9600,78,97,196885
1.8475,0.1711,39.0900,78,97,196888
1.8475,0.1613,39.1200,78,97,196892
1.8768,0.1711,38.9300,78,97,196895
1.8573,0.1662,39.1200,78,97,196898
1.8964,0.1711,38.8400,78,97,196901
1.8671,0.1613,39.0300,78,97,196905
1.8524,0.1613,39.1200,78,97,196909
1.8671,0.1613,39.0900,78,97,196912
1.8524,0.1613,39.1900,78,97,196916
1.9062,0.1857,38.8400,78,97,196919
1.8671,0.1662,39.0600,78,97,196922
1.8524,0.1662,39.0000,78,97,196926
1.8573,0.1662,39.0900,78,97,196929
1.8573,0.1662,38.3300,78,97,196932
1.9306,0.1906,38.9300,78,97,196936
1.8671,0.1662,39.1600,78,97,196939
1.8719,0.1662,39.0300,78,97,196942
1.8573,0.1662,39.1200,78,97,196945
1.8524,0.1662,39.1200,78,97,196950
1.8817,0.1760,39.0600,78,97,196953
1.8671,0.1662,39.0900,78,97,196956
1.8768,0.1662,38.9600,78,97,196960
1.8524,0.1662,39.1200,78,97,196963
1.8475,0.1613,39.1200,78,97,196966
1.8768,0.1760,38.9600,78,97,196970
1.8573,0.1613,39.1200,78,97,196973
1.8768,0.1662,38.9600,78,97,196976
1.8622,0.1613,39.0300,78,97,196980
1.8524,0.1613,39.2500,78,97,196983
1.8622,0.1711,39.0300,78,97,196986
1.8573,0.1613,39.0300,78,97,196990
1.9062,0.1808,38.8700,78,97,196994
1.8817,0.1711,39.1900,78,97,196997
1.8915,0.1613,39.1200,78,97,197001
1.8768,0.1662,39.1200,78,97,197004
1.8622,0.1662,39.1200,78,97,197007
1.9208,0.1760,38.8400,78,97,197010
1.8817,0.1613,39.0600,78,97,197014
1.8915,0.1564,39.0900,78,97,197017
1.9013,0.1662,39.2800,78,97,197020
1.9159,0.1662,39.0900,78,97,197024
1.9697,0.1808,39.0000,78,97,197027
1.9453,0.1711,39.0300,78,97,197030
1.9501,0.1564,39.0300,78,97,197035
1.9550,0.1662,39.1200,78,97,197038
1.9599,0.1613,39.1200,78,97,197041
2.0039,0.1711,38.9300,78,97,197045
2.0283,0.1662,39.0300,78,97,197049
2.0088,0.1613,39.1600,78,97,197053
2.0332,0.1662,38.9000,78,97,197056
2.0088,0.1564,39.0000,78,97,197059
2.0039,0.1613,39.0900,78,97,197062
1.9941,0.1662,39.0600,78,97,197066
1.9599,0.1613,39.1600,78,97,197069
1.9697,0.1613,38.9000,78,97,197072
1.9159,0.1564,39.0900,78,97,197076
1.9013,0.1711,39.1200,78,97,197080
1.9110,0.1515,39.0600,78,97,197083
1.8866,0.1662,39.1600,78,97,197087
1.9306,0.1711,38.8400,78,97,197090
1.8768,0.1662,39.0300,78,97,197093
1.8671,0.1613,39.1200,78,97,197096
1.8377,0.1613,39.1200,78,97,197100
1.8182,0.1613,39.1200,78,97,197103
1.8719,0.1808,38.9300,78,97,197106
1.8182,0.1515,39.0600,78,97,197110
1.8084,0.1564,39.0300,78,97,197113
1.8035,0.1613,39.0900,78,97,197116
1.8084,0.1613,39.1900,78,97,197121
1.8524,0.1711,38.9300,78,97,197124
1.8524,0.1711,39.0900,78,97,197127
1.8426,0.1613,38.9300,78,97,197131
1.8231,0.1613,39.0900,78,97,197134
1.8182,0.1613,39.1200,78,97,197137
1.8280,0.1662,39.2200,78,97,197140
1.8035,0.1662,39.0900,78,97,197144
1.8328,0.1711,39.0300,78,97,197147
1.8133,0.1564,39.0900,78,97,197150
1.8524,0.1613,39.1200,78,97,197154
1.9453,0.1711,39.0000,78,97,197157
2.0235,0.1613,39.0900,78,97,197160
2.1799,0.1613,38.9300,78,97,197165
2.3069,0.1711,39.0600,78,97,197168
2.4731,0.1564,39.1600,78,97,197171
2.6784,0.1662,39.0300,78,97,197175
2.7517,0.1613,39.1200,78,97,197178
2.7517,0.1711,38.9000,78,97,197181
2.5562,0.1662,39.0600,78,97,197184
2.3363,0.1613,39.1200,78,97,197188
2.1408,0.1613,39.1200,78,97,197191
1.9892,0.1662,39.1200,78,97,197194
1.9208,0.1760,38.3300,78,97,197198
1.8231,0.1564,39.0900,78,97,197201
1.7937,0.1515,39.0600,78,97,197204
1.7791,0.1662,39.1200,78,97,197209
1.7644,0.1613,39.1200,78,97,197212
1.7889,0.1906,39.0000,78,97,197215
1.7595,0.1662,39.0600,78,97,197219
1.7546,0.1613,39.0300,78,97,197222
1.7351,0.1564,39.1900,78,97,197225
1.7400,0.1613,39.1600,78,97,197228
1.7595,0.1711,39.0000,78,97,197232
1.7351,0.1613,39.0900,78,97,197235
1.7595,0.1662,38.9600,78,97,197238
1.7400,0.1613,39.1200,78,97,197242
1.7498,0.1564,39.1200,78,97,197245
1.7742,0.1711,39.0300,78,97,197249
1.7498,0.1613,39.1200,78,97,197253
1.7791,0.1515,39.0300,78,97,197256
1.7595,0.1564,39.0900,78,97,197259
1.7742,0.1613,39.1200,78,97,197263
1.7889,0.1613,39.0300,78,97,197266
1.7840,0.1613,39.1200,78,97,197269
1.8182,0.1662,38.9000,78,97,197272
1.7937,0.1515,39.1200,78,97,197276
1.8035,0.1613,39.1600,78,97,197279
1.8280,0.1613,39.0600,78,97,197282
1.8231,0.1613,39.1200,78,97,197286
1.8719,0.1760,38.8400,78,97,197289
1.8475,0.1662,39.0600,78,97,197293
1.8328,0.1613,39.0600,78,97,197297
1.8426,0.1613,39.0900,78,97,197300
1.8426,0.1613,38.9600,78,97,197303
1.9062,0.1906,38.9000,78,97,197307
1.8573,0.1662,39.1200,78,97,197310
1.8573,0.2102,39.0300,78,97,197313
1.8573,0.1613,39.1200,78,97,197317
1.8622,0.1613,39.1600,78,97,197320
1.8964,0.1711,38.9600,78,97,197323
1.8768,0.1613,39.0600,78,97,197326
1.8964,0.1466,38.9600,78,97,197330
1.8768,0.1613,39.1200,78,97,197334
1.8768,0.1857,39.0900,78,97,197337
1.8964,0.1662,39.0600,78,97,197341
1.8866,0.1613,39.1600,78,97,197344
1.9208,0.1662,39.0000,78,97,197347
1.8964,0.1613,39.1200,78,97,197351
1.9062,0.1662,39.1200,78,97,197354
1.9306,0.1711,39.0300,78,97,197357
1.9257,0.1662,39.1200,78,97,197361
1.9746,0.1662,38.9300,78,97,197364
1.9648,0.1613,38.9600,78,97,197367
1.9550,0.1613,39.0600,78,97,197370
1.9844,0.1662,39.1200,78,97,197374
1.9697,0.1564,39.0900,78,97,197378
2.0381,0.1711,38.8700,78,97,197381
2.0381,0.1613,39.0600,78,97,197385
2.0088,0.1564,39.0900,78,97,197388
2.0235,0.1662,39.0900,78,97,197391
2.0186,0.1613,39.1600,78,97,197395
2.0821,0.1808,38.8700,78,97,197398
2.0381,0.1613,39.0600,78,97,197401
2.0479,0.1564,39.0900,78,97,197404
2.0577,0.1662,39.1900,78,97,197408
2.0528,0.1613,39.1200,78,97,197411
2.1065,0.1808,38.9300,78,97,197414
2.0674,0.1662,39.0900,78,97,197419
2.0674,0.1564,39.0300,78,97,197422
2.0626,0.1613,39.1900,78,97,197425
2.0626,0.1760,39.1200,78,97,197429
2.1017,0.1711,38.9300,78,97,197432
2.0577,0.1613,39.1200,78,97,197435
2.0821,0.1613,39.0000,78,97,197439
2.0430,0.1613,39.1200,78,97,197442
2.0332,0.1613,39.3200,78,97,197445
2.0528,0.1711,39.0600,78,97,197448
1.9941,0.1613,39.1200,78,97,197452
2.0039,0.1711,39.0000,78,97,197455
1.9501,0.1662,39.0900,78,97,197458
1.9355,0.1613,39.0900,78,97,197463
1.9208,0.1662,39.1200,78,97,197466
1.8817,0.1857,39.1200,78,97,197469
1.8768,0.1613,38.9300,78,97,197473
1.8426,0.1662,39.1200,78,97,197476
1.8035,0.1515,39.1200,78,97,197479
1.8133,0.2102,39.0300,78,97,197482
1.7791,0.1613,39.1200,78,97,197486
1.7986,0.1711,38.8400,78,97,197489
1.7595,0.1662,39.0300,78,97,197492
1.7253,0.1613,39.1200,78,97,197496
1.7351,0.1613,39.0900,78,97,197499
1.7204,0.1613,39.0900,78,97,197502
1.7693,0.1760,38.8100,78,97,197507
1.7351,0.1515,39.0300,78,97,197510
1.7253,0.1564,39.1200,78,97,197513
1.7302,0.1662,39.0900,78,97,197517
1.7253,0.1613,39.2200,78,97,197520
1.7742,0.1808,38.9300,78,97,197523
1.7400,0.1613,39.0900,78,97,197526
1.7498,0.1613,39.1200,78,97,197530
1.7351,0.1662,39.0900,78,97,197533
1.7449,0.1613,39.0900,78,97,197536
1.7742,0.1808,39.0600,78,97,197540
1.7595,0.1613,39.1200,78,97,197543
1.7840,0.1613,39.1600,78,97,197547
1.7644,0.1613,39.1200,78,97,197551
1.7644,0.1613,39.0900,78,97,197554
1.7986,0.1808,38.9600,78,97,197557
1.7742,0.1613,39.2200,78,97,197561
1.7986,0.1662,38.9600,78,97,197564
1.7791,0.1613,39.0300,78,97,197567
1.7742,0.1613,39.0600,78,97,197570
1.7937,0.1662,39.0000,78,97,197574
1.7791,0.1613,39.1600,78,97,197577
1.8231,0.1662,38.9000,78,97,197580
1.8084,0.1662,38.8400,78,97,197584
1.8035,0.1613,39.0900,78,97,197587
1.8133,0.1662,39.0900,78,97,197591
1.8035,0.1613,39.1200,78,97,197595
1.8524,0.1711,38.8400,78,97,197598
1.8133,0.1515,39.0600,78,97,197601
1.8133,0.1564,39.4100,78,97,197605
1.8426,0.1613,39.0900,78,97,197608
1.8084,0.1613,39.1200,78,97,197611
1.8573,0.1857,38.9000,78,97,197614
1.8133,0.1662,39.0000,78,97,197618
1.8133,0.1564,39.1200,78,97,197621
1.8133,0.1613,39.1200,78,97,197624
1.8084,0.1613,39.1200,78,97,197628
1.8573,0.1760,38.9600,78,97,197632
1.8084,0.1613,39.1200,78,97,197635
1.8182,0.1662,38.9600,78,97,197639
1.7986,0.1515,39.1200,78,97,197642
1.7986,0.1515,39.1200,78,97,197645
1.8280,0.1711,38.9600,78,97,197649
1.7986,0.1613,39.0900,78,97,197652
1.8475,0.1711,39.0000,78,97,197655
1.8035,0.1613,38.9000,78,97,197658
1.8084,0.1564,39.0900,78,97,197663
1.8182,0.1613,39.1200,78,97,197666
1.8328,0.1662,39.0600,78,97,197670
1.8231,0.1613,39.1200,78,97,197673
1.8671,0.1760,38.8400,78,97,197677
1.8280,0.1662,39.0300,78,97,197681
1.8084,0.1564,39.0900,78,97,197684
1.8182,0.1662,39.0900,78,97,197687
1.8133,0.1613,39.0900,78,97,197691
1.8719,0.1808,38.8700,78,97,197694
1.8328,0.1662,39.0300,78,97,197697
1.8280,0.1613,39.0600,78,97,197701
1.8231,0.1662,39.1200,78,97,197704
1.8231,0.1613,39.1200,78,97,197707
1.8622,0.2004,38.9600,78,97,197710
1.8377,0.1613,39.0900,78,97,197714
1.8524,0.1613,39.0300,78,97,197718
1.8231,0.1613,39.1200,78,97,197721
1.8280,0.1613,39.1200,78,97,197725
1.8475,0.1662,39.0600,78,97,197728
1.8328,0.1613,39.1600,78,97,197731
1.8671,0.1711,39.0000,78,97,197735
1.8377,0.1613,39.1200,78,97,197738
1.8377,0.1613,39.0900,78,97,197741
1.8622,0.1711,39.0000,78,97,197745
1.8328,0.1906,39.1200,78,97,197748
1.8915,0.1564,38.9300,78,97,197751
1.8426,0.1613,39.0000,78,97,197755
1.8328,0.1662,39.0900,78,97,197758
1.8475,0.1711,38.8100,78,97,197762
1.8328,0.1711,39.0900,78,97,197765
1.8817,0.1711,38.8700,78,97,197769
1.8719,0.1808,39.0300,78,97,197772
1.8866,0.1613,39.1600,78,97,197775
1.8817,0.1662,39.0300,78,97,197779
1.8817,0.1564,39.1200,78,97,197782
1.9501,0.1808,38.8700,78,97,197785
1.9110,0.1613,39.0600,78,97,197789
1.9257,0.1564,39.0900,78,97,197792
1.9208,0.1662,39.2200,78,97,197795
1.9159,0.1613,39.1200,78,97,197799
1.9648,0.1760,39.0600,78,97,197803
1.9404,0.1662,39.0600,78,97,197806
1.9599,0.1613,39.0000,78,97,197809
1.9501,0.1662,39.0900,78,97,197813
1.9501,0.1564,39.1900,78,97,197816
1.9844,0.1711,38.9300,78,97,197819
1.9453,0.1613,39.0900,78,97,197823
1.9550,0.1662,38.9300,78,97,197826
1.9208,0.1613,38.9600,78,97,197829
1.9013,0.1564,39.1900,78,97,197833
1.9110,0.1515,39.0000,78,97,197836
1.8573,0.1613,39.2200,78,97,197839
1.8719,0.1613,39.0000,78,97,197842
1.8328,0.1515,39.0900,78,97,197847
1.8328,0.1711,39.1200,78,97,197850
1.8280,0.1662,39.0300,78,97,197853
1.8084,0.1613,39.2200,78,97,197857
1.8280,0.1662,38.9000,78,97,197860
1.7840,0.1613,39.1200,78,97,197863
1.7791,0.1613,39.1600,78,97,197867
1.7889,0.1711,39.0600,78,97,197870
1.7693,0.1711,39.0900,78,97,197873
1.8084,0.1760,38.8700,78,97,197877
1.7840,0.1662,39.0600,78,97,197880
1.7546,0.1613,39.1600,78,97,197883
1.7693,0.1662,39.0900,78,97,197886
1.7693,0.1613,39.0900,78,97,197891
1.8231,0.1808,38.9600,78,97,197894
1.7937,0.1662,39.0600,78,97,197897
1.7742,0.1613,38.7400,78,97,197901
1.7742,0.1662,39.1200,78,97,197904
1.7546,0.1613,39.1900,78,97,197907
1.7889,0.1760,38.9600,78,97,197911
1.7791,0.1662,39.0900,78,97,197914
1.8328,0.1613,39.0300,78,97,197917
1.8915,0.1613,39.0900,78,97,197921
1.9941,0.1564,39.1200,78,97,197924
2.1457,0.1711,39.0600,78,97,197927
2.2727,0.1613,39.0900,78,97,197931
2.4829,0.1808,39.0000,78,97,197935
2.6246,0.1613,39.0900,78,97,197938
2.6784,0.1613,39.1600,78,97,197941
2.6295,0.1760,39.0000,78,97,197945
2.4194,0.1515,39.1200,78,97,197948
2.2385,0.1662,38.9000,78,97,197951
2.0332,0.1613,39.0300,78,97,197955
1.8817,0.1613,39.1200,78,97,197958
1.8084,0.1711,39.0300,78,97,197961
1.7644,0.1613,39.1200,78,97,197965
1.7840,0.1711,38.8700,78,97,197968
1.7498,0.1515,39.0300,78,97,197971
1.7155,0.1613,39.1600,78,97,197975
1.7107,0.1662,39.0900,78,97,197979
1.6911,0.1613,39.1200,78,97,197982
1.7302,0.1808,38.8400,78,97,197985
1.6911,0.1613,39.0900,78,97,197989
1.6862,0.1564,39.0600,78,97,197992
1.7253,0.1662,39.0900,78,97,197995
1.6862,0.1613,39.1600,78,97,197999
1.7546,0.1711,38.9300,78,97,198002
1.7058,0.1662,39.0600,78,97,198005
1.7155,0.1808,39.0000,78,97,198009
1.7107,0.1613,39.0900,78,97,198012
1.7155,0.1613,39.0300,78,97,198016
1.7498,0.1711,38.9600,78,97,198019
1.7302,0.1662,39.0300,78,97,198023
1.7498,0.1711,38.9600,78,97,198026
1.7351,0.1515,39.1200,78,97,198029
1.7400,0.1564,39.0900,78,97,198033
1.7742,0.1711,39.0000,78,97,198036
1.7498,0.1613,39.0900,78,97,198039
1.7840,0.1662,39.0000,78,97,198043
1.7644,0.1613,39.1200,78,97,198046
1.7742,0.1515,39.1600,78,97,198049
1.7889,0.1662,39.0600,78,97,198053
1.7791,0.1613,39.0900,78,97,198056
1.8084,0.1662,38.9300,78,97,198060
1.8182,0.1613,39.1200,78,97,198063
1.7937,0.1613,39.1900,78,97,198067
1.8133,0.1711,39.0600,78,97,198070
1.8035,0.1613,39.0600,78,97,198073
1.8671,0.1760,38.8700,78,97,198077
1.8231,0.1662,38.9600,78,97,198080
1.8133,0.1662,39.1200,78,97,198083
1.8280,0.1662,39.2500,78,97,198087
1.8280,0.1613,39.1900,78,97,198090
1.8915,0.1808,38.9000,78,97,198093
1.8475,0.1760,39.0600,78,97,198097
1.8475,0.1564,39.0600,78,97,198100
1.8377,0.1662,39.0900,78,97,198104
1.8475,0.1662,39.1200,78,97,198108
1.8915,0.1711,38.9600,78,97,198111
1.8817,0.1662,39.1200,78,97,198114
1.8915,0.1662,39.0000,78,97,198117
1.8719,0.1857,39.0900,78,97,198121
1.8817,0.1515,39.1200,78,97,198124
1.9110,0.1711,39.0600,78,97,198127
1.9013,0.1613,39.1200,78,97,198131
1.9453,0.1711,39.0300,78,97,198134
1.9257,0.1613,39.1200,78,97,198137
1.9257,0.1613,39.1900,78,97,198141
1.9795,0.1760,39.0300,78,97,198145
1.9501,0.1613,39.0300,78,97,198148
1.9892,0.1711,38.9000,78,97,198152
1.9795,0.1613,39.0000,78,97,198155
1.9795,0.1613,39.1200,78,97,198158
2.0088,0.1711,39.0600,78,97,198161
1.9941,0.1613,39.1200,78,97,198165
2.0479,0.1711,38.8400,78,97,198168
2.0283,0.1662,39.0600,78,97,198171
2.0088,0.1613,39.1200,78,97,198175
2.0186,0.1662,39.0300,78,97,198178
2.0088,0.1662,39.1200,78,97,198181
2.0626,0.1760,38.8100,78,97,198185
2.0137,0.1857,39.0600,78,97,198189
2.0332,0.1662,39.0900,78,97,198192
2.0235,0.1662,39.0900,78,97,198195
2.0088,0.1613,39.1200,78,97,198199
2.0577,0.1857,38.9300,78,97,198202
1.9990,0.1711,39.0600,78,97,198205
1.9892,0.1613,39.0000,78,97,198209
1.9599,0.1662,39.0900,78,97,198212
1.9404,0.1613,39.1200,78,97,198215
1.9550,0.1808,38.9300,78,97,198219
1.8964,0.1662,39.0900,78,97,198222
1.8817,0.1662,39.1900,78,97,198225
1.8328,0.1662,39.1200,78,97,198230
1.8133,0.1613,39.1200,78,97,198233
1.8133,0.1760,39.0000,78,97,198236
1.7693,0.1613,39.1200,78,97,198239
1.7693,0.1711,39.0000,78,97,198243
1.7204,0.1613,39.1200,78,97,198246
1.7058,0.1613,39.0900,78,97,198249
1.7058,0.1760,39.0300,78,97,198253
1.6813,0.1613,39.1200,78,97,198256
1.6960,0.1662,38.9000,78,97,198259
1.6618,0.1662,39.1200,78,97,198263
1.6667,0.1613,39.1600,78,97,198266
1.7009,0.1711,39.0300,78,97,198269
1.6813,0.1662,39.0900,78,97,198275
1.6862,0.1613,39.1600,78,97,198278
1.7449,0.1808,38.9000,78,97,198282
1.7107,0.1662,39.0900,78,97,198285
1.7058,0.1613,39.0300,78,97,198288
1.6960,0.1662,39.1600,78,97,198291
1.7009,0.1613,39.1200,78,97,198295
1.7400,0.1760,39.0300,78,97,198298
1.7155,0.1662,39.0900,78,97,198301
1.7400,0.1662,38.9600,78,97,198305
1.7155,0.1662,39.1600,78,97,198308
1.7204,0.1613,39.1200,78,97,198311
1.7351,0.1662,39.0300,78,97,198316
1.7400,0.1613,39.0900,78,97,198319
1.7595,0.1711,39.0000,78,97,198322
1.7351,0.1613,39.1200,78,97,198326
1.7400,0.1613,39.1200,78,97,198329
1.7693,0.1711,39.1200,78,97,198332
1.7498,0.1515,39.1200,78,97,198335
1.7840,0.1662,38.9000,78,97,198339
1.7693,0.1662,39.0000,78,97,198342
1.7595,0.1613,39.1200,78,97,198345
1.7693,0.1711,39.0600,78,97,198349
1.7546,0.1613,39.1200,78,97,198352
1.7986,0.1711,38.8400,78,97,198355
1.7791,0.1662,39.0300,78,97,198360
1.7644,0.1662,39.1200,78,97,198363
1.7693,0.1515,39.0900,78,97,198366
1.7595,0.1955,39.1200,78,97,198370
1.8426,0.1857,38.8700,78,97,198373
1.7693,0.1662,39.1200,78,97,198376
1.7791,0.1613,39.0600,78,97,198380
1.7693,0.1662,39.1200,78,97,198383
1.7595,0.1613,39.1200,78,97,198386
1.7986,0.1808,38.9600,78,97,198389
1.7742,0.1613,39.0900,78,97,198393
1.7986,0.1662,39.0000,78,97,198396
1.7742,0.1662,39.1200,78,97,198400
1.7889,0.1613,39.1200,78,97,198404
1.7986,0.1711,38.9300,78,97,198407
1.7693,0.1515,39.0900,78,97,198410
1.7937,0.1711,39.0000,78,97,198414
1.7742,0.1564,39.0900,78,97,198417
1.7840,0.1613,39.0900,78,97,198420
1.7986,0.1711,38.9600,78,97,198424
1.8035,0.1613,39.0900,78,97,198427
1.7889,0.1662,38.9600,78,97,198430
1.7693,0.1711,39.0000,78,97,198433
1.7742,0.1613,39.1200,78,97,198437
1.7840,0.1711,39.2500,78,97,198440
1.7742,0.1613,39.0900,78,97,198444
1.8133,0.1515,38.9000,78,97,198448
1.7742,0.1662,39.1200,78,97,198451
1.7840,0.1515,39.1200,78,97,198454
1.7986,0.1711,39.0900,78,97,198458
1.7986,0.1613,39.1200,78,97,198461
1.8377,0.1760,38.8100,78,97,198464
1.8084,0.1662,39.0300,78,97,198468
1.7840,0.1564,39.1600,78,97,198471
1.7791,0.1613,39.0900,78,97,198474
1.7840,0.1613,39.1200,78,97,198477
1.8328,0.1808,38.8700,78,97,198481
1.7986,0.1613,39.0900,78,97,198484
1.7937,0.1613,39.0600,78,97,198488
1.7791,0.1662,39.0900,78,97,198492
1.8133,0.1662,39.1200,78,97,198495
1.8182,0.1711,38.9600,78,97,198498
1.7937,0.1662,39.0900,78,97,198502
1.8084,0.1515,38.9600,78,97,198505
1.7840,0.1662,39.1200,78,97,198508
1.7840,0.1515,39.1200,78,97,198512
1.7986,0.1662,39.0900,78,97,198515
1.7986,0.1613,39.0900,78,97,198518
1.8182,0.1662,39.0300,78,97,198521
1.7840,0.1662,39.0900,78,97,198525
1.7791,0.1613,39.1200,78,97,198529
1.8084,0.1711,39.1900,78,97,198532
1.7889,0.1662,39.0900,78,97,198536
1.8328,0.1515,38.9300,78,97,198539
1.8280,0.1613,39.0000,78,97,198542
1.8377,0.1613,39.1900,78,97,198546
1.8622,0.1760,39.0600,78,97,198549
1.8573,0.1613,39.0900,78,97,198552
1.9159,0.1760,38.8700,78,97,198556
1.8915,0.1613,39.0000,78,97,198559
1.9110,0.1613,39.1200,78,97,198562
1.8768,0.1662,38.8400,78,97,198565
1.8719,0.1662,39.1900,78,97,198569
1.9355,0.1857,38.8700,78,97,198573
1.8964,0.1662,39.0600,78,97,198576
1.9062,0.1613,39.0600,78,97,198580
1.9159,0.1662,38.9000,78,97,198583
1.9208,0.1613,39.1200,78,97,198586
1.9550,0.1808,39.0600,78,97,198590
1.9208,0.1662,39.1200,78,97,198593
1.9355,0.1662,39.0000,78,97,198596
1.8915,0.1711,39.1200,78,97,198600
1.8719,0.1613,39.1200,78,97,198603
1.8768,0.1711,38.9000,78,97,198606
1.8231,0.1662,39.1200,78,97,198609
1.8280,0.1760,38.9600,78,97,198614
1.7937,0.1662,39.1600,78,97,198617
1.7937,0.1613,39.1900,78,97,198620
1.8035,0.1711,39.0000,78,97,198624
1.7742,0.1613,39.1200,78,97,198627
1.7840,0.1662,38.9300,78,97,198630
1.7546,0.1515,39.0300,78,97,198634
1.7449,0.1857,39.1200,78,97,198637
1.7498,0.1711,39.0600,78,97,198640
1.7302,0.1662,39.1200,78,97,198644
1.7595,0.1760,38.8700,78,97,198647
1.7253,0.1906,39.0900,78,97,198650
1.7400,0.1613,39.1200,78,97,198654
1.7400,0.1515,39.0900,78,97,198658
1.7302,0.1711,39.1900,78,97,198661
1.7791,0.1808,38.8400,78,97,198664
1.7449,0.1662,39.0300,78,97,198668
1.7595,0.1613,39.0900,78,97,198671
1.7351,0.1564,39.1200,78,97,198674
1.7302,0.1613,39.1200,78,97,198678
1.7644,0.1760,38.9600,78,97,198681
1.7449,0.1711,39.0900,78,97,198684
1.7840,0.1662,39.0900,78,97,198688
1.8377,0.1662,39.0900,78,97,198691
1.9697,0.1662,39.1900,78,97,198694
2.1017,0.1711,39.0300,78,97,198699
2.2483,0.1613,39.1200,78,97,198702
2.4145,0.1662,38.9600,78,97,198705
2.5611,0.1613,39.0900,78,97,198708
2.6393,0.1613,39.2200,78,97,198712
2.5855,0.1662,39.0300,78,97,198715
2.4096,0.1662,39.0900,78,97,198718
2.2336,0.1662,38.9600,78,97,198722
2.0088,0.1613,39.0900,78,97,198725
1.9110,0.1662,39.0600,78,97,198728
1.8133,0.1760,39.0300,78,97,198732
1.7742,0.1662,39.0900,78,97,198735
1.7693,0.1711,38.9300,78,97,198738
1.7351,0.1662,38.9600,78,97,198743
1.7155,0.1662,39.1900,78,97,198746
1.7058,0.1808,39.0600,78,97,198749
1.6813,0.1711,39.1200,78,97,198752
1.7155,0.1760,38.8700,78,97,198756
1.6764,0.1662,39.0600,78,97,198759
1.6618,0.1613,39.1200,78,97,198762
1.6618,0.1662,39.1600,78,97,198766
1.6569,0.1613,39.1600,78,97,198769
1.7107,0.1857,38.4300,78,97,198772
1.6813,0.1662,39.0900,78,97,198776
1.6862,0.1613,39.0600,78,97,198779
1.6862,0.1662,39.1200,78,97,198782
1.6911,0.1515,39.1200,78,97,198787
1.7204,0.1857,39.0000,78,97,198790
1.7058,0.1662,39.0900,78,97,198793
1.7253,0.1662,39.0300,78,97,198796
1.7204,0.1662,39.1200,78,97,198800
1.7253,0.1613,39.1200,78,97,198803
1.7546,0.1711,39.1200,78,97,198806
1.7351,0.1662,38.3600,78,97,198810
1.7986,0.1760,39.0000,78,97,198813
1.7449,0.1564,39.0900,78,97,198816
1.7498,0.1613,39.1200,78,97,198820
1.7791,0.1711,39.0300,78,97,198823
1.7546,0.1613,39.0900,78,97,198827
1.7889,0.1711,38.9000,78,97,198831
1.7791,0.1613,39.0300,78,97,198834
1.7791,0.1613,39.1200,78,97,198837
1.8133,0.1613,39.0600,78,97,198840
1.7840,0.1515,39.1200,78,97,198844
1.8280,0.1760,38.9000,78,97,198847
1.7889,0.1662,39.1200,78,97,198850
1.7937,0.1613,39.1900,78,97,198854
1.8133,0.1711,39.0900,78,97,198857
1.8133,0.1613,39.0300,78,97,198860
1.8671,0.1760,38.8400,78,97,198864
1.8328,0.1662,38.5200,78,97,198867
1.8231,0.1662,39.0900,78,97,198871
1.8328,0.1662,39.0900,78,97,198875
1.8377,0.1613,39.0300,78,97,198878
1.8964,0.1711,38.9300,78,97,198881
1.9257,0.1760,39.0000,78,97,198886
1.9062,0.1662,39.1200,78,97,198889
1.9501,0.1711,39.0000,78,97,198893
1.9257,0.1613,39.0300,78,97,198896
1.9697,0.1613,39.1200,78,97,198899
1.9599,0.1662,39.0900,78,97,198902
1.9599,0.1662,39.1200,78,97,198906
2.0235,0.1662,38.9300,78,97,198909
1.9697,0.1906,39.1200,78,97,198913
1.9746,0.1613,39.1200,78,97,198917
2.0039,0.1711,39.0600,78,97,198920
2.0283,0.1613,39.1200,78,97,198923
2.0528,0.1760,38.8700,78,97,198927
2.0235,0.1711,39.0000,78,97,198930
2.0039,0.1662,39.1200,78,97,198933
2.0137,0.1711,39.0900,78,97,198937
2.0088,0.1662,39.1200,78,97,198940
2.0674,0.1760,38.8700,78,97,198943
2.0235,0.1662,39.0900,78,97,198946
2.0088,0.1613,39.0900,78,97,198950
2.0039,0.1711,39.0900,78,97,198953
2.0039,0.1613,39.1200,78,97,198957
2.0430,0.1857,38.9600,78,97,198961
1.9941,0.1662,39.1200,78,97,198964
1.9941,0.1613,39.0300,78,97,198967
1.9648,0.1662,39.0900,78,97,198971
1.9404,0.1613,39.1200,78,97,198974
1.9501,0.1760,39.0300,78,97,198977
1.9013,0.1662,39.0900,78,97,198980
1.8964,0.1662,38.9600,78,97,198984
1.8475,0.1760,39.1200,78,97,198987
1.8231,0.1515,39.1200,78,97,198990
1.8328,0.1808,39.0000,78,97,198994
1.7791,0.1662,39.0900,78,97,198998
1.7791,0.1662,39.0000,78,97,199001
1.7302,0.1662,39.1200,78,97,199005
1.7302,0.1613,39.1200,78,97,199008
1.7253,0.1760,39.0300,78,97,199011
1.7009,0.1662,39.0900,78,97,199015
1.7155,0.1711,38.9000,78,97,199018
1.6862,0.1760,39.0000,78,97,199021
1.6764,0.1613,39.1200,78,97,199024
1.6813,0.1711,39.0600,78,97,199028
1.6764,0.1613,39.1200,78,97,199031
1.7107,0.1760,38.9600,78,97,199034
1.6667,0.1613,39.0600,78,97,199038
1.6813,0.1613,38.5200,78,97,199042
1.6960,0.1760,39.0900,78,97,199045
1.6911,0.1613,39.0300,78,97,199049
1.7400,0.1906,38.8700,78,97,199052
1.7107,0.1760,39.0300,78,97,199055
1.7009,0.1613,39.2200,78,97,199059
1.7009,0.1613,39.1200,78,97,199062
1.7058,0.1662,39.1200,78,97,199065
1.7449,0.2053,39.0300,78,97,199068
1.7155,0.1662,39.0900,78,97,199072
1.7302,0.1662,39.0000,78,97,199075
1.7155,0.1906,39.1200,78,97,199078
1.7204,0.1662,39.1200,78,97,199083
1.7546,0.1711,39.0000,78,97,199086
1.7400,0.1662,39.0900,78,97,199089
1.7693,0.1711,39.0000,78,97,199093
1.7400,0.1662,39.1200,78,97,199096
1.7400,0.1662,39.1200,78,97,199099
1.7546,0.1711,39.0600,78,97,199103
1.7498,0.1662,39.1200,78,97,199106
1.7693,0.1662,38.9600,78,97,199109
1.7449,0.1662,39.1600,78,97,199112
1.7400,0.1613,39.0900,78,97,199116
1.7693,0.1711,39.0000,78,97,199119
1.7498,0.1613,39.0900,78,97,199122
1.7986,0.1760,38.9300,78,97,199127
1.7791,0.1711,39.0600,78,97,199130
1.7693,0.1906,39.1200,78,97,199133
1.7742,0.1662,38.3300,78,97,199137
1.7693,0.2004,39.1200,78,97,199140
1.8084,0.1711,38.8100,78,97,199143
1.7742,0.1662,39.0300,78,97,199147
1.7889,0.1564,39.0900,78,97,199150
1.7693,0.1662,39.1200,78,97,199153
1.7644,0.1857,39.1900,78,97,199156
1.8231,0.1857,38.9300,78,97,199160
1.7840,0.1857,39.0600,78,97,199163
1.8084,0.1711,39.0300,78,97,199166
1.7742,0.1662,39.1200,78,97,199171
1.7693,0.1564,39.1200,78,97,199174
1.7986,0.1760,39.0000,78,97,199177
1.7742,0.1711,39.0300,78,97,199181
1.7937,0.1662,39.0000,78,97,199184
1.7791,0.1662,39.1600,78,97,199187
1.7791,0.1662,39.1900,78,97,199191
1.8035,0.1760,38.9600,78,97,199194
1.7742,0.1613,39.1200,78,97,199197
1.7986,0.1711,39.0000,78,97,199200
1.7742,0.1613,39.0900,78,97,199204
1.7791,0.1613,39.1200,78,97,199207
1.7937,0.1711,39.2800,78,97,199211
1.8084,0.1613,39.0900,78,97,199215
1.8035,0.1515,38.9300,78,97,199218
1.7791,0.1662,39.1200,78,97,199221
1.7889,0.1613,39.0900,78,97,199225
1.7986,0.1711,39.1200,78,97,199228
1.7840,0.1711,39.1200,78,97,199231
1.8231,0.1760,38.8700,78,97,199235
1.7791,0.1662,39.0900,78,97,199238
1.7889,0.1613,39.1200,78,97,199241
1.7937,0.1711,39.1200,78,97,199244
1.7937,0.1662,39.1200,78,97,199248
1.8377,0.1857,38.8700,78,97,199251
1.8084,0.1711,39.0600,78,97,199255
1.7889,0.1613,39.1200,78,97,199259
1.7840,0.1662,39.0900,78,97,199262
1.7937,0.1613,39.1900,78,97,199265
1.8328,0.1857,38.9300,78,97,199269
1.7986,0.1662,39.0900,78,97,199272
1.8035,0.2004,39.0600,78,97,199275
1.8084,0.1613,39.1200,78,97,199279
1.7889,0.1662,39.1200,78,97,199282
1.8182,0.1760,39.0000,78,97,199285
1.7986,0.1662,39.0900,78,97,199288
1.8182,0.1515,39.0000,78,97,199292
1.7889,0.1808,39.0900,78,97,199296
1.7889,0.1711,39.1900,78,97,199299
1.7937,0.1711,39.0600,78,97,199303
1.7986,0.1613,39.1900,78,97,199306
1.8280,0.1662,38.9600,78,97,199309
1.8035,0.1662,39.1900,78,97,199313
1.8084,0.1662,39.1200,78,97,199316
1.8377,0.1711,39.0600,78,97,199319
1.8377,0.1662,39.1200,78,97,199323
1.8866,0.1711,38.8700,78,97,199326
1.8817,0.1711,39.0300,78,97,199329
1.8671,0.1613,39.2200,78,97,199332
1.8817,0.1711,39.0900,78,97,199336
1.8817,0.1662,39.0900,78,97,199340
1.9355,0.1808,38.8700,78,97,199343
1.8964,0.1662,39.0600,78,97,199347
1.9013,0.1613,39.1200,78,97,199350
1.9062,0.1711,39.0900,78,97,199353
1.9062,0.1662,39.1600,78,97,199357
1.9746,0.1857,38.9000,78,97,199360
1.9501,0.1613,39.0600,78,97,199363
1.9404,0.1613,39.0300,78,97,199367
1.9306,0.1662,39.2200,78,97,199370
1.9208,0.1662,39.1200,78,97,199373
1.9306,0.1808,38.2700,78,97,199376
1.8817,0.1760,39.0900,78,97,199380
1.9013,0.1613,39.0000,78,97,199384
1.8328,0.1662,39.2200,78,97,199387
1.8182,0.1662,39.1200,78,97,199391
1.8377,0.1760,38.9600,78,97,199394
1.8133,0.1613,39.1200,78,97,199397
1.8133,0.1711,39.0300,78,97,199401
1.7742,0.1564,39.0600,78,97,199404
1.7595,0.1613,39.1200,78,97,199407
1.7742,0.1662,39.0300,78,97,199411
1.7498,0.1662,39.1200,78,97,199414
1.7644,0.1662,38.9000,78,97,199417
1.7302,0.1613,39.0900,78,97,199420
1.7302,0.1662,39.1200,78,97,199425
1.7400,0.1906,39.0900,78,97,199428
1.7302,0.1662,39.1200,78,97,199431
1.7644,0.1760,38.9000,78,97,199435
1.7253,0.1662,39.0600,78,97,199438
1.7351,0.1613,39.1900,78,97,199441
1.7449,0.1711,39.0900,78,97,199445
1.7400,0.1613,39.1200,78,97,199448
1.7840,0.1515,38.8700,78,97,199451
1.7400,0.1662,39.0900,78,97,199455
1.7204,0.1564,39.0900,78,97,199458
1.7351,0.1662,39.1600,78,97,199461
1.7742,0.1857,39.1900,78,97,199464
1.8915,0.1760,38.9300,78,97,199469
1.9550,0.1711,39.0900,78,97,199472
2.1017,0.1662,39.0000,78,97,199475
2.2239,0.1662,39.1200,78,97,199479
2.4047,0.1564,39.0900,78,97,199482
2.6246,0.1760,39.0300,78,97,199485
2.6540,0.1662,39.0600,78,97,199489
2.5953,0.1955,39.0000,78,97,199492
2.4242,0.1662,39.1900,77,97,199495
1.7155,0.1662,39.0900,77,97,199500
1.6911,0.1613,39.1900,77,97,199503
1.7009,0.1711,39.0600,77,97,199507
1.6667,0.1662,39.1900,77,97,199511
1.7009,0.1711,38.8700,77,97,199514
1.6764,0.1711,39.0300,77,97,199517
1.6520,0.1613,39.0900,77,97,199521
1.6618,0.1711,39.0600,77,97,199524
1.6520,0.1662,39.1200,77,97,199527
1.7009,0.1857,38.8400,77,97,199531
1.6716,0.1760,39.0600,77,97,199534
1.6716,0.1662,39.0900,77,97,199537
1.6764,0.1711,39.1200,77,97,199541
1.6764,0.1955,39.1200,77,97,199544
1.7253,0.1808,38.9600,77,97,199547
1.6960,0.1760,39.0900,77,97,199552
1.7107,0.1760,39.0600,77,97,199555
1.7058,0.1662,39.1200,77,97,199558
1.7058,0.1662,39.0600,77,97,199561
1.7351,0.1760,39.0300,77,97,199565
1.7155,0.1662,39.0300,77,97,199568
1.7449,0.1808,38.9600,77,97,199571
1.7302,0.1662,39.0300,77,97,199575
1.7351,0.1711,39.0900,77,97,199578
1.7693,0.1760,39.0000,77,97,199581
1.7449,0.1662,39.0900,77,97,199585
1.7791,0.1613,38.9600,77,97,199588
1.7546,0.1515,39.0600,77,97,199591
1.7595,0.1564,39.0900,77,97,199596
1.7742,0.1711,39.0000,77,97,199599
1.7693,0.1662,39.1600,77,97,199602
1.8035,0.1760,38.9000,77,97,199605
1.7840,0.1662,39.0900,77,97,199609
1.7889,0.1613,39.1200,77,97,199612
1.8328,0.1711,39.0600,77,97,199615
1.7986,0.1662,39.1200,77,97,199619
1.8426,0.1662,38.8400,77,97,199622
1.8035,0.1662,39.1600,77,97,199625
1.8035,0.1613,39.0900,77,97,199629
1.8182,0.1662,39.0900,77,97,199632
1.8182,0.1662,39.0900,77,97,199635
1.8719,0.1808,38.9000,77,97,199640
1.8377,0.1760,39.0600,77,97,199643
1.8328,0.1613,39.0600,77,97,199646
1.8622,0.1613,39.0900,77,97,199649
1.8524,0.1613,39.1200,77,97,199653
1.8964,0.1760,39.0000,77,97,199656
1.8768,0.1515,39.0900,77,97,199659
1.8915,0.1662,38.9600,77,97,199663
1.8768,0.1760,39.1200,77,97,199666
1.8915,0.1515,39.1200,77,97,199669
1.9257,0.1760,39.0600,77,97,199673
1.9159,0.1662,39.0900,77,97,199676
1.9501,0.1711,39.0900,77,97,199680
1.9257,0.1760,39.1600,77,97,199684
1.9404,0.1515,39.1200,77,97,199687
1.9599,0.1711,39.0300,77,97,199690
1.9648,0.1662,39.0900,77,97,199693
1.9990,0.1662,38.9300,77,97,199697
1.9795,0.1955,39.0900,77,97,199700
1.9892,0.1613,39.0900,77,97,199703
2.0088,0.1760,39.0900,77,97,199707
1.9990,0.2053,39.1200,77,97,199710
2.0821,0.1760,38.9000,77,97,199713
2.0235,0.1711,39.0300,77,97,199717
2.0039,0.1613,39.1200,77,97,199720
2.0088,0.1613,39.0600,77,97,199724
2.0039,0.1613,39.1200,77,97,199727
2.0577,0.1711,38.8400,77,97,199731
2.0137,0.1662,39.0600,77,97,199734
2.0039,0.1564,39.0900,77,97,199737
1.9990,0.1662,39.0900,77,97,199741
1.9795,0.1515,39.1200,77,97,199744
2.0137,0.2004,38.8700,77,97,199747
1.9501,0.1711,39.0900,77,97,199751
1.9257,0.1613,39.0300,77,97,199754
1.9013,0.1711,39.0900,77,97,199757
1.8719,0.1662,39.1900,77,97,199760
1.8817,0.1808,39.0000,77,97,199764
1.8426,0.1711,39.0900,77,97,199768
1.8182,0.1662,39.0000,77,97,199771
1.7791,0.1613,39.0900,77,97,199775
1.7546,0.1515,39.1200,77,97,199778
1.7595,0.1760,38.9300,77,97,199781
1.7155,0.1662,39.0900,77,97,199785
1.7253,0.1760,39.4100,77,97,199788
1.6960,0.1613,39.0900,77,97,199791
1.6862,0.1613,39.0900,77,97,199795
1.6911,0.2004,39.0600,77,97,199798
1.6716,0.1613,39.1200,77,97,199801
1.6862,0.1662,38.9600,77,97,199804
1.6716,0.1857,39.1200,77,97,199809
1.6813,0.1515,39.1200,77,97,199812
1.6960,0.1711,39.0600,77,97,199815
1.6911,0.1662,39.0900,77,97,199819
1.7204,0.1711,38.9000,77,97,199822
1.6862,0.1662,39.0900,77,97,199825
1.6862,0.1564,39.1600,77,97,199829
1.7155,0.1760,39.1200,77,97,199832
1.7107,0.1662,39.1200,77,97,199835
1.7546,0.1760,38.8100,77,97,199839
1.7302,0.1613,39.0000,77,97,199842
1.7155,0.1613,39.0900,77,97,199845
1.7498,0.1613,39.0900,77,97,199848
1.7351,0.1662,39.0900,77,97,199853
1.7937,0.1857,38.9300,77,97,199856
1.7595,0.1662,39.0900,77,97,199859
1.7595,0.1662,39.0300,77,97,199863
1.7498,0.1662,39.1200,77,97,199866
1.7595,0.1613,39.1200,77,97,199869
1.7889,0.1808,39.0000,77,97,199873
1.7644,0.1613,39.0600,77,97,199876
1.7889,0.1662,39.0000,77,97,199879
1.7693,0.1662,39.0900,77,97,199883
1.7693,0.1613,39.1200,77,97,199886
1.7840,0.1711,39.0000,77,97,199889
1.7742,0.1662,39.1200,77,97,199892
1.7986,0.1711,39.0300,77,97,199897
1.7742,0.1711,39.1200,77,97,199900
1.7791,0.1613,39.1200,77,97,199903
1.8035,0.1760,39.0000,77,97,199907
1.7889,0.1760,39.0900,77,97,199910
1.8133,0.1711,38.9000,77,97,199913
1.8035,0.1808,39.0600,77,97,199917
1.7889,0.1662,39.1200,77,97,199920
1.8035,0.1857,39.0900,77,97,199923
1.7937,0.1711,38.9300,77,97,199927
1.8426,0.1515,38.8400,77,97,199930
1.8084,0.1613,39.0600,77,97,199933
1.7986,0.1613,39.1200,77,97,199937
1.7937,0.1662,39.0900,77,97,199941
1.7889,0.1662,39.0900,77,97,199944
1.8377,0.1857,38.8700,77,97,199947
1.7937,0.1662,39.0600,77,97,199951
1.7986,0.1662,39.0600,77,97,199954
1.7986,0.1662,39.0900,77,97,199957
1.7937,0.1662,39.1200,77,97,199961
1.8328,0.1808,39.0300,77,97,199964
1.7986,0.1808,39.0900,77,97,199967
1.8035,0.1662,39.0600,77,97,199970
1.7986,0.1662,39.1200,77,97,199974
1.7986,0.1662,39.1200,77,97,199977
1.8328,0.1760,38.9300,77,97,199981
1.7986,0.1711,39.0600,77,97,199985
1.8133,0.1711,38.9600,77,97,199988
1.7937,0.1662,39.2200,77,97,199991
1.8182,0.1564,39.1200,77,97,199995
1.8133,0.1711,39.0600,77,97,199998
1.7937,0.1760,39.1200,77,97,200001
1.8280,0.1662,38.9600,77,97,200005
1.7986,0.1662,39.1600,77,97,200008
1.8084,0.1662,39.1200,77,97,200011
1.8182,0.1711,39.1200,77,97,200015
1.8035,0.1955,39.1200,77,97,200018
1.8475,0.1711,38.8700,77,97,200022
1.8035,0.1564,39.0900,77,97,200025
1.8377,0.1662,39.1200,77,97,200029
1.8280,0.1711,39.1600,77,97,200032
1.8035,0.1662,39.0900,77,97,200035
1.8573,0.1515,38.8700,77,97,200039
1.8133,0.1857,39.0600,77,97,200042
1.7986,0.1613,39.1200,77,97,200045
1.8035,0.1808,39.0900,77,97,200049
1.8035,0.1662,39.1200,77,97,200052
1.8622,0.1857,38.9300,77,97,200055
1.8280,0.1760,39.1200,77,97,200059
1.8084,0.1613,39.0300,77,97,200062
1.8084,0.1662,39.0900,77,97,200066
1.8084,0.1613,39.1200,77,97,200069
1.8475,0.1711,39.0000,77,97,200073
1.8231,0.1662,39.1900,77,97,200076
1.8328,0.1662,38.9600,77,97,200079
1.8133,0.1515,39.1200,77,97,200083
1.8377,0.1662,39.0900,77,97,200086
1.8524,0.1711,39.0900,77,97,200089
1.8573,0.1662,39.0900,77,97,200093
1.8915,0.1760,39.0300,77,97,200096
1.8719,0.1662,39.0300,77,97,200099
1.8768,0.1662,39.1900,77,97,200103
1.9110,0.1760,39.0000,77,97,200107
1.9257,0.1711,39.1200,77,97,200112
1.9648,0.1613,39.0900,77,97,200115
1.9990,0.1760,38.8100,77,97,200118
1.9648,0.1857,39.0900,77,97,200121
1.9795,0.1564,39.0900,77,97,200125
1.9501,0.1515,39.0900,77,97,200128
1.9306,0.1662,39.1200,77,97,200131
1.9697,0.1808,38.9000,77,97,200135
1.9013,0.1711,39.0600,77,97,200138
1.8866,0.1613,38.3000,77,97,200141
1.8622,0.1662,39.1900,77,97,200145
1.8475,0.1662,39.1200,77,97,200148
1.8622,0.1760,39.0300,77,97,200152
1.8280,0.1711,39.0000,77,97,200156
1.8328,0.1760,39.0000,77,97,200159
1.7986,0.1662,39.1200,77,97,200162
1.7889,0.1662,39.2200,77,97,200165
1.7986,0.1808,39.0000,77,97,200169
1.7644,0.1662,39.1900,77,97,200172
1.7840,0.1906,39.0000,77,97,200175
1.7498,0.1613,39.0900,77,97,200179
1.7595,0.1515,39.1200,77,97,200182
1.7742,0.1711,39.0600,77,97,200185
1.7546,0.1662,39.1900,77,97,200189
1.7840,0.1711,38.9300,77,97,200193
1.7644,0.1662,39.0900,77,97,200196
1.7742,0.1662,39.0900,77,97,200200
1.7840,0.1711,39.0600,77,97,200203
1.7791,0.1515,39.1200,77,97,200206
1.8084,0.1760,38.8700,77,97,200209
1.7546,0.1613,39.1600,77,97,200213
1.7644,0.1613,39.1200,77,97,200216
1.8133,0.1760,39.0900,77,97,200219
1.8671,0.1613,39.1900,77,97,200223
2.0088,0.1857,38.8700,77,97,200226
2.0772,0.1711,39.0600,77,97,200229
2.1896,0.1613,38.3300,77,97,200233
2.3558,0.1662,39.0900,77,97,200237
2.5464,0.1515,39.1200,77,97,200240
2.7468,0.1808,38.9600,77,97,200243
2.6784,0.1662,39.0600,77,97,200247
2.5464,0.1662,39.0600,77,97,200250
2.3265,0.1662,39.1200,77,97,200253
2.1310,0.1662,39.1200,77,97,200257
1.9892,0.1955,38.9600,77,97,200260
1.8573,0.1662,39.0900,77,97,200263
1.8133,0.1711,39.0000,77,97,200267
1.7546,0.1857,39.0900,77,97,200270
1.7400,0.1662,39.1200,77,97,200273
1.7400,0.1662,39.0900,77,97,200278
1.7204,0.1613,39.1200,77,97,200281
1.7400,0.1662,39.0000,77,97,200284
1.7058,0.1662,39.3200,77,97,200287
1.6960,0.1662,39.1900,77,97,200291
1.7107,0.1711,39.0300,77,97,200294
1.6911,0.1613,39.1200,77,97,200297
1.7253,0.1711,39.0000,77,97,200301
1.7155,0.1711,39.0000,77,97,200304
1.7400,0.1662,39.1200,77,97,200307
1.7204,0.1711,38.9600,77,97,200311
1.7449,0.1613,39.1200,77,97,200314
1.7693,0.1515,38.8400,77,97,200317
1.7400,0.1662,39.0600,77,97,200322
1.7449,0.1515,39.1200,77,97,200325
1.7498,0.1711,39.0900,77,97,200328
1.7546,0.1662,39.0900,77,97,200331
1.7986,0.1857,38.8700,77,97,200335
1.7644,0.1613,39.0600,77,97,200338
1.7742,0.1613,39.0300,77,97,200341
1.7791,0.1711,39.1200,77,97,200345
1.7791,0.1662,39.1900,77,97,200348
1.8182,0.1906,39.0000,77,97,200351
1.7986,0.1711,39.1200,77,97,200355
1.8133,0.1662,39.0600,77,97,200358
1.7986,0.1662,39.1200,77,97,200361
1.8084,0.1662,39.0900,77,97,200366
1.8426,0.1857,39.0000,77,97,200369
1.8182,0.1662,39.1200,77,97,200372
1.8475,0.1760,39.0000,77,97,200376
1.8280,0.1613,39.0900,77,97,200379
1.8328,0.1662,39.1200,77,97,200382
1.8475,0.1760,39.0300,77,97,200385
1.8377,0.1613,39.1200,77,97,200389
1.8671,0.1662,39.0000,77,97,200392
1.8524,0.1662,39.0900,77,97,200395
1.8573,0.1515,39.1200,77,97,200399
1.8719,0.2004,39.0600,77,97,200402
1.8768,0.1613,39.1200,77,97,200406
1.9110,0.1760,39.0900,77,97,200410
1.8671,0.1613,39.0900,77,97,200413
1.8817,0.1515,39.1600,77,97,200416
1.9013,0.1760,39.0600,77,97,200420
1.9062,0.1662,39.0900,77,97,200423
1.9648,0.1760,38.7700,77,97,200426
1.9306,0.1662,39.0300,77,97,200429
1.9208,0.1613,39.0900,77,97,200433
1.9355,0.1662,39.1200,77,97,200436
1.9453,0.1613,39.1600,77,97,200439
2.0039,0.1808,38.9000,77,97,200443
1.9844,0.1711,39.1200,77,97,200446
1.9941,0.1662,39.0300,77,97,200450
1.9892,0.1662,39.0900,77,97,200454
2.0039,0.1662,39.1200,77,97,200457
2.0430,0.1760,39.0000,77,97,200460
2.0235,0.1662,38.8400,77,97,200463
2.0479,0.1711,39.0600,77,97,200467
2.0332,0.1662,39.1200,77,97,200470
2.0332,0.1613,39.0300,77,97,200473
2.0723,0.1760,39.0600,77,97,200477
2.0528,0.1662,39.0900,77,97,200480
2.0870,0.1711,39.0000,77,97,200483
2.0577,0.1662,39.0900,77,97,200487
2.0674,0.1613,39.1600,77,97,200491
2.0870,0.1760,39.0600,77,97,200494
2.0528,0.1613,39.0900,77,97,200497
2.0723,0.1613,38.9600,77,97,200501
2.0528,0.1662,39.0300,77,97,200504
2.0381,0.1662,39.0300,77,97,200507
2.0332,0.1760,39.0600,77,97,200511
2.0088,0.1662,39.1200,77,97,200514
2.0332,0.1711,38.9000,77,97,200517
1.9844,0.1613,39.0900,77,97,200521
1.9550,0.1613,39.1200,77,97,200524
1.9355,0.1711,39.0900,77,97,200527
1.9208,0.1662,39.1600,77,97,200530
1.9208,0.1515,38.8400,77,97,200535
1.8475,0.1613,39.1200,77,97,200538
1.8328,0.1564,39.0900,77,97,200541
1.8182,0.1711,39.0600,77,97,200545
1.7937,0.1515,39.1200,77,97,200548
1.8231,0.1906,38.9300,77,97,200551
1.7693,0.1711,39.0600,77,97,200555
1.7546,0.1613,39.0600,77,97,200558
1.7302,0.1662,39.0900,77,97,200561
1.7302,0.1515,39.1200,77,97,200565
1.7546,0.1857,38.9300,77,97,200568
1.7253,0.1662,39.0900,77,97,200571
1.7400,0.1662,38.2700,77,97,200574
1.7204,0.2004,39.1200,77,97,200579
1.7253,0.1662,39.1200,77,97,200582
1.7498,0.1760,39.0000,77,97,200585
1.7302,0.1613,39.0900,77,97,200589
1.7595,0.1711,39.0000,77,97,200592
1.7302,0.1662,39.1200,77,97,200595
1.7400,0.1613,39.1200,77,97,200599
1.7546,0.1662,39.0300,77,97,200602
1.7498,0.1662,39.0900,77,97,200605
1.7791,0.1662,38.9300,77,97,200609
1.7546,0.1711,39.0900,77,97,200612
1.7693,0.1613,39.1200,77,97,200615
1.7937,0.1711,39.0000,77,97,200619
1.7791,0.1613,39.1200,77,97,200623
1.8231,0.1711,38.9000,77,97,200626
1.8035,0.1613,39.0300,77,97,200629
1.7791,0.1613,39.1200,77,97,200633
1.7937,0.1662,39.1200,77,97,200636
1.7840,0.1662,39.1200,77,97,200639
1.8524,0.1808,38.8700,77,97,200643
1.8084,0.1662,39.0900,77,97,200646
1.8035,0.1613,39.0900,77,97,200649
1.8084,0.1662,39.0900,77,97,200653
1.8084,0.1613,39.1200,77,97,200656
1.8573,0.1808,39.0000,77,97,200659
1.8231,0.1662,39.0900,77,97,200663
1.8231,0.1613,39.0300,77,97,200667
1.8133,0.1760,39.0900,77,97,200670
1.8084,0.1662,39.1200,77,97,200673
1.8328,0.1711,39.0300,77,97,200677
1.8231,0.1662,38.9600,77,97,200680
1.8573,0.1711,38.9300,77,97,200683
1.8182,0.1906,39.1600,77,97,200687
1.8182,0.1662,39.1200,77,97,200690
1.8475,0.1760,39.0000,77,97,200693
1.8280,0.1662,39.0900,77,97,200697
1.8524,0.1662,39.0000,77,97,200700
1.8231,0.1613,39.0300,77,97,200704
1.8280,0.1613,39.1200,77,97,200707
1.8426,0.1711,39.0300,77,97,200711
1.8231,0.1662,39.1200,77,97,200714
1.8524,0.1711,38.9000,77,97,200717
1.8719,0.1808,38.8400,77,97,200721
1.8280,0.1662,39.0600,77,97,200724
1.8377,0.1613,39.0600,77,97,200728
1.8426,0.1662,39.0300,77,97,200731
1.8377,0.1662,39.0900,77,97,200734
1.8719,0.1808,38.3600,77,97,200738
1.8377,0.1808,39.0600,77,97,200741
1.8671,0.1662,39.0300,77,97,200744
1.8328,0.1711,39.1200,77,97,200749
1.8377,0.1613,39.1200,77,97,200752
1.8622,0.1760,38.9300,77,97,200755
1.8280,0.1662,39.0900,77,97,200759
1.8475,0.1711,39.0300,77,97,200762
1.8622,0.1662,39.0900,77,97,200765
1.8328,0.1662,39.1200,77,97,200768
1.8475,0.1662,39.0600,77,97,200772
1.8328,0.1662,39.1200,77,97,200775
1.8573,0.1662,38.9600,77,97,200778
1.8622,0.1613,39.1200,77,97,200782
1.8377,0.1613,39.0900,77,97,200785
1.8475,0.1613,39.0600,77,97,200788
1.8377,0.1662,39.1200,77,97,200793
1.8719,0.1711,38.8700,77,97,200796
1.8328,0.1613,39.2800,77,97,200799
1.8377,0.1662,39.1200,77,97,200803
1.8524,0.1711,39.0600,77,97,200806
1.8817,0.1662,39.1200,77,97,200809
1.8915,0.1760,38.8400,77,97,200812
1.8573,0.1711,39.0300,77,97,200816
1.8475,0.1613,39.0900,77,97,200819
1.8426,0.1662,39.0900,77,97,200822
1.8377,0.1662,39.1900,77,97,200826
1.8964,0.1515,38.9300,77,97,200829
1.8622,0.1613,39.0600,77,97,200833
1.8573,0.1662,39.0300,77,97,200837
1.8475,0.1662,39.0900,77,97,200840
1.8817,0.1613,39.1200,77,97,200843
1.8964,0.1760,38.9600,77,97,200847
1.8915,0.1662,39.1200,77,97,200850
1.9208,0.1662,38.9300,77,97,200853
1.9062,0.1662,39.0900,77,97,200857
1.9159,0.1662,39.1200,77,97,200860
1.9404,0.1955,39.0600,77,97,200863
1.9355,0.1662,39.1200,77,97,200866
1.9648,0.1662,38.9600,77,97,200870
1.9355,0.1662,39.1200,77,97,200873
1.9404,0.1613,39.1600,77,97,200877
1.9795,0.1760,39.0000,77,97,200881
1.9648,0.1662,39.3200,77,97,200884
2.0186,0.1711,38.9300,77,97,200887
2.0039,0.1515,39.0000,77,97,200891
1.9844,0.1613,39.1200,77,97,200894
1.9844,0.1711,39.0900,77,97,200897
1.9648,0.1515,39.1200,77,97,200901
1.9990,0.2004,38.8400,77,97,200904
1.9355,0.1515,39.0600,77,97,200907
1.9159,0.1613,39.5400,77,97,200910
1.9306,0.1711,39.0900,77,97,200914
1.8719,0.1662,39.1200,77,97,200918
1.9110,0.1857,38.9000,77,97,200921
1.8622,0.1515,39.0600,77,97,200925
1.8524,0.1613,39.0900,77,97,200928
1.8426,0.1711,39.0900,77,97,200931
1.8231,0.1662,38.5800,77,97,200935
1.8426,0.1857,39.0300,77,97,200938
1.8084,0.1711,39.0900,77,97,200941
1.8084,0.1662,38.9600,77,97,200945
1.7889,0.1662,39.1200,77,97,200948
1.7889,0.1662,39.0900,77,97,200951
1.8280,0.1760,38.9600,77,97,200954
1.7840,0.1662,39.0900,77,97,200958
1.8084,0.1760,39.0300,77,97,200962
1.7840,0.1613,39.0900,77,97,200965
1.7937,0.1613,39.1200,77,97,200969
1.8035,0.1662,39.0300,77,97,200972
1.7986,0.1662,39.1200,77,97,200975
1.8133,0.1662,38.9600,77,97,200979
1.8182,0.1613,39.0900,77,97,200982
1.7840,0.1613,39.1200,77,97,200985
1.8035,0.1906,39.0600,77,97,200989
1.8671,0.1711,39.1900,77,97,200992
1.9355,0.1711,39.0000,77,97,200995
2.0039,0.1662,39.0900,77,97,200998
2.1457,0.1662,39.0900,77,97,201003
2.2825,0.1711,39.0900,77,97,201006
2.4438,0.1564,39.1200,77,97,201009
2.6979,0.1760,38.8400,77,97,201013
2.7175,0.1711,39.0300,77,97,201016
2.6393,0.1564,39.1200,77,97,201019
2.4438,0.2053,39.1200,77,97,201023
2.2678,0.1613,39.1200,77,97,201026
2.1017,0.1808,38.9300,77,97,201029
1.9208,0.1711,39.0300,77,97,201032
1.8524,0.1564,39.0300,77,97,201036
1.7986,0.1515,39.0900,77,97,201039
1.7742,0.1662,39.1200,77,97,201042
1.7986,0.1760,39.0000,77,97,201047
1.7498,0.1662,39.1200,77,97,201050
1.7498,0.1906,38.9600,77,97,201053
1.7253,0.1662,39.1200,77,97,201057
1.7155,0.1613,39.1200,77,97,201060
1.7253,0.1711,39.0600,77,97,201063
1.7107,0.1662,39.3500,77,97,201067
1.7351,0.1760,39.0000,77,97,201070
1.7058,0.1662,39.2800,77,97,201073
1.7058,0.1711,39.1600,77,97,201076
1.7302,0.1515,39.0300,77,97,201080
1.7204,0.1711,39.1200,77,97,201083
1.7595,0.1662,38.9000,77,97,201086
1.7498,0.1662,39.0000,77,97,201091
1.7449,0.1613,39.1200,77,97,201094
1.7546,0.1711,38.9600,77,97,201097
1.7644,0.1613,39.1900,77,97,201101
1.7986,0.1760,38.8700,77,97,201104
1.7742,0.1613,39.0600,77,97,201107
1.7742,0.1613,39.1200,77,97,201111
1.7889,0.1711,39.0900,77,97,201114
1.7889,0.1613,39.0900,77,97,201117
1.8328,0.1857,38.8700,77,97,201120
1.7986,0.1662,39.0600,77,97,201124
1.8084,0.1564,39.0600,77,97,201127
1.8133,0.1662,39.0900,77,97,201131
1.8133,0.1662,39.1200,77,97,201135
1.8524,0.1808,39.0600,77,97,201138
1.8280,0.1711,39.0600,77,97,201141
1.8426,0.1760,39.0000,77,97,201145
1.8377,0.1662,39.1600,77,97,201148
1.8475,0.1662,39.1200,77,97,201151
1.8817,0.1711,38.9600,77,97,201155
1.8671,0.1662,39.0900,77,97,201158
1.8817,0.1711,38.9600,77,97,201161
1.8622,0.1662,39.2200,77,97,201164
1.8719,0.1662,39.1200,77,97,201168
1.8964,0.1711,39.0000,77,97,201171
1.8817,0.1613,39.0600,77,97,201175
1.9159,0.1613,38.9600,77,97,201179
1.8866,0.1662,39.2800,77,97,201182
1.8915,0.1662,39.1200,77,97,201185
1.9159,0.1613,38.9600,77,97,201189
1.9062,0.1662,39.1200,77,97,201192
1.9550,0.1711,38.9000,77,97,201195
1.9306,0.1662,39.1200,77,97,201199
1.9306,0.1515,39.1200,77,97,201202
1.9550,0.1955,39.1200,77,97,201205
1.9599,0.1662,39.1200,77,97,201209
2.0186,0.1808,38.8100,77,97,201212
1.9892,0.1662,39.0300,77,97,201216
1.9844,0.1613,39.0600,77,97,201219
1.9941,0.1808,39.1200,77,97,201223
1.9941,0.1662,39.1200,77,97,201226
2.0674,0.1857,38.9300,77,97,201229
2.0283,0.1760,39.0600,77,97,201233
2.0186,0.1613,39.0600,77,97,201236
2.0186,0.1662,39.1600,77,97,201239
2.0235,0.1613,39.0900,77,97,201243
2.0723,0.1711,39.0000,77,97,201246
2.0479,0.1662,39.0900,77,97,201249
2.0723,0.1662,39.0000,77,97,201252
2.0528,0.1662,39.0900,77,97,201256
2.0528,0.1662,39.1200,77,97,201260
2.0821,0.1711,39.0600,77,97,201263
2.0626,0.1613,39.1200,77,97,201267
2.0919,0.1711,39.0000,77,97,201270
2.0577,0.1662,39.1200,77,97,201273
2.0430,0.1613,39.1200,77,97,201277
2.0772,0.1760,39.0000,77,97,201280
2.0332,0.1955,39.0900,77,97,201283
2.0430,0.1711,38.9300,77,97,201286
1.9990,0.1613,39.0300,77,97,201290
1.9697,0.1613,39.0900,77,97,201293
1.9550,0.1711,39.0600,77,97,201296
1.9110,0.1662,39.1200,77,97,201300
1.9208,0.1906,38.9000,77,97,201304
1.8719,0.1662,39.0900,77,97,201307
1.8377,0.1515,39.0900,77,97,201311
1.8182,0.1711,39.1200,77,97,201314
1.7742,0.1662,39.0900,77,97,201317
1.8084,0.1515,38.8400,77,97,201320
1.7595,0.1662,39.1200,77,97,201324
1.7351,0.1515,39.1200,77,97,201327
1.7351,0.1613,39.1900,77,97,201330
1.7009,0.1662,39.1200,77,97,201334
1.7155,0.1515,39.1200,77,97,201337
1.7595,0.1808,38.9300,77,97,201341
1.7204,0.1662,39.1200,77,97,201345
1.7449,0.1760,39.0000,77,97,201348
1.7253,0.1662,39.1200,77,97,201352
1.7155,0.1662,39.0300,77,97,201355
1.7449,0.1515,39.0600,77,97,201358
1.7302,0.1662,38.7100,77,97,201362
1.7546,0.1662,38.9600,77,97,201365
1.7400,0.1662,39.1200,77,97,201368
1.7498,0.1760,39.1200,77,97,201372
1.7644,0.1662,39.0600,77,97,201375
1.7595,0.1662,39.1200,77,97,201378
1.7937,0.1760,38.8700,77,97,201381
1.7546,0.1613,39.1200,77,97,201385
1.7644,0.1662,39.1600,77,97,201389
1.7889,0.1711,39.0900,77,97,201392
1.7791,0.1662,39.1200,77,97,201396
1.8280,0.1808,38.8400,77,97,201399
1.7937,0.1711,38.9600,77,97,201402
1.7791,0.1613,39.0900,77,97,201406
1.7840,0.1760,39.0900,77,97,201409
1.7791,0.1613,39.0900,77,97,201412
1.8377,0.1808,38.9300,77,97,201416
1.7986,0.1711,39.0900,77,97,201419
1.7986,0.1662,39.0600,77,97,201422
1.7840,0.1662,39.1200,77,97,201425
1.7840,0.1662,39.1200,77,97,201430
1.8182,0.1760,39.0000,77,97,201433
1.8035,0.1662,39.1600,77,97,201436
1.8231,0.1711,38.9600,77,97,201440
1.7937,0.1662,39.1200,77,97,201443
1.7986,0.1662,39.1200,77,97,201446
1.8133,0.1808,39.0600,77,97,201450
1.8084,0.1662,39.1200,77,97,201453
1.8377,0.1760,39.0000,77,97,201456
1.8035,0.1662,39.0900,77,97,201460
1.8035,0.1662,39.1200,77,97,201463
1.8280,0.1711,39.0300,77,97,201466
1.8084,0.1760,39.1200,77,97,201469
1.8475,0.1662,38.9000,77,97,201474
1.8231,0.1662,39.0600,77,97,201477
1.8084,0.1564,39.1200,77,97,201480
1.8182,0.1711,39.0600,77,97,201484
1.8084,0.1613,39.1200,77,97,201487
1.8573,0.1760,38.8700,77,97,201490
1.8231,0.1711,39.0900,77,97,201494
1.8231,0.1613,39.1200,77,97,201497
1.8231,0.1613,39.0900,77,97,201500
1.8084,0.1662,39.1200,77,97,201504
1.8671,0.1857,39.2500,77,97,201507
1.8231,0.1711,39.0900,77,97,201510
1.8280,0.1613,39.0900,77,97,201515
1.8231,0.1711,39.1200,77,97,201518
1.8182,0.1662,39.0900,77,97,201521
1.8475,0.1760,38.9600,77,97,201524
1.8280,0.1613,39.0600,77,97,201528
1.8377,0.1662,39.0600,77,97,201531
1.8280,0.1613,39.1200,77,97,201534
1.8280,0.1515,39.1200,77,97,201538
1.8573,0.2004,38.9300,77,97,201541
1.8280,0.1662,39.1200,77,97,201544
1.8475,0.1760,38.9300,77,97,201548
1.8231,0.1613,39.1200,77,97,201551
1.8231,0.1515,39.1200,77,97,201554
1.8573,0.1662,39.0300,77,97,201559
1.8328,0.1662,39.1200,77,97,201562
1.8524,0.1955,38.9300,77,97,201565
1.8328,0.1662,39.0900,77,97,201568
1.8328,0.1613,39.3500,77,97,201572
1.8426,0.1711,39.0600,77,97,201575
1.8377,0.1662,38.9600,77,97,201578
1.8719,0.1857,38.8700,77,97,201582
1.8280,0.1613,38.9000,77,97,201585
1.8280,0.1857,39.0900,77,97,201588
1.8475,0.1711,39.0600,77,97,201592
1.8377,0.1662,39.1600,77,97,201595
1.8817,0.1760,38.8400,77,97,201598
1.8475,0.1711,39.0300,77,97,201603
1.8280,0.1662,39.0600,77,97,201606
1.8328,0.1662,39.3200,77,97,201609
1.8377,0.1662,39.0900,77,97,201613
1.9013,0.1760,38.9300,77,97,201616
1.8719,0.1711,39.0900,77,97,201619
1.8915,0.1662,39.0300,77,97,201622
1.8866,0.1662,39.0900,77,97,201626
1.8964,0.1662,39.2200,77,97,201629
1.9355,0.1711,39.0000,77,97,201632
1.9159,0.1662,39.2800,77,97,201636
1.9550,0.1760,38.9600,77,97,201639
