ecg,gsr,temp,hr,spo2,timest
1.8964,0.1711,39.8600,94,97,50793
2.1408,0.1857,39.6700,94,97,50797
1.8377,0.1711,39.7700,94,97,50800
1.9795,0.1662,39.4800,94,97,50804
2.0723,0.2151,39.7300,94,97,50807
1.9404,0.2444,39.8600,94,97,50810
1.7058,0.2395,39.8600,94,97,50813
1.5934,0.2199,39.7300,94,97,50818
1.6520,0.1711,39.8300,94,97,50821
1.8524,0.1711,39.8300,94,97,50824
1.9306,0.2151,39.8600,94,97,50827
1.8231,0.2444,39.8600,94,97,50831
1.6471,0.2493,39.7000,94,97,50834
1.5347,0.1906,39.8300,94,97,50837
1.6325,0.1711,39.7300,94,97,50840
1.8084,0.1613,39.8600,94,97,50844
1.9159,0.2102,39.7300,94,97,50847
1.8377,0.2542,39.8000,94,97,50850
1.6276,0.2444,39.8600,94,97,50853
1.5543,0.2346,39.8300,94,97,50857
1.6178,0.1711,40.0000,94,97,50861
1.7986,0.1662,39.8600,94,97,50864
1.9306,0.2639,39.8000,94,97,50867
1.8426,0.2493,39.8600,94,97,50871
1.7498,0.2444,39.7000,94,97,50874
1.7546,0.2151,39.8600,94,97,50877
2.0137,0.1662,39.8900,94,97,50880
2.4145,0.1760,39.6700,94,97,50884
2.6442,0.2151,40.1000,94,97,50887
2.6588,0.2297,39.7300,94,97,50890
2.4389,0.2395,39.8300,94,97,50893
2.2630,0.2102,39.0000,94,97,50897
2.2678,0.1808,39.7300,94,97,50900
2.2239,0.1662,39.8600,94,97,50904
2.1799,0.2151,39.7300,94,97,50907
1.9208,0.2493,39.8900,94,97,50911
1.6178,0.2444,39.8600,94,97,50914
1.4663,0.2199,39.7300,94,97,50917
1.4956,0.1760,39.8600,94,97,50920
1.6862,0.1711,39.7300,94,97,50924
1.7889,0.2102,39.8600,94,97,50927
1.7204,0.2395,39.8900,94,97,50930
1.5396,0.2786,39.6700,94,97,50933
1.4272,0.2151,39.9300,94,97,50937
1.5347,0.1711,39.7300,94,97,50940
1.7107,0.1662,39.9300,94,97,50944
1.8280,0.2151,39.8600,94,97,50947
1.7840,0.2493,39.7700,94,97,50951
1.5689,0.2444,39.8600,94,97,50954
1.5005,0.2102,39.7700,94,97,50957
1.5738,0.1760,39.8600,94,97,50960
1.7742,0.1662,39.8300,94,97,50964
1.9208,0.2199,39.7700,94,97,50967
1.8084,0.2444,39.8600,94,97,50970
1.6373,0.2444,39.7700,94,97,50973
1.5347,0.2297,40.0600,94,97,50977
1.6276,0.1613,39.8600,94,97,50980
1.8524,0.1760,39.7300,94,97,50983
1.9501,0.2102,39.8300,94,97,50987
1.8622,0.2444,39.7300,94,97,50991
1.6569,0.2444,39.8300,94,97,50994
1.5738,0.2102,39.8900,94,97,50997
1.6911,0.1808,39.7300,94,97,51000
1.8622,0.1662,39.8300,94,97,51004
2.0235,0.2151,39.7700,94,97,51007
1.9208,0.2395,39.8600,94,97,51010
1.7058,0.2395,39.8900,94,97,51013
1.6373,0.2199,39.7700,94,97,51017
1.7058,0.1711,39.8600,94,97,51020
1.9306,0.1662,39.7000,94,97,51023
2.0283,0.2102,39.8600,94,97,51026
1.9355,0.2444,39.8900,94,97,51031
1.7791,0.2590,39.7000,94,97,51034
1.6667,0.2151,39.8600,94,97,51037
1.7889,0.1711,39.7700,94,97,51040
1.9453,0.1662,39.8000,94,97,51044
2.0626,0.1906,39.8600,94,97,51047
1.9990,0.2542,39.7300,94,97,51050
1.7791,0.2444,39.8300,94,97,51053
1.7107,0.2151,39.6700,94,97,51057
1.7889,0.1711,39.8900,94,97,51060
1.9844,0.1613,39.8600,94,97,51063
2.1359,0.2199,39.7700,94,97,51067
2.0186,0.2444,39.9600,94,97,51070
1.8475,0.2444,39.7300,94,97,51074
1.7498,0.2102,39.8300,94,97,51077
1.8524,0.1662,39.8300,94,97,51081
2.1017,0.1711,39.7000,94,97,51084
2.1848,0.2199,39.8300,94,97,51087
2.1017,0.2444,39.7300,94,97,51090
1.8915,0.2444,39.8600,94,97,51094
1.7937,0.2004,39.8600,94,97,51097
1.9208,0.1760,39.8600,94,97,51100
2.1310,0.1613,39.8600,94,97,51103
2.2336,0.2102,39.8600,94,97,51107
2.1163,0.2444,39.8300,94,97,51110
1.9208,0.2395,40.0000,94,97,51113
1.8573,0.1906,39.7700,94,97,51117
1.9208,0.1711,39.8900,94,97,51121
2.1310,0.1613,39.7300,94,97,51124
2.2141,0.2102,39.8300,94,97,51127
2.1114,0.2395,39.8900,94,97,51130
1.9453,0.2493,39.1900,94,97,51134
1.8182,0.2151,39.9300,94,97,51137
1.9013,0.1760,39.7300,94,97,51140
2.0626,0.1662,39.8600,94,97,51143
2.1554,0.2053,39.8600,94,97,51147
2.0626,0.2542,39.8300,94,97,51150
1.8231,0.2395,39.8600,94,97,51153
1.7253,0.2102,39.7700,94,97,51156
1.7644,0.1711,39.8900,94,97,51161
1.9355,0.1613,39.8600,94,97,51164
2.0528,0.2199,39.8000,94,97,51167
1.9110,0.2493,39.8300,94,97,51170
1.7155,0.2444,39.7300,94,97,51174
1.5885,0.2102,39.7000,94,97,51177
1.6569,0.1613,39.8600,94,97,51180
1.8719,0.1711,39.8000,94,97,51183
1.9501,0.2102,39.8600,94,97,51187
1.8524,0.2444,39.7300,94,97,51190
1.6373,0.2346,39.8300,94,97,51193
1.5396,0.2053,39.8600,94,97,51196
1.6716,0.1857,39.7300,94,97,51201
1.8182,0.1662,39.8600,94,97,51204
1.9550,0.2151,39.7300,94,97,51207
1.8328,0.2444,39.8600,94,97,51210
1.6422,0.2639,39.8900,94,97,51214
1.5738,0.2199,39.8900,94,97,51217
1.6471,0.1662,39.8600,94,97,51220
1.8524,0.1662,39.7300,94,97,51223
1.9453,0.2004,39.8600,94,97,51227
1.8573,0.2395,39.8300,94,97,51230
1.7009,0.2493,39.6000,94,97,51233
1.5836,0.2102,39.8000,94,97,51236
1.6764,0.1662,39.7700,94,97,51240
1.8622,0.1564,39.8600,94,97,51244
1.9746,0.2053,39.8600,94,97,51247
1.9159,0.2297,39.7300,94,97,51250
1.7009,0.2395,39.8600,94,97,51254
1.6129,0.2102,39.7300,94,97,51257
1.6813,0.1662,39.8300,94,97,51260
1.8719,0.1613,39.8600,94,97,51263
2.0235,0.2151,40.1000,94,97,51267
1.9110,0.2444,39.8300,94,97,51270
1.7253,0.2444,39.7300,94,97,51273
1.6422,0.2004,39.8300,94,97,51276
1.6960,0.1515,39.8600,94,97,51280
1.9257,0.1711,39.6700,94,97,51283
2.0186,0.2102,39.9300,94,97,51287
1.9355,0.2346,39.7700,94,97,51290
1.7253,0.2346,39.8600,94,97,51294
1.6325,0.2102,39.8600,94,97,51297
1.7400,0.1808,39.8300,94,97,51300
1.9062,0.1613,39.9600,94,97,51303
2.0381,0.2004,39.8000,94,97,51307
1.9306,0.2395,39.8300,94,97,51310
1.7400,0.2297,39.8600,94,97,51313
1.6716,0.2248,39.7000,94,97,51316
1.7302,0.1515,39.8300,94,97,51320
1.9208,0.1564,39.9600,94,97,51323
2.0381,0.2053,39.8600,94,97,51326
1.9501,0.2346,39.8600,94,97,51330
1.7986,0.2835,39.6700,94,97,51334
1.6667,0.2151,39.6700,94,97,51337
1.7400,0.1613,39.7700,94,97,51340
1.9159,0.1515,39.8600,94,97,51343
2.0381,0.1955,39.8600,94,97,51347
2.0039,0.2786,39.5100,94,97,51350
1.7742,0.2395,39.8300,94,97,51353
1.6960,0.2004,39.7700,94,97,51356
1.7302,0.1662,40.0000,94,97,51360
1.9208,0.1564,39.8900,94,97,51363
2.1017,0.2151,39.7300,94,97,51366
1.9892,0.2395,39.8000,94,97,51369
1.7937,0.2346,39.8000,94,97,51374
1.6862,0.2004,39.8900,94,97,51377
1.7595,0.1613,39.8600,94,97,51380
2.0186,0.1711,39.7700,94,97,51383
2.1261,0.2053,39.8000,94,97,51387
2.0430,0.2346,39.8300,94,97,51390
1.8524,0.2395,38.9600,94,97,51393
1.7595,0.1906,39.8600,94,97,51396
1.8915,0.1808,39.6400,94,97,51399
2.0577,0.1613,39.8300,94,97,51403
2.1945,0.1955,39.8300,94,97,51406
2.1359,0.2395,39.8600,94,97,51409
2.1994,0.2053,39.8300,94,97,51414
2.0870,0.2297,39.8600,94,97,51417
1.9208,0.2444,39.7000,94,97,51420
1.7889,0.2053,39.8300,94,97,51424
1.8622,0.1613,39.7000,94,97,51427
2.0332,0.1564,39.8600,94,97,51430
2.1065,0.2004,39.8300,94,97,51433
2.0186,0.2395,39.7000,94,97,51437
1.7595,0.2444,39.8000,94,97,51440
1.6422,0.2053,39.7700,94,97,51443
1.6764,0.1760,39.8600,94,97,51446
1.8475,0.1564,39.8600,94,97,51450
1.9795,0.2151,39.7700,94,97,51453
1.8573,0.2395,39.8300,94,97,51457
1.6569,0.2444,39.7000,94,97,51460
1.5347,0.2102,39.8000,94,97,51464
1.6178,0.1613,39.8900,94,97,51467
1.8280,0.1662,39.5400,94,97,51470
1.9208,0.2053,39.8300,94,97,51473
1.8377,0.2444,39.7300,94,97,51477
1.6325,0.2542,39.8600,94,97,51480
1.5347,0.2053,39.9600,94,97,51483
1.6422,0.1760,39.7700,94,97,51486
1.8084,0.1613,39.8600,94,97,51490
1.9355,0.2102,39.7300,94,97,51493
1.8231,0.2346,39.8900,94,97,51496
1.6373,0.2346,39.8600,94,97,51500
1.6080,0.2199,39.7700,94,97,51504
1.7449,0.1711,39.8900,94,97,51507
2.0772,0.1564,39.7700,94,97,51510
2.3412,0.2004,39.8900,94,97,51513
2.4291,0.2346,39.9300,94,97,51517
2.4291,0.2444,39.6700,94,97,51520
2.3803,0.1906,39.8300,94,97,51523
2.4438,0.1613,39.8600,94,97,51526
2.5220,0.2053,39.8300,94,97,51530
2.4780,0.2004,39.8600,94,97,51533
2.2630,0.2835,39.6700,94,97,51536
1.8719,0.2395,39.8600,94,97,51539
1.6129,0.2053,39.7700,94,97,51544
1.5543,0.1711,39.8600,94,97,51547
1.6716,0.1564,39.8600,94,97,51550
1.8133,0.2102,39.7300,94,97,51553
1.6960,0.2346,39.8000,94,97,51557
1.5152,0.2346,39.7700,94,97,51560
1.4076,0.2102,39.8600,94,97,51563
1.4761,0.1760,39.8600,94,97,51566
1.7107,0.1662,39.6700,94,97,51570
1.8573,0.2053,39.8000,94,97,51573
1.7498,0.2346,39.7300,94,97,51576
1.5640,0.2346,39.9600,94,97,51579
1.4614,0.1906,39.8600,94,97,51584
1.5787,0.1808,39.6700,94,97,51587
1.7449,0.1564,39.8300,94,97,51590
1.8817,0.1955,39.8000,94,97,51593
1.7986,0.2346,39.8300,94,97,51597
1.6129,0.2346,39.0000,94,97,51600
1.5494,0.2199,39.7300,94,97,51603
1.5885,0.1711,39.8000,94,97,51606
1.8035,0.1564,39.7700,94,97,51610
1.9208,0.2053,39.8300,94,97,51613
1.8475,0.2297,39.9600,94,97,51616
1.7155,0.2493,39.7000,94,97,51619
1.5982,0.2151,39.8000,94,97,51623
1.6325,0.1613,39.8000,94,97,51627
1.8231,0.1808,39.8600,94,97,51630
1.9550,0.1955,39.8600,94,97,51633
1.9550,0.2493,39.7000,94,97,51637
1.7107,0.2346,39.8300,94,97,51640
1.6031,0.2053,39.8000,94,97,51643
1.7009,0.1662,39.8600,94,97,51646
1.8622,0.1515,39.9600,94,97,51650
2.0626,0.2102,39.7000,94,97,51653
1.9404,0.2444,39.8300,94,97,51656
1.7498,0.2346,39.8900,94,97,51659
1.6422,0.2102,39.9300,94,97,51663
1.7107,0.1613,39.8300,94,97,51666
1.9648,0.1711,39.6700,94,97,51670
2.0577,0.2004,39.7700,94,97,51673
1.9795,0.2297,39.8000,94,97,51677
1.7889,0.2395,39.8300,94,97,51680
1.6813,0.2053,39.8600,94,97,51683
1.7937,0.1808,39.6700,94,97,51686
1.9550,0.1613,39.7700,94,97,51690
2.0919,0.1906,39.8900,94,97,51693
2.0283,0.2346,39.8600,94,97,51696
1.8377,0.2297,39.8900,94,97,51699
1.7840,0.2248,39.7000,94,97,51703
1.8133,0.1662,39.8300,94,97,51706
2.0039,0.1515,39.8000,94,97,51709
2.1554,0.2004,39.8300,94,97,51713
2.0870,0.2444,39.8600,94,97,51716
1.9501,0.2590,39.7300,94,97,51720
1.8035,0.2102,39.7300,94,97,51723
1.8573,0.1613,39.7700,94,97,51726
2.0626,0.1564,39.8300,94,97,51729
2.1994,0.1955,39.8600,94,97,51733
2.1945,0.2493,39.6000,94,97,51736
1.9453,0.2297,39.8000,94,97,51739
1.8328,0.2053,39.8600,94,97,51742
1.8964,0.1711,39.8300,94,97,51746
2.0772,0.1564,39.8600,94,97,51749
2.2727,0.2102,39.6400,94,97,51752
2.1799,0.2346,39.8300,94,97,51756
1.9550,0.2346,39.8600,94,97,51760
1.8328,0.2151,39.8000,94,97,51763
1.8866,0.1662,39.8600,94,97,51766
2.1114,0.1662,39.5700,94,97,51769
2.1994,0.1955,39.7300,94,97,51773
2.1114,0.2346,39.8600,94,97,51776
1.9013,0.2395,39.8900,94,97,51779
1.7546,0.2102,39.8600,94,97,51782
1.8280,0.1760,39.5400,94,97,51786
1.9404,0.1564,39.8300,94,97,51789
2.0577,0.1906,39.8300,94,97,51792
1.9795,0.2395,39.8600,94,97,51795
1.7595,0.2346,39.8600,94,97,51800
1.6862,0.2248,39.5700,94,97,51803
1.6618,0.1711,38.9300,94,97,51806
1.8426,0.1564,39.8600,94,97,51809
1.9550,0.2053,39.8000,94,97,51813
1.8768,0.2297,39.8600,94,97,51816
1.7204,0.2493,39.5700,94,97,51819
1.5543,0.1906,39.7700,94,97,51822
1.5836,0.1662,39.9300,94,97,51826
1.7986,0.1564,39.8300,94,97,51829
1.9062,0.1906,39.8900,94,97,51832
1.9110,0.2395,39.5700,94,97,51835
1.6667,0.2346,39.8300,94,97,51840
1.5396,0.2248,39.8900,94,97,51843
1.5934,0.1711,39.8300,94,97,51846
1.7791,0.1564,39.8900,94,97,51849
1.9697,0.2053,39.6400,94,97,51853
1.8866,0.2395,39.7700,94,97,51856
1.6911,0.2346,39.8900,94,97,51859
1.5738,0.2102,39.8300,94,97,51862
1.6129,0.1662,39.7000,94,97,51866
1.8426,0.1857,39.6000,94,97,51869
1.9501,0.1955,39.7300,94,97,51872
1.8915,0.2346,39.8900,94,97,51875
1.7107,0.2444,39.8300,94,97,51879
1.5787,0.2102,39.8300,94,97,51883
1.6667,0.1760,39.6000,94,97,51886
1.8133,0.1515,39.8000,94,97,51889
1.9746,0.1906,39.8900,94,97,51893
1.9404,0.2346,39.8000,94,97,51896
1.7351,0.2639,39.8600,94,97,51899
1.6520,0.2199,39.6000,94,97,51902
1.6764,0.1808,39.7300,94,97,51906
1.8377,0.1515,39.8000,94,97,51909
2.0039,0.1955,39.8000,94,97,51912
1.9453,0.2346,39.8900,94,97,51915
1.8035,0.2493,39.6000,94,97,51919
1.6373,0.2102,39.8000,94,97,51922
1.6716,0.1613,39.8300,94,97,51926
1.8622,0.1564,39.8300,94,97,51929
2.0088,0.1906,39.8900,94,97,51933
2.0088,0.2444,39.6000,94,97,51936
1.7742,0.2297,39.8300,94,97,51939
1.6667,0.2102,39.8600,94,97,51942
1.7058,0.1711,39.8600,94,97,51946
1.8671,0.1564,39.9300,94,97,51949
2.0723,0.2346,39.5700,94,97,51952
1.9941,0.2395,39.7000,94,97,51955
1.7889,0.2395,39.8600,94,97,51959
1.6716,0.2199,39.8000,94,97,51962
1.6911,0.1711,39.8600,94,97,51965
1.9159,0.1662,39.6000,94,97,51969
2.0381,0.1857,40.0600,94,97,51973
1.9795,0.2346,39.8600,94,97,51976
1.8035,0.2493,39.8300,94,97,51979
1.6618,0.2102,39.8300,94,97,51982
1.7644,0.1808,39.6400,94,97,51986
1.8817,0.1515,39.8600,94,97,51989
2.0332,0.1906,39.8600,94,97,51992
2.0186,0.2444,39.7700,94,97,51995
1.8035,0.2395,39.8600,94,97,51999
1.7058,0.2199,39.6000,94,97,52002
1.7155,0.1808,39.7700,94,97,52005
1.8866,0.1564,39.8600,94,97,52008
2.0821,0.1955,39.7700,94,97,52013
2.0039,0.2346,39.8600,94,97,52016
1.8671,0.2444,39.6400,94,97,52019
2.0870,0.2639,39.6400,94,97,52023
1.8524,0.2395,39.7700,94,97,52026
1.7400,0.2053,39.8300,94,97,52029
1.8182,0.1760,39.8300,94,97,52032
2.0186,0.1515,39.9300,94,97,52036
2.2434,0.2151,39.5700,94,97,52039
2.1505,0.2493,39.8300,94,97,52042
1.9501,0.2346,39.8300,94,97,52045
1.8328,0.2151,39.9600,94,97,52049
1.8768,0.1711,39.8600,94,97,52052
2.1212,0.1515,39.6000,94,97,52056
2.2190,0.1955,39.7300,94,97,52060
2.1310,0.2297,39.8300,94,97,52063
1.9355,0.2395,39.6700,94,97,52066
1.7986,0.2102,39.8600,94,97,52069
1.8768,0.1808,39.6700,94,97,52072
2.0039,0.1564,39.7700,94,97,52076
2.1017,0.1906,39.8600,94,97,52079
2.0235,0.2297,39.8300,94,97,52082
1.7840,0.2395,39.8600,94,97,52085
1.6667,0.2297,39.6000,94,97,52089
1.6618,0.1711,39.8000,94,97,52092
1.8133,0.1613,39.8300,94,97,52096
1.9550,0.1955,39.9300,94,97,52099
1.8768,0.2346,39.8600,94,97,52103
1.7253,0.2542,39.5700,94,97,52106
1.5543,0.2151,39.7700,94,97,52109
1.5885,0.1613,39.8600,94,97,52113
1.7644,0.1564,39.8300,94,97,52116
1.9110,0.1906,39.8900,94,97,52119
1.9062,0.2444,39.5700,94,97,52122
1.6764,0.2346,39.8300,94,97,52126
1.5445,0.2004,39.8600,94,97,52129
1.5885,0.1711,39.8300,94,97,52132
1.7693,0.1564,39.8900,94,97,52135
1.9648,0.2053,39.5700,94,97,52139
1.8719,0.2395,39.8000,94,97,52143
1.6716,0.2248,39.8900,94,97,52146
1.5836,0.2297,39.8000,94,97,52149
1.7253,0.1662,39.8600,94,97,52152
2.0479,0.1613,39.6400,94,97,52156
2.3118,0.1906,39.7700,94,97,52159
2.4145,0.2248,39.8900,94,97,52162
2.3851,0.2395,39.8000,94,97,52165
2.3460,0.2102,39.8300,94,97,52169
2.4633,0.1760,39.6000,94,97,52172
2.5122,0.1564,39.8300,94,97,52175
2.5024,0.1906,39.8900,94,97,52178
2.2825,0.2395,39.8300,94,97,52183
1.9159,0.2395,39.8300,94,97,52186
1.6764,0.2542,39.6000,94,97,52189
1.5591,0.1711,39.7700,94,97,52192
1.6325,0.1564,39.8000,94,97,52196
1.7546,0.1955,39.8600,94,97,52199
1.7009,0.2297,39.8300,94,97,52202
1.5640,0.2444,39.6400,94,97,52205
1.4076,0.2199,39.8000,94,97,52209
1.4418,0.1613,39.8600,94,97,52212
1.6325,0.1515,39.8300,94,97,52215
1.7840,0.1955,39.8600,94,97,52218
1.8035,0.2444,39.6700,94,97,52222
1.5885,0.2395,39.8000,94,97,52226
1.4614,0.2102,39.8600,94,97,52229
1.5200,0.1711,39.8300,94,97,52232
1.7009,0.1515,39.8600,94,97,52236
1.9062,0.1955,39.6400,94,97,52239
1.8475,0.2395,39.6400,94,97,52242
1.6569,0.2346,39.8600,94,97,52245
1.5445,0.2199,39.8000,94,97,52249
1.5689,0.1662,39.8600,94,97,52252
1.8133,0.1564,39.6000,94,97,52255
1.9257,0.1906,39.7300,94,97,52258
1.8817,0.2346,39.8600,94,97,52262
1.7204,0.2395,39.8000,94,97,52265
1.5640,0.2102,39.7700,94,97,52269
1.6569,0.1711,39.6000,94,97,52272
1.7840,0.1515,39.8600,94,97,52276
1.9844,0.1906,39.8600,94,97,52279
1.9648,0.2346,39.8600,94,97,52282
1.7400,0.2395,39.8600,94,97,52285
1.6373,0.2199,39.8000,94,97,52289
1.6569,0.1711,39.7700,94,97,52292
1.8280,0.1515,39.8600,94,97,52295
2.0186,0.1906,39.7700,94,97,52298
1.9648,0.2346,39.8900,94,97,52302
1.8231,0.2493,39.6400,94,97,52305
1.6520,0.2151,39.8300,94,97,52308
1.6862,0.1662,39.8600,94,97,52312
1.8817,0.1564,39.8300,94,97,52316
2.0332,0.2151,39.8900,94,97,52319
2.0430,0.2395,39.6400,94,97,52322
1.8231,0.2346,39.8600,94,97,52325
1.6911,0.2102,39.8600,94,97,52329
1.7400,0.1711,39.8000,94,97,52332
1.9159,0.1564,39.8300,94,97,52335
2.1261,0.2151,39.6700,94,97,52338
2.0723,0.2395,39.7000,94,97,52342
1.8768,0.2395,39.8600,94,97,52345
1.7644,0.2199,39.8000,94,97,52348
1.7840,0.1711,39.8600,94,97,52352
2.0039,0.1564,39.7000,94,97,52356
2.1457,0.1906,39.8300,94,97,52359
2.1261,0.2346,39.8600,94,97,52362
1.9599,0.2737,39.7700,94,97,52365
1.8084,0.2102,39.9300,94,97,52369
1.8964,0.1711,39.7000,94,97,52372
2.0235,0.1515,39.8900,94,97,52375
2.1945,0.1808,39.8600,94,97,52378
2.1848,0.2395,39.8000,94,97,52382
1.9844,0.2395,39.8900,94,97,52385
1.8768,0.2199,39.6000,94,97,52388
1.8866,0.1711,39.7700,94,97,52391
2.0479,0.1515,39.8900,94,97,52396
2.2385,0.2004,39.7700,94,97,52399
2.1799,0.2395,39.8600,94,97,52402
2.0332,0.2688,39.6000,94,97,52405
1.8524,0.2151,39.8000,94,97,52409
1.8671,0.1613,39.8900,94,97,52412
2.0430,0.1515,39.8000,94,97,52415
2.1848,0.1857,40.0300,94,97,52418
2.1848,0.2297,39.6700,94,97,52422
1.9404,0.2395,39.8600,94,97,52425
1.7693,0.2199,39.8000,94,97,52428
1.7889,0.1760,39.7700,94,97,52431
1.9159,0.1515,39.8900,94,97,52435
2.0968,0.1906,39.6000,94,97,52439
2.0235,0.2297,39.7700,94,97,52442
1.8133,0.2346,39.8600,94,97,52445
1.6618,0.2199,39.7000,94,97,52449
1.6422,0.1515,39.8300,94,97,52452
1.8182,0.1564,39.6700,94,97,52455
1.9453,0.1857,39.8300,94,97,52458
1.9062,0.2346,39.8600,94,97,52462
1.7351,0.2444,39.7700,94,97,52465
1.5591,0.2151,39.8600,94,97,52468
1.5934,0.1760,39.6700,94,97,52471
1.7351,0.1564,39.8600,94,97,52475
1.8964,0.1857,39.9600,94,97,52478
1.8915,0.2395,39.7700,94,97,52482
1.6911,0.2395,39.9300,94,97,52485
1.5640,0.2199,39.6700,94,97,52489
1.5689,0.1760,39.7300,94,97,52492
1.7253,0.1515,39.8300,94,97,52495
1.9355,0.1955,39.7300,94,97,52498
1.8768,0.2346,39.8900,94,97,52502
1.7253,0.2444,39.6400,94,97,52505
1.5543,0.2151,39.8300,94,97,52508
1.5738,0.1760,39.8900,94,97,52511
1.7449,0.1564,39.8000,94,97,52515
1.9159,0.1857,39.8600,94,97,52518
1.9257,0.2346,39.6700,94,97,52521
1.7155,0.2395,39.8600,94,97,52525
1.5836,0.2151,39.8600,94,97,52529
1.6178,0.1808,39.8600,94,97,52532
1.7742,0.1515,39.8300,94,97,52535
1.9697,0.1906,39.6700,94,97,52538
1.9355,0.2297,39.7700,94,97,52542
1.7449,0.2395,39.8600,94,97,52545
1.6178,0.2199,39.7000,94,97,52548
1.6227,0.1711,39.8900,94,97,52551
1.8182,0.1564,39.7000,94,97,52555
1.9648,0.1857,39.8600,94,97,52558
1.9453,0.2297,39.8600,94,97,52561
1.7742,0.2297,39.8000,94,97,52564
1.6178,0.2199,39.7700,94,97,52569
1.6618,0.1760,39.6700,94,97,52572
1.8084,0.1564,39.8600,94,97,52575
1.9795,0.1857,39.9300,94,97,52578
1.9795,0.2297,39.7300,94,97,52582
1.7791,0.2395,39.8300,94,97,52585
1.6520,0.2102,39.6700,94,97,52588
1.6618,0.1760,39.8600,94,97,52591
1.8280,0.1515,39.8600,94,97,52595
2.0235,0.1906,39.9300,94,97,52598
1.9941,0.2346,39.8300,94,97,52601
1.8328,0.2395,39.6000,94,97,52604
1.6569,0.2151,39.8000,94,97,52609
1.6667,0.1711,39.8600,94,97,52612
1.8524,0.1515,39.8300,94,97,52615
2.0137,0.1857,39.8600,94,97,52618
2.0186,0.2688,39.7000,94,97,52622
1.8084,0.2346,39.8600,94,97,52625
1.6569,0.2151,39.8600,94,97,52628
1.7009,0.1808,39.7300,93,97,52631
1.6667,0.2199,39.8300,93,97,52636
1.6911,0.1711,39.9600,93,97,52639
1.9062,0.1564,39.5700,93,97,52643
2.0283,0.1857,39.8900,93,97,52646
1.9746,0.2346,39.8600,93,97,52649
1.8133,0.2493,39.8000,93,97,52653
1.6569,0.2151,39.0000,93,97,52657
1.7253,0.1760,39.6000,93,97,52660
1.8719,0.1515,39.8000,93,97,52663
2.0381,0.1906,39.8600,93,97,52666
2.0235,0.2493,39.8000,93,97,52670
1.8280,0.2395,39.8600,93,97,52673
1.7351,0.2199,39.6400,93,97,52676
1.7937,0.1760,39.7700,93,97,52679
1.9306,0.1515,39.9600,93,97,52683
2.1163,0.1906,39.8000,93,97,52686
2.0626,0.2346,39.8900,93,97,52689
1.9355,0.2493,39.6400,93,97,52692
1.7742,0.2199,39.8000,93,97,52697
1.8231,0.1760,39.8900,93,97,52700
2.0332,0.1564,39.8300,93,97,52703
2.1848,0.1906,39.8600,93,97,52706
2.1994,0.2395,39.7000,93,97,52710
1.9648,0.2395,39.8600,93,97,52713
1.8231,0.2151,39.8600,93,97,52716
1.8573,0.1808,39.7300,93,97,52719
2.0088,0.1515,39.8600,93,97,52723
2.1994,0.1955,39.7300,93,97,52726
2.1212,0.2395,39.7700,93,97,52729
1.8964,0.2395,39.8600,93,97,52732
1.7449,0.2248,39.7700,93,97,52737
1.7204,0.1711,39.8000,93,97,52740
1.9013,0.1564,39.6400,93,97,52743
2.0039,0.1906,39.8300,93,97,52746
1.9453,0.2346,39.8600,93,97,52750
1.7498,0.2395,39.8000,93,97,52753
1.5787,0.2151,39.7700,93,97,52756
1.6227,0.1760,39.6400,93,97,52759
1.7595,0.1613,39.8600,93,97,52763
1.9110,0.1857,39.8600,93,97,52766
1.8866,0.2395,39.8300,93,97,52769
1.6862,0.2395,39.8600,93,97,52772
1.5689,0.2199,39.6000,93,97,52776
1.5787,0.1760,39.7300,93,97,52780
1.7400,0.1466,39.8600,93,97,52783
1.9306,0.2004,39.8300,93,97,52786
1.9013,0.2346,39.8600,93,97,52790
1.7302,0.2444,39.6700,93,97,52793
1.5591,0.2151,39.8000,93,97,52796
1.5836,0.1711,39.8600,93,97,52799
1.7546,0.1711,39.8000,93,97,52803
1.9355,0.1857,39.8600,93,97,52806
2.0137,0.2444,39.6400,93,97,52809
1.8964,0.2493,39.8600,93,97,52812
1.8915,0.2151,39.7300,93,97,52816
2.1017,0.1808,39.8000,93,97,52819
2.3900,0.1564,39.8300,93,97,52823
2.7273,0.1955,39.6400,93,97,52826
2.6540,0.2346,39.7300,93,97,52830
2.3900,0.2395,39.8000,93,97,52833
2.1408,0.2248,39.8600,93,97,52836
1.9648,0.1662,39.8900,93,97,52839
1.9941,0.1564,39.6400,93,97,52843
1.9746,0.2151,39.8000,93,97,52846
1.8280,0.2297,40.0600,93,97,52849
1.5836,0.2444,39.8000,93,97,52852
1.4125,0.2151,39.8600,93,97,52856
1.3978,0.1760,39.6700,93,97,52859
1.5445,0.1564,39.8600,93,97,52862
1.7302,0.1857,39.8600,93,97,52866
1.7498,0.2395,39.8000,93,97,52870
1.5689,0.2395,39.8600,93,97,52873
1.4614,0.2102,39.7000,93,97,52876
1.4761,0.1760,39.7300,93,97,52879
1.6813,0.1320,39.8300,93,97,52883
1.8475,0.1955,39.7700,93,97,52886
1.8231,0.2297,39.9600,93,97,52889
1.6764,0.2444,39.6700,93,97,52892
1.5054,0.2151,39.8000,93,97,52896
1.5249,0.1711,39.8300,93,97,52899
1.7058,0.1564,39.8000,93,97,52902
1.8719,0.1857,39.8600,93,97,52905
1.8964,0.2346,39.7000,93,97,52910
1.6862,0.2395,39.8600,93,97,52913
1.5445,0.2151,39.8600,93,97,52916
1.5787,0.1808,39.8000,93,97,52919
1.7400,0.1564,39.8600,93,97,52923
1.9453,0.1906,39.6400,93,97,52926
1.9159,0.2346,39.8000,93,97,52929
1.7302,0.2395,39.8600,93,97,52932
1.6373,0.2199,39.7000,93,97,52936
1.6080,0.1760,39.8600,93,97,52939
1.8035,0.1564,39.0900,93,97,52942
1.9746,0.1808,39.8300,93,97,52945
1.9501,0.2493,39.8900,93,97,52948
1.7889,0.2444,39.8900,93,97,52953
1.6373,0.2151,39.8600,93,97,52956
1.6716,0.2151,39.7000,93,97,52959
1.8231,0.1515,39.9600,93,97,52963
2.0235,0.1857,39.8300,93,97,52966
2.0186,0.2542,39.7700,93,97,52969
1.8231,0.2493,39.8600,93,97,52972
1.6960,0.2199,39.7700,93,97,52976
1.7009,0.1711,39.8000,93,97,52979
1.8671,0.1515,39.8600,93,97,52982
2.0626,0.1711,39.7300,93,97,52985
2.0332,0.2346,39.8600,93,97,52989
1.8817,0.2444,39.8000,93,97,52993
1.7107,0.2151,39.8300,93,97,52996
1.7302,0.1906,39.8900,93,97,52999
1.9159,0.1564,39.8000,93,97,53002
2.0870,0.1857,39.8600,93,97,53006
2.1554,0.2346,39.7700,93,97,53009
1.9453,0.2444,39.8300,93,97,53012
1.7742,0.2199,39.8900,93,97,53015
1.8182,0.1857,39.8000,93,97,53019
1.9648,0.1564,39.8300,93,97,53022
2.1701,0.1857,39.7300,93,97,53025
2.1457,0.2346,39.8000,93,97,53028
1.9746,0.2395,39.8900,93,97,53032
1.8377,0.2248,39.7000,93,97,53036
1.8377,0.1808,39.8300,93,97,53039
2.0283,0.1515,39.7300,93,97,53042
2.1701,0.1760,39.8900,93,97,53046
2.1701,0.2297,39.8600,93,97,53049
2.0039,0.2444,39.7700,93,97,53052
1.8328,0.2248,39.8300,93,97,53055
1.8671,0.1808,39.8000,93,97,53059
1.9844,0.1564,39.8600,93,97,53062
2.1652,0.1808,39.8600,93,97,53065
2.1994,0.2395,39.7700,93,97,53068
2.0088,0.2444,39.8600,93,97,53072
1.8377,0.2297,39.9300,93,97,53075
1.7937,0.1760,39.8300,93,97,53079
1.9404,0.1515,39.8300,93,97,53082
2.1261,0.1857,39.7700,93,97,53086
2.0870,0.2297,39.8300,93,97,53089
1.9257,0.2493,39.8000,93,97,53092
1.7155,0.2199,39.8600,93,97,53095
1.7155,0.1760,39.8600,93,97,53099
1.8377,0.1564,39.8000,93,97,53102
1.9892,0.1906,39.8600,93,97,53105
2.0039,0.2297,39.8000,93,97,53108
1.7889,0.2297,39.8600,93,97,53112
1.6080,0.2151,39.8600,93,97,53115
1.6129,0.1906,39.7000,93,97,53118
1.7400,0.1564,39.8300,93,97,53122
1.9257,0.1857,39.7300,93,97,53126
1.9062,0.2297,39.8900,93,97,53129
1.7302,0.2590,39.8600,93,97,53132
1.5885,0.2395,39.7000,93,97,53135
1.5640,0.1711,39.8300,93,97,53139
1.7302,0.1515,39.7300,93,97,53142
1.8817,0.1808,39.8000,93,97,53145
1.9013,0.2248,39.8000,93,97,53148
1.7498,0.2493,39.8000,93,97,53152
1.5982,0.2248,39.8300,93,97,53155
1.5787,0.1857,39.7000,93,97,53158
1.7155,0.1564,39.8300,93,97,53161
1.9013,0.1760,39.8000,93,97,53166
1.9599,0.2297,39.6400,93,97,53169
1.7644,0.2444,39.8300,93,97,53172
1.6325,0.2297,39.7000,93,97,53175
1.5787,0.1857,39.9600,93,97,53179
1.7302,0.1417,39.8600,93,97,53182
1.9453,0.1857,39.7700,93,97,53185
1.9404,0.2248,39.8600,93,97,53188
1.8084,0.2493,39.7000,93,97,53192
1.6227,0.2346,39.8000,93,97,53195
1.6080,0.1808,39.8900,93,97,53198
1.7742,0.1613,39.8000,93,97,53201
1.9746,0.1711,39.8300,93,97,53206
1.9941,0.2346,39.7000,93,97,53209
1.8084,0.2444,39.8300,93,97,53212
1.6422,0.2248,39.8600,93,97,53215
1.6667,0.1955,39.7000,93,97,53219
1.7840,0.1564,39.8000,93,97,53222
1.9844,0.1760,39.7300,93,97,53225
1.9892,0.2297,39.8300,93,97,53228
1.8280,0.2444,39.8000,93,97,53232
1.6862,0.2297,39.7700,93,97,53235
1.6520,0.1857,39.8600,93,97,53238
1.8231,0.1515,39.7300,93,97,53241
1.9892,0.1760,39.8600,93,97,53245
1.8280,0.1564,39.8600,93,97,53250
2.0137,0.1857,39.9600,93,97,53253
2.0430,0.2297,39.7300,93,97,53257
1.8475,0.2395,39.8600,93,97,53260
1.7009,0.2102,39.7000,93,97,53263
1.6764,0.1760,39.8000,93,97,53266
1.8426,0.1515,39.0000,93,97,53270
2.0430,0.1955,39.7300,93,97,53273
2.0235,0.2248,39.8600,93,97,53276
1.8768,0.2444,39.7700,93,97,53279
1.6813,0.2199,39.8600,93,97,53283
1.6813,0.1857,39.8900,93,97,53286
1.8475,0.1515,39.8000,93,97,53289
2.0137,0.1906,39.8900,93,97,53293
2.0479,0.2346,39.7700,93,97,53297
1.8328,0.2444,39.8600,93,97,53300
1.6764,0.2199,39.8600,93,97,53303
1.6960,0.1906,39.7300,93,97,53306
1.8280,0.1564,39.8300,93,97,53310
2.0430,0.1857,39.7700,93,97,53313
2.0186,0.2248,39.8300,93,97,53316
1.8475,0.2395,39.8600,93,97,53319
1.7204,0.2102,39.7300,93,97,53323
1.6862,0.1808,39.8600,93,97,53326
1.8768,0.1613,39.7300,93,97,53329
2.0381,0.1808,39.9600,93,97,53332
2.0626,0.2102,39.8600,93,97,53337
1.9110,0.2395,39.8000,93,97,53340
1.7498,0.2248,39.8600,93,97,53343
1.7791,0.1955,39.8000,93,97,53346
1.9257,0.1466,39.8300,93,97,53350
2.1310,0.1808,39.9600,93,97,53353
2.1945,0.2444,39.7300,93,97,53356
2.0381,0.2444,39.8300,93,97,53359
1.8671,0.2297,39.7700,93,97,53363
1.8377,0.1808,39.8600,93,97,53366
1.9941,0.1515,39.8600,93,97,53369
2.1994,0.1906,39.7700,93,97,53372
2.1799,0.2199,39.8600,93,97,53377
2.0283,0.2688,39.7700,93,97,53380
1.8182,0.2248,39.8600,93,97,53383
1.7986,0.1808,39.8900,93,97,53386
1.9404,0.1564,39.8000,93,97,53390
2.0870,0.1760,39.8300,93,97,53393
2.0968,0.2346,39.7300,93,97,53396
1.8622,0.2444,39.8600,93,97,53399
1.6960,0.2248,39.8900,93,97,53403
1.6520,0.2248,39.7000,93,97,53406
1.7546,0.1564,39.8300,93,97,53409
1.9453,0.1857,39.7300,93,97,53412
1.9208,0.2297,39.8600,93,97,53416
1.7449,0.2395,39.6000,93,97,53420
1.5836,0.2297,39.7700,93,97,53423
1.5445,0.1857,39.8000,93,97,53426
1.7155,0.1613,39.7000,93,97,53430
1.8768,0.1857,39.8900,93,97,53433
1.8915,0.2248,39.8900,93,97,53436
1.7498,0.2542,39.8000,93,97,53439
1.5738,0.2444,39.8900,93,97,53443
1.5787,0.1906,39.7000,93,97,53446
1.7107,0.1613,39.8600,93,97,53449
1.8964,0.1760,39.8600,93,97,53452
1.9501,0.2346,39.7000,93,97,53456
1.7595,0.2493,39.8300,93,97,53459
1.6080,0.2248,39.7700,93,97,53463
1.6178,0.1857,39.8600,93,97,53466
1.8573,0.1515,39.8300,93,97,53470
2.2043,0.1857,39.7700,93,97,53473
2.3607,0.2199,39.8300,93,97,53476
2.3851,0.2493,39.7300,93,97,53479
2.3118,0.2248,39.9300,93,97,53483
2.3460,0.1857,39.8600,93,97,53486
2.4780,0.1711,39.5400,93,97,53489
2.5318,0.1808,39.8600,93,97,53492
2.4047,0.2248,39.6700,93,97,53496
2.0479,0.2444,40.0600,93,97,53499
1.7253,0.2248,39.8600,93,97,53502
1.6129,0.1955,39.6700,93,97,53506
1.6178,0.1906,39.8600,93,97,53510
1.7840,0.1760,39.7000,93,97,53513
1.7400,0.2248,39.8000,93,97,53516
1.5885,0.2444,39.8300,93,97,53519
1.4663,0.2346,39.7300,93,97,53523
1.4370,0.1955,39.7300,93,97,53526
1.5982,0.1564,39.7300,93,97,53529
1.7840,0.1760,40.0000,93,97,53532
1.8280,0.2248,39.9600,93,97,53536
1.7107,0.2493,39.7700,93,97,53539
1.5249,0.2248,39.8300,93,97,53542
1.5249,0.1906,39.7300,93,97,53545
1.6569,0.1564,39.8600,93,97,53550
1.8475,0.1760,39.8000,93,97,53553
1.9208,0.2346,39.7000,93,97,53556
1.7400,0.2493,39.8300,93,97,53559
1.5836,0.2639,39.7300,93,97,53563
1.5494,0.1906,40.0600,93,97,53566
1.6960,0.1613,39.8300,93,97,53569
1.9110,0.1906,39.7300,93,97,53572
1.9453,0.2102,39.8300,93,97,53576
1.7840,0.2542,39.7300,93,97,53579
1.5934,0.2297,39.9600,93,97,53582
1.5738,0.1906,39.9600,93,97,53585
1.7498,0.1662,39.7700,93,97,53590
1.9257,0.1760,39.8600,93,97,53593
2.0088,0.2199,39.7000,93,97,53596
1.8084,0.2444,39.8900,93,97,53599
1.6471,0.2444,39.8000,93,97,53603
1.6569,0.2004,39.7000,93,97,53606
1.7840,0.1515,39.8000,93,97,53609
2.0137,0.1760,39.7300,93,97,53612
2.0088,0.2248,40.0300,93,97,53616
1.8573,0.2444,39.8300,93,97,53619
1.7498,0.2395,39.7300,93,97,53622
1.6618,0.1906,39.8900,93,97,53625
1.8426,0.1564,39.7700,93,97,53629
2.0039,0.1760,39.7700,93,97,53633
2.0479,0.2248,39.8600,93,97,53636
1.9306,0.2542,39.7700,93,97,53639
1.7351,0.2444,39.8600,93,97,53643
1.7204,0.1857,39.7700,93,97,53646
1.8524,0.1564,39.8600,93,97,53649
2.0528,0.1711,39.8600,93,97,53652
2.1457,0.2346,39.7000,93,97,53656
1.9697,0.2493,39.8000,93,97,53659
1.7937,0.2297,39.7300,93,97,53662
1.7546,0.1906,39.8600,93,97,53665
1.9062,0.1515,39.8600,93,97,53669
2.1457,0.1808,39.7300,93,97,53672
2.1603,0.2248,39.8600,93,97,53676
2.0235,0.2444,40.0000,93,97,53679
1.8377,0.2297,39.8600,93,97,53683
1.8133,0.1906,39.8600,93,97,53686
1.9941,0.1662,39.7300,93,97,53689
2.1652,0.1711,39.8600,93,97,53692
2.2141,0.2248,39.7700,93,97,53696
2.0479,0.2346,39.8600,93,97,53699
1.8719,0.2297,39.9600,93,97,53702
1.8964,0.2004,39.7000,93,97,53705
1.9941,0.1613,39.5700,93,97,53709
2.1799,0.1760,39.7700,93,97,53712
2.2092,0.2199,39.8900,93,97,53715
2.0479,0.2444,39.8600,93,97,53719
1.9110,0.2395,39.7000,93,97,53723
1.8377,0.1955,39.8300,93,97,53726
1.9648,0.1564,39.7700,93,97,53729
2.1457,0.1711,39.1900,93,97,53732
2.1848,0.2199,39.9300,93,97,53736
2.0626,0.2590,39.7300,93,97,53739
1.8328,0.2346,39.8000,93,97,53742
1.7791,0.1906,39.8600,93,97,53745
1.8866,0.1515,39.8300,93,97,53749
2.0528,0.1760,39.8600,93,97,53752
2.1261,0.2248,39.7000,93,97,53755
1.9159,0.2297,39.8000,93,97,53758
1.7058,0.2346,39.7700,93,97,53763
1.6422,0.1955,39.8600,93,97,53766
1.7546,0.1564,39.8600,93,97,53769
1.9746,0.1857,40.0600,93,97,53772
1.9697,0.2248,39.8300,93,97,53776
1.8377,0.2444,39.7700,93,97,53779
1.6129,0.2444,39.8900,93,97,53782
1.5640,0.1906,39.7000,93,97,53785
1.7302,0.1711,39.7300,93,97,53789
1.8866,0.1760,39.8600,93,97,53792
1.9306,0.2151,39.7700,93,97,53795
1.7791,0.2493,39.8300,93,97,53798
1.5885,0.2346,39.8300,93,97,53803
1.5885,0.2053,39.6700,93,97,53806
1.6911,0.1613,39.8000,93,97,53809
1.8768,0.1711,39.7700,93,97,53812
1.9257,0.2199,39.8600,93,97,53816
1.7791,0.2395,39.8600,93,97,53819
1.6422,0.2737,39.7000,93,97,53822
1.5689,0.1955,39.8300,93,97,53825
1.7058,0.1564,39.7700,93,97,53829
1.8915,0.1711,39.8600,93,97,53832
1.9501,0.2248,39.8600,93,97,53835
1.8475,0.2639,39.7000,93,97,53838
1.6373,0.2688,39.8000,93,97,53842
1.5885,0.1906,39.8000,93,97,53846
1.7155,0.1613,39.8600,93,97,53849
1.9159,0.1662,39.8600,93,97,53852
2.0283,0.2346,39.6700,93,97,53856
1.9844,0.1857,39.7700,93,97,53860
1.9892,0.2151,39.8300,93,97,53864
1.8475,0.2493,39.7300,93,97,53867
1.6569,0.2297,39.9600,93,97,53870
1.6276,0.1857,39.8600,93,97,53873
1.8035,0.1711,39.8000,93,97,53877
1.9795,0.1808,39.8900,93,97,53880
2.0283,0.2248,39.7000,93,97,53883
1.8328,0.2444,39.8600,93,97,53886
1.6667,0.2248,39.8000,93,97,53891
1.6667,0.1955,39.6400,93,97,53894
1.8035,0.1613,39.8600,93,97,53897
2.0137,0.1808,39.7300,93,97,53900
2.0137,0.2199,39.8600,93,97,53904
1.8475,0.2444,39.8900,93,97,53907
1.7009,0.2346,39.7300,93,97,53910
1.6569,0.1906,39.8600,93,97,53913
1.8328,0.1564,39.7300,93,97,53916
1.9892,0.1760,39.9600,93,97,53920
2.0283,0.2248,39.8900,93,97,53923
1.9062,0.2590,39.8000,93,97,53926
1.7009,0.2297,39.9600,93,97,53929
1.6813,0.1906,39.7300,93,97,53934
1.8035,0.1515,39.8600,93,97,53937
1.9892,0.1760,39.8600,93,97,53940
2.0674,0.2346,39.6000,93,97,53943
1.8817,0.2493,39.8900,93,97,53947
1.7155,0.2346,39.7300,93,97,53950
1.6667,0.1955,39.8600,93,97,53953
1.8035,0.1564,39.8600,93,97,53956
2.0283,0.1857,39.7000,93,97,53960
2.0381,0.2248,39.8300,93,97,53963
1.9257,0.2395,39.7300,93,97,53966
1.6960,0.2346,39.8300,93,97,53969
1.6667,0.1906,39.7700,93,97,53974
1.8524,0.1662,39.7700,93,97,53977
2.0039,0.1760,40.0000,93,97,53980
2.0577,0.2248,39.7300,93,97,53983
1.8915,0.2493,39.8600,93,97,53987
1.7204,0.2346,39.8900,93,97,53990
1.7302,0.2004,39.7000,93,97,53993
1.8622,0.1613,39.8300,93,97,53996
2.0626,0.1760,39.7700,93,97,54000
2.1261,0.2248,39.8600,93,97,54003
1.9550,0.2639,39.8300,93,97,54006
1.8231,0.2395,39.7300,93,97,54009
1.7791,0.1955,39.8600,93,97,54013
1.9501,0.1613,39.9600,93,97,54017
2.1701,0.1760,39.8600,93,97,54020
2.1945,0.2199,39.8900,93,97,54023
2.0870,0.2590,39.8000,93,97,54027
1.8817,0.2395,39.8000,93,97,54030
1.8328,0.1955,39.7700,93,97,54033
1.9550,0.1613,39.8600,93,97,54036
2.1457,0.1711,39.8600,93,97,54040
2.2287,0.2346,39.6700,93,97,54043
2.0381,0.2493,39.8000,93,97,54046
1.8280,0.2297,39.7700,93,97,54049
1.7546,0.1955,39.8600,93,97,54053
1.8573,0.1564,39.8600,93,97,54056
2.0626,0.1857,39.7000,93,97,54060
2.0381,0.2199,39.8300,93,97,54063
1.8622,0.2444,39.7300,93,97,54067
1.6471,0.2346,39.8300,93,97,54070
1.5787,0.1955,39.9600,93,97,54073
1.7351,0.1760,39.7000,93,97,54076
1.8866,0.1711,39.8300,93,97,54080
1.9306,0.2248,39.7300,93,97,54083
1.7791,0.2444,39.8300,93,97,54086
1.5787,0.2248,39.8300,93,97,54089
1.5738,0.2053,39.7000,93,97,54093
1.6862,0.1662,39.8000,93,97,54096
1.8671,0.1711,39.8000,93,97,54099
1.9159,0.2102,39.8300,93,97,54103
1.7693,0.2346,39.8600,93,97,54107
1.6325,0.2444,39.6700,93,97,54110
1.5591,0.2004,39.8300,93,97,54113
1.6862,0.1564,39.7300,93,97,54116
1.8671,0.1711,39.8600,93,97,54120
1.9404,0.2151,39.8900,93,97,54123
1.8475,0.2590,39.7000,93,97,54126
1.7009,0.2395,38.9300,93,97,54129
1.7595,0.1857,39.7700,93,97,54133
2.0332,0.1613,39.8000,93,97,54136
2.3803,0.1808,39.8900,93,97,54139
2.6540,0.2297,39.7000,93,97,54142
2.5806,0.2493,39.7700,93,97,54147
2.4194,0.2395,39.8000,93,97,54150
2.2825,0.2004,39.8300,93,97,54153
2.2727,0.1613,39.8600,93,97,54156
2.3509,0.1857,39.7000,93,97,54160
2.1799,0.2151,39.8300,93,97,54163
1.8915,0.2346,39.8000,93,97,54166
1.5836,0.2346,39.9300,93,97,54169
1.4223,0.1955,39.8600,93,97,54173
1.5445,0.1760,39.7000,93,97,54176
1.7155,0.1760,39.8000,93,97,54179
1.7595,0.2151,40.3000,93,97,54182
1.6373,0.2493,39.8300,93,97,54187
1.4614,0.2346,39.8600,93,97,54190
1.4663,0.2151,39.6700,93,97,54193
1.5885,0.1613,39.7700,93,97,54196
1.7595,0.1662,39.8300,93,97,54200
1.8377,0.2199,39.8300,93,97,54203
1.7253,0.2395,39.8600,93,97,54206
1.5787,0.2590,39.6700,93,97,54209
1.4956,0.2004,39.8300,93,97,54213
1.6178,0.1564,39.8600,93,97,54216
1.8231,0.1711,39.8300,93,97,54219
1.8866,0.2151,39.8600,93,97,54222
1.7986,0.2688,39.6700,93,97,54226
1.5836,0.2395,39.8000,93,97,54230
1.5347,0.1955,39.8000,93,97,54233
1.6569,0.1662,39.8300,93,97,54236
1.8524,0.1711,39.8600,93,97,54240
1.9795,0.2346,39.7000,93,97,54243
1.8133,0.2493,39.7700,93,97,54246
1.6129,0.2395,39.8000,93,97,54249
1.5689,0.2004,39.8600,93,97,54253
1.7009,0.1857,39.8300,93,97,54256
1.9648,0.1711,39.6400,93,97,54259
1.9844,0.2199,39.8300,93,97,54262
1.8377,0.2493,39.8000,93,97,54266
1.6618,0.2395,39.9300,93,97,54269
1.6178,0.2004,39.8900,93,97,54273
1.7937,0.1760,39.6400,93,97,54276
1.9648,0.1711,39.8000,93,97,54280
2.0186,0.2151,39.8000,93,97,54283
1.8915,0.2493,39.7300,93,97,54286
1.7058,0.2346,39.8600,93,97,54289
1.7058,0.2199,39.6700,93,97,54293
1.8035,0.1613,39.8000,93,97,54296
1.9941,0.1662,39.8000,93,97,54299
2.0674,0.2199,39.8600,93,97,54302
1.9355,0.2444,39.8600,93,97,54306
1.8035,0.2542,39.6400,93,97,54309
1.7204,0.2053,39.8300,93,97,54312
1.8328,0.1564,39.8300,93,97,54316
2.0332,0.1760,39.8300,93,97,54320
2.1114,0.2493,39.8900,93,97,54323
2.0381,0.2639,39.6700,93,97,54326
1.8133,0.2395,39.8000,93,97,54329
1.7546,0.2053,39.8300,93,97,54333
1.8866,0.1662,39.8900,93,97,54336
2.0870,0.1662,39.8600,93,97,54339
2.2287,0.2395,39.5700,93,97,54342
2.0577,0.2493,39.8000,93,97,54346
1.8622,0.2346,39.8300,93,97,54349
1.8133,0.2053,39.8600,93,97,54352
1.9355,0.1515,39.9600,93,97,54355
2.1945,0.1857,39.6000,93,97,54360
2.2141,0.2199,39.8000,93,97,54363
2.0772,0.2444,39.8300,93,97,54366
1.8915,0.2395,39.8600,93,97,54369
1.8328,0.2053,39.8300,93,97,54373
2.0088,0.1515,39.6400,93,97,54376
2.1603,0.1711,39.7700,93,97,54379
2.2190,0.2151,39.8300,93,97,54382
2.0821,0.2493,39.8300,93,97,54386
1.8817,0.2346,39.8600,93,97,54389
1.8671,0.2199,39.5400,93,97,54392
1.9453,0.1662,39.8600,93,97,54395
2.1163,0.1564,39.8300,93,97,54400
2.1701,0.2199,39.8600,93,97,54403
2.0186,0.2444,39.9600,93,97,54406
1.8622,0.2542,39.5700,93,97,54409
1.7351,0.2004,39.7700,93,97,54413
1.8328,0.1564,39.8300,93,97,54416
2.0039,0.1711,39.9600,93,97,54419
2.0479,0.2199,39.8600,93,97,54422
1.9453,0.2688,39.6000,93,97,54426
1.7009,0.2639,39.7300,93,97,54429
1.6227,0.1906,39.8600,93,97,54432
1.7155,0.1662,39.8300,93,97,54435
1.8915,0.1662,39.8900,93,97,54439
2.0186,0.2346,39.6000,93,97,54443
1.8182,0.2542,39.7300,93,97,54446
1.6080,0.2346,39.8600,93,97,54449
1.5445,0.2053,39.8600,93,97,54453
1.6520,0.1857,39.8900,93,97,54456
1.9110,0.1760,39.5700,93,97,54459
1.9306,0.2199,39.8300,93,97,54462
1.7937,0.2395,39.8300,93,97,54466
1.6129,0.2444,39.9300,93,97,54469
1.7840,0.2493,39.7300,93,97,54474
1.6031,0.2346,39.8300,93,97,54477
1.5885,0.2297,39.6700,93,97,54480
1.7107,0.1613,39.8300,93,97,54483
1.9110,0.1760,39.7300,93,97,54488
1.9550,0.2248,40.0300,93,97,54491
1.7986,0.2493,39.8600,93,97,54494
1.6471,0.2395,39.7000,93,97,54497
1.5738,0.2004,39.8900,93,97,54501
1.7204,0.1808,39.7300,93,97,54504
1.9159,0.1711,39.8600,93,97,54507
1.9844,0.2248,39.8600,93,97,54510
1.8915,0.2590,39.7300,93,97,54514
1.6520,0.2346,39.7000,93,97,54517
1.6031,0.2004,39.7700,93,97,54520
1.7302,0.1662,39.8900,93,97,54523
1.9355,0.1760,39.8600,93,97,54528
2.0430,0.2346,39.6000,93,97,54531
1.8671,0.2542,39.7700,93,97,54534
1.6716,0.2297,39.7700,93,97,54537
1.6178,0.2053,39.8300,93,97,54541
1.7546,0.1564,39.8600,93,97,54544
2.0088,0.1906,39.7000,93,97,54547
2.0332,0.2248,39.8600,93,97,54550
1.8817,0.2444,39.8000,93,97,54554
1.6862,0.2493,39.8300,93,97,54557
1.6373,0.2004,39.8300,93,97,54560
1.8328,0.1760,39.7000,93,97,54563
1.9892,0.1760,39.7700,93,97,54567
2.0430,0.2248,39.7700,93,97,54571
1.9013,0.2542,39.8300,93,97,54574
1.6960,0.2346,39.8900,93,97,54577
1.6862,0.2102,39.6700,93,97,54581
1.7986,0.1662,39.8000,93,97,54584
1.9795,0.1662,39.8000,93,97,54587
2.0528,0.2199,39.8300,93,97,54590
1.8915,0.2493,39.8900,93,97,54594
1.7498,0.2542,39.9300,93,97,54597
1.6569,0.2004,39.8000,93,97,54600
1.7840,0.1564,39.8000,93,97,54603
1.9795,0.1711,39.8000,93,97,54606
2.0430,0.2199,39.8600,93,97,54610
1.9844,0.2493,39.6400,93,97,54614
1.7155,0.2493,39.7700,93,97,54617
1.6422,0.1955,39.9300,93,97,54620
1.7693,0.1613,39.8600,93,97,54624
1.9599,0.1760,39.8600,93,97,54627
2.0968,0.2395,39.6700,93,97,54630
1.9013,0.2590,39.8000,93,97,54634
1.6960,0.2444,39.8000,93,97,54637
1.6373,0.2004,39.8300,93,97,54640
1.7595,0.1613,38.9600,93,97,54643
2.0577,0.1808,39.6400,93,97,54646
2.0479,0.2199,39.8000,93,97,54650
1.9110,0.2444,39.8300,93,97,54653
1.7302,0.2444,39.8300,93,97,54657
1.6667,0.2297,39.8000,93,97,54660
1.8622,0.1760,39.6000,93,97,54664
2.0332,0.1711,39.7700,93,97,54667
2.1065,0.2199,39.8000,93,97,54670
1.9892,0.2542,39.8000,93,97,54673
1.7986,0.2395,39.9300,93,97,54677
1.8084,0.2199,39.6000,93,97,54680
1.9110,0.1857,39.7000,93,97,54683
2.1114,0.1613,39.8300,93,97,54686
2.2092,0.2248,39.8600,93,97,54690
2.0723,0.2444,39.9300,93,97,54693
1.9306,0.2493,39.5700,93,97,54696
1.7986,0.2004,39.8300,93,97,54700
1.9257,0.1564,39.8600,93,97,54704
2.1212,0.2004,40.0600,93,97,54707
2.1896,0.2199,39.8600,93,97,54710
2.0919,0.2590,39.5700,93,97,54713
1.8377,0.2493,39.8000,93,97,54717
1.7302,0.2004,39.8600,93,97,54720
1.8231,0.1662,39.8300,93,97,54723
1.9795,0.1515,39.8900,93,97,54726
2.0870,0.2199,39.5700,93,97,54730
1.8768,0.2542,39.7300,93,97,54733
1.6471,0.2395,39.8600,93,97,54736
1.5640,0.2053,39.8300,93,97,54739
1.6520,0.1906,39.8900,93,97,54744
1.9062,0.1760,39.5700,93,97,54747
1.9208,0.2053,39.8300,93,97,54750
1.7840,0.2444,39.8600,93,97,54753
1.5885,0.2444,39.8000,93,97,54757
1.5200,0.2004,39.8300,93,97,54760
1.6618,0.1711,39.6000,93,97,54763
1.8377,0.1711,39.7300,93,97,54766
1.9208,0.2151,39.9600,93,97,54770
1.8084,0.2542,39.8900,93,97,54773
1.6080,0.2395,39.8600,93,97,54776
1.5689,0.2542,39.6000,93,97,54779
1.6373,0.1662,39.7700,93,97,54784
1.8328,0.1662,39.8600,93,97,54787
1.9404,0.2199,39.9600,93,97,54790
1.8426,0.2493,39.8600,93,97,54793
1.7595,0.2493,39.6000,93,97,54797
1.7644,0.2053,39.8300,93,97,54800
2.0332,0.1515,39.8600,93,97,54803
2.3998,0.1564,39.8300,93,97,54806
2.6197,0.2151,39.8000,93,97,54810
2.6442,0.2590,39.6000,93,97,54813
2.4047,0.2493,39.7700,93,97,54816
2.2141,0.2053,40.1300,93,97,54819
2.1896,0.1711,39.8300,93,97,54823
2.1994,0.1662,39.8300,93,97,54827
2.1799,0.2248,39.6000,93,97,54830
1.8719,0.2493,39.7700,93,97,54833
1.5689,0.2395,39.8900,93,97,54837
1.4076,0.2102,39.8000,93,97,54840
1.4712,0.1662,39.8600,93,97,54843
1.7058,0.1711,39.6400,93,97,54846
1.7742,0.2151,39.8600,93,97,54850
1.6716,0.2444,39.9300,93,97,54853
1.4956,0.2444,39.8300,93,97,54856
1.4174,0.2102,39.8600,93,97,54859
1.5689,0.1711,39.5700,93,97,54863
1.7595,0.1857,39.8000,93,97,54866
1.8622,0.2151,39.8600,93,97,54870
1.7595,0.2542,39.8000,93,97,54873
1.5836,0.2444,39.8600,93,97,54877
1.5298,0.2151,39.6000,93,97,54880
1.6080,0.1662,39.8000,93,97,54883
1.8084,0.1662,40.0000,93,97,54886
1.9501,0.2199,39.8300,93,97,54890
1.7937,0.2688,39.8600,93,97,54893
1.6422,0.2542,39.6700,93,97,54896
1.5200,0.2053,39.8000,93,97,54899
1.6373,0.1613,39.8000,93,97,54903
1.8475,0.1613,39.8300,93,97,54906
1.9404,0.2346,39.8600,93,97,54909
1.8719,0.2590,39.6700,93,97,54913
1.6569,0.2493,39.7700,93,97,54917
1.5640,0.2004,39.8600,93,97,54920
1.6911,0.1711,39.8000,93,97,54923
1.8817,0.1711,39.8300,93,97,54926
2.0430,0.2248,39.6700,93,97,54930
1.8866,0.2297,39.7700,93,97,54933
1.6862,0.2395,39.8600,93,97,54936
1.6129,0.2102,39.7300,93,97,54939
1.7253,0.1662,39.8600,93,97,54943
1.9697,0.1711,39.6000,93,97,54946
2.0283,0.2102,39.8900,93,97,54949
1.9159,0.2395,39.8300,93,97,54952
1.7546,0.2395,39.8300,93,97,54957
1.6520,0.2248,39.8300,93,97,54960
1.8084,0.1711,39.6000,93,97,54963
1.9844,0.1711,39.5400,93,97,54966
2.0723,0.1906,39.8600,93,97,54970
1.9892,0.2542,39.7700,93,97,54973
1.7693,0.2444,39.8300,93,97,54976
1.7351,0.2151,39.6000,93,97,54979
1.8133,0.1662,39.8000,93,97,54983
2.0088,0.1662,40.0600,93,97,54986
2.1554,0.2248,39.8000,93,97,54989
2.0137,0.2444,39.8900,93,97,54992
1.8671,0.2493,39.7300,93,97,54996
1.7498,0.2102,40.2000,93,97,55000
1.8622,0.1662,39.8600,93,97,55003
2.0821,0.1711,39.8300,93,97,55006
2.1750,0.2151,39.8600,93,97,55010
2.1163,0.2493,39.6000,93,97,55013
1.9013,0.2444,39.8000,93,97,55016
1.8084,0.2102,39.8300,93,97,55019
1.9501,0.1808,39.8000,93,97,55023
2.1114,0.1662,39.8000,93,97,55026
2.2630,0.2199,39.6000,93,97,55029
2.1163,0.2493,39.7700,93,97,55032
1.9110,0.2395,39.9600,93,97,55036
1.8671,0.2151,39.8300,93,97,55040
1.9208,0.1711,40.1300,93,97,55043
2.1603,0.1760,39.6400,93,97,55046
2.2190,0.2151,39.8600,93,97,55050
2.1065,0.2444,39.7300,93,97,55053
1.9208,0.2493,39.8300,93,97,55056
1.8084,0.2102,39.8600,93,97,55059
1.9306,0.1711,39.6400,93,97,55063
2.0919,0.1613,39.7300,93,97,55066
2.1652,0.2102,39.8600,93,97,55069
2.0626,0.2542,39.3800,93,97,55072
1.8280,0.2395,39.8600,93,97,55076
1.7498,0.2542,39.6400,93,97,55079
1.7204,0.2590,39.6000,92,97,55085
1.5885,0.2053,39.8000,92,97,55088
1.6813,0.1613,39.8600,92,97,55091
1.8671,0.1711,39.8300,92,97,55094
1.9453,0.2102,39.8600,92,97,55098
1.8524,0.2639,39.6000,92,97,55101
1.6227,0.2444,39.7300,92,97,55104
1.5396,0.1906,39.8300,92,97,55107
1.6862,0.1613,39.8300,92,97,55111
1.8328,0.1662,39.8600,92,97,55114
1.9648,0.2346,39.5700,92,97,55117
1.8035,0.2493,39.7300,92,97,55120
1.5982,0.2346,39.8300,92,97,55124
1.5347,0.2053,40.0300,92,97,55128
1.6422,0.1613,39.8300,92,97,55131
1.8915,0.1857,39.6700,92,97,55134
1.9355,0.2199,39.8000,92,97,55138
1.8133,0.2395,39.8300,92,97,55141
1.6422,0.2395,39.8300,92,97,55144
1.5543,0.2102,39.8900,92,97,55147
1.7155,0.1857,39.6000,92,97,55151
1.8817,0.1760,39.7700,92,97,55154
1.9550,0.2151,39.8300,92,97,55157
1.8328,0.2493,39.8000,92,97,55160
1.6422,0.2395,39.8600,92,97,55164
1.6569,0.2102,39.6400,92,97,55168
1.7009,0.1906,39.7300,92,97,55171
1.8866,0.1662,39.8300,92,97,55174
1.9795,0.2199,39.9300,92,97,55178
1.8524,0.2444,39.8600,92,97,55181
1.7107,0.2590,39.6000,92,97,55184
1.5982,0.2102,39.8300,92,97,55187
1.7058,0.1613,39.8600,92,97,55191
1.9159,0.1711,39.8600,92,97,55194
1.9941,0.2151,39.8900,92,97,55197
1.9208,0.2639,39.4800,92,97,55200
1.7009,0.2444,39.7300,92,97,55204
1.6178,0.2004,38.9600,92,97,55207
1.7253,0.1711,39.8300,92,97,55211
1.9257,0.1662,39.7000,92,97,55214
2.0723,0.2297,39.5700,92,97,55218
1.8964,0.2493,39.7300,92,97,55221
1.7009,0.2395,39.8300,92,97,55224
1.6373,0.2102,39.8000,92,97,55227
1.7449,0.1662,39.8600,92,97,55231
1.9990,0.1808,39.5700,92,97,55234
2.0381,0.2199,39.8300,92,97,55237
1.9110,0.2444,39.8600,92,97,55240
1.7155,0.2493,39.8900,92,97,55244
1.6422,0.2053,39.9600,92,97,55247
1.7986,0.1711,39.5700,92,97,55250
1.9697,0.1711,39.7300,92,97,55254
2.0381,0.2151,39.8600,92,97,55258
1.9501,0.2542,39.8300,92,97,55261
1.7253,0.2395,39.8600,92,97,55264
1.6960,0.2199,39.5700,92,97,55267
1.7791,0.1662,39.8000,92,97,55271
1.9404,0.1662,39.8600,92,97,55274
2.0381,0.2053,39.8300,92,97,55277
1.9110,0.2444,39.8000,92,97,55280
1.7595,0.2542,39.5700,92,97,55284
1.6569,0.2102,39.8600,92,97,55287
1.7449,0.1662,39.8600,92,97,55290
1.9648,0.1760,39.8300,92,97,55293
2.0283,0.2151,39.8600,92,97,55298
1.9599,0.2590,39.5400,92,97,55301
1.7400,0.2395,39.7300,92,97,55304
1.6373,0.2102,39.7300,92,97,55307
1.7498,0.1711,39.8300,92,97,55311
1.9306,0.1613,39.8600,92,97,55314
2.0870,0.2248,39.6000,92,97,55317
1.9208,0.2444,39.7700,92,97,55320
1.7351,0.2444,39.8600,92,97,55324
1.6716,0.2151,39.8300,92,97,55327
1.7840,0.1662,39.8600,92,97,55330
2.0430,0.1906,39.7700,92,97,55333
2.1017,0.2151,39.8300,92,97,55337
1.9990,0.2444,39.8600,92,97,55341
1.8524,0.2395,39.8300,92,97,55344
1.7498,0.2199,39.8600,92,97,55347
1.9257,0.1760,39.6000,92,97,55351
2.1114,0.1857,39.7300,92,97,55354
2.1994,0.2151,39.8600,92,97,55357
2.0968,0.2493,39.8000,92,97,55360
1.8866,0.2444,39.8300,92,97,55364
1.8524,0.2199,39.5400,92,97,55367
1.9062,0.1662,39.7700,92,97,55370
2.0968,0.1662,40.1300,92,97,55373
2.1945,0.2102,39.8300,92,97,55377
2.0577,0.2444,39.8300,92,97,55380
1.8915,0.2542,39.6000,92,97,55384
1.7400,0.2102,39.9300,92,97,55387
1.8133,0.1711,39.8600,92,97,55391
1.9844,0.1515,39.8000,92,97,55394
2.0332,0.2151,39.8600,92,97,55397
1.9306,0.2590,39.6000,92,97,55400
1.6862,0.2444,39.7300,92,97,55404
1.6031,0.2102,39.8600,92,97,55407
1.6618,0.1857,39.8000,92,97,55410
1.8280,0.1613,39.8900,92,97,55413
1.9697,0.2248,39.6400,92,97,55417
1.8035,0.2444,39.8000,92,97,55420
1.6080,0.2395,39.8600,92,97,55424
1.5249,0.2151,39.8300,92,97,55427
1.6080,0.1662,39.8900,92,97,55431
1.8475,0.1760,39.6000,92,97,55434
1.9062,0.2102,39.9300,92,97,55437
1.8084,0.2444,39.8600,92,97,55440
1.6325,0.2493,39.8000,92,97,55444
1.5347,0.2199,39.8600,92,97,55447
1.6618,0.1760,39.6000,92,97,55450
1.8328,0.1711,40.1600,92,97,55453
1.9208,0.2151,39.8300,92,97,55457
1.8622,0.2493,39.8300,92,97,55460
1.7204,0.2444,39.8600,92,97,55463
1.7840,0.2199,39.6000,92,97,55467
1.9844,0.1662,39.8300,92,97,55471
2.3363,0.1662,39.8000,92,97,55474
2.5953,0.2151,39.8300,92,97,55477
2.5709,0.2395,39.8600,92,97,55480
2.4389,0.2493,39.6400,92,97,55484
2.2239,0.2102,40.0000,92,97,55487
2.1799,0.1711,39.8600,92,97,55490
2.2190,0.1711,39.8000,92,97,55493
2.1408,0.2151,39.8300,92,97,55497
1.9355,0.2542,39.6400,92,97,55500
1.5982,0.2493,39.8300,92,97,55503
1.4076,0.2102,39.9600,92,97,55506
1.4565,0.1711,39.8000,92,97,55511
1.6178,0.1662,39.8600,92,97,55514
1.7791,0.2199,39.6400,92,97,55517
1.6667,0.2395,39.8000,92,97,55520
1.4907,0.2346,39.8300,92,97,55524
1.4272,0.2151,39.8300,92,97,55527
1.5200,0.1711,39.8900,92,97,55530
1.7595,0.1515,39.6000,92,97,55533
1.8475,0.1906,39.8600,92,97,55537
1.7498,0.2542,39.8300,92,97,55540
1.5836,0.2493,39.7700,92,97,55543
1.4858,0.2102,39.9600,92,97,55546
1.6178,0.1760,39.7000,92,97,55550
1.7937,0.1711,39.7700,92,97,55554
1.8964,0.2053,39.8300,92,97,55557
1.8182,0.2590,39.7700,92,97,55560
1.6129,0.2395,39.8600,92,97,55564
1.5640,0.2199,39.6400,92,97,55567
1.6325,0.1711,39.8600,92,97,55570
1.8231,0.1662,39.8300,92,97,55573
1.9550,0.2102,39.8300,92,97,55577
1.8426,0.2444,39.8300,92,97,55580
1.6911,0.2493,39.6000,92,97,55583
1.5640,0.2102,39.8900,92,97,55586
1.6618,0.1760,39.8600,92,97,55590
1.8768,0.1711,39.8000,92,97,55593
1.9746,0.2102,39.8600,92,97,55597
1.9208,0.2493,39.6000,92,97,55600
1.7058,0.2493,39.7300,92,97,55604
1.6178,0.2102,39.8600,92,97,55607
1.7204,0.1711,39.8300,92,97,55610
1.9013,0.1613,39.8600,92,97,55613
2.0626,0.2151,39.6000,92,97,55617
1.9208,0.2444,39.8600,92,97,55620
1.7351,0.2395,39.8600,92,97,55623
1.6520,0.2102,39.8300,92,97,55626
1.7253,0.1711,39.8300,92,97,55630
1.9697,0.1711,39.6400,92,97,55633
2.0479,0.2102,39.8300,92,97,55636
1.9550,0.2297,39.8600,92,97,55640
1.8035,0.2542,39.8000,92,97,55644
1.6764,0.2493,39.8300,92,97,55647
1.8084,0.1711,39.6400,92,97,55650
1.9844,0.1711,39.8900,92,97,55653
2.1261,0.2102,39.8600,92,97,55657
2.0186,0.2493,39.7700,92,97,55660
1.8133,0.2444,39.8900,92,97,55663
1.7595,0.2199,39.6400,92,97,55666
1.8182,0.1711,39.8600,92,97,55670
2.0235,0.1662,39.9600,92,97,55673
2.1554,0.2151,39.8000,92,97,55676
2.0528,0.2493,39.8300,92,97,55680
1.8964,0.2493,39.7300,92,97,55684
1.7693,0.2102,39.8600,92,97,55687
1.8622,0.1711,39.8900,92,97,55690
2.0821,0.1711,39.7700,91,97,55693
1.9159,0.1515,39.8300,91,97,55698
2.1017,0.2199,39.8600,91,97,55701
2.2532,0.2297,39.5700,91,97,55705
2.0772,0.2444,39.7700,91,97,55708
1.9013,0.2346,39.8600,91,97,55711
1.7889,0.2102,39.8000,91,97,55714
1.8768,0.1662,39.8600,91,97,55718
2.1163,0.1760,39.5400,91,97,55721
2.1505,0.2151,39.8000,91,97,55725
2.0088,0.2493,39.8600,91,97,55728
1.8133,0.2444,39.8900,91,97,55732
1.7058,0.2102,39.8300,91,97,55735
1.8573,0.1760,39.5400,91,97,55738
1.9746,0.1515,39.7700,91,97,55741
2.0332,0.2151,39.8000,91,97,55745
1.9062,0.2542,39.8300,91,97,55748
1.6862,0.2786,39.8900,91,97,55751
1.6373,0.2199,39.6000,91,97,55754
1.6813,0.1662,39.7700,91,97,55758
1.8622,0.1662,39.8600,91,97,55761
1.9501,0.2151,39.8000,91,97,55764
1.8231,0.2444,39.8600,91,97,55768
1.6667,0.2542,39.5700,91,97,55772
1.5347,0.2102,39.7700,91,97,55775
1.6325,0.1662,39.8600,91,97,55778
1.8231,0.1711,39.8000,91,97,55781
1.9110,0.2102,39.8600,91,97,55785
1.8426,0.2590,39.5400,91,97,55788
1.6325,0.2444,39.7700,91,97,55791
1.5249,0.2053,40.1000,91,97,55794
1.6325,0.1711,39.8300,91,97,55798
1.8182,0.1662,39.8600,91,97,55801
1.9697,0.2199,39.5700,91,97,55804
1.8084,0.2444,39.7700,91,97,55808
1.6373,0.2444,39.8600,91,97,55812
1.5494,0.2151,39.8600,91,97,55815
1.6422,0.1515,39.8300,91,97,55818
1.8915,0.1760,39.5400,91,97,55821
1.9453,0.2151,39.8600,91,97,55825
1.8328,0.2297,39.8600,91,97,55828
1.6569,0.2395,39.8000,91,97,55831
1.5640,0.2053,39.8300,91,97,55834
1.7107,0.1760,39.5400,91,97,55838
1.8817,0.1711,39.8300,91,97,55841
1.9746,0.2151,39.8600,91,97,55844
1.8622,0.2493,39.8300,91,97,55847
1.6911,0.2395,39.8600,91,97,55852
1.6325,0.2199,39.5700,91,97,55855
1.6960,0.1662,39.7700,91,97,55858
1.8915,0.1662,39.8300,91,97,55861
1.9990,0.2151,39.8300,91,97,55865
1.8817,0.2444,39.8600,91,97,55868
1.7302,0.2542,39.5700,91,97,55871
1.6080,0.2102,39.7700,91,97,55874
1.7107,0.1662,39.8600,91,97,55878
1.9208,0.1711,39.8000,91,97,55881
2.0088,0.2102,39.8600,91,97,55884
1.9453,0.2835,39.5700,91,97,55887
1.7253,0.2444,40.0000,91,97,55891
1.6325,0.2053,39.8900,91,97,55895
1.7351,0.1662,39.8000,91,97,55898
1.9257,0.1662,39.8600,91,97,55901
2.0772,0.2199,39.6400,91,97,55905
1.9110,0.2346,39.7700,91,97,55908
1.7155,0.2493,40.0000,91,97,55911
1.6422,0.2102,39.8000,91,97,55914
1.7253,0.1662,39.8600,91,97,55918
1.9697,0.1711,39.6000,91,97,55921
2.0381,0.2102,39.8300,91,97,55924
1.9110,0.2395,39.8000,91,97,55927
1.7253,0.2444,39.7000,91,97,55931
1.6276,0.2102,39.8600,91,97,55934
1.7644,0.1760,39.5400,91,97,55938
1.9306,0.1662,39.7700,91,97,55941
2.0137,0.2102,40.0600,91,97,55945
1.9208,0.2493,39.9300,91,97,55948
1.7204,0.2395,39.8600,91,97,55951
1.6716,0.2444,39.6000,91,97,55954
1.7155,0.1662,39.6400,91,97,55958
1.9208,0.1613,39.8300,91,97,55961
2.0283,0.2102,39.8000,91,97,55964
1.9110,0.2297,39.8600,91,97,55967
1.7595,0.2542,39.6000,91,97,55971
1.6325,0.2053,39.8300,91,97,55974
1.7351,0.1515,39.8600,91,97,55977
1.9550,0.1711,39.8000,91,97,55981
2.0577,0.2102,39.8600,91,97,55985
2.0137,0.2493,39.6000,91,97,55988
1.7986,0.2395,39.7700,91,97,55991
1.7058,0.2102,39.7300,91,97,55994
1.8280,0.1711,39.8000,91,97,55998
2.0186,0.1662,39.8000,91,97,56001
2.1945,0.2248,39.6000,91,97,56004
2.0626,0.2737,39.8000,91,97,56007
1.8866,0.2395,39.8600,91,97,56011
1.8182,0.2151,39.8000,91,97,56014
1.9062,0.1662,39.7700,91,97,56017
2.1408,0.1711,39.6400,91,97,56020
2.2043,0.2297,39.8900,91,97,56025
2.0968,0.2297,39.8600,91,97,56028
1.9159,0.2493,39.8000,91,97,56031
1.8182,0.2151,39.8300,91,97,56034
1.9110,0.1760,39.7000,91,97,56038
2.0626,0.1711,39.7700,91,97,56041
2.1310,0.2053,39.9600,91,97,56044
2.0235,0.2493,39.7700,91,97,56047
1.7840,0.2395,39.8600,91,97,56051
1.6764,0.2444,39.6400,91,97,56054
1.6960,0.1711,39.8600,91,97,56057
1.8622,0.2004,39.8300,91,97,56060
1.9648,0.2102,39.8000,91,97,56065
1.8377,0.2444,39.8600,91,97,56068
1.6667,0.2542,39.5700,91,97,56071
1.5298,0.2297,39.8300,91,97,56074
1.6031,0.1662,39.8600,91,97,56078
1.8084,0.1711,39.8600,91,97,56081
1.9062,0.2102,39.8600,91,97,56084
1.8426,0.2542,39.6400,91,97,56087
1.6325,0.2493,39.7700,91,97,56091
1.5249,0.2102,39.8900,91,97,56094
1.6325,0.1760,39.7700,91,97,56097
1.8035,0.1711,39.8600,91,97,56100
1.9599,0.2151,39.6400,91,97,56104
1.8231,0.2444,39.8900,91,97,56108
1.6325,0.2395,39.8600,91,97,56111
1.5347,0.2151,39.8000,91,97,56114
1.6276,0.1662,39.8600,91,97,56118
1.9159,0.1662,39.6000,91,97,56121
2.0919,0.2053,39.8600,91,97,56124
2.1359,0.2444,39.8600,91,97,56127
2.1163,0.2395,39.8300,91,97,56131
2.1603,0.2102,39.8300,91,97,56134
2.4047,0.1760,39.6000,91,97,56137
2.5806,0.1515,39.7700,91,97,56140
2.6149,0.1955,39.8300,91,97,56144
2.4242,0.2542,39.7300,91,97,56147
2.0479,0.2395,39.8000,91,97,56151
1.8231,0.2151,39.6400,91,97,56154
1.7302,0.1662,39.8000,91,97,56158
1.7889,0.1613,39.8600,91,97,56161
1.8377,0.2151,39.8300,91,97,56164
1.6618,0.2346,39.8300,91,97,56167
1.4858,0.2444,39.6700,91,97,56171
1.3636,0.2102,39.9600,91,97,56174
1.4565,0.1613,39.8300,91,97,56177
1.6667,0.1711,39.7700,91,97,56180
1.7937,0.2053,39.8600,91,97,56184
1.7498,0.2493,39.7000,91,97,56187
1.5543,0.2542,39.7700,91,97,56190
1.4614,0.2102,39.8600,91,97,56194
1.5689,0.1808,39.7700,91,97,56198
1.7546,0.1515,39.8600,91,97,56201
1.9159,0.2151,39.7000,91,97,56204
1.7986,0.2395,39.8000,91,97,56207
1.6178,0.2395,39.9600,91,97,56211
1.5298,0.1906,39.8000,91,97,56214
1.6080,0.1662,39.8300,91,97,56217
1.8328,0.1662,39.6700,91,97,56220
1.9257,0.2053,39.8600,91,97,56224
1.8426,0.2395,39.8300,91,97,56227
1.6569,0.2493,39.7700,91,97,56230
1.5494,0.2102,39.8300,91,97,56233
1.6667,0.1711,39.4800,91,97,56238
1.8524,0.1662,39.7300,91,97,56241
1.9697,0.2053,39.8600,91,97,56244
1.9013,0.2493,39.6700,91,97,56247
1.7009,0.2395,40.0300,91,97,56251
1.6325,0.2151,39.6700,91,97,56254
1.6862,0.1711,39.8300,91,97,56257
1.8866,0.1613,39.8300,91,97,56260
2.0283,0.2297,39.7700,91,97,56264
1.9306,0.2395,39.8600,91,97,56267
1.7742,0.2444,39.6000,91,97,56270
1.6373,0.2151,39.8600,91,97,56273
1.7204,0.1662,39.8600,91,97,56278
1.9355,0.1662,39.7700,91,97,56281
2.0479,0.2053,39.8900,91,97,56284
1.9990,0.2444,39.6700,91,97,56287
1.7840,0.2395,39.7700,91,97,56291
1.6764,0.2102,39.8300,91,97,56294
1.7742,0.1515,39.7300,91,97,56297
1.9550,0.1613,39.8600,91,97,56300
2.1163,0.2053,39.6700,91,97,56304
2.0821,0.1711,39.5700,91,97,56308
2.1359,0.2053,39.8300,91,97,56312
2.0381,0.2395,39.9300,91,97,56315
1.8622,0.2297,39.8600,91,97,56318
1.7791,0.2053,39.8600,91,97,56322
1.9306,0.1711,39.5400,91,97,56326
2.1114,0.1564,39.8000,91,97,56329
2.1945,0.2053,39.9300,91,97,56332
2.0968,0.2444,39.8000,91,97,56335
1.8964,0.2346,39.8300,91,97,56339
1.8573,0.2151,39.5700,91,97,56342
1.9110,0.1613,39.8600,91,97,56345
2.1065,0.1955,39.8900,91,97,56348
2.2190,0.2102,39.8300,91,97,56352
2.1408,0.2444,39.8600,91,97,56355
1.9501,0.2493,39.8300,91,97,56358
1.8133,0.2053,39.8600,91,97,56361
1.9062,0.1564,39.8600,91,97,56366
2.1065,0.1662,39.8000,91,97,56369
2.2141,0.2004,39.8600,91,97,56372
2.1310,0.2493,39.5100,91,97,56375
1.8964,0.2444,39.8000,91,97,56379
1.7889,0.2053,39.8600,91,97,56382
1.8719,0.1711,39.7700,91,97,56385
2.0381,0.1662,39.8300,91,97,56388
2.1701,0.2151,39.5700,91,97,56392
1.9941,0.2346,40.2600,91,97,56395
1.7791,0.2346,39.8600,91,97,56398
1.6862,0.1906,39.8900,91,97,56401
1.7351,0.1662,39.8300,91,97,56406
1.9550,0.1613,39.6400,91,97,56409
1.9990,0.2053,39.8300,91,97,56412
1.8866,0.2395,39.8600,91,97,56415
1.7009,0.2444,39.8000,91,97,56419
1.5738,0.2053,39.8600,91,97,56422
1.6911,0.1711,39.6000,91,97,56425
1.8524,0.1662,40.1000,91,97,56428
1.9404,0.2004,39.8600,91,97,56432
1.8622,0.2493,39.8000,91,97,56435
1.6422,0.2395,39.8600,91,97,56438
1.5787,0.2151,39.6000,91,97,56441
1.6325,0.1613,39.8300,91,97,56445
1.8231,0.1564,39.8600,91,97,56449
1.9550,0.2102,39.8000,91,97,56452
1.8426,0.2786,39.8600,91,97,56455
1.6813,0.2444,39.5700,91,97,56459
1.5494,0.2053,39.8300,91,97,56462
1.6373,0.1662,39.8300,91,97,56465
1.8524,0.1662,39.7700,91,97,56468
1.9501,0.2053,39.8300,91,97,56472
1.9013,0.2639,39.6400,91,97,56475
1.6862,0.2395,39.7300,91,97,56478
1.5836,0.2053,39.8300,91,97,56481
1.6813,0.1711,39.8000,91,97,56485
1.8573,0.1564,39.8300,91,97,56488
2.0235,0.2102,39.6400,91,97,56492
1.8866,0.2395,39.8600,91,97,56495
1.6960,0.2346,39.8000,91,97,56499
1.6080,0.1906,39.8300,91,97,56502
1.6911,0.1515,39.8300,91,97,56505
1.9208,0.1662,39.6400,91,97,56508
2.0088,0.1955,39.6700,91,97,56512
1.9257,0.2297,39.8300,91,97,56515
1.7498,0.2493,39.7300,91,97,56518
1.6422,0.2151,39.8300,91,97,56521
1.7546,0.1711,39.8600,91,97,56525
1.9306,0.1564,39.7300,91,97,56528
2.0430,0.2004,39.9300,91,97,56531
1.9697,0.2493,39.7700,91,97,56535
1.7546,0.2346,39.8300,91,97,56539
1.6862,0.2151,39.7000,91,97,56542
1.7351,0.1662,39.7000,91,97,56545
1.9306,0.1466,39.8900,91,97,56548
2.0626,0.2004,39.8000,91,97,56552
1.9941,0.2346,39.8900,91,97,56555
1.7937,0.2590,39.6400,91,97,56558
1.6667,0.2102,39.9600,91,97,56561
1.7840,0.1613,39.8900,91,97,56565
1.9697,0.1662,39.7700,91,97,56568
2.0626,0.2004,39.8900,91,97,56571
2.0039,0.2542,39.6700,91,97,56574
1.7791,0.2395,39.7300,91,97,56579
1.6569,0.2053,39.8600,91,97,56582
1.7595,0.1711,39.7000,91,97,56585
1.9306,0.1564,39.8600,91,97,56588
2.0919,0.2151,39.6400,91,97,56592
1.9697,0.2395,39.8000,91,97,56595
1.7742,0.2297,39.8600,91,97,56598
1.7107,0.2151,39.8000,91,97,56601
1.7400,0.1662,39.8600,91,97,56604
1.9599,0.1613,39.6700,91,97,56608
2.0528,0.2004,39.9600,91,97,56611
1.9697,0.2346,39.8600,91,97,56614
1.7986,0.2444,39.7700,91,97,56617
1.6667,0.2248,39.8600,91,97,56622
1.7644,0.1613,39.6400,91,97,56625
1.9501,0.1564,39.8600,91,97,56628
2.0821,0.1955,39.8300,91,97,56631
2.0283,0.2542,39.7300,91,97,56635
1.8182,0.2395,39.8300,91,97,56638
1.7449,0.2102,39.6700,91,97,56641
1.7986,0.1808,39.8000,91,97,56644
1.9990,0.1564,39.8600,91,97,56648
2.1554,0.2004,39.7300,91,97,56651
2.0821,0.2395,39.8600,91,97,56654
1.9208,0.2395,39.7000,91,97,56657
1.8035,0.2346,39.8900,91,97,56662
1.8964,0.1613,39.8600,91,97,56665
2.1261,0.1613,39.7300,91,97,56668
2.2336,0.2004,39.8600,91,97,56671
2.1896,0.2444,39.7000,91,97,56675
1.9257,0.2346,39.7700,91,97,56678
1.8035,0.2053,39.9600,91,97,56681
1.8866,0.1760,39.7300,91,97,56684
2.0479,0.1515,40.0000,91,97,56688
2.1945,0.1955,39.7000,91,97,56691
2.0626,0.2444,39.8000,91,97,56694
1.8328,0.2395,39.9300,91,97,56697
1.6911,0.2102,39.7700,91,97,56701
1.7155,0.1711,39.8900,91,97,56705
1.9062,0.1564,39.7000,91,97,56708
1.9844,0.1857,39.8600,91,97,56711
1.8915,0.2346,40.0000,91,97,56715
1.7009,0.2493,39.8300,91,97,56718
1.5494,0.2151,39.8300,91,97,56721
1.6276,0.1662,39.6700,91,97,56724
1.7889,0.1515,39.8000,91,97,56728
1.9208,0.1955,40.0600,91,97,56731
1.8622,0.2395,39.8000,91,97,56734
1.6422,0.2395,39.8300,91,97,56737
1.5494,0.2151,39.7000,91,97,56741
1.5885,0.1564,39.8900,91,97,56744
1.8133,0.1515,39.8600,91,97,56748
1.9404,0.2004,39.6700,91,97,56751
1.8622,0.2395,39.8300,91,97,56755
1.6813,0.2346,39.7300,91,97,56758
1.5591,0.2004,39.8600,91,97,56761
1.5934,0.1613,39.8300,91,97,56764
1.8280,0.1613,39.7300,91,97,56768
2.0088,0.2004,39.8600,91,97,56771
2.0821,0.2395,39.7300,91,97,56774
1.9844,0.2297,39.8300,91,97,56777
2.0381,0.2102,39.8000,91,97,56781
2.3167,0.1662,39.7300,91,97,56784
2.5660,0.1515,39.8600,91,97,56787
2.7713,0.2053,39.7300,91,97,56791
2.6002,0.2346,39.8600,91,97,56795
2.2825,0.2395,39.9300,91,97,56798
2.0039,0.2102,39.8300,91,97,56801
1.8817,0.1662,39.8600,91,97,56804
1.9355,0.1564,39.7300,91,97,56808
1.9110,0.1906,39.8600,91,97,56811
1.7595,0.2297,39.8300,91,97,56814
1.5494,0.2395,39.7700,91,97,56817
1.3881,0.2102,39.8600,91,97,56821
1.4712,0.1711,39.7700,91,97,56824
1.6471,0.1515,39.8300,91,97,56827
1.8035,0.1906,39.8900,91,97,56830
1.7742,0.2444,39.7300,91,97,56835
1.5494,0.2395,39.8600,91,97,56838
1.4663,0.2102,39.7700,91,97,56841
1.5103,0.1613,39.8600,91,97,56844
1.7155,0.1320,39.8300,91,97,56848
1.8866,0.1955,39.8000,91,97,56851
1.8280,0.2297,39.8900,91,97,56854
1.6618,0.2444,39.8300,91,97,56857
1.5152,0.2053,39.8300,91,97,56861
1.5787,0.1613,39.8300,91,97,56864
1.8035,0.1515,39.7300,91,97,56867
1.9306,0.1955,39.8300,91,97,56870
1.8915,0.2444,39.7700,91,97,56875
1.6618,0.2346,39.8300,91,97,56878
1.5445,0.2053,39.8600,91,97,56881
1.6325,0.1711,39.7300,91,97,56884
1.8231,0.1515,39.8600,91,97,56888
1.9941,0.2004,39.8000,91,97,56891
1.9062,0.2346,39.8600,91,97,56894
1.7009,0.2444,39.8600,91,97,56897
1.5885,0.2102,39.8600,91,97,56901
1.6373,0.1662,39.8300,91,97,56904
1.8573,0.1564,39.7000,91,97,56907
2.0186,0.1955,39.8600,91,97,56910
1.9257,0.2346,39.2800,91,97,56914
1.7644,0.2493,39.8300,90,97,56918
1.9795,0.2444,39.7300,90,97,56923
1.7693,0.2395,39.8300,90,97,56926
1.6960,0.2151,39.6400,90,97,56929
1.7498,0.1613,39.8000,90,97,56932
1.9501,0.1466,39.8600,90,97,56936
2.0968,0.2004,39.7700,90,97,56939
2.0137,0.2346,39.8600,90,97,56942
1.8377,0.2395,39.6700,90,97,56945
1.7058,0.2053,40.0000,90,97,56949
1.7840,0.1564,39.8600,90,97,56952
2.0088,0.1564,39.7700,90,97,56955
2.1261,0.2297,39.8900,90,97,56958
2.0723,0.2395,39.6700,90,97,56963
1.8524,0.2297,39.7700,90,97,56966
1.7400,0.2004,39.8300,90,97,56969
1.8524,0.1662,39.7300,90,97,56972
2.0430,0.1564,39.8300,90,97,56976
2.2141,0.1955,39.8000,90,97,56979
2.1114,0.2297,39.8000,90,97,56982
1.9208,0.2395,39.8600,90,97,56985
1.8182,0.2102,39.7300,90,97,56989
1.8866,0.1613,39.8300,90,97,56992
2.1163,0.1564,39.7700,90,97,56995
2.2287,0.1906,39.8300,90,97,56998
2.1554,0.2395,39.8300,90,97,57001
1.9844,0.2590,39.7300,90,97,57006
1.8475,0.2102,39.8600,90,97,57009
1.9355,0.1613,39.7300,90,97,57012
2.0968,0.1515,39.8000,90,97,57016
2.2190,0.1955,39.8900,90,97,57019
2.1505,0.2444,39.7300,90,97,57022
1.9208,0.2395,39.9600,90,97,57025
1.8377,0.2102,39.7300,90,97,57028
1.8524,0.1613,39.8900,90,97,57032
2.0674,0.1417,39.8300,90,97,57035
2.1603,0.1955,39.8000,90,97,57038
2.0577,0.2346,39.8300,90,97,57041
1.8475,0.2395,39.7000,90,97,57046
1.6618,0.2102,39.9300,90,97,57049
1.7009,0.1564,39.8600,90,97,57052
1.8964,0.1613,39.7300,90,97,57055
2.0088,0.1955,39.8300,90,97,57059
1.9404,0.2395,39.7000,90,97,57062
1.7107,0.2297,39.7700,90,97,57065
1.5836,0.2151,39.8000,90,97,57068
1.6667,0.1662,39.7300,90,97,57072
1.8280,0.1564,39.8000,90,97,57075
1.9844,0.2004,39.7700,90,97,57078
1.8671,0.2346,39.8600,90,97,57081
1.6471,0.2395,39.8600,90,97,57085
1.5200,0.2102,39.8300,90,97,57089
1.5738,0.1662,39.8300,90,97,57092
1.7937,0.1564,39.7700,90,97,57095
1.9208,0.1906,39.8600,90,97,57099
1.8622,0.2346,39.8600,90,97,57102
1.6960,0.2395,39.7000,90,97,57105
1.5396,0.2053,39.8300,90,97,57108
1.6129,0.1711,39.7700,90,97,57112
1.7889,0.1466,39.8900,90,97,57115
1.9550,0.1906,39.8600,90,97,57118
1.9306,0.2395,39.7700,90,97,57121
1.7302,0.2444,39.8600,90,97,57125
1.6422,0.2151,39.7700,90,97,57128
1.6764,0.1662,39.8900,90,97,57132
1.8475,0.1515,39.7000,90,97,57135
1.9746,0.1955,39.8000,90,97,57139
1.8768,0.2395,39.8300,90,97,57142
1.6862,0.2444,39.7700,90,97,57145
1.5347,0.2102,39.8300,90,97,57148
1.5885,0.1613,39.8300,90,97,57152
1.8133,0.1613,39.7000,90,97,57155
1.9453,0.1906,39.8300,90,97,57158
1.9159,0.2786,39.7700,90,97,57161
1.7058,0.2395,39.8000,90,97,57165
1.5836,0.2102,39.8600,90,97,57168
1.6667,0.1857,39.7300,90,97,57171
1.8328,0.1564,39.8300,90,97,57175
2.0137,0.2297,39.7300,90,97,57179
1.9355,0.2346,40.0000,90,97,57182
1.7498,0.2395,40.1000,90,97,57185
1.6471,0.2151,39.8000,90,97,57188
1.6960,0.1711,39.8000,90,97,57192
1.9013,0.1564,39.7000,90,97,57195
2.0283,0.1955,39.8300,90,97,57198
1.9746,0.2297,39.8300,90,97,57201
1.8182,0.2444,39.7300,90,97,57205
1.6716,0.1906,39.8300,90,97,57208
1.7546,0.1711,39.8000,90,97,57211
1.9355,0.1564,39.8600,90,97,57214
2.0870,0.1906,39.8300,90,97,57219
2.0577,0.2395,39.7300,90,97,57222
1.8182,0.2346,39.8300,90,97,57225
1.6862,0.2151,39.6700,90,97,57228
1.6960,0.1662,39.8600,90,97,57232
1.8866,0.1711,39.8900,90,97,57235
2.0577,0.2004,39.8300,90,97,57238
2.0039,0.2444,39.8300,90,97,57241
1.8328,0.2395,39.6400,90,97,57245
1.6862,0.2102,39.7700,90,97,57248
1.7253,0.1711,39.8600,90,97,57251
1.9257,0.1613,40.0300,90,97,57254
2.0381,0.1955,39.8300,90,97,57259
2.0088,0.2346,39.6700,90,97,57262
1.7937,0.2395,39.8300,90,97,57265
1.6716,0.2102,39.8300,90,97,57268
1.7595,0.1760,39.7000,90,97,57272
1.9257,0.1515,39.8600,90,97,57275
2.1017,0.1955,39.7000,90,97,57278
2.0430,0.2346,39.8600,90,97,57281
1.8817,0.2395,39.8600,90,97,57285
1.8084,0.2199,39.7700,90,97,57288
1.8622,0.1711,40.0000,90,97,57291
2.0821,0.1564,39.7300,90,97,57294
2.1848,0.1906,39.8300,90,97,57298
2.1163,0.2346,39.8600,90,97,57302
1.9550,0.2444,39.6400,90,97,57305
1.7889,0.2151,39.8600,90,97,57308
1.8622,0.1662,39.7700,90,97,57312
2.0381,0.1515,39.8300,90,97,57315
2.1896,0.1906,39.5100,90,97,57318
2.1652,0.2444,39.7300,90,97,57321
1.9306,0.2297,39.8300,90,97,57325
1.8035,0.2102,39.7300,90,97,57328
1.8231,0.1515,39.8600,90,97,57331
1.9990,0.1564,39.8600,90,97,57334
2.1701,0.2004,39.7700,90,97,57338
2.0870,0.2297,39.8300,90,97,57341
1.8964,0.2444,39.8300,90,97,57345
1.7155,0.2102,39.8900,90,97,57348
1.7253,0.1662,39.8600,90,97,57352
1.9062,0.1662,39.6700,90,97,57355
2.0137,0.1955,40.0600,90,97,57358
1.9648,0.2346,39.7300,90,97,57361
1.7351,0.2395,39.8600,90,97,57365
1.5591,0.2395,39.8300,90,97,57368
1.6031,0.1760,39.7000,90,97,57371
1.7302,0.1662,39.8300,90,97,57374
1.8768,0.1906,39.7700,90,97,57378
1.8035,0.2346,39.8300,90,97,57381
1.6276,0.2395,39.8600,90,97,57384
1.5298,0.2248,39.7700,90,97,57388
1.5640,0.1711,39.8600,90,97,57392
1.7546,0.1760,39.7300,90,97,57395
1.8964,0.1906,40.0600,90,97,57398
1.8622,0.2297,39.8300,90,97,57401
1.7204,0.2542,39.6700,90,97,57405
1.6080,0.2151,39.8300,90,97,57408
1.6325,0.1711,39.7300,90,97,57411
1.8328,0.1564,39.8900,90,97,57414
1.9746,0.1906,39.9300,90,97,57418
2.0283,0.2395,39.7300,90,97,57421
1.9257,0.2444,39.8000,90,97,57424
1.9501,0.2151,39.7300,90,97,57427
2.1359,0.1711,39.8600,90,97,57432
2.4536,0.1564,39.8600,90,97,57435
2.7273,0.2004,40.0000,90,97,57438
2.6491,0.2346,39.8600,90,97,57441
2.3607,0.2493,39.7300,90,97,57445
2.0235,0.2151,39.8300,90,97,57448
1.8524,0.1711,39.8300,90,97,57451
1.8719,0.1857,39.6700,90,97,57454
1.8426,0.1906,39.8300,90,97,57458
1.7155,0.2297,39.7300,90,97,57461
1.4761,0.2297,39.8300,90,97,57464
1.3343,0.2151,39.8600,90,97,57467
1.4076,0.1808,39.8300,90,97,57472
1.5934,0.1564,39.8000,90,97,57475
1.7840,0.1906,39.7300,90,97,57478
1.7498,0.2346,39.8300,90,97,57481
1.5640,0.2395,39.8600,90,97,57485
1.4712,0.2542,39.7300,90,97,57488
1.4907,0.1711,39.8300,90,97,57491
1.6911,0.1613,39.7300,90,97,57494
1.8475,0.1906,39.9300,90,97,57498
1.8133,0.2297,39.8600,90,97,57501
1.6813,0.2493,39.7000,90,97,57504
1.5152,0.2151,39.8000,90,97,57507
1.5591,0.1711,39.7300,90,97,57511
1.7498,0.1564,39.8600,90,97,57515
1.8915,0.1906,39.6400,90,97,57518
1.8817,0.2297,39.7000,90,97,57521
1.6862,0.2444,39.8000,90,97,57525
1.5543,0.2199,39.7300,90,97,57528
1.5836,0.1711,39.8300,90,98,57531
1.5738,0.2102,39.7300,90,98,57536
1.6716,0.1613,39.8600,90,98,57539
1.8671,0.1662,39.7000,90,98,57542
1.9892,0.1955,39.8900,90,98,57546
1.9599,0.2395,39.7300,90,98,57549
1.7302,0.2346,39.8000,90,98,57552
1.6227,0.2102,39.8000,90,98,57555
1.7058,0.1711,39.7300,90,98,57560
1.8817,0.1711,39.8900,90,98,57563
2.0626,0.1955,39.7700,90,98,57566
1.9795,0.2346,39.8300,90,98,57569
1.7937,0.2346,39.8600,90,98,57573
1.6764,0.2102,39.7700,90,98,57576
1.7204,0.1662,39.8300,90,98,57579
1.9355,0.1613,39.8300,90,98,57582
2.0528,0.1955,39.8300,90,98,57586
1.9941,0.2346,39.8300,90,98,57589
1.8328,0.2493,39.7300,90,98,57592
1.7009,0.2199,39.8300,90,98,57595
1.8035,0.1760,39.8000,90,98,57600
1.9648,0.1515,39.8300,90,98,57603
2.1114,0.2004,39.8600,90,98,57606
2.0821,0.2444,39.7300,90,98,57609
1.8719,0.2395,39.8300,90,98,57613
1.7693,0.1906,39.7700,90,98,57616
1.8133,0.1711,39.0000,90,98,57619
2.0235,0.1564,39.8300,90,98,57622
2.1994,0.1906,39.7000,90,98,57626
2.1261,0.2346,39.8300,90,98,57629
1.9453,0.2493,39.7300,90,98,57632
1.7791,0.2151,39.8600,90,98,57635
1.8377,0.1662,40.0000,90,98,57639
2.0723,0.1613,39.7000,90,98,57643
2.1945,0.1955,39.8600,90,98,57646
2.1701,0.2444,39.7300,90,98,57649
1.9550,0.2395,39.8600,90,98,57653
1.8133,0.2151,39.8900,90,98,57656
1.8817,0.1808,39.8000,90,98,57659
2.0332,0.1564,39.8300,90,98,57662
2.1945,0.2004,39.7300,90,98,57666
2.1065,0.2346,39.8600,90,98,57669
1.8964,0.2444,39.8900,90,98,57672
1.7742,0.2199,39.8600,90,98,57675
1.7937,0.1711,39.8300,90,98,57679
1.9941,0.1515,39.7300,90,98,57682
2.1065,0.1906,39.8600,90,98,57686
2.0283,0.2346,39.8300,90,98,57689
1.8475,0.2493,39.7000,90,98,57693
1.6716,0.2151,39.8300,90,98,57696
1.7204,0.1760,39.7000,90,98,57699
1.8622,0.1515,39.8600,90,98,57702
1.9990,0.1955,39.8300,90,98,57706
1.9501,0.2444,39.7000,90,98,57709
1.7155,0.2395,39.9300,90,98,57712
1.5787,0.2151,39.7000,90,98,57715
1.5885,0.1711,39.8600,90,98,57719
1.7595,0.1613,39.8900,90,98,57722
1.9257,0.2004,39.8000,90,98,57725
1.8622,0.2346,39.8300,90,98,57729
1.6813,0.2444,39.7000,90,98,57733
1.5298,0.2151,39.8300,90,98,57736
1.5787,0.1662,39.8600,90,98,57739
1.7937,0.1906,39.6700,90,98,57742
1.9159,0.1955,39.9300,90,98,57746
1.8817,0.2395,39.7000,90,98,57749
1.6520,0.2444,39.8600,90,98,57752
1.5249,0.2102,39.8600,90,98,57755
1.5934,0.1760,39.7300,90,98,57759
1.7644,0.1613,39.8000,90,98,57762
1.9453,0.1906,39.7300,90,98,57765
1.8719,0.2346,39.8300,90,98,57768
1.6911,0.2444,39.8300,90,98,57773
1.5885,0.2199,39.8900,90,98,57776
1.6325,0.1711,39.8300,90,98,57779
1.8280,0.1564,39.7300,90,98,57782
1.9599,0.1906,39.8300,90,98,57786
1.9062,0.2346,39.8900,90,98,57789
1.7449,0.2542,39.6700,90,98,57792
1.5934,0.2151,39.8600,90,98,57795
1.6667,0.1711,39.7300,90,98,57799
1.8426,0.1711,39.8300,90,98,57802
1.9990,0.1906,39.9600,90,98,57805
1.9844,0.2395,39.7000,90,98,57808
1.7595,0.2493,39.8600,90,98,57812
1.6325,0.2151,39.6700,90,98,57816
1.6471,0.1711,39.8600,90,98,57819
1.8377,0.1564,39.8600,90,98,57822
1.9941,0.2004,39.8000,90,98,57826
1.9257,0.2346,39.8000,90,98,57829
1.7546,0.2590,39.7000,90,98,57832
1.6080,0.2151,39.9300,90,98,57835
1.6911,0.1662,39.8300,90,98,57839
1.8768,0.1515,39.6700,90,98,57842
2.0137,0.1906,39.8300,90,98,57845
1.9795,0.2395,39.9300,90,98,57848
1.7693,0.2395,39.8600,90,98,57852
1.6325,0.2102,39.8600,90,98,57856
1.7009,0.1760,39.7000,90,98,57859
1.8622,0.1662,39.8300,90,98,57862
2.0430,0.1955,39.9600,90,98,57866
1.9746,0.2297,39.8300,90,98,57869
1.7840,0.2395,39.8600,90,98,57872
1.6716,0.2102,39.7700,90,98,57875
1.7009,0.1711,39.8300,90,98,57879
1.8964,0.1613,39.7300,90,98,57882
2.0381,0.1906,39.7700,90,98,57885
1.9941,0.2297,39.8600,90,98,57888
1.8182,0.2493,39.7000,90,98,57892
1.6764,0.2199,39.8300,90,98,57895
1.7155,0.1711,39.7000,90,98,57899
1.8866,0.1564,39.8300,90,98,57902
2.0479,0.1906,39.8600,90,98,57906
2.0430,0.2444,39.7000,90,98,57909
1.8182,0.2444,39.8300,90,98,57912
1.6862,0.2151,39.8300,90,98,57915
1.7155,0.1711,39.8300,90,98,57919
1.9110,0.1564,39.8600,90,98,57922
2.1163,0.2004,39.8900,90,98,57925
2.0772,0.2395,39.8000,90,98,57928
1.9062,0.2444,39.7700,90,98,57932
1.7693,0.2199,39.8600,90,98,57935
1.8328,0.1711,39.8300,90,98,57938
2.0674,0.1613,39.6700,90,98,57942
2.1994,0.1955,39.8300,90,98,57946
2.1554,0.2395,39.7300,90,98,57949
1.9306,0.2444,39.8900,90,98,57952
1.7742,0.2151,39.9600,90,98,57955
1.8671,0.1711,39.7000,90,98,57959
1.9892,0.1564,39.9300,90,98,57962
2.1505,0.2004,39.7300,90,98,57965
2.0772,0.2395,39.7300,90,98,57968
1.8622,0.2395,39.8600,90,98,57972
1.7155,0.2248,39.7700,90,98,57975
1.6862,0.1857,39.8300,90,98,57978
1.8377,0.1564,39.7700,90,98,57981
1.9355,0.1955,39.8300,90,98,57986
1.8719,0.2297,39.8600,90,98,57989
1.7009,0.2493,39.6700,90,98,57992
1.5249,0.2199,39.8600,90,98,57995
1.5591,0.1760,39.7300,90,98,57999
1.7155,0.1515,39.8900,90,98,58002
1.8622,0.1955,39.8600,90,98,58005
1.8524,0.2444,39.5400,90,98,58008
1.6373,0.2444,39.0600,90,98,58012
1.5103,0.1906,39.7300,90,98,58015
1.5249,0.1808,39.8300,90,98,58018
1.7009,0.1515,39.8600,90,98,58021
1.8964,0.2004,39.6000,90,98,58025
1.8426,0.2395,39.8300,90,98,58029
1.6813,0.2444,39.7700,90,98,58032
1.5200,0.2151,39.8600,90,98,58035
1.5298,0.1711,39.9300,90,98,58039
1.7302,0.1662,39.6700,90,98,58042
1.8719,0.2248,39.8000,90,98,58045
1.8817,0.2346,39.7300,90,98,58048
1.7595,0.2444,39.8300,90,98,58052
1.7302,0.2199,39.8300,90,98,58055
1.9599,0.1808,39.7000,90,98,58058
2.2727,0.1515,39.8300,90,98,58061
2.5709,0.1906,39.7700,90,98,58065
2.5904,0.2346,39.8600,90,98,58068
2.3803,0.2395,39.8600,90,98,58072
2.1994,0.2444,39.7300,90,98,58075
2.0577,0.1808,39.8000,90,98,58079
2.0723,0.1515,39.7700,90,98,58082
2.0723,0.1906,39.8300,90,98,58085
1.9013,0.2346,39.8600,90,98,58088
1.6618,0.2493,39.7000,90,98,58092
1.4223,0.2248,39.7700,90,98,58095
1.3881,0.1760,39.8000,90,98,58098
1.5396,0.1564,39.8300,90,98,58101
1.7155,0.1857,39.8600,90,98,58105
1.7546,0.2493,39.4800,90,98,58108
1.5640,0.2493,39.8600,90,98,58112
1.4272,0.1906,39.8000,90,98,58115
1.4516,0.1760,39.8000,90,98,58119
1.6373,0.1564,39.8600,90,98,58122
1.8524,0.2053,39.7000,90,98,58125
1.8084,0.2395,39.8600,90,98,58128
1.6276,0.2395,39.8000,90,98,58132
1.4907,0.2199,39.8300,90,98,58135
1.5200,0.1760,39.7700,90,98,58138
1.7449,0.1613,39.7000,90,98,58141
1.6031,0.1857,39.7300,90,98,58146
1.7742,0.1564,39.8900,90,98,58149
1.9550,0.1955,39.7000,90,98,58153
1.8817,0.2346,39.8300,90,98,58157
1.6960,0.2395,39.8600,90,98,58160
1.5934,0.2199,39.8300,90,98,58163
1.6276,0.1760,39.8300,90,98,58167
1.8426,0.1564,39.7300,90,98,58170
1.9844,0.1955,39.8600,90,98,58173
1.9306,0.2395,39.8900,90,98,58176
1.7742,0.2493,39.6000,90,98,58180
1.6276,0.2151,38.9600,90,98,58183
1.6813,0.1760,39.7000,90,98,58186
1.8524,0.1564,39.8900,90,98,58189
2.0137,0.1955,39.8600,90,98,58193
1.9990,0.2688,39.6700,90,98,58196
1.7937,0.2444,39.8300,90,98,58200
1.6813,0.2102,39.7000,90,98,58203
1.7058,0.1760,39.8900,90,98,58207
1.8915,0.1515,39.8600,90,98,58210
2.0723,0.1955,39.8000,90,98,58213
2.0088,0.2346,39.7300,90,98,58216
1.8475,0.2444,39.7700,90,98,58219
1.7009,0.2151,39.8300,90,98,58223
1.7546,0.1711,39.2800,90,98,58226
1.9844,0.1662,39.7000,90,98,58229
2.1114,0.1955,39.8300,90,98,58233
2.0772,0.2395,39.9600,90,98,58236
1.8671,0.2297,39.8300,90,98,58240
1.7400,0.2151,39.8900,90,98,58243
1.8182,0.2004,39.6400,90,98,58247
1.9941,0.1613,39.8300,90,98,58250
2.1652,0.1955,39.7700,90,98,58253
2.0968,0.2346,39.9300,90,98,58256
1.9062,0.2395,39.8600,90,98,58260
1.8035,0.2199,39.8000,90,98,58263
1.8280,0.1711,39.8000,90,98,58266
2.0381,0.1613,39.7700,90,98,58269
2.1701,0.1955,39.8900,90,98,58273
2.1212,0.2346,39.8600,90,98,58276
1.9892,0.2493,39.6700,90,98,58279
1.7986,0.2102,39.8300,90,98,58283
1.8426,0.1711,39.7300,90,98,58287
2.0186,0.1662,39.8300,90,98,58290
2.1603,0.1906,39.8300,90,98,58293
2.1457,0.2444,39.7000,90,98,58296
1.9208,0.2493,39.8600,90,98,58300
1.7937,0.2199,39.7000,90,98,58303
1.8035,0.1711,39.8600,90,98,58306
1.9746,0.1564,39.8300,90,98,58309
2.1359,0.2004,39.9300,90,98,58313
2.0528,0.2395,39.8300,90,98,58316
1.8524,0.2444,39.7300,90,98,58319
1.6813,0.2199,39.8600,90,98,58322
1.7107,0.1711,39.9600,90,98,58327
1.9159,0.1760,39.6700,90,98,58330
2.0332,0.1955,39.8600,90,98,58333
1.9795,0.2395,39.7300,90,98,58336
1.7889,0.2395,39.8600,90,98,58340
1.6031,0.2151,39.8300,90,98,58343
1.6520,0.1515,39.7000,90,98,58346
1.8035,0.1613,39.8000,90,98,58349
1.9648,0.1955,39.7300,90,98,58353
1.9208,0.2395,39.8600,90,98,58356
1.7009,0.2395,39.8600,90,98,58359
1.5738,0.2248,39.8000,90,98,58362
1.5836,0.1711,39.8300,90,98,58366
1.7791,0.1564,39.7700,90,98,58370
1.9208,0.1906,39.8300,90,98,58373
1.8719,0.2395,39.8600,90,98,58376
1.7155,0.2835,39.6700,90,98,58380
1.5494,0.2444,39.9300,90,98,58383
1.5934,0.1662,39.7300,90,98,58386
1.7546,0.1564,39.8300,90,98,58389
1.9110,0.1955,39.8600,90,98,58393
1.9062,0.2395,39.7000,90,98,58396
1.6960,0.2542,39.8000,90,98,58399
1.5640,0.2199,39.7300,90,98,58402
1.5934,0.1760,39.8600,90,98,58406
1.7693,0.1564,39.8300,90,98,58409
1.9697,0.2053,39.7700,90,98,58413
1.9062,0.2444,39.8000,90,98,58416
1.7302,0.2444,39.8600,90,98,58420
1.5787,0.2199,39.8300,90,98,58423
1.6129,0.1760,39.8300,90,98,58426
1.8328,0.1662,39.7000,90,98,58429
1.9892,0.2004,39.8000,90,98,58433
1.9550,0.2395,40.0000,90,98,58436
1.7546,0.2297,39.8300,90,98,58439
1.6276,0.2102,39.8900,90,98,58442
1.6862,0.1808,39.6700,90,98,58446
1.8475,0.1613,39.8300,90,98,58449
2.0137,0.1955,39.4800,90,98,58452
1.9599,0.2395,39.8300,90,98,58456
1.7644,0.2444,39.7000,90,98,58460
1.6618,0.2346,39.7300,90,98,58463
1.6716,0.1760,39.8000,90,98,58466
1.8622,0.1564,39.7700,90,98,58469
2.0137,0.1955,39.8600,90,98,58473
1.9746,0.2346,39.9600,90,98,58476
1.8231,0.2542,39.6700,90,98,58479
1.6569,0.2248,39.8000,90,98,58482
1.6862,0.1857,39.7700,90,98,58486
1.8573,0.1564,39.8300,90,98,58489
2.0186,0.1906,39.8600,90,98,58492
2.0235,0.2444,39.7000,90,98,58496
1.8133,0.2297,39.8000,90,98,58500
1.6618,0.2248,39.7300,90,98,58503
1.6813,0.1760,39.8300,90,98,58506
1.8573,0.1564,39.8600,90,98,58509
2.0626,0.2053,39.8300,90,98,58513
1.9990,0.2395,39.8000,90,98,58516
1.8084,0.2444,39.7700,90,98,58519
1.6618,0.2297,39.8000,90,98,58522
1.6960,0.1760,39.8600,90,98,58526
1.9257,0.1662,39.7000,90,98,58529
2.0772,0.2004,39.8000,90,98,58532
2.0430,0.2395,39.7700,90,98,58535
1.8573,0.2444,39.8900,90,98,58540
1.7155,0.2199,39.9600,90,98,58543
1.7937,0.1808,39.7000,90,98,58546
1.9697,0.1613,39.7700,90,98,58549
2.1408,0.1711,39.7700,90,98,58553
2.1212,0.2346,39.8300,90,98,58556
1.9453,0.2444,39.8600,90,98,58559
1.8573,0.2346,39.7700,90,98,58562
1.8622,0.1515,39.8300,90,98,58566
2.0381,0.1808,39.7300,90,98,58569
2.1945,0.1906,39.8600,90,98,58572
2.1750,0.2346,39.8900,90,98,58575
2.0039,0.2444,39.6700,90,98,58579
1.8280,0.2248,39.8000,90,98,58583
1.8377,0.1760,39.7700,90,98,58586
2.0088,0.1564,39.8600,90,98,58589
2.1457,0.1906,39.8600,90,98,58593
2.1505,0.2542,39.7000,90,98,58596
1.8964,0.2493,39.7700,90,98,58599
1.6960,0.2248,39.7700,90,98,58602
1.6813,0.1808,39.9300,90,98,58606
1.8084,0.1564,39.8600,90,98,58609
2.0186,0.2102,39.7000,90,98,58612
1.9648,0.2395,39.7700,90,98,58615
1.7155,0.2346,39.8000,90,98,58619
1.5543,0.2248,39.8300,90,98,58622
1.5591,0.1760,39.8600,90,98,58626
1.7644,0.1711,39.6400,90,98,58629
1.9013,0.2004,39.7000,90,98,58633
1.8573,0.2297,39.8000,90,98,58636
1.6764,0.2493,39.8300,90,98,58639
1.5249,0.2199,39.8900,90,98,58642
1.5885,0.1955,39.7000,90,98,58646
1.7400,0.1662,39.7700,90,98,58649
1.9013,0.1857,39.8000,90,98,58652
1.8866,0.2346,39.8300,90,98,58655
1.6911,0.2542,39.8600,90,98,58659
1.5787,0.2395,39.8900,90,98,58662
1.5934,0.1711,39.7700,90,98,58665
1.7693,0.1515,39.9300,90,98,58669
2.0283,0.1906,39.9600,90,98,58673
2.1261,0.2346,39.8600,90,98,58676
2.1554,0.2639,39.6700,90,98,58679
2.1359,0.2297,39.7300,90,98,58682
2.2727,0.1760,39.8000,90,98,58686
2.5220,0.1564,39.8300,90,98,58689
2.6588,0.2297,39.8600,90,98,58692
2.6149,0.2542,39.6000,90,98,58695
2.2336,0.2542,39.7000,90,98,58699
1.9062,0.2102,39.8000,90,98,58702
1.7693,0.1808,39.8900,90,98,58705
1.8084,0.1515,39.8300,90,98,58708
1.9159,0.2151,39.6700,90,98,58713
1.7791,0.2395,39.8000,90,98,58716
1.5494,0.2395,39.8300,90,98,58719
1.3881,0.2248,39.8300,90,98,58722
1.4027,0.2151,39.8600,90,98,58726
1.6373,0.1711,39.6700,90,98,58729
1.7840,0.2004,39.7700,90,98,58732
1.7693,0.2297,39.8300,90,98,58735
1.6031,0.2493,39.8300,90,98,58739
1.4565,0.2199,39.8900,90,98,58742
1.5298,0.2004,39.6000,90,98,58745
1.6764,0.1515,39.7300,90,98,58748
1.8475,0.2395,39.8300,90,98,58753
1.8426,0.2395,39.8000,90,98,58756
1.9062,0.1955,39.8300,90,98,58760
1.8719,0.2297,39.8600,90,98,58764
1.7204,0.2493,39.6700,90,98,58767
1.5934,0.2102,39.8600,90,98,58770
1.6227,0.1760,39.7300,90,98,58773
1.7937,0.1564,39.8900,90,98,58777
1.9550,0.1906,39.8300,90,98,58780
1.9501,0.2444,39.7000,90,98,58783
1.7400,0.2590,39.8600,90,98,58786
1.6129,0.2199,39.7700,90,98,58790
1.6373,0.1808,39.8600,90,98,58793
1.8231,0.1515,39.8900,90,98,58797
2.0283,0.1955,39.7300,90,98,58800
1.9648,0.2395,38.9600,90,98,58804
1.7889,0.2444,39.9300,90,98,58807
1.6373,0.2199,39.8300,90,98,58810
1.6764,0.1760,39.8900,90,98,58813
1.9110,0.1613,39.6700,90,98,58817
2.0430,0.2151,39.7700,90,98,58820
2.0137,0.2395,39.7700,90,98,58823
1.8231,0.2444,39.8300,90,98,58826
1.6813,0.2199,39.8600,90,98,58830
1.7546,0.1857,39.8000,90,98,58833
1.9404,0.1662,39.8000,90,98,58836
2.0968,0.1955,39.7700,90,98,58840
2.0479,0.2395,39.8300,90,98,58844
1.8915,0.2444,39.8600,90,98,58847
1.7595,0.2395,39.7300,90,98,58850
1.7742,0.1515,39.8300,90,98,58853
1.9648,0.1662,39.7300,90,98,58857
2.1261,0.1955,39.8600,90,98,58860
2.0919,0.2346,39.8600,90,98,58863
1.9550,0.2590,39.6700,90,98,58866
1.7889,0.2639,39.8300,90,98,58870
1.8231,0.1760,39.7700,90,98,58873
1.9990,0.1760,39.8300,90,98,58876
2.1701,0.1906,39.8600,90,98,58880
2.1848,0.2542,39.7000,90,98,58884
1.9697,0.2493,39.7700,90,98,58887
1.8280,0.2151,39.8000,90,98,58890
1.8475,0.1760,39.8300,90,98,58893
2.0283,0.1515,39.9600,90,98,58897
2.2336,0.2102,39.7000,90,98,58900
2.1652,0.2395,39.8600,90,98,58903
1.9746,0.2395,39.8000,90,98,58906
1.8133,0.2199,39.8600,90,98,58910
1.8426,0.1906,39.8000,90,98,58913
2.0528,0.1564,39.7000,90,98,58916
2.1896,0.1955,39.7300,90,98,58919
2.1359,0.2297,39.8000,90,98,58924
1.9404,0.2444,39.8600,90,98,58927
1.7791,0.2151,39.7300,90,98,58930
1.8426,0.1906,39.7000,90,98,58933
1.9795,0.1711,39.7700,90,98,58937
2.1163,0.1857,39.7700,90,98,58940
2.0626,0.2346,39.8300,90,98,58943
1.8377,0.2395,39.8600,90,98,58946
1.7204,0.2395,39.7000,90,98,58950
1.6960,0.1808,39.7300,90,98,58953
1.8426,0.1515,39.7300,90,98,58956
1.9892,0.1906,40.1000,90,98,58959
1.9355,0.2346,39.8300,90,98,58963
1.7889,0.2542,39.6700,90,98,58967
1.6031,0.2199,39.7700,90,98,58970
1.6031,0.1760,39.8000,90,98,58973
1.7644,0.1564,39.8600,90,98,58977
1.9257,0.1808,39.8300,90,98,58980
1.9501,0.2444,39.6700,90,98,58983
1.7302,0.2590,39.7300,90,98,58986
1.5689,0.2102,39.7700,90,98,58990
1.5836,0.1711,39.8300,90,98,58993
1.7595,0.1613,39.8300,90,98,58996
1.9795,0.2053,39.7000,90,98,58999
1.9110,0.2395,39.8000,90,98,59003
1.7204,0.2395,39.7300,90,98,59006
1.5738,0.2199,39.7300,90,98,59010
1.5982,0.1711,39.8300,90,98,59013
1.8182,0.1662,39.6700,90,98,59017
1.9599,0.1955,39.7700,90,98,59020
1.9257,0.2346,39.7700,90,98,59023
1.7400,0.2444,39.8000,90,98,59026
1.5885,0.2151,39.8600,90,98,59030
1.6618,0.1955,39.7000,90,98,59033
1.8084,0.1613,39.7700,90,98,59036
1.9648,0.1857,39.8000,90,98,59039
1.9501,0.2346,39.8300,90,98,59043
1.7644,0.2395,39.8900,90,98,59046
1.6667,0.2297,39.7000,90,98,59049
1.6813,0.1808,39.8300,90,98,59053
1.8133,0.1466,39.8000,90,98,59057
1.9941,0.1955,39.8300,90,98,59060
1.9697,0.2297,39.8900,90,98,59063
1.8426,0.2590,39.6700,90,98,59066
1.6569,0.2248,39.7700,90,98,59070
1.6618,0.1662,39.8000,90,98,59073
1.8426,0.1564,39.8300,90,98,59076
2.0039,0.1857,39.8600,90,98,59079
2.0479,0.2493,39.6400,90,98,59083
1.8231,0.2493,39.7700,90,98,59086
1.6813,0.2102,39.8300,90,98,59089
1.6813,0.1760,39.8600,90,98,59092
1.8475,0.1515,39.8600,90,98,59097
2.0772,0.2102,39.6400,90,98,59100
2.0186,0.2395,39.7700,90,98,59103
1.8231,0.2346,39.8300,90,98,59106
1.6764,0.2199,39.8300,90,98,59110
1.6911,0.1760,39.7700,90,98,59113
1.9208,0.1711,39.6700,90,98,59116
2.0430,0.2248,39.8300,90,98,59119
2.0137,0.2346,39.8300,90,98,59123
1.8377,0.2444,39.8300,90,98,59126
1.6764,0.2248,39.8300,90,98,59129
1.7449,0.1906,39.6000,90,98,59132
1.8964,0.1564,39.8300,90,98,59137
2.0479,0.1808,39.8300,90,98,59140
2.0381,0.2346,39.8300,90,98,59143
1.8573,0.2786,39.8600,90,98,59146
1.7644,0.2297,39.6000,90,98,59150
1.7498,0.1857,39.7300,90,98,59153
1.9208,0.1466,39.7700,90,98,59156
2.1017,0.1857,39.8300,90,98,59159
2.0968,0.2395,39.8600,90,98,59163
1.9795,0.2590,39.5700,90,98,59166
1.7986,0.2199,39.9600,90,98,59169
1.8328,0.1760,39.8300,90,98,59172
2.0186,0.1515,39.8600,90,98,59176
2.1945,0.1808,39.8600,90,98,59180
2.2483,0.2493,39.6000,90,98,59183
2.0137,0.2395,39.7300,90,98,59186
1.8377,0.2102,39.8300,90,98,59190
1.8475,0.1906,39.8000,90,98,59193
2.0039,0.1515,39.8600,90,98,59196
2.2287,0.2004,39.5700,90,98,59199
2.1652,0.2297,39.7700,90,98,59203
1.9550,0.2346,39.8600,90,98,59206
1.7937,0.2248,39.8300,90,98,59209
1.7693,0.1760,39.9600,90,98,59212
1.9550,0.1906,39.5700,90,98,59216
2.0577,0.1515,39.7700,90,98,59219
1.9990,0.2248,39.8300,90,98,59223
1.7986,0.2493,39.8300,90,98,59226
1.6080,0.2199,39.8900,90,98,59230
1.6422,0.1857,39.5700,90,98,59233
1.7546,0.1466,39.7300,90,98,59236
1.9062,0.1760,39.8600,90,98,59239
1.9013,0.2346,39.8300,90,98,59243
1.7009,0.2346,39.8600,90,98,59246
1.5836,0.2297,39.5400,90,98,59249
1.5494,0.1711,39.7700,90,98,59252
1.7009,0.1466,40.1300,90,98,59256
1.8817,0.1857,39.8000,90,98,59259
1.8964,0.2199,39.8300,90,98,59262
1.7449,0.2493,39.5700,90,98,59266
1.5494,0.2297,39.7300,90,98,59270
1.5396,0.1760,39.8600,90,98,59273
1.7107,0.1515,39.7700,90,98,59276
1.8671,0.1808,39.8600,90,98,59279
1.9208,0.2346,39.5700,90,98,59283
1.7449,0.2346,39.7000,90,98,59286
1.6813,0.2151,39.4100,90,98,59289
1.8475,0.1808,39.8300,90,98,59292
2.1750,0.1515,39.8600,90,98,59296
2.5953,0.1906,39.5700,90,98,59299
2.6931,0.2346,39.8300,90,98,59302
2.5611,0.2395,39.8600,90,98,59305
2.3900,0.2199,39.8000,90,98,59310
2.2874,0.1760,39.8300,90,98,59313
2.3363,0.1564,39.5700,90,98,59316
2.2678,0.1808,39.8000,90,98,59319
2.0919,0.2199,39.9300,90,98,59323
1.7937,0.2297,39.8000,90,98,59326
1.5103,0.2151,39.8300,90,98,59329
1.4761,0.1857,39.6700,90,98,59332
1.5689,0.1466,38.9300,90,98,59336
1.7351,0.1760,39.8600,90,98,59339
1.7498,0.2590,39.7700,90,98,59342
1.5738,0.2395,39.7300,90,98,59345
1.4614,0.2248,39.6400,90,98,59350
1.4370,0.1808,39.7700,90,98,59353
1.5982,0.1466,39.9300,90,98,59356
1.7986,0.1857,39.8300,90,98,59359
1.7937,0.2248,39.8600,90,98,59363
1.6716,0.2493,39.5400,90,98,59366
1.8719,0.2444,39.6400,91,98,59371
1.6716,0.2444,39.7700,91,98,59374
1.5298,0.2053,39.7700,91,98,59377
1.5543,0.1955,39.8300,91,98,59380
1.7351,0.1515,39.8300,91,98,59384
1.9501,0.2053,39.7000,91,98,59387
1.8915,0.2297,39.8900,91,98,59390
1.7058,0.2346,39.7700,91,98,59394
1.5640,0.2102,39.8300,91,98,59398
1.5982,0.1662,39.8300,91,98,59401
1.8182,0.1564,39.6700,91,98,59404
1.9648,0.1857,39.8000,91,98,59407
1.9355,0.2297,39.8900,91,98,59411
1.7498,0.2395,39.8300,91,98,59414
1.6129,0.1906,39.8300,91,98,59417
1.6911,0.1808,39.8300,91,98,59420
1.8524,0.1564,39.8000,91,98,59424
2.0088,0.1760,39.8300,91,98,59427
1.9746,0.2297,39.8300,91,98,59430
1.7889,0.2346,39.6700,91,98,59433
1.6960,0.2248,39.6700,91,98,59438
1.6960,0.1662,39.8300,91,98,59441
1.8671,0.1466,39.8000,91,98,59444
2.0332,0.2199,39.8300,91,98,59447
2.0088,0.2297,39.9300,91,98,59451
1.8817,0.2493,39.6700,91,98,59454
1.7058,0.2151,39.8000,91,98,59457
1.7400,0.1711,39.8000,91,98,59460
1.9208,0.1613,39.8300,91,98,59464
2.0870,0.1808,39.9600,91,98,59467
2.1261,0.2395,39.6400,91,98,59470
1.9062,0.2542,39.7700,91,98,59473
1.7546,0.2053,39.7700,91,98,59478
1.7840,0.1711,39.8300,91,98,59481
1.9648,0.1417,39.8300,91,98,59484
2.1994,0.1906,39.6700,91,98,59487
2.1310,0.2346,39.8300,91,98,59491
1.9453,0.2346,40.0000,91,98,59494
1.8084,0.2102,39.9300,91,98,59497
1.8622,0.1711,39.8600,91,98,59500
2.0772,0.1613,39.6700,91,98,59504
2.2092,0.1857,39.7700,91,98,59507
2.1701,0.2151,39.8000,91,98,59510
1.9892,0.2395,39.8600,91,98,59513
1.8377,0.2102,39.8900,91,98,59517
1.9159,0.1857,39.6400,91,98,59521
2.0577,0.1515,39.7700,91,98,59524
2.2043,0.1857,39.8000,91,98,59527
2.1750,0.2297,39.8300,91,98,59531
1.9844,0.2346,39.8600,91,98,59534
1.8817,0.2297,39.6400,91,98,59537
1.8573,0.1662,39.8300,91,98,59540
2.0088,0.1417,39.8000,91,98,59544
2.1652,0.2004,39.8900,91,98,59547
2.1212,0.2248,39.8600,91,98,59550
1.9844,0.2493,39.6400,91,98,59553
1.7595,0.2151,39.7700,91,98,59557
1.7449,0.1857,39.8600,91,98,59560
1.8964,0.1515,39.8300,91,98,59564
2.0332,0.1808,39.8600,91,98,59567
2.0528,0.2395,39.6000,91,98,59571
1.7937,0.2395,39.7700,91,98,59574
1.6178,0.2102,39.8300,91,98,59577
1.6276,0.1711,39.8600,91,98,59580
1.7791,0.1417,39.8600,91,98,59584
1.9892,0.2199,39.6700,91,98,59587
1.9110,0.2297,39.8000,91,98,59590
1.7058,0.2346,39.8000,91,98,59593
1.5689,0.2151,39.8300,91,98,59597
1.5689,0.1662,40.0600,91,98,59600
1.7840,0.1613,39.6400,91,98,59603
1.9110,0.1857,39.7300,91,98,59607
1.8866,0.2199,39.8000,91,98,59611
1.7009,0.2346,39.8300,91,98,59614
1.5543,0.2102,39.8300,91,98,59617
1.6178,0.1857,39.6000,91,98,59620
1.7595,0.1417,39.7300,91,98,59624
1.9208,0.1711,39.8300,91,98,59627
1.9110,0.2297,39.8300,91,98,59630
1.7253,0.2346,39.8600,91,98,59633
1.6325,0.2199,39.6000,91,98,59637
1.6178,0.1711,39.7000,91,98,59640
1.7742,0.1369,39.8300,91,98,59643
1.9550,0.1808,39.8000,91,98,59646
1.9306,0.2248,39.1900,91,98,59651
1.7986,0.2493,39.6400,91,98,59654
1.6080,0.2102,39.7700,91,98,59657
1.6178,0.1613,39.8000,91,98,59660
1.7937,0.1515,39.8000,91,98,59664
1.9599,0.1760,39.8300,91,98,59667
2.0039,0.2395,39.6000,91,98,59670
1.7791,0.2395,39.7000,91,98,59673
1.6227,0.2053,39.8600,91,98,59677
1.6520,0.1760,39.8300,91,98,59680
1.8084,0.1466,39.8600,91,98,59683
2.0479,0.1906,39.6000,91,98,59686
1.9941,0.2248,39.7300,91,98,59691
1.7937,0.2297,39.8600,91,98,59694
1.6520,0.2102,39.8300,91,98,59697
1.6569,0.1808,39.8600,91,98,59700
1.8817,0.1564,39.5700,91,98,59704
2.0137,0.1711,39.8300,91,98,59707
1.9941,0.2199,39.1600,91,98,59710
1.8280,0.2395,39.8300,91,98,59713
1.6667,0.2053,39.8300,91,98,59717
1.7155,0.1808,39.5100,91,98,59720
1.8524,0.1417,39.7700,91,98,59723
2.0186,0.1808,39.8000,91,98,59726
2.0186,0.2248,39.8900,91,98,59730
1.8231,0.2346,39.8300,91,98,59734
1.7204,0.2102,39.5700,91,98,59737
1.7058,0.1711,39.7000,91,98,59740
1.8573,0.1417,39.8600,91,98,59744
2.0381,0.1760,39.6700,91,98,59747
2.0186,0.2199,39.8600,91,98,59750
1.8915,0.2444,39.5700,91,98,59753
1.7009,0.2151,39.8300,91,98,59757
1.7204,0.1662,39.9600,91,98,59760
1.9110,0.1515,39.8300,91,98,59763
2.0870,0.1711,39.8600,91,98,59766
2.1408,0.2346,39.5700,91,98,59770
1.9257,0.2346,39.7300,91,98,59773
1.7742,0.2102,39.8000,91,98,59777
1.8084,0.1711,39.8300,91,98,59780
2.0186,0.1369,39.8600,91,98,59784
2.2336,0.1808,39.5700,91,98,59787
2.2336,0.2102,39.7700,91,98,59790
2.0186,0.2151,39.8600,91,98,59793
1.8768,0.2102,39.8300,91,98,59797
1.8719,0.1662,39.8300,91,98,59800
2.0870,0.1515,39.6400,91,98,59803
2.2043,0.1711,39.7700,91,98,59806
2.1848,0.2199,39.8600,91,98,59810
2.0283,0.2346,39.8000,91,98,59813
1.8328,0.2102,39.9300,91,98,59816
1.8866,0.1760,39.5700,91,98,59820
1.9892,0.1417,39.8300,91,98,59824
2.1359,0.1711,39.8600,91,98,59827
2.1065,0.2248,39.8300,91,98,59830
1.8964,0.2346,39.8300,91,98,59833
1.7351,0.2248,39.5700,91,98,59837
1.6813,0.1711,39.8900,91,98,59840
1.7986,0.1417,39.8600,91,98,59843
1.9550,0.1760,38.9600,91,98,59846
1.9257,0.2199,39.8600,91,98,59850
1.7742,0.2444,39.5700,91,98,59853
1.5640,0.2151,39.8300,91,98,59856
1.5543,0.1662,39.8600,91,98,59859
1.7204,0.1515,39.8000,91,98,59864
1.8768,0.1662,39.8600,91,98,59867
1.9208,0.2199,39.5700,91,98,59870
1.7009,0.2395,39.7300,91,98,59873
1.5494,0.2053,39.6400,91,98,59877
1.5689,0.1711,39.8300,91,98,59880
1.7204,0.1906,39.8600,91,98,59883
1.9404,0.1711,39.6000,91,98,59886
1.9062,0.2199,39.7700,91,98,59890
1.7058,0.2297,39.8600,91,98,59893
1.5543,0.2102,39.8300,91,98,59896
1.5640,0.1613,39.8600,91,98,59899
1.8280,0.1466,39.6000,91,98,59904
2.0577,0.1662,39.8300,91,98,59907
2.1994,0.2151,39.8600,91,98,59910
2.2141,0.2346,39.8000,91,98,59913
2.2092,0.2004,39.8300,91,98,59917
2.3998,0.1760,39.6000,91,98,59920
2.5415,0.1369,39.7700,91,98,59923
2.6784,0.1662,39.8600,91,98,59926
2.5758,0.2199,39.8000,91,98,59930
2.2190,0.2102,39.8600,91,98,59933
1.9355,0.2248,39.6000,91,98,59936
1.7351,0.1711,39.7300,91,98,59939
1.7302,0.1369,39.8900,91,98,59943
1.8182,0.1760,39.8600,91,98,59947
1.7498,0.2151,39.8300,91,98,59950
1.6178,0.2346,39.6000,91,98,59953
1.4125,0.2053,39.8000,91,98,59957
1.4125,0.1662,39.8600,91,98,59960
1.5885,0.1466,39.8000,91,98,59963
1.7546,0.1662,39.8600,91,98,59966
1.8133,0.2248,39.6000,91,98,59970
1.6080,0.2102,39.7700,91,98,59973
1.4712,0.2053,39.8300,91,98,59976
1.4858,0.1711,39.8000,91,98,59979
1.5103,0.2004,39.8600,91,98,59984
1.5347,0.1515,39.8300,91,98,59987
1.7644,0.1515,39.6700,91,98,59992
1.9257,0.1711,39.8000,91,98,59995
1.8719,0.2053,39.8300,91,98,59998
1.7058,0.2297,39.8300,91,98,60001
1.5640,0.1955,39.9600,91,98,60005
1.6373,0.2053,39.7000,91,98,60008
1.7840,0.1466,39.7300,91,98,60011
1.9404,0.1564,39.8300,91,98,60014
1.9257,0.2199,40.0600,91,98,60018
1.7498,0.2248,39.8600,91,98,60021
1.6569,0.2199,39.6400,91,98,60024
1.6373,0.1613,39.8000,91,98,60027
1.8133,0.1320,39.8000,91,98,60032
1.9941,0.1711,39.8300,91,98,60035
1.9697,0.2151,39.8300,91,98,60038
1.8426,0.2297,39.6700,91,98,60041
1.6569,0.2346,39.7700,91,98,60045
1.6813,0.1564,39.8000,91,98,60048
1.8622,0.1369,39.8900,91,98,60051
2.0283,0.1662,39.8600,91,98,60054
2.0674,0.2346,39.6400,91,98,60058
1.8475,0.2395,39.8300,91,98,60061
1.6960,0.1955,39.9300,91,98,60064
1.7400,0.1564,39.8300,91,98,60067
1.9013,0.1320,39.8300,91,98,60071
2.1310,0.1857,39.6400,91,98,60075
2.0821,0.2199,39.8300,91,98,60078
1.8817,0.2151,39.8000,91,98,60081
1.7449,0.2004,39.8600,91,98,60085
1.7986,0.1613,39.8300,91,98,60088
2.0088,0.1515,39.6400,91,98,60091
2.1750,0.1760,39.7700,91,98,60094
2.1163,0.2053,39.7700,91,98,60098
1.9453,0.2248,39.8000,91,98,60101
1.7889,0.1955,39.8300,91,98,60104
1.8768,0.1711,39.1900,91,98,60107
2.0283,0.1369,39.7700,91,98,60111
2.1799,0.1564,39.8000,91,98,60114
2.1652,0.2102,39.8300,91,98,60118
1.9795,0.2199,39.8600,91,98,60121
1.9110,0.2199,39.6000,91,98,60125
1.8671,0.1564,39.8000,91,98,60128
2.0332,0.1271,39.8300,91,98,60131
2.2043,0.1662,39.7300,91,98,60134
2.1799,0.2102,39.8300,91,98,60138
2.0528,0.2395,39.6000,91,98,60141
1.8573,0.1955,39.7700,91,98,60144
1.8622,0.1515,39.8900,91,98,60147
2.0723,0.1369,39.8000,91,98,60151
2.1945,0.1515,39.8600,91,98,60154
2.2336,0.2297,39.5700,91,98,60157
1.9892,0.2102,39.7300,91,98,60161
1.7986,0.2053,39.8900,91,98,60165
1.7937,0.1515,39.8300,91,98,60168
1.9453,0.1124,39.8300,91,98,60171
2.1457,0.1906,39.6000,91,98,60174
2.0577,0.2151,39.7700,91,98,60178
1.8573,0.2151,39.8300,91,98,60181
1.6764,0.1955,39.8300,91,98,60184
1.6569,0.1515,39.8900,91,98,60187
1.8524,0.1417,39.6000,91,98,60191
1.9648,0.1613,39.8300,91,98,60194
1.9208,0.2053,39.8300,91,98,60197
1.7400,0.2248,39.8000,91,98,60200
1.5689,0.1955,39.8000,91,98,60205
1.6276,0.1613,39.5700,91,98,60208
1.7449,0.1271,39.7700,91,98,60211
1.9013,0.1515,39.8300,91,98,60214
1.8964,0.2151,39.8300,91,98,60218
1.6960,0.2102,39.8600,91,98,60221
1.5885,0.2297,39.6400,91,98,60224
1.5738,0.1564,39.7300,91,98,60227
1.7302,0.1222,39.8000,91,98,60231
1.9110,0.1662,39.8300,91,98,60234
1.8866,0.2102,39.8600,91,98,60237
1.7595,0.2444,39.5700,91,98,60240
1.5689,0.2053,39.7000,91,98,60244
1.5836,0.1320,39.8300,91,98,60248
1.7595,0.1320,39.8300,91,98,60251
1.9257,0.1515,39.8900,91,98,60254
1.9697,0.2199,39.5400,91,98,60258
1.7498,0.2199,39.7300,91,98,60261
1.5885,0.1906,39.9300,91,98,60264
1.6422,0.1613,39.8300,91,98,60267
1.7742,0.1271,39.8300,91,98,60271
2.0039,0.1711,39.5700,91,98,60274
1.9599,0.2199,39.7300,91,98,60277
1.7644,0.2151,39.7700,91,98,60280
1.6227,0.2004,39.8600,91,98,60284
1.6618,0.1564,39.8600,91,98,60288
1.8426,0.1369,39.5700,91,98,60291
1.9746,0.1564,39.7700,91,98,60294
1.9648,0.2199,39.8600,91,98,60298
1.7937,0.2248,39.1200,91,98,60301
1.6325,0.1906,39.8300,91,98,60304
1.6862,0.1662,39.5400,91,98,60307
1.8182,0.1271,39.7300,91,98,60311
1.9844,0.1808,39.8600,91,98,60314
1.9844,0.2102,39.8600,91,98,60317
1.7937,0.2199,40.0000,91,98,60320
1.6862,0.2053,39.5700,91,98,60324
1.6667,0.1515,39.7300,91,98,60327
1.8182,0.1271,39.8600,91,98,60331
2.0039,0.1564,39.8000,91,98,60334
1.9892,0.2053,39.8900,91,98,60338
1.8573,0.2346,39.5700,91,98,60341
1.6618,0.1955,39.7300,91,98,60344
1.6667,0.1564,39.8600,91,98,60347
1.8426,0.1369,39.8000,91,98,60351
2.0088,0.1564,39.8600,91,98,60354
2.0528,0.2199,39.6000,91,98,60357
1.8280,0.2444,39.7700,91,98,60360
1.6764,0.1955,39.8000,91,98,60364
1.6911,0.1613,39.8000,91,98,60367
1.8426,0.1369,39.8900,91,98,60370
2.0772,0.1662,39.6000,91,98,60374
2.0332,0.2151,39.7700,91,98,60378
1.8377,0.2199,39.8600,91,98,60381
1.6960,0.2053,40.0000,91,98,60384
1.6960,0.1564,39.8600,91,98,60387
1.9062,0.1369,39.6000,91,98,60391
2.0626,0.1564,39.7700,91,98,60394
2.0479,0.2053,39.8600,91,98,60397
1.9013,0.2248,39.8000,91,98,60400
1.7302,0.1906,39.8300,91,98,60404
1.7840,0.1662,39.5400,91,98,60407
1.9159,0.1222,39.8000,91,98,60410
2.1065,0.1564,39.8600,91,98,60413
2.1310,0.2102,39.8000,91,98,60418
1.9550,0.2199,39.8300,91,98,60421
1.8524,0.2053,39.6000,91,98,60424
1.8426,0.1613,39.6400,91,98,60427
1.9990,0.1222,39.8600,91,98,60431
2.1848,0.1662,39.7700,91,98,60434
2.1652,0.2102,39.8600,91,98,60437
2.0430,0.2297,39.6000,91,98,60440
1.8475,0.1955,39.7700,91,98,60444
1.8182,0.1564,39.8300,91,98,60447
2.0235,0.1369,39.8000,91,98,60450
2.1408,0.1515,39.8300,91,98,60453
2.1701,0.2151,39.6000,91,98,60457
1.9110,0.2199,39.7700,91,98,60461
1.7204,0.1955,39.8600,91,98,60464
1.6960,0.1515,39.8000,91,98,60467
1.8084,0.1222,39.8300,91,98,60471
2.0039,0.1613,39.6000,91,98,60474
1.9599,0.2004,39.7700,91,98,60477
1.7546,0.2151,39.8600,91,98,60480
1.6031,0.2053,39.6400,91,98,60484
1.5738,0.1564,39.8300,91,98,60487
1.7546,0.1320,39.6000,91,98,60490
1.8915,0.1662,39.8300,91,98,60493
1.8817,0.1955,39.8900,91,98,60497
1.7302,0.2297,40.0300,91,98,60500
1.5445,0.1955,39.8600,91,98,60504
1.5738,0.1613,39.5700,91,98,60507
1.6960,0.1173,39.8000,91,98,60511
1.8866,0.1515,39.8000,91,98,60514
1.9159,0.2102,39.7700,91,98,60517
1.7253,0.2199,39.8900,91,98,60520
1.5885,0.2053,39.6000,91,98,60524
1.5494,0.1711,39.8300,91,98,60527
1.6911,0.1271,39.8600,91,98,60530
1.9306,0.1564,39.7700,91,98,60533
1.9697,0.2004,39.7700,91,98,60537
1.9453,0.2248,39.6400,91,98,60540
1.8964,0.2053,39.8000,91,98,60544
2.0528,0.1564,39.8000,91,98,60547
2.4096,0.1417,39.7700,91,98,60551
2.6393,0.1515,39.8600,91,98,60554
2.7615,0.2053,39.6000,91,98,60557
2.4438,0.2151,39.8300,91,98,60560
2.1603,0.2004,39.8900,91,98,60564
1.9990,0.1613,39.7700,91,98,60567
1.9648,0.1369,39.8900,91,98,60570
2.0235,0.1564,39.6400,91,98,60573
1.9013,0.2053,39.7700,91,98,60577
1.6178,0.2151,39.9300,91,98,60580
1.4223,0.2102,39.7300,91,98,60583
1.3734,0.1515,39.8300,91,98,60587
1.5640,0.1662,39.6400,91,98,60591
1.5054,0.1662,39.6400,92,98,60595
1.6471,0.1271,39.7300,92,98,60599
1.8182,0.1662,39.8000,92,98,60602
1.8231,0.2102,39.9300,92,98,60605
1.6471,0.2151,39.8300,92,98,60608
1.5445,0.2102,39.6700,92,98,60612
1.5591,0.1564,39.7700,92,98,60615
1.6911,0.1222,39.8300,92,98,60618
1.8768,0.1613,39.8300,92,98,60621
1.8573,0.2053,39.8300,92,98,60625
1.7351,0.2297,39.5100,92,98,60628
1.5494,0.2248,39.8000,92,98,60632
1.5591,0.1466,39.8300,92,98,60635
1.7400,0.1320,39.8300,92,98,60639
1.9013,0.1564,39.8600,92,98,60642
1.9453,0.2199,39.6000,92,98,60645
1.7253,0.2297,39.7700,92,98,60648
1.5738,0.1857,39.8300,92,98,60652
1.5934,0.1564,39.8300,92,98,60655
1.7693,0.1466,39.8900,92,98,60658
2.0039,0.1711,39.5700,92,98,60661
1.9501,0.2151,39.8000,92,98,60665
1.7595,0.2102,39.8300,92,98,60668
1.6178,0.1955,39.8000,92,98,60672
1.6569,0.1515,39.8300,92,98,60675
1.8524,0.1417,39.6400,92,98,60679
1.9941,0.1564,39.7300,92,98,60682
2.0039,0.2004,39.8300,92,98,60685
1.8035,0.2199,39.8600,92,98,60688
1.6520,0.1906,39.8300,92,98,60692
1.7155,0.1613,38.6800,92,98,60695
1.8524,0.1271,39.7700,92,98,60698
2.0235,0.1662,39.8000,92,98,60701
2.0235,0.2102,39.8300,92,98,60705
1.8426,0.2151,39.8600,92,98,60708
1.7400,0.1906,39.5700,92,98,60711
1.7302,0.1515,39.8000,92,98,60715
1.8964,0.1466,39.8300,92,98,60719
2.0870,0.1613,39.8900,92,98,60722
2.0772,0.2053,39.8300,92,98,60725
1.9501,0.2248,39.5700,92,98,60728
1.7595,0.2199,39.8300,92,98,60732
1.7742,0.1515,39.8600,92,98,60735
1.9599,0.1320,39.6400,92,98,60738
2.1212,0.1564,39.8600,92,98,60741
2.1848,0.2297,39.6400,92,98,60745
1.9599,0.2151,39.8300,92,98,60748
1.7986,0.2102,39.8600,92,98,60751
1.8133,0.1564,39.8000,92,98,60754
1.9795,0.1271,39.8600,92,98,60759
2.2092,0.1515,39.5700,92,98,60762
2.1750,0.2004,39.8000,92,98,60765
1.9697,0.2151,39.6700,92,98,60768
1.8231,0.2004,39.7700,92,98,60772
1.8231,0.1564,39.8600,92,98,60775
2.0332,0.1320,39.5700,92,98,60778
2.1652,0.1515,39.7700,92,98,60781
2.1359,0.2053,39.8600,92,98,60785
1.9697,0.2248,39.8000,92,98,60788
1.7889,0.1906,39.8600,92,98,60791
1.8328,0.1711,39.5700,92,98,60794
1.9404,0.1222,39.8600,92,98,60798
2.0968,0.1564,39.8600,92,98,60802
2.0821,0.2297,39.8000,92,98,60805
1.8719,0.2248,39.8900,92,98,60808
1.7351,0.2053,39.5700,92,98,60812
1.6911,0.1564,39.7700,92,98,60815
1.8182,0.1222,39.8300,92,98,60818
1.9990,0.1564,39.8300,92,98,60821
1.9550,0.2053,39.8600,92,98,60825
1.8084,0.2297,39.7300,92,98,60828
1.6031,0.1906,39.7300,92,98,60831
1.5787,0.1564,39.8600,92,98,60834
1.7449,0.1320,39.8000,92,98,60838
1.8964,0.1515,39.7700,92,98,60841
1.9404,0.2102,39.6000,92,98,60845
1.7155,0.2151,39.7700,92,98,60848
1.5640,0.1906,39.8300,92,98,60852
1.5591,0.1808,39.5100,92,98,60855
1.7107,0.1271,39.8600,92,98,60858
1.9355,0.1857,39.6000,92,98,60861
1.9062,0.2053,39.9600,92,98,60865
1.7204,0.2102,39.8300,92,98,60868
1.5738,0.2004,39.7700,92,98,60871
1.5689,0.1564,39.9300,92,98,60874
1.7693,0.1369,39.6000,92,98,60878
1.9159,0.1515,39.7000,92,98,60881
1.9159,0.2004,39.8600,92,98,60884
1.7595,0.2248,39.8000,92,98,60888
1.5885,0.1955,40.0600,92,98,60892
1.6276,0.1613,39.6000,92,98,60895
1.7449,0.1417,39.7700,92,98,60898
1.9355,0.1564,39.8300,92,98,60901
1.9501,0.2102,39.8000,92,98,60905
1.7595,0.2151,39.8600,92,98,60908
1.6422,0.2053,39.6400,92,98,60911
1.6227,0.1613,39.7300,92,98,60914
1.7644,0.1222,39.9300,92,98,60918
1.9648,0.1613,39.8600,92,98,60921
1.9599,0.1906,39.8600,92,98,60924
1.8182,0.2346,39.6000,92,98,60928
1.6227,0.1906,39.7700,92,98,60932
1.6080,0.1564,39.8600,92,98,60935
1.7986,0.1320,39.7700,92,98,60938
1.9599,0.1466,39.8300,92,98,60941
2.0186,0.2102,39.8000,92,98,60945
1.7986,0.2102,39.8000,92,98,60948
1.6618,0.2004,39.8600,92,98,60951
1.6520,0.1613,39.8600,92,98,60954
1.7937,0.1271,39.8900,92,98,60958
2.0186,0.1613,39.7300,92,98,60961
2.0039,0.2053,39.7300,92,98,60964
1.8182,0.2102,39.8600,92,98,60967
1.6764,0.2004,39.7700,92,98,60972
1.6520,0.1515,39.8600,92,98,60975
1.8377,0.1564,39.6400,92,98,60978
1.9892,0.1564,39.8300,92,98,60981
1.9941,0.1955,39.8600,92,98,60985
1.8426,0.2346,39.7700,92,98,60988
1.6569,0.2004,39.8900,92,98,60991
1.6716,0.1662,39.6400,92,98,60994
1.7937,0.1417,39.8000,92,98,60998
1.9697,0.1320,39.8300,92,98,61001
2.0088,0.2053,39.7700,92,98,61004
1.8182,0.2199,39.8300,92,98,61007
1.6862,0.2053,39.6400,92,98,61011
1.6813,0.1613,39.8000,92,98,61015
1.8035,0.1271,39.8600,92,98,61018
2.0088,0.1613,39.7300,92,98,61021
2.0039,0.2004,39.9300,92,98,61025
1.8768,0.2102,39.6400,92,98,61028
1.6862,0.1955,39.8300,92,98,61031
1.6764,0.1613,40.0600,92,98,61034
1.8573,0.1369,39.7000,92,98,61037
2.0332,0.1515,39.8600,92,98,61041
2.1310,0.2053,39.6400,92,98,61044
1.9110,0.2199,39.8600,92,98,61047
1.7595,0.2004,39.8300,92,98,61050
1.7840,0.1662,39.7000,92,98,61054
1.9306,0.1320,39.8000,92,98,61058
2.1652,0.1564,39.7000,92,98,61061
2.1652,0.2004,39.7000,92,98,61064
1.9941,0.1906,39.8600,92,98,61068
1.8377,0.2053,39.7000,92,98,61071
1.7986,0.1613,40.0600,92,98,61074
1.9697,0.1271,39.6700,92,98,61077
2.1261,0.1466,39.8000,92,98,61081
2.1457,0.1906,39.8300,92,98,61084
1.9844,0.2248,39.7000,92,98,61087
1.7742,0.2053,39.8600,92,98,61090
1.7595,0.1662,39.6700,92,98,61094
1.8866,0.1222,39.8300,92,98,61097
2.0088,0.1466,39.8300,92,98,61101
2.0283,0.2053,39.7700,92,98,61104
1.8035,0.2297,39.8300,92,98,61108
1.6276,0.2053,39.6700,92,98,61111
1.5689,0.1662,39.7700,92,98,61114
1.6960,0.1271,39.8300,92,98,61117
1.8915,0.1515,39.7000,92,98,61121
1.9306,0.2004,39.8300,92,98,61124
1.7498,0.2199,39.7300,92,98,61127
1.5494,0.2004,39.8000,92,98,61130
1.5591,0.1613,39.8300,92,98,61134
1.6813,0.1320,39.7000,92,98,61137
1.8524,0.1417,39.8000,92,98,61140
1.9110,0.1955,39.6000,92,98,61144
1.7253,0.2151,39.8000,92,98,61148
1.5591,0.2004,39.8900,92,98,61151
1.5494,0.1711,39.7300,92,98,61154
1.6716,0.1515,39.8300,92,98,61157
1.8768,0.1466,39.6700,92,98,61161
1.8866,0.1955,39.8000,92,98,61164
1.7449,0.2199,39.9600,92,98,61167
1.6373,0.2053,39.8000,92,98,61170
1.7351,0.1662,39.8600,92,98,61174
2.0039,0.1271,39.7000,92,98,61177
2.3216,0.1515,39.8000,92,98,61180
2.5220,0.2004,39.8600,92,98,61184
2.4927,0.2102,39.7000,92,98,61188
2.3412,0.2102,39.8300,92,98,61191
2.2972,0.1515,39.7300,92,98,61194
2.2776,0.1124,39.8300,92,98,61197
2.2972,0.1466,39.9600,92,98,61201
2.1896,0.2053,39.7300,92,98,61204
1.6960,0.1515,39.8000,92,98,61209
1.7058,0.2004,39.8600,92,98,61212
1.5934,0.2297,39.6400,92,98,61215
1.4223,0.2053,39.8000,92,98,61218
1.4223,0.1564,39.8600,92,98,61222
1.6129,0.1369,39.7700,92,98,61225
1.7986,0.1564,39.8600,92,98,61229
1.8573,0.2102,39.6000,92,98,61232
1.6569,0.2102,39.7700,92,98,61236
1.5054,0.2004,39.8600,92,98,61239
1.5200,0.1662,39.7700,92,98,61242
1.6667,0.1271,39.9600,92,98,61245
1.8964,0.1662,39.6000,92,98,61249
1.8964,0.2102,39.7000,92,98,61252
1.7204,0.2199,39.9600,92,98,61255
1.5787,0.2102,39.7700,92,98,61258
1.5494,0.1564,39.8300,92,98,61262
1.7449,0.1320,39.6000,92,98,61265
1.9062,0.1564,39.8300,92,98,61268
1.9208,0.2004,40.0600,92,98,61272
1.7840,0.2297,39.7000,92,98,61276
1.6031,0.1955,39.8300,92,98,61279
1.6276,0.1662,39.6400,92,98,61282
1.7498,0.1271,39.8300,92,98,61285
1.9453,0.1564,39.8300,92,98,61289
1.9795,0.2102,39.8600,92,98,61292
1.7986,0.2199,39.8900,92,98,61295
1.6667,0.2053,39.6700,92,98,61298
1.6471,0.1662,39.8300,92,98,61302
1.7986,0.1271,39.8600,92,98,61305
2.0137,0.1613,39.7700,92,98,61308
2.0088,0.2004,40.0000,92,98,61312
1.8866,0.2199,39.6700,92,98,61316
1.6960,0.2053,39.7700,92,98,61319
1.6813,0.1515,39.0600,92,98,61322
1.8622,0.1760,39.7000,92,98,61325
2.0381,0.1564,39.8300,92,98,61329
2.0919,0.2151,39.6700,92,98,61332
1.8915,0.2297,39.8600,92,98,61335
1.7302,0.2004,39.9300,92,98,61338
1.7400,0.1760,39.7700,92,98,61342
1.8817,0.1271,39.8600,92,98,61345
2.1114,0.1564,39.6400,92,98,61348
2.1114,0.2053,39.7300,92,98,61351
1.9404,0.2199,39.7300,92,98,61356
1.7937,0.2199,39.7300,92,98,61359
1.7693,0.1613,39.8600,92,98,61362
1.9599,0.1320,39.9600,92,98,61365
2.1212,0.1564,39.7700,92,98,61369
2.1457,0.2053,39.8900,92,98,61372
2.0088,0.2297,39.8300,92,98,61375
1.8280,0.2053,39.8300,92,98,61378
1.8426,0.1662,39.7000,92,98,61382
1.9746,0.1320,39.8300,92,98,61385
2.1652,0.1515,39.9300,92,98,61388
2.2141,0.2053,39.8000,92,98,61391
2.0283,0.2199,39.8300,92,98,61395
1.9013,0.2004,39.6400,92,98,61399
1.8475,0.1662,39.7300,92,98,61402
1.9941,0.1222,39.8300,92,98,61405
2.1994,0.1564,39.6700,92,98,61409
2.1945,0.2004,39.9600,92,98,61412
2.0528,0.2248,39.6700,92,98,61415
1.8524,0.2053,39.8000,92,98,61418
1.8280,0.1662,39.8900,92,98,61422
1.9892,0.1222,39.7000,92,98,61425
2.1457,0.1515,39.8300,92,98,61428
2.1945,0.2004,39.6700,92,98,61431
1.9648,0.2248,39.8600,92,98,61435
1.7791,0.2053,39.8000,92,98,61438
1.7546,0.1711,39.7700,92,98,61442
1.8671,0.1124,39.8300,92,98,61445
2.0626,0.1662,39.6400,92,98,61449
2.0479,0.2004,39.8300,92,98,61452
1.8573,0.2151,39.8300,92,98,61455
1.7058,0.2102,39.7300,92,98,61458
1.6325,0.1662,39.9600,92,98,61462
1.7840,0.1369,39.6700,92,98,61465
1.9355,0.1515,39.7300,92,98,61468
1.9501,0.2004,39.9600,92,98,61471
1.7889,0.2248,39.7000,92,98,61475
1.5982,0.2053,39.8300,92,98,61478
1.5934,0.1662,39.7000,92,98,61481
1.7204,0.1320,39.8300,92,98,61485
1.9013,0.1515,39.8600,92,98,61489
1.9550,0.1906,39.7300,92,98,61492
1.7693,0.2102,39.8300,92,98,61495
1.6129,0.2102,39.6400,92,98,61498
1.5738,0.1662,39.7700,92,98,61502
1.7302,0.1320,39.8300,92,98,61505
1.9257,0.1564,39.6000,92,98,61508
1.9355,0.2004,39.8300,92,98,61511
1.7937,0.2395,39.6700,92,98,61515
1.5982,0.2102,39.8000,92,98,61518
1.5787,0.1662,39.8300,92,98,61521
1.7400,0.1369,39.7000,92,98,61524
1.9110,0.1417,39.8300,92,98,61529
1.9795,0.2004,39.6700,92,98,61532
1.7937,0.2199,39.7700,92,98,61535
1.6276,0.2053,39.9300,92,98,61538
1.6325,0.1760,39.7300,92,98,61542
1.7546,0.1369,39.8300,92,98,61545
1.9746,0.1564,39.7000,92,98,61548
2.0137,0.2004,39.8000,92,98,61551
1.8231,0.2199,39.9600,92,98,61555
1.6667,0.2102,39.8600,92,98,61558
1.6618,0.1613,39.8600,92,98,61561
1.7986,0.1320,39.7000,92,98,61564
1.9648,0.1564,39.8000,92,98,61569
2.0088,0.2004,39.8600,92,98,61572
1.8622,0.2199,39.8000,92,98,61575
1.6764,0.2102,39.8300,92,98,61578
1.6667,0.1760,39.7300,92,98,61581
1.7889,0.1417,39.8000,92,98,61585
1.9795,0.1515,39.8600,92,98,61588
2.0577,0.2102,39.7300,92,98,61591
1.8719,0.2297,39.8600,92,98,61594
1.7155,0.2102,39.7300,92,98,61598
1.6716,0.1662,39.8000,92,98,61601
1.8084,0.1417,39.8600,92,98,61604
2.0283,0.1564,39.7300,92,98,61607
2.0528,0.2053,39.8600,92,98,61612
1.9257,0.2297,39.7300,92,98,61615
1.7204,0.2102,39.8300,92,98,61618
1.6813,0.1711,39.8600,92,98,61621
1.8280,0.1320,39.7000,92,98,61625
2.0088,0.1515,39.8300,92,98,61628
2.0821,0.2248,39.7300,92,98,61631
1.8915,0.2199,39.8300,92,98,61634
1.7107,0.2102,40.0300,92,98,61638
1.6960,0.1808,39.7300,92,98,61641
1.8035,0.1417,39.8300,92,98,61644
2.0528,0.1564,39.7300,92,98,61647
2.0430,0.1955,39.8600,92,98,61651
1.8866,0.2199,39.8900,92,98,61655
1.7253,0.2199,39.7300,92,98,61658
1.6764,0.1760,39.8600,92,98,61661
1.8328,0.1124,39.7300,92,98,61665
2.0186,0.1466,40.0300,92,98,61668
2.0821,0.1955,39.8600,92,98,61671
1.9599,0.2248,39.8000,92,98,61674
1.7742,0.2151,39.8300,92,98,61678
1.7644,0.1808,39.6700,92,98,61681
1.8915,0.1369,39.8300,92,98,61684
2.0968,0.1466,39.8900,92,98,61687
2.1994,0.2053,39.7000,92,98,61691
2.0381,0.2248,39.8300,92,98,61694
1.8866,0.2151,39.7000,92,98,61698
1.8231,0.1760,39.7700,92,98,61701
1.9746,0.1369,39.8300,92,98,61705
2.1750,0.1515,39.7300,92,98,61708
2.2043,0.2004,39.8300,92,98,61711
2.0674,0.2346,39.6700,92,98,61714
1.8524,0.2102,39.8900,92,98,61718
1.7937,0.1711,39.8600,92,98,61721
1.9257,0.1515,39.8000,92,98,61724
2.0821,0.1320,39.8300,92,98,61727
2.1310,0.2004,39.8000,92,98,61731
1.9306,0.2248,39.9300,92,98,61734
1.7155,0.2151,39.8300,92,98,61737
1.6569,0.1808,39.6700,92,98,61741
1.7351,0.1417,40.0600,92,98,61745
1.9355,0.1515,39.7000,92,98,61748
1.9453,0.2199,39.8900,92,98,61751
1.7937,0.2199,39.8600,92,98,61754
1.6276,0.2199,39.6400,92,98,61758
1.5543,0.1808,39.8300,92,98,61761
1.6862,0.1369,39.6700,92,98,61764
1.8524,0.1515,39.8300,92,98,61767
1.9062,0.2004,39.8000,92,98,61771
1.7840,0.2297,39.8600,92,98,61774
1.5885,0.2151,39.8300,92,98,61777
1.5494,0.1760,39.7000,92,98,61780
1.6618,0.1369,39.9600,92,98,61785
1.8622,0.1564,39.8300,92,98,61788
1.9453,0.2053,39.6400,92,98,61791
1.7693,0.2248,39.8000,92,98,61794
1.5885,0.2151,39.7000,92,98,61798
1.5591,0.1711,39.8600,92,98,61801
1.6862,0.1369,39.8900,92,98,61804
1.9990,0.1564,39.7000,92,98,61807
2.1652,0.2004,39.8000,92,98,61811
2.2092,0.2248,39.7300,92,98,61814
2.1994,0.2102,39.8300,93,98,61817
2.2972,0.2639,39.8600,93,98,61822
1.9550,0.2102,39.2800,93,98,61826
1.7742,0.1808,39.7300,93,98,61829
1.7351,0.1466,39.8300,93,98,61833
1.8328,0.1515,39.6700,93,98,61836
1.7693,0.2004,39.7700,93,98,61839
1.5982,0.2297,39.8900,93,98,61842
1.4467,0.2542,39.7000,93,98,61846
1.4125,0.1711,39.8600,93,98,61849
1.5591,0.1320,38.9600,93,98,61852
1.7400,0.1417,39.8600,93,98,61855
1.7840,0.2004,39.8600,93,98,61859
1.6520,0.2248,39.7300,93,98,61862
1.4907,0.2102,39.8300,93,98,61865
1.4761,0.1711,39.8000,93,98,61869
1.5982,0.1369,39.8600,93,98,61873
1.7937,0.1515,39.8300,93,98,61876
1.8719,0.2102,39.7300,93,98,61879
1.7009,0.2248,39.9600,93,98,61882
1.5543,0.2151,39.7300,93,98,61886
1.5005,0.1760,39.8300,93,98,61889
1.6422,0.1369,39.8600,93,98,61892
1.8573,0.1515,39.7300,93,98,61895
1.8915,0.2053,39.9300,93,98,61899
1.7644,0.2248,39.7000,93,98,61902
1.5738,0.2053,39.8300,93,98,61905
1.5445,0.1711,39.8600,93,98,61908
1.6960,0.1124,39.7700,93,98,61913
1.8817,0.1515,39.9600,93,98,61916
1.9599,0.2004,39.7300,93,98,61919
1.7840,0.2248,39.8300,93,98,61922
1.6129,0.2053,39.8000,93,98,61926
1.6080,0.1808,39.6400,93,98,61929
1.7302,0.1417,39.8300,93,98,61932
1.9550,0.1564,39.7300,93,98,61935
1.9990,0.1955,39.8000,93,98,61939
1.8328,0.2248,39.8000,93,98,61942
1.6862,0.2151,39.8300,93,98,61945
1.6422,0.1760,39.8000,93,98,61948
1.8084,0.1417,39.7700,93,98,61953
1.9746,0.1662,39.8900,93,98,61956
2.0332,0.2004,39.9600,93,98,61959
1.8964,0.2248,39.7700,93,98,61962
1.7155,0.2102,39.8300,93,98,61965
1.7058,0.1808,39.8000,93,98,61969
1.8475,0.1369,39.8300,93,98,61972
2.0137,0.1466,39.8300,93,98,61975
2.1017,0.2102,39.7300,93,98,61978
1.9257,0.2199,39.8600,93,98,61982
1.7693,0.2199,39.7000,93,98,61985
1.7204,0.1760,39.8600,93,98,61988
1.8622,0.1369,39.9300,93,98,61991
2.0919,0.1613,39.7700,93,98,61996
2.1408,0.2102,39.8300,93,98,61999
2.0283,0.2297,39.7000,93,98,62002
1.8182,0.2102,39.8300,93,98,62005
1.7937,0.1760,39.8300,93,98,62009
1.9501,0.1417,39.8000,93,98,62012
2.1359,0.1515,39.8600,93,98,62015
2.2287,0.2004,39.6700,93,98,62018
2.0577,0.2248,39.8600,93,98,62022
1.8719,0.2102,39.8600,93,98,62025
1.8573,0.1857,39.7000,93,98,62028
1.9697,0.1124,39.8300,93,98,62031
2.1848,0.1515,39.7700,93,98,62035
2.2092,0.2004,39.8300,93,98,62039
2.0626,0.2297,39.8300,93,98,62042
1.9013,0.2199,39.6700,93,98,62045
1.8426,0.1857,39.8600,93,98,62049
1.9746,0.1417,39.8000,93,98,62052
2.1457,0.1613,39.8300,93,98,62055
2.1848,0.1955,39.8600,93,98,62058
2.0528,0.2297,38.9600,93,98,62062
1.8426,0.2151,39.8300,93,98,62065
1.7889,0.1955,39.7000,93,98,62068
1.8768,0.1417,39.3800,93,98,62071
2.0528,0.1564,39.8300,93,98,62075
2.1261,0.2053,39.7000,93,98,62078
1.9306,0.2297,39.8000,93,98,62082
1.7351,0.2248,39.7300,93,98,62085
1.6422,0.1808,39.8600,93,98,62089
1.7449,0.1466,39.8300,93,98,62092
1.9501,0.1515,39.8000,93,98,62095
1.9844,0.2004,39.8300,93,98,62098
1.8328,0.2297,39.7000,93,98,62102
1.6178,0.2199,39.8300,93,98,62105
1.5543,0.1808,39.8300,93,98,62108
1.6862,0.1760,39.7300,93,98,62111
1.8573,0.1515,39.8300,93,98,62115
1.9306,0.1955,39.7700,93,98,62118
1.7693,0.2542,39.8000,93,98,62121
1.5836,0.2151,39.8300,93,98,62125
1.5591,0.1955,39.7000,93,98,62129
1.6569,0.1466,39.8300,93,98,62132
1.8622,0.1466,39.7000,93,98,62135
1.9208,0.2151,39.8600,93,98,62138
1.7889,0.2248,39.8900,93,98,62142
1.6325,0.2248,39.7300,93,98,62145
1.5591,0.1808,39.8000,93,98,62148
1.6862,0.1417,39.7300,93,98,62151
1.8671,0.1808,39.8600,93,98,62155
1.9453,0.1955,39.8000,93,98,62158
1.8328,0.2346,39.7700,93,98,62161
1.6422,0.2199,39.8300,93,98,62164
1.5836,0.1857,39.7000,93,98,62169
1.6911,0.1417,39.9300,93,98,62172
1.8866,0.1417,39.8600,93,98,62175
1.9941,0.2053,39.7000,93,98,62178
1.8377,0.2297,39.7300,93,98,62182
1.6569,0.2199,39.7300,93,98,62185
1.5982,0.1808,39.8300,93,98,62188
1.7204,0.1417,39.8300,93,98,62191
1.9501,0.1613,39.7000,93,98,62195
2.0088,0.2004,38.9300,93,98,62198
1.8768,0.2297,39.8000,93,98,62201
1.6764,0.2199,39.8600,93,98,62204
1.6178,0.1808,39.8000,93,98,62209
1.7644,0.1515,39.8300,93,98,62212
1.9404,0.1515,39.8300,93,98,62215
2.0186,0.2199,39.7700,93,98,62218
