ecg,gsr,temp,hr,spo2,timest
1.7449,0.4203,39.1600,82,97,141494
1.7155,0.4106,39.3800,82,97,141497
1.7155,0.4154,39.3500,82,97,141500
1.7400,0.4203,39.2800,82,97,141504
1.7107,0.4106,39.3800,82,97,141507
1.7644,0.4301,39.1200,82,97,141510
1.7449,0.4154,39.2800,82,97,141514
1.7400,0.4106,39.4400,82,97,141517
1.7595,0.4154,39.3500,82,97,141520
1.7546,0.4154,39.3800,82,97,141524
1.8133,0.4252,39.1900,82,97,141528
1.8035,0.4252,39.2800,82,97,141531
1.7742,0.4057,39.3500,82,97,141534
1.7742,0.4106,39.3800,82,97,141538
1.7889,0.4106,39.3500,82,97,141541
1.8328,0.4057,39.2200,82,97,141544
1.8035,0.4154,39.4400,82,97,141548
1.8280,0.4203,39.2200,82,97,141551
1.8182,0.4106,39.3500,82,97,141554
1.8182,0.4154,39.3800,82,97,141558
1.8573,0.4203,39.3200,82,97,141561
1.8475,0.4154,39.4100,82,97,141564
1.8817,0.4154,39.2500,82,97,141569
1.8622,0.4057,39.4100,82,97,141572
1.8671,0.4106,39.4400,82,97,141575
1.8964,0.4203,39.2200,82,97,141579
1.8671,0.4106,39.3500,82,97,141582
1.8964,0.4154,39.1900,82,97,141585
1.8768,0.4057,39.2800,82,97,141588
1.8817,0.4106,39.3500,82,97,141592
1.9306,0.4252,39.2500,82,97,141595
1.8817,0.4106,39.3500,82,97,141598
1.9257,0.4252,39.1600,82,97,141602
1.8866,0.4106,39.2800,82,97,141605
1.8768,0.4106,39.3500,82,97,141608
1.9110,0.4154,39.3500,82,97,141613
1.8768,0.4106,39.3800,82,97,141616
1.9355,0.4203,39.1200,82,97,141619
1.8866,0.4154,39.3800,82,97,141623
1.8817,0.4008,39.3200,82,97,141626
1.8817,0.4154,39.3200,82,97,141629
1.9013,0.4106,39.3800,82,97,141633
1.9208,0.4301,39.2200,82,97,141636
1.8866,0.4154,39.3800,82,97,141639
1.8915,0.4106,39.2800,82,97,141642
1.8719,0.4106,39.3500,82,97,141646
1.8671,0.4057,39.3500,82,97,141649
1.9110,0.4252,39.1600,82,97,141652
1.8866,0.4154,39.3200,82,97,141657
1.9159,0.4203,39.2200,82,97,141660
1.8915,0.4154,39.3500,82,97,141663
1.9110,0.4106,39.3800,82,97,141667
1.9404,0.4497,39.3200,82,97,141670
1.9159,0.4106,39.4400,82,97,141673
1.9501,0.4154,39.5100,82,97,141677
1.9208,0.4057,39.3500,82,97,141680
1.9159,0.4057,39.3800,82,97,141683
1.9306,0.4154,39.5400,82,97,141686
1.9257,0.4203,39.4400,82,97,141690
1.9892,0.4203,39.2200,82,97,141693
1.9648,0.4350,39.3500,82,97,141697
1.9941,0.4057,39.3200,82,97,141701
2.0283,0.4154,39.4100,82,97,141704
2.0137,0.4057,39.3800,82,97,141707
2.0674,0.4252,39.1200,82,97,141711
2.0430,0.4203,39.2800,82,97,141714
2.0283,0.4057,39.3800,82,97,141717
2.0283,0.4154,39.3500,82,97,141720
1.9941,0.4106,39.3500,82,97,141724
2.0235,0.4350,39.1600,82,97,141727
1.9501,0.4252,39.2800,82,97,141730
1.9013,0.4106,39.2200,82,97,141734
1.9013,0.4106,39.3800,82,97,141737
1.8377,0.4106,39.3500,82,97,141741
1.8622,0.4252,39.2200,82,97,141745
1.8084,0.4154,39.4400,82,97,141748
1.8182,0.4154,39.2200,82,97,141751
1.7889,0.4057,39.3500,82,97,141755
1.7791,0.4106,39.3500,82,97,141758
1.7937,0.4203,39.3500,82,97,141761
1.7693,0.4106,39.3500,82,97,141764
1.7840,0.4301,39.2500,82,97,141768
1.7498,0.4106,39.3800,82,97,141771
1.7449,0.4106,39.3800,82,97,141774
1.7742,0.4154,39.2200,82,97,141778
1.7400,0.4106,39.3800,82,97,141782
1.7693,0.4252,39.2200,82,97,141785
1.7546,0.4106,39.2800,82,97,141789
1.7644,0.4154,39.3800,82,97,141792
1.7986,0.4252,39.2500,82,97,141795
1.7742,0.4154,39.3800,82,97,141799
1.8280,0.4252,39.1200,82,97,141802
1.7937,0.4057,39.2800,82,97,141805
1.7986,0.4106,39.4400,82,97,141808
1.7937,0.3861,39.3500,82,97,141812
1.7889,0.4106,39.3500,82,97,141815
1.8475,0.4301,39.0900,82,97,141818
1.8035,0.4106,39.2800,82,97,141822
1.8035,0.4057,39.3500,82,97,141826
1.8035,0.4154,39.3500,82,97,141829
1.7693,0.4106,39.4100,82,97,141833
1.7644,0.4252,39.2500,82,97,141836
1.6520,0.4154,39.1900,82,97,141839
1.5836,0.4106,39.2800,82,97,141843
1.5152,0.4106,39.2800,82,97,141846
1.5054,0.4154,39.3800,82,97,141849
1.6569,0.4252,39.2200,82,97,141852
1.8964,0.4203,39.3200,82,97,141856
2.2776,0.4154,39.2200,82,97,141859
2.7126,0.4106,39.2800,82,97,141862
3.2258,0.4057,39.3500,82,97,141867
3.7292,0.4203,39.3200,82,97,141870
3.8807,0.4057,39.3500,82,97,141873
3.7928,0.4203,39.2200,82,97,141877
3.3822,0.4106,39.3500,82,97,141880
2.9228,0.4203,39.3800,82,97,141883
2.4633,0.4154,39.2800,82,97,141887
2.0186,0.4106,39.3500,82,97,141890
1.7107,0.4106,39.1600,82,97,141893
1.4712,0.4106,39.5400,82,97,141896
1.3881,0.4106,39.4400,82,97,141900
1.3832,0.4106,39.2800,82,97,141903
1.3881,0.4057,39.4400,82,97,141906
1.4761,0.4252,39.0900,82,97,141911
1.5103,0.4154,39.2800,82,97,141914
1.5152,0.4106,39.3800,82,97,141917
1.5738,0.4203,39.3200,82,97,141921
1.5640,0.4106,39.3500,82,97,141924
1.6325,0.4350,39.4800,82,97,141927
1.6178,0.4203,39.2800,82,97,141931
1.6178,0.4106,39.2800,82,97,141934
1.6276,0.4106,39.3800,82,97,141937
1.6422,0.4057,39.3500,82,97,141941
1.6911,0.4252,39.2200,82,97,141944
1.6618,0.4203,39.3500,82,97,141947
1.7009,0.4154,39.3500,82,97,141950
1.6911,0.4106,39.3200,82,97,141955
1.7009,0.4106,39.3800,82,97,141958
1.7302,0.4203,39.2800,82,97,141961
1.7546,0.4106,39.3500,82,97,141965
1.7644,0.4203,39.2800,82,97,141968
1.7742,0.4154,39.3500,82,97,141971
1.7449,0.4106,39.4400,82,97,141975
1.7791,0.4203,39.2800,83,97,141978
1.7840,0.4203,39.3200,83,97,141983
1.7644,0.4106,39.4400,83,97,141986
1.8133,0.4350,39.0600,83,97,141989
1.7693,0.4154,39.2500,83,97,141993
1.7595,0.4106,39.3800,83,97,141997
1.7644,0.4106,39.3500,83,97,142000
1.7693,0.4106,39.4400,83,97,142003
1.8328,0.4399,39.1600,83,97,142007
1.7889,0.4154,39.4100,83,97,142010
1.8035,0.4106,39.3200,83,97,142013
1.8084,0.4106,39.4400,83,97,142017
1.8084,0.4106,39.4100,83,97,142020
1.8622,0.4154,39.2500,83,97,142023
1.8475,0.4106,39.3500,83,97,142027
1.8817,0.4154,39.2200,83,97,142030
1.8719,0.4106,39.3800,83,97,142033
1.8817,0.4203,39.3800,83,97,142038
1.9257,0.4252,39.2800,83,97,142041
1.9013,0.4252,39.3500,83,97,142044
1.9355,0.4154,39.2500,83,97,142048
1.9159,0.4106,39.2800,83,97,142051
1.9404,0.4106,39.3500,83,97,142054
1.9697,0.4252,39.2500,83,97,142057
1.9501,0.4106,39.3500,83,97,142061
2.0088,0.4203,39.2500,83,97,142064
1.9990,0.4106,39.3200,83,97,142067
1.9892,0.3861,39.3500,83,97,142071
2.0137,0.4203,39.2800,83,97,142074
2.0137,0.4106,39.3500,83,97,142077
2.0772,0.4252,39.1200,83,97,142082
2.0283,0.4154,39.3200,83,97,142085
2.0430,0.4057,39.3800,83,97,142088
2.0577,0.4154,39.3500,83,97,142092
2.0430,0.4057,39.3500,83,97,142095
2.1114,0.4301,39.0900,83,97,142098
2.0626,0.4154,39.3800,83,97,142101
2.0430,0.4057,39.2500,83,97,142105
2.0381,0.4154,39.3200,83,97,142108
2.0039,0.3861,39.3500,83,97,142111
2.0381,0.4301,39.4800,83,97,142115
1.9697,0.4154,39.3200,83,97,142118
1.9355,0.4106,39.2800,83,97,142121
1.8915,0.4203,39.3500,83,97,142126
1.8671,0.4057,39.3800,83,97,142129
1.8768,0.4203,39.2500,83,97,142132
1.8133,0.4106,39.4400,83,97,142135
1.8231,0.4154,39.2200,83,97,142139
1.8035,0.4106,39.4400,83,97,142142
1.7498,0.4106,39.3800,83,97,142145
1.7498,0.4106,39.3200,83,97,142149
1.7302,0.4106,39.3500,83,97,142152
1.7498,0.4106,39.1900,83,97,142155
1.7204,0.4106,39.3500,83,97,142159
1.7155,0.4106,39.3500,83,97,142162
1.7400,0.4057,39.2500,83,97,142166
1.7058,0.4106,39.3500,83,97,142170
1.7351,0.4301,39.1600,83,97,142173
1.7204,0.4154,39.2500,83,97,142176
1.7155,0.4106,39.4800,83,97,142179
1.7351,0.4203,39.3200,83,97,142183
1.7155,0.4106,39.3500,83,97,142186
1.7644,0.4301,39.0900,83,97,142189
1.7204,0.4154,39.3200,83,97,142193
1.7155,0.4008,39.3500,83,97,142196
1.7253,0.4154,39.1600,83,97,142199
1.7253,0.4106,39.4100,83,97,142203
1.7840,0.4350,39.1900,83,97,142206
1.7400,0.4154,39.5100,83,97,142210
1.7498,0.4154,39.3800,83,97,142214
1.7546,0.4106,39.4100,83,97,142217
1.7498,0.4057,39.3500,83,97,142220
1.7889,0.4252,39.2800,83,97,142224
1.7742,0.4106,39.3200,83,97,142227
1.7937,0.4154,39.2500,83,97,142230
1.7937,0.4154,39.4400,83,97,142233
1.7791,0.4057,39.3800,83,97,142237
1.8133,0.4252,39.2500,83,97,142240
1.7840,0.4154,39.3500,83,97,142243
1.8084,0.4154,39.2500,83,97,142247
1.7840,0.4057,39.3200,83,97,142251
1.7889,0.4106,39.3500,83,97,142254
1.8084,0.4057,39.2200,83,97,142258
1.7840,0.4106,39.3800,83,97,142261
1.8182,0.4203,39.1900,83,97,142264
1.7889,0.4106,39.3200,83,97,142268
1.7840,0.4106,39.4800,83,97,142271
1.7937,0.4106,39.3500,83,97,142274
1.7791,0.4057,39.3800,83,97,142277
1.8280,0.4252,39.1200,83,97,142281
1.7840,0.4106,39.3500,83,97,142284
1.7840,0.4106,39.4100,83,97,142287
1.7986,0.4154,39.3200,83,97,142291
1.7742,0.4106,39.3200,83,97,142295
1.8328,0.4350,39.1200,83,97,142298
1.8035,0.4203,39.2800,83,97,142302
1.7986,0.4057,39.2800,83,97,142305
1.7986,0.4154,39.3500,83,97,142308
1.7937,0.4106,39.3200,83,97,142312
1.8622,0.4252,39.1900,83,97,142315
1.7986,0.4154,39.2800,83,97,142318
1.8084,0.4057,39.2500,83,97,142322
1.7937,0.4106,39.3800,83,97,142325
1.8035,0.4106,39.4800,83,97,142328
1.8426,0.4203,39.2500,83,97,142331
1.8231,0.4106,39.3800,83,97,142336
1.8524,0.4497,39.2500,83,97,142339
1.8231,0.4106,39.4400,83,97,142342
1.8182,0.4008,39.3500,83,97,142346
1.8231,0.4154,39.3200,83,97,142349
1.8182,0.4106,39.4400,83,97,142352
1.8719,0.4106,39.2200,83,97,142356
1.8377,0.4057,39.3500,83,97,142359
1.8768,0.4057,39.3800,83,97,142362
1.9013,0.4203,39.2200,83,97,142366
1.8964,0.4106,39.3800,83,97,142369
1.9453,0.4203,39.1600,83,97,142372
1.9257,0.4154,39.2800,83,97,142375
1.9159,0.4106,39.4100,83,97,142380
1.9453,0.4203,39.3200,83,97,142383
1.8866,0.4106,39.3800,83,97,142386
1.9159,0.4252,39.1200,83,97,142390
1.8475,0.4154,39.2200,83,97,142393
1.7937,0.4106,39.3200,83,97,142396
1.7644,0.4106,39.3500,83,97,142400
1.7351,0.4106,39.3800,83,97,142403
1.7644,0.4301,39.2200,83,97,142406
1.7058,0.4106,39.3500,83,97,142410
1.7009,0.4448,39.3200,83,97,142413
1.6764,0.3861,39.4100,83,97,142416
1.6667,0.4154,39.3800,83,97,142420
1.6911,0.4203,39.3800,83,97,142424
1.6667,0.4106,39.4100,83,97,142427
1.6813,0.4154,39.1900,83,97,142430
1.6520,0.4106,39.3500,83,97,142434
1.6520,0.4106,39.3500,83,97,142437
1.6862,0.4252,39.2500,83,97,142440
1.6471,0.4106,39.3500,83,97,142444
1.6716,0.4057,39.2200,83,97,142447
1.6520,0.4106,39.2800,83,97,142450
1.6813,0.4057,39.3800,83,97,142454
1.6862,0.4203,39.2500,83,97,142457
1.6764,0.4106,39.3500,83,97,142460
1.6862,0.4203,39.1600,83,97,142465
1.6618,0.4203,39.3200,83,97,142468
1.6569,0.4057,39.3500,83,97,142471
1.6618,0.4154,39.3500,83,97,142474
1.6520,0.4203,39.3500,83,97,142478
1.7009,0.4252,39.0900,83,97,142481
1.6520,0.4106,39.3200,83,97,142484
1.6520,0.4057,39.3800,83,97,142488
1.6520,0.4154,39.3500,83,97,142491
1.6325,0.4008,39.3800,83,97,142494
1.6667,0.4252,39.1900,83,97,142498
1.5934,0.4203,39.3200,83,97,142501
1.5249,0.4057,39.2800,83,97,142504
1.4418,0.4154,39.3500,83,97,142509
1.3783,0.4057,39.3800,83,97,142512
1.3734,0.4203,39.1600,83,97,142515
1.4125,0.4154,39.3200,83,97,142519
1.6178,0.4154,39.2800,83,97,142522
1.9355,0.4106,39.3500,83,97,142525
2.3705,0.4057,39.3800,83,97,142528
2.8983,0.4252,39.2800,83,97,142532
3.3382,0.4057,39.3500,83,97,142535
3.6706,0.4203,39.3200,83,97,142538
3.5826,0.4350,39.3800,83,97,142542
3.2991,0.4057,39.2500,83,97,142545
2.9032,0.4154,39.2500,83,97,142548
2.4536,0.4154,39.4400,83,97,142553
2.0137,0.4154,39.1900,83,97,142556
1.6227,0.4106,39.3800,83,97,142559
1.3441,0.4106,39.3800,83,97,142562
1.2268,0.4203,39.2800,83,97,142566
1.1730,0.4106,39.3500,83,97,142569
1.2121,0.4252,39.1600,83,97,142572
1.2414,0.4203,39.2800,83,97,142576
1.2708,0.4057,39.4100,83,97,142579
1.3245,0.4106,39.3200,83,97,142582
1.3490,0.4106,39.3800,83,97,142586
1.4125,0.4252,39.0900,83,97,142589
1.4663,0.4350,39.2200,83,97,142595
1.4418,0.4203,39.3500,83,97,142598
1.4516,0.4154,39.2500,83,97,142601
1.4321,0.4106,39.3500,83,97,142605
1.4272,0.4106,39.3500,83,97,142608
1.4418,0.4203,39.4100,83,97,142611
1.4370,0.4057,39.3500,83,97,142615
1.4809,0.4154,39.1600,83,97,142618
1.4614,0.3861,39.3800,83,97,142621
1.4761,0.4057,39.2800,83,97,142624
1.5054,0.4154,39.2500,83,97,142628
1.4907,0.4106,39.3500,83,97,142631
1.5249,0.4154,39.1900,83,97,142635
1.5200,0.4154,39.2800,83,97,142639
1.5249,0.4106,39.4100,83,97,142642
1.5494,0.4203,39.3200,83,97,142645
1.5347,0.4057,39.3500,83,97,142649
1.5787,0.4252,39.1600,83,97,142652
1.5494,0.4106,39.3500,83,97,142655
1.5494,0.4008,39.4400,83,97,142659
1.5640,0.4154,39.3500,83,97,142662
1.5640,0.4106,39.3500,83,97,142665
1.6178,0.4790,39.1900,83,97,142668
1.5787,0.4154,39.3800,83,97,142672
1.5885,0.4154,39.3200,83,97,142675
1.5934,0.4106,39.3500,83,97,142679
1.5885,0.4106,39.3500,83,97,142683
1.6373,0.4252,39.2200,83,97,142686
1.6227,0.4106,39.3500,83,97,142689
1.6569,0.4154,39.2500,83,97,142693
1.6667,0.4106,39.4400,83,97,142696
1.6569,0.4106,39.4800,83,97,142699
1.7009,0.4350,39.3500,83,97,142703
1.6862,0.3861,39.3500,83,97,142706
1.7155,0.4203,39.2500,83,97,142709
1.7253,0.4106,39.3200,83,97,142713
1.7351,0.4106,39.3500,83,97,142716
1.7595,0.4154,39.2500,83,97,142720
1.7498,0.4106,39.3500,83,97,142723
1.7889,0.4106,39.1600,83,97,142727
1.7742,0.4106,39.3200,83,97,142730
1.7791,0.4106,39.4100,83,97,142733
1.8084,0.4057,39.3500,83,97,142737
1.8035,0.4106,39.4100,83,97,142740
1.8622,0.4252,39.1600,83,97,142743
1.8280,0.4106,39.3500,83,97,142747
1.8475,0.4203,39.3800,83,97,142750
1.8719,0.4057,39.3500,83,97,142753
1.8622,0.4154,39.3500,83,97,142757
1.9208,0.4252,39.1900,83,97,142760
1.8915,0.4154,39.2800,83,97,142764
1.8768,0.4106,39.3200,83,97,142767
1.8768,0.4154,39.1600,83,97,142771
1.8573,0.4106,39.3800,83,97,142774
1.8915,0.4252,39.1900,83,97,142777
1.8328,0.4154,39.3200,83,97,142781
1.8133,0.4106,39.2500,83,97,142784
1.7742,0.4399,39.3800,83,97,142787
1.7546,0.3861,39.3800,83,97,142791
1.7546,0.4545,39.2500,83,97,142794
1.7058,0.4106,39.4100,83,97,142797
1.7009,0.4203,39.2500,83,97,142801
1.6471,0.4203,39.3800,83,97,142804
1.6227,0.4106,39.3800,83,97,142808
1.6178,0.4154,39.2800,83,97,142812
1.5982,0.4106,39.3500,83,97,142815
1.6080,0.4154,39.2800,83,97,142818
1.5787,0.4057,39.3800,83,97,142821
1.5738,0.4057,39.3500,83,97,142825
1.5836,0.4399,39.2500,83,97,142828
1.5591,0.4106,39.3500,83,97,142831
1.5885,0.4203,39.1600,83,97,142835
1.5787,0.4154,39.2800,83,97,142838
1.5787,0.4106,39.2800,83,97,142841
1.6031,0.4203,39.3200,83,97,142845
1.5885,0.4106,39.4100,83,97,142849
1.6471,0.4350,39.0900,83,97,142852
1.6178,0.4154,39.2200,83,97,142856
1.6080,0.4545,39.3500,83,97,142859
1.6227,0.4106,39.3500,83,97,142862
1.6325,0.4106,39.4400,83,97,142865
1.7107,0.4350,39.1900,83,97,142869
1.6471,0.4154,39.2200,83,97,142872
1.6618,0.4154,39.2500,83,97,142875
1.6520,0.4106,39.3800,83,97,142879
1.6520,0.4106,39.3800,83,97,142882
1.6911,0.4252,39.3500,83,97,142885
1.6764,0.4203,39.4400,83,97,142889
1.7058,0.4154,39.2500,83,97,142893
1.6862,0.4448,39.4100,83,97,142896
1.6911,0.4106,39.3500,83,97,142900
1.7253,0.4448,39.2500,83,97,142903
1.7009,0.4106,39.3500,83,97,142906
1.7302,0.4154,39.2200,83,97,142910
1.7058,0.4106,39.3200,83,97,142913
1.7155,0.4106,39.4100,83,97,142916
1.7302,0.4203,39.2800,83,97,142919
1.7302,0.4106,39.3500,83,97,142923
1.7742,0.4203,39.1600,83,97,142926
1.7351,0.4154,39.3500,83,97,142929
1.7400,0.4106,39.3800,83,97,142934
1.7791,0.4057,39.4400,83,97,142937
1.7400,0.4106,39.0300,83,97,142940
1.7840,0.4252,39.1200,83,97,142944
1.7351,0.4106,39.4800,83,97,142947
1.7351,0.4203,39.3800,83,97,142950
1.7351,0.4154,39.3500,83,97,142954
1.7400,0.4106,39.3500,83,97,142957
1.7742,0.4350,39.1900,83,97,142960
1.7351,0.4203,39.2800,83,97,142964
1.7400,0.4106,39.2800,83,97,142967
1.7204,0.4106,39.3500,83,97,142970
1.7155,0.4203,39.3500,83,97,142973
1.7595,0.4252,39.1900,83,97,142978
1.7351,0.4106,39.3200,83,97,142981
1.7498,0.4154,39.2500,83,97,142984
1.7449,0.4154,39.3800,83,97,142988
1.7595,0.4057,39.3500,83,97,142991
1.7889,0.4643,39.3500,83,97,142994
1.7595,0.4057,39.3500,83,97,142998
1.8084,0.4154,39.0300,83,97,143001
1.7693,0.4057,39.3500,83,97,143004
1.7693,0.4106,39.3800,83,97,143008
1.7889,0.4106,39.3200,83,97,143011
1.7986,0.4057,39.3500,83,97,143014
1.8573,0.4154,39.1900,83,97,143017
1.8573,0.4057,39.3800,83,97,143022
1.8768,0.4106,39.3500,83,97,143025
1.9110,0.4301,39.3500,83,97,143028
1.8964,0.4106,39.3800,83,97,143032
1.9453,0.4252,39.1200,83,97,143035
1.9159,0.4154,39.3800,83,97,143038
1.8964,0.4106,39.2800,83,97,143042
1.8915,0.4154,39.3500,83,97,143045
1.8475,0.4106,39.3500,83,97,143048
1.8964,0.4350,39.1900,83,97,143052
1.7986,0.4252,39.2800,83,97,143055
1.7498,0.4106,39.3200,83,97,143058
1.7253,0.4106,39.3800,83,97,143063
1.7009,0.4350,39.3500,83,97,143066
1.7302,0.4252,39.2500,83,97,143069
1.6764,0.4106,39.2800,83,97,143072
1.6813,0.4203,39.2800,83,97,143076
1.6471,0.4106,39.3500,83,97,143079
1.6422,0.4203,39.3800,83,97,143082
1.6569,0.4203,39.3200,83,97,143086
1.6373,0.4106,39.3800,83,97,143089
1.6862,0.4154,39.2500,83,97,143092
1.6227,0.4106,39.3500,83,97,143096
1.6276,0.4057,39.3500,83,97,143099
1.6422,0.4203,39.2800,83,97,143102
1.6373,0.4106,39.3800,83,97,143107
1.6373,0.4154,39.2200,83,97,143110
1.6227,0.4448,39.2800,83,97,143113
1.6227,0.4106,39.3800,83,97,143116
1.6422,0.4252,39.3200,83,97,143120
1.6276,0.4057,39.3800,83,97,143123
1.6716,0.4203,39.2200,83,97,143126
1.6471,0.4106,39.2800,83,97,143130
1.6422,0.4106,39.3800,83,97,143133
1.6520,0.4154,39.4800,83,97,143136
1.6618,0.4203,39.3500,83,97,143140
1.7009,0.4252,39.0900,83,97,143143
1.6569,0.4203,39.2800,83,97,143147
1.6618,0.4057,39.3500,83,97,143151
1.6520,0.4154,39.2500,83,97,143154
1.6080,0.4106,39.3800,83,97,143157
1.5885,0.4301,38.7400,83,97,143160
1.4809,0.4106,39.4100,83,97,143164
1.4174,0.4106,39.2800,83,97,143167
1.3636,0.4301,39.3500,83,97,143170
1.3978,0.4106,39.3800,83,97,143174
1.5836,0.4252,39.2200,83,97,143177
1.8573,0.4154,39.3500,83,97,143180
2.2825,0.4154,39.1200,83,97,143184
2.7419,0.4106,39.3800,83,97,143187
3.2454,0.4106,39.2500,83,97,143191
3.6559,0.4203,39.2800,83,97,143195
3.6852,0.4106,39.3800,83,97,143198
3.5191,0.4154,39.3500,83,97,143201
3.0645,0.4203,39.0900,83,97,143204
1.2561,0.4106,39.3800,83,97,143209
1.1926,0.4106,39.3500,83,97,143212
1.2072,0.4154,39.3800,83,97,143216
1.2317,0.4057,39.3800,83,97,143219
1.3099,0.4252,39.0900,83,97,143222
1.3294,0.4448,39.2800,83,97,143226
1.3587,0.4106,39.4100,83,97,143229
1.3978,0.4301,39.4100,83,97,143233
1.4125,0.4106,39.3800,83,97,143237
1.4858,0.4350,39.1900,83,97,143240
1.4761,0.4154,39.3200,83,97,143243
1.4809,0.4106,39.2800,83,97,143247
1.4907,0.4106,39.2200,83,97,143250
1.5054,0.4154,39.4400,83,97,143253
1.5543,0.4252,39.2200,83,97,143256
1.5445,0.4106,39.3500,83,97,143260
1.5836,0.4154,39.2200,83,97,143263
1.5738,0.4106,39.4800,83,97,143266
1.5836,0.4154,39.3500,83,97,143270
1.6178,0.4203,39.3200,83,97,143273
1.6227,0.4106,39.3500,83,97,143277
1.6569,0.4154,39.3200,83,97,143281
1.6471,0.4057,39.3500,83,97,143284
1.6569,0.4106,39.3500,83,97,143287
1.6813,0.4203,39.3200,83,97,143291
1.6667,0.4106,39.4100,83,97,143294
1.7058,0.4301,39.2200,83,97,143297
1.7009,0.4154,39.2800,83,97,143300
1.6911,0.4057,39.4100,83,97,143304
1.7400,0.4057,39.2800,83,97,143307
1.6960,0.4106,39.3500,83,97,143310
1.7449,0.4252,39.1600,83,97,143314
1.7058,0.4106,39.2500,83,97,143318
1.7058,0.4057,39.5700,83,97,143321
1.7155,0.4203,39.4400,83,97,143325
1.7155,0.4106,39.3500,83,97,143328
1.7742,0.4545,39.1200,83,97,143331
1.7302,0.4154,39.3200,83,97,143335
1.7351,0.4057,39.2800,83,97,143338
1.7253,0.4106,39.3500,83,97,143341
1.7302,0.4106,39.3800,83,97,143345
1.7791,0.4252,39.2800,83,97,143348
1.7498,0.4106,39.2800,83,97,143351
1.7791,0.4154,39.2500,83,97,143354
1.7644,0.4154,39.3800,83,97,143358
1.7986,0.4057,39.3500,83,97,143362
1.8035,0.4203,39.1900,83,97,143365
1.7791,0.4057,39.3500,83,97,143369
1.8084,0.4203,39.2800,83,97,143372
1.7889,0.4057,39.3200,83,97,143375
1.8084,0.4106,39.4100,83,97,143379
1.8377,0.4154,39.2500,83,97,143382
1.8231,0.4154,39.3500,83,97,143385
1.8671,0.4154,39.2500,83,97,143389
1.8719,0.4106,39.3200,83,97,143392
1.8622,0.4106,39.3800,83,97,143395
1.8817,0.4154,39.4400,83,97,143398
1.9159,0.4106,39.3800,83,97,143403
1.9404,0.4252,39.1600,83,97,143406
1.9208,0.4106,39.3500,83,97,143409
1.9159,0.4106,39.3800,83,97,143413
1.9306,0.4154,39.4400,83,97,143416
1.9208,0.4057,39.3800,83,97,143419
1.9697,0.4252,39.1200,83,97,143423
1.9306,0.4154,39.2800,83,97,143426
1.9355,0.4106,39.3200,83,97,143429
1.8915,0.4154,39.3200,83,97,143433
1.8573,0.4057,39.3800,83,97,143436
1.8817,0.4252,39.4100,83,97,143439
1.8133,0.4154,39.3200,83,97,143442
1.7840,0.4154,39.3500,83,97,143447
1.7693,0.4203,39.3500,83,97,143450
1.7253,0.4106,39.3800,83,97,143453
1.7302,0.4203,39.2500,83,97,143457
1.6813,0.4106,39.3500,83,97,143460
1.6813,0.4203,39.2500,83,97,143463
1.6325,0.4154,39.3800,83,97,143467
1.6178,0.4106,39.3500,83,97,143470
1.6129,0.4154,39.3200,83,97,143473
1.5934,0.4106,39.3800,83,97,143477
1.6129,0.4154,39.1900,83,97,143480
1.5787,0.4106,39.3500,83,97,143483
1.5934,0.4106,39.5400,83,97,143488
1.6227,0.4154,39.2800,83,97,143491
1.5982,0.4106,39.4100,83,97,143494
1.6716,0.4154,39.1600,83,97,143497
1.6276,0.4154,39.3500,83,97,143501
1.6178,0.4008,39.4400,83,97,143504
1.6422,0.4203,39.5100,83,97,143507
1.6276,0.4106,39.3800,83,97,143511
1.6813,0.4301,39.1200,83,97,143514
1.6520,0.4106,39.2500,83,97,143517
1.6520,0.4057,39.3500,83,97,143521
1.6569,0.4106,39.3500,83,97,143524
1.6618,0.4106,39.3800,83,97,143527
1.7204,0.4350,39.1900,83,97,143532
1.6862,0.4154,39.3200,83,97,143535
1.7155,0.4106,39.2800,83,97,143538
1.6862,0.4106,39.4800,83,97,143541
1.7204,0.4154,39.4400,83,97,143545
1.7155,0.4252,39.2500,83,97,143548
1.6960,0.4154,39.3500,83,97,143551
1.7204,0.4154,39.2200,83,97,143555
1.6960,0.4106,39.3800,83,97,143558
1.7204,0.4154,39.3800,83,97,143561
1.7351,0.4252,39.3500,83,97,143565
1.7058,0.4057,39.3500,83,97,143568
1.7302,0.4154,39.2500,83,97,143571
1.7058,0.4106,39.3200,83,97,143576
1.7155,0.3861,39.3800,83,97,143579
1.7644,0.4203,39.2500,83,97,143582
1.7204,0.4106,39.3800,83,97,143586
1.7595,0.4350,39.1600,83,97,143589
1.7253,0.4154,39.3500,83,97,143592
1.7204,0.4057,39.3800,83,97,143595
1.7253,0.4057,39.3500,83,97,143599
1.7204,0.4106,39.3800,83,97,143602
1.7693,0.4448,39.1200,83,97,143605
1.7204,0.4106,39.3200,83,97,143609
1.7204,0.4350,39.3500,83,97,143612
1.7204,0.4154,39.3500,83,97,143616
1.7107,0.4106,39.3500,83,97,143620
1.7742,0.4350,39.1200,83,97,143623
1.7400,0.4203,39.0300,83,97,143626
1.7400,0.4154,39.2800,83,97,143630
1.7449,0.4154,39.3500,83,97,143633
1.7400,0.4154,39.3800,83,97,143636
1.7889,0.4252,39.1900,83,97,143639
1.7546,0.4350,39.3800,83,97,143643
1.7840,0.4154,39.2500,83,97,143646
1.7449,0.4106,39.4400,83,97,143649
1.7498,0.4252,39.3800,83,97,143653
1.7840,0.4203,39.5400,83,97,143656
1.7791,0.4399,39.3500,83,97,143660
1.8328,0.4057,39.2800,83,97,143664
1.8133,0.4106,39.3800,83,97,143667
1.8182,0.4154,39.4400,83,97,143670
1.8328,0.4154,39.1900,83,97,143674
1.8280,0.4203,39.3800,83,97,143677
1.8573,0.4203,39.1900,83,97,143680
1.8182,0.4106,39.3500,83,97,143683
1.7986,0.4057,39.3800,83,97,143687
1.7937,0.4203,39.2800,83,97,143690
1.7351,0.4057,39.3500,83,97,143693
1.7400,0.4252,38.4900,83,97,143697
1.6862,0.4203,39.2800,83,97,143700
1.6520,0.4106,39.3500,83,97,143704
1.6373,0.4154,39.2500,83,97,143708
1.6276,0.4106,39.3800,83,97,143711
1.6422,0.4252,39.1200,83,97,143714
1.6227,0.4203,39.2200,83,97,143718
1.5738,0.4057,39.3200,83,97,143721
1.5689,0.4203,39.3800,83,97,143724
1.5689,0.4154,39.3800,83,97,143727
1.6178,0.4301,39.2200,83,97,143731
1.5738,0.4106,39.3500,83,97,143734
1.5934,0.4057,39.2800,83,97,143737
1.5689,0.4106,39.3800,83,97,143741
1.5640,0.4106,39.4400,83,97,143745
1.5885,0.4203,39.3500,83,97,143748
1.5738,0.4154,39.3500,83,97,143752
1.5982,0.4154,39.2200,83,97,143755
1.5689,0.4057,39.3800,83,97,143758
1.5738,0.4106,39.3800,83,97,143762
1.6080,0.4203,39.2500,83,97,143765
1.5689,0.4106,39.3800,83,97,143768
1.6031,0.4154,39.2500,83,97,143772
1.5934,0.4106,39.4400,83,97,143775
1.5982,0.4106,39.4100,83,97,143778
1.6227,0.4154,39.2200,83,97,143781
1.5982,0.4106,39.3500,83,97,143785
1.6422,0.4301,39.1900,83,97,143789
1.6080,0.4154,39.3200,83,97,143792
1.5934,0.4252,39.3800,83,97,143796
1.5738,0.4154,39.3500,83,97,143799
1.5005,0.4106,39.4800,83,97,143802
1.4663,0.4545,39.0900,83,97,143806
1.3539,0.4106,39.4100,83,97,143809
1.3148,0.4301,39.3500,83,97,143812
1.3441,0.4154,39.3500,84,97,143816
3.2405,0.4106,39.2500,84,97,143820
3.5826,0.4203,39.3800,84,97,143824
3.6901,0.4252,39.1900,84,97,143827
3.3675,0.4154,39.3800,84,97,143831
2.9912,0.4203,39.2500,84,97,143834
2.4976,0.4057,39.3500,84,97,143838
2.0332,0.4350,39.3800,84,97,143841
1.6471,0.3861,39.2500,84,97,143844
1.3294,0.4106,39.4800,84,97,143848
1.2023,0.4203,39.2200,84,97,143851
1.1193,0.4106,39.3800,84,97,143854
1.1290,0.4106,39.4400,84,97,143858
1.1730,0.4154,39.3200,84,97,143861
1.2170,0.4106,39.3500,84,97,143864
1.2952,0.4203,39.1600,84,97,143868
1.3099,0.4057,39.3500,84,97,143872
1.3490,0.4106,39.3500,84,97,143875
1.3881,0.4154,39.3200,84,97,143878
1.3881,0.4106,39.3800,84,97,143882
1.4467,0.4252,39.0900,84,97,143885
1.4321,0.4154,39.3200,84,97,143888
1.4370,0.4203,39.3500,84,97,143892
1.4418,0.4154,39.3500,84,97,143895
1.4516,0.4106,39.3500,84,97,143898
1.5103,0.4350,39.1900,84,97,143902
1.4907,0.4399,39.3200,84,97,143905
1.4858,0.4057,39.2800,84,97,143908
1.4907,0.4106,39.3800,84,97,143912
1.5005,0.4008,39.3800,84,97,143916
1.5347,0.4252,39.2500,84,97,143919
1.5103,0.4106,39.3200,84,97,143922
1.5249,0.4057,39.2500,84,97,143926
1.5103,0.4106,39.3800,84,97,143929
1.4956,0.4057,39.3500,84,97,143932
1.5200,0.4154,39.2800,84,97,143936
1.5249,0.4106,39.3800,84,97,143939
1.5836,0.4252,39.2500,84,97,143942
1.5298,0.4399,39.3500,84,97,143946
1.5249,0.4057,39.3800,84,97,143949
1.5591,0.4203,39.3500,84,97,143952
1.5347,0.4057,39.3500,84,97,143956
1.5640,0.4203,39.2200,84,97,143960
1.5543,0.4008,39.2500,84,97,143963
1.5494,0.4106,39.3800,84,97,143967
1.5836,0.4399,39.2800,84,97,143970
1.5640,0.4106,39.3500,84,97,143973
1.6178,0.4252,39.0900,84,97,143976
1.5885,0.4106,39.2800,84,97,143980
1.5836,0.4057,39.3800,84,97,143983
1.5885,0.4252,39.3500,84,97,143986
1.5934,0.4106,39.3800,84,97,143990
1.6520,0.4350,39.1200,84,97,143993
1.6178,0.4154,39.3200,84,97,143996
1.6227,0.4106,39.3500,84,97,144001
1.6520,0.4106,39.4400,84,97,144004
1.6325,0.4106,39.3800,84,97,144007
1.6813,0.4301,39.2500,84,97,144011
1.6618,0.4154,39.3500,84,97,144014
1.6813,0.4154,38.9600,84,97,144017
1.6716,0.4106,39.4400,84,97,144020
1.6813,0.4106,39.3800,84,97,144024
1.7302,0.4252,39.1900,84,97,144027
1.7009,0.4154,39.2800,84,97,144030
1.7351,0.4252,39.2500,84,97,144034
1.7204,0.3861,39.3500,84,97,144037
1.7351,0.4106,39.2500,84,97,144040
1.7644,0.4203,39.2500,84,97,144045
1.7498,0.4106,39.4400,84,97,144048
1.7791,0.4106,39.2200,84,97,144051
1.7498,0.4106,39.3200,84,97,144055
1.7449,0.4008,39.3200,84,97,144058
1.7546,0.4154,39.3200,84,97,144061
1.7351,0.4106,39.3500,84,97,144064
1.7693,0.4203,39.2200,84,97,144068
1.7155,0.4106,39.5100,84,97,144071
1.7058,0.4106,39.3500,84,97,144074
1.6862,0.4154,39.4400,84,97,144078
1.6813,0.4106,39.3800,84,97,144081
1.6764,0.4252,39.0900,84,97,144084
1.6178,0.4154,39.1600,84,97,144089
1.5885,0.4106,39.3800,84,97,144092
1.5591,0.4203,39.3200,84,97,144095
1.5445,0.4106,39.3800,84,97,144099
1.5543,0.4252,39.1900,84,97,144102
1.4956,0.4203,39.3200,84,97,144105
1.4761,0.4106,39.2800,84,97,144109
1.4467,0.4106,39.3800,84,97,144112
1.4418,0.4106,39.3500,84,97,144115
1.4565,0.4497,39.2500,84,97,144118
1.4272,0.4106,39.3500,84,97,144122
1.4418,0.4154,39.2500,84,97,144125
1.4223,0.4106,39.3500,84,97,144129
1.4125,0.4057,39.4100,84,97,144133
1.4223,0.4106,39.3200,84,97,144136
1.4223,0.4106,39.4400,84,97,144139
1.4516,0.4203,39.2500,84,97,144143
1.4321,0.4106,39.3500,84,97,144146
1.4418,0.4057,39.3800,84,97,144149
1.4712,0.4252,39.2500,84,97,144153
1.4565,0.4057,39.4800,84,97,144156
1.4956,0.4203,39.1200,84,97,144159
1.4907,0.4154,39.2500,84,97,144163
1.5005,0.4057,39.3800,84,97,144166
1.5152,0.4154,39.3500,84,97,144169
1.5005,0.4106,39.3500,84,97,144173
1.5494,0.4252,39.1200,84,97,144177
1.5249,0.4106,39.3200,84,97,144180
1.5200,0.4057,39.3500,84,97,144183
1.5298,0.4154,39.4400,84,97,144187
1.5298,0.4154,39.3500,84,97,144190
1.5934,0.4350,39.1900,84,97,144193
1.5787,0.4154,39.3500,84,97,144197
1.5738,0.4106,39.2800,84,97,144200
1.5689,0.4106,39.3500,84,97,144203
1.5640,0.4057,39.3800,84,97,144207
1.5934,0.4252,39.2500,84,97,144210
1.5689,0.4154,39.3200,84,97,144214
1.5836,0.4154,39.2500,84,97,144217
1.5689,0.4106,39.4400,84,97,144221
1.5738,0.4057,39.3800,84,97,144224
1.6031,0.4252,39.2500,84,97,144227
1.5689,0.4106,39.3500,84,97,144231
1.5934,0.4154,39.2800,84,97,144234
1.5640,0.4106,39.3200,84,97,144237
1.5738,0.4106,39.3800,84,97,144241
1.5885,0.4154,39.3200,84,97,144244
1.5689,0.4057,39.3800,84,97,144247
1.5982,0.4154,39.1900,84,97,144251
1.5885,0.4106,39.3200,84,97,144254
1.5982,0.4106,39.3500,84,97,144258
1.6178,0.4154,39.3500,84,97,144261
1.6227,0.4106,39.3500,84,97,144265
1.6716,0.4252,39.1200,84,97,144268
1.6276,0.4106,39.3500,84,97,144271
1.6471,0.4057,39.4100,84,97,144275
1.6667,0.4154,39.3200,84,97,144278
1.6422,0.4106,39.3500,84,97,144281
1.6960,0.4350,39.1200,84,97,144285
1.6716,0.4154,39.3200,84,97,144288
1.6911,0.4350,39.3200,84,97,144291
1.7155,0.4106,39.2500,84,97,144295
1.7302,0.4106,39.3500,84,97,144299
1.7889,0.4252,39.2200,84,97,144302
1.7937,0.4106,39.3200,84,97,144306
1.7937,0.4154,39.2500,84,97,144309
1.7840,0.4252,39.3800,84,97,144312
1.7791,0.4057,39.3800,84,97,144315
1.8035,0.4203,39.2500,84,97,144319
1.7546,0.4154,39.3500,84,97,144322
1.7595,0.4203,39.2800,84,97,144325
1.6911,0.4203,39.3800,84,97,144329
1.6520,0.4057,39.3800,84,97,144332
1.6325,0.4154,39.3200,84,97,144335
1.6031,0.4106,39.3500,84,97,144339
1.6080,0.4154,39.2200,84,97,144343
1.5689,0.4057,39.3800,84,97,144346
1.5689,0.4106,39.3800,84,97,144350
1.5787,0.4252,39.2500,84,97,144353
1.5543,0.4106,39.2500,84,97,144356
1.5885,0.4154,39.0900,84,97,144359
1.5640,0.4057,39.2800,84,97,144363
1.5494,0.4057,39.3800,84,97,144366
1.5591,0.4203,39.3200,84,97,144369
1.5445,0.4106,39.3800,84,97,144373
1.5934,0.4252,38.6800,84,97,144376
1.5543,0.4154,39.1900,84,97,144379
1.5396,0.4057,39.6700,84,97,144384
1.5494,0.4106,39.4400,84,97,144387
1.5543,0.3861,39.3800,84,97,144390
1.6080,0.4301,39.2500,84,97,144394
1.5738,0.4106,39.3500,84,97,144397
1.5885,0.3861,39.2800,84,97,144400
1.5787,0.4154,39.3200,84,97,144403
1.5738,0.4106,39.3800,84,97,144407
1.6080,0.4203,39.2800,84,97,144410
1.5982,0.4106,39.3500,84,97,144413
1.6227,0.4154,39.2500,84,97,144417
1.6227,0.4057,39.3800,84,97,144420
1.6178,0.4057,39.3500,84,97,144423
1.6520,0.4350,39.3200,84,97,144428
1.3539,0.4252,39.2800,84,97,144432
1.3001,0.4106,39.3800,84,97,144436
1.3930,0.4203,39.0600,84,97,144439
1.5640,0.4203,39.3200,84,97,144442
1.8866,0.4106,39.3800,84,97,144446
2.3412,0.4154,39.5100,84,97,144449
2.8641,0.4154,39.3800,84,97,144452
3.4506,0.4301,39.0900,84,97,144455
3.6804,0.4497,39.3200,84,97,144459
3.6852,0.4106,39.3500,84,97,144462
3.3871,0.4154,39.2200,84,97,144465
2.9570,0.4057,39.3500,84,97,144470
2.5611,0.4301,39.1900,84,97,144473
2.0381,0.4154,39.3800,84,97,144476
1.6569,0.4106,39.2800,84,97,144480
1.3148,0.4106,39.3800,84,97,144483
1.1584,0.4106,39.4100,84,97,144486
1.1339,0.4203,39.1900,84,97,144490
1.1632,0.4106,39.3500,84,97,144493
1.1877,0.4154,39.2200,84,97,144496
1.2268,0.4106,39.3500,84,97,144499
1.2854,0.4008,39.3800,84,97,144503
1.3441,0.4203,39.2800,84,97,144506
1.3734,0.4106,39.4800,84,97,144509
1.4321,0.4106,39.2500,84,97,144514
1.4272,0.4057,39.5100,84,97,144517
1.4712,0.4106,39.3800,84,97,144520
1.4712,0.4154,39.2200,84,97,144524
1.4858,0.4154,39.3500,84,97,144527
1.5298,0.4203,39.1900,84,97,144530
1.5152,0.4106,39.3800,84,97,144534
1.5396,0.4057,39.4100,84,97,144537
1.5591,0.4154,39.2800,84,97,144540
1.5591,0.4106,39.3800,84,97,144543
1.6080,0.4252,39.2800,84,97,144547
1.5934,0.4203,39.3200,84,97,144550
1.5982,0.4057,39.3800,84,97,144553
1.6178,0.4154,39.3200,84,97,144558
1.6129,0.4057,39.3800,84,97,144561
1.6764,0.4350,38.6500,84,97,144564
1.6520,0.4252,39.2800,84,97,144568
1.6520,0.4106,38.6500,84,97,144571
1.6569,0.4106,39.3500,84,97,144574
1.6716,0.4106,39.3800,84,97,144578
1.7155,0.4252,39.2800,84,97,144581
1.6862,0.4106,39.3500,84,97,144584
1.7107,0.4154,39.2500,84,97,144587
1.6960,0.4203,39.3500,84,97,144591
1.7009,0.4106,39.3800,84,97,144594
1.7253,0.4154,39.3200,84,97,144598
1.7253,0.4106,39.3800,84,97,144602
1.7644,0.4203,39.2500,84,97,144605
1.7400,0.4106,39.3500,84,97,144608
1.7546,0.4106,38.6800,84,97,144612
1.8035,0.4154,39.2800,84,97,144615
1.7693,0.4106,39.3500,84,97,144618
1.7986,0.4154,39.1900,84,97,144622
1.7937,0.4106,39.2800,84,97,144625
1.7986,0.4545,39.4100,84,97,144628
1.8328,0.4252,39.2800,84,97,144632
1.8182,0.4106,39.3500,84,97,144635
1.8768,0.4252,39.2200,84,97,144638
1.8426,0.4106,39.2800,84,97,144642
1.8475,0.4106,39.3800,84,97,144646
1.8622,0.4154,39.3500,84,97,144649
1.8915,0.4057,39.3800,84,97,144652
1.9404,0.4252,38.7400,84,97,144656
1.9013,0.4106,39.3200,84,97,144659
1.9110,0.4057,39.2800,84,97,144662
1.9159,0.4057,39.3500,84,97,144666
1.9159,0.4106,39.3500,84,97,144669
1.9746,0.4252,39.2200,84,97,144672
1.9453,0.4106,39.3500,84,97,144676
1.9648,0.4154,39.2500,84,97,144679
1.9550,0.4106,39.5100,84,97,144683
1.9550,0.4106,39.3800,84,97,144687
2.0039,0.4252,39.1900,84,97,144690
1.9697,0.4106,39.3200,84,97,144693
2.0039,0.4154,39.2500,84,97,144696
1.9599,0.4106,39.3800,84,97,144700
1.9501,0.4057,39.3800,84,97,144703
1.9599,0.4154,39.2800,84,97,144706
1.9159,0.4106,39.3200,84,97,144710
1.9208,0.4203,39.3200,84,97,144713
1.8719,0.4106,39.3200,84,97,144716
1.8377,0.4106,39.3800,84,97,144720
1.8182,0.4154,39.3200,84,97,144723
1.7742,0.4106,39.3500,84,97,144727
1.7889,0.4203,39.1600,84,97,144730
1.7253,0.4057,39.3500,84,97,144734
1.7058,0.4106,39.3500,84,97,144737
1.7009,0.4154,39.3200,84,97,144740
1.6618,0.4106,39.3800,84,97,144744
1.7009,0.4301,39.0900,84,97,144747
1.6716,0.4154,39.3200,84,97,144750
1.6471,0.4057,39.6400,84,97,144754
1.6471,0.4154,39.3500,84,97,144757
1.6373,0.4106,39.4800,84,97,144760
1.7302,0.4301,39.1600,84,97,144764
1.6667,0.4203,39.4100,84,97,144768
1.6520,0.4106,39.2800,84,97,144771
1.6520,0.4106,39.3800,84,97,144775
1.6618,0.4106,39.3200,84,97,144778
1.7009,0.4203,39.2500,84,97,144781
1.6764,0.4106,39.3800,84,97,144784
1.7058,0.4350,39.2200,84,97,144788
1.6911,0.4057,39.3800,84,97,144791
1.6862,0.4057,39.3800,84,97,144794
1.7107,0.4203,39.3200,84,97,144798
1.7058,0.4106,39.4400,84,97,144801
1.7400,0.4203,39.2500,84,97,144804
1.7204,0.4106,39.3800,84,97,144808
1.7253,0.4301,39.4100,84,97,144812
1.7449,0.4203,39.2800,84,97,144815
1.7302,0.4203,39.3500,84,97,144819
1.7595,0.4203,39.1900,84,97,144822
1.7449,0.4154,39.2800,84,97,144825
1.7595,0.4057,39.3500,84,97,144828
1.7791,0.4252,39.3500,84,97,144832
1.7546,0.4106,39.4400,84,97,144835
1.8035,0.4252,39.1200,84,97,144838
1.7644,0.4106,39.2800,84,97,144842
1.7644,0.4106,39.3800,84,97,144845
1.7742,0.4154,39.3800,84,97,144848
1.7840,0.4106,39.3800,84,97,144852
1.8328,0.4350,39.1600,84,97,144856
1.7937,0.4154,39.3200,84,97,144859
1.7986,0.4106,39.2800,84,97,144863
1.8231,0.4106,39.4400,84,97,144866
1.7840,0.4106,39.3500,84,97,144869
1.8573,0.4301,39.2500,84,97,144873
1.7986,0.4154,39.2800,84,97,144876
1.8182,0.4154,39.2200,84,97,144879
1.7986,0.4106,39.3500,84,97,144882
1.8035,0.4154,39.5100,84,97,144886
1.8475,0.4252,39.2200,84,97,144889
1.8133,0.4008,39.3200,84,97,144892
1.8719,0.4203,39.2800,84,97,144897
1.8328,0.4008,39.3800,84,97,144900
1.8426,0.4106,39.3500,84,97,144903
1.8671,0.4154,39.2500,84,97,144907
1.8524,0.4106,39.5700,84,97,144910
1.9013,0.4203,39.1900,84,97,144913
1.8524,0.4106,39.2500,84,97,144917
1.8524,0.4057,39.4800,84,97,144920
1.8573,0.4154,39.3200,84,97,144923
1.8524,0.4497,39.3500,84,97,144926
1.9257,0.4252,39.0900,84,97,144930
1.8915,0.4106,39.3500,84,97,144933
1.9159,0.4057,39.4100,84,97,144936
1.9404,0.4154,39.3500,84,97,144941
1.9355,0.4057,39.3800,84,97,144944
1.9892,0.4252,39.0900,84,97,144947
1.9550,0.4545,39.2500,84,97,144951
1.9453,0.4106,39.3200,84,97,144954
1.9453,0.4203,39.3500,84,97,144957
1.9208,0.4057,39.3800,84,97,144961
1.9501,0.4301,39.2200,84,97,144964
1.9013,0.4203,39.3200,84,97,144967
1.8377,0.4106,39.2800,84,97,144970
1.7889,0.4106,39.2800,84,97,144974
1.7644,0.4154,39.3800,84,97,144977
1.7742,0.4203,39.2500,84,97,144980
1.7351,0.4203,39.3500,84,97,144985
1.7546,0.4057,39.2200,84,97,144988
1.7204,0.4106,39.3500,84,97,144991
1.7155,0.4057,39.3800,84,97,144995
1.7253,0.4154,39.4400,84,97,144998
1.7107,0.4154,39.3800,84,97,145001
1.7400,0.4154,39.2200,84,97,145005
1.7058,0.4106,39.3800,84,97,145008
1.7058,0.4057,39.3800,84,97,145011
1.7204,0.4203,39.3200,84,97,145014
1.6862,0.4057,39.3500,84,97,145018
1.7253,0.4203,38.9300,84,97,145021
1.7107,0.4399,39.3200,84,97,145025
1.7058,0.4106,39.3800,84,97,145029
1.7302,0.4203,39.2500,84,97,145032
1.7107,0.4106,39.3500,84,97,145035
1.7546,0.4252,39.1200,84,97,145039
1.7889,0.4252,39.2500,84,97,145042
1.7546,0.4106,39.3500,84,97,145046
1.7693,0.4154,39.2800,84,97,145049
1.7449,0.4106,39.3800,84,97,145052
1.7302,0.4106,39.2200,84,97,145056
1.7253,0.4594,39.3200,84,97,145059
1.6520,0.4106,39.3500,84,97,145062
1.5982,0.4154,39.1900,84,97,145067
1.5054,0.4106,39.3800,84,97,145070
1.4516,0.4106,39.3500,84,97,145073
1.5152,0.4154,39.3200,84,97,145076
1.5934,0.4203,39.3500,84,97,145080
1.8964,0.4154,39.2200,84,97,145083
2.2678,0.4106,39.2500,84,97,145086
2.7713,0.4106,39.3800,84,97,145090
3.3040,0.4203,39.3200,84,97,145093
3.6950,0.4154,39.3500,84,97,145096
3.9345,0.4203,39.1200,84,97,145100
3.6852,0.4252,39.3800,84,97,145103
3.2893,0.4106,39.3800,84,97,145106
2.8299,0.4154,39.4100,84,97,145111
2.3460,0.4154,39.4400,84,97,145114
1.9844,0.4252,39.1200,84,97,145117
1.6227,0.4106,39.3200,84,97,145121
1.4321,0.4057,39.4100,84,97,145124
1.3539,0.4106,39.3200,84,97,145127
1.3441,0.4106,39.3800,84,97,145130
1.4321,0.4301,39.1900,84,97,145134
1.4321,0.4154,39.3500,84,97,145137
1.4761,0.4106,39.2800,84,97,145140
1.5005,0.4106,39.3800,84,97,145144
1.5200,0.4154,39.3800,84,97,145147
1.5689,0.4252,39.2200,84,97,145150
1.5543,0.4106,39.3500,84,97,145155
1.5836,0.4154,39.2500,84,97,145158
1.5738,0.4106,39.4100,84,97,145161
1.5885,0.4154,39.3800,84,97,145165
1.6227,0.4106,39.2500,84,97,145168
1.6080,0.4057,39.3800,84,97,145171
1.6764,0.4203,39.2500,84,97,145174
1.6178,0.4106,39.3500,84,97,145178
1.6325,0.4057,39.3800,84,97,145181
1.6520,0.4154,39.3200,84,97,145184
1.6471,0.4106,39.3500,84,97,145188
1.6862,0.4203,39.1200,84,97,145191
1.6569,0.4106,39.3800,84,97,145195
1.6667,0.4106,39.3800,84,97,145199
1.6813,0.4154,39.3200,84,97,145202
1.6716,0.4106,39.3800,84,97,145205
1.7204,0.4252,38.4600,84,97,145209
1.6960,0.4203,39.3800,84,97,145212
1.7009,0.4106,39.3500,84,97,145215
1.7107,0.4154,39.2200,84,97,145219
1.7058,0.4106,39.3800,84,97,145222
1.7693,0.4350,39.2800,84,97,145225
1.7595,0.4154,39.2800,84,97,145228
1.7400,0.4106,39.2800,84,97,145232
1.7449,0.4106,39.3800,84,97,145235
1.7546,0.4106,39.3500,84,97,145239
1.7986,0.4252,39.2500,84,97,145243
1.7791,0.4106,39.3800,84,97,145246
1.8280,0.4203,39.2800,84,97,145249
1.7986,0.4106,39.3800,84,97,145253
1.8084,0.4106,39.3800,84,97,145256
1.8426,0.4154,39.3500,84,97,145259
1.8475,0.4106,38.8400,84,97,145262
1.9013,0.4497,39.2500,84,97,145266
1.8915,0.4106,39.3500,84,97,145269
1.9159,0.4203,39.3500,84,97,145272
1.9599,0.4203,39.2800,84,97,145276
1.9501,0.4301,39.3800,84,97,145280
1.9941,0.4154,39.2200,84,97,145283
1.9844,0.4154,39.2800,84,97,145287
1.9941,0.4057,39.3500,84,97,145290
2.0332,0.4497,39.2200,84,97,145293
2.0186,0.4106,39.3500,84,97,145297
2.0772,0.4252,39.1200,84,97,145300
2.0430,0.4106,39.3200,84,97,145303
2.0430,0.4399,39.4400,84,97,145306
2.0723,0.4154,39.3500,84,97,145310
2.0674,0.4106,39.4100,84,97,145313
2.1359,0.4350,39.0900,84,97,145316
2.0870,0.4106,39.3500,84,97,145320
2.0968,0.4057,39.3800,84,97,145324
2.1017,0.4106,39.3800,84,97,145327
2.0919,0.4106,39.3800,84,97,145331
2.1554,0.4350,39.1900,84,97,145334
2.1114,0.4154,39.3200,84,97,145337
2.1017,0.4106,39.2800,84,97,145340
2.0870,0.4057,39.3500,84,97,145344
2.0674,0.4106,39.3500,84,97,145347
2.0968,0.4252,39.1900,84,97,145350
2.0332,0.4203,39.4100,84,97,145354
2.0137,0.4154,39.2500,84,97,145357
1.9697,0.4106,39.4400,84,97,145360
1.9453,0.4350,39.3500,84,97,145364
1.9453,0.4203,39.2500,84,97,145368
1.8915,0.4106,39.3800,84,97,145371
1.9013,0.4203,39.2800,84,97,145375
1.8475,0.4106,39.2500,84,97,145378
1.8280,0.4057,39.3500,84,97,145381
1.8133,0.4154,39.3200,84,97,145384
1.7889,0.4106,39.3500,84,97,145388
1.8182,0.4154,39.1900,84,97,145391
1.7742,0.4154,39.3500,84,97,145394
1.7791,0.4106,39.3800,84,97,145398
1.7937,0.4399,39.3200,84,97,145401
1.7644,0.4106,39.3800,84,97,145404
1.8084,0.4252,39.0900,84,97,145409
1.7840,0.4497,39.2500,84,97,145412
1.7840,0.4106,39.3500,84,97,145415
1.7937,0.4301,39.3500,84,97,145419
1.7791,0.4106,39.3800,84,97,145422
1.8377,0.4252,39.0900,84,97,145425
1.7986,0.4203,39.2200,84,97,145428
1.7986,0.4057,39.3800,84,97,145432
1.8035,0.4106,39.3500,84,97,145435
1.8182,0.4106,39.3800,84,97,145438
1.8719,0.4252,39.2200,84,97,145442
1.8377,0.4106,39.3500,84,97,145445
1.8524,0.4203,39.3200,84,97,145448
1.8426,0.4106,39.3800,84,97,145453
1.8719,0.4106,39.4800,84,97,145456
1.8768,0.4203,38.7700,84,97,145459
1.8622,0.4203,39.3800,84,97,145463
1.8866,0.4203,39.2200,84,97,145466
1.8671,0.4106,39.5400,84,97,145469
1.8719,0.4106,39.4400,84,97,145472
1.9062,0.4203,39.2200,84,97,145476
1.8964,0.4057,39.3500,84,97,145479
1.8964,0.4154,39.2500,84,97,145482
1.8671,0.4154,39.2800,84,97,145486
1.8719,0.4106,39.3800,84,97,145489
1.8964,0.4154,39.2200,84,97,145492
1.8719,0.4106,39.3800,84,97,145497
1.9110,0.4497,39.1600,84,97,145500
1.8768,0.4154,39.3500,84,97,145503
1.8719,0.4301,39.3800,84,97,145507
1.8866,0.4106,39.3200,84,97,145510
1.8768,0.4106,39.3800,84,97,145513
1.9306,0.4252,38.6500,84,97,145516
1.8817,0.4106,39.3200,84,97,145520
1.8817,0.4057,39.1900,84,97,145523
1.8817,0.4203,39.4400,84,97,145526
1.8719,0.4106,39.3800,84,97,145530
1.9257,0.4301,39.1900,84,97,145533
1.8866,0.4154,39.3200,84,97,145537
1.8866,0.4106,39.3200,84,97,145541
1.8768,0.4106,39.3500,84,97,145544
1.8768,0.4057,39.3500,84,97,145547
1.9208,0.4252,39.2200,84,97,145551
1.9013,0.4154,39.3500,84,97,145554
1.9208,0.4106,39.2500,84,97,145557
1.9013,0.3861,39.3800,84,97,145561
1.9110,0.4252,39.3800,84,97,145564
1.9453,0.4203,39.2800,84,97,145567
1.9208,0.4106,39.4100,84,97,145570
1.9599,0.4448,39.2800,84,97,145574
1.9208,0.4106,39.3800,84,97,145577
1.9257,0.4106,39.3500,84,97,145581
1.9648,0.4154,39.3200,84,97,145585
1.9697,0.4106,39.3800,84,97,145588
2.0235,0.4154,39.1900,84,97,145591
2.0137,0.4106,39.4400,84,97,145595
2.0283,0.4350,39.3500,84,97,145598
2.0577,0.4203,39.2800,84,97,145601
2.0381,0.4106,39.3800,84,97,145605
2.0870,0.4203,39.1600,84,97,145608
2.0626,0.4154,39.2500,84,97,145611
2.0283,0.4057,39.3800,84,97,145614
2.0186,0.4154,39.3200,84,97,145618
1.9697,0.4106,39.4100,84,97,145622
1.9941,0.4252,39.1200,84,97,145625
1.9208,0.4154,39.2200,84,97,145629
1.8768,0.4057,39.4100,84,97,145632
1.8573,0.4057,39.3500,84,97,145635
1.8377,0.4106,39.3800,84,97,145639
1.8817,0.4643,39.2500,84,97,145642
1.8182,0.4057,39.3500,84,97,145645
1.8231,0.4106,38.6200,84,97,145648
1.8182,0.4154,39.4100,84,97,145652
1.7644,0.3861,39.4400,84,97,145656
1.7546,0.4057,39.3500,84,97,145659
1.7742,0.4203,39.2500,84,97,145662
1.7155,0.4154,39.3800,84,97,145666
1.7302,0.4154,39.1900,84,97,145670
1.7107,0.4106,39.4400,84,97,145673
1.7058,0.4057,39.3800,84,97,145676
1.7302,0.4252,39.2500,84,97,145680
1.7107,0.4154,39.3500,84,97,145683
1.7644,0.4057,39.1200,84,97,145686
1.7253,0.4106,39.2800,84,97,145690
1.7498,0.4106,39.3800,84,97,145693
1.7400,0.4154,39.3500,84,97,145696
1.7400,0.4106,39.3500,84,97,145700
1.7986,0.4301,39.0900,84,97,145703
1.7644,0.4106,39.2800,84,97,145707
1.7693,0.4057,39.3200,84,97,145710
1.7595,0.4057,39.3500,84,97,145714
1.7351,0.4106,39.2800,84,97,145717
1.7302,0.4252,39.2200,84,97,145720
1.6276,0.4154,39.2500,84,97,145724
1.5836,0.4106,39.2800,84,97,145727
1.5152,0.4106,39.3800,84,97,145730
1.5445,0.4106,39.3500,84,97,145734
1.7498,0.4252,39.1600,84,97,145737
2.0235,0.4106,39.3800,84,97,145740
2.4438,0.4203,39.2500,84,97,145744
2.8935,0.4106,39.3800,84,97,145747
3.4066,0.4057,39.3800,84,97,145751
3.8172,0.4106,39.6400,84,97,145754
3.8416,0.4203,39.3800,84,97,145758
3.6804,0.4154,39.3200,84,97,145761
3.1867,0.4106,39.2500,84,97,145764
2.7077,0.4106,39.3500,84,97,145768
2.2678,0.4154,39.3200,84,97,145771
1.8573,0.4106,39.3500,84,97,145774
1.6080,0.4203,39.1600,84,97,145778
1.4223,0.4106,39.3500,84,97,145781
1.3734,0.4106,39.3800,84,97,145784
1.3881,0.4154,39.3200,84,97,145788
1.4125,0.4154,39.4400,84,97,145792
1.5005,0.4252,39.1200,84,97,145795
1.5152,0.4154,39.3200,84,97,145798
1.5591,0.4106,39.3500,84,97,145802
1.5787,0.4154,39.2200,84,97,145805
1.5885,0.4106,39.3500,84,97,145808
1.6569,0.4350,38.7100,84,97,145812
1.6422,0.4203,39.2800,84,97,145815
1.6422,0.4106,39.3800,84,97,145818
1.6471,0.4203,39.3500,84,97,145822
1.6618,0.4106,39.3800,84,97,145825
1.7155,0.4252,39.2500,84,97,145828
1.6960,0.4106,39.3500,84,97,145832
1.7253,0.4154,39.2500,84,97,145836
1.7009,0.4106,39.3500,84,97,145839
1.7107,0.4057,39.3800,84,97,145842
1.7302,0.4154,39.3200,84,97,145846
1.7253,0.4497,39.3800,84,97,145849
1.7644,0.4203,39.2500,84,97,145852
1.7400,0.4008,39.4400,84,97,145856
1.7400,0.4057,39.3800,84,97,145859
1.7742,0.4203,39.2800,84,97,145862
1.7498,0.4106,39.4100,84,97,145866
1.7791,0.4154,39.2800,84,97,145869
1.7693,0.4203,39.2800,84,97,145872
1.7644,0.4057,39.3800,84,97,145876
1.7986,0.4350,39.2800,84,97,145880
1.7791,0.4057,39.3800,84,97,145883
1.8280,0.4252,39.1600,84,97,145886
1.7986,0.4154,39.3200,84,97,145890
1.7889,0.4106,39.3800,84,97,145893
1.7986,0.4154,39.4100,84,97,145896
1.8231,0.4106,39.4400,84,97,145900
1.8573,0.4301,39.2500,84,97,145903
1.8084,0.4057,39.3200,84,97,145906
1.8182,0.4106,39.3200,84,97,145910
1.8182,0.4203,39.3800,84,97,145913
1.8182,0.4106,39.3800,84,97,145916
1.8719,0.4301,39.3200,84,97,145921
1.8475,0.4057,39.3500,84,97,145924
1.8622,0.4057,39.2800,84,97,145927
1.8475,0.4057,39.4100,84,97,145931
1.8671,0.4106,39.3200,84,97,145934
1.9110,0.4350,39.1900,84,97,145937
1.8866,0.4106,39.4100,84,97,145940
1.9159,0.4203,39.1900,84,97,145944
1.8915,0.4106,39.4400,84,97,145947
1.9062,0.4106,39.3800,84,97,145950
1.9355,0.4154,39.2500,84,97,145954
1.9208,0.3861,39.4800,84,97,145957
1.9599,0.4154,39.2200,84,97,145960
1.9355,0.4057,39.3200,84,97,145965
1.9404,0.4106,39.3800,84,97,145968
1.9648,0.4057,39.3200,84,97,145971
1.9648,0.4106,39.3800,84,97,145975
2.0088,0.4203,39.1600,84,97,145978
1.9746,0.4057,39.3800,84,97,145981
1.9892,0.4057,39.5400,84,97,145984
2.0283,0.4252,39.3200,84,97,145988
1.9892,0.4106,39.3200,84,97,145991
2.0381,0.4301,39.1900,84,97,145994
1.9941,0.4154,39.2800,84,97,145998
1.9795,0.4057,39.4100,84,97,146001
1.9746,0.4154,39.3200,84,97,146004
1.9404,0.4106,39.3500,84,97,146009
1.9990,0.4301,39.1900,84,97,146012
1.9062,0.4203,39.3800,84,97,146015
1.8671,0.4106,39.4400,84,97,146019
1.8328,0.4106,39.2500,84,97,146022
1.8035,0.4106,39.3800,84,97,146025
1.8133,0.4252,39.2500,84,97,146028
1.7449,0.4106,39.2800,84,97,146032
1.7351,0.4252,39.2500,84,97,146035
1.6911,0.4106,39.4800,84,97,146038
1.6667,0.4106,39.3800,84,97,146042
1.6667,0.4154,39.3200,84,97,146045
1.6471,0.4106,39.3800,84,97,146049
1.6813,0.4154,39.2500,84,97,146053
1.6471,0.4106,39.3800,84,97,146056
1.6716,0.4106,39.3500,84,97,146059
1.6764,0.4203,39.2500,84,97,146063
1.6520,0.4057,39.3800,84,97,146066
1.6813,0.4203,39.0900,84,97,146069
1.6667,0.4106,39.2500,84,97,146072
1.6618,0.4154,39.3500,84,97,146076
1.6911,0.4203,39.2800,84,97,146079
1.6960,0.4154,39.4400,84,97,146082
1.7107,0.4252,39.1200,84,97,146086
1.6764,0.4106,39.2800,84,97,146089
1.6716,0.4057,39.3800,84,97,146093
1.6813,0.4154,39.3500,84,97,146097
1.7058,0.4106,39.3800,84,97,146100
1.7449,0.4350,39.1200,84,97,146103
1.7009,0.4154,39.3500,84,97,146107
1.6960,0.4057,39.2800,84,97,146110
1.7058,0.4106,39.4800,84,97,146113
1.7009,0.4106,39.3800,84,97,146116
1.7351,0.4301,39.2800,84,97,146120
1.7155,0.4154,39.3200,84,97,146123
1.7253,0.4106,39.2500,84,97,146126
1.7058,0.4106,39.3500,84,97,146130
1.7204,0.4106,39.3800,84,97,146134
1.7595,0.4203,39.5100,84,97,146137
1.7644,0.4106,39.3500,84,97,146141
1.7498,0.4203,39.2500,84,97,146144
1.7302,0.4106,39.3800,84,97,146147
1.7351,0.4106,39.3800,84,97,146151
1.7546,0.4154,39.2500,84,97,146154
1.7302,0.4057,39.3800,84,97,146157
1.7644,0.4154,39.2200,84,97,146160
1.7351,0.4350,39.3200,84,97,146164
1.7351,0.4106,39.3500,84,97,146167
1.7449,0.4154,39.3200,84,97,146170
1.7400,0.4106,39.3800,84,97,146174
1.7840,0.4203,39.1600,84,97,146178
1.7351,0.4154,39.3500,84,97,146181
1.7498,0.4057,39.4800,84,97,146185
1.7889,0.4106,39.3200,84,97,146188
1.7498,0.4106,39.3500,84,97,146191
1.8231,0.4301,39.0900,84,97,146195
1.7693,0.4154,39.3200,84,97,146198
1.7595,0.4106,39.3500,84,97,146201
1.7644,0.4154,39.3500,84,97,146205
1.7498,0.4106,39.4100,84,97,146208
1.8084,0.4301,39.1900,84,97,146211
1.7644,0.4252,39.3200,84,97,146214
1.7595,0.4106,39.2800,84,97,146219
1.7449,0.4106,39.3200,84,97,146222
1.7449,0.4057,39.3800,84,97,146225
1.7742,0.4203,39.2500,84,97,146229
1.7449,0.4106,39.3200,84,97,146232
1.7742,0.4154,39.2200,84,97,146235
1.7498,0.4106,39.4100,84,97,146239
1.7595,0.4057,39.3800,84,97,146242
1.7791,0.4154,39.4100,84,97,146245
1.8084,0.4154,39.3800,84,97,146249
1.8133,0.4106,39.2500,84,97,146252
1.8133,0.4106,39.3500,84,97,146255
1.7889,0.4057,39.3800,84,97,146259
1.8133,0.4203,39.3200,85,97,146263
1.8915,0.4057,39.4400,85,97,146267
1.8622,0.4106,39.3800,85,97,146270
1.9257,0.4301,39.0900,85,97,146273
1.8866,0.4154,39.2500,85,97,146276
1.8719,0.4057,39.6000,85,97,146280
1.8719,0.4203,39.3500,85,97,146283
1.8719,0.4057,39.4100,85,97,146286
1.9062,0.4252,39.1900,85,97,146290
1.8475,0.4106,39.3500,85,97,146293
1.8280,0.4057,39.1600,85,97,146296
1.7791,0.4106,39.4400,85,97,146300
1.7498,0.4106,39.3800,85,97,146304
1.7546,0.4154,39.3200,85,97,146307
1.7107,0.4106,39.3500,85,97,146311
1.7155,0.4203,39.2500,85,97,146314
1.6764,0.4106,39.3800,85,97,146317
1.6764,0.4057,39.3500,85,97,146320
1.7058,0.4154,39.2500,85,97,146324
1.6667,0.4106,39.3800,85,97,146327
1.6764,0.4106,39.2200,85,97,146330
1.6520,0.4106,39.2800,85,97,146334
1.6373,0.4106,39.3500,85,97,146337
1.6471,0.4154,39.2200,85,97,146340
1.6178,0.4106,39.3800,85,97,146344
1.6618,0.4057,39.1600,85,97,146348
1.6080,0.4497,39.3200,85,97,146351
1.6031,0.4106,39.4400,85,97,146355
1.6031,0.4154,39.3200,85,97,146358
1.5934,0.4008,39.3800,85,97,146361
1.6520,0.4301,39.1200,85,97,146364
1.5934,0.4154,39.2200,85,97,146368
1.5934,0.4057,39.3500,85,97,146371
1.5934,0.4106,39.3200,85,97,146374
1.5738,0.4057,39.3500,85,97,146378
1.6276,0.4350,39.2800,85,97,146381
1.5982,0.4106,39.3200,85,97,146384
1.6227,0.4057,39.2800,85,97,146388
1.5934,0.4301,39.2800,85,97,146392
1.5934,0.4057,39.3500,85,97,146395
1.6325,0.4252,39.2200,85,97,146399
1.6031,0.4154,39.3500,85,97,146402
1.5885,0.4154,39.3500,85,97,146405
1.5152,0.4106,39.3500,85,97,146409
1.4516,0.4057,39.3800,85,97,146412
1.4027,0.4203,39.2800,85,97,146415
1.3343,0.4106,39.4400,85,97,146418
1.3783,0.4154,39.0000,85,97,146422
1.4907,0.4008,39.3800,85,97,146425
1.7693,0.4057,39.3500,85,97,146428
2.1750,0.4154,39.3800,85,97,146433
2.6442,0.4154,39.4400,85,97,146436
3.2063,0.4154,39.1900,85,97,146439
3.5679,0.4057,39.3800,85,97,146443
3.7048,0.4106,39.3800,85,97,146446
3.5435,0.4154,39.3200,85,97,146449
3.1232,0.4106,39.3800,85,97,146453
2.7273,0.4350,39.2500,85,97,146456
2.2434,0.4203,39.2800,85,97,146459
1.7937,0.4106,39.3800,85,97,146462
1.5298,0.4252,39.3200,85,97,146466
1.3099,0.4057,39.4400,85,97,146469
1.2854,0.4350,39.1200,85,97,146472
1.2610,0.4203,39.2500,85,97,146477
1.2854,0.4057,39.3200,85,97,146480
1.3343,0.4106,39.3500,85,97,146483
1.3636,0.4057,39.3800,85,97,146487
1.4516,0.4252,39.2500,85,97,146490
1.4467,0.4106,39.3500,85,97,146493
1.4809,0.4106,39.2800,85,97,146497
1.4809,0.4154,39.3800,85,97,146500
1.4956,0.4106,39.3800,85,97,146503
1.5249,0.4106,39.3500,85,97,146506
1.5249,0.4057,39.4400,85,97,146510
1.5543,0.4154,39.2500,85,97,146513
1.5445,0.4057,39.4400,85,97,146516
1.5543,0.4057,39.3800,85,97,146521
1.5934,0.4203,39.2500,85,97,146524
1.5738,0.4106,39.4100,85,97,146527
1.6031,0.4350,39.3200,85,97,146531
1.5982,0.4106,39.3800,85,97,146534
1.6031,0.4057,39.4800,85,97,146537
1.6373,0.4203,39.2500,85,97,146541
1.6276,0.4106,39.3500,85,97,146544
1.6764,0.4399,39.1600,85,97,146547
1.6618,0.4106,39.3200,85,97,146550
1.6618,0.4154,39.3800,85,97,146554
1.6862,0.4154,39.3500,85,97,146557
1.6911,0.4154,39.3800,85,97,146561
1.7546,0.4252,39.0900,85,97,146565
1.7155,0.4203,39.3200,85,97,146568
1.7204,0.3861,39.3500,85,97,146571
1.7253,0.4106,39.3800,85,97,146575
1.7204,0.4057,39.3800,85,97,146578
1.7791,0.4301,39.1900,85,97,146581
1.7449,0.4154,39.3200,85,97,146585
1.7595,0.4106,39.3200,85,97,146588
1.7498,0.4057,39.3500,85,97,146591
1.7595,0.4106,39.3800,85,97,146595
1.8035,0.4203,39.3200,85,97,146598
1.7742,0.4154,39.3500,85,97,146601
1.8035,0.4203,39.2200,85,97,146605
1.8182,0.4106,39.3800,85,97,146609
1.7986,0.4057,39.4100,85,97,146612
1.8328,0.4203,39.2800,85,97,146615
1.8231,0.4057,39.3800,85,97,146619
1.8622,0.4106,39.4100,85,97,146622
1.8426,0.4057,39.3500,85,97,146625
1.8475,0.4106,39.5100,85,97,146629
1.8671,0.4154,39.3200,85,97,146632
1.8719,0.4106,39.3500,85,97,146635
1.9208,0.4203,39.2800,85,97,146639
1.8915,0.3861,39.3800,85,97,146642
1.9062,0.4106,39.4400,85,97,146646
1.9355,0.4154,39.3500,85,97,146649
1.9110,0.4057,39.3800,85,97,146653
1.9648,0.4301,39.1200,85,97,146656
1.9453,0.4154,39.3500,85,97,146659
1.9453,0.4154,39.3500,85,97,146663
1.9599,0.4154,39.3500,85,97,146666
1.9795,0.4106,39.3800,85,97,146669
2.0235,0.4350,39.2500,85,97,146673
1.9892,0.4497,39.2500,85,97,146676
1.9892,0.4057,39.3200,85,97,146679
1.9844,0.4106,39.2800,85,97,146683
1.9844,0.4203,39.3800,85,97,146686
2.0235,0.4203,39.2200,85,97,146690
1.9795,0.4106,39.4400,85,97,146693
1.9746,0.4203,39.2500,85,97,146697
1.9355,0.4106,39.3800,85,97,146700
1.9062,0.4057,39.3800,85,97,146703
1.9013,0.4154,39.3200,85,97,146707
1.8573,0.4106,39.3500,85,97,146710
1.8719,0.4203,39.2500,85,97,146713
1.7986,0.4106,39.3800,85,97,146717
1.7889,0.4057,39.3500,85,97,146720
1.7693,0.4203,39.2800,85,97,146723
1.7204,0.3861,39.3500,85,97,146727
1.7107,0.4154,39.2200,85,97,146731
1.6813,0.4203,39.2800,85,97,146734
1.6667,0.4057,39.3800,85,97,146737
1.6764,0.4448,39.3200,85,97,146741
1.6520,0.4057,39.4400,85,97,146744
1.6911,0.4203,39.0600,85,97,146747
1.6618,0.4106,39.3200,85,97,146751
1.6569,0.4057,39.3500,85,97,146754
1.6716,0.4106,39.3800,85,97,146757
1.6764,0.4057,39.4400,85,97,146761
1.7351,0.4252,39.1200,85,97,146764
1.7009,0.4154,39.3200,85,97,146767
1.7155,0.4057,39.3500,85,97,146771
1.7253,0.4106,39.3500,85,97,146775
1.7253,0.4106,39.4100,85,97,146778
1.7937,0.4301,39.2200,85,97,146782
1.7595,0.4154,39.3200,85,97,146785
1.7693,0.4106,39.3500,85,97,146788
1.7693,0.3861,39.3500,85,97,146791
1.7742,0.4057,39.3200,85,97,146795
1.8182,0.4203,39.2200,85,97,146798
1.7889,0.4106,39.3800,85,97,146801
1.8231,0.4106,39.2500,85,97,146805
1.7889,0.4106,38.7700,85,97,146808
1.7937,0.4154,39.3500,85,97,146811
1.8133,0.4106,39.2800,85,97,146816
1.7840,0.4106,39.4400,85,97,146819
1.8133,0.4154,39.3500,85,97,146822
1.7889,0.4106,39.3500,85,97,146826
1.7986,0.4106,39.3800,85,97,146829
1.8035,0.3861,39.2800,85,97,146832
1.7937,0.4106,39.3500,85,97,146835
1.8280,0.4252,39.2500,85,97,146839
1.7986,0.4057,39.4400,85,97,146842
1.8084,0.4154,39.3800,85,97,146845
1.8328,0.4203,39.3200,85,97,146849
1.8035,0.4106,39.3500,85,97,146852
1.8524,0.4301,39.1200,85,97,146855
1.8231,0.4594,39.2800,85,97,146860
1.8182,0.4057,39.3500,85,97,146863
1.8231,0.4154,39.3200,85,97,146866
1.8182,0.4057,39.3800,85,97,146870
1.8817,0.4350,39.1600,86,97,146873
1.8524,0.4203,39.2500,86,97,146877
1.8280,0.4106,39.4400,86,97,146880
1.8524,0.4203,39.2800,86,97,146883
1.8182,0.4106,39.3800,86,97,146887
1.8084,0.4106,39.2800,86,97,146890
1.8133,0.4008,39.3200,86,97,146893
1.8084,0.4057,39.3500,86,97,146896
1.8328,0.4154,39.2500,86,97,146900
1.7986,0.4106,39.3500,86,97,146904
1.8084,0.4057,39.3800,86,97,146907
1.8231,0.4497,39.2800,86,97,146911
1.7986,0.4106,39.4400,86,97,146914
1.8377,0.4252,39.2200,86,97,146917
1.8231,0.4154,39.2800,86,97,146921
1.8182,0.4106,39.3800,86,97,146924
1.8426,0.4203,39.3800,86,97,146927
1.8280,0.4106,39.3800,86,97,146931
1.8964,0.4301,39.0900,86,97,146934
1.8573,0.4154,39.2500,86,97,146937
1.8866,0.3959,39.4400,86,97,146940
1.8719,0.4106,39.3500,86,97,146945
1.8719,0.4350,39.3800,86,97,146948
1.9404,0.4252,39.1900,86,97,146951
1.8915,0.4106,39.3200,86,97,146955
1.9159,0.4057,39.2800,86,97,146958
1.9013,0.4106,39.4100,86,97,146961
1.9208,0.4106,39.3800,86,97,146965
1.9697,0.4203,39.1900,86,97,146968
1.9697,0.4057,39.3500,86,97,146971
2.0186,0.4154,39.2200,86,97,146975
1.9892,0.4154,39.4100,86,97,146978
1.9990,0.4057,39.3800,86,97,146981
2.0332,0.4252,39.2500,86,97,146984
1.9941,0.4057,39.3500,86,97,146989
2.0039,0.4106,39.0900,86,97,146992
1.9501,0.4057,39.2800,86,97,146995
1.9404,0.4106,39.3500,86,97,146999
1.9208,0.4154,39.2200,86,97,147002
1.8524,0.4057,39.3800,86,97,147005
1.8622,0.4203,39.1600,86,97,147009
1.8133,0.4154,39.3200,86,97,147012
1.7840,0.4057,39.3500,86,97,147015
1.7889,0.4203,39.3200,86,97,147019
1.7693,0.4106,39.3800,86,97,147022
1.8133,0.4252,39.1200,86,97,147025
1.7595,0.4106,39.3500,86,97,147030
1.7546,0.4057,39.3500,86,97,147033
1.7498,0.4154,39.4100,86,97,147036
1.7204,0.4154,39.4100,86,97,147039
1.7693,0.4252,39.1600,86,97,147043
1.7204,0.4203,39.2500,86,97,147046
1.7107,0.4106,39.2800,86,97,147049
1.7009,0.4106,39.3500,86,97,147053
1.6911,0.4106,39.3500,86,97,147056
1.7204,0.4252,39.2200,86,97,147059
1.7058,0.4154,39.3500,86,97,147063
1.7009,0.4154,39.2500,86,97,147066
1.6960,0.4106,39.4100,86,97,147069
1.7058,0.4203,39.4400,86,97,147074
1.7400,0.4203,39.2500,86,97,147077
1.7107,0.4106,39.3500,86,97,147080
1.7595,0.4252,39.2500,86,97,147083
1.7107,0.4106,39.3500,86,97,147087
1.7058,0.4154,39.4400,86,97,147090
1.7204,0.4106,39.3200,86,97,147093
1.7155,0.4106,39.4800,86,97,147097
1.7546,0.4203,39.1900,86,97,147100
1.6960,0.4106,39.3200,86,97,147103
1.6569,0.4106,39.3500,86,97,147107
1.5982,0.4203,39.3200,86,97,147110
1.5054,0.4154,39.4400,86,97,147113
1.4712,0.4252,39.1200,86,97,147118
1.4174,0.4154,39.2500,86,97,147121
1.4565,0.3861,39.4400,86,97,147124
1.6862,0.4106,39.3200,86,97,147127
1.9648,0.4057,39.4400,86,97,147131
2.4585,0.4350,39.0900,86,97,147134
2.9179,0.4154,39.2800,86,97,147137
3.4018,0.4057,39.3500,86,97,147141
3.7292,0.4448,39.3500,86,97,147144
3.7537,0.4057,39.4100,86,97,147147
3.5777,0.4252,39.1900,86,97,147151
3.0987,0.4057,39.3500,86,97,147154
2.6393,0.4106,39.2800,86,97,147158
2.1505,0.4301,39.3500,86,97,147162
1.7351,0.3861,39.3800,86,97,147165
1.4614,0.4203,39.3200,86,97,147168
1.3001,0.4106,39.3500,86,97,147171
1.2610,0.4154,39.2200,86,97,147175
1.2561,0.4106,39.3800,86,97,147178
1.3001,0.4057,39.3800,86,97,147181
1.3734,0.4203,39.3500,86,97,147185
1.3930,0.4106,39.3500,86,97,147188
1.4467,0.4106,39.2200,86,97,147191
1.4712,0.4106,39.3800,86,97,147195
1.4956,0.4057,39.4400,86,97,147198
1.5298,0.4057,39.2200,86,97,147202
1.5200,0.4106,38.9000,86,97,147206
1.5689,0.4203,39.1900,86,97,147209
1.5591,0.4154,39.4400,86,97,147212
1.5640,0.4057,39.3800,86,97,147215
1.5836,0.4154,39.4100,86,97,147219
1.5885,0.4106,39.4400,86,97,147222
1.6471,0.4252,39.1200,86,97,147225
1.6129,0.4106,39.3500,86,97,147229
1.6325,0.4057,39.4100,86,97,147232
1.6373,0.4399,39.3500,86,97,147235
1.6373,0.4106,39.3800,86,97,147239
1.6960,0.4594,39.1900,86,97,147243
1.6716,0.4154,39.3200,86,97,147246
1.6618,0.4106,39.2800,86,97,147250
1.6618,0.4106,39.3500,86,97,147253
1.6618,0.4057,39.2800,86,97,147256
1.7351,0.4350,39.1600,86,97,147260
1.6764,0.4154,39.3500,86,97,147263
1.6960,0.4203,39.2500,86,97,147266
1.6813,0.4057,39.3500,86,97,147269
1.6960,0.4057,39.2800,86,97,147273
1.7546,0.4252,39.2800,86,97,147276
1.7107,0.4106,39.4400,86,97,147279
1.7498,0.4154,39.2800,86,97,147283
1.7253,0.4057,39.3800,86,97,147287
1.7302,0.4057,39.3800,86,97,147290
1.7498,0.4154,39.3200,86,97,147294
1.7546,0.4106,39.3800,86,97,147297
1.7937,0.4252,39.1900,86,97,147300
1.7742,0.4106,39.3800,86,97,147304
1.7840,0.4106,39.3800,86,97,147307
1.8084,0.4252,39.3500,86,97,147310
1.7986,0.4106,39.3500,86,97,147313
1.8524,0.4252,39.1900,86,97,147317
1.8377,0.4448,39.2800,86,97,147320
1.8475,0.4057,39.4100,86,97,147323
1.8671,0.4252,39.3200,86,97,147328
1.8719,0.4106,39.3500,86,97,147331
1.9453,0.4350,39.1200,86,97,147334
1.9208,0.4252,39.2800,86,97,147338
1.9110,0.4057,39.3200,86,97,147341
1.9257,0.4057,39.4400,86,97,147344
1.9306,0.4057,39.4100,86,97,147348
1.9892,0.4350,39.2800,86,97,147351
1.9599,0.3861,39.4100,86,97,147354
1.9844,0.4154,39.2500,86,97,147357
1.9648,0.4106,39.3500,86,97,147361
1.9648,0.4057,39.3500,86,97,147364
2.0186,0.4203,39.3200,86,97,147367
1.9941,0.4106,39.3500,86,97,147372
2.0283,0.4203,39.4800,86,97,147375
2.0235,0.4106,39.3500,86,97,147378
2.0235,0.4057,39.3800,86,97,147382
2.0674,0.4203,39.2500,86,97,147385
2.0235,0.4106,39.3800,86,97,147388
2.0577,0.4154,39.2500,86,97,147392
2.0186,0.4106,39.2800,86,97,147395
2.0039,0.4057,39.3500,86,97,147398
2.0088,0.4154,39.2200,86,97,147401
1.9550,0.4106,39.3500,86,97,147405
1.9648,0.4203,39.1600,86,97,147408
1.9062,0.4154,38.8700,86,97,147411
1.8671,0.4106,39.3500,86,97,147416
1.8573,0.4154,39.3800,86,97,147419
1.8231,0.4106,39.3500,86,97,147422
1.8768,0.4301,38.9600,86,97,147426
1.7791,0.4106,39.3500,86,97,147429
1.7693,0.4106,39.4400,86,97,147432
1.7644,0.4154,39.3500,86,97,147436
1.7449,0.4057,39.4400,86,97,147439
1.7840,0.4350,39.1600,86,97,147442
1.7400,0.4203,39.2500,86,97,147445
1.7253,0.4106,39.3200,86,97,147449
1.7204,0.4106,39.2800,86,97,147452
1.7204,0.4057,39.4400,86,97,147456
1.7595,0.4252,39.2200,86,97,147460
1.7351,0.4154,39.3200,86,97,147463
1.7449,0.4154,39.2500,86,97,147466
1.7302,0.4057,39.3500,86,97,147470
1.7400,0.4106,39.3800,86,97,147473
1.7742,0.4203,39.2200,86,97,147476
1.7546,0.4106,39.3500,86,97,147480
1.7986,0.4203,39.2800,86,97,147483
1.7791,0.4057,39.1600,86,97,147486
1.7889,0.4106,39.3500,86,97,147490
1.7791,0.4057,39.3800,86,97,147493
1.7840,0.4203,39.3200,86,97,147496
1.7546,0.4057,39.3500,86,97,147501
1.7937,0.4252,39.2500,86,97,147504
1.7742,0.4203,39.2500,86,97,147507
1.7742,0.3861,39.3500,86,97,147511
1.7889,0.4154,39.3500,86,97,147514
1.7840,0.4057,39.0600,86,97,147517
1.8524,0.4350,39.1900,86,97,147521
1.8231,0.4203,39.2800,86,97,147524
1.8133,0.4106,38.7100,86,97,147527
1.8328,0.4106,39.3500,86,97,147531
1.8231,0.4057,39.3800,86,97,147534
1.8622,0.4203,39.2800,86,97,147537
1.8280,0.4106,39.3500,86,97,147540
1.8622,0.4154,39.2800,86,97,147545
1.8475,0.4106,39.3800,86,97,147548
1.8475,0.4057,39.4100,86,97,147551
1.8719,0.4203,39.3200,86,97,147555
1.8622,0.4106,39.4100,86,97,147558
1.8915,0.4399,39.3500,86,97,147561
1.8573,0.4106,39.3800,86,97,147565
1.8524,0.4301,39.3800,86,97,147568
1.8768,0.4203,39.2500,86,97,147571
1.8377,0.4106,39.3800,86,97,147575
1.8719,0.4203,39.1600,86,97,147578
1.8328,0.4106,39.2800,86,97,147581
1.8280,0.4057,39.2800,86,97,147585
1.8524,0.4252,39.2500,86,97,147589
1.8182,0.4057,39.4100,86,97,147592
1.8719,0.4350,39.0900,86,97,147595
1.8377,0.4106,39.3200,86,97,147599
1.8231,0.4057,39.4100,86,97,147602
1.8280,0.4154,39.3500,86,97,147605
1.8280,0.4057,39.4400,86,97,147609
1.8866,0.4252,39.1200,86,97,147612
1.8426,0.4106,39.3800,86,97,147615
1.8475,0.4106,39.3200,86,97,147619
1.8573,0.4106,39.3500,86,97,147622
1.8524,0.4301,39.3500,86,97,147625
1.9453,0.4252,39.2500,86,97,147629
1.8817,0.4154,39.5100,86,97,147633
1.8915,0.4106,39.2500,86,97,147636
1.8768,0.4106,39.3800,86,97,147639
1.9013,0.4106,39.3800,86,97,147643
1.9306,0.4203,39.2800,86,97,147646
1.9110,0.4203,39.3500,86,97,147649
1.9550,0.4154,39.2200,86,97,147653
1.9453,0.4106,39.3500,86,97,147656
1.9697,0.4106,39.3800,86,97,147659
1.9990,0.4154,39.2200,86,97,147663
1.9746,0.4154,39.3500,86,97,147666
2.0137,0.4154,39.2200,86,97,147670
1.9746,0.4154,39.3200,86,97,147674
1.9599,0.4057,39.3500,86,97,147677
1.9453,0.4154,39.3200,86,97,147680
1.9159,0.3861,39.4800,86,97,147683
1.9110,0.4350,39.1600,86,97,147687
1.8328,0.4057,39.3200,86,97,147690
1.8035,0.4154,39.3800,86,97,147693
1.7889,0.4154,39.3200,86,97,147697
1.7498,0.4106,39.3500,86,97,147700
1.7840,0.4252,39.0900,86,97,147703
1.7449,0.4154,39.3800,86,97,147707
1.7302,0.4154,39.3800,86,97,147710
1.7302,0.4154,39.2800,86,97,147714
1.7155,0.4252,39.3800,86,97,147718
1.7644,0.4252,39.1900,86,97,147721
1.7204,0.4203,39.2800,86,97,147724
1.7107,0.4106,39.3200,86,97,147727
1.7009,0.4106,39.4400,86,97,147731
1.7058,0.4057,39.3800,86,97,147734
1.7351,0.4203,39.2500,86,97,147737
1.7058,0.4057,39.3500,86,97,147741
1.7253,0.4057,39.3200,86,97,147744
1.7155,0.4106,39.2800,86,97,147747
1.7302,0.4057,39.3800,86,97,147751
1.7302,0.4106,39.3500,86,97,147755
1.7204,0.4106,39.3800,86,97,147758
1.7498,0.4154,39.2500,86,97,147762
1.7204,0.4154,39.4100,86,97,147765
1.7351,0.4106,39.3800,86,97,147768
1.7498,0.4203,39.2500,86,97,147772
1.7302,0.3861,39.3800,86,97,147775
1.7595,0.4203,39.0300,86,97,147778
1.7449,0.4301,39.2500,86,97,147781
1.7400,0.4057,39.3800,86,97,147785
1.7400,0.4301,39.3200,86,97,147788
1.6716,0.4106,39.3800,86,97,147791
1.6227,0.4252,39.1200,86,97,147795
1.5103,0.4154,39.2800,86,97,147799
1.4418,0.4057,39.3800,86,97,147802
1.4565,0.4154,39.3800,86,97,147806
1.5885,0.4106,39.3800,86,97,147809
1.9257,0.4350,39.1200,86,97,147812
2.2678,0.4154,39.3500,86,97,147816
2.7517,0.4106,39.2800,86,97,147819
3.2698,0.4106,39.3800,86,97,147822
3.7097,0.4106,39.3800,86,97,147825
3.9785,0.4252,39.2500,86,97,147829
3.7390,0.4106,39.3500,86,97,147832
3.4066,0.4106,39.2200,86,97,147835
2.9179,0.4057,39.4100,86,97,147840
2.4438,0.4057,39.4400,86,97,147843
2.0332,0.4545,39.2200,86,97,147846
1.6422,0.4106,39.3800,86,97,147850
1.4321,0.4203,39.2200,86,97,147853
1.3148,0.4106,39.3500,86,97,147856
1.3050,0.4057,39.3800,86,97,147860
1.3587,0.4203,39.2200,86,97,147863
1.3881,0.4106,39.3800,86,97,147866
1.4614,0.4154,39.1900,86,97,147869
1.4809,0.4106,39.3200,86,97,147873
1.5200,0.4154,39.2800,86,97,147876
1.5689,0.4350,39.2800,86,97,147879
1.5836,0.4057,39.3500,86,97,147884
1.6373,0.4203,39.1600,86,97,147887
1.6178,0.4057,39.4400,86,97,147890
1.6422,0.4057,39.3200,86,97,147894
1.6618,0.4203,39.3500,86,97,147897
1.6618,0.4057,39.3500,86,97,147900
1.7204,0.4301,39.0900,86,97,147904
1.7107,0.4154,39.3200,86,97,147907
1.7155,0.4057,39.4400,86,97,147910
1.7302,0.4106,39.3200,86,97,147913
1.7302,0.4106,39.3500,86,97,147917
1.7889,0.4154,39.1900,86,97,147920
1.7644,0.4643,39.2800,86,97,147923
1.7693,0.4057,39.2800,86,97,147928
1.7595,0.4106,39.2500,86,97,147931
1.7693,0.4106,39.3800,86,97,147934
1.8035,0.4203,39.3200,86,97,147938
1.7791,0.4057,39.3500,86,97,147941
1.8182,0.4106,39.2500,86,97,147944
1.7840,0.4106,39.3800,86,97,147948
1.7889,0.4057,39.4400,86,97,147951
1.8035,0.4106,39.3200,86,97,147954
1.7986,0.4106,39.3800,86,97,147957
1.8377,0.4057,39.2200,86,97,147961
1.8084,0.4106,39.4800,86,97,147964
1.8182,0.4057,39.3500,86,97,147968
1.8426,0.4203,39.2800,86,97,147972
1.8280,0.4106,39.3500,86,97,147975
1.8768,0.4203,39.1900,86,97,147978
1.8573,0.4154,39.2800,86,97,147982
1.8866,0.4106,39.3800,86,97,147985
1.8866,0.4301,39.3200,86,97,147988
1.8671,0.4057,39.4400,86,97,147992
1.9257,0.4252,39.0900,86,97,147995
1.8915,0.4154,39.2500,86,97,147998
1.8866,0.4057,39.3200,86,97,148002
1.9062,0.4057,39.3500,86,97,148005
1.9110,0.4057,39.3800,86,97,148008
1.9844,0.4594,39.1900,86,97,148012
1.9404,0.4154,39.5100,86,97,148016
1.9550,0.4008,39.3200,86,97,148019
1.9501,0.4106,39.3800,86,97,148022
1.9550,0.4008,39.3800,86,97,148026
2.0088,0.4301,39.2800,86,97,148029
1.9892,0.4106,39.3500,86,97,148032
2.0137,0.4106,39.3200,86,97,148036
1.9990,0.4106,39.3800,86,97,148039
1.9990,0.4106,38.9600,86,97,148042
2.0479,0.4154,39.2200,86,97,148046
2.0137,0.4106,39.4400,86,97,148049
2.0430,0.4252,39.2800,86,97,148052
2.0528,0.4057,39.3500,86,97,148056
2.0332,0.4057,39.4400,86,97,148060
2.0577,0.4203,39.2500,86,97,148063
2.0235,0.4057,39.3800,86,97,148066
2.0528,0.4154,39.2500,86,97,148070
2.0137,0.4399,39.3200,86,97,148073
1.9990,0.4057,39.3500,86,97,148076
1.9892,0.4154,39.5400,86,97,148080
1.9599,0.4057,39.3500,86,97,148083
1.9844,0.4203,39.1600,86,97,148086
1.9062,0.4106,39.3500,86,97,148089
1.8817,0.4057,39.3800,86,97,148093
1.8671,0.4350,39.3200,86,97,148097
1.7351,0.4057,39.3500,86,97,148101
1.7155,0.4057,39.3500,86,97,148104
1.7302,0.4203,39.2800,86,97,148107
1.6813,0.4154,39.3500,86,97,148111
1.6764,0.4154,39.2200,86,97,148114
1.6569,0.4057,39.3800,86,97,148117
1.6520,0.4057,39.3500,86,97,148121
1.6764,0.4057,39.2800,86,97,148124
1.6569,0.4106,39.3800,86,97,148127
1.6911,0.4203,39.2800,86,97,148131
1.6667,0.4057,39.3500,86,97,148134
1.6716,0.4057,39.2800,86,97,148137
1.6960,0.4154,39.3800,86,97,148142
1.7009,0.4106,39.3800,86,97,148145
1.7400,0.4154,39.4800,86,97,148148
1.7253,0.4057,39.3500,86,97,148151
1.7351,0.4057,39.3500,86,97,148155
1.7693,0.4154,39.2800,86,97,148158
1.7449,0.4106,39.3800,86,97,148161
1.7937,0.4545,39.1600,86,97,148165
1.7791,0.4154,39.2500,86,97,148168
1.7742,0.4057,39.3800,86,97,148171
1.7986,0.4154,39.3200,86,97,148175
1.7889,0.4106,39.3800,86,97,148178
1.8524,0.4301,39.1200,86,97,148182
1.8133,0.4154,39.2200,86,97,148186
1.8182,0.4106,39.3200,86,97,148189
1.8084,0.4106,39.3800,86,97,148192
1.8084,0.4057,39.4100,86,97,148195
1.8622,0.4301,39.2500,86,97,148199
1.8182,0.4106,39.3500,86,97,148202
1.8328,0.4106,39.2800,86,97,148205
1.8280,0.4106,39.3500,86,97,148209
1.8182,0.4350,39.3500,86,97,148212
1.8524,0.4057,39.2800,86,97,148215
1.8328,0.4106,39.3500,86,97,148219
1.8524,0.4252,39.2200,86,97,148222
1.8280,0.4106,38.6800,86,97,148226
1.8280,0.4399,39.4100,86,97,148230
1.8719,0.4203,39.3200,86,97,148233
1.8328,0.4252,39.3500,86,97,148236
1.8573,0.4203,39.2200,86,97,148239
1.8377,0.4106,39.2200,86,97,148243
1.8426,0.4106,39.3500,86,97,148246
1.8671,0.4154,39.2200,86,97,148249
1.8426,0.4203,39.4400,86,97,148253
1.8817,0.4203,39.1600,86,97,148256
1.8475,0.4154,39.3500,86,97,148259
1.8573,0.4057,39.3800,86,97,148263
1.8524,0.4154,39.3200,86,97,148267
1.8524,0.4301,39.3500,86,97,148270
1.9013,0.4252,39.1200,86,97,148274
1.8426,0.4106,39.3500,86,97,148277
1.8426,0.4057,39.3500,86,97,148280
1.8475,0.4154,39.3800,86,97,148283
1.8280,0.4106,39.3800,86,97,148287
1.8866,0.4350,39.1900,86,97,148290
1.8524,0.4154,39.3200,86,97,148293
1.8524,0.4106,39.3500,86,97,148297
1.8573,0.4057,39.4800,86,97,148300
1.8622,0.4057,39.4100,86,97,148303
1.9062,0.4252,39.2800,86,97,148307
1.8768,0.4154,39.2800,86,97,148311
1.8915,0.4448,39.2500,86,97,148314
1.8768,0.4057,39.3500,86,97,148318
1.8768,0.4057,39.2800,86,97,148321
1.9110,0.4301,39.3200,86,97,148324
1.8768,0.4106,39.3800,86,97,148328
1.9110,0.4154,39.3200,86,97,148331
1.8915,0.4106,39.3500,86,97,148334
1.9062,0.4057,39.2800,86,97,148337
1.9404,0.4203,39.3200,86,97,148341
1.9550,0.4057,39.3500,86,97,148344
2.0039,0.4154,39.3800,86,97,148347
1.9795,0.4106,39.3500,86,97,148352
1.9892,0.4057,38.8100,86,97,148355
2.0137,0.4301,39.2800,86,97,148358
1.9844,0.4057,39.4400,86,97,148362
2.0088,0.4399,39.2200,86,97,148365
1.9599,0.4057,39.2800,86,97,148368
1.9159,0.4057,39.3800,86,97,148371
1.8964,0.4106,39.2800,86,97,148375
1.8475,0.4057,39.3800,86,97,148378
1.8671,0.4252,39.0900,86,97,148381
1.8035,0.4154,39.2500,86,97,148385
1.7742,0.4057,39.3500,86,97,148388
1.7693,0.4106,39.3500,86,97,148391
1.7644,0.4106,39.3800,86,97,148396
1.8133,0.4252,39.2200,86,97,148399
1.7693,0.4106,39.3500,86,97,148402
1.7742,0.4106,39.2800,86,97,148406
1.7546,0.4154,39.3500,86,97,148409
1.7449,0.4057,39.4800,86,97,148412
1.7791,0.4203,39.3200,86,97,148416
1.7498,0.4106,39.3500,86,97,148419
1.7693,0.4154,39.2200,86,97,148422
1.7449,0.4106,39.3800,86,97,148425
1.7449,0.4106,39.4100,86,97,148429
1.7791,0.4057,39.2500,86,97,148432
1.7449,0.4106,39.3800,86,97,148435
1.7693,0.3959,39.3200,86,97,148440
1.7546,0.3861,39.2800,86,97,148443
1.7546,0.4057,39.4400,86,97,148446
1.7840,0.4154,39.1900,86,97,148450
1.7595,0.4057,39.3800,86,97,148453
1.8328,0.4203,39.1600,86,97,148456
1.7791,0.4252,39.2800,86,97,148460
1.7986,0.4154,39.3800,86,97,148463
1.7840,0.4154,39.4800,86,97,148466
1.7742,0.4106,39.3800,86,97,148469
1.8133,0.4252,39.1200,86,97,148473
1.7204,0.4106,39.3500,86,97,148476
1.6520,0.4057,39.3800,86,97,148480
1.5787,0.4399,39.3500,86,97,148484
1.5005,0.4057,39.3500,86,97,148487
1.5200,0.4497,39.1600,86,97,148490
1.5787,0.4154,39.3200,86,97,148494
1.7742,0.4106,39.3500,86,97,148497
2.1163,0.4106,39.4400,86,97,148500
2.5464,0.4057,39.3800,86,97,148504
3.1036,0.4252,39.1900,86,97,148507
3.5533,0.4154,39.3500,86,97,148510
3.8759,0.4154,39.1200,86,97,148513
3.7928,0.4106,39.3500,86,97,148517
3.4702,0.4106,39.3800,86,97,148520
3.0645,0.4399,39.2800,86,97,148524
2.5415,0.4106,39.4100,86,97,148528
2.1310,0.4203,39.2500,86,97,148531
1.7302,0.4057,39.3500,86,97,148534
1.4956,0.4154,39.3800,86,97,148538
1.3783,0.4106,39.2800,86,97,148541
1.3441,0.4057,39.3800,86,97,148544
1.3783,0.4154,39.1900,86,97,148548
1.3930,0.4106,39.3500,86,97,148551
1.4370,0.4106,39.3800,86,97,148554
1.4809,0.4448,39.2800,86,97,148557
1.4907,0.4106,39.4400,86,97,148561
1.5445,0.4252,39.2200,86,97,148564
1.5298,0.4203,39.2800,86,97,148568
1.5396,0.4057,39.3800,86,97,148572
1.5640,0.4154,39.4100,86,97,148575
1.5591,0.4106,39.3800,86,97,148578
1.6276,0.4350,39.1600,86,97,148582
1.6031,0.4203,39.3800,86,97,148585
1.5982,0.4301,39.2800,86,97,148588
1.6080,0.4057,39.3500,86,97,148592
1.6227,0.4057,39.3500,86,97,148595
1.6716,0.4252,39.3500,86,97,148598
1.6471,0.4106,39.3500,86,97,148602
1.6667,0.4106,39.2200,86,97,148605
1.6520,0.4106,39.3800,86,97,148609
1.6569,0.4057,39.2800,86,97,148612
1.6862,0.4154,39.3200,86,97,148616
1.6716,0.4106,39.3500,86,97,148619
1.7009,0.4203,39.2500,86,97,148622
1.6764,0.4106,39.3500,86,97,148626
1.6813,0.4057,39.3800,86,97,148629
1.7107,0.4203,39.2500,86,97,148632
1.6862,0.4301,39.3800,86,97,148636
1.7204,0.4154,39.2200,86,97,148639
1.7058,0.4106,39.2800,86,97,148642
1.7155,0.4057,39.3500,86,97,148646
1.7498,0.4203,39.2500,86,97,148649
1.7302,0.3959,39.3800,86,97,148653
1.7840,0.4203,39.1600,86,97,148656
1.7644,0.4154,39.3500,86,97,148660
1.7742,0.4106,39.3800,86,97,148663
1.7742,0.4106,39.3500,86,97,148666
1.7742,0.4057,39.2800,86,97,148670
1.8426,0.4301,39.0900,86,97,148673
1.7889,0.4106,39.2500,86,97,148676
1.7986,0.3959,39.3800,86,97,148680
1.8133,0.4106,39.3500,86,97,148683
1.8133,0.4106,39.4400,86,97,148686
1.8817,0.4301,39.2200,86,97,148690
1.8573,0.4154,39.2800,86,97,148694
1.8719,0.4154,39.2800,86,97,148697
1.8768,0.4106,39.3800,86,97,148700
1.8866,0.4154,39.3800,86,97,148704
1.9306,0.4252,39.2500,86,97,148707
1.9648,0.4154,39.2200,86,97,148711
1.9501,0.4106,39.3500,86,97,148714
1.9697,0.4154,39.1900,86,97,148717
1.9355,0.4106,39.2800,86,97,148721
1.9306,0.4057,39.3800,86,97,148724
1.9453,0.4154,39.3800,86,97,148727
1.9355,0.4057,39.3800,86,97,148731
1.9990,0.4203,39.1600,86,97,148734
1.9550,0.4106,39.3500,86,97,148738
1.9697,0.4057,39.4400,86,97,148742
1.9746,0.4399,39.3200,86,97,148745
1.9501,0.4106,39.4400,86,97,148748
1.9892,0.4545,39.1600,86,97,148752
1.9355,0.4154,39.2800,86,97,148755
1.9062,0.4057,39.3500,86,97,148758
1.8866,0.4106,39.3500,86,97,148761
1.8475,0.4057,39.2800,86,97,148765
1.8671,0.4350,39.1900,86,97,148768
1.8035,0.4154,39.2800,86,97,148771
1.7742,0.4154,39.2800,86,97,148775
1.7449,0.4106,39.3800,86,97,148779
1.7351,0.4203,39.3500,86,97,148782
1.7498,0.4203,39.2200,86,97,148786
1.7155,0.4106,39.4100,86,97,148789
1.7302,0.4106,39.2500,86,97,148792
1.6960,0.4106,39.3500,86,97,148796
1.6862,0.4106,39.3800,86,97,148799
1.7009,0.4106,39.3200,86,97,148802
1.6911,0.4106,38.8400,86,97,148805
1.7155,0.4106,39.2500,86,97,148809
1.6862,0.4106,39.3500,86,97,148812
1.6911,0.4252,39.3800,86,97,148815
1.7204,0.4203,39.2500,86,97,148819
1.6911,0.4106,39.4100,86,97,148823
1.7302,0.4203,39.1600,86,97,148826
1.7204,0.4154,39.0000,86,97,148830
1.7155,0.4154,39.3800,86,97,148833
1.7449,0.4203,39.3200,86,97,148836
1.7302,0.4057,39.3500,86,97,148840
1.7791,0.4252,39.1200,86,97,148843
1.7449,0.4154,39.2800,86,97,148846
1.7449,0.4008,39.3500,86,97,148849
1.7546,0.4106,39.3500,86,97,148853
1.7595,0.4106,39.3800,86,97,148856
1.8280,0.4301,39.2500,86,97,148859
1.7889,0.4106,39.3800,86,97,148864
1.8035,0.4154,39.3200,86,97,148867
1.8084,0.4106,39.3800,86,97,148870
1.8084,0.4106,39.3800,86,97,148874
1.8573,0.4252,39.2800,86,97,148877
1.8377,0.4106,39.3200,86,97,148880
1.8573,0.4203,39.2500,86,97,148884
1.8426,0.4106,39.3200,86,97,148887
1.8768,0.4106,39.3800,86,97,148890
1.8817,0.4203,39.2200,86,97,148893
1.8524,0.4106,39.3500,86,97,148897
1.8768,0.4203,39.2800,86,97,148900
1.8475,0.4008,39.3800,86,97,148903
1.8524,0.4008,39.3800,86,97,148908
1.8817,0.4154,39.2500,86,97,148911
1.8622,0.4154,39.4100,86,97,148914
1.8915,0.4154,39.2800,86,97,148918
1.8622,0.4545,39.2800,86,97,148921
1.8573,0.4106,39.3800,86,97,148924
1.8719,0.4154,39.3800,86,97,148928
1.8622,0.4008,39.3500,86,97,148931
1.9013,0.4203,39.1200,86,97,148934
1.8622,0.4154,39.3800,86,97,148937
1.8719,0.4106,39.3800,86,97,148941
1.8866,0.4154,39.3200,86,97,148944
1.8671,0.4057,39.3800,86,97,148947
1.9208,0.4252,39.0600,86,97,148952
1.8915,0.4154,39.2500,86,97,148955
1.8817,0.4057,39.3500,86,97,148958
1.8817,0.4106,39.3200,86,97,148962
1.8719,0.4057,39.3800,86,97,148965
1.9208,0.4252,39.1900,86,97,148968
1.8817,0.4154,39.3200,86,97,148972
1.8671,0.4106,39.2800,86,97,148975
1.8524,0.4106,39.3800,86,97,148978
1.8524,0.4057,39.3800,86,97,148981
1.8719,0.4399,39.2500,86,97,148985
1.8524,0.4057,39.3800,86,97,148988
1.8817,0.4154,39.2200,86,97,148992
1.8671,0.4057,39.3800,86,97,148996
1.8524,0.4057,39.3800,86,97,148999
1.8964,0.4057,39.3200,86,97,149002
1.8768,0.4106,39.3500,86,97,149006
1.9159,0.4154,39.2500,86,97,149009
1.8915,0.4106,38.8400,86,97,149012
1.8964,0.4106,39.4100,86,97,149016
1.9208,0.4203,39.2800,86,97,149019
1.8817,0.4057,39.3500,86,97,149022
1.9453,0.4203,39.1600,86,97,149026
1.9062,0.4154,39.3800,86,97,149029
1.9110,0.4154,39.3800,86,97,149032
1.9501,0.4203,39.4800,86,97,149036
1.9453,0.4545,39.3500,86,97,149040
2.0137,0.4301,39.1200,86,97,149043
1.9795,0.4106,39.3200,86,97,149046
1.9746,0.4057,39.3800,86,97,149050
1.9795,0.4106,39.3800,86,97,149053
1.9795,0.4057,39.3500,86,97,149056
2.0332,0.4301,39.1900,86,97,149060
1.9501,0.4301,39.3800,86,97,149063
1.9257,0.4057,39.2800,86,97,149066
1.8866,0.4106,39.4100,86,97,149070
1.8768,0.4106,39.3800,86,97,149073
1.8426,0.4203,39.3500,86,97,149076
1.7937,0.4203,39.3500,86,97,149080
1.8035,0.4057,39.2500,86,97,149084
1.7546,0.4106,39.3800,86,97,149087
1.7449,0.4106,39.3500,86,97,149090
1.7644,0.4203,39.2200,86,97,149094
1.7204,0.4106,39.3500,86,97,149097
1.7351,0.4154,39.2800,86,97,149100
1.7107,0.4106,39.3200,86,97,149104
1.7204,0.4057,39.3800,86,97,149107
1.7351,0.4252,39.2500,86,97,149110
1.7155,0.4106,39.3800,86,97,149114
1.7498,0.4154,39.1600,86,97,149117
1.7253,0.4106,39.2800,86,97,149121
1.7155,0.4057,38.8700,86,97,149124
1.7400,0.4154,39.2800,86,97,149128
1.7302,0.4106,39.3500,86,97,149131
1.7791,0.4252,39.1900,86,97,149134
1.7351,0.4057,39.3200,86,97,149138
1.7449,0.4057,39.3800,86,97,149141
1.7644,0.4154,39.3500,86,97,149144
1.7449,0.4057,39.5400,86,97,149148
1.8035,0.4350,39.1900,86,97,149151
1.7742,0.4154,39.3200,86,97,149154
1.7742,0.4057,39.3200,86,97,149158
1.7889,0.4106,39.3800,86,97,149161
1.7791,0.4106,39.3500,86,97,149165
1.8280,0.4057,39.2200,86,97,149169
1.7742,0.4106,39.4100,86,97,149172
1.7400,0.4057,39.2800,86,97,149175
1.6520,0.4057,39.3800,86,97,149178
1.5787,0.4106,39.3800,86,97,149182
1.5396,0.4203,39.3500,86,97,149185
1.4809,0.4106,39.3500,86,97,149188
1.5640,0.4154,39.2800,86,97,149192
1.7351,0.4057,39.3800,86,97,149195
2.0577,0.4350,39.3500,86,97,149198
2.5024,0.4106,39.3200,86,97,149202
2.9912,0.4057,39.4800,86,97,149206
3.5337,0.4106,39.2500,86,97,149209
3.8123,0.4106,39.4400,86,97,149212
3.8025,0.4057,39.4800,86,97,149216
3.5533,0.4203,39.3200,86,97,149219
3.0890,0.4057,39.5400,86,97,149222
2.6686,0.4203,39.2200,86,97,149226
2.1848,0.4154,39.2500,86,97,149229
1.7937,0.4057,39.4400,86,97,149232
1.5543,0.4154,39.3200,86,97,149236
1.3978,0.4057,39.3800,86,97,149239
1.3978,0.4301,39.1200,86,97,149242
1.3881,0.4154,39.3500,86,97,149246
1.4174,0.4203,39.3800,86,97,149250
1.4761,0.3861,39.3800,86,97,149253
1.5152,0.4057,39.3500,86,97,149256
1.5982,0.4350,39.1900,86,97,149260
1.5787,0.4106,39.3500,86,97,149263
1.5982,0.4154,39.2800,86,97,149266
1.6031,0.4106,39.3800,86,97,149270
1.6080,0.4106,39.3500,86,97,149273
1.6471,0.4203,39.2800,86,97,149276
1.6373,0.4106,39.3500,86,97,149280
1.6667,0.4106,39.3200,86,97,149283
1.6520,0.4106,39.3800,86,97,149286
1.6569,0.4106,39.3800,86,97,149291
1.6862,0.4252,39.5700,86,97,149294
1.6667,0.4106,39.3500,86,97,149297
1.7009,0.4154,39.2500,86,97,149301
1.6862,0.4057,39.2500,86,97,149304
1.7009,0.4154,39.3500,86,97,149307
1.7302,0.4154,39.2500,86,97,149310
1.7155,0.4057,39.4400,86,97,149314
1.7546,0.4154,39.1900,86,97,149317
1.7986,0.4252,39.0900,86,97,149321
1.7546,0.4203,39.3200,86,97,149324
1.7595,0.4106,39.3200,86,97,149327
1.7595,0.4106,39.2200,86,97,149331
1.7498,0.4057,39.3500,86,97,149335
1.8084,0.4252,39.2500,86,97,149338
1.7840,0.4203,39.4400,86,97,149342
1.7986,0.4106,39.2800,86,97,149345
1.8280,0.4057,39.3800,86,97,149348
1.8035,0.4057,39.3800,86,97,149352
1.8426,0.4399,39.2200,86,97,149355
1.8231,0.4106,39.3500,86,97,149358
1.8475,0.4497,39.3200,86,97,149362
1.8377,0.3861,39.3800,86,97,149365
1.8524,0.4203,39.3800,86,97,149368
1.8915,0.4154,39.2500,86,97,149371
1.8768,0.4057,39.4100,86,97,149376
1.9453,0.4154,39.3200,86,97,149379
1.8964,0.4057,39.6400,86,97,149382
1.9110,0.4106,39.4400,86,97,149386
1.9306,0.4106,39.1200,86,97,149389
1.9355,0.4106,39.3500,86,97,149392
1.9844,0.4203,39.1600,86,97,149396
1.9795,0.4106,39.3500,86,97,149399
1.9599,0.3861,39.3800,86,97,149402
1.9746,0.4154,39.3200,86,97,149406
1.9648,0.4057,39.3800,86,97,149409
2.0283,0.4252,39.0900,86,97,149412
1.9990,0.4154,39.2800,86,97,149415
1.9990,0.4057,39.3800,86,97,149420
2.0088,0.4106,39.3800,86,97,149423
1.9990,0.4008,39.3800,86,97,149426
2.0723,0.4350,39.1900,86,97,149430
2.0283,0.4252,39.2200,86,97,149433
2.0332,0.4057,39.3200,86,97,149436
2.0088,0.4106,39.4100,86,97,149440
2.0088,0.4057,39.3500,86,97,149443
2.0479,0.4203,39.3200,86,97,149446
1.9941,0.4106,39.3800,86,97,149449
1.9941,0.4106,39.2200,86,97,149453
1.9599,0.4106,39.3500,86,97,149456
1.9159,0.4057,39.4100,86,97,149459
1.9453,0.4154,39.3200,86,97,149464
1.8768,0.4106,39.4100,86,97,149467
1.8817,0.4301,39.2200,86,97,149470
1.8280,0.4106,39.2500,86,97,149474
1.8035,0.4106,39.3800,86,97,149477
1.8133,0.4203,39.2500,86,97,149480
1.7546,0.4057,39.3500,86,97,149484
1.7595,0.4154,39.1900,86,97,149487
1.7351,0.4106,39.2500,86,97,149490
1.7498,0.4203,39.3500,86,97,149494
1.7400,0.4203,39.2800,86,97,149497
1.7107,0.4106,39.4400,86,97,149500
1.7498,0.4203,39.1600,86,97,149504
1.7155,0.4106,39.3200,86,97,149508
1.7058,0.3861,39.3500,86,97,149511
1.7107,0.4106,39.3500,86,97,149514
1.7058,0.4154,39.3800,86,97,149518
1.7595,0.4252,39.0600,86,97,149521
1.7204,0.4106,39.3200,86,97,149524
1.7204,0.4057,39.3500,86,97,149528
1.7302,0.4106,39.3800,86,97,149531
1.7253,0.4057,39.3800,86,97,149534
1.7840,0.4301,39.2200,86,97,149538
1.7693,0.4154,39.3200,86,97,149541
1.7840,0.4106,39.3800,86,97,149544
1.7889,0.4106,39.3500,86,97,149548
1.7986,0.4057,39.2500,86,97,149552
1.8426,0.4203,39.2200,86,97,149555
1.8133,0.4106,39.4100,86,97,149558
1.8328,0.4154,39.2500,86,97,149562
1.8182,0.4057,39.4100,86,97,149565
1.8231,0.4057,39.3500,86,97,149568
1.8475,0.4154,39.4100,86,97,149572
1.8231,0.4057,39.3800,86,97,149575
1.8719,0.4154,39.2500,86,97,149578
1.8280,0.4057,39.2800,86,97,149582
1.8280,0.4106,39.3800,86,97,149585
1.8475,0.4106,39.3200,86,97,149588
1.8377,0.4057,39.3500,86,97,149592
1.8768,0.4203,39.1600,86,97,149596
1.8328,0.4106,39.3800,86,97,149599
1.8475,0.4057,39.3800,86,97,149602
1.8573,0.4154,39.3200,86,97,149606
1.8280,0.4057,39.3800,86,97,149609
1.8719,0.4252,39.1600,86,97,149612
1.8475,0.4057,39.2800,86,97,149616
1.8231,0.4057,39.4100,86,97,149619
1.8328,0.4057,39.3500,86,97,149622
1.8182,0.4057,39.3500,86,97,149626
1.8768,0.4301,39.1900,86,97,149629
1.8328,0.4203,39.2800,86,97,149633
1.8182,0.4106,39.2800,86,97,149637
1.8084,0.4057,39.3500,86,97,149640
1.8133,0.4057,39.3800,86,97,149643
1.8426,0.4203,39.2500,86,97,149646
1.8133,0.4106,39.3800,86,97,149650
1.8280,0.4154,39.2200,86,97,149653
1.8133,0.4057,39.3500,86,97,149656
1.7937,0.4057,39.3500,86,97,149660
1.8133,0.4106,39.3500,86,97,149663
1.8035,0.4106,39.3800,86,97,149666
1.8377,0.4252,39.2500,86,97,149670
1.8035,0.4057,39.3800,86,97,149673
1.8084,0.4057,39.3500,86,97,149677
1.8377,0.4203,39.2500,86,97,149681
1.7986,0.4106,39.3800,86,97,149684
1.8377,0.4057,39.1900,86,97,149687
1.8182,0.4106,39.2800,86,97,149690
1.8133,0.4057,39.4800,86,97,149694
1.8426,0.4203,39.2800,86,97,149697
1.8182,0.4057,39.3500,86,97,149700
1.8768,0.4154,39.1200,86,97,149704
1.8426,0.4106,39.2800,86,97,149707
1.8475,0.4057,39.4400,86,97,149710
1.8622,0.4106,39.3800,86,97,149714
1.8671,0.4154,39.3500,86,97,149718
1.9501,0.4252,39.1200,86,97,149721
1.8768,0.4154,39.2800,86,97,149725
1.9062,0.4106,39.3200,86,97,149728
1.8671,0.4106,39.5100,86,97,149731
1.8524,0.4057,39.3500,86,97,149735
1.9062,0.4252,39.3800,86,97,149738
1.8964,0.4154,39.4100,86,97,149741
1.9404,0.4106,39.2800,86,97,149744
1.9404,0.4106,39.3800,86,97,149748
1.9550,0.4106,39.3800,86,97,149751
2.0039,0.4203,39.5400,86,97,149754
1.9746,0.4399,39.3500,86,97,149758
1.9990,0.4203,39.2500,86,97,149762
1.9648,0.4057,39.3500,86,97,149765
1.9599,0.4154,39.3500,86,97,149769
1.9648,0.4154,39.2500,86,97,149772
1.9013,0.4057,39.3500,86,97,149775
1.9257,0.4106,39.2200,86,97,149778
1.8231,0.4057,39.4400,86,97,149782
1.7889,0.4106,39.3500,86,97,149785
1.7742,0.4106,39.2800,86,97,149788
1.7449,0.4057,39.3800,86,97,149792
1.7693,0.4203,39.2500,86,97,149795
1.7204,0.4057,39.3800,86,97,149798
1.7107,0.4106,39.3500,86,97,149803
1.7155,0.4154,39.3200,86,97,149806
1.6813,0.4057,39.3500,86,97,149809
1.7204,0.4252,39.0600,86,97,149813
1.6813,0.4106,39.2800,86,97,149816
1.6667,0.4008,39.3500,86,97,149819
1.6667,0.4106,39.3200,86,97,149822
1.6618,0.4057,39.3800,86,97,149826
1.6960,0.4301,39.2200,86,97,149829
1.6569,0.4203,39.2800,86,97,149832
1.6422,0.4057,39.2800,86,97,149836
1.6373,0.4252,39.3800,86,97,149839
1.6422,0.4106,39.3500,86,97,149842
1.6716,0.4203,39.4400,86,97,149847
1.6716,0.4106,39.3500,86,97,149850
1.6667,0.4154,39.3500,86,97,149853
1.6471,0.4106,39.3800,86,97,149857
1.6422,0.4057,39.3800,86,97,149860
1.6667,0.4057,39.3200,86,97,149863
1.6569,0.4106,39.2800,86,97,149867
1.6960,0.4301,39.3200,86,97,149870
1.6716,0.4057,39.3500,86,97,149873
1.6764,0.4106,39.4400,86,97,149876
1.6862,0.4154,39.2800,86,97,149880
1.6227,0.4154,39.3800,86,97,149883
1.5738,0.4057,39.2500,86,97,149886
1.4809,0.4106,39.2800,86,97,149891
1.4174,0.4154,39.3800,86,97,149894
1.4223,0.4203,39.2800,86,97,149897
1.4761,0.4154,39.5100,86,97,149901
1.7400,0.4203,39.2200,86,97,149904
2.0577,0.4106,39.2500,86,97,149907
2.4878,0.4154,39.3800,86,97,149911
3.0108,0.3861,39.3500,86,97,149914
3.4800,0.4057,39.3500,86,97,149917
3.8563,0.4448,39.1200,86,97,149920
3.7097,0.4106,39.3500,86,97,149924
3.3920,0.4057,39.3800,86,97,149927
2.9765,0.4057,39.4400,86,97,149931
1.2805,0.4057,39.3800,86,97,149935
1.2610,0.4057,39.4400,86,97,149938
1.3001,0.4252,39.2500,86,97,149942
1.3050,0.4106,39.3500,86,97,149945
1.3636,0.4154,39.2500,86,97,149948
1.3734,0.4057,39.3200,86,97,149952
1.4125,0.4057,39.3800,86,97,149955
1.4565,0.4154,39.2500,86,97,149958
1.4614,0.4154,39.3500,86,97,149962
1.5152,0.4057,39.1900,86,97,149965
1.5054,0.4106,39.3800,86,97,149968
1.5152,0.4106,39.3800,86,97,149971
1.5396,0.4154,39.3200,86,97,149976
1.5494,0.4399,39.3800,86,97,149979
1.6129,0.4301,39.1200,86,97,149982
1.5787,0.4203,39.3500,86,97,149986
1.6325,0.4057,39.3800,86,97,149989
1.6129,0.4106,39.2500,86,97,149992
1.6080,0.4057,39.3800,86,97,149996
1.6667,0.4350,39.1200,86,97,149999
1.6764,0.4203,39.4100,86,97,150002
1.6520,0.4057,39.3200,86,97,150006
1.6569,0.4203,39.4100,86,97,150009
1.6618,0.4057,39.3800,86,97,150012
1.7058,0.4203,39.1600,86,97,150016
1.6862,0.4057,39.3200,86,97,150020
1.6911,0.4106,39.2500,86,97,150023
1.6764,0.4106,39.3800,86,97,150026
1.6813,0.3861,39.3800,86,97,150030
1.7204,0.4154,39.2500,86,97,150033
1.6960,0.4057,39.3800,86,97,150036
1.7302,0.4203,39.2800,86,97,150040
1.7107,0.4106,39.3800,86,97,150043
1.7155,0.4057,39.3800,86,97,150046
1.7351,0.4203,39.4100,86,97,150050
1.7400,0.4106,39.3800,86,97,150053
1.7693,0.4154,39.2800,86,97,150056
1.7498,0.4057,39.3800,86,97,150061
1.7595,0.4057,39.3500,86,97,150064
1.7840,0.4154,39.3200,86,97,150067
1.7742,0.4057,39.3500,86,97,150070
1.8182,0.4203,39.1600,86,97,150074
1.8084,0.4154,39.2800,86,97,150077
1.8084,0.4057,39.2200,86,97,150080
1.8328,0.4203,39.3200,86,97,150084
1.8182,0.4057,39.3800,86,97,150087
1.8817,0.4252,39.0600,86,97,150090
1.8475,0.4154,39.2200,86,97,150094
1.8377,0.4057,39.3800,86,97,150097
1.8622,0.4057,39.3800,86,97,150100
1.8622,0.4057,39.3800,86,97,150105
1.9208,0.4301,39.2200,86,97,150108
1.8817,0.4106,39.3500,86,97,150111
1.8964,0.4106,39.0300,86,97,150114
1.8915,0.4106,39.4400,86,97,150118
1.8866,0.4057,39.3800,86,97,150121
1.9355,0.4057,39.2800,86,97,150124
1.9110,0.4106,39.3500,86,97,150128
1.9453,0.4154,39.2200,86,97,150131
1.9257,0.4057,39.4100,86,97,150134
1.9306,0.4154,39.3800,86,97,150138
1.9648,0.4203,39.2200,86,97,150141
1.9306,0.4203,39.3500,86,97,150145
1.9599,0.4106,39.2500,86,97,150149
1.9208,0.4057,39.3500,86,97,150152
1.9159,0.4106,39.3800,86,97,150155
1.9257,0.4203,39.2500,86,97,150158
1.8768,0.4057,39.3800,86,97,150162
1.8915,0.4154,39.1600,86,97,150165
1.8377,0.4154,39.2800,86,97,150168
1.8084,0.4106,39.3800,86,97,150172
1.7937,0.4154,39.4400,86,97,150175
1.7595,0.4252,39.3500,86,97,150178
1.7889,0.4252,39.1200,86,97,150182
1.7498,0.4154,39.4400,86,97,150185
1.7155,0.4057,39.3800,86,97,150189
1.7009,0.4154,39.3500,86,97,150193
1.6764,0.3861,39.3500,86,97,150196
1.7107,0.4448,39.1200,86,97,150199
1.6667,0.4154,39.2800,86,97,150202
1.6569,0.3861,39.2800,86,97,150206
1.6520,0.4057,39.3500,86,97,150209
1.6422,0.4057,39.3800,86,97,150212
1.6764,0.4203,39.1900,86,97,150216
1.6520,0.4154,39.3500,86,97,150219
1.6569,0.4154,39.4100,86,97,150222
1.6667,0.4106,39.4800,86,97,150226
1.6520,0.4057,39.3800,86,97,150230
1.6862,0.4399,39.2500,86,97,150233
1.6716,0.4106,39.3500,86,97,150237
1.7107,0.4203,39.2500,86,97,150240
1.6667,0.4057,39.3500,86,97,150243
1.6813,0.4350,39.3500,86,97,150247
1.7009,0.4154,39.3200,86,97,150250
1.7009,0.4057,39.3800,86,97,150253
1.7351,0.4203,39.2200,86,97,150256
1.7204,0.4106,39.3800,86,97,150260
1.7302,0.4057,39.3800,86,97,150263
1.7595,0.4203,39.2800,86,97,150266
1.7302,0.4350,39.3500,86,97,150270
1.7791,0.4203,39.1200,86,97,150274
1.7546,0.4154,39.4400,86,97,150277
1.7449,0.4008,39.3800,86,97,150281
1.7595,0.4154,39.3200,86,97,150284
1.7400,0.4154,39.3800,86,97,150287
1.8035,0.4301,39.0900,86,97,150291
1.7546,0.4252,39.2800,86,97,150294
1.7498,0.4057,39.3500,86,97,150297
1.7498,0.4106,39.3200,86,97,150300
1.7498,0.4057,39.3800,86,97,150304
1.8035,0.4252,39.2500,86,97,150307
1.7742,0.4203,39.3200,86,97,150310
1.7889,0.4106,39.2500,86,97,150315
1.7889,0.4106,39.4100,86,97,150318
1.7986,0.4057,39.3800,86,97,150321
1.8280,0.4448,39.3200,86,97,150325
1.8182,0.4106,39.4400,86,97,150328
1.8426,0.4203,39.1600,86,97,150331
1.8035,0.4106,39.3800,86,97,150335
1.8133,0.4057,39.2800,86,97,150338
1.8426,0.4203,39.2500,86,97,150341
1.8084,0.4106,39.3500,86,97,150345
1.8328,0.4154,39.3200,86,97,150348
1.8133,0.4106,39.2800,86,97,150351
1.8084,0.4057,39.5700,86,97,150354
1.8377,0.4203,39.2500,86,97,150359
1.8133,0.4448,39.3800,86,97,150362
1.8671,0.4203,39.1600,86,97,150365
1.8280,0.4350,39.3200,86,97,150369
1.8475,0.4106,39.3500,86,97,150372
1.8328,0.4154,39.2800,86,97,150375
1.8133,0.4106,39.3800,86,97,150379
1.8671,0.4252,39.1900,86,97,150382
1.8231,0.4154,39.2500,86,97,150385
1.8133,0.4057,39.4100,86,97,150389
1.8182,0.4106,39.3500,86,97,150392
1.8133,0.4106,39.3800,86,97,150395
1.8719,0.4252,39.2500,86,97,150400
1.8426,0.4106,39.3500,86,97,150403
1.8622,0.4106,39.3200,86,97,150406
1.8524,0.4399,39.3500,86,97,150409
1.8524,0.4057,39.3500,86,97,150413
1.8915,0.4203,39.1600,86,97,150416
1.8573,0.4106,39.3500,86,97,150419
1.8817,0.4203,39.1600,86,97,150423
1.8573,0.4106,39.3500,86,97,150426
1.8768,0.4057,39.3800,86,97,150429
1.9208,0.4154,39.2800,86,97,150433
1.9062,0.4154,39.3500,86,97,150436
1.9550,0.4106,39.3200,86,97,150439
1.9306,0.4057,39.2800,86,97,150444
1.9404,0.4106,39.3800,86,97,150447
1.9697,0.4154,39.2500,86,97,150450
1.9453,0.4106,39.3800,86,97,150453
1.9697,0.4203,39.1600,86,97,150457
1.9110,0.4106,39.3500,86,97,150460
1.8915,0.4057,39.4800,86,97,150463
1.8768,0.4203,39.3200,86,97,150467
1.8231,0.4106,39.5400,86,97,150470
1.8426,0.4203,39.0900,86,97,150473
1.7791,0.4154,39.3200,86,97,150477
1.7449,0.4252,39.3200,86,97,150480
1.7351,0.4154,39.3500,86,97,150483
1.7107,0.4301,39.3500,86,97,150488
1.7449,0.4252,39.1900,86,97,150491
1.7107,0.4154,39.2800,86,97,150494
1.7009,0.4154,39.2800,86,97,150498
1.6862,0.4106,38.8100,86,97,150501
1.6764,0.4008,39.3800,86,97,150504
1.7107,0.4203,39.2200,86,97,150507
1.6862,0.4106,39.2200,86,97,150511
1.6960,0.4106,39.2500,86,97,150514
1.6716,0.4106,39.3800,86,97,150517
1.6716,0.4106,39.3800,86,97,150521
1.6764,0.4106,39.3200,86,97,150524
1.6764,0.4106,39.3800,86,97,150528
1.7107,0.4154,39.2500,86,97,150532
1.6813,0.4106,39.4400,86,97,150535
1.6813,0.4106,39.3800,86,97,150538
1.7058,0.4203,39.2800,86,98,150542
1.7204,0.4203,39.3200,86,98,150545
1.7058,0.3861,39.3800,86,98,150549
1.7498,0.4252,39.1600,86,98,150552
1.7009,0.4154,39.3200,86,98,150555
1.6471,0.4057,39.3500,86,98,150559
1.6227,0.4106,39.3800,86,98,150562
1.5054,0.4057,39.3800,86,98,150565
1.4761,0.4643,39.2200,86,98,150568
1.4125,0.4154,39.1900,86,98,150573
1.4614,0.4203,39.2500,86,98,150576
1.6373,0.4106,39.3800,86,98,150579
1.9648,0.4106,39.3800,86,98,150583
2.4047,0.4203,39.3500,86,98,150586
2.8739,0.4106,39.3800,86,98,150589
3.4262,0.4106,39.2200,86,98,150593
3.7341,0.4106,39.3500,86,98,150596
3.8074,0.4154,39.3800,86,98,150599
3.5826,0.4203,39.2800,86,98,150603
3.1378,0.4154,39.4800,86,98,150606
2.7126,0.3861,39.2200,86,98,150609
2.2239,0.4106,39.2800,86,98,150612
1.8035,0.4154,39.3500,86,98,150617
1.5200,0.4154,38.7100,86,98,150620
1.3392,0.4350,39.3800,86,98,150623
1.3392,0.4203,39.1600,86,98,150627
1.3001,0.4252,39.3800,86,98,150630
1.3490,0.4106,39.3800,86,98,150633
1.4076,0.4203,39.3200,86,98,150637
1.4418,0.4106,39.3500,86,98,150640
1.5298,0.4301,39.1200,86,98,150643
1.5249,0.4106,39.2800,86,98,150647
1.5543,0.4106,39.3500,86,98,150650
1.5787,0.4106,39.4100,86,98,150653
1.6129,0.4057,39.3500,86,98,150657
1.6569,0.4350,39.1900,86,98,150661
1.6227,0.4154,39.3500,86,98,150664
1.6373,0.3861,39.2800,86,98,150667
1.6373,0.4154,39.3500,86,98,150671
1.6471,0.4057,39.3800,86,98,150674
1.6911,0.4203,39.2500,86,98,150677
1.6764,0.4154,39.3500,86,98,150681
1.6960,0.4154,39.2500,86,98,150684
1.6862,0.4057,39.3500,86,98,150687
1.6960,0.4057,39.3500,86,98,150691
1.7302,0.4301,39.3200,86,98,150694
1.7155,0.4106,39.3500,86,98,150697
1.7498,0.4154,39.2500,86,98,150702
1.7449,0.4057,39.3500,86,98,150705
1.7351,0.4057,38.8400,86,98,150708
1.7889,0.4154,39.2500,86,98,150711
1.7546,0.4057,39.4100,86,98,150715
1.7937,0.4154,39.1900,86,98,150718
1.7644,0.4106,39.5100,86,98,150721
1.7693,0.4106,39.4100,86,98,150725
1.7889,0.4154,39.3200,86,98,150728
1.7693,0.4057,39.4400,86,98,150731
1.8280,0.4252,39.1200,86,98,150735
1.8035,0.4497,39.2800,86,98,150738
1.8182,0.4106,39.4400,86,98,150742
1.8182,0.4203,39.3800,86,98,150746
1.8084,0.4154,39.3500,86,98,150749
1.8768,0.4350,39.1200,86,98,150752
1.8475,0.4203,39.2500,86,98,150755
1.8377,0.4106,39.3200,86,98,150759
1.8475,0.4106,39.2200,86,98,150762
1.8475,0.4106,39.4400,86,98,150765
1.9013,0.4252,39.2200,86,98,150769
1.8719,0.4154,39.3200,86,98,150772
1.8817,0.3861,39.2800,86,98,150775
1.8671,0.4106,39.4100,86,98,150779
1.8719,0.4057,39.4100,86,98,150782
1.9013,0.4301,39.3800,86,98,150786
1.8964,0.4154,39.4400,86,98,150790
1.9208,0.4203,39.2500,86,98,150793
1.8964,0.4106,39.4400,86,98,150796
1.8964,0.4057,39.3800,86,98,150799
1.9257,0.4203,39.2800,86,98,150803
1.9013,0.4106,39.4400,86,98,150806
1.9306,0.4154,39.2500,86,98,150809
1.9159,0.4106,39.2800,86,98,150813
1.9159,0.3861,39.3800,86,98,150816
1.9844,0.4203,39.2500,86,98,150819
1.9306,0.4106,39.3800,86,98,150823
1.9746,0.4203,39.1600,86,98,150827
1.9453,0.4106,39.2800,86,98,150830
1.9306,0.4057,39.3500,86,98,150834
1.9501,0.4057,39.3200,86,98,150837
1.9159,0.4057,39.3800,86,98,150840
1.9599,0.4350,39.0600,86,98,150843
1.9013,0.4106,39.2500,86,98,150847
1.8719,0.4057,39.4100,86,98,150850
1.8524,0.4106,39.3500,86,98,150853
1.8231,0.4057,39.3800,86,98,150857
1.8719,0.4301,39.2200,86,98,150860
1.7937,0.4154,38.7400,86,98,150863
1.7791,0.4203,39.2800,86,98,150867
1.7498,0.4106,39.3500,86,98,150871
1.7253,0.4106,39.3800,86,98,150874
1.7400,0.4203,39.2200,86,98,150878
1.6911,0.4106,39.3500,86,98,150881
1.7107,0.4057,39.2200,86,98,150884
1.6618,0.4106,39.4100,86,98,150888
1.6520,0.4154,39.3800,86,98,150891
1.6764,0.4252,39.2200,86,98,150894
1.6471,0.4106,39.4100,86,98,150897
1.6716,0.4106,39.2500,86,98,150901
1.6422,0.4057,39.0000,86,98,150904
1.6422,0.4106,39.3800,86,98,150907
1.6569,0.4154,39.2800,86,98,150912
1.6520,0.4106,39.3800,86,98,150915
1.6862,0.4154,39.1600,86,98,150918
1.6618,0.4399,39.3800,86,98,150922
1.6764,0.4106,39.3500,86,98,150925
1.7058,0.4203,39.2800,86,98,150928
1.6911,0.4106,39.4400,86,98,150932
1.7449,0.4252,39.0900,86,98,150935
1.7253,0.4203,39.2500,86,98,150938
1.7204,0.4057,39.3500,86,98,150941
1.7302,0.4154,39.3200,86,98,150945
1.7204,0.4106,39.3800,86,98,150948
1.7742,0.4350,39.1200,86,98,150951
1.7449,0.4203,39.2500,86,98,150956
1.7351,0.4106,39.3200,86,98,150959
1.7400,0.4106,39.3800,86,98,150962
1.7498,0.4057,39.3500,86,98,150966
1.7889,0.4252,39.2800,86,98,150969
1.7644,0.4057,39.4400,86,98,150972
1.7742,0.4154,39.3500,86,98,150976
1.7498,0.4106,39.3500,86,98,150979
1.7498,0.4057,39.3800,86,98,150982
1.7742,0.4154,39.4400,86,98,150985
1.7546,0.4106,39.3500,86,98,150989
1.7840,0.4399,39.2500,86,98,150992
1.7546,0.4106,39.3500,86,98,150995
1.7546,0.4057,39.3500,86,98,151000
1.7791,0.4203,39.2500,86,98,151003
1.7498,0.4057,39.3800,86,98,151006
1.7791,0.4154,39.1900,86,98,151010
1.7546,0.4106,39.2800,86,98,151013
1.7400,0.4106,39.3800,86,98,151016
1.7644,0.4203,39.3500,86,98,151020
1.7449,0.4106,39.3500,86,98,151023
1.7791,0.4203,39.0900,86,98,151026
1.7351,0.4057,39.2800,86,98,151030
1.7400,0.4057,39.3800,86,98,151033
1.7400,0.4154,39.3200,86,98,151036
1.7155,0.4057,39.3800,86,98,151040
1.7595,0.4301,39.0900,86,98,151044
1.7204,0.4106,39.2800,86,98,151047
1.7155,0.4106,39.3200,86,98,151050
1.7204,0.4106,39.3200,86,98,151054
1.7351,0.4057,39.3800,86,98,151057
1.7546,0.4252,38.6800,86,98,151060
1.7204,0.4399,39.3800,86,98,151064
1.7253,0.4106,39.2500,86,98,151067
1.7009,0.4154,39.3800,86,98,151070
1.6960,0.4154,39.3800,86,98,151074
1.7253,0.4203,39.2200,86,98,151077
1.6911,0.4057,39.3500,86,98,151080
1.7058,0.4154,39.0900,86,98,151084
1.6764,0.4106,39.3200,86,98,151088
1.7107,0.4057,39.3800,86,98,151091
1.6960,0.4106,39.2500,86,98,151094
1.6862,0.4203,39.3500,86,98,151098
1.7204,0.4106,39.2200,86,98,151101
1.7009,0.4008,39.3500,86,98,151104
1.7107,0.4106,39.3800,86,98,151108
1.7400,0.4154,39.2500,86,98,151111
1.7302,0.4106,39.2500,86,98,151114
1.7644,0.4203,39.1600,86,98,151117
1.7351,0.4106,39.3200,86,98,151121
1.7449,0.4008,39.3500,86,98,151124
1.7791,0.4154,39.3200,86,98,151128
1.7742,0.4106,39.3800,86,98,151132
1.8475,0.4252,39.1600,86,98,151135
1.8426,0.4301,39.2800,86,98,151138
1.8573,0.4057,39.3800,86,98,151142
1.8817,0.4154,39.4400,86,98,151145
1.8964,0.4106,39.3800,86,98,151148
1.9453,0.4350,39.1900,87,98,151152
1.8035,0.4203,39.3500,87,98,151155
1.7449,0.4057,39.3500,87,98,151159
1.7302,0.4154,39.3200,87,98,151162
1.6667,0.4203,39.3500,87,98,151165
1.6422,0.4057,39.4400,87,98,151170
1.6373,0.4399,39.2800,87,98,151173
1.6129,0.4057,39.3800,87,98,151176
1.6276,0.4106,39.2200,87,98,151179
1.6031,0.4057,39.3800,87,98,151183
1.5982,0.4057,39.3500,87,98,151186
1.6373,0.4106,39.2800,87,98,151189
1.5982,0.4106,39.4800,87,98,151193
1.6422,0.4301,39.1900,87,98,151196
1.6178,0.4154,39.2800,87,98,151199
1.6080,0.4057,39.3500,87,98,151203
1.6227,0.4154,39.3200,87,98,151206
1.6031,0.4057,39.3800,87,98,151209
1.6471,0.4301,39.1200,87,98,151214
1.6031,0.4106,39.2800,87,98,151217
1.6031,0.4106,39.3500,87,98,151220
1.6129,0.4203,39.3500,87,98,151224
1.6031,0.4057,39.4400,87,98,151227
1.6520,0.4252,39.1900,87,98,151230
1.6276,0.4154,39.3200,87,98,151233
1.6178,0.4057,39.2800,87,98,151237
1.6080,0.4106,39.5100,87,98,151240
1.6325,0.4106,39.3800,87,98,151243
1.6373,0.4203,39.2800,87,98,151247
1.6178,0.4106,39.3200,87,98,151250
1.6373,0.4154,39.2800,87,98,151254
1.6031,0.4106,39.3800,87,98,151258
1.5494,0.4057,39.3800,87,98,151261
1.5005,0.4301,39.2500,87,98,151264
1.4027,0.4106,39.3500,87,98,151268
1.3587,0.4106,39.2200,87,98,151271
1.3196,0.4057,39.2800,87,98,151274
1.3978,0.4057,39.3200,87,98,151277
1.6373,0.4106,39.2500,87,98,151281
1.9746,0.4106,39.3800,87,98,151284
2.4682,0.4154,38.5500,87,98,151287
2.9374,0.4106,39.3500,87,98,151291
3.4018,0.4057,39.3500,87,98,151294
3.7048,0.4203,39.3200,87,98,151298
3.5924,0.4057,39.3800,87,98,151302
3.3431,0.4252,39.1600,87,98,151305
2.8299,0.4106,39.3200,87,98,151308
2.3509,0.4057,39.4100,87,98,151312
1.9159,0.4106,39.3500,87,98,151315
1.5494,0.4057,39.3500,87,98,151318
1.3636,0.4350,39.0900,87,98,151321
1.2268,0.4154,39.3200,87,98,151325
1.1877,0.4057,39.3200,87,98,151328
1.2170,0.4106,39.4400,87,98,151331
1.2463,0.4057,39.3800,87,98,151335
1.3196,0.4252,39.1900,87,98,151339
1.3343,0.4154,39.4100,87,98,151342
1.3685,0.4154,39.2500,87,98,151346
1.3734,0.4106,39.3800,87,98,151349
1.3930,0.4057,39.3800,87,98,151352
1.4272,0.4203,39.3200,87,98,151356
1.4223,0.4154,39.4100,87,98,151359
1.4614,0.4203,39.2800,87,98,151362
1.4370,0.4057,39.3800,87,98,151365
1.4418,0.4448,39.4100,87,98,151369
1.4663,0.4154,39.2200,87,98,151372
1.4565,0.4448,39.3800,87,98,151375
1.4907,0.4154,39.1900,87,98,151379
1.4663,0.4106,39.3500,87,98,151383
1.4809,0.4057,39.3800,87,98,151386
1.5005,0.4203,39.2800,87,98,151390
1.4956,0.4106,39.4400,87,98,151393
1.5396,0.4203,38.5200,87,98,151396
1.5298,0.4203,39.2800,87,98,151400
1.5249,0.4057,39.3800,87,98,151403
1.5445,0.4154,39.3500,87,98,151406
1.5347,0.4106,39.3800,87,98,151410
1.5836,0.4252,39.0900,87,98,151413
1.5494,0.4154,39.2500,87,98,151416
1.5494,0.4057,38.7700,87,98,151419
1.5591,0.4106,39.3500,87,98,151424
1.5591,0.4106,39.3800,87,98,151427
1.6129,0.4301,39.2500,87,98,151430
1.5836,0.4203,39.2800,87,98,151434
1.5885,0.4106,39.3200,87,98,151437
1.5836,0.4497,39.3800,87,98,151440
1.5934,0.4106,39.3800,87,98,151444
1.6276,0.4252,39.2800,87,98,151447
1.6129,0.4106,39.3200,87,98,151450
1.6422,0.4154,39.2500,87,98,151454
1.6276,0.4106,39.3800,87,98,151457
1.6373,0.4301,39.3800,87,98,151460
1.7058,0.4057,39.2200,87,98,151463
1.6471,0.4106,39.3200,87,98,151468
1.6764,0.4154,39.0600,87,98,151471
1.6618,0.3861,39.3200,87,98,151474
1.6667,0.4106,39.3500,87,98,151478
1.6960,0.4154,39.2200,87,98,151481
1.6862,0.4106,39.4100,87,98,151484
1.7253,0.4154,39.1900,87,98,151488
1.6960,0.4106,39.2800,87,98,151491
1.6960,0.4154,39.4100,87,98,151494
1.7253,0.4203,39.3200,87,98,151498
1.7009,0.4106,39.3500,87,98,151501
1.7498,0.4301,39.1200,87,98,151504
1.7155,0.4106,39.2500,87,98,151508
1.7204,0.4008,39.3800,87,98,151512
1.7302,0.4154,39.3500,87,98,151515
1.7253,0.4154,39.3800,87,98,151518
1.7840,0.4350,39.1900,87,98,151522
1.7449,0.4252,39.3500,87,98,151525
1.7498,0.4106,39.2800,87,98,151528
1.7449,0.4106,39.3500,87,98,151532
1.7400,0.4057,39.3800,87,98,151535
1.7742,0.4252,39.1200,87,98,151538
1.7351,0.4154,39.3500,87,98,151542
1.7302,0.4154,39.2800,87,98,151545
1.7009,0.4057,39.3500,87,98,151548
1.6569,0.4057,39.4800,87,98,151553
1.6471,0.4252,39.3200,87,98,151556
1.6031,0.4106,39.3200,87,98,151559
1.5934,0.4154,39.2800,87,98,151562
1.5347,0.4057,39.3500,87,98,151566
1.5054,0.4106,39.2800,87,98,151569
1.4907,0.4154,39.2500,87,98,151572
1.4614,0.3861,39.3500,87,98,151576
1.4663,0.4203,39.2500,87,98,151579
1.4272,0.4057,39.5100,87,98,151582
1.4174,0.4350,39.4800,87,98,151586
1.4125,0.4203,39.2800,87,98,151589
1.3832,0.4203,39.3500,87,98,151592
1.4076,0.4252,39.1600,87,98,151597
1.3734,0.4154,39.2500,87,98,151600
1.3490,0.4106,39.3500,87,98,151603
1.3539,0.4154,39.3200,87,98,151607
1.3343,0.4057,39.3800,87,98,151610
1.3832,0.4350,39.1600,87,98,151613
1.3490,0.4203,39.3200,87,98,151616
1.3392,0.4106,39.0900,87,98,151620
1.3392,0.4008,39.3500,87,98,151623
1.3392,0.4106,39.3800,87,98,151626
1.3783,0.4252,39.1600,87,98,151630
1.3832,0.4154,39.3800,87,98,151633
1.3783,0.4154,38.5800,87,98,151636
1.3685,0.4154,39.3200,87,98,151641
1.3734,0.4057,39.4100,87,98,151644
1.4076,0.4154,39.2800,87,98,151647
1.3978,0.4057,39.3500,87,98,151651
1.4223,0.4203,39.3500,87,98,151654
1.4076,0.3861,39.3800,87,98,151657
1.4125,0.4106,39.5100,87,98,151660
1.4370,0.4203,39.2500,87,98,151664
1.4125,0.4106,39.4100,87,98,151667
1.4370,0.4203,39.2200,87,98,151670
1.4174,0.4154,39.2800,87,98,151674
1.4076,0.4252,39.3800,87,98,151677
1.4223,0.4252,39.3200,87,98,151681
1.3978,0.4154,39.3500,87,98,151685
1.4272,0.4252,39.1200,87,98,151688
1.3881,0.4106,39.3200,87,98,151691
1.3783,0.4106,39.4100,87,98,151695
1.3930,0.4154,39.3500,87,98,151698
1.3734,0.4008,39.3800,87,98,151701
1.4272,0.4301,39.1200,87,98,151704
1.3881,0.4203,39.2800,87,98,151708
1.3783,0.4106,39.3200,87,98,151711
1.3783,0.4154,39.3500,87,98,151714
1.3685,0.4057,39.3500,87,98,151718
1.4027,0.4301,39.2200,87,98,151721
1.3734,0.4448,39.3200,87,98,151725
1.3734,0.4106,39.3200,87,98,151729
1.3636,0.4106,39.3500,87,98,151732
1.3636,0.4106,39.3800,87,98,151735
1.3832,0.4252,39.2200,87,98,151739
1.3441,0.4154,39.3500,87,98,151742
1.3636,0.4203,39.2500,87,98,151745
1.3441,0.4106,39.3500,87,98,151749
1.3392,0.4106,39.3200,87,98,151752
1.3490,0.4154,39.2500,87,98,151755
1.3343,0.4154,39.3800,87,98,151758
1.3441,0.4154,39.2200,87,98,151762
1.3148,0.4203,39.1600,87,98,151766
1.2708,0.4106,39.3200,87,98,151770
1.2659,0.4252,39.3800,87,98,151773
1.2561,0.4154,39.3200,87,98,151776
1.2219,0.4106,39.3800,87,98,151780
1.2512,0.4350,39.0600,87,98,151783
1.2121,0.4154,39.2800,87,98,151786
1.1926,0.4057,39.3200,87,98,151790
1.1926,0.4154,39.3500,87,98,151793
1.1877,0.4106,39.3800,87,98,151796
1.2268,0.4252,39.1900,87,98,151800
1.2072,0.4154,39.3800,87,98,151803
1.2121,0.4154,39.3200,87,98,151806
1.2219,0.4106,39.3800,87,98,151810
1.2268,0.4106,39.3800,87,98,151814
1.2561,0.4203,39.2500,87,98,151817
1.2561,0.4154,39.4100,87,98,151820
1.3050,0.4301,39.2500,87,98,151824
1.2463,0.4106,39.3800,87,98,151827
1.2414,0.4106,39.3500,87,98,151830
1.2463,0.4106,39.4400,87,98,151834
1.2268,0.4106,39.3800,87,98,151837
1.2757,0.4252,39.2500,87,98,151840
1.2757,0.4106,39.3800,87,98,151844
1.3050,0.4399,39.4400,87,98,151847
1.3441,0.4203,39.2500,87,98,151851
1.3392,0.4106,39.3200,87,98,151854
1.3881,0.4203,39.1600,87,98,151858
1.3734,0.4203,39.2800,87,98,151861
1.3636,0.4203,39.3800,87,98,151864
1.3636,0.4203,39.3200,87,98,151868
1.3294,0.4154,39.3500,87,98,151871
1.3343,0.4301,39.1200,87,98,151874
1.2659,0.4154,39.2500,87,98,151878
1.2317,0.4106,39.3500,87,98,151881
1.2023,0.4252,39.3800,87,98,151884
1.1730,0.4106,39.3800,87,98,151888
1.1877,0.4350,39.1900,87,98,151891
1.1535,0.4203,39.3200,87,98,151895
1.1339,0.4106,39.2800,87,98,151899
1.1144,0.4154,39.3800,87,98,151902
1.0997,0.3861,39.3800,87,98,151905
1.1193,0.4252,39.2800,87,98,151908
1.0948,0.4057,39.2800,87,98,151912
1.0948,0.4154,39.3200,87,98,151915
1.1095,0.4106,39.3800,87,98,151918
1.0753,0.4106,39.3800,87,98,151922
1.0948,0.4545,39.2800,87,98,151925
1.0704,0.4154,39.3800,87,98,151928
1.0850,0.4154,39.2500,87,98,151932
1.0557,0.4106,39.3200,87,98,151936
1.0508,0.4057,39.3800,87,98,151939
1.0655,0.4154,39.3200,87,98,151943
1.0557,0.4203,39.3500,87,98,151946
1.0753,0.4057,39.1900,87,98,151949
1.0557,0.4106,39.2500,87,98,151952
1.0557,0.4106,39.3800,87,98,151956
1.0655,0.4301,39.2800,87,98,151959
1.0655,0.4106,39.3800,87,98,151962
1.0899,0.4252,39.2500,87,98,151966
1.0704,0.4057,39.3200,87,98,151969
1.0802,0.4106,39.3500,87,98,151972
1.0899,0.4154,39.4800,87,98,151975
1.0655,0.4106,39.3800,87,98,151980
1.0655,0.4252,39.0900,87,98,151983
0.9775,0.4154,39.3500,87,98,151986
0.8993,0.4154,39.3500,87,98,151990
0.8309,0.4154,39.3500,87,98,151993
0.7820,0.4106,39.3500,87,98,151996
0.8504,0.4399,39.1900,87,98,152000
0.9922,0.4203,39.3200,87,98,152003
1.2757,0.4106,39.3200,87,98,152006
1.7058,0.4057,39.4400,87,98,152010
2.1994,0.3861,39.3800,87,98,152013
2.7370,0.4252,39.3200,87,98,152016
3.0401,0.4154,39.3500,87,98,152019
3.0841,0.4154,39.2500,87,98,152024
2.7859,0.4106,39.3500,87,98,152027
2.3754,0.4106,39.3800,87,98,152030
1.9208,0.4350,39.2800,87,98,152034
1.4370,0.4057,39.3500,87,98,152037
1.0802,0.4252,39.3800,87,98,152040
0.8016,0.4106,39.4400,87,98,152044
0.6549,0.4106,39.4100,87,98,152047
0.6061,0.4252,39.2500,87,98,152050
0.5865,0.4057,39.3800,87,98,152053
0.6256,0.4154,39.2200,87,98,152057
0.6452,0.4154,39.2800,87,98,152060
0.6794,0.4106,39.3800,87,98,152064
0.7185,0.4252,39.3200,87,98,152068
0.7331,0.4154,39.3800,87,98,152071
0.7722,0.4252,39.1600,87,98,152074
0.7674,0.4106,39.2800,87,98,152078
0.7820,0.4106,39.3800,87,98,152081
0.8065,0.4057,39.3200,87,98,152084
0.8016,0.4106,39.3800,87,98,152087
0.8358,0.4301,39.1200,87,98,152091
0.8211,0.4203,39.2500,87,98,152094
0.8358,0.4057,39.3500,87,98,152097
0.8358,0.4154,39.3500,87,98,152101
0.8358,0.4203,39.4400,87,98,152104
0.8651,0.4350,39.1600,87,98,152108
0.8504,0.4203,39.4800,87,98,152112
0.8504,0.4399,39.3200,87,98,152115
0.8553,0.4154,39.3500,87,98,152118
0.8602,0.4106,39.4400,87,98,152121
0.8749,0.4252,39.1900,87,98,152125
0.8602,0.4203,39.3500,87,98,152128
0.8651,0.4203,39.3200,87,98,152131
0.8553,0.4154,39.3800,87,98,152135
0.8602,0.4057,39.3800,87,98,152138
0.8749,0.4252,39.2800,87,98,152141
0.8651,0.4057,39.3500,87,98,152145
0.8798,0.4203,39.2500,87,98,152148
0.8700,0.4154,39.3800,87,98,152152
0.8749,0.4106,39.3500,87,98,152155
0.8895,0.4106,39.3800,87,98,152159
0.8895,0.4154,39.3500,87,98,152162
0.8944,0.4154,39.2800,87,98,152165
0.8993,0.4106,39.3500,87,98,152169
0.9140,0.3861,39.3800,87,98,152172
0.9335,0.4203,39.3500,87,98,152175
0.9335,0.4154,39.3500,87,98,152179
0.9531,0.4203,39.1600,87,98,152182
0.9482,0.4203,39.2500,87,98,152185
0.9824,0.4106,39.3500,87,98,152188
0.9873,0.4252,38.9300,87,98,152193
0.9824,0.4154,39.3500,87,98,152196
1.0166,0.4252,39.1200,87,98,152199
1.0020,0.4057,39.3500,87,98,152203
1.0166,0.4106,39.3500,87,98,152206
1.0411,0.4203,39.3200,87,98,152209
1.0411,0.4154,39.3800,87,98,152213
1.0850,0.4790,39.1200,87,98,152216
1.0753,0.4154,39.2800,87,98,152219
1.0753,0.4106,39.3500,87,98,152223
1.0899,0.4203,39.3500,87,98,152226
1.0997,0.4154,39.4400,87,98,152229
1.1388,0.4350,39.2200,87,98,152232
1.1144,0.4154,39.3200,87,98,152237
1.1339,0.4154,39.2800,87,98,152240
1.1388,0.4154,39.3500,87,98,152243
1.1437,0.4106,39.4100,87,98,152247
1.1730,0.4301,39.2200,87,98,152250
1.1584,0.4154,39.4800,87,98,152253
1.1779,0.4203,39.2200,87,98,152257
1.1486,0.4154,39.3800,87,98,152260
1.1681,0.4106,39.3500,87,98,152263
1.1779,0.4057,39.3200,87,98,152267
1.1584,0.4154,39.2500,87,98,152270
1.1632,0.4154,39.2200,87,98,152273
1.1290,0.4154,39.3500,87,98,152276
1.1144,0.4154,39.3800,87,98,152281
1.1144,0.4203,39.3200,87,98,152284
1.0802,0.4154,39.3500,87,98,152287
1.0850,0.4301,39.1600,87,98,152291
1.0508,0.4106,39.3500,87,98,152294
1.0362,0.4106,39.3500,87,98,152297
1.0362,0.4301,39.2800,87,98,152301
1.0068,0.4154,39.3800,87,98,152304
1.0264,0.4301,39.1200,87,98,152307
1.0068,0.4154,39.2800,87,98,152310
0.9971,0.4106,39.3800,87,98,152314
1.0020,0.4203,39.3200,87,98,152317
1.0068,0.4154,39.3800,87,98,152321
1.0313,0.4350,39.1200,87,98,152325
1.0117,0.4301,39.2800,87,98,152328
1.0411,0.4154,39.3200,87,98,152331
1.0117,0.4154,39.3500,87,98,152335
1.0215,0.4154,39.3500,87,98,152338
1.0655,0.4252,39.3500,87,98,152341
1.0606,0.4203,39.1900,87,98,152345
1.0802,0.4252,39.2800,87,98,152348
1.0802,0.4154,39.3500,87,98,152351
1.0948,0.4154,39.3500,87,98,152354
1.1681,0.4252,39.3200,87,98,152358
1.1339,0.4154,39.3200,87,98,152361
1.1632,0.4252,39.2500,87,98,152365
1.1632,0.4154,39.4100,87,98,152369
1.1828,0.4057,39.3800,87,98,152372
1.2170,0.4252,39.2200,87,98,152375
1.2708,0.4252,39.2800,87,98,152380
1.2659,0.4106,39.3500,87,98,152383
1.2805,0.4301,39.1200,87,98,152387
1.2512,0.4057,39.2800,87,98,152390
1.2268,0.4106,39.4800,87,98,152393
1.2463,0.4203,39.4100,87,98,152397
1.2366,0.4203,39.4400,87,98,152400
1.2757,0.4399,39.1200,87,98,152403
1.2512,0.4252,39.2500,87,98,152407
1.2561,0.4106,39.3200,87,98,152411
1.2561,0.4203,39.3800,87,98,152414
1.2561,0.4154,39.4100,87,98,152417
1.2903,0.4203,39.3200,87,98,152421
1.2659,0.4203,39.3500,87,98,152424
1.2805,0.4203,39.2200,87,98,152427
1.2757,0.4154,39.3800,87,98,152431
1.2757,0.4106,39.3800,87,98,152434
1.2903,0.4154,39.2200,87,98,152437
1.2757,0.4154,39.3500,87,98,152441
1.3001,0.4203,39.2500,87,98,152444
1.2805,0.4106,39.3200,87,98,152448
1.2805,0.4154,39.5100,87,98,152452
1.2903,0.4203,39.2500,87,98,152455
1.2903,0.4154,39.4100,87,98,152458
1.3099,0.4203,39.1900,87,98,152461
1.2952,0.4154,39.3500,87,98,152465
1.2952,0.4106,39.3800,87,98,152468
1.3099,0.4252,39.3200,87,98,152471
1.2854,0.4154,39.3500,87,98,152475
1.3343,0.4301,39.1900,87,98,152478
1.3050,0.4154,39.3200,87,98,152481
1.3148,0.4106,39.3800,87,98,152485
1.3294,0.4203,39.3500,87,98,152488
1.3148,0.4154,39.3500,87,98,152492
1.3539,0.4350,39.0900,87,98,152496
1.3294,0.4203,39.1900,87,98,152499
1.3196,0.4106,39.3500,87,98,152502
1.3294,0.4154,39.3500,87,98,152505
1.3294,0.4106,39.3500,87,98,152509
1.3685,0.4252,39.2200,87,98,152512
1.3343,0.4252,39.2800,87,98,152515
1.3392,0.4154,39.3500,87,98,152519
1.3343,0.4203,39.3500,87,98,152522
1.3343,0.3861,39.3800,87,98,152525
1.3587,0.4252,39.3200,87,98,152529
1.3441,0.4154,39.3500,87,98,152532
1.3636,0.4203,39.2500,87,98,152536
1.3490,0.4154,39.3500,87,98,152540
1.3587,0.4154,39.5100,87,98,152543
1.3783,0.4106,39.2800,87,98,152546
1.3636,0.4154,39.3500,87,98,152550
1.4027,0.4497,39.2500,87,98,152553
1.3881,0.4154,39.3800,87,98,152556
1.3930,0.4399,39.3800,87,98,152559
1.4076,0.4252,39.2800,87,98,152563
1.3881,0.4057,39.3800,87,98,152566
1.4174,0.4252,39.1600,87,98,152569
1.4027,0.4154,39.2500,87,98,152573
1.4174,0.4203,39.3800,87,98,152577
1.4565,0.4203,39.5100,87,98,152580
1.4663,0.4106,39.3500,87,98,152584
1.5396,0.4301,39.0900,87,98,152587
1.5152,0.4154,39.2500,87,98,152590
1.5249,0.4106,39.3500,87,98,152594
1.5396,0.4203,39.3500,87,98,152597
1.5298,0.4008,39.4400,87,98,152600
1.5787,0.4350,39.1900,87,98,152603
1.5347,0.4252,39.2200,87,98,152607
1.5054,0.4154,39.2800,87,98,152610
1.4712,0.4154,39.3800,87,98,152613
1.4467,0.4203,39.3500,87,98,152617
1.4418,0.4252,39.3200,87,98,152621
1.4027,0.4154,39.4400,87,98,152624
1.4027,0.4203,39.2500,87,98,152628
1.3783,0.4252,39.3500,87,98,152631
1.3734,0.3861,39.3500,87,98,152634
1.3978,0.4252,39.2200,87,98,152638
1.3636,0.4154,39.4800,87,98,152641
1.3978,0.4301,39.3500,87,98,152644
1.3783,0.4154,39.3500,87,98,152648
1.3783,0.4106,39.5100,87,98,152651
1.3930,0.4203,39.2500,87,98,152654
1.3881,0.4154,39.2500,87,98,152657
1.4223,0.4252,39.1600,87,98,152662
1.4027,0.4154,39.2800,87,98,152665
1.4076,0.4154,39.3500,87,98,152668
1.4418,0.4301,39.3500,87,98,152672
1.4223,0.4154,39.2500,87,98,152675
1.4858,0.4301,39.1200,87,98,152678
1.4467,0.4154,39.2500,87,98,152682
1.4565,0.4106,39.3800,87,98,152685
1.4663,0.4154,39.3500,87,98,152688
1.4663,0.4154,39.3800,87,98,152692
1.5200,0.4350,39.1600,87,98,152695
1.4809,0.4203,39.4100,87,98,152698
1.4907,0.4154,39.3200,87,98,152701
1.4956,0.4106,39.3500,87,98,152706
1.5054,0.4057,39.3800,87,98,152709
1.5347,0.4252,39.1600,87,98,152712
1.5005,0.4203,39.3200,87,98,152716
1.4761,0.4203,39.2500,87,98,152719
1.3930,0.4057,39.3800,87,98,152722
1.3148,0.4106,39.3500,87,98,152726
1.2561,0.4203,39.3200,87,98,152729
1.2023,0.4154,39.3500,87,98,152732
1.2610,0.4203,39.2800,87,98,152736
1.4272,0.4106,39.3800,87,98,152739
1.7058,0.4106,39.4800,87,98,152742
2.1359,0.4203,39.2800,87,98,152747
2.6100,0.4154,39.3500,87,98,152750
3.1574,0.4203,39.2200,87,98,152753
3.4653,0.4154,39.3800,87,98,152756
3.5142,0.4154,39.3500,87,98,152760
3.2991,0.4252,39.2800,87,98,152763
2.8641,0.4203,39.3800,87,98,152766
2.4829,0.4301,39.1200,87,98,152770
1.9697,0.4203,39.3500,87,98,152773
1.5591,0.4008,39.3800,87,98,152776
1.2854,0.4203,39.2800,87,98,152780
1.1388,0.4203,39.3800,87,98,152783
1.1241,0.4399,39.2200,87,98,152786
1.1144,0.4301,39.2800,87,98,152791
1.1535,0.4106,39.3200,87,98,152794
