ecg,gsr,temp,hr,spo2,timest
1.9599,0.3617,40.3000,62,96,171855
1.9941,0.3470,40.1300,62,96,171859
1.9599,0.3617,40.2600,62,96,171863
1.9941,0.3666,40.0600,62,96,171866
1.9501,0.3666,40.1300,62,96,171870
1.9159,0.3617,40.2000,62,96,171873
1.9159,0.3666,40.2000,62,96,171876
1.8817,0.3812,40.2000,62,96,171879
1.9257,0.3666,39.9600,62,96,171883
1.8866,0.3763,40.1600,62,96,171886
1.8719,0.3568,40.2000,62,96,171889
1.8671,0.3666,40.3000,62,96,171893
1.8524,0.3812,40.3000,62,96,171896
1.9110,0.3861,40.0300,62,96,171899
1.8328,0.3666,40.2000,62,96,171904
1.8133,0.3617,40.1300,62,96,171907
1.7937,0.3568,40.2300,62,96,171910
1.7742,0.3959,40.2300,62,96,171914
1.7986,0.3715,40.1600,62,96,171917
1.7693,0.3617,40.1600,62,96,171920
1.7791,0.3666,40.1000,62,96,171923
1.7693,0.3715,40.2000,62,96,171927
1.7693,0.3617,40.3000,62,96,171930
1.7937,0.3763,40.1300,62,95,171933
1.7889,0.3715,40.1600,62,95,171937
1.8084,0.3666,40.2000,62,95,171940
1.8182,0.3715,40.0300,62,95,171944
1.7937,0.3666,40.2000,62,95,171948
1.7840,0.3617,40.2300,62,95,171951
1.7791,0.3666,40.2000,62,95,171955
1.7595,0.3568,40.2300,62,95,171958
1.7595,0.3812,39.8900,62,95,171961
1.6911,0.3715,40.2000,62,95,171965
1.7009,0.3568,40.1300,62,95,171968
1.7791,0.3666,40.2300,62,95,171971
1.9208,0.3617,40.2600,62,95,171975
2.1603,0.3861,40.1000,62,95,171978
2.3509,0.3470,40.2300,62,95,171981
2.5904,0.3617,40.2000,62,95,171984
2.7615,0.3568,40.3000,62,95,171988
2.9032,0.3617,40.2300,62,95,171992
3.0450,0.3715,40.0600,62,95,171995
3.0352,0.3568,40.2300,62,95,171999
3.0450,0.3666,40.1600,62,95,172002
2.9326,0.3568,40.2000,62,95,172005
2.8348,0.3617,40.3000,62,95,172009
2.6931,0.3666,39.9600,62,95,172012
2.4780,0.3715,40.2000,62,95,172015
2.3118,0.3666,40.3300,62,95,172018
2.0674,0.3617,40.2000,62,95,172022
1.9013,0.3617,40.2000,62,95,172025
1.7693,0.3666,40.1300,62,95,172028
1.6520,0.3617,40.1600,62,95,172033
1.6227,0.3715,40.1000,62,95,172036
1.5347,0.3617,40.2600,62,95,172039
1.5152,0.3617,40.2000,62,95,172043
1.5103,0.3666,40.2600,62,95,172046
1.4907,0.3617,40.3000,62,95,172049
1.5200,0.3763,40.1300,62,95,172053
1.4956,0.3617,40.1600,62,95,172056
1.4956,0.3568,40.3000,62,95,172059
1.5054,0.3617,40.2000,62,95,172062
1.5005,0.3617,40.2300,62,95,172066
1.5494,0.3861,40.0600,62,95,172069
1.5298,0.3666,40.2600,62,95,172072
1.5347,0.3617,40.1600,62,95,172077
1.5445,0.3617,40.2600,62,95,172080
1.5591,0.3617,40.2300,62,95,172083
1.6031,0.3666,40.0600,62,95,172087
1.5836,0.3617,39.6000,62,95,172090
1.6080,0.3715,40.1300,62,95,172093
1.6080,0.3617,40.2300,62,95,172097
1.6129,0.3715,40.2300,62,95,172100
1.6422,0.3666,40.1600,62,95,172103
1.6373,0.3617,40.2000,62,95,172107
1.6716,0.3715,40.1300,62,95,172110
1.6520,0.3568,40.2000,62,95,172113
1.6569,0.3617,40.3000,62,95,172116
1.6862,0.3715,40.1600,62,95,172121
1.7058,0.3568,40.2600,62,95,172124
1.7009,0.3666,40.1000,62,95,172127
1.6960,0.3666,40.1600,62,95,172131
1.6960,0.3617,40.2300,62,95,172134
1.7302,0.3715,40.1300,62,95,172137
1.7155,0.3568,40.2300,62,95,172141
1.7595,0.3715,40.0300,62,95,172144
1.7498,0.3617,40.2000,62,95,172147
1.7351,0.3617,40.3300,62,95,172151
1.7400,0.3715,40.2300,62,95,172154
1.7351,0.3617,40.2300,62,95,172157
1.7889,0.3910,39.9600,62,95,172161
1.7595,0.3666,40.1600,62,95,172165
1.7498,0.3568,40.2000,62,95,172168
1.7595,0.3715,40.2600,62,95,172171
1.7595,0.3617,40.2000,62,95,172175
1.8084,0.3812,40.1600,62,95,172178
1.7791,0.3617,40.2000,62,95,172181
1.7986,0.3910,40.2000,62,95,172185
1.7937,0.3617,40.2300,62,95,172188
1.7937,0.3617,40.3300,62,95,172191
1.8231,0.3715,40.1000,62,95,172195
1.7889,0.3715,40.2000,62,95,172198
1.8133,0.3666,40.1600,62,95,172201
1.7791,0.3617,40.1600,62,95,172206
1.7840,0.3617,40.2300,62,95,172209
1.8133,0.3666,40.1300,62,95,172212
1.8035,0.3617,40.3000,62,95,172215
1.8328,0.3666,40.2000,62,95,172219
1.8182,0.3666,40.1600,62,95,172222
1.8133,0.3617,40.2300,62,95,172225
1.8231,0.3666,40.1300,62,95,172229
1.8084,0.3617,40.2000,62,95,172232
1.8426,0.3715,40.0000,62,95,172235
1.8377,0.3568,40.2600,62,95,172239
1.8084,0.3617,40.2300,62,95,172242
1.8133,0.3666,40.2600,62,95,172246
1.8035,0.3617,40.2600,62,95,172250
1.8475,0.3910,39.9600,62,95,172253
1.8231,0.3470,40.1600,62,95,172256
1.8133,0.3568,40.1000,62,95,172259
1.8231,0.3470,40.2300,62,95,172263
1.8280,0.3617,40.2300,62,95,172266
1.8866,0.3812,40.1300,62,95,172269
1.8573,0.3666,40.2000,62,95,172273
1.8866,0.3715,40.2300,62,95,172276
1.8524,0.3617,40.2300,62,95,172279
1.8524,0.3519,40.2300,62,95,172283
1.8817,0.3715,40.1000,62,95,172286
1.8524,0.3617,40.2000,62,95,172290
1.8817,0.3666,40.1000,62,95,172294
1.8622,0.3617,40.3000,62,95,172297
1.8719,0.3568,40.2300,62,95,172300
1.8866,0.3617,39.5700,62,95,172304
1.8719,0.3617,40.2000,62,95,172307
1.9013,0.3617,40.2000,62,95,172310
1.8671,0.3666,40.2300,62,95,172313
1.8719,0.3617,40.3300,62,95,172317
1.8964,0.3763,40.1000,62,95,172320
1.8768,0.3617,40.2600,62,95,172323
1.9159,0.3763,40.1000,62,95,172327
1.9062,0.3666,40.1300,62,95,172331
1.8915,0.3617,40.3000,62,95,172334
1.9062,0.3666,40.2000,62,95,172338
1.8964,0.3617,40.2300,62,95,172341
1.9453,0.3763,40.0300,62,95,172344
1.9159,0.3666,40.2300,62,95,172348
1.9062,0.3617,40.2600,62,95,172351
1.9159,0.3666,40.3000,62,95,172354
1.9110,0.3617,40.2000,62,95,172357
1.9697,0.3812,40.0300,62,95,172361
1.9257,0.3666,40.2600,62,95,172364
1.9110,0.3617,40.1600,62,95,172367
1.9062,0.3617,40.2300,62,95,172371
1.8964,0.3568,40.3000,62,95,172375
1.9208,0.3715,40.1300,62,95,172378
1.8915,0.3715,40.1600,62,95,172382
1.9062,0.3666,40.1300,62,95,172385
1.8768,0.3812,40.2300,62,95,172388
1.8866,0.3617,40.3000,62,95,172392
1.9110,0.3715,40.1600,62,95,172395
1.8817,0.3617,40.2300,62,95,172398
1.9062,0.3715,40.1300,62,95,172402
1.8768,0.3617,40.2300,62,95,172405
1.8671,0.3617,40.3000,62,95,172408
1.8866,0.3666,40.1300,62,95,172411
1.8622,0.3617,40.2300,62,95,172416
1.8915,0.3666,40.0600,62,95,172419
1.8768,0.3715,40.2300,62,95,172422
1.8671,0.3617,40.3600,62,95,172426
1.8768,0.3715,40.2000,62,95,172429
1.8573,0.3617,40.2000,62,95,172432
1.8964,0.3763,40.0000,62,95,172436
1.8573,0.3666,40.1600,62,95,172439
1.8524,0.3617,40.2600,62,95,172442
1.8671,0.3666,40.2300,62,95,172446
1.8475,0.3666,40.3000,62,95,172449
1.9013,0.3812,40.1300,62,95,172452
1.8622,0.3666,40.2000,62,95,172456
1.8426,0.3568,40.2600,62,95,172460
1.8426,0.3617,40.2000,62,95,172463
1.8328,0.3666,40.2300,62,95,172466
1.8524,0.3715,40.1300,62,95,172470
1.8182,0.3666,40.2300,62,95,172473
1.8231,0.3666,40.1300,62,95,172476
1.8426,0.3617,40.2600,62,95,172480
1.8133,0.3617,40.3000,62,95,172483
1.8524,0.3715,40.2300,62,95,172486
1.8328,0.3617,40.2300,62,95,172490
1.8671,0.3812,40.1300,62,95,172493
1.8426,0.3617,40.2300,62,95,172496
1.8524,0.3617,40.2300,62,95,172500
1.8573,0.3666,40.1300,62,95,172504
1.8377,0.3763,40.2600,62,95,172507
1.8622,0.3666,40.0300,62,95,172511
1.8280,0.3617,40.2300,62,95,172514
1.8280,0.3617,40.3000,62,95,172517
1.8475,0.3959,40.1300,62,95,172520
1.8280,0.3617,40.2300,62,95,172524
1.8768,0.3763,40.1000,62,95,172527
1.8426,0.3666,40.2300,62,95,172530
1.8328,0.3617,40.2600,62,95,172534
1.8426,0.3666,40.2000,62,95,172537
1.8328,0.3617,40.2600,62,95,172540
1.8915,0.3861,40.0000,62,95,172545
1.8475,0.3715,40.1600,62,95,172548
1.8328,0.3617,40.3600,62,95,172552
1.8573,0.3715,40.1600,62,95,172555
1.8328,0.3617,40.2000,62,95,172558
1.8280,0.3617,40.2600,62,95,172562
1.8426,0.3617,40.4000,62,95,172565
1.8377,0.3617,40.2600,62,95,172568
1.8622,0.3617,40.1300,62,95,172572
1.8475,0.3568,40.2600,62,95,172575
1.8475,0.3617,40.2300,62,95,172578
1.8719,0.3715,40.1600,62,95,172582
1.8426,0.3617,40.2000,62,95,172585
1.8768,0.3715,40.0300,62,95,172589
1.8475,0.3666,40.1300,62,95,172592
1.8231,0.3617,40.2000,62,95,172596
1.8426,0.3666,40.2000,62,95,172599
1.8328,0.3666,40.2300,62,95,172602
1.9013,0.3666,39.9600,62,95,172606
1.8524,0.3763,40.2600,62,95,172609
1.8377,0.3519,40.2300,62,95,172612
1.8377,0.3617,40.3300,62,95,172616
1.8328,0.3568,40.2300,62,95,172619
1.8817,0.3812,40.0600,62,95,172622
1.8524,0.3666,40.2000,62,95,172626
1.8573,0.3617,40.1300,62,95,172630
1.8426,0.3617,40.3600,62,95,172633
1.8377,0.3617,40.2300,62,95,172637
1.8524,0.3715,40.2300,62,95,172640
1.8328,0.3617,40.3300,62,95,172643
1.8524,0.3715,40.0600,62,95,172646
1.8328,0.3617,40.3000,62,95,172650
1.8328,0.3861,40.2000,62,95,172653
1.8671,0.3763,40.1300,62,95,172656
1.8377,0.3568,40.2000,62,95,172660
1.8622,0.3666,40.1000,62,95,172663
1.8426,0.3617,40.2000,62,95,172666
1.8280,0.3617,40.2300,62,95,172670
1.8524,0.3715,40.1000,62,95,172674
1.8377,0.3617,40.2300,62,95,172677
1.8719,0.3715,40.0000,62,95,172681
1.8475,0.3617,40.1300,62,95,172684
1.8328,0.3617,40.1600,62,95,172687
1.8475,0.3470,40.2000,62,95,172691
1.8328,0.3617,40.2300,62,95,172694
1.8866,0.3812,40.0600,62,95,172697
1.8622,0.3666,40.1600,62,95,172700
1.8622,0.3617,40.2600,62,95,172704
1.8719,0.3666,40.3000,62,95,172707
1.8622,0.3617,40.2300,62,95,172710
1.9159,0.3763,40.1600,62,95,172715
1.8768,0.3715,40.2300,62,95,172718
1.8622,0.3617,40.1600,62,95,172721
1.8524,0.3568,40.3000,62,95,172725
1.8377,0.3617,40.1300,62,95,172728
1.8671,0.3763,40.1000,62,95,172731
1.8328,0.3666,40.2300,62,95,172735
1.8622,0.3666,40.1000,62,95,172738
1.8328,0.3568,40.3300,62,95,172741
1.8475,0.3617,40.3000,62,95,172745
1.8817,0.3666,40.2000,62,95,172748
1.8719,0.3617,40.1600,62,95,172751
1.9110,0.3666,40.1300,62,95,172754
1.8915,0.3617,40.2000,62,95,172759
1.8915,0.3666,40.3000,62,95,172762
1.9110,0.3666,40.1600,62,95,172765
1.8915,0.3861,40.2000,62,95,172769
1.9355,0.3715,40.0600,62,95,172772
1.8964,0.3568,40.2000,62,95,172775
1.8964,0.3715,40.2000,62,95,172779
1.9159,0.3666,40.1600,62,95,172782
1.9013,0.3617,40.2000,62,95,172785
1.9648,0.3763,40.0000,62,95,172789
1.9355,0.3666,40.3600,62,95,172792
1.9159,0.3715,40.3300,62,95,172795
1.9159,0.3812,40.2600,62,95,172798
1.8915,0.3617,40.3300,62,95,172803
1.9501,0.3812,40.0000,62,95,172806
1.9110,0.3666,40.1600,62,95,172809
1.9013,0.3617,40.2300,62,95,172813
1.8915,0.3910,40.3000,62,95,172816
1.8768,0.3617,40.2600,62,95,172819
1.9062,0.3715,40.0600,62,95,172823
1.8964,0.3666,40.2000,62,95,172826
1.8671,0.3666,40.1300,62,95,172829
1.8280,0.3617,40.2300,62,95,172833
1.8133,0.3617,40.2000,62,95,172836
1.8133,0.3666,40.2000,62,95,172839
1.8280,0.3617,40.2000,62,95,172843
1.8084,0.3715,40.1300,62,95,172847
1.7693,0.3617,40.2600,62,95,172850
1.7644,0.3617,40.2600,62,95,172853
1.7840,0.3715,40.2300,62,95,172857
1.7546,0.3617,40.2300,62,95,172860
1.7840,0.3715,40.0600,62,95,172863
1.7693,0.3715,40.2300,62,95,172867
1.7595,0.3617,40.2000,62,95,172870
1.7840,0.3715,40.1300,62,95,172873
1.7644,0.3617,40.3000,62,95,172877
1.8035,0.3715,39.9600,62,95,172880
1.7693,0.3666,40.2300,62,95,172883
1.7546,0.3617,40.3000,62,95,172888
1.7546,0.3666,40.2600,62,95,172891
1.7351,0.3666,40.2600,62,95,172894
1.7644,0.3861,40.0000,62,95,172897
1.7058,0.3715,40.2300,62,95,172901
1.6569,0.3617,40.2600,62,95,172904
1.6178,0.3617,40.3600,62,95,172907
1.6276,0.3617,40.3300,62,95,172911
1.7449,0.3763,40.1300,62,95,172914
1.8671,0.3617,40.2300,62,95,172917
2.0919,0.3910,40.1600,62,95,172921
2.3216,0.3666,40.2300,62,95,172924
2.5611,0.3617,40.2300,62,95,172928
2.7957,0.3715,40.1000,62,95,172932
2.8886,0.3617,40.2300,62,95,172935
3.0108,0.3715,40.1300,62,95,172938
2.9912,0.3763,40.3000,62,95,172942
2.9619,0.3568,40.2300,62,95,172945
2.9326,0.3666,40.3000,62,95,172948
2.8104,0.3617,40.3000,62,95,172951
2.6784,0.3666,40.1300,62,95,172955
2.4585,0.3568,40.1600,62,95,172958
2.2434,0.3470,40.2300,62,95,172961
2.0674,0.3715,40.2000,62,95,172965
1.8866,0.3715,40.2300,62,95,172968
1.7986,0.3715,40.1300,62,95,172972
1.6667,0.3666,40.2300,62,95,172976
1.5934,0.3617,40.2600,62,95,172979
1.5543,0.3715,40.2300,62,95,172982
1.5152,0.3617,40.3300,62,95,172986
1.5445,0.3861,40.0000,62,95,172989
1.5005,0.3666,40.2000,62,95,172992
1.4907,0.3568,40.4000,62,95,172995
1.5005,0.3470,40.2000,62,95,172999
1.5054,0.3617,40.2300,62,95,173002
1.5543,0.3763,39.5100,62,95,173005
1.5396,0.3470,40.2000,62,95,173009
1.5445,0.3617,40.1600,62,95,173012
1.5347,0.3666,40.2300,62,95,173016
1.5445,0.3617,40.2300,62,95,173020
1.5738,0.3715,40.1000,62,95,173023
1.5689,0.3617,40.2600,62,95,173026
1.5982,0.3715,40.0600,62,95,173030
1.5836,0.3617,40.3000,62,95,173033
1.5982,0.3617,40.2300,62,95,173036
1.6227,0.3568,40.2300,62,95,173039
1.6080,0.3617,40.3000,62,95,173043
1.6325,0.3666,40.2600,62,95,173046
1.6129,0.3617,40.2300,62,95,173049
1.6227,0.3617,40.3000,62,95,173053
1.6618,0.3470,40.1300,62,95,173057
1.6569,0.3715,40.2600,62,95,173060
1.7009,0.3715,40.0600,62,95,173064
1.6911,0.3666,40.1000,62,95,173067
1.6716,0.3617,40.2300,62,95,173070
1.6911,0.3861,40.2000,62,95,173074
1.6862,0.3666,40.3000,62,95,173077
1.7351,0.3763,40.0000,62,95,173080
1.7204,0.3715,40.1300,62,95,173084
1.7204,0.3617,40.2300,62,95,173087
1.7302,0.3666,40.2000,62,95,173090
1.7351,0.3617,40.2300,62,95,173093
1.7889,0.3812,40.1000,62,95,173097
1.7546,0.3666,40.1600,62,95,173101
1.7449,0.3617,40.2300,62,95,173104
1.7400,0.3617,40.2300,62,95,173108
1.7302,0.3617,40.2300,62,95,173111
1.7644,0.3666,40.1300,62,95,173114
1.7400,0.3617,40.2600,62,95,173118
1.7644,0.3715,40.1000,62,95,173121
1.7498,0.3617,40.3000,62,95,173124
1.7742,0.3568,40.2600,62,95,173128
1.8035,0.3763,40.3600,62,95,173131
1.7840,0.3470,40.2000,62,95,173134
1.8182,0.3666,40.1300,62,95,173138
1.7986,0.3763,40.3000,62,95,173142
1.7986,0.3715,40.3000,62,95,173145
1.8084,0.3666,40.1300,62,95,173148
1.7889,0.3666,40.2300,62,95,173152
1.8084,0.3666,40.0600,62,95,173155
1.8133,0.3861,40.0300,62,95,173160
1.7791,0.3715,40.2000,62,95,173163
1.7595,0.3568,40.2000,62,95,173166
1.7644,0.3666,40.2300,62,95,173170
1.7693,0.3666,40.2600,62,95,173173
1.8280,0.3763,40.1000,62,95,173176
1.7937,0.3617,40.2000,62,95,173180
1.8084,0.3666,40.2300,62,95,173184
1.7986,0.3617,40.2000,62,95,173187
1.7986,0.3617,40.2300,62,95,173191
1.8280,0.3715,40.0600,62,95,173194
1.7986,0.3568,40.2300,62,95,173197
1.8133,0.3715,40.1000,62,95,173201
1.7889,0.3568,40.2000,62,95,173204
1.7889,0.3617,40.3000,62,95,173207
1.8231,0.3666,40.1600,62,95,173210
1.8182,0.3568,40.2300,62,95,173214
1.8231,0.3666,40.1300,62,95,173217
1.8035,0.3617,40.1600,62,95,173220
1.7986,0.3617,40.0600,62,95,173224
1.8133,0.3715,40.1600,62,95,173228
1.8035,0.3470,40.2300,62,95,173231
1.8475,0.3715,40.1000,62,95,173235
1.8084,0.3617,40.1600,62,95,173238
1.8035,0.3617,40.2600,62,95,173241
1.8182,0.3715,40.2000,62,95,173245
1.8133,0.3617,40.0300,62,95,173248
1.8817,0.3763,39.9600,62,95,173251
1.8719,0.3666,40.1600,62,95,173254
1.8573,0.3568,40.2000,62,95,173258
1.8622,0.3666,40.2300,62,95,173261
1.8622,0.3617,40.2000,62,95,173264
1.9159,0.3812,40.0600,62,95,173268
1.8671,0.3666,40.3000,62,95,173272
1.8719,0.3568,40.2000,62,95,173275
1.8817,0.3617,40.1600,62,95,173279
1.9159,0.3666,40.2000,62,95,173282
1.9844,0.3666,40.1000,62,95,173285
1.9746,0.3617,40.2000,62,95,173289
2.0039,0.3715,40.1300,62,95,173292
1.9844,0.3617,40.3000,62,95,173295
1.9648,0.3617,40.2000,62,95,173298
1.9501,0.3568,40.2300,62,95,173302
1.9062,0.3617,40.2000,62,95,173305
1.8964,0.3715,40.3300,62,95,173308
1.8573,0.3617,40.2000,62,95,173313
1.8622,0.3666,40.2000,62,95,173316
1.9159,0.3715,40.1000,62,95,173319
1.9110,0.3617,40.2600,62,95,173323
1.9648,0.3666,40.0600,62,95,173326
1.9550,0.3666,40.1000,62,95,173329
1.9355,0.3617,40.2300,62,95,173333
1.9501,0.3715,40.1300,62,95,173336
1.9013,0.3861,40.2300,62,95,173339
1.9306,0.3715,40.0000,62,95,173342
1.8817,0.3910,40.2000,62,95,173346
1.8573,0.3666,40.2300,62,95,173349
1.8671,0.3666,40.2000,62,95,173352
1.8475,0.3568,40.3300,62,95,173357
1.8866,0.3861,39.9600,62,95,173360
1.8328,0.3959,40.1000,62,95,173363
1.8524,0.3617,40.1600,62,95,173367
1.8475,0.3666,40.0600,62,95,173370
1.8671,0.3617,40.2600,62,95,173373
1.8915,0.3763,40.1000,62,95,173377
1.8524,0.3666,40.1600,62,95,173380
1.8524,0.3617,40.1300,62,95,173383
1.8475,0.3666,40.2300,62,95,173387
1.8377,0.3617,40.2600,62,95,173390
1.8524,0.3715,40.1000,62,95,173393
1.8328,0.3666,40.2300,62,95,173396
1.8524,0.3812,40.2000,62,95,173401
1.8231,0.3568,40.2000,62,95,173404
1.8182,0.3617,40.3000,62,95,173407
1.8182,0.3666,40.1300,62,95,173411
1.7840,0.3617,40.2600,62,95,173414
1.7937,0.3519,40.1000,62,95,173417
1.7840,0.3617,40.0300,62,95,173421
1.7986,0.3959,40.2300,62,95,173424
1.8328,0.3715,40.2300,62,95,173427
1.8280,0.3617,40.2000,62,95,173431
1.8622,0.3715,40.0300,62,95,173434
1.8182,0.3617,40.2000,62,95,173437
1.8426,0.3617,40.3000,62,95,173441
1.8231,0.3666,39.8000,62,95,173445
1.8035,0.3470,40.2600,62,95,173448
1.8426,0.3763,39.9600,62,95,173451
1.8182,0.3763,40.2000,62,95,173455
1.8182,0.3470,40.2300,62,95,173458
1.8426,0.3617,40.2300,62,95,173461
1.8377,0.3617,40.2300,62,95,173465
1.8719,0.3763,40.0300,62,95,173468
1.8231,0.3666,40.2600,62,95,173471
1.8182,0.3617,40.2000,62,95,173475
1.8035,0.3666,40.2300,62,95,173478
1.7937,0.3617,40.2300,62,95,173481
1.8084,0.3763,40.1300,62,95,173486
1.7986,0.3617,40.3000,62,95,173489
1.8377,0.3715,40.0600,62,95,173492
1.8231,0.3470,40.2600,62,95,173495
1.8231,0.3617,39.7300,62,95,173499
1.8182,0.3617,40.1600,62,95,173502
1.8231,0.3617,40.2300,62,95,173505
1.8719,0.3715,40.1600,62,95,173509
1.8671,0.3617,40.2000,62,95,173512
1.8866,0.3617,40.2600,62,95,173515
1.8768,0.3715,40.1300,62,95,173519
1.8573,0.3470,40.2600,62,95,173522
1.8817,0.3715,40.2600,62,95,173526
1.8622,0.3715,40.1600,62,95,173530
1.8377,0.3617,40.2600,62,95,173533
1.8426,0.3666,40.1600,62,95,173536
1.8035,0.3617,40.1600,62,95,173540
1.8377,0.3763,39.9600,62,95,173543
1.8084,0.3666,40.4700,62,95,173546
1.8133,0.3519,40.2000,62,95,173549
1.8377,0.3666,40.3000,62,95,173553
1.8475,0.3617,40.3000,62,95,173556
1.9013,0.3812,40.0600,62,95,173559
1.8426,0.3666,39.8900,62,95,173563
1.8328,0.3617,40.1300,62,95,173566
1.8280,0.3617,40.3000,62,95,173570
1.8328,0.3568,40.3000,62,95,173574
1.8622,0.3715,40.1600,62,95,173577
1.8426,0.3617,40.3000,62,95,173580
1.8671,0.3470,40.1300,62,95,173584
1.8573,0.3666,40.2300,62,95,173587
1.8671,0.3617,40.2300,62,95,173590
1.9013,0.3617,40.2300,62,95,173593
1.8622,0.3666,40.2300,62,95,173597
1.8622,0.3568,40.1300,62,95,173600
1.8133,0.3617,40.1600,62,95,173603
1.8084,0.3617,40.2600,62,95,173607
1.8377,0.3666,40.0600,62,95,173611
1.8328,0.3666,40.3300,62,95,173614
1.8817,0.3715,40.0300,62,95,173618
1.8622,0.3617,40.2000,62,95,173621
1.8377,0.3617,40.2000,62,95,173624
1.8426,0.3666,40.1600,62,95,173628
1.8280,0.3617,40.2300,62,95,173631
1.8768,0.3763,39.9600,62,95,173634
1.8328,0.3666,40.1300,62,95,173638
1.8231,0.3568,40.2000,62,95,173641
1.8377,0.3568,40.2300,62,95,173644
1.8475,0.3617,40.2000,62,95,173647
1.9159,0.3861,40.0000,62,95,173651
1.8915,0.3666,40.2300,62,95,173655
1.8915,0.3617,40.3000,62,95,173658
1.8817,0.3666,40.2600,62,95,173662
1.8671,0.3666,40.2600,62,95,173665
1.8964,0.3763,40.2300,62,95,173668
1.8524,0.3715,40.2000,62,95,173672
1.8524,0.3666,40.1300,62,95,173675
1.8182,0.3568,40.2300,62,95,173678
1.8182,0.3617,40.2300,62,95,173682
1.8426,0.3715,40.1300,62,95,173685
1.8426,0.3617,40.2300,62,95,173688
1.8817,0.3666,40.2000,62,95,173692
1.8719,0.3617,40.2600,62,95,173696
1.8866,0.3666,40.2300,62,95,173699
1.9062,0.3666,40.1300,62,95,173702
1.8964,0.3617,40.4000,62,95,173706
1.9257,0.3910,40.1000,62,95,173709
1.8915,0.3568,40.2300,62,95,173712
1.8866,0.3617,40.3000,62,95,173716
1.9062,0.3715,40.1600,62,95,173719
1.8866,0.3617,40.2000,62,95,173722
1.9550,0.3715,40.0600,62,95,173726
1.9013,0.3666,40.1600,62,95,173729
1.9110,0.3617,40.2000,62,95,173732
1.9501,0.3666,40.2000,62,95,173736
1.9648,0.3617,40.3300,62,95,173740
2.0381,0.3763,40.0300,62,95,173743
2.0088,0.3715,40.3000,62,95,173746
1.9746,0.3617,40.1600,62,95,173750
1.9550,0.3666,40.3300,62,95,173753
1.9208,0.3617,40.3000,62,95,173756
1.9697,0.3715,40.1000,62,95,173760
1.8768,0.3666,40.1300,62,95,173763
1.8719,0.3666,40.1300,62,95,173766
1.8524,0.3617,40.3000,62,95,173770
1.8084,0.3617,40.2000,62,95,173774
1.7840,0.3568,40.2600,62,95,173778
1.7791,0.3715,40.2600,62,95,173782
1.7498,0.3470,40.2600,62,95,173785
1.7791,0.3715,40.1000,62,95,173789
1.7693,0.3715,40.1600,62,95,173792
1.7546,0.3617,40.2600,62,95,173795
1.7889,0.3666,40.1600,62,95,173799
1.7791,0.3617,40.1600,62,95,173802
1.8377,0.3666,39.9600,62,95,173805
1.8035,0.3617,40.2000,62,95,173809
1.7840,0.3470,40.2600,62,95,173812
1.7693,0.3666,40.1600,62,95,173815
1.7595,0.3666,40.2300,62,95,173818
1.8280,0.3812,40.1300,62,95,173822
1.8280,0.3715,40.2300,62,95,173826
1.8133,0.3617,40.1300,62,95,173829
1.7840,0.3910,40.2300,62,95,173833
1.7400,0.3617,40.2600,62,95,173836
1.7253,0.3763,40.2300,62,95,173839
1.6862,0.3617,40.2300,62,95,173843
1.7351,0.3812,40.1600,62,95,173846
1.8280,0.3617,40.2600,62,95,173849
2.0039,0.3617,40.2000,62,95,173853
2.2434,0.3666,40.2300,62,95,173856
2.4487,0.3617,40.2600,62,95,173859
2.7077,0.3763,40.1300,62,95,173862
2.8641,0.3617,40.1300,62,95,173867
2.9814,0.3617,39.5700,62,95,173870
3.1036,0.3715,40.1000,62,95,173873
3.0743,0.3617,40.2300,62,95,173877
3.0938,0.4008,40.1000,62,95,173880
3.0010,0.3715,40.2000,62,95,173883
2.8788,0.3617,40.3000,62,95,173887
2.7517,0.3666,40.1300,62,95,173890
2.5513,0.3568,40.2300,62,95,173893
2.3803,0.3763,40.0600,62,95,173896
2.1114,0.4008,40.1600,62,95,173900
1.9355,0.3617,40.2600,62,95,173903
1.7889,0.3666,40.2000,62,95,173906
1.6667,0.3470,40.2300,62,95,173911
1.6422,0.3861,40.3000,62,95,173914
1.5445,0.3617,40.1600,62,95,173917
1.4907,0.3470,40.2600,62,95,173921
1.4565,0.4106,40.1600,62,95,173924
1.4663,0.3568,40.2600,62,95,173927
1.4712,0.3763,40.0600,62,95,173931
1.4565,0.3470,40.2600,62,95,173934
1.4663,0.3666,40.1600,62,95,173937
1.4663,0.3568,40.2000,62,95,173941
1.4712,0.3617,40.2300,62,95,173944
1.5005,0.3715,40.1300,62,95,173947
1.4858,0.3470,40.2300,62,95,173950
1.5005,0.3666,40.1000,62,95,173955
1.4809,0.3617,40.2300,62,95,173958
1.4956,0.3617,40.2300,62,95,173961
1.5152,0.3715,40.2600,62,95,173965
1.5249,0.3617,40.2300,62,95,173968
1.5591,0.3617,40.1000,62,95,173971
1.5591,0.3617,40.3000,62,95,173975
1.5787,0.3519,40.2300,62,95,173978
1.6129,0.3715,40.1300,62,95,173981
1.6080,0.3568,40.3300,62,95,173985
1.6569,0.3715,40.0600,62,95,173988
1.6569,0.4008,40.1600,62,95,173991
1.6471,0.3617,40.3000,62,95,173995
1.6618,0.3715,40.3600,62,95,173999
1.6471,0.3617,40.2000,62,95,174002
1.7058,0.3763,39.9600,62,95,174005
1.6764,0.3666,40.2000,62,95,174009
1.6813,0.3568,40.2600,62,95,174012
1.6960,0.3666,40.3600,62,95,174015
1.7009,0.3568,40.2300,62,95,174019
1.7498,0.3812,40.1600,62,95,174022
1.7253,0.3666,40.2000,62,95,174025
1.7253,0.3617,40.2600,62,95,174029
1.7155,0.3568,40.2300,62,95,174032
1.7204,0.3617,40.3000,62,95,174035
1.7302,0.3666,40.1600,62,95,174040
1.6911,0.3666,40.3000,62,95,174043
1.7107,0.3666,40.1000,62,95,174046
1.7058,0.3617,40.3000,62,95,174049
1.7302,0.3617,40.3000,62,95,174053
1.7840,0.3812,40.1300,62,95,174056
1.7742,0.3617,40.2000,62,95,174059
1.8084,0.3666,40.1000,62,95,174063
1.7889,0.3617,40.2300,62,95,174066
1.7791,0.3617,40.2300,62,95,174069
1.7986,0.3715,40.2300,62,95,174073
1.7693,0.3715,40.2300,62,95,174076
1.7889,0.3715,40.0300,62,95,174080
1.7595,0.3519,40.2300,62,95,174084
1.7595,0.3617,40.2000,62,95,174087
1.7937,0.3666,40.2000,62,95,174090
1.7937,0.3715,40.2600,62,95,174093
1.8524,0.3812,40.0000,62,95,174097
1.8280,0.3568,40.1300,62,95,174100
1.8084,0.3617,40.2300,62,95,174103
1.8084,0.3666,40.3000,62,95,174107
1.8035,0.3617,40.3000,62,95,174110
1.8622,0.3861,40.3000,62,95,174113
1.8084,0.3861,40.2000,62,95,174117
1.7986,0.3617,40.2000,62,95,174120
1.7986,0.3617,40.2000,62,95,174124
1.7840,0.3715,40.2300,62,95,174128
1.8133,0.3763,40.1600,62,95,174131
1.8084,0.3715,40.2600,62,95,174134
1.8182,0.3666,40.1300,62,95,174137
1.8182,0.3617,40.2000,62,95,174141
1.8475,0.3666,40.3000,62,95,174144
1.8622,0.3715,40.1300,62,95,174147
1.8231,0.3715,40.2000,62,95,174151
1.8524,0.3715,40.1300,62,95,174154
1.8231,0.3519,40.2300,62,95,174157
1.8328,0.3617,40.3300,62,95,174161
1.8573,0.3715,40.1300,62,95,174164
1.8671,0.3617,40.2300,62,95,174168
1.9110,0.3617,40.1000,62,95,174172
1.9013,0.3617,40.3600,62,95,174175
1.9208,0.3617,40.2300,62,95,174178
1.9404,0.3715,40.1600,62,95,174182
1.9013,0.3617,40.2300,62,95,174185
1.9306,0.3763,40.0300,62,95,174188
1.8915,0.3666,40.1600,62,95,174191
1.8671,0.3617,40.2600,62,95,174195
1.8671,0.3715,40.2000,62,95,174198
1.8622,0.3617,40.3000,62,95,174201
1.9355,0.3861,40.0600,62,95,174205
1.9257,0.3715,40.1600,62,95,174209
1.9257,0.3715,40.2000,62,95,174212
1.9355,0.3470,40.3000,62,95,174216
1.9208,0.3617,40.2600,62,95,174219
1.9697,0.3763,40.1000,62,95,174222
1.8915,0.3666,40.2300,62,95,174226
1.8964,0.3861,40.2300,62,95,174229
1.8719,0.3617,40.3300,62,95,174232
1.8964,0.3617,40.2600,62,95,174236
1.8768,0.3666,40.2000,62,95,174239
1.8719,0.3715,40.2600,62,95,174242
1.9062,0.3763,40.1000,62,95,174245
1.8964,0.3959,40.2000,62,95,174249
1.9257,0.3617,40.3000,62,95,174253
1.9404,0.3715,40.0300,62,95,174256
1.8964,0.3617,40.2300,62,95,174260
1.9013,0.3666,40.1300,62,95,174263
1.9159,0.3666,40.1000,62,95,174266
1.8768,0.3617,40.2300,62,95,174270
1.8964,0.3763,40.2000,62,95,174273
1.8768,0.3617,40.2300,62,95,174276
1.9110,0.3715,40.0600,62,95,174280
1.8671,0.3666,40.1600,62,95,174283
1.8573,0.3666,40.2300,62,95,174286
1.8768,0.3666,40.2000,62,95,174289
1.8622,0.3617,40.3600,62,95,174294
1.9257,0.3763,39.9600,62,95,174297
1.8573,0.3715,40.1600,62,95,174300
1.8671,0.3617,40.2600,62,95,174304
1.8524,0.3666,40.0000,62,95,174307
1.8328,0.3617,40.2300,62,95,174310
1.8671,0.3763,40.1300,62,95,174314
1.8280,0.3666,40.2000,62,95,174317
1.8280,0.3666,40.1300,62,95,174320
1.8182,0.3617,40.2300,62,95,174324
1.8280,0.3617,39.6700,62,95,174327
1.8866,0.3812,40.0600,62,95,174330
1.8622,0.3617,40.2300,62,95,174334
1.8817,0.3666,40.1000,62,95,174338
1.8377,0.3617,40.2600,62,95,174341
1.8231,0.3763,40.2600,62,95,174344
1.8426,0.3666,40.2000,62,95,174348
1.8182,0.3666,40.2300,62,95,174351
1.8475,0.3617,40.1000,62,95,174354
1.8231,0.3617,40.4000,62,95,174358
1.8231,0.3666,40.3300,62,95,174361
1.8231,0.3666,40.2600,62,95,174364
1.8035,0.3666,40.2600,62,95,174368
1.8426,0.3715,40.1000,62,95,174371
1.8426,0.3568,40.2600,62,95,174374
1.8084,0.3617,40.1300,62,95,174379
1.8133,0.3568,40.2600,62,95,174382
1.7840,0.3617,40.2300,62,95,174387
1.8133,0.3617,40.1600,62,95,174390
1.8915,0.3715,40.1000,62,95,174393
1.8524,0.3666,40.2000,62,95,174397
1.8573,0.3666,40.1000,62,95,174400
1.8231,0.3617,40.2300,62,95,174403
1.8182,0.3617,40.4000,62,95,174406
1.8426,0.3715,40.2000,62,95,174410
1.8280,0.3617,40.1300,62,95,174413
1.8719,0.3763,40.1000,62,95,174416
1.8622,0.3617,40.2000,62,95,174420
1.8622,0.3617,40.2300,62,95,174424
1.8671,0.3470,40.2600,62,95,174427
1.8426,0.3617,40.2300,62,95,174431
1.8426,0.3715,40.1600,62,95,174434
1.7889,0.3617,40.2000,62,95,174437
1.7791,0.3666,40.2300,62,95,174441
1.8133,0.3715,40.1600,62,95,174444
1.8182,0.3568,40.3000,62,95,174447
1.8817,0.3763,40.0000,62,95,174451
1.8622,0.3763,40.2300,62,95,174454
1.8475,0.3617,40.2300,62,95,174457
1.8426,0.3715,40.2000,62,95,174460
1.8377,0.3617,40.3300,62,95,174465
1.8866,0.3861,40.0300,62,95,174468
1.8328,0.3715,40.2000,62,95,174471
1.7986,0.3568,40.2000,62,95,174475
1.8133,0.3666,40.2300,62,95,174478
1.7986,0.3617,40.2300,62,95,174481
1.8573,0.3715,40.1000,62,95,174485
1.8475,0.3666,40.2600,62,95,174488
1.8671,0.3617,40.1600,62,95,174491
1.8524,0.3617,40.2300,62,95,174495
1.8475,0.3568,40.2600,62,95,174498
1.8817,0.3715,40.2300,62,95,174501
1.8671,0.3666,40.3600,62,95,174504
1.9013,0.3666,40.1000,62,95,174509
1.8719,0.3617,40.2000,62,95,174512
1.8671,0.3617,40.2600,62,95,174515
1.8866,0.3715,40.2000,62,95,174519
1.8524,0.3617,40.2600,62,95,174522
1.8622,0.3666,40.1600,62,95,174525
1.8377,0.3470,40.1600,62,95,174529
1.8182,0.3617,40.4000,62,95,174532
1.8475,0.3763,40.1600,62,95,174535
1.8328,0.3617,40.3600,62,95,174539
1.8964,0.3715,40.0300,62,95,174542
1.8866,0.3666,40.2000,62,95,174545
1.8866,0.3617,40.2000,62,95,174550
1.8964,0.3666,40.2000,62,95,174553
1.8719,0.3617,40.2300,62,95,174556
1.9062,0.3763,39.9600,62,95,174559
1.8671,0.3666,40.2000,62,95,174563
1.8719,0.3568,40.2600,62,95,174566
1.8573,0.3666,40.2000,62,95,174569
1.8475,0.3617,40.3000,62,95,174573
1.8866,0.3812,40.1000,62,95,174576
1.8475,0.3666,40.0600,62,95,174579
1.8524,0.3715,40.1600,62,95,174583
1.8475,0.3617,40.4000,62,95,174586
1.8231,0.3715,40.2000,62,95,174589
1.8280,0.3763,40.1300,62,95,174594
1.7889,0.3617,40.2300,62,95,174597
1.8133,0.3666,40.1600,62,95,174600
1.8035,0.3617,40.2600,62,95,174603
1.8182,0.3617,40.2300,62,95,174607
1.8622,0.3666,40.1300,62,95,174610
1.8573,0.3568,40.2300,62,95,174613
1.9013,0.3666,40.1000,62,95,174617
1.9062,0.3568,40.1600,62,95,174620
1.8915,0.3617,40.2300,62,95,174623
1.9013,0.3715,40.1000,62,95,174627
1.8768,0.3470,40.2300,62,95,174630
1.8964,0.3715,39.8000,62,95,174633
1.8426,0.3617,40.2000,62,95,174638
1.8426,0.3617,40.3600,62,95,174641
1.8671,0.3715,40.1600,62,95,174644
1.8817,0.3617,40.2000,62,95,174648
1.9746,0.3812,39.9600,62,95,174651
1.9404,0.3666,40.1600,62,95,174654
1.9257,0.3617,40.2000,62,95,174657
1.9306,0.3666,40.2300,62,95,174661
1.9159,0.3910,40.3300,62,95,174664
1.9453,0.3861,40.0600,62,95,174667
1.8817,0.3715,40.3000,62,95,174671
1.8573,0.3568,40.1600,62,95,174674
1.8671,0.3617,40.2600,62,95,174678
1.9013,0.3568,40.2000,62,95,174682
1.9844,0.3715,40.1600,62,95,174685
1.9844,0.3715,40.2000,62,95,174688
1.9990,0.3666,40.1000,62,95,174692
1.9648,0.4008,40.2600,62,95,174695
1.9355,0.3617,40.2300,62,95,174698
1.9355,0.3666,40.2000,62,95,174701
1.9062,0.3568,40.2300,62,95,174705
1.9208,0.3715,40.1300,62,95,174708
1.8719,0.3617,40.2300,62,95,174711
1.8622,0.3617,40.2300,62,95,174715
1.8768,0.3666,40.1300,62,95,174718
1.8573,0.4008,40.2300,62,95,174722
1.8768,0.3666,40.0300,62,95,174726
1.8622,0.3715,40.1600,62,95,174729
1.8328,0.3617,40.2000,62,95,174732
1.8426,0.3715,40.2300,62,95,174736
1.8035,0.3763,40.2000,62,95,174739
1.8377,0.3763,40.0000,62,95,174742
1.7840,0.3666,40.3600,62,95,174746
1.7546,0.3715,40.2000,62,95,174749
1.7595,0.3666,40.2600,62,95,174752
1.7595,0.3617,40.1600,62,95,174755
1.8133,0.3861,40.0000,62,95,174759
1.7742,0.3910,40.3000,62,95,174763
1.7986,0.3617,40.1300,62,95,174766
1.7693,0.3666,40.2000,62,95,174770
1.7644,0.3470,40.3000,62,95,174773
1.7937,0.3763,40.1300,62,95,174776
1.7595,0.3666,40.2000,62,95,174780
1.7742,0.3666,40.1600,62,95,174783
1.7791,0.3715,40.2300,62,95,174786
1.7791,0.3617,40.2300,62,95,174790
1.8035,0.3763,40.0600,62,95,174793
1.7595,0.3617,40.2300,62,95,174796
1.7498,0.3763,40.2000,62,95,174799
1.6911,0.3715,40.2300,62,95,174803
1.6813,0.3617,40.2300,62,95,174807
1.7498,0.3666,40.1300,62,95,174810
1.8426,0.3715,40.1000,62,95,174814
2.0626,0.3715,40.0600,62,95,174817
2.2190,0.3666,40.2000,62,95,174820
2.4487,0.3617,40.1600,62,95,174824
2.7126,0.3763,40.1000,62,95,174827
2.8690,0.3470,40.3000,62,95,174830
3.0743,0.3715,40.0000,62,95,174834
3.0987,0.3666,40.2000,62,95,174837
3.1183,0.3568,40.2000,62,95,174840
3.0938,0.3666,40.1300,62,95,174843
2.9668,0.3666,40.2300,62,95,174848
2.8983,0.3763,39.9600,62,95,174851
2.6735,0.3666,40.2000,62,95,174854
2.4633,0.3568,40.2600,62,95,174858
2.2630,0.3666,40.1300,62,95,174861
2.0577,0.3568,40.3000,62,95,174864
1.9501,0.3812,40.0600,62,95,174868
1.7693,0.3715,40.3000,62,95,174871
1.6618,0.3666,40.2000,62,95,174874
1.5543,0.3666,39.6400,62,95,174877
1.5054,0.3568,40.2600,62,95,174881
1.5103,0.3715,40.1300,62,95,174884
1.4761,0.3617,40.2600,62,95,174887
1.4761,0.3666,40.4300,62,95,174892
1.4809,0.3666,40.2300,62,95,174895
1.4516,0.3617,40.2600,62,95,174898
1.4907,0.3568,40.1600,62,95,174902
1.4565,0.3617,40.3600,62,95,174905
1.4858,0.3959,40.2000,62,95,174908
1.4712,0.3617,40.2600,62,95,174912
1.4761,0.3617,40.3300,62,95,174915
1.4907,0.3715,40.2300,62,95,174918
1.4858,0.3568,40.2600,62,95,174922
1.5249,0.3715,40.0300,62,95,174925
1.5347,0.3861,40.1300,62,95,174928
1.5543,0.3568,40.2300,62,95,174931
1.5836,0.3715,40.1600,62,95,174936
1.5885,0.3617,40.2300,62,95,174939
1.6520,0.3763,39.9600,62,95,174942
1.6422,0.3666,40.1300,62,95,174946
1.6422,0.3617,40.2000,62,95,174949
1.6520,0.3715,40.2300,62,95,174952
1.6471,0.3617,40.3600,62,95,174956
1.6960,0.3812,40.0600,62,95,174959
1.6520,0.3666,40.2000,62,95,174962
1.6422,0.3617,40.2000,62,95,174966
1.6471,0.3568,40.2600,62,95,174969
1.6716,0.3617,40.2000,62,95,174972
1.7400,0.3715,40.1300,62,95,174977
1.7107,0.3666,40.2300,62,95,174980
1.7351,0.3666,40.1000,62,95,174983
1.7155,0.3617,40.4000,62,95,174986
1.7204,0.3617,40.2300,62,95,174990
1.7546,0.3763,40.1000,62,95,174993
1.7351,0.3715,40.1300,62,95,174998
1.7253,0.3470,40.2300,62,95,175001
1.7693,0.3715,40.0000,62,95,175004
1.7498,0.3666,40.2000,62,95,175008
1.7400,0.3617,40.2300,62,95,175011
1.7498,0.3666,40.1600,62,95,175014
1.7449,0.3715,40.2300,62,95,175019
1.8035,0.3763,40.0300,62,95,175022
1.7840,0.3666,40.2300,62,95,175025
1.7889,0.3568,40.2600,62,95,175029
1.8280,0.3568,40.2000,62,95,175032
1.7937,0.3617,40.3000,62,95,175035
1.8328,0.3861,40.1600,62,95,175039
1.7986,0.3666,40.2000,62,95,175042
1.8035,0.3617,40.1300,62,95,175045
1.7986,0.3666,40.2000,62,95,175048
1.7986,0.3617,40.3300,62,95,175052
1.8328,0.3763,40.0300,62,95,175055
1.8182,0.3666,40.2300,62,95,175058
1.8475,0.3812,40.1600,62,95,175063
1.8328,0.3617,40.2300,62,95,175066
1.8328,0.3617,40.3000,62,95,175069
1.8475,0.3715,40.2600,62,95,175073
1.8133,0.3715,40.2000,62,95,175076
1.8328,0.3470,40.1300,62,95,175079
1.8084,0.3617,40.2000,62,95,175083
1.8377,0.3568,40.2300,62,95,175086
1.8377,0.3666,40.1600,62,95,175089
1.8280,0.3568,40.2300,62,95,175093
1.8719,0.3715,40.0600,62,95,175096
1.8719,0.3617,40.2300,62,95,175099
1.8524,0.3617,40.2600,62,95,175102
1.8719,0.3666,40.2300,62,95,175107
1.8475,0.3617,40.2300,62,95,175110
1.8866,0.3763,39.9600,62,95,175113
1.8573,0.3666,40.1300,62,95,175117
1.8475,0.3812,40.2600,62,95,175120
1.8671,0.3666,40.2000,62,95,175123
1.8573,0.3715,40.2000,62,95,175127
1.9159,0.3812,40.1000,62,95,175130
1.8817,0.3715,40.1600,62,95,175133
1.8817,0.3617,40.1300,62,95,175137
1.8866,0.3617,40.2000,62,95,175140
1.8817,0.3470,40.2000,62,95,175143
1.9257,0.3763,40.1000,62,95,175147
1.8964,0.3666,40.2000,62,95,175151
1.9159,0.3666,40.1000,62,95,175154
1.8866,0.3617,40.2000,62,95,175157
1.8964,0.3568,40.2600,62,95,175161
1.9110,0.3666,40.1600,62,95,175164
1.9013,0.3666,40.2000,62,95,175167
1.9159,0.3666,40.1300,62,95,175171
1.8817,0.3617,40.2300,62,95,175174
1.8866,0.3470,40.2300,62,95,175177
1.9257,0.3715,40.1300,62,95,175181
1.9110,0.3617,40.3300,62,95,175184
1.9501,0.3715,40.0300,62,95,175187
1.9355,0.3666,40.2000,62,95,175192
1.9110,0.3617,40.2300,62,95,175195
1.9306,0.3715,40.2000,62,95,175198
1.9013,0.3617,40.2300,62,95,175201
1.9404,0.3812,40.0000,62,95,175205
1.9110,0.3666,40.1600,62,95,175208
1.9013,0.3568,40.3600,62,95,175211
1.9062,0.3666,40.1600,62,95,175215
1.8866,0.3617,40.4000,62,95,175218
1.9306,0.3861,40.1000,62,95,175221
1.8817,0.3666,40.2300,62,95,175225
1.8622,0.3617,40.1600,62,95,175228
1.8573,0.3666,40.2600,62,95,175232
1.8719,0.3568,40.3000,62,95,175236
1.8915,0.3763,40.1000,62,95,175239
1.8622,0.3666,40.2000,62,95,175242
1.8671,0.3666,40.1600,62,95,175245
1.8426,0.3666,40.3000,62,95,175249
1.8426,0.3617,40.2300,62,95,175252
1.8671,0.3715,40.1600,62,95,175255
1.8328,0.3666,40.2300,62,95,175259
1.8475,0.3959,40.1600,62,95,175262
1.8035,0.3470,40.1600,62,95,175265
1.8035,0.3617,40.3600,62,95,175269
1.8328,0.3666,40.1300,62,95,175272
1.8182,0.3617,40.2300,62,95,175276
1.8524,0.3763,40.1000,62,95,175280
1.8377,0.3666,40.2600,62,95,175283
1.8231,0.3910,40.3000,62,95,175286
1.8231,0.3666,40.1600,62,95,175290
1.8035,0.3617,40.2300,62,95,175293
1.8573,0.3812,40.0000,62,95,175296
1.8182,0.3861,40.2000,62,95,175299
1.8231,0.3617,40.2000,62,95,175303
1.8426,0.3666,40.2000,62,95,175306
1.8231,0.3617,40.2300,62,95,175309
1.8768,0.3861,40.0300,62,95,175313
1.8377,0.4008,40.1600,62,95,175316
1.8133,0.3617,40.2000,62,95,175320
1.8182,0.3666,40.2600,62,95,175324
1.8084,0.3666,40.2300,62,95,175327
1.8622,0.3715,40.0600,62,95,175330
1.8328,0.3666,40.2600,62,95,175334
1.8426,0.3666,40.4000,62,95,175337
1.8377,0.3568,40.2300,62,95,175340
1.8426,0.3617,40.2300,62,95,175343
1.8671,0.3617,40.1000,62,95,175347
1.8475,0.3617,40.2300,62,95,175350
1.8622,0.3666,40.1000,62,95,175353
1.8328,0.3617,40.3000,62,95,175357
1.8231,0.3617,40.2000,62,95,175361
1.8280,0.3666,40.1300,62,95,175364
1.8084,0.3617,40.3000,62,95,175368
1.8328,0.3715,40.1600,62,95,175371
1.8084,0.3617,40.3000,62,95,175374
1.8182,0.3568,40.2600,62,95,175378
1.8524,0.3715,40.1300,62,95,175381
1.8377,0.3617,40.2600,62,95,175384
1.8817,0.3715,40.0000,62,95,175388
1.8671,0.3666,40.1600,62,95,175391
1.8475,0.3617,40.3000,62,95,175394
1.8671,0.3666,40.2600,62,95,175398
1.8426,0.3617,40.2600,62,95,175401
1.8915,0.3763,39.9600,62,95,175405
1.8426,0.3763,40.1300,62,95,175408
1.8475,0.3617,40.2300,62,95,175412
1.8231,0.3666,40.4000,62,95,175415
1.8133,0.3568,40.2300,62,95,175418
1.8671,0.3812,40.0300,62,95,175422
1.8231,0.3715,40.1600,62,95,175425
1.8426,0.3666,40.2000,62,95,175428
1.8280,0.3715,40.2300,62,95,175432
1.8231,0.3617,40.1600,62,95,175435
1.8475,0.3715,40.1600,62,95,175438
1.8328,0.3666,40.2300,62,95,175442
1.8671,0.3715,40.0600,62,95,175446
1.8475,0.3617,40.4000,62,95,175449
1.8524,0.3861,40.2300,62,95,175453
1.8817,0.3715,40.1300,62,95,175456
1.8817,0.3568,40.2300,62,95,175459
1.8671,0.3666,40.1000,62,95,175462
1.8573,0.3715,40.1600,62,95,175466
1.8573,0.3617,40.2300,62,95,175469
1.9013,0.3812,40.1300,62,95,175472
1.8671,0.3617,40.3000,62,95,175476
1.9062,0.3715,40.0300,62,95,175479
1.8622,0.3617,40.1600,62,95,175482
1.8426,0.3617,40.3000,62,95,175486
1.8524,0.3470,40.2000,62,95,175490
1.8377,0.3617,39.8600,62,95,175493
1.8915,0.3763,40.0300,62,95,175497
1.8622,0.3715,40.1300,62,95,175500
1.8817,0.3568,40.2300,62,95,175503
1.8524,0.3666,40.2300,62,95,175507
1.8377,0.3470,40.2300,62,95,175510
1.8817,0.3763,40.1000,62,95,175513
1.8524,0.3617,40.2300,62,95,175516
1.8622,0.3617,40.1000,62,95,175520
1.8866,0.3568,40.3000,62,95,175523
1.8524,0.3470,40.2000,62,95,175526
1.8866,0.3763,40.0300,62,95,175531
1.8719,0.3715,40.2300,62,95,175534
1.8817,0.3666,40.0600,62,95,175537
1.8524,0.3568,40.2600,62,95,175541
1.8524,0.3568,40.2000,62,95,175544
1.8768,0.3666,40.2000,62,95,175547
1.8524,0.3568,40.2300,62,95,175551
1.8768,0.3715,40.2000,62,95,175554
1.8426,0.3666,40.3000,62,95,175557
1.8377,0.3617,40.2000,62,95,175560
1.8475,0.3666,40.3600,62,95,175564
1.8328,0.3666,40.2000,62,95,175567
1.8671,0.3715,40.1000,62,95,175570
1.8622,0.3617,40.2300,62,95,175575
1.8573,0.3617,40.2300,62,95,175578
1.8768,0.3715,40.2300,62,95,175581
1.8768,0.3617,40.2000,62,95,175585
1.9306,0.3812,39.9600,62,95,175588
1.8915,0.3666,40.2300,62,95,175591
1.8817,0.3617,40.3000,62,95,175595
1.8964,0.3666,40.2300,62,95,175598
1.8964,0.3861,40.2000,62,95,175601
1.9697,0.3861,40.1000,62,95,175605
1.9795,0.3715,40.1300,62,95,175609
1.9648,0.3617,40.2600,62,95,175613
1.9990,0.3715,40.2000,62,95,175617
1.9697,0.3617,40.2000,62,95,175620
1.9746,0.3617,40.2300,62,95,175623
1.9599,0.3666,40.0600,62,95,175627
1.9257,0.3617,40.2600,62,95,175630
1.9355,0.3666,40.1600,62,95,175633
1.9013,0.3666,40.3000,62,95,175637
1.8964,0.3617,40.2300,62,95,175640
1.8964,0.3861,40.1600,62,95,175643
1.8622,0.3617,40.2600,62,95,175647
1.8866,0.3715,40.0600,62,95,175650
1.8524,0.3666,40.1600,62,95,175653
1.8280,0.3617,40.2600,62,95,175657
1.8280,0.3666,40.2000,62,95,175661
1.8035,0.3617,40.2000,62,95,175664
1.8377,0.3910,39.9600,62,95,175668
1.7937,0.3763,40.2300,62,95,175671
1.7595,0.3666,40.2300,62,95,175674
1.7595,0.3666,40.2300,62,95,175677
1.7546,0.3812,40.2600,62,95,175681
1.8035,0.3812,40.1600,62,95,175684
1.7742,0.3666,40.2000,62,95,175687
1.7889,0.3715,40.1300,62,95,175691
1.7889,0.3666,40.2300,62,95,175694
1.7986,0.3617,40.2600,62,95,175697
1.8280,0.3715,40.0600,62,95,175702
1.8182,0.3568,40.3600,62,95,175705
1.8133,0.3715,40.1000,62,95,175708
1.7840,0.3666,40.2300,62,95,175712
1.7840,0.3617,40.2600,62,95,175715
1.8084,0.3763,40.1000,62,95,175718
1.7644,0.3617,40.2300,62,95,175722
1.7595,0.3666,40.2000,62,95,175725
1.7107,0.3666,40.1300,62,95,175728
1.6667,0.3617,40.3600,62,95,175731
1.6960,0.3715,40.1000,62,95,175735
1.7302,0.3617,40.2600,62,95,175738
1.8866,0.3715,40.0300,62,95,175741
2.0235,0.3617,40.2300,62,95,175746
2.2239,0.3617,40.2000,62,95,175749
2.5073,0.3715,40.1300,62,95,175752
2.6686,0.3617,40.2600,62,95,175756
2.9032,0.3812,40.0000,62,95,175759
2.9668,0.3666,40.2000,62,95,175762
3.0156,0.3617,40.2300,62,95,175765
3.0254,0.3715,40.2000,62,95,175769
2.9668,0.3617,40.3300,62,95,175772
2.9521,0.3861,40.0300,62,95,175775
2.7517,0.3715,40.2300,62,95,175779
2.5758,0.3617,40.1600,62,95,175782
2.3607,0.3568,40.2300,62,95,175785
2.1652,0.3617,40.3300,62,95,175790
2.0283,0.3715,40.0600,62,95,175793
1.8573,0.3666,40.2300,62,95,175796
1.7498,0.3715,40.1000,62,95,175800
1.6422,0.3617,40.2600,62,95,175803
1.5738,0.3617,40.2300,62,95,175806
1.5445,0.3763,40.2000,62,95,175810
1.5005,0.3617,40.2600,62,95,175813
1.5152,0.3812,40.2300,62,95,175816
1.4907,0.3617,40.1600,62,95,175819
1.4956,0.3568,40.2300,62,95,175823
1.5103,0.3666,40.1300,62,95,175826
1.5005,0.3617,40.3000,62,95,175830
1.5347,0.3666,40.0600,62,95,175834
1.5152,0.3568,40.2000,62,95,175837
1.5298,0.3617,40.2300,62,95,175840
1.5543,0.3666,40.2000,62,95,175844
1.5591,0.3617,40.2000,62,95,175847
1.6129,0.3763,40.0000,62,95,175850
1.6276,0.3715,40.2000,62,95,175854
1.6031,0.3617,40.2300,62,95,175857
1.6178,0.3666,40.2000,62,95,175860
1.6080,0.3617,40.3000,62,95,175863
1.6667,0.3861,40.0000,62,95,175867
1.6471,0.3666,40.1600,62,95,175870
1.6373,0.3617,40.1600,62,95,175874
1.6716,0.3666,40.2300,62,95,175878
1.6471,0.3617,40.2300,62,95,175881
1.6764,0.3666,40.1000,62,95,175884
1.6569,0.3666,40.2000,62,95,175888
1.6764,0.3763,40.1600,62,95,175891
1.6716,0.3666,40.3000,62,95,175894
1.6813,0.3617,40.2300,62,95,175898
1.7058,0.3715,40.2300,62,95,175901
1.6960,0.3715,40.1600,62,95,175904
1.7253,0.3763,40.1300,62,95,175908
1.7253,0.3568,40.2300,62,95,175911
1.7204,0.3617,40.3000,62,95,175915
1.7498,0.3715,40.1300,62,95,175918
1.7351,0.3617,40.3000,62,95,175922
1.7693,0.3812,40.0600,62,95,175925
1.7986,0.3666,40.2300,62,95,175928
1.7644,0.3617,40.2600,62,95,175932
1.7937,0.3666,40.2000,62,95,175935
1.7693,0.3617,40.2000,62,95,175938
1.8084,0.3763,40.0000,62,95,175942
1.7791,0.3666,40.2300,62,95,175945
1.7742,0.3617,40.3000,62,95,175948
1.7840,0.3666,40.2300,62,95,175952
1.7742,0.3617,40.4000,62,95,175955
1.8280,0.3812,39.9600,62,95,175959
1.7889,0.3715,40.2000,62,95,175963
1.7791,0.3715,40.3600,62,95,175966
1.7840,0.3617,40.3600,62,95,175969
1.7791,0.3617,40.3000,62,95,175972
1.8328,0.3812,40.1600,62,95,175976
1.7986,0.3617,40.2300,62,95,175979
1.8133,0.3666,40.1300,62,95,175982
1.8084,0.3617,40.2300,62,95,175986
1.8133,0.3617,40.1300,62,95,175989
1.8573,0.3666,40.0600,62,95,175992
1.8182,0.3666,40.2000,62,95,175996
1.8328,0.3715,40.1300,62,95,176000
1.7937,0.3617,40.1600,62,95,176003
1.7840,0.3617,40.2300,62,95,176007
1.7889,0.3666,40.1000,62,95,176010
1.7742,0.3617,40.2300,62,95,176013
1.8084,0.3666,40.1000,62,95,176017
1.8084,0.3617,40.2000,62,95,176020
1.8133,0.3666,40.2000,62,95,176023
1.8377,0.3715,40.1300,62,95,176026
1.8182,0.3666,40.3300,62,95,176030
1.8573,0.3666,40.0600,62,95,176033
1.8084,0.3666,40.1300,62,95,176036
1.8280,0.3617,40.3000,62,95,176040
1.8280,0.3666,40.1600,62,95,176044
1.8231,0.3666,40.2300,62,95,176047
1.8817,0.3763,40.0600,62,95,176051
1.8524,0.3715,40.1600,62,95,176054
1.8475,0.3470,40.2300,62,95,176057
1.8573,0.3617,40.2000,62,95,176061
1.8573,0.3568,40.2300,62,95,176064
1.9062,0.3812,40.0600,62,95,176067
1.8671,0.3666,40.2300,62,95,176070
1.8622,0.3666,40.1600,62,95,176074
1.8475,0.3763,40.2000,62,95,176077
1.8524,0.3568,40.2300,62,95,176080
1.8915,0.3763,40.1000,62,95,176084
1.8915,0.3470,40.2300,62,95,176088
1.9062,0.3666,40.0300,62,95,176091
1.8817,0.3715,40.3000,62,95,176095
1.8866,0.3617,40.3000,62,95,176098
1.9013,0.3666,40.3600,62,95,176101
1.8964,0.3568,40.3000,62,95,176105
1.9355,0.3470,40.1300,62,95,176108
1.9062,0.3617,40.2600,62,95,176111
1.9159,0.3470,40.2300,62,95,176114
1.9306,0.3715,40.0000,62,95,176118
1.9013,0.3617,40.2300,62,95,176121
1.9257,0.3715,40.0300,62,95,176124
1.9404,0.3666,40.1300,62,95,176129
1.8915,0.3617,40.2300,62,95,176132
1.9257,0.3715,40.1600,62,95,176135
1.8817,0.3617,40.2300,62,95,176139
1.9257,0.3959,40.0300,62,95,176142
1.8915,0.3666,40.1300,62,95,176145
1.8768,0.3617,40.2600,62,95,176149
1.8866,0.3666,40.2300,62,95,176152
1.8768,0.3715,40.2300,62,95,176155
1.9404,0.3861,40.0300,62,95,176158
1.8964,0.3666,40.1300,62,95,176162
1.8768,0.3568,40.1600,62,95,176165
1.8671,0.3666,40.3000,62,95,176168
1.8524,0.3470,40.3300,62,95,176173
1.8817,0.3763,40.1600,62,95,176176
1.8475,0.3715,40.2300,62,95,176179
1.8622,0.3666,40.1600,62,95,176183
1.8377,0.3666,40.2300,62,95,176186
1.8231,0.3715,40.3000,62,95,176189
1.8475,0.3666,40.1300,62,95,176193
1.8182,0.3617,40.2000,62,95,176196
1.8817,0.3812,40.1600,62,95,176199
1.8426,0.3617,40.0300,62,95,176203
1.8524,0.3568,40.2300,62,95,176206
1.8719,0.3666,40.1000,62,95,176209
1.8817,0.3568,40.2300,62,95,176212
1.8768,0.3715,40.0600,62,95,176217
1.8719,0.3763,39.9600,62,90,176222
1.8426,0.3470,40.2000,62,90,176225
1.8377,0.3617,40.2300,62,90,176228
1.8426,0.3763,40.2600,62,90,176231
1.8328,0.3617,40.3000,62,90,176235
1.8817,0.3812,40.0600,62,90,176238
1.8719,0.3763,40.2600,62,90,176241
1.8377,0.3666,40.1600,62,90,176245
1.8182,0.3715,40.2300,62,90,176248
1.7937,0.3617,40.2600,62,90,176251
1.8182,0.3812,40.0600,62,90,176256
1.7937,0.3666,40.3600,62,90,176259
1.8182,0.3715,40.1600,62,90,176262
1.8035,0.3617,40.2600,62,90,176266
1.8133,0.3666,40.2000,62,90,176269
1.8426,0.3666,40.1300,62,90,176272
1.8182,0.3666,40.1300,62,90,176275
1.8524,0.3666,40.1600,62,90,176279
1.8231,0.3617,40.2600,62,90,176282
1.8231,0.3617,40.3000,62,90,176285
1.8231,0.3666,40.2300,62,90,176289
1.8084,0.3568,40.2300,62,90,176292
1.8426,0.3715,40.0300,62,90,176295
1.8084,0.3568,40.2000,62,90,176300
1.8182,0.3617,40.2300,62,90,176303
1.8328,0.3763,40.2000,62,90,176306
1.8133,0.3666,40.2300,62,90,176310
1.8671,0.3812,39.9600,62,90,176313
1.8377,0.3666,40.1600,62,90,176316
1.8231,0.3617,40.2300,62,90,176320
1.8280,0.3666,40.2300,62,90,176323
1.8133,0.3568,40.3000,62,90,176326
1.8622,0.3861,40.0600,62,90,176329
1.8133,0.3666,40.2300,62,90,176333
1.8328,0.3568,40.1300,62,90,176336
1.8035,0.3666,40.2000,62,90,176339
1.8133,0.3715,40.3000,62,90,176344
1.8573,0.3715,40.2000,62,90,176347
1.8475,0.3715,40.2000,62,90,176350
1.8671,0.3715,40.1000,62,90,176354
1.8475,0.3617,40.3000,62,90,176357
1.8573,0.3617,40.2300,62,90,176360
1.8524,0.3666,40.0600,62,90,176364
1.8328,0.3617,40.2300,62,90,176367
1.8573,0.3666,40.1300,62,90,176370
1.8182,0.3666,40.2600,62,90,176374
1.8133,0.3617,40.2300,62,90,176377
1.8328,0.3715,40.2300,62,90,176380
1.8084,0.3617,40.2300,62,90,176384
1.8475,0.3812,40.1000,62,90,176388
1.8426,0.3715,40.2300,62,90,176391
1.8280,0.3617,40.3300,62,90,176394
1.8475,0.3715,40.2000,62,90,176398
1.8182,0.3617,40.2000,62,90,176401
1.8622,0.3763,40.0000,62,90,176404
1.8377,0.3666,40.1600,62,90,176408
1.8280,0.3617,40.2300,62,90,176411
1.8280,0.3715,40.2000,62,90,176414
1.8231,0.3617,40.2300,62,90,176418
1.9013,0.3763,40.0600,62,90,176421
1.8573,0.3666,40.2000,62,90,176424
1.8524,0.3617,40.2000,62,90,176428
1.8622,0.3666,40.2000,62,90,176432
1.8524,0.3617,40.2300,62,90,176435
1.9208,0.3666,40.1300,62,90,176438
1.8573,0.3666,40.3300,62,90,176442
1.8573,0.3715,40.2300,62,90,176445
1.8377,0.3666,40.2000,62,90,176448
1.8377,0.3568,40.2300,62,90,176452
1.8768,0.3763,39.4800,62,90,176455
1.8426,0.3470,40.2300,62,90,176458
1.8671,0.3763,40.3000,62,90,176462
1.8475,0.3617,40.1600,62,90,176465
1.8573,0.3617,40.3000,62,90,176468
1.9013,0.3666,40.1300,62,90,176473
1.8768,0.3617,40.3600,62,90,176476
1.8964,0.3617,40.0600,62,90,176479
1.8768,0.3666,40.2600,62,90,176482
1.8573,0.3617,40.3000,62,90,176486
1.8671,0.3715,40.2000,62,90,176489
1.8426,0.3666,40.2300,62,90,176492
1.8866,0.3763,40.0000,62,90,176496
1.8671,0.3617,40.1600,62,90,176499
1.8768,0.3617,40.3000,62,90,176502
1.9013,0.3666,40.2000,62,90,176506
1.9062,0.3617,40.3000,62,90,176509
1.9550,0.3861,40.1000,62,90,176513
1.9110,0.3812,40.2600,62,90,176517
1.8964,0.3617,40.2300,62,90,176520
1.8964,0.3568,40.2300,62,90,176523
1.8866,0.3617,40.2300,62,90,176527
1.9355,0.3763,40.0600,62,90,176530
1.9159,0.3666,40.3300,62,90,176533
1.9648,0.3715,40.1000,62,90,176536
1.9306,0.3617,40.2300,62,90,176540
1.9257,0.3568,40.3000,62,90,176543
1.9599,0.3715,40.0300,62,90,176546
1.9355,0.3617,40.3000,62,90,176550
1.9501,0.3763,40.1600,62,90,176553
1.9013,0.3617,40.2300,62,90,176557
1.9013,0.3617,40.2300,62,90,176561
1.9159,0.3666,40.1600,62,90,176564
1.9159,0.3617,40.2000,62,90,176567
1.9404,0.3666,40.2600,62,90,176571
1.9062,0.3617,40.2000,62,90,176574
1.8866,0.3617,40.2300,62,90,176577
1.8817,0.3715,40.2300,62,90,176581
1.8475,0.3617,40.2000,62,90,176584
1.8964,0.3715,40.0000,62,90,176587
1.8426,0.3666,40.1300,62,90,176590
1.8133,0.3617,40.2000,62,90,176594
1.8035,0.3666,40.2600,62,90,176598
1.7693,0.3861,40.2300,62,90,176601
1.8084,0.3861,39.9600,62,90,176605
1.7595,0.3715,40.1300,62,90,176608
1.7449,0.3617,40.1600,62,90,176611
1.7546,0.3666,40.2000,62,90,176615
1.7889,0.3617,40.2300,62,90,176618
1.8035,0.3812,39.5700,62,90,176621
1.7791,0.3959,40.2000,62,90,176625
1.8035,0.3666,40.1300,62,90,176628
1.7986,0.3617,40.2600,62,90,176631
1.8084,0.3470,40.2300,62,90,176634
1.8280,0.3715,40.1600,62,90,176638
1.7986,0.3666,40.2600,62,90,176642
1.8084,0.3715,40.1000,62,90,176645
1.7644,0.3910,40.2000,62,90,176649
1.7400,0.3568,40.3000,62,90,176652
1.7449,0.3470,40.1300,62,90,176655
1.6667,0.3617,40.3000,62,90,176659
1.6325,0.3666,40.1300,62,90,176662
1.5982,0.3666,40.2000,62,90,176665
1.6373,0.3568,40.2300,62,90,176669
1.7889,0.3666,40.0300,62,90,176672
1.9697,0.3617,40.2300,62,90,176675
2.2630,0.3715,40.1000,62,90,176678
2.4878,0.3666,40.1300,62,90,176683
2.6833,0.3568,40.2300,62,90,176686
2.8495,0.3666,40.1600,62,90,176689
2.9179,0.3715,40.2600,62,90,176693
3.0450,0.3763,39.9600,62,90,176696
2.9814,0.3715,40.2300,62,90,176699
2.9277,0.3617,40.2300,62,90,176703
2.8495,0.3861,40.3000,62,90,176706
2.7224,0.3617,40.3000,62,90,176709
2.6246,0.3959,40.0300,62,90,176713
2.3607,0.3666,40.2300,62,90,176716
2.1652,0.3617,40.1600,62,90,176719
1.9844,0.3617,40.2600,62,90,176722
1.8377,0.3617,40.2600,62,90,176727
1.7400,0.3666,40.0600,62,90,176730
1.6178,0.3666,40.3300,62,90,176733
1.5543,0.3763,40.1300,62,90,176737
1.4809,0.3666,40.2300,62,90,176740
1.4663,0.3519,40.2000,62,90,176743
1.4809,0.3763,40.1600,62,90,176747
1.4663,0.3617,40.2600,62,90,176750
1.5054,0.3666,40.1300,62,90,176753
1.4809,0.3617,40.3000,62,90,176757
1.5494,0.3715,40.2000,62,90,176760
1.5347,0.3666,40.1600,62,90,176763
1.5347,0.3617,40.2600,62,90,176766
1.5640,0.3715,40.1300,62,90,176771
1.5494,0.3617,40.2000,62,90,176774
1.5543,0.3568,40.2300,62,90,176777
1.5689,0.3715,40.2300,62,90,176781
1.5543,0.3617,40.3000,62,90,176784
1.6031,0.3763,40.0300,62,90,176787
1.5934,0.4008,40.1600,62,90,176791
1.6031,0.3568,40.2300,62,90,176794
1.6276,0.3910,40.2000,62,90,176797
1.6325,0.3617,40.2300,62,90,176801
1.6667,0.3861,40.0300,62,90,176804
1.6373,0.3666,40.2600,62,90,176807
1.6227,0.3617,40.2000,62,90,176812
1.6227,0.3763,40.2000,62,90,176815
1.6276,0.3617,40.2300,62,90,176818
1.6764,0.3763,40.1000,62,90,176821
1.6716,0.3666,40.2000,62,90,176825
1.6862,0.3666,40.3000,62,90,176828
1.6862,0.3666,40.2300,62,95,176831
1.6960,0.3470,40.2300,62,95,176836
1.7009,0.3617,40.2300,62,95,176839
1.7351,0.3715,40.1300,62,95,176843
1.7302,0.3666,40.3000,62,95,176846
1.7791,0.3715,40.0300,62,95,176849
1.7791,0.3715,40.2000,62,95,176854
1.7595,0.3617,40.2600,62,95,176857
1.7742,0.3715,40.1600,62,95,176860
1.7595,0.3617,40.3000,62,95,176864
1.8280,0.3763,40.0000,62,95,176867
1.7693,0.3666,40.2600,62,95,176870
1.7546,0.3617,40.3600,62,95,176873
1.7595,0.3470,40.2300,62,95,176877
1.7546,0.3617,40.2600,62,95,176880
1.8280,0.3666,40.0000,62,95,176883
1.7791,0.3715,40.3000,62,95,176887
1.7595,0.3568,40.2000,62,95,176890
1.7644,0.3666,40.2300,62,95,176893
1.7840,0.3568,40.2300,62,95,176898
1.8231,0.3763,40.1300,62,95,176901
1.7986,0.3715,40.1600,62,95,176904
1.8133,0.3617,40.2000,62,95,176908
1.7937,0.3666,40.3000,62,95,176911
1.7889,0.3617,40.2300,62,95,176914
1.8182,0.4057,40.2300,62,95,176918
1.7937,0.3666,40.2300,62,95,176921
1.8231,0.3812,40.1300,62,95,176924
1.7937,0.3666,40.1600,62,95,176927
1.7742,0.3617,40.3000,62,95,176931
1.7693,0.3715,40.0600,62,95,176934
1.7400,0.3666,40.2000,62,95,176937
1.7644,0.3763,40.0300,62,95,176942
1.7546,0.3666,40.2000,62,95,176945
1.7742,0.3617,40.2600,62,95,176948
1.8133,0.3470,40.1600,62,95,176952
1.8084,0.3617,40.3300,62,95,176955
1.8573,0.3715,40.0000,62,95,176958
1.8280,0.3617,40.1600,62,95,176962
1.8280,0.3519,40.2300,62,95,176965
1.8328,0.3715,40.2300,62,95,176968
1.8377,0.3568,40.3300,62,95,176972
1.8573,0.3861,40.0000,62,95,176975
1.8182,0.3812,40.3000,62,95,176978
1.8084,0.3617,40.2600,62,95,176982
1.8182,0.3666,40.3000,62,95,176986
1.8280,0.3617,40.2300,62,95,176989
1.8915,0.3763,40.4000,62,95,176992
1.8719,0.3666,40.2300,62,95,176996
1.8768,0.3666,40.2000,62,95,176999
1.8524,0.3666,40.2300,62,95,177002
1.8377,0.3617,40.2300,62,95,177006
1.8573,0.3763,40.1000,62,95,177009
1.8475,0.3666,40.1600,62,95,177012
1.8964,0.3715,40.0600,62,95,177016
1.8915,0.3617,40.2300,62,95,177019
1.9013,0.3617,40.3600,62,95,177022
1.9208,0.3763,40.1600,62,95,177026
1.9208,0.3666,40.2300,62,95,177030
1.9404,0.3763,40.1300,62,95,177033
1.9110,0.3666,40.3000,62,95,177036
1.9159,0.3617,40.0000,62,95,177040
1.9453,0.3715,40.1300,62,95,177043
1.9110,0.3617,40.2000,62,95,177046
1.9404,0.3763,40.0300,62,95,177050
1.9062,0.3715,40.1300,62,95,177053
1.8817,0.3617,40.2300,62,95,177056
1.8964,0.3715,40.1000,62,95,177060
1.8817,0.3617,40.2000,62,95,177063
1.9453,0.3763,39.9600,62,95,177067
1.9110,0.3812,40.1600,62,95,177070
1.8964,0.3568,40.3000,62,95,177074
1.9013,0.3666,40.3600,62,95,177077
1.8866,0.3666,40.2300,62,95,177080
1.9306,0.3861,39.4800,62,95,177084
1.8622,0.3666,40.2000,62,95,177087
1.8475,0.3617,40.2000,62,95,177090
1.8328,0.3617,40.1600,62,95,177094
1.8328,0.3617,40.3000,62,95,177097
1.8671,0.3763,40.1300,62,95,177100
1.8426,0.3666,40.2300,62,95,177104
1.8573,0.3715,40.1000,62,95,177107
1.8377,0.3617,40.2000,62,95,177111
1.8328,0.3617,40.2600,62,95,177115
1.8671,0.3763,40.1300,62,95,177118
1.8426,0.3715,40.2300,62,95,177121
1.8622,0.3666,40.1600,62,95,177124
1.8426,0.3715,40.1600,62,95,177128
1.8377,0.3617,40.2300,62,95,177131
1.8426,0.3666,40.1000,62,95,177134
1.8133,0.3666,40.2300,62,95,177138
1.8377,0.3715,40.1000,62,95,177141
1.8182,0.3617,39.9300,62,95,177144
1.8182,0.3617,40.2300,62,95,177148
1.8377,0.3666,40.2300,62,95,177152
1.8231,0.3617,40.2300,62,95,177155
1.8768,0.3763,39.9600,62,95,177159
1.8328,0.3715,40.1300,62,95,177162
1.8133,0.3617,39.6000,62,95,177165
1.8328,0.3666,40.2300,62,95,177169
1.8084,0.3617,40.2000,62,95,177172
1.8622,0.3861,40.1000,62,95,177175
1.8280,0.3666,40.2000,62,95,177179
1.8182,0.3666,40.2600,62,95,177182
1.7937,0.3666,40.3000,62,95,177185
1.7840,0.3617,40.2300,62,95,177188
1.8280,0.3666,40.0600,62,95,177192
1.8231,0.3666,40.1600,62,95,177196
1.8524,0.3666,40.1600,62,95,177199
1.8328,0.3617,40.2600,62,95,177203
1.8182,0.3568,40.3000,62,95,177206
1.8426,0.3715,40.1600,62,95,177209
1.8475,0.3666,40.2300,62,95,177213
1.8573,0.3666,40.2600,62,95,177216
1.8622,0.3617,40.2300,62,95,177219
1.8231,0.3617,40.3000,62,95,177223
1.8475,0.3666,40.1600,62,95,177226
1.8231,0.3617,40.3600,62,95,177229
1.8671,0.3763,40.0300,62,95,177233
1.8328,0.3617,40.2000,62,95,177236
1.8328,0.3568,40.2300,62,95,177240
1.8426,0.3666,40.2300,62,95,177243
1.8084,0.3568,40.2300,62,95,177247
1.8622,0.3812,39.9600,62,95,177250
1.8280,0.3617,40.1300,62,95,177253
1.8133,0.3617,40.2000,62,95,177257
1.8133,0.3666,40.2300,62,95,177260
1.8035,0.3617,40.2300,62,95,177263
1.8524,0.3812,40.0600,62,95,177267
1.8231,0.3666,40.2000,62,95,177270
1.8328,0.3861,40.1300,62,95,177273
1.8377,0.3666,40.2300,62,95,177277
1.8328,0.3910,40.3600,62,95,177281
1.8671,0.3812,40.1300,62,95,177284
1.8328,0.3666,40.2300,62,95,177288
1.8377,0.3666,40.1600,62,95,177291
1.8133,0.3617,40.2000,62,95,177294
1.8182,0.3617,40.2300,62,95,177297
1.8377,0.3666,40.1600,62,95,177301
1.8524,0.3715,40.2300,62,95,177304
1.8524,0.3666,40.1600,62,95,177307
1.8280,0.3617,40.3000,62,95,177311
1.8182,0.3617,40.3300,62,95,177314
1.8768,0.3715,40.1000,62,95,177317
1.8280,0.3666,40.4000,62,95,177321
1.8671,0.3715,40.1000,62,95,177325
1.8622,0.3715,40.1300,62,95,177328
1.8524,0.3763,40.2000,62,95,177332
1.8768,0.3715,40.2000,62,95,177335
1.8671,0.3617,40.2300,62,95,177338
1.9453,0.3812,39.9600,62,95,177342
1.8768,0.3666,40.1600,62,95,177345
1.8524,0.3617,40.2300,62,95,177348
1.8524,0.3666,40.2000,62,95,177351
1.8377,0.3519,40.2000,62,95,177355
1.8817,0.3861,40.0600,62,95,177358
1.8280,0.3959,40.2600,62,95,177361
1.8328,0.3617,40.2300,62,95,177366
1.8280,0.3666,40.1000,62,95,177369
1.8377,0.3470,40.2600,62,95,177372
1.8817,0.3763,40.1000,62,95,177376
1.8622,0.3617,40.2600,62,95,177379
1.8671,0.3666,40.1300,62,95,177382
1.8377,0.3617,40.2600,62,95,177386
1.8524,0.3617,40.1600,62,95,177389
1.8964,0.3666,40.1000,62,95,177392
1.8719,0.3666,40.2600,62,95,177396
1.9110,0.3666,40.2000,62,95,177399
1.8671,0.3666,40.2300,62,95,177402
1.8524,0.3666,40.2300,62,95,177405
1.8719,0.3715,40.1300,62,95,177410
1.8573,0.3617,40.2300,62,95,177413
1.8915,0.3715,40.0600,62,95,177416
1.8719,0.3715,40.2000,62,95,177420
1.8622,0.3617,40.3000,62,95,177423
1.8768,0.3812,40.2000,62,95,177426
1.8573,0.3470,40.2600,62,95,177430
1.8915,0.3763,40.1000,62,95,177433
1.8475,0.3666,40.1600,62,95,177436
1.8328,0.3617,40.3000,62,95,177440
1.8377,0.3568,40.2300,62,95,177443
1.9257,0.3666,40.2300,62,95,177448
1.9257,0.3666,40.2300,62,95,177452
1.9550,0.3763,40.1000,62,95,177455
1.9208,0.3666,40.1600,62,95,177459
1.9306,0.3763,40.1000,62,95,177462
1.8915,0.3568,40.2000,62,95,177465
1.8768,0.3617,40.2600,62,95,177468
1.8964,0.3666,40.1300,62,95,177472
1.8964,0.3666,40.2000,62,95,177475
1.9599,0.3666,40.0600,62,95,177478
1.9599,0.3666,40.2600,62,95,177482
1.9795,0.3617,40.3300,62,95,177485
2.0039,0.3666,40.2300,62,95,177488
1.9697,0.3666,40.2300,62,95,177492
1.9746,0.3763,40.0000,62,95,177496
1.8915,0.3617,40.1600,62,95,177499
1.8768,0.3470,40.2300,62,95,177503
1.8817,0.3666,40.2000,62,95,177506
1.8768,0.3617,40.2300,62,95,177509
1.9257,0.3861,40.0600,62,95,177512
1.8817,0.3715,40.2000,62,95,177516
1.8622,0.3617,40.2300,62,95,177519
1.8573,0.3666,40.2300,62,95,177522
1.8328,0.3617,40.3600,62,95,177526
1.8622,0.3763,40.0600,62,95,177529
1.7986,0.3666,40.0600,62,95,177532
1.7791,0.3715,40.1300,62,95,177537
1.7595,0.3617,40.2300,62,95,177540
1.7449,0.3617,40.3600,62,95,177543
1.7742,0.3763,40.1000,62,95,177547
1.7449,0.3763,40.2000,62,95,177550
1.7595,0.3666,40.1000,62,95,177553
1.7449,0.3617,40.3000,62,95,177557
1.7546,0.3910,40.3000,62,95,177560
1.7791,0.3666,40.1600,62,95,177563
1.7791,0.3617,40.2000,62,95,177566
1.8133,0.3715,40.1300,62,95,177570
1.7986,0.4008,40.3600,62,95,177573
1.8377,0.3617,40.2300,62,95,177576
1.8377,0.3715,40.2000,62,95,177581
1.8182,0.3470,40.2300,62,95,177584
1.8231,0.3715,40.0300,62,95,177587
1.7937,0.3715,40.1600,62,95,177591
1.7204,0.3617,40.3000,62,95,177594
1.6960,0.3763,40.2300,62,95,177597
1.6471,0.3617,40.2300,62,95,177601
1.7058,0.3861,40.0300,62,95,177604
1.7791,0.3666,40.1600,62,95,177607
1.9453,0.3617,40.1600,62,95,177610
2.1750,0.3666,40.2300,62,95,177614
2.3998,0.3617,40.2300,62,95,177617
2.7028,0.3812,40.0000,62,95,177620
2.8250,0.3715,40.2600,62,95,177625
2.9423,0.3617,40.1300,62,95,177628
3.0254,0.3715,40.2300,62,95,177631
3.0499,0.3666,40.2300,62,95,177635
3.0743,0.3470,40.1000,62,95,177638
2.9521,0.3666,40.1600,62,95,177641
2.8592,0.3666,40.1300,62,95,177645
2.6784,0.3666,40.3000,62,95,177648
2.4927,0.3666,40.2000,62,95,177651
2.3607,0.3715,40.1000,62,95,177654
2.1065,0.3666,40.2300,62,95,177658
1.9550,0.3763,40.2000,62,95,177661
1.8133,0.3617,40.2300,62,95,177665
1.6618,0.3617,40.2300,62,95,177669
1.5787,0.3715,40.1300,62,95,177672
1.4858,0.3617,40.2300,62,95,177675
1.4614,0.3763,40.1300,62,95,177679
1.4272,0.3666,40.2300,62,95,177682
1.4174,0.3617,40.3000,62,95,177685
1.4321,0.3763,40.1300,62,95,177689
1.4272,0.3910,40.2300,62,95,177692
1.4761,0.3715,40.0000,62,95,177695
1.4614,0.3715,40.1600,62,95,177699
1.4761,0.3715,40.3000,62,95,177702
1.4956,0.3666,40.2000,62,95,177705
1.4956,0.3617,40.2300,62,95,177709
1.5396,0.3861,39.9600,62,95,177713
1.5249,0.3715,40.1600,62,95,177716
1.5347,0.3617,40.2600,62,95,177719
1.5543,0.3666,40.2300,62,95,177723
1.5591,0.3666,40.2600,62,95,177726
1.6080,0.3763,40.1300,62,95,177729
1.5836,0.3666,40.2000,62,95,177733
1.5885,0.3666,40.1600,62,95,177736
1.5787,0.3666,40.2000,62,95,177739
1.5885,0.3666,40.2300,62,95,177743
1.6227,0.3715,40.1300,62,95,177746
1.6373,0.3568,40.2300,62,95,177750
1.6618,0.3715,40.1300,62,95,177753
1.6373,0.3617,40.2000,62,95,177757
1.6520,0.3715,40.2300,62,95,177760
1.6667,0.3666,40.1300,62,95,177763
1.6618,0.3666,40.2000,62,95,177767
1.7009,0.3666,40.1000,62,95,177770
1.6960,0.3666,40.3000,62,95,177773
1.7058,0.3617,40.2300,62,95,177777
1.7155,0.3666,40.1600,62,95,177780
1.6960,0.3666,40.2600,62,95,177783
1.7302,0.3715,40.0000,62,95,177787
1.7302,0.3666,40.1600,62,95,177790
1.7351,0.3617,40.3600,62,95,177794
1.7644,0.3715,40.2000,62,95,177798
1.7546,0.3666,40.3600,62,95,177801
1.8084,0.3812,40.0300,62,95,177804
1.7693,0.3715,40.5000,62,95,177807
1.7498,0.3568,40.2000,62,95,177811
1.7498,0.3470,40.1600,62,95,177814
1.7498,0.3617,40.3300,62,95,177817
1.7937,0.3910,40.1000,62,95,177821
1.7546,0.3666,40.2300,62,95,177824
1.7546,0.3617,40.1300,62,95,177827
1.7546,0.3617,40.2300,62,95,177831
1.7546,0.3617,40.2300,62,95,177835
1.7937,0.3763,40.1300,62,95,177838
1.7840,0.3715,40.2600,62,95,177842
1.8231,0.3666,40.2000,62,95,177845
1.8084,0.3666,40.2000,62,95,177848
1.8035,0.3666,40.2300,62,95,177851
1.8231,0.3763,40.1300,62,95,177855
1.7742,0.3666,40.2300,62,95,177858
1.7840,0.3666,39.7300,62,95,177861
1.7546,0.3715,40.1300,62,95,177865
1.7498,0.3617,40.3000,62,95,177868
1.7693,0.3470,40.0600,62,95,177871
1.7693,0.3666,40.3000,62,95,177875
1.8133,0.3715,40.0300,62,95,177879
1.8035,0.3617,40.1600,62,95,177882
1.7986,0.3617,40.2000,62,95,177886
1.8231,0.3715,40.2600,62,95,177889
1.7889,0.3666,40.2300,62,95,177892
1.8328,0.3812,39.9600,62,95,177896
1.8035,0.3666,40.1600,62,95,177899
1.8035,0.3617,40.2300,62,95,177902
1.8182,0.3666,40.2300,62,95,177905
1.8377,0.3470,40.2300,62,95,177909
1.8524,0.3861,40.1000,62,95,177912
1.8084,0.3910,40.2000,62,95,177915
1.8475,0.3715,40.2000,62,95,177920
1.8280,0.4008,40.1600,62,95,177923
1.8280,0.3617,40.2300,62,95,177926
1.8622,0.3763,40.0600,62,95,177930
1.8328,0.3666,40.2600,62,95,177933
1.8573,0.3666,40.2000,62,95,177936
1.8475,0.3910,40.2600,62,95,177940
1.8671,0.3470,40.3000,62,95,177943
1.8866,0.3763,40.1000,62,95,177946
1.8671,0.3568,40.2300,62,95,177949
1.8915,0.3763,40.2000,62,95,177953
1.8622,0.3861,40.2000,62,95,177956
1.8719,0.3666,40.2300,62,95,177959
1.8915,0.3666,40.2300,62,95,177964
1.8866,0.3666,40.2300,62,95,177967
1.8915,0.3715,40.1300,62,95,177970
1.8622,0.3617,40.2300,62,95,177974
1.8768,0.3617,40.3000,62,95,177977
1.9110,0.3763,40.1600,62,95,177980
1.8817,0.3617,40.3000,62,95,177984
1.9257,0.3861,40.0600,62,95,177987
1.8964,0.3715,40.2000,62,95,177990
1.8964,0.3617,40.2300,62,95,177993
1.9306,0.3666,40.2600,62,95,177997
1.9208,0.3617,40.2000,62,95,178000
1.9941,0.3861,40.0000,62,95,178003
1.8964,0.4008,40.1600,62,95,178008
1.8524,0.3568,40.2300,62,95,178011
1.8475,0.3666,40.2000,62,95,178014
1.8377,0.3763,40.2000,62,95,178018
1.9013,0.3763,40.0600,62,95,178021
1.8475,0.3666,40.2600,62,95,178024
1.8524,0.3715,40.2300,62,95,178028
1.8475,0.3666,40.2300,62,95,178031
1.8524,0.3568,40.2300,62,95,178034
1.8719,0.3715,40.2000,62,95,178038
1.8426,0.3617,40.2300,62,95,178041
1.8524,0.3715,40.1000,62,95,178044
1.8622,0.3617,40.3000,62,95,178048
1.8475,0.3617,40.2600,62,95,178052
1.9013,0.3763,40.1000,62,95,178055
1.8377,0.3715,40.2000,62,95,178060
1.8133,0.3617,40.2000,62,95,178063
1.8524,0.3666,40.0000,62,95,178066
1.8182,0.3617,40.1000,62,95,178070
1.8084,0.3617,40.2600,62,95,178073
1.8182,0.3666,40.2000,62,95,178076
1.8133,0.3617,40.3000,62,95,178080
1.8573,0.3861,40.0300,62,95,178083
1.8133,0.3666,40.2000,62,95,178086
1.8133,0.3617,40.1600,62,95,178091
1.8231,0.3715,40.2300,62,95,178094
1.8328,0.3666,40.2300,62,95,178097
1.8671,0.3763,40.1300,62,95,178101
1.8377,0.3666,40.2000,62,95,178104
1.8768,0.3763,40.1300,62,95,178107
1.8231,0.3666,40.3000,62,95,178111
1.8133,0.3666,40.3000,62,95,178114
1.8426,0.3763,40.1600,62,95,178117
1.8182,0.3715,40.2300,62,95,178120
1.8475,0.3666,40.3300,62,95,178124
1.8377,0.3666,40.1600,62,95,178127
1.8231,0.3617,40.2600,62,95,178130
1.8475,0.3715,40.1000,62,95,178135
1.8182,0.3617,40.2300,62,95,178138
1.8719,0.3715,40.0300,62,95,178141
1.8133,0.3666,40.2600,62,95,178145
1.8231,0.3666,40.2300,62,95,178148
1.8231,0.3715,40.4300,62,95,178151
1.8084,0.3568,40.2600,62,95,178155
1.8426,0.3763,39.9600,62,95,178158
1.7986,0.3666,40.1300,62,95,178161
1.7937,0.3568,40.2000,62,95,178165
1.8035,0.3715,40.2000,62,95,178168
1.8133,0.3617,40.2600,62,95,178171
1.8817,0.3812,40.1000,62,95,178174
1.8475,0.3666,40.2000,62,95,178179
1.8377,0.3617,40.2300,62,95,178182
1.8182,0.3715,40.2600,62,95,178185
1.8133,0.3617,40.1300,62,95,178189
1.8426,0.3715,40.0600,62,95,178192
1.8084,0.3666,40.2000,62,95,178195
1.8328,0.3715,40.1300,62,95,178199
1.8280,0.3617,40.2000,62,95,178202
1.8328,0.3715,40.2300,62,95,178205
1.8377,0.3763,40.2300,62,95,178209
1.7986,0.3666,40.2300,62,95,178212
1.8231,0.3715,40.1300,62,95,178215
1.8035,0.3617,40.2000,62,95,178220
1.8231,0.3617,40.2300,62,95,178223
1.8475,0.3617,40.1300,62,95,178226
1.8377,0.3666,40.2600,62,95,178229
1.8622,0.3715,40.1000,62,95,178233
1.8084,0.3617,40.2000,62,95,178236
1.8035,0.3617,40.3000,62,95,178239
1.8377,0.3666,40.2000,62,95,178243
1.8231,0.3617,40.2000,62,95,178246
1.9110,0.3763,40.0000,62,95,178249
1.8475,0.3666,40.2300,62,95,178253
1.8231,0.3910,40.3600,62,95,178256
1.8328,0.3666,40.2300,62,95,178259
1.8231,0.3763,40.3000,62,95,178264
1.8768,0.3861,40.0600,62,95,178267
1.8426,0.3715,40.1300,62,95,178270
1.8280,0.3617,40.1600,62,95,178274
1.8328,0.3910,40.3000,62,95,178277
1.8377,0.3617,40.2300,62,95,178280
1.8719,0.3763,40.0600,62,95,178283
1.8377,0.3666,40.2600,62,95,178287
1.8622,0.3666,40.1300,62,95,178290
1.8573,0.3715,40.2300,62,95,178293
1.8475,0.3617,40.2600,62,95,178297
1.8573,0.3666,40.1600,62,95,178300
1.8280,0.3666,40.2000,62,95,178304
1.8475,0.3763,40.1300,62,95,178308
1.7986,0.3666,40.2600,62,95,178311
1.8035,0.3568,40.2000,62,95,178314
1.8426,0.3715,40.1300,62,95,178318
1.8328,0.3617,40.2600,62,95,178321
1.8768,0.3666,40.0600,62,95,178324
1.8671,0.3763,40.1300,62,95,178327
1.8622,0.3568,40.2300,62,95,178331
1.8866,0.3861,40.1300,62,95,178334
1.8426,0.3666,40.3000,62,95,178337
1.8768,0.3763,40.0000,62,95,178341
1.8328,0.3617,40.1300,62,95,178344
1.8182,0.3666,40.2600,62,95,178348
1.8084,0.3470,40.2600,62,95,178352
1.8035,0.3617,40.3300,62,95,178355
1.8573,0.3959,40.1000,62,95,178358
1.8231,0.3715,40.2600,62,95,178362
1.8182,0.3666,40.1600,62,95,178365
1.8280,0.3666,40.2300,62,95,178368
1.8328,0.3568,40.2000,62,95,178372
1.8768,0.3763,40.1000,62,95,178375
1.8377,0.3666,40.2000,62,95,178378
1.8426,0.3715,40.1300,62,95,178381
1.8280,0.3666,40.2300,62,95,178385
1.8622,0.3568,40.3000,62,95,178388
1.8915,0.3763,40.0600,62,95,178392
1.8768,0.3666,40.3000,62,95,178396
1.9110,0.3763,40.2000,62,95,178399
1.8768,0.3617,40.1600,62,95,178402
1.8671,0.3617,40.4000,62,95,178406
1.8671,0.3715,40.1300,62,95,178409
1.8377,0.3666,40.2300,62,95,178412
1.8671,0.4057,40.1000,62,95,178416
1.8768,0.3666,40.2000,62,95,178419
1.9062,0.3617,40.4000,62,95,178422
1.9599,0.3715,40.1600,62,95,178426
1.9697,0.3617,40.2300,62,95,178429
2.0283,0.3763,40.0300,62,95,178433
1.9990,0.3666,40.1600,62,95,178436
1.9941,0.3617,40.2000,62,95,178440
1.9941,0.3666,40.2000,62,95,178443
1.9648,0.3666,40.2300,62,95,178446
1.9990,0.3861,40.0000,62,95,178450
1.9306,0.3666,40.1300,62,95,178453
1.8915,0.3617,40.2000,62,95,178456
1.8817,0.3666,40.1000,62,95,178460
1.8573,0.3715,40.2000,62,95,178463
1.8964,0.3763,40.0600,62,95,178466
1.8524,0.3617,40.2600,62,95,178470
1.8475,0.3715,40.2000,62,95,178473
1.8182,0.3666,40.2000,62,95,178477
1.7986,0.3666,40.2300,62,95,178480
1.8133,0.3715,40.2600,62,95,178484
1.8035,0.3666,40.2600,62,95,178487
1.8133,0.3715,40.1000,62,95,178490
1.7840,0.3861,40.3600,62,95,178494
1.7742,0.3617,40.2600,62,95,178497
1.7644,0.3666,40.1600,62,95,178500
1.7400,0.3470,40.2300,62,95,178504
1.7595,0.3666,40.2000,62,95,178507
1.7302,0.3666,40.3000,62,95,178510
1.7498,0.3617,40.2600,62,95,178514
1.8084,0.3715,40.2300,62,95,178518
1.7791,0.3666,40.3000,62,95,178521
1.8475,0.3715,40.0300,62,95,178525
1.8035,0.3715,40.3600,62,95,178528
1.7889,0.3568,40.2300,62,95,178531
1.8035,0.3715,40.1300,62,95,178534
1.7937,0.3617,40.2000,62,95,178538
1.8231,0.3812,40.0300,62,95,178541
1.7693,0.3763,40.1300,62,95,178544
1.7253,0.3617,40.2000,62,95,178548
1.6911,0.3763,40.2600,62,95,178551
1.6569,0.3617,40.2600,62,95,178554
1.7155,0.3861,40.2000,62,95,178558
1.7693,0.3666,40.2300,62,95,178562
1.9355,0.3666,40.2000,62,95,178565
2.1310,0.3666,40.2300,62,95,178569
2.3754,0.3617,40.2300,62,95,178572
2.6442,0.3715,40.1600,62,95,178575
2.7957,0.3666,40.2300,62,95,178579
2.9668,0.3715,40.1000,62,95,178582
3.0059,0.3666,40.2300,62,95,178585
3.0645,0.3568,40.2300,62,95,178588
3.0547,0.3763,40.1000,62,95,178592
2.9277,0.3763,40.2600,62,95,178595
2.8495,0.3666,40.1300,62,95,178598
2.6735,0.3666,40.0600,62,95,178603
2.4829,0.3568,40.2300,62,95,178606
2.3118,0.3715,40.0600,62,95,178609
2.0968,0.3715,40.3000,62,95,178613
1.9892,0.3763,40.1300,62,95,178616
1.7889,0.3666,40.2600,62,95,178619
1.6618,0.3666,40.2300,62,95,178623
1.5934,0.3715,39.5400,62,95,178626
1.5152,0.3715,40.2000,62,95,178629
1.5103,0.3763,40.0300,62,95,178632
1.4565,0.3715,40.2300,62,95,178636
1.4467,0.3617,40.3000,62,95,178639
1.4565,0.3763,40.2600,62,95,178642
1.4663,0.3666,40.2600,62,95,178647
1.5249,0.3861,40.0600,62,95,178650
1.4956,0.3666,40.2000,62,95,178653
1.4956,0.3617,40.2000,62,95,178657
1.5005,0.3666,40.3000,62,95,178660
1.5103,0.3666,40.2600,62,95,178663
1.5445,0.3763,40.1600,63,95,178667
1.5787,0.3959,40.1600,63,95,178671
1.6031,0.3617,40.2600,63,95,178675
1.6373,0.3715,40.2600,63,95,178678
1.6667,0.3568,40.2300,63,95,178681
1.6471,0.3617,40.2600,63,95,178684
1.6667,0.3715,40.2000,63,95,178689
1.6618,0.3617,40.2300,63,95,178692
1.6911,0.3715,40.0000,63,95,178695
1.6569,0.3617,40.1600,63,95,178699
1.6618,0.3763,40.3600,63,95,178702
1.6716,0.3666,40.2000,63,95,178705
1.6618,0.3568,40.2300,63,95,178709
1.7155,0.3812,39.8900,63,95,178712
1.7058,0.3763,40.2300,63,95,178715
1.7107,0.3470,40.2300,63,95,178719
1.7155,0.3715,40.3000,63,95,178722
1.7155,0.3617,40.2300,63,95,178725
1.7693,0.3959,40.0600,63,95,178729
1.7449,0.3666,40.1600,63,95,178733
1.7693,0.3666,40.1300,63,95,178736
1.7644,0.3470,40.3000,63,95,178740
1.7546,0.3617,40.2300,63,95,178743
1.7889,0.3763,40.1000,63,95,178746
1.7595,0.3666,40.3000,63,95,178749
1.7840,0.3715,40.1300,63,95,178753
1.7742,0.3568,40.3000,63,95,178756
1.7742,0.3617,40.2600,63,95,178759
1.8084,0.3666,40.1600,63,95,178763
1.7742,0.3666,40.2600,63,95,178766
1.7986,0.3617,40.1600,63,95,178769
1.7693,0.3666,40.2000,63,95,178774
1.7742,0.3617,40.2300,63,95,178777
1.7986,0.3715,40.2300,63,95,178780
1.8182,0.3715,40.3000,63,95,178784
1.8280,0.3715,40.1300,63,95,178787
1.8524,0.3715,40.2300,63,95,178790
1.8035,0.3666,40.3000,63,95,178793
1.8231,0.3666,40.1600,63,95,178797
1.7986,0.3617,40.3600,63,95,178800
1.8524,0.3812,39.9600,63,95,178803
1.8231,0.3666,40.1000,63,95,178807
1.8328,0.3519,40.2300,63,95,178810
1.8133,0.3666,40.2000,63,95,178813
1.8084,0.3568,40.2300,63,95,178818
1.8573,0.3861,40.0600,63,95,178821
1.8133,0.4008,40.2300,63,95,178824
1.8328,0.3568,40.1300,63,95,178828
1.8035,0.3666,40.4000,63,95,178831
1.7937,0.3666,40.2300,63,95,178834
1.8377,0.3763,40.1000,63,95,178838
1.8182,0.3715,40.3600,63,95,178841
1.8377,0.3666,40.2000,63,95,178844
1.8182,0.3715,40.2000,63,95,178847
1.8280,0.3617,40.2300,63,95,178851
1.8573,0.3763,40.1000,63,95,178854
1.8377,0.3666,40.2300,63,95,178857
1.8671,0.3666,40.1600,63,95,178862
1.8524,0.3666,40.1600,63,95,178865
1.8426,0.3617,40.2600,63,95,178868
1.8573,0.3715,40.1000,63,95,178872
1.8377,0.3910,40.2600,63,95,178875
1.8866,0.3715,40.0300,63,95,178878
1.8719,0.3666,40.2000,63,95,178882
1.8915,0.3568,40.2000,63,95,178885
1.9013,0.3715,40.1600,63,95,178888
1.8719,0.3666,40.3000,63,95,178892
1.9208,0.3763,40.0000,63,95,178895
1.8768,0.3715,40.1300,63,95,178898
1.8817,0.3666,40.2600,63,95,178902
1.8915,0.3666,40.1000,63,95,178906
1.8964,0.3470,40.2300,63,95,178909
1.9501,0.3861,40.0600,63,95,178912
1.9159,0.3715,40.1600,63,95,178916
1.9062,0.3617,40.1600,63,95,178919
1.9062,0.3666,40.3000,63,95,178922
1.9062,0.3617,40.3000,63,95,178926
1.9453,0.3763,40.1600,63,95,178929
1.9208,0.3666,40.2600,63,95,178932
1.9355,0.3666,40.1300,63,95,178936
1.9159,0.3666,40.2600,63,95,178939
1.9062,0.3617,40.2300,63,95,178942
1.9257,0.3763,40.2000,63,95,178946
1.8866,0.3666,40.2600,63,95,178950
1.9013,0.3959,40.2000,63,95,178953
1.8719,0.3617,40.2000,63,95,178956
1.8671,0.3861,40.3600,63,95,178960
1.8817,0.3666,40.1600,63,95,178963
1.8622,0.3715,40.2300,63,95,178966
1.8817,0.3715,40.1300,63,95,178970
1.8377,0.3568,40.2600,63,95,178973
1.8328,0.3666,40.2600,63,95,178976
1.8573,0.3715,40.1600,63,95,178980
1.8426,0.3617,40.2000,63,95,178983
1.9013,0.3763,40.0600,63,95,178987
1.8817,0.3715,40.1300,63,95,178991
1.8573,0.3715,40.2300,63,95,178994
1.8573,0.3861,40.2300,63,95,178997
1.8426,0.3617,40.3000,63,95,179001
1.8964,0.3861,40.1300,63,95,179004
1.8622,0.3715,40.1600,63,95,179007
1.8524,0.3666,40.2300,63,95,179010
1.8475,0.3666,40.2300,63,95,179014
1.8426,0.3666,40.2000,63,95,179017
1.8768,0.3763,40.1000,63,95,179020
1.8475,0.3666,40.3000,63,95,179024
1.8573,0.3666,40.1000,63,95,179027
1.8426,0.3666,40.1600,63,95,179031
1.8426,0.3715,40.2300,63,95,179035
1.8622,0.4008,40.2000,63,95,179038
1.8524,0.3617,40.2300,63,95,179041
1.8768,0.3715,40.1300,63,95,179045
1.8426,0.3617,40.2000,63,95,179048
1.8328,0.3666,40.3000,63,95,179051
1.8524,0.3715,40.1000,63,95,179055
1.8182,0.3666,39.9300,63,95,179058
1.8328,0.3763,40.0600,63,95,179061
1.8182,0.3715,40.1300,63,95,179064
1.8133,0.3715,40.2600,63,95,179068
1.8426,0.3715,40.1600,63,95,179072
1.8280,0.3666,40.2300,63,95,179075
1.8719,0.3763,40.0000,63,95,179079
1.8280,0.3715,40.2000,63,95,179082
1.8035,0.3617,40.3000,63,95,179085
1.8084,0.3666,40.3300,63,95,179089
1.8035,0.3715,40.2300,63,95,179092
1.8671,0.3861,40.0600,63,95,179095
1.8182,0.3715,40.1600,63,95,179099
1.8084,0.3617,40.1600,63,95,179102
1.8084,0.3666,40.2300,63,95,179105
1.8133,0.3666,40.2300,63,95,179109
1.8524,0.3763,40.2300,63,95,179112
1.8231,0.3666,40.2000,63,95,179116
1.8426,0.3910,39.9600,63,95,179119
1.8280,0.3666,40.3300,63,95,179123
1.8280,0.3617,40.3600,63,95,179126
1.8524,0.3763,40.1000,63,95,179129
1.8133,0.3666,40.2000,63,95,179133
1.8328,0.3470,40.1300,63,95,179136
1.8035,0.3617,40.1600,63,95,179139
1.8084,0.3617,40.2300,63,95,179143
1.8280,0.3715,40.1300,63,95,179146
1.8231,0.3568,40.2000,63,95,179149
1.8573,0.3715,40.0300,63,95,179153
1.8768,0.3715,40.2000,63,95,179156
1.8426,0.3666,40.2000,63,95,179160
1.8573,0.3715,40.1600,63,95,179163
1.8426,0.3617,40.3000,63,95,179167
1.8866,0.3763,40.0300,63,95,179170
1.8524,0.3666,40.1600,63,95,179173
1.8475,0.3763,40.2600,63,95,179177
1.8524,0.3666,40.2300,63,95,179180
1.8280,0.3617,40.2300,63,95,179183
1.8719,0.3861,40.1300,63,95,179187
1.8231,0.3617,40.2300,63,95,179190
1.8182,0.3617,40.1600,63,95,179193
1.8280,0.3715,40.2300,63,95,179197
1.8328,0.3617,40.2300,63,95,179201
1.8768,0.3715,40.1000,63,95,179204
1.8524,0.3666,40.3000,63,95,179208
1.8671,0.3812,40.1300,63,95,179211
1.8622,0.3666,40.2600,63,95,179214
1.8622,0.3861,40.3000,63,95,179218
1.8915,0.3763,40.2000,63,95,179221
1.8671,0.3666,40.2600,63,95,179224
1.8866,0.3666,40.1300,63,95,179227
1.8573,0.3617,40.0600,63,95,179231
1.8573,0.3666,40.2300,63,95,179234
1.8622,0.3666,40.2000,63,95,179237
1.8475,0.3617,40.2600,63,95,179241
1.8719,0.3715,40.0600,63,95,179245
1.8377,0.3666,40.2000,63,95,179248
1.8622,0.3715,40.2300,63,95,179252
1.8426,0.3763,40.2000,63,95,179255
1.8133,0.3470,40.2300,63,95,179258
1.8524,0.3763,40.1000,63,95,179262
1.8328,0.3715,40.1600,63,95,179265
1.8280,0.3617,40.2300,63,95,179268
1.8475,0.3812,40.2300,63,95,179271
1.8377,0.3617,40.2600,63,95,179275
1.8817,0.3861,40.0000,63,95,179278
1.8719,0.3763,40.2300,63,95,179283
1.8622,0.3666,40.1300,63,95,179287
1.8866,0.3763,40.2300,63,95,179290
1.8671,0.3666,40.4000,63,95,179294
1.8622,0.3715,40.3600,63,95,179297
1.8719,0.3666,40.1600,63,95,179300
1.8622,0.3666,40.2300,63,95,179304
1.8915,0.3666,40.2000,63,95,179307
1.8524,0.3715,40.3600,63,95,179310
1.8426,0.3617,40.2600,63,95,179314
1.8671,0.3763,40.2300,63,95,179317
1.8475,0.3666,40.2600,63,95,179320
1.9110,0.3715,40.0600,63,95,179324
1.8671,0.3715,40.1300,63,95,179328
1.8573,0.3617,40.2300,63,95,179331
1.8866,0.3715,40.2000,63,95,179335
1.8817,0.3666,40.2300,63,95,179338
1.9404,0.3812,39.9600,63,95,179341
1.9062,0.3763,40.1600,63,95,179344
1.8866,0.3568,40.2300,63,95,179348
1.8915,0.3666,40.2300,63,95,179351
1.8866,0.3617,40.2300,63,95,179354
1.9550,0.3861,40.0300,63,95,179358
1.9208,0.3763,40.2000,63,95,179361
1.9355,0.3666,40.1300,63,95,179364
1.9257,0.3666,40.3000,63,95,179368
1.9257,0.3666,40.2600,63,95,179372
1.9599,0.3763,39.7300,63,95,179375
1.9355,0.3617,40.1600,63,95,179379
1.9599,0.3666,40.1000,63,95,179382
1.9404,0.3617,40.3000,63,95,179385
1.9550,0.3568,40.2600,63,95,179388
1.9453,0.3763,40.2300,63,95,179392
1.8964,0.3666,40.3000,63,95,179395
1.9110,0.3763,40.2300,63,95,179398
1.8671,0.3910,40.1600,63,95,179402
1.8524,0.3617,40.3000,63,95,179405
1.8573,0.3715,40.2000,63,95,179408
1.8280,0.3715,40.3000,63,95,179412
1.8377,0.3715,40.0300,63,95,179416
1.8133,0.3666,40.2300,63,95,179419
1.7742,0.3666,40.3000,63,95,179423
1.7742,0.4008,40.1600,63,95,179426
1.7498,0.3666,40.2300,63,95,179429
1.7791,0.3763,40.1000,63,95,179432
1.7449,0.3617,40.2300,63,95,179436
1.7498,0.3617,40.2600,63,95,179439
1.7595,0.3666,40.2300,63,95,179442
1.7498,0.3617,40.3000,63,95,179446
1.8084,0.3910,40.1000,63,95,179449
1.7644,0.3666,40.2000,63,95,179452
1.7595,0.3861,40.1600,63,95,179457
1.7742,0.3666,40.2000,63,95,179460
1.7644,0.3666,40.2600,63,95,179463
1.8133,0.3763,40.0600,63,95,179467
1.7889,0.3959,40.2600,63,95,179470
1.7986,0.3715,40.1000,63,95,179473
1.7840,0.3666,40.2300,63,95,179477
1.7595,0.3617,40.1600,63,95,179480
1.7791,0.3666,40.1600,63,95,179483
1.6960,0.3666,40.2300,63,95,179486
1.6667,0.3715,40.1000,63,95,179490
1.6276,0.3666,40.2300,63,95,179493
1.6911,0.3617,40.2000,63,95,179496
1.7986,0.3666,40.1600,63,95,179501
1.9599,0.3715,40.2300,63,95,179504
2.2092,0.3470,40.1600,63,95,179507
2.4194,0.3666,40.2000,63,95,179511
2.6393,0.3617,40.2300,63,95,179514
2.8250,0.3715,40.1300,63,95,179517
2.9228,0.3470,40.2300,63,95,179521
3.0499,0.3715,40.0000,63,95,179524
3.0254,0.3959,40.1600,63,95,179527
2.9619,0.3666,40.2300,63,95,179530
2.9032,0.3666,40.2000,63,95,179534
2.7810,0.3568,40.2300,63,95,179537
2.6540,0.3812,39.9600,63,95,179540
2.3998,0.3715,40.1000,63,95,179545
2.1750,0.3617,40.2000,63,95,179548
1.9990,0.3763,40.2600,63,95,179551
1.8377,0.4008,40.2000,63,95,179555
1.7791,0.3666,40.0300,63,95,179558
1.6373,0.3666,40.2300,63,95,179561
1.6031,0.3666,40.1600,63,95,179564
1.5249,0.3666,40.2300,63,95,179568
1.5005,0.3666,40.2300,63,95,179571
1.5152,0.3763,40.1600,63,95,179574
1.4761,0.3763,40.2300,63,95,179578
1.4956,0.3666,40.1600,63,95,179581
1.4956,0.3715,40.2300,63,95,179585
1.5103,0.3617,40.3300,63,95,179589
1.5543,0.3812,40.1000,63,95,179592
1.5298,0.3666,40.3000,63,95,179595
1.5543,0.3763,40.2000,63,95,179599
1.5347,0.3666,40.2000,63,95,179602
1.5494,0.3617,40.3000,63,95,179605
1.5982,0.3763,40.1000,63,95,179609
1.5787,0.3617,40.2300,63,95,179612
1.6178,0.3715,40.0600,63,95,179615
1.6080,0.3666,40.2000,63,95,179618
1.5982,0.3617,40.2300,63,95,179622
1.6178,0.3763,40.1600,63,95,179625
1.6178,0.3666,40.2300,63,95,179629
1.6667,0.3812,40.0000,63,95,179633
1.6422,0.3666,40.1000,63,95,179636
1.6471,0.3568,40.3000,63,95,179639
1.6618,0.3666,40.2600,63,95,179643
1.6569,0.3715,40.2000,63,95,179646
1.7058,0.3861,40.0300,63,95,179649
1.6764,0.3715,40.2600,63,95,179653
1.6764,0.3568,40.1600,63,95,179656
1.6862,0.3910,40.2600,63,95,179659
1.6862,0.3617,40.2300,63,95,179662
1.7302,0.3763,40.1300,63,95,179666
1.7155,0.3666,40.2600,63,95,179670
1.7204,0.3666,40.1300,63,95,179673
1.7204,0.3568,40.2600,63,95,179677
1.7253,0.3666,40.2300,63,95,179680
1.7644,0.3715,40.2300,63,95,179683
1.7449,0.3666,40.2300,63,95,179687
1.7742,0.3715,40.1600,63,95,179690
1.7742,0.3617,40.3000,63,95,179693
1.7595,0.3617,40.2600,63,95,179697
1.7742,0.3666,40.1600,63,95,179700
1.7595,0.3666,40.2000,63,95,179703
1.7937,0.3715,40.0600,63,95,179707
1.7693,0.3666,40.2000,63,95,179710
1.7742,0.3715,40.2300,63,95,179714
1.7986,0.3715,40.1600,63,95,179717
1.7889,0.3617,40.2300,63,95,179721
1.8280,0.3763,40.0300,63,95,179724
1.7986,0.3812,40.1600,63,95,179727
1.8084,0.3715,40.2300,63,95,179731
1.7791,0.3715,40.2000,63,95,179734
1.7791,0.3617,40.3000,63,95,179737
1.8084,0.3812,39.7300,63,95,179741
1.7791,0.3763,40.1600,63,95,179744
1.7742,0.3617,40.1600,63,95,179747
1.7889,0.3666,40.3000,63,95,179751
1.7840,0.3666,40.2600,63,95,179755
1.8280,0.4057,40.1300,63,95,179758
1.7889,0.3666,40.2000,63,95,179761
1.7986,0.3666,40.1600,63,95,179765
1.8035,0.3763,40.3600,63,95,179768
1.8182,0.3666,40.2300,63,95,179771
1.8475,0.3715,40.1600,63,95,179775
1.8280,0.3666,40.2300,63,95,179778
1.8524,0.3715,40.1000,63,95,179781
1.8280,0.3666,40.2000,63,95,179785
1.8133,0.3617,40.2300,63,95,179788
1.8280,0.3763,40.1600,63,95,179791
1.8035,0.3666,40.2000,63,95,179795
1.8280,0.3715,40.1600,63,95,179799
1.8133,0.3666,40.1600,63,95,179802
1.8084,0.3568,40.3000,63,95,179806
1.8328,0.3715,40.1600,63,95,179809
1.8084,0.3617,40.2300,63,95,179812
1.8475,0.3715,40.0600,63,95,179815
1.8328,0.3812,40.1600,63,95,179819
1.8182,0.3470,40.3000,63,95,179822
1.8377,0.3715,40.1600,63,95,179825
1.8524,0.3568,40.2000,63,95,179829
1.8671,0.3763,39.9600,63,95,179832
1.8817,0.3715,40.1600,63,95,179835
1.8622,0.3617,40.2000,63,95,179840
1.8866,0.3715,40.2000,63,95,179843
1.9013,0.3666,40.2600,63,95,179846
1.9746,0.3861,40.0300,63,95,179850
1.9453,0.3666,40.2000,63,95,179853
1.9306,0.3617,40.2600,63,95,179856
1.9306,0.3666,40.3000,63,95,179859
1.9208,0.3666,40.2300,63,95,179863
1.9550,0.3812,40.1000,63,95,179866
1.9159,0.3470,40.2300,63,95,179869
1.9110,0.3666,39.7700,63,95,179873
1.8768,0.3715,40.2600,63,95,179876
1.8671,0.3666,40.3300,63,95,179879
1.9257,0.3666,40.2000,63,95,179884
1.8915,0.3666,40.2000,63,95,179887
1.9306,0.3763,40.4000,63,95,179890
1.9110,0.3715,39.9600,63,95,179894
1.8768,0.3617,40.2000,63,95,179898
1.8719,0.3666,40.4000,63,95,179902
1.8817,0.3715,40.2600,63,95,179905
1.8524,0.3617,40.1600,63,95,179908
1.8817,0.4008,40.0000,63,95,179911
1.8475,0.3666,40.1000,63,95,179915
1.8475,0.3617,40.2300,63,95,179918
1.8622,0.3715,40.2300,63,95,179921
1.8768,0.3666,40.3000,63,95,179926
1.9404,0.3812,40.0300,63,95,179929
1.9062,0.3715,40.1600,63,95,179932
1.8964,0.3666,40.1600,63,95,179936
1.8817,0.3666,40.3000,63,95,179939
1.8719,0.3666,40.2000,63,95,179942
1.8964,0.3812,40.1600,63,95,179946
1.8475,0.3666,40.2600,63,95,179949
1.8475,0.3715,40.1000,63,95,179952
1.8280,0.3666,40.3000,63,95,179955
1.8182,0.3910,40.3600,63,95,179959
1.8328,0.3666,40.2000,63,95,179962
1.8133,0.3666,40.2000,63,95,179965
1.8475,0.3715,40.1300,63,95,179970
1.8231,0.3666,40.2600,63,95,179973
1.8280,0.3470,40.2300,63,95,179976
1.8426,0.3763,40.1600,63,95,179980
1.8035,0.3666,40.2000,63,95,179983
1.8231,0.3715,40.0600,63,95,179986
1.8084,0.3715,40.1300,63,95,179990
1.8133,0.3617,40.2300,63,95,179993
1.8573,0.3715,40.1300,63,95,179996
1.8328,0.3666,39.6400,63,95,180000
1.8719,0.3812,40.0300,63,95,180003
1.8280,0.3666,39.6700,63,95,180006
1.8035,0.3617,40.3600,63,95,180009
1.8035,0.3666,40.2300,63,95,180014
1.8035,0.3666,40.3300,63,95,180017
1.8622,0.3812,40.1000,63,95,180020
1.8231,0.3715,40.2000,63,95,180024
1.8035,0.3812,40.1600,63,95,180027
1.8084,0.3666,40.2000,63,95,180030
1.8035,0.3666,39.8600,63,95,180034
1.8475,0.3812,40.1000,63,95,180037
1.8035,0.3666,40.2300,63,95,180040
1.8035,0.3666,40.1600,63,95,180044
1.8084,0.3470,40.2000,63,95,180047
1.8231,0.3666,40.2300,63,95,180050
1.8768,0.3763,40.0600,63,95,180054
1.8622,0.3666,40.2300,63,95,180058
1.8866,0.3715,40.2000,63,95,180061
1.8671,0.3617,40.2000,63,95,180064
1.8231,0.3666,40.2300,63,95,180068
1.8280,0.3666,40.1300,63,95,180071
1.8035,0.3666,40.4000,63,95,180074
1.8328,0.3715,40.1000,63,95,180078
1.8280,0.3666,40.1600,63,95,180081
1.8377,0.3617,40.2000,63,95,180084
1.8622,0.3666,40.1600,63,95,180088
1.8280,0.3617,40.2600,63,95,180091
1.8475,0.3715,40.0300,63,95,180094
1.8084,0.3617,40.2000,63,95,180098
1.8231,0.3666,39.5400,63,95,180102
1.8524,0.3715,40.1600,63,95,180105
1.8377,0.3666,40.5000,63,95,180108
1.8964,0.3763,39.9600,63,95,180112
1.8524,0.3715,40.1300,63,95,180115
1.8475,0.3617,40.2300,63,95,180118
1.8573,0.3666,40.2000,63,95,180122
1.8475,0.3666,40.2600,63,95,180125
1.8964,0.3861,40.1000,63,95,180128
1.8426,0.3812,40.3000,63,95,180132
1.8377,0.3666,40.1600,63,95,180135
1.8035,0.3666,40.3000,63,95,180139
1.8035,0.3617,40.2300,63,95,180142
1.8475,0.3763,40.1600,63,95,180146
1.8280,0.3763,40.2300,63,95,180149
1.8524,0.3715,40.1000,63,95,180152
1.8328,0.3666,40.1300,63,95,180156
1.8377,0.3666,40.2600,63,95,180159
1.8475,0.3666,40.2000,63,95,180162
1.8377,0.3470,40.2300,63,95,180166
1.8573,0.3715,40.1300,63,95,180169
1.8671,0.3666,40.2300,63,95,180172
1.8328,0.3666,40.2300,63,95,180176
1.8817,0.3666,40.1300,63,95,180179
1.8426,0.3715,40.3600,63,95,180183
1.8866,0.3715,40.0300,63,95,180187
1.8671,0.3715,40.0300,63,95,180190
1.8719,0.3568,40.2300,63,95,180193
1.8573,0.3715,40.1600,63,95,180196
1.8377,0.3568,40.3000,63,95,180200
1.8768,0.3763,40.0000,63,95,180203
1.8475,0.3763,40.1000,63,95,180206
1.8426,0.3715,40.2600,63,95,180210
1.8426,0.3666,40.2600,63,95,180213
1.8280,0.3666,40.2300,63,95,180216
1.8866,0.3861,40.0000,63,95,180220
1.8475,0.3666,40.2000,63,95,180224
1.8377,0.3617,40.2600,63,95,180227
1.8280,0.3715,40.2300,63,95,180231
1.8231,0.3666,40.2300,63,95,180234
1.8524,0.3763,40.1300,63,95,180237
1.8133,0.3666,40.3000,63,95,180240
1.8182,0.3715,40.1000,63,95,180244
1.8133,0.3666,40.2000,63,95,180247
1.8328,0.3617,40.2600,63,95,180250
1.8768,0.3763,40.1600,63,95,180254
1.8426,0.3617,40.2300,63,95,180257
1.8573,0.3715,40.2000,63,95,180260
1.8231,0.3617,40.1600,63,95,180264
1.8280,0.3617,40.2300,63,95,180268
1.8671,0.3715,40.2000,63,95,180271
1.8524,0.3666,40.3000,63,95,180275
1.8964,0.3715,40.0600,63,95,180278
1.8866,0.3715,40.2000,63,95,180281
1.8768,0.3666,40.2600,63,95,180285
1.8915,0.3715,40.1600,63,95,180288
1.8719,0.3666,40.2600,63,95,180291
1.9208,0.3763,40.0000,63,95,180294
1.8915,0.3666,40.2300,63,95,180298
1.9110,0.3617,40.3300,63,95,180301
1.9208,0.3666,40.2000,63,95,180304
1.9257,0.3666,40.2600,63,95,180308
2.0186,0.3666,40.1000,63,95,180312
1.9599,0.3715,40.2000,63,95,180315
1.9599,0.3617,40.4000,63,95,180319
1.9599,0.3470,40.2300,63,95,180322
1.9404,0.3666,40.3300,63,95,180325
1.9501,0.3715,40.1000,63,95,180329
1.8915,0.3666,40.2000,63,95,180332
1.8817,0.3666,40.1300,63,95,180335
1.8671,0.3666,40.3000,63,95,180338
1.8671,0.3666,40.3000,63,95,180342
1.9013,0.3715,40.1000,63,95,180345
1.8622,0.3666,40.2300,63,95,180348
1.8768,0.3715,40.1300,63,95,180353
1.8475,0.3568,40.2300,63,95,180356
1.8133,0.3617,40.3000,63,95,180359
1.8084,0.3666,40.2300,63,95,180363
1.7937,0.3666,40.4000,63,95,180366
1.8182,0.3666,40.1600,63,95,180369
1.7791,0.3666,40.3300,63,95,180373
1.7595,0.3617,40.2600,63,95,180376
1.7644,0.3715,40.2000,63,95,180379
1.7449,0.3568,40.2300,63,95,180382
1.8035,0.3763,40.0300,63,95,180386
1.8084,0.3763,40.2300,63,95,180389
1.7986,0.3470,40.3300,63,95,180392
1.8035,0.3715,40.2300,63,95,180397
1.7693,0.3666,40.2300,63,95,180400
1.8084,0.3812,39.9300,63,95,180403
1.7791,0.3763,40.1300,63,95,180407
1.7742,0.3959,40.2300,63,95,180410
1.7986,0.3666,40.2600,63,95,180413
1.7937,0.3666,40.2000,63,95,180417
1.8475,0.3861,40.1000,63,95,180420
1.7546,0.3666,40.2000,63,95,180423
1.7253,0.3666,40.2000,63,95,180427
1.6911,0.3715,40.3000,63,95,180430
1.6520,0.3715,40.3000,63,95,180433
1.6716,0.3763,40.1600,63,95,180436
1.7009,0.3666,40.3000,63,95,180441
1.8328,0.3715,40.1600,63,95,180444
1.9990,0.3666,40.3000,63,95,180447
2.2630,0.3568,40.2300,63,95,180451
2.5415,0.3763,40.2000,63,95,180454
2.7077,0.3715,40.2000,63,95,180457
2.8983,0.3666,40.1300,63,95,180461
2.9668,0.3715,40.1600,63,95,180464
3.0010,0.3617,40.2300,63,95,180467
3.0303,0.3715,40.0600,63,95,180471
2.9521,0.3812,40.3000,63,95,180474
2.9179,0.3715,40.0300,63,95,180477
2.7419,0.3666,40.1600,63,95,180481
2.5660,0.3617,40.2300,63,95,180485
2.3607,0.3715,40.3000,63,95,180488
2.1359,0.3666,40.2300,63,95,180491
2.0039,0.3812,40.0600,63,95,180495
1.8231,0.4154,40.1300,63,95,180498
1.7058,0.3617,40.2600,63,95,180501
1.6276,0.3666,40.2300,63,95,180505
1.5054,0.3666,40.2300,63,95,180509
1.4858,0.3666,40.2300,63,95,180513
1.4956,0.3959,40.1000,63,95,180516
1.4809,0.3617,40.3000,63,95,180519
1.5103,0.3715,40.1000,63,95,180524
1.5103,0.3568,40.3000,63,95,180527
1.5298,0.3617,40.2600,63,95,180530
1.5640,0.3715,40.1300,63,95,180534
1.5543,0.3666,40.2000,63,95,180537
1.5787,0.3666,40.0600,63,95,180540
1.5640,0.3666,40.2000,63,95,180543
1.5640,0.3666,40.2600,63,95,180547
1.5934,0.3715,40.1000,63,95,180550
1.5885,0.3715,40.2300,63,95,180553
1.6373,0.3812,40.1000,63,95,180557
1.6276,0.3617,40.3000,63,95,180560
1.6422,0.3666,40.2300,63,95,180563
1.6618,0.3666,40.2600,63,95,180568
1.6667,0.3470,40.2300,63,95,180571
1.7009,0.3812,39.9600,63,95,180574
1.6716,0.3666,40.2300,63,95,180578
1.6618,0.3617,40.2300,63,95,180581
1.6667,0.3715,40.2300,63,95,180584
1.6764,0.3666,40.3000,63,95,180587
1.7400,0.3861,39.8300,63,95,180591
1.7204,0.3666,40.1600,63,95,180594
1.7253,0.3666,40.1600,63,95,180597
1.7253,0.3715,40.2300,63,95,180601
1.7253,0.3666,40.2300,63,95,180604
1.7498,0.3910,40.1000,63,95,180608
1.7302,0.3470,40.3000,63,95,180612
1.7546,0.3715,40.1000,63,95,180615
1.7400,0.3666,40.3000,63,95,180618
1.7498,0.3666,40.2300,63,95,180622
1.7742,0.3666,40.4000,63,95,180625
1.7791,0.3715,40.2300,63,95,180628
1.8133,0.3763,40.1600,63,95,180631
1.7791,0.3666,40.1600,63,95,180635
1.7791,0.3617,40.2300,63,95,180638
1.7986,0.3763,40.1600,63,95,180641
1.7742,0.3666,40.3300,63,95,180645
1.7840,0.3763,40.0600,63,95,180648
1.7595,0.3763,40.1600,63,95,180652
1.7498,0.3617,40.1600,63,95,180656
1.7889,0.3763,40.2300,63,95,180659
1.7791,0.3617,40.2000,63,95,180662
1.8622,0.3763,40.1000,63,95,180666
1.7937,0.3666,40.2000,63,95,180669
1.7791,0.3715,40.3600,63,95,180672
1.7889,0.3715,40.2000,63,95,180675
1.7840,0.3666,40.2300,63,95,180679
1.8377,0.3861,40.0300,63,95,180682
1.8035,0.3715,40.1600,63,95,180685
1.7986,0.3812,40.2000,63,95,180689
1.8133,0.3666,40.2000,63,95,180692
1.8182,0.3666,40.2000,63,95,180696
1.8719,0.3763,40.0600,63,95,180700
1.8231,0.3666,40.3000,63,95,180703
1.8182,0.3666,40.1300,63,95,180706
1.7986,0.3666,40.2600,63,95,180710
1.7889,0.3910,40.1600,63,95,180713
1.8231,0.3812,40.1000,63,95,180716
1.7889,0.3666,40.2300,63,95,180719
1.8231,0.3666,40.2000,63,95,180723
1.8133,0.3617,40.2600,63,95,180726
1.8475,0.3715,40.2300,63,95,180729
1.9062,0.3715,40.2300,63,95,180733
1.8475,0.3666,40.2600,63,95,180737
1.8671,0.4057,40.1600,63,95,180740
1.8475,0.3666,40.1600,63,95,180744
1.8426,0.3666,40.3600,63,95,180747
1.8622,0.3763,40.2300,63,95,180750
1.8377,0.3666,40.3000,63,95,180754
1.8817,0.3763,40.0000,63,95,180757
1.8426,0.3763,40.1600,63,95,180760
1.8426,0.3666,40.2300,63,95,180764
1.8671,0.3861,40.2600,63,95,180767
1.8573,0.3666,40.2300,63,95,180770
1.9159,0.3959,39.9600,63,95,180774
1.8915,0.3763,40.1300,63,95,180777
1.8866,0.3617,40.2000,63,95,180781
1.9062,0.3666,40.2300,63,95,180784
1.9110,0.3812,40.2300,63,95,180788
1.9599,0.3763,40.0600,63,95,180791
1.9208,0.3666,40.2300,63,95,180794
1.9208,0.3666,40.1600,63,95,180798
1.8964,0.3666,40.4300,63,95,180801
1.9013,0.3617,40.2300,63,95,180804
1.9257,0.3715,40.1300,63,95,180808
1.9159,0.3666,40.2300,63,95,180811
1.9453,0.3763,39.8000,63,95,180814
1.9306,0.3568,40.2300,63,95,180818
1.9159,0.3666,40.2600,63,95,180822
1.9013,0.3861,40.2300,63,95,180825
1.8768,0.3666,40.2300,63,95,180828
1.8866,0.3666,40.0600,63,95,180832
1.8622,0.3666,40.3000,63,95,180835
1.8768,0.3617,40.2600,63,95,180838
1.9257,0.3666,40.1600,63,95,180842
1.9110,0.3666,40.3000,63,95,180845
1.9453,0.3763,40.0300,63,95,180848
1.8915,0.3715,40.1300,63,95,180852
1.8475,0.3715,40.3000,63,95,180855
1.8573,0.3715,40.1300,63,95,180858
1.8524,0.3617,40.2000,63,95,180862
1.9159,0.3812,39.9600,63,95,180866
1.8964,0.3763,40.1300,63,95,180869
1.8866,0.3617,40.3000,63,95,180873
1.8817,0.3666,40.1000,63,95,180876
1.8622,0.3763,40.3300,63,95,180879
1.9013,0.3861,40.1000,63,95,180882
1.8426,0.3715,40.1600,63,95,180886
1.8280,0.3666,40.2000,63,95,180889
1.8328,0.3666,40.2300,63,95,180892
1.8573,0.3666,40.3000,63,95,180896
1.9013,0.3763,40.1300,63,95,180899
1.8768,0.3715,40.1600,63,95,180902
1.8915,0.3666,40.1300,63,95,180907
1.8622,0.3470,40.3300,63,95,180910
1.8426,0.3666,40.2300,63,95,180913
1.8573,0.3666,40.1000,63,95,180917
1.8231,0.3666,40.3300,63,95,180920
1.8524,0.3715,40.1000,63,95,180923
1.8280,0.3666,40.1600,63,95,180927
1.8280,0.3617,40.2000,63,95,180930
1.8475,0.3715,40.0300,63,95,180933
1.8231,0.3715,40.3000,63,95,180936
1.8622,0.3715,40.1000,63,95,180940
1.8377,0.3666,40.2000,63,95,180943
1.8671,0.3617,40.2300,63,95,180946
1.8524,0.3715,39.6000,63,95,180951
1.8280,0.3715,40.3000,63,95,180954
1.8671,0.3763,40.0000,63,95,180957
1.8231,0.3910,40.1600,63,95,180961
1.8133,0.3617,40.2300,63,95,180964
1.8426,0.3666,40.2300,63,95,180967
1.8426,0.3617,40.2300,63,95,180971
1.8866,0.4106,40.1000,63,95,180974
1.8377,0.3666,40.1600,63,95,180977
1.8182,0.3666,40.0600,63,95,180980
1.8133,0.3666,40.2300,63,95,180984
1.8231,0.3666,40.2000,63,95,180987
1.8671,0.3666,40.0600,63,95,180990
1.8426,0.3666,40.2600,63,95,180995
1.8524,0.3715,40.1000,63,95,180998
1.8231,0.3666,40.3000,63,95,181001
1.8182,0.3617,40.2300,63,95,181005
1.8524,0.3763,40.2000,63,95,181008
1.8280,0.3715,40.2300,63,95,181011
1.8671,0.3715,40.2300,63,95,181015
1.8328,0.3617,40.2300,63,95,181018
1.8328,0.3666,40.4000,63,95,181021
1.8475,0.3715,40.1600,63,95,181025
1.8328,0.3715,40.2300,63,95,181028
1.8622,0.3715,40.2300,63,95,181031
1.8231,0.3617,40.2600,63,95,181035
1.8182,0.3666,40.3000,63,95,181039
1.8328,0.3666,40.2000,63,95,181042
1.8133,0.3519,40.2300,63,95,181045
1.8671,0.3763,40.0000,63,95,181049
1.8622,0.3715,40.1600,63,95,181052
1.8671,0.3666,40.2600,63,95,181055
1.8866,0.3812,40.2000,63,95,181059
1.8817,0.3666,40.3000,63,95,181062
1.9110,0.3861,39.9600,63,95,181065
1.8622,0.3812,40.2300,63,95,181069
1.8377,0.3470,40.1600,63,95,181072
1.8231,0.3666,40.2000,63,95,181075
1.8084,0.3666,40.2300,63,95,181080
1.8475,0.3763,40.0000,63,95,181083
1.8231,0.3715,40.2000,63,95,181086
1.8426,0.3715,40.1000,63,95,181089
1.8377,0.3715,40.3000,63,95,181093
1.8426,0.3666,40.2300,63,95,181096
1.8573,0.3666,40.2000,63,95,181099
1.8328,0.3666,40.4000,63,95,181103
1.8475,0.3763,40.2000,63,95,181106
1.8182,0.3666,40.2600,63,95,181109
1.8280,0.3763,40.2000,63,95,181113
1.8622,0.3715,40.2000,63,95,181116
1.8231,0.3715,40.1600,63,95,181122
1.8377,0.3617,40.2300,63,95,181125
1.9110,0.3812,40.0300,63,95,181128
1.9013,0.3763,40.1600,63,95,181132
1.8866,0.3617,40.2300,63,95,181135
1.8719,0.3715,40.2300,63,95,181138
1.8475,0.3666,40.2600,63,95,181142
1.8719,0.3861,40.1000,63,95,181145
1.8084,0.3666,40.3000,63,95,181148
1.8084,0.3666,40.2000,63,95,181151
1.8182,0.3568,40.2300,63,95,181155
1.8328,0.3617,40.1600,63,95,181158
1.8768,0.3763,40.1600,63,95,181161
1.8524,0.3666,40.3000,63,95,181166
1.8671,0.3715,40.2000,63,95,181169
1.8231,0.3666,40.3000,63,95,181172
1.8084,0.3812,40.2300,63,95,181176
1.8426,0.3763,40.1300,63,95,181179
1.8280,0.3568,40.2300,63,95,181182
1.8671,0.3470,40.1300,63,95,181186
1.8573,0.3666,40.2300,63,95,181189
1.8866,0.3666,40.2000,63,95,181192
1.8866,0.3715,40.0600,63,95,181196
1.8524,0.3666,40.2300,63,95,181199
1.8768,0.3715,40.0300,63,95,181202
1.8377,0.3715,40.2600,63,95,181206
1.8280,0.3666,40.3300,63,95,181210
1.8475,0.3715,40.2000,63,95,181213
1.8377,0.3666,40.2300,63,95,181216
1.9062,0.3763,40.0000,63,95,181220
1.8719,0.3666,40.1600,63,95,181223
1.8622,0.3617,40.3300,63,95,181226
1.8622,0.3666,40.2300,63,95,181230
1.8524,0.3666,40.2000,63,95,181233
1.9355,0.3763,40.0600,63,95,181236
1.9110,0.3763,40.2600,63,95,181240
1.9208,0.3617,39.8000,63,95,181243
1.9257,0.3666,40.2300,63,95,181246
1.9208,0.3666,40.2300,63,95,181250
1.9404,0.3715,40.1000,63,95,181254
1.8915,0.3666,40.2000,63,95,181257
1.8964,0.3715,39.5100,63,95,181260
1.9013,0.3666,40.2300,63,95,181264
1.9208,0.3666,40.2000,63,95,181267
1.9697,0.3763,40.1300,63,95,181270
1.9550,0.3666,40.2600,63,95,181274
1.9697,0.3763,40.2000,63,95,181277
1.9208,0.3568,40.2600,63,95,181280
1.9110,0.3617,40.2300,63,95,181284
1.9208,0.3715,40.1600,63,95,181287
1.9110,0.3666,40.2300,63,95,181291
1.9306,0.3715,40.0600,63,95,181294
1.8915,0.3666,40.2300,63,95,181298
1.8817,0.3666,40.2000,63,95,181301
1.8964,0.3715,40.1600,63,95,181304
1.8671,0.3812,40.2300,63,95,181308
1.9013,0.3763,40.0300,63,95,181311
1.8524,0.3715,40.0000,63,95,181314
1.8231,0.3617,40.3600,63,95,181318
1.8133,0.3715,40.2600,63,95,181321
1.7986,0.3666,40.2600,63,95,181324
1.8231,0.3861,40.2000,63,95,181328
1.7889,0.3715,40.1300,63,95,181331
1.7546,0.3617,40.2000,63,95,181335
1.7644,0.3763,40.2300,63,95,181338
1.7595,0.3715,40.3000,63,95,181342
1.8182,0.3812,40.1300,63,95,181345
1.7937,0.3666,40.2300,63,95,181348
1.7986,0.3666,40.1300,63,95,181352
1.7791,0.3666,40.2600,63,95,181355
1.7693,0.3666,40.2300,63,95,181358
1.7840,0.3715,40.2600,63,95,181362
1.7742,0.3666,40.2000,63,95,181365
1.8035,0.3763,40.2300,63,95,181368
1.7889,0.3666,40.2000,63,95,181372
1.7986,0.3763,40.2300,63,95,181376
1.8133,0.3763,40.1300,63,95,181379
1.7644,0.3666,40.2300,63,95,181383
1.7449,0.3666,40.1600,63,95,181386
1.6862,0.3666,40.3000,63,95,181389
1.6813,0.3617,40.2300,63,95,181392
1.8035,0.3666,40.1300,63,95,181396
1.9013,0.3666,40.2300,63,95,181399
2.1359,0.3812,40.0300,63,95,181402
2.3265,0.3666,40.2300,63,95,181406
2.5464,0.3715,40.2300,63,95,181409
2.7566,0.3715,40.2300,63,95,181412
2.8935,0.3666,40.2300,63,95,181416
3.0792,0.3812,40.0300,63,95,181420
3.0596,0.4057,40.1600,63,95,181423
3.0205,0.3617,40.2000,63,95,181427
2.9521,0.3666,40.3000,63,95,181430
2.8152,0.3568,40.2300,63,95,181433
2.7370,0.3812,40.0600,63,95,181437
2.5171,0.3666,40.2600,63,95,181440
2.3363,0.3715,40.2300,63,95,181443
2.1359,0.3715,40.2600,63,95,181446
2.0088,0.3666,40.2300,63,95,181450
1.8866,0.3763,40.1000,63,95,181453
1.7595,0.3715,40.2600,63,95,181456
1.6569,0.3715,40.0600,63,95,181460
1.5543,0.3715,40.1600,63,95,181464
1.5054,0.3470,40.2300,63,95,181467
1.4907,0.3715,40.1300,63,95,181471
1.4858,0.3715,40.2300,63,95,181474
1.4712,0.3666,40.1300,63,95,181477
1.4418,0.3666,40.2000,63,95,181481
1.4663,0.3666,40.2600,63,95,181484
1.5298,0.3715,40.1300,63,95,181487
1.5152,0.3666,40.2600,63,95,181490
1.5591,0.4057,40.1000,63,95,181494
1.5347,0.3617,40.2000,63,95,181497
1.5347,0.3617,40.3000,63,95,181500
1.5298,0.3715,40.2600,63,95,181505
1.5249,0.3568,40.3000,63,95,181508
1.5885,0.3812,39.9600,63,95,181511
1.5836,0.3715,40.1300,63,95,181515
1.6031,0.3617,40.2600,63,95,181518
1.6373,0.3715,40.3600,63,95,181521
1.6520,0.3617,40.2300,63,95,181525
1.6911,0.4057,40.0600,63,95,181528
1.6471,0.3715,40.2000,63,95,181531
1.6325,0.3666,40.2000,63,95,181535
1.6227,0.3666,40.2000,63,95,181538
1.6325,0.3666,40.1300,63,95,181541
1.6667,0.3763,40.1000,63,95,181545
1.6471,0.3666,40.2000,63,95,181549
1.6716,0.3715,40.1600,63,95,181552
1.6569,0.3666,40.2300,63,95,181555
1.6618,0.3568,40.2300,63,95,181559
1.6911,0.3666,40.1600,63,95,181562
1.7107,0.3715,40.2300,63,95,181565
1.7546,0.3666,40.1000,63,95,181569
1.7498,0.3568,40.2600,63,95,181572
1.7498,0.3666,40.3000,63,95,181575
1.7595,0.3715,40.1300,63,95,181579
1.7302,0.3715,40.2600,63,95,181582
1.7595,0.3666,40.0600,63,95,181585
1.7449,0.3715,40.0600,63,95,181590
1.7253,0.3715,40.2300,63,95,181593
1.7400,0.3715,40.1600,63,95,181596
1.7449,0.3568,40.2600,63,95,181600
1.7986,0.3812,39.7000,63,95,181603
1.7791,0.3666,40.1300,63,95,181606
1.7546,0.3617,40.2000,63,95,181609
1.7644,0.3715,40.2600,63,95,181613
1.7693,0.3470,40.2600,63,95,181616
1.8328,0.3861,40.0600,63,95,181619
1.7889,0.3715,40.2300,63,95,181623
1.8035,0.3666,40.2300,63,95,181626
1.7937,0.3617,40.3000,63,95,181629
1.8035,0.3666,40.2000,63,95,181634
1.8426,0.3763,40.1300,63,95,181637
1.8182,0.3666,40.2300,63,95,181640
1.8182,0.3715,40.1600,63,95,181644
1.7840,0.3666,40.3300,63,95,181647
1.7693,0.3715,40.2300,63,95,181650
1.7986,0.3763,40.1300,63,95,181654
1.7791,0.4008,40.3000,63,95,181657
1.8182,0.3470,40.1300,63,95,181660
1.8084,0.3666,40.1600,63,95,181663
1.8035,0.3715,40.2600,63,95,181667
1.8182,0.3715,40.2300,63,95,181670
1.8280,0.3568,40.2000,63,95,181673
1.8426,0.3715,40.0600,63,95,181678
1.8377,0.3959,40.1000,63,95,181681
1.8377,0.3666,40.2300,63,95,181684
1.8377,0.3715,40.1600,63,95,181688
1.8426,0.3666,40.2600,63,95,181691
1.8622,0.3763,40.0000,63,95,181694
1.8328,0.3470,40.1600,63,95,181698
1.8328,0.3617,40.3300,63,95,181701
1.8426,0.3666,40.2000,63,95,181704
1.8377,0.3617,40.2000,63,95,181707
1.8817,0.3910,40.1000,63,95,181711
1.8377,0.3715,40.2300,63,95,181714
1.8328,0.3617,40.1600,63,95,181718
1.8426,0.3666,40.3000,63,95,181722
1.8475,0.3715,40.2300,63,95,181725
1.8768,0.3763,40.0600,63,95,181728
1.8768,0.3715,40.2000,63,95,181732
1.8671,0.3568,40.2000,63,95,181735
1.9013,0.3666,40.1000,63,95,181739
1.8915,0.4106,40.1600,63,95,181742
1.9062,0.3568,40.2600,63,95,181745
1.9013,0.3715,40.2300,63,95,181749
1.8866,0.3715,40.2300,63,95,181752
1.9257,0.3763,40.1000,63,95,181755
1.8866,0.3617,40.1600,63,95,181760
1.8817,0.3666,40.2300,63,95,181763
1.9208,0.3763,40.2600,63,95,181766
1.8719,0.3666,40.2600,63,95,181769
1.9062,0.3861,40.0300,63,95,181773
1.8768,0.3763,40.1300,63,95,181776
1.8719,0.3763,40.1300,63,95,181779
1.9013,0.3666,40.2300,63,95,181783
1.9013,0.3861,40.2300,63,95,181786
1.9453,0.3861,40.1300,63,95,181789
1.8866,0.3715,40.2000,63,95,181793
1.8719,0.3470,40.1300,63,95,181796
1.8573,0.3666,40.2300,63,95,181799
1.8475,0.3666,40.2300,63,95,181804
1.8719,0.3763,40.2300,63,95,181807
1.8280,0.3715,40.2000,63,95,181810
1.8524,0.3715,40.1000,63,95,181814
1.8280,0.3617,40.3600,63,95,181817
1.8182,0.3666,40.2300,63,95,181820
1.8280,0.3715,40.2600,63,95,181823
1.8377,0.3666,40.2600,63,95,181827
1.8719,0.3666,40.2000,63,95,181830
1.8622,0.3666,40.2000,63,95,181833
1.8524,0.3812,40.2300,63,95,181837
1.8719,0.3715,40.0600,63,95,181840
1.8377,0.3715,40.2000,63,95,181843
1.8719,0.3470,40.0300,63,95,181848
1.8524,0.3715,40.2000,63,95,181851
1.8475,0.3666,40.2300,63,95,181854
1.8524,0.3763,40.2000,63,95,181858
1.8280,0.3617,40.2300,63,95,181861
1.8622,0.3812,39.9300,63,95,181864
1.8182,0.3715,40.1000,63,95,181868
1.7937,0.3617,40.2000,63,95,181871
1.7937,0.3666,40.2000,63,95,181874
1.7986,0.3666,40.2600,63,95,181877
1.8475,0.3861,40.0600,63,95,181881
1.7986,0.3666,40.1600,63,95,181884
1.7986,0.3666,40.2300,63,95,181888
1.8133,0.3715,40.2600,63,95,181892
1.8231,0.3666,40.2600,63,95,181895
1.8524,0.3763,40.2300,63,95,181898
1.8133,0.3666,40.0600,63,95,181902
1.8084,0.3568,40.1300,63,95,181905
1.7840,0.3666,40.2600,63,95,181908
1.7889,0.3666,40.3000,63,95,181912
1.8377,0.3763,40.1600,63,95,181915
1.8231,0.3763,40.2000,63,95,181918
1.8573,0.3470,40.2000,63,95,181921
1.8475,0.3666,40.2600,63,95,181925
1.8768,0.3568,40.2600,63,95,181928
1.8768,0.3715,40.0600,63,95,181932
1.8377,0.3617,40.2300,63,95,181936
1.8573,0.3715,40.0600,63,95,181939
1.8231,0.3715,40.1600,63,95,181942
1.8133,0.3666,40.2300,63,95,181946
1.8182,0.3861,40.2000,63,95,181949
1.7937,0.3666,40.3000,63,95,181952
1.8328,0.3763,40.0300,63,95,181956
1.7889,0.3715,40.2000,63,95,181959
1.7791,0.3617,40.3000,63,95,181962
1.8035,0.3715,40.2300,63,95,181966
1.8231,0.3666,40.2300,63,95,181969
1.8964,0.3959,40.0000,63,95,181972
1.8671,0.3715,40.1600,63,95,181976
1.8524,0.3617,40.1300,63,95,181980
1.8475,0.3666,40.2300,63,95,181983
1.8377,0.3715,40.3600,63,95,181986
1.8622,0.3763,40.1600,63,95,181990
1.8377,0.3666,40.2000,63,95,181993
1.8280,0.3666,40.1300,63,95,181996
1.7986,0.3666,40.2000,63,95,182000
1.8231,0.3666,40.2300,63,95,182003
1.8133,0.3763,40.3600,63,95,182006
1.8231,0.3666,40.3000,63,95,182010
1.8231,0.3763,40.1300,63,95,182013
1.8328,0.3568,40.2300,63,95,182017
1.8035,0.3666,40.3000,63,95,182021
1.8084,0.3763,40.2300,63,95,182024
1.8182,0.3666,40.2600,63,95,182027
1.8573,0.3715,40.1600,63,95,182030
1.8377,0.3617,40.3600,63,95,182034
1.8328,0.3763,40.2000,63,95,182037
1.8524,0.3763,40.2300,63,95,182040
1.8328,0.3617,40.2600,63,95,182044
1.8719,0.3763,40.0600,63,95,182047
1.8328,0.3715,40.1300,63,95,182050
1.8280,0.3617,40.2300,63,95,182054
1.8573,0.3715,40.2000,63,95,182057
1.8475,0.3617,40.2300,63,95,182061
1.9110,0.3861,40.1000,63,95,182065
1.8768,0.3763,40.2300,63,95,182068
1.8280,0.3666,40.4000,63,95,182071
1.8133,0.3715,40.2000,63,95,182075
1.7693,0.3666,40.2300,63,95,182078
1.8280,0.4106,40.1300,63,95,182081
1.8328,0.3666,40.2300,63,95,182084
1.8573,0.3666,40.1300,63,95,182088
1.8280,0.3666,40.3600,63,95,182091
1.8182,0.3666,40.2300,63,95,182094
1.8524,0.3715,40.2300,63,95,182098
1.8377,0.3666,40.3000,63,95,182102
1.8719,0.3763,40.1300,63,95,182105
1.8671,0.3666,40.2300,63,95,182109
1.8524,0.3666,40.2300,63,95,182112
1.8671,0.3812,40.1000,63,95,182115
1.8328,0.3666,40.3000,63,95,182119
1.8622,0.3763,40.0300,63,95,182122
1.8475,0.3666,40.1300,63,95,182125
1.8426,0.3666,40.2300,63,95,182128
1.8719,0.3812,40.1300,63,95,182132
1.8182,0.3666,40.3300,63,95,182135
1.8475,0.3715,40.0300,63,95,182138
1.8328,0.3666,39.6700,63,95,182142
1.8475,0.3715,40.3000,63,95,182146
1.8768,0.3666,40.3000,63,95,182149
1.8573,0.3666,40.2600,63,95,182153
1.9062,0.3666,39.9600,63,95,182156
1.8671,0.3715,40.1600,63,95,182159
1.8573,0.3617,40.2000,63,95,182163
1.8524,0.3666,40.3000,63,95,182166
1.8377,0.3666,40.3000,63,95,182169
1.8671,0.3812,40.1600,63,95,182173
1.8280,0.3715,40.2300,63,95,182176
1.8328,0.3666,40.1000,63,95,182179
1.8231,0.3666,40.2300,63,95,182183
1.8328,0.3666,40.3000,63,95,182187
1.8817,0.3763,40.1300,63,95,182190
1.8573,0.3519,40.3600,63,95,182193
1.8866,0.3666,40.1300,63,95,182197
1.8475,0.3617,40.2000,63,95,182200
1.8475,0.3568,40.2300,63,95,182203
1.9062,0.3715,40.2600,63,95,182207
1.9257,0.3666,40.2300,63,95,182210
1.9795,0.3715,40.1600,63,95,182213
1.9746,0.3715,40.2000,63,95,182217
1.9697,0.3617,40.1300,63,95,182220
1.9892,0.3763,40.1600,63,95,182223
1.9795,0.3666,40.2300,63,95,182227
2.0235,0.3812,40.0600,63,95,182231
1.9795,0.3666,40.2300,63,95,182234
1.9648,0.3715,40.3000,63,95,182238
1.9501,0.3666,40.2300,63,95,182241
1.9110,0.3568,40.2300,63,95,182244
1.9208,0.3910,40.0000,63,95,182247
1.8280,0.3715,40.1600,63,95,182251
1.7937,0.3666,40.1600,63,95,182254
1.7937,0.3666,40.2300,63,95,182257
1.8133,0.3666,40.2300,63,95,182261
1.8817,0.3763,40.1000,63,95,182264
1.8524,0.3959,40.2300,63,95,182267
1.8573,0.3666,40.1600,63,95,182272
1.8328,0.3959,40.2300,63,95,182275
1.8182,0.3470,40.2300,63,95,182278
1.8231,0.3715,40.1000,63,95,182282
1.7986,0.3666,40.2600,63,95,182285
1.8231,0.3715,40.0600,63,95,182288
1.8035,0.3568,40.2000,63,95,182291
1.8035,0.3617,40.2300,63,95,182295
1.7986,0.3666,40.2000,63,95,182298
1.7791,0.3666,40.3000,63,95,182301
1.7693,0.3666,40.1300,63,95,182305
1.7253,0.3666,40.3300,63,95,182308
1.7155,0.3959,40.3000,63,95,182311
1.7302,0.3666,40.1600,63,95,182316
1.7351,0.3666,40.2000,63,95,182319
1.7986,0.3763,40.1000,63,95,182322
1.7889,0.3715,40.1600,63,95,182326
1.7889,0.3568,40.2600,63,95,182329
1.7742,0.3715,40.2000,63,95,182332
1.7498,0.3666,40.2000,63,95,182336
1.7791,0.3812,39.8900,63,95,182339
1.9453,0.3715,40.1300,63,95,182343
2.1310,0.3666,40.3300,63,95,182346
2.3851,0.3910,40.1000,63,95,182349
2.5953,0.3666,40.3000,63,95,182353
2.7810,0.3666,40.2000,63,95,182356
2.9472,0.3715,40.2000,63,95,182360
3.0205,0.3666,40.2300,63,95,182363
3.0890,0.3763,40.1300,63,95,182367
3.0010,0.3666,40.2300,63,95,182370
2.8886,0.3666,40.4000,63,95,182373
2.7810,0.3715,40.2000,63,95,182377
2.5806,0.3666,40.2300,63,95,182380
2.4389,0.3715,40.0300,63,95,182383
2.2581,0.3715,40.1300,63,95,182387
2.0381,0.3666,40.1600,63,95,182390
1.8964,0.3763,40.2000,63,95,182393
1.7595,0.3666,40.2300,63,95,182396
1.7009,0.3763,40.0000,63,95,182401
1.6031,0.3666,40.1600,63,95,182404
1.5494,0.3617,40.3300,63,95,182407
1.5249,0.3617,40.2300,63,95,182411
1.5005,0.3666,40.2600,63,95,182414
1.5298,0.3812,40.0000,63,95,182417
1.4858,0.3763,40.1600,63,95,182421
1.4712,0.3617,40.2000,63,95,182424
1.4712,0.3715,40.2600,63,95,182427
1.4663,0.3617,40.3000,63,95,182431
1.5054,0.3812,40.1000,63,95,182434
1.4858,0.3666,40.2000,63,95,182437
1.5005,0.3666,40.4300,63,95,182440
1.5054,0.3666,40.2300,63,95,182445
1.5152,0.3666,40.2300,63,95,182448
1.5543,0.3763,40.1300,63,95,182451
1.5445,0.3861,40.1600,63,95,182455
1.5836,0.3715,40.1000,63,95,182458
1.5591,0.3568,40.0600,63,95,182461
1.5738,0.3617,40.3000,63,95,182465
1.5982,0.3666,40.1600,63,95,182468
1.5787,0.3715,40.2000,63,95,182471
1.6031,0.3666,40.1000,63,95,182475
1.5836,0.3666,40.2300,63,95,182478
1.5885,0.3617,40.2600,63,95,182481
1.6129,0.3666,40.3000,63,95,182486
1.6080,0.3715,40.2300,63,95,182489
1.6422,0.3715,40.0600,63,95,182492
1.6471,0.3568,40.2300,63,95,182495
1.6227,0.3617,40.2600,63,95,182499
1.6520,0.3763,40.2600,63,95,182502
1.6569,0.3666,40.3000,63,95,182505
1.7155,0.3763,39.9600,63,95,182509
1.7058,0.3666,40.1600,63,95,182512
1.7155,0.3617,40.5300,63,95,182515
1.7498,0.3666,40.3000,63,95,182519
1.7644,0.3763,40.3600,63,95,182522
1.8231,0.3812,40.0300,63,95,182525
1.7937,0.3666,40.3000,63,95,182530
1.7937,0.3715,40.2300,63,95,182533
1.7644,0.3666,40.3000,63,95,182536
1.7400,0.3666,40.2300,63,95,182539
1.7498,0.3470,40.2000,63,95,182543
1.7253,0.3666,40.4000,63,95,182546
1.7595,0.3715,40.1300,63,95,182549
1.7546,0.3666,40.4300,63,95,182553
1.7693,0.3568,40.2600,63,95,182556
1.7937,0.3666,40.3000,63,95,182559
1.7889,0.4008,40.2600,63,95,182563
1.8671,0.3715,40.1300,63,95,182566
1.8035,0.3715,40.3300,63,95,182569
1.7986,0.3470,40.2300,63,95,182574
1.8084,0.3666,40.1000,63,95,182577
1.7791,0.3666,40.2000,63,95,182580
1.8133,0.3715,40.0600,63,95,182584
1.8084,0.4203,40.1600,63,95,182587
1.8035,0.3666,40.2600,63,95,182590
1.8231,0.3715,40.2000,63,95,182593
1.7937,0.3666,40.3000,63,95,182597
1.8426,0.3763,40.0000,63,95,182600
1.8084,0.3715,40.2300,63,95,182603
1.8084,0.3666,40.2300,63,95,182607
1.8133,0.3666,40.2000,63,95,182610
1.7986,0.3715,40.2300,63,95,182614
1.8524,0.3861,40.0600,63,95,182618
1.8231,0.3715,40.2600,63,95,182621
1.8182,0.3617,40.2000,63,95,182624
1.8084,0.3715,40.2300,63,95,182628
1.8084,0.3666,40.1300,63,95,182631
1.8622,0.3861,40.2300,63,95,182634
1.8426,0.3666,40.3000,63,95,182637
1.8573,0.3666,40.1600,63,95,182641
1.8475,0.3666,40.3300,63,95,182644
1.8475,0.3568,40.2000,63,95,182647
1.8866,0.3763,40.1300,63,95,182651
1.8622,0.3666,40.2000,63,95,182654
1.8915,0.3763,40.1300,63,95,182658
1.8524,0.3617,40.1600,63,95,182662
1.8622,0.3666,40.2300,63,95,182665
1.9062,0.3666,40.2000,63,95,182668
1.8524,0.3666,40.3000,63,95,182672
1.8817,0.3715,40.0600,63,95,182675
1.8768,0.3666,40.3000,63,95,182678
1.8817,0.3666,40.2300,63,95,182682
1.9159,0.3715,40.1600,63,95,182685
1.8964,0.3666,40.2600,63,95,182688
1.9404,0.3910,40.0300,63,95,182691
1.9013,0.3666,40.1600,63,95,182695
1.8964,0.3666,40.2300,63,95,182699
1.9013,0.3470,40.2600,63,95,182702
1.8768,0.3666,40.2000,63,95,182706
1.9550,0.3666,40.0300,63,95,182709
1.9208,0.3763,40.1600,63,95,182712
1.9257,0.3568,40.2000,63,95,182716
1.9306,0.3666,40.3300,63,95,182719
1.9306,0.3666,40.2000,63,95,182722
1.9746,0.3763,40.1000,63,95,182726
1.9257,0.3715,40.2300,63,95,182729
1.9062,0.3715,40.1300,63,95,182732
1.8866,0.3666,40.2300,63,95,182735
1.8866,0.3910,40.2000,63,95,182739
1.9257,0.3763,40.1000,63,95,182743
1.8964,0.3666,40.2000,63,95,182746
1.9453,0.3763,40.1000,63,95,182750
1.8768,0.3666,40.2300,63,95,182753
1.8671,0.3617,40.2300,63,95,182756
1.8671,0.3666,40.1600,63,95,182760
1.8475,0.3666,40.3600,63,95,182763
1.8671,0.3715,40.1000,63,95,182766
1.8426,0.3617,40.2300,63,95,182770
1.8182,0.3666,40.3300,63,95,182773
1.8475,0.3715,40.1000,63,95,182776
1.8280,0.3666,40.2300,63,95,182780
1.8671,0.4008,40.0300,63,95,182784
1.8622,0.3470,40.1000,63,95,182787
1.8524,0.3666,40.1600,63,95,182790
1.8719,0.3715,40.2000,63,95,182794
1.8524,0.3666,40.2600,63,95,182797
1.9306,0.3812,39.9600,63,95,182800
1.8915,0.3666,40.1600,63,95,182804
1.8915,0.3568,40.2600,63,95,182807
1.8768,0.3666,40.1300,63,95,182810
1.8915,0.3617,40.3000,63,95,182814
1.9110,0.3910,40.1600,63,95,182817
1.8622,0.3666,40.2000,63,95,182820
1.8475,0.3666,40.1600,63,95,182824
1.8426,0.3666,40.3000,63,95,182828
1.8231,0.3666,40.2300,63,95,182831
1.8377,0.3715,40.1600,63,95,182834
1.8035,0.3470,40.2300,63,95,182838
1.8280,0.3715,40.1600,63,95,182841
1.8084,0.3666,40.2300,63,95,182844
1.8035,0.3666,40.4000,63,95,182848
1.8377,0.3763,40.1000,63,95,182851
1.7986,0.3666,40.1300,63,95,182854
1.8475,0.3715,40.2000,63,95,182858
1.8231,0.3666,40.1600,63,95,182861
1.8231,0.3666,40.2300,63,95,182864
1.8328,0.3715,40.1300,63,95,182868
1.8231,0.3763,40.2300,63,95,182872
1.8573,0.3715,40.1000,63,95,182875
1.8328,0.3715,40.1600,63,95,182879
1.8182,0.3617,40.3000,63,95,182882
1.8328,0.3763,40.2000,63,95,182885
1.8084,0.3666,40.2000,63,95,182888
1.8426,0.3763,40.0300,63,95,182892
1.7986,0.3715,40.1300,63,95,182895
1.7937,0.3617,40.2300,63,95,182898
1.8035,0.3666,40.3000,63,95,182902
1.7986,0.3666,40.2600,63,95,182905
1.8622,0.3910,40.1000,63,95,182908
1.8231,0.3715,40.2000,63,95,182913
1.8231,0.3666,40.1000,63,95,182916
1.8328,0.3666,40.2300,63,95,182919
1.8328,0.3666,40.2600,63,95,182923
1.8719,0.3763,40.1000,63,95,182926
1.8280,0.3715,40.2300,63,95,182929
1.8280,0.3666,40.1000,63,95,182933
1.7937,0.3666,40.4700,63,95,182936
1.8084,0.3568,40.3000,63,95,182939
1.8182,0.3763,40.1600,63,95,182942
1.7937,0.3666,40.2300,63,95,182946
1.8280,0.3715,39.7300,63,95,182949
1.8035,0.3715,40.0600,63,95,182952
1.8084,0.3617,40.2000,63,95,182957
1.8231,0.3617,40.2600,63,95,182960
1.8475,0.3470,40.2000,63,95,182964
1.8377,0.3666,40.1300,63,95,182967
1.8866,0.3812,40.1000,63,95,182970
1.8573,0.3715,40.1300,63,95,182974
1.8377,0.3617,40.2600,63,95,182977
1.8377,0.3666,40.1000,63,95,182980
1.8328,0.3715,40.2000,63,95,182984
1.8915,0.3861,40.1000,63,95,182987
1.8671,0.3666,40.2300,63,95,182990
1.8671,0.3666,40.2000,63,95,182993
1.8573,0.3715,40.2300,63,95,182998
1.8524,0.3666,40.3300,63,95,183001
1.8671,0.3763,40.1000,63,95,183004
1.8280,0.3666,40.2300,63,95,183008
1.8573,0.3666,40.1600,63,95,183011
1.8133,0.3666,40.2300,63,95,183014
1.8231,0.3568,40.2300,63,95,183018
1.8328,0.3666,40.1600,63,95,183021
1.8280,0.3666,40.2300,63,95,183024
1.8573,0.3715,40.1000,63,95,183028
1.8377,0.3666,40.4300,63,95,183031
1.8426,0.3763,40.2600,63,95,183034
1.8524,0.3763,40.1300,63,95,183038
1.8377,0.3715,40.2300,63,95,183042
1.8622,0.3763,40.0300,63,95,183045
1.8377,0.3812,40.1600,63,95,183049
1.8231,0.3666,40.2300,63,95,183052
1.8328,0.3715,40.2300,63,95,183055
1.8133,0.3666,40.2600,63,95,183058
1.8671,0.3812,40.0300,63,95,183062
1.8426,0.3763,40.1300,63,95,183065
1.8426,0.3763,40.2000,63,95,183068
1.8622,0.3666,40.2600,63,95,183072
1.8524,0.3666,40.2600,63,95,183075
1.9110,0.3812,40.0600,63,95,183078
1.8475,0.3666,40.4300,63,95,183083
1.8426,0.3666,40.1600,63,95,183086
1.8328,0.3666,40.3600,63,95,183089
1.8377,0.3470,40.2300,63,95,183093
1.8622,0.3763,39.8900,63,95,183096
1.8524,0.3617,40.2300,63,95,183099
1.8671,0.3715,40.1300,63,95,183103
1.8377,0.3470,40.2300,63,95,183106
1.8280,0.3617,40.1600,63,95,183109
1.8622,0.3763,40.1600,63,95,183112
1.8426,0.3666,40.2600,63,95,183116
1.8817,0.3715,40.1000,63,95,183119
1.8866,0.3666,40.1300,63,95,183122
1.8866,0.3910,40.3600,63,95,183127
1.9013,0.3763,40.2000,63,95,183130
1.8671,0.3666,40.2300,63,95,183133
1.9013,0.3763,40.1000,63,95,183137
1.8719,0.3763,40.2000,63,95,183140
1.9062,0.3666,40.2300,63,95,183143
1.9208,0.3666,40.1600,63,95,183147
1.9208,0.3715,40.2300,63,95,183150
1.9844,0.3812,39.9600,63,95,183153
1.9550,0.3666,40.1600,63,95,183157
1.9355,0.3617,40.2300,63,95,183160
1.9404,0.3715,40.2300,63,95,183163
1.9404,0.3617,40.3000,63,95,183166
1.9990,0.3763,40.1000,63,95,183171
