ecg,gsr,temp,hr,spo2,timest
1.7058,0.4057,39.0000,74,93,335544
1.6911,0.4106,39.1200,74,93,335547
1.6862,0.4008,39.1200,74,93,335551
1.7204,0.4106,39.0000,74,93,335554
1.6911,0.4301,39.1200,74,93,335557
1.7107,0.4106,39.0300,74,93,335560
1.6911,0.3959,39.0900,74,93,335564
1.6862,0.4154,39.1200,74,93,335567
1.7058,0.4057,38.9300,74,93,335570
1.6911,0.4057,39.1200,74,93,335575
1.7107,0.4057,38.9600,74,93,335578
1.6960,0.4057,39.0600,74,93,335581
1.7009,0.3959,39.1200,74,93,335585
1.7155,0.4106,39.0600,74,93,335588
1.7058,0.4008,39.0900,74,93,335591
1.7400,0.4106,38.8700,74,93,335594
1.7058,0.3959,39.1200,74,93,335598
1.7009,0.4008,39.2200,74,93,335601
1.7107,0.4057,39.0600,74,93,335604
1.6862,0.4008,39.0900,74,93,335608
1.7204,0.4154,38.8700,74,93,335611
1.6960,0.4057,39.0000,74,93,335614
1.6862,0.3910,39.1200,74,93,335619
1.6960,0.4057,39.0900,74,93,335622
1.7058,0.4008,39.1200,74,93,335625
1.7498,0.4203,39.1600,74,93,335628
1.7155,0.4057,39.0900,74,93,335632
1.7107,0.4008,39.0900,74,93,335635
1.7155,0.4008,39.0000,74,93,335638
1.7107,0.4106,39.1200,74,93,335642
1.7498,0.4106,39.0000,74,93,335645
1.7302,0.4057,39.0300,74,93,335648
1.7302,0.4008,39.0600,74,93,335652
1.7595,0.4106,39.1200,74,93,335655
1.7400,0.4008,39.0300,74,93,335659
1.7840,0.4057,39.0300,74,93,335662
1.7840,0.4057,39.1200,74,93,335666
1.8133,0.4057,38.9600,74,93,335669
1.7937,0.4008,39.2800,74,93,335672
1.7937,0.4203,39.1200,74,93,335676
1.8328,0.4106,39.0000,74,93,335679
1.8182,0.4057,39.1600,74,93,335682
1.8524,0.4057,39.0000,74,93,335686
1.8280,0.4008,39.0600,74,93,335689
1.8280,0.3959,39.1200,74,93,335692
1.8524,0.4154,39.0300,74,93,335695
1.8133,0.4008,39.1200,74,93,335699
1.8280,0.4057,38.9600,74,93,335703
1.7937,0.3910,39.0600,74,93,335706
1.8133,0.3959,39.1200,74,93,335710
1.7889,0.4057,39.1600,74,93,335713
1.7595,0.4057,39.1200,74,93,335716
1.7791,0.4106,38.8400,74,93,335720
1.7204,0.4008,39.0300,74,93,335723
1.7009,0.4008,39.1600,74,93,335726
1.6960,0.4057,39.0900,74,93,335729
1.6569,0.3861,39.1200,74,93,335733
1.6862,0.4203,38.8400,74,93,335736
1.6422,0.4106,39.0300,74,93,335739
1.6080,0.3959,39.0900,74,93,335744
1.5982,0.4008,39.0900,74,93,335747
1.5885,0.4057,39.1900,74,93,335750
1.6373,0.4154,38.9300,74,93,335754
1.6080,0.4057,39.1900,74,93,335757
1.6031,0.4057,39.0600,74,93,335760
1.5836,0.4008,39.1200,74,93,335764
1.5787,0.4106,39.0900,74,93,335767
1.6080,0.4203,39.0000,74,93,335770
1.5982,0.4008,39.0900,74,93,335773
1.6276,0.4057,39.0000,74,93,335777
1.6129,0.4008,39.1200,74,93,335780
1.6129,0.4057,39.1200,74,93,335783
1.6373,0.4057,39.0600,74,93,335788
1.6129,0.4008,39.1200,74,93,335791
1.6325,0.4154,39.0300,74,93,335794
1.6129,0.4008,39.1200,74,93,335798
1.6129,0.4008,39.1200,74,93,335801
1.6471,0.4057,39.0300,74,93,335804
1.6422,0.4008,39.1900,74,93,335807
1.6716,0.4106,38.9300,74,93,335811
1.6618,0.4008,39.0600,74,93,335814
1.6471,0.4008,39.2800,74,93,335817
1.6960,0.4057,39.0600,74,93,335821
1.6569,0.4008,39.1200,74,93,335824
1.6960,0.4106,38.9000,74,93,335827
1.6667,0.4057,39.0600,74,93,335832
1.6667,0.4008,39.1200,74,93,335835
1.6960,0.4057,39.1200,74,93,335838
1.7400,0.4350,39.0900,74,93,335841
1.8622,0.4203,38.8400,74,93,335845
1.9306,0.4008,39.0600,74,93,335848
2.0674,0.3959,39.1600,74,93,335851
2.2923,0.4154,39.0900,74,93,335855
2.4976,0.4008,39.1200,74,93,335858
2.7517,0.4203,38.9600,74,93,335861
2.8055,0.4057,39.0600,74,93,335865
2.7908,0.4008,39.0600,74,93,335868
2.6197,0.4008,39.0900,74,93,335872
2.3754,0.4008,39.1200,74,93,335875
2.1408,0.4106,38.9600,74,93,335879
1.8475,0.4057,39.1200,74,93,335882
1.6520,0.4057,39.0000,74,93,335885
1.5298,0.4008,39.1200,74,93,335889
1.4809,0.4301,39.1900,74,93,335892
1.5152,0.4106,39.0000,74,93,335895
1.5249,0.4057,39.1200,74,93,335899
1.5689,0.4057,39.0000,74,93,335902
1.5640,0.4008,39.1200,74,93,335905
1.5640,0.4008,39.1200,74,93,335908
1.5640,0.4008,39.0300,74,93,335912
1.5445,0.4008,39.1200,74,93,335916
1.5885,0.3959,39.0000,74,93,335919
1.5445,0.4008,39.0900,74,93,335923
1.5445,0.4154,39.0900,74,93,335926
1.5738,0.4106,39.0300,74,93,335929
1.5591,0.4008,39.1200,74,93,335933
1.6031,0.4106,38.9000,74,93,335936
1.5836,0.4057,39.0600,74,93,335939
1.5787,0.4008,39.0300,74,93,335942
1.5934,0.4057,39.0600,74,93,335946
1.5738,0.4008,39.1200,74,93,335949
1.6178,0.4106,39.0300,74,93,335952
1.6667,0.4203,38.9600,74,93,335956
1.6520,0.4008,39.0900,74,93,335960
1.6520,0.4057,39.0600,74,93,335964
1.6618,0.4008,39.1200,74,93,335967
1.6667,0.4008,39.1200,74,93,335970
1.7058,0.4057,39.0600,74,93,335974
1.6862,0.4057,39.1200,74,93,335977
1.6960,0.4057,39.0000,74,93,335980
1.6813,0.4057,39.1200,74,93,335983
1.6813,0.3861,39.1200,74,93,335987
1.7155,0.4154,39.0000,74,93,335990
1.6960,0.4008,39.1200,74,93,335993
1.7155,0.4106,38.9600,74,93,335997
1.6960,0.4008,39.0900,74,93,336001
1.7107,0.3959,39.1200,74,93,336004
1.7302,0.4057,39.0300,74,93,336008
1.7351,0.4008,39.1600,74,93,336011
1.7840,0.4106,39.0000,74,93,336014
1.7742,0.4008,39.0900,74,93,336017
1.7742,0.4008,39.1600,74,93,336021
1.8035,0.4154,39.0600,74,93,336024
1.7595,0.4008,39.0900,74,93,336027
1.7889,0.4057,38.9300,74,93,336031
1.7498,0.4106,39.1200,74,93,336034
1.7546,0.4008,39.1600,74,93,336037
1.7742,0.4057,39.0300,74,93,336041
1.7742,0.3959,39.1200,74,93,336045
1.8328,0.4154,38.8400,74,93,336048
1.8133,0.4106,39.0600,74,93,336052
1.8084,0.3959,39.1200,74,93,336055
1.8182,0.4106,39.0900,74,93,336058
1.8231,0.4008,39.1600,74,93,336061
1.8817,0.4203,38.9300,74,93,336065
1.8524,0.4106,39.1900,74,93,336068
1.8622,0.4008,39.0300,74,93,336071
1.8671,0.4008,39.1600,74,93,336075
1.8719,0.4252,39.2500,74,93,336078
1.9062,0.3861,39.0000,74,93,336081
1.8866,0.4057,39.0900,74,93,336086
1.8915,0.4106,39.0000,74,93,336089
1.8671,0.3959,39.1200,74,93,336092
1.8622,0.4008,39.0300,74,93,336095
1.8719,0.4008,39.0600,74,93,336099
1.8866,0.3959,39.1200,74,93,336102
1.8768,0.4106,39.0300,74,93,336105
1.8573,0.4106,39.1200,74,93,336109
1.8524,0.4008,39.1200,74,93,336112
1.8768,0.4106,39.0900,74,93,336115
1.8475,0.4057,39.1200,74,93,336119
1.8719,0.4057,38.9600,74,93,336122
1.8524,0.4008,39.0300,74,93,336125
1.8426,0.3959,39.1200,74,93,336129
1.8573,0.4057,38.6500,74,93,336133
1.8524,0.4106,39.0900,74,93,336136
1.8964,0.4106,38.9000,74,93,336139
1.8719,0.4057,39.0900,74,93,336143
1.8573,0.4008,39.1600,74,93,336146
1.8719,0.4350,39.0900,74,93,336149
1.8573,0.3959,39.1200,74,93,336153
1.9013,0.4154,38.2400,74,93,336156
1.8622,0.4057,39.0600,74,93,336159
1.8573,0.3959,39.0900,74,93,336163
1.8622,0.4008,39.1200,74,93,336166
1.8426,0.4008,39.1200,74,93,336169
1.8915,0.4203,38.9600,74,93,336173
1.8524,0.4203,39.0600,74,93,336177
1.8377,0.4008,39.0600,74,93,336180
1.8328,0.4008,39.1200,74,93,336183
1.8280,0.4008,39.1200,74,93,336187
1.8671,0.3959,38.9300,74,93,336190
1.8377,0.4057,39.0300,74,93,336193
1.8475,0.4252,39.0000,74,93,336197
1.8377,0.4008,39.1200,74,93,336200
1.8377,0.4008,39.1200,74,93,336203
1.8622,0.4154,39.0000,74,93,336206
1.8426,0.4008,39.1200,74,93,336210
1.8671,0.4106,39.0600,74,93,336214
1.8475,0.4057,39.0900,74,93,336217
1.8426,0.4008,39.1200,74,93,336221
1.8573,0.4057,39.0900,74,93,336224
1.8426,0.4008,38.9600,74,93,336227
1.8622,0.4057,38.9300,74,93,336231
1.8328,0.4008,39.1200,74,93,336234
1.8280,0.4008,39.1200,74,93,336237
1.8524,0.4057,39.0000,74,93,336240
1.8328,0.4008,39.1200,74,93,336244
1.8671,0.4106,38.9000,74,93,336247
1.8524,0.4106,39.0000,74,93,336250
1.8328,0.4106,39.1200,74,93,336254
1.8475,0.4057,39.0900,74,93,336258
1.8328,0.4008,39.1200,74,93,336261
1.8768,0.4399,38.8700,74,93,336265
1.8524,0.4057,39.1200,74,93,336268
1.8475,0.4106,39.1200,74,93,336271
1.8671,0.4057,39.1600,74,93,336274
1.8475,0.4008,39.0600,74,93,336278
1.8964,0.4252,38.8400,74,93,336281
1.8622,0.4057,39.0600,74,93,336284
1.8622,0.4008,39.0300,74,93,336288
1.8719,0.4057,39.0900,74,93,336291
1.8573,0.4008,39.1200,74,93,336294
1.8866,0.4154,39.0000,74,93,336299
1.8573,0.4399,39.0600,74,93,336302
1.8817,0.4008,39.0300,74,93,336305
1.8426,0.4008,38.4900,74,93,336308
1.8426,0.4008,39.1200,74,93,336312
1.8719,0.4203,38.9600,74,93,336315
1.8328,0.4008,39.1200,74,93,336318
1.8475,0.4545,39.0000,74,93,336322
1.8377,0.3959,39.1200,74,93,336325
1.8328,0.4008,39.1200,74,93,336328
1.8524,0.4106,39.0600,74,93,336332
1.8280,0.4008,39.1200,74,93,336335
1.8573,0.3861,39.0000,74,93,336338
1.8426,0.3959,39.0600,74,93,336342
1.8573,0.3959,39.1200,74,93,336346
1.8671,0.4057,39.0600,74,93,336349
1.8524,0.4008,39.1200,74,93,336352
1.8817,0.4106,38.9300,74,93,336356
1.8524,0.4008,39.2800,74,93,336359
1.8573,0.4106,39.1200,74,93,336362
1.8866,0.4057,39.0600,74,93,336366
1.8622,0.4008,39.0900,74,93,336369
1.8964,0.4106,38.8700,74,93,336372
1.8622,0.4106,39.0300,74,93,336376
1.8426,0.4008,39.1600,74,93,336379
1.8524,0.3959,39.0900,74,93,336382
1.8426,0.4008,39.1200,74,93,336386
1.8964,0.4203,38.6800,74,93,336390
1.8573,0.4057,39.0600,74,93,336393
1.8426,0.3861,39.0600,74,93,336396
1.8426,0.4057,39.0900,74,93,336400
1.8426,0.4008,39.1200,74,93,336403
1.8866,0.4154,38.9600,74,93,336406
1.8719,0.4057,39.0300,74,93,336410
1.8719,0.4203,39.0300,74,93,336413
1.8622,0.4008,39.1600,74,93,336416
1.8671,0.4008,39.0900,74,93,336419
1.9062,0.4106,39.0600,74,93,336423
1.8671,0.4057,39.1200,74,93,336427
1.8915,0.4057,39.0000,74,93,336430
1.8915,0.3959,39.1200,74,93,336434
1.8768,0.4008,39.1600,74,93,336437
1.9110,0.4106,39.0000,74,93,336440
1.9062,0.3959,39.1900,74,93,336444
1.9501,0.4057,39.0300,74,93,336447
1.9404,0.4008,39.0600,74,93,336450
1.9550,0.4008,39.1200,74,93,336453
1.9795,0.4106,39.0600,74,93,336457
1.9746,0.4008,39.0900,74,93,336460
2.0039,0.4057,38.9600,74,93,336463
1.9892,0.3910,39.0600,74,93,336467
2.0088,0.3959,39.1200,74,93,336471
2.0186,0.4106,39.0600,74,93,336474
2.0088,0.4008,39.1900,74,93,336478
2.0479,0.4106,38.9000,74,93,336481
2.0088,0.3959,39.0900,74,93,336484
1.9941,0.3959,39.1200,74,93,336487
2.0137,0.4057,38.4300,74,93,336491
1.9892,0.3959,39.1200,74,93,336494
2.0235,0.4154,38.8400,74,93,336497
1.9844,0.4057,39.0300,74,93,336501
1.9599,0.4008,39.0900,74,93,336504
1.9648,0.4057,39.0900,74,93,336507
1.9550,0.4008,39.1600,74,93,336512
1.9990,0.4252,38.9300,74,93,336515
1.9453,0.4057,39.0600,74,93,336518
1.9159,0.4008,39.1200,74,93,336521
1.8915,0.4008,39.1200,74,93,336525
1.8622,0.4106,39.1200,74,93,336528
1.8817,0.4106,38.9300,74,93,336531
1.8719,0.4057,39.0900,74,93,336535
1.8377,0.4057,39.0300,74,93,336538
1.8133,0.4008,39.1200,74,93,336541
1.8035,0.4008,39.1200,74,93,336545
1.8084,0.4057,39.0900,74,93,336548
1.7840,0.4057,39.1200,74,93,336551
1.8035,0.4106,39.0300,74,93,336555
1.7840,0.4008,39.1200,74,93,336559
1.7840,0.4008,39.1600,74,93,336562
1.8182,0.4106,39.0300,74,93,336565
1.8231,0.4350,39.1200,74,93,336569
1.8377,0.4008,39.1200,74,93,336572
1.8719,0.4154,38.8700,74,93,336576
1.8426,0.3959,39.0600,74,93,336579
1.8328,0.4008,39.1200,74,93,336582
1.8426,0.4057,39.1200,74,93,336586
1.8328,0.4008,39.1900,74,93,336589
1.8964,0.4252,38.9000,74,93,336592
1.8671,0.4057,39.0300,74,93,336596
1.8671,0.4008,39.0600,74,93,336600
1.8768,0.4057,39.1600,74,93,336603
1.8671,0.4057,39.0900,74,93,336606
1.9110,0.4203,38.9600,74,93,336610
1.8426,0.4057,39.1200,74,93,336613
1.8426,0.4399,39.0300,74,93,336616
1.8817,0.3861,39.1200,74,93,336620
1.9501,0.4008,39.1200,74,93,336623
2.0723,0.4106,38.9600,74,93,336626
2.1554,0.4008,39.1200,74,93,336630
2.3460,0.4057,39.0900,74,93,336633
2.5171,0.4106,39.1200,74,93,336636
2.7370,0.3959,39.1200,74,93,336640
2.9326,0.4057,39.0600,74,93,336644
3.0156,0.4008,39.0900,74,93,336647
3.0205,0.4057,39.0000,74,93,336650
2.8006,0.4008,39.1200,74,93,336654
2.5220,0.3910,39.1200,74,93,336657
2.2385,0.3861,39.0600,74,93,336660
1.9453,0.4008,39.2200,74,93,336663
1.7644,0.4154,38.9300,74,93,336667
1.6373,0.4008,39.2500,74,93,336670
1.6129,0.4106,39.1600,74,93,336673
1.6471,0.4106,39.0900,74,93,336677
1.6764,0.4203,39.1200,74,93,336680
1.7546,0.4106,38.9000,74,93,336684
1.7351,0.4057,39.0300,74,93,336688
1.7155,0.4008,38.5800,74,93,336691
1.7204,0.3959,39.0900,74,93,336694
1.7107,0.4008,39.1200,74,93,336698
1.7498,0.4154,38.8700,74,93,336701
1.7155,0.4057,39.0600,74,93,336704
1.6911,0.3959,39.1200,74,93,336707
1.6862,0.4497,39.1200,74,93,336711
1.6764,0.4008,39.1200,74,93,336714
1.7449,0.4203,38.9600,74,93,336717
1.7253,0.4154,39.1200,74,93,336721
1.7253,0.3861,39.0600,74,93,336724
1.7155,0.4057,39.0900,74,93,336728
1.7204,0.4008,39.1200,74,93,336732
1.7400,0.4106,39.0600,74,93,336735
1.7302,0.4057,38.9300,74,93,336738
1.7498,0.4057,39.0300,74,93,336742
1.7400,0.4008,39.1200,74,93,336745
1.7449,0.4008,39.1600,74,93,336748
1.7889,0.4106,39.0000,74,93,336751
1.7791,0.4008,39.1200,74,93,336755
1.8084,0.4106,39.0300,74,93,336758
1.7889,0.4057,39.0900,74,93,336761
1.8133,0.3959,39.1200,74,93,336765
1.8035,0.4252,39.0300,74,93,336769
1.8084,0.3959,39.1900,74,93,336772
1.8231,0.3861,38.9600,74,93,336776
1.8133,0.4057,39.0600,74,93,336779
1.8084,0.4008,39.1200,74,93,336782
1.8231,0.3861,39.0600,74,93,336785
1.8133,0.4008,39.1200,74,93,336789
1.8573,0.4106,38.9000,74,93,336792
1.8280,0.4008,39.0900,74,93,336795
1.8377,0.4008,38.4600,74,93,336799
1.8524,0.4057,39.0900,74,93,336802
1.8524,0.4008,39.1200,74,93,336805
1.9013,0.4154,38.8400,74,93,336809
1.8719,0.4057,39.0300,74,93,336813
1.8866,0.3959,39.1200,74,93,336816
1.8719,0.4057,39.1200,74,93,336819
1.8768,0.3959,39.1200,74,93,336823
1.9355,0.4203,38.9300,74,93,336826
1.8964,0.3959,39.1900,74,93,336829
1.8964,0.4008,39.0300,74,93,336833
1.8915,0.4008,39.0300,74,93,336836
1.8866,0.4008,39.1200,74,93,336839
1.9257,0.4057,39.0000,74,93,336843
1.9110,0.3959,39.0900,74,93,336846
1.9355,0.4057,39.0300,74,93,336849
1.9355,0.4008,39.1200,74,93,336852
1.9550,0.4008,39.1200,74,93,336857
1.9746,0.4057,38.6200,74,93,336860
1.9599,0.4008,39.1200,74,93,336863
1.9844,0.4057,39.0300,74,93,336867
1.9453,0.4008,39.1200,74,93,336870
1.9550,0.3959,39.1200,74,93,336873
1.9746,0.4106,39.0300,74,93,336877
1.9892,0.4008,39.1200,74,93,336880
1.9746,0.4057,38.9600,74,93,336883
1.9550,0.4008,39.0600,74,93,336887
1.9404,0.4008,39.1600,74,93,336890
1.9599,0.4057,39.0900,74,93,336893
1.9453,0.4008,39.0900,74,93,336897
1.9795,0.4106,38.9000,74,93,336901
1.9501,0.4008,39.0900,74,93,336904
1.9697,0.3959,39.1200,74,93,336907
1.9550,0.4057,39.0900,74,93,336911
1.9306,0.4008,39.1900,74,93,336914
1.9795,0.4154,38.8700,74,93,336917
1.9404,0.4008,39.0600,74,93,336921
1.9355,0.4008,39.1200,74,93,336924
1.9453,0.4301,39.0900,74,93,336927
1.9257,0.4008,39.1200,74,93,336930
1.9795,0.4252,38.9300,74,93,336934
1.9355,0.4057,39.0600,74,93,336937
1.9257,0.4008,39.0600,74,93,336941
1.9306,0.4008,39.0600,74,93,336945
1.9306,0.4008,39.1600,74,93,336948
1.9990,0.4106,38.9600,74,93,336951
1.9501,0.4057,39.0900,74,93,336955
1.9501,0.4057,38.5800,74,93,336958
1.9306,0.4252,39.1200,74,93,336961
1.9159,0.3959,39.1200,74,93,336964
1.9404,0.4106,39.0000,74,93,336968
1.9110,0.4057,39.1200,74,93,336971
1.9257,0.4106,39.0000,74,93,336974
1.9110,0.3861,39.1200,74,93,336978
1.9110,0.4106,39.1200,74,93,336982
1.9257,0.4057,39.0600,74,93,336985
1.9062,0.4008,39.1200,74,93,336989
1.9306,0.4057,39.0600,74,93,336992
1.9062,0.4008,39.1200,74,93,336995
1.9110,0.4008,38.5500,74,93,336998
1.9404,0.4154,39.0000,74,93,337002
1.9257,0.4008,39.1600,74,93,337005
1.9599,0.4106,38.9300,74,93,337008
1.9453,0.4008,39.0300,74,93,337012
1.9306,0.4008,39.1200,74,93,337015
1.9306,0.4057,38.9600,74,93,337018
1.9062,0.4008,39.0900,74,93,337022
1.9550,0.4106,38.8700,74,93,337026
1.9208,0.4057,39.1200,74,93,337029
1.9159,0.4301,39.1900,74,93,337032
1.9306,0.4057,39.0900,74,93,337036
1.9257,0.4008,39.1200,74,93,337039
1.9844,0.4203,38.8700,74,93,337042
1.9453,0.4057,39.0600,74,93,337046
1.9306,0.4008,39.0900,74,93,337049
1.9404,0.4057,39.1200,74,93,337052
1.9355,0.4008,39.1200,74,93,337056
1.9795,0.4154,39.0000,74,93,337059
1.9453,0.4106,39.1200,74,93,337062
1.9404,0.4008,39.0300,74,93,337065
1.9355,0.4008,39.1200,74,93,337070
1.9355,0.4008,39.0600,74,93,337073
1.9795,0.4106,38.9600,74,93,337076
1.9501,0.4057,39.1200,74,93,337080
1.9746,0.4057,39.0000,74,93,337083
1.9599,0.4057,39.0900,74,93,337086
1.9453,0.4008,39.1200,74,93,337090
1.9697,0.4106,39.0900,74,93,337093
1.9550,0.4203,39.0900,74,93,337096
1.9844,0.4106,39.0300,74,93,337099
1.9550,0.4008,39.1600,74,93,337103
1.9453,0.4008,39.1200,74,93,337106
1.9501,0.4008,39.0300,74,93,337110
1.9453,0.4057,39.1200,74,93,337114
1.9501,0.4057,38.9600,74,93,337117
1.9208,0.4057,39.1200,74,93,337120
1.9159,0.3861,39.1200,74,93,337124
1.9404,0.4252,39.0600,74,93,337127
1.9257,0.4008,39.1200,74,93,337130
1.9648,0.4106,38.3000,74,93,337134
1.9453,0.4057,39.0000,74,93,337137
1.9257,0.4008,39.1200,74,93,337140
1.9306,0.4057,39.0900,74,93,337143
1.9208,0.4008,39.2200,74,93,337147
1.9697,0.4154,38.8400,74,93,337150
1.9355,0.4008,39.0600,74,93,337154
1.9306,0.3959,39.1200,74,93,337158
1.9453,0.4106,39.0900,74,93,337161
1.9355,0.4008,39.1200,74,93,337164
1.9795,0.4203,39.1200,74,93,337168
1.9306,0.4057,39.0600,74,93,337171
1.9208,0.3861,39.0600,74,93,337174
1.9208,0.4008,39.0000,74,93,337177
1.9062,0.4008,39.1200,74,93,337181
1.9110,0.4008,39.1900,74,93,337184
1.9501,0.4154,39.0000,74,93,337188
1.9306,0.4008,39.1200,74,93,337191
1.9550,0.4057,39.0900,74,93,337195
1.9257,0.4008,39.0300,74,93,337199
1.9208,0.3959,39.1200,74,93,337202
1.9355,0.4057,39.0000,74,93,337205
1.9159,0.4008,39.1600,74,93,337209
1.9404,0.4106,38.9000,74,93,337212
1.9159,0.4057,39.0600,74,93,337215
1.9110,0.4008,39.2200,74,93,337218
1.9404,0.4106,39.0600,74,93,337222
1.9453,0.4008,39.1600,74,93,337225
1.9941,0.4154,38.9000,74,93,337228
1.9599,0.3959,39.0600,74,93,337232
1.9697,0.4008,39.1600,74,93,337235
1.9941,0.4057,39.0900,74,93,337239
2.0039,0.4008,39.1200,74,93,337243
2.0821,0.4203,38.8700,74,93,337246
2.0528,0.4057,39.0300,74,93,337249
2.0381,0.4008,39.2200,74,93,337252
2.0723,0.4008,39.1200,74,93,337256
2.0332,0.4008,39.1200,74,93,337259
2.0870,0.4203,39.0000,74,93,337262
2.0430,0.4057,39.0600,74,93,337266
2.0283,0.4008,39.0300,74,93,337269
1.9990,0.4008,39.1200,74,93,337272
1.9844,0.4008,39.1200,74,93,337275
1.9892,0.4106,39.0300,74,93,337280
1.9550,0.4301,39.0900,74,93,337283
1.9599,0.4008,38.9600,74,93,337286
1.9453,0.4106,39.1200,74,93,337290
1.9404,0.4350,39.1200,74,93,337293
1.9453,0.4057,39.0900,74,93,337296
1.9110,0.4057,39.1200,74,93,337300
1.9208,0.4106,39.0000,74,93,337303
1.8866,0.4008,39.1200,74,93,337306
1.8768,0.4008,39.1600,74,93,337309
1.8915,0.4106,38.9600,74,93,337313
1.8524,0.4008,39.1200,74,93,337316
1.8524,0.4057,39.0000,74,93,337319
1.8182,0.4008,39.0900,74,93,337324
1.7937,0.4301,39.1200,74,93,337327
1.7937,0.3861,39.0600,74,93,337330
1.7644,0.4008,39.0300,74,93,337334
1.7889,0.4301,38.9000,74,93,337337
1.7742,0.3861,39.0900,74,93,337340
1.7742,0.4008,39.1600,74,93,337343
1.8035,0.4154,39.1900,74,93,337347
1.7986,0.4008,39.1200,74,93,337350
1.8475,0.4154,38.9600,74,93,337353
1.8182,0.4106,39.0600,74,93,337357
1.8182,0.4008,39.0900,74,93,337360
1.8280,0.3959,39.0900,74,93,337363
1.8231,0.4008,39.0900,74,93,337368
1.8768,0.4252,38.2700,74,93,337371
1.8328,0.4057,39.0600,74,93,337374
1.8231,0.4008,39.0600,74,93,337378
1.8182,0.4008,39.1200,74,93,337381
1.8182,0.4350,39.1600,74,93,337384
1.8622,0.4154,38.9300,74,93,337387
1.8377,0.3959,39.1900,74,93,337391
1.8524,0.4057,39.0000,74,93,337394
1.8377,0.4008,39.1600,74,93,337397
1.8328,0.4106,39.1200,74,93,337401
1.8524,0.4106,39.0300,74,93,337404
1.8280,0.4057,39.1600,74,93,337408
1.8768,0.4154,39.0600,74,93,337412
1.9159,0.4008,39.1600,74,93,337415
1.9844,0.4008,39.2800,74,93,337418
2.0821,0.4350,39.0300,74,93,337421
2.1945,0.4008,39.1200,74,93,337425
2.3803,0.3861,38.9600,74,93,337428
2.5073,0.3959,39.1200,74,93,337431
2.6882,0.4008,39.1200,74,93,337435
2.8690,0.4057,39.0300,74,93,337438
2.9179,0.4008,39.1200,74,93,337441
2.8543,0.4106,38.9000,74,93,337445
2.6051,0.4057,39.0900,74,93,337448
2.3069,0.4008,39.1200,74,93,337452
2.0577,0.4057,39.0900,74,93,337455
1.8328,0.4008,39.1200,74,93,337459
1.7595,0.4154,38.8700,74,93,337462
1.6911,0.4008,39.0600,74,93,337465
1.6813,0.4008,39.1200,74,93,337469
1.7253,0.4057,39.1600,74,93,337472
1.7351,0.4106,39.1200,74,93,337475
1.7937,0.4252,38.9300,74,93,337479
1.7546,0.4106,39.0600,74,93,337482
1.7449,0.3861,39.0600,74,93,337485
1.7400,0.4008,39.1200,74,93,337489
1.7253,0.4106,39.1200,74,93,337492
1.7498,0.4154,39.0300,74,93,337496
1.7155,0.4057,39.0600,74,93,337499
1.7204,0.4106,39.0300,74,93,337503
1.7155,0.4008,39.1200,74,93,337506
1.7107,0.4008,39.0300,74,93,337509
1.7449,0.4203,38.9600,74,93,337513
1.7253,0.4008,39.1200,74,93,337516
1.7498,0.4106,39.0300,74,93,337519
1.7400,0.4008,39.1200,74,93,337523
1.7546,0.4008,39.1200,74,93,337526
1.7742,0.4057,39.2500,74,93,337529
1.7644,0.4399,39.0900,74,93,337532
1.7937,0.4057,39.0000,74,93,337537
1.7742,0.4008,39.0900,74,93,337540
1.7840,0.4008,39.0600,74,93,337543
1.7986,0.4057,39.0000,74,93,337547
1.7840,0.4106,39.1200,74,93,337550
1.8182,0.4154,38.9000,74,93,337553
1.7889,0.4008,39.1200,74,93,337557
1.7937,0.4106,39.1200,74,93,337560
1.8133,0.4057,39.0600,74,93,337563
1.8133,0.3959,39.1600,74,93,337566
1.8622,0.4154,38.8700,74,93,337570
1.8377,0.4057,39.0300,74,93,337573
1.8231,0.4008,39.1600,74,93,337576
1.8426,0.4057,39.1900,74,93,337581
1.8866,0.4008,39.1200,74,93,337584
1.9257,0.4057,38.9000,74,93,337587
1.8768,0.4106,39.2200,74,93,337591
1.8622,0.4106,39.0600,74,93,337594
1.8622,0.4057,39.1600,74,93,337597
1.8719,0.4008,39.0900,74,93,337601
1.9208,0.4252,38.9600,74,93,337604
1.9062,0.4057,39.0900,74,93,337607
1.9159,0.4057,39.0300,74,93,337610
1.9159,0.4057,39.0900,74,93,337614
1.9159,0.4008,39.1200,74,93,337617
1.9404,0.4106,38.9300,74,93,337620
1.9159,0.4057,39.1200,74,93,337625
1.9306,0.4106,38.9600,74,93,337628
1.9208,0.4008,39.1600,74,93,337631
1.9355,0.4008,39.1200,74,93,337635
1.9844,0.4154,39.0000,74,93,337638
1.9697,0.4008,39.0300,74,93,337641
2.0039,0.4008,39.0000,74,93,337644
1.9795,0.4057,39.0900,74,93,337648
1.9795,0.3959,39.1600,74,93,337651
1.9941,0.4057,38.9600,74,93,337654
1.9795,0.4106,39.1200,74,93,337658
2.0137,0.4106,38.9300,74,93,337661
1.9941,0.4008,39.0600,74,93,337665
1.9990,0.4008,39.0900,74,93,337669
2.0235,0.4154,39.0600,74,93,337672
2.0137,0.4057,39.1600,74,93,337675
2.0577,0.4106,38.8700,74,93,337678
2.0137,0.4008,39.1200,74,93,337682
2.0235,0.4008,39.0600,74,93,337685
2.0332,0.4057,39.0900,74,93,337688
2.0088,0.4057,39.0900,74,93,337692
2.0577,0.4154,38.8400,74,93,337695
2.0235,0.4106,39.0300,74,93,337698
2.0039,0.4008,39.1200,74,93,337701
2.0137,0.4057,39.1600,74,93,337705
1.9990,0.4008,39.2800,74,93,337709
2.0430,0.4252,38.8700,74,93,337712
1.9844,0.4057,39.0600,74,93,337716
1.9648,0.4008,39.2200,74,93,337719
1.9599,0.4057,39.1900,74,93,337722
1.9550,0.4008,39.1200,74,93,337726
1.9990,0.4154,39.0000,74,93,337729
1.9648,0.4301,39.0600,74,93,337732
1.9746,0.4106,39.0000,74,93,337735
1.9550,0.4008,39.1200,74,93,337739
1.9501,0.4008,39.0000,74,93,337742
1.9697,0.4106,39.0300,74,93,337745
1.9501,0.3959,39.1200,74,93,337750
1.9697,0.3861,38.9600,74,93,337753
1.9648,0.3959,39.1200,74,93,337756
1.9306,0.4008,39.0300,74,93,337760
1.9550,0.4106,39.0000,74,93,337763
1.9208,0.4057,39.1600,74,93,337766
1.9501,0.3959,39.0000,74,93,337769
1.9208,0.4008,39.0600,74,93,337773
1.9159,0.4008,39.1200,74,93,337776
1.9208,0.4106,39.0600,74,93,337779
1.9013,0.3959,39.1200,74,93,337783
1.9257,0.4057,38.9300,74,93,337786
1.9501,0.4106,38.8400,74,93,337790
1.9110,0.4106,39.0600,74,93,337794
1.9110,0.3959,39.1200,74,93,337797
1.9306,0.4057,39.1200,74,93,337801
1.9306,0.4008,39.1900,74,93,337804
1.9941,0.4203,38.9600,74,93,337807
1.9648,0.4057,39.1600,74,93,337810
1.9501,0.4057,39.0600,74,93,337814
1.9404,0.4008,39.1200,74,93,337817
1.9355,0.4008,39.1600,74,93,337820
1.9746,0.4106,38.9600,74,93,337824
1.9453,0.4008,38.8700,74,93,337827
1.9599,0.4203,39.0600,74,93,337830
1.9550,0.4008,39.0900,74,93,337835
1.9550,0.4008,39.0900,74,93,337838
1.9795,0.4106,38.9300,74,93,337841
1.9550,0.4057,39.0900,74,93,337844
1.9648,0.4106,39.0600,74,93,337848
1.9355,0.4008,39.1600,74,93,337851
1.9355,0.4008,39.1200,74,93,337854
1.9453,0.4203,39.0600,74,93,337858
1.9355,0.4008,39.1200,74,93,337861
1.9550,0.4057,38.9600,74,93,337864
1.9550,0.4106,39.1200,74,93,337868
1.9306,0.4008,39.1200,74,93,337871
1.9550,0.4106,38.8100,74,93,337874
1.9355,0.4008,39.1200,74,93,337878
1.9795,0.4106,38.9000,74,93,337882
1.9550,0.4057,38.4300,74,93,337885
1.9355,0.4106,39.1200,74,93,337888
1.9501,0.4057,39.0900,74,93,337892
1.9355,0.4008,39.1200,74,93,337895
1.9795,0.4154,38.8400,74,93,337898
1.9355,0.4057,39.1200,74,93,337902
1.9257,0.4399,39.1200,74,93,337905
1.9257,0.4057,39.0900,74,93,337908
1.9257,0.4008,39.1200,74,93,337912
1.9746,0.4252,38.8700,74,93,337915
1.9355,0.4106,39.0600,74,93,337918
1.9208,0.4008,39.0900,74,93,337922
1.9208,0.4057,39.0900,74,93,337926
1.9159,0.4008,39.1200,74,93,337929
1.9550,0.4154,39.0000,74,93,337932
1.9355,0.4057,39.1200,74,93,337936
1.9453,0.4057,39.0000,74,93,337939
1.9257,0.4008,39.1600,74,93,337942
1.9257,0.4008,39.1600,74,93,337946
1.9550,0.4106,39.0000,74,93,337949
1.9208,0.4057,39.0600,74,93,337952
1.9355,0.4057,39.0600,74,93,337955
1.9110,0.4008,39.1900,74,93,337959
1.9159,0.4008,39.1200,74,93,337963
1.9404,0.4057,39.0000,74,93,337966
1.9257,0.4008,39.0300,74,93,337970
1.9453,0.4106,39.0000,74,93,337973
1.9355,0.3959,39.1200,74,93,337976
1.9062,0.4008,39.1600,74,93,337980
1.9159,0.4057,39.0600,74,93,337983
1.9013,0.3959,39.1600,74,93,337986
1.9306,0.4106,38.9300,74,93,337989
1.9110,0.4008,39.1900,74,93,337993
1.9208,0.4008,39.1200,74,93,337996
1.9501,0.4106,39.1200,74,93,337999
1.9306,0.4008,39.1200,74,93,338003
1.9746,0.4154,38.9000,74,93,338007
1.9404,0.4057,38.7400,74,93,338010
1.9208,0.4008,39.1600,74,93,338014
1.9257,0.4057,39.0900,74,93,338017
1.9208,0.4008,39.1600,74,93,338020
1.9795,0.4203,38.8400,74,93,338023
1.9501,0.3861,39.0300,74,93,338027
1.9306,0.4008,39.0900,74,93,338030
1.9501,0.4057,39.1600,74,93,338033
1.9550,0.3959,39.1200,74,93,338037
2.0186,0.4203,39.0000,74,93,338040
1.9941,0.4057,39.0300,74,93,338043
1.9990,0.4008,39.0900,74,93,338048
2.0039,0.4106,39.1600,74,93,338051
2.0186,0.3861,39.1200,74,93,338054
2.0626,0.4106,39.0300,74,93,338057
2.0528,0.4301,39.1200,74,93,338061
2.1065,0.4106,39.0000,74,93,338064
2.0577,0.4008,39.1900,74,93,338067
2.0577,0.4008,38.8100,74,93,338071
2.0870,0.4203,38.9600,74,93,338074
2.0479,0.3861,39.1200,74,93,338077
2.0528,0.4106,39.0300,74,93,338080
1.9990,0.4008,39.2500,74,93,338084
1.9746,0.4057,39.1200,74,93,338087
1.9844,0.4057,39.1200,74,93,338091
1.9599,0.3959,39.0900,74,93,338095
1.9990,0.4106,38.9600,74,93,338098
1.9648,0.4008,39.1200,74,93,338101
1.9550,0.4008,39.2200,74,93,338105
1.9550,0.4106,39.0600,74,93,338108
1.9257,0.4008,39.1200,74,93,338111
1.9404,0.4106,38.9300,74,93,338114
1.8866,0.4008,39.1200,74,93,338118
1.8671,0.4008,39.1900,74,93,338121
1.8768,0.4057,39.0900,74,93,338124
1.8328,0.4008,39.1200,74,93,338128
1.8768,0.4154,38.9000,74,93,338131
1.8133,0.4057,39.0300,74,93,338135
1.7840,0.4008,39.1600,74,93,338139
1.7840,0.4106,39.1200,74,93,338142
1.7742,0.4008,39.1200,74,93,338145
1.8280,0.4154,38.8100,74,93,338148
1.7986,0.3861,39.0900,74,93,338152
1.7937,0.4008,39.0600,74,93,338155
1.8035,0.4057,39.0900,74,93,338158
1.8035,0.4057,39.1200,74,93,338162
1.8426,0.4154,39.0000,74,93,338165
1.8133,0.4057,39.0600,74,93,338168
1.8133,0.4106,39.0000,74,93,338172
1.8035,0.4008,39.1200,74,93,338176
1.8133,0.4008,39.1200,74,93,338179
1.8426,0.4106,39.0300,74,93,338182
1.8328,0.4008,39.0900,74,93,338186
1.8573,0.4106,39.0000,74,93,338189
1.8377,0.4008,39.2200,74,93,338192
1.8328,0.4008,39.0900,74,93,338196
1.8573,0.4106,39.0600,74,93,338199
1.8280,0.4008,39.1200,74,93,338202
1.8524,0.4106,38.6500,74,93,338206
1.8377,0.4252,39.0900,74,93,338209
1.8426,0.4008,39.1600,74,93,338212
1.8573,0.4106,39.0300,74,93,338215
1.8475,0.4057,39.0900,74,93,338220
1.9062,0.4057,38.9600,74,93,338223
1.9453,0.4008,39.2800,74,93,338226
2.0039,0.4350,39.1200,74,93,338230
2.1017,0.4057,39.0600,74,93,338233
2.1994,0.4008,39.1200,74,93,338236
2.4047,0.4106,38.9000,74,93,338240
2.5073,0.3910,39.1200,74,93,338243
2.6735,0.3959,39.1200,74,93,338246
2.8250,0.4057,39.0900,74,93,338249
2.8397,0.4106,39.0900,74,93,338253
2.7859,0.4106,38.8400,74,93,338256
2.5171,0.4057,39.0600,74,93,338259
2.2336,0.4008,39.1200,74,93,338264
1.9892,0.3959,39.1200,74,93,338267
1.7986,0.3861,39.1200,74,93,338270
1.7449,0.4203,39.0000,74,93,338274
1.6716,0.4106,39.1200,74,93,338277
1.6813,0.4008,39.0900,74,93,338280
1.7107,0.4008,39.1200,74,93,338283
1.7351,0.4106,39.1200,74,93,338287
1.7937,0.4106,39.0000,74,93,338290
1.7840,0.4057,39.1200,74,93,338293
1.7937,0.4106,39.0000,74,93,338297
1.7693,0.4008,39.1200,74,93,338300
1.7546,0.4008,39.1200,74,93,338304
1.7693,0.4106,39.0600,74,93,338308
1.7498,0.4106,39.1200,74,93,338311
1.7693,0.4106,39.0600,74,93,338314
1.7400,0.4008,39.1200,74,93,338317
1.7546,0.3959,39.1200,74,93,338321
1.7498,0.4106,38.4900,74,93,338324
1.7253,0.3959,39.1600,74,93,338327
1.7449,0.4057,38.4000,74,93,338331
1.7400,0.3959,39.0300,74,93,338334
1.7400,0.4008,39.1200,74,93,338337
1.7546,0.4057,39.0300,74,93,338341
1.7400,0.4008,39.2500,74,93,338344
1.7742,0.4106,39.0000,74,93,338348
1.7742,0.3959,39.0600,74,93,338351
1.7595,0.4008,39.1200,74,93,338355
1.7840,0.4057,39.0300,74,93,338358
1.7644,0.4399,39.1200,74,93,338361
1.8133,0.4154,38.9000,74,93,338365
1.7742,0.4008,39.0300,74,93,338368
1.7791,0.4057,39.1200,74,93,338371
1.8035,0.4057,39.0900,74,93,338375
1.8035,0.4008,39.2200,74,93,338378
1.8524,0.4252,38.9000,74,93,338381
1.8133,0.4057,39.0600,74,93,338384
1.7937,0.3959,39.0900,74,93,338388
1.7937,0.4008,39.1200,74,93,338392
1.7889,0.4008,39.1200,74,93,338395
1.8328,0.4106,38.9300,74,93,338399
1.8426,0.4106,39.2800,74,93,338402
1.8231,0.4008,39.1200,74,93,338406
1.8475,0.4057,39.0300,74,93,338409
1.8280,0.4008,39.0900,74,93,338412
1.8377,0.4008,39.1900,74,93,338416
1.8573,0.4057,39.0300,74,93,338419
1.8475,0.4008,39.1200,74,93,338422
1.8768,0.4057,38.9600,74,93,338426
1.8622,0.3861,39.1200,74,93,338429
1.8719,0.4008,39.1200,74,93,338433
1.9062,0.4057,39.0600,74,93,338436
1.8915,0.3959,39.1600,74,93,338440
1.9306,0.4154,38.9000,74,93,338443
1.9062,0.4057,39.0300,74,93,338446
1.8817,0.4008,39.1600,74,93,338450
1.8964,0.4008,39.1200,74,93,338453
1.9062,0.3959,39.1200,74,93,338456
1.9550,0.4154,38.8400,74,93,338460
1.9257,0.4057,39.0300,74,93,338463
1.9110,0.3959,39.0900,74,93,338466
1.9257,0.4057,39.1900,74,93,338470
1.9208,0.4057,39.1200,74,93,338473
1.9697,0.4203,39.0000,74,93,338477
1.9257,0.4057,39.0900,74,93,338480
1.9062,0.4008,39.0000,74,93,338484
1.9013,0.4008,39.1200,74,93,338487
1.9062,0.4008,39.1200,74,93,338490
1.9306,0.4154,39.0600,74,93,338494
1.9013,0.4057,39.0900,74,93,338497
1.9062,0.4008,39.0300,74,93,338500
1.8817,0.4008,39.1200,74,93,338503
1.8719,0.4008,39.1200,74,93,338507
1.9013,0.4252,39.0600,74,93,338510
1.8719,0.4008,39.1200,74,93,338513
1.8915,0.4106,39.0300,74,93,338518
1.8622,0.4008,39.1200,74,93,338521
1.8573,0.4008,39.1200,74,93,338524
1.8719,0.4057,39.0300,74,93,338528
1.8524,0.4057,39.1900,74,93,338531
1.8671,0.4057,39.0000,74,93,338534
1.8426,0.4008,39.1200,74,93,338538
1.8377,0.3959,39.1200,74,93,338541
1.8426,0.4106,39.0300,74,93,338544
1.8133,0.4008,39.1200,74,93,338547
1.8377,0.4106,38.9000,74,93,338551
1.7937,0.4008,39.1200,74,93,338554
1.7889,0.4008,39.1900,74,93,338557
1.7986,0.4057,39.0900,74,93,338562
1.7742,0.4008,39.1600,74,93,338565
1.8133,0.4106,38.8700,74,93,338568
1.7840,0.4057,39.0300,74,93,338572
1.7742,0.3959,39.1200,74,93,338575
1.7791,0.3959,39.1200,74,93,338578
1.7742,0.4008,39.1200,74,93,338581
1.8133,0.4203,39.0000,74,93,338585
1.7693,0.4057,39.0900,74,93,338588
1.7546,0.4008,39.0600,74,93,338591
1.7498,0.4008,39.1200,74,93,338595
1.7498,0.4008,39.0300,74,93,338598
1.7889,0.4154,39.0000,74,93,338601
1.7595,0.4057,39.0900,74,93,338606
1.7644,0.4057,39.0300,74,93,338609
1.7595,0.4252,39.1600,74,93,338612
1.7595,0.4008,39.1200,74,93,338615
1.7840,0.4057,39.0900,74,93,338619
1.7644,0.4008,39.0900,74,93,338622
1.7693,0.4106,39.0000,74,93,338625
1.7351,0.4008,39.1600,74,93,338629
1.7302,0.4008,39.1600,74,93,338632
1.7889,0.4057,39.0000,74,93,338635
1.7449,0.4008,39.1200,74,93,338639
1.7644,0.4252,38.9600,74,93,338642
1.7302,0.4008,39.0600,74,93,338646
1.7351,0.4008,39.1200,74,93,338649
1.7498,0.4106,39.0600,74,93,338653
1.7400,0.4008,39.1200,74,93,338656
1.7595,0.4106,38.9300,74,93,338659
1.7351,0.3910,39.0600,74,93,338663
1.7400,0.3959,39.1200,74,93,338666
1.7498,0.4057,39.0900,74,93,338669
1.7302,0.4057,39.1200,74,93,338673
1.7595,0.4057,38.9000,74,93,338676
1.7253,0.4008,39.0900,74,93,338679
1.7155,0.4008,39.1600,74,93,338682
1.7204,0.4106,39.0900,74,93,338686
1.7155,0.4008,38.7100,74,93,338690
1.7595,0.4203,38.9000,74,93,338693
1.7302,0.4106,39.0600,74,93,338697
1.7107,0.4008,39.0900,74,93,338700
1.7058,0.4008,39.0300,74,93,338703
1.6960,0.4057,39.1600,74,93,338707
1.7498,0.4106,38.9600,74,93,338710
1.7155,0.4057,39.0900,74,93,338713
1.7302,0.4252,39.0300,74,93,338716
1.7204,0.4008,39.1200,74,93,338720
1.7204,0.3861,39.1600,74,93,338723
1.7302,0.4154,39.0600,74,93,338726
1.6960,0.4057,39.1200,74,93,338731
1.7155,0.4057,39.0000,74,93,338734
1.7009,0.4008,39.1200,74,93,338737
1.7009,0.4008,39.1200,74,93,338741
1.7107,0.3861,39.0600,74,93,338744
1.6960,0.4008,39.1200,74,93,338747
1.7253,0.4497,39.0300,74,93,338750
1.7058,0.4008,39.1200,74,93,338754
1.7058,0.4008,39.1900,74,93,338757
1.7253,0.4106,39.0300,74,93,338760
1.7009,0.4008,39.1200,74,93,338764
1.7204,0.4057,38.9300,74,93,338767
1.7058,0.4203,39.0300,74,93,338770
1.7009,0.4008,39.1200,74,93,338775
1.7009,0.4106,39.0900,74,93,338778
1.6862,0.4008,39.1200,74,93,338781
1.7155,0.4106,38.9000,74,93,338784
1.6911,0.4057,39.0900,74,93,338788
1.6764,0.4008,39.1200,74,93,338791
1.6862,0.4057,39.0900,74,93,338794
1.6716,0.3959,39.1200,74,93,338798
1.7302,0.4154,38.8700,74,93,338801
1.7253,0.4057,39.0600,74,93,338804
1.6960,0.3861,39.1200,74,93,338808
1.7009,0.4057,39.1600,74,93,338811
1.6911,0.3861,39.1900,74,93,338814
1.7302,0.4203,38.9600,74,93,338819
1.7009,0.4154,39.0600,74,93,338822
1.7009,0.4008,39.0900,74,93,338825
1.6960,0.4008,39.1200,74,93,338828
1.7009,0.4106,39.2800,74,93,338832
1.7498,0.4106,39.0000,74,93,338835
1.7449,0.4057,39.0900,74,93,338838
1.7595,0.4057,39.0900,74,93,338842
1.7449,0.4057,39.1200,74,93,338845
1.7498,0.4008,39.1200,74,93,338848
1.7840,0.4106,39.0300,74,93,338852
1.7840,0.4252,39.1200,74,93,338855
1.8573,0.4106,39.0300,74,93,338859
1.8133,0.4008,39.1600,74,93,338862
1.8231,0.4203,39.1200,74,93,338866
1.8377,0.3861,39.0600,74,93,338869
1.8182,0.4008,39.2800,74,93,338872
1.8182,0.4154,38.9000,74,93,338876
1.7791,0.4008,39.1600,74,93,338879
1.7644,0.4008,39.2500,74,93,338882
1.7693,0.4106,39.0300,74,93,338886
1.7449,0.4008,39.1900,74,93,338889
1.7693,0.4106,38.9000,74,93,338892
1.7400,0.4301,39.0300,74,93,338895
1.7498,0.4057,39.1200,74,93,338899
1.7155,0.4057,39.1200,74,93,338903
1.7204,0.4008,39.1200,74,93,338906
1.7107,0.3861,38.8700,74,93,338910
1.6618,0.4057,39.0600,74,93,338913
1.6373,0.3959,39.1600,74,93,338916
1.6129,0.4057,39.1200,74,93,338920
1.5885,0.4008,39.1200,74,93,338923
1.6080,0.4203,38.9300,74,93,338926
1.5591,0.4057,39.0600,74,93,338930
1.5445,0.4008,39.0600,74,93,338933
1.5347,0.4008,39.1200,74,93,338936
1.5298,0.4057,39.1900,74,93,338939
1.5640,0.3861,39.0300,74,93,338944
1.5543,0.4057,39.0300,74,93,338947
1.5689,0.4106,39.0000,74,93,338950
1.5640,0.4008,39.1600,74,93,338954
1.5640,0.4008,39.1200,74,93,338957
1.5934,0.4106,39.0000,74,93,338960
1.5787,0.4008,39.1900,74,93,338964
1.5982,0.4106,39.0300,74,93,338967
1.5934,0.3959,39.0900,74,93,338970
1.5738,0.4008,39.1200,74,93,338973
1.5885,0.4057,39.0600,74,93,338977
1.5787,0.4008,39.1900,74,93,338980
1.6031,0.4106,39.0000,74,93,338983
1.5934,0.3959,39.0900,74,93,338988
1.5982,0.3910,39.0900,74,93,338991
1.6276,0.4106,39.0300,74,93,338994
1.6031,0.3861,39.1600,74,93,338998
1.6325,0.4106,38.8700,74,93,339001
1.6031,0.4008,39.1200,74,93,339004
1.6031,0.4008,39.1200,74,93,339007
1.6129,0.4057,39.0600,74,93,339011
1.8182,0.4008,39.1200,74,93,339015
1.9355,0.4008,39.1200,74,93,339019
2.1603,0.4154,38.9600,74,93,339022
2.3118,0.4057,39.1200,74,93,339025
2.5220,0.4057,39.0300,74,93,339030
2.6051,0.4008,39.1200,74,93,339033
2.6344,0.4008,39.1900,74,93,339036
2.5660,0.4106,39.0300,74,93,339040
2.3363,0.4008,39.1200,74,93,339043
2.0968,0.4057,39.0300,74,93,339046
1.8182,0.4008,39.1600,74,93,339049
1.6031,0.4008,39.1200,74,93,339053
1.4907,0.4008,39.0600,74,93,339056
1.4272,0.4008,39.1600,74,93,339059
1.4467,0.4106,39.0300,74,93,339063
1.4565,0.4008,39.1200,74,93,339066
1.4907,0.4008,39.2800,74,93,339069
1.5396,0.4154,39.0300,74,93,339074
1.5396,0.4008,39.1200,74,93,339077
1.5689,0.4057,38.9600,74,93,339080
1.5591,0.4106,39.0000,74,93,339083
1.5445,0.4008,39.1200,74,93,339087
1.5445,0.4057,39.1600,74,93,339090
1.5298,0.3959,39.0900,74,93,339093
1.5689,0.4154,38.9000,74,93,339097
1.5396,0.4057,38.9600,74,93,339100
1.5249,0.4252,39.1200,74,93,339103
1.5445,0.3861,39.0900,74,93,339107
1.5249,0.4008,39.0900,74,93,339110
1.5640,0.4106,38.8700,74,93,339113
1.5298,0.3959,39.0600,74,93,339117
1.5298,0.3959,39.1200,74,93,339121
1.5396,0.4008,39.0900,74,93,339124
1.5347,0.3959,39.1200,74,93,339127
1.5787,0.4203,38.9600,74,93,339131
1.5494,0.4057,39.1200,74,93,339134
1.5738,0.4057,39.0300,74,93,339137
1.5396,0.4008,39.0900,74,93,339141
1.5445,0.4301,39.1600,74,93,339144
1.5885,0.4106,38.9600,74,93,339147
1.5640,0.4008,39.1200,74,93,339151
1.5787,0.4057,39.0000,74,93,339154
1.5738,0.4008,39.1200,74,93,339158
1.5787,0.4008,39.1200,74,93,339161
1.6080,0.4203,39.0600,74,93,339165
1.6129,0.4252,39.1200,74,93,339168
1.6227,0.4106,39.0300,74,93,339171
1.5982,0.4008,39.2800,74,93,339175
1.6031,0.4154,39.1200,74,93,339178
1.6227,0.4057,39.0600,74,93,339181
1.6276,0.4008,39.1600,74,93,339185
1.6520,0.4057,38.9600,74,93,339188
1.6422,0.4008,39.1200,74,93,339191
1.6422,0.4008,39.1200,74,93,339194
1.6569,0.4301,39.0600,74,93,339198
1.6471,0.4008,39.1200,74,93,339202
1.6813,0.4106,38.8700,74,93,339205
1.6618,0.4106,39.0600,74,93,339209
1.6569,0.4008,39.1200,74,93,339212
1.6764,0.4057,39.1200,74,93,339215
1.6716,0.4448,39.1900,74,93,339219
1.7253,0.4154,38.8700,74,93,339222
1.7009,0.3910,39.0600,74,93,339225
1.7009,0.4057,39.1600,74,93,339228
1.7155,0.3861,39.0900,74,93,339232
1.7155,0.4008,39.1600,74,93,339235
1.7791,0.4203,38.9300,74,93,339238
1.7546,0.4057,39.0900,74,93,339243
1.7546,0.4008,38.5800,74,93,339246
1.7546,0.4057,39.1600,74,93,339249
1.7546,0.4008,39.2800,74,93,339253
1.7937,0.4106,39.0600,74,93,339256
1.7791,0.4057,39.0900,74,93,339259
1.7986,0.4057,39.0300,74,93,339262
1.7840,0.4008,39.2800,74,93,339266
1.7791,0.4008,39.1600,74,93,339269
1.8377,0.4106,38.9600,74,93,339272
1.7644,0.4008,39.1600,74,93,339276
1.7791,0.4008,39.0600,74,93,339279
1.7595,0.4057,39.1200,74,93,339282
1.7449,0.4008,39.1600,74,93,339287
1.7840,0.4106,39.0600,74,93,339290
1.7400,0.4008,39.1200,74,93,339293
1.7595,0.3861,39.0000,74,93,339296
1.7449,0.4008,39.1200,74,93,339300
1.7498,0.4106,39.1900,74,93,339303
1.7644,0.3861,39.0000,74,93,339306
1.7595,0.4008,39.0000,74,93,339310
1.7889,0.4106,38.8700,74,93,339313
1.7546,0.3861,39.1200,74,93,339316
1.7498,0.4008,39.1200,74,93,339320
1.7595,0.4057,39.0900,74,93,339323
1.7546,0.4008,38.8400,74,93,339326
1.8035,0.4057,38.8700,74,93,339331
1.7791,0.4106,39.0600,74,93,339334
1.7595,0.4008,39.1600,74,93,339337
1.7546,0.4008,39.0900,74,93,339340
1.7498,0.4057,39.1200,74,93,339344
1.7986,0.4252,38.9000,74,93,339347
1.7498,0.4008,39.0600,74,93,339350
1.7253,0.4057,39.0900,74,93,339354
1.7253,0.4008,39.0900,74,93,339357
1.7058,0.4008,39.1200,74,93,339360
1.7400,0.4154,38.9600,74,93,339364
1.7058,0.4057,39.0900,74,93,339367
1.7009,0.4057,39.0300,74,93,339371
1.7009,0.4008,39.0600,74,93,339374
1.7009,0.3959,39.0900,74,93,339378
1.7351,0.4106,39.0300,74,93,339381
1.7302,0.4057,39.1200,74,93,339384
1.7351,0.4057,38.9600,74,93,339388
1.7253,0.3861,39.1200,74,93,339391
1.7204,0.4008,39.0600,74,93,339394
1.7498,0.4154,38.9600,74,93,339398
1.7302,0.4008,39.1200,74,93,339401
1.7546,0.4057,39.0300,74,93,339404
1.7253,0.4008,39.1900,74,93,339407
1.7204,0.4008,39.1200,74,93,339411
1.7302,0.4154,39.1200,74,93,339415
1.7204,0.4057,39.1200,74,93,339418
1.7498,0.4057,39.0300,74,93,339422
1.7400,0.4008,39.0600,74,93,339425
1.7400,0.4057,39.1600,74,93,339428
1.7449,0.3861,39.0600,74,93,339432
1.7204,0.4008,39.1200,74,93,339435
1.7498,0.4106,38.9000,74,93,339438
1.7204,0.3959,39.0900,74,93,339441
1.7204,0.4008,39.1200,74,93,339445
1.7400,0.4106,39.0600,74,93,339448
1.7302,0.4008,39.1900,74,93,339451
1.7742,0.4154,38.8400,74,93,339456
1.7498,0.4057,39.0000,74,93,339459
1.7351,0.4008,39.1900,74,93,339462
1.7400,0.4008,39.1900,74,93,339466
1.7302,0.4106,39.1200,74,93,339469
1.7742,0.4203,39.0000,74,93,339472
1.7400,0.4057,39.0900,74,93,339475
1.7351,0.4008,39.1200,74,93,339479
1.7302,0.4106,39.1900,74,93,339482
1.7302,0.4008,39.1200,74,93,339485
1.7595,0.4106,38.9600,74,93,339489
1.7400,0.3959,39.0900,74,93,339492
1.7595,0.4057,39.0300,74,93,339495
1.7498,0.4008,39.1200,74,93,339500
1.7644,0.4008,39.1200,74,93,339503
1.7791,0.4057,39.0600,74,93,339506
1.7546,0.4008,39.2500,74,93,339509
1.7595,0.4106,39.0300,74,93,339513
1.7253,0.4008,39.1200,74,93,339516
1.7107,0.4203,39.1200,74,93,339519
1.7400,0.4057,39.0000,74,93,339523
1.7204,0.4008,39.1200,74,93,339526
1.7400,0.4057,38.9300,74,93,339529
1.7351,0.4008,39.0300,74,93,339533
1.7204,0.4008,39.1200,74,93,339536
1.7302,0.4154,39.1200,74,93,339539
1.7204,0.4008,39.1200,74,93,339544
1.7595,0.4106,38.9300,74,93,339547
1.7400,0.4008,39.0900,74,93,339550
1.7351,0.3959,39.1200,74,93,339553
1.7498,0.4057,39.1200,74,93,339557
1.7302,0.4008,39.0900,74,93,339560
1.7644,0.4154,38.8700,74,93,339563
1.7253,0.3959,39.0600,74,93,339567
1.7155,0.3959,39.1200,74,93,339570
1.7449,0.3959,39.0900,74,93,339573
1.7155,0.4008,39.1200,74,93,339577
1.7644,0.4252,38.9300,74,93,339580
1.7351,0.4057,39.0900,74,93,339584
1.7253,0.4008,39.0600,74,93,339587
1.7253,0.4008,39.1200,74,93,339591
1.7204,0.4008,38.6500,74,93,339594
1.7498,0.4106,39.0000,74,93,339597
1.7204,0.4057,39.1200,74,93,339601
1.7400,0.4057,39.1200,74,93,339604
1.7351,0.4252,39.1900,74,93,339607
1.7302,0.4008,39.1200,74,93,339611
1.7498,0.4350,39.0000,74,93,339614
1.7253,0.4008,39.1200,74,93,339617
1.7546,0.4057,39.0600,74,93,339620
1.7253,0.3861,39.1600,74,93,339624
1.7986,0.4008,39.1600,74,93,339629
1.8573,0.4057,39.1900,74,93,339633
1.8622,0.4106,39.0600,74,93,339636
1.8426,0.4008,39.1600,74,93,339639
1.8817,0.4154,38.8700,74,93,339643
1.8524,0.4203,39.0300,74,93,339646
1.8328,0.3959,39.1600,74,93,339649
1.8573,0.4057,39.0900,74,93,339653
1.8622,0.4057,39.1200,74,93,339656
1.9208,0.4252,38.9000,74,93,339659
1.8866,0.4008,39.1200,74,93,339663
1.8768,0.4057,39.0600,74,93,339666
1.8768,0.4057,39.1200,74,93,339670
1.8622,0.4008,39.2800,74,93,339673
1.8866,0.4203,39.0000,74,93,339677
1.8377,0.4057,39.0900,74,93,339680
1.8426,0.4057,39.0300,74,93,339683
1.8280,0.4008,38.9600,74,93,339687
1.8182,0.4008,39.1200,74,93,339690
1.8328,0.4106,39.0600,74,93,339693
1.7986,0.4057,39.1600,74,93,339697
1.7937,0.4057,39.0000,74,93,339700
1.7546,0.4008,39.0900,74,93,339703
1.7449,0.4008,39.1600,74,93,339706
1.7693,0.4106,39.0000,74,93,339710
1.7302,0.4008,39.1200,74,93,339714
1.7351,0.4057,39.0300,74,93,339717
1.6862,0.4008,39.0600,74,93,339721
1.6569,0.4008,39.1600,74,93,339724
1.6569,0.4154,39.1200,74,93,339727
1.6325,0.4057,39.1600,74,93,339731
1.6569,0.4057,38.3300,74,93,339734
1.6422,0.4057,39.0600,74,93,339737
1.6471,0.4008,39.1200,74,93,339740
1.6667,0.4057,39.1200,74,93,339744
1.6569,0.4057,39.1200,74,93,339747
1.7009,0.4106,38.9300,74,93,339750
1.6618,0.4008,39.0600,74,93,339755
1.6618,0.4203,39.1900,74,93,339758
1.6764,0.4057,39.0900,74,93,339761
1.6813,0.4057,39.1200,74,93,339765
1.7498,0.4252,38.9000,74,93,339768
1.7107,0.4057,39.0600,74,93,339771
1.7009,0.3959,39.0300,74,93,339774
1.7107,0.4106,39.1600,74,93,339778
1.7058,0.4008,38.9600,74,93,339781
1.7449,0.4106,38.9300,74,93,339784
1.7107,0.4106,39.0900,74,93,339788
1.7058,0.4057,39.0300,74,93,339791
1.7009,0.4008,39.0000,74,93,339794
1.6960,0.4008,39.1200,74,93,339799
1.7253,0.4154,38.9600,74,93,339802
1.7058,0.4057,39.1200,74,93,339805
1.6960,0.4057,39.0000,74,93,339808
1.6911,0.3959,38.4900,74,93,339812
1.7400,0.4008,39.1200,74,93,339815
1.8231,0.3861,39.0900,74,93,339818
1.8866,0.4008,39.0900,74,93,339822
2.0186,0.4301,39.0300,74,93,339825
2.1554,0.4008,39.1200,74,93,339828
2.3509,0.4008,39.1200,74,93,339832
2.5904,0.4106,39.0300,74,93,339835
2.7322,0.4008,39.1200,74,93,339838
2.8935,0.4057,39.0000,74,93,339842
2.8543,0.4008,39.3200,74,93,339846
2.6833,0.4252,39.1200,74,93,339849
2.4438,0.4057,38.9600,74,93,339852
2.1310,0.4252,39.1900,74,93,339856
1.8866,0.3861,38.9000,74,93,339859
1.6618,0.4057,39.0300,74,93,339862
1.5445,0.4008,39.1200,74,93,339866
1.5249,0.4057,39.0900,74,93,339869
1.5347,0.4008,39.1600,74,93,339872
1.6080,0.4154,38.8700,74,93,339875
1.5982,0.3959,39.0600,74,93,339879
1.6031,0.3959,39.1200,74,93,339883
1.5982,0.4057,39.1200,74,93,339886
1.5934,0.4008,39.1200,74,93,339890
1.6276,0.4203,38.9300,74,93,339893
1.5885,0.4106,39.0900,74,93,339896
1.5738,0.3959,39.0900,74,93,339900
1.5689,0.4008,39.0900,74,93,339903
1.5689,0.4008,39.1200,74,93,339906
1.6080,0.4106,38.9600,74,93,339910
1.5885,0.4057,39.0900,74,93,339913
1.5934,0.4057,39.0000,74,93,339916
1.5836,0.3959,39.1200,74,93,339919
1.5885,0.4008,39.1200,74,93,339923
1.6276,0.4301,39.0300,74,93,339927
1.6178,0.4008,39.1200,74,93,339930
1.6422,0.4106,39.0000,74,93,339934
1.6227,0.4008,39.1600,74,93,339937
1.6178,0.4008,39.1200,74,93,339940
1.6325,0.4057,39.0600,74,93,339944
1.6276,0.4008,39.1200,74,93,339947
1.6569,0.4057,38.9600,74,93,339950
1.6520,0.3861,39.1200,74,93,339953
1.6618,0.4008,39.1600,74,93,339957
1.7204,0.4203,39.0900,74,93,339960
1.6813,0.4008,38.7700,74,93,339963
1.7107,0.4154,38.9000,74,93,339968
1.7009,0.4057,39.0600,74,93,339971
1.6911,0.4008,39.1600,74,93,339974
1.7058,0.4154,39.0900,74,93,339978
1.6960,0.4057,39.1900,74,93,339981
1.7498,0.4154,38.9300,74,93,339984
1.7204,0.4008,39.0900,74,93,339987
1.7204,0.4057,39.1600,74,93,339991
1.7351,0.4057,39.1200,74,93,339994
1.7253,0.4008,39.1200,74,93,339997
1.7742,0.4154,38.9300,74,93,340001
1.7498,0.4106,39.0600,74,93,340004
1.7595,0.4106,39.0900,74,93,340007
1.7595,0.4008,39.1200,74,93,340012
1.7693,0.4008,39.1600,74,93,340015
1.8231,0.4106,39.0000,74,93,340018
1.7937,0.4057,39.0900,74,93,340022
1.7986,0.4057,39.0600,74,93,340025
1.7889,0.4057,39.1200,74,93,340028
1.7937,0.4008,39.1200,74,93,340031
1.8328,0.4106,39.0300,74,93,340035
1.8133,0.3959,39.1200,74,93,340038
1.8426,0.4106,39.0000,74,93,340041
1.8328,0.4008,39.1200,74,93,340045
1.8377,0.3959,39.1600,74,93,340048
1.8671,0.4057,39.1600,74,93,340051
1.8524,0.4057,39.1200,74,93,340056
1.8768,0.4057,39.0000,74,93,340059
1.8524,0.4008,39.1900,74,93,340062
1.8524,0.4008,39.1200,74,93,340065
1.8622,0.4057,39.0300,74,93,340069
1.8524,0.3861,39.1200,74,93,340072
1.8915,0.4106,38.9000,74,93,340075
1.8573,0.4008,39.1200,74,93,340079
1.8524,0.4008,39.1200,74,93,340082
1.8622,0.4057,39.0900,74,93,340085
1.8475,0.4008,39.1200,74,93,340089
1.8915,0.3861,38.9000,74,93,340092
1.8573,0.4106,39.0300,74,93,340096
1.8328,0.4008,39.1600,74,93,340099
1.8377,0.4057,39.1200,74,93,340103
1.8280,0.4008,39.1200,74,93,340106
1.8915,0.4252,38.9000,74,93,340109
1.8475,0.4057,39.0300,74,93,340113
1.8426,0.4350,39.0300,74,93,340116
1.8426,0.3861,39.1200,74,93,340119
1.8426,0.4008,39.0300,74,93,340123
1.8817,0.4350,39.0600,74,93,340126
1.8573,0.4057,39.0900,74,93,340129
1.8622,0.4057,39.0600,74,93,340133
1.8524,0.4154,39.1900,74,93,340136
1.8524,0.4008,39.2800,74,93,340140
1.8768,0.4106,39.0900,74,93,340143
1.8622,0.3959,39.1200,74,93,340147
1.8768,0.4057,39.0000,74,93,340150
1.8475,0.3959,39.1900,74,93,340153
1.8426,0.3861,39.1600,74,93,340157
1.8671,0.4154,39.0000,74,93,340160
1.8426,0.4008,39.1600,74,93,340163
1.8524,0.4057,39.0300,74,93,340167
1.8377,0.4008,39.0300,74,93,340170
1.8426,0.3959,39.1200,74,93,340173
1.8524,0.3959,39.0600,74,93,340177
1.8426,0.4008,39.1200,74,93,340180
1.8671,0.4106,38.9300,74,93,340184
1.8328,0.4106,39.1200,74,93,340187
1.8133,0.3959,39.1600,74,93,340191
1.8328,0.4057,39.0900,74,93,340194
1.8231,0.4203,39.1200,74,93,340197
1.8768,0.4154,38.8700,74,93,340201
1.8475,0.4008,39.0600,74,93,340204
1.8426,0.4008,39.1200,74,93,340207
1.8573,0.3861,39.1200,74,93,340211
1.8524,0.4057,39.1600,74,93,340214
1.9062,0.4203,38.9600,74,93,340217
1.8671,0.4106,39.2200,74,93,340221
1.8524,0.4008,39.0600,74,93,340225
1.8475,0.4008,39.1200,74,93,340228
1.8475,0.4008,39.0900,74,93,340231
1.8915,0.4057,39.0000,74,93,340235
1.8915,0.4008,39.1200,74,93,340239
1.8964,0.4008,39.1900,74,93,340243
1.9404,0.4106,39.0000,74,93,340246
1.9159,0.4008,39.0900,74,93,340249
1.9159,0.4008,39.1600,74,93,340253
1.9355,0.4057,39.0300,74,93,340256
1.9208,0.4008,39.1200,74,93,340259
1.9306,0.3861,38.9600,74,93,340262
1.8915,0.4057,39.1900,74,93,340267
1.8866,0.4008,39.1200,74,93,340270
1.9062,0.4057,38.9600,74,93,340273
1.8768,0.4008,39.1200,74,93,340277
1.9257,0.4154,38.9000,74,93,340280
1.9062,0.4154,39.0300,74,93,340283
1.8817,0.4008,39.1600,74,93,340287
1.8866,0.4057,39.2500,74,93,340290
1.8719,0.4106,39.1200,74,93,340293
1.9257,0.4203,38.9000,74,93,340297
1.8915,0.4057,39.0600,74,93,340300
1.8768,0.3959,39.0600,74,93,340303
1.8768,0.4057,39.1200,74,93,340306
1.8573,0.4008,39.1200,74,93,340311
1.9208,0.4203,39.0000,74,93,340314
1.8671,0.4057,39.0900,74,93,340317
1.8671,0.4057,39.1200,74,93,340321
1.8768,0.4057,39.1200,74,93,340324
1.8671,0.4008,39.1200,74,93,340327
1.8866,0.4106,39.0600,74,93,340331
1.8671,0.4057,39.1200,74,93,340334
1.8768,0.4057,39.0000,74,93,340337
1.8524,0.4008,39.1200,74,93,340341
1.8524,0.4008,39.1600,74,93,340344
1.8817,0.4106,39.0000,74,93,340347
1.8622,0.4008,39.1200,74,93,340350
1.8768,0.4057,39.0300,74,93,340355
1.8524,0.4008,39.1200,74,93,340358
1.8719,0.3959,39.1200,74,93,340361
1.8719,0.4008,39.0300,74,93,340365
1.8573,0.3959,39.1600,74,93,340368
1.8866,0.4106,38.9300,74,93,340371
1.8671,0.4057,39.0900,74,93,340375
1.8671,0.4008,39.1200,74,93,340378
1.8817,0.4057,39.1200,74,93,340381
1.8622,0.4008,39.1600,74,93,340384
1.9062,0.4057,38.9000,74,93,340388
1.8671,0.4008,39.1600,74,93,340391
1.8817,0.4008,39.1200,74,93,340395
1.8622,0.4057,39.1200,74,93,340399
1.8622,0.4203,39.0900,74,93,340402
1.9208,0.4252,38.9300,74,93,340405
1.8866,0.4057,39.0600,74,93,340409
1.8719,0.4008,39.0900,74,93,340412
1.8768,0.4008,39.1200,74,93,340415
1.8671,0.3861,39.1600,74,93,340419
1.9110,0.4399,38.9300,74,93,340422
1.8964,0.4057,39.1200,74,93,340425
1.9159,0.4057,39.0300,74,93,340428
1.9208,0.4203,39.1200,74,93,340432
1.9355,0.4008,39.1900,74,93,340435
1.9648,0.4106,39.0300,74,93,340439
1.9501,0.4252,39.1200,74,93,340443
1.9746,0.4057,39.0000,74,93,340446
1.9697,0.4008,39.1200,74,93,340449
1.9844,0.4008,39.1200,74,93,340453
2.0088,0.4057,39.0900,74,93,340456
2.0137,0.4008,39.1200,74,93,340459
2.0479,0.4057,39.0300,74,93,340462
2.0283,0.4008,39.1200,74,93,340466
2.0283,0.4057,39.1600,74,93,340469
2.0479,0.4057,39.0300,74,93,340472
2.0137,0.4008,39.0300,74,93,340476
2.0186,0.4057,39.0900,74,93,340480
1.9795,0.4057,39.0300,74,93,340483
1.9501,0.4106,39.1200,74,93,340486
1.9501,0.4057,39.0900,74,93,340490
1.9257,0.4008,39.1900,74,93,340493
1.9599,0.4106,38.9000,74,93,340496
1.9257,0.4057,39.0600,74,93,340500
1.9013,0.4008,39.3200,74,93,340503
1.9013,0.4106,39.1200,74,93,340506
1.8671,0.4008,39.1200,74,93,340510
1.8964,0.4154,38.8400,74,93,340513
1.8377,0.4008,39.0300,74,93,340516
1.8182,0.3959,39.0900,74,93,340520
1.8084,0.4057,39.1200,74,93,340524
1.7889,0.3959,39.1200,74,93,340527
1.8231,0.4203,38.9300,74,93,340530
1.7742,0.4106,39.0900,74,93,340534
1.7595,0.4057,39.0600,74,93,340537
1.7546,0.4203,39.1200,74,93,340540
1.7595,0.3959,39.1200,74,93,340544
1.8084,0.4106,38.9600,74,93,340547
1.7937,0.4106,39.1200,74,93,340550
1.8084,0.4057,39.0000,74,93,340554
1.7986,0.4008,39.1600,74,93,340557
1.7889,0.4008,39.0600,74,93,340560
1.7986,0.4154,39.0600,74,93,340563
1.7791,0.4057,39.1200,74,93,340568
1.7986,0.4106,39.2500,74,93,340571
1.7791,0.3959,39.1200,74,93,340574
1.7889,0.4008,39.0900,74,93,340578
1.8035,0.4057,39.0300,74,93,340581
1.7986,0.4106,39.1200,74,93,340584
1.8231,0.4057,38.9600,74,93,340588
1.7986,0.4057,39.1200,74,93,340591
1.8182,0.3959,39.1200,74,93,340594
1.8280,0.4106,39.0900,74,93,340598
1.8280,0.3959,39.1900,74,93,340601
1.8524,0.4106,38.9300,74,93,340604
1.8280,0.4252,39.0300,74,93,340608
1.8035,0.4008,39.1600,74,93,340612
1.8280,0.4057,39.1600,74,93,340615
1.8719,0.4008,39.1200,74,93,340618
1.9892,0.4154,38.8400,74,93,340622
2.0235,0.4057,39.0300,74,93,340625
2.1114,0.4448,39.0900,74,93,340628
2.2581,0.4057,39.0900,74,93,340632
2.4145,0.4008,39.1600,74,93,340635
2.6588,0.4203,38.9600,74,93,340638
2.7810,0.4106,39.1900,74,93,340641
2.8837,0.4008,39.0600,74,93,340645
2.8543,0.4008,39.1600,74,93,340648
2.6784,0.3959,39.1200,74,93,340652
2.4731,0.4057,39.0300,74,93,340656
2.1701,0.4057,39.0900,74,93,340659
1.9404,0.4106,39.0300,74,93,340662
1.7449,0.4008,39.1200,74,93,340666
1.6667,0.4008,39.1900,74,93,340669
1.6764,0.4106,39.0000,74,93,340672
1.6813,0.3861,39.1200,74,93,340675
1.7400,0.4106,39.0300,74,93,340679
1.7449,0.4008,39.1200,74,93,340682
1.7546,0.3861,39.1200,74,93,340685
1.7693,0.4106,39.0600,74,93,340689
1.7595,0.4008,39.1900,74,93,340692
1.7742,0.3861,38.9600,74,93,340696
1.7449,0.4154,39.1200,74,93,340700
1.7400,0.4008,39.1200,74,93,340703
1.7498,0.4106,38.8700,74,93,340706
1.7302,0.4057,39.0900,74,93,340710
1.7595,0.4203,38.9000,74,93,340713
1.7253,0.3959,39.1200,74,93,340716
1.7253,0.4008,39.1200,74,93,340719
1.7400,0.4057,39.1600,74,93,340723
1.7351,0.4008,39.2500,74,93,340726
1.7840,0.4203,38.8400,74,93,340729
1.7595,0.4057,39.0600,74,93,340733
1.7546,0.3959,39.1600,74,93,340737
1.7644,0.4057,39.1200,74,93,340740
1.7693,0.4008,39.1200,74,93,340744
1.8231,0.4545,39.0000,74,93,340747
1.7889,0.4057,39.0900,74,93,340750
1.7840,0.4008,39.1600,74,93,340753
1.7889,0.4057,39.0900,74,93,340757
1.7937,0.4106,39.1900,74,93,340760
1.8328,0.4106,39.0300,74,93,340763
1.8133,0.4057,39.1200,74,93,340767
1.8280,0.4106,39.0000,74,93,340770
1.8133,0.4008,39.1200,74,93,340773
1.8182,0.4203,39.1600,74,93,340777
1.8475,0.4057,39.1200,74,93,340781
1.8328,0.4008,39.2200,74,93,340784
1.8671,0.4106,39.0300,74,93,340787
1.8475,0.3861,39.1600,74,93,340791
1.8524,0.4008,39.0900,74,93,340794
1.8866,0.4154,39.0300,74,93,340797
1.8671,0.4008,39.1900,74,93,340801
1.8866,0.4057,39.0600,74,93,340804
1.9013,0.4057,39.0900,74,93,340807
1.8622,0.4008,39.1200,74,93,340811
1.8817,0.4057,39.0600,74,93,340814
1.8719,0.3959,39.1200,74,93,340817
1.9257,0.4106,38.9300,74,93,340822
1.9159,0.4008,39.1200,74,93,340825
1.9208,0.4008,39.1200,74,93,340828
1.9404,0.4057,39.0900,74,93,340831
1.9257,0.4008,39.1600,74,93,340835
1.9844,0.4154,38.9000,74,93,340838
1.9453,0.4008,39.0900,74,93,340841
1.9404,0.4008,39.2200,74,93,340845
1.9501,0.4301,39.0900,74,93,340848
1.9941,0.4106,39.1200,74,93,340853
1.9941,0.4008,39.1200,74,93,340856
2.0332,0.4106,39.1600,74,93,340859
2.0137,0.4008,39.1200,74,93,340864
2.0283,0.4106,39.0000,74,93,340867
2.0039,0.4008,39.1600,74,93,340870
2.0039,0.4008,39.1600,74,93,340873
2.0283,0.4203,39.0900,74,93,340877
2.0039,0.4106,39.1200,74,93,340880
2.0235,0.4154,39.0300,74,93,340883
1.9941,0.4008,39.1200,74,93,340887
1.9941,0.4008,39.0900,74,93,340890
2.0039,0.4106,39.0600,74,93,340893
1.9795,0.4057,39.1200,74,93,340896
1.9941,0.4057,39.0000,74,93,340900
1.9697,0.4008,39.1200,74,93,340903
1.9746,0.3910,39.1200,74,93,340907
2.0088,0.4106,39.0600,74,93,340911
1.9892,0.4008,39.2200,74,93,340914
2.0235,0.4399,38.9000,74,93,340917
1.9892,0.4106,39.0600,74,93,340921
1.9599,0.4008,39.1200,74,93,340924
1.9550,0.4154,39.0900,74,93,340927
1.9355,0.3959,39.1200,74,93,340930
1.9795,0.4154,38.8700,74,93,340934
1.9355,0.4057,39.0600,74,93,340937
1.9257,0.3959,39.1200,74,93,340940
1.9257,0.4057,39.1600,74,93,340944
1.9208,0.4057,39.1200,74,93,340947
1.9746,0.4203,38.9300,74,93,340951
1.9306,0.4252,39.0600,74,93,340955
1.9208,0.3959,39.0600,74,93,340958
1.9062,0.4057,39.1200,74,93,340961
1.9013,0.4057,39.1200,74,93,340965
1.9404,0.4154,39.0600,74,93,340968
1.9208,0.4057,39.1600,74,93,340971
1.9159,0.4203,39.0300,74,93,340974
1.8915,0.4008,39.2800,74,93,340978
1.8817,0.4008,39.1600,74,93,340981
1.9159,0.4057,39.0000,74,93,340984
1.8964,0.4057,39.1900,74,93,340988
1.9257,0.4154,39.0600,74,93,340992
1.9110,0.3959,39.0900,74,93,340995
1.9110,0.4008,39.1600,74,93,340999
1.9306,0.4057,39.0300,74,93,341002
1.9355,0.3959,39.1200,74,93,341005
1.9306,0.3861,39.0000,74,93,341008
1.9159,0.4057,39.0300,74,93,341012
1.9208,0.4057,39.1600,74,93,341015
1.9306,0.4057,39.0600,74,93,341018
1.9306,0.4008,39.0300,74,93,341022
1.9697,0.4106,38.9000,74,93,341025
1.9453,0.3959,39.1200,74,93,341028
1.9355,0.4008,39.1200,74,93,341032
1.9501,0.4154,39.0900,74,93,341036
1.9208,0.4008,39.1600,74,93,341039
1.9648,0.4106,38.3000,74,93,341042
1.9404,0.4008,39.0600,74,93,341046
1.9257,0.4399,39.1200,74,93,341049
1.9306,0.4057,39.0600,74,93,341052
1.9208,0.4399,39.0900,74,93,341056
1.9746,0.4154,38.9300,74,93,341059
1.9306,0.4057,39.1200,74,93,341062
1.9306,0.4497,39.0600,74,93,341066
1.9306,0.4057,39.1900,74,93,341069
1.9355,0.4008,39.1600,74,93,341072
1.9697,0.4154,39.0600,74,93,341075
1.9355,0.4057,39.0900,74,93,341080
1.9404,0.4057,39.0900,74,93,341083
1.9208,0.4203,39.1200,74,93,341086
1.9208,0.3861,39.1600,74,93,341090
1.9355,0.4057,39.0900,74,93,341093
1.9208,0.4106,39.1200,74,93,341096
1.9453,0.4106,39.0000,74,93,341100
1.9257,0.4008,39.2200,74,93,341103
1.9208,0.4008,39.1600,74,93,341106
1.9501,0.4106,39.0000,74,93,341110
1.9159,0.4008,39.0300,74,93,341113
1.9257,0.4008,39.0300,74,93,341116
1.9013,0.3959,39.0300,74,93,341120
1.9013,0.4008,39.1600,74,93,341124
1.9208,0.4350,39.0600,74,93,341127
1.9062,0.4008,39.1200,74,93,341130
1.9355,0.4057,38.9300,74,93,341134
1.9110,0.4154,39.0900,74,93,341137
1.9110,0.4106,39.1600,74,93,341140
1.9355,0.4106,39.0600,74,93,341144
1.9208,0.4008,39.2200,74,93,341147
1.9599,0.4106,38.9000,74,93,341150
1.9159,0.4008,39.0600,74,93,341153
1.9062,0.4008,38.4900,74,93,341157
1.9159,0.4154,39.0900,74,93,341160
1.9013,0.4008,39.1200,74,93,341164
1.9550,0.4252,38.9000,74,93,341168
1.9208,0.4106,39.0600,74,93,341171
1.9062,0.4008,39.0900,74,93,341174
1.9062,0.4057,39.1200,74,93,341178
1.8964,0.4154,39.1600,74,93,341181
1.9501,0.4057,38.9600,74,93,341184
1.9208,0.4106,39.0900,74,93,341187
1.9257,0.4008,39.0600,74,93,341191
1.9257,0.4057,39.1200,74,93,341194
1.9110,0.4008,39.0900,74,93,341197
1.9355,0.4203,39.0300,74,93,341201
1.9062,0.4057,39.1200,74,93,341204
1.9306,0.4057,39.0300,74,93,341208
1.9110,0.4106,39.1600,74,93,341212
1.9110,0.4008,39.1200,74,93,341215
1.9208,0.4008,39.0900,74,93,341218
1.9159,0.4008,39.1200,74,93,341221
1.9404,0.4106,39.0600,74,93,341225
1.9159,0.4008,39.2200,74,93,341228
1.9257,0.4008,39.0900,74,93,341231
1.9599,0.4154,39.0300,74,93,341235
1.9648,0.4008,39.1600,74,93,341238
1.9990,0.4057,38.9300,74,93,341241
1.9990,0.4057,39.0300,74,93,341245
1.9892,0.4008,39.1200,74,93,341249
2.0088,0.4106,39.0900,74,93,341252
2.0088,0.3959,39.1200,74,93,341255
2.0772,0.4106,38.9000,74,93,341259
2.0479,0.4057,39.0900,74,93,341262
2.0430,0.4008,39.1600,74,93,341265
2.0674,0.4057,39.2800,74,93,341269
2.0430,0.4008,39.1900,74,93,341272
2.0870,0.4057,38.8700,74,93,341275
2.0283,0.4008,39.1600,74,93,341279
1.9990,0.4008,39.1200,74,93,341282
1.9941,0.4106,39.0900,74,93,341285
1.9795,0.4008,39.1600,74,93,341288
2.0283,0.4252,38.9600,74,93,341293
2.0186,0.4154,39.0600,74,93,341296
1.9648,0.3959,39.0900,74,93,341299
1.9599,0.4057,39.0300,74,93,341303
1.9404,0.4008,39.1600,74,93,341306
1.9648,0.4106,38.9600,74,93,341309
1.9159,0.4301,39.1200,74,93,341313
1.9306,0.4057,39.0300,74,93,341316
1.8719,0.4008,39.1200,74,93,341319
1.8524,0.4008,39.1600,74,93,341322
1.8622,0.4057,39.0300,74,93,341326
1.8231,0.4057,39.0900,74,93,341329
1.8328,0.4057,39.0300,74,93,341332
1.8035,0.4106,39.1200,74,93,341337
1.7986,0.4008,39.1200,74,93,341340
1.7986,0.4057,39.1200,74,93,341343
1.7840,0.3959,39.1200,74,93,341347
1.8035,0.4057,39.0000,74,93,341350
1.7742,0.4252,39.1200,74,93,341353
1.7791,0.4008,39.1200,74,93,341356
1.7937,0.4106,39.0600,74,93,341360
1.7937,0.4057,39.1200,74,93,341363
1.8475,0.4057,38.9600,74,93,341366
1.8231,0.4057,39.0900,74,93,341370
1.8084,0.4154,39.1600,74,93,341373
1.8182,0.4057,39.0900,74,93,341377
1.8084,0.4008,39.1600,74,93,341381
1.8524,0.4203,38.8700,74,93,341384
1.8231,0.4057,39.0900,74,93,341387
1.8182,0.4008,39.0900,74,93,341391
1.8280,0.4057,39.1200,74,93,341394
1.8280,0.3861,39.1600,74,93,341397
1.8768,0.4252,38.9300,74,93,341400
1.8377,0.4154,39.0600,74,93,341404
1.8328,0.4008,39.0900,74,93,341407
1.8426,0.4008,39.2200,74,93,341410
1.8426,0.3959,39.1200,74,93,341414
1.8768,0.4154,38.9600,74,93,341417
1.8622,0.4106,39.1200,74,93,341421
1.9257,0.4057,39.0000,74,93,341425
1.9648,0.4057,39.1600,74,93,341428
2.0332,0.4008,39.1200,74,93,341431
2.1750,0.4057,39.0000,74,93,341434
2.2923,0.4057,39.1600,74,93,341438
2.4829,0.4154,39.0000,74,93,341441
2.6197,0.4008,39.1900,74,93,341444
2.7713,0.4008,39.1600,74,93,341448
2.8641,0.4057,39.0600,74,93,341451
2.7664,0.4008,39.1200,74,93,341454
2.5953,0.4057,39.0300,74,93,341458
2.3021,0.4203,38.9000,74,93,341462
1.6862,0.4008,39.0900,74,93,341467
1.7449,0.4008,39.1600,74,93,341470
1.7986,0.4154,39.0900,74,93,341473
1.8182,0.4008,39.1600,74,93,341476
1.8817,0.4154,38.5800,74,93,341480
1.8426,0.4399,39.0600,74,93,341483
1.8133,0.3910,39.0900,74,93,341486
1.8035,0.4057,39.2200,74,93,341490
1.7840,0.4008,39.1600,74,93,341493
1.8182,0.4203,38.9300,74,93,341496
1.7791,0.4057,39.0900,74,93,341500
1.7742,0.4008,39.0600,74,93,341504
1.7742,0.4106,39.1600,74,93,341507
1.7693,0.4008,39.1200,74,93,341510
1.7986,0.4350,39.0600,74,93,341514
1.7791,0.4057,39.1200,74,93,341517
1.7937,0.4057,39.0000,74,93,341520
1.8133,0.4057,39.1600,74,93,341524
1.7840,0.4008,38.5200,74,93,341527
1.7986,0.4057,39.0600,74,93,341530
1.7937,0.4008,39.0900,74,93,341534
1.8231,0.4057,39.0300,74,93,341537
1.7986,0.4008,39.2500,74,93,341540
1.8084,0.4057,39.1600,74,93,341543
1.8426,0.4057,39.0300,74,93,341548
1.8231,0.4057,39.1600,74,93,341551
1.8524,0.4057,38.9600,74,93,341554
1.8426,0.4057,39.0600,74,93,341558
1.8377,0.4106,39.1200,74,93,341561
1.8573,0.4057,39.0900,74,93,341564
1.8426,0.4008,39.1200,74,93,341568
1.8866,0.4106,38.9000,74,93,341571
1.8671,0.4008,39.1200,74,93,341574
1.8573,0.4008,39.1600,74,93,341578
1.8768,0.4106,39.0900,74,93,341581
1.8671,0.4008,39.1600,74,93,341584
1.9159,0.4154,38.8700,74,93,341587
1.8768,0.4057,39.0600,74,93,341592
1.8719,0.4008,39.1200,74,93,341595
1.8866,0.4057,39.1200,74,93,341598
1.8915,0.4008,39.1600,74,93,341602
1.9404,0.4203,38.9300,74,93,341605
1.9013,0.4252,39.0900,74,93,341608
1.9013,0.4008,39.0600,74,93,341612
1.8915,0.4008,39.1600,74,93,341615
1.8915,0.3959,39.1600,74,93,341618
1.9404,0.4106,39.0000,74,93,341622
1.9208,0.4057,39.1600,74,93,341625
1.9453,0.4106,39.0000,74,93,341628
1.9355,0.4008,39.1600,74,93,341632
1.9404,0.4008,39.1600,74,93,341636
1.9990,0.4057,39.0600,74,93,341639
1.9599,0.4057,39.1200,74,93,341642
1.9844,0.4057,39.0600,74,93,341646
1.9648,0.4008,39.1600,74,93,341649
1.9795,0.4008,39.1200,74,93,341652
2.0039,0.4057,39.0300,74,93,341656
2.0039,0.4008,39.0900,74,93,341659
2.0235,0.4252,39.0600,74,93,341662
1.9990,0.4008,39.1600,74,93,341665
1.9941,0.4008,39.1200,74,93,341669
2.0381,0.4154,39.0600,74,93,341672
2.0039,0.4008,39.1200,74,93,341676
2.0381,0.4106,38.9300,74,93,341680
2.0186,0.4106,39.0300,74,93,341683
1.9941,0.4154,39.1600,74,93,341686
2.0088,0.4057,39.0300,74,93,341690
1.9941,0.4008,39.1600,74,93,341693
2.0430,0.4106,38.8700,74,93,341696
2.0039,0.4057,39.0900,74,93,341699
1.9892,0.4008,39.1600,74,93,341703
2.0088,0.4350,39.1600,74,93,341706
1.9990,0.3959,39.1900,74,93,341709
2.0577,0.4203,38.9300,74,93,341713
2.0137,0.4106,39.1200,74,93,341716
1.9941,0.3959,39.0600,74,93,341720
1.9892,0.4057,39.1200,74,93,341724
1.9844,0.4106,39.1200,74,93,341727
2.0137,0.4154,39.0600,74,93,341730
1.9844,0.4057,39.2500,74,93,341733
1.9844,0.4154,39.0600,74,93,341737
1.9599,0.4008,39.1600,74,93,341740
1.9453,0.4008,39.1600,74,93,341743
1.9697,0.4057,39.0000,74,93,341747
1.9453,0.4057,39.0600,74,93,341750
1.9648,0.4301,39.0600,74,93,341753
1.9355,0.4008,39.1200,74,93,341757
1.9208,0.4008,39.1600,74,93,341761
1.9501,0.4106,39.0900,74,93,341764
1.9013,0.3959,39.1200,74,93,341767
1.9208,0.4057,39.0000,74,93,341771
1.9013,0.4008,39.4400,74,93,341774
1.9110,0.4008,39.1900,74,93,341777
1.9306,0.4106,39.0300,74,93,341781
1.9062,0.4008,39.1200,74,93,341784
1.9355,0.4106,39.0600,74,93,341787
1.9013,0.3959,39.1200,74,93,341791
1.9062,0.4008,39.1600,74,93,341794
1.9355,0.4252,39.0600,74,93,341797
1.9110,0.4008,39.1600,74,93,341800
1.9501,0.4154,39.0000,74,93,341805
1.9257,0.4057,39.0300,74,93,341808
1.9062,0.4008,39.1600,74,93,341811
1.9208,0.4106,39.1200,74,93,341815
1.9159,0.4106,39.1200,74,93,341818
1.9795,0.4252,38.9300,74,93,341821
1.9404,0.4008,39.0900,74,93,341825
1.9306,0.3959,39.0900,74,93,341828
1.9355,0.4057,39.1600,74,93,341831
1.9257,0.4008,39.1200,74,93,341835
1.9795,0.4301,39.0600,74,93,341838
1.9550,0.3861,39.1200,74,93,341841
1.9648,0.4057,39.0300,74,93,341844
1.9697,0.4106,39.1900,74,93,341849
1.9599,0.4008,39.1600,74,93,341852
1.9892,0.4008,39.0600,74,93,341855
1.9697,0.4008,39.1200,74,93,341859
1.9892,0.4057,39.0000,74,93,341862
1.9941,0.4301,39.1600,74,93,341865
1.9599,0.4008,39.1200,74,93,341869
1.9892,0.4106,38.9000,74,93,341872
1.9795,0.4008,39.1600,74,93,341875
1.9892,0.4057,39.0000,74,93,341878
1.9648,0.4008,39.1200,74,93,341882
1.9599,0.4057,39.0900,74,93,341885
1.9697,0.4057,39.0600,74,93,341889
1.9599,0.4008,39.1600,74,93,341893
1.9990,0.4106,38.9300,74,93,341896
1.9795,0.4008,39.0600,74,93,341899
1.9990,0.4008,39.1600,74,93,341903
1.9941,0.4057,39.0600,74,93,341906
1.9648,0.4008,39.1200,74,93,341909
2.0235,0.4057,38.9300,74,93,341912
1.9599,0.4008,39.0600,74,93,341916
1.9599,0.4008,39.1600,74,93,341919
1.9892,0.4106,39.1200,74,93,341922
1.9697,0.4008,39.1600,74,93,341926
2.0381,0.4252,38.9000,74,93,341929
1.9990,0.4057,39.0300,74,93,341933
1.9844,0.3861,39.1200,74,93,341937
1.9892,0.3959,39.1900,74,93,341940
1.9844,0.4008,39.1600,74,93,341943
2.0332,0.4399,39.0600,74,93,341946
1.9892,0.4057,39.1200,74,93,341950
1.9844,0.4057,39.2200,74,93,341953
1.9697,0.4008,39.1900,74,93,341956
1.9599,0.4008,39.1600,74,93,341960
1.9892,0.4106,38.4600,74,93,341963
1.9599,0.4106,39.1200,74,93,341966
1.9746,0.4057,39.0000,74,93,341970
1.9550,0.4008,39.0600,74,93,341974
1.9599,0.4008,39.1200,74,93,341977
1.9844,0.4106,39.0600,74,93,341981
1.9697,0.4057,39.1900,74,93,341984
1.9941,0.4057,39.0300,74,93,341987
1.9599,0.4008,39.1200,74,93,341990
1.9550,0.4008,39.1600,74,93,341994
1.9795,0.4106,39.0600,74,93,341997
1.9550,0.4008,39.1600,74,93,342000
1.9795,0.4106,38.4000,74,93,342004
1.9550,0.4399,39.0300,74,93,342007
1.9453,0.4057,39.1600,74,93,342010
1.9355,0.4301,39.1200,74,93,342014
1.9257,0.3959,39.1200,74,93,342018
1.9648,0.4154,38.9000,74,93,342021
1.9306,0.4057,39.0900,74,93,342025
1.9306,0.4008,39.1600,74,93,342028
1.9404,0.4057,39.1900,74,93,342031
1.9306,0.4350,39.1200,74,93,342034
1.9844,0.4057,38.9000,74,93,342038
1.9550,0.4057,38.9600,74,93,342041
1.9550,0.4008,39.1200,74,93,342044
1.9795,0.4057,39.1200,74,93,342048
1.9746,0.3959,39.1200,74,93,342051
2.0235,0.4154,39.0300,74,93,342054
1.9892,0.4057,39.0300,74,93,342059
1.9844,0.4008,39.0300,74,93,342062
1.9746,0.4008,39.0900,74,93,342065
1.9844,0.4008,39.1600,74,93,342068
2.0381,0.4057,39.0000,74,93,342072
1.9844,0.4106,39.0600,74,93,342077
1.9501,0.3861,39.1600,74,93,342080
1.9648,0.4057,38.9000,74,93,342083
1.9355,0.4057,39.0900,74,93,342086
1.9208,0.3861,39.1200,74,93,342090
1.9306,0.4106,39.0000,74,93,342093
1.9110,0.4154,39.1600,74,93,342096
1.9453,0.4106,38.9300,74,93,342100
1.8866,0.4057,39.0900,74,93,342104
1.8671,0.4057,39.1600,74,93,342107
1.8524,0.4057,39.1900,74,93,342111
1.8084,0.4106,39.1200,74,93,342114
1.8426,0.4203,38.9000,74,93,342117
1.7937,0.4057,39.0300,74,93,342120
1.7644,0.4154,39.1200,74,93,342124
1.7595,0.4057,39.1900,74,93,342127
1.7400,0.4008,39.1600,74,93,342130
1.7742,0.4057,38.9300,74,93,342134
1.7351,0.4057,39.2500,74,93,342137
1.7351,0.4154,39.0300,74,93,342140
1.7253,0.4008,39.1200,74,93,342145
1.7253,0.4008,39.1600,74,93,342148
1.7498,0.4057,39.0300,74,93,342151
1.7302,0.4057,39.1200,74,93,342155
1.7400,0.4057,39.0000,74,93,342158
1.7253,0.4057,39.1200,74,93,342161
1.7351,0.4008,39.1900,74,93,342164
1.7546,0.4008,39.0600,74,93,342168
1.7693,0.4057,39.1600,74,93,342171
1.7742,0.4057,39.0300,74,93,342174
1.7644,0.4057,39.1200,74,93,342178
1.7498,0.3861,39.1600,74,93,342181
1.7791,0.4106,39.0600,74,93,342184
1.7546,0.4008,39.1200,74,93,342189
1.7986,0.4106,39.0000,74,93,342192
1.7889,0.4057,39.0600,74,93,342195
1.7791,0.4008,39.1600,74,93,342198
1.7937,0.3959,39.0900,74,93,342202
1.7742,0.4008,39.1600,74,93,342205
1.7937,0.4154,38.9000,74,93,342208
1.7644,0.4057,39.0900,74,93,342212
1.7498,0.4008,39.1600,74,93,342215
1.7986,0.4057,39.1200,74,93,342218
1.8475,0.4008,39.1200,74,93,342222
1.9648,0.4252,38.9000,74,93,342225
2.0039,0.4252,39.0900,74,93,342228
2.1163,0.4008,39.0900,74,93,342233
2.2776,0.4008,39.1200,74,93,342236
2.4340,0.4008,39.2800,74,93,342239
2.6491,0.4154,39.0000,74,93,342242
2.7175,0.4008,39.1200,74,93,342246
2.7273,0.4008,39.0600,74,93,342249
2.5660,0.4057,39.1900,74,93,342252
2.3363,0.4350,39.1900,74,93,342256
2.1310,0.4106,38.9300,74,93,342259
1.8671,0.4057,39.1200,74,93,342262
1.7204,0.4057,39.0000,74,93,342266
1.6276,0.3861,39.1600,74,93,342269
1.6129,0.4008,39.1200,74,93,342273
1.6764,0.4106,39.0600,74,93,342276
1.6813,0.4008,39.1200,74,93,342280
1.7351,0.4057,39.0300,74,93,342283
1.7253,0.4008,39.0900,74,93,342286
1.7253,0.4008,39.1600,74,93,342290
1.7204,0.4057,38.9600,74,93,342293
1.7009,0.4008,39.1200,74,93,342296
1.7204,0.4106,39.0000,74,93,342300
1.6911,0.4008,39.1600,74,93,342303
1.6911,0.4106,39.1200,74,93,342306
1.7107,0.4057,39.0900,74,93,342309
1.6960,0.4008,39.1900,74,93,342313
1.7351,0.4252,38.9000,74,93,342317
1.7253,0.4057,39.0900,74,93,342320
1.7107,0.4008,39.1200,74,93,342324
1.7400,0.4057,39.0900,74,93,342327
1.7155,0.4008,39.1200,74,93,342330
1.7546,0.4203,38.8700,74,93,342334
1.7302,0.3959,39.0600,74,93,342337
1.7204,0.4008,39.1200,74,93,342340
1.7400,0.4057,39.0900,74,93,342344
1.7449,0.4008,39.1200,74,93,342347
1.7937,0.4203,39.0000,74,93,342350
1.7595,0.4057,39.0900,74,93,342353
1.7595,0.4008,39.0600,74,93,342358
1.7595,0.4057,39.1200,74,93,342361
1.7693,0.3861,39.1600,74,93,342364
1.8084,0.4203,39.0600,74,93,342368
1.7889,0.4057,39.1200,74,93,342371
1.8084,0.4057,39.0600,74,93,342374
1.7889,0.4154,39.1600,74,93,342378
1.7889,0.4008,39.1200,74,93,342381
1.8280,0.4350,39.0000,74,93,342384
1.8084,0.4008,39.1200,74,93,342387
1.8377,0.4106,39.0900,74,93,342391
1.8182,0.4008,39.1200,74,93,342394
1.8182,0.4008,39.1600,74,93,342397
1.8377,0.4057,38.9000,74,93,342402
1.8280,0.4252,39.1600,74,93,342405
1.8817,0.4106,38.9600,74,93,342408
1.8328,0.4008,39.0300,74,93,342412
1.8280,0.4057,39.1600,74,93,342415
1.8475,0.4106,39.0600,74,93,342418
1.8377,0.4008,39.1600,74,93,342421
1.8817,0.4106,38.9000,74,93,342425
1.8475,0.3959,39.1200,74,93,342428
1.8573,0.4008,39.1900,74,93,342431
1.8768,0.4154,39.1200,74,93,342435
1.8768,0.4008,39.2200,74,93,342438
1.9355,0.4203,38.9000,74,93,342441
1.9110,0.4008,39.0600,74,93,342446
1.9062,0.3959,39.0600,74,93,342449
1.9110,0.4057,39.1900,74,93,342452
1.9110,0.4252,39.1600,74,93,342456
1.9648,0.4154,38.9600,74,93,342459
1.9404,0.4203,39.1200,74,93,342462
1.9550,0.3959,39.0300,74,93,342465
1.9501,0.4008,39.2200,74,93,342469
1.9453,0.4008,39.1600,74,93,342472
1.9844,0.4106,39.0300,74,93,342475
1.9599,0.4057,39.1200,74,93,342479
1.9697,0.4301,39.0600,74,93,342482
1.9404,0.4106,39.1200,74,93,342486
1.9404,0.4008,39.2200,74,93,342490
1.9550,0.4301,39.0600,74,93,342493
1.9550,0.4008,39.1200,74,93,342496
1.9697,0.4106,39.0600,74,93,342499
1.9355,0.4301,39.1200,74,93,342503
1.9355,0.4057,39.1200,74,93,342506
1.9550,0.4106,38.5200,74,93,342509
1.9257,0.4106,39.1900,74,93,342513
1.9550,0.4106,38.9600,74,93,342516
1.9355,0.4057,39.0300,74,93,342519
1.9257,0.4008,39.1600,74,93,342523
1.9404,0.4057,39.1200,74,93,342526
1.9159,0.4252,39.1600,74,93,342530
1.9550,0.4106,38.9300,74,93,342534
1.9257,0.4008,38.9600,74,93,342537
1.9208,0.3959,39.1600,74,93,342540
1.9404,0.4154,39.1200,74,93,342543
1.9306,0.4008,39.1600,74,93,342547
1.9746,0.4252,38.8400,74,93,342550
1.9159,0.4057,38.7700,74,93,342553
1.8866,0.4008,39.0900,74,93,342557
1.8768,0.3959,39.1200,74,93,342560
1.8671,0.4008,39.1600,74,93,342563
1.9110,0.4203,39.0000,74,93,342567
1.8768,0.4057,39.0900,74,93,342571
1.8719,0.4057,39.0600,74,93,342574
1.8622,0.3910,39.1200,74,93,342577
1.8622,0.4008,39.1600,74,93,342581
1.8866,0.4106,38.9000,74,93,342584
1.8671,0.4057,39.1200,74,93,342587
1.8719,0.4057,39.0900,74,93,342591
1.8475,0.4008,39.1600,74,93,342594
1.8524,0.4008,39.1600,74,93,342597
1.8671,0.4106,39.0600,74,93,342601
1.8524,0.4057,39.1200,74,93,342604
1.8768,0.4350,39.0300,74,93,342607
1.8573,0.4008,39.1200,74,93,342611
1.8573,0.4008,39.1600,74,93,342615
1.8817,0.4057,39.0600,74,93,342618
1.8622,0.4008,39.1600,74,93,342621
1.8866,0.4106,38.9300,74,93,342625
1.8671,0.4008,39.1600,74,93,342628
1.8573,0.4008,39.1200,74,93,342631
1.8866,0.4106,39.0600,74,93,342635
1.8573,0.4057,39.1600,74,93,342638
1.8964,0.4154,38.9000,74,93,342641
1.8817,0.4106,39.0600,74,93,342645
1.8622,0.4008,39.1600,74,93,342648
1.8622,0.4106,39.1200,74,93,342651
1.8524,0.4008,39.1600,74,93,342656
1.9013,0.4252,38.9600,74,93,342659
1.8622,0.4106,39.0600,74,93,342662
1.8622,0.4008,39.1600,74,93,342665
1.8719,0.4008,39.1900,74,93,342669
1.8817,0.4008,39.1200,74,93,342672
1.9257,0.4203,39.0300,74,93,342675
1.9159,0.4057,39.0900,74,93,342679
1.8817,0.4057,39.0600,74,93,342682
1.8671,0.4057,39.1200,74,93,342685
1.8817,0.4008,39.1600,74,93,342690
1.8817,0.4497,39.1200,74,93,342693
1.9159,0.4106,39.0600,74,93,342697
1.8915,0.4301,39.1200,74,93,342701
1.9550,0.4106,38.9600,74,93,342704
1.9062,0.4057,39.0600,74,93,342707
1.8964,0.4008,39.1600,74,93,342711
1.9208,0.4106,39.0900,74,93,342714
1.8964,0.3861,39.1600,74,93,342717
1.9355,0.4154,38.8400,74,93,342721
1.9062,0.4008,39.0900,74,93,342724
1.8866,0.4008,39.1600,74,93,342727
1.8964,0.4057,39.0000,74,93,342731
1.8768,0.4203,39.1600,74,93,342734
1.9159,0.4154,38.8700,74,93,342737
1.8719,0.4057,39.0300,74,93,342742
1.8524,0.4008,39.1200,74,93,342745
1.8622,0.3861,39.1200,74,93,342748
1.8524,0.4008,39.1600,74,93,342751
1.9013,0.4203,39.0000,74,93,342755
1.8768,0.4057,39.0900,74,93,342758
1.8671,0.4008,39.0300,74,93,342761
1.8964,0.3959,39.1200,74,93,342765
1.8524,0.4008,39.1600,74,93,342768
1.8964,0.4154,38.9600,74,93,342771
1.8671,0.4057,39.1200,74,93,342775
1.8768,0.4057,39.0900,74,93,342778
1.8573,0.4106,39.1200,74,93,342781
1.8573,0.4008,39.1600,74,93,342785
1.8817,0.4154,39.0600,74,93,342789
1.8671,0.3959,39.1200,74,93,342792
1.8964,0.4106,39.0600,74,93,342795
1.8719,0.4008,39.0900,74,93,342799
1.8768,0.4106,39.1200,74,93,342802
1.8964,0.3861,39.0900,74,93,342805
1.8817,0.4057,39.0300,74,93,342809
1.8964,0.4106,38.9600,74,93,342812
1.8671,0.4008,39.1600,74,93,342815
1.8622,0.4008,39.1900,74,93,342819
1.8817,0.4106,39.0600,74,93,342822
1.8622,0.3959,39.0900,74,93,342825
1.9013,0.4106,38.9300,74,93,342829
1.8866,0.4057,39.0600,74,93,342833
1.8719,0.4008,38.8700,74,93,342836
1.8866,0.3959,39.0900,74,93,342839
1.8915,0.4008,39.1600,74,93,342843
1.9599,0.4154,38.8700,74,93,342846
1.9355,0.4057,39.0900,74,93,342849
1.9355,0.4008,39.1900,74,93,342853
1.9501,0.4057,39.1900,74,93,342856
1.9550,0.4008,39.1200,74,93,342859
2.0235,0.4203,39.0000,74,93,342862
2.0039,0.4106,39.0900,74,93,342866
2.0088,0.4301,39.0600,74,93,342870
2.0235,0.4106,39.1600,74,93,342873
2.0186,0.4008,39.2200,74,93,342877
2.0479,0.4399,39.0600,74,93,342880
2.0186,0.4154,39.1200,74,93,342883
2.0235,0.4057,39.0300,74,93,342887
1.9844,0.4008,39.1200,74,93,342890
1.9844,0.3959,39.1600,74,93,342893
1.9844,0.4106,38.9600,74,93,342896
1.9550,0.4008,39.1600,74,93,342900
1.9599,0.4106,39.0600,74,93,342903
1.9306,0.3959,39.3800,74,93,342906
1.9208,0.4106,39.1200,74,93,342910
1.9208,0.4057,39.0600,74,93,342914
1.8915,0.4008,39.1600,74,93,342917
1.9013,0.4008,38.9600,74,93,342921
1.8817,0.4008,39.0900,74,93,342924
1.8622,0.4008,38.9600,74,93,342927
1.8671,0.4106,39.0300,74,93,342930
1.8573,0.4057,39.1200,74,93,342934
1.8573,0.4106,38.9300,74,93,342937
1.7986,0.3910,39.1200,74,93,342940
1.7840,0.3861,39.1200,74,93,342944
1.7889,0.4252,39.0900,74,93,342947
1.7742,0.4008,39.1600,74,93,342950
1.8231,0.4154,38.8400,74,93,342955
1.8182,0.4008,39.0900,74,93,342958
1.7791,0.4008,39.1600,74,93,342961
1.7889,0.4057,39.0900,74,93,342965
1.7937,0.4057,39.1600,74,93,342968
1.8573,0.4203,39.0000,74,93,342971
1.8182,0.4057,39.1200,74,93,342974
1.8426,0.3959,39.0600,74,93,342978
1.8231,0.4057,39.1200,74,93,342981
1.8280,0.4008,39.1600,74,93,342984
1.8573,0.4057,39.0000,74,93,342988
1.8475,0.4057,39.1200,74,93,342991
1.8475,0.4057,39.0300,74,93,342994
1.8231,0.3959,39.1600,74,93,342999
1.8231,0.4008,39.1200,74,93,343002
1.8426,0.4106,39.0900,74,93,343005
1.8524,0.4008,39.1600,74,93,343009
1.8817,0.4154,39.0300,74,93,343012
1.8622,0.4008,39.1600,74,93,343015
1.8426,0.4008,39.1200,74,93,343018
1.8573,0.4106,39.0600,74,93,343022
1.8328,0.4008,39.1600,74,93,343025
1.8817,0.4252,39.0000,74,93,343028
1.9355,0.3959,39.0600,74,93,343032
1.9990,0.3861,39.1600,74,93,343035
2.1065,0.4106,39.0900,74,93,343038
2.2092,0.4106,39.1200,74,93,343043
2.4340,0.4154,38.3300,74,93,343046
2.5953,0.4008,39.0900,74,93,343049
2.7615,0.4106,39.1200,74,93,343052
2.9277,0.4057,39.1200,74,93,343056
2.9423,0.4008,39.0600,74,93,343059
2.9032,0.4154,38.8400,74,93,343062
2.6295,0.4057,39.0600,74,93,343066
2.3509,0.4008,39.1600,74,93,343069
2.1017,0.4154,39.1600,74,93,343072
1.8817,0.3861,39.1900,74,93,343076
1.7986,0.4252,38.9600,74,93,343079
1.7107,0.4106,39.0900,74,93,343083
1.7155,0.4008,39.0300,74,93,343086
1.7498,0.4057,39.1900,74,93,343090
1.7889,0.4008,39.1600,74,93,343093
1.8475,0.4106,38.9600,74,93,343096
1.8328,0.4057,39.0900,74,93,343100
1.8377,0.4057,39.0000,74,93,343103
1.8084,0.4057,39.1600,74,93,343106
1.7986,0.4008,39.0900,74,93,343110
1.8182,0.4106,39.0300,74,93,343113
1.7986,0.3861,39.1200,74,93,343116
1.8182,0.4106,39.0600,74,93,343120
1.8084,0.4008,39.1600,74,93,343123
1.8035,0.4008,39.1200,74,93,343127
1.8280,0.4057,39.0300,74,93,343130
1.8328,0.4252,39.1600,74,93,343134
1.8622,0.4057,39.0000,74,93,343137
1.8573,0.4057,39.1600,74,93,343140
1.8573,0.4106,39.1600,74,93,343144
1.8719,0.4106,38.4600,74,93,343147
1.8915,0.4057,39.1600,74,93,343150
1.9013,0.4106,38.9300,74,93,343154
1.8866,0.4057,39.0600,74,93,343157
1.8768,0.4057,39.1600,74,93,343160
1.8964,0.4057,39.1200,74,93,343163
1.9013,0.4008,39.1200,74,93,343168
1.9697,0.4154,38.8700,74,93,343171
1.9501,0.4008,39.0600,74,93,343174
1.9501,0.4008,39.1200,74,93,343178
1.9648,0.4057,39.1600,74,93,343181
1.9648,0.4008,39.0900,74,93,343184
2.0235,0.4203,38.9000,74,93,343188
1.9892,0.4106,39.0900,74,93,343191
1.9844,0.4008,39.0900,74,93,343194
1.9941,0.4057,39.1600,74,93,343197
1.9990,0.3959,39.1900,74,93,343201
2.0479,0.4154,39.0300,74,93,343204
2.0283,0.4057,39.0600,74,93,343207
2.0430,0.4057,39.1200,74,93,343212
2.0283,0.3959,39.1600,74,93,343215
2.0235,0.4008,39.1600,74,93,343218
2.0626,0.4106,39.0000,74,93,343222
2.0332,0.4106,39.1600,74,93,343225
2.0626,0.4106,39.0300,74,93,343228
2.0381,0.4008,39.1600,74,93,343231
2.0381,0.4008,39.1600,74,93,343235
2.0772,0.4057,39.0600,74,93,343238
2.0528,0.4057,39.1600,74,93,343241
2.0821,0.4057,39.0300,74,93,343245
2.0577,0.4008,39.1200,74,93,343248
2.0919,0.3959,39.1600,74,93,343251
2.0772,0.4057,39.0300,74,93,343256
2.0674,0.4008,39.2800,74,93,343259
2.1017,0.4106,39.0000,74,93,343262
2.0674,0.4008,39.1900,74,93,343265
2.0626,0.4008,39.1600,74,93,343269
2.0674,0.4106,39.0000,74,93,343272
2.0381,0.4106,39.1900,74,93,343275
2.0723,0.4154,38.9300,74,93,343279
2.0332,0.4057,38.9600,74,93,343282
2.0039,0.4057,39.1200,74,93,343285
2.0137,0.4057,39.1200,74,93,343289
1.9844,0.4008,39.1600,74,93,343292
2.0283,0.4154,38.9000,74,93,343296
1.9795,0.4106,39.0600,74,93,343301
1.9550,0.4106,39.1600,74,93,343304
1.9599,0.4057,39.0300,74,93,343307
1.9453,0.4057,39.1600,74,93,343311
1.9501,0.4008,39.1600,74,93,343314
1.9648,0.4203,39.0900,74,93,343317
1.9550,0.4106,39.1600,74,93,343321
1.9844,0.4106,39.0600,74,93,343324
1.9501,0.4154,39.1200,74,93,343327
1.9453,0.4008,39.1600,74,93,343331
1.9746,0.4106,38.9600,74,93,343334
1.9453,0.4008,39.1600,74,93,343337
1.9746,0.4057,38.9600,74,93,343342
1.9648,0.4106,39.0300,74,93,343345
1.9599,0.4008,39.1600,74,93,343348
1.9697,0.4154,39.0900,74,93,343351
1.9550,0.4057,39.1600,74,93,343355
1.9941,0.4106,38.9300,74,93,343358
1.9648,0.4106,39.1200,74,93,343361
1.9550,0.3959,39.1600,74,93,343365
1.9746,0.4057,39.1600,74,93,343368
1.9550,0.4008,39.1600,74,93,343371
2.0137,0.4154,38.8400,74,93,343375
1.9746,0.4301,39.0300,74,93,343378
1.9599,0.4008,39.1200,74,93,343382
1.9795,0.4057,39.1600,74,93,343386
1.9844,0.4057,39.0600,74,93,343389
2.0283,0.4154,39.0000,74,93,343392
2.0039,0.4057,39.0900,74,93,343395
1.9990,0.4008,39.0900,74,93,343399
1.9941,0.4057,39.1200,74,93,343402
1.9990,0.4008,39.1600,74,93,343405
2.0528,0.4106,38.9300,74,93,343409
2.0332,0.4057,39.1900,74,93,343412
2.0577,0.4057,39.0000,74,93,343415
2.0479,0.4008,39.2200,74,93,343419
2.0577,0.4008,39.0600,74,93,343422
2.0919,0.4106,39.0300,74,93,343426
2.0772,0.4008,39.1200,74,93,343429
2.1017,0.4106,39.0600,74,93,343433
2.0821,0.4008,38.4900,74,93,343436
2.0919,0.4008,39.1600,74,93,343439
2.1114,0.4057,39.0600,74,93,343443
2.1212,0.4008,39.1600,74,93,343446
2.1505,0.4057,39.0300,74,93,343449
2.1261,0.4008,39.1600,74,93,343452
2.1359,0.4106,39.1600,74,93,343456
2.1603,0.4106,39.0600,74,93,343459
2.1457,0.4301,39.1600,74,93,343462
2.1896,0.4057,38.9300,74,93,343467
2.1701,0.4057,39.0300,74,93,343470
2.1554,0.4106,39.1600,74,93,343473
2.1799,0.4057,39.1200,74,93,343477
2.1701,0.4057,39.1600,74,93,343480
2.2336,0.4057,38.9300,74,93,343483
2.1945,0.4008,39.0900,74,93,343487
2.1848,0.4008,39.1200,74,93,343490
2.1994,0.4057,39.1200,74,93,343493
2.1945,0.4008,39.1600,74,93,343496
2.2630,0.4252,38.8700,74,93,343500
2.2287,0.3861,39.0900,74,93,343503
2.2092,0.4008,39.0300,74,93,343506
2.2141,0.4106,39.0900,74,93,343511
2.2190,0.3861,39.1900,74,93,343514
2.2678,0.4154,39.0000,74,93,343517
2.2385,0.4252,39.0600,74,93,343521
2.2630,0.4008,39.0600,74,93,343524
2.2239,0.4008,39.1200,74,93,343527
2.2190,0.4008,39.0900,74,93,343530
2.2630,0.4106,38.9600,74,93,343534
2.2385,0.4106,39.1200,74,93,343537
2.2630,0.4057,39.0000,74,93,343540
2.2336,0.3959,39.1900,74,93,343544
2.2385,0.4008,39.1600,74,93,343547
2.2678,0.4008,39.0300,74,93,343550
2.2532,0.4057,39.1600,74,93,343555
2.2923,0.3861,39.0300,74,93,343558
2.2678,0.3959,39.1200,74,93,343561
2.3021,0.4106,39.1900,74,93,343564
2.2825,0.4057,39.0900,74,93,343568
2.2630,0.4008,39.2800,74,93,343571
2.2923,0.4106,39.0000,74,93,343574
2.2532,0.4008,39.1600,74,93,343578
2.2483,0.4008,39.1600,74,93,343581
2.2727,0.4008,39.1200,74,93,343584
2.2532,0.3861,39.1600,74,93,343588
2.3069,0.4154,38.9000,74,93,343591
2.2776,0.4106,39.0600,74,93,343595
2.2630,0.4008,39.1200,74,93,343598
2.2727,0.4057,38.4900,74,93,343602
2.2678,0.4008,39.1900,74,93,343605
2.3363,0.4203,38.8700,74,93,343608
2.2923,0.4399,39.1200,74,93,343612
2.2874,0.4008,39.0900,74,93,343615
2.2874,0.4057,39.1200,74,93,343618
2.2727,0.4008,39.1900,74,93,343622
2.3216,0.4203,39.0000,74,93,343625
2.2825,0.4106,39.0900,74,93,343628
2.2678,0.4008,39.0900,74,93,343631
2.2678,0.4057,39.1600,74,93,343635
2.2776,0.4008,39.1900,74,93,343639
2.3265,0.4057,39.0900,74,93,343642
2.2972,0.4057,39.1200,74,93,343646
2.3021,0.4057,39.0000,74,93,343649
2.2727,0.3861,39.1600,74,93,343652
2.2678,0.4008,39.3200,74,93,343656
2.3167,0.4252,39.0600,74,93,343659
2.2972,0.4008,39.1600,74,93,343662
2.3460,0.4106,39.0300,74,93,343665
2.3265,0.4008,39.1200,74,93,343669
2.3363,0.4008,39.1600,74,93,343672
2.3656,0.4106,39.0600,74,93,343675
2.3558,0.4008,39.1900,74,93,343680
2.4047,0.4106,39.0000,74,93,343683
2.3998,0.4008,39.1200,74,93,343686
2.4096,0.4057,39.1900,74,93,343690
2.4438,0.4106,39.0900,74,93,343693
2.4242,0.4008,39.1200,74,93,343696
2.4780,0.4106,38.9600,74,93,343699
2.4291,0.3959,39.1600,74,93,343703
2.4096,0.4008,39.2200,74,93,343706
2.4096,0.4057,39.1200,74,93,343709
2.3754,0.4008,39.1200,74,93,343713
2.4291,0.4154,38.3600,74,93,343716
2.3754,0.4154,39.0600,74,93,343719
2.3412,0.3959,39.1600,74,93,343724
2.3314,0.4008,39.1600,74,93,343727
2.3167,0.4106,39.1600,74,93,343730
2.3607,0.4203,38.9600,74,93,343734
2.3314,0.4106,39.1900,74,93,343737
2.2874,0.3861,39.0600,74,93,343740
2.2581,0.4008,39.1200,74,93,343743
2.2287,0.3959,39.1200,74,93,343747
2.2434,0.4106,39.0000,74,93,343750
2.1945,0.4057,39.2800,74,93,343753
2.1896,0.4154,39.0300,74,93,343757
2.1554,0.4008,39.1600,74,93,343760
2.1505,0.3959,39.1600,74,93,343763
2.1701,0.4057,39.0900,74,93,343768
2.1554,0.4008,39.1600,74,93,343771
2.1701,0.4106,39.0900,74,93,343774
2.1310,0.4008,39.1600,74,93,343777
2.1261,0.4008,39.1600,74,93,343781
2.1505,0.4154,39.0300,74,93,343784
2.1261,0.4008,39.1600,74,93,343787
2.1554,0.4057,39.0000,74,93,343791
2.1408,0.4008,39.0300,74,93,343794
2.1310,0.4008,39.1200,74,93,343797
2.1505,0.4057,39.0900,74,93,343801
2.1408,0.4057,39.1600,74,93,343804
2.1799,0.4106,38.8100,74,93,343808
2.1505,0.4106,39.1200,74,93,343811
2.1408,0.4008,39.1600,74,93,343815
2.1652,0.4057,39.0900,74,93,343818
2.1505,0.4008,39.0900,74,93,343821
2.2043,0.4203,38.9000,74,93,343825
2.1652,0.3861,39.0900,74,93,343828
2.1652,0.4008,39.1600,74,93,343831
2.1848,0.4301,39.1200,74,93,343835
2.1945,0.4008,39.1600,74,93,343838
2.2581,0.4252,38.4300,74,93,343841
2.2043,0.3959,39.0900,74,93,343844
2.2043,0.4057,39.0900,74,93,343848
2.2385,0.4057,39.0300,74,93,343852
2.2825,0.4301,39.1200,74,93,343855
2.3998,0.4154,38.9600,74,93,343859
2.4780,0.3959,39.1200,74,93,343862
2.6735,0.4057,39.0300,74,93,343865
2.8006,0.4008,39.1600,74,93,343869
2.9619,0.4008,39.1900,74,93,343872
3.1867,0.4106,39.0600,74,93,343875
3.2111,0.4057,39.1200,74,93,343878
3.1720,0.4106,39.0000,74,93,343882
2.9326,0.4008,39.0900,74,93,343885
2.6686,0.4008,39.1600,74,93,343888
2.4194,0.4057,39.0900,74,93,343892
2.1896,0.4008,39.1900,74,93,343896
2.0870,0.4057,39.0600,74,93,343899
2.0088,0.4008,39.1600,74,93,343903
2.0039,0.4008,39.1600,74,93,343906
2.0626,0.4106,39.0600,74,93,343909
2.0772,0.3861,39.1200,74,93,343914
2.0577,0.4008,39.0300,74,93,343917
2.1114,0.4154,38.9000,74,93,343920
2.0674,0.3959,39.0900,74,93,343924
2.0479,0.4008,39.2200,74,93,343927
2.0479,0.4057,39.1600,74,93,343930
2.0332,0.3959,39.1900,74,93,343934
2.0919,0.4203,38.9300,74,93,343938
2.0430,0.4203,39.1200,74,93,343941
2.0332,0.4008,39.1900,74,93,343945
2.0283,0.3861,39.1200,74,93,343948
2.0235,0.4008,39.0300,74,93,343951
2.0577,0.4203,39.0600,74,93,343954
2.0626,0.3959,39.1200,74,93,343958
2.0381,0.4057,39.0300,74,93,343961
2.0235,0.4057,39.1900,74,93,343964
2.0283,0.3861,39.1600,74,93,343968
2.0674,0.4106,38.9300,74,93,343971
2.0381,0.4008,39.1600,74,93,343974
2.0381,0.3861,39.0300,74,93,343979
2.0137,0.4008,39.1600,74,93,343982
2.0039,0.3959,39.1600,74,93,343985
2.0332,0.4057,39.0600,74,93,343988
2.0137,0.4008,39.2500,74,93,343992
2.0430,0.4057,39.0300,74,93,343995
2.0186,0.4301,39.1200,74,93,343998
2.0137,0.4057,39.1600,74,93,344002
2.0186,0.4057,39.0300,74,93,344005
1.9941,0.4008,39.1600,74,93,344008
2.0381,0.4057,38.9300,74,93,344012
1.9941,0.4008,39.2800,74,93,344015
1.9941,0.4057,39.1600,74,93,344018
2.0235,0.4008,39.0900,74,93,344022
2.0186,0.4057,39.2200,74,93,344026
2.0674,0.4154,38.9000,74,93,344029
2.0332,0.4057,39.0600,74,93,344032
2.0039,0.4008,39.1600,74,93,344036
2.0137,0.4057,39.1600,74,93,344039
2.0088,0.4301,39.1600,74,93,344042
2.0723,0.4203,38.9000,74,93,344045
2.0332,0.4057,39.0600,74,93,344049
2.0235,0.3959,39.1200,74,93,344052
2.0381,0.4057,39.0900,74,93,344055
2.0381,0.4106,39.1600,74,93,344059
2.1163,0.4057,38.9600,74,93,344062
2.0821,0.4057,39.0600,74,93,344066
2.0821,0.4008,39.0300,74,93,344070
2.0772,0.4106,39.1200,74,93,344073
2.0723,0.3861,39.1200,74,93,344076
2.1065,0.4154,39.0300,74,93,344079
2.0821,0.4057,39.0900,74,93,344083
2.0968,0.4301,39.0600,74,93,344086
2.0968,0.4008,39.1600,74,93,344089
2.1017,0.4008,39.1900,74,93,344093
2.1457,0.4106,38.9600,74,93,344096
2.1163,0.4008,39.1200,74,93,344099
2.1359,0.4106,39.1900,74,93,344103
2.1114,0.4057,39.1200,74,93,344107
2.1065,0.4008,39.1600,74,93,344110
2.1212,0.4057,39.0300,74,93,344113
2.0919,0.3959,39.1600,74,93,344117
2.1114,0.3861,39.0000,74,93,344120
2.0821,0.4008,39.0900,74,93,344123
2.0821,0.4008,39.1600,74,93,344127
2.1017,0.4057,39.0300,74,93,344130
2.0821,0.4008,39.1600,74,93,344133
2.1065,0.4106,39.0000,74,93,344137
2.0626,0.4008,39.1600,74,93,344140
2.0626,0.3959,39.1600,74,93,344143
2.0919,0.4106,39.0900,74,93,344146
2.0723,0.4008,39.2500,74,93,344151
2.1114,0.4203,38.9000,74,93,344154
2.1065,0.4154,39.0300,74,93,344157
2.0528,0.3861,39.1600,74,93,344161
2.0528,0.4399,39.1200,74,93,344164
2.0283,0.4008,39.1600,74,93,344167
2.0772,0.4057,38.9000,74,93,344170
2.0283,0.4057,39.0300,74,93,344174
2.0088,0.3959,39.1900,74,93,344177
2.0039,0.4008,39.1200,74,93,344180
1.9941,0.4008,39.1600,74,93,344184
2.0430,0.4203,38.9600,74,93,344187
1.9990,0.4106,39.0900,74,93,344190
1.9941,0.4008,39.0600,74,93,344195
1.9892,0.4057,39.1600,74,93,344198
1.9892,0.3959,39.1900,74,93,344201
2.0137,0.4154,39.0900,74,93,344204
1.9844,0.4057,39.1600,74,93,344208
1.9795,0.4252,39.0300,74,93,344211
1.9550,0.4008,39.2200,74,93,344214
1.9550,0.4008,39.1600,74,93,344218
2.0039,0.4057,39.0300,74,93,344221
1.9746,0.4008,39.1600,74,93,344224
2.0039,0.4106,39.0300,74,93,344228
1.9795,0.4301,39.1600,74,93,344231
1.9795,0.4008,39.1200,74,93,344235
1.9844,0.4106,39.1200,74,93,344239
1.9648,0.3959,39.1900,74,93,344242
1.9795,0.4057,38.9300,74,93,344245
1.9795,0.3959,39.0900,74,93,344248
1.9746,0.4008,39.1200,74,93,344252
1.9990,0.4106,39.2200,74,93,344255
1.9844,0.4008,39.1200,74,93,344258
2.0235,0.4106,38.9300,74,93,344262
1.9844,0.4008,39.1200,74,93,344265
2.0186,0.4008,39.1600,74,93,344268
2.0039,0.4057,39.0900,74,93,344272
1.9795,0.4008,39.1900,74,93,344275
2.0283,0.4301,38.8700,74,93,344279
2.0235,0.4106,39.0300,74,93,344282
1.9941,0.4008,39.1600,74,93,344286
1.9990,0.4106,39.1200,74,93,344289
1.9990,0.4008,39.1600,74,93,344292
2.0479,0.4203,39.0000,74,93,344296
1.9990,0.4106,39.0900,74,93,344299
1.9892,0.4106,39.0900,74,93,344302
1.9795,0.4057,39.1200,74,93,344306
1.9746,0.4008,39.1600,74,93,344309
2.0088,0.4154,39.0600,74,93,344312
1.9746,0.4057,39.1200,74,93,344315
1.9746,0.4057,39.0300,74,93,344320
1.9550,0.4008,39.0900,74,93,344323
1.9892,0.3959,39.1600,74,93,344326
1.9746,0.4106,39.1900,74,93,344330
1.9599,0.4301,39.1600,74,93,344333
1.9844,0.4057,39.0300,74,93,344336
1.9501,0.4106,39.1200,74,93,344340
1.9550,0.3959,39.1600,74,93,344343
1.9844,0.4106,39.1600,74,93,344346
1.9550,0.4106,39.1600,74,93,344350
1.9697,0.4057,38.4000,74,93,344353
1.9550,0.4203,39.0600,74,93,344356
1.9501,0.3910,39.1600,74,93,344359
1.9795,0.4057,39.1200,74,93,344364
1.9648,0.4008,39.1200,74,93,344367
2.0283,0.4106,38.9300,74,93,344370
1.9599,0.4057,39.0900,74,93,344374
1.9404,0.4008,39.1900,74,93,344377
1.9550,0.4057,39.0900,74,93,344380
1.9453,0.3959,39.1600,74,93,344384
1.9892,0.4154,38.9000,74,93,344387
1.9501,0.4008,39.0900,74,93,344390
1.9404,0.3861,39.1600,74,93,344393
1.9501,0.4057,39.1600,74,93,344397
1.9355,0.4008,39.1900,74,93,344400
1.9892,0.4252,38.9300,74,93,344403
1.9697,0.4057,39.0900,74,93,344408
1.9355,0.4008,39.0900,74,93,344411
1.9355,0.4008,39.2800,74,93,344414
1.9306,0.4106,39.1600,74,93,344418
1.9844,0.4057,39.0000,74,93,344421
1.9453,0.4057,39.1600,74,93,344424
1.9550,0.4106,39.0600,74,93,344427
1.9404,0.4008,39.1600,74,93,344431
1.9355,0.4008,39.2800,74,93,344434
1.9648,0.4057,39.0600,74,93,344437
1.9501,0.4057,39.1200,74,93,344441
1.9746,0.4106,39.0600,74,93,344444
1.9550,0.4057,39.1600,74,93,344448
1.9501,0.4008,39.1200,74,93,344452
1.9453,0.4057,39.0600,74,93,344455
1.9257,0.4008,39.1600,74,93,344458
1.9648,0.4057,39.0300,74,93,344461
1.9208,0.4008,39.1600,74,93,344465
1.9257,0.4008,39.1600,74,93,344468
1.9599,0.4106,39.0600,74,93,344471
1.9501,0.4203,39.2500,74,93,344475
1.9941,0.4106,38.9300,74,93,344478
1.9844,0.4057,39.1200,74,93,344481
1.9746,0.3959,39.1600,74,93,344485
1.9990,0.4057,39.0900,74,93,344488
1.9990,0.4008,39.0300,74,93,344492
2.0626,0.4154,38.9000,74,93,344496
2.0430,0.4057,39.0900,74,93,344499
2.0528,0.4008,39.1900,74,93,344502
2.0821,0.4057,39.1200,74,93,344505
2.0821,0.4008,39.1600,74,93,344509
2.1408,0.4252,38.9000,74,93,344512
2.0919,0.3861,39.0900,74,93,344515
2.0674,0.4008,39.1200,74,93,344519
2.0626,0.4057,39.1600,73,93,344522
1.9795,0.4203,39.2500,73,93,344527
2.0088,0.3959,39.1600,73,93,344530
2.0235,0.4154,39.0000,73,93,344534
1.9892,0.4301,39.1200,73,93,344538
2.0235,0.4106,39.0300,73,93,344541
1.9550,0.4008,39.1200,73,93,344544
1.9306,0.4008,39.1200,73,93,344547
1.9501,0.4057,39.0900,73,93,344551
1.9062,0.4008,39.1600,73,93,344554
1.9110,0.4057,39.0000,73,93,344557
1.8671,0.4008,39.1200,73,93,344561
1.8426,0.4008,39.1900,73,93,344564
1.8426,0.4106,39.0900,73,93,344567
1.8182,0.4154,39.1200,73,93,344571
1.8573,0.4106,38.9300,73,93,344574
1.8035,0.3959,39.1200,73,93,344578
1.7986,0.4057,39.1600,73,93,344581
1.8133,0.4057,39.1200,73,93,344585
1.8328,0.3959,39.1200,73,93,344588
1.8573,0.4154,38.8700,73,93,344591
1.8328,0.4154,39.0900,73,93,344595
1.8524,0.3959,39.1200,73,93,344598
1.8182,0.4057,39.0900,73,93,344601
1.8035,0.4106,39.1600,73,93,344605
1.8524,0.4154,39.0000,73,93,344608
1.8182,0.4008,39.1200,73,93,344611
1.8573,0.4057,39.0600,73,93,344615
1.8231,0.4008,39.2500,73,93,344619
1.8231,0.4008,39.1200,73,93,344622
1.8573,0.4106,39.0300,73,93,344625
1.8328,0.4057,39.0900,73,93,344629
1.8524,0.4057,39.0300,73,93,344632
1.8426,0.4008,39.1900,73,93,344635
1.8475,0.4008,39.2200,73,93,344639
1.8573,0.3959,39.0900,73,93,344642
1.8524,0.3959,39.1600,73,93,344645
1.8671,0.4106,39.0900,73,93,344649
1.8915,0.4008,39.1200,73,93,344652
1.9208,0.4008,39.1600,73,93,344655
2.0039,0.4106,39.2200,73,93,344658
2.0674,0.3959,39.1900,73,93,344663
2.1652,0.3861,38.9600,73,93,344666
2.2825,0.4057,39.0300,73,93,344669
2.4242,0.4057,39.1900,73,93,344673
2.6051,0.4057,39.1600,73,93,344676
2.7468,0.4008,39.1600,73,93,344679
2.9228,0.4057,38.9300,73,93,344683
2.8006,0.4008,39.0900,73,93,344686
2.6100,0.4008,39.1600,73,93,344689
2.3803,0.4057,39.0900,73,93,344692
2.1065,0.4057,39.1200,73,93,344696
1.9453,0.4203,38.8700,73,93,344699
1.7693,0.4057,39.0600,73,93,344702
1.6960,0.4057,39.1200,73,93,344707
1.7009,0.4057,39.1600,73,93,344710
1.7253,0.4008,39.1600,73,93,344713
1.8475,0.4154,38.9600,73,93,344717
1.8035,0.4057,39.1200,73,93,344720
1.8035,0.4057,39.0600,73,93,344723
1.7986,0.4008,39.1200,73,93,344727
1.7840,0.4008,38.7400,73,93,344730
1.8133,0.4497,39.0000,73,93,344733
1.7791,0.4057,39.1200,73,93,344736
1.7840,0.4350,39.0000,73,93,344740
1.7595,0.4008,39.1900,73,93,344743
1.7449,0.4008,39.1600,73,93,344747
1.7791,0.4154,39.1900,73,93,344751
1.7840,0.4057,39.1600,73,93,344754
1.7889,0.4106,39.0300,73,93,344757
1.7644,0.4057,39.1200,73,93,344761
1.7693,0.3959,38.9600,73,93,344764
1.7889,0.4057,39.0300,73,93,344767
1.7840,0.4057,39.1600,73,93,344770
1.8280,0.4106,38.9600,73,93,344774
1.7986,0.4057,39.1600,73,93,344777
1.8084,0.4008,39.1600,73,93,344780
1.8231,0.3861,39.0900,73,93,344784
1.8133,0.4008,39.1900,73,93,344787
1.8573,0.4154,38.9600,73,93,344791
1.8426,0.4057,39.0900,73,93,344795
1.8280,0.4008,39.1600,73,93,344798
1.8377,0.4057,39.1600,73,93,344801
1.8280,0.3959,39.1600,73,93,344805
1.8915,0.4252,38.9300,73,93,344808
1.8622,0.4057,39.0900,73,93,344811
1.8622,0.4008,39.0900,73,93,344815
1.8817,0.4057,39.1600,73,93,344818
1.8817,0.4203,39.1600,73,93,344821
1.9257,0.4057,39.0000,73,93,344824
1.9013,0.4057,39.1200,73,93,344828
1.9062,0.4057,39.0600,73,93,344832
1.8964,0.3959,39.1600,73,93,344835
1.9062,0.4008,39.1600,73,93,344839
1.9550,0.4154,39.0600,73,93,344842
1.9159,0.4057,39.1200,73,93,344845
1.9306,0.4057,39.0300,73,93,344849
1.9159,0.4008,39.1600,73,93,344852
1.9355,0.4008,39.1900,73,93,344855
1.9746,0.4154,39.1600,73,93,344858
1.9599,0.4008,39.1600,73,93,344862
1.9844,0.4057,39.0300,73,93,344865
1.9599,0.4301,39.1200,73,93,344868
1.9599,0.4057,39.1600,73,93,344872
1.9844,0.4106,39.0600,73,93,344876
1.9941,0.4057,39.1900,73,93,344879
2.0235,0.4106,38.9300,73,93,344883
2.0088,0.4350,39.0900,73,93,344886
2.0186,0.4106,39.1600,73,93,344889
2.0870,0.4057,39.1200,73,93,344892
2.0381,0.4008,39.1600,73,93,344896
2.0821,0.4154,38.9300,73,93,344899
2.0381,0.4057,39.0900,73,93,344902
2.0723,0.4008,39.1600,73,93,344906
2.0577,0.4057,39.1200,73,93,344909
2.0430,0.4008,39.1200,73,93,344912
2.0968,0.4203,38.9000,73,93,344916
2.0577,0.4057,39.0600,73,93,344920
2.0332,0.4008,39.1200,73,93,344923
2.0381,0.4399,39.2500,73,93,344926
2.0332,0.4008,39.1600,73,93,344930
2.0870,0.4203,39.0300,73,93,344933
2.0577,0.4057,39.0900,73,93,344936
2.0528,0.4008,39.0900,73,93,344940
2.0528,0.4057,39.1600,73,93,344943
2.0430,0.3910,39.1600,73,93,344946
2.1017,0.4057,39.0000,73,93,344949
2.0528,0.4057,39.2200,73,93,344953
2.0430,0.4057,39.0600,73,93,344956
2.0283,0.4008,39.1200,73,93,344960
2.0235,0.4008,39.1200,73,93,344964
2.0479,0.4106,39.0900,73,93,344967
2.0283,0.4057,39.1200,73,93,344970
2.0430,0.4057,38.9600,73,93,344974
2.0528,0.4008,39.1600,73,93,344977
2.0088,0.4008,39.1600,73,93,344980
2.0332,0.4106,39.0300,73,93,344983
1.9892,0.4008,39.1900,73,93,344987
2.0137,0.4057,39.0600,73,93,344990
1.9746,0.4008,39.1200,73,93,344993
1.9746,0.4057,39.1600,73,93,344997
1.9892,0.4057,39.0600,73,93,345000
1.9795,0.4057,39.1900,73,93,345004
2.0137,0.4106,38.9600,73,93,345008
1.9990,0.3861,39.1200,73,93,345011
1.9990,0.4008,39.1600,73,93,345014
2.0088,0.4448,39.0600,73,93,345017
1.9746,0.4106,39.1600,73,93,345021
1.9990,0.4106,38.9300,73,93,345024
1.9550,0.4008,39.0900,73,93,345027
1.9599,0.4057,39.1600,73,93,345031
1.9941,0.4106,39.0900,73,93,345034
1.9844,0.4008,38.9300,73,93,345037
2.0430,0.4154,38.8700,73,93,345041
2.0137,0.4057,39.0600,73,93,345044
1.9892,0.4008,39.1600,73,93,345048
1.9892,0.4057,39.1200,73,93,345051
1.9941,0.4008,39.1600,73,93,345055
2.0528,0.4203,38.9600,73,93,345058
2.0137,0.4057,39.1200,73,93,345061
2.0088,0.4008,39.1600,73,93,345065
1.9990,0.4057,39.1200,73,93,345068
2.0235,0.3959,39.1600,73,93,345071
2.0332,0.4106,38.9600,73,93,345075
2.0137,0.4057,39.1600,73,93,345078
2.0283,0.4106,39.0300,73,93,345081
2.0137,0.4057,39.1200,73,93,345084
1.9990,0.4008,39.1200,73,93,345089
2.0088,0.4106,39.1200,73,93,345092
2.0137,0.4057,39.1600,73,93,345095
2.0186,0.4106,39.0600,73,93,345099
1.9892,0.4008,39.1900,73,93,345102
1.9892,0.4057,39.1900,73,93,345105
2.0283,0.4106,39.0300,73,93,345109
2.0039,0.4350,39.1600,73,93,345112
2.0235,0.4106,38.9600,73,93,345115
2.0088,0.4008,39.0900,73,93,345118
1.9941,0.3861,39.1600,73,93,345122
2.0088,0.4057,39.0600,73,93,345125
1.9844,0.3959,39.1600,73,93,345128
2.0283,0.4106,38.9600,73,93,345133
2.0479,0.4252,38.9000,73,93,345137
2.0137,0.4057,39.1200,73,93,345141
2.0039,0.3959,39.1200,73,93,345144
2.0186,0.4057,39.1600,73,93,345147
2.0137,0.4008,39.1600,73,93,345151
2.0626,0.4203,39.0000,73,93,345154
2.0186,0.4106,39.0900,73,93,345157
2.0137,0.4057,39.0600,73,93,345160
1.9990,0.4008,39.2200,73,93,345164
1.9941,0.4252,39.1600,73,93,345167
2.0332,0.4154,39.0000,73,93,345170
2.0088,0.4057,39.0900,73,93,345175
2.0283,0.4106,39.0600,73,93,345178
2.0088,0.3959,39.1200,73,93,345181
1.9941,0.4008,39.1600,73,93,345185
2.0088,0.4154,39.0600,73,93,345188
1.9795,0.4203,39.1600,73,93,345191
2.0039,0.4057,39.0600,73,93,345194
1.9746,0.4008,39.1600,73,93,345198
1.9697,0.4008,39.1600,73,93,345201
1.9892,0.4057,39.0900,73,93,345204
1.9746,0.4008,39.1600,73,93,345208
1.9990,0.4057,39.0300,73,93,345211
1.9648,0.4008,39.1600,73,93,345214
1.9599,0.4008,39.1600,73,93,345219
1.9892,0.4301,39.0600,73,93,345222
1.9746,0.4008,39.1600,73,93,345225
2.0137,0.4106,38.9000,73,93,345228
1.9844,0.4057,39.0600,73,93,345232
1.9599,0.3959,39.1600,73,93,345235
1.9746,0.4154,39.1600,73,93,345238
1.9697,0.3861,39.1600,73,93,345242
2.0283,0.4154,38.9000,73,93,345245
1.9941,0.4057,39.0600,73,93,345248
1.9795,0.4008,39.1200,73,93,345252
1.9892,0.3959,39.1200,73,93,345255
1.9844,0.4008,39.1600,73,93,345259
2.0332,0.4203,39.2500,73,93,345263
1.9941,0.4008,39.0900,73,93,345266
2.0039,0.4008,39.0600,73,93,345269
1.9795,0.4106,39.1600,73,93,345272
1.9697,0.4057,39.1600,73,93,345276
2.0039,0.4154,39.0600,73,93,345279
1.9941,0.4057,39.1200,73,93,345282
2.0137,0.4057,38.9600,73,93,345286
2.0186,0.4057,39.1600,73,93,345289
2.0186,0.4008,39.1900,73,93,345292
2.0577,0.4154,39.0000,73,93,345296
2.0723,0.3959,39.1600,73,93,345299
2.0723,0.4154,39.0600,73,93,345303
2.0626,0.3959,39.0900,73,93,345306
2.0772,0.4106,39.1600,73,93,345310
2.1163,0.4057,39.0900,73,93,345313
2.1114,0.4008,38.4900,73,93,345316
2.1457,0.4057,39.0000,73,93,345320
2.1212,0.4008,39.0900,73,93,345323
2.1212,0.4008,39.1900,73,93,345326
2.1261,0.4350,39.1200,73,93,345330
2.0968,0.4008,39.1600,73,93,345333
2.1114,0.4057,38.9300,73,93,345336
2.0479,0.4008,39.1200,73,93,345339
2.0381,0.4008,39.1200,73,93,345344
2.0479,0.4057,39.0900,73,93,345347
2.0283,0.4008,39.1600,73,93,345350
2.0772,0.4203,38.9000,73,93,345354
2.0430,0.4106,39.0600,73,93,345357
2.0186,0.4057,39.1900,73,93,345360
2.0186,0.4057,39.2200,73,93,345364
1.9941,0.4008,39.1600,73,93,345367
2.0332,0.4252,38.9300,73,93,345370
1.9746,0.4106,39.0900,73,93,345373
1.9453,0.4008,39.1200,73,93,345377
1.9208,0.4057,39.1600,73,93,345380
1.8915,0.4008,39.1600,73,93,345383
1.9110,0.4154,39.0000,73,93,345388
1.8671,0.3861,39.1200,73,93,345391
1.8622,0.4057,39.2200,73,93,345394
1.8475,0.4008,39.1600,73,93,345398
1.8475,0.4008,39.3200,73,93,345401
1.8719,0.4154,39.0900,73,93,345404
1.8475,0.4057,39.1600,73,93,345407
1.8768,0.4106,39.0300,73,93,345411
1.8817,0.4008,39.1600,73,93,345414
1.8671,0.3861,39.1900,73,93,345417
1.9062,0.4154,39.0600,73,93,345421
1.8866,0.4008,39.1200,73,93,345424
1.9062,0.4057,39.0300,73,93,345427
1.9013,0.4008,39.0600,73,93,345432
1.8866,0.3959,39.1600,73,93,345435
1.9110,0.4106,39.0900,73,93,345438
1.9062,0.3959,39.1600,73,93,345442
1.9404,0.4106,38.9300,73,93,345445
1.9257,0.4106,39.0900,73,93,345448
1.9110,0.3959,39.1900,73,93,345451
1.9257,0.4057,39.1200,73,93,345455
1.9013,0.4008,39.1600,73,93,345458
1.9355,0.4203,38.9000,73,93,345461
1.8866,0.4008,39.1200,73,93,345465
1.8768,0.4008,39.2200,73,93,345468
1.9013,0.4106,39.1200,73,93,345472
1.9453,0.4008,39.1200,73,93,345476
2.0626,0.4497,38.9300,73,93,345479
2.0968,0.4106,39.2200,73,93,345482
2.1750,0.4008,39.1600,73,93,345485
2.3118,0.4057,39.1600,73,93,345489
2.4780,0.4008,39.1600,73,93,345492
2.6882,0.4154,39.1200,73,93,345495
2.8104,0.4057,39.1600,73,93,345499
2.8886,0.4057,39.0600,73,93,345502
2.8006,0.3959,39.1600,73,93,345505
2.6100,0.4057,39.1600,73,93,345509
2.3949,0.4106,39.0600,73,93,345512
2.1212,0.4057,39.1600,73,93,345516
1.9355,0.4154,39.0600,73,93,345520
1.7889,0.4008,39.1600,73,93,345523
1.7400,0.4008,39.1900,73,93,345526
1.7546,0.4008,39.1200,73,93,345529
1.7937,0.4057,39.1900,73,93,345533
1.8475,0.4057,39.0300,73,93,345536
1.8719,0.3959,39.1600,73,93,345539
1.8524,0.4008,39.2200,73,93,345543
1.8719,0.4057,39.0900,73,93,345546
1.8426,0.4008,39.1600,73,93,345549
1.8768,0.4106,38.9300,73,93,345553
1.8573,0.4399,39.0600,73,93,345556
1.8426,0.4008,39.1600,73,93,345560
1.8475,0.4057,39.1200,73,93,345563
1.8524,0.4008,39.1900,73,93,345567
1.8768,0.4154,38.9000,73,93,345570
1.8328,0.4106,39.0300,73,93,345573
1.8182,0.4008,39.1600,73,93,345577
1.8231,0.4057,39.1200,73,93,345580
1.8231,0.4057,39.1900,73,93,345583
1.8719,0.4252,39.0000,73,93,345587
1.8475,0.4057,39.0900,73,93,345590
1.8280,0.4008,39.0900,73,93,345593
1.8280,0.4057,39.1200,73,93,345597
1.8328,0.4301,39.1600,73,93,345601
1.8817,0.3861,39.0300,73,93,345604
1.8573,0.4057,39.2200,73,93,345607
1.8622,0.4057,39.0300,73,93,345611
1.8475,0.4008,39.1600,73,93,345614
1.8524,0.4057,39.1600,73,93,345617
1.8915,0.4106,39.0000,73,93,345621
1.8719,0.4008,39.1600,73,93,345624
1.9257,0.4106,39.0300,73,93,345627
1.8768,0.3861,39.1600,73,93,345631
1.8719,0.4008,39.0300,73,93,345634
1.8964,0.4057,39.0900,73,93,345637
1.8768,0.4008,39.1600,73,93,345641
1.9013,0.4057,39.0600,73,93,345645
1.8817,0.4106,39.1200,73,93,345648
1.8866,0.4008,39.1600,73,93,345651
1.9013,0.4057,39.0600,73,93,345655
1.8964,0.4008,39.2200,73,93,345658
1.9355,0.4154,38.9300,73,93,345661
1.9062,0.4008,39.1600,73,93,345665
1.9110,0.4008,39.1900,73,93,345668
1.9355,0.4106,39.0900,73,93,345671
1.9306,0.4008,39.1600,73,93,345675
1.9844,0.4203,38.9000,73,93,345678
1.9746,0.4057,39.0900,73,93,345681
1.9404,0.4008,39.1600,73,93,345684
1.9453,0.4057,39.1600,73,93,345689
1.9501,0.4008,39.1600,73,93,345692
2.0088,0.4252,38.9600,73,93,345695
1.9892,0.4154,39.0900,73,93,345699
1.9844,0.4008,39.0600,73,93,345702
2.0039,0.4057,39.1900,73,93,345705
1.9990,0.4008,39.1600,73,93,345709
2.0479,0.4448,39.0600,73,93,345712
2.0235,0.4057,39.1200,73,93,345715
2.0332,0.4057,39.0600,73,93,345718
2.0186,0.4008,39.1600,73,93,345722
2.0186,0.4301,39.1600,73,93,345725
2.0528,0.4106,39.0600,73,93,345729
2.0186,0.4057,39.1900,73,93,345733
2.0430,0.4057,39.0300,73,93,345736
2.0235,0.4057,39.1600,73,93,345739
2.0137,0.3959,39.1900,73,93,345742
2.0528,0.4154,39.0300,73,93,345746
2.0283,0.4106,39.1200,73,93,345750
2.0283,0.4008,39.1600,73,93,345754
2.0772,0.4106,38.9000,73,93,345757
2.0528,0.4057,39.0900,73,93,345760
2.0235,0.3861,39.1600,73,93,345764
2.0283,0.4252,39.0900,73,93,345767
2.0039,0.4057,39.1600,73,93,345771
2.0479,0.4057,38.9000,73,93,345775
1.9941,0.4008,39.0900,73,93,345778
1.9844,0.4008,39.1200,73,93,345781
1.9892,0.4106,39.1200,73,93,345784
1.9844,0.4008,39.1600,73,93,345788
2.0381,0.4252,38.9300,73,93,345791
1.9941,0.4106,39.1200,73,93,345794
1.9648,0.4008,39.1600,73,93,345798
1.9550,0.4057,39.1600,73,93,345801
1.9453,0.4008,39.1600,73,93,345804
1.9795,0.4350,39.0000,73,93,345808
1.9550,0.4057,39.1600,73,93,345811
1.9599,0.4057,39.0300,73,93,345815
1.9355,0.4057,39.1200,73,93,345819
1.9306,0.4106,39.1600,73,93,345822
1.9501,0.4154,39.0300,73,93,345825
1.9208,0.4057,39.1200,73,93,345828
1.9453,0.4154,39.0300,73,93,345832
1.9159,0.4106,39.1600,73,93,345835
1.9159,0.4008,39.1600,73,93,345838
1.9257,0.4057,39.1200,73,93,345842
1.9453,0.3959,39.1600,73,93,345845
1.9306,0.4057,38.9300,73,93,345848
1.9062,0.3959,39.1600,73,93,345852
1.8915,0.4008,39.1600,73,93,345856
1.9159,0.4106,39.0300,73,93,345859
1.9013,0.4008,39.1900,73,93,345863
1.9501,0.4106,38.9300,73,93,345866
1.9404,0.4154,39.0300,73,93,345869
1.9208,0.3861,39.1600,73,93,345872
1.9355,0.4106,39.1900,73,93,345876
1.9257,0.4008,39.1600,73,93,345879
1.9795,0.4154,38.9000,73,93,345882
1.9404,0.3861,39.0900,73,93,345886
1.9306,0.4008,39.1200,73,93,345889
1.9355,0.4057,39.1600,73,93,345892
1.9355,0.3959,39.1600,73,93,345896
1.9844,0.4203,39.0300,73,93,345900
1.9453,0.4154,39.0900,73,93,345903
1.9306,0.4106,39.0600,73,93,345906
1.9306,0.4057,39.1600,73,93,345910
1.9257,0.4301,39.1200,73,93,345913
1.9550,0.4154,39.0600,73,93,345916
1.9306,0.4057,39.1200,73,93,345920
1.9404,0.4057,39.0300,73,93,345923
1.9208,0.3861,39.1200,73,93,345926
1.9159,0.4008,39.1900,73,93,345930
1.9501,0.4106,38.9600,73,93,345933
1.9208,0.4008,39.1600,73,93,345936
1.9404,0.4106,39.0300,73,93,345940
1.9159,0.3910,39.1200,73,93,345944
1.9501,0.3959,39.1600,73,93,345947
1.9550,0.4008,39.1200,73,93,345950
1.9697,0.4057,39.1900,73,93,345954
1.9648,0.4057,39.0000,73,93,345957
1.9404,0.4106,39.0900,73,93,345960
1.9257,0.3959,39.1900,73,93,345964
1.9453,0.4106,39.0900,73,93,345967
1.9208,0.4057,39.1600,73,93,345970
1.9550,0.4057,38.9300,73,93,345974
1.9208,0.4008,39.0600,73,93,345977
1.9306,0.4008,39.1600,73,93,345980
1.9599,0.4106,39.1200,73,93,345984
1.9453,0.4008,39.1200,73,93,345988
1.9941,0.4106,38.8700,73,93,345991
1.9404,0.4057,39.0600,73,93,345994
1.9110,0.3959,39.1600,73,93,345998
1.9062,0.4106,39.1600,73,93,346001
1.9013,0.4008,39.1600,73,93,346004
1.9550,0.4252,39.0600,73,93,346008
1.9208,0.3861,39.1200,73,93,346011
1.9208,0.4008,38.4900,73,93,346014
1.9208,0.4057,39.1600,73,93,346018
1.9257,0.4008,39.1600,73,93,346021
1.9599,0.4106,39.0300,73,93,346024
1.9306,0.4057,39.1200,73,93,346028
1.9355,0.4106,39.0600,73,93,346032
1.9062,0.4008,39.1900,73,93,346035
1.8964,0.4057,39.1900,73,93,346038
1.9159,0.3861,39.1200,73,93,346042
1.9013,0.4057,39.1200,73,93,346045
1.9648,0.4057,39.0600,73,93,346048
1.9110,0.4008,39.0900,73,93,346052
1.9159,0.4008,39.1200,73,93,346055
1.9501,0.4106,39.0300,73,93,346058
1.9355,0.4008,39.2500,73,93,346061
1.9599,0.4057,39.0000,73,93,346065
1.9501,0.3959,39.0900,73,93,346068
1.9453,0.4008,39.0000,73,93,346072
1.9550,0.4057,39.2500,73,93,346076
1.9355,0.4008,39.1600,73,93,346079
1.9795,0.4057,38.9300,73,93,346082
1.9501,0.4057,39.0900,73,93,346086
1.9453,0.4106,39.1900,73,93,346089
1.9648,0.4057,39.1200,73,93,346092
1.9501,0.4057,39.2200,73,93,346095
2.0088,0.4154,38.8700,73,93,346099
1.9892,0.4057,39.0900,73,93,346102
1.9941,0.3959,39.1600,73,93,346105
2.0381,0.4057,39.1200,73,93,346109
1.9990,0.4008,39.1600,73,93,346113
2.0577,0.4497,39.0600,73,93,346116
2.0283,0.4106,39.0900,73,93,346120
2.0283,0.3959,39.0900,73,93,346123
2.0332,0.4057,38.6800,73,93,346126
2.0430,0.4008,39.2800,73,93,346129
2.0968,0.4154,39.0000,73,93,346133
2.0919,0.4106,39.1900,73,93,346136
2.0821,0.4057,39.0600,73,93,346139
2.0674,0.4008,39.1600,73,93,346143
2.0577,0.4008,39.1900,73,93,346146
2.0772,0.4154,39.0600,73,93,346149
2.0528,0.4057,39.1200,73,93,346153
2.0528,0.4057,39.0300,73,93,346157
2.0235,0.4008,39.0300,73,93,346160
2.0088,0.4106,39.1600,73,93,346163
2.0137,0.3861,39.0900,73,93,346167
1.9795,0.4057,39.0900,73,93,346170
1.9795,0.4057,39.0000,73,93,346173
1.9550,0.4008,39.1900,73,93,346177
1.9208,0.4008,39.1600,73,93,346180
1.9306,0.4106,39.0300,73,93,346183
1.9062,0.4008,39.1600,73,93,346187
1.9257,0.4106,38.9600,73,93,346190
1.9013,0.4057,39.1200,73,93,346193
1.8768,0.4106,39.1900,73,93,346196
1.8768,0.4057,38.4900,73,93,346201
1.8524,0.4008,39.1600,73,93,346204
1.8768,0.4154,38.9300,73,93,346207
1.8475,0.4008,39.0900,73,93,346211
1.8328,0.4008,39.1900,73,93,346214
1.8475,0.4154,39.0900,73,93,346217
1.8328,0.4008,39.1600,73,93,346221
1.8817,0.4154,38.8700,73,93,346224
1.8426,0.3959,39.0600,73,93,346227
1.8328,0.3861,39.1200,73,93,346230
1.8280,0.4203,39.1600,73,93,346234
1.8182,0.3861,39.1600,73,93,346237
1.8622,0.4203,39.0000,73,93,346241
1.8377,0.4057,39.0900,73,93,346245
1.8377,0.4057,39.0600,73,93,346248
1.8426,0.4057,39.1900,73,93,346251
1.8622,0.4008,39.1600,73,93,346255
1.8964,0.4106,39.0000,73,93,346258
1.8866,0.3959,39.1900,73,93,346261
1.8915,0.4057,39.0300,73,93,346265
1.8719,0.4008,39.1200,73,93,346268
1.8719,0.3959,39.1900,73,93,346271
1.8866,0.4106,39.0000,73,93,346274
1.8573,0.4057,39.0900,73,93,346278
1.8671,0.4106,39.0600,73,93,346281
1.8475,0.4008,39.1600,73,93,346285
1.8817,0.4008,39.1200,73,93,346289
1.9648,0.4057,39.0600,73,93,346292
2.0332,0.4106,39.1600,73,93,346295
2.1603,0.4106,38.9600,73,93,346299
2.2825,0.4008,39.1600,73,93,346302
2.4976,0.4106,39.1600,73,93,346305
2.7419,0.4106,39.2800,73,93,346308
2.9326,0.4106,39.1600,73,93,346312
3.0694,0.4154,38.6800,73,93,346315
3.0059,0.4154,39.0900,73,93,346318
2.8104,0.4106,39.1600,73,93,346322
2.5758,0.4057,39.1200,73,93,346326
2.2874,0.4008,39.1600,73,93,346329
2.0968,0.4154,38.9300,73,93,346333
1.8328,0.4057,39.2500,73,93,346336
1.7058,0.4497,39.1200,73,93,346339
1.6667,0.3861,39.1600,73,93,346342
1.6569,0.4008,39.1600,73,93,346346
1.7253,0.4203,39.0000,73,93,346349
1.7204,0.4057,39.1200,73,93,346352
1.7204,0.4057,39.0900,73,93,346356
1.7155,0.4008,39.1600,73,93,346359
1.6911,0.4008,39.1600,73,93,346364
1.7009,0.4008,39.1600,73,93,346368
1.7400,0.4106,39.0900,73,93,346371
1.7302,0.4008,39.1600,73,93,346375
1.7595,0.4057,39.0000,73,93,346378
1.7449,0.4008,39.0900,73,93,346381
1.7351,0.4008,39.1600,73,93,346384
1.7351,0.4057,39.0900,73,93,346388
1.7204,0.4008,39.2200,73,93,346391
1.7498,0.4154,38.9000,73,93,346394
1.7253,0.4057,39.1200,73,93,346398
1.7155,0.4008,39.1600,73,93,346401
1.7498,0.4106,39.1200,73,93,346404
1.7351,0.4008,39.1600,73,93,346408
1.7791,0.4497,38.8700,73,93,346412
1.7351,0.4057,39.0900,73,93,346415
1.7302,0.3959,39.1200,73,93,346419
1.7351,0.4008,39.1200,73,93,346422
1.7351,0.4008,39.1900,73,93,346425
1.7889,0.4448,39.0000,73,93,346429
1.7595,0.4057,39.1200,73,93,346432
1.7595,0.4008,39.1200,73,93,346435
1.7937,0.3959,39.1600,73,93,346438
1.7644,0.4008,39.2800,73,93,346442
1.8035,0.4448,39.0000,73,93,346445
1.7840,0.4057,39.1600,73,93,346448
1.7937,0.4057,39.0600,73,93,346452
1.7791,0.3959,39.1600,73,93,346456
1.7889,0.4008,39.1900,73,93,346459
1.8182,0.4154,39.0900,73,93,346463
1.7937,0.4057,39.1900,73,93,346466
1.8133,0.4106,39.0600,73,93,346469
1.7840,0.4008,39.1600,73,93,346472
1.7889,0.4106,39.1200,73,93,346476
1.8133,0.4057,39.0900,73,93,346479
1.8084,0.4008,38.9600,73,93,346482
1.8475,0.4057,39.0300,73,93,346486
1.8328,0.4008,39.1600,73,93,346489
1.8426,0.4008,39.2200,73,93,346492
1.8671,0.4106,39.0900,73,93,346497
1.8573,0.4008,39.1600,73,93,346500
1.8964,0.4350,38.9000,73,93,346503
1.9062,0.4106,39.0600,73,93,346507
1.8622,0.4008,39.1600,73,93,346510
1.8719,0.4057,39.1200,73,93,346513
1.9062,0.4008,39.1900,73,93,346516
1.9453,0.4154,38.8700,73,93,346520
1.9159,0.3959,39.0600,73,93,346523
1.9013,0.3861,39.1200,73,93,346526
1.8964,0.4057,39.2200,73,93,346530
1.8866,0.3959,39.1900,73,93,346533
1.9306,0.4203,39.0300,73,93,346536
1.8915,0.4106,39.1200,73,93,346541
1.8768,0.4057,39.0600,73,93,346544
1.8719,0.4008,39.1600,73,93,346547
1.8671,0.4057,39.1900,73,93,346550
1.9013,0.4106,39.0300,73,93,346554
1.8817,0.4399,39.1200,73,93,346557
1.8964,0.4057,39.0300,73,93,346560
1.8671,0.4008,39.1600,73,93,346564
1.8817,0.3959,39.1600,73,93,346567
1.8671,0.4154,39.0600,73,93,346570
1.8280,0.4008,39.1900,73,93,346574
1.8524,0.4057,39.0300,73,93,346577
1.8182,0.4008,39.1200,73,93,346580
1.8182,0.4154,39.1600,73,93,346585
1.8328,0.4057,39.0900,73,93,346588
1.8182,0.4008,39.1900,73,93,346591
1.8426,0.4301,38.9600,73,93,346594
1.8231,0.4008,39.1200,73,93,346598
1.8084,0.4008,39.0300,73,93,346601
1.8231,0.4252,39.1200,73,93,346604
1.8035,0.4008,39.1600,73,93,346608
1.8377,0.4106,38.3600,73,93,346611
1.7986,0.3910,39.0900,73,93,346614
1.7986,0.4008,39.1600,73,93,346618
1.8084,0.4106,39.1900,73,93,346621
1.8084,0.3959,39.1600,73,93,346625
1.8426,0.4203,38.9300,73,93,346629
1.8035,0.4252,39.0300,73,93,346632
1.7840,0.3959,39.1900,73,93,346635
1.7742,0.4057,39.2500,73,93,346638
1.7595,0.4008,39.1600,73,93,346642
1.8182,0.4154,39.0000,73,93,346645
1.7742,0.4057,39.1200,73,93,346648
1.7693,0.4008,39.0900,73,93,346652
1.7546,0.4057,39.1600,73,93,346655
1.7498,0.4008,39.1900,73,93,346658
1.7742,0.4154,39.0300,73,93,346662
1.7546,0.4057,39.1600,73,93,346665
1.7595,0.4057,39.0000,73,93,346669
1.7400,0.4057,39.1600,73,93,346672
1.7400,0.4008,39.1600,73,93,346676
1.7546,0.4008,38.9600,73,93,346679
1.7400,0.4057,39.1600,73,93,346682
1.7595,0.4106,39.0300,73,93,346686
1.7302,0.4008,39.1600,73,93,346689
1.7302,0.3959,39.1600,73,93,346692
1.7546,0.4106,39.0300,73,93,346696
1.7498,0.3959,39.1900,73,93,346699
1.7693,0.4106,38.9600,73,93,346702
1.7400,0.4057,39.0600,73,93,346706
1.7058,0.4008,39.1600,73,93,346710
1.7155,0.4057,39.0900,73,93,346713
1.7009,0.4008,39.1600,73,93,346716
1.7449,0.4154,38.9300,73,93,346720
1.7302,0.4008,39.1200,73,93,346723
1.7155,0.4008,39.1600,73,93,346726
1.7253,0.4252,39.1900,73,93,346730
1.7107,0.4008,39.1600,73,93,346733
1.7498,0.4203,38.8700,73,93,346736
1.7107,0.4057,39.0600,73,93,346740
1.6960,0.4008,39.1900,73,93,346743
1.7058,0.4057,39.1200,73,93,346746
1.6862,0.4008,39.1900,73,93,346749
1.7302,0.4154,39.0000,73,93,346754
1.7058,0.4301,39.0900,73,93,346757
1.6960,0.4008,39.0600,73,93,346760
1.6764,0.4008,39.1900,73,93,346764
1.6667,0.4008,39.1600,73,93,346767
1.7058,0.4106,39.0000,73,93,346770
1.6667,0.4057,39.1200,73,93,346774
1.6813,0.4106,39.0000,73,93,346777
1.6764,0.4057,39.1600,73,93,346780
1.6667,0.4008,39.1900,73,93,346783
1.6960,0.4106,39.0600,73,93,346787
1.6716,0.4008,39.1600,73,93,346790
1.6911,0.4106,39.0300,73,93,346793
1.6471,0.4008,39.1200,73,93,346798
1.6325,0.4008,39.1900,73,93,346801
1.6276,0.4057,39.0300,73,93,346804
1.6080,0.4301,39.1600,73,93,346808
1.6422,0.4106,39.0000,73,93,346811
1.5982,0.4008,39.1600,73,93,346814
1.5982,0.4008,39.1600,73,93,346817
1.6325,0.4106,39.0900,73,93,346821
1.6080,0.4008,39.1600,73,93,346824
1.6325,0.4154,38.9300,73,93,346827
