ecg,gsr,temp,hr,spo2,timest
1.7253,0.2542,38.2100,70,97,79295
1.6911,0.2444,38.4300,70,97,79299
1.6911,0.2346,38.4300,70,97,79302
1.7009,0.2493,38.2700,70,97,79305
1.6960,0.2444,38.4300,70,97,79308
1.7400,0.2493,38.1800,70,97,79312
1.7302,0.2737,38.3600,70,97,79315
1.7302,0.2444,38.4600,70,97,79319
1.7595,0.2493,38.3600,70,97,79322
1.7498,0.2444,38.4300,70,97,79326
1.8035,0.2542,38.1500,70,97,79329
1.7937,0.2542,38.3600,70,97,79332
1.7889,0.2444,38.4600,70,97,79335
1.7986,0.2444,38.3600,70,97,79339
1.8182,0.2395,38.4300,70,97,79342
1.8328,0.2542,38.1500,70,97,79345
1.8084,0.2444,38.4000,70,97,79348
1.8182,0.2395,38.2100,70,97,79352
1.8328,0.2493,38.3600,70,97,79355
1.8133,0.2444,38.4300,70,97,79358
1.8377,0.2493,38.1800,70,97,79363
1.8231,0.2395,38.3300,70,97,79366
1.8182,0.2395,38.4300,70,97,79369
1.8377,0.2639,38.3600,70,97,79372
1.8328,0.2444,38.6500,70,97,79376
1.8768,0.2493,38.1800,70,97,79379
1.8524,0.2493,38.3600,70,97,79382
1.8426,0.2444,38.4300,70,97,79385
1.8328,0.2444,38.4000,70,97,79389
1.8133,0.2395,38.3300,70,97,79392
1.8426,0.2493,38.1800,70,97,79395
1.7986,0.2395,38.4300,70,97,79398
1.8280,0.2395,38.4300,70,97,79403
1.8084,0.2493,38.4000,70,97,79406
1.7840,0.2395,38.4000,70,97,79409
1.8231,0.2297,38.1800,70,97,79412
1.8182,0.2395,38.3000,70,97,79416
1.8035,0.2590,38.4000,70,97,79419
1.8182,0.2493,38.4000,70,97,79422
1.8035,0.2395,38.4600,70,97,79425
1.8426,0.2395,38.2100,70,97,79429
1.8231,0.2395,38.3300,70,97,79432
1.8377,0.2444,38.4600,70,97,79435
1.8719,0.2493,38.4000,70,97,79438
1.8866,0.2395,38.4300,70,97,79442
1.9404,0.2542,38.1800,70,97,79446
1.9159,0.2444,38.4300,70,97,79449
1.9257,0.2395,38.4000,70,97,79452
1.9501,0.2493,38.3300,70,97,79456
1.9355,0.2444,38.4300,70,97,79459
1.9844,0.2493,38.1800,70,97,79462
1.9648,0.2395,38.3300,70,97,79465
1.9550,0.2395,38.5200,70,97,79469
1.9746,0.2493,37.7700,70,97,79472
1.9648,0.2395,38.4300,70,97,79475
1.9892,0.2395,38.1800,70,97,79478
1.9501,0.2688,38.2400,70,97,79482
1.9306,0.2444,38.4300,70,97,79485
1.9355,0.2444,38.3600,70,97,79489
1.9110,0.2493,38.4300,70,97,79492
1.9453,0.2444,38.2100,70,97,79496
1.9013,0.2444,38.4000,70,97,79499
1.8817,0.2395,38.4300,70,97,79502
1.8964,0.2493,38.3300,70,97,79505
1.8573,0.2395,38.4300,70,97,79509
1.8915,0.2444,38.2100,70,97,79512
1.8671,0.2444,38.2700,70,97,79515
1.8573,0.2395,38.4900,70,97,79518
1.8719,0.2493,38.4600,70,97,79522
1.8573,0.2395,38.4300,70,97,79525
1.9208,0.2444,38.2100,70,97,79528
1.8573,0.2395,38.3600,70,97,79532
1.8524,0.2395,38.4900,70,97,79536
1.8524,0.2444,38.3600,70,97,79539
1.8377,0.2444,38.4300,70,97,79542
1.8719,0.2395,38.2100,70,97,79545
1.8328,0.2346,38.4300,70,97,79549
1.8328,0.2395,38.3300,70,97,79552
1.8524,0.2493,38.3300,70,97,79555
1.8231,0.2444,38.4300,70,97,79560
1.8182,0.2346,38.4300,70,97,79563
1.8622,0.2493,38.1500,70,97,79566
1.8231,0.2444,38.3300,70,97,79570
1.8231,0.2395,38.4000,70,97,79574
1.8377,0.2444,38.4300,70,97,79577
1.8426,0.2444,38.4300,70,97,79580
1.8964,0.2542,38.1800,70,97,79584
1.8573,0.2346,38.4000,70,97,79587
1.8622,0.2395,38.4300,70,97,79590
1.8817,0.2493,38.3600,70,97,79593
1.8671,0.2444,38.4900,70,97,79597
1.9208,0.2542,38.1100,70,97,79600
1.8817,0.2493,38.3000,70,97,79603
1.8524,0.2395,38.4000,70,97,79606
1.8475,0.2493,38.4300,70,97,79610
1.8328,0.2395,38.4900,70,97,79613
1.8866,0.2493,38.1100,70,97,79617
1.8426,0.2444,38.3300,70,97,79620
1.8328,0.2346,38.4300,70,97,79624
1.8377,0.2444,38.4000,70,97,79627
1.8377,0.2444,38.4300,70,97,79630
1.8964,0.2297,38.1500,70,97,79633
1.8622,0.2444,38.3600,70,97,79637
1.8719,0.2444,38.4300,70,97,79640
1.8671,0.2346,38.4000,70,97,79643
1.8475,0.2395,38.4600,70,97,79646
1.8915,0.2444,38.1100,70,97,79650
1.8573,0.2444,38.3300,70,97,79653
1.8426,0.2395,38.4300,70,97,79656
1.8524,0.2444,38.4000,70,97,79660
1.8377,0.2395,38.4300,70,97,79664
1.8817,0.2542,38.1100,70,97,79667
1.8377,0.2493,38.3600,70,97,79670
1.8328,0.2395,38.4000,70,97,79673
1.8328,0.2444,38.4300,70,97,79677
1.8377,0.2444,38.4300,70,97,79680
1.8866,0.2639,38.1800,70,97,79683
1.8377,0.2444,38.3600,70,97,79686
1.8328,0.2395,38.4000,70,97,79690
1.8328,0.2444,38.4300,70,97,79693
1.8182,0.2444,38.4300,70,97,79696
1.8622,0.2542,38.1500,70,97,79699
1.8328,0.2444,38.3300,70,97,79704
1.8182,0.2199,38.4000,70,97,79707
1.8280,0.2493,38.4000,70,97,79710
1.8280,0.2444,38.4300,70,97,79713
1.8964,0.2542,38.1100,70,97,79717
1.8524,0.2297,38.3300,70,97,79720
1.8671,0.2346,38.4300,70,97,79723
1.8328,0.2737,38.4300,70,97,79726
1.8280,0.2395,38.4900,70,97,79730
1.8866,0.2297,38.1500,70,97,79733
1.8426,0.2444,38.3600,70,97,79736
1.8377,0.2444,38.4900,70,97,79739
1.8377,0.2639,38.4000,70,97,79744
1.8182,0.2444,38.4900,70,97,79747
1.8622,0.2493,38.1100,70,97,79750
1.8231,0.2542,38.3300,70,97,79753
1.8035,0.2346,38.4000,70,97,79757
1.8084,0.2493,38.4000,70,97,79760
1.8084,0.2395,38.4600,70,97,79763
1.9062,0.2542,38.1100,70,97,79766
1.8377,0.2444,38.3300,70,97,79770
1.8328,0.2395,38.4000,70,97,79773
1.8426,0.2444,38.4000,70,97,79776
1.8426,0.2297,38.4300,70,97,79779
1.8915,0.2493,38.1100,70,97,79783
1.8573,0.2395,38.3600,70,97,79787
1.8377,0.2590,38.4000,70,97,79790
1.8426,0.2444,38.4300,70,97,79793
1.8328,0.2444,38.4300,70,97,79797
1.8964,0.2542,38.1100,70,97,79800
1.8671,0.2395,38.3300,70,97,79803
1.8573,0.2395,38.4900,70,97,79806
1.8622,0.2444,38.4000,70,97,79810
1.8671,0.2395,38.4300,70,97,79813
1.9208,0.2542,38.1100,70,97,79816
1.9159,0.2493,38.3300,70,97,79819
1.8719,0.2590,38.4600,70,97,79823
1.8719,0.2493,38.4600,70,97,79826
1.8524,0.2395,38.4600,70,97,79830
1.8866,0.2444,38.1500,70,97,79833
1.8475,0.2444,38.4300,70,97,79837
1.8377,0.2346,38.4300,70,97,79840
1.8426,0.2444,38.5200,70,97,79843
1.8231,0.2444,38.4300,70,97,79846
1.8671,0.2493,38.1500,70,97,79850
1.8671,0.2444,38.3300,70,97,79853
1.8133,0.2346,38.4300,70,97,79856
1.8231,0.2395,38.3600,70,97,79859
1.8182,0.2346,38.4000,70,97,79863
1.8671,0.2493,38.1100,70,97,79866
1.8182,0.2444,38.3300,70,97,79869
1.8035,0.2395,38.4900,70,97,79874
1.8035,0.2444,38.4000,70,97,79877
1.7986,0.2688,38.4300,70,97,79880
1.8622,0.2493,38.1100,70,97,79883
1.8328,0.2395,38.4600,70,97,79887
1.9013,0.2395,38.4300,70,97,79890
2.0039,0.2444,38.4000,70,97,79893
2.1114,0.2444,38.4600,70,97,79896
2.3118,0.2493,38.2700,70,97,79900
2.4145,0.2444,38.3300,70,97,79903
2.5171,0.2395,38.4300,70,97,79906
2.6295,0.2542,38.4000,70,97,79909
2.7322,0.2444,38.4900,70,97,79913
2.9570,0.2493,38.1500,70,97,79917
3.0890,0.2493,38.3300,70,97,79920
3.1720,0.2297,38.4300,70,97,79923
3.0743,0.2444,38.4000,70,97,79927
2.7664,0.2395,38.5500,70,97,79930
2.4878,0.2493,38.1500,70,97,79933
2.0968,0.2395,38.4000,70,97,79936
1.8133,0.2444,38.4000,70,97,79939
1.6080,0.2493,37.6500,70,97,79943
1.4467,0.2395,38.4300,70,97,79946
1.4076,0.2493,38.0800,70,97,79949
1.3636,0.2444,38.3000,70,97,79952
1.3636,0.2395,38.4300,70,97,79956
1.4027,0.2493,38.2700,70,97,79960
1.4418,0.2444,38.4300,70,97,79963
1.5298,0.2444,38.1800,70,97,79966
1.5591,0.2493,38.3300,70,97,79970
1.5787,0.2395,38.4600,70,97,79973
1.6031,0.2444,38.4000,70,97,79976
1.5836,0.2444,38.4300,70,97,79979
1.6031,0.2493,38.1100,70,97,79983
1.5494,0.2395,38.4000,70,97,79986
1.5396,0.2395,38.4300,70,97,79989
1.5445,0.2493,38.3600,70,97,79992
1.5298,0.2444,38.4300,70,97,79996
1.5982,0.2542,38.2100,70,97,80000
1.5738,0.2444,38.3000,70,97,80003
1.5738,0.2395,38.4300,70,97,80006
1.5982,0.2493,38.4000,70,97,80010
1.6325,0.2444,38.4000,70,97,80013
1.6471,0.2493,38.1100,70,97,80016
1.6373,0.2444,38.3600,70,97,80019
1.6422,0.2395,38.4300,70,97,80023
1.6618,0.2444,38.4000,70,97,80026
1.6569,0.2786,38.4300,70,97,80029
1.7009,0.2493,38.2100,70,97,80032
1.6716,0.2395,38.4000,70,97,80036
1.6813,0.2346,38.4000,70,97,80039
1.7058,0.2444,38.3600,70,97,80043
1.6960,0.2444,38.4600,70,97,80046
1.7400,0.2493,38.2400,70,97,80050
1.7253,0.2395,38.3000,70,97,80053
1.7253,0.2395,38.6200,70,97,80056
1.7498,0.2542,38.3600,70,97,80059
1.7449,0.2444,38.4300,70,97,80063
1.7840,0.2493,38.2100,70,97,80066
1.7742,0.2444,38.3600,70,97,80069
1.7498,0.2395,38.2400,70,97,80072
1.7595,0.2493,38.3600,70,97,80076
1.7595,0.2444,38.4600,70,97,80079
1.7937,0.2542,38.2100,70,97,80082
1.7595,0.2346,38.4000,70,97,80086
1.7644,0.2346,38.4600,70,97,80090
1.7840,0.2493,38.3600,70,97,80093
1.7742,0.2444,38.4300,70,97,80096
1.8182,0.2493,38.1800,70,97,80099
1.7986,0.2542,38.3000,70,97,80103
1.7840,0.2395,38.4300,70,97,80106
1.8035,0.2493,38.5500,70,97,80109
1.7889,0.2444,38.4300,70,97,80112
1.8328,0.2346,38.1800,70,97,80116
1.8084,0.2395,38.3300,70,97,80119
1.8035,0.2395,38.4900,70,97,80122
1.8084,0.2444,38.4300,70,97,80125
1.7937,0.2444,38.4300,70,97,80130
1.8231,0.2444,38.1500,70,97,80133
1.7937,0.2395,38.4300,70,97,80136
1.7986,0.2493,38.4300,70,97,80139
1.8182,0.2493,38.3300,70,97,80143
1.7889,0.2444,38.4300,70,97,80146
1.8133,0.2493,38.1800,70,97,80149
1.7840,0.2444,38.2700,70,97,80152
1.7644,0.2444,38.4300,70,97,80156
1.7791,0.2493,38.3600,70,97,80159
1.7644,0.2395,38.4300,70,97,80162
1.8035,0.2444,38.2400,70,97,80165
1.8964,0.2493,38.1500,70,97,80171
1.8671,0.2444,38.4000,70,97,80174
1.8768,0.2444,38.4000,70,97,80178
1.8964,0.2444,38.5200,70,97,80181
1.8915,0.2395,38.4900,70,97,80184
1.9550,0.2493,38.1500,70,97,80187
1.9257,0.2493,38.3300,70,97,80191
1.9159,0.2395,38.4000,70,97,80194
1.9208,0.2444,38.4600,70,97,80197
1.9110,0.2444,38.4300,70,97,80200
1.9844,0.2542,38.1500,70,97,80204
1.9355,0.2444,38.3300,70,97,80207
1.9208,0.2590,38.4000,70,97,80210
1.9110,0.2444,38.4000,70,97,80214
1.9013,0.2444,38.4300,70,97,80218
1.9404,0.2542,38.1100,70,97,80221
1.8866,0.2395,38.4000,70,97,80224
1.8817,0.2395,38.5200,70,97,80227
1.8964,0.2395,38.4000,70,97,80231
1.8671,0.2395,38.4300,70,97,80234
1.9013,0.2542,38.1500,70,97,80237
1.8671,0.2444,38.3600,70,97,80240
1.8475,0.2395,38.4300,70,97,80244
1.8524,0.2444,38.3600,70,97,80247
1.8426,0.2395,38.4300,70,97,80250
1.8915,0.2639,38.1500,70,97,80253
1.8475,0.2444,38.3600,70,97,80258
1.8328,0.2395,38.4300,70,97,80261
1.8328,0.2444,38.4300,70,97,80264
1.8280,0.2297,38.4600,70,97,80267
1.8719,0.2542,38.1500,70,97,80271
1.8475,0.2395,38.3600,70,97,80274
1.8084,0.2346,38.4300,70,97,80277
1.8182,0.2493,37.9600,70,97,80280
1.8084,0.2444,38.4600,70,97,80284
1.8573,0.2493,38.1500,70,97,80287
1.8280,0.2395,38.4300,70,97,80290
1.8133,0.2395,38.4300,70,97,80293
1.8231,0.2444,38.4000,70,97,80297
1.8182,0.2395,38.4300,70,97,80301
1.8671,0.2493,38.1500,70,97,80304
1.8280,0.2444,38.3600,70,97,80307
1.8231,0.2395,38.4000,70,97,80311
1.8328,0.2590,38.3600,70,97,80314
1.8280,0.2444,38.4300,70,97,80317
1.8817,0.2493,38.1500,70,97,80320
1.8231,0.2395,38.4000,70,97,80324
1.8328,0.2346,38.4000,70,97,80327
1.8573,0.2493,38.3300,70,97,80330
1.8328,0.2395,38.4300,70,97,80333
1.8768,0.2493,38.2100,70,97,80337
1.8426,0.2297,38.3000,70,97,80340
1.8328,0.2346,38.4300,70,97,80344
1.8524,0.2493,38.4000,70,97,80347
1.8426,0.2395,38.5200,70,97,80351
1.8915,0.2444,38.1500,70,97,80354
1.8573,0.2444,38.3300,70,97,80357
1.8377,0.2395,38.4000,70,97,80360
1.8573,0.2444,38.4000,70,97,80364
1.8524,0.2395,38.4000,70,97,80367
1.9013,0.2493,38.1500,70,97,80370
1.8524,0.2395,38.4000,70,97,80373
1.8622,0.2395,38.4300,70,97,80377
1.8719,0.2493,38.3600,70,97,80380
1.8426,0.2395,38.4300,70,97,80384
1.8866,0.2639,38.1500,70,97,80387
1.8524,0.2444,38.4900,70,97,80391
1.8328,0.2395,38.3600,70,97,80394
1.8328,0.2444,38.4000,70,97,80397
1.8133,0.2444,38.4000,70,97,80400
1.8622,0.2493,38.0800,70,97,80404
1.8328,0.2444,38.4600,70,97,80407
1.8182,0.2395,38.4000,70,97,80410
1.8280,0.2542,38.3600,70,97,80413
1.8182,0.2395,38.6200,70,97,80417
1.8622,0.2493,38.1800,70,97,80420
1.8231,0.2395,38.4000,70,97,80423
1.8280,0.2346,38.4300,70,97,80427
1.8426,0.2639,38.3600,70,97,80431
1.8231,0.2493,38.4000,70,97,80434
1.8573,0.2493,38.1800,70,97,80437
1.8182,0.2444,38.2700,70,97,80440
1.7986,0.2493,38.4000,70,97,80444
1.8084,0.2493,38.3600,70,97,80447
1.7937,0.2444,38.4300,70,97,80450
1.8231,0.2493,38.1500,70,97,80453
1.7937,0.2444,38.3600,70,97,80457
1.7840,0.2395,38.4300,70,97,80460
1.7937,0.2444,38.4300,70,97,80463
1.7889,0.2444,38.4300,70,97,80466
1.8328,0.2493,38.1500,70,97,80471
1.7889,0.2395,38.4000,70,97,80474
1.7937,0.2444,38.4300,70,97,80477
1.8084,0.2688,38.3600,70,97,80480
1.7937,0.2395,38.3600,70,97,80484
1.8377,0.2493,38.1500,70,97,80487
1.8182,0.2444,38.3300,70,97,80490
1.8035,0.2444,38.4000,70,97,80493
1.8182,0.2493,38.3600,70,97,80497
1.8035,0.2395,38.4600,70,97,80500
1.8475,0.2493,38.1500,70,97,80503
1.8182,0.2395,38.4300,70,97,80506
1.8084,0.2493,38.4300,70,97,80510
1.8133,0.2444,38.4000,70,97,80514
1.8035,0.2297,38.4000,70,97,80517
1.8426,0.2493,38.1800,70,97,80520
1.8084,0.2884,38.4000,70,97,80524
1.8182,0.2297,38.4300,70,97,80527
1.8426,0.2493,38.3600,70,97,80530
1.8133,0.2297,38.4000,70,97,80533
1.8475,0.2542,38.1800,70,97,80537
1.8231,0.2493,38.3300,70,97,80540
1.8182,0.2395,38.4600,70,97,80543
1.8426,0.2493,38.3600,70,97,80546
1.8719,0.2444,38.4300,70,97,80550
1.9892,0.2542,38.1800,70,97,80553
2.0674,0.2444,38.3300,70,97,80557
2.1750,0.2395,38.4300,70,97,80560
2.3069,0.2493,38.4000,70,97,80564
2.3900,0.2444,38.4000,70,97,80567
2.5171,0.2493,38.1500,70,97,80570
2.5415,0.2395,37.9900,70,97,80573
2.6295,0.2395,38.4000,70,97,80577
2.7859,0.2639,38.3600,70,97,80580
2.9032,0.2444,38.4900,70,97,80583
3.0352,0.2493,38.1800,70,97,80586
2.8935,0.2395,38.2700,70,97,80590
2.6295,0.2737,38.4900,70,97,80593
2.3118,0.2542,38.3600,70,97,80596
1.9599,0.2395,38.4900,70,97,80600
1.7204,0.2297,38.1800,70,97,80604
1.5249,0.2395,38.3300,70,97,80607
1.4321,0.2346,38.4300,70,97,80610
1.4076,0.2493,38.3300,70,97,80613
1.4125,0.2444,38.5200,70,97,80617
1.4761,0.2444,38.2100,70,97,80620
1.5103,0.2444,38.4600,70,97,80623
1.5836,0.2493,38.4000,70,97,80626
1.6569,0.2493,38.3300,70,97,80630
1.6716,0.2444,38.3300,70,97,80633
1.7107,0.2297,38.2100,70,97,80636
1.6716,0.2444,38.3000,70,97,80640
1.6422,0.2395,38.4000,70,97,80644
1.6325,0.2493,38.2700,70,97,80647
1.5982,0.2444,38.4300,70,97,80650
1.6080,0.2395,38.2100,70,97,80653
1.5787,0.2590,38.3600,70,97,80657
1.5738,0.2395,38.4600,70,97,80660
1.5787,0.2444,38.4000,70,97,80663
1.5738,0.2395,38.4300,70,97,80666
1.6080,0.2444,38.2400,70,97,80670
1.5885,0.2444,38.3300,70,97,80673
1.5982,0.2395,38.4300,70,97,80676
1.6227,0.2493,38.3000,70,97,80679
1.6227,0.2395,38.4300,70,97,80684
1.6471,0.2542,38.2100,70,97,80687
1.6373,0.2444,38.2700,70,97,80690
1.6373,0.2395,38.4300,70,97,80693
1.6569,0.2493,38.4300,70,97,80697
1.6471,0.2395,38.4300,70,97,80700
1.6911,0.2395,38.2100,70,97,80703
1.6813,0.2395,38.3600,70,97,80706
1.6862,0.2395,38.3600,70,97,80710
1.7058,0.2444,38.3600,70,97,80713
1.7204,0.2444,38.4000,70,97,80716
1.7302,0.2444,38.2100,70,97,80719
1.7107,0.2444,38.3300,70,97,80723
1.7302,0.2395,38.4300,70,97,80727
1.7889,0.2542,38.3000,70,97,80730
1.7400,0.2444,38.4300,70,97,80733
1.7644,0.2444,38.2400,70,97,80737
1.7449,0.2297,38.3300,70,97,80740
1.7498,0.2444,38.4300,70,97,80743
1.8133,0.2395,38.3000,70,97,80746
1.7693,0.2395,38.4000,70,97,80750
1.8035,0.2297,38.2400,70,97,80753
1.7840,0.2297,38.3600,70,97,80756
1.7986,0.2395,38.4300,70,97,80759
1.8133,0.2493,38.3300,70,97,80763
1.8084,0.2444,38.4300,70,97,80766
1.8377,0.2444,38.2400,70,97,80770
1.8084,0.2444,38.4300,70,97,80773
1.8133,0.2395,38.4300,70,97,80777
1.8280,0.2493,38.3000,70,97,80780
1.7937,0.2444,38.4000,70,97,80785
1.7840,0.2493,38.4000,70,97,80788
1.8280,0.2493,38.2100,70,97,80791
1.8035,0.2444,38.3600,70,97,80794
1.7840,0.2395,38.4300,70,97,80798
1.7937,0.2395,38.4000,70,97,80801
1.7840,0.2395,38.4000,70,97,80804
1.8231,0.2493,38.1800,70,97,80807
1.7840,0.2395,38.4000,70,97,80812
1.7986,0.2542,38.4300,70,97,80815
1.8280,0.2493,38.4000,70,97,80818
1.8280,0.2395,38.5500,70,97,80821
1.8915,0.2493,38.1800,70,97,80825
1.8817,0.2395,38.3300,70,97,80828
1.8866,0.2639,38.4300,70,97,80831
1.9159,0.2542,38.3600,70,97,80834
1.9159,0.2395,38.5500,70,97,80838
1.9697,0.2493,38.1800,70,97,80841
1.9453,0.2297,38.3600,70,97,80844
1.9306,0.2346,38.4600,70,97,80847
1.9501,0.2395,38.4000,70,97,80851
1.9404,0.2444,38.4300,70,97,80855
1.9892,0.2542,38.1800,70,97,80858
1.9453,0.2444,38.4300,70,97,80861
1.9306,0.2395,38.4000,70,97,80865
1.9404,0.2493,38.3600,70,97,80868
1.9159,0.2444,38.4000,70,97,80871
1.9599,0.2493,38.1800,70,97,80874
1.9208,0.2346,38.3000,70,97,80878
1.9013,0.2395,38.4000,70,97,80881
1.9013,0.2493,38.3600,70,97,80884
1.8719,0.2395,38.4300,70,97,80887
1.9013,0.2346,38.2100,70,97,80891
1.8622,0.2981,38.3600,70,97,80894
1.8475,0.2395,38.4000,70,97,80898
1.8573,0.2493,38.3600,70,97,80901
1.8426,0.2395,38.4300,70,97,80905
1.8866,0.2444,38.2100,70,97,80908
1.8524,0.2346,38.4000,70,97,80911
1.8622,0.2395,38.4300,70,97,80914
1.8866,0.2493,38.3600,70,97,80918
1.8622,0.2395,38.4600,70,97,80921
1.9062,0.2493,38.1800,70,97,80924
1.8768,0.2493,38.3000,70,97,80927
1.8573,0.2395,38.4300,70,97,80931
1.8719,0.2493,38.3600,70,97,80934
1.8573,0.2444,38.4300,70,97,80937
1.9208,0.2493,38.1800,70,97,80941
1.8573,0.2395,38.4300,70,97,80945
1.8475,0.2395,38.4900,70,97,80948
1.8524,0.2444,38.4900,70,97,80951
1.8426,0.2444,38.4300,70,97,80954
1.8768,0.2542,38.1800,70,97,80958
1.8328,0.2395,38.4000,70,97,80961
1.8328,0.2444,38.5800,70,97,80964
1.8475,0.2493,38.3600,70,97,80967
1.8280,0.2444,38.4300,70,97,80971
1.8671,0.2444,38.1800,70,97,80974
1.8377,0.2444,38.3300,70,97,80977
1.8182,0.2395,38.4600,70,97,80980
1.8280,0.2444,38.4000,70,97,80985
1.8084,0.2297,38.4300,70,97,80988
1.8475,0.2542,38.1800,70,97,80991
1.8231,0.2444,38.3300,70,97,80994
1.8133,0.2395,38.4600,70,97,80998
1.8182,0.2493,38.4900,70,97,81001
1.8035,0.2297,38.4300,70,97,81004
1.8377,0.2493,38.1800,70,97,81007
1.8035,0.2444,38.3600,70,97,81011
1.8084,0.2395,38.4000,70,97,81014
1.8328,0.2493,38.3300,70,97,81017
1.8133,0.2444,38.4300,70,97,81020
1.8622,0.2493,38.1800,70,97,81025
1.8377,0.2493,38.3000,70,97,81028
1.8377,0.2395,38.4300,70,97,81031
1.8573,0.2493,38.3600,70,97,81034
1.8426,0.2395,38.4300,70,97,81038
1.8768,0.2444,38.1800,70,97,81041
1.8475,0.2493,38.3300,70,97,81044
1.8328,0.2346,38.4000,70,97,81047
1.8426,0.2395,38.4000,70,97,81051
1.8377,0.2395,38.2700,70,97,81054
1.8768,0.2444,38.1800,70,97,81057
1.8328,0.2444,38.4300,70,97,81060
1.8280,0.2444,38.4300,70,97,81064
1.8475,0.2639,38.3600,70,97,81068
1.8280,0.2395,38.4000,70,97,81071
1.8622,0.2444,38.2100,70,97,81074
1.8377,0.2297,38.3300,70,97,81078
1.8622,0.2395,38.4300,70,97,81081
1.8426,0.2493,38.3600,70,97,81084
1.8231,0.2395,38.4000,70,97,81087
1.8573,0.2444,37.4600,70,97,81091
1.8280,0.2444,38.3300,70,97,81094
1.8182,0.2395,38.4300,70,97,81097
1.8231,0.2542,38.3600,70,97,81100
1.8133,0.2786,38.4300,70,97,81104
1.8524,0.2444,38.3300,70,97,81107
1.8231,0.2395,38.4600,70,97,81111
1.8377,0.2395,38.4300,70,97,81114
1.8622,0.2542,38.3300,70,97,81118
1.8377,0.2395,38.4300,70,97,81121
1.8671,0.2444,38.1500,70,97,81124
1.8426,0.2444,38.3000,70,97,81127
1.8280,0.2395,38.4300,70,97,81131
1.8328,0.2493,38.3600,70,97,81134
1.8231,0.2297,38.4000,70,97,81137
1.8573,0.2444,38.2400,70,97,81140
1.8231,0.2444,38.3600,70,97,81144
1.8133,0.2395,38.4300,70,97,81147
1.8231,0.2493,38.3600,70,97,81150
1.8524,0.2444,38.4000,70,97,81154
1.8671,0.2493,38.2100,70,97,81158
1.8280,0.2542,38.4000,70,97,81161
1.8328,0.2395,38.4300,70,97,81164
1.8573,0.2493,38.3300,70,97,81167
1.8328,0.2395,38.4300,70,97,81171
1.8768,0.2493,38.2400,70,97,81174
1.8524,0.2395,38.4000,70,97,81177
1.8280,0.2395,38.4600,70,97,81180
1.8622,0.2395,38.3300,70,97,81184
1.8377,0.2395,38.4300,70,97,81187
1.8719,0.2444,37.6500,70,97,81190
1.8426,0.2444,38.3000,70,97,81193
1.8377,0.2395,38.4000,70,97,81198
1.8426,0.2395,38.3600,70,97,81201
1.8280,0.2590,38.4000,70,97,81204
1.8573,0.2444,38.2100,70,97,81207
1.8280,0.2297,38.4900,70,97,81211
1.8328,0.2395,38.4300,70,97,81214
1.8475,0.2493,38.3600,70,97,81217
1.8231,0.2786,38.4000,70,97,81220
1.8524,0.2444,38.2100,70,97,81224
1.8280,0.2297,38.3300,70,97,81227
1.8231,0.2444,38.4000,70,97,81230
1.8475,0.2639,38.4900,70,97,81233
1.8328,0.2444,38.4300,70,97,81238
1.8719,0.2395,38.1800,70,97,81241
1.8328,0.2444,38.3300,70,97,81244
1.8280,0.2493,38.4900,70,97,81247
1.8426,0.2444,38.4300,70,97,81251
1.8328,0.2395,38.4300,70,97,81254
1.8719,0.2444,38.2100,70,97,81257
1.8426,0.2444,38.4300,70,97,81260
1.8328,0.2444,38.4000,70,97,81264
1.8475,0.2493,38.3300,70,97,81267
1.8280,0.2395,38.4000,70,97,81270
1.8573,0.2444,38.2400,70,97,81273
1.8377,0.2395,38.4300,70,97,81277
1.8280,0.2444,38.4600,70,97,81281
1.8426,0.2444,38.3300,70,97,81284
1.8231,0.2395,38.4000,70,97,81287
1.8573,0.2444,38.2100,70,97,81291
1.8377,0.2444,38.3300,70,97,81294
1.8426,0.2346,38.4300,70,97,81297
1.8524,0.2493,38.3600,70,97,81300
1.8475,0.2444,38.4600,70,97,81304
1.8671,0.2444,38.2400,70,97,81307
1.8426,0.2395,38.4600,70,97,81310
1.8573,0.2395,38.4300,70,97,81313
1.8866,0.2444,38.3000,70,97,81317
1.8622,0.2395,38.4000,70,97,81320
1.8866,0.2444,38.2400,70,97,81324
1.8622,0.2395,38.3600,70,97,81327
1.8573,0.2346,38.4000,70,97,81331
1.8719,0.2493,38.3300,70,97,81334
1.8475,0.2444,38.3300,70,97,81337
1.8719,0.2444,38.2400,70,97,81340
1.8426,0.2395,38.3600,70,97,81344
1.8671,0.2395,38.4300,70,97,81347
1.8573,0.2590,38.3600,70,97,81350
1.8475,0.2444,38.4300,70,97,81353
1.8671,0.2395,38.2400,70,97,81357
1.8328,0.2395,38.4300,70,97,81360
1.8133,0.2444,38.4300,70,97,81363
1.8280,0.2493,38.6500,70,97,81367
1.8035,0.2395,38.3000,70,97,81371
1.8377,0.2395,38.2700,70,97,81374
1.8035,0.2346,38.3600,70,97,81377
1.8035,0.2395,38.4300,70,97,81380
1.8182,0.2493,38.3300,70,97,81384
1.8084,0.2395,38.4300,70,97,81387
1.8328,0.2493,38.2700,70,97,81390
1.8133,0.2395,38.1800,70,97,81393
1.8377,0.2395,38.4000,70,97,81398
1.8524,0.2395,38.4900,70,97,81401
1.8719,0.2493,38.5800,70,97,81405
1.8622,0.2395,38.4600,70,97,81409
1.8964,0.2542,38.1800,70,97,81412
1.8719,0.2444,38.3000,70,97,81415
1.8524,0.2395,38.4900,70,97,81419
1.8671,0.2493,38.3300,70,97,81422
1.8573,0.2297,38.4300,70,97,81425
1.8964,0.2493,38.1500,70,97,81428
1.8573,0.2395,38.3300,70,97,81432
1.8475,0.2493,38.4300,70,97,81435
1.8524,0.2493,38.3300,70,97,81438
1.8426,0.2395,38.4600,70,97,81441
1.8768,0.2297,38.1800,70,97,81445
1.8328,0.2395,38.4300,70,97,81448
1.8280,0.2346,38.4300,70,97,81452
1.8426,0.2493,38.3600,70,97,81455
1.8328,0.2395,38.4300,70,97,81459
1.8817,0.2493,38.1800,70,97,81462
1.8573,0.2493,38.3300,70,97,81465
1.8524,0.2346,38.4000,70,97,81468
1.8573,0.2786,38.3600,70,97,81472
1.8377,0.2395,38.5200,70,97,81475
1.8817,0.2493,38.2100,70,97,81478
1.8524,0.2444,38.3600,70,97,81481
1.8377,0.2395,38.4300,70,97,81485
1.8426,0.2395,38.4300,70,97,81488
1.8328,0.2493,38.4000,70,97,81491
1.8768,0.2493,38.1800,70,97,81495
1.8328,0.2346,38.4000,70,97,81499
1.8377,0.2395,38.4300,70,97,81502
1.8377,0.2444,38.4300,70,97,81505
1.8328,0.2395,38.4300,70,97,81508
1.8622,0.2542,38.1500,70,97,81512
1.8377,0.2493,38.3600,70,97,81515
1.8231,0.2395,38.4300,70,97,81518
1.8377,0.2493,38.3600,70,97,81521
1.8328,0.2444,38.4300,70,97,81525
1.8671,0.2786,38.1500,70,97,81528
1.8377,0.2493,38.3600,70,97,81531
1.8377,0.2395,38.4900,70,97,81534
1.8573,0.2444,38.3600,70,97,81539
1.8524,0.2395,38.4300,70,97,81542
1.8964,0.2493,38.1500,70,97,81545
1.8524,0.2395,38.4000,70,97,81548
1.8475,0.2395,38.4300,70,97,81552
1.8573,0.2444,38.3600,70,97,81555
1.8426,0.2395,38.4300,70,97,81558
1.8768,0.2493,38.1800,70,97,81561
1.8475,0.2737,38.3300,70,97,81565
1.8280,0.2395,38.4600,70,97,81568
1.8426,0.2444,38.3600,70,97,81571
1.8377,0.2395,38.4300,70,97,81574
1.8768,0.2493,38.1800,70,97,81579
1.8475,0.2493,38.3600,70,97,81582
1.8377,0.2786,38.4000,70,97,81585
1.8475,0.2444,38.4600,70,97,81588
1.8280,0.2297,38.4300,70,97,81592
1.8622,0.2542,38.1800,70,97,81595
1.8328,0.2444,38.4000,70,97,81598
1.8280,0.2395,38.4600,70,97,81601
1.8426,0.2493,38.3600,70,97,81605
1.8328,0.2395,38.4300,70,97,81608
1.8964,0.2297,38.1800,70,97,81611
1.8475,0.2786,38.3000,70,97,81614
1.8426,0.2395,38.4300,70,97,81618
1.8671,0.2493,38.5500,70,97,81622
1.8573,0.2346,38.4300,70,97,81625
1.8866,0.2493,38.1800,70,97,81629
1.8622,0.2542,38.3300,70,97,81632
1.8573,0.2590,38.4000,70,97,81635
1.8768,0.2444,38.3300,70,97,81638
1.8719,0.2395,38.4300,70,97,81641
1.9159,0.2590,38.1500,70,97,81645
1.8866,0.2737,38.3600,70,97,81648
1.8964,0.2395,38.5200,70,97,81651
1.9062,0.2542,38.3600,70,97,81654
1.8866,0.2395,38.4300,70,97,81658
1.9062,0.2395,38.1800,70,97,81661
1.8768,0.2444,38.3300,70,97,81665
1.8573,0.2395,38.4300,70,97,81668
1.8671,0.2493,38.3600,70,97,81672
1.8573,0.2395,38.4600,70,97,81675
1.8866,0.2493,38.1500,70,97,81678
1.8622,0.2444,38.3300,70,97,81682
1.8475,0.2395,38.4300,70,97,81685
1.8524,0.2493,38.3600,70,97,81688
1.8231,0.2444,38.4300,70,97,81691
1.8573,0.2395,38.1800,70,97,81695
1.8182,0.2444,38.4300,70,97,81698
1.8182,0.2395,38.3300,70,97,81701
1.8328,0.2493,38.4900,70,97,81704
1.8182,0.2395,37.7100,70,97,81709
1.8524,0.2493,38.1800,70,97,81712
1.8426,0.2444,38.3300,70,97,81715
1.8231,0.2444,38.4300,70,97,81718
1.8475,0.2444,38.3600,70,97,81722
1.8377,0.2444,38.4900,70,97,81725
1.8768,0.2444,38.1800,70,97,81728
1.8280,0.2444,38.3600,70,97,81731
1.8084,0.2395,38.4300,70,97,81735
1.8133,0.2444,38.4000,70,97,81738
1.8133,0.2395,38.4300,70,97,81741
1.8573,0.2444,38.2100,70,97,81744
1.8622,0.2297,38.4600,70,97,81748
1.9355,0.2395,38.4300,70,97,81752
2.0332,0.2346,38.3300,70,97,81755
2.1408,0.2493,38.4000,70,97,81758
2.3216,0.2444,38.2100,70,97,81762
2.4242,0.2395,38.3300,70,97,81765
2.4976,0.2444,38.4300,70,97,81768
2.6149,0.2395,38.3600,70,97,81771
2.6686,0.2395,38.4300,70,97,81775
2.8592,0.2444,38.1800,70,97,81778
2.9912,0.2297,38.3300,70,97,81781
3.0841,0.2395,38.4300,70,97,81784
3.0401,0.2493,38.4000,70,97,81788
2.7957,0.2297,38.4600,70,97,81792
2.5171,0.2590,38.1800,70,97,81795
2.1408,0.2444,38.4600,70,97,81798
1.8622,0.2395,38.4300,70,97,81802
1.6764,0.2493,38.4300,70,97,81805
1.5445,0.2395,38.4300,70,97,81808
1.5054,0.2395,38.1800,70,97,81811
1.4809,0.2688,38.3000,70,97,81815
1.4907,0.2395,38.4300,70,97,81818
1.5445,0.2493,38.3600,70,97,81821
1.5836,0.2395,38.4300,70,97,81824
1.6520,0.2542,38.2100,70,97,81828
1.6569,0.2444,38.3300,70,97,81831
1.6667,0.2395,38.4600,70,97,81835
1.6569,0.2444,38.3600,70,97,81838
1.6325,0.2395,38.4300,70,97,81842
1.6422,0.2444,38.2100,70,97,81845
1.5836,0.2639,38.4000,70,97,81848
1.5591,0.2395,38.5500,70,97,81851
1.5543,0.2493,38.3300,70,97,81855
1.5396,0.2395,38.4600,70,97,81858
1.5885,0.2444,38.2100,70,97,81861
1.5689,0.2590,38.3000,70,97,81864
1.5738,0.2395,38.4300,70,97,81868
1.6031,0.2444,38.4000,70,97,81871
1.6080,0.2395,38.4300,70,97,81874
1.6422,0.2444,38.4000,70,97,81878
1.6227,0.2395,38.4600,70,97,81882
1.6325,0.2395,38.4300,70,97,81885
1.6520,0.2444,38.3600,70,97,81888
1.6422,0.2346,38.4000,70,97,81891
1.6862,0.2395,38.4000,70,97,81895
1.6813,0.2444,38.4600,70,97,81898
1.7058,0.2297,38.4300,70,97,81901
1.7400,0.2493,38.3300,70,97,81904
1.7253,0.2346,38.4300,70,97,81908
1.7595,0.2444,38.1800,70,97,81911
1.7400,0.2395,38.4000,70,97,81914
1.7302,0.2444,38.4300,70,97,81917
1.7498,0.2542,38.3000,70,97,81922
1.7400,0.2444,38.4000,70,97,81925
1.7693,0.2444,38.2400,70,97,81928
1.7498,0.2395,38.4000,70,97,81931
1.7595,0.2444,38.3300,70,97,81935
1.7791,0.2444,38.3000,70,97,81938
1.7742,0.2395,38.4300,70,97,81941
1.7986,0.2395,38.2700,70,97,81944
1.7840,0.2395,38.4300,70,97,81948
1.7840,0.2444,38.4000,70,97,81951
1.8133,0.2493,38.3000,70,97,81954
1.8133,0.2395,38.4000,70,97,81957
1.8573,0.2346,38.2700,70,97,81961
1.8377,0.2444,38.3300,70,97,81965
1.8328,0.2395,38.4000,70,97,81968
1.8524,0.2493,38.3300,70,97,81971
1.8377,0.2395,38.4300,70,97,81975
1.8622,0.2395,38.2400,70,97,81978
1.8426,0.2542,38.3600,70,97,81981
1.8475,0.2395,38.5200,70,97,81984
1.8524,0.2444,37.8700,70,97,81988
1.8573,0.2395,38.4300,70,97,81991
1.8866,0.2590,38.2700,70,97,81994
1.8622,0.2395,38.4600,70,97,81997
1.8719,0.2395,38.3300,70,97,82001
1.9062,0.2297,38.3300,70,97,82004
1.8964,0.2493,38.4000,70,97,82009
1.8524,0.2444,38.4900,70,97,82013
1.8817,0.2493,38.1800,70,97,82016
1.8475,0.2444,38.3600,70,97,82019
1.8377,0.2444,38.4300,70,97,82022
1.8573,0.2786,38.3300,70,97,82026
1.8573,0.2395,38.4900,70,97,82029
1.9110,0.2493,38.1500,70,97,82032
1.8768,0.2444,38.4000,70,97,82035
1.9013,0.2688,38.4000,70,97,82039
1.9404,0.2493,38.3300,70,97,82042
1.9453,0.2297,38.4000,70,97,82045
2.0235,0.2395,38.1800,70,97,82049
1.9844,0.2444,38.2700,70,97,82053
1.9697,0.2395,38.4000,70,97,82056
1.9941,0.2493,38.3600,70,97,82059
1.9990,0.2444,38.4300,70,97,82062
2.0137,0.2444,38.1800,70,97,82066
1.9648,0.2444,38.3300,70,97,82069
1.9453,0.2297,38.4300,70,97,82072
1.9453,0.2493,38.4000,70,97,82075
1.9306,0.2639,38.4900,70,97,82079
1.9697,0.2395,38.2100,70,97,82082
1.9355,0.2395,38.4300,70,97,82085
1.9355,0.2444,38.4300,70,97,82088
1.9599,0.2590,38.3000,70,97,82093
1.9355,0.2639,38.4600,70,97,82096
1.9648,0.2444,38.2100,70,97,82099
1.9257,0.2444,38.3300,70,97,82102
1.8817,0.2444,38.4000,70,97,82106
1.8866,0.2493,38.3600,70,97,82109
1.8622,0.2395,38.4900,70,97,82112
1.8915,0.2297,38.1800,70,97,82115
1.8622,0.2444,38.3000,70,97,82119
1.8622,0.2346,38.4000,70,97,82122
1.8768,0.2395,38.3300,70,97,82125
1.8719,0.2395,38.4600,70,97,82128
1.8964,0.2444,38.2100,70,97,82132
1.8671,0.2395,38.4300,70,97,82136
1.8817,0.2395,38.4300,70,97,82139
1.8866,0.2493,38.3300,70,97,82142
1.8671,0.2639,38.4600,70,97,82146
1.8964,0.2493,38.3000,70,97,82149
1.8719,0.2444,38.3000,70,97,82152
1.8524,0.2444,38.4300,70,97,82155
1.8671,0.2493,38.3300,70,97,82159
1.8524,0.2493,38.4000,70,97,82162
1.8866,0.2444,38.2100,70,97,82165
1.8573,0.2395,38.3300,70,97,82168
1.8475,0.2395,38.4300,70,97,82172
1.8524,0.2493,38.4300,70,97,82176
1.8377,0.2688,38.4300,70,97,82179
1.8671,0.2444,38.2100,70,97,82182
1.8328,0.2395,38.4300,70,97,82186
1.8573,0.2395,38.4300,70,97,82189
1.8719,0.2493,38.3000,70,97,82192
1.8426,0.2493,38.4000,70,97,82195
1.8671,0.2444,38.3600,70,97,82199
1.8475,0.2395,38.3600,70,97,82202
1.8426,0.2297,38.4300,70,97,82205
1.8671,0.2493,38.3300,70,97,82208
1.8377,0.2346,38.4300,70,97,82212
1.8622,0.2493,38.4900,70,97,82215
1.8280,0.2444,38.7400,70,97,82219
1.8182,0.2444,38.4300,70,97,82222
1.8426,0.2590,38.3600,70,97,82226
1.8426,0.2395,38.3300,70,97,82229
1.8768,0.2444,38.2400,70,97,82232
1.8426,0.2297,38.4600,70,97,82235
1.8426,0.2444,38.4000,70,97,82239
1.8671,0.2590,38.2700,70,97,82242
1.8475,0.2444,38.4000,70,97,82245
1.8719,0.2444,38.2100,70,97,82248
1.8426,0.2395,38.3300,70,97,82252
1.8328,0.2395,38.4000,70,97,82255
1.8475,0.2444,38.2700,70,97,82258
1.8328,0.2297,38.4300,70,97,82262
1.8671,0.2542,38.3000,70,97,82266
1.8475,0.2542,38.3300,70,97,82269
1.8524,0.2395,38.4300,70,97,82272
1.8622,0.2444,38.3600,70,97,82275
1.8426,0.2395,38.4300,70,97,82279
1.8573,0.2395,38.2400,70,97,82282
1.8280,0.2444,38.4300,70,97,82285
1.8328,0.2395,38.6500,70,97,82288
1.8524,0.2493,38.3600,70,97,82292
1.8231,0.2395,38.5200,70,97,82295
1.8426,0.2444,38.2100,70,97,82298
1.8133,0.2444,38.3300,70,97,82301
1.8035,0.2444,38.4900,70,97,82306
1.8231,0.2444,38.3300,70,97,82309
1.8182,0.2395,38.4900,70,97,82312
1.8475,0.2395,38.2400,70,97,82315
1.8280,0.2346,38.3600,70,97,82319
1.8231,0.2395,38.4000,70,97,82322
1.8280,0.2444,38.3300,70,97,82325
1.8280,0.2395,38.4300,70,97,82328
1.8524,0.2444,38.3000,70,97,82332
1.8328,0.2395,38.3000,70,97,82335
1.8328,0.2395,38.4600,70,97,82338
1.8768,0.2542,38.3000,70,97,82341
1.8377,0.2493,38.4000,70,97,82345
1.8622,0.2444,38.3300,70,97,82349
1.8377,0.2395,38.3600,70,97,82352
1.8377,0.2395,38.4000,70,97,82355
1.8524,0.2395,38.4300,70,97,82359
1.8328,0.2395,38.4600,70,97,82362
1.8524,0.2395,38.2400,70,97,82365
1.8573,0.2395,38.4300,70,97,82368
1.8377,0.2395,38.4300,70,97,82372
1.8475,0.2444,38.5500,70,97,82375
1.8377,0.2297,38.4300,70,97,82378
1.8573,0.2395,38.2700,70,97,82381
1.8377,0.2444,38.4600,70,97,82385
1.8426,0.2444,38.4000,70,97,82388
1.8719,0.2493,38.5500,70,97,82392
1.8377,0.2395,38.4000,70,97,82395
1.8573,0.2395,38.2700,70,97,82399
1.8280,0.2395,38.3600,70,97,82402
1.8182,0.2346,38.4300,70,97,82405
1.8377,0.2493,38.3600,70,97,82408
1.8182,0.2395,38.4900,70,97,82412
1.8377,0.2395,38.3000,70,97,82415
1.8084,0.2346,38.4000,70,97,82418
1.7986,0.2395,38.4300,70,97,82421
1.8084,0.2444,38.4600,70,97,82425
1.8133,0.2297,38.4300,70,97,82428
1.8426,0.2444,38.3000,70,97,82432
1.8182,0.2395,38.4000,70,97,82435
1.8182,0.2395,38.4000,70,97,82439
1.8426,0.2493,38.3000,70,97,82442
1.8182,0.2395,38.4600,70,97,82445
1.8524,0.2395,38.3000,70,97,82448
1.8133,0.2688,38.4000,70,97,82452
1.8084,0.2395,38.4900,70,97,82455
1.8328,0.2493,38.3300,70,97,82458
1.8035,0.2395,38.4300,70,97,82461
1.8377,0.2542,38.3000,70,97,82465
1.8133,0.2395,38.3600,70,97,82468
1.8231,0.2395,38.4300,70,97,82471
1.8377,0.2444,38.4300,70,97,82475
1.8182,0.2444,38.4300,70,97,82479
1.8475,0.2542,38.3300,70,97,82482
1.8182,0.2346,38.4000,70,97,82485
1.8280,0.2395,38.3000,70,97,82488
1.8719,0.2493,38.3000,70,97,82492
1.8426,0.2444,38.4300,70,97,82495
1.8719,0.2493,38.3000,70,97,82498
1.8377,0.2346,38.4600,70,97,82501
1.8328,0.2395,38.4000,70,97,82505
1.8671,0.2493,38.3300,70,97,82508
1.8426,0.2444,38.4300,70,97,82511
1.8719,0.2493,38.3300,70,97,82514
1.8328,0.2395,38.4900,70,97,82519
1.8133,0.2395,38.4600,70,97,82522
1.8328,0.2395,38.3600,70,97,82525
1.8328,0.2395,38.4300,70,97,82528
1.8475,0.2493,38.3000,70,97,82532
1.8182,0.2395,38.4600,70,97,82535
1.8182,0.2395,38.4300,70,97,82538
1.8426,0.2493,38.3000,70,97,82541
1.8133,0.2444,38.4300,70,97,82545
1.8426,0.2542,38.3300,70,97,82548
1.8182,0.2395,38.4000,70,97,82551
1.8231,0.2395,38.4300,70,97,82554
1.8524,0.2444,38.3000,70,97,82558
1.8475,0.2395,38.4300,70,97,82562
1.8671,0.2493,38.3300,70,97,82565
1.8475,0.2395,38.4300,70,97,82568
1.8524,0.2395,38.4300,70,97,82572
1.8573,0.2395,38.3300,70,97,82575
1.8377,0.2444,38.4000,70,97,82578
1.8524,0.2493,38.3000,70,97,82581
1.8280,0.2395,38.1100,70,97,82585
1.8377,0.2395,38.4600,70,97,82588
1.8768,0.2542,38.3000,70,97,82591
1.8475,0.2444,38.4000,70,97,82594
1.8719,0.2493,38.3300,70,97,82598
1.8328,0.2395,38.3300,70,97,82601
1.8475,0.2444,38.4600,70,97,82605
1.8866,0.2542,38.3000,70,97,82608
1.8426,0.2444,38.4000,70,97,82612
1.8671,0.2493,38.3000,70,97,82615
1.8377,0.2297,38.4300,70,97,82618
1.8328,0.2444,38.4300,70,97,82622
1.8328,0.2395,38.4000,70,97,82625
1.8426,0.2493,38.3600,70,97,82628
1.8182,0.2395,38.4300,70,97,82632
1.8377,0.2444,38.2700,70,97,82635
1.8084,0.2444,38.3300,70,97,82638
1.8035,0.2395,38.5200,70,97,82641
1.8231,0.2444,38.6500,70,97,82646
1.8377,0.2395,38.4600,70,97,82649
1.9306,0.2444,38.1800,70,97,82652
1.9990,0.2346,38.3300,70,97,82655
2.1212,0.2395,38.5500,70,97,82659
2.2727,0.2444,38.3600,70,97,82662
2.3851,0.2346,38.4300,70,97,82665
2.5318,0.2444,38.1800,70,97,82668
2.5953,0.2395,38.3300,70,97,82672
2.7126,0.2297,38.4600,70,97,82675
2.9032,0.2493,38.3300,70,97,82678
3.0645,0.2395,38.4300,70,97,82681
3.1378,0.2444,37.7100,70,97,82685
2.9521,0.2297,38.3600,70,97,82689
2.6686,0.2444,38.4300,70,97,82692
2.3754,0.2493,38.3300,70,97,82695
2.0235,0.2395,38.4000,70,97,82699
1.7742,0.2395,38.2400,70,97,82702
1.5445,0.2297,38.3600,70,97,82705
1.4516,0.2395,38.4300,70,97,82708
1.3636,0.2542,38.3600,70,97,82712
1.3539,0.2395,38.6200,70,97,82715
1.4027,0.2297,38.2700,70,97,82718
1.4321,0.2395,38.4600,70,97,82721
1.4858,0.2395,38.4300,70,97,82725
1.5640,0.2395,38.3000,70,97,82728
1.5934,0.2395,38.3600,70,97,82732
1.6373,0.2395,38.2700,70,97,82735
1.6227,0.2395,38.3600,70,97,82739
1.6031,0.2444,38.4300,70,97,82742
1.5982,0.2395,38.3300,70,97,82745
1.5591,0.2395,38.4900,70,97,82748
1.5787,0.2444,38.2400,70,97,82752
1.5640,0.2395,38.4000,70,97,82755
1.5640,0.2444,38.4300,70,97,82758
1.5738,0.2444,38.3300,70,97,82761
1.5689,0.2395,38.4000,70,97,82765
1.6325,0.2444,38.2700,70,97,82768
1.5982,0.2444,38.4000,70,97,82771
1.5982,0.2493,38.4300,70,97,82775
1.6325,0.2493,38.4300,70,97,82779
1.6178,0.2395,38.4900,70,97,82782
1.6471,0.2395,38.2400,70,97,82785
1.6520,0.2395,38.3600,70,97,82788
1.6471,0.2395,38.4000,70,97,82792
1.6764,0.2444,38.3300,70,97,82795
1.6716,0.2395,38.4900,70,97,82798
1.7107,0.2444,38.2700,70,97,82801
1.6960,0.2297,38.4000,70,97,82805
1.7058,0.2395,38.2100,70,97,82808
1.7253,0.2444,38.3600,70,97,82811
1.7204,0.2395,38.4600,70,97,82814
1.7595,0.2444,38.2700,70,97,82819
1.7302,0.2493,38.4000,70,97,82822
1.7400,0.2395,38.4300,70,97,82825
1.7791,0.2542,38.3000,70,97,82828
1.7546,0.2395,38.4300,70,97,82832
1.7937,0.2737,38.2700,70,97,82835
1.7742,0.2346,38.4900,70,97,82838
1.7840,0.2395,38.4600,70,97,82841
1.8133,0.2444,38.3000,70,97,82845
1.7986,0.2395,38.4600,70,97,82848
1.8280,0.2493,38.3300,70,97,82851
1.8035,0.2395,38.2700,70,97,82854
1.8084,0.2346,38.4300,70,97,82857
1.8280,0.2444,38.4300,70,97,82862
1.8182,0.2444,38.4300,70,97,82865
1.8426,0.2444,38.3300,70,97,82868
1.8133,0.2444,38.4600,70,97,82871
1.8231,0.2639,38.4000,70,97,82875
1.8524,0.2493,38.4000,70,97,82878
1.8182,0.2395,38.4300,70,97,82881
1.8377,0.2493,38.3300,70,97,82884
1.8231,0.2346,38.4000,70,97,82888
1.8035,0.2395,38.4900,70,97,82891
1.8231,0.2493,38.6800,70,97,82894
1.8035,0.2395,38.4300,70,97,82897
1.8182,0.2444,38.3000,70,97,82902
1.7840,0.2395,38.3300,70,97,82905
1.7791,0.2395,38.4300,70,97,82908
1.7840,0.2444,38.4000,70,97,82911
1.7595,0.2444,38.4300,70,97,82915
1.7742,0.2444,38.2700,70,97,82918
1.7498,0.2444,38.4000,70,97,82921
1.7498,0.2346,38.4000,70,97,82924
1.7791,0.2590,38.2700,70,97,82928
1.7546,0.2395,38.4600,70,97,82931
1.7840,0.2297,38.3300,70,97,82934
1.7742,0.2542,38.4000,70,97,82937
1.7889,0.2395,38.6500,70,97,82941
1.8328,0.2493,38.3000,70,97,82945
1.8280,0.2444,38.4000,70,97,82948
1.8768,0.2737,38.3000,70,97,82951
1.8768,0.2444,38.3600,70,97,82955
1.8964,0.2395,38.4300,70,97,82958
1.9306,0.2493,38.3600,70,97,82961
1.9208,0.2346,38.4000,70,97,82964
1.9404,0.2444,38.3000,70,97,82968
1.9110,0.2444,38.4300,70,97,82971
1.9208,0.2444,38.4300,70,97,82974
1.9501,0.2835,38.3000,70,97,82977
1.9159,0.2444,38.4000,70,97,82981
1.9355,0.2444,38.3300,70,97,82984
1.9110,0.2444,38.4300,70,97,82988
1.9062,0.2786,38.4000,70,97,82991
1.9306,0.2493,38.2700,70,97,82995
1.9013,0.2444,38.4000,70,97,82998
1.9453,0.2444,38.2700,70,97,83001
1.8817,0.2737,38.4000,70,97,83004
1.8719,0.2395,38.4300,70,97,83008
1.8915,0.2493,38.3600,70,97,83011
1.8671,0.2444,38.4000,70,97,83014
1.8817,0.2493,38.3000,70,97,83017
1.8573,0.2444,38.4000,70,97,83021
1.8573,0.2395,38.3300,70,97,83024
1.8817,0.2493,38.3300,70,97,83027
1.8475,0.2444,38.4300,70,97,83031
1.8622,0.2444,38.3000,70,97,83035
1.8328,0.2444,38.4000,70,97,83038
1.8328,0.2395,38.4000,70,97,83041
1.8573,0.2493,38.2700,70,97,83044
1.8328,0.2444,38.4000,70,97,83048
1.8475,0.2444,38.2700,70,97,83051
1.8328,0.2395,38.5500,70,97,83054
1.8377,0.2444,38.4300,70,97,83057
1.8671,0.2493,38.2700,70,97,83061
1.8475,0.2444,38.4000,70,97,83064
1.8622,0.2444,38.2400,70,97,83067
1.8524,0.2395,38.4300,70,97,83070
1.8622,0.2639,38.4000,70,97,83075
1.9110,0.2493,38.2400,70,97,83078
1.8719,0.2444,38.4300,70,97,83081
1.8768,0.2444,38.3000,70,97,83084
1.8573,0.2444,38.4900,70,97,83088
1.8524,0.2395,38.4300,70,97,83091
1.8817,0.2297,38.3600,70,97,83094
1.8671,0.2444,38.4000,70,97,83097
1.8817,0.2444,38.3300,70,97,83101
1.8671,0.2493,38.4000,70,97,83104
1.8622,0.2493,38.4000,70,97,83107
1.8915,0.2493,38.3300,70,97,83110
1.8622,0.2444,38.4000,70,97,83115
1.8671,0.2493,38.3000,70,97,83118
1.8475,0.2346,38.4000,70,97,83121
1.8377,0.2395,38.4600,70,97,83124
1.8671,0.2493,38.2400,70,97,83128
1.8328,0.2444,38.4000,70,97,83131
1.8377,0.2444,38.3300,70,97,83134
1.8671,0.2444,38.4300,70,97,83137
1.8328,0.2395,38.4900,70,97,83141
1.8622,0.2493,38.2400,70,97,83144
1.8328,0.2444,38.4000,70,97,83147
1.8426,0.2395,38.3300,70,97,83150
1.8328,0.2346,38.4000,70,97,83154
1.8280,0.2395,38.4300,70,97,83158
1.8573,0.2493,38.3300,70,97,83161
1.8280,0.2444,38.3600,70,97,83164
1.8231,0.2444,38.3300,70,97,83168
1.8524,0.2395,38.4000,70,97,83171
1.8280,0.2395,38.4300,70,97,83174
1.8768,0.2493,38.2700,70,97,83177
1.8475,0.2444,38.4000,70,97,83181
1.8475,0.2395,38.3300,70,97,83184
1.8377,0.2395,38.3600,70,97,83187
1.8377,0.2395,38.4000,70,97,83190
1.8719,0.2493,38.2400,70,97,83194
1.8377,0.2444,38.4000,70,97,83197
1.8671,0.2395,38.3300,70,97,83201
1.8328,0.2444,38.4000,70,97,83204
1.8328,0.2590,38.4300,70,97,83208
1.8719,0.2493,37.6200,70,97,83211
1.8426,0.2444,38.4000,70,97,83214
1.8377,0.2395,38.3300,70,97,83217
1.8280,0.2444,38.4300,70,97,83221
1.8182,0.2395,38.5500,70,97,83224
1.8524,0.2493,38.2400,70,97,83227
1.8475,0.2542,38.3300,70,97,83231
1.8280,0.2493,38.2400,70,97,83234
1.8524,0.2444,37.8700,70,97,83237
1.8328,0.2444,38.4600,70,97,83241
1.8719,0.2395,38.4000,70,97,83245
1.8524,0.2444,38.4000,70,97,83248
1.8426,0.2444,38.4300,70,97,83251
1.8671,0.2444,38.3000,70,97,83255
1.8573,0.2395,38.3600,70,97,83258
1.8622,0.2444,38.4300,70,97,83261
1.8964,0.2542,38.2700,70,97,83264
1.8622,0.2444,38.4600,70,97,83268
1.8817,0.2444,38.3600,70,97,83271
1.8524,0.2297,38.4600,70,97,83274
1.8524,0.2493,38.4300,70,97,83277
1.8719,0.2542,38.3000,70,97,83281
1.8475,0.2395,38.4300,70,97,83284
1.8671,0.2395,38.3300,70,97,83288
1.8426,0.2444,38.4000,70,97,83291
1.8182,0.2493,38.4300,70,97,83295
1.8280,0.2444,38.4000,70,97,83298
1.8133,0.2297,38.4300,70,97,83301
1.8573,0.2395,38.3000,70,97,83304
1.8084,0.2444,38.3600,70,97,83308
1.8035,0.2395,38.4900,70,97,83311
1.8328,0.2493,38.2700,70,97,83314
1.8035,0.2444,38.4300,70,97,83317
1.8182,0.2346,38.3000,70,97,83321
1.7986,0.2444,38.4600,70,97,83324
1.7986,0.2395,38.4900,70,97,83328
1.8182,0.2542,38.2700,70,97,83331
1.7889,0.2493,38.4000,70,97,83335
1.8084,0.2444,38.3600,70,97,83338
1.7986,0.2297,38.4300,70,97,83341
1.7986,0.2297,38.4300,70,97,83344
1.8182,0.2493,38.3600,70,97,83348
1.8084,0.2542,38.4000,70,97,83351
1.8231,0.2444,38.2700,70,97,83354
1.8133,0.2395,38.4600,70,97,83357
1.8182,0.2395,38.4300,70,97,83361
1.8573,0.2542,38.2400,70,97,83364
1.8524,0.2395,38.4300,70,97,83367
1.8426,0.2444,38.2700,70,97,83371
1.8231,0.2395,38.4900,70,97,83375
1.8280,0.2395,38.4300,70,97,83378
1.8817,0.2493,38.2700,70,97,83381
1.8328,0.2444,38.4000,70,97,83384
1.8524,0.2444,38.3000,70,97,83388
1.8280,0.2395,38.4600,70,97,83391
1.8231,0.2395,38.4300,70,97,83394
1.8475,0.2542,38.3600,70,97,83397
1.8328,0.2884,38.4000,70,97,83401
1.8475,0.2444,38.3000,70,97,83404
1.8280,0.2444,38.4300,70,97,83407
1.8426,0.2395,38.4300,70,97,83410
1.8719,0.2590,38.3000,70,97,83415
1.8524,0.2444,38.4000,70,97,83418
1.8719,0.2395,38.3000,70,97,83421
1.8524,0.2444,38.4300,70,97,83424
1.8573,0.2444,38.4000,70,97,83428
1.8866,0.2786,38.3000,70,97,83431
1.8622,0.2444,38.3300,70,97,83434
1.8768,0.2444,38.3300,70,97,83437
1.8622,0.2444,38.4000,70,97,83441
1.8573,0.2395,38.4300,70,97,83444
1.8671,0.2590,38.3600,70,97,83447
1.8377,0.2444,38.5500,70,97,83450
1.8426,0.2297,38.3300,70,97,83454
1.8377,0.2444,38.4000,70,97,83458
1.8524,0.2444,38.4300,70,97,83461
1.9355,0.2639,38.2400,70,97,83464
1.9795,0.2444,38.4000,70,97,83468
2.0870,0.2395,38.4000,70,97,83471
2.1945,0.2444,38.4300,70,97,83474
2.2923,0.2737,38.4900,70,97,83477
2.4194,0.2493,38.2700,70,97,83481
2.4585,0.2444,38.4900,70,97,83484
2.5513,0.2395,38.2700,70,97,83487
2.6295,0.2395,38.4000,70,97,83490
2.7761,0.2590,38.4000,70,97,83494
2.9570,0.2493,38.5500,70,97,83497
2.9619,0.2444,38.4000,70,97,83501
2.8152,0.2542,38.3600,70,97,83504
2.5220,0.2346,38.4000,70,97,83508
2.1848,0.2395,38.4300,70,97,83511
1.9013,0.2493,38.2400,70,97,83514
1.6325,0.2444,38.4000,70,97,83517
1.4956,0.2493,38.3300,70,97,83521
1.4272,0.2395,38.4000,70,97,83524
1.4076,0.2395,38.4900,70,97,83527
1.4467,0.2542,38.3000,70,97,83530
1.4565,0.2444,38.4000,70,97,83534
1.5249,0.2395,38.4900,70,97,83537
1.5934,0.2395,38.4300,70,97,83540
1.6471,0.2395,38.4600,70,97,83544
1.7058,0.2493,38.3300,70,97,83548
1.6813,0.2542,38.3600,70,97,83551
1.6667,0.2395,38.4000,70,97,83554
1.6471,0.2444,38.4600,70,97,83557
1.6325,0.2395,38.4900,70,97,83561
1.6520,0.2493,38.2700,70,97,83564
1.6178,0.2297,38.4300,70,97,83567
1.6178,0.2395,38.3300,70,97,83570
1.6129,0.2688,38.4000,70,97,83574
1.6178,0.2395,38.6200,70,97,83577
1.6569,0.2297,38.2700,70,97,83580
1.6422,0.2395,38.4300,70,97,83584
1.6471,0.2493,38.2700,70,97,83588
1.6471,0.2444,38.4000,70,97,83591
1.6471,0.2395,38.5200,70,97,83594
1.6862,0.2493,38.3300,70,97,83597
1.6716,0.2444,38.4300,70,97,83601
1.6813,0.2493,38.3600,70,97,83604
1.6813,0.2395,38.4300,70,97,83607
1.6862,0.2395,38.5500,70,97,83610
1.7204,0.2493,38.2400,70,97,83614
1.7009,0.2444,38.4000,70,97,83617
1.7009,0.2444,38.3600,70,97,83620
1.6960,0.2444,38.4000,70,97,83623
1.7204,0.2444,38.4300,70,97,83628
1.7351,0.2688,38.2700,70,97,83631
1.7107,0.2444,38.3600,70,97,83634
1.7204,0.2395,38.3600,70,97,83637
1.7253,0.2444,38.4000,70,97,83641
1.7302,0.2444,38.4300,70,97,83644
1.7742,0.2835,38.2700,70,97,83647
1.7449,0.2444,38.4000,70,97,83650
1.7449,0.2395,38.3600,70,97,83654
1.7546,0.2444,38.4300,70,97,83657
1.7546,0.2395,38.4300,70,97,83660
1.8084,0.2542,38.2700,70,97,83663
1.7840,0.2493,38.4000,70,97,83667
1.7840,0.2395,38.3600,70,97,83671
1.7889,0.2444,38.4000,70,97,83674
1.7937,0.2444,38.4300,70,97,83677
1.8426,0.2542,38.3000,70,97,83681
1.8084,0.2444,38.3000,70,97,83684
1.8084,0.2346,38.4000,70,97,83687
1.8084,0.2493,38.4000,70,97,83690
1.8035,0.2395,38.4000,70,97,83694
1.8622,0.2590,38.2400,70,97,83697
1.8377,0.2444,38.3600,70,97,83700
1.8377,0.2297,38.3600,70,97,83703
1.8475,0.2444,38.4000,70,97,83706
1.8426,0.2395,38.4000,70,97,83710
1.8915,0.2542,38.1800,70,97,83714
1.8426,0.2444,38.3600,70,97,83717
1.8280,0.2346,38.4000,70,97,83721
1.8182,0.2444,38.4000,70,97,83724
1.8035,0.2395,38.4600,70,97,83727
1.8524,0.2590,38.2400,70,97,83730
1.7986,0.2493,38.4000,70,97,83733
1.7937,0.2346,38.4300,70,97,83737
1.8035,0.2444,38.4000,70,97,83740
1.7986,0.2395,38.4300,70,97,83743
1.8719,0.2639,38.2100,70,97,83746
1.8377,0.2493,38.3600,70,97,83750
1.8328,0.2346,38.4000,70,97,83753
1.8524,0.2444,38.4300,70,97,83757
1.8671,0.2444,38.4300,70,97,83760
1.9355,0.2493,38.2100,70,97,83764
1.8964,0.2542,38.3600,70,97,83767
1.8915,0.2395,38.3300,70,97,83770
1.8915,0.2444,38.4300,70,97,83773
1.8964,0.2395,38.4300,70,97,83777
1.9550,0.2493,38.2100,70,97,83780
1.9062,0.2493,38.4000,70,97,83783
1.9013,0.2395,38.3600,70,97,83786
1.8964,0.2444,38.4000,70,97,83790
1.8866,0.2444,38.4300,70,97,83793
1.9306,0.2639,38.1800,70,97,83796
1.8817,0.2493,38.3600,70,97,83800
1.8573,0.2395,38.4000,70,97,83804
1.8573,0.2444,38.4300,70,97,83807
1.8524,0.2395,38.4300,70,97,83810
1.9062,0.2639,38.2400,70,97,83813
1.8671,0.2493,38.3600,70,97,83817
1.8573,0.2346,38.1500,70,97,83820
1.8573,0.2444,38.4300,70,97,83823
1.8524,0.2395,38.4300,70,97,83826
1.9013,0.2590,38.1800,70,97,83830
1.8524,0.2444,38.4000,70,97,83833
1.8475,0.2346,38.4600,70,97,83836
1.8524,0.2444,38.4300,70,97,83840
1.8524,0.2493,38.4300,70,97,83844
1.8622,0.2493,38.4000,70,97,83847
1.8964,0.2493,38.2400,70,97,83851
1.8622,0.2444,38.4600,70,97,83854
1.8719,0.2297,38.3000,70,97,83857
1.8426,0.2444,38.4000,70,97,83860
1.8377,0.2395,37.6800,70,97,83864
1.8719,0.2493,38.3000,70,97,83867
1.8768,0.2395,38.4300,70,97,83870
1.8573,0.2737,38.3000,70,97,83873
1.8328,0.2444,38.5500,70,97,83877
1.8231,0.2395,38.4600,70,97,83880
1.8573,0.2493,38.3300,70,97,83884
1.8524,0.2395,38.3600,70,97,83887
1.8475,0.2493,38.3600,70,97,83891
1.8280,0.2737,38.4300,70,97,83894
1.8231,0.2395,38.4900,70,97,83897
1.8524,0.2493,38.3300,70,97,83900
1.8280,0.2444,38.4300,70,97,83904
1.8426,0.2444,38.3000,70,97,83907
1.8328,0.2444,38.4600,70,97,83910
1.8280,0.2395,38.4300,70,97,83913
1.8622,0.2493,38.2400,70,97,83917
1.8573,0.2444,38.4300,70,97,83920
1.8524,0.2395,38.3000,70,97,83923
1.8426,0.2444,38.4900,70,97,83927
1.8328,0.2395,38.4300,70,97,83931
1.8622,0.2542,38.3300,70,97,83934
1.8377,0.2444,38.4000,70,97,83937
1.8328,0.2542,38.3000,70,97,83940
1.8133,0.2395,38.4000,70,97,83944
1.8133,0.2395,38.3300,70,97,83947
1.8524,0.2590,38.2400,70,97,83950
1.8133,0.2297,38.4000,70,97,83953
1.8280,0.2395,38.3300,70,97,83957
1.8133,0.2395,38.4600,70,97,83960
1.8133,0.2395,38.4300,70,97,83963
1.8573,0.2297,38.2700,70,97,83966
1.8328,0.2444,38.4000,70,97,83971
1.8475,0.2493,38.3000,70,97,83974
1.8328,0.2444,38.4000,70,97,83977
1.8280,0.2395,38.4600,70,97,83980
1.8671,0.2493,38.3000,70,97,83984
1.8475,0.2493,38.3600,70,97,83987
1.8573,0.2395,38.2700,70,97,83990
1.8426,0.2444,38.3300,70,97,83993
1.8475,0.2395,38.4300,70,97,83997
1.8866,0.2493,38.2400,70,97,84000
1.8573,0.2444,38.4300,70,97,84003
1.8622,0.2395,38.3000,70,97,84006
1.8524,0.2444,38.5500,70,97,84011
1.8475,0.2395,38.4300,70,97,84014
1.8915,0.2542,38.2700,70,97,84017
1.8524,0.2395,38.4000,70,97,84020
1.8622,0.2395,38.3000,70,97,84024
1.8475,0.2444,38.1800,70,97,84027
1.8426,0.2395,38.4300,70,97,84030
1.8817,0.2542,38.3000,70,97,84033
1.8475,0.2493,38.4000,70,97,84037
1.8475,0.2395,38.4300,70,97,84040
1.8475,0.2444,37.8300,70,97,84043
1.8573,0.2395,38.4300,70,97,84046
1.9013,0.2444,38.2100,70,97,84050
1.8622,0.2493,38.3600,70,97,84054
1.8573,0.2395,38.7100,70,97,84057
1.8475,0.2444,38.4300,70,97,84060
1.8426,0.2444,38.4300,70,97,84064
1.8866,0.2542,38.3000,70,97,84067
1.8475,0.2444,38.4300,70,97,84070
1.8426,0.2297,38.3600,70,97,84073
1.8280,0.2444,38.4600,70,97,84077
1.8182,0.2395,38.4300,70,97,84080
1.8719,0.2933,38.2700,70,97,84083
1.8475,0.2444,38.5800,70,97,84086
1.8377,0.2395,38.3300,70,97,84090
1.8231,0.2444,38.4300,70,97,84093
1.8182,0.2395,38.4300,70,97,84097
1.8573,0.2493,38.2400,70,97,84100
1.8182,0.2444,38.4000,70,97,84104
1.8182,0.2395,38.3300,70,97,84107
1.8182,0.2395,38.4300,70,97,84110
1.8280,0.2395,38.4300,70,97,84113
1.8768,0.2542,38.0800,70,97,84117
1.8426,0.2493,38.3300,70,97,84120
1.8475,0.2395,38.3300,70,97,84123
1.8377,0.2444,38.4300,70,97,84126
1.8426,0.2297,38.4300,70,97,84130
1.8817,0.2590,38.2700,70,97,84133
1.8426,0.2444,38.3600,70,97,84136
1.8280,0.2395,38.3300,70,97,84140
1.8133,0.2444,38.4300,70,97,84144
1.8231,0.2444,38.4300,70,97,84147
1.8671,0.2542,38.2100,70,97,84150
1.8231,0.2444,38.4000,70,97,84153
1.8182,0.2395,38.4000,70,97,84157
1.8133,0.2297,38.4000,70,97,84160
1.8328,0.2346,38.4300,70,97,84163
1.8817,0.2590,38.1800,70,97,84166
1.8524,0.2444,38.4000,70,97,84170
1.8719,0.2395,38.3600,70,97,84173
1.8768,0.2444,38.4000,70,97,84176
1.8671,0.2395,38.4000,70,97,84179
1.9110,0.2590,37.4900,70,97,84184
1.8671,0.2493,38.3600,70,97,84187
1.8377,0.2346,38.3300,70,97,84190
1.8231,0.2395,38.4000,70,97,84193
1.8133,0.2395,38.2700,70,97,84197
1.8719,0.2590,38.3000,70,97,84200
1.8231,0.2493,38.3600,70,97,84203
1.8182,0.2346,38.3600,70,97,84206
1.8133,0.2493,38.4000,70,97,84210
1.8035,0.2395,38.4600,70,97,84213
1.8622,0.2590,38.1800,70,97,84216
1.8573,0.2444,38.4000,70,97,84219
1.8426,0.2346,38.3600,70,97,84224
1.9013,0.2444,38.4000,70,97,84227
1.9844,0.2395,38.5200,70,97,84230
2.1505,0.2590,38.2100,70,97,84233
2.2141,0.2493,38.3600,70,97,84237
2.3167,0.2346,38.7100,70,97,84240
2.4242,0.2444,38.3600,70,97,84243
2.5073,0.2395,38.4300,70,97,84246
2.6637,0.2639,38.1800,70,97,84250
2.7224,0.2395,38.3600,70,97,84253
2.8641,0.2395,38.3600,70,97,84256
3.0108,0.2444,38.3300,70,97,84259
3.0450,0.2395,38.4000,70,97,84263
2.9374,0.2590,38.1500,70,97,84267
2.5904,0.2395,38.4000,70,97,84270
2.2630,0.2346,38.4000,70,97,84273
1.9599,0.2444,38.4300,70,97,84277
1.7058,0.2395,38.6200,70,97,84280
1.5982,0.2493,38.1500,70,97,84283
1.4907,0.2395,38.3600,70,97,84286
1.4663,0.2346,38.4000,70,97,84290
1.4761,0.2542,38.4000,70,97,84293
1.4956,0.2346,38.3300,70,97,84296
1.5982,0.2493,38.1500,70,97,84299
1.6325,0.2444,38.4300,70,97,84303
1.6764,0.2346,38.4000,70,97,84306
1.7155,0.2395,38.4000,70,97,84310
1.6960,0.2688,38.4600,70,97,84313
1.7302,0.2542,38.1500,70,97,84317
1.6618,0.2395,38.3600,70,97,84320
1.6422,0.2346,38.4000,70,97,84323
1.6080,0.2444,38.4300,70,97,84326
1.5836,0.2346,38.4000,70,97,84330
1.6129,0.2493,38.4000,70,97,84333
1.5689,0.2444,38.3300,70,97,84336
1.5787,0.2444,38.4300,70,97,84339
1.5934,0.2395,38.4300,70,97,84343
1.5982,0.2395,38.4300,70,97,84346
1.6569,0.2493,38.2400,70,97,84349
1.6325,0.2444,38.3600,70,97,84353
1.6276,0.2297,38.4600,70,97,84357
1.6325,0.2444,38.4300,70,97,84360
1.6325,0.2444,38.4300,70,97,84363
1.6813,0.2493,38.1500,70,97,84366
1.6569,0.2395,38.4000,70,97,84370
1.6716,0.2346,38.4300,70,97,84373
1.6911,0.2297,38.4300,70,97,84376
1.6960,0.2395,38.4300,70,97,84379
1.7791,0.2542,38.1100,70,97,84383
1.7302,0.2737,38.4000,70,97,84386
1.7253,0.2395,38.4000,70,97,84389
1.7302,0.2444,38.4000,70,97,84392
1.7302,0.2444,38.4300,70,97,84397
1.7840,0.2493,38.1800,70,97,84400
1.7644,0.2444,38.5200,70,97,84403
1.7693,0.2444,38.4300,70,97,84406
1.7840,0.2395,38.4300,70,97,84410
1.7889,0.2395,38.5800,70,97,84413
1.8426,0.2493,38.1500,70,97,84416
1.8133,0.2395,38.4000,70,97,84419
1.8231,0.2346,38.4600,70,97,84423
1.8280,0.2395,38.4300,70,97,84426
1.8182,0.2737,38.4000,70,97,84429
1.8524,0.2493,38.1500,70,97,84432
1.8231,0.2444,38.3300,70,97,84436
1.8133,0.2444,38.4300,70,97,84440
1.8475,0.2395,38.4000,70,97,84443
1.8231,0.2395,38.5500,70,97,84446
1.8719,0.2493,38.1500,70,97,84450
1.8768,0.2590,38.2400,70,97,84453
1.8426,0.2444,38.4000,70,97,84457
1.8426,0.2395,38.3300,70,97,84460
1.8377,0.2297,38.4300,70,97,84463
1.8377,0.2395,38.4300,70,97,84466
1.8964,0.2590,38.2100,70,97,84470
1.8426,0.2444,38.4000,70,97,84473
1.8328,0.2395,38.3300,70,97,84476
1.8133,0.2395,38.4300,70,97,84480
1.8573,0.2444,38.4000,70,97,84484
1.8817,0.2688,38.2400,70,97,84487
1.8426,0.2444,38.4000,70,97,84490
1.8524,0.2395,38.3300,70,97,84493
1.8671,0.2444,38.4300,70,97,84497
1.8866,0.2395,38.4300,70,97,84500
1.9306,0.2835,38.2400,70,97,84503
1.8964,0.2444,38.4000,70,97,84506
1.9159,0.2395,38.3300,70,97,84510
1.9355,0.2395,38.4300,70,97,84513
1.9404,0.2395,38.4300,70,97,84516
2.0137,0.2688,38.1800,70,97,84519
1.9795,0.2444,38.3600,70,97,84524
1.9746,0.2297,38.3300,70,97,84527
1.9844,0.2444,38.4300,70,97,84530
1.9795,0.2395,38.4000,70,97,84533
2.0283,0.2590,38.2100,70,97,84537
1.9599,0.2444,38.3000,70,97,84540
1.9257,0.2297,38.3300,70,97,84543
1.9208,0.2444,38.4300,70,97,84546
1.9062,0.2395,38.4000,70,97,84550
1.9599,0.2590,38.1800,70,97,84553
1.9159,0.2444,38.4000,70,97,84556
1.9062,0.2493,38.4000,70,97,84559
1.9013,0.2444,38.4000,70,97,84563
1.8915,0.2395,38.5500,70,97,84567
1.9501,0.2639,38.1500,70,97,84570
1.9110,0.2542,38.3300,70,97,84573
1.8915,0.2395,38.3600,70,97,84577
1.8866,0.2444,38.4300,70,97,84580
1.8719,0.2395,38.4300,70,97,84583
1.9110,0.2590,38.2100,70,97,84586
1.8622,0.2444,38.3600,70,97,84590
1.8622,0.2590,38.4000,70,97,84593
1.8671,0.2444,38.4900,70,97,84596
1.8622,0.2395,38.4300,70,97,84599
1.9159,0.2493,38.2100,70,97,84603
1.9062,0.2444,38.4000,70,97,84606
1.8817,0.2346,38.4000,70,97,84610
1.8915,0.2444,38.4600,70,97,84613
1.8671,0.2395,38.4300,70,97,84617
1.9062,0.2590,38.2100,70,97,84620
1.8524,0.2444,38.3300,70,97,84623
1.8280,0.2346,38.3300,70,97,84626
1.8328,0.2444,38.4300,70,97,84630
1.8377,0.2395,38.4300,70,97,84633
1.8915,0.2493,38.1500,70,97,84636
1.8426,0.2297,38.3600,70,97,84639
1.8328,0.2395,38.4300,70,97,84643
1.8328,0.2346,38.4000,70,97,84646
1.8328,0.2395,38.4300,70,97,84649
1.9013,0.2493,38.1500,70,97,84653
1.8719,0.2444,38.3600,70,97,84657
1.8671,0.2346,38.4300,70,97,84660
1.8622,0.2444,38.4000,70,97,84663
1.8475,0.2444,38.4000,70,97,84666
1.9013,0.2542,38.1100,70,97,84670
1.8719,0.2493,38.3300,70,97,84673
1.8573,0.2346,38.3600,70,97,84676
1.8622,0.2444,38.4300,70,97,84679
1.8915,0.2395,38.4000,70,97,84683
1.9257,0.2884,38.1500,70,97,84686
1.8768,0.2542,38.4000,70,97,84689
1.8524,0.2395,37.6200,70,97,84692
1.8475,0.2444,38.4000,70,97,84697
1.8328,0.2395,38.4300,70,97,84700
1.8866,0.2444,38.1500,70,97,84703
1.8524,0.2444,38.3600,70,97,84706
1.8524,0.2395,37.6200,70,97,84710
1.8524,0.2297,38.4000,70,97,84713
1.8377,0.2395,38.4300,70,97,84716
1.8866,0.2590,38.1800,70,97,84719
1.8524,0.2493,38.3000,70,97,84723
1.8377,0.2346,38.3600,70,97,84726
1.8573,0.2444,38.4300,70,97,84729
1.8622,0.2395,38.4300,70,97,84732
1.9257,0.2981,38.1500,70,97,84737
1.8866,0.2444,38.3600,70,97,84740
1.8768,0.2395,38.7400,70,97,84743
1.8622,0.2444,38.4300,70,97,84746
1.8719,0.2346,38.4600,70,97,84750
1.8915,0.2493,38.0800,70,97,84753
1.8377,0.2444,38.3300,70,97,84756
1.8231,0.2395,38.4000,70,97,84759
1.8231,0.2444,38.3600,70,97,84763
1.8182,0.2395,38.4900,70,97,84766
1.8817,0.2542,38.1800,70,97,84769
1.8671,0.2444,38.3300,70,97,84772
1.8573,0.2395,38.4000,70,97,84776
1.8573,0.2444,38.4300,70,97,84780
1.8377,0.2395,38.4300,70,97,84783
1.8768,0.2444,38.1100,70,97,84786
1.8328,0.2493,38.3300,70,97,84790
1.8231,0.2346,38.4600,70,97,84793
1.8280,0.2444,38.4300,70,97,84796
1.8133,0.2346,38.4300,70,97,84799
1.8719,0.2542,38.1800,70,97,84803
1.8280,0.2639,38.3600,70,97,84806
1.8280,0.2346,38.6200,70,97,84809
1.8328,0.2395,38.4000,70,97,84812
1.8280,0.2395,38.4300,70,97,84816
1.8671,0.2835,38.0800,70,97,84819
1.8377,0.2444,38.3000,70,97,84823
1.8328,0.2346,38.4300,70,97,84826
1.8719,0.2395,38.4300,70,97,84830
1.8573,0.2493,38.4000,70,97,84833
1.9062,0.2493,38.1100,70,97,84836
1.8524,0.2444,38.3600,70,97,84839
1.8328,0.2395,38.4000,70,97,84843
1.8280,0.2444,38.4000,70,97,84846
1.8280,0.2395,38.4300,70,97,84849
1.8817,0.2493,38.1500,70,97,84852
1.8328,0.2297,38.3600,70,97,84856
1.8280,0.2395,38.4000,70,97,84859
1.8328,0.2444,38.4000,70,97,84862
1.8328,0.2395,38.4900,70,97,84866
1.8964,0.2493,38.1500,70,97,84870
1.8915,0.2493,38.3300,70,97,84873
1.8622,0.2688,38.4000,70,97,84876
1.8622,0.2444,38.4000,70,97,84879
1.8475,0.2395,38.4600,70,97,84883
1.9013,0.2590,38.0800,70,97,84886
1.8671,0.2395,38.3300,70,97,84889
1.8671,0.2395,38.4900,70,97,84892
1.8719,0.2444,38.4000,70,97,84896
1.8524,0.2395,38.4300,70,97,84899
1.8866,0.2542,38.1800,70,97,84902
1.8280,0.2639,38.3600,70,97,84905
1.8280,0.2395,38.4300,70,97,84910
1.8377,0.2444,38.4000,70,97,84913
1.8328,0.2395,38.4300,70,97,84916
1.8719,0.2542,38.1100,70,97,84919
1.8280,0.2444,38.3300,70,97,84923
1.8084,0.2395,38.4300,70,97,84926
1.8133,0.2297,38.4000,70,97,84929
1.8084,0.2395,38.4000,70,97,84932
1.8671,0.2493,38.1100,70,97,84936
1.8377,0.2688,38.3300,70,97,84939
1.8377,0.2395,38.4000,70,97,84942
1.8475,0.2444,38.4000,70,97,84945
1.8328,0.2395,38.4300,70,97,84950
1.8671,0.2542,38.2400,70,97,84953
1.8182,0.2444,38.3600,70,97,84956
1.8182,0.2395,38.4000,70,97,84959
1.8231,0.2444,38.4000,70,97,84963
1.8280,0.2395,38.1500,70,97,84966
1.8915,0.2493,38.1100,70,97,84969
1.8719,0.2444,38.3600,70,97,84972
1.8622,0.2395,37.7400,70,97,84976
1.8622,0.2444,38.3300,70,97,84979
1.8573,0.2395,38.4300,70,97,84982
1.9062,0.2493,38.1500,70,97,84985
1.8719,0.2395,38.3600,70,97,84989
1.8573,0.2444,38.4900,70,97,84993
1.8622,0.2444,38.3600,70,97,84996
1.8622,0.2395,38.4300,70,97,84999
1.9159,0.2493,38.1500,70,97,85003
1.8768,0.2444,38.3600,70,97,85006
1.8768,0.2346,38.4000,70,97,85009
1.8866,0.2444,38.4900,70,97,85012
1.8768,0.2395,38.4600,70,97,85016
1.9110,0.2493,38.1500,70,97,85019
1.8719,0.2444,38.3300,70,97,85022
1.8573,0.2395,38.5200,70,97,85025
1.8719,0.2444,38.5800,70,97,85029
1.8768,0.2395,38.4600,70,97,85032
1.9257,0.2493,38.1500,70,97,85036
1.9110,0.2444,38.3600,70,97,85039
1.8768,0.2395,38.4300,70,97,85043
1.8719,0.2444,38.4600,70,97,85046
1.8622,0.2395,38.4300,70,97,85049
1.9062,0.2444,38.1800,70,97,85052
1.8622,0.2444,38.4000,70,97,85056
1.8671,0.2395,38.4300,70,97,85059
1.8817,0.2444,38.4000,70,97,85062
1.8524,0.2444,38.4300,70,97,85066
1.8524,0.2395,38.4000,70,97,85069
1.9110,0.2590,38.2100,70,97,85072
1.8768,0.2444,38.4000,70,97,85076
1.8719,0.2444,38.3300,70,97,85080
1.8671,0.2444,38.4300,70,97,85083
1.8524,0.2395,38.6500,70,97,85086
1.8915,0.2590,38.1800,70,97,85090
1.8377,0.2297,38.4300,70,97,85093
1.8377,0.2444,38.3300,70,97,85096
1.8280,0.2346,38.4000,70,97,85099
1.8377,0.2493,38.4900,70,97,85103
1.9013,0.2542,38.3300,70,97,85106
1.8964,0.2444,38.3600,70,97,85109
1.9795,0.2444,38.3300,70,97,85112
2.0479,0.2297,38.4000,70,97,85116
2.1750,0.2395,38.4000,70,97,85120
2.3900,0.2590,38.1800,70,97,85123
2.4682,0.2444,38.3600,70,97,85126
2.5758,0.2346,38.4000,70,97,85130
2.6833,0.2395,38.4300,70,97,85133
2.8104,0.2395,38.4300,70,97,85136
3.0450,0.2639,38.1100,70,97,85139
3.1574,0.2444,38.2100,70,97,85143
3.2111,0.2346,38.4300,70,97,85146
3.0694,0.2395,38.4300,70,97,85149
2.7517,0.2444,38.4000,70,97,85152
2.4878,0.2590,38.3000,70,97,85156
2.1065,0.2395,38.3600,70,97,85159
1.8182,0.2590,38.4000,70,97,85163
1.6031,0.2444,38.4000,70,97,85166
1.4516,0.2395,38.4000,70,97,85170
1.4467,0.2542,38.1100,70,97,85173
1.3832,0.2395,38.3000,70,97,85176
1.3685,0.2346,38.4300,70,97,85179
1.4076,0.2444,38.3000,70,97,85183
1.4516,0.2395,38.4300,70,97,85186
1.5885,0.2542,38.1800,70,97,85189
1.5689,0.2395,38.4000,70,97,85192
1.6080,0.2395,38.4600,70,97,85196
1.6325,0.2444,38.4000,70,97,85199
1.6178,0.2297,38.4300,70,97,85202
1.6422,0.2542,38.1800,70,97,85206
1.5885,0.2786,38.3600,70,97,85210
1.5689,0.2395,37.7400,70,97,85213
1.5738,0.2395,38.4000,70,97,85216
1.5738,0.2395,38.4300,70,97,85219
1.6227,0.2493,38.1800,70,97,85223
1.5934,0.2395,38.3300,70,97,85226
1.5885,0.2542,38.4000,70,97,85229
1.5982,0.2395,38.3300,70,97,85232
1.6031,0.2395,38.4300,70,97,85236
1.6618,0.2590,38.1500,70,97,85239
1.6373,0.2346,38.4000,70,97,85242
1.6373,0.2639,38.4000,70,97,85245
1.6520,0.2444,38.3300,70,97,85250
1.6520,0.2395,38.4900,70,97,85253
1.7058,0.2493,38.0500,70,97,85256
1.6813,0.2786,38.3000,70,97,85259
1.6764,0.2346,38.4600,70,97,85263
1.6960,0.2444,38.5800,70,97,85266
1.6813,0.2395,38.4300,70,97,85269
1.7351,0.2444,38.1100,70,97,85272
1.7009,0.2346,38.3300,70,97,85276
1.6960,0.2395,38.4000,70,97,85279
1.7107,0.2444,38.3600,70,97,85282
1.7204,0.2395,38.4300,70,97,85285
1.7400,0.2590,38.1100,70,97,85289
1.7009,0.2395,38.4900,70,97,85293
1.7155,0.2395,38.4300,70,97,85296
1.7253,0.2444,38.4300,70,97,85299
1.7595,0.2395,38.4300,70,97,85303
1.7742,0.2493,38.1800,70,97,85306
1.7498,0.2444,38.3300,70,97,85309
1.7498,0.2395,38.4300,70,97,85312
1.7693,0.2444,38.4300,70,97,85316
1.7595,0.2395,38.4300,70,97,85319
1.8231,0.2444,38.1100,70,97,85322
1.7889,0.2444,38.3300,70,97,85325
1.7791,0.2395,38.6500,70,97,85329
1.7889,0.2395,38.4000,70,97,85332
1.7791,0.2395,38.4000,70,97,85336
1.8426,0.2542,38.1800,70,97,85339
1.8035,0.2395,38.4000,70,97,85343
1.7937,0.2346,38.4300,70,97,85346
1.8035,0.2395,38.4300,70,97,85349
1.7986,0.2395,38.4600,70,97,85352
1.8524,0.2395,38.1100,70,97,85356
1.8182,0.2395,38.3300,70,97,85359
1.8084,0.2395,38.4600,70,97,85362
1.8084,0.2444,38.4000,70,97,85365
1.8084,0.2395,38.4300,70,97,85369
1.8377,0.2590,38.1100,70,97,85372
1.7986,0.2395,38.3600,70,97,85376
1.7937,0.2395,38.4000,70,97,85379
1.7986,0.2444,38.4300,70,97,85383
1.7986,0.2444,38.4000,70,97,85386
1.8524,0.2493,38.0800,70,97,85389
1.8133,0.2395,38.5800,70,97,85392
1.8280,0.2297,38.4300,70,97,85396
1.8328,0.2395,38.4000,70,97,85399
1.8328,0.2590,38.4900,70,97,85402
1.8866,0.2493,38.1500,70,97,85405
1.8622,0.2444,38.3300,70,97,85409
1.8866,0.2346,38.4300,70,97,85412
1.9159,0.2395,38.4000,70,97,85415
1.8866,0.2395,38.3300,70,97,85419
1.9453,0.2493,38.1500,70,97,85423
1.9062,0.2444,38.3300,70,97,85426
1.9013,0.2395,37.6800,70,97,85429
1.9110,0.2395,38.4000,70,97,85432
1.9062,0.2395,38.3600,70,97,85436
1.9550,0.2297,38.1500,70,97,85439
1.8964,0.2395,38.4000,70,97,85442
1.8915,0.2395,38.4300,70,97,85445
1.8964,0.2542,38.4000,70,97,85449
1.8719,0.2688,38.4300,70,97,85452
1.9208,0.2444,38.1500,70,97,85455
1.8964,0.2444,38.3300,70,97,85458
1.8671,0.2444,38.4300,70,97,85463
1.8719,0.2444,38.3600,70,97,85466
1.8524,0.2346,38.4900,70,97,85469
1.8915,0.2493,38.1800,70,97,85472
1.8524,0.2395,38.6800,70,97,85476
1.8426,0.2395,38.4300,70,97,85479
1.8524,0.2395,38.4300,70,97,85482
1.8377,0.2395,38.4000,70,97,85485
1.8768,0.2493,38.1500,70,97,85489
1.8377,0.2395,38.4000,70,97,85492
1.8475,0.2395,38.4300,70,97,85495
1.8671,0.2395,38.3300,70,97,85498
1.8671,0.2395,38.4000,70,97,85502
1.9062,0.2542,38.1500,70,97,85506
1.8768,0.2444,38.3300,70,97,85509
1.8719,0.2395,38.4300,70,97,85512
1.8817,0.2395,38.4000,70,97,85516
1.8719,0.2444,38.4300,70,97,85519
1.9159,0.2737,38.1500,70,97,85522
1.8719,0.2395,38.3000,70,97,85525
1.8573,0.2395,38.4300,70,97,85529
1.8622,0.2444,38.4000,70,97,85532
1.8475,0.2395,38.4600,70,97,85535
1.9013,0.2493,38.1100,70,97,85538
1.8622,0.2542,38.4000,70,97,85542
1.8671,0.2395,38.4300,70,97,85545
1.8768,0.2444,38.3600,70,97,85549
1.8573,0.2395,38.4600,70,97,85552
1.9306,0.2395,38.1500,70,97,85556
1.8817,0.2444,38.2700,70,97,85559
1.8622,0.2297,38.4300,70,97,85562
1.8719,0.2444,38.4300,70,97,85565
1.8573,0.2395,38.4300,70,97,85569
1.9013,0.2395,38.1500,70,97,85572
1.8719,0.2639,38.3600,70,97,85575
1.8573,0.2395,38.4900,70,97,85578
1.8622,0.2444,38.4000,70,97,85582
1.8475,0.2395,38.4000,70,97,85585
1.8817,0.2542,38.1500,70,97,85588
1.8280,0.2639,38.3600,70,97,85592
1.8328,0.2395,38.4300,70,97,85596
1.8524,0.2444,38.4000,70,97,85599
1.8377,0.2395,38.4600,70,97,85602
1.8719,0.2395,38.1800,70,97,85605
1.8426,0.2444,38.3000,70,97,85609
1.8231,0.2395,38.4600,70,97,85612
1.8328,0.2444,38.4900,70,97,85615
1.8280,0.2395,38.4300,70,97,85618
1.8719,0.2444,38.1500,70,97,85622
1.8475,0.2493,38.3300,70,97,85625
1.8377,0.2395,38.3300,70,97,85628
1.8475,0.2444,38.4000,70,97,85632
1.8328,0.2395,38.4300,70,97,85636
1.8817,0.2395,38.1500,70,97,85639
1.8377,0.2444,38.3600,70,97,85642
1.8377,0.2395,38.4900,70,97,85645
1.8524,0.2444,38.3300,70,97,85649
1.8328,0.2395,38.4300,70,97,85652
1.8768,0.2542,38.1500,70,97,85655
1.8524,0.2444,38.3600,70,97,85658
1.8377,0.2395,38.4300,70,97,85662
1.8475,0.2444,38.4600,70,97,85665
1.8377,0.2297,38.4000,70,97,85668
1.8768,0.2835,38.1800,70,97,85671
1.8915,0.2590,38.2100,70,97,85676
1.8426,0.2297,38.4000,70,97,85679
1.8377,0.2395,38.4000,70,97,85683
1.8377,0.2493,38.4000,70,97,85686
1.8231,0.2346,38.4000,70,97,85689
1.8719,0.2590,38.3000,70,97,85692
1.8280,0.2444,38.3000,70,97,85696
1.8084,0.2346,38.4000,70,97,85699
1.8133,0.2395,38.4300,70,97,85702
1.8084,0.2395,38.4600,70,97,85705
1.8671,0.2493,38.1500,70,97,85709
1.8231,0.2444,38.3600,70,97,85712
1.8084,0.2444,38.4000,70,97,85715
1.8133,0.2395,38.4000,70,97,85719
1.8133,0.2297,38.4600,70,97,85723
1.8719,0.2493,38.1800,70,97,85726
1.8231,0.2444,38.3600,70,97,85729
1.8231,0.2395,38.3600,70,97,85732
1.8231,0.2444,38.4000,70,97,85736
1.8182,0.2493,38.4300,70,97,85739
1.8768,0.2590,38.1500,70,97,85742
1.8426,0.2444,38.3300,70,97,85745
1.8328,0.2346,38.4000,70,97,85749
1.8671,0.2395,38.4000,70,97,85752
1.8280,0.2444,38.4900,70,97,85755
1.8817,0.2590,38.1800,70,97,85758
1.8377,0.2444,38.3300,70,97,85763
1.8328,0.2346,38.4000,70,97,85766
1.8280,0.2395,38.4300,70,97,85769
1.8231,0.2395,38.4000,70,97,85772
1.8719,0.2590,38.1100,70,97,85776
1.8231,0.2395,38.3600,70,97,85779
1.8280,0.2297,38.4000,70,97,85782
1.8426,0.2444,38.4000,70,97,85785
1.8377,0.2444,38.4000,70,97,85789
1.8866,0.2933,38.1800,70,97,85792
1.8426,0.2444,38.2100,70,97,85795
1.8280,0.2395,38.4300,70,97,85798
1.8328,0.2444,38.3600,70,97,85803
1.8182,0.2395,38.4300,70,97,85806
1.8768,0.2590,38.1500,70,97,85809
1.8328,0.2688,38.3300,70,97,85812
1.8231,0.2395,38.4300,70,97,85816
1.8280,0.2395,38.4000,70,97,85819
1.8280,0.2444,38.4300,70,97,85822
1.8817,0.2590,38.1100,70,97,85825
1.8328,0.2395,38.0500,70,97,85829
1.8426,0.2395,38.4300,70,97,85832
1.8573,0.2395,38.4300,70,97,85835
1.8328,0.2395,38.4300,70,97,85838
1.8866,0.2542,38.3300,70,97,85842
1.8524,0.2395,38.3300,70,97,85846
1.8524,0.2395,38.4300,70,97,85849
1.8475,0.2395,38.4300,70,97,85852
1.8280,0.2444,38.4300,70,97,85856
1.8768,0.2542,38.1100,70,97,85859
1.8475,0.2444,38.3300,70,97,85862
1.8622,0.2395,38.4600,70,97,85865
1.9208,0.2444,38.4000,70,97,85869
1.9941,0.2493,38.4000,70,97,85872
2.1603,0.2493,38.0800,70,97,85875
2.2239,0.2395,38.3600,70,97,85878
2.3265,0.2395,38.4600,70,97,85882
2.4291,0.2346,38.3600,70,97,85885
2.4829,0.2786,38.4900,70,97,85889
2.6197,0.2493,38.1500,70,97,85892
2.6686,0.2297,38.3300,70,97,85896
2.7908,0.2444,38.4000,70,97,85899
2.9423,0.2493,38.4000,70,97,85902
2.9668,0.2395,38.4300,70,97,85905
2.8983,0.2444,38.1500,70,97,85909
2.5660,0.2444,38.3300,70,97,85912
2.2141,0.2444,38.4000,70,97,85915
1.9062,0.2444,38.4600,70,97,85918
1.6422,0.2395,38.4000,70,97,85922
1.5396,0.2395,38.1100,70,97,85925
1.4321,0.2395,38.4000,70,97,85928
1.4174,0.2786,38.3300,70,97,85932
1.4516,0.2444,38.4600,70,97,85936
1.4761,0.2395,38.3600,70,97,85939
1.5787,0.2297,38.1800,70,97,85942
1.6373,0.2395,38.3300,70,97,85945
1.6813,0.2395,38.4000,70,97,85949
1.7204,0.2688,38.3600,70,97,85952
1.7058,0.2346,38.4600,70,97,85955
1.7302,0.2444,38.1500,70,97,85958
1.6716,0.2395,38.3600,70,97,85962
1.6373,0.2346,38.4300,70,97,85965
1.6227,0.2395,38.4000,70,97,85968
1.5982,0.2395,38.4000,70,97,85971
1.6276,0.2493,38.1500,70,97,85976
1.5934,0.2395,38.3600,70,97,85979
1.5982,0.2395,38.4300,70,97,85982
1.6227,0.2444,38.4000,70,97,85985
1.6178,0.2395,38.4300,70,97,85989
1.6667,0.2493,38.1100,70,97,85992
1.6422,0.2395,38.3300,70,97,85995
1.6325,0.2493,38.4900,70,97,85998
1.6520,0.2493,38.4000,70,97,86002
1.6471,0.2395,38.4300,70,97,86005
1.7058,0.2444,38.1800,70,97,86008
1.7058,0.2395,38.4300,70,97,86011
1.6716,0.2493,38.4000,70,97,86016
1.6960,0.2444,38.4900,70,97,86019
1.7155,0.2395,38.4300,70,97,86022
1.7449,0.2493,38.1500,70,97,86025
1.7107,0.2395,38.4000,70,97,86029
1.7302,0.2444,38.4900,70,97,86032
1.7400,0.2444,38.6200,70,97,86035
1.7400,0.2297,38.4300,70,97,86038
1.7889,0.2542,38.1800,70,97,86042
1.7742,0.2444,38.3300,70,97,86045
1.7693,0.2395,38.4300,70,97,86048
1.7889,0.2444,38.3600,70,97,86051
1.7840,0.2395,38.4300,70,97,86055
1.8280,0.2444,38.1500,70,97,86059
1.8084,0.2346,38.3600,70,97,86062
1.8035,0.2395,38.5500,70,97,86065
1.8231,0.2444,38.3600,70,97,86069
1.8182,0.2346,38.4300,70,97,86072
1.8573,0.2444,38.2100,70,97,86075
1.8182,0.2395,38.7100,70,97,86078
1.8133,0.2395,38.4300,70,97,86082
1.8377,0.2444,38.3600,70,97,86085
1.8182,0.2395,38.4300,70,97,86088
1.8475,0.2395,38.1800,70,97,86091
1.8182,0.2737,38.2700,70,97,86095
1.7986,0.2395,38.4300,70,97,86098
1.8133,0.2444,38.3600,70,97,86102
1.8035,0.2395,38.4300,70,97,86105
1.8377,0.2395,38.1800,70,97,86109
1.8084,0.2444,38.3600,70,97,86112
1.7937,0.2395,37.7100,70,97,86115
1.7986,0.2444,38.3600,70,97,86118
1.7889,0.2395,38.4600,70,97,86122
1.8231,0.2542,38.1500,70,97,86125
1.7791,0.2395,38.4000,70,97,86128
1.7791,0.2395,38.4300,70,97,86131
1.7937,0.2444,38.3600,70,97,86135
1.7791,0.2297,38.4300,70,97,86138
1.8182,0.2395,38.2100,70,97,86141
1.8035,0.2493,38.3300,70,97,86145
1.7937,0.2395,38.4600,70,97,86149
1.8133,0.2444,38.4000,70,97,86152
1.8280,0.2395,38.4000,70,97,86155
1.8817,0.2542,38.3000,70,97,86158
1.8768,0.2395,38.3300,70,97,86162
1.8817,0.2395,38.4300,70,97,86165
1.9062,0.2444,38.3600,70,97,86168
1.9159,0.2346,38.4600,70,97,86171
1.9648,0.2444,38.1500,70,97,86175
1.9404,0.2395,38.4000,70,97,86178
1.9550,0.2297,38.4600,70,97,86181
1.9795,0.2395,38.3600,70,97,86184
1.9599,0.2444,38.4000,70,97,86189
1.9941,0.2444,38.1800,70,97,86192
1.9648,0.2444,38.3300,70,97,86195
1.9453,0.2395,38.4300,70,97,86198
1.9404,0.2444,38.4000,70,97,86202
1.9257,0.2395,38.3600,70,97,86205
1.9599,0.2444,38.2100,70,97,86208
1.9306,0.2444,38.3300,70,97,86211
1.9110,0.2395,38.4300,70,97,86215
1.9062,0.2493,38.3600,70,97,86218
1.8915,0.2395,38.0800,70,97,86221
1.9159,0.2444,38.2100,70,97,86224
1.8817,0.2346,38.4000,70,97,86228
1.8866,0.2493,38.4300,70,97,86232
1.9013,0.2493,38.3300,70,97,86235
1.8768,0.2395,37.7400,70,97,86238
1.8964,0.2395,38.1800,70,97,86242
1.8817,0.2444,38.3000,70,97,86245
1.8671,0.2395,38.6200,70,97,86248
1.8768,0.2639,38.3300,70,97,86251
1.8524,0.2395,38.4300,70,97,86255
1.9013,0.2444,38.2100,70,97,86258
1.8524,0.2444,38.3600,70,97,86261
1.8426,0.2395,38.4300,70,97,86264
1.8475,0.2444,38.3600,70,97,86268
1.8377,0.2395,38.4300,70,97,86272
1.8524,0.2395,38.2400,70,97,86275
1.8280,0.2346,38.4000,70,97,86278
1.8328,0.2395,38.4300,70,97,86282
1.8671,0.2297,38.3300,70,97,86285
1.8475,0.2493,38.4300,70,97,86289
1.8328,0.2639,38.4900,70,97,86292
1.8866,0.2493,38.2100,70,97,86295
1.8475,0.2444,38.3600,70,97,86298
1.8377,0.2346,38.4000,70,97,86302
1.8475,0.2444,38.4000,70,97,86305
1.8377,0.2444,38.4300,70,97,86308
1.8866,0.2542,38.1500,70,97,86311
1.8377,0.2493,38.4900,70,97,86316
1.8328,0.2346,38.5200,70,97,86319
1.8377,0.2444,38.4000,70,97,86322
1.8231,0.2444,38.4000,70,97,86325
1.8719,0.2542,38.1100,70,97,86329
1.8426,0.2444,38.3600,70,97,86332
1.8280,0.2346,38.4000,70,97,86335
1.8231,0.2444,38.4000,70,97,86338
1.8182,0.2395,38.4000,70,97,86342
1.8671,0.2493,38.1100,70,97,86345
1.8328,0.2444,38.3300,70,97,86348
1.8280,0.2395,38.4900,70,97,86351
1.8426,0.2444,38.4000,70,97,86355
1.8426,0.2395,38.4600,70,97,86359
1.8866,0.2884,38.1800,70,97,86362
1.8426,0.2395,38.3300,70,97,86365
1.8426,0.2395,38.3600,70,97,86369
1.8622,0.2444,38.4000,70,97,86372
1.8524,0.2395,38.4300,70,97,86375
1.9062,0.2493,38.1500,70,97,86378
1.8671,0.2444,38.3000,70,97,86382
1.8573,0.2737,38.4000,70,97,86385
1.8671,0.2639,38.3600,70,97,86388
1.8622,0.2395,38.5500,70,97,86391
1.9159,0.2493,38.1500,70,97,86395
1.8768,0.2444,38.4000,70,97,86398
1.8768,0.2395,38.4300,70,97,86402
1.8622,0.2395,38.4000,70,97,86405
1.8573,0.2395,38.4900,70,97,86409
1.9062,0.2493,38.1500,70,97,86412
1.8622,0.2395,38.4300,70,97,86415
1.8524,0.2395,38.4000,70,97,86418
1.8622,0.2444,38.4000,70,97,86422
1.8426,0.2395,38.4000,70,97,86425
1.8915,0.2493,38.1500,70,97,86428
1.8622,0.2444,38.3000,70,97,86431
1.8426,0.2346,38.4000,70,97,86435
1.8475,0.2444,38.3600,70,97,86438
1.8280,0.2395,38.2700,70,97,86441
1.8573,0.2493,38.1500,70,97,86445
1.8133,0.2395,38.3300,70,97,86449
1.7937,0.2346,38.4600,70,97,86452
1.7986,0.2786,38.4000,70,97,86455
1.8035,0.2395,38.4300,70,97,86458
1.9159,0.2493,38.1500,70,97,86462
1.9110,0.2395,38.4300,70,97,86465
2.0088,0.2639,38.4300,70,97,86468
2.1408,0.2444,38.3600,70,97,86471
2.2287,0.2346,38.4000,70,97,86475
2.3705,0.2493,38.1500,70,97,86478
2.4194,0.2444,38.3000,70,97,86481
2.4780,0.2395,38.4300,70,97,86484
2.6051,0.2444,38.4000,70,97,86489
2.7419,0.2395,38.4300,70,97,86492
2.9668,0.2444,38.2400,70,97,86495
2.9912,0.2444,38.4000,70,97,86498
2.8690,0.2395,38.4300,70,97,86502
2.6344,0.2590,38.3600,70,97,86505
2.2972,0.2395,38.4300,70,97,86508
2.0137,0.2395,38.1800,70,97,86511
1.7449,0.2395,38.4000,70,97,86515
1.5591,0.2786,38.4000,70,97,86518
1.4809,0.2444,38.3600,70,97,86521
1.4418,0.2395,38.4300,70,97,86524
1.4956,0.2444,38.2100,70,97,86529
1.5249,0.2493,38.3000,70,97,86532
1.5787,0.2395,38.6200,70,97,86535
1.6569,0.2444,38.3300,70,97,86538
1.6862,0.2395,38.4300,70,97,86542
1.7840,0.2395,38.1500,70,97,86545
1.7155,0.2395,38.4000,70,97,86548
1.6862,0.2395,38.3600,70,97,86551
1.6667,0.2444,38.3600,70,97,86555
1.6227,0.2395,38.4300,70,97,86558
1.6276,0.2444,38.1800,70,97,86561
1.5787,0.2395,38.4300,70,97,86564
1.5787,0.2346,38.4300,70,97,86568
1.6031,0.2493,38.4600,70,97,86572
1.5885,0.2395,38.3600,70,97,86575
1.6276,0.2444,38.1800,70,97,86578
1.6031,0.2444,38.3300,70,97,86582
1.5982,0.2346,38.4300,70,97,86585
1.6276,0.2444,38.3600,70,97,86588
1.6178,0.2395,38.4000,70,97,86591
1.6569,0.2444,38.2400,70,97,86595
1.6471,0.2395,38.3300,70,97,86598
1.6373,0.2346,38.4300,70,97,86601
1.6520,0.2444,38.4000,70,97,86604
1.6520,0.2395,38.4300,70,97,86608
1.6960,0.2542,38.2100,70,97,86611
1.6716,0.2444,38.4000,70,97,86615
1.6862,0.2395,38.4600,70,97,86618
1.7058,0.2493,38.3300,70,97,86622
1.7009,0.2395,38.4300,70,97,86625
1.7449,0.2444,38.1800,70,97,86628
1.7449,0.2444,38.3000,70,97,86631
1.7400,0.2395,38.4300,70,97,86635
1.7595,0.2493,38.3600,70,97,86638
1.7546,0.2395,38.4000,70,97,86641
1.7937,0.2395,38.1800,70,97,86644
1.7791,0.2444,38.3600,70,97,86648
1.7840,0.2395,38.4300,70,97,86651
1.8084,0.2444,38.3600,70,97,86654
1.8035,0.2346,38.4300,70,97,86658
1.8475,0.2444,38.1500,70,97,86662
1.8231,0.2346,38.4600,70,97,86665
1.8328,0.2297,38.4300,70,97,86668
1.8524,0.2493,38.3300,70,97,86671
1.8328,0.2297,38.4300,70,97,86675
1.8573,0.2395,38.2100,70,97,86678
1.8377,0.2395,38.3000,70,97,86681
1.8231,0.2395,38.4300,70,97,86684
1.8328,0.2444,38.6200,70,97,86688
1.8182,0.2395,38.4300,70,97,86691
1.8524,0.2395,38.2100,70,97,86694
1.8182,0.2493,38.3300,70,97,86697
1.7986,0.2395,38.4900,70,97,86702
1.7937,0.2444,38.3600,70,97,86705
1.7742,0.2395,38.4600,70,97,86708
1.7986,0.2395,38.1800,70,97,86711
1.7791,0.2346,38.4000,70,97,86715
1.7595,0.2688,38.4600,70,97,86718
1.7742,0.2444,38.5800,70,97,86721
1.7546,0.2395,38.4900,70,97,86724
1.7889,0.2444,38.2100,70,97,86728
1.7889,0.2395,38.3000,70,97,86731
1.7889,0.2395,38.3600,70,97,86734
1.8231,0.2444,38.3300,70,97,86737
1.8231,0.2395,38.5200,70,97,86742
1.8768,0.2297,38.2100,70,97,86745
1.8719,0.2444,38.3600,70,97,86748
1.8866,0.2346,38.4000,70,97,86751
1.9208,0.2395,37.9000,70,97,86755
1.9306,0.2395,38.3600,70,97,86758
1.9550,0.2542,38.2100,70,97,86761
1.9257,0.2395,38.4300,70,97,86764
1.9306,0.2395,38.4300,70,97,86768
1.9550,0.2444,38.3300,70,97,86771
1.9355,0.2395,38.4300,70,97,86774
1.9550,0.2542,38.2100,70,97,86777
1.9355,0.2444,38.3000,70,97,86781
1.9208,0.2395,38.4000,70,97,86785
1.9404,0.2444,38.4000,70,97,86788
1.9110,0.2395,38.5800,70,97,86791
1.9355,0.2297,38.2100,70,97,86795
1.9013,0.2395,38.3600,70,97,86798
1.8817,0.2395,38.4300,70,97,86801
1.8817,0.2444,38.3600,70,97,86804
1.8719,0.2395,38.4600,70,97,86808
1.8915,0.2395,38.2400,70,97,86811
1.8671,0.2395,38.4300,70,97,86814
1.8622,0.2395,38.4000,70,97,86817
1.8866,0.2493,38.3300,70,97,86821
1.8524,0.2395,38.4000,70,97,86824
1.8768,0.2395,38.2400,70,97,86828
1.8915,0.2444,38.3000,70,97,86831
1.8377,0.2444,38.4300,70,97,86835
1.8524,0.2444,38.3300,70,97,86838
1.8280,0.2395,38.4900,70,97,86841
1.8475,0.2395,38.2400,70,97,86844
1.8280,0.2395,38.3600,70,97,86848
1.8182,0.2444,38.4000,70,97,86851
1.8377,0.2444,38.3600,70,97,86854
1.8328,0.2395,38.4600,70,97,86857
1.8622,0.2395,38.2400,70,97,86861
1.8328,0.2395,38.4000,70,97,86864
1.8377,0.2346,38.4000,70,97,86867
1.8719,0.2444,38.4900,70,97,86871
1.8524,0.2395,38.4300,70,97,86875
1.8817,0.2395,38.2700,70,97,86878
1.8671,0.2395,38.3300,70,97,86881
1.8573,0.2395,38.4600,70,97,86884
1.8719,0.2444,38.2700,70,97,86888
1.8622,0.2395,38.4000,70,97,86891
1.8915,0.2346,38.3000,70,97,86894
1.9062,0.2444,38.1800,70,90,86898
1.8671,0.2297,38.4000,70,90,86901
1.8768,0.2395,38.4300,70,90,86904
1.8915,0.2493,38.4000,70,90,86908
1.8671,0.2444,38.4000,70,90,86912
1.9110,0.2444,38.2100,70,90,86915
1.8817,0.2444,38.3300,70,90,86918
1.8768,0.2444,38.4000,70,90,86922
1.8719,0.2346,38.3600,70,90,86925
1.8524,0.2346,38.1800,70,90,86928
1.8866,0.2444,38.1500,70,90,86931
1.8524,0.2444,38.3600,70,90,86935
1.8475,0.2395,38.4300,70,90,86938
1.8524,0.2542,38.4300,70,90,86941
1.8328,0.2395,38.4000,70,90,86944
1.8671,0.2444,38.1800,70,90,86948
1.8182,0.2395,38.4000,70,90,86951
1.8231,0.2297,38.4300,70,90,86955
1.8475,0.2444,38.3600,70,90,86958
1.8182,0.2395,38.4300,70,90,86962
1.8573,0.2737,38.1500,70,90,86965
1.8280,0.2444,38.3300,70,90,86968
1.8133,0.2297,38.4300,70,90,86971
1.8377,0.2444,38.4000,70,90,86975
1.8377,0.2395,38.4300,70,90,86978
1.8817,0.2639,38.1800,70,90,86981
1.8524,0.2493,38.3300,70,90,86984
1.8475,0.2395,38.5200,70,90,86988
1.8622,0.2444,38.4300,70,90,86991
1.8524,0.2297,38.4000,70,90,86994
1.9062,0.2395,38.1800,70,90,86998
1.8719,0.2395,38.3600,70,90,87002
1.8622,0.2395,38.3600,70,90,87005
1.8671,0.2444,38.3600,70,90,87008
1.8426,0.2395,38.6200,70,90,87011
1.8817,0.2493,38.1500,70,90,87015
1.8573,0.2444,38.3300,70,90,87018
1.8328,0.2444,38.4000,70,90,87021
1.8377,0.2444,38.3600,70,90,87024
1.8182,0.2395,38.5500,70,90,87028
1.8622,0.2444,38.1800,70,90,87031
1.8328,0.2444,38.3600,70,90,87034
1.8475,0.2395,38.4300,70,90,87037
1.8622,0.2590,38.3600,70,90,87042
1.8573,0.2395,38.6200,70,90,87045
1.8964,0.2444,38.1500,70,90,87048
1.8524,0.2395,38.3600,70,90,87051
1.8671,0.2395,38.4300,70,90,87055
1.8768,0.2542,38.3600,70,90,87058
1.8719,0.2590,38.4300,70,90,87061
1.9257,0.2444,38.1100,70,90,87064
1.9013,0.2444,38.3300,70,90,87068
1.8817,0.2444,38.4300,70,90,87071
1.8866,0.2395,38.3600,70,90,87074
1.8671,0.2395,38.3000,70,90,87077
1.9013,0.2444,38.1800,70,90,87081
1.8719,0.2444,38.3600,70,90,87085
1.8671,0.2346,38.4300,70,90,87088
1.8671,0.2493,38.4000,70,90,87091
1.8524,0.2395,38.5200,70,90,87095
1.9257,0.2444,38.1800,70,90,87098
1.8475,0.2297,38.4000,70,90,87101
1.8475,0.2395,38.4000,70,90,87104
1.8719,0.2444,38.2700,70,90,87108
1.8622,0.2395,38.4600,70,90,87111
1.9110,0.2444,38.1800,70,90,87114
1.9013,0.2395,38.3300,70,90,87117
1.8915,0.2542,38.4000,70,90,87121
1.9062,0.2395,38.4000,70,90,87124
1.8915,0.2395,38.4300,70,90,87128
1.9453,0.2444,38.1800,70,90,87131
1.9062,0.2395,38.3600,70,90,87135
1.8915,0.2395,38.2700,70,90,87138
1.8964,0.2444,38.4300,70,90,87141
1.8671,0.2395,38.4300,70,90,87144
1.9062,0.2493,38.1800,70,90,87148
1.8622,0.2346,38.4000,70,90,87151
1.8719,0.2395,38.4900,70,90,87154
1.8866,0.2297,38.4300,70,90,87157
1.8671,0.2395,38.4300,70,90,87161
1.9110,0.2395,38.1800,70,90,87164
1.8915,0.2737,38.3000,70,90,87168
1.8768,0.2395,38.4300,70,90,87171
1.8915,0.2444,38.4000,70,90,87175
1.8768,0.2346,38.4300,70,90,87178
1.9110,0.2542,38.1500,70,90,87181
1.8817,0.2444,38.3300,70,90,87184
1.8671,0.2395,38.4300,70,90,87188
1.8719,0.2444,38.3600,70,90,87191
1.8719,0.2395,38.4300,70,90,87194
1.8915,0.2444,38.1500,70,90,87197
1.8573,0.2346,38.4000,70,90,87201
1.8622,0.2395,38.4000,70,90,87204
1.8719,0.2444,38.4000,70,90,87207
1.8426,0.2395,38.4300,70,90,87211
1.8866,0.2444,38.1800,70,90,87215
1.8671,0.2444,38.3300,70,90,87218
1.8524,0.2395,38.4300,70,90,87221
1.8671,0.2444,38.3300,70,90,87224
1.8573,0.2395,38.4300,70,90,87228
1.8964,0.2444,38.1800,70,90,87231
1.8866,0.2346,38.3600,70,90,87234
1.8768,0.2395,38.4600,70,90,87237
1.8817,0.2444,38.4000,70,90,87241
1.8964,0.2395,38.4000,70,90,87244
1.9013,0.2542,38.2100,70,90,87247
1.8671,0.2395,38.4000,70,90,87250
1.8817,0.2395,38.4300,70,90,87255
1.9159,0.2297,38.3600,70,90,87258
1.9062,0.2297,38.4300,70,90,87261
1.9404,0.2444,38.3600,70,90,87264
1.9159,0.2444,38.3300,70,90,87268
1.8915,0.2395,38.4600,70,90,87271
1.9159,0.2444,38.3300,70,90,87274
1.9257,0.2346,38.4600,70,90,87277
1.9306,0.2444,38.1800,70,90,87281
1.8866,0.2444,38.3600,70,90,87284
1.8622,0.2297,38.4300,70,90,87287
1.9013,0.2395,38.4300,70,90,87290
1.8671,0.2395,38.3300,70,90,87294
1.9355,0.2444,38.2100,70,90,87298
1.9550,0.2346,38.4000,70,90,87301
2.0332,0.2346,38.4300,70,90,87304
2.1505,0.2444,38.3300,70,90,87308
2.2532,0.2395,38.4000,70,90,87311
2.4096,0.2346,38.2100,70,90,87314
2.5024,0.2395,38.3000,70,90,87317
2.5904,0.2395,38.4300,70,90,87321
2.7224,0.2444,38.3300,70,90,87324
2.8348,0.2444,38.4300,70,90,87327
3.0694,0.2395,38.2400,70,90,87330
3.1720,0.2395,38.3300,70,90,87334
3.0987,0.2395,38.4300,70,90,87337
2.8837,0.2493,38.3300,70,90,87341
2.5513,0.2444,38.4300,70,90,87344
2.2385,0.2395,38.2700,70,90,87348
1.9110,0.2395,38.4300,70,90,87351
1.6813,0.2639,38.4000,70,90,87354
1.5591,0.2444,37.7400,70,90,87357
1.4663,0.2395,38.4300,70,90,87361
1.4663,0.2395,38.2700,70,90,87364
1.4712,0.2395,38.3000,70,90,87367
1.4907,0.2395,37.6800,70,90,87370
1.5543,0.2444,38.4000,70,90,87374
1.5885,0.2395,38.4300,70,90,87377
1.6569,0.2493,38.2400,70,90,87380
1.6520,0.2444,38.3300,70,90,87384
1.6471,0.2395,38.4300,70,90,87388
1.6373,0.2444,38.3600,70,90,87391
1.6080,0.2395,38.4300,70,90,87394
1.6129,0.2542,38.2700,70,90,87397
1.5787,0.2346,38.4000,70,90,87401
1.5787,0.2395,38.4300,70,90,87404
1.6080,0.2444,38.3300,70,90,87407
1.5738,0.2395,38.4000,70,90,87410
1.6129,0.2542,38.2700,70,90,87414
1.6080,0.2395,38.5800,70,90,87417
1.6227,0.2395,38.4300,70,90,87420
1.6569,0.2444,38.3300,70,90,87424
1.6422,0.2346,38.4000,70,90,87428
1.6716,0.2444,38.2700,70,90,87431
1.6373,0.2395,38.4000,70,90,87434
1.6520,0.2395,38.4000,70,90,87437
1.6618,0.2444,38.3600,70,90,87441
1.6569,0.2786,38.4000,70,90,87444
1.6960,0.2395,38.3000,70,90,87447
1.6716,0.2297,38.4300,70,90,87450
1.6911,0.2395,38.4300,70,90,87454
1.7204,0.2493,38.3300,70,90,87457
1.7058,0.2737,38.4000,70,90,87460
1.7351,0.2444,38.3000,70,90,87463
1.7155,0.2395,38.3600,70,90,87468
1.7107,0.2346,38.4600,70,90,87471
1.7351,0.2786,38.2700,70,90,87474
1.7204,0.2395,38.4300,70,90,87477
1.7595,0.2395,38.3000,70,90,87481
1.7302,0.2444,38.4000,70,90,87484
1.7351,0.2395,38.4600,70,90,87487
1.7546,0.2395,38.3600,70,90,87490
1.7595,0.2297,38.4300,70,90,87494
1.8035,0.2542,38.3000,70,90,87497
1.7840,0.2639,38.4000,70,90,87500
1.7986,0.2395,38.4300,70,90,87503
1.8328,0.2493,38.3000,70,97,87507
1.8377,0.2444,38.3600,70,97,87511
1.8231,0.2395,38.4300,70,97,87514
1.8573,0.2297,38.2100,70,97,87518
1.8475,0.2493,38.3300,70,97,87521
1.8475,0.2346,38.4300,70,97,87524
1.8573,0.2444,38.1500,70,97,87527
1.8426,0.2395,38.4600,70,97,87531
1.8671,0.2395,38.2100,70,97,87534
1.8280,0.2395,38.4300,70,97,87537
1.8231,0.2395,38.4000,70,97,87540
1.8328,0.2444,38.3300,70,97,87544
1.8133,0.2395,37.6800,70,97,87547
1.8524,0.2395,38.2100,70,97,87550
1.8280,0.2493,38.3300,70,97,87554
1.8133,0.2395,38.4000,70,97,87558
1.8377,0.2444,38.4000,70,97,87561
1.8328,0.2395,38.5200,70,97,87564
1.8768,0.2395,38.2100,70,97,87567
1.8866,0.2444,38.3600,70,97,87571
1.8671,0.2542,38.4300,70,97,87574
1.8866,0.2444,38.3000,70,97,87577
1.8817,0.2297,38.4300,70,97,87580
1.9208,0.2444,38.2100,70,97,87584
1.9208,0.2346,38.4000,70,97,87587
1.9453,0.2395,37.8000,70,97,87590
1.9892,0.2297,38.3000,70,97,87593
1.9844,0.2395,38.4300,70,97,87598
2.0186,0.2493,38.2700,70,97,87601
2.0039,0.2395,38.2700,70,97,87604
1.9990,0.2395,38.4300,70,97,87607
1.9990,0.2297,38.3600,70,97,87611
1.9746,0.2444,38.4000,70,97,87614
2.0039,0.2395,38.4300,70,97,87617
1.9795,0.2444,38.3300,70,97,87620
1.9697,0.2444,38.4000,70,97,87624
1.9648,0.2688,38.4000,70,97,87627
1.9404,0.2395,38.4300,70,97,87630
1.9550,0.2395,38.3000,70,97,87633
1.9257,0.2346,38.4000,70,97,87638
1.9257,0.2395,38.3600,70,97,87641
1.9550,0.2444,38.3600,70,97,87644
1.9257,0.2395,38.4300,70,97,87647
1.9550,0.2395,38.2700,70,97,87651
1.9208,0.2444,38.3300,70,97,87654
1.9013,0.2395,37.6500,70,97,87657
1.9159,0.2444,38.5500,70,97,87660
1.8915,0.2395,38.4300,70,97,87664
1.9257,0.2395,38.2700,70,97,87667
1.8915,0.2395,38.3600,70,97,87670
1.8866,0.2346,38.4900,70,97,87673
1.8866,0.2395,38.4300,70,97,87677
1.8622,0.2297,38.4300,70,97,87681
1.8817,0.2346,38.2700,70,97,87684
1.8524,0.2395,38.4300,70,97,87687
1.8377,0.2395,38.4300,70,97,87691
1.8524,0.2444,38.3000,70,97,87694
1.8133,0.2395,38.4300,70,97,87697
1.8475,0.2395,38.2400,70,97,87700
1.8280,0.2444,38.3600,70,97,87704
1.8231,0.2395,38.4300,70,97,87707
1.8377,0.2444,38.3000,70,97,87710
1.8133,0.2395,38.4300,70,97,87713
1.8524,0.2395,38.2700,70,97,87717
1.8573,0.2346,38.2700,70,97,87720
1.8280,0.2395,38.4300,70,97,87724
1.8475,0.2395,38.4300,70,97,87727
1.8524,0.2395,38.4300,70,97,87731
1.8817,0.2395,38.3300,70,97,87734
1.8671,0.2395,38.4300,70,97,87737
1.8671,0.2542,38.4000,70,97,87740
1.8915,0.2444,38.3300,70,97,87744
1.8671,0.2395,38.4300,70,97,87747
1.8964,0.2395,38.2700,70,97,87750
1.8768,0.2395,38.3300,70,97,87753
1.8719,0.2395,38.5800,70,97,87757
1.9013,0.2542,38.3300,70,97,87760
1.8866,0.2395,38.4300,70,97,87763
1.9257,0.2346,38.3000,70,97,87767
1.9013,0.2444,38.4000,70,97,87771
1.9013,0.2395,38.4600,70,97,87774
1.9062,0.2395,38.3600,70,97,87777
1.8915,0.2395,38.4600,70,97,87780
1.9306,0.2346,38.3600,70,97,87784
1.9062,0.2542,38.4000,70,97,87787
1.9110,0.2395,38.5800,70,97,87790
1.9355,0.2297,38.3000,70,97,87793
1.9013,0.2297,38.4300,70,97,87797
1.9257,0.2395,38.3000,70,97,87800
1.9013,0.2395,38.3300,70,97,87803
1.8915,0.2395,38.4000,70,97,87806
1.9208,0.2444,38.3000,70,97,87811
1.8866,0.2395,38.4300,70,97,87814
1.9159,0.2493,38.3000,70,97,87817
1.8768,0.2346,38.4000,70,97,87820
1.8768,0.2444,38.4300,70,97,87824
1.8866,0.2395,38.3300,70,97,87827
1.8719,0.2395,38.4300,70,97,87830
1.8915,0.2493,38.3000,70,97,87833
1.8524,0.2395,38.4900,70,97,87837
1.8475,0.2395,38.4000,70,97,87840
1.8671,0.2444,38.3000,70,97,87843
1.8328,0.2346,38.4000,70,97,87846
1.8524,0.2444,38.2400,70,97,87851
1.8231,0.2346,38.3600,70,97,87854
1.8231,0.2395,38.4300,70,97,87857
1.8475,0.2493,38.3300,70,97,87860
1.8280,0.2444,38.4300,70,97,87864
1.8622,0.2493,38.3000,70,97,87867
1.8377,0.2297,38.4000,70,97,87870
1.8426,0.2395,38.4300,70,97,87873
1.8377,0.2444,38.3600,70,97,87877
1.8182,0.2444,38.4000,70,97,87880
1.8426,0.2493,38.4000,70,97,87883
1.8182,0.2395,38.5200,70,97,87886
1.8182,0.2395,38.4300,70,97,87890
1.8573,0.2493,38.2700,70,97,87894
1.8182,0.2395,38.4000,70,97,87897
1.8524,0.2493,38.5200,70,97,87900
1.8280,0.2346,38.4000,70,97,87904
1.8573,0.2395,38.4000,70,97,87907
1.8622,0.2542,38.3300,70,97,87910
1.8377,0.2395,38.3300,70,97,87913
1.8622,0.2444,38.3000,70,97,87917
1.8328,0.2395,38.4000,70,97,87920
1.8328,0.2493,38.4000,70,97,87923
1.8475,0.2444,38.3600,70,97,87926
1.8377,0.2395,38.4300,70,97,87930
1.8524,0.2542,38.2700,70,97,87933
1.8280,0.2395,38.4300,70,97,87937
1.8280,0.2346,38.4000,70,97,87940
1.8622,0.2493,38.2100,70,97,87944
1.8328,0.2395,38.5200,70,97,87947
1.8622,0.2297,38.2700,70,97,87950
1.8328,0.2346,38.4000,70,97,87953
1.8280,0.2444,38.4600,70,97,87957
1.8573,0.2493,38.3000,70,97,87960
1.8328,0.2395,38.4600,70,97,87963
1.8622,0.2444,38.3000,70,97,87966
1.8328,0.2444,38.4000,70,97,87970
1.8328,0.2395,38.3300,70,97,87973
1.8475,0.2444,38.4000,70,97,87976
1.8328,0.2395,38.4300,70,97,87980
1.8524,0.2542,38.2700,70,97,87984
1.8280,0.2444,38.4000,70,97,87987
1.8328,0.2395,38.4300,70,97,87990
1.8622,0.2493,38.2400,70,97,87993
1.8377,0.2395,38.4300,70,97,87997
1.8671,0.2444,38.2700,70,97,88000
1.8377,0.2444,38.4000,70,97,88003
1.8377,0.2395,38.5200,70,97,88006
1.8622,0.2444,38.3000,70,97,88010
1.8328,0.2395,38.4300,70,97,88013
1.8426,0.2444,38.2700,70,97,88016
1.8084,0.2444,38.4000,70,97,88019
1.8084,0.2395,38.4600,70,97,88024
1.8377,0.2444,38.3600,70,97,88027
1.8084,0.2395,38.4000,70,97,88030
1.8182,0.2395,38.4000,70,97,88033
1.7937,0.2395,38.4600,70,97,88037
1.7937,0.2395,38.4300,70,97,88040
1.8280,0.2493,38.2400,70,97,88043
1.7937,0.2444,38.4300,70,97,88046
1.8084,0.2395,38.2700,70,97,88050
1.7840,0.2297,38.4300,70,97,88053
1.7840,0.2395,38.4000,70,97,88056
1.8182,0.2444,38.2100,70,97,88059
1.7986,0.2395,38.4600,70,97,88064
1.8280,0.2395,38.3000,70,97,88067
1.8084,0.2248,38.4000,70,97,88070
1.8084,0.2395,38.4000,70,97,88073
1.8377,0.2493,38.3300,70,97,88077
1.8231,0.2395,38.4000,70,97,88080
1.8231,0.2395,38.2700,70,97,88083
1.8133,0.2395,38.4000,70,97,88086
1.7986,0.2395,38.4300,70,97,88090
1.8182,0.2493,38.2400,70,97,88093
1.8035,0.2395,38.4000,70,97,88096
1.7937,0.2444,38.3000,70,97,88099
1.7742,0.2395,38.4300,70,97,88103
1.7742,0.2444,38.4300,70,97,88107
1.8133,0.2835,38.2700,70,97,88110
1.7840,0.2395,38.3300,70,97,88113
1.7986,0.2395,38.3600,70,97,88117
1.7889,0.2395,38.4300,70,97,88120
1.7840,0.2444,38.4600,70,97,88123
1.7986,0.2395,38.4300,70,97,88127
1.8328,0.2493,38.3000,70,97,88130
1.8182,0.2395,38.4300,70,97,88133
1.8328,0.2737,38.3000,70,97,88136
1.8035,0.2346,38.1500,70,97,88140
1.8035,0.2395,38.4600,70,97,88143
1.8573,0.2493,38.3300,70,97,88146
1.7986,0.2395,38.4000,70,97,88150
1.8231,0.2444,38.3000,70,97,88154
1.7986,0.2444,38.4000,70,97,88157
1.7986,0.2346,38.4300,70,97,88160
1.8182,0.2444,38.3600,70,97,88163
1.8084,0.2395,38.4300,70,97,88167
1.8328,0.2395,38.3000,70,97,88170
1.8133,0.2444,38.4000,70,97,88173
1.8231,0.2395,38.0200,70,97,88176
1.8524,0.2493,38.2700,70,97,88180
1.8231,0.2395,38.4300,70,97,88183
1.8573,0.2444,38.2700,70,97,88186
1.8280,0.2346,38.4000,70,97,88189
1.8280,0.2395,38.4600,70,97,88194
1.8524,0.2493,38.3000,70,97,88197
1.8182,0.2395,38.4300,70,97,88200
1.8377,0.2444,38.2700,70,97,88203
1.8084,0.2688,38.4900,70,97,88207
1.8133,0.2395,38.4300,70,97,88210
1.8231,0.2444,38.3600,70,97,88213
1.7986,0.2395,38.4300,70,97,88216
1.8182,0.2395,38.2700,70,97,88220
1.7937,0.2444,38.4000,70,97,88223
1.7937,0.2395,38.4600,70,97,88226
1.8328,0.2444,38.2700,70,97,88229
1.8084,0.2395,38.4300,70,97,88233
1.8328,0.2444,38.2700,70,97,88237
1.8035,0.2395,38.4600,70,97,88240
1.7986,0.2395,38.4600,70,97,88243
1.8182,0.2444,38.2400,70,97,88247
1.7986,0.2444,38.4300,70,97,88250
1.8133,0.2395,38.2700,70,97,88253
1.7937,0.2395,38.6200,70,97,88256
1.7937,0.2395,38.5200,70,97,88260
1.8182,0.2444,38.4300,70,97,88263
1.8035,0.2346,38.4000,70,97,88266
1.8280,0.2444,38.3000,70,97,88269
1.8035,0.2395,38.4300,70,97,88273
1.8084,0.2444,38.4300,70,97,88276
1.8084,0.2639,38.2700,70,97,88280
1.7742,0.2395,38.5200,70,97,88283
1.8035,0.2297,38.2700,70,97,88287
1.8328,0.2395,38.4000,70,97,88290
1.8719,0.2639,38.4000,70,97,88293
1.9844,0.2493,38.4000,70,97,88296
2.0674,0.2395,38.4300,70,97,88300
2.2092,0.2395,38.3000,70,97,88303
2.3118,0.2688,38.4000,70,97,88306
2.4145,0.2395,38.4000,70,97,88309
2.5367,0.2493,38.3300,70,97,88313
2.5953,0.2444,38.4300,70,97,88316
2.7224,0.2395,38.2700,70,97,88320
2.8592,0.2395,38.4000,70,97,88323
3.0059,0.2297,38.4300,70,97,88327
3.0645,0.2493,38.2100,70,97,88330
2.8348,0.2493,38.4000,70,97,88333
2.5611,0.2395,38.3000,70,97,88336
2.2092,0.2395,38.4000,70,97,88340
1.9159,0.2444,38.4000,70,97,88343
1.7155,0.2493,38.2700,70,97,88346
1.5298,0.2395,38.3300,70,97,88349
1.4663,0.2395,38.3000,70,97,88353
1.4272,0.2444,38.4300,70,97,88356
1.4565,0.2395,38.4300,70,97,88359
1.4858,0.2688,38.3000,70,97,88363
1.5005,0.2395,38.4300,70,97,88367
1.5836,0.2346,38.3300,70,97,88370
1.6276,0.2346,38.4000,70,97,88373
1.6569,0.2395,38.4000,70,97,88376
1.6862,0.2493,38.2400,70,97,88380
1.6325,0.2395,38.4000,70,97,88383
1.6178,0.2346,38.3000,70,97,88386
1.5836,0.2395,38.4000,70,97,88389
1.5640,0.2395,38.4300,70,97,88393
1.5787,0.2444,38.2700,70,97,88396
1.5445,0.2395,38.2400,70,97,88399
1.5591,0.2444,38.3000,70,97,88402
1.5591,0.2395,38.4000,70,97,88407
1.5689,0.2395,38.4300,70,97,88410
1.6178,0.2297,38.3000,70,97,88413
1.5885,0.2346,38.4000,70,97,88416
1.6031,0.2395,38.3600,70,97,88420
1.6031,0.2395,38.4000,70,97,88423
1.6080,0.2395,38.4300,70,97,88426
1.6618,0.2493,38.3000,70,97,88429
1.6325,0.2395,38.4000,70,97,88433
1.6471,0.2395,38.3300,70,97,88436
1.6422,0.2395,38.4300,70,97,88439
1.6471,0.2346,38.4000,70,97,88442
1.6960,0.2884,38.3600,70,97,88446
1.6667,0.2395,38.4600,70,97,88450
1.6862,0.2297,38.3300,70,97,88453
1.6862,0.2395,38.4300,70,97,88456
1.7155,0.2395,38.4300,70,97,88460
1.7546,0.2542,38.2700,70,97,88463
1.7253,0.2395,38.5200,70,97,88466
1.7449,0.2395,38.3600,70,97,88469
1.7449,0.2297,38.4300,70,97,88473
1.7449,0.2444,38.4300,70,97,88476
1.7937,0.2493,38.2400,70,97,88479
1.7546,0.2395,38.4000,70,97,88482
1.7644,0.2395,38.3300,70,97,88486
1.7742,0.2395,38.4300,70,97,88489
1.7742,0.2395,38.4300,70,97,88493
1.8280,0.2542,38.2700,70,97,88496
1.7840,0.2395,38.4300,70,97,88500
1.7840,0.2297,38.3300,70,97,88503
1.8084,0.2346,38.4300,70,97,88506
1.7742,0.2346,38.4300,70,97,88509
1.8280,0.2542,38.2100,70,97,88513
1.7840,0.2395,38.4000,70,97,88516
1.7889,0.2346,38.3300,70,97,88519
1.7889,0.2346,38.4300,70,97,88522
1.7889,0.2639,38.4300,70,97,88526
1.8426,0.2542,38.2100,70,97,88529
1.8035,0.2444,38.4000,70,97,88532
1.7986,0.2346,38.4300,70,97,88536
1.7937,0.2786,38.4300,70,97,88540
1.7889,0.2395,38.4900,70,97,88543
1.8377,0.2542,38.2400,70,97,88546
1.7986,0.2395,38.4300,70,97,88549
1.7840,0.2395,38.3600,70,97,88553
1.7742,0.2395,38.4000,70,97,88556
1.7644,0.2395,38.4900,70,97,88559
1.8035,0.2542,38.2400,70,97,88562
1.7791,0.2395,38.4000,70,97,88566
1.7693,0.2346,38.3600,70,97,88569
1.7693,0.2444,38.4000,70,97,88572
1.7693,0.2395,38.4600,70,97,88576
1.8328,0.2493,38.2400,70,97,88580
1.7937,0.2395,38.4000,70,97,88583
1.8035,0.2346,38.3300,70,97,88586
1.8231,0.2395,38.3300,70,97,88589
1.8426,0.2395,38.4300,70,97,88593
1.9550,0.2590,38.2400,70,97,88596
1.8915,0.2395,38.4000,70,97,88599
1.9110,0.2346,38.3300,70,97,88602
1.9257,0.2395,38.4600,70,97,88606
1.9355,0.2395,38.5800,70,97,88609
1.9990,0.2590,38.2100,70,97,88612
1.9697,0.2639,38.3600,70,97,88615
1.9599,0.2346,38.4000,70,97,88620
1.9550,0.2395,38.4000,70,97,88623
1.9501,0.2297,38.4600,70,97,88626
1.9990,0.2444,38.2100,70,97,88629
1.9453,0.2395,38.3600,70,97,88633
1.9257,0.2346,38.4000,70,97,88636
1.9159,0.2395,38.4600,70,97,88639
1.9062,0.2395,38.4300,70,97,88642
1.9599,0.2542,38.1800,70,97,88646
1.9159,0.2444,38.4000,70,97,88649
1.9110,0.2346,38.3300,70,97,88652
1.9110,0.2444,38.4000,70,97,88655
1.9013,0.2395,38.4300,70,97,88659
1.9501,0.2493,38.1800,70,97,88663
1.9208,0.2493,38.5500,70,97,88666
1.9013,0.2297,38.4000,70,97,88669
1.9062,0.2444,38.4300,70,97,88673
1.8964,0.2395,38.4300,70,97,88676
1.9453,0.2590,38.1500,70,97,88679
1.8964,0.2444,38.5200,70,97,88682
1.8866,0.2346,38.4000,70,97,88686
1.9208,0.2395,38.4000,70,97,88689
1.8768,0.2395,37.7700,70,97,88692
1.9306,0.2590,38.1800,70,97,88695
1.8866,0.2444,38.4000,70,97,88699
1.8866,0.2346,38.4000,70,97,88702
1.9013,0.2444,38.4900,70,97,88706
1.8964,0.2395,38.4900,70,97,88709
1.9550,0.2493,38.1500,70,97,88712
1.9110,0.2493,38.3000,70,97,88716
1.8915,0.2346,38.4600,70,97,88719
1.8964,0.2444,38.4000,70,97,88722
1.8964,0.2395,38.4300,70,97,88725
1.9501,0.2542,38.1800,70,97,88729
1.9110,0.2493,38.2100,70,97,88732
1.8817,0.2395,38.4000,70,97,88736
1.9159,0.2395,38.3300,70,97,88739
1.8719,0.2346,38.4300,70,97,88742
1.8671,0.2444,38.4900,70,97,88745
1.9062,0.2493,38.2100,70,97,88750
1.8817,0.2444,38.4600,70,97,88753
1.8915,0.2444,38.3300,70,97,88756
1.9013,0.2395,38.4000,70,97,88759
1.8768,0.2346,38.5200,70,97,88763
1.9159,0.2493,38.2400,70,97,88766
1.8817,0.2395,38.4000,70,97,88769
1.8866,0.2346,38.2700,70,97,88772
1.8719,0.2395,38.4300,70,97,88776
1.8671,0.2395,38.4600,70,97,88779
1.9013,0.2493,38.2400,70,97,88782
1.8622,0.2395,38.4300,70,97,88785
1.8671,0.2444,38.3000,70,97,88790
1.8426,0.2395,38.3000,70,97,88793
1.8426,0.2395,38.4000,70,97,88796
1.8817,0.2493,38.3000,70,97,88799
1.8426,0.2444,38.4000,70,97,88803
1.8524,0.2444,38.3600,70,97,88806
1.8426,0.2346,38.4000,70,97,88809
1.8475,0.2395,38.4300,70,97,88812
1.9013,0.2493,38.2400,70,97,88816
1.8622,0.2297,38.4000,70,97,88819
1.8719,0.2395,38.3300,70,97,88822
1.8573,0.2395,38.4000,70,97,88825
1.8524,0.2395,38.4900,70,97,88829
1.8964,0.2493,38.2700,70,97,88833
1.8671,0.2395,38.4000,70,97,88836
1.8719,0.2444,38.3300,70,97,88839
1.8573,0.2395,38.2700,70,97,88843
1.8475,0.2395,38.3600,70,97,88846
1.8817,0.2493,38.2700,70,97,88849
1.8377,0.2493,38.4300,70,97,88852
1.8377,0.2737,38.3000,70,97,88856
1.8328,0.2346,38.4000,70,97,88859
1.8231,0.2395,38.4600,70,97,88862
1.8671,0.2493,38.2400,70,97,88865
1.8231,0.2395,38.4000,70,97,88869
1.8622,0.2444,38.3300,70,97,88872
1.8328,0.2346,38.4000,70,97,88876
1.8328,0.2395,38.4300,70,97,88879
1.8915,0.2493,38.2700,70,97,88883
1.8475,0.2346,38.4300,70,97,88886
1.8475,0.2346,38.1100,70,97,88889
1.8475,0.2395,38.4900,70,97,88892
1.8426,0.2395,38.4300,70,97,88896
1.9062,0.2493,38.2400,70,97,88899
1.8622,0.2395,38.4000,70,97,88902
1.8573,0.2346,38.3600,70,97,88905
1.8524,0.2688,38.3600,70,97,88909
1.8524,0.2395,38.5500,70,97,88912
1.9062,0.2493,38.2400,70,97,88915
1.8719,0.2297,38.4300,70,97,88919
1.8719,0.2395,38.3300,70,97,88923
1.8573,0.2639,38.4000,70,97,88926
1.8426,0.2395,37.7100,70,97,88929
1.8817,0.2493,38.2700,70,97,88932
1.8377,0.2297,38.4000,70,97,88936
1.8524,0.2346,38.4300,70,97,88939
1.8866,0.2493,38.4000,70,97,88942
1.9599,0.2395,38.4300,70,97,88945
2.1212,0.2542,38.2400,70,97,88949
2.1945,0.2444,38.3600,70,97,88952
2.3069,0.2346,38.3300,70,97,88955
2.4047,0.2395,38.3300,70,97,88958
2.4780,0.2395,38.4300,70,97,88963
2.6149,0.2639,38.2400,70,97,88966
2.6637,0.2444,38.4000,70,97,88969
2.7908,0.2346,38.3600,70,97,88972
2.9179,0.2395,38.4300,70,97,88976
2.9619,0.2395,38.4900,70,97,88979
2.9081,0.2639,38.1800,70,97,88982
2.5709,0.2395,38.3300,70,97,88985
2.2434,0.2297,38.3600,70,97,88989
1.9257,0.2395,38.4000,70,97,88992
1.6764,0.2346,38.4300,70,97,88995
1.5787,0.2542,38.4300,70,97,88998
1.4761,0.2444,38.3600,70,97,89003
1.4467,0.2346,38.3600,70,97,89006
1.4614,0.2395,38.4000,70,97,89009
1.4956,0.2346,38.4000,70,97,89012
1.6080,0.2542,38.2400,70,97,89016
1.6373,0.2395,38.4000,70,97,89019
1.6813,0.2346,38.4000,70,97,89022
1.6960,0.2444,38.4300,70,97,89025
1.6862,0.2395,38.4300,70,97,89029
1.7058,0.2590,38.2400,70,97,89032
1.6471,0.2395,38.4000,70,97,89035
1.6129,0.2395,38.3600,70,97,89038
1.5934,0.2395,38.4000,70,97,89042
1.5787,0.2297,38.4300,70,97,89046
1.6227,0.2542,38.2700,70,97,89049
1.5934,0.2297,38.3600,70,97,89052
1.6031,0.2346,38.4000,70,97,89056
1.6178,0.2444,38.4300,70,97,89059
1.6178,0.2542,38.4300,70,97,89062
1.6764,0.2542,37.9900,70,97,89065
1.6471,0.2444,38.4600,70,97,89069
1.6471,0.2297,38.3600,70,97,89072
1.6716,0.2395,38.4300,70,97,89075
1.6764,0.2346,38.4300,70,97,89078
1.7302,0.2542,38.1500,70,97,89082
1.6960,0.2395,38.4900,70,97,89085
1.6911,0.2346,38.4000,70,97,89089
1.7009,0.2444,38.4000,70,97,89092
1.7009,0.2395,38.4600,70,97,89096
1.7546,0.2590,38.1500,70,97,89099
1.7253,0.2395,38.3600,70,97,89102
1.7155,0.2346,38.3600,70,97,89105
1.7204,0.2444,38.4000,70,97,89109
1.7204,0.2395,38.4600,70,97,89112
1.7889,0.2542,38.1800,70,97,89115
1.7595,0.2444,38.3600,70,97,89118
1.7595,0.2248,38.4000,70,97,89122
1.7644,0.2444,38.3600,70,97,89125
1.7644,0.2395,38.4300,70,97,89128
1.8377,0.2542,38.1500,70,97,89132
1.8035,0.2444,38.4000,70,97,89136
1.7889,0.2346,38.3000,70,97,89139
1.7986,0.2395,38.4300,70,97,89142
1.7937,0.2395,38.4300,70,97,89145
1.8719,0.2493,38.1500,70,97,89149
1.8182,0.2395,38.3600,70,97,89152
1.8182,0.2346,38.3600,70,97,89155
1.8280,0.2493,38.4000,70,97,89158
1.8280,0.2395,38.4300,70,97,89162
1.8768,0.2542,38.1500,70,97,89165
1.8280,0.2444,38.4000,70,97,89168
1.8328,0.2346,38.4000,70,97,89171
1.8377,0.2395,38.5500,70,97,89176
1.8328,0.2297,38.4300,70,97,89179
1.9013,0.2493,38.1100,70,97,89182
1.8231,0.2395,38.4000,70,97,89185
1.8182,0.2346,38.4000,70,97,89189
1.8133,0.2444,38.4000,70,97,89192
1.8133,0.2395,38.4300,70,97,89195
1.8622,0.2590,38.1500,70,97,89198
1.8084,0.2493,38.3600,70,97,89202
1.7889,0.2346,38.4300,70,97,89205
1.7791,0.2395,38.4300,70,97,89208
1.7644,0.2395,38.4300,70,97,89211
1.8182,0.2395,38.1500,70,97,89216
1.8182,0.2395,38.3600,70,97,89219
1.7937,0.2297,38.4000,70,97,89222
1.8133,0.2395,38.5200,70,97,89225
1.8231,0.2297,38.4600,70,97,89229
1.9062,0.2493,38.1800,70,97,89232
1.8719,0.2395,38.4300,70,97,89235
1.8915,0.2444,38.4000,70,97,89238
1.9110,0.2444,37.9000,70,97,89242
1.9159,0.2395,38.4300,70,97,89245
1.9746,0.2493,38.1500,70,97,89248
1.9453,0.2346,38.3300,70,97,89251
1.9355,0.2395,38.4300,70,97,89255
1.9404,0.2444,38.2700,70,97,89259
1.9306,0.2395,38.4300,70,97,89262
1.9746,0.2444,38.1100,70,97,89265
1.9453,0.2395,38.4300,70,97,89269
1.9062,0.2395,38.4000,70,97,89272
1.9062,0.2395,38.4000,70,97,89275
1.8915,0.2346,38.4000,70,97,89278
1.9355,0.2395,38.1500,70,97,89282
1.8817,0.2639,38.3600,70,97,89285
1.8768,0.2395,38.3600,70,97,89288
1.8866,0.2444,38.4000,70,97,89291
1.8768,0.2395,38.4300,70,97,89295
1.9257,0.2542,38.1800,70,97,89298
1.8964,0.2493,38.2700,70,97,89302
1.8817,0.2395,38.4300,70,97,89305
1.8866,0.2444,38.4000,70,97,89309
1.8768,0.2346,38.4300,70,97,89312
1.9306,0.2493,38.1500,70,97,89315
1.8866,0.2395,38.3600,70,97,89318
1.8768,0.2297,38.4300,70,97,89322
1.8768,0.2297,38.4000,70,97,89325
1.8622,0.2444,38.4300,70,97,89328
1.9110,0.2444,38.1500,70,97,89331
1.8719,0.2395,38.3600,70,97,89335
1.8768,0.2395,38.4300,70,97,89338
1.8817,0.2444,38.3600,70,97,89341
1.8328,0.2395,38.4300,70,97,89346
1.8280,0.2297,38.4300,70,97,89349
1.9110,0.2542,38.2400,70,97,89352
1.8475,0.2395,38.4000,70,97,89356
1.8328,0.2590,38.3600,70,97,89359
1.8328,0.2395,38.4900,70,97,89362
1.8231,0.2395,38.4900,70,97,89365
1.9013,0.2493,38.2400,70,97,89369
1.8182,0.2444,38.4000,70,97,89372
1.8133,0.2639,38.3600,70,97,89375
1.8084,0.2395,38.4000,70,97,89378
1.7937,0.2395,38.5200,70,97,89382
1.8573,0.2542,38.2400,70,97,89385
1.8231,0.2395,38.4300,70,97,89389
1.8133,0.2444,38.3600,70,97,89392
1.8084,0.2444,38.4300,70,97,89396
1.8133,0.2395,38.4300,70,97,89399
1.8719,0.2493,38.3600,70,97,89402
1.8328,0.2395,38.4300,70,97,89405
1.8377,0.2346,38.3300,70,97,89409
1.8475,0.2395,38.4000,70,97,89412
1.8426,0.2395,38.4000,70,97,89415
1.8915,0.2542,38.3600,70,97,89418
1.8524,0.2395,38.4000,70,97,89422
1.8622,0.2346,38.3300,70,97,89425
1.8671,0.2346,38.4300,70,97,89428
1.8524,0.2395,38.4300,70,97,89432
1.9013,0.2493,38.2400,70,97,89436
1.8671,0.2395,38.4000,70,97,89439
1.8622,0.2346,38.3600,70,97,89442
1.8622,0.2395,38.4300,70,97,89445
1.8622,0.2444,38.4300,70,97,89449
1.9110,0.2590,38.2100,70,97,89452
1.8768,0.2395,38.2400,70,97,89455
1.8768,0.2346,38.3300,70,97,89458
1.8866,0.2395,38.4300,70,97,89462
1.8866,0.2395,38.4300,70,97,89465
1.9404,0.2542,38.2400,70,97,89468
1.8817,0.2444,38.4300,70,97,89472
1.8768,0.2346,38.3600,70,97,89476
1.8719,0.2395,38.4300,70,97,89479
1.8671,0.2395,38.4300,70,97,89482
1.9257,0.2542,38.2400,70,97,89485
1.8719,0.2346,38.3600,70,97,89489
1.8622,0.2346,38.4000,70,97,89492
1.8573,0.2493,38.4000,70,97,89495
1.8524,0.2395,38.4000,70,97,89498
1.9159,0.2493,38.2400,70,97,89502
1.8622,0.2297,38.4000,70,97,89505
1.8573,0.2395,38.3300,70,97,89508
1.8573,0.2395,38.4000,70,97,89511
1.8524,0.2395,38.4300,70,97,89516
1.9159,0.2542,38.2400,70,97,89519
1.8719,0.2297,38.4000,70,97,89522
1.8671,0.2590,38.3600,70,97,89525
1.8622,0.2395,38.4000,70,97,89529
1.8524,0.2395,38.4000,70,97,89532
1.9013,0.2542,38.3000,70,97,89535
1.8573,0.2444,38.3600,70,97,89538
1.8426,0.2297,38.3600,70,97,89542
1.8426,0.2346,38.4300,70,97,89545
1.8377,0.2395,38.4900,70,97,89548
1.8964,0.2542,38.2400,70,97,89551
1.8524,0.2395,38.4900,70,97,89555
1.8475,0.2346,38.3600,70,97,89559
1.8328,0.2346,38.4300,70,97,89562
1.8231,0.2395,38.6200,70,97,89565
1.8671,0.2542,38.3000,70,97,89569
1.8133,0.2395,38.4600,70,97,89572
1.8182,0.2346,38.3600,70,97,89575
1.8280,0.2346,38.4300,70,97,89578
1.8377,0.2444,38.4000,70,97,89582
1.9110,0.2542,38.2100,70,97,89585
1.8768,0.2444,38.3600,70,97,89588
1.8671,0.2346,38.3600,70,97,89591
1.8719,0.2395,38.4300,70,97,89595
1.8671,0.2444,38.4300,70,97,89598
1.9257,0.2542,38.1800,70,97,89602
1.8768,0.2444,38.4000,70,97,89606
1.8622,0.2346,38.3600,70,97,89609
1.8524,0.2346,38.4000,70,97,89612
1.8426,0.2884,38.4300,70,97,89615
1.8964,0.2542,37.8300,70,97,89618
1.8524,0.2395,38.4600,70,97,89622
1.8573,0.2297,38.4300,70,97,89625
1.8768,0.2444,38.4000,70,97,89628
1.8817,0.2688,38.4000,70,97,89632
1.9453,0.2590,38.1800,70,97,89635
1.8964,0.2395,38.4000,70,97,89638
1.8768,0.2346,38.3600,70,97,89641
1.8719,0.2395,38.4000,70,97,89645
1.8622,0.2395,38.4300,70,97,89649
1.9159,0.2493,38.1800,70,97,89652
1.8768,0.2395,38.3600,70,97,89655
1.8817,0.2542,38.4000,70,97,89658
1.8915,0.2395,38.3600,70,97,89662
1.8915,0.2297,38.4300,70,97,89665
1.9599,0.2590,38.1800,70,97,89668
1.8866,0.2444,38.3600,70,97,89671
1.8719,0.2346,38.3600,70,97,89675
1.8671,0.2395,38.4600,70,97,89678
1.8622,0.2395,38.5200,70,97,89681
1.9159,0.2542,38.1800,70,97,89684
1.8622,0.2395,38.3600,70,97,89689
1.8475,0.2346,38.4000,70,97,89692
1.8426,0.2688,38.4000,70,97,89695
1.8377,0.2395,38.4300,70,97,89698
1.9013,0.2493,38.1500,70,97,89702
1.8719,0.2395,38.4000,70,97,89705
1.8671,0.2346,38.4000,70,97,89708
1.8768,0.2346,38.3300,70,97,89712
1.8768,0.2346,38.4300,70,97,89715
1.9501,0.2590,38.1500,70,97,89718
1.8866,0.2395,38.4000,70,97,89721
1.8817,0.2346,38.4000,70,97,89724
1.8817,0.2395,38.4000,70,97,89729
1.8671,0.2395,38.4300,70,97,89732
1.9110,0.2590,38.1800,70,97,89735
1.8719,0.2395,38.4000,70,97,89738
1.8622,0.2297,38.4300,70,97,89742
1.8622,0.2395,38.4000,70,97,89745
1.8524,0.2346,38.4300,70,97,89748
1.9013,0.2493,38.1100,70,97,89751
1.8671,0.2493,38.3600,70,97,89755
1.8573,0.2297,38.3600,70,97,89758
1.8671,0.2395,38.4300,70,97,89761
1.8671,0.2395,38.4300,70,97,89765
1.9355,0.2493,38.1100,70,97,89768
1.8768,0.2346,38.4300,70,97,89772
1.8817,0.2395,38.4000,70,97,89775
1.8866,0.2395,38.4000,70,97,89779
1.8817,0.2395,38.4300,70,97,89782
1.9306,0.2493,38.1100,70,97,89785
1.8866,0.2395,38.3600,70,97,89788
1.8622,0.2346,38.4000,70,97,89792
1.8524,0.2395,38.4000,70,97,89795
1.8475,0.2346,38.4300,70,97,89798
1.9159,0.2493,38.1100,70,97,89801
1.9062,0.2444,38.3600,70,97,89805
1.9404,0.2346,38.4000,70,97,89808
2.0235,0.2395,38.4300,70,97,89811
2.1359,0.2395,38.4300,70,97,89815
2.3021,0.2444,38.1100,70,97,89819
2.3656,0.2737,38.4000,70,97,89822
2.4633,0.2395,38.4300,70,97,89825
2.5611,0.2444,38.4000,70,97,89828
2.6442,0.2444,38.4000,70,97,89832
2.8592,0.2493,37.9900,70,97,89835
2.9863,0.2395,38.3600,70,97,89838
3.1036,0.2395,38.4000,70,97,89841
3.0743,0.2884,38.3600,70,97,89844
2.8446,0.2395,38.5200,70,97,89848
2.5953,0.2444,38.1800,70,97,89851
2.2092,0.2395,38.3600,70,97,89854
1.9013,0.2590,38.4300,70,97,89858
1.6960,0.2395,37.7400,70,97,89862
1.5836,0.2395,38.4000,70,97,89865
1.5445,0.2493,38.1800,70,97,89868
1.4956,0.2493,38.3600,70,97,89871
1.5152,0.2395,38.4300,70,97,89875
1.5591,0.2395,38.4300,70,97,89878
1.6031,0.2395,38.4600,70,97,89881
1.6911,0.2395,38.1800,70,97,89884
1.6960,0.2395,38.3600,70,97,89888
1.6911,0.2395,38.1500,70,97,89891
1.6813,0.2395,38.3000,70,97,89894
1.6471,0.2444,38.4300,70,97,89897
1.6667,0.2395,38.1500,70,97,89902
1.6471,0.2444,38.3600,70,97,89905
1.5836,0.2297,38.4000,70,97,89908
1.5787,0.2395,38.4000,70,97,89911
1.5689,0.2395,38.4300,70,97,89915
1.6031,0.2639,38.1500,70,97,89918
1.5738,0.2444,38.3600,70,97,89921
1.5885,0.2395,38.5200,70,97,89924
1.6031,0.2395,38.3600,70,97,89928
1.6031,0.2444,38.4300,70,97,89931
1.6471,0.2542,38.1500,70,97,89934
1.6325,0.2444,38.4300,70,97,89937
1.6373,0.2297,38.4300,70,97,89942
1.6569,0.2395,38.4000,70,97,89945
1.6764,0.2395,38.4300,70,97,89948
1.7009,0.2444,38.1800,70,97,89951
1.7351,0.2590,38.2100,70,97,89955
1.7009,0.2493,38.4000,70,97,89958
1.7107,0.2346,38.4000,70,97,89962
1.7253,0.2395,38.4000,70,97,89965
1.7351,0.2395,38.4300,70,97,89968
1.8035,0.2493,38.2100,70,97,89971
1.7546,0.2786,38.4000,70,97,89975
1.7449,0.2346,38.3600,70,97,89978
1.7546,0.2395,38.4600,70,97,89981
1.7693,0.2395,38.4300,70,97,89985
1.8231,0.2590,38.1800,70,97,89989
1.7889,0.2395,38.3600,70,97,89992
1.7840,0.2346,38.3300,70,97,89995
1.7986,0.2395,38.4300,70,97,89998
1.7986,0.2395,38.4300,70,97,90002
1.8573,0.2542,38.1500,70,97,90005
1.8182,0.2688,38.4000,70,97,90008
1.8182,0.2346,38.4000,70,97,90011
1.8133,0.2395,38.4300,70,97,90015
1.8133,0.2297,38.4300,70,97,90018
1.8671,0.2493,38.2100,70,97,90021
1.8426,0.2395,38.4300,70,97,90024
1.8182,0.2346,38.3600,70,97,90029
1.8231,0.2444,38.3600,70,97,90032
1.8133,0.2395,38.4000,70,97,90035
1.8573,0.2542,38.1800,70,97,90038
1.8084,0.2395,38.3600,70,97,90042
1.8280,0.2346,38.3600,70,97,90045
1.7937,0.2346,38.4000,70,97,90048
1.7937,0.2395,38.5500,70,97,90051
1.8426,0.2590,38.1800,70,97,90055
1.8084,0.2395,38.4000,70,97,90058
1.7889,0.2346,38.3300,70,97,90061
1.7937,0.2395,38.4600,70,97,90064
1.7986,0.2395,38.4900,70,97,90068
1.8573,0.2542,38.2100,70,97,90072
1.8377,0.2395,38.3600,70,97,90075
1.8377,0.2248,38.3600,70,97,90078
1.8524,0.2444,38.4000,70,97,90082
1.8622,0.2395,38.0800,70,97,90085
1.9453,0.2542,38.1800,70,97,90088
1.9355,0.2297,38.4000,70,97,90091
1.9501,0.2346,38.4000,70,97,90095
1.9697,0.2395,38.4000,70,97,90098
1.9697,0.2395,38.4300,70,97,90101
2.0528,0.2639,38.1800,70,97,90104
1.9941,0.2444,38.4300,70,97,90108
1.9990,0.2346,38.3600,70,97,90112
2.0186,0.2395,38.5800,70,97,90115
2.0137,0.2395,38.4300,70,97,90118
2.0870,0.2590,38.1500,70,97,90122
2.0088,0.2444,38.4300,70,97,90125
1.9990,0.2346,38.4000,70,97,90128
1.9648,0.2444,38.4300,70,97,90131
1.9404,0.2444,38.4000,70,97,90135
1.9795,0.2444,38.1100,70,97,90138
1.9306,0.2444,38.4000,70,97,90141
1.9159,0.2346,38.4300,70,97,90144
1.9013,0.2639,38.4000,70,97,90148
1.8866,0.2395,38.4300,70,97,90151
1.9208,0.2493,38.1100,70,97,90155
1.8768,0.2395,38.3600,70,97,90158
1.8524,0.2444,38.4000,70,97,90162
1.8524,0.2444,38.4000,70,97,90165
1.8377,0.2395,38.4000,70,97,90168
1.8915,0.2493,38.1800,70,97,90171
1.8573,0.2297,38.3000,70,97,90175
1.8426,0.2346,38.4600,70,97,90178
1.8475,0.2493,38.4000,70,97,90181
1.8475,0.2395,38.4300,70,97,90184
1.9013,0.2493,38.1100,70,97,90188
1.8671,0.2395,38.3600,70,97,90191
1.8573,0.2346,38.4600,70,97,90194
1.8768,0.2395,38.4300,70,97,90198
1.8475,0.2395,38.4000,70,97,90202
1.8817,0.2493,37.6500,70,97,90205
1.8280,0.2395,38.3600,70,97,90208
1.8280,0.2346,38.4300,70,97,90211
1.8231,0.2444,38.4000,70,97,90215
1.7889,0.2444,38.4900,70,97,90218
1.8231,0.2493,38.1100,70,97,90221
1.7986,0.2395,38.3000,70,97,90224
1.7937,0.2444,38.4600,70,97,90228
1.8328,0.2395,38.4300,70,97,90231
1.8133,0.2395,38.4000,70,97,90234
1.8671,0.2493,38.1500,70,97,90237
1.8231,0.2395,38.3600,70,97,90242
1.8133,0.2346,38.4300,70,97,90245
1.8084,0.2395,38.4300,70,97,90248
1.8084,0.2493,38.4600,70,97,90251
1.8671,0.2493,38.1500,70,97,90255
1.8426,0.2395,38.3600,70,97,90258
1.8622,0.2297,38.4300,70,97,90261
1.8964,0.2395,38.3600,70,97,90264
1.8671,0.2346,38.4300,70,97,90268
1.9110,0.2542,38.1100,70,97,90271
1.8719,0.2444,38.4300,70,97,90274
1.8524,0.2297,38.4300,70,97,90277
1.8426,0.2395,38.4300,70,97,90281
1.8426,0.2346,38.4300,70,97,90285
1.8866,0.2444,38.2700,70,97,90288
1.8377,0.2395,38.3300,70,97,90291
1.8133,0.2297,38.4300,70,97,90295
1.8133,0.2346,38.4000,70,97,90298
1.7937,0.2395,38.4000,70,97,90301
1.8328,0.2297,38.1500,70,97,90304
1.7986,0.2395,38.4000,70,97,90308
1.8182,0.2395,38.4300,70,97,90311
1.8524,0.2444,38.4000,70,97,90314
1.8426,0.2395,38.4000,70,97,90317
1.8817,0.2444,38.2100,70,97,90321
1.8524,0.2395,38.4000,70,97,90324
1.8426,0.2444,38.4300,70,97,90328
1.8817,0.2395,38.3600,70,97,90331
1.8377,0.2395,38.5200,70,97,90335
1.8915,0.2444,38.1500,70,97,90338
1.8622,0.2395,38.3000,70,97,90341
1.8426,0.2346,38.4300,70,97,90344
1.8524,0.2444,38.3600,70,97,90348
1.8524,0.2395,38.4300,70,97,90351
1.8964,0.2444,38.1500,70,97,90354
1.8475,0.2395,38.3600,70,97,90357
1.8377,0.2346,38.4300,70,97,90361
1.8377,0.2346,38.3600,70,97,90364
1.8182,0.2346,38.4300,70,97,90368
1.8671,0.2444,38.4900,70,97,90371
1.8377,0.2395,38.3300,70,97,90375
1.8280,0.2395,38.4300,70,97,90378
1.8280,0.2444,38.4000,70,97,90381
1.8182,0.2395,38.4000,70,97,90384
1.8671,0.2444,38.1500,70,97,90388
1.8280,0.2395,38.5200,70,97,90391
1.8182,0.2297,38.4300,70,97,90394
1.8280,0.2444,38.4000,70,97,90397
1.8231,0.2395,38.4000,70,97,90401
1.8671,0.2297,38.1500,70,97,90404
1.8280,0.2297,38.4000,70,97,90407
1.8280,0.2737,38.4300,70,97,90411
1.8426,0.2444,38.3300,70,97,90415
1.8231,0.2395,38.5500,70,97,90418
1.8573,0.2444,38.1500,70,97,90421
1.8377,0.2395,38.4300,70,97,90424
1.8231,0.2639,38.4300,70,97,90428
1.8475,0.2395,38.3600,70,97,90431
1.8475,0.2395,38.5200,70,97,90434
1.9159,0.2444,38.1500,70,97,90437
1.8866,0.2297,38.3600,70,97,90441
1.8719,0.2395,38.4300,70,97,90444
1.8719,0.2395,38.4000,70,97,90447
1.8671,0.2297,38.4300,70,97,90450
1.9404,0.2395,38.2100,70,97,90455
1.8915,0.2346,38.4300,70,97,90458
1.8817,0.2346,38.4000,70,97,90461
1.9013,0.2444,38.4300,70,97,90464
1.8719,0.2395,38.4300,70,97,90468
1.8964,0.2444,38.1800,70,97,90471
1.8671,0.2688,38.3000,70,97,90474
1.8475,0.2395,38.4300,70,97,90477
1.8671,0.2444,38.4000,70,97,90481
1.8573,0.2395,38.4300,70,97,90484
1.9208,0.2542,38.1800,70,97,90487
1.8915,0.2297,38.3300,70,97,90490
1.8671,0.2395,38.4300,70,97,90494
1.8671,0.2444,38.4000,70,97,90498
1.8719,0.2395,38.4300,70,97,90501
1.8768,0.2737,38.1500,70,97,90504
1.8475,0.2737,38.4000,70,97,90508
1.8426,0.2395,38.4300,70,97,90511
1.8671,0.2444,38.3600,70,97,90514
1.8377,0.2297,38.4300,70,97,90517
1.8622,0.2493,38.1800,70,97,90521
1.8231,0.2493,38.3300,70,97,90524
1.8133,0.2395,38.3600,70,97,90527
1.8475,0.2395,38.2700,70,97,90530
1.8573,0.2297,38.4300,70,97,90534
1.9013,0.2444,38.1500,70,97,90537
1.8817,0.2395,38.3600,70,97,90541
1.8768,0.2395,38.4000,70,97,90544
1.9013,0.2395,38.6200,70,97,90548
1.9013,0.2395,38.4300,70,97,90551
1.9501,0.2590,38.1800,70,97,90554
1.9013,0.2542,38.4000,70,97,90557
1.9013,0.2297,38.4300,70,97,90561
1.9062,0.2395,38.3600,70,97,90564
1.8915,0.2444,38.4000,70,97,90568
1.8915,0.2395,38.3000,70,97,90571
1.9501,0.2542,38.2400,70,97,90574
1.9159,0.2444,38.4000,70,97,90577
1.9110,0.2346,38.4000,70,97,90582
1.9208,0.2395,38.3300,70,97,90585
1.9208,0.2395,38.4300,70,97,90588
1.9697,0.2590,38.2100,70,97,90591
1.9159,0.2444,38.3600,70,97,90595
1.9110,0.2346,37.6800,70,97,90598
1.9110,0.2395,38.4000,70,97,90601
1.9013,0.2395,38.4000,70,97,90604
1.9355,0.2590,38.2400,70,97,90608
1.8768,0.2395,38.4000,70,97,90611
1.8622,0.2444,38.4300,70,97,90614
1.9110,0.2395,38.4000,70,97,90617
1.9013,0.2395,38.2700,70,97,90621
2.0088,0.2542,38.2400,70,97,90625
2.0528,0.2395,38.3600,70,97,90628
2.1554,0.2248,38.4600,70,97,90631
2.2874,0.2395,38.4600,70,97,90635
2.3900,0.2395,38.4300,70,97,90638
2.5367,0.2542,38.1800,70,97,90641
2.5367,0.2248,38.4300,70,97,90644
2.5904,0.2493,38.4000,70,97,90648
2.6979,0.2395,38.4300,70,97,90651
2.8104,0.2297,38.4300,70,97,90654
2.9668,0.2542,38.1500,70,97,90657
2.7859,0.2444,38.3600,70,97,90661
2.5415,0.2395,38.4600,70,97,90664
2.2483,0.2395,38.3600,70,97,90668
1.9306,0.2346,38.4900,70,97,90671
1.7302,0.2444,38.1100,70,97,90675
1.5347,0.2493,38.3300,70,97,90678
1.4516,0.2346,38.4000,70,97,90681
1.4418,0.2395,38.2100,70,97,90684
1.4467,0.2346,38.4300,70,97,90688
1.5396,0.2493,38.1100,70,97,90691
1.5689,0.2395,38.4300,70,97,90694
1.6569,0.2346,38.4000,70,97,90697
1.7302,0.2395,38.4300,70,97,90701
1.7546,0.2395,38.4300,70,97,90704
1.8084,0.2395,38.1100,70,97,90707
1.7693,0.2688,38.3600,70,97,90711
