ecg,gsr,temp,hr,spo2,timest
1.6129,0.4888,37.8300,60,97,434066
1.6129,0.4839,37.9300,60,97,434069
1.6031,0.4888,37.9600,60,97,434072
1.6716,0.4985,37.8300,60,97,434076
1.6325,0.4936,37.9300,60,97,434079
1.6618,0.4839,37.8000,60,97,434082
1.6618,0.4888,37.9300,60,97,434086
1.6716,0.4790,37.9600,60,97,434089
1.7058,0.4985,37.8300,60,97,434093
1.6960,0.4888,37.9300,60,97,434097
1.7351,0.4888,37.8000,60,97,434100
1.7058,0.4888,37.9600,60,97,434103
1.7204,0.4888,37.9300,60,97,434106
1.7449,0.4936,37.8300,60,97,434110
1.7351,0.4936,37.9900,60,97,434113
1.8133,0.4936,37.7100,60,97,434116
1.7742,0.5132,37.8700,60,97,434120
1.7840,0.4888,37.9600,60,97,434123
1.7986,0.4936,37.9600,60,97,434126
1.7840,0.5083,37.9600,60,97,434130
1.8280,0.4985,37.6800,60,97,434134
1.7693,0.4888,37.9000,60,97,434137
1.7937,0.4888,37.9600,60,97,434140
1.7791,0.4888,38.0200,60,97,434144
1.7791,0.4888,37.9600,60,97,434147
1.8182,0.5083,37.7100,60,97,434150
1.7791,0.5034,37.8300,60,97,434154
1.7644,0.4888,37.9000,60,97,434157
1.7644,0.4888,37.9600,60,97,434160
1.7742,0.4888,37.9600,60,97,434164
1.8035,0.5034,37.8300,60,97,434167
1.7742,0.4888,37.9000,60,97,434170
1.7791,0.4888,37.8700,60,97,434174
1.7595,0.4888,37.9600,60,97,434178
1.7644,0.4839,37.9600,60,97,434181
1.7840,0.4936,37.8300,60,97,434184
1.7595,0.4888,37.9900,60,97,434188
1.7889,0.4936,37.8000,60,97,434191
1.7595,0.4888,37.9900,60,97,434194
1.7644,0.4888,37.9600,60,97,434198
1.7742,0.4888,38.1100,60,97,434201
1.7693,0.4888,37.9600,60,97,434204
1.7986,0.4888,37.8000,60,97,434208
1.7595,0.5034,37.9900,60,97,434211
1.7693,0.4839,37.9600,60,97,434214
1.7791,0.4936,37.7700,60,97,434219
1.7937,0.4888,37.9300,60,97,434223
1.7889,0.4888,37.9600,60,97,434227
1.8426,0.5034,37.7100,60,97,434230
1.8084,0.4985,37.9600,60,97,434233
1.7889,0.4839,37.9000,60,97,434236
1.7791,0.4888,37.9300,60,97,434240
1.7840,0.4888,37.9600,60,97,434243
1.8231,0.5034,37.8000,60,97,434246
1.7791,0.4888,37.9300,60,97,434250
1.7889,0.4936,37.8300,60,97,434253
1.7693,0.4936,37.9600,60,97,434256
1.7742,0.4888,37.9900,60,97,434260
1.8084,0.4985,37.8700,60,97,434264
1.7889,0.4888,37.9300,60,97,434267
1.8084,0.4936,37.9600,60,97,434270
1.7791,0.4839,37.9600,60,97,434274
1.7742,0.4888,38.0800,60,97,434277
1.7937,0.5279,37.8000,60,97,434280
1.7693,0.4888,37.9600,60,97,434284
1.7937,0.4888,37.7100,60,97,434287
1.7693,0.4888,37.9000,60,97,434290
1.7840,0.4888,37.9600,60,97,434294
1.8280,0.4790,37.8300,60,97,434297
1.7889,0.4839,37.9300,60,97,434300
1.8328,0.4936,37.7100,60,97,434305
1.8084,0.4839,37.9000,60,97,434308
1.8084,0.4643,37.9600,60,97,434311
1.8280,0.4936,37.9600,60,97,434314
1.8231,0.4888,37.9900,60,97,434318
1.8719,0.4985,37.7100,60,97,434321
1.8182,0.4888,37.8700,60,97,434324
1.8133,0.4888,38.0200,60,97,434328
1.8084,0.4985,37.9600,60,97,434331
1.7937,0.4888,37.9600,60,97,434334
1.8377,0.5034,37.6800,60,97,434338
1.8280,0.4936,37.8700,60,97,434341
1.7986,0.4888,38.0200,60,97,434344
1.8084,0.4839,37.9600,60,97,434349
1.8084,0.4888,37.9600,60,97,434352
1.8622,0.4985,37.8300,60,97,434355
1.8280,0.4936,37.9000,60,97,434358
1.8328,0.4888,37.8300,60,97,434362
1.8133,0.4888,37.9600,60,97,434365
1.8084,0.4888,37.9600,60,97,434368
1.8475,0.4985,37.8000,60,97,434372
1.8182,0.4985,37.9300,60,97,434375
1.8426,0.4936,37.8000,60,97,434378
1.8182,0.4985,37.9900,60,97,434382
1.8182,0.4888,37.9600,60,97,434385
1.8231,0.4888,37.9000,60,97,434388
1.8182,0.4839,37.9600,60,97,434392
1.8377,0.4888,37.9900,60,97,434396
1.8426,0.4839,37.9900,60,97,434399
1.8133,0.4888,37.9600,60,97,434402
1.8768,0.4985,37.8300,60,97,434406
1.8280,0.4888,37.9000,60,97,434409
1.8671,0.5132,37.7100,60,97,434412
1.8475,0.4936,37.8000,60,97,434416
1.8280,0.4888,37.9600,60,97,434419
1.8328,0.4985,37.8700,60,97,434422
1.7986,0.4888,37.9300,60,97,434426
1.8426,0.4985,37.6500,60,97,434429
1.8133,0.4839,37.8700,60,97,434433
1.8182,0.4839,37.9600,60,97,434436
1.8475,0.4888,37.9300,60,97,434440
1.8573,0.4888,38.0800,60,97,434443
1.9306,0.5376,37.7100,60,97,434446
1.8964,0.4888,37.8700,60,97,434450
1.9062,0.5181,37.8300,60,97,434453
1.9110,0.4888,37.9300,60,97,434456
1.9110,0.4985,37.9600,60,97,434460
1.9501,0.4985,37.8000,60,97,434463
1.9208,0.4888,37.9000,60,97,434466
1.9453,0.4985,37.8700,60,97,434470
1.9404,0.4888,37.9300,60,97,434473
1.9648,0.4839,37.9600,60,97,434477
2.0186,0.4985,37.7700,60,97,434480
1.9990,0.5279,37.9300,60,97,434484
2.0577,0.4936,37.8300,60,97,434487
1.9795,0.4839,37.9300,60,97,434490
1.9599,0.5132,37.9900,60,97,434494
1.9550,0.4936,37.8300,60,97,434497
1.8964,0.4936,37.9600,60,97,434500
1.9062,0.4936,37.7700,60,97,434504
1.8671,0.4888,37.9600,60,97,434507
1.8768,0.4888,37.9900,60,97,434510
1.8817,0.4936,37.7700,60,97,434514
1.8622,0.4888,37.9600,60,97,434518
1.8817,0.4985,37.6800,60,97,434521
1.8035,0.4888,37.9300,60,97,434524
1.7791,0.4888,37.9600,60,97,434528
1.7546,0.4888,37.9300,60,97,434531
1.7302,0.4888,37.9600,60,97,434534
1.7693,0.5034,37.6500,60,97,434538
1.7253,0.4839,37.8700,60,97,434541
1.7204,0.4839,37.9000,60,97,434544
1.7351,0.4839,37.9300,60,97,434548
1.7302,0.4888,38.0200,60,97,434551
1.7791,0.5181,37.7400,60,97,434554
1.7498,0.4936,37.9300,60,97,434558
1.7498,0.4888,37.8300,60,97,434562
1.7449,0.4888,37.9600,60,97,434565
1.7546,0.4888,37.9600,60,97,434568
1.7840,0.5034,37.8000,60,97,434572
1.7840,0.4839,37.9300,60,97,434575
1.7840,0.4936,37.8700,60,97,434578
1.7644,0.5181,37.9600,60,97,434582
1.7498,0.4888,37.8300,60,97,434585
1.7644,0.4888,37.9000,60,97,434588
1.7546,0.4839,37.9600,60,97,434592
1.7937,0.4936,37.8000,60,97,434595
1.7693,0.4888,37.9600,60,97,434598
1.7791,0.4888,37.8700,60,97,434603
1.7889,0.4985,37.8700,60,97,434606
1.7791,0.4888,37.9600,60,97,434609
1.8231,0.4888,37.7400,60,97,434612
1.8231,0.4936,37.8300,60,97,434616
1.8573,0.4888,37.9600,60,97,434619
1.9550,0.4985,37.8700,60,97,434622
2.0674,0.4888,37.9900,60,97,434626
2.3851,0.4936,37.6800,60,97,434629
2.6686,0.4888,37.8300,60,97,434632
3.0743,0.4936,37.9600,60,97,434636
3.4800,0.4888,37.9600,60,97,434639
3.7781,0.4888,37.9300,60,97,434642
4.0811,0.5279,37.6500,60,97,434646
4.0420,0.4888,37.9300,60,97,434650
3.8905,0.4839,37.1900,60,97,434653
3.5728,0.4888,37.9300,60,97,434656
3.1427,0.4888,37.9900,60,97,434660
2.7370,0.5034,37.8300,60,97,434663
2.2141,0.4888,37.9300,60,97,434666
1.8182,0.4888,37.8300,60,97,434670
1.5445,0.4839,37.9600,60,97,434673
1.3978,0.4888,37.9300,60,97,434676
1.3734,0.4936,37.7700,60,97,434680
1.3343,0.4888,38.1100,60,97,434683
1.4027,0.4888,37.8700,60,97,434686
1.3734,0.4643,37.9600,60,97,434690
1.3978,0.4888,37.9600,60,97,434694
1.4370,0.4936,37.8000,60,97,434697
1.4272,0.4888,38.1500,60,97,434700
1.4614,0.4888,37.8000,60,97,434704
1.4614,0.4888,37.9300,60,97,434707
1.4858,0.4888,38.0200,60,97,434710
1.5200,0.4888,37.8700,60,97,434714
1.5347,0.4888,38.0500,60,97,434717
1.5689,0.4985,37.7100,60,97,434720
1.5494,0.4888,37.9600,60,97,434724
1.5543,0.5034,37.9600,60,97,434727
1.5787,0.4936,37.9300,60,97,434731
1.5689,0.4936,37.9900,60,97,434734
1.6227,0.4985,37.6800,60,97,434738
1.6080,0.4936,37.8700,60,97,434741
1.6129,0.4888,37.9600,60,97,434744
1.6373,0.4936,37.9600,60,97,434748
1.6471,0.4936,37.9600,60,97,434751
1.7204,0.5034,37.7100,60,97,434754
1.7009,0.4985,37.8300,60,97,434758
1.7107,0.4888,37.8700,60,97,434761
1.7253,0.4888,38.0500,60,97,434764
1.7400,0.4888,37.9000,60,97,434767
1.7937,0.4985,37.7700,60,97,434771
1.7644,0.4643,37.9300,60,97,434775
1.7840,0.4936,37.8700,60,97,434778
1.7840,0.4888,37.9300,60,97,434782
1.7937,0.4888,37.9600,60,97,434785
1.8280,0.4936,37.9300,60,97,434788
1.8182,0.4888,37.9900,60,97,434792
1.8524,0.4936,37.8300,60,97,434795
1.8377,0.4888,37.9300,60,97,434798
1.8573,0.4888,37.9600,60,97,434802
1.8915,0.4985,37.8300,60,97,434805
1.8768,0.4888,37.9600,60,97,434808
1.9013,0.4936,37.8300,60,97,434811
1.8915,0.4985,37.8700,60,97,434816
1.9110,0.4839,37.9300,60,97,434819
1.9599,0.4936,37.8300,60,97,434822
1.9844,0.4888,37.9600,60,97,434826
2.0235,0.4985,37.8300,60,97,434829
2.1114,0.5083,37.7100,60,97,434834
2.0772,0.4936,37.9600,60,97,434837
2.0968,0.4888,38.0800,60,97,434840
2.1163,0.4888,37.9600,60,97,434844
2.1359,0.4888,38.0200,60,97,434847
2.2092,0.5034,37.8700,60,97,434850
2.2092,0.4936,37.9000,60,97,434854
2.2434,0.4839,37.8300,60,97,434857
2.2385,0.4936,37.9600,60,97,434861
2.2678,0.4839,37.9600,60,97,434864
2.3118,0.4985,37.8000,60,97,434868
2.2923,0.4985,37.9900,60,97,434871
2.3216,0.4936,37.8000,60,97,434874
2.2874,0.4888,37.9600,60,97,434878
2.2874,0.4888,37.9600,60,97,434881
2.3118,0.4936,37.9300,60,97,434884
2.2678,0.4888,38.0200,60,97,434888
2.2776,0.4888,37.8000,60,97,434891
2.2336,0.4839,37.9000,60,97,434894
2.2141,0.4888,38.0500,60,97,434897
2.2043,0.4839,37.9000,60,97,434902
2.1701,0.4888,37.9600,60,97,434905
2.1652,0.4936,37.0700,60,97,434908
2.0723,0.4888,37.9600,60,97,434912
1.9990,0.4643,37.9600,60,97,434915
1.9404,0.4985,37.8700,60,97,434918
1.8426,0.4888,37.9900,60,97,434922
1.8084,0.5376,37.6500,60,97,434925
1.7155,0.4985,37.8300,60,97,434928
1.6471,0.4888,37.9600,60,97,434931
1.6325,0.4936,37.9000,60,97,434935
1.5494,0.4888,37.9900,60,97,434938
1.5543,0.5034,37.6500,60,97,434941
1.4907,0.4936,37.8000,60,97,434946
1.4565,0.4839,38.0200,60,97,434949
1.4467,0.5230,37.9900,60,97,434952
1.4174,0.4839,37.9600,60,97,434956
1.4467,0.5034,37.7700,60,97,434959
1.4076,0.4839,37.9300,60,97,434962
1.4125,0.4888,37.2500,60,97,434966
1.3881,0.4888,37.9600,60,97,434969
1.3930,0.4888,38.0500,60,97,434972
1.4516,0.4888,37.9000,60,97,434975
1.4076,0.4936,37.9300,60,97,434979
1.4321,0.4936,37.8300,60,97,434982
1.4272,0.4888,37.9600,60,97,434985
1.4467,0.4888,37.8700,60,97,434990
1.5152,0.4936,37.8000,60,97,434993
1.4663,0.4888,37.9600,60,97,434996
1.4907,0.4888,37.8300,60,97,435000
1.4663,0.4643,37.9000,60,97,435003
1.4809,0.4888,37.9300,60,97,435006
1.5152,0.4936,37.8700,60,97,435010
1.5152,0.4888,37.2200,60,97,435013
1.5543,0.4888,37.7100,60,97,435016
1.5445,0.4936,37.9600,60,97,435019
1.5494,0.4888,37.9600,60,97,435023
1.5738,0.4936,37.9000,60,97,435026
1.5787,0.4888,37.9600,60,97,435030
1.6276,0.5034,37.7400,60,97,435034
1.6031,0.4888,37.9000,60,97,435037
1.6227,0.4936,37.9600,60,97,435040
1.6471,0.4936,37.9600,60,97,435044
1.6471,0.4888,37.9300,60,97,435047
1.7058,0.5083,37.7400,60,97,435050
1.6764,0.4985,37.8700,60,97,435054
1.6813,0.4888,37.8700,60,97,435057
1.6764,0.4888,37.9300,60,97,435060
1.6911,0.4888,37.9900,60,97,435063
1.7302,0.4985,37.6500,60,97,435067
1.7058,0.4936,37.9600,60,97,435070
1.7204,0.4936,37.8700,60,97,435074
1.7009,0.4839,37.9600,60,97,435078
1.7107,0.4839,37.9900,60,97,435081
1.7400,0.4985,37.8000,60,97,435084
1.7595,0.4888,37.9600,60,97,435088
1.7644,0.4985,37.8700,60,97,435091
1.7449,0.4839,37.7700,60,97,435094
1.7449,0.4888,37.9600,60,97,435098
1.7546,0.4888,37.8700,60,97,435101
1.7595,0.4888,37.9600,60,97,435104
1.7546,0.4936,37.8000,60,97,435107
1.7498,0.4888,37.9600,60,97,435111
1.7400,0.4888,37.9600,60,97,435115
1.7644,0.4936,37.8300,60,97,435118
1.7400,0.4643,37.9300,60,97,435122
1.7742,0.4985,37.7400,60,97,435125
1.7595,0.4936,37.8700,60,97,435128
1.7449,0.4888,37.9600,60,97,435132
1.7693,0.4985,37.9000,60,97,435135
1.7595,0.4888,37.9900,60,97,435138
1.8133,0.5034,37.6200,60,97,435141
1.7889,0.4936,37.8300,60,97,435145
1.7742,0.4839,37.9000,60,97,435148
1.7742,0.4839,37.9300,60,97,435151
1.7644,0.4888,37.9300,60,97,435155
1.8328,0.5083,37.7700,60,97,435159
1.7595,0.4936,37.9300,60,97,435162
1.7595,0.4985,37.8700,60,97,435166
1.7546,0.4888,37.9300,60,97,435169
1.7595,0.4839,37.9600,60,97,435172
1.7937,0.4985,37.9000,60,97,435176
1.7840,0.4888,37.9900,60,97,435179
1.8280,0.4888,37.7700,60,97,435182
1.7742,0.4936,37.9600,60,97,435186
1.7693,0.4888,37.9600,60,97,435189
1.7889,0.4985,37.8000,60,97,435192
1.7498,0.5181,37.9300,60,97,435195
1.7644,0.4839,37.8700,60,97,435200
1.7351,0.4888,37.9000,60,97,435203
1.7693,0.4888,37.9600,60,97,435206
1.7742,0.4936,37.8300,60,97,435210
1.7644,0.4936,37.9600,60,97,435213
1.8084,0.4936,37.7400,60,97,435216
1.7742,0.4985,37.8700,60,97,435220
1.7644,0.4888,37.9600,60,97,435223
1.7693,0.4936,37.9000,60,97,435226
1.7595,0.4936,37.9900,60,97,435229
1.8328,0.4985,37.6800,60,97,435233
1.7595,0.4888,37.9300,60,97,435236
1.7644,0.4888,37.9300,60,97,435239
1.7791,0.4936,37.9300,60,97,435244
1.7693,0.4936,37.9600,60,97,435247
1.8280,0.5034,37.6800,60,97,435250
1.7937,0.4936,37.8700,60,97,435254
1.7840,0.4888,37.9000,60,97,435257
1.7937,0.4888,37.9600,60,97,435260
1.7937,0.4888,37.9600,60,97,435264
1.8524,0.4985,37.7700,60,97,435267
1.8280,0.4936,37.9000,60,97,435270
1.8280,0.4888,37.8300,60,97,435273
1.8084,0.4888,38.1500,60,97,435277
1.7986,0.4888,37.9600,60,97,435280
1.8133,0.4985,37.8000,60,97,435283
1.7937,0.4936,37.9900,60,97,435288
1.8524,0.4985,37.8000,60,97,435291
1.7937,0.4839,37.9300,60,97,435294
1.7889,0.4936,37.9600,60,97,435298
1.7986,0.4888,37.9300,60,97,435301
1.7840,0.4888,37.9300,60,97,435304
1.8133,0.4888,37.8300,60,97,435307
1.7840,0.4888,38.1800,60,97,435311
1.7937,0.4888,38.0500,60,97,435314
1.8328,0.4985,37.8300,60,97,435317
1.8084,0.4790,37.9600,60,97,435321
1.8475,0.4985,37.7400,60,97,435324
1.8182,0.4888,38.0500,60,97,435328
1.7986,0.4985,37.9300,60,97,435332
1.8035,0.4985,37.8700,60,97,435335
1.7889,0.4888,37.9600,60,97,435338
1.8377,0.4985,37.6500,60,97,435342
1.8035,0.4888,37.7100,60,97,435345
1.8035,0.4888,38.0500,60,97,435348
1.8182,0.4839,37.9000,60,97,435351
1.8084,0.4888,37.9600,60,97,435355
1.8671,0.5034,37.5900,60,97,435358
1.8328,0.4839,37.9000,60,97,435361
1.8328,0.4839,37.7700,60,97,435365
1.8524,0.4888,37.9600,60,97,435368
1.8328,0.4888,37.8300,60,97,435372
1.8622,0.5083,37.8000,60,97,435376
1.8133,0.4936,37.9000,60,97,435379
1.7986,0.4888,37.9000,60,97,435382
1.7889,0.4888,37.9600,60,97,435385
1.7840,0.4888,37.9600,60,97,435389
1.8231,0.5083,37.7700,60,97,435392
1.7986,0.4839,37.9600,60,97,435395
1.8133,0.4936,37.9300,60,97,435399
1.7889,0.4888,37.9600,60,97,435402
1.7986,0.4888,37.9600,60,97,435405
1.8475,0.4985,37.8700,60,97,435409
1.8182,0.4888,37.9600,60,97,435412
1.8622,0.4888,37.7700,60,97,435416
1.8377,0.4888,37.9300,60,97,435420
1.8426,0.4888,37.9900,60,97,435423
1.8573,0.4839,37.8700,60,97,435426
1.8573,0.4643,37.9600,60,97,435429
1.9013,0.4936,37.7700,60,97,435433
1.8768,0.4888,37.9600,60,97,435436
1.8964,0.4888,37.9900,60,97,435439
1.9501,0.4985,37.9300,60,97,435443
1.9746,0.4888,38.0800,60,97,435447
1.9844,0.5230,37.9600,60,97,435451
2.0528,0.5034,37.7400,60,97,435454
1.9795,0.4936,37.9300,60,97,435458
1.9550,0.4985,37.8300,60,97,435462
1.9257,0.4888,37.9600,60,97,435465
1.9062,0.4888,37.9000,60,97,435468
1.9257,0.4985,37.7700,60,97,435471
1.8866,0.4888,37.9300,60,97,435475
1.8817,0.4936,37.8300,60,97,435478
1.8377,0.4790,37.9600,60,97,435481
1.8231,0.4888,38.0500,60,97,435485
1.8280,0.5181,37.9000,60,97,435488
1.7937,0.4888,37.9600,60,97,435491
1.8035,0.4936,37.8300,60,97,435495
1.7595,0.4888,37.9300,60,97,435499
1.7449,0.4643,37.9600,60,97,435502
1.7546,0.4985,37.7700,60,97,435506
1.7302,0.4888,37.9900,60,97,435509
1.7595,0.4936,37.7400,60,97,435512
1.7498,0.4888,37.8300,60,97,435515
1.7449,0.4888,37.9600,60,97,435519
1.7693,0.4985,37.8300,60,97,435522
1.7595,0.4888,37.9600,60,97,435525
1.7986,0.4985,37.6800,60,97,435529
1.7595,0.4888,37.9300,60,97,435532
1.7351,0.4888,37.1900,60,97,435535
1.7253,0.4888,37.9000,60,97,435539
1.7204,0.4888,37.9600,60,97,435543
1.7644,0.5034,37.8300,60,97,435546
1.7253,0.4888,37.9300,60,97,435550
1.7302,0.4839,38.2400,60,97,435553
1.7351,0.4936,37.9000,60,97,435556
1.7449,0.4888,38.0200,60,97,435559
1.8035,0.5083,37.7700,60,97,435563
1.7693,0.4839,37.9300,60,97,435566
1.7791,0.4888,37.9000,60,97,435569
1.7595,0.4839,37.9600,60,97,435573
1.7595,0.4888,38.0200,60,97,435576
1.8035,0.4985,37.7100,60,97,435579
1.8084,0.4936,37.9000,60,97,435584
1.8768,0.4936,37.8000,60,97,435587
1.9355,0.4888,37.9600,60,97,435590
2.1017,0.4888,37.9600,60,97,435593
2.3998,0.4985,37.8300,60,97,435597
2.7224,0.4888,37.9900,60,97,435600
3.1769,0.5083,37.8300,60,97,435603
3.5142,0.4839,37.9600,60,97,435607
3.7928,0.4839,37.9600,60,97,435610
3.9883,0.4985,37.9000,60,97,435613
3.9785,0.4888,37.9600,60,97,435617
3.8465,0.4936,37.7700,60,97,435620
3.4555,0.4888,37.9600,60,97,435623
3.0352,0.4888,38.1500,60,97,435627
2.5709,0.4936,37.9000,60,97,435631
2.0772,0.4888,37.9600,60,97,435634
1.7351,0.4985,37.7100,60,97,435637
1.4712,0.4985,37.8700,60,97,435641
1.3441,0.4888,37.9600,60,97,435644
1.3148,0.4839,37.9000,60,97,435647
1.3050,0.4888,37.9600,60,97,435651
1.3685,0.5034,37.6500,60,97,435654
1.3783,0.4936,37.8300,60,97,435657
1.3930,0.4839,38.0200,60,97,435660
1.4223,0.4888,37.9600,60,97,435664
1.4467,0.4839,37.9600,60,97,435667
1.5103,0.5034,37.7700,60,97,435671
1.4809,0.4936,37.9300,60,97,435675
1.4956,0.4888,37.9000,60,97,435678
1.4956,0.4888,37.9300,60,97,435681
1.5103,0.4643,37.9600,60,97,435685
1.5494,0.5034,37.8300,60,97,435688
1.5396,0.4888,37.9300,60,97,435691
1.5787,0.4936,37.8300,60,97,435695
1.6178,0.4888,37.9600,60,97,435698
1.6031,0.4888,38.0200,60,97,435701
1.6471,0.4936,37.8300,60,97,435704
1.6373,0.4888,37.9600,60,97,435708
1.6667,0.5181,37.8300,60,97,435712
1.6373,0.4839,37.9000,60,97,435715
1.6325,0.4888,37.9600,60,97,435719
1.6716,0.4839,37.8300,60,97,435722
1.6422,0.4888,38.0200,60,97,435725
1.6813,0.4985,37.7400,60,97,435729
1.6764,0.4888,37.8700,60,97,435732
1.6911,0.4888,37.9900,60,97,435735
1.7155,0.4936,37.9000,60,97,435739
1.7204,0.4888,37.9600,60,97,435742
1.7791,0.5083,37.6800,60,97,435745
1.7595,0.4888,37.9300,60,97,435748
1.7791,0.4888,37.9600,60,97,435752
1.7986,0.4936,37.9300,60,97,435756
1.7986,0.4888,37.9600,60,97,435759
1.8573,0.4839,37.6800,60,97,435763
1.8280,0.4936,37.9000,60,97,435766
1.8328,0.4839,37.9000,60,97,435769
1.8475,0.4888,37.9600,60,97,435773
1.8573,0.4790,37.9600,60,97,435776
1.9208,0.4985,37.7400,60,97,435779
1.8964,0.4985,37.9000,60,97,435783
1.9306,0.4936,37.8700,60,97,435786
1.9110,0.4643,38.0200,60,97,435789
1.9355,0.4888,37.9300,60,97,435792
1.9941,0.4839,37.8000,60,97,435796
1.9892,0.4888,37.8700,60,97,435800
2.0283,0.4985,37.7700,60,97,435803
2.0039,0.4888,37.9600,60,97,435807
2.0186,0.4888,37.9900,60,97,435810
2.0674,0.4936,37.9000,60,97,435813
2.0479,0.4839,38.0800,60,97,435817
2.0968,0.4936,37.8300,60,97,435820
2.0821,0.4790,37.9600,60,97,435823
2.1114,0.4888,37.9600,60,97,435826
2.1701,0.4936,37.8300,60,97,435830
2.1652,0.4888,37.9600,60,97,435833
2.2190,0.4936,37.7700,60,97,435836
2.2092,0.4888,37.8700,60,97,435841
2.2141,0.4888,37.9600,60,97,435844
2.2532,0.4985,37.8700,60,97,435847
2.2336,0.4888,37.9300,60,97,435851
2.3021,0.4936,37.6800,60,97,435854
2.2727,0.4888,37.6500,60,97,435857
2.2630,0.4888,37.9900,60,97,435860
2.2776,0.4643,37.9600,60,97,435864
2.2630,0.4888,37.9600,60,97,435867
2.3021,0.4985,37.6500,60,97,435870
2.2239,0.4888,37.8000,60,97,435874
2.1945,0.4839,37.9000,60,97,435877
2.1945,0.4888,37.9900,60,97,435880
2.1163,0.4888,37.9900,60,97,435885
2.1408,0.5083,37.7700,60,97,435888
2.0235,0.4839,37.9300,60,97,435891
1.9550,0.4888,37.8700,60,97,435894
1.8866,0.4839,37.9300,60,97,435898
1.8280,0.4643,37.9600,60,97,435901
1.8035,0.5132,37.8000,60,97,435904
1.7253,0.4936,37.9300,60,97,435908
1.6813,0.4936,37.7400,60,97,435911
1.6129,0.4888,37.9900,60,97,435914
1.5494,0.4888,37.9900,60,97,435918
1.5249,0.4936,37.8000,60,97,435921
1.4614,0.4888,37.9300,60,97,435924
1.4516,0.4985,37.8000,60,97,435929
1.4125,0.4888,37.9300,60,97,435932
1.3881,0.4888,37.9600,60,97,435935
1.3930,0.4888,37.9000,60,97,435938
1.3734,0.4888,37.9600,60,97,435942
1.3881,0.4936,37.7400,60,97,435945
1.3685,0.4888,37.9900,60,97,435948
1.3734,0.4888,37.9000,60,97,435952
1.4272,0.4936,37.8700,60,97,435955
1.3783,0.4888,37.9600,60,97,435958
1.4125,0.4985,37.6800,60,97,435962
1.4027,0.4936,37.8700,60,97,435965
1.3978,0.5034,37.9900,60,97,435969
1.4223,0.4936,37.9300,60,97,435973
1.4223,0.5034,37.9600,60,97,435976
1.4761,0.5083,37.6800,60,97,435979
1.4565,0.4985,37.8700,60,97,435982
1.4565,0.4888,37.9000,60,97,435986
1.4712,0.4888,37.9900,60,97,435989
1.4956,0.4888,38.0200,60,97,435992
1.5347,0.5034,37.7700,60,97,435996
1.5103,0.4839,37.9300,60,97,435999
1.5298,0.4936,37.5300,60,97,436002
1.5494,0.4888,37.9600,60,97,436006
1.5347,0.4888,37.8700,60,97,436009
1.5640,0.4936,37.9000,60,97,436013
1.5591,0.4888,37.9300,60,97,436017
1.5885,0.4936,37.8300,60,97,436020
1.5787,0.4888,37.9600,60,97,436023
1.5982,0.4888,38.0800,60,97,436026
1.6471,0.4936,37.8000,60,97,436030
1.6373,0.4888,37.9900,60,97,436033
1.6764,0.4888,37.8000,60,97,436036
1.6667,0.4888,37.9000,60,97,436040
1.6618,0.4888,37.9600,60,97,436043
1.6764,0.4936,37.8000,60,97,436046
1.6422,0.4839,37.9600,60,97,436050
1.6667,0.4936,37.8300,60,97,436054
1.7204,0.5083,37.6800,60,97,436059
1.6862,0.4888,37.9000,60,97,436062
1.6911,0.4839,37.9300,60,97,436065
1.6960,0.4839,37.9600,60,97,436068
1.6911,0.4888,37.9900,60,97,436072
1.7351,0.4936,37.7700,60,97,436075
1.7058,0.4936,37.9300,60,97,436078
1.7058,0.5083,37.8300,60,97,436082
1.7009,0.4888,37.9600,60,97,436085
1.7058,0.4888,38.1100,60,97,436088
1.7449,0.4985,37.7700,60,97,436092
1.7302,0.4888,37.9900,60,97,436096
1.7449,0.5034,37.8000,60,97,436099
1.7302,0.4839,37.9600,60,97,436103
1.7204,0.4888,38.0200,60,97,436106
1.7400,0.4985,37.8300,60,97,436109
1.7302,0.4839,37.9600,60,97,436112
1.7644,0.4936,37.8700,60,97,436116
1.7498,0.4888,37.9000,60,97,436119
1.7449,0.4888,37.9900,60,97,436122
1.7449,0.4936,37.8300,60,97,436126
1.7204,0.4888,37.9900,60,97,436129
1.7449,0.4936,37.7400,60,97,436132
1.7107,0.4839,37.9600,60,97,436136
1.7204,0.4888,37.2800,60,97,436140
1.7351,0.4985,37.8700,60,97,436143
1.7107,0.4888,38.0200,60,97,436147
1.7400,0.4985,37.6800,60,97,436150
1.7107,0.4936,37.8700,60,97,436153
1.6960,0.4936,37.9600,60,97,436156
1.7155,0.4936,37.9000,60,97,436160
1.7058,0.4888,38.1800,60,97,436163
1.7644,0.5279,37.6500,60,97,436166
1.7351,0.4936,37.8300,60,97,436170
1.7253,0.4936,37.9000,60,97,436173
1.7302,0.4888,37.9600,60,97,436176
1.7253,0.4839,37.9000,60,97,436180
1.7986,0.5034,37.8000,60,97,436184
1.7253,0.4643,37.9300,60,97,436187
1.7302,0.4888,37.8700,60,97,436190
1.7204,0.4839,37.9600,60,97,436194
1.7155,0.4888,37.9600,60,97,436197
1.7498,0.4985,37.9000,60,97,436200
1.7155,0.4643,37.9600,60,97,436204
1.7302,0.4985,37.8300,60,97,436207
1.7058,0.4888,37.9900,60,97,436210
1.7155,0.4888,37.9300,60,97,436214
1.7546,0.4839,37.8000,60,97,436217
1.7253,0.4888,38.0200,60,97,436220
1.7498,0.5181,37.8000,60,97,436225
1.7204,0.4839,37.9000,60,97,436228
1.7204,0.4888,37.9600,60,97,436231
1.7400,0.4985,37.8000,60,97,436234
1.7302,0.4888,37.9600,60,97,436238
1.7693,0.4936,37.7400,60,97,436241
1.7400,0.4888,37.8700,60,97,436244
1.7204,0.4888,37.9600,60,97,436248
1.7253,0.4936,37.9600,60,97,436251
1.7107,0.4888,37.9900,60,97,436254
1.7498,0.4888,37.6800,60,97,436257
1.7155,0.4888,37.9000,60,97,436261
1.7253,0.4888,37.9900,60,97,436264
1.7351,0.4936,37.9300,60,97,436268
1.7253,0.4839,37.9300,60,97,436272
1.7840,0.5034,37.6500,60,97,436275
1.7546,0.4985,37.8700,60,97,436278
1.7400,0.4839,37.9300,60,97,436282
1.7449,0.5181,37.9300,60,97,436285
1.7400,0.4888,37.9600,60,97,436288
1.7840,0.4985,37.7700,60,97,436292
1.7546,0.4936,37.9300,60,97,436295
1.7546,0.4936,37.8700,60,97,436298
1.7449,0.4839,37.9600,60,97,436302
1.7595,0.4888,37.9600,60,97,436305
1.7889,0.4985,37.7700,60,97,436308
1.7937,0.4839,37.9600,60,97,436312
1.7791,0.4936,37.8000,60,97,436316
1.7449,0.4936,37.9900,60,97,436319
1.7351,0.4888,37.9600,60,97,436322
1.7400,0.4888,37.9000,60,97,436326
1.7253,0.4985,37.9600,60,97,436329
1.7742,0.4839,37.8300,60,97,436332
1.7302,0.4888,37.9900,60,97,436336
1.7449,0.4839,37.9600,60,97,436339
1.7644,0.4936,37.8300,60,97,436342
1.7644,0.4888,37.9300,60,97,436345
1.7742,0.4936,37.7400,60,97,436349
1.7644,0.4888,37.8700,60,97,436353
1.7400,0.4839,37.9600,60,97,436356
1.7742,0.5083,37.8700,60,97,436360
1.7595,0.4839,37.9600,60,97,436363
1.8084,0.4985,37.8300,60,97,436366
1.7889,0.4936,37.8700,60,97,436370
1.7595,0.4888,37.9600,60,97,436373
1.7693,0.4936,37.9300,60,97,436376
1.7791,0.4839,37.9600,60,97,436380
1.8475,0.5034,37.8300,60,97,436383
1.8426,0.4839,37.9000,60,97,436386
1.8280,0.4888,37.9000,60,97,436389
1.8377,0.4888,37.9600,60,97,436393
1.8475,0.4888,37.9900,60,97,436397
1.9062,0.5034,37.7400,60,97,436400
1.8817,0.4985,37.9300,60,97,436404
1.9013,0.4936,37.8700,60,97,436407
1.8964,0.4888,37.9600,60,97,436410
1.8915,0.4888,37.9900,60,97,436414
1.9306,0.5230,37.8000,60,97,436417
1.8964,0.4888,37.9300,60,97,436420
1.8915,0.4936,37.9300,60,97,436423
1.8377,0.4888,37.9900,60,97,436427
1.8133,0.4839,37.9900,60,97,436430
1.8133,0.5132,37.8700,60,97,436433
1.7742,0.4888,37.9600,60,97,436438
1.7986,0.4888,37.9900,60,97,436441
1.7595,0.4888,37.9000,60,97,436444
1.7498,0.4888,37.9900,60,97,436448
1.7449,0.4888,37.9000,60,97,436451
1.7204,0.4839,37.9600,60,97,436454
1.7351,0.4936,37.7700,60,97,436458
1.6862,0.4839,37.9600,60,97,436461
1.6862,0.4643,37.9600,60,97,436464
1.6862,0.4936,37.9000,60,97,436467
1.6618,0.4888,37.9300,60,97,436471
1.6960,0.5083,37.6800,60,97,436474
1.6862,0.4985,37.9000,60,97,436477
1.6520,0.4643,37.9900,60,97,436482
1.6569,0.4936,37.9000,60,97,436485
1.6520,0.4888,37.9600,60,97,436488
1.7009,0.5034,37.6800,60,97,436492
1.6716,0.4985,37.8700,60,97,436495
1.6569,0.4888,37.8700,60,97,436498
1.6667,0.4888,37.9600,60,97,436501
1.6960,0.4888,37.9900,60,97,436505
1.7155,0.5034,37.8000,60,97,436508
1.6764,0.4888,37.9600,60,97,436511
1.6813,0.4985,37.8700,60,97,436515
1.6618,0.4888,38.0500,60,97,436518
1.6569,0.4888,37.9600,60,97,436521
1.6813,0.4936,37.8700,60,97,436526
1.6618,0.4888,37.9300,60,97,436529
1.6862,0.4936,37.8000,60,97,436532
1.6716,0.4888,37.9600,60,97,436536
1.6960,0.4888,37.9600,60,97,436539
1.7644,0.4985,37.8300,60,97,436542
1.7889,0.5083,37.9600,60,97,436545
1.8768,0.4888,37.8000,60,97,436549
1.9404,0.4888,37.9000,60,97,436552
2.1114,0.4888,37.8700,60,97,436555
2.3998,0.4936,37.8000,60,97,436559
2.7224,0.4888,37.9300,60,97,436562
3.1818,0.4936,37.7400,60,97,436566
3.4751,0.4888,37.9000,60,97,436570
3.6755,0.4888,37.9300,60,97,436573
3.7977,0.4839,37.9000,60,97,436576
3.7341,0.4888,37.9600,60,97,436579
3.5826,0.4985,37.6500,60,97,436583
3.1525,0.4888,37.9000,60,97,436586
2.7273,0.4888,37.9900,60,97,436589
2.2923,0.4839,37.9900,60,97,436593
1.8817,0.4643,37.9600,60,97,436596
1.6129,0.5034,37.6800,60,97,436599
1.4027,0.4936,37.8700,60,97,436603
1.2805,0.4839,37.9000,60,97,436606
1.2463,0.4888,37.9300,60,97,436610
1.2561,0.4839,37.9600,60,97,436613
1.3148,0.4985,37.7700,60,97,436617
1.3490,0.4936,37.9300,60,97,436620
1.3490,0.4888,37.4300,60,97,436623
1.3539,0.4888,37.9600,60,97,436627
1.3734,0.4839,37.9600,60,97,436630
1.4174,0.4985,37.8300,60,97,436633
1.4076,0.4888,37.9300,60,97,436637
1.4418,0.4936,37.8000,60,97,436640
1.4321,0.4936,37.9300,60,97,436643
1.4467,0.4888,37.9600,60,97,436647
1.4712,0.4985,37.9000,60,97,436651
1.4858,0.4888,37.9600,60,97,436654
1.5298,0.4888,37.7400,60,97,436657
1.5152,0.4888,37.9600,60,97,436661
1.5396,0.4888,37.9900,60,97,436664
1.5689,0.4839,37.9300,60,97,436667
1.5982,0.4936,38.0200,60,97,436672
1.6031,0.4936,38.0500,60,97,436675
1.6716,0.5034,37.6800,60,97,436679
1.6520,0.4936,37.9300,60,97,436682
1.6618,0.4936,37.9000,60,97,436685
1.6764,0.4888,37.9600,60,97,436689
1.7009,0.4888,37.9600,60,97,436692
1.7791,0.5083,37.8300,60,97,436696
1.7253,0.4888,38.1100,60,97,436700
1.7644,0.4888,37.8300,60,97,436703
1.7449,0.4888,37.9600,60,97,436706
1.7498,0.4839,37.9600,60,97,436709
1.7693,0.4936,37.9000,60,97,436713
1.7498,0.4888,37.9300,60,97,436716
1.7742,0.4985,37.8000,60,97,436719
1.7644,0.4888,37.8300,60,97,436723
1.7840,0.4936,37.9600,60,97,436726
1.8328,0.4985,37.8300,60,97,436729
1.8573,0.4839,37.9600,60,97,436733
1.8768,0.4888,37.8000,60,97,436737
1.8671,0.4888,37.9000,60,97,436740
1.8768,0.4790,37.9600,60,97,436743
1.9062,0.4936,37.8300,60,97,436747
1.8915,0.4888,37.9600,60,97,436750
1.9306,0.4985,37.7700,60,97,436753
1.9257,0.4888,37.8700,60,97,436757
1.9355,0.4936,37.9600,60,97,436760
1.9648,0.4643,37.9300,60,97,436763
1.9746,0.4790,37.9600,60,97,436767
2.0577,0.4936,37.4300,60,97,436770
2.0283,0.5230,37.9000,60,97,436773
2.0577,0.4888,37.9600,60,97,436777
2.0919,0.4888,37.9000,60,97,436781
2.1065,0.4888,37.9600,60,97,436784
2.1799,0.5132,37.6800,60,97,436787
2.1505,0.4936,37.9000,60,97,436791
2.1408,0.4839,37.3700,60,97,436794
2.1603,0.4839,37.9300,60,97,436797
2.1554,0.4888,37.9600,60,97,436801
2.2141,0.5034,37.8000,60,97,436804
2.1799,0.4936,37.9000,60,97,436807
2.1750,0.4888,37.8700,60,97,436811
2.1505,0.4888,37.9600,60,97,436814
2.1408,0.4936,37.9600,60,97,436817
2.1505,0.4985,37.8300,60,97,436820
2.0968,0.4888,37.9600,60,97,436825
2.0870,0.4888,37.8000,60,97,436828
2.0186,0.4839,37.9600,60,97,436831
1.9844,0.4888,37.9600,60,97,436835
1.9501,0.4839,37.9000,60,97,436838
1.8817,0.4888,37.9600,60,97,436841
1.8622,0.4985,37.8700,60,97,436844
1.7889,0.4888,37.9900,60,97,436848
1.7302,0.4888,37.9600,60,97,436851
1.7058,0.4985,37.8000,60,97,436854
1.6422,0.4839,37.9900,60,97,436858
1.6227,0.4936,37.1900,60,97,436861
1.5640,0.4888,37.8700,60,97,436865
1.5249,0.4643,37.9900,60,97,436869
1.5005,0.4985,37.8000,60,97,436872
1.4370,0.4839,37.9600,60,97,436875
1.4370,0.4985,37.7100,60,97,436879
1.3881,0.4888,37.9000,60,97,436882
1.3587,0.4888,37.9600,60,97,436885
1.3539,0.4888,38.0200,60,97,436888
1.3343,0.4888,37.9600,60,97,436892
1.3734,0.5083,37.6800,60,97,436895
1.3392,0.4888,37.9000,60,97,436898
1.3539,0.4839,37.9600,60,97,436902
1.3587,0.4936,37.9600,60,97,436905
1.3587,0.4888,37.9600,60,97,436909
1.4174,0.5034,37.7400,60,97,436913
1.3978,0.4888,37.9000,60,97,436916
1.3978,0.4888,37.8700,60,97,436919
1.4076,0.4888,37.9600,60,97,436922
1.4174,0.4839,37.9900,60,97,436926
1.4516,0.4985,37.7700,60,97,436929
1.4370,0.4888,37.9300,60,97,436932
1.4418,0.4936,37.8300,60,97,436936
1.4418,0.4888,37.9600,60,97,436939
1.4516,0.4888,37.9600,60,97,436942
1.4858,0.4936,37.9900,60,97,436946
1.4809,0.4790,37.9600,60,97,436950
1.5054,0.4985,37.8700,60,97,436953
1.5005,0.4888,37.9300,60,97,436957
1.5152,0.4790,37.9900,60,97,436960
1.5347,0.4888,37.9000,60,97,436963
1.5445,0.4888,38.0800,60,97,436966
1.5787,0.5132,37.7700,60,97,436970
1.5689,0.4888,37.2800,60,97,436973
1.5836,0.4888,37.9600,60,97,436976
1.6129,0.4936,37.8300,60,97,436980
1.6080,0.5034,37.9600,60,97,436983
1.6325,0.4839,37.7100,60,97,436986
1.6129,0.4936,37.8300,60,97,436990
1.6080,0.4888,37.9300,60,97,436994
1.6325,0.4936,37.9000,60,97,436997
1.6276,0.4985,37.9900,60,97,437000
1.6813,0.4985,37.6500,60,97,437004
1.6569,0.4936,37.8300,60,97,437007
1.6520,0.4888,37.9300,60,97,437010
1.6569,0.4888,37.9300,60,97,437014
1.6520,0.4936,37.9600,60,97,437017
1.7058,0.5034,37.7400,60,97,437020
1.6618,0.4985,37.9600,60,97,437024
1.6716,0.4839,37.8700,60,97,437027
1.6764,0.4888,37.9000,60,97,437030
1.6862,0.4888,37.9600,60,97,437035
1.7155,0.4985,37.9300,60,97,437038
1.6911,0.4936,37.9300,60,97,437041
1.6960,0.4936,37.8000,60,97,437044
1.6764,0.4888,37.9600,60,97,437048
1.6813,0.4839,37.9600,60,97,437051
1.7155,0.5181,37.8000,60,97,437054
1.6911,0.4888,37.9600,60,97,437058
1.7204,0.4936,37.9000,60,97,437061
1.7009,0.4888,37.9000,60,97,437064
1.7058,0.4888,37.9900,60,97,437068
1.7253,0.4936,37.9300,60,97,437071
1.6960,0.4888,37.9600,60,97,437074
1.7107,0.4936,37.7400,60,97,437078
1.6764,0.4888,37.8700,60,97,437082
1.6667,0.4839,37.9600,60,97,437085
1.6813,0.4936,37.9000,60,97,437088
1.6764,0.4888,37.9600,60,97,437092
1.7155,0.4985,37.7100,60,97,437095
1.6716,0.4888,37.9300,60,97,437098
1.6764,0.4888,38.0200,60,97,437102
1.6862,0.4888,37.9000,60,97,437105
1.6813,0.4888,37.9600,60,97,437108
1.7351,0.5083,37.6500,60,97,437112
1.7058,0.4936,37.8700,60,97,437115
1.7058,0.4839,37.9000,60,97,437118
1.7058,0.4888,37.9300,60,97,437123
1.7058,0.4888,38.1500,60,97,437126
1.7644,0.5034,37.7400,60,97,437129
1.7155,0.4936,37.9000,60,97,437132
1.7058,0.5083,37.8300,60,97,437136
1.7107,0.4888,37.9600,60,97,437139
1.6813,0.4643,37.9300,60,97,437142
1.7058,0.4936,37.8000,60,97,437146
1.6764,0.4643,37.9600,60,97,437149
1.6960,0.4936,37.8000,60,97,437152
1.6813,0.4888,37.9600,60,97,437156
1.6764,0.4888,37.9600,60,97,437159
1.7009,0.4888,37.9000,60,97,437163
1.6911,0.4839,37.9600,60,97,437166
1.6960,0.4936,37.8300,60,97,437170
1.6813,0.4888,37.9600,60,97,437173
1.6862,0.4888,37.9600,60,97,437176
1.7155,0.4936,37.8300,60,97,437180
1.7058,0.4888,37.9600,60,97,437183
1.7302,0.4936,37.7700,60,97,437186
1.7155,0.4888,37.8300,60,97,437190
1.7107,0.4888,37.9900,60,97,437193
1.7253,0.5181,37.8700,60,97,437196
1.7107,0.4839,37.9600,60,97,437199
1.7498,0.4985,37.6800,60,97,437203
1.7302,0.4888,37.8700,60,97,437207
1.7155,0.4888,37.9600,60,97,437210
1.7253,0.4936,37.9900,60,97,437214
1.7302,0.4888,37.9600,60,97,437217
1.7742,0.5034,37.7700,60,97,437220
1.7302,0.4839,37.9300,60,97,437224
1.7351,0.4839,37.9600,60,97,437227
1.7351,0.4985,37.9600,60,97,437230
1.7400,0.4888,37.9900,60,97,437234
1.7937,0.5034,37.7700,60,97,437237
1.7449,0.4936,37.9300,60,97,437240
1.7400,0.4888,37.8700,60,97,437243
1.7204,0.4888,37.9600,60,97,437248
1.7155,0.4888,37.9600,60,97,437251
1.7889,0.4985,37.7700,60,97,437254
1.7351,0.4936,38.1500,60,97,437258
1.7595,0.4985,37.8000,60,97,437261
1.7449,0.4888,37.9900,60,97,437264
1.7498,0.4888,37.9300,60,97,437268
1.7693,0.4839,37.8300,60,97,437271
1.7498,0.4888,37.5900,60,97,437274
1.7791,0.4985,37.8300,60,97,437278
1.7498,0.4985,37.6800,60,97,437281
1.7400,0.4839,37.9600,60,97,437286
1.7498,0.4839,37.9900,60,97,437289
1.7742,0.4936,37.9300,60,97,437293
1.7791,0.4888,37.9600,60,97,437296
1.8573,0.4985,37.6500,60,97,437300
1.8328,0.4936,37.8700,60,97,437303
1.8280,0.4888,37.9000,60,97,437306
1.8426,0.4936,38.0200,60,97,437310
1.8377,0.4936,37.9600,60,97,437313
1.8915,0.5083,37.7400,60,97,437316
1.8573,0.5181,37.8700,60,97,437320
1.8573,0.4985,37.8700,60,97,437323
1.8573,0.4888,37.9000,60,97,437326
1.8817,0.4936,37.9600,60,97,437330
1.9355,0.4985,37.8000,60,97,437334
1.9208,0.4888,37.9900,60,97,437337
1.9795,0.4936,37.8300,60,97,437340
1.9013,0.4888,37.9600,60,97,437344
1.8915,0.4888,37.9600,60,97,437347
1.8719,0.4888,37.9300,60,97,437350
1.8377,0.4888,37.9600,60,97,437354
1.8475,0.4888,37.8300,60,97,437357
1.8182,0.4936,37.9300,60,97,437360
1.8182,0.4888,37.9600,60,97,437364
1.8426,0.4985,37.8300,60,97,437367
1.8084,0.4888,37.9600,60,97,437370
1.8182,0.4936,37.7400,60,97,437374
1.7742,0.4839,37.8700,60,97,437378
1.7302,0.4888,38.0200,60,97,437381
1.7302,0.4985,37.8700,60,97,437384
1.6862,0.4643,37.9600,60,97,437388
1.7204,0.5230,37.6500,60,97,437391
1.6813,0.4888,37.8700,60,97,437394
1.6716,0.4888,37.9600,60,97,437398
1.6667,0.4839,37.9600,60,97,437401
1.6667,0.4888,37.9900,60,97,437404
1.7155,0.5034,37.7400,60,97,437408
1.6764,0.4936,37.9300,60,97,437411
1.6813,0.4888,37.9000,60,97,437414
1.6862,0.4839,37.9600,60,97,437419
1.6911,0.4888,37.8300,60,97,437422
1.7351,0.4936,37.8000,60,97,437425
1.7058,0.4936,37.9300,60,97,437428
1.7204,0.4888,37.8700,60,97,437432
1.6960,0.4888,37.9600,60,97,437435
1.7058,0.4888,37.9600,60,97,437438
1.7351,0.4985,37.7700,60,97,437442
1.7058,0.4888,37.9300,60,97,437445
1.7351,0.4985,37.8300,60,97,437448
1.7155,0.4888,37.9600,60,97,437452
1.7204,0.4888,37.9900,60,97,437455
1.7546,0.4985,37.8300,60,97,437458
1.7449,0.4839,37.9900,60,97,437462
1.7937,0.4888,37.9000,60,97,437466
1.8084,0.4936,37.9000,60,97,437469
1.8817,0.4888,37.9600,60,97,437472
2.0235,0.4936,37.9000,60,97,437476
2.2385,0.4888,37.9600,60,97,437479
2.6100,0.4936,37.7100,60,97,437482
2.9570,0.4790,37.9600,60,97,437486
3.3627,0.4888,37.9600,60,97,437489
3.6852,0.4936,37.9600,60,97,437492
3.8465,0.4888,37.9300,60,97,437495
4.0176,0.4985,37.6800,60,97,437499
3.8074,0.4936,37.8700,60,97,437502
3.4848,0.4839,37.9600,60,97,437506
3.0792,0.4936,37.9000,60,97,437510
2.5953,0.4936,37.9600,60,97,437513
2.1896,0.5034,37.6800,60,97,437516
1.7546,0.4936,37.8300,60,97,437520
1.4761,0.4888,37.9000,60,97,437523
1.3343,0.4888,37.9600,60,97,437526
1.2854,0.4888,37.8300,60,97,437530
1.3245,0.4936,37.8000,60,97,437533
1.2952,0.4888,37.9300,60,97,437536
1.3294,0.4888,37.8700,60,97,437539
1.3490,0.4839,37.9300,60,97,437543
1.3783,0.4790,37.9900,60,97,437547
1.4272,0.4936,37.9000,60,97,437550
1.4321,0.4888,37.9300,60,97,437554
1.4712,0.4936,37.8000,60,97,437557
1.4712,0.5083,37.9000,60,97,437560
1.4907,0.4985,37.9600,60,97,437564
1.5347,0.4985,37.8300,60,97,437567
1.5200,0.4985,37.9900,60,97,437570
1.5543,0.4985,37.7700,60,97,437573
1.5445,0.4888,37.9000,60,97,437577
1.5494,0.4888,37.9900,60,97,437580
1.5738,0.4936,37.8000,60,97,437583
1.5640,0.4888,37.9600,60,97,437587
1.6031,0.4985,37.8000,60,97,437591
1.5982,0.4936,37.9000,60,97,437594
1.6080,0.4888,37.9600,60,97,437598
1.6276,0.4936,37.9300,60,97,437601
1.6325,0.4888,37.9600,60,97,437604
1.6911,0.5279,37.6800,60,97,437608
1.6618,0.4888,37.9600,60,97,437611
1.6764,0.5083,37.9600,60,97,437614
1.6960,0.4839,37.9300,60,97,437617
1.7009,0.4888,37.9300,60,97,437621
1.7644,0.5132,37.6800,60,97,437624
1.7449,0.4936,37.9000,60,97,437627
1.7498,0.4888,38.0200,60,97,437632
1.7644,0.4888,37.9600,60,97,437635
1.7742,0.4888,37.9600,60,97,437638
1.8280,0.4936,37.7700,60,97,437642
1.8280,0.4936,37.9000,60,97,437645
1.8475,0.4888,37.8300,60,97,437648
1.8426,0.4839,37.9900,60,97,437651
1.8524,0.4839,38.0200,60,97,437655
1.8964,0.4839,37.8000,60,97,437658
1.8719,0.4643,37.9600,60,97,437661
1.9062,0.4936,37.8700,60,97,437665
1.8964,0.4839,37.9600,60,97,437668
1.9013,0.4888,37.9900,60,97,437671
1.9159,0.5083,37.9000,60,97,437676
1.9159,0.4839,37.9600,60,97,437679
1.9550,0.4888,37.9000,60,97,437682
1.9501,0.4839,37.9600,60,97,437686
1.9648,0.4888,38.0800,60,97,437689
2.0088,0.4985,37.8700,60,97,437692
2.0186,0.4888,37.9300,60,97,437695
2.0870,0.4985,37.7400,60,97,437699
2.0919,0.5279,37.8700,60,97,437702
2.1114,0.4839,37.9600,60,97,437705
2.1554,0.5034,37.8700,60,97,437709
2.1554,0.4839,37.9600,60,97,437712
2.2190,0.4985,37.6800,60,97,437715
2.1799,0.4888,37.9000,60,97,437720
2.1896,0.4839,37.9900,60,97,437723
2.2092,0.4888,37.9300,60,97,437726
2.2190,0.4790,37.9600,60,97,437729
2.2972,0.5034,37.6800,60,97,437733
2.2630,0.4888,37.9900,60,97,437736
2.2874,0.4888,37.9000,60,97,437739
2.2776,0.4888,37.9600,60,97,437743
2.2727,0.4936,37.9600,60,97,437746
2.3216,0.5034,37.8000,60,97,437749
2.2483,0.4936,38.0500,60,97,437753
2.2239,0.4888,37.8000,60,97,437756
2.1750,0.4643,37.9900,60,97,437760
2.1359,0.4888,37.8000,60,97,437763
2.1359,0.4936,37.7100,60,97,437767
2.0577,0.4888,37.9300,60,97,437770
2.0235,0.4936,37.8000,60,97,437773
1.9355,0.4936,37.9600,60,97,437777
1.8768,0.4888,37.9900,60,97,437780
1.8328,0.5132,37.8300,60,97,437783
1.7498,0.4936,37.9600,60,97,437787
1.7253,0.4936,37.8300,60,97,437790
1.6471,0.4839,37.9900,60,97,437793
1.6031,0.4888,37.9900,60,97,437796
1.5689,0.4888,37.9000,60,97,437800
1.5249,0.4936,37.9300,60,97,437804
1.5152,0.4936,37.7400,60,97,437807
1.4614,0.4888,37.9600,60,97,437811
1.4370,0.4888,37.9600,60,97,437814
1.4174,0.4936,37.9000,60,97,437817
1.3734,0.4839,37.9600,60,97,437821
1.3978,0.4985,37.8700,60,97,437824
1.3734,0.4985,37.8700,60,97,437827
1.3636,0.4888,37.9600,60,97,437831
1.3881,0.4888,37.9000,60,97,437834
1.3881,0.4888,37.9600,60,97,437837
1.4370,0.5034,37.6800,60,97,437840
1.4125,0.4936,37.8300,60,97,437844
1.4076,0.4839,37.9600,60,97,437848
1.4174,0.5230,37.9600,60,97,437851
1.4565,0.4839,37.9300,60,97,437855
1.4907,0.5034,37.7400,60,97,437858
1.4614,0.4985,37.9300,60,97,437861
1.4761,0.4888,37.8300,60,97,437865
1.4712,0.5034,37.9600,60,97,437868
1.4809,0.4888,37.9900,60,97,437871
1.5152,0.4936,37.8300,60,97,437874
1.5054,0.4839,37.9300,60,97,437878
1.5347,0.4936,38.0200,60,97,437881
1.5249,0.4888,37.9600,60,97,437884
1.5445,0.4888,37.9900,60,97,437889
1.5934,0.4985,37.8000,60,97,437892
1.6276,0.4985,37.8700,60,97,437897
1.6080,0.4888,37.9600,60,97,437900
1.6618,0.4839,37.7100,60,97,437903
1.6276,0.5279,37.8700,60,97,437907
1.6373,0.4888,37.9900,60,97,437910
1.6471,0.4888,37.9000,60,97,437913
1.6569,0.5376,37.9600,60,97,437917
1.7302,0.5034,37.6500,60,97,437920
1.6813,0.4839,37.9000,60,97,437923
1.6911,0.4888,37.9000,60,97,437927
1.6911,0.4888,38.0200,60,97,437931
1.6911,0.4888,37.9600,60,97,437934
1.7449,0.5034,37.6500,60,97,437937
1.7155,0.5034,37.9000,60,97,437941
1.7546,0.4888,37.8700,60,97,437944
1.7155,0.5034,37.9600,60,97,437947
1.7107,0.4888,37.9600,60,97,437951
1.7449,0.4985,37.7100,60,97,437954
1.7204,0.4888,37.9300,60,97,437957
1.7400,0.4936,38.1100,60,97,437961
1.7253,0.4936,37.9900,60,97,437964
1.7351,0.4888,37.9600,60,97,437967
1.7644,0.4985,37.8300,60,97,437971
1.7449,0.4888,37.9600,60,97,437975
1.7693,0.4888,37.7400,60,97,437978
1.7693,0.4839,37.9000,60,97,437981
1.7351,0.4888,37.9600,60,97,437985
1.7449,0.5034,37.8700,60,97,437988
1.7498,0.4888,37.9600,60,97,437991
1.7791,0.4985,37.0100,60,97,437995
1.7498,0.4888,37.9600,60,97,437998
1.7546,0.5230,37.8700,60,97,438001
1.8035,0.4985,37.9000,60,97,438005
1.7498,0.4888,37.9900,60,97,438008
1.7889,0.4936,37.6800,60,97,438011
1.7449,0.4936,37.8700,60,97,438014
1.7351,0.4888,37.9000,60,97,438019
1.7351,0.4936,37.9300,60,97,438022
1.7155,0.4888,37.9600,60,97,438025
1.7840,0.5132,37.6800,60,97,438029
1.7498,0.4985,37.5900,60,97,438032
1.7498,0.4985,37.9000,60,97,438035
1.7449,0.4888,37.9600,60,97,438039
1.7351,0.4888,37.9900,60,97,438042
1.7693,0.4985,37.8000,60,97,438045
1.7155,0.4888,37.8700,60,97,438049
1.7351,0.4839,37.8300,60,97,438052
1.7253,0.4888,37.9600,60,97,438055
1.7400,0.4888,37.9600,60,97,438059
1.7644,0.4888,37.9300,60,97,438063
1.7498,0.4888,37.9900,60,97,438066
1.7693,0.4985,37.8300,60,97,438069
1.7449,0.4936,37.9600,60,97,438073
1.7449,0.4888,37.9600,60,97,438076
1.7791,0.4985,37.8300,60,97,438079
1.7449,0.4888,37.9600,60,97,438083
1.7791,0.4936,37.7700,60,97,438086
1.7742,0.4888,37.8700,60,97,438089
1.7644,0.4888,37.9600,60,97,438093
1.7791,0.4839,37.8300,60,97,438096
1.7693,0.4888,37.9600,60,97,438099
1.7986,0.4985,37.1600,60,97,438103
1.7693,0.4888,37.9000,60,97,438107
1.7498,0.4888,38.0200,60,97,438110
1.7498,0.4985,37.9300,60,97,438113
1.7400,0.4888,37.9900,60,97,438117
1.7840,0.5034,37.6800,60,97,438120
1.7400,0.4888,37.9000,60,97,438123
1.7595,0.4839,37.9600,60,97,438127
1.7644,0.4888,38.1500,60,97,438130
1.7693,0.4839,37.9600,60,97,438133
1.8328,0.5034,37.3700,60,97,438137
1.8035,0.4936,37.9000,60,97,438140
1.8133,0.4839,37.8700,60,97,438144
1.7986,0.4936,37.9600,60,97,438147
1.7889,0.4888,37.9600,60,97,438151
1.8182,0.4985,37.7400,60,97,438154
1.7791,0.4936,37.9300,60,97,438157
1.7840,0.4936,37.8300,60,97,438161
1.7595,0.4888,37.9600,60,97,438164
1.7644,0.4888,37.9600,60,97,438167
1.8035,0.4936,37.8300,60,97,438171
1.7595,0.4888,37.9600,60,97,438174
1.7889,0.4985,37.8300,60,97,438177
1.7546,0.4888,37.9600,60,97,438180
1.7644,0.4888,38.0200,60,97,438184
1.7791,0.4985,37.9000,60,97,438188
1.7791,0.4888,37.9600,60,97,438191
1.8035,0.4936,37.7700,60,97,438195
1.7742,0.4888,37.9600,60,97,438198
1.7693,0.4888,37.9900,60,97,438201
1.7742,0.4839,37.9000,60,97,438205
1.7595,0.4839,37.9600,60,97,438208
1.8426,0.5034,37.6800,60,97,438211
1.7937,0.4936,37.8700,60,97,438215
1.7791,0.4888,37.9600,60,97,438218
1.7889,0.4936,37.9000,60,97,438221
1.7644,0.4888,38.0200,60,97,438224
1.8133,0.4936,37.6500,60,97,438228
1.7791,0.4936,37.8300,60,97,438232
1.7644,0.4888,37.9000,60,97,438235
1.7742,0.4888,37.9600,60,97,438239
1.7742,0.4888,37.9600,60,97,438242
1.8231,0.4839,37.7700,60,97,438245
1.7840,0.4888,37.9900,60,97,438249
1.7937,0.4888,37.8700,60,97,438252
1.7791,0.4888,37.8300,60,97,438255
1.7791,0.4888,37.9600,60,97,438259
1.8084,0.4985,37.8700,60,97,438262
1.8084,0.4985,37.9600,60,97,438265
1.8133,0.4936,37.8000,60,97,438268
1.7889,0.4985,37.9600,60,97,438273
1.8035,0.4839,37.9600,60,97,438276
1.8573,0.4985,37.8300,60,97,438279
1.8475,0.4839,37.9300,60,97,438283
1.8817,0.4888,37.9900,60,97,438286
1.8524,0.4888,37.8700,60,97,438289
1.8573,0.4888,37.9600,60,97,438293
1.8866,0.4985,37.6800,60,97,438296
1.8817,0.4839,37.9600,60,97,438299
1.9453,0.4936,37.7100,60,97,438303
1.9453,0.4936,37.9000,60,97,438306
1.9453,0.4888,38.0200,60,97,438309
1.9501,0.4888,37.9000,60,97,438312
1.9159,0.4839,37.9600,60,97,438317
1.9404,0.4985,37.8000,60,97,438320
1.8671,0.4888,37.9300,60,97,438323
1.8475,0.4888,37.7400,60,97,438327
1.8377,0.4888,37.9300,60,97,438330
1.8231,0.4888,37.9600,60,97,438333
1.8671,0.5034,37.7100,60,97,438337
1.8328,0.4936,37.9900,60,97,438340
1.8231,0.4936,37.9000,60,97,438343
1.8133,0.4888,37.9600,60,97,438347
1.7937,0.5132,37.9900,60,97,438350
1.8035,0.4839,37.7700,60,97,438353
1.7595,0.5034,37.9000,60,97,438356
1.7449,0.4936,37.8300,60,97,438361
1.7155,0.4888,37.9600,60,97,438364
1.7009,0.4888,37.9600,60,97,438367
1.7546,0.4839,37.8000,60,97,438371
1.6862,0.4888,37.9600,60,97,438374
1.7107,0.4936,37.9300,60,97,438377
1.6862,0.4839,37.9600,60,97,438381
1.6960,0.4888,37.9900,60,97,438384
1.7302,0.4985,37.9000,60,97,438387
1.6862,0.4888,37.9600,60,97,438390
1.7058,0.4888,37.8700,60,97,438394
1.6813,0.4888,37.9600,60,97,438397
1.6862,0.4888,37.2200,60,97,438401
1.7302,0.4936,37.9300,60,97,438405
1.7058,0.4985,37.9900,60,97,438408
1.7546,0.4985,37.7100,60,97,438411
1.7302,0.4936,37.8300,60,97,438415
1.7155,0.4790,37.9600,60,97,438418
1.7253,0.4936,37.1600,60,97,438421
1.7009,0.4936,37.9300,60,97,438425
1.7400,0.4985,37.6500,60,97,438428
1.7058,0.5083,37.8700,60,97,438431
1.7058,0.4888,38.0500,60,97,438434
1.7253,0.4888,37.9300,60,97,438438
1.7644,0.4888,38.0500,60,97,438441
1.8817,0.5132,37.6800,60,97,438445
1.9306,0.4936,37.8000,60,97,438449
2.0919,0.5181,37.9000,60,97,438452
2.3460,0.4936,37.9600,60,97,438455
2.6979,0.4888,37.9900,60,97,438459
3.1672,0.4985,37.8000,60,97,438462
3.5191,0.4936,37.9300,60,97,438465
3.8319,0.4936,37.8700,60,97,438468
3.9589,0.4888,37.9600,60,97,438472
3.9736,0.4888,38.0800,60,97,438475
3.8416,0.5034,37.7700,60,97,438478
3.4409,0.4888,37.9300,60,97,438482
3.0450,0.4985,37.8000,60,97,438486
2.5220,0.4888,37.8700,60,97,438489
2.0626,0.4888,37.9900,60,97,438493
1.7107,0.4936,37.8700,60,97,438496
1.4516,0.4888,37.9600,60,97,438499
1.3587,0.4839,37.8000,60,97,438502
1.2903,0.4936,37.7100,60,97,438506
1.3636,0.4888,37.9300,60,97,438510
1.3978,0.4936,37.9900,60,97,438514
1.4272,0.4936,37.9600,60,97,438517
1.4418,0.4888,37.9600,60,97,438520
1.5054,0.4839,37.6500,60,97,438524
1.4858,0.4936,37.9300,60,97,438528
1.4761,0.4985,37.9000,60,97,438531
1.4809,0.4888,37.9900,60,97,438535
1.4809,0.4888,38.0500,60,97,438538
1.5347,0.5034,37.7400,60,97,438541
1.5298,0.4936,37.8700,60,97,438545
1.5396,0.4888,37.9000,60,97,438548
1.5689,0.4888,37.9600,60,97,438551
1.5640,0.4888,38.0200,60,97,438554
1.6031,0.4985,37.7700,60,97,438558
1.5836,0.4839,37.9300,60,97,438561
1.6276,0.4936,37.9600,60,97,438564
1.6227,0.4790,37.9600,60,97,438568
1.6422,0.4888,37.9900,60,97,438572
1.6667,0.4936,37.9000,60,97,438575
1.6764,0.4888,37.9600,60,97,438579
1.7058,0.4985,37.8700,60,97,438582
1.6911,0.4839,37.9600,60,97,438585
1.7058,0.4888,37.9600,60,97,438588
1.7498,0.4936,37.9300,60,97,438592
1.7498,0.4839,37.9300,60,97,438595
1.7889,0.4936,37.7100,60,97,438598
1.7889,0.4888,37.8700,60,97,438602
1.7986,0.4888,37.9600,60,97,438605
1.8573,0.4936,37.8700,60,97,438608
1.8231,0.4888,37.9600,60,97,438612
1.8719,0.5034,37.6800,60,97,438616
1.8475,0.4888,37.8700,60,97,438619
1.8377,0.4888,38.0500,60,97,438623
1.8475,0.4985,37.9300,60,97,438626
1.8573,0.4839,37.9600,60,97,438629
1.9062,0.5034,37.7400,60,97,438632
1.8915,0.4839,37.9000,60,97,438636
1.8964,0.4839,37.9300,60,97,438639
1.9306,0.4985,37.9300,60,97,438642
1.9501,0.4888,37.9600,60,97,438646
2.0332,0.4985,37.7400,60,97,438649
2.0039,0.4936,37.9300,60,97,438652
2.0186,0.4888,37.8700,60,97,438657
2.0381,0.4936,37.9600,60,97,438660
2.0479,0.4888,37.9600,60,97,438663
2.1114,0.4985,37.7400,60,97,438666
2.1163,0.4888,37.9300,60,97,438670
2.1457,0.4936,37.8300,60,97,438673
2.1652,0.4888,37.9600,60,97,438676
2.1652,0.4888,37.9600,60,97,438680
2.2092,0.5083,37.8700,60,97,438683
2.1994,0.4790,37.9600,60,97,438686
2.2581,0.4936,37.8300,60,97,438690
2.2385,0.4888,37.9000,60,97,438693
2.2874,0.4888,37.9600,60,97,438696
2.2923,0.4936,37.9300,60,97,438700
2.2972,0.4888,37.9900,60,97,438704
2.3363,0.4985,37.7400,60,97,438707
2.2923,0.4888,37.9300,60,97,438710
2.2825,0.4839,37.9600,60,97,438714
2.2630,0.4936,37.9000,60,97,438717
2.2092,0.4839,37.9600,60,97,438720
2.2239,0.4985,37.6800,60,97,438724
2.1603,0.5181,37.8700,60,97,438727
2.1017,0.4839,37.9600,60,97,438730
2.0577,0.4936,37.8000,60,97,438734
1.9795,0.4839,37.9600,60,97,438737
1.9697,0.4839,37.6500,60,97,438740
1.8622,0.4936,37.8700,60,97,438744
1.7889,0.4888,37.9000,60,97,438748
1.7400,0.4888,37.9600,60,97,438751
1.6764,0.4888,37.9900,60,97,438754
1.6764,0.5083,37.7700,60,97,438758
1.5885,0.4888,37.9000,60,97,438761
1.5494,0.4888,37.9000,60,97,438764
1.5103,0.4936,37.9900,60,97,438768
1.4761,0.4888,37.8300,60,97,438771
1.5054,0.4839,37.8300,60,97,438774
1.4223,0.4936,37.9600,60,97,438777
1.4125,0.4936,37.8000,60,97,438781
1.3783,0.4888,37.9600,60,97,438785
1.3685,0.4888,38.0200,60,97,438788
1.3881,0.5034,37.8000,60,97,438792
1.3685,0.4888,38.1500,60,97,438795
1.3930,0.4888,37.6200,60,97,438798
1.3734,0.4839,37.9300,60,97,438802
1.3881,0.5181,38.0500,60,97,438805
1.4076,0.4936,37.8300,60,97,438808
1.3978,0.4888,37.8700,60,97,438812
1.4321,0.4888,37.7700,60,97,438815
1.4272,0.5230,38.0800,60,97,438818
1.4370,0.4985,37.9600,60,97,438821
1.4565,0.4936,37.9000,60,97,438825
1.4614,0.4888,38.0500,60,97,438829
1.5005,0.4985,37.7100,60,97,438832
1.4663,0.4790,37.9900,60,97,438836
1.4761,0.4888,37.9300,60,97,438839
1.5152,0.4985,37.9000,60,97,438842
1.4858,0.4888,38.0200,60,97,438846
1.5347,0.5132,37.6800,60,97,438849
1.5249,0.4839,37.8000,60,97,438852
1.5249,0.4839,38.2700,60,97,438855
1.5543,0.4839,37.9300,60,97,438859
1.5640,0.4888,38.0200,60,97,438862
1.6276,0.5279,37.8000,60,97,438865
1.5982,0.4936,37.9000,60,97,438870
1.6031,0.4888,37.8300,60,97,438873
1.6373,0.4839,37.9600,60,97,438876
1.6129,0.4888,37.9900,60,97,438880
1.6520,0.4985,37.8700,60,97,438883
1.6422,0.4888,37.9600,60,97,438886
1.6667,0.4936,37.7700,60,97,438890
1.6520,0.4985,37.9600,60,97,438893
1.6471,0.4888,38.1800,60,97,438896
1.6667,0.4888,37.9000,60,97,438899
1.6667,0.4888,37.9600,60,97,438903
1.6960,0.4936,37.8300,60,97,438906
1.6716,0.4888,37.9600,60,97,438909
1.6764,0.4888,37.9600,60,97,438914
1.7107,0.4985,37.8300,60,97,438917
1.6764,0.5132,37.9600,60,97,438920
1.7204,0.4936,37.7700,60,97,438924
1.7058,0.4888,37.9000,60,97,438927
1.7058,0.5034,37.9900,60,97,438930
1.7302,0.4985,37.8700,60,97,438934
1.7058,0.4888,37.9300,60,97,438937
1.7546,0.4936,37.6800,60,97,438940
1.7302,0.4888,37.8700,60,97,438943
1.7253,0.4888,37.9600,60,97,438947
1.7351,0.4936,37.9300,60,97,438950
1.7302,0.4888,37.9600,60,97,438953
1.7791,0.4936,37.6800,60,97,438958
1.7351,0.4936,37.9000,60,97,438961
1.7302,0.4839,37.9000,60,97,438964
1.7351,0.4888,37.9300,60,97,438968
1.7253,0.4888,37.9600,60,97,438971
1.7693,0.5034,37.8000,60,97,438974
1.7302,0.4936,37.9600,60,97,438977
1.7302,0.4936,37.8700,60,97,438981
1.7253,0.4888,38.0200,60,97,438984
1.7351,0.4936,37.9900,60,97,438987
1.7791,0.4985,37.7700,60,97,438991
1.7546,0.4888,37.9300,60,97,438994
1.7889,0.4936,37.8300,60,97,438998
1.7644,0.4936,37.9600,60,97,439002
1.7889,0.4888,37.9600,60,97,439005
1.7644,0.4936,37.8700,60,97,439008
1.7595,0.4888,37.9600,60,97,439012
1.7449,0.4839,37.8000,60,97,439015
1.7107,0.4888,37.9600,60,97,439018
1.7155,0.4839,37.9300,60,97,439021
1.7400,0.4888,37.9000,60,97,439025
1.7400,0.5083,37.9600,60,97,439028
1.7840,0.4888,37.7400,60,97,439031
1.7449,0.4888,37.9600,60,97,439035
1.7595,0.4888,37.9600,60,97,439038
1.7644,0.4985,37.9600,60,97,439042
1.7644,0.4839,37.9600,60,97,439046
1.7840,0.4985,37.6800,60,97,439049
1.7546,0.5230,37.9000,60,97,439052
1.7546,0.4888,37.9600,60,97,439056
1.7498,0.4936,37.9000,60,97,439059
1.7400,0.4936,37.9900,60,97,439062
1.7889,0.5034,37.6800,60,97,439065
1.7400,0.4936,37.9000,60,97,439069
1.7204,0.4888,37.9000,60,97,439072
1.7204,0.4888,37.9300,60,97,439075
1.7204,0.4888,37.7100,60,97,439079
1.7644,0.5132,37.7700,60,97,439083
1.7351,0.4888,37.9000,60,97,439086
1.7546,0.4985,37.8300,60,97,439090
1.7449,0.4839,37.9600,60,97,439093
1.7449,0.4936,37.9600,60,97,439096
1.7791,0.4985,37.9000,60,97,439099
1.7644,0.4985,37.9300,60,97,439103
1.7791,0.4936,37.8000,60,97,439106
1.7693,0.4888,37.9600,60,97,439109
1.7644,0.4888,37.9600,60,97,439113
1.7889,0.4985,37.8300,61,97,439116
1.7742,0.4985,37.9000,61,97,439121
1.7449,0.4888,37.9900,61,97,439124
1.7840,0.4985,37.7100,61,97,439128
1.7693,0.4839,37.9000,61,97,439132
1.7449,0.4643,37.9900,61,97,439135
1.7546,0.4985,37.9300,61,97,439138
1.7644,0.4888,38.0200,61,97,439142
1.8133,0.5034,37.6800,61,97,439145
1.7693,0.4888,37.9000,61,97,439148
1.7693,0.4888,37.5900,61,97,439151
1.7693,0.4936,37.9600,61,97,439155
1.7693,0.4888,37.9300,61,97,439158
1.8231,0.5034,37.8000,61,97,439161
1.7791,0.4936,37.9000,61,97,439165
1.7937,0.4985,37.8000,61,97,439169
1.7791,0.4839,37.9600,61,97,439172
1.7742,0.4888,37.9600,61,97,439176
1.8133,0.4985,37.7700,61,97,439179
1.7889,0.4888,37.9300,61,97,439182
1.8133,0.4936,37.8000,61,97,439186
1.8035,0.4888,37.9600,61,97,439189
1.7840,0.4888,37.9900,61,97,439192
1.7937,0.5083,37.8300,61,97,439195
1.7791,0.4888,37.9900,61,97,439199
1.8084,0.4888,37.8000,61,97,439202
1.7840,0.5132,37.9300,61,97,439205
1.7889,0.4888,37.9600,61,97,439209
1.7986,0.4888,37.9000,61,97,439213
1.7889,0.4888,37.9900,61,97,439216
1.8182,0.4936,37.7400,61,97,439220
1.7791,0.4839,37.9600,61,97,439223
1.7840,0.4888,37.9600,61,97,439226
1.8084,0.4936,37.9000,61,97,439229
1.7937,0.4936,37.9600,61,97,439233
1.8768,0.4985,37.6800,61,97,439236
1.8280,0.4936,38.1100,61,97,439239
1.8231,0.4985,37.9600,61,97,439243
1.8426,0.4936,37.9300,61,97,439246
1.8426,0.4888,37.9900,61,97,439249
1.9013,0.5034,37.7100,61,97,439254
1.8671,0.4936,37.8300,61,97,439257
1.8671,0.4888,37.9300,61,97,439260
1.8719,0.5083,37.9600,61,97,439264
1.8768,0.4888,37.9600,61,97,439267
1.9501,0.5034,38.0500,61,97,439270
1.9355,0.5132,37.9300,61,97,439273
1.9795,0.4839,37.8300,61,97,439277
1.9697,0.4888,37.8700,61,97,439280
1.9697,0.4888,37.9600,61,97,439283
1.9697,0.4985,37.9000,61,97,439287
1.9257,0.4888,37.9600,61,97,439290
1.9159,0.4936,37.8300,61,97,439293
1.8622,0.4936,37.9600,61,97,439298
1.8328,0.4888,37.9600,61,97,439301
1.8475,0.5230,37.8300,61,97,439304
1.8035,0.4888,38.0200,61,97,439308
1.8182,0.4888,37.8700,61,97,439311
1.7889,0.4888,37.8700,61,97,439314
1.7693,0.4888,37.9900,61,97,439317
1.7693,0.4839,37.8300,61,97,439321
1.7449,0.4888,37.9300,61,97,439324
1.7742,0.5034,37.7100,61,97,439327
1.7351,0.4888,37.9600,61,97,439331
1.7302,0.4936,37.9300,61,97,439334
1.7351,0.4839,37.9300,61,97,439337
1.7155,0.4888,37.8700,61,97,439342
1.7840,0.5034,37.6800,61,97,439345
1.7058,0.4888,37.9300,61,97,439348
1.7058,0.4839,38.0200,61,97,439351
1.7107,0.4985,37.9300,61,97,439355
1.7058,0.4888,38.0500,61,97,439358
1.7595,0.5132,37.7100,61,97,439361
1.7253,0.4936,37.9300,61,97,439365
1.7351,0.4888,37.9000,61,97,439368
1.7351,0.4888,37.9600,61,97,439371
1.7351,0.4888,37.9300,61,97,439375
1.7742,0.4936,37.7700,61,97,439378
1.7253,0.4888,37.9300,61,97,439382
1.7302,0.4839,37.8300,61,97,439386
1.7155,0.4888,38.1800,61,97,439389
1.7546,0.4888,37.9600,61,97,439392
1.7546,0.4936,37.9000,61,97,439395
1.7400,0.4888,37.9900,61,97,439399
1.7742,0.4985,37.8300,61,97,439402
1.7693,0.4839,37.9600,61,97,439405
1.8035,0.4888,37.9600,61,97,439409
1.8817,0.4839,37.9300,61,97,439412
1.9306,0.4888,37.9600,61,97,439415
2.0772,0.4936,37.7700,61,97,439419
2.2532,0.4888,37.9600,61,97,439422
2.5513,0.4839,37.9000,61,97,439426
2.9717,0.4985,37.8700,61,97,439429
3.3284,0.4888,37.9900,61,97,439433
3.6901,0.4839,37.7100,61,97,439436
3.8270,0.4936,37.8700,61,97,439439
3.8465,0.4888,37.9300,61,97,439443
3.7586,0.4936,37.9300,61,97,439446
3.4555,0.4888,37.9900,61,97,439449
3.1574,0.5034,37.6200,61,97,439453
2.6540,0.4888,38.0200,61,97,439456
2.2043,0.5132,37.9000,61,97,439459
1.8377,0.4839,37.9300,61,97,439463
1.5494,0.4888,37.9900,61,97,439467
1.4370,0.5132,37.7100,61,97,439470
1.3343,0.4936,37.9300,61,97,439473
1.3196,0.4985,37.8700,61,97,439477
1.3050,0.4888,37.9600,61,97,439480
1.3392,0.4790,38.0500,61,97,439483
1.3930,0.4985,37.8700,61,97,439487
1.3978,0.4888,37.9300,61,97,439490
1.4370,0.4936,37.8300,61,97,439493
1.4467,0.4888,38.0200,61,97,439497
1.4761,0.5083,37.9900,61,97,439500
1.5298,0.4985,37.8000,61,97,439503
1.5249,0.5034,37.9600,61,97,439507
1.5738,0.4985,37.8700,61,97,439511
1.5396,0.4839,37.9300,61,97,439514
1.5494,0.5083,38.0500,61,97,439517
1.5640,0.4888,37.8700,61,97,439521
1.5640,0.4888,38.1800,61,97,439524
1.5982,0.4888,37.7700,61,97,439527
1.5934,0.4888,37.9600,61,97,439531
1.6129,0.4888,37.9600,61,97,439534
1.6422,0.4936,37.9000,61,97,439537
1.6471,0.4888,37.9600,61,97,439541
1.6960,0.4888,37.7100,61,97,439544
1.6716,0.4839,37.9000,61,97,439547
1.6911,0.4839,37.9600,61,97,439552
1.7058,0.4936,37.9300,61,97,439555
1.7058,0.4985,37.9600,61,97,439558
1.7595,0.5083,37.6500,61,97,439561
1.7351,0.4936,37.9300,61,97,439565
1.7351,0.5230,37.9300,61,97,439568
1.7595,0.4888,38.0800,61,97,439571
1.7693,0.4888,37.9300,61,97,439575
1.8328,0.5034,37.7700,61,97,439578
1.7986,0.4936,37.9000,61,97,439581
1.8182,0.4839,37.9000,61,97,439585
1.8084,0.4888,37.9300,61,97,439588
1.8280,0.4985,37.9000,61,97,439591
1.8866,0.4936,37.8700,61,97,439595
1.8817,0.4888,37.9300,61,97,439599
1.9013,0.4936,37.8700,61,97,439602
1.8671,0.4888,37.9900,61,97,439605
1.8817,0.4985,37.9600,61,97,439609
1.9110,0.4643,37.9000,61,97,439612
1.9110,0.4888,38.1500,61,97,439615
1.9648,0.4985,37.8300,61,97,439619
1.9550,0.4888,37.9300,61,97,439622
2.0088,0.4888,37.9600,61,97,439625
2.0137,0.4936,37.9000,61,97,439629
1.9892,0.4839,37.9900,61,97,439632
2.0235,0.4936,37.7400,61,97,439635
2.0235,0.4888,37.8700,61,97,439639
2.0381,0.4888,37.9900,61,97,439643
2.0772,0.4985,37.9000,61,97,439646
2.0870,0.4888,38.0200,61,97,439649
2.1554,0.5034,37.6500,61,97,439653
2.1310,0.4888,37.9000,61,97,439656
2.1554,0.4888,37.9900,61,97,439659
2.1848,0.4936,37.9000,61,97,439663
2.1994,0.4839,37.9900,61,97,439666
2.2727,0.5034,37.6500,61,97,439669
2.2336,0.4936,37.9300,61,97,439672
2.2434,0.4839,37.9300,61,97,439676
2.2532,0.4888,37.9600,61,97,439680
2.2581,0.4888,37.9600,61,97,439683
2.3265,0.5279,37.7700,61,97,439687
2.2727,0.4839,37.9300,61,97,439690
2.2630,0.4888,37.8300,61,97,439693
2.2385,0.4888,37.9900,61,97,439697
2.2141,0.4888,37.9600,61,97,439700
2.2287,0.4936,37.7700,61,97,439703
2.1652,0.4888,38.0800,61,97,439707
2.1554,0.4936,37.8000,61,97,439710
2.0919,0.4839,37.9600,61,97,439713
2.0430,0.4888,37.9900,61,97,439716
2.0039,0.4936,37.9000,61,97,439720
1.9159,0.4936,37.7100,61,97,439724
1.8817,0.4985,37.8300,61,97,439727
1.7986,0.4888,37.7100,61,97,439731
1.5640,0.4839,37.9300,61,97,439735
1.5298,0.4888,37.9600,61,97,439739
1.5200,0.4936,37.7700,61,97,439742
1.4907,0.4839,37.9900,61,97,439745
1.5005,0.4985,37.8000,61,97,439749
1.4565,0.4936,37.8300,61,97,439752
1.4272,0.4839,37.9600,61,97,439755
1.4223,0.4936,37.9300,61,97,439758
1.4125,0.4888,37.9600,61,97,439762
1.4614,0.5034,37.7400,61,97,439766
1.4321,0.4985,37.9000,61,97,439769
1.4223,0.4888,37.8700,61,97,439773
1.4418,0.5132,37.9300,61,97,439776
1.4467,0.4888,37.9900,61,97,439779
1.4809,0.4985,37.7700,61,97,439783
1.4761,0.4888,37.9300,61,97,439786
1.4956,0.4936,37.8300,61,97,439789
1.4858,0.4888,37.9600,61,97,439793
1.4956,0.4888,38.0200,61,97,439796
1.5249,0.4985,37.9000,61,97,439799
1.5249,0.4888,37.9600,61,97,439802
1.5640,0.4985,37.8000,61,97,439806
1.5543,0.4839,37.9600,61,97,439810
1.5738,0.4888,37.9900,61,97,439813
1.6276,0.4985,37.8000,61,97,439817
1.5934,0.4888,37.9900,61,97,439820
1.6178,0.5279,37.8000,61,97,439823
1.6080,0.4888,37.9300,61,97,439827
1.6227,0.4888,38.0500,61,97,439830
1.6618,0.4936,37.8700,61,97,439833
1.6422,0.4888,37.9600,61,97,439837
1.6911,0.4985,37.7400,61,97,439840
1.6667,0.4839,37.9300,61,97,439843
1.6667,0.4888,37.9600,61,97,439846
1.6911,0.4888,37.9300,61,97,439851
1.6667,0.4888,37.9900,61,97,439854
1.7204,0.4985,37.6500,61,97,439857
1.6911,0.4643,37.9300,61,97,439861
1.7058,0.4985,37.9000,61,97,439864
1.7155,0.4936,37.9300,61,97,439867
1.7204,0.4888,37.9900,61,97,439871
1.7791,0.5034,37.8000,61,97,439874
1.7449,0.4936,37.9300,61,97,439877
1.7498,0.4888,37.8000,61,97,439880
1.7449,0.4888,37.9900,61,97,439884
1.7449,0.4888,37.9900,61,97,439887
1.7840,0.4985,37.8000,61,97,439890
1.7693,0.4839,37.9300,61,97,439895
1.7889,0.4985,37.8300,61,97,439898
1.7693,0.4839,37.9600,61,97,439901
1.7595,0.4888,37.7100,61,97,439905
1.7595,0.4888,37.9000,61,97,439908
1.7351,0.4936,37.9600,61,97,439911
1.7644,0.4985,37.8000,61,97,439915
1.7302,0.4888,37.9900,61,97,439918
1.7449,0.4888,38.0800,61,97,439921
1.7546,0.4936,37.9300,61,97,439924
1.7546,0.4888,37.9600,61,97,439928
1.7791,0.4936,37.7100,61,97,439931
1.7546,0.4888,37.9600,61,97,439934
1.7595,0.4888,37.9600,61,97,439939
1.7889,0.4985,37.9000,61,97,439942
1.7498,0.4888,37.9000,61,97,439945
1.7840,0.4936,37.6800,61,97,439949
1.7498,0.4936,37.8300,61,97,439952
1.7449,0.4888,38.0500,61,97,439955
1.7644,0.4936,37.9300,61,97,439959
1.7595,0.4888,38.0500,61,97,439962
1.8133,0.5034,37.6500,61,97,439965
1.7693,0.4888,37.8300,61,97,439968
1.7546,0.4839,37.9000,61,97,439972
1.7498,0.4888,37.9600,61,97,439975
1.7302,0.4888,37.9900,61,97,439979
1.7742,0.5327,37.8000,61,97,439983
1.7351,0.4888,37.9300,61,97,439986
1.7498,0.4888,37.8700,61,97,439989
1.7449,0.4839,37.9600,61,97,439993
1.7449,0.4888,37.9600,61,97,439996
1.7840,0.4936,37.9000,61,97,439999
1.7693,0.4888,38.0500,61,97,440002
1.7937,0.4936,37.8000,61,97,440006
1.7693,0.4839,37.9900,61,97,440009
1.7644,0.4643,37.9600,61,97,440012
1.7889,0.4985,37.8000,61,97,440016
1.7595,0.4888,37.9600,61,97,440019
1.7889,0.4936,37.7700,61,97,440023
1.7644,0.4839,37.9000,61,97,440027
1.7546,0.4888,38.0200,61,97,440030
1.7595,0.4936,37.8300,61,97,440033
1.7498,0.4888,37.9900,61,97,440037
1.7840,0.4936,37.7100,61,97,440040
1.7937,0.4839,37.9300,61,97,440043
1.7595,0.4888,37.9600,61,97,440046
1.7693,0.4936,37.9000,61,97,440050
1.7595,0.4888,37.9600,61,97,440053
1.7986,0.4985,37.6200,61,97,440056
1.7546,0.4888,37.9300,61,97,440060
1.7546,0.4888,38.0200,61,97,440064
1.7595,0.4888,37.9300,61,97,440067
1.7449,0.4888,37.4000,61,97,440071
1.7986,0.5132,37.6500,61,97,440074
1.7693,0.4839,37.9300,61,97,440077
1.7644,0.4839,37.9600,61,97,440080
1.7840,0.4839,37.9300,61,97,440084
1.7840,0.4888,38.0500,61,97,440087
1.8328,0.5230,37.7100,61,97,440090
1.7986,0.4936,37.9000,61,97,440094
1.7986,0.4888,37.9300,61,97,440097
1.7889,0.4839,37.9600,61,97,440100
1.7889,0.4888,37.9600,61,97,440104
1.8182,0.4985,37.8300,61,97,440108
1.7840,0.4839,37.9600,61,97,440111
1.7889,0.4936,37.9300,61,97,440115
1.7937,0.4888,37.9600,61,97,440118
1.7644,0.4888,38.2100,61,97,440121
1.7840,0.4888,37.9000,61,97,440124
1.7889,0.4839,37.9600,61,97,440128
1.8133,0.4888,37.8700,61,97,440131
1.7791,0.4839,37.9600,61,97,440134
1.7791,0.4888,38.0200,61,97,440138
1.8035,0.4985,37.8700,61,97,440141
1.7889,0.4888,37.9600,61,97,440144
1.8328,0.5132,37.7400,61,97,440148
1.8328,0.4936,37.8700,61,97,440152
1.8377,0.4888,38.1100,61,97,440155
1.8768,0.4936,37.9300,61,97,440159
1.8719,0.4888,37.2800,61,97,440162
1.9257,0.4985,37.6800,61,97,440165
1.8768,0.5327,37.8700,61,97,440168
1.8817,0.4936,37.9600,61,97,440172
1.9062,0.4888,37.9900,61,97,440175
1.9257,0.4839,37.9600,61,97,440178
2.0088,0.5034,37.7100,61,97,440182
1.9697,0.4936,37.9900,61,97,440185
1.9550,0.5132,37.9000,61,97,440188
1.9208,0.4888,37.9600,61,97,440193
1.8817,0.4888,38.0200,61,97,440196
1.9208,0.4985,37.8000,61,97,440199
1.8377,0.4936,37.9300,61,97,440202
1.8377,0.4936,37.3400,61,97,440206
1.8231,0.4888,37.9600,61,97,440209
1.8231,0.4888,37.9900,61,97,440212
1.8768,0.4936,37.8000,61,97,440216
1.8035,0.4888,38.0500,61,97,440219
1.7986,0.5034,37.8300,61,97,440222
1.7498,0.4888,37.9600,61,97,440226
1.7302,0.4888,37.1900,61,97,440229
1.7351,0.4888,37.8700,61,97,440232
1.7155,0.4888,37.9900,61,97,440237
1.7351,0.5132,37.8000,61,97,440240
1.6960,0.4888,37.9600,61,97,440243
1.6862,0.4888,37.9600,61,97,440246
1.6862,0.4839,37.9300,61,97,440250
1.6813,0.4888,38.0500,61,97,440253
1.7204,0.4985,37.7100,61,97,440256
1.6862,0.4888,37.9600,61,97,440260
1.6960,0.4888,38.0500,61,97,440263
1.7058,0.4985,37.8700,61,97,440266
1.6764,0.4888,37.8300,61,97,440270
1.7204,0.4936,37.6800,61,97,440273
1.7009,0.4936,37.9300,61,97,440276
1.6911,0.4888,38.0500,61,97,440280
1.7204,0.4985,37.9300,61,97,440284
1.6960,0.4888,37.9900,61,97,440287
1.7498,0.5132,37.7100,61,97,440290
1.7204,0.4936,37.2800,61,97,440294
1.7253,0.5181,37.8700,61,97,440297
1.7351,0.4888,37.9600,61,97,440300
1.7302,0.4888,37.9600,61,97,440304
1.7644,0.4985,37.8000,61,97,440307
1.7302,0.4888,37.9600,61,97,440310
1.7693,0.5279,37.8700,61,97,440314
1.7937,0.4888,37.9600,61,97,440317
1.8573,0.4790,37.9600,61,97,440321
1.9941,0.4936,37.9000,61,97,440324
2.1652,0.4888,38.0500,61,97,440328
2.4829,0.5474,37.8300,61,97,440331
2.8201,0.4839,37.9600,61,97,440334
3.2307,0.4888,37.9900,61,97,440338
3.6217,0.4985,37.8300,61,97,440341
3.2063,0.4839,37.9000,61,97,440346
2.7322,0.4888,37.9900,61,97,440349
2.3216,0.4985,37.7100,61,97,440352
1.8524,0.4888,37.9000,61,97,440356
1.5445,0.4888,38.2100,61,97,440359
1.3832,0.4888,37.9300,61,97,440363
1.2952,0.4888,37.9900,61,97,440367
1.3148,0.5034,37.7100,61,97,440370
1.3050,0.4936,37.9300,61,97,440373
1.3392,0.4888,37.9000,61,97,440376
1.3685,0.4985,37.9600,61,97,440380
1.3930,0.4888,37.9600,61,97,440383
1.4418,0.4936,37.8000,61,97,440386
1.4174,0.4888,37.9600,61,97,440390
1.4272,0.4888,37.9300,61,97,440393
1.4272,0.4888,37.9600,61,97,440396
1.4467,0.4888,37.9600,61,97,440400
1.4907,0.4985,37.8000,61,97,440403
1.4907,0.4888,37.9300,61,97,440407
1.5298,0.4936,37.9600,61,97,440410
1.5298,0.4888,37.9600,61,97,440414
1.5396,0.4839,37.9600,61,97,440417
1.5591,0.4888,37.9000,61,97,440420
1.5494,0.4888,37.9600,61,97,440424
1.5934,0.4888,38.0800,61,97,440427
1.5934,0.4936,37.9600,61,97,440430
1.6178,0.4888,37.9600,61,97,440434
1.6422,0.4888,37.9000,61,97,440437
1.6471,0.4888,37.9600,61,97,440440
1.6764,0.4936,37.7400,61,97,440444
1.6422,0.4888,37.9900,61,97,440448
1.6422,0.4888,38.0500,61,97,440451
1.6813,0.4888,37.9300,61,97,440454
1.6618,0.4888,38.0800,61,97,440458
1.7253,0.5083,37.6500,61,97,440461
1.7204,0.4936,37.9000,61,97,440464
1.7253,0.4643,37.9900,61,97,440468
1.7693,0.4888,37.9300,61,97,440471
1.7546,0.4888,37.9600,61,97,440474
1.8231,0.5083,37.7400,61,97,440478
1.7889,0.4985,37.9000,61,97,440481
1.7937,0.4839,37.9300,61,97,440484
1.8084,0.5327,37.9600,61,97,440487
1.8280,0.4839,37.9300,61,97,440492
1.8964,0.5034,37.8000,61,97,440495
1.8671,0.4888,38.0200,61,97,440498
1.8915,0.4936,37.8300,61,97,440502
1.8915,0.4643,37.9600,61,97,440505
1.9062,0.4888,37.9600,61,97,440508
1.9501,0.4936,37.9000,61,97,440512
1.9453,0.4888,37.9000,61,97,440515
1.9746,0.5034,37.8000,61,97,440518
1.9550,0.4888,37.9600,61,97,440521
1.9697,0.4888,37.9600,61,97,440525
2.0235,0.5034,37.8300,61,97,440528
2.0186,0.4888,37.9600,61,97,440531
2.0674,0.4888,37.8300,61,97,440536
2.0870,0.4888,37.9000,61,97,440539
2.0821,0.4839,37.9600,61,97,440542
2.1114,0.4985,37.8700,61,97,440546
2.1359,0.4839,37.9300,61,97,440549
2.1848,0.4936,37.8300,61,97,440552
2.1701,0.4888,37.9300,61,97,440556
2.1896,0.4643,37.9900,61,97,440559
2.2190,0.5034,37.9900,61,97,440562
2.2532,0.4888,37.9600,61,97,440565
2.2874,0.4985,37.6800,61,97,440569
2.2336,0.4839,37.9300,61,97,440572
2.2434,0.4888,37.9600,61,97,440576
2.2483,0.4936,37.9300,61,97,440580
2.2434,0.4888,38.0500,61,97,440583
2.3069,0.5034,37.6800,61,97,440586
2.2581,0.4985,37.9000,61,97,440590
2.2287,0.4839,37.9000,61,97,440593
2.1994,0.5034,37.9300,61,97,440596
2.1554,0.4936,37.9600,61,97,440599
2.1799,0.5083,37.7700,61,97,440603
2.0772,0.4936,37.8700,61,97,440606
2.0088,0.4936,37.8700,61,97,440609
1.9257,0.4888,37.9600,61,97,440613
1.8573,0.4888,37.7400,61,97,440616
1.8231,0.4936,37.8300,61,97,440620
1.7302,0.4888,37.9000,61,97,440624
1.6911,0.5327,37.8000,61,97,440627
1.6129,0.4839,37.9600,61,97,440630
1.5689,0.4888,37.9900,61,97,440633
1.5347,0.4839,37.9300,61,97,440637
1.4809,0.4888,37.9300,61,97,440640
1.4712,0.4888,37.8700,61,97,440643
1.4174,0.4888,37.9300,61,97,440647
1.4272,0.4888,37.9600,61,97,440650
1.4125,0.4936,37.8700,61,97,440653
1.3881,0.4888,37.9300,61,97,440657
1.4076,0.4936,37.7400,61,97,440660
1.3832,0.4888,37.8300,61,97,440664
1.3734,0.5181,37.9900,61,97,440668
1.3832,0.4936,37.9900,61,97,440671
1.3685,0.4888,37.9900,61,97,440674
1.4076,0.4985,37.6800,61,97,440677
1.3930,0.4839,37.9300,61,97,440681
1.4125,0.4888,37.9900,61,97,440684
1.4321,0.4888,37.9600,61,97,440687
1.4418,0.4888,37.9900,61,97,440691
1.5005,0.5034,37.6800,61,97,440694
1.4614,0.4888,37.9300,61,97,440697
1.4663,0.4985,37.9000,61,97,440701
1.4761,0.4839,37.9600,61,97,440705
1.4761,0.5279,38.0500,61,97,440708
1.5249,0.5034,37.8000,61,97,440711
1.5005,0.4936,37.9300,61,97,440715
1.5152,0.4888,37.8700,61,97,440718
1.5200,0.4888,37.9600,61,97,440721
1.5347,0.4888,37.9300,61,97,440725
1.5885,0.4936,37.8300,61,97,440728
1.5543,0.4888,37.9300,61,97,440731
1.5885,0.4936,37.8000,61,97,440735
1.5689,0.4643,37.9600,61,97,440738
1.5836,0.4936,37.9600,61,97,440741
1.6080,0.4936,37.9000,61,97,440745
1.6080,0.4643,37.9600,61,97,440749
1.6422,0.4936,37.8000,61,97,440752
1.6129,0.4839,37.9600,61,97,440755
1.6373,0.4888,37.9900,61,97,440759
1.6716,0.4839,37.9000,61,97,440762
1.6618,0.4888,38.0200,61,97,440765
1.6911,0.4936,37.7400,61,97,440769
1.6667,0.4643,37.9900,61,97,440772
1.6813,0.4888,37.9600,61,97,440775
1.7058,0.4985,37.8700,61,97,440779
1.7058,0.4936,37.9600,61,97,440782
1.7498,0.4985,37.6800,61,97,440785
1.7155,0.4936,37.8700,61,97,440790
1.7204,0.4839,37.9600,61,97,440793
1.7155,0.4936,37.9300,61,97,440796
1.7107,0.4888,37.9900,61,97,440799
1.7693,0.5083,37.7700,61,97,440803
1.7498,0.4936,37.8700,61,97,440806
1.7595,0.4839,37.9000,61,97,440809
1.7644,0.4888,38.1500,61,97,440813
1.7889,0.4888,37.9600,61,97,440816
1.8035,0.5034,37.8700,61,97,440819
1.7546,0.4936,37.9300,61,97,440823
1.7595,0.4888,37.8300,61,97,440826
1.7400,0.4936,38.0800,61,97,440829
1.7351,0.4888,37.9600,61,97,440833
1.7693,0.4936,37.9000,61,97,440837
1.7498,0.4888,37.9600,61,97,440840
1.7693,0.4985,37.8000,61,97,440843
1.7449,0.4839,38.0500,61,97,440847
1.7498,0.4888,37.8700,61,97,440850
1.7693,0.4839,37.8300,61,97,440853
1.7351,0.5181,37.9600,61,97,440857
1.7595,0.4888,37.8000,61,97,440860
1.7351,0.4888,38.0200,61,97,440863
1.7449,0.4985,37.9900,61,97,440867
1.7644,0.4936,37.6800,61,97,440870
1.7449,0.4888,37.9600,61,97,440873
1.7791,0.4936,37.7100,61,97,440877
1.7351,0.4985,37.9000,61,97,440881
1.7693,0.4839,37.9600,61,97,440884
1.7546,0.4936,37.9600,61,97,440887
1.7498,0.4888,37.9600,61,97,440891
1.7937,0.4985,37.6800,61,97,440894
1.7449,0.4936,37.9300,61,97,440897
1.7302,0.4839,37.9600,61,97,440901
1.7400,0.4888,38.0500,61,97,440904
1.7351,0.4888,37.9600,61,97,440907
1.7937,0.5034,37.6800,61,97,440910
1.7595,0.4936,37.8300,61,97,440914
1.7449,0.4790,37.9000,61,97,440918
1.7351,0.4936,37.9600,61,97,440921
1.7253,0.4888,37.9600,61,97,440925
1.7644,0.4985,37.8000,61,97,440928
1.7351,0.5083,37.9000,61,97,440931
1.7546,0.4888,37.8300,61,97,440935
1.7498,0.4888,37.9600,61,97,440938
1.7595,0.4839,37.9600,61,97,440941
1.7791,0.4936,37.9300,61,97,440945
1.7546,0.4888,37.2800,61,97,440948
1.7742,0.4936,37.8000,61,97,440951
1.7351,0.4888,37.9900,61,97,440954
1.7546,0.4888,37.9600,61,97,440960
1.7644,0.4888,37.9600,61,97,440963
1.7840,0.4936,37.9000,61,97,440967
1.7693,0.5083,37.9600,61,97,440970
1.8084,0.4839,37.6800,61,97,440973
1.7889,0.4936,37.8700,61,97,440977
1.7840,0.4888,37.9900,61,97,440980
1.7986,0.4936,37.9300,61,97,440983
1.7840,0.4888,37.9600,61,97,440987
1.8231,0.5034,37.6800,61,97,440990
1.7742,0.4888,37.8000,61,97,440993
1.7595,0.4888,37.9000,61,97,440996
1.7595,0.4888,37.9600,61,97,441000
1.7595,0.4888,37.9600,61,97,441004
1.8133,0.5034,37.7700,61,97,441007
1.7742,0.4888,37.9600,61,97,441011
1.7791,0.4888,37.8000,61,97,441014
1.7595,0.4888,37.9300,61,97,441017
1.7546,0.4888,38.0500,61,97,441021
1.7791,0.5230,37.9000,61,97,441024
1.7546,0.4839,37.9300,61,97,441027
1.7742,0.4936,37.8300,61,97,441030
1.7546,0.4888,37.9600,61,97,441034
1.7595,0.4643,37.9600,61,97,441037
1.7937,0.4985,37.8700,61,97,441040
1.7742,0.4888,37.9900,61,97,441044
1.8035,0.4936,37.8300,61,97,441048
1.7693,0.4839,37.9000,61,97,441051
1.7791,0.4888,38.0200,61,97,441055
1.7840,0.4936,37.8300,61,97,441058
1.7840,0.4888,38.0500,61,97,441061
1.8182,0.4936,37.7100,61,97,441065
1.7937,0.4888,37.9300,61,97,441068
1.7937,0.4888,38.0500,61,97,441071
1.8035,0.5034,37.9000,61,97,441074
1.7937,0.5181,37.9300,61,97,441078
1.8377,0.5083,37.6800,61,97,441081
1.7937,0.5034,37.9300,61,97,441084
1.8084,0.4888,37.9600,61,97,441089
1.8280,0.4936,37.5300,61,97,441092
1.8377,0.4888,37.9600,61,97,441095
1.9110,0.5034,37.5900,61,97,441099
1.8915,0.5279,37.8700,61,97,441102
1.8964,0.4839,37.9300,61,97,441105
1.8964,0.4888,37.9300,61,97,441109
1.9013,0.4839,37.9600,61,97,441112
1.9648,0.4985,37.9600,61,97,441115
1.9501,0.4936,37.9300,61,97,441118
1.9648,0.4936,37.9000,61,97,441122
1.9453,0.4936,37.9900,61,97,441125
1.9257,0.4888,38.0500,61,97,441128
1.9306,0.4985,37.8700,61,97,441133
1.8866,0.4888,37.9600,61,97,441136
1.8866,0.4936,37.7700,61,97,441139
1.8475,0.4936,37.9600,61,97,441143
1.8377,0.4888,37.9600,61,97,441146
1.8328,0.4888,37.9000,61,97,441149
1.8182,0.4888,38.0800,61,97,441153
1.8280,0.5230,37.8000,61,97,441156
1.7840,0.4888,37.9900,61,97,441159
1.7693,0.4888,37.9900,61,97,441162
1.7742,0.4839,37.8300,61,97,441166
1.7400,0.4888,37.9900,61,97,441169
1.7693,0.4936,37.7400,61,97,441172
1.7449,0.4936,37.9300,61,97,441177
1.7204,0.4936,38.0200,61,97,441180
1.7302,0.4936,37.9000,61,97,441183
1.6960,0.4888,38.0500,61,97,441187
1.7351,0.5083,37.6800,61,97,441190
1.6960,0.4888,37.9000,61,97,441193
1.7107,0.4888,37.8700,61,97,441196
1.7204,0.4888,37.9300,61,97,441200
1.7204,0.4643,37.9600,61,97,441203
1.7595,0.5034,37.6800,61,97,441206
1.7058,0.4936,37.9600,61,97,441210
1.7009,0.4888,37.8700,61,97,441213
1.7155,0.4839,37.9600,61,97,441217
1.7009,0.4839,37.9900,61,97,441221
1.7595,0.4936,37.8000,61,97,441224
1.7351,0.4936,37.9600,61,97,441227
1.7498,0.4936,37.8300,61,97,441231
1.7351,0.4643,37.9600,61,97,441234
1.7302,0.4888,37.9900,61,97,441237
1.7595,0.4985,37.7700,61,97,441240
1.7351,0.4888,37.9900,61,97,441244
1.7693,0.4839,37.8300,61,97,441247
1.7595,0.4888,37.9600,61,97,441250
1.7986,0.4936,37.9600,61,97,441254
1.8719,0.4888,37.8700,61,97,441257
1.9453,0.4985,38.0500,61,97,441261
2.1163,0.4888,37.8000,61,97,441265
2.3265,0.4888,38.0500,61,97,441268
2.6588,0.4985,37.9900,61,97,441271
3.0743,0.4839,37.7700,61,97,441274
3.4604,0.4888,37.9900,61,97,441278
3.8221,0.4936,37.7100,61,97,441281
3.9394,0.4839,37.9600,61,97,441284
3.9736,0.4888,37.9300,61,97,441288
3.8172,0.4936,37.9300,61,97,441291
3.4604,0.4888,37.9600,61,97,441294
3.1232,0.4985,37.6800,61,97,441298
2.6002,0.4936,37.9000,61,97,441302
2.1114,0.4888,38.0500,61,97,441305
1.7253,0.4839,37.9300,61,97,441309
1.4614,0.4888,38.0500,61,97,441312
1.3734,0.5034,37.6500,61,97,441315
1.2952,0.4985,37.9000,61,97,441318
1.3099,0.4888,37.9300,61,97,441322
1.3294,0.4888,37.9600,61,97,441325
1.3636,0.4888,37.9000,61,97,441328
1.4418,0.4985,37.8300,61,97,441332
1.4321,0.4888,37.9600,61,97,441335
1.4663,0.5034,37.8300,61,97,441338
1.4663,0.4888,37.9600,61,97,441342
1.4809,0.4985,37.9900,61,97,441346
1.5152,0.4936,37.9000,61,97,441349
1.5103,0.4839,38.0500,61,97,441353
1.5396,0.4985,37.8300,61,97,441356
1.5103,0.4888,37.9600,61,97,441359
1.5200,0.4888,37.9600,61,97,441362
1.5445,0.4936,37.8300,61,97,441366
1.5249,0.4888,37.9300,61,97,441369
1.5591,0.4936,37.7700,61,97,441372
1.5640,0.4888,37.6200,61,97,441376
1.5885,0.4888,37.9900,61,97,441379
1.6227,0.4936,37.8300,61,97,441382
1.6325,0.4839,37.9300,61,97,441387
1.7009,0.5034,37.7100,61,97,441390
1.6667,0.4888,38.0200,61,97,441393
1.6813,0.4839,37.9600,61,97,441397
1.6911,0.4936,37.9600,61,97,441400
1.6862,0.4888,38.1800,61,97,441403
1.7351,0.5034,37.6500,61,97,441406
1.7107,0.4888,37.9600,61,97,441410
1.7351,0.4936,37.9300,61,97,441413
1.7546,0.4888,37.9600,61,97,441416
1.7889,0.4888,37.9600,61,97,441420
1.8426,0.5034,37.7700,61,97,441423
1.8035,0.5132,37.9000,61,97,441426
1.8084,0.4839,37.9000,61,97,441431
1.8231,0.4888,37.8700,61,97,441434
1.8622,0.4888,37.9300,61,97,441437
1.8866,0.4985,37.7700,61,97,441441
1.8622,0.4839,37.9300,61,97,441444
1.8817,0.4936,37.9000,61,97,441447
1.8671,0.4936,37.9600,61,97,441450
1.8817,0.4888,37.9600,61,97,441454
1.9110,0.4985,37.9000,61,97,441457
1.9062,0.4888,37.9600,61,97,441460
1.9550,0.4936,37.7700,61,97,441464
1.9404,0.4888,37.9600,61,97,441467
1.9648,0.4643,37.9600,61,97,441470
1.9941,0.5083,37.9000,61,97,441475
2.0137,0.4839,37.9600,61,97,441478
2.0674,0.4936,37.7400,61,97,441481
2.0626,0.4985,37.9600,61,97,441484
2.0870,0.4839,37.9600,61,97,441488
2.1408,0.4936,37.9000,61,97,441491
2.1408,0.4888,37.9600,61,97,441494
2.2190,0.4985,37.6800,61,97,441498
2.1945,0.4936,37.8700,61,97,441501
2.1896,0.5230,37.9600,61,97,441504
2.2190,0.4936,37.9300,61,97,441508
2.2239,0.4888,37.9300,61,97,441511
2.3167,0.5034,37.6500,61,97,441515
2.2874,0.4985,37.8700,61,97,441519
2.3167,0.4888,37.9000,61,97,441522
2.3118,0.4888,37.9300,61,97,441525
2.3021,0.4888,37.9300,61,97,441528
2.3754,0.5083,37.7700,61,97,441532
2.2874,0.4936,37.9300,61,97,441535
2.2825,0.4888,37.8700,61,97,441538
2.2581,0.4888,37.9600,61,97,441542
2.2385,0.4888,37.9600,61,97,441545
2.2483,0.4985,37.8000,61,97,441548
2.1750,0.5034,37.9300,61,97,441552
2.1408,0.4888,37.8000,61,97,441555
2.0577,0.4888,37.9900,61,97,441559
2.0039,0.4888,37.8700,61,97,441562
1.9795,0.4936,37.8000,61,97,441566
1.6520,0.4936,37.9300,61,97,441570
1.5836,0.4888,37.9600,61,97,441574
1.5738,0.4985,37.7100,61,97,441577
1.5103,0.4888,37.8000,61,97,441580
1.4858,0.4790,37.9900,61,97,441584
1.4663,0.4936,37.9300,61,97,441587
1.4467,0.4888,37.9600,61,97,441590
1.4663,0.4839,37.6500,61,97,441594
1.4223,0.4888,37.9000,61,97,441597
1.4516,0.4888,37.9300,61,97,441601
1.4076,0.4888,37.9000,61,97,441605
1.4272,0.4936,37.9600,61,97,441608
1.4467,0.5034,37.7700,61,97,441611
1.4174,0.4936,37.6500,61,97,441614
1.4223,0.5132,37.8700,61,97,441618
1.4418,0.4888,37.9900,61,97,441621
1.4663,0.4839,37.9900,61,97,441624
1.5298,0.4985,37.7700,61,97,441628
1.5005,0.4985,37.9300,61,97,441631
1.5200,0.4936,37.8300,61,97,441634
1.5005,0.4888,37.9900,61,97,441638
1.4956,0.4888,37.9900,61,97,441641
1.5103,0.4936,37.9000,61,97,441645
1.4956,0.4888,38.2100,61,97,441648
1.5249,0.4985,37.8300,61,97,441652
1.5103,0.4888,37.9600,61,97,441655
1.5249,0.4936,37.9600,61,97,441658
1.5494,0.4888,37.9300,61,97,441662
1.5738,0.4888,37.9300,61,97,441665
1.6178,0.4888,37.7700,61,97,441668
1.6031,0.4888,37.9600,61,97,441672
1.5982,0.4839,37.9600,61,97,441675
1.6178,0.4985,37.8700,61,97,441678
1.6031,0.4839,37.9600,61,97,441682
1.6373,0.4985,37.7100,61,97,441686
1.6618,0.4936,37.8700,61,97,441689
1.6422,0.4888,37.9600,61,97,441693
1.6618,0.4839,37.9000,61,97,441696
1.6667,0.4888,37.9600,61,97,441699
1.7155,0.5083,37.6800,61,97,441702
1.6862,0.4888,37.8700,61,97,441706
1.6764,0.4888,37.9000,61,97,441709
1.6960,0.4888,37.9600,61,97,441712
1.7107,0.4888,37.9600,61,97,441716
1.7742,0.5034,37.8300,61,97,441719
1.7351,0.4839,37.9300,61,97,441722
1.7449,0.4888,37.9600,61,97,441726
1.7644,0.4888,37.9600,61,97,441730
1.7302,0.4888,37.9900,61,97,441733
1.7644,0.5034,37.8700,61,97,441736
1.7498,0.4839,37.9600,61,97,441740
1.7693,0.4643,37.8000,61,97,441743
1.7791,0.4888,37.9600,61,97,441746
1.7644,0.4888,37.9900,61,97,441750
1.7986,0.5034,37.8700,61,97,441753
1.7742,0.4643,37.9600,61,97,441756
1.7986,0.4985,37.8000,61,97,441760
1.7595,0.4888,37.9600,61,97,441763
1.7595,0.4888,37.9600,61,97,441766
1.7693,0.4888,37.8300,61,97,441771
1.7498,0.4888,37.9600,61,97,441774
1.7791,0.4936,37.7100,61,97,441777
1.7498,0.4888,37.9300,61,97,441780
1.7498,0.4888,37.7700,61,97,441784
1.7595,0.4888,37.9000,61,97,441787
1.7595,0.4839,37.9900,61,97,441790
1.7986,0.4985,37.6800,61,97,441794
1.7791,0.4839,37.9300,61,97,441797
1.7595,0.4888,37.9900,61,97,441800
1.7644,0.4985,37.9000,61,97,441804
1.7546,0.4839,37.9600,61,97,441807
1.8084,0.5034,37.6500,61,97,441810
1.7742,0.5181,37.8700,61,97,441814
1.7644,0.4839,37.9300,61,97,441818
1.7693,0.4985,37.9300,61,97,441821
1.7840,0.4888,37.9600,61,97,441824
1.8084,0.5034,37.7400,61,97,441828
1.7644,0.5279,37.7700,61,97,441831
1.7937,0.4839,37.8700,61,97,441834
1.7546,0.4888,37.9600,61,97,441838
1.7644,0.4888,37.9600,61,97,441841
1.7986,0.4985,37.8700,61,97,441844
1.7742,0.4888,37.9300,61,97,441847
1.7937,0.4936,37.8300,61,97,441851
1.7595,0.4888,37.9900,61,97,441854
1.7546,0.4888,37.9600,61,97,441858
1.7644,0.4888,37.9000,61,97,441862
1.7595,0.4888,37.9300,61,97,441865
1.7937,0.4936,37.8300,61,97,441868
1.7742,0.4888,37.9900,61,97,441872
1.8133,0.4888,37.9900,61,97,441875
1.7986,0.4936,38.1800,61,97,441878
1.7693,0.4888,37.9600,61,97,441882
1.7889,0.4936,37.9000,61,97,441885
1.7937,0.4888,37.8700,61,97,441888
1.7546,0.4888,37.9600,61,97,441892
1.8182,0.4985,37.9000,61,97,441895
1.7742,0.4888,37.9900,61,97,441899
1.8426,0.5034,37.6800,61,97,441902
1.7986,0.4888,37.9300,61,97,441906
1.7937,0.4888,37.9000,61,97,441909
1.7889,0.4985,37.9300,61,97,441912
1.7742,0.4888,37.9600,61,97,441916
1.8133,0.5083,37.6800,61,97,441919
1.7644,0.4643,37.8300,61,97,441922
1.7595,0.4888,37.9000,61,97,441926
1.7937,0.4839,37.9600,61,97,441929
1.7644,0.4888,37.9600,61,97,441932
1.8231,0.5034,37.8300,61,97,441936
1.7937,0.4936,37.5600,61,97,441939
1.8182,0.4985,37.8300,61,97,441943
1.8035,0.4888,37.9300,61,97,441946
1.8084,0.4888,37.9600,61,97,441950
1.8426,0.4839,37.7700,61,97,441953
1.8084,0.5230,37.9600,61,97,441956
1.8328,0.4985,37.8300,61,97,441960
1.8035,0.4888,37.9300,61,97,441963
1.7986,0.5083,37.9600,61,97,441966
1.8035,0.4888,37.9000,61,97,441970
1.7840,0.4888,37.9900,61,97,441973
1.7986,0.4888,37.8000,61,97,441976
1.7889,0.4839,37.9300,61,97,441979
1.7889,0.4888,37.2200,61,97,441984
1.8133,0.4839,37.9000,61,97,441987
1.8035,0.4888,37.9900,61,97,441990
1.8377,0.4936,37.6500,61,97,441994
1.7937,0.4839,37.9600,61,97,441997
1.7937,0.4888,37.9900,61,97,442000
1.8035,0.4936,37.9000,61,97,442004
1.7791,0.4888,37.8700,61,97,442007
1.8377,0.4839,37.6800,61,97,442010
1.8035,0.4936,37.9300,61,97,442014
1.7986,0.4888,37.9900,61,97,442017
1.8182,0.4888,37.9300,61,97,442020
1.8280,0.4936,37.9900,61,97,442023
1.9257,0.5083,37.7400,61,97,442028
1.8768,0.4936,37.8700,61,97,442031
1.8768,0.5181,37.8700,61,97,442034
1.8817,0.4888,37.9600,61,97,442038
1.8964,0.4888,37.9600,61,97,442041
1.9550,0.4985,37.8300,61,97,442044
1.9306,0.4888,37.9600,61,97,442048
1.9648,0.4790,37.8300,61,97,442051
1.9648,0.4888,37.9600,61,97,442054
1.9844,0.4888,37.9900,61,97,442057
2.0088,0.4936,37.9000,61,97,442061
1.9746,0.4936,37.9600,61,97,442064
1.9795,0.4985,37.8300,61,97,442067
1.9208,0.4839,37.9900,61,97,442072
1.8964,0.4888,37.9900,61,97,442075
1.9062,0.5034,37.8300,61,97,442078
1.8671,0.4888,38.0800,61,97,442082
1.8768,0.4888,37.8000,61,97,442085
1.8524,0.4888,37.9000,61,97,442088
1.8035,0.4643,37.9600,61,97,442092
1.7986,0.4888,37.8300,61,97,442095
1.7693,0.4888,37.9600,61,97,442098
1.7840,0.4985,37.7100,61,97,442101
1.7253,0.4888,37.9600,61,97,442105
1.7253,0.4888,38.0200,61,97,442108
1.7253,0.4936,37.9300,61,97,442112
1.7204,0.4888,37.9600,61,97,442116
1.7693,0.4985,37.6500,61,97,442119
1.7253,0.4888,37.9300,61,97,442122
1.7253,0.4839,37.9900,61,97,442126
1.7253,0.4888,37.9300,61,97,442129
1.7449,0.4936,37.9600,61,97,442132
1.7693,0.5034,37.7400,61,97,442136
1.7400,0.4936,37.8700,61,97,442139
1.7449,0.5181,37.9000,61,97,442142
1.7449,0.4888,37.9600,61,97,442145
1.7400,0.5132,37.9900,61,97,442149
1.7644,0.4985,37.7700,61,97,442152
1.7351,0.4985,37.9600,61,97,442156
1.7449,0.4839,37.8300,61,97,442160
1.7351,0.4888,37.9900,61,97,442163
1.7498,0.4790,37.9600,61,97,442166
1.7791,0.4936,37.9000,61,97,442170
1.7644,0.4888,37.9600,61,97,442173
1.8084,0.4936,37.8700,61,97,442176
1.7644,0.4888,37.7400,61,97,442179
1.8817,0.4839,38.2100,61,97,442184
1.9892,0.4888,37.9600,61,97,442188
2.0919,0.4936,37.8700,61,97,442191
2.2972,0.4888,37.9900,61,97,442194
2.6833,0.4985,37.6800,61,97,442198
3.0254,0.4936,37.9000,61,97,442202
3.3773,0.4888,37.9600,61,97,442205
3.6266,0.4936,37.9600,61,97,442208
3.7488,0.4888,37.9900,61,97,442212
3.8759,0.5034,37.7700,61,97,442215
3.6657,0.4985,37.9000,61,97,442218
3.3724,0.4888,37.9000,61,97,442222
2.9765,0.4888,37.9600,61,97,442225
2.5513,0.4888,37.9600,61,97,442228
2.1750,0.5034,37.8300,61,97,442231
1.7742,0.4888,37.9000,61,97,442235
1.5249,0.4985,37.8300,61,97,442238
1.3685,0.4888,37.9600,61,97,442242
1.3294,0.4936,37.9600,61,97,442246
1.3245,0.4936,37.9300,61,97,442249
1.3539,0.4936,37.9900,61,97,442252
1.4174,0.4985,37.8700,61,97,442256
1.4272,0.4936,37.9600,61,97,442259
1.4614,0.4888,37.9600,61,97,442262
1.5103,0.4985,37.8300,61,97,442266
1.5103,0.4888,37.9600,61,97,442269
1.5396,0.4936,37.7700,61,97,442272
1.5298,0.4985,37.8700,61,97,442275
1.5298,0.4888,37.9600,61,97,442279
1.5445,0.4936,37.8700,61,97,442283
1.5445,0.4888,37.9600,61,97,442286
1.5885,0.4985,37.7700,61,97,442290
1.5689,0.4839,37.9300,61,97,442293
1.5738,0.4643,38.0200,61,97,442296
1.5885,0.4936,37.9300,61,97,442300
1.5982,0.4839,37.9600,61,97,442303
1.6667,0.5034,37.6800,61,97,442306
1.6520,0.4839,37.9300,61,97,442310
1.6667,0.4839,38.0500,61,97,442313
1.6862,0.4985,37.9300,61,97,442316
1.7009,0.4888,37.9600,61,97,442319
1.7595,0.5034,37.7700,61,97,442323
1.7253,0.4936,37.9300,61,97,442327
1.7302,0.4888,37.9300,61,97,442330
1.7204,0.4888,37.9600,61,97,442334
1.7351,0.4888,37.7700,61,97,442337
1.7889,0.4985,37.7700,61,97,442340
1.7840,0.4888,37.9900,61,97,442344
1.8182,0.5132,37.8300,61,97,442347
1.8133,0.4888,38.0500,61,97,442350
1.8231,0.4888,37.2500,61,97,442354
1.8426,0.4936,37.9300,61,97,442357
1.8475,0.4888,38.0500,61,97,442360
1.8866,0.4936,37.8300,61,97,442363
1.8768,0.4888,37.9300,61,97,442368
1.8768,0.4839,37.8700,61,97,442371
1.9013,0.4936,37.9300,61,97,442374
1.8866,0.4888,38.0800,61,97,442378
1.9257,0.4936,37.7100,61,97,442381
1.9110,0.4888,37.9900,61,97,442384
1.9355,0.4839,37.9300,61,97,442388
1.9746,0.4936,37.9000,61,97,442391
1.9746,0.4790,37.9900,61,97,442394
2.0479,0.4985,37.6800,61,97,442398
2.0283,0.4936,37.9000,61,97,442401
2.0332,0.5034,37.9900,61,97,442404
2.0674,0.4936,37.9000,61,97,442407
2.0723,0.4888,37.9600,61,97,442412
2.1310,0.5034,37.6500,61,97,442415
2.0968,0.4839,37.9900,61,97,442418
2.1017,0.4839,37.9300,61,97,442422
2.1212,0.4839,37.9300,61,97,442425
2.1505,0.4888,37.9600,61,97,442428
2.2434,0.5034,37.7700,61,97,442431
2.2239,0.4936,37.9900,61,97,442435
2.2581,0.4888,37.8700,61,97,442438
2.2581,0.4888,37.9600,61,97,442441
2.2630,0.4888,37.9600,61,97,442445
2.3021,0.4985,37.8300,61,97,442448
2.2825,0.4888,37.9300,61,97,442451
2.3118,0.4936,37.8000,61,97,442456
2.2923,0.4888,37.9600,61,97,442459
2.2923,0.4888,37.9900,61,97,442462
2.3167,0.4985,37.8000,61,97,442466
2.2532,0.4936,37.9600,61,97,442469
2.2483,0.4888,37.8300,61,97,442472
2.1799,0.4839,37.9000,61,97,442475
2.1408,0.4888,37.9300,61,97,442479
2.1114,0.4888,37.8700,61,97,442482
2.0528,0.4888,38.0500,61,97,442485
2.0332,0.4936,37.7400,61,97,442489
1.9453,0.4888,37.9600,61,97,442492
1.8964,0.4888,37.9600,61,97,442496
1.8524,0.5181,37.9300,61,97,442500
1.7986,0.4888,37.9600,61,97,442503
1.7889,0.4985,37.6500,61,97,442506
1.7107,0.4839,37.9300,61,97,442509
1.6569,0.4888,37.2200,61,97,442513
1.6227,0.4985,37.9000,61,97,442516
1.5543,0.4888,38.0200,61,97,442519
1.5591,0.5034,37.6800,61,97,442523
1.5054,0.4936,37.8700,61,97,442526
1.4809,0.4839,37.9000,61,97,442529
1.4761,0.4839,37.9300,61,97,442533
1.4761,0.4888,37.9900,61,97,442536
1.5298,0.5034,37.7700,61,97,442540
1.5005,0.4936,37.9300,61,97,442544
1.5103,0.4985,37.8700,61,97,442547
1.5103,0.4888,37.9600,61,97,442550
1.5103,0.4888,37.9000,61,97,442553
1.5249,0.4985,37.8700,61,97,442557
1.4858,0.4888,37.9600,61,97,442560
1.4956,0.4936,37.8300,61,97,442563
1.4761,0.4888,38.0200,61,97,442567
1.4858,0.4888,37.9600,61,97,442570
1.5005,0.4936,37.9000,61,97,442573
1.5054,0.4888,37.9600,61,97,442577
1.5200,0.4985,37.8300,61,97,442580
1.5298,0.4888,37.9600,61,97,442584
1.5445,0.4888,37.9900,61,97,442587
1.5885,0.4936,37.8700,61,97,442591
1.5836,0.4839,37.9900,61,97,442594
1.6227,0.4936,37.7400,61,97,442597
1.6129,0.4985,37.8300,61,97,442601
1.6178,0.4888,37.9600,61,97,442604
1.6422,0.5034,37.8700,61,97,442607
1.6373,0.4839,37.9300,61,97,442611
1.6862,0.4985,37.7100,61,97,442614
1.6618,0.4839,37.9300,61,97,442617
1.6716,0.4888,37.8300,61,97,442621
1.6911,0.4839,37.9600,61,97,442625
1.6960,0.4888,37.9600,61,97,442628
1.7546,0.5034,37.6200,61,97,442631
1.7253,0.4888,37.9000,61,97,442635
1.7351,0.4839,37.9900,61,97,442638
1.7791,0.4888,37.9300,61,97,442641
1.7400,0.4888,37.9600,61,97,442645
1.7986,0.5083,37.7700,61,97,442648
1.7644,0.4936,37.9300,61,97,442651
1.7693,0.4888,37.9000,61,97,442655
1.7595,0.4888,37.9600,61,97,442658
1.7546,0.4888,37.9600,61,97,442661
1.7937,0.5327,37.7400,61,97,442664
1.7742,0.4888,37.9600,61,97,442669
1.7937,0.4936,37.7700,61,97,442672
1.7742,0.4839,38.0200,61,97,442675
1.7791,0.4888,37.9600,61,97,442679
1.7937,0.4936,37.9000,61,97,442682
1.7791,0.4888,37.9600,61,97,442685
1.8084,0.4888,37.8300,61,97,442689
1.7791,0.4936,37.9600,61,97,442692
1.7840,0.4888,38.0800,61,97,442695
1.7889,0.4985,37.9000,61,97,442699
1.7693,0.4839,37.9600,61,97,442702
1.7937,0.4936,37.9600,61,97,442705
1.7742,0.4888,37.9600,61,97,442708
1.7742,0.4888,37.9000,61,97,442713
1.7986,0.5034,37.8700,61,97,442716
1.7840,0.4888,38.0500,61,97,442719
1.8377,0.5083,37.6800,61,97,442723
1.8182,0.4985,37.8700,61,97,442726
1.8084,0.4888,37.9600,61,97,442729
1.8182,0.4936,37.9900,61,97,442733
1.7937,0.4888,38.0200,61,97,442736
1.8377,0.4985,37.6800,61,97,442739
1.7937,0.4936,38.0800,61,97,442743
1.7937,0.4888,37.9000,61,97,442746
1.7937,0.4888,37.9900,61,97,442749
1.7889,0.4839,37.9900,61,97,442753
1.8231,0.5034,37.8000,61,97,442757
1.7742,0.4888,37.9600,61,97,442760
1.7889,0.4936,37.8700,61,97,442763
1.7693,0.4839,37.9600,61,97,442767
1.7742,0.4936,37.9900,61,97,442770
1.8133,0.4936,37.9300,61,97,442773
1.8035,0.5181,37.9300,61,97,442777
1.8377,0.4936,37.8300,61,97,442780
1.7937,0.4790,37.9600,61,97,442783
1.7889,0.4888,37.9600,61,97,442787
1.8084,0.4985,38.0500,61,97,442790
1.8133,0.5034,37.9000,61,97,442796
1.8280,0.4888,37.9600,61,97,442799
1.8524,0.4985,37.7700,61,97,442802
1.8035,0.4839,37.9000,61,97,442805
1.8084,0.4839,37.9900,61,97,442809
1.7986,0.4888,37.9900,61,97,442812
1.7840,0.4888,37.9600,61,97,442815
1.8377,0.5034,37.6800,61,97,442819
1.7937,0.4936,37.9300,61,97,442822
1.8035,0.4839,37.9300,61,97,442825
1.8133,0.4888,37.9000,61,97,442829
1.8182,0.4643,37.9900,61,97,442832
1.8719,0.5083,37.8300,61,97,442835
1.8377,0.4839,37.9300,61,97,442840
1.8426,0.4936,37.9600,61,97,442843
1.8182,0.4839,37.9600,61,97,442846
1.8084,0.4888,38.1800,61,97,442849
1.8426,0.5327,37.8000,61,97,442853
1.8231,0.4888,37.9600,61,97,442856
1.8573,0.5327,37.8300,61,97,442859
1.8426,0.4839,37.9600,61,97,442863
1.8475,0.4888,37.9600,61,97,442866
1.8573,0.4888,37.8700,61,97,442869
1.8377,0.4888,37.9600,61,97,442873
1.8671,0.4888,37.7700,61,97,442876
1.8475,0.4888,37.9600,61,97,442880
1.8475,0.4888,38.0800,61,97,442884
1.8524,0.4985,37.9000,61,97,442887
1.8377,0.4888,37.9600,61,97,442890
1.8622,0.4936,38.0200,61,97,442893
1.8182,0.4839,37.9600,61,97,442897
1.8182,0.4888,37.9900,61,97,442900
1.8280,0.4985,37.9300,61,97,442903
1.8084,0.4888,38.0800,61,97,442907
1.8622,0.4985,37.9000,61,97,442910
1.8475,0.4888,37.8700,61,97,442913
1.8475,0.4888,37.9900,61,97,442917
1.8622,0.4888,37.9000,61,97,442920
1.8573,0.4888,37.9900,61,97,442924
1.8866,0.5083,37.1600,61,97,442927
1.8280,0.4936,37.9300,61,97,442931
1.8231,0.4888,37.9300,61,97,442934
1.8475,0.4888,37.9900,61,97,442937
1.8377,0.4643,37.9600,61,97,442941
1.8915,0.5034,37.8000,61,97,442944
1.8719,0.4936,37.9300,61,97,442947
1.8915,0.4936,37.8300,61,97,442951
1.8964,0.4888,37.9600,61,97,442954
1.9159,0.4888,38.0500,61,97,442957
1.9501,0.5181,37.9000,61,97,442961
1.9648,0.4839,37.9300,61,97,442964
1.9599,0.4936,37.8300,61,97,442968
1.9306,0.4985,37.9600,61,97,442971
1.9306,0.4839,37.9900,61,97,442975
1.9697,0.4985,37.8300,61,97,442978
1.9697,0.4839,37.9600,61,97,442981
2.0283,0.4936,37.7700,61,97,442985
2.0283,0.4936,37.9000,61,97,442988
2.0235,0.4888,37.9600,61,97,442991
2.0186,0.4936,37.8000,61,97,442995
1.9844,0.4936,37.9600,61,97,442998
1.9795,0.4936,37.6500,61,97,443001
1.9062,0.4888,37.9900,61,97,443004
1.8915,0.4888,37.9900,61,97,443009
1.8719,0.4936,38.0200,61,97,443012
1.8524,0.4936,37.9600,61,97,443015
1.9062,0.5034,37.6800,61,97,443019
1.8524,0.4888,37.9000,61,97,443022
1.8524,0.4888,38.0200,61,97,443025
1.8475,0.4888,37.5300,61,97,443029
1.8280,0.4888,37.9900,61,97,443032
1.8671,0.5034,37.7100,61,97,443035
1.8182,0.4936,37.9300,61,97,443039
1.7986,0.4888,37.9900,61,97,443042
1.7840,0.4839,37.9300,61,97,443045
1.7595,0.4888,37.9600,61,97,443048
1.7889,0.5034,37.8000,61,97,443053
1.7644,0.4888,37.9300,61,97,443056
1.7791,0.5034,37.8300,61,97,443059
1.7693,0.4839,37.9900,61,97,443063
1.7595,0.4888,37.9600,61,97,443066
1.7693,0.4888,37.9000,61,97,443069
1.7400,0.4888,37.9900,61,97,443073
1.7546,0.4985,37.8300,61,97,443076
1.7302,0.4790,37.9900,61,97,443079
1.7449,0.4643,37.9600,61,97,443082
1.7546,0.4888,37.8700,61,97,443086
1.7546,0.4888,37.9900,61,97,443089
1.7840,0.4936,37.8300,61,97,443092
1.7693,0.4839,37.9900,61,97,443097
1.8182,0.4839,37.9600,61,97,443100
1.8133,0.4643,37.9300,61,97,443103
1.8084,0.4839,37.9600,61,97,443107
1.8426,0.4985,37.7100,61,97,443110
1.8182,0.4936,37.7400,61,97,443113
1.8182,0.4888,37.9900,61,97,443117
1.8622,0.4936,37.9000,61,97,443120
1.8817,0.4888,37.9900,61,97,443123
1.9892,0.5083,37.6800,61,97,443126
2.0332,0.4936,37.9000,61,97,443130
2.1994,0.4936,37.9600,61,97,443133
2.4780,0.4888,37.9600,61,97,443137
2.8299,0.5425,37.9900,61,97,443141
3.3578,0.5083,37.7100,61,97,443144
3.6217,0.4936,37.9000,61,97,443147
3.8807,0.4839,37.8300,61,97,443151
4.0078,0.4888,37.9900,61,97,443154
3.9687,0.4839,37.9600,61,97,443157
3.7879,0.5034,37.8000,61,97,443160
3.3480,0.4888,37.9600,61,97,443164
2.9081,0.4936,37.9900,61,97,443167
2.3998,0.4839,37.9900,61,97,443170
1.9501,0.4888,37.9900,61,97,443174
1.6520,0.4985,37.8000,61,97,443177
1.4370,0.4888,37.9300,61,97,443181
1.3734,0.5034,37.8300,61,97,443185
1.3343,0.4839,37.9600,61,97,443188
1.3587,0.5034,37.9900,61,97,443191
1.4076,0.4839,37.8700,61,97,443195
1.4223,0.4888,37.9600,61,97,443198
1.4712,0.4888,37.7700,61,97,443201
1.4712,0.4839,37.9300,61,97,443204
1.4809,0.4888,37.9900,61,97,443208
1.5103,0.4936,37.9000,61,97,443211
1.5249,0.4888,37.9900,61,97,443214
1.5738,0.4936,37.7100,61,97,443218
1.5640,0.4839,37.9900,61,97,443222
1.5885,0.4888,37.4900,61,97,443225
1.6080,0.4936,37.9000,61,97,443229
1.6129,0.4888,38.0500,61,97,443232
1.6569,0.4985,37.6800,61,97,443235
1.6373,0.4888,37.9000,61,97,443238
1.6422,0.4888,37.9900,61,97,443242
1.6618,0.4839,37.9600,61,97,443245
1.6618,0.4888,37.9900,61,97,443248
1.7155,0.5083,37.7100,61,97,443252
1.6813,0.4936,37.9000,61,97,443255
1.6862,0.4888,38.0500,61,97,443258
1.6960,0.4839,37.9600,61,97,443262
1.7107,0.4888,37.9600,61,97,443266
1.7546,0.5034,37.7700,61,97,443269
1.7253,0.4936,37.9600,61,97,443272
1.7449,0.4936,37.8300,61,97,443276
1.7400,0.4888,38.0500,61,97,443279
1.7595,0.4936,37.9900,61,97,443282
1.8035,0.4936,37.9000,61,97,443286
1.8133,0.4888,38.0200,61,97,443289
1.8573,0.5034,37.8300,61,97,443292
1.8475,0.4888,37.9600,61,97,443296
1.8573,0.4888,37.9900,61,97,443299
1.8866,0.4985,37.8300,61,97,443302
1.8622,0.4888,37.9900,61,97,443307
1.8964,0.4936,37.8000,61,97,443310
1.8817,0.4888,37.9000,61,97,443313
1.9013,0.4888,38.0200,61,97,443316
1.9355,0.4888,37.8700,61,97,443320
1.9453,0.4888,38.0800,61,97,443323
2.0039,0.4888,37.7100,61,97,443326
1.9795,0.4888,37.9600,61,97,443330
1.9990,0.4888,38.0800,61,97,443333
2.0186,0.4985,37.9900,61,97,443336
2.0235,0.4839,37.9600,61,97,443340
2.0919,0.4936,37.7100,61,97,443343
2.0577,0.4839,37.9000,61,97,443346
2.0919,0.4888,37.9900,61,97,443350
2.1114,0.4643,37.9900,61,97,443354
2.1212,0.4888,37.9600,61,97,443357
2.2043,0.5034,37.6800,61,97,443360
2.1799,0.4936,37.8300,61,97,443364
2.1896,0.4888,37.9000,61,97,443367
2.2190,0.4936,37.9900,61,97,443370
2.2434,0.4888,37.9900,61,97,443374
2.3460,0.4985,37.7400,61,97,443377
2.3021,0.4888,37.9300,61,97,443380
2.3167,0.4936,37.8300,61,97,443383
2.3069,0.4888,37.9900,61,97,443387
2.3069,0.4888,37.9000,61,97,443390
2.3412,0.4936,37.8700,61,97,443394
2.3118,0.4888,37.9900,61,97,443398
2.3412,0.4888,37.8000,61,97,443401
2.3412,0.4888,37.9600,61,97,443404
2.1848,0.4888,37.9900,61,97,443409
2.1408,0.4936,37.9300,61,97,443412
2.0919,0.4985,37.9300,61,97,443416
2.0088,0.4888,37.9600,61,97,443419
1.9795,0.5083,37.7400,61,97,443422
1.8915,0.4839,37.8700,61,97,443425
1.8084,0.4888,38.0200,61,97,443429
1.7644,0.4839,37.9000,61,97,443432
1.6960,0.4888,37.9900,61,97,443436
1.6960,0.4985,37.6500,61,97,443440
1.6080,0.4888,37.8700,61,97,443443
1.5738,0.4839,38.0500,61,97,443446
1.5396,0.4985,37.9900,61,97,443450
1.5054,0.4888,37.9600,61,97,443453
1.5249,0.5034,37.7400,61,97,443456
1.4614,0.4888,37.9600,61,97,443460
1.4516,0.4888,37.9300,61,97,443463
1.4418,0.4888,37.9900,61,97,443466
1.4418,0.4888,37.9600,61,97,443469
1.4614,0.4985,37.8300,61,97,443473
1.4418,0.4888,37.9300,61,97,443476
1.4418,0.4936,37.8300,61,97,443480
1.4223,0.4888,37.9300,61,97,443484
1.4321,0.4888,38.0500,61,97,443487
1.4663,0.5034,37.8000,61,97,443490
1.4418,0.4888,37.9600,61,97,443494
1.4809,0.5181,37.8300,61,97,443497
1.4663,0.4888,37.9300,61,97,443500
1.4809,0.4888,38.1500,61,97,443504
1.5054,0.4839,37.8700,61,97,443507
1.5152,0.4888,37.9600,61,97,443510
1.5787,0.4888,37.7400,61,97,443513
1.5445,0.4888,37.9300,61,97,443517
1.5494,0.4888,37.9600,61,97,443521
1.5591,0.4936,37.9300,61,97,443524
1.5591,0.4888,38.0500,61,97,443528
1.6031,0.4985,37.7400,61,97,443531
1.5787,0.4643,37.9300,61,97,443534
1.5934,0.4888,37.9000,61,97,443538
1.6276,0.4985,37.9300,61,97,443541
1.6227,0.4888,37.9600,61,97,443544
1.6813,0.4936,37.6800,61,97,443547
1.6569,0.4936,37.8700,61,97,443551
1.6569,0.4839,37.9000,61,97,443554
1.6716,0.4888,37.9600,61,97,443557
1.6764,0.4888,37.9900,61,97,443561
1.7351,0.5034,37.8000,61,97,443565
1.7155,0.4888,37.9300,61,97,443568
1.7351,0.4936,37.8700,61,97,443572
1.7351,0.4888,38.1500,61,97,443575
1.7449,0.5083,37.9600,61,97,443578
1.7693,0.4936,37.8300,61,97,443582
1.7351,0.4888,37.9600,61,97,443585
1.7595,0.4839,37.8300,61,97,443588
1.7253,0.4888,37.9600,61,97,443591
1.7644,0.4888,37.9600,61,97,443595
1.7546,0.4888,37.1900,61,97,443598
1.7546,0.4888,37.9900,61,97,443601
1.7791,0.4888,37.8300,61,97,443606
1.7449,0.5034,37.9600,61,97,443609
1.7449,0.4888,37.9900,61,97,443612
1.7693,0.4936,37.1300,61,97,443616
1.7546,0.4888,37.9600,61,97,443619
1.7986,0.4936,37.7400,61,97,443622
1.7840,0.4888,37.9000,61,97,443626
1.7791,0.4888,37.9600,61,97,443629
1.7986,0.4936,37.9000,61,97,443632
1.7840,0.4888,37.9900,61,97,443635
1.8377,0.4985,37.6200,61,97,443639
1.7986,0.4888,37.8700,61,97,443642
1.8035,0.4888,37.9600,61,97,443645
1.8084,0.4985,37.9300,61,97,443650
1.7986,0.4888,37.9600,61,97,443653
1.8524,0.5083,37.7400,61,97,443656
1.8084,0.4839,37.9600,61,97,443660
1.8035,0.4888,37.9300,61,97,443663
1.8084,0.4936,37.9600,61,97,443666
1.7986,0.4839,38.0200,61,97,443670
1.8377,0.5083,37.8700,61,97,443673
1.8035,0.4985,37.9300,61,97,443676
1.8035,0.4936,37.8300,61,97,443679
1.7889,0.4888,37.9300,61,97,443683
1.7986,0.4839,37.9600,61,97,443686
1.8328,0.4985,37.8000,61,97,443689
1.8084,0.4839,37.9600,61,97,443694
1.8182,0.4985,37.8700,61,97,443697
1.7791,0.4985,37.9600,61,97,443700
1.7693,0.4888,37.9900,61,97,443704
1.7791,0.5083,37.9000,61,97,443707
1.7791,0.4839,37.9600,61,97,443710
1.7840,0.4888,37.8000,61,97,443713
1.7693,0.4888,38.0200,61,97,443717
1.7791,0.4888,37.9600,61,97,443720
1.8035,0.4936,37.9000,61,97,443723
1.7986,0.4888,37.9600,61,97,443727
1.8328,0.4888,37.7100,61,97,443730
1.7889,0.4888,37.9000,61,97,443734
1.7791,0.4888,37.9900,61,97,443738
1.7840,0.4936,37.9300,61,97,443741
1.7693,0.4936,37.9600,61,97,443744
1.8182,0.4985,37.7100,61,97,443748
1.8035,0.4936,37.8700,61,97,443751
1.8084,0.4888,37.9600,61,97,443754
1.8182,0.4888,37.9300,61,97,443757
1.8231,0.4839,37.9600,61,97,443761
1.8524,0.5083,36.9500,61,97,443764
1.8035,0.4936,37.9000,61,97,443767
1.7889,0.4888,37.9000,61,97,443771
1.7840,0.5181,37.9900,61,97,443774
1.7986,0.4888,37.9900,61,97,443778
1.8475,0.5034,37.8000,61,97,443782
1.8524,0.4888,37.9600,61,97,443785
1.8426,0.4936,37.8700,61,97,443788
1.8182,0.5132,38.0200,61,97,443791
1.8035,0.4888,37.9300,61,97,443795
1.8133,0.4936,37.9000,61,97,443798
1.7889,0.4839,37.9300,61,97,443801
1.8133,0.4985,37.8700,61,97,443805
1.7889,0.4888,37.9600,61,97,443808
1.7937,0.4888,37.9600,61,97,443811
1.8231,0.5034,37.8300,61,97,443815
1.7986,0.4888,38.0500,61,97,443819
1.8231,0.5181,37.7700,61,97,443822
1.8182,0.4888,37.9300,61,97,443826
1.8133,0.4888,38.0800,61,97,443829
1.8475,0.4985,37.8300,61,97,443832
1.8377,0.4888,37.9900,61,97,443835
1.8817,0.4985,37.7100,61,97,443839
1.8426,0.4888,37.9300,61,97,443842
1.8328,0.4888,38.1800,61,97,443845
1.8377,0.4936,37.9600,61,97,443849
1.8280,0.4888,37.9600,61,97,443852
1.8817,0.5083,37.6500,61,97,443855
1.8426,0.4839,37.9300,61,97,443859
1.8475,0.4839,37.9600,61,97,443863
1.8231,0.4839,37.9600,61,97,443866
1.8133,0.4888,37.9900,61,97,443870
1.8475,0.5034,37.7700,61,97,443873
1.8084,0.4936,37.9300,61,97,443876
1.7986,0.4888,37.8700,61,97,443879
1.7986,0.4643,37.9900,61,97,443883
1.8133,0.4888,37.9600,61,97,443886
1.8573,0.4985,37.7700,61,97,443889
1.8231,0.4888,37.9900,61,97,443893
1.8475,0.4839,37.8300,61,97,443896
1.8133,0.4888,37.8700,61,97,443899
1.8182,0.4888,37.9600,61,97,443904
1.8426,0.4936,37.9900,61,97,443907
1.8280,0.4790,37.9600,61,97,443910
1.8671,0.4936,37.9000,61,97,443914
1.8426,0.4888,37.9000,61,97,443917
1.8622,0.4888,37.9900,61,97,443920
1.8622,0.4888,37.9600,61,97,443923
1.8426,0.4888,37.9900,61,97,443927
1.8573,0.4985,37.7700,61,97,443930
1.8182,0.4839,37.9600,61,97,443933
1.8231,0.4839,37.9600,61,97,443937
1.8524,0.4985,37.9900,61,97,443940
1.8573,0.4888,37.9600,61,97,443943
1.9110,0.4985,37.6200,61,97,443948
1.8866,0.4985,37.8700,61,97,443951
1.8671,0.4888,38.0200,61,97,443954
1.8426,0.4985,37.9300,61,97,443958
1.8084,0.4888,37.9600,61,97,443961
1.8475,0.5034,37.6500,61,97,443964
1.8133,0.4888,37.9000,61,97,443967
1.8133,0.4888,37.9300,61,97,443971
1.8231,0.4936,37.9300,61,97,443974
1.8426,0.4888,37.9900,61,97,443977
1.9013,0.5034,37.7700,61,97,443981
1.8915,0.4888,37.9600,61,97,443984
1.8817,0.4888,37.8700,61,97,443987
1.8671,0.4985,37.9600,61,97,443992
1.8719,0.4888,37.9900,61,97,443995
1.9159,0.5034,37.9000,61,97,443998
1.9159,0.4888,37.9600,61,97,444001
1.9599,0.4936,37.8000,61,97,444005
1.9355,0.4790,37.9600,61,97,444008
1.9355,0.4839,37.9600,61,97,444011
1.9599,0.4985,38.1800,61,97,444015
2.0039,0.5034,37.8700,61,97,444019
1.9892,0.4888,37.9600,61,97,444023
2.0039,0.4985,37.6800,61,97,444026
1.9404,0.4839,37.9000,61,97,444029
1.9159,0.4888,37.9600,61,97,444034
1.8964,0.4936,37.9300,61,97,444037
1.8671,0.4888,37.9300,61,97,444040
1.9110,0.5034,37.6200,61,97,444044
1.8475,0.4888,37.9300,61,97,444047
1.8671,0.4888,37.9300,61,97,444050
1.8573,0.4888,38.0200,61,97,444053
1.8719,0.4839,37.9600,61,97,444057
1.8768,0.5034,37.6800,61,97,444060
1.8231,0.4936,37.9000,61,97,444063
1.8182,0.4839,37.8700,61,97,444067
1.7791,0.4985,37.9600,61,97,444070
1.7595,0.4839,37.9600,61,97,444073
1.7693,0.4985,37.7700,61,97,444078
1.7302,0.4936,37.9300,61,97,444081
1.7400,0.4936,38.1100,61,97,444084
1.7155,0.5132,37.9600,61,97,444088
1.7253,0.4888,37.9900,61,97,444091
1.7498,0.4936,37.8700,61,97,444094
1.7400,0.4888,37.9600,61,97,444097
1.7742,0.4888,37.8000,61,97,444101
1.7400,0.4888,37.9600,61,97,444104
1.7449,0.4643,37.9900,61,97,444107
1.7595,0.4985,37.9000,61,97,444111
1.7644,0.4888,37.9600,61,97,444114
1.7889,0.4936,37.7400,61,97,444118
1.7791,0.4839,37.9900,61,97,444122
1.7889,0.4888,38.1100,61,97,444125
1.8328,0.4936,37.9300,61,97,444128
1.7986,0.4888,37.9900,61,97,444132
1.8671,0.4839,37.6800,61,97,444135
1.8084,0.4936,37.9300,61,97,444138
1.7937,0.5083,37.9600,61,97,444141
1.8133,0.4936,37.9600,61,97,444145
1.8280,0.4888,37.9600,61,97,444148
1.9257,0.5083,37.6800,61,97,444151
1.9453,0.4936,37.1000,61,97,444155
2.0332,0.4888,37.9600,61,97,444158
2.2043,0.4888,37.9600,61,97,444162
2.4731,0.4888,38.1500,61,97,444166
2.9032,0.4936,37.8000,61,97,444169
3.2405,0.4888,37.9600,61,97,444172
3.6119,0.4888,37.8700,61,97,444175
3.8172,0.4790,37.7400,61,97,444179
3.9394,0.4888,38.0200,61,97,444182
3.9492,0.4985,38.1500,61,97,444185
3.6706,0.4888,37.9900,61,97,444189
3.3480,0.4936,37.8000,61,97,444192
2.8837,0.4888,37.9900,61,97,444195
2.4145,0.4888,37.9900,61,97,444199
2.0137,0.5034,37.8700,61,97,444203
1.6520,0.4936,37.9600,61,97,444206
1.4858,0.4936,37.8300,61,97,444209
1.3783,0.4839,37.8300,61,97,444213
1.3636,0.4985,37.9900,61,97,444216
1.3783,0.4888,37.9300,61,97,444219
1.3832,0.4985,37.9900,61,97,444223
1.4174,0.4936,37.7400,61,97,444226
1.4076,0.4936,37.9300,61,97,444229
1.4223,0.4839,37.9600,61,97,444233
1.4565,0.4936,37.9300,61,97,444236
1.4663,0.4985,38.0500,61,97,444239
1.5543,0.4936,37.6800,61,97,444243
1.5005,0.4888,37.9300,61,97,444247
1.5249,0.4888,37.9900,61,97,444250
1.5494,0.4643,37.9300,61,97,444253
1.5591,0.4936,37.9600,61,97,444257
1.6129,0.5034,37.6800,61,97,444260
1.5934,0.4936,37.9300,61,97,444263
1.6031,0.4888,37.9300,61,97,444267
1.6178,0.4888,37.9600,61,97,444270
1.6569,0.4888,37.9600,61,97,444273
1.6764,0.4985,37.8700,61,97,444277
1.6667,0.4936,37.9300,61,97,444280
1.6569,0.4643,37.8300,61,97,444283
1.6618,0.4936,37.9900,61,97,444288
1.6813,0.4888,37.9600,61,97,444291
1.7253,0.4985,37.8300,61,97,444294
1.7302,0.4839,37.9600,61,97,444297
1.7595,0.4936,37.7700,61,97,444301
1.7302,0.4888,37.9900,61,97,444304
1.7449,0.4888,38.0200,61,97,444307
1.7644,0.4839,37.9000,61,97,444311
1.7644,0.4888,37.9600,61,97,444314
1.7937,0.4888,37.7700,61,97,444317
1.7742,0.4888,37.9600,61,97,444321
1.7840,0.4888,37.9300,61,97,444324
1.8182,0.4936,37.8700,61,97,444327
1.8084,0.4888,37.9600,61,97,444332
1.8573,0.4936,37.7400,61,97,444335
1.8475,0.4936,37.9000,61,97,444338
1.8475,0.4888,37.9600,61,97,444341
1.8817,0.4936,37.9300,61,97,444345
1.8817,0.4888,37.9600,61,97,444348
1.9648,0.4936,37.6500,61,97,444351
1.9257,0.4888,37.8700,61,97,444355
1.9355,0.4888,37.9600,61,97,444358
1.9599,0.4888,37.9600,61,97,444361
1.9648,0.4888,37.9600,61,97,444365
2.0332,0.5083,37.7400,61,97,444368
2.0088,0.4936,37.8000,61,97,444371
2.0332,0.4888,37.9000,61,97,444375
2.0772,0.4888,37.9600,61,97,444379
2.0772,0.4888,38.1100,61,97,444382
2.1505,0.4936,37.8000,61,97,444385
2.1505,0.4839,37.9300,61,97,444389
2.1896,0.4936,37.9000,61,97,444392
2.1848,0.4839,37.9600,61,97,444395
2.2092,0.4888,37.6500,61,97,444399
2.2483,0.4985,37.7700,61,97,444402
2.2239,0.4888,37.9600,61,97,444405
2.2727,0.4985,37.8300,61,97,444409
2.2385,0.4888,37.9600,61,97,444412
2.2630,0.4888,38.0800,61,97,444416
2.2972,0.4888,37.8700,61,97,444419
2.2776,0.4888,37.9600,61,97,444423
2.3021,0.4936,37.7700,61,97,444426
2.2874,0.4888,37.9600,61,97,444429
2.2727,0.4888,38.0500,61,97,444433
2.2825,0.4985,37.9000,61,97,444436
2.2630,0.4888,37.9600,61,97,444439
2.2874,0.4936,37.7100,61,97,444443
2.2092,0.4985,37.9300,61,97,444446
2.1945,0.4839,37.9600,61,97,444449
2.1408,0.4936,37.7400,61,97,444452
2.0870,0.4888,37.9900,61,97,444456
2.0577,0.4985,37.6800,61,97,444460
1.9697,0.4936,37.8300,61,97,444463
1.8866,0.4888,37.9600,61,97,444467
1.8328,0.4936,38.1100,61,97,444470
1.7742,0.4888,37.9600,61,97,444473
1.7546,0.5083,37.7400,61,97,444477
1.7009,0.4985,37.9000,61,97,444480
1.6227,0.4888,37.9000,61,97,444483
1.5738,0.4888,37.9600,61,97,444486
1.5445,0.4888,37.9900,61,97,444490
1.5494,0.5034,37.8000,61,97,444493
1.5005,0.4888,37.9300,61,97,444496
1.4858,0.4888,37.8300,61,97,444500
1.4565,0.4888,37.9600,61,97,444504
1.4321,0.4888,37.9900,61,97,444507
1.4370,0.4936,37.9300,61,97,444511
1.4027,0.4888,37.9000,61,97,444514
1.4125,0.4839,37.8000,61,97,444517
1.3978,0.4888,37.9600,61,97,444521
1.4174,0.5034,37.9600,61,97,444524
1.4565,0.4985,37.7700,61,97,444527
1.4321,0.4936,38.0500,61,97,444530
1.4565,0.4888,37.8000,61,97,444534
1.4467,0.4888,37.9000,61,97,444537
1.4516,0.4888,37.9600,61,97,444540
1.4712,0.4936,37.8300,61,97,444545
1.4761,0.4936,37.9600,61,97,444548
1.5249,0.4985,37.6800,61,97,444551
1.5152,0.4839,37.9000,61,97,444555
1.5298,0.4839,37.9900,61,97,444558
1.5543,0.4936,37.9300,61,97,444561
1.5445,0.4888,37.9900,61,97,444564
1.6031,0.5034,37.6800,61,97,444568
1.5445,0.4888,37.8300,61,97,444571
1.5591,0.4790,37.9600,61,97,444574
1.5787,0.4936,37.9900,61,97,444578
1.6031,0.4888,37.9600,61,97,444581
1.6422,0.5083,37.8000,61,97,444584
1.6178,0.4985,37.8700,61,97,444589
1.6178,0.4888,37.9000,61,97,444592
1.6227,0.4888,37.9300,61,97,444595
1.6325,0.4839,37.9600,61,97,444599
1.6716,0.4985,37.7400,61,97,444602
1.6471,0.4936,37.9300,61,97,444605
1.6764,0.4888,37.8300,61,97,444609
1.6667,0.4888,37.9600,61,97,444612
1.6764,0.4888,37.9600,61,97,444615
1.7009,0.4936,37.9000,61,97,444618
1.6911,0.4888,37.9600,61,97,444622
1.7351,0.4985,37.8700,61,97,444625
1.7155,0.4888,37.9600,61,97,444628
1.7302,0.4888,37.9900,61,97,444634
1.7400,0.4888,37.9900,61,97,444637
1.7644,0.4985,37.8700,61,97,444641
1.7400,0.4888,38.1800,61,97,444644
1.7742,0.4985,37.6500,61,97,444647
1.7546,0.4936,37.8300,61,97,444650
1.7351,0.4888,37.9900,61,97,444654
1.7400,0.4839,37.9000,61,97,444657
1.7351,0.4888,37.9600,61,97,444660
1.7889,0.5034,37.7100,61,97,444664
1.7498,0.4936,37.9300,61,97,444667
1.7449,0.5034,37.9000,61,97,444670
1.7498,0.4888,37.9300,61,97,444675
1.7546,0.4888,38.0200,61,97,444678
1.8133,0.5230,37.8000,61,97,444681
1.7791,0.4888,37.9300,61,97,444685
1.7937,0.4936,37.8000,61,97,444688
1.7693,0.4985,37.9600,61,97,444691
1.7791,0.4888,38.1800,61,97,444694
1.8377,0.4839,37.8700,61,97,444698
1.7937,0.4888,37.9300,61,97,444701
1.8035,0.4985,37.8000,61,97,444704
1.7644,0.4888,37.9600,61,97,444708
1.7595,0.4888,37.9600,61,97,444711
1.7986,0.4985,37.8000,61,97,444715
1.7644,0.4888,37.9000,61,97,444719
1.7986,0.4985,37.8000,61,97,444722
1.7449,0.4888,37.9300,61,97,444725
1.7351,0.4888,37.9600,61,97,444729
1.7449,0.4936,37.8700,61,97,444732
1.7400,0.4888,37.9600,61,97,444735
1.7889,0.4888,37.7100,61,97,444738
1.7742,0.4888,38.0500,61,97,444742
1.7791,0.4888,37.9600,61,97,444745
1.8133,0.4985,37.9300,61,97,444748
1.7693,0.4888,37.9900,61,97,444752
1.8035,0.5083,37.6500,61,97,444755
1.7546,0.4643,37.9600,61,97,444759
1.7595,0.4888,37.9900,61,97,444763
1.7791,0.4839,37.9300,61,97,444766
1.7693,0.5230,37.9900,61,97,444769
1.8231,0.5083,37.6800,61,97,444772
1.7889,0.4936,37.9000,61,97,444776
1.7791,0.4936,37.9000,61,97,444779
1.7742,0.4888,37.9600,61,97,444782
1.7693,0.4888,37.9900,61,97,444786
1.8426,0.4985,37.7400,61,97,444789
1.7742,0.4936,37.9000,61,97,444792
1.7840,0.4888,37.8700,61,97,444796
1.7693,0.4888,37.9600,61,97,444800
1.7693,0.4888,37.9300,61,97,444803
1.7986,0.4936,37.9300,61,97,444807
1.7742,0.4888,37.9000,61,97,444810
1.7937,0.4888,37.8300,61,97,444813
1.7595,0.4888,37.9600,61,97,444816
1.7644,0.5230,37.9900,61,97,444820
1.7791,0.4888,37.9000,61,97,444823
1.7791,0.4888,38.0800,61,97,444826
1.8084,0.4888,37.8300,61,97,444830
1.7889,0.4888,37.9600,61,97,444833
1.7937,0.4888,38.0500,61,97,444836
1.8084,0.4936,37.8700,61,97,444840
1.7840,0.4888,38.2100,61,97,444844
1.8280,0.4985,37.7100,61,97,444847
1.7986,0.4936,37.9300,61,97,444850
1.7937,0.4888,37.9900,61,97,444854
1.8182,0.4936,37.9000,61,97,444857
1.7937,0.4888,38.0200,61,97,444860
1.8328,0.5181,37.6800,61,97,444864
1.7840,0.4888,37.9300,61,97,444867
1.7791,0.4839,37.9900,61,97,444870
1.7791,0.4888,37.9600,61,97,444874
1.7791,0.4888,38.0200,61,97,444877
1.8328,0.5181,37.7400,61,97,444880
1.7937,0.4936,38.0200,61,97,444884
1.7986,0.4888,37.8700,61,97,444888
1.7986,0.4888,37.9600,61,97,444891
1.7986,0.4985,38.0200,61,97,444894
1.8475,0.5034,37.8300,61,97,444898
1.8280,0.4936,37.9300,61,97,444901
1.8475,0.4936,37.8700,61,97,444904
1.8280,0.4888,38.0200,61,97,444908
1.8182,0.4888,38.1800,61,97,444911
1.8328,0.4985,37.8000,61,97,444914
1.7889,0.4888,37.9600,61,97,444918
1.7986,0.5132,37.8300,61,97,444921
1.7742,0.4888,37.9600,61,97,444924
1.7840,0.4888,37.9600,61,97,444929
1.8084,0.4839,37.8700,61,97,444932
1.8133,0.4643,37.9600,61,97,444935
1.8426,0.5083,37.7700,61,97,444938
1.8377,0.4888,37.9600,61,97,444942
1.7986,0.4888,37.9600,61,97,444945
1.8035,0.4985,37.9000,61,97,444948
1.7986,0.4839,37.9900,61,97,444952
1.8426,0.4936,37.7100,61,97,444955
1.8377,0.4888,37.9600,61,97,444958
1.8280,0.4643,37.9900,61,97,444962
1.8377,0.5181,37.9000,61,97,444965
1.8280,0.4888,37.9600,61,97,444968
1.8671,0.4985,37.6500,61,97,444972
1.8231,0.4936,37.9300,61,97,444976
1.8182,0.4839,37.2500,61,97,444979
1.8280,0.4888,37.9300,61,97,444982
1.8377,0.4888,37.9600,61,97,444986
1.9110,0.5083,37.7400,61,97,444989
1.8671,0.4936,37.9000,61,97,444992
1.8426,0.4888,37.9000,61,97,444996
1.8133,0.4888,37.9600,61,97,444999
1.8133,0.4936,38.2100,61,97,445002
1.8671,0.4839,37.8300,61,97,445006
1.8573,0.4888,37.9000,61,97,445009
1.8964,0.4936,37.8300,61,97,445012
1.8915,0.4888,37.9900,61,97,445016
1.9159,0.4888,37.9900,61,97,445020
1.9306,0.4936,37.9300,61,97,445023
1.9257,0.4839,37.9600,61,97,445026
1.9550,0.4985,37.9000,61,97,445030
1.9355,0.4888,37.9600,61,97,445033
1.9892,0.4888,37.9300,61,97,445036
1.9941,0.4985,37.9300,61,97,445040
1.9648,0.4839,37.9600,61,97,445043
1.9892,0.4936,37.0100,61,97,445046
1.9501,0.4839,37.8700,61,97,445050
1.9208,0.4888,37.9900,61,97,445053
1.9257,0.4839,37.8700,61,97,445057
1.8768,0.4888,37.9600,61,97,445060
1.9159,0.4985,37.6500,61,97,445064
1.8719,0.4839,37.9000,61,97,445067
1.8622,0.4888,38.0800,61,97,445070
1.8573,0.4985,37.9300,61,97,445074
1.8377,0.4888,37.9900,61,97,445077
1.8719,0.5034,37.7400,61,97,445080
1.8182,0.4839,37.9300,61,97,445084
1.7791,0.4888,37.9300,61,97,445087
1.7791,0.4888,37.9600,61,97,445090
1.7595,0.4888,38.0800,61,97,445094
1.7986,0.5083,37.8000,61,97,445097
1.7889,0.4888,37.9000,61,97,445101
1.7449,0.4839,37.8700,61,97,445104
1.7595,0.4888,37.9600,61,97,445108
1.7204,0.4643,38.1100,61,97,445111
1.7498,0.5181,37.7700,61,97,445114
1.7302,0.4936,37.9300,61,97,445118
1.7595,0.4936,37.8000,61,97,445121
1.7498,0.4839,37.9600,61,97,445124
1.7595,0.4888,37.9900,61,97,445128
1.7889,0.4790,37.9000,61,97,445131
1.7742,0.4839,37.9600,61,97,445134
1.8035,0.4936,37.8300,61,97,445137
1.7742,0.4936,37.9300,61,97,445142
1.7791,0.4888,38.0200,61,97,445145
1.7889,0.4888,37.9000,61,97,445148
1.7840,0.4888,37.9900,61,97,445152
1.8280,0.4936,37.9300,61,97,445155
1.8084,0.4888,37.9600,61,97,445158
1.8133,0.4888,37.9300,61,97,445162
1.8133,0.4839,37.9300,61,97,445165
1.7937,0.4936,37.9900,61,97,445168
1.8671,0.4985,37.7100,61,97,445172
1.8084,0.4936,37.8000,61,97,445175
1.8182,0.4839,37.9600,61,97,445178
1.8719,0.4888,37.9300,61,97,445182
1.9159,0.4985,37.9600,61,97,445186
2.0772,0.5034,37.6800,61,97,445189
2.2141,0.4936,37.9600,61,97,445192
2.4878,0.4888,37.9000,61,97,445196
2.8592,0.4888,37.9600,61,97,445199
3.2649,0.4888,38.0500,61,97,445202
3.6755,0.5083,37.7700,61,97,445206
3.7977,0.4936,37.9300,61,97,445209
3.9101,0.4888,37.8700,61,97,445212
3.8221,0.5034,37.9900,61,97,445215
3.5826,0.4839,37.9600,61,97,445219
3.2845,0.4985,37.8700,61,97,445222
2.8250,0.4985,37.9600,61,97,445225
2.3998,0.4936,37.8000,61,97,445230
1.9648,0.4790,37.9600,61,97,445233
1.6520,0.4839,37.9900,61,97,445236
1.4809,0.4985,38.1500,61,97,445240
1.4076,0.4985,37.8700,61,97,445244
1.4370,0.4888,37.9600,61,97,445248
1.5005,0.4985,37.8000,61,97,445251
1.4907,0.4888,37.9000,61,97,445254
1.5152,0.4839,37.9600,61,97,445258
1.5347,0.4888,38.0800,61,97,445261
1.5494,0.5230,37.9600,61,97,445264
1.6129,0.4839,37.6500,61,97,445267
1.5787,0.4936,37.9300,61,97,445272
1.5934,0.4839,37.9600,61,97,445275
1.6031,0.4888,37.9600,61,97,445278
1.6178,0.4888,37.9900,61,97,445282
1.6862,0.5034,37.7400,61,97,445285
1.6667,0.4888,37.9600,61,97,445288
1.6960,0.4839,37.8700,61,97,445292
1.6862,0.4985,37.9600,61,97,445295
1.6911,0.4839,37.9600,61,97,445298
1.7351,0.5181,37.7100,61,97,445302
1.7155,0.4888,37.9300,61,97,445305
1.7302,0.4936,37.8300,61,97,445308
1.7155,0.4839,37.9600,61,97,445312
1.7204,0.4888,38.0500,61,97,445316
1.7498,0.4888,37.9000,61,97,445319
1.7400,0.4888,37.9600,61,97,445322
1.7937,0.4936,37.8300,61,97,445326
1.7840,0.4888,37.9600,61,97,445329
1.8035,0.4888,37.9600,61,97,445332
1.8231,0.5230,37.8700,61,97,445336
1.8182,0.4888,37.9900,61,97,445339
1.8524,0.4936,37.7700,61,97,445342
1.8280,0.4985,37.9600,61,97,445345
1.8377,0.4888,37.9600,61,97,445349
1.8671,0.4936,37.9000,61,97,445352
1.8671,0.4888,37.9900,61,97,445356
1.9257,0.4985,37.7400,61,97,445360
1.9208,0.4985,37.9300,61,97,445363
1.9306,0.4888,37.9600,61,97,445366
