ecg,gsr,temp,hr,spo2,timest
1.7009,0.1515,38.7700,93,99,265132
1.7058,0.1515,38.7100,93,99,265136
1.7351,0.1564,38.5500,93,99,265139
1.7058,0.1466,38.7100,93,99,265142
1.7351,0.1515,38.5500,93,99,265146
1.7155,0.1466,38.6200,93,99,265149
1.7449,0.1466,38.7100,93,99,265152
1.7400,0.1515,38.8400,93,99,265156
1.7204,0.1515,38.7100,93,99,265159
1.7644,0.1564,38.4600,93,99,265162
1.7302,0.1417,38.6500,93,99,265166
1.7253,0.1466,38.7400,93,99,265169
1.7351,0.1515,38.5200,93,99,265172
1.7204,0.1564,38.8100,93,99,265176
1.7693,0.1564,38.4300,93,99,265180
1.7204,0.1466,38.6500,93,99,265183
1.7155,0.1320,38.7100,93,99,265186
1.7204,0.1564,38.8100,93,99,265190
1.7155,0.1417,38.7400,93,99,265193
1.7595,0.1662,38.6800,93,99,265196
1.7253,0.1906,38.6500,93,99,265200
1.7155,0.1466,38.6200,93,99,265203
1.7058,0.1515,38.6500,93,99,265206
1.7009,0.1417,38.7400,93,99,265210
1.7302,0.1515,38.5500,93,99,265213
1.6960,0.1515,38.6800,93,99,265217
1.7107,0.1564,38.5800,93,99,265220
1.6764,0.1515,38.1100,93,99,265224
1.6764,0.1466,38.7400,93,99,265227
1.7009,0.1564,38.6500,93,99,265230
1.6813,0.1515,38.7400,93,99,265234
1.7009,0.1564,38.5800,93,99,265237
1.6716,0.1466,38.7100,93,99,265240
1.6667,0.1711,38.7100,93,99,265244
1.6667,0.1515,38.5800,93,99,265247
1.6618,0.1515,38.7400,93,99,265250
1.7204,0.1564,38.5200,93,99,265254
1.6667,0.1515,38.6500,93,99,265257
1.7107,0.1515,38.7100,93,99,265261
1.6960,0.1564,38.6200,93,99,265264
1.7058,0.1906,38.6800,93,99,265268
1.7644,0.1564,38.4300,93,99,265271
1.7644,0.1515,38.6200,93,99,265274
1.7742,0.2053,38.7100,93,99,265278
1.7937,0.1564,38.6800,93,99,265281
1.7937,0.1515,38.7400,93,99,265284
1.8524,0.1711,38.4600,93,99,265288
1.8280,0.1515,38.5800,93,99,265291
1.8328,0.1515,38.6200,93,99,265294
1.8622,0.1515,38.7100,93,99,265298
1.8719,0.1760,38.7100,93,99,265302
1.9453,0.1613,38.5500,93,99,265305
1.9257,0.1564,38.6500,93,99,265308
1.9306,0.1564,38.5800,93,99,265312
1.9013,0.1564,38.7100,93,99,265315
1.8719,0.1515,38.8100,93,99,265318
1.8622,0.1564,38.6500,93,99,265322
1.8084,0.1515,38.8400,93,99,265325
1.8035,0.1760,38.5500,93,99,265328
1.7400,0.1515,38.8400,93,99,265332
1.7155,0.1515,38.7400,93,99,265335
1.7058,0.1564,38.6200,93,99,265338
1.6618,0.1564,38.7100,93,99,265342
1.6569,0.1564,38.5200,93,99,265346
1.6178,0.1515,38.7400,93,99,265349
1.6031,0.1808,38.6800,93,99,265352
1.6129,0.1515,38.5800,93,99,265356
1.5836,0.1515,38.6200,93,99,265359
1.6129,0.1564,38.4600,93,99,265362
1.5836,0.1564,38.7700,93,99,265366
1.5836,0.1466,38.7100,93,99,265369
1.6031,0.1564,38.6800,93,99,265372
1.5934,0.1515,38.7100,93,99,265376
1.6373,0.1564,38.4300,93,99,265379
1.6031,0.1515,38.6500,93,99,265382
1.6080,0.1515,38.7100,93,99,265387
1.6178,0.1564,38.7100,93,99,265390
1.6178,0.1515,38.7100,93,99,265393
1.6667,0.1662,38.5500,93,99,265397
1.6373,0.1613,38.7400,93,99,265400
1.6373,0.1515,38.5800,93,99,265403
1.6080,0.1613,38.6500,93,99,265406
1.5787,0.1417,38.7100,93,99,265410
1.5640,0.1613,38.5500,93,99,265413
1.4956,0.1564,38.6800,93,99,265416
1.4858,0.1564,38.5800,93,99,265420
1.5298,0.1515,39.0000,93,99,265423
1.7058,0.1466,38.7100,93,99,265426
2.0479,0.1613,38.6500,93,99,265431
2.4536,0.1515,38.0500,93,99,265434
2.9961,0.1564,38.8400,93,99,265437
3.4360,0.1515,38.7100,93,99,265440
3.7195,0.1515,38.7100,93,99,265444
3.7634,0.1711,38.6200,93,99,265447
3.4848,0.1515,38.7100,93,99,265450
3.1036,0.1515,38.6200,93,99,265454
2.5953,0.1564,38.7100,93,99,265457
2.1799,0.1515,38.7100,93,99,265460
1.8671,0.1515,38.6500,93,99,265464
1.6227,0.1515,38.7100,93,99,265467
1.5249,0.1662,38.4600,93,99,265470
1.4223,0.1515,38.6200,93,99,265475
1.3783,0.1515,38.7100,93,99,265478
1.3636,0.1564,38.6800,93,99,265481
1.3539,0.1808,38.6500,93,99,265485
1.3978,0.1662,38.4300,93,99,265488
1.3734,0.1515,38.7100,93,99,265491
1.4076,0.1564,38.6500,93,99,265494
1.3930,0.1564,38.7100,93,99,265498
1.3978,0.1515,38.8400,93,99,265501
1.4418,0.1613,38.5500,93,99,265504
1.4321,0.1515,38.6500,93,99,265508
1.4467,0.1515,38.6200,93,99,265511
1.4418,0.1515,38.7400,93,99,265515
1.4907,0.1515,38.7400,93,99,265519
1.5005,0.1515,38.7400,93,99,265522
1.4956,0.1515,38.6500,93,99,265525
1.5543,0.1564,38.5800,93,99,265529
1.5103,0.1515,38.6500,93,99,265532
1.5249,0.1466,38.7100,93,99,265535
1.5591,0.1613,38.6200,93,99,265538
1.5494,0.1564,38.8100,93,99,265542
1.5738,0.1564,38.5200,93,99,265545
1.5689,0.1515,38.6500,93,99,265548
1.5787,0.1466,38.6500,93,99,265552
1.6080,0.1613,38.5200,93,99,265555
1.5982,0.1515,38.7400,93,99,265559
1.6471,0.1564,38.4900,93,99,265563
1.6178,0.1515,38.6500,93,99,265566
1.6227,0.1417,38.7400,93,99,265569
1.6373,0.1515,38.8100,93,99,265573
1.6373,0.1564,38.6800,93,99,265576
1.6862,0.1613,38.4300,93,99,265579
1.6520,0.1564,38.6800,93,99,265582
1.6618,0.1466,38.6800,93,99,265586
1.6618,0.1515,38.7100,93,99,265589
1.6716,0.1515,38.7100,93,99,265592
1.7155,0.1662,38.4900,93,99,265596
1.7009,0.1564,38.6800,93,99,265600
1.7204,0.1515,38.6200,93,99,265603
1.7204,0.1564,38.7100,93,99,265607
1.7253,0.1515,38.7400,93,99,265610
1.7644,0.1466,38.5200,93,99,265613
1.7546,0.1564,38.6800,93,99,265617
1.7840,0.1564,38.6200,93,99,265620
1.7742,0.1515,38.7100,93,99,265623
1.7937,0.1515,38.9300,93,99,265627
1.8280,0.1564,38.6200,93,99,265630
1.8182,0.1564,38.7100,93,99,265633
1.8524,0.1515,38.5800,93,99,265636
1.8231,0.1564,38.6800,93,99,265640
1.8328,0.1515,37.8700,93,99,265644
1.8622,0.1466,38.5800,93,99,265647
1.8573,0.1515,38.7100,93,99,265651
1.9062,0.1515,38.4900,93,99,265654
1.8866,0.1564,38.7100,93,99,265657
1.8964,0.1515,38.7700,93,99,265661
1.9159,0.1662,38.6800,93,99,265664
1.9208,0.1564,38.6800,93,99,265668
1.9208,0.1515,38.7100,93,99,265671
1.9648,0.1613,38.4900,93,99,265674
1.9404,0.1564,38.6800,93,99,265678
1.9306,0.1515,38.6200,93,99,265681
1.9257,0.1515,38.7400,93,99,265684
1.9208,0.1515,38.7400,93,99,265688
1.9404,0.1613,38.5500,93,99,265692
1.9062,0.1857,38.6800,93,99,265695
1.9110,0.1564,38.5500,93,99,265698
1.8671,0.1515,38.8100,93,99,265702
1.8573,0.1564,38.7400,93,99,265705
1.8524,0.1515,38.5800,93,99,265708
1.8280,0.1564,38.7100,93,99,265712
1.8475,0.1564,38.5800,93,99,265715
1.7986,0.1466,38.7100,93,99,265718
1.7889,0.1515,38.7100,93,99,265722
1.8035,0.1564,38.5800,93,99,265725
1.7791,0.1564,38.7100,93,99,265729
1.7986,0.1564,38.4900,93,99,265732
1.7693,0.1613,38.5800,93,99,265736
1.7644,0.1515,38.7100,93,99,265739
1.7742,0.1906,38.6500,93,99,265742
1.7742,0.1564,38.7400,93,99,265746
1.8035,0.1515,38.4300,93,99,265749
1.7644,0.1564,38.6200,93,99,265752
1.7693,0.1515,38.7100,93,99,265756
1.7791,0.1564,38.6200,93,99,265759
1.7693,0.1564,38.7100,93,99,265762
1.8328,0.1711,38.4900,93,99,265766
1.8231,0.1564,38.6500,93,99,265769
1.7840,0.1515,38.6500,93,99,265773
1.7742,0.1515,38.6500,93,99,265776
1.7791,0.1564,38.7100,93,99,265780
1.8182,0.1662,38.6200,93,99,265783
1.8035,0.1564,38.6800,93,99,265786
1.8182,0.1564,38.5800,93,99,265790
1.7986,0.1613,38.7100,93,99,265793
1.8084,0.1564,38.7100,93,99,265796
1.8377,0.1662,38.8100,93,99,265800
1.8133,0.1564,38.7100,93,99,265803
1.8377,0.1613,38.6200,93,99,265806
1.8084,0.1515,38.6800,93,99,265810
1.8182,0.1320,38.7100,93,99,265814
1.8231,0.1857,38.5500,93,99,265817
1.8133,0.1564,38.7400,93,99,265820
1.8328,0.1515,38.5200,93,99,265824
1.8035,0.1613,38.6500,93,99,265827
1.8084,0.1564,38.7100,93,99,265830
1.8231,0.1613,38.6800,93,99,265834
1.7986,0.1564,38.7100,93,99,265837
1.8377,0.1564,38.4600,93,99,265840
1.7889,0.1466,38.6800,93,99,265844
1.7840,0.1515,38.7400,93,99,265847
1.7937,0.1564,38.6800,93,99,265850
1.7742,0.1515,38.7100,93,99,265854
1.8231,0.1711,38.4600,93,99,265858
1.7840,0.1564,38.5800,93,99,265861
1.7693,0.1466,38.7100,93,99,265864
1.7742,0.1613,38.6800,93,99,265868
1.7644,0.1515,38.7400,93,99,265871
1.8035,0.1613,38.7100,93,99,265874
1.7791,0.1564,38.6800,93,99,265878
1.7742,0.1515,38.6200,93,99,265881
1.7595,0.1613,38.8100,93,99,265884
1.7595,0.1564,38.7100,93,99,265888
1.7791,0.1613,38.6200,93,99,265891
1.7546,0.1564,38.6800,93,99,265894
1.7742,0.1515,38.5500,93,99,265899
1.7498,0.1613,38.7100,93,99,265902
1.7546,0.1515,38.7700,93,99,265905
1.7546,0.1564,38.6500,93,99,265909
1.7498,0.1564,38.7100,93,99,265912
1.7840,0.1515,38.5200,93,99,265915
1.7693,0.1515,38.7100,93,99,265918
1.7937,0.1515,38.7100,93,99,265922
1.8328,0.1613,38.5800,93,99,265925
1.8280,0.1515,38.7100,93,99,265928
1.9159,0.1564,38.4600,93,99,265932
1.8817,0.1564,38.6200,93,99,265935
1.8768,0.1515,38.7100,93,99,265938
1.8964,0.1515,38.6500,93,99,265943
1.8866,0.1515,38.7100,93,99,265946
1.9795,0.1662,38.4300,93,99,265949
1.9404,0.1564,38.5500,93,99,265953
1.9501,0.1466,38.6800,93,99,265956
1.9795,0.1564,38.6800,93,99,265959
1.9941,0.1515,38.6500,93,99,265962
2.0528,0.1711,38.5200,93,99,265966
2.0088,0.1613,37.8300,93,99,265969
1.9746,0.1515,38.7700,93,99,265972
1.9257,0.1564,38.7100,93,99,265976
1.8915,0.1515,38.7100,93,99,265979
1.8866,0.1711,38.5800,93,99,265982
1.8231,0.1564,38.7100,93,99,265987
1.8133,0.1564,38.5800,93,99,265990
1.7595,0.1564,38.6800,93,99,265993
1.7351,0.1515,38.6800,93,99,265997
1.7449,0.1613,38.5800,93,99,266000
1.6911,0.1857,38.7400,93,99,266003
1.6960,0.1564,38.6200,93,99,266006
1.6569,0.1515,38.6800,93,99,266010
1.6569,0.1515,38.2100,93,99,266013
1.6667,0.1564,38.5800,93,99,266016
1.6520,0.1564,38.6800,93,99,266020
1.6764,0.1564,38.5200,93,99,266023
1.6471,0.1564,38.6500,93,99,266027
1.6569,0.1515,38.6500,93,99,266031
1.6911,0.1662,38.6500,93,99,266034
1.6618,0.1515,38.7700,93,99,266037
1.7107,0.1564,38.4600,93,99,266041
1.6716,0.1515,38.6500,93,99,266044
1.6862,0.1564,38.7100,93,99,266047
1.7009,0.1564,38.6800,93,99,266050
1.7009,0.1613,38.7100,93,99,266054
1.7546,0.1760,38.4600,93,99,266057
1.7058,0.1564,38.6500,93,99,266060
1.6716,0.1515,38.6500,93,99,266064
1.6276,0.1564,38.7400,93,99,266067
1.5787,0.1564,38.7100,93,99,266071
1.6031,0.1613,38.5500,93,99,266075
1.5934,0.1613,38.5500,93,99,266078
1.7498,0.1564,38.5800,93,99,266081
1.9648,0.1515,38.7100,93,99,266085
2.3460,0.1515,38.7100,93,99,266088
2.8690,0.1613,38.6200,93,99,266091
3.3284,0.1515,38.7100,93,99,266094
3.7341,0.1564,38.6500,93,99,266098
3.8074,0.1613,38.7100,93,99,266101
3.6559,0.1515,38.8700,93,99,266104
3.2942,0.1564,38.6200,93,99,266108
2.8250,0.1564,38.7100,93,99,266112
2.4242,0.1564,38.5800,93,99,266115
2.0332,0.1613,38.7100,93,99,266119
1.7840,0.1564,38.7100,93,99,266122
1.6373,0.1613,38.5800,93,99,266125
1.5249,0.1564,38.7100,93,99,266129
1.5005,0.1564,38.4900,93,99,266132
1.4614,0.1564,38.6200,93,99,266135
1.4614,0.1613,38.7400,93,99,266138
1.4614,0.1808,38.6500,93,99,266142
1.4516,0.1564,38.7100,93,99,266145
1.4956,0.1613,38.4300,93,99,266148
1.4663,0.1564,38.6200,93,99,266152
1.4761,0.1515,38.7100,93,99,266156
1.5054,0.1564,38.6800,93,99,266159
1.5054,0.1564,38.7100,93,99,266163
1.5640,0.1711,38.4900,93,99,266166
1.5445,0.1662,38.6200,93,99,266169
1.5640,0.1515,38.6500,93,99,266173
1.5689,0.1564,38.6800,93,99,266176
1.5836,0.1515,38.7100,93,99,266179
1.6227,0.1613,38.6200,93,99,266182
1.6422,0.1564,38.6800,93,99,266186
1.6520,0.1564,38.6800,93,99,266189
1.6373,0.1564,38.7100,93,99,266192
1.6569,0.1515,38.7400,93,99,266196
1.6960,0.1662,38.6200,93,99,266200
1.6862,0.1564,38.6800,93,99,266203
1.7204,0.1613,38.5500,93,99,266207
1.7351,0.1564,38.6500,93,99,266210
1.7107,0.1564,38.7100,93,99,266213
1.7302,0.1906,38.6200,93,99,266217
1.7302,0.1564,38.7100,93,99,266220
1.7546,0.1564,38.5200,93,99,266223
1.7351,0.1466,38.6200,93,99,266226
1.7449,0.1564,38.7100,93,99,266230
1.7742,0.1613,38.6500,93,99,266233
1.7986,0.1564,38.7400,93,99,266236
1.8231,0.1613,38.4900,93,99,266241
1.7840,0.1564,38.6500,93,99,266244
1.7986,0.1564,38.7100,93,99,266247
1.8084,0.1564,38.7700,93,99,266251
1.8182,0.1564,38.7100,93,99,266254
1.8817,0.1711,38.6800,93,99,266257
1.8671,0.1613,38.6500,93,99,266261
1.8622,0.1564,38.6800,93,99,266264
1.8671,0.1564,38.6800,93,99,266267
1.8768,0.1515,38.7100,93,99,266271
1.9257,0.1906,38.5200,93,99,266274
1.9795,0.1564,38.6200,93,99,266278
1.9648,0.1564,38.7100,93,99,266281
2.0039,0.1564,38.6800,93,99,266285
1.9795,0.1564,38.6800,93,99,266288
1.9941,0.1564,38.7100,93,99,266292
2.0186,0.1564,38.7100,93,99,266295
2.0088,0.1662,38.7100,93,99,266298
2.0577,0.1564,38.5200,93,99,266302
2.0235,0.1564,38.7700,93,99,266305
2.0381,0.1564,38.7100,93,99,266308
2.0674,0.1613,38.6500,93,99,266312
2.0479,0.1515,38.7100,93,99,266315
2.1017,0.1662,38.4300,93,99,266318
2.0821,0.1613,38.6200,93,99,266321
2.0626,0.1515,38.7100,93,99,266326
2.0870,0.1613,38.6800,93,99,266329
2.0626,0.1564,38.7400,93,99,266332
2.1163,0.1613,38.4300,93,99,266336
2.0723,0.1564,38.5800,93,99,266339
2.0577,0.1564,38.6800,93,99,266342
2.0528,0.1564,38.7700,93,99,266346
2.0381,0.1515,38.7100,93,99,266349
2.0772,0.1711,38.5200,93,99,266352
2.0283,0.1515,38.6800,93,99,266355
2.0137,0.1515,38.6500,93,99,266359
1.9844,0.1564,38.7100,93,99,266362
1.9648,0.1564,38.8100,93,99,266365
1.9844,0.1711,38.6200,93,99,266370
1.9355,0.1564,38.6800,93,99,266373
1.9404,0.1564,38.6200,93,99,266376
1.8964,0.1564,38.7100,93,99,266380
1.8915,0.1613,38.7100,93,99,266383
1.9159,0.1711,38.5500,93,99,266386
1.8817,0.1564,38.6500,93,99,266390
1.9062,0.1564,38.5800,93,99,266393
1.8719,0.1564,38.6500,93,99,266396
1.8719,0.1515,38.7700,93,99,266399
1.8817,0.1564,38.5800,93,99,266403
1.8719,0.1515,38.8400,93,99,266406
1.9062,0.1564,38.4900,93,99,266409
1.8817,0.1515,38.6200,93,99,266414
1.8817,0.1662,38.6500,93,99,266417
1.9355,0.1613,38.6200,93,99,266420
1.8964,0.1564,38.9300,93,99,266424
1.9404,0.1906,38.4600,93,99,266427
1.9013,0.1515,38.6500,93,99,266430
1.9062,0.1515,38.6200,93,99,266434
1.9208,0.1564,38.6800,93,99,266437
1.9159,0.1515,38.6200,93,99,266440
1.9795,0.1808,38.4300,93,99,266443
1.9453,0.1613,38.6200,93,99,266447
1.9306,0.1515,38.7700,93,99,266450
1.9306,0.1564,38.6800,93,99,266454
1.9257,0.1564,38.7400,93,99,266458
1.9648,0.1613,38.5200,93,99,266461
1.9355,0.1613,38.6800,93,99,266464
1.9404,0.1564,39.0300,93,99,266468
1.9257,0.1662,38.6500,93,99,266471
1.9355,0.1564,38.7100,93,99,266474
1.9550,0.1613,38.7100,93,99,266478
1.9257,0.1515,38.6800,93,99,266481
1.9550,0.1564,38.5500,93,99,266484
1.9110,0.1515,38.5800,93,99,266487
1.8964,0.1564,38.7100,93,99,266491
1.9062,0.1564,38.6500,93,99,266494
1.8964,0.1613,38.7100,93,99,266498
1.9257,0.1564,38.5500,93,99,266502
1.8866,0.1613,38.7100,93,99,266505
1.8915,0.1564,38.7100,93,99,266508
1.9013,0.1613,38.5200,93,99,266512
1.8622,0.1564,38.7100,93,99,266515
1.8964,0.1613,38.4300,93,99,266518
1.8768,0.1613,38.6200,93,99,266522
1.8524,0.1564,38.7100,93,99,266525
1.8719,0.1564,38.6800,93,99,266528
1.8475,0.1564,38.7100,93,99,266531
1.8964,0.1515,38.4300,93,99,266535
1.8573,0.1564,38.5800,93,99,266539
1.8524,0.1515,38.6800,93,99,266542
1.8573,0.1564,38.6800,93,99,266546
1.8524,0.1613,38.7100,93,99,266549
1.9110,0.1711,38.5500,93,99,266552
1.8719,0.1564,38.6500,93,99,266556
1.8671,0.1515,38.6200,93,99,266559
1.8524,0.1564,38.7100,93,99,266562
1.8475,0.1515,38.7400,93,99,266566
1.8719,0.1564,38.6200,93,99,266569
1.8426,0.1613,38.7100,93,99,266572
1.8573,0.1515,38.5800,93,99,266575
1.8280,0.1564,38.7100,93,99,266579
1.8231,0.1564,38.7100,93,99,266583
1.8622,0.1662,38.5500,93,99,266586
1.8475,0.1515,38.7100,93,99,266590
1.8719,0.1662,38.5800,93,99,266593
1.8573,0.1564,38.6500,93,99,266596
1.8719,0.1515,38.8400,93,99,266600
1.9013,0.1564,38.6200,93,99,266603
1.9013,0.1515,38.7400,93,99,266606
1.9453,0.1662,38.5200,93,99,266610
1.9110,0.1515,38.6500,93,99,266613
1.9159,0.1515,38.7100,93,99,266616
1.9355,0.1613,38.6500,93,99,266620
1.9355,0.1515,38.6800,93,99,266624
2.0137,0.1613,38.4600,93,99,266627
1.9941,0.1515,38.5800,93,99,266630
2.0137,0.1564,38.7400,93,99,266634
2.0430,0.1564,38.6800,93,99,266637
2.0430,0.1515,38.6800,93,99,266640
2.0870,0.1760,38.4300,93,99,266644
2.0186,0.1564,38.6200,93,99,266647
1.9746,0.1564,38.6800,93,99,266650
1.9355,0.1564,38.6800,93,99,266654
1.8964,0.1564,38.7100,93,99,266657
1.9062,0.1613,38.5200,93,99,266660
1.8524,0.1613,38.6800,93,99,266664
1.8328,0.1564,38.7100,93,99,266668
1.7986,0.1564,38.7100,93,99,266671
1.7693,0.1515,38.7100,93,99,266674
1.7742,0.1662,38.5500,93,99,266678
1.7351,0.1564,38.7100,93,99,266681
1.7400,0.1613,38.6200,93,99,266684
1.7058,0.1564,38.7100,93,99,266688
1.6911,0.1515,38.7400,93,99,266691
1.6862,0.1564,38.6200,93,99,266694
1.6667,0.1564,38.7100,93,99,266698
1.6862,0.1564,38.5200,93,99,266701
1.6569,0.1564,38.7100,93,99,266704
1.6569,0.1515,38.7100,93,99,266708
1.6618,0.1613,38.6500,93,99,266712
1.6520,0.1515,38.7400,93,99,266715
1.6911,0.1564,38.4600,93,99,266718
1.6716,0.1613,38.6200,93,99,266722
1.6667,0.1515,38.7100,93,99,266725
1.6764,0.1613,38.6800,93,99,266728
1.6667,0.1711,38.8400,93,99,266732
1.7204,0.1613,38.4300,93,99,266735
1.6569,0.1564,38.5500,93,99,266738
1.6227,0.1564,38.6800,93,99,266742
1.5934,0.1515,38.6800,93,99,266745
1.5494,0.1515,38.7100,93,99,266748
1.5934,0.1711,38.5500,93,99,266753
1.6471,0.1613,38.6500,93,99,266756
1.8573,0.1564,38.6200,93,99,266759
2.1603,0.1564,38.8400,93,99,266762
2.6100,0.1564,38.7400,93,99,266766
3.0938,0.1613,38.6500,93,99,266769
3.4506,0.1515,38.6500,93,99,266772
3.6901,0.1564,38.5200,93,99,266776
3.5728,0.1564,38.7100,93,99,266779
3.2747,0.1515,38.6800,93,99,266782
2.9032,0.1662,38.5800,93,99,266786
2.4291,0.1564,38.7100,93,99,266789
2.0870,0.1564,38.6200,93,99,266792
1.7742,0.1564,38.6500,93,99,266797
1.5885,0.1564,38.7100,93,99,266800
1.5054,0.1613,38.5800,93,99,266803
1.4174,0.1564,38.7100,93,99,266806
1.4027,0.1564,38.4600,93,99,266810
1.3881,0.1564,38.6200,93,99,266813
1.3734,0.1564,38.7100,93,99,266816
1.3978,0.1613,38.6500,93,99,266820
1.3930,0.1564,38.7100,93,99,266823
1.4321,0.1613,38.4600,93,99,266826
1.4125,0.1564,38.6500,93,99,266830
1.4272,0.1564,38.7400,93,99,266833
1.4370,0.1760,38.6800,93,99,266836
1.4467,0.1564,38.7100,93,99,266841
1.5054,0.1711,38.4900,93,99,266844
1.5200,0.1564,38.6800,93,99,266847
1.4956,0.1515,38.6500,93,99,266850
1.5103,0.1564,38.6800,93,99,266854
1.5200,0.1564,38.7100,93,99,266857
1.5738,0.1613,38.7700,93,99,266860
1.5494,0.1564,38.6800,93,99,266864
1.5689,0.1515,38.7700,93,99,266867
1.5543,0.1515,38.7100,93,99,266870
1.5640,0.1564,38.7100,93,99,266874
1.5982,0.1662,38.6200,93,99,266877
1.5885,0.1564,38.7100,93,99,266881
1.6129,0.1515,38.5500,93,99,266885
1.5934,0.1564,38.7100,93,99,266888
1.6227,0.1662,38.6800,93,99,266892
1.6227,0.1564,38.7400,93,99,266895
1.6373,0.1564,38.7100,93,99,266898
1.6276,0.1564,38.7100,93,99,266901
1.6813,0.1613,38.4300,93,99,266905
1.6569,0.1662,38.6500,93,99,266908
1.6520,0.1564,38.7100,93,99,266911
1.6716,0.1564,38.7400,93,99,266915
1.6862,0.1564,38.7100,93,99,266918
1.7253,0.1711,38.4900,93,99,266921
1.7058,0.1613,38.6200,93,99,266926
1.6960,0.1515,38.6500,93,99,266929
1.6960,0.1662,38.6800,93,99,266932
1.6911,0.1564,38.7100,93,99,266936
1.7351,0.1613,38.4000,93,99,266939
1.7302,0.1564,38.7100,93,99,266942
1.7253,0.1564,38.5800,93,99,266945
1.7155,0.1515,38.9600,93,99,266949
1.7253,0.1564,38.7400,93,99,266952
1.7449,0.1613,38.6800,93,99,266955
1.7302,0.1564,38.7100,93,99,266959
1.7546,0.1613,38.6200,93,99,266962
1.7449,0.1564,38.7100,93,99,266966
1.7595,0.1515,38.7100,93,99,266970
1.7986,0.1613,38.6200,93,99,266973
1.7937,0.1515,38.7100,93,99,266976
1.8182,0.1564,38.5200,93,99,266980
1.7986,0.1564,38.6200,93,99,266983
1.7986,0.1515,38.7100,93,99,266986
1.8133,0.1662,38.6200,93,99,266990
1.8084,0.1564,38.7100,93,99,266993
1.8573,0.1613,38.4600,93,99,266996
1.8280,0.1564,38.6500,93,99,266999
1.8280,0.1564,38.8100,93,99,267003
1.8377,0.1662,38.6800,93,99,267006
1.8231,0.1564,38.7100,93,99,267010
1.8719,0.1906,38.4300,93,99,267014
1.8280,0.1564,38.5800,93,99,267017
1.8133,0.1466,38.6500,93,99,267020
1.8084,0.1564,38.7100,93,99,267024
1.7937,0.1515,38.7400,93,99,267027
1.8328,0.1760,38.5500,93,99,267030
1.7840,0.1564,38.6800,93,99,267034
1.7693,0.1515,38.6200,93,99,267037
1.7595,0.1564,38.7100,93,99,267040
1.7155,0.1515,38.7100,93,99,267043
1.7302,0.1662,38.5200,93,99,267047
1.6960,0.1564,38.6800,93,99,267051
1.7107,0.1564,38.6800,93,99,267054
1.6764,0.1564,38.7100,93,99,267058
1.6813,0.1564,38.7400,93,99,267061
1.6960,0.1857,38.6200,93,99,267064
1.7009,0.1564,38.6800,93,99,267068
1.7107,0.1564,38.5800,93,99,267071
1.6716,0.1515,38.6500,93,99,267074
1.6813,0.1564,38.7400,93,99,267077
1.6960,0.1564,38.6800,93,99,267081
1.6813,0.1662,38.7100,93,99,267084
1.7204,0.1564,38.4900,93,99,267087
1.6862,0.1515,38.7100,93,99,267091
1.6960,0.1564,38.7100,93,99,267095
1.7107,0.1515,38.6500,93,99,267098
1.6960,0.1515,38.7100,93,99,267102
1.7400,0.1613,38.4300,93,99,267105
1.7155,0.1564,38.5800,93,99,267108
1.7058,0.1466,38.7100,93,99,267112
1.7155,0.1515,38.6800,93,99,267115
1.7107,0.1515,38.7100,93,99,267118
1.7595,0.1711,38.4600,93,99,267121
1.7253,0.1906,38.6200,93,99,267125
1.7204,0.1564,38.6500,93,99,267128
1.7155,0.1515,38.7100,93,99,267131
1.7107,0.1515,38.7100,93,99,267136
1.7498,0.1662,38.5800,93,99,267139
1.7155,0.1613,38.6500,93,99,267142
1.7204,0.1564,38.6200,93,99,267146
1.6960,0.1564,38.7400,93,99,267149
1.7009,0.1564,38.7400,93,99,267152
1.7107,0.1515,38.6800,93,99,267156
1.6960,0.1515,38.7100,93,99,267159
1.7107,0.1564,38.5800,93,99,267162
1.6862,0.1515,38.5500,93,99,267165
1.6813,0.1564,38.7100,93,99,267169
1.7058,0.1613,38.6200,93,99,267172
1.6911,0.1613,38.6800,93,99,267175
1.6960,0.1515,38.2700,93,99,267180
1.6716,0.1662,38.6200,93,99,267183
1.6716,0.1564,38.7400,93,99,267186
1.6813,0.1613,38.6200,93,99,267190
1.6667,0.1564,38.7400,93,99,267193
1.7009,0.1564,38.4600,93,99,267196
1.6813,0.1564,38.6800,93,99,267200
1.6667,0.1564,38.7100,93,99,267203
1.6764,0.1613,38.6500,93,99,267206
1.6618,0.1466,38.7100,93,99,267209
1.7009,0.1613,38.4300,93,99,267213
1.6618,0.1515,38.7100,93,99,267216
1.6960,0.1417,38.6800,93,99,267219
1.6618,0.1564,38.8100,93,99,267224
1.6716,0.1564,38.7100,93,99,267227
1.7155,0.1711,38.4000,93,99,267230
1.6911,0.1564,38.6800,93,99,267234
1.7009,0.1564,38.6200,93,99,267237
1.6960,0.1564,38.7100,93,99,267240
1.7204,0.1564,38.7100,93,99,267244
1.7595,0.1613,38.7100,93,99,267247
1.7400,0.1564,38.6800,93,99,267250
1.7791,0.1564,38.5500,93,99,267254
1.7644,0.1515,38.7100,93,99,267257
1.7791,0.1564,38.7400,93,99,267260
1.8084,0.1613,38.7100,93,99,267264
1.8133,0.1613,38.7100,93,99,267268
1.8622,0.1564,38.5800,93,99,267271
1.8573,0.1515,38.7100,93,99,267274
1.8866,0.1564,38.7100,93,99,267278
1.9110,0.1564,38.8400,93,99,267281
1.9062,0.1613,38.7400,93,99,267284
1.9599,0.1564,38.5200,93,99,267288
1.8622,0.1711,38.8100,93,99,267291
1.8377,0.1564,38.7100,93,99,267294
1.8133,0.1613,38.6200,93,99,267298
1.7693,0.1564,38.7100,93,99,267301
1.7742,0.1613,38.4000,93,99,267304
1.7449,0.1564,38.6500,93,99,267308
1.6813,0.1564,38.7100,93,99,267312
1.6813,0.1564,38.6800,93,99,267315
1.6276,0.1564,38.7100,93,99,267318
1.6569,0.1711,38.7100,93,99,267322
1.6129,0.1613,38.6200,93,99,267325
1.5934,0.1515,38.6200,93,99,267328
1.5836,0.1564,38.6800,93,99,267332
1.5787,0.1515,38.7100,93,99,267335
1.6129,0.1662,38.6800,93,99,267338
1.5885,0.1515,38.6800,93,99,267342
1.5934,0.1564,38.5800,93,99,267345
1.5934,0.1564,38.7100,93,99,267348
1.5836,0.1515,38.8100,93,99,267352
1.6129,0.1613,38.6500,93,99,267356
1.6031,0.1515,38.7700,93,99,267359
1.6373,0.1613,38.5800,93,99,267362
1.6129,0.1515,38.8700,93,99,267366
1.6276,0.1515,38.7100,93,99,267369
1.6520,0.1613,38.5800,93,99,267372
1.6373,0.1564,38.7100,93,99,267376
1.6471,0.1515,38.5200,93,99,267379
1.6031,0.1613,38.5800,93,99,267382
1.5591,0.1564,38.7100,93,99,267386
1.5200,0.1515,38.6200,93,99,267389
1.4712,0.1564,38.7100,93,99,267393
1.5396,0.1515,38.5500,93,99,267397
1.6373,0.1564,38.6200,93,99,267400
1.8915,0.1515,38.7100,93,99,267403
2.2972,0.1564,38.6500,93,99,267406
2.7859,0.1613,38.7100,93,99,267410
3.3480,0.1515,38.4300,93,99,267413
3.6315,0.1808,38.6200,93,99,267416
3.7195,0.1564,38.6800,93,99,267420
3.5288,0.1564,38.7700,93,99,267423
3.1525,0.1564,38.7100,93,99,267426
2.7713,0.1662,38.6800,93,99,267430
2.2923,0.1564,38.6800,93,99,267433
1.9550,0.1564,38.5800,93,99,267437
1.6813,0.1662,38.7100,93,99,267441
1.5298,0.1564,38.7100,93,99,267444
1.4712,0.1613,38.5800,93,99,267447
1.4125,0.1564,38.6800,93,99,267451
1.4125,0.1613,38.6800,93,99,267454
1.4027,0.1564,38.7100,93,99,267457
1.3930,0.1564,38.7100,93,99,267460
1.4174,0.1808,38.5800,93,99,267464
1.4076,0.1564,38.7100,93,99,267467
1.4467,0.1515,38.5500,93,99,267470
1.4321,0.1564,38.6800,93,99,267474
1.4516,0.1564,38.7400,93,99,267478
1.4761,0.1564,38.5800,93,99,267481
1.5054,0.1564,38.7100,93,99,267485
1.5200,0.1564,38.4900,93,99,267488
1.5005,0.1564,38.7100,93,99,267491
1.5494,0.1564,38.7100,93,99,267494
1.5347,0.1613,38.7100,93,99,267498
1.5885,0.1613,38.7100,93,99,267503
1.5836,0.1564,38.7100,93,99,267506
1.6373,0.1613,38.6200,93,99,267509
1.6227,0.1564,38.6500,93,99,267512
1.6422,0.1564,38.5800,93,99,267516
1.6325,0.1613,38.7100,93,99,267520
1.6520,0.1564,38.7400,93,99,267523
1.6813,0.1955,38.6200,93,99,267527
1.6813,0.1564,38.7100,93,99,267530
1.7058,0.1613,38.5500,93,99,267533
1.6911,0.1515,38.7100,93,99,267537
1.7058,0.1515,38.7400,93,99,267540
1.7204,0.1564,38.6200,93,99,267543
1.7204,0.1564,38.7100,93,99,267547
1.7449,0.1564,38.5500,93,99,267550
1.7302,0.1564,38.7100,93,99,267553
1.7449,0.1564,38.7100,93,99,267556
1.7644,0.1613,38.6500,93,99,267560
1.7693,0.1564,38.7100,93,99,267564
1.8182,0.1613,38.5200,93,99,267567
1.7889,0.1613,38.6200,93,99,267571
1.7986,0.1515,38.8400,93,99,267574
1.8182,0.1613,38.6800,93,99,267577
1.8182,0.1515,38.7700,93,99,267581
1.8817,0.1662,38.4000,93,99,267584
1.8573,0.1564,38.5800,93,99,267587
1.8524,0.1515,38.6500,93,99,267591
1.9013,0.1564,38.6800,93,99,267594
1.8768,0.1564,38.7100,93,99,267597
1.9306,0.1711,38.6200,93,99,267600
1.8964,0.1613,38.6500,93,99,267604
1.9013,0.1564,38.6200,93,99,267608
1.8866,0.1564,38.7100,93,99,267611
1.9013,0.1564,38.7400,93,99,267615
1.9355,0.1613,38.6500,93,99,267618
1.9208,0.1564,38.7100,93,99,267621
1.9550,0.1515,38.5800,93,99,267625
1.9550,0.1662,38.7100,93,99,267628
1.9404,0.1564,38.7100,93,99,267631
1.9795,0.1662,38.6200,93,99,267635
1.9550,0.1515,38.6800,93,99,267638
1.9844,0.1564,38.5200,93,99,267641
1.9501,0.1564,38.6800,93,99,267644
1.9550,0.1564,38.7100,93,99,267649
1.9795,0.2151,38.5800,93,99,267652
1.9892,0.1564,38.7100,93,99,267655
1.9892,0.1564,38.4900,93,99,267659
1.9550,0.1906,38.6800,93,99,267662
1.9453,0.1564,38.7100,93,99,267665
1.9550,0.1662,38.6500,93,99,267669
1.9501,0.1564,38.7100,93,99,267672
1.9599,0.1613,38.5200,93,99,267675
1.8964,0.1564,38.6200,93,99,267679
1.8768,0.1564,38.7100,93,99,267682
1.8671,0.1613,38.6800,93,99,267685
1.8426,0.1515,38.5800,93,99,267689
1.8817,0.1662,38.4900,93,99,267693
1.8377,0.1613,38.6500,93,99,267696
1.8231,0.1515,38.6500,93,99,267699
1.8035,0.1564,38.7100,93,99,267703
1.7937,0.1564,38.7400,93,99,267706
1.8231,0.1613,38.5200,93,99,267709
1.7937,0.1613,38.4600,93,99,267713
1.8035,0.1808,38.6200,93,99,267716
1.7889,0.1564,38.7100,93,99,267719
1.7889,0.1515,38.6800,93,99,267723
1.8084,0.1662,38.6200,93,99,267726
1.7889,0.1515,38.7100,93,99,267729
1.8133,0.1711,38.6200,93,99,267734
1.7889,0.1564,38.7100,93,99,267737
1.7937,0.1515,38.8100,93,99,267740
1.8182,0.1564,38.6200,93,99,267743
1.8035,0.1515,38.7100,93,99,267747
1.8328,0.1564,38.5200,93,99,267750
1.8035,0.1564,38.7400,93,99,267753
1.8035,0.1515,38.9300,93,99,267757
1.8133,0.1662,38.6500,93,99,267760
1.7937,0.1515,38.8400,93,99,267763
1.8328,0.1564,38.4600,93,99,267767
1.8084,0.1613,38.6200,93,99,267770
1.7937,0.1515,38.7400,93,99,267773
1.8035,0.1613,38.6800,93,99,267778
1.7937,0.1564,38.9000,93,99,267781
1.8377,0.1662,38.4300,93,99,267784
1.8035,0.1564,38.5800,93,99,267787
1.7937,0.1515,38.7700,93,99,267791
1.7937,0.1564,38.6800,93,99,267794
1.7791,0.1564,38.7400,93,99,267797
1.8280,0.1711,38.6500,93,99,267801
1.8133,0.1564,38.6800,93,99,267804
1.7986,0.1515,38.6200,93,99,267807
1.7889,0.1564,38.7400,93,99,267811
1.7840,0.1564,38.7400,93,99,267814
1.8084,0.1662,38.5800,93,99,267817
1.7840,0.1662,38.6800,93,99,267821
1.7986,0.1662,38.5500,93,99,267825
1.7693,0.1564,38.7100,93,99,267828
1.7742,0.1564,38.7400,93,99,267831
1.8035,0.1662,38.6800,93,99,267835
1.7791,0.1564,38.7100,93,99,267838
1.8084,0.1564,38.5800,93,99,267841
1.7742,0.1515,38.6500,93,99,267845
1.7791,0.1564,38.7400,93,99,267848
1.7937,0.1613,38.5200,93,99,267851
1.7791,0.1564,38.7100,93,99,267855
1.8182,0.1564,38.4900,93,99,267858
1.8035,0.1613,38.6500,93,99,267862
1.8182,0.1564,38.7100,93,99,267865
1.8475,0.1613,38.6500,93,99,267869
1.8475,0.1613,38.5500,93,99,267872
1.9110,0.1662,38.4300,93,99,267875
1.8768,0.1564,38.6200,93,99,267879
1.8866,0.1613,38.7100,93,99,267882
1.8964,0.1613,38.6800,93,99,267885
1.8964,0.1662,38.8100,93,99,267889
1.9746,0.1711,38.4900,93,99,267892
1.9599,0.1613,38.6200,93,99,267895
1.9795,0.1564,38.6500,93,99,267899
2.0039,0.1564,38.7100,93,99,267902
2.0186,0.1857,38.8100,93,99,267906
2.0626,0.1613,38.4900,93,99,267909
2.0186,0.1613,38.8400,93,99,267913
1.9892,0.1906,38.5800,93,99,267916
1.9453,0.1564,38.6800,93,99,267919
1.9110,0.1515,38.7400,93,99,267923
1.9013,0.1613,38.5800,93,99,267926
1.8475,0.1613,38.6800,93,99,267929
1.8377,0.1613,38.6500,93,99,267933
1.7840,0.1662,38.7100,93,99,267936
1.7644,0.1515,38.7400,93,99,267939
1.7498,0.1613,38.6500,93,99,267943
1.7302,0.1564,38.7100,93,99,267947
1.7302,0.1564,38.5800,93,99,267950
1.7107,0.1613,38.7400,93,99,267953
1.6862,0.1515,38.7100,93,99,267957
1.6911,0.1564,38.6200,93,99,267960
1.6764,0.1564,38.7100,93,99,267963
1.7107,0.1613,38.4600,93,99,267967
1.6960,0.1613,38.6200,93,99,267970
1.6862,0.1564,38.9600,93,99,267973
1.7009,0.1613,38.6800,93,99,267977
1.6862,0.1515,38.6500,93,99,267980
1.7400,0.1613,38.4000,93,99,267983
1.7058,0.1564,38.6200,93,99,267987
1.7058,0.1515,38.7100,93,99,267991
1.7155,0.1613,38.6800,93,99,267994
1.7204,0.1564,38.7100,93,99,267997
1.7742,0.1711,38.6500,93,99,268001
1.7253,0.1613,38.6200,93,99,268004
1.6862,0.1564,38.8100,93,99,268007
1.6227,0.1564,38.7100,93,99,268011
1.5787,0.1564,38.5800,93,99,268014
1.5738,0.1662,38.6200,93,99,268017
1.5787,0.1613,38.7100,93,99,268021
1.7498,0.1564,38.5800,93,99,268024
1.9990,0.1564,38.7100,93,99,268027
2.4047,0.1564,38.7100,93,99,268032
2.9423,0.1613,38.5500,93,99,268035
3.3969,0.1564,38.6500,93,99,268038
3.7781,0.1613,38.5800,93,99,268041
3.8074,0.1564,38.6800,93,99,268045
3.5973,0.1515,38.7100,93,99,268048
3.2258,0.1613,38.5800,93,99,268051
2.7566,0.1564,38.7400,93,99,268055
2.3607,0.1564,38.4900,93,99,268058
2.0039,0.1662,38.6800,93,99,268061
1.7400,0.1564,38.7100,93,99,268065
1.6031,0.1662,38.6200,93,99,268068
1.5005,0.1857,38.7100,93,99,268071
1.4956,0.1662,38.4600,93,99,268075
1.4467,0.1515,38.7700,93,99,268079
1.4516,0.1564,38.7400,93,99,268082
1.4565,0.1613,38.7100,93,99,268085
1.4565,0.1760,38.7700,93,99,268089
1.5347,0.1711,38.4300,93,99,268092
1.4907,0.1613,38.6200,93,99,268095
1.4956,0.1466,38.6500,93,99,268099
1.5054,0.1515,38.7100,93,99,268102
1.5103,0.1564,38.7400,93,99,268105
1.5640,0.1662,38.5500,93,99,268109
1.5982,0.1662,38.6500,93,99,268113
1.5934,0.1662,38.6800,93,99,268118
1.6471,0.1662,38.6200,93,99,268121
1.6080,0.1564,38.6800,93,99,268124
1.6276,0.1613,38.7100,93,99,268128
1.6618,0.1613,38.6200,93,99,268131
1.6569,0.2053,38.6200,93,99,268134
1.6960,0.1564,38.5200,93,99,268137
1.6764,0.1564,38.7400,93,99,268141
1.6911,0.1564,38.7100,93,99,268144
1.7107,0.1613,38.6800,93,99,268147
1.7058,0.1564,38.7100,93,99,268151
1.7498,0.1613,38.4600,93,99,268154
1.7351,0.1613,38.6200,93,99,268157
1.7644,0.1564,38.7400,93,99,268162
1.7449,0.1711,38.7100,93,99,268165
1.7498,0.1613,38.7100,93,99,268168
1.7986,0.1711,38.4600,93,99,268172
1.7644,0.1662,38.6200,93,99,268175
1.7693,0.1564,38.7400,93,99,268178
1.7742,0.1564,38.7100,93,99,268182
1.7889,0.1564,38.7400,93,99,268185
1.8328,0.1662,38.5800,93,99,268188
1.8182,0.1613,38.6800,93,99,268191
1.8328,0.1515,38.6200,93,99,268195
1.8426,0.1662,38.7100,93,99,268198
1.8328,0.1564,38.8400,93,99,268201
1.8524,0.1662,38.6500,93,99,268206
1.8524,0.1515,38.7100,93,99,268209
1.8866,0.1662,38.5800,93,99,268212
1.8719,0.1515,38.8100,93,99,268216
1.8866,0.1564,38.6500,93,99,268219
1.9208,0.1613,38.6200,93,99,268222
1.9062,0.1662,38.7400,93,99,268226
1.9453,0.1564,38.5200,93,99,268229
1.9306,0.1564,38.6200,93,99,268232
1.9355,0.1564,37.8300,93,99,268235
1.9550,0.1711,38.5800,93,99,268239
1.9453,0.1515,38.7100,93,99,268242
1.9941,0.1564,38.4600,93,99,268246
1.9746,0.1564,38.6500,93,99,268250
1.9697,0.1564,38.6200,93,99,268253
2.0137,0.1662,38.6800,93,99,268256
1.9795,0.1515,38.8400,93,99,268260
2.0332,0.1760,38.4300,93,99,268263
1.9892,0.1515,38.7400,93,99,268266
1.9746,0.1515,38.6500,93,99,268270
1.9746,0.1613,38.7100,93,99,268273
1.9697,0.1515,38.6200,93,99,268276
2.0528,0.1760,38.5500,93,99,268279
1.9844,0.1613,38.6800,93,99,268283
1.9746,0.1564,38.6200,93,99,268286
1.9550,0.1613,38.7100,93,99,268290
1.9453,0.1564,38.7400,93,99,268294
1.9697,0.1662,38.5500,93,99,268297
1.9208,0.1613,38.9300,93,99,268300
1.9257,0.1613,38.5500,93,99,268304
1.8817,0.1515,38.7100,93,99,268307
1.8719,0.1613,38.7400,93,99,268310
1.8817,0.1613,38.6200,93,99,268314
1.8475,0.1564,38.8100,93,99,268317
1.8671,0.1564,38.5800,93,99,268320
1.8231,0.1515,38.6800,93,99,268323
1.8133,0.1564,38.7400,93,99,268327
1.8524,0.1613,38.5800,93,99,268331
1.7986,0.1515,38.7100,93,99,268334
1.8231,0.1613,38.4600,93,99,268338
1.7889,0.1515,38.7100,93,99,268341
1.7889,0.1906,38.6800,93,99,268344
1.8133,0.1613,38.6800,93,99,268348
1.7937,0.1564,38.6800,93,99,268351
1.8475,0.1613,38.4300,93,99,268354
1.8133,0.1613,38.6200,93,99,268358
1.8084,0.1760,38.7100,93,99,268361
1.8231,0.1613,38.6800,93,99,268364
1.8231,0.1564,38.7400,93,99,268368
1.8768,0.1760,38.5200,93,99,268371
1.8426,0.1662,38.5800,93,99,268375
1.8377,0.1564,38.6800,93,99,268378
1.8377,0.1613,38.7100,93,99,268382
1.8328,0.1564,38.6800,93,99,268385
1.8866,0.1613,38.5800,93,99,268388
1.8524,0.1613,38.6800,93,99,268392
1.8671,0.1564,38.5500,93,99,268395
1.8426,0.1613,38.7700,93,99,268398
1.8377,0.1564,38.7100,93,99,268402
1.8671,0.1613,38.6800,93,99,268405
1.8573,0.1662,38.7100,93,99,268408
1.8768,0.1515,38.6800,93,99,268412
1.8524,0.1564,38.7100,93,99,268416
1.8475,0.1515,38.8400,93,99,268419
1.8671,0.1564,38.5800,93,99,268422
1.8426,0.1564,38.7100,93,99,268426
1.8671,0.1564,38.4600,93,99,268429
1.8377,0.1564,38.6200,93,99,268432
1.8328,0.1564,38.8700,93,99,268436
1.8573,0.1662,38.6500,93,99,268439
1.8280,0.1564,38.7100,93,99,268442
1.8719,0.1662,38.4600,93,99,268446
1.8328,0.1564,38.6500,93,99,268449
1.8280,0.1564,38.7100,93,99,268452
1.8280,0.1613,38.6800,93,99,268456
1.8182,0.1613,38.7100,93,99,268460
1.8719,0.1760,38.4600,93,99,268463
1.8377,0.1613,38.5500,93,99,268467
1.8377,0.1564,38.6500,93,99,268470
1.8426,0.1613,38.7100,93,99,268473
1.8671,0.1564,38.7100,93,99,268476
1.9110,0.1711,38.4600,93,99,268480
1.8964,0.1613,38.6800,93,99,268483
1.9208,0.1564,38.6200,93,99,268486
1.9159,0.1613,38.7400,93,99,268490
1.9257,0.1515,38.7100,93,99,268493
1.9550,0.1662,38.5200,93,99,268496
1.9355,0.1613,38.7100,93,99,268500
1.9746,0.1662,38.5500,93,99,268504
1.9599,0.1564,38.6800,93,99,268507
1.9941,0.1564,38.8400,93,99,268511
2.0332,0.1613,38.5800,93,99,268514
2.0332,0.1613,38.7100,93,99,268517
2.0772,0.1613,38.5200,93,99,268521
2.0723,0.1564,38.6800,93,99,268524
2.0381,0.1564,38.7100,93,99,268527
2.0283,0.1711,38.5800,93,99,268530
1.9697,0.1564,38.7100,93,99,268534
1.9746,0.1613,38.4600,93,99,268537
1.8964,0.1564,38.6800,93,99,268540
1.8719,0.1564,38.7100,93,99,268545
1.8475,0.1613,38.5800,93,99,268548
1.8133,0.1564,38.7100,93,99,268551
1.8377,0.1711,37.5300,93,99,268555
1.7937,0.1613,38.6200,93,99,268558
1.7351,0.1515,38.6800,93,99,268561
1.7302,0.1613,38.7100,93,99,268565
1.7155,0.1515,38.7400,93,99,268568
1.7498,0.2053,38.4900,93,99,268571
1.7204,0.1613,38.7100,93,99,268574
1.7204,0.1564,38.6200,93,99,268578
1.7107,0.1613,38.7100,93,99,268581
1.7058,0.1564,38.7100,93,99,268584
1.7302,0.1662,38.6200,93,99,268589
1.7107,0.1613,38.7100,93,99,268592
1.7302,0.1613,38.7700,93,99,268595
1.7107,0.1613,38.7100,93,99,268599
1.7107,0.1564,38.6800,93,99,268602
1.7400,0.1564,38.6200,93,99,268605
1.7253,0.1515,38.7100,93,99,268609
1.7595,0.1564,38.5500,93,99,268612
1.7302,0.1613,38.7100,93,99,268615
1.7253,0.1564,38.7400,93,99,268618
1.7107,0.1613,38.6200,93,99,268622
1.6471,0.1662,38.7100,93,99,268625
1.6325,0.1613,38.4900,93,99,268628
1.5787,0.1662,38.5800,93,99,268633
1.5982,0.1564,38.7100,93,99,268636
1.7449,0.1613,38.8100,93,99,268639
2.0088,0.1564,38.7100,93,99,268643
2.4780,0.1613,38.4300,93,99,268646
2.9326,0.1613,38.7100,93,99,268649
3.4213,0.1564,38.7100,93,99,268653
3.7830,0.1613,38.7100,93,99,268656
3.8612,0.1564,38.9300,93,99,268659
3.7634,0.1760,38.5200,93,99,268662
3.3040,0.1662,38.6200,93,99,268666
2.8250,0.1662,38.6200,93,99,268669
2.3900,0.1662,38.7100,93,99,268673
2.0430,0.1564,38.7100,93,99,268677
1.8280,0.1711,38.5800,93,99,268680
1.6471,0.1613,38.6800,93,99,268683
1.5689,0.1515,38.5800,93,99,268687
1.5054,0.1613,38.7100,93,99,268690
1.4858,0.1564,38.6800,93,99,268693
1.5103,0.1711,38.5500,93,99,268697
1.4956,0.1613,38.7100,93,99,268700
1.5200,0.1808,38.6200,93,99,268703
1.5152,0.1564,38.6500,93,99,268706
1.5152,0.1613,38.7400,93,99,268710
1.5396,0.1613,38.5800,93,99,268713
1.5200,0.1564,38.7700,93,99,268717
1.5689,0.1613,38.4900,93,99,268721
1.6325,0.1662,38.4000,94,99,268725
1.6031,0.1564,38.6200,94,99,268729
1.6178,0.1515,38.7400,94,99,268732
1.6276,0.1662,38.7100,94,99,268735
1.6373,0.1564,38.7100,94,99,268739
1.7058,0.1857,38.4900,94,99,268742
1.6813,0.1613,38.6800,94,99,268745
1.6911,0.1564,38.6200,94,99,268749
1.6911,0.1613,38.7100,94,99,268752
1.7009,0.1564,38.6500,94,99,268755
1.7400,0.1662,38.5200,94,99,268760
1.7253,0.1613,38.6800,94,99,268763
1.7498,0.1662,38.5800,94,99,268766
1.7351,0.1613,38.7100,94,99,268769
1.7498,0.1564,38.7400,94,99,268773
1.7791,0.1662,38.6200,94,99,268776
1.7644,0.1613,38.9000,94,99,268779
1.7986,0.1564,38.6200,94,99,268783
1.7791,0.1564,38.7100,94,99,268786
1.7889,0.1613,38.6800,94,99,268789
1.8035,0.1613,38.5800,94,99,268793
1.7937,0.1613,38.6800,94,99,268796
1.8377,0.1613,38.4900,94,99,268800
1.8133,0.1613,38.7400,94,99,268804
1.8231,0.1564,38.7100,94,99,268807
1.8328,0.1613,38.7700,94,99,268810
1.8671,0.1613,38.7100,94,99,268814
1.8915,0.1662,37.6500,94,99,268817
1.8719,0.1662,38.6500,94,99,268820
1.8719,0.1564,38.7100,94,99,268823
1.8768,0.1515,38.7400,94,99,268827
1.8768,0.1613,38.7100,94,99,268830
1.9550,0.1760,38.5800,94,99,268833
1.9110,0.1711,38.6200,94,99,268837
1.9159,0.1564,38.6500,94,99,268840
1.9208,0.1613,38.7700,94,99,268844
1.9306,0.1613,38.7100,94,99,268848
1.9795,0.1760,38.5800,94,99,268851
1.9599,0.1662,38.7700,94,99,268854
1.9697,0.1613,38.5200,94,99,268857
1.9501,0.1662,38.7100,94,99,268861
1.9648,0.1564,38.6800,94,99,268864
1.9892,0.1662,38.6800,94,99,268867
1.9697,0.1613,38.7100,94,99,268871
1.9990,0.1613,38.5500,94,99,268874
1.9697,0.1613,38.7400,94,99,268877
1.9795,0.1613,38.8100,94,99,268881
2.0283,0.1711,38.6200,94,99,268884
1.9795,0.1613,38.7100,94,99,268888
2.0381,0.1564,38.5500,94,99,268892
1.9746,0.1564,38.6200,94,99,268895
1.9648,0.1613,38.9000,94,99,268898
1.9746,0.1613,38.5800,94,99,268901
1.9501,0.1515,38.7100,94,99,268905
1.9746,0.1662,38.4600,94,99,268908
1.9306,0.1613,38.6800,94,99,268911
1.9110,0.1613,38.7400,94,99,268915
1.9110,0.1662,38.6500,94,99,268918
1.8768,0.1613,38.7100,94,99,268921
1.9062,0.1662,38.4300,94,99,268925
1.8719,0.1613,38.6200,94,99,268929
1.8231,0.1515,38.7100,94,99,268932
1.8084,0.1662,38.7100,94,99,268936
1.7937,0.1613,38.7100,94,99,268939
1.8328,0.1711,38.5500,94,99,268942
1.7840,0.1662,38.6800,94,99,268945
1.7840,0.1564,38.7100,94,99,268949
1.7889,0.1613,38.6800,94,99,268952
1.7742,0.1515,38.7400,94,99,268955
1.8084,0.1662,38.4900,94,99,268959
1.8084,0.1613,38.6800,94,99,268962
1.7889,0.1515,38.5800,94,99,268965
1.7693,0.1613,38.7400,94,99,268969
1.7693,0.1564,38.7100,94,99,268973
1.7889,0.1711,38.6500,94,99,268976
1.7693,0.1906,38.7100,94,99,268980
1.7986,0.1662,38.5800,94,99,268983
1.7644,0.1613,38.6800,94,99,268986
1.7742,0.1613,38.7100,94,99,268989
1.7840,0.1613,38.5200,94,99,268993
1.7742,0.1955,38.6800,94,99,268996
1.8035,0.1613,38.5200,94,99,268999
1.7742,0.1613,38.7100,94,99,269003
1.7791,0.1564,38.7100,94,99,269006
1.7840,0.1662,38.6500,94,99,269009
1.7693,0.1613,38.7100,94,99,269014
1.8133,0.1662,38.5200,94,99,269017
1.7840,0.1564,38.6200,94,99,269020
1.7644,0.1613,38.7100,94,99,269024
1.7742,0.1711,38.6800,94,99,269027
1.7595,0.1613,38.7100,94,99,269030
1.8084,0.1760,38.5200,94,99,269033
1.7742,0.1662,38.5800,94,99,269037
1.7595,0.1564,38.6500,94,99,269040
1.7546,0.1613,38.7100,94,99,269043
1.7693,0.1613,38.7400,94,99,269047
1.7889,0.1711,38.6200,94,99,269050
1.7546,0.1760,38.6500,94,99,269053
1.7498,0.1613,38.6200,94,99,269058
1.7204,0.1613,38.7400,94,99,269061
1.7155,0.1613,38.7400,94,99,269064
1.7302,0.1711,38.6500,94,99,269068
1.7107,0.1662,38.6800,94,99,269071
1.7351,0.1613,38.5500,94,99,269074
1.7107,0.1613,38.7100,94,99,269078
1.7155,0.1613,38.5200,94,99,269081
1.7840,0.1662,38.5800,94,99,269084
1.7546,0.1613,38.7700,94,99,269087
1.7937,0.1613,38.5200,94,99,269091
1.7889,0.1564,38.6200,94,99,269094
1.7937,0.1613,38.8400,94,99,269097
1.8133,0.1515,38.6200,94,99,269102
1.8035,0.1662,38.6800,94,99,269105
1.8524,0.1662,38.4900,94,99,269108
1.8377,0.1613,38.7400,94,99,269112
1.8573,0.1564,38.7100,94,99,269115
1.8915,0.1515,38.6800,94,99,269118
1.8964,0.1613,38.9300,94,99,269122
1.9648,0.1662,38.4000,94,99,269125
1.9110,0.1613,38.5500,94,99,269128
1.9013,0.1662,38.6800,94,99,269131
1.8475,0.1613,38.7100,94,99,269135
1.8035,0.1613,38.7100,94,99,269138
1.8035,0.1711,38.5500,94,99,269142
1.7400,0.1613,38.3300,94,99,269146
1.7058,0.1564,38.6200,94,99,269149
1.6569,0.1613,38.7100,94,99,269152
1.6325,0.1613,38.7100,94,99,269156
1.6422,0.1662,38.5200,94,99,269159
1.5885,0.1613,38.7400,94,99,269162
1.5836,0.1613,38.5500,94,99,269166
1.5396,0.1613,38.7400,94,99,269169
1.5298,0.1906,38.6800,94,99,269172
1.5347,0.1662,38.6200,94,99,269175
1.5103,0.1613,37.8300,94,99,269179
1.5347,0.1613,38.6200,94,99,269182
1.5054,0.1564,38.6800,94,99,269186
1.5054,0.1613,38.7100,94,99,269190
1.5347,0.1613,38.5800,94,99,269193
1.5005,0.1613,38.7100,94,99,269196
1.5298,0.1613,38.6200,94,99,269200
1.5054,0.1613,38.7400,94,99,269203
1.5054,0.1613,38.7400,94,99,269206
1.5200,0.1662,38.6500,94,99,269210
1.5152,0.1613,38.8100,94,99,269213
1.5640,0.1613,38.4300,94,99,269216
1.5445,0.1662,38.6200,94,99,269219
1.5249,0.1613,38.9600,94,99,269223
1.5005,0.1515,38.6800,94,99,269227
1.4418,0.1613,38.1500,94,99,269230
1.4272,0.1808,38.4600,94,99,269234
1.3636,0.1662,38.7100,94,99,269237
1.3734,0.1808,38.6800,94,99,269240
1.5005,0.1613,38.7100,94,99,269244
1.7742,0.1613,38.8100,94,99,269247
2.2336,0.1613,38.5500,94,99,269250
2.7126,0.1662,38.7700,94,99,269254
3.2356,0.1564,38.5800,94,99,269257
3.5777,0.1613,38.7100,94,99,269260
3.6755,0.1760,38.7100,94,99,269263
3.5288,0.1662,38.6800,94,99,269267
3.1134,0.1613,38.6800,94,99,269271
2.6833,0.1662,38.5800,94,99,269274
2.1994,0.1613,38.6800,94,99,269278
1.8475,0.1613,38.7100,94,99,269281
1.6129,0.1515,38.6500,94,99,269284
1.4370,0.1613,38.7100,94,99,269288
1.3636,0.1613,38.5200,94,99,269291
1.3001,0.1564,38.6800,94,99,269294
1.2805,0.1613,38.7100,94,99,269298
1.2903,0.1711,38.6500,94,99,269301
1.2805,0.1564,38.7100,94,99,269304
1.3245,0.1662,38.4600,94,99,269308
1.3148,0.1662,38.6800,94,99,269312
1.3196,0.1564,38.7100,94,99,269315
1.3343,0.1662,38.6800,94,99,269318
1.3441,0.1564,38.7100,94,99,269322
1.3881,0.1711,38.4600,94,99,269325
1.3685,0.1613,38.6200,94,99,269328
1.3685,0.1564,38.7100,94,99,269332
1.3783,0.1564,38.7100,95,99,269335
1.4467,0.1613,38.7100,95,99,269340
1.4565,0.1613,38.7100,95,99,269343
1.4907,0.1711,38.6200,95,99,269346
1.4712,0.1564,38.6800,95,99,269350
1.5103,0.1613,38.5800,95,99,269353
1.4858,0.1564,38.6200,95,99,269357
1.5054,0.1564,38.7100,95,99,269361
1.5249,0.1613,38.3600,95,99,269364
1.5200,0.1662,38.7100,95,99,269367
1.5543,0.1613,38.5200,95,99,269371
1.5396,0.1613,38.6500,95,99,269374
1.5640,0.1662,38.7100,95,99,269377
1.5689,0.1662,38.6200,95,99,269380
1.5543,0.1613,38.6200,95,99,269384
1.6080,0.1711,38.4300,95,99,269387
1.5738,0.1564,38.7700,95,99,269390
1.5885,0.1662,38.7400,95,99,269394
1.5982,0.1613,38.7100,95,99,269398
1.6080,0.1808,38.8100,95,99,269401
1.6716,0.1760,38.4900,95,99,269405
1.6325,0.1613,38.7400,95,99,269408
1.6373,0.1613,38.6500,95,99,269411
1.6422,0.1613,38.1500,95,99,269415
1.6520,0.1613,38.7100,95,99,269418
1.6960,0.1711,38.5200,95,99,269421
1.6813,0.1662,38.6500,95,99,269424
1.7058,0.1613,38.5800,95,99,269428
1.6862,0.1515,38.7100,95,99,269431
1.7009,0.1515,38.8100,95,99,269434
1.7351,0.1662,38.6200,95,99,269438
1.7253,0.1613,38.7400,95,99,269442
1.7595,0.1711,38.5800,95,99,269445
1.7400,0.1613,38.8700,95,99,269449
1.7546,0.1613,38.7400,95,99,269452
1.7742,0.1613,38.6200,95,99,269455
1.7742,0.1613,38.7100,95,99,269459
1.7986,0.1662,38.5500,95,99,269462
1.7791,0.1613,38.9600,95,99,269465
1.7889,0.1662,38.7100,95,99,269468
1.8084,0.1662,38.6500,95,99,269472
1.7986,0.1613,38.7100,95,99,269475
1.8524,0.1760,38.4600,95,99,269478
1.8280,0.1662,37.8300,95,99,269483
1.8182,0.1857,38.7100,95,99,269486
1.8328,0.1662,38.6800,95,99,269489
1.8182,0.1613,38.7400,95,99,269493
1.8768,0.1662,38.4300,95,99,269496
1.8280,0.1760,38.5200,95,99,269499
1.8182,0.1466,38.6800,95,99,269503
1.8182,0.1662,38.6800,95,99,269506
1.8084,0.1613,38.7700,95,99,269509
1.8426,0.1760,38.5500,95,99,269512
1.7937,0.1711,38.6800,95,99,269516
1.7742,0.1760,38.6200,95,99,269519
1.7400,0.1613,38.7100,95,99,269522
1.7253,0.1613,38.8400,95,99,269527
1.7546,0.1613,38.6200,95,99,269530
1.7058,0.1613,38.7100,95,99,269533
1.7058,0.1613,38.6200,95,99,269537
1.6764,0.1662,38.7100,95,99,269540
1.6716,0.1711,38.7100,95,99,269543
1.6911,0.1662,38.5500,95,99,269547
1.6569,0.1613,38.7100,95,99,269550
1.6813,0.1613,38.5800,95,99,269553
1.6569,0.1662,38.6200,95,99,269557
1.6667,0.1564,38.7100,95,99,269560
1.6813,0.1662,38.5500,95,99,269563
1.6764,0.1662,38.7100,95,99,269566
1.6960,0.1662,38.4900,95,99,269571
1.6667,0.1662,38.6500,95,99,269574
1.6716,0.1613,38.7400,95,99,269577
1.6960,0.1613,38.6500,95,99,269581
1.7107,0.1564,38.7100,95,99,269584
1.7253,0.1662,38.4600,95,99,269587
1.6960,0.1662,38.6200,95,99,269591
1.7058,0.1515,38.7100,95,99,269594
1.7155,0.2053,38.6800,95,99,269597
1.7107,0.1613,38.7400,95,99,269601
1.7644,0.1808,38.5500,95,99,269604
1.7351,0.1711,38.6500,95,99,269607
1.7204,0.1564,38.6500,95,99,269611
1.7400,0.1662,38.7100,95,99,269615
1.7155,0.1613,38.7400,95,99,269618
1.7449,0.1808,38.5200,95,99,269621
1.7204,0.1515,38.6800,95,99,269625
1.7351,0.1613,38.5500,95,99,269628
1.7155,0.1564,38.7100,95,99,269631
1.7204,0.1613,38.7100,95,99,269635
1.7302,0.1662,38.5800,95,99,269638
1.7058,0.1613,38.7100,95,99,269641
1.7400,0.1711,38.6500,95,99,269645
1.7107,0.1662,38.7100,95,99,269648
1.7204,0.1613,38.6800,95,99,269651
1.7302,0.1906,38.5800,95,99,269655
1.7498,0.1613,38.7100,95,99,269659
1.7498,0.1613,38.5200,95,99,269662
1.7302,0.1613,38.7100,95,99,269665
1.7449,0.1515,38.7100,95,99,269669
1.7742,0.2053,38.6200,95,99,269672
1.7742,0.1613,38.7100,95,99,269675
1.8328,0.1711,38.4600,95,99,269679
1.8133,0.1662,38.6200,95,99,269682
1.8182,0.1613,38.6800,95,99,269685
1.8328,0.1662,38.6800,95,99,269689
1.8328,0.1613,38.8400,95,99,269692
1.8915,0.1857,38.4300,95,99,269696
1.8671,0.1662,38.7100,95,99,269700
1.8817,0.1613,38.6500,95,99,269703
1.9062,0.1613,38.8100,95,99,269706
1.9306,0.1808,38.7400,95,99,269709
1.9844,0.1711,38.5800,95,99,269713
1.9550,0.1662,38.6200,95,99,269716
1.9404,0.1564,38.6200,95,99,269719
1.8866,0.1613,38.7100,95,99,269723
1.8524,0.1613,38.7100,95,99,269726
1.8377,0.1662,38.6800,95,99,269729
1.7889,0.1613,38.8100,95,99,269733
1.7791,0.1711,38.5500,95,99,269736
1.7253,0.1613,38.7100,95,99,269740
1.6862,0.1613,38.7400,95,99,269744
1.6911,0.1711,38.5500,95,99,269747
1.6471,0.1515,38.7100,95,99,269750
1.6471,0.1613,38.5200,95,99,269754
1.6178,0.1613,38.6200,95,99,269757
1.6080,0.1613,38.7100,95,99,269760
1.6178,0.1515,38.6200,95,99,269763
1.5934,0.1613,38.7100,95,99,269767
1.6227,0.1662,38.4600,95,99,269770
1.5934,0.1564,38.6500,95,99,269773
1.5885,0.1760,38.7100,95,99,269777
1.6031,0.1613,38.6800,95,99,269780
1.5885,0.1613,38.7400,95,99,269784
1.6325,0.1808,38.4600,95,99,269788
1.5982,0.1613,38.6200,95,99,269791
1.5982,0.1564,38.6500,95,99,269794
1.6276,0.1613,38.7100,95,99,269798
1.6129,0.1613,38.7400,95,99,269801
1.6716,0.1711,38.5500,95,99,269804
1.6373,0.1662,38.6200,95,99,269807
1.6325,0.1564,38.6200,95,99,269811
1.5836,0.1613,38.5800,95,99,269814
1.5249,0.1613,38.7100,95,99,269817
1.4907,0.1711,38.5500,95,99,269821
1.4321,0.1662,38.6800,95,99,269825
1.4761,0.1662,38.5500,95,99,269828
1.6031,0.1613,38.7400,95,99,269832
1.9159,0.1613,38.7100,95,99,269835
2.3754,0.1613,38.5500,95,99,269838
2.8690,0.1662,38.7100,95,99,269842
3.4066,0.1662,38.5500,95,99,269845
3.6804,0.1613,38.9300,95,99,269848
3.7390,0.1662,38.7100,95,99,269851
3.5386,0.1662,38.5500,95,99,269855
3.0987,0.1613,38.6500,95,99,269858
2.6979,0.1711,38.4900,95,99,269861
2.2287,0.1613,37.9300,95,99,269865
1.9013,0.1906,38.7100,95,99,269869
1.6813,0.1662,38.6500,95,99,269872
1.5249,0.1613,38.7100,95,99,269876
1.4858,0.1760,38.4600,95,99,269879
1.4174,0.1662,38.6500,95,99,269882
1.3930,0.1613,38.7100,95,99,269886
1.3930,0.1515,38.6800,95,99,269889
1.3930,0.1613,38.7100,95,99,269892
1.4809,0.1711,38.4900,95,99,269895
1.4223,0.1711,38.6200,95,99,269899
1.4272,0.1564,38.6500,95,99,269902
1.4223,0.1613,38.7400,95,99,269905
1.4418,0.1613,38.7400,95,99,269910
1.4858,0.1711,38.5800,95,99,269913
1.4809,0.1857,38.6500,95,99,269916
1.5152,0.1613,38.5800,95,99,269920
1.5054,0.1613,38.7400,95,99,269923
1.5298,0.1613,38.6800,95,99,269926
1.5591,0.1613,38.9600,95,99,269930
1.5591,0.1662,38.7100,95,99,269933
1.5982,0.1515,38.6500,95,99,269936
1.6080,0.1662,38.7100,95,99,269940
1.5885,0.1613,38.7100,95,99,269943
1.6227,0.1711,38.5500,95,99,269946
1.6813,0.1613,38.6800,95,99,269952
1.6667,0.1613,38.8100,95,99,269955
1.7155,0.1760,38.4300,95,99,269959
1.6911,0.1662,38.7100,95,99,269962
1.6862,0.1515,38.6500,95,99,269965
1.7009,0.1613,38.6800,95,99,269968
1.7009,0.1613,38.7100,95,99,269972
1.7546,0.1808,38.5200,95,99,269975
1.7498,0.1613,38.6500,95,99,269978
1.7400,0.1613,38.5800,95,99,269982
1.7400,0.1906,38.7100,95,99,269985
1.7498,0.1613,38.7400,95,99,269988
1.7937,0.1711,38.6200,95,99,269992
1.7937,0.1662,38.7100,95,99,269996
1.8182,0.1515,38.5800,95,99,269999
1.8133,0.1613,38.7100,95,99,270003
1.8084,0.1613,38.7100,95,99,270006
1.8475,0.1857,38.5800,95,99,270009
1.8328,0.1515,38.7100,95,99,270012
1.8671,0.1613,38.5800,95,99,270016
1.8475,0.1613,38.5500,95,99,270019
1.8622,0.1613,38.7100,95,99,270022
1.8915,0.1662,38.5800,95,99,270026
1.8817,0.1613,38.7400,95,99,270029
1.9501,0.1613,38.4900,95,99,270032
1.9062,0.1662,38.6500,95,99,270036
1.9110,0.1613,38.8100,95,99,270040
1.9355,0.1662,38.6500,95,99,270043
1.9257,0.1613,38.4600,95,99,270047
1.9795,0.1760,38.4300,95,99,270050
1.9404,0.1613,38.5800,95,99,270053
1.9453,0.1711,38.7400,95,99,270056
1.9599,0.1662,38.7100,95,99,270060
1.9599,0.1613,38.7100,95,99,270063
2.0332,0.1808,38.5200,95,99,270066
1.9892,0.1662,38.6800,95,99,270070
1.9892,0.1564,38.6500,95,99,270073
1.9844,0.1515,38.7100,95,99,270076
1.9795,0.1613,38.7100,95,99,270081
2.0186,0.1711,38.5200,95,99,270084
1.9892,0.2199,38.6800,95,99,270087
2.0332,0.1662,38.5800,95,99,270091
1.9697,0.1515,38.7100,95,99,270094
1.9599,0.1613,38.7100,95,99,270097
1.9795,0.1711,38.6200,95,99,270100
1.9404,0.1613,38.6200,95,99,270104
1.9501,0.1711,38.6200,95,99,270107
1.9013,0.1515,38.8100,95,99,270110
1.8817,0.1662,38.8100,95,99,270114
1.8817,0.1662,38.6200,95,99,270117
1.8524,0.1613,38.7100,95,99,270120
1.8964,0.1613,38.5200,95,99,270125
1.8231,0.1711,38.7100,95,99,270128
1.8182,0.1613,38.7100,95,99,270131
1.8231,0.1662,38.6500,95,99,270135
1.8084,0.1613,38.7400,95,99,270138
1.8524,0.1662,38.4600,95,99,270141
1.8231,0.1662,38.6200,95,99,270145
1.8182,0.1613,38.7400,95,99,270148
1.8280,0.1662,38.7100,95,99,270151
1.8231,0.1613,38.8100,95,99,270154
1.9159,0.1808,38.4900,95,99,270158
1.8475,0.1711,38.7100,95,99,270161
1.8426,0.1613,38.6500,95,99,270164
1.8524,0.1613,38.7100,95,99,270169
1.8475,0.1564,38.7100,95,99,270172
1.8817,0.1711,38.5500,95,99,270175
1.8671,0.1662,38.6500,95,99,270179
1.8817,0.1662,38.5800,95,99,270182
1.8524,0.1613,38.8100,95,99,270185
1.8573,0.1613,38.7100,95,99,270189
1.8768,0.1662,38.9600,95,99,270192
1.8768,0.1613,38.7100,95,99,270195
1.8866,0.1711,38.6200,95,99,270199
1.8573,0.1613,38.6800,95,99,270202
1.8622,0.1613,38.9600,95,99,270205
1.8866,0.1662,38.6200,95,99,270209
1.8622,0.1515,38.7400,95,99,270213
1.8866,0.1613,38.4900,95,99,270216
1.8671,0.1613,38.5800,95,99,270219
1.8622,0.1613,38.8400,95,99,270223
1.8768,0.1515,38.6200,95,99,270226
1.8524,0.1613,38.5800,95,99,270229
1.8964,0.1662,38.4600,95,99,270233
1.8719,0.1613,38.6200,95,99,270236
1.8719,0.1662,38.8100,95,99,270239
1.8915,0.1662,38.7100,95,99,270243
1.9013,0.1613,38.7400,95,99,270246
1.9795,0.1711,38.4600,95,99,270249
1.9404,0.1613,38.6200,95,99,270254
1.9599,0.1564,38.6500,95,99,270257
1.9404,0.1515,38.7100,95,99,270260
1.9795,0.1564,38.7100,95,99,270263
1.9892,0.1760,38.5800,95,99,270267
1.9648,0.1662,38.6800,95,99,270270
1.9892,0.1662,38.5800,95,99,270273
1.9990,0.1613,38.7100,95,99,270277
2.0186,0.1662,38.7100,95,99,270280
2.0772,0.1711,38.5200,95,99,270283
2.0626,0.1662,38.6800,95,99,270287
2.0821,0.1613,38.5500,95,99,270290
2.0332,0.1613,38.7400,95,99,270294
1.9990,0.1613,38.6500,95,99,270298
1.9941,0.1662,38.6200,95,99,270301
1.9355,0.1613,38.8100,95,99,270304
1.9208,0.1662,38.5500,95,99,270307
1.8524,0.1515,38.6800,95,99,270311
1.8377,0.1613,38.7100,95,99,270314
1.8328,0.1662,38.6200,95,99,270317
1.7889,0.1662,38.7100,95,99,270321
1.8133,0.1662,38.4600,95,99,270324
1.7546,0.1564,38.6500,95,99,270327
1.7546,0.1613,38.7100,95,99,270331
1.7498,0.1662,38.6200,95,99,270334
1.7400,0.1613,38.7700,95,99,270338
1.7889,0.1515,38.4300,95,99,270342
1.7546,0.1955,38.6200,95,99,270345
1.7742,0.1564,38.7100,95,99,270348
1.7595,0.1662,38.6800,95,99,270351
1.7693,0.1613,38.7100,95,99,270355
1.8035,0.1760,38.5200,95,99,270358
1.7791,0.1760,38.6500,95,99,270361
1.7791,0.1613,38.6200,95,99,270365
1.7742,0.1613,38.7100,95,99,270368
1.8133,0.1564,38.7100,95,99,270371
1.8231,0.1711,38.5500,95,99,270375
1.8182,0.1662,38.6800,95,99,270379
1.8328,0.1662,38.5800,95,99,270382
1.7937,0.1613,38.7100,95,99,270386
1.7546,0.1613,37.8700,95,99,270389
1.7253,0.1662,38.6800,95,99,270392
1.6325,0.1515,38.7100,95,99,270396
1.6227,0.1760,38.5800,95,99,270399
1.6471,0.1613,38.8100,95,99,270402
1.8328,0.1613,38.7100,95,99,270405
2.1896,0.1760,38.6200,95,99,270409
2.6393,0.1613,38.7100,95,99,270412
3.2454,0.1662,38.4600,95,99,270415
3.6901,0.1662,38.6800,95,99,270419
3.9345,0.1711,38.7400,95,99,270423
3.9443,0.1711,38.6500,95,99,270426
3.6119,0.1613,38.7100,95,99,270430
3.2649,0.1711,38.4300,95,99,270433
2.7468,0.1662,38.6800,95,99,270436
2.3460,0.1808,38.7100,95,99,270440
2.0626,0.1613,38.6800,95,99,270443
1.8524,0.1613,38.7100,95,99,270446
1.7840,0.1808,38.4900,95,99,270449
1.6911,0.1760,38.6200,95,99,270453
1.6373,0.1564,38.6500,95,99,270456
1.6325,0.1662,38.7100,95,99,270459
1.6373,0.1613,38.8100,95,99,270464
1.7058,0.1711,38.5800,95,99,270467
1.6569,0.1662,38.6800,95,99,270470
1.6813,0.1613,38.6200,95,99,270474
1.6716,0.1613,38.7100,95,99,270477
1.6911,0.1906,38.8100,95,99,270480
1.7400,0.1760,38.5500,95,99,270484
1.7253,0.1613,38.7100,95,99,270487
1.7693,0.1613,38.5800,95,99,270490
1.7498,0.1564,38.6800,95,99,270494
1.7693,0.1613,38.7100,95,99,270497
1.7986,0.1662,38.6200,95,99,270500
1.7986,0.1955,38.7400,95,99,270503
1.8768,0.1613,38.5200,95,99,270508
1.8280,0.1613,38.5800,95,99,270511
1.8426,0.1662,38.7400,95,99,270514
1.8768,0.1711,38.6500,95,99,270518
1.8671,0.1662,38.7100,95,99,270521
1.9404,0.1662,38.4300,95,99,270524
1.8964,0.1515,38.6500,95,99,270528
1.9159,0.1613,38.7400,95,99,270531
1.9355,0.1662,38.7100,95,99,270534
1.9453,0.1613,38.7100,95,99,270538
2.0137,0.1906,38.4600,95,99,270541
1.9795,0.1564,38.6500,95,99,270544
1.9941,0.1515,38.6500,95,99,270547
2.0039,0.1711,38.6800,95,99,270552
2.0137,0.1613,38.7100,95,99,270555
2.0674,0.1711,38.7400,96,99,270558
2.1065,0.1613,38.5800,96,99,270563
2.0919,0.1613,38.7100,96,99,270566
2.1359,0.1613,38.1500,96,99,270570
2.1163,0.1564,38.6800,96,99,270573
2.1359,0.1515,38.6800,96,99,270576
2.1701,0.1613,38.6200,96,99,270580
2.1994,0.1564,38.7100,96,99,270583
2.2239,0.1515,38.5200,96,99,270586
2.1945,0.1613,38.7400,96,99,270590
2.2239,0.1662,38.7100,96,99,270594
2.2630,0.1662,38.6800,96,99,270597
2.2434,0.1613,38.9300,96,99,270601
2.3118,0.1662,38.4000,96,99,270604
2.2874,0.1515,38.6500,96,99,270607
2.2825,0.1613,38.7700,96,99,270610
2.3021,0.1613,38.6800,96,99,270614
2.3021,0.1613,38.8700,96,99,270617
2.3803,0.1857,38.4900,96,99,270620
2.3460,0.1711,38.6200,96,99,270624
2.3363,0.1564,38.6500,96,99,270627
2.3412,0.1564,38.7100,96,99,270630
2.3460,0.1613,38.7100,96,99,270635
2.3949,0.1711,38.5500,96,99,270638
2.3803,0.1613,38.7100,96,99,270641
2.3900,0.1613,38.5800,96,99,270645
2.3705,0.1613,38.6800,96,99,270648
2.3754,0.1515,38.7400,96,99,270651
2.4047,0.1662,38.6500,96,99,270654
2.3851,0.1564,38.7100,96,99,270658
2.4194,0.1613,38.5800,96,99,270661
2.3803,0.1564,38.7400,96,99,270664
2.3754,0.1613,38.7100,96,99,270668
2.3998,0.1662,38.7400,96,99,270671
2.3851,0.1662,38.7100,96,99,270674
2.3705,0.1613,38.5500,96,99,270679
2.3314,0.1564,38.6800,96,99,270682
2.3216,0.1613,38.7400,96,99,270685
2.3265,0.1711,38.6200,96,99,270689
2.2972,0.1613,38.7100,96,99,270692
2.3265,0.1662,38.5500,96,99,270695
2.2972,0.1613,38.6500,96,99,270698
2.2630,0.1515,38.7100,96,99,270702
2.2727,0.1662,38.6500,96,99,270705
2.2581,0.1613,38.7100,96,99,270708
2.3167,0.1662,38.4000,96,99,270712
2.2678,0.1613,38.6200,96,99,270715
2.2581,0.1564,38.7100,96,99,270718
2.2630,0.1613,38.6800,96,99,270723
2.2581,0.1515,38.7100,96,99,270726
2.3265,0.1711,38.5200,96,99,270729
2.3021,0.1662,38.6500,96,99,270733
2.2923,0.1564,38.5500,96,99,270736
2.2874,0.1613,38.7100,96,99,270739
2.2972,0.1564,38.7100,96,99,270742
2.3363,0.1711,38.5200,96,99,270746
2.3069,0.1613,38.7400,96,99,270749
2.3265,0.1613,38.5800,96,99,270752
2.2923,0.1613,38.7100,96,99,270756
2.3021,0.1613,38.7100,96,99,270759
2.3412,0.1662,38.6200,96,99,270763
2.3118,0.1613,38.7100,96,99,270767
2.3460,0.1564,38.5800,96,99,270770
2.3265,0.1564,38.6800,96,99,270773
2.3167,0.1564,38.8100,96,99,270777
2.3314,0.1662,38.5800,96,99,270780
2.3069,0.1613,38.7100,96,99,270783
2.3460,0.1613,38.4900,96,99,270786
2.3021,0.1613,38.7100,96,99,270790
2.3069,0.1564,38.7400,96,99,270793
2.3265,0.1662,38.4900,96,99,270796
2.3216,0.1613,38.7100,96,99,270800
2.3509,0.1662,38.5200,96,99,270803
2.3167,0.1613,38.5800,96,99,270807
2.3021,0.1564,38.7100,96,99,270811
2.3118,0.1711,38.6500,96,99,270814
2.3216,0.1564,38.6800,96,99,270817
2.3803,0.1515,38.4900,96,99,270821
2.3412,0.1711,38.5800,96,99,270824
2.3412,0.1564,38.6500,96,99,270827
2.3509,0.1613,38.6500,96,99,270830
2.3558,0.1564,38.7100,96,99,270834
2.4096,0.1711,38.5500,96,99,270837
2.3754,0.1613,38.6800,96,99,270840
2.4047,0.1662,38.5800,96,99,270844
2.3656,0.1613,38.7100,96,99,270848
2.3851,0.1564,38.7100,96,99,270851
2.4389,0.1662,38.6500,96,99,270855
2.4389,0.1613,38.6800,96,99,270858
2.4878,0.1711,38.5500,96,99,270861
2.4585,0.1613,38.5800,96,99,270865
2.4536,0.1613,38.7100,96,99,270868
2.4682,0.1662,38.5800,96,99,270871
2.3949,0.1613,38.8100,96,99,270874
2.3851,0.1564,38.5200,96,99,270878
2.3216,0.1564,38.8100,96,99,270881
2.2874,0.1564,38.7400,96,99,270884
2.2776,0.1613,38.6200,96,99,270888
2.2239,0.1564,38.7100,96,99,270892
2.2483,0.1662,38.4600,96,99,270895
2.1799,0.1613,38.8100,96,99,270899
2.1408,0.1613,38.7400,96,99,270902
2.1408,0.1662,38.6500,96,99,270905
2.1065,0.1564,38.7100,96,99,270908
2.1457,0.1662,38.4600,96,99,270912
2.0870,0.1515,38.6200,96,99,270915
2.0821,0.1564,38.7100,96,99,270918
2.0772,0.1564,38.7100,96,99,270922
2.0674,0.1564,38.7700,96,99,270925
2.1261,0.1906,38.5200,96,99,270928
2.1114,0.1613,38.6500,96,99,270932
2.0772,0.1564,38.6200,96,99,270936
2.0674,0.1662,38.7100,96,99,270939
2.0674,0.1564,38.7100,96,99,270943
2.1065,0.1515,38.6200,96,99,270946
2.0821,0.1662,38.6800,96,99,270949
2.0919,0.1515,38.6200,96,99,270952
2.0723,0.1613,38.8100,96,99,270956
2.0674,0.1613,38.7100,96,99,270959
2.0723,0.1613,38.5500,96,99,270962
2.0039,0.1515,38.8400,96,99,270966
1.9648,0.1613,38.5800,96,99,270969
1.8768,0.1662,38.6800,96,99,270972
1.8328,0.1564,38.7100,96,99,270977
1.8768,0.1515,38.6200,96,99,270980
2.0332,0.1564,38.6800,96,99,270983
2.3754,0.1564,38.5500,96,99,270986
2.7957,0.1564,38.7100,96,99,270990
3.3333,0.1564,38.7700,96,99,270993
3.8465,0.1711,38.6800,96,99,270996
4.1056,0.1564,38.2400,96,99,271000
4.1740,0.1613,38.4600,96,99,271003
3.8759,0.1662,38.5800,96,99,271006
3.3871,0.1564,38.7400,96,99,271010
2.9619,0.1613,38.6800,96,99,271013
2.5220,0.1564,38.7100,96,99,271016
2.2678,0.1662,38.4300,96,99,271021
2.0430,0.1564,38.6500,96,99,271024
1.8768,0.1564,38.7100,96,99,271027
1.8182,0.1613,38.6800,96,99,271030
1.8133,0.1564,38.7100,96,99,271034
1.8231,0.1711,38.5200,96,99,271037
1.8182,0.1613,38.6500,96,99,271040
1.7840,0.1515,38.6500,96,99,271044
1.7791,0.2053,38.8100,96,99,271047
1.7889,0.1564,38.7100,96,99,271050
1.8231,0.1857,38.6200,96,99,271054
1.8035,0.1515,38.7100,96,99,271057
1.8280,0.1515,38.5200,96,99,271060
1.8084,0.1564,38.7100,96,99,271065
1.8231,0.1564,38.8400,96,99,271068
1.8573,0.1711,38.5500,96,99,271071
1.8377,0.1857,38.7100,96,99,271075
1.9062,0.1564,38.5800,96,99,271078
1.8573,0.1564,38.6500,96,99,271081
1.8719,0.1564,38.7100,96,99,271084
1.9013,0.1613,38.6500,96,99,271088
1.8866,0.1564,38.8100,96,99,271091
1.9257,0.1613,38.4900,96,99,271094
1.9013,0.1564,38.5800,96,99,271098
1.9013,0.1564,38.7100,96,99,271101
1.9208,0.1662,38.6200,96,99,271105
1.9159,0.1564,38.6500,96,99,271109
1.9697,0.1662,38.4300,96,99,271112
1.9306,0.1564,38.6200,96,99,271115
1.9453,0.1564,38.7100,96,99,271119
1.9453,0.1515,38.7100,96,99,271122
1.9501,0.1613,38.7100,96,99,271125
2.0088,0.1760,38.4600,96,99,271128
1.9648,0.1613,38.7400,96,99,271132
1.9599,0.1662,38.6500,96,99,271135
1.9599,0.1613,38.1100,96,99,271138
1.9648,0.1613,38.7100,96,99,271142
2.0088,0.1515,38.5200,96,99,271145
1.9892,0.1564,38.6500,96,99,271149
1.9990,0.1564,38.5800,96,99,271153
1.9844,0.1564,38.7100,96,99,271156
1.9844,0.1613,38.7100,96,99,271159
2.0186,0.1613,38.5800,96,99,271163
2.0039,0.1613,38.7400,96,99,271166
2.0332,0.1613,38.5800,96,99,271169
2.0137,0.1662,38.7100,96,99,271172
2.0283,0.1711,38.7400,96,99,271177
2.0381,0.1564,38.7400,96,99,271180
2.0528,0.1613,38.7400,96,99,271184
2.0528,0.1564,38.6800,96,99,271187
2.0968,0.1662,38.4600,96,99,271191
2.0723,0.1711,38.6500,96,99,271195
2.0626,0.1564,38.7400,96,99,271198
2.0870,0.1613,38.6800,96,99,271201
2.0821,0.1613,38.7100,96,99,271205
2.1408,0.1711,38.4600,96,99,271208
2.1065,0.1613,38.6200,96,99,271211
2.0919,0.1613,38.6500,96,99,271214
2.0968,0.1613,38.6800,96,99,271218
2.0919,0.1564,38.7100,96,99,271221
2.1408,0.1711,38.5500,96,99,271224
2.1114,0.1613,38.6500,96,99,271228
2.1065,0.1564,38.7400,96,99,271232
2.0821,0.1564,38.7100,96,99,271235
2.0772,0.1564,38.7100,96,99,271239
2.0919,0.1662,38.6500,96,99,271242
2.0528,0.1662,38.6800,96,99,271245
2.0821,0.1613,38.5800,96,99,271248
2.0186,0.1564,38.7400,96,99,271252
2.0039,0.1906,38.7100,96,99,271255
2.0137,0.1662,38.5500,96,99,271258
1.9697,0.1613,38.6800,96,99,271262
1.9844,0.1564,38.5800,96,99,271265
1.9306,0.1564,39.1200,96,99,271268
1.9159,0.1564,38.7100,96,99,271272
1.9208,0.1613,37.7100,96,99,271276
1.8866,0.1564,38.7100,96,99,271279
1.9159,0.1613,38.4900,96,99,271283
1.8915,0.1564,38.6200,96,99,271286
1.8866,0.1564,38.7100,96,99,271289
1.9110,0.1515,38.6200,96,99,271292
1.8866,0.1564,38.7700,96,99,271296
1.9355,0.1613,38.4300,96,99,271299
1.8866,0.1564,38.6200,96,99,271302
1.8915,0.1564,38.7100,96,99,271306
1.8915,0.1515,38.8100,96,99,271309
1.8866,0.1564,38.7100,96,99,271312
1.9404,0.1515,38.4900,96,99,271316
1.9062,0.1613,38.6500,96,99,271320
1.9159,0.1564,38.6500,96,99,271323
1.8915,0.1613,38.6800,96,99,271327
1.8964,0.1564,38.7100,96,99,271330
1.9257,0.1662,38.4600,96,99,271333
1.9013,0.1613,38.6800,96,99,271337
1.9159,0.1564,38.6800,96,99,271340
1.8964,0.1662,38.7100,96,99,271343
1.8964,0.1515,38.7100,96,99,271346
1.9208,0.1662,38.5800,96,99,271350
1.9013,0.1564,38.7100,96,99,271353
1.9257,0.1662,38.5800,96,99,271356
1.8964,0.1613,38.8100,96,99,271361
1.8964,0.1515,38.7100,96,99,271364
1.9062,0.1955,38.5800,96,99,271367
1.9159,0.1564,38.7100,96,99,271371
1.9110,0.1564,38.5500,96,99,271374
1.8817,0.1564,38.7100,96,99,271377
1.8768,0.1564,38.7400,96,99,271381
1.8866,0.1760,38.6200,96,99,271384
1.8671,0.1564,38.7100,96,99,271387
1.9062,0.1857,38.4900,96,99,271390
1.8866,0.1613,38.5800,96,99,271394
1.8671,0.1515,38.7100,96,99,271397
1.8719,0.1613,38.6800,96,99,271400
1.8671,0.1515,38.7100,96,99,271405
1.9257,0.1662,38.4300,96,99,271408
1.8964,0.1613,38.7400,96,99,271411
1.8915,0.1760,38.6200,96,99,271415
1.9110,0.1564,38.7100,96,99,271418
1.9159,0.1515,38.7400,96,99,271421
1.9648,0.1760,38.5200,96,99,271425
1.9355,0.1613,38.6500,96,99,271428
1.9355,0.1564,38.5800,96,99,271431
1.9501,0.1613,38.7400,96,99,271434
1.9599,0.1515,38.6800,96,99,271438
2.0039,0.1662,38.6200,96,99,271441
2.0137,0.1613,38.6800,96,99,271444
2.0479,0.1613,38.5800,96,99,271449
2.0186,0.1564,38.7100,96,99,271452
2.0088,0.1564,38.7100,96,99,271455
2.0088,0.1515,38.7100,96,99,271459
1.9404,0.1711,38.7100,96,99,271462
1.9306,0.1564,38.5800,96,99,271465
1.8573,0.1515,38.6500,96,99,271468
1.8280,0.1808,38.7100,96,99,271472
1.8133,0.1613,38.5800,96,99,271475
1.7595,0.1515,38.6800,96,99,271478
1.7889,0.1564,38.4900,96,99,271482
1.7009,0.1564,38.5800,96,99,271485
1.6716,0.1613,38.6800,96,99,271489
1.6667,0.1662,38.6500,96,99,271493
1.6373,0.1515,38.7400,96,99,271496
1.6764,0.1613,38.4300,96,99,271499
1.6227,0.1564,38.6200,96,99,271503
1.6520,0.1564,38.7100,96,99,271506
1.6227,0.1613,38.8100,96,99,271509
1.6227,0.1564,38.7100,96,99,271513
1.6618,0.1711,38.4300,96,99,271516
1.6276,0.1711,38.6500,96,99,271519
1.6325,0.1515,38.6500,96,99,271522
1.6227,0.1613,38.7100,96,99,271526
1.6325,0.1515,38.8100,96,99,271529
1.6716,0.1613,38.5200,96,99,271533
1.6618,0.1613,38.5200,96,99,271537
1.6813,0.1564,38.5800,96,99,271540
1.6618,0.1564,38.7100,96,99,271543
1.6569,0.1760,38.7100,96,99,271547
1.6520,0.1711,38.5500,96,99,271550
1.5885,0.1564,38.6800,96,99,271553
1.5543,0.1613,38.5800,96,99,271557
1.4809,0.1564,38.7700,96,99,271560
1.4809,0.1564,38.7100,96,99,271563
1.5934,0.1564,38.5800,96,99,271567
1.8084,0.1515,38.7100,96,99,271570
2.2141,0.1564,38.4900,96,99,271574
2.6686,0.1515,38.7100,96,99,271577
3.1769,0.1564,38.7100,96,99,271581
3.6266,0.1613,38.6800,96,99,271584
3.7243,0.1613,38.7400,96,99,271587
3.6804,0.1613,38.4300,96,99,271591
3.2649,0.1515,38.6200,96,99,271594
2.7859,0.1564,38.7100,96,99,271597
2.3509,0.1613,38.6800,96,99,271601
1.9599,0.1564,38.7100,96,99,271604
1.7302,0.1662,38.4600,96,99,271607
1.5152,0.1613,38.5800,96,99,271611
1.4076,0.1564,38.6500,96,99,271614
1.3734,0.1662,38.6800,96,99,271618
1.3587,0.1564,38.7100,96,99,271621
1.4027,0.1662,38.5200,96,99,271625
1.3832,0.1613,38.6800,96,99,271628
1.3930,0.1515,38.5800,96,99,271631
1.3930,0.1564,38.7100,96,99,271635
1.4125,0.1906,38.7100,96,99,271638
1.4467,0.1613,38.6500,96,99,271641
1.4370,0.1564,38.7100,96,99,271645
1.4663,0.1613,38.6200,96,99,271648
1.4516,0.1613,38.9000,96,99,271651
1.4663,0.1808,38.7100,96,99,271655
1.4956,0.1613,38.6200,96,99,271659
1.4956,0.1662,38.7100,96,99,271662
1.5298,0.1564,38.5500,96,99,271665
1.5152,0.1515,38.6500,96,99,271669
1.5298,0.1857,38.7400,96,99,271672
1.5591,0.1613,38.5800,96,99,271675
1.5494,0.1564,38.7400,96,99,271679
1.5934,0.1613,38.4600,96,99,271682
1.5787,0.1662,38.6500,96,99,271685
1.5836,0.1564,38.7100,96,99,271689
1.5982,0.1613,38.5800,96,99,271692
1.5982,0.1466,38.8100,96,99,271695
1.6569,0.1662,38.4300,96,99,271699
1.6129,0.1906,38.5800,96,99,271703
1.6129,0.1564,38.6800,96,99,271706
1.6227,0.1613,38.8400,96,99,271709
1.6129,0.1564,38.7100,96,99,271713
1.6764,0.1711,38.4600,96,99,271716
1.6422,0.1564,38.6800,96,99,271719
1.6520,0.1515,38.6200,96,99,271723
1.6618,0.1613,38.6800,96,99,271726
1.6471,0.1564,38.7400,96,99,271729
1.6862,0.1662,38.5200,96,99,271733
1.6716,0.1613,38.6200,96,99,271736
1.6960,0.1613,38.5200,96,99,271739
1.7155,0.1564,38.7100,96,99,271744
1.6960,0.1564,38.7100,96,99,271747
1.7302,0.1662,38.6200,96,99,271750
1.7400,0.1662,38.7100,96,99,271754
1.7546,0.1515,38.5800,96,99,271757
1.7351,0.1564,38.6800,96,99,271760
1.7498,0.1564,38.6800,96,99,271763
1.7791,0.1613,38.5500,96,99,271767
1.7791,0.1662,38.7100,96,99,271770
1.8231,0.1613,38.4900,96,99,271773
1.7986,0.1613,38.7100,96,99,271777
1.8182,0.1564,38.7100,96,99,271780
1.8377,0.1662,38.6800,96,99,271783
1.8719,0.1662,38.6800,96,99,271789
1.8768,0.1515,38.7100,96,99,271792
1.9257,0.1955,38.5200,96,99,271796
1.9013,0.1515,38.6500,96,99,271799
1.9062,0.1564,38.6200,96,99,271802
1.9208,0.1613,38.7100,96,99,271806
1.9013,0.1564,38.7100,96,99,271809
1.9355,0.1662,38.5500,96,99,271812
1.9257,0.1613,38.7100,96,99,271815
1.9501,0.1613,38.0800,96,99,271819
1.9159,0.1662,38.7100,96,99,271822
1.9159,0.1564,38.7400,96,99,271825
1.9110,0.1955,38.6200,96,99,271830
1.8915,0.1613,38.7400,96,99,271833
1.9062,0.1515,38.7700,96,99,271836
1.8622,0.1564,38.7100,96,99,271840
1.8475,0.1613,38.7700,96,99,271843
1.8719,0.1662,38.5800,96,99,271846
1.8182,0.1613,38.5500,96,99,271850
1.8377,0.1662,38.4900,96,99,271853
1.8035,0.1662,38.7400,96,99,271856
1.7791,0.1564,38.7100,96,99,271860
1.7840,0.1662,38.6800,96,99,271863
1.7546,0.1564,38.7100,96,99,271866
1.8182,0.1662,38.4300,96,99,271869
1.7595,0.1613,38.5800,96,99,271874
1.7498,0.1564,38.6800,96,99,271877
1.7595,0.1613,38.6800,96,99,271880
1.7595,0.1613,38.9600,96,99,271884
1.8133,0.1760,38.5200,96,99,271887
1.7840,0.1662,38.9300,96,99,271890
1.7791,0.1564,38.6500,96,99,271894
1.7742,0.1613,38.7100,96,99,271897
1.7742,0.1662,38.7400,96,99,271900
1.8035,0.1711,38.6200,96,99,271904
1.7889,0.1613,38.9300,96,99,271907
1.8035,0.1662,38.5800,96,99,271910
1.7840,0.1613,38.7100,96,99,271913
1.7889,0.1515,38.7100,96,99,271918
1.8231,0.1515,38.6500,96,99,271921
1.7986,0.1662,38.6800,96,99,271924
1.8280,0.1613,38.6200,96,99,271928
1.7937,0.1564,38.6800,96,99,271931
1.7986,0.1613,38.7400,96,99,271934
1.8182,0.1662,38.6800,96,99,271938
1.7986,0.1613,38.7100,96,99,271941
1.8280,0.1613,38.4600,96,99,271944
1.7986,0.1613,38.6200,96,99,271948
1.7937,0.1564,38.6500,96,99,271951
1.8133,0.1662,38.6200,96,99,271954
1.7986,0.1515,37.9000,96,99,271959
1.8377,0.1662,38.4000,96,99,271962
1.7986,0.1564,38.6500,96,99,271965
1.7889,0.1564,38.7400,96,99,271968
1.8084,0.1662,38.6800,96,99,271972
1.7742,0.1613,38.9000,96,99,271975
1.8231,0.1857,38.4900,96,99,271978
1.7889,0.1711,38.6200,96,99,271982
1.7693,0.1564,38.6500,96,99,271985
1.7644,0.1515,38.7100,96,99,271988
1.7595,0.1711,38.7400,96,99,271992
1.7889,0.1662,38.5200,96,99,271995
1.7595,0.1711,38.6500,96,99,271998
1.7791,0.1613,38.5800,96,99,272003
1.7595,0.1613,38.9300,96,99,272006
1.7693,0.1613,38.7100,96,99,272009
1.8035,0.1711,38.5800,96,99,272013
1.7937,0.1613,38.6800,96,99,272016
1.8377,0.1662,38.5800,96,99,272019
1.8231,0.1613,38.7100,96,99,272022
1.8426,0.1662,38.8100,96,99,272026
1.8719,0.1613,38.6200,96,99,272029
1.8719,0.1613,38.7100,96,99,272032
1.9062,0.1613,38.5200,96,99,272036
1.8866,0.1613,38.6800,96,99,272039
1.9110,0.1564,38.7100,96,99,272043
1.9550,0.1662,38.6200,96,99,272047
1.9648,0.1662,38.7100,96,99,272050
2.0186,0.1662,38.4600,96,99,272053
2.0039,0.1662,38.6200,96,99,272056
1.9941,0.1613,38.7100,96,99,272060
1.9990,0.1515,38.6800,96,99,272063
1.9550,0.1613,38.6800,96,99,272066
1.9746,0.1711,38.4300,96,99,272070
1.9013,0.1613,38.5500,96,99,272073
1.8524,0.1564,38.6500,96,99,272076
1.8231,0.1613,38.7100,96,99,272080
1.7889,0.1613,38.7400,96,99,272083
1.8035,0.1760,38.5500,96,99,272087
1.7498,0.1662,38.4900,96,99,272091
1.7204,0.1564,38.6200,96,99,272094
1.6911,0.1613,38.7100,96,99,272097
1.6764,0.1613,38.7100,96,99,272101
1.6764,0.1711,38.7400,96,99,272104
1.6569,0.1564,38.6800,96,99,272107
1.6813,0.1613,38.5500,96,99,272110
1.6618,0.1564,38.7100,96,99,272114
1.6520,0.1613,38.7100,96,99,272117
1.6716,0.1711,38.5800,96,99,272120
1.6471,0.1613,38.7100,96,99,272124
1.6667,0.2102,38.5200,96,99,272128
1.6471,0.1613,38.6500,96,99,272131
1.6520,0.1613,38.7100,96,99,272135
1.6764,0.1662,38.5800,96,99,272138
1.6618,0.1613,38.7100,96,99,272141
1.7009,0.1760,38.4600,96,99,272145
1.6813,0.1662,38.6800,96,99,272148
1.6764,0.1613,38.6200,96,99,272151
1.6813,0.1613,38.6500,96,99,272154
1.6373,0.1515,38.7100,96,99,272158
1.6373,0.1808,38.4000,96,99,272161
1.5494,0.1613,38.6200,96,99,272164
1.5152,0.1564,38.7400,96,99,272168
1.5347,0.1613,38.6800,96,99,272172
1.6569,0.1857,38.7100,96,99,272175
1.9795,0.1760,38.5200,96,99,272179
2.3412,0.1662,38.6800,96,99,272182
2.8397,0.1613,38.6200,96,99,272185
3.3284,0.1613,38.6800,96,99,272189
3.6901,0.1613,38.7100,96,99,272192
3.8661,0.1711,38.5200,96,99,272195
3.6413,0.1613,38.6800,96,99,272199
3.2796,0.1613,38.5500,96,99,272202
2.7908,0.1662,38.7400,96,99,272205
2.3607,0.1711,38.7100,96,99,272208
2.0332,0.1711,38.7400,96,99,272212
1.7449,0.1613,38.7100,96,99,272216
1.5934,0.1613,38.5500,96,99,272219
1.4663,0.1564,38.6500,96,99,272223
1.4125,0.1613,38.7100,96,99,272226
1.3930,0.1613,38.5500,96,99,272229
1.3734,0.1564,38.7100,96,99,272233
1.3978,0.1662,38.4900,96,99,272236
1.3685,0.1613,38.7100,96,99,272239
1.3881,0.1515,38.7100,96,99,272243
1.4027,0.1662,38.6800,96,99,272246
1.4027,0.1613,38.7100,96,99,272249
1.4467,0.1711,37.9300,96,99,272252
1.4418,0.1711,38.6200,96,99,272257
1.4370,0.1515,38.7100,96,99,272260
1.4516,0.1613,38.6800,96,99,272263
1.4418,0.1613,38.6800,96,99,272267
1.5005,0.1760,38.5200,96,99,272270
1.4858,0.1711,38.6200,96,99,272273
1.4858,0.1613,38.6500,96,99,272277
1.4956,0.1613,38.7100,96,99,272280
1.5054,0.1564,38.7100,96,99,272283
1.5543,0.1760,38.5500,96,99,272287
1.5445,0.1662,38.6800,96,99,272290
1.5640,0.1613,38.5800,96,99,272293
1.5591,0.1662,38.7100,96,99,272296
1.5689,0.1613,38.7100,96,99,272301
1.5885,0.1662,38.6500,96,99,272304
1.5836,0.1613,38.7100,96,99,272307
1.6129,0.1711,38.7100,96,99,272311
1.5885,0.1613,38.7100,96,99,272314
1.6129,0.1613,38.7400,96,99,272317
1.6422,0.1711,38.6200,96,99,272321
1.6471,0.1613,38.7100,96,99,272324
1.6862,0.1613,38.4900,96,99,272327
1.6813,0.1662,38.5800,96,99,272331
1.6911,0.1613,38.7100,96,99,272334
1.7155,0.2053,38.6500,96,99,272337
1.7351,0.1613,38.7100,96,99,272342
1.7546,0.1711,38.4300,96,99,272345
1.7351,0.1515,38.6200,96,99,272348
1.7302,0.1613,38.7100,96,99,272352
1.7449,0.1613,38.6800,96,99,272355
1.7498,0.1515,38.1800,96,99,272358
1.8133,0.1857,38.4900,96,99,272361
1.7840,0.1711,38.6500,96,99,272365
1.7840,0.1613,38.6500,96,99,272368
1.7840,0.1613,38.7100,96,99,272371
1.7937,0.1711,38.7100,96,99,272375
1.8377,0.1711,38.5800,96,99,272378
1.8133,0.1662,38.7100,96,99,272381
1.8475,0.1662,38.5800,96,99,272386
1.8280,0.1662,38.7100,96,99,272389
1.8377,0.1613,38.7400,96,99,272392
1.8768,0.1711,38.5500,96,99,272396
1.9208,0.1613,38.5800,96,99,272400
1.8866,0.1613,38.6800,96,99,272404
1.9306,0.1662,38.4600,96,99,272407
1.9208,0.1711,38.6500,96,99,272410
1.9110,0.1613,38.7400,96,99,272414
1.9355,0.1662,38.6500,96,99,272417
1.9257,0.1613,38.7100,96,99,272420
1.9795,0.1711,37.9300,96,99,272423
1.9257,0.1662,38.6200,96,99,272428
1.9208,0.1564,38.7700,96,99,272431
1.9159,0.1711,38.6800,96,99,272434
1.9062,0.1613,38.7100,96,99,272438
1.9501,0.1857,38.5500,96,99,272441
1.9013,0.1662,38.6500,96,99,272444
1.8817,0.1613,38.5800,96,99,272448
1.8524,0.1662,38.7100,96,99,272451
1.8328,0.1662,38.7400,96,99,272454
1.8524,0.1711,38.5800,96,99,272458
1.8035,0.1662,38.5800,96,99,272461
1.8084,0.1760,38.5500,96,99,272464
1.7791,0.1613,38.7100,96,99,272468
1.7693,0.1613,38.7700,96,99,272472
1.7937,0.1711,38.5800,96,99,272475
1.7595,0.1662,38.7100,96,99,272478
1.7791,0.1662,38.5500,96,99,272482
1.7351,0.1564,38.7100,96,99,272485
1.7498,0.1613,38.7100,96,99,272488
1.7693,0.1662,38.5800,96,99,272492
1.7546,0.1662,37.8000,96,99,272495
1.7889,0.1662,38.4900,96,99,272498
1.7595,0.1613,38.7400,96,99,272502
1.7644,0.1613,38.7400,96,99,272505
1.7937,0.1760,38.6500,96,99,272508
1.7742,0.1613,38.6800,96,99,272513
1.8280,0.1760,38.4300,96,99,272516
1.8084,0.1662,38.6200,96,99,272519
1.7986,0.1613,38.7100,96,99,272522
1.8133,0.1662,38.6800,96,99,272526
1.8084,0.1613,38.7100,96,99,272529
1.8671,0.1808,38.4600,96,99,272532
1.8328,0.1711,38.7100,96,99,272536
1.8573,0.1613,38.6800,96,99,272539
1.8182,0.1662,38.5800,96,99,272542
1.8182,0.1711,38.7400,96,99,272546
1.8524,0.1711,38.5500,96,99,272549
1.8280,0.1711,38.6500,96,99,272552
1.8475,0.1662,38.5800,96,99,272557
1.8133,0.1662,38.7100,96,99,272560
1.8231,0.1662,38.7100,96,99,272563
1.8328,0.1711,38.5800,96,99,272566
1.8182,0.1613,38.6800,96,99,272570
1.8426,0.1711,38.6200,96,99,272573
1.8133,0.1662,38.7100,96,99,272576
1.8182,0.1613,38.8100,96,99,272580
1.8426,0.1711,38.5500,96,99,272583
1.8182,0.1662,38.7700,96,99,272586
1.8475,0.1760,38.5200,96,99,272590
1.8231,0.1662,38.6200,96,99,272593
1.8133,0.1906,38.7100,96,99,272596
1.8328,0.1711,38.6200,96,99,272601
1.8035,0.1662,38.7100,96,99,272604
1.8475,0.1711,38.4600,96,99,272607
1.8084,0.1711,38.5800,96,99,272611
1.7986,0.1662,38.7400,96,99,272614
1.8133,0.1662,38.6200,96,99,272617
1.8084,0.1662,38.7100,96,99,272621
1.8671,0.1515,38.4600,96,99,272624
1.8328,0.1760,38.6200,96,99,272627
1.8377,0.1613,38.6500,96,99,272630
1.8426,0.1711,38.7100,96,99,272634
1.8622,0.1662,38.8100,96,99,272637
1.9159,0.1760,38.5800,96,99,272641
1.9062,0.1662,38.7100,96,99,272645
1.9306,0.1662,38.6200,96,99,272648
1.9110,0.1662,38.7100,96,99,272651
1.9257,0.1662,38.7100,96,99,272655
1.9648,0.1711,38.5800,96,99,272658
1.9550,0.1711,38.7400,96,99,272661
2.0137,0.1711,38.5800,96,99,272665
1.9990,0.1515,38.7400,96,99,272668
2.0283,0.1760,38.7400,96,99,272671
2.0674,0.1515,38.5800,96,99,272675
2.0626,0.1662,38.8100,96,99,272678
2.0772,0.1857,38.5200,96,99,272681
2.0283,0.1613,38.6500,96,99,272685
1.9990,0.1613,38.9600,96,99,272689
1.9892,0.1808,38.6200,96,99,272692
1.9355,0.1613,38.7100,96,99,272695
1.9501,0.1711,38.4000,96,99,272699
1.8768,0.1613,38.6500,96,99,272702
1.8524,0.1613,38.7100,96,99,272705
1.8475,0.1662,38.6800,96,99,272709
1.8035,0.1662,38.7400,96,99,272712
1.8671,0.1760,38.4300,96,99,272715
1.7889,0.1662,38.7100,96,99,272718
1.7742,0.1711,38.6500,96,99,272722
1.7546,0.1662,38.0800,96,99,272726
1.7449,0.1613,38.7100,96,99,272729
1.7840,0.1760,38.5200,96,99,272733
1.7546,0.1711,38.8700,96,99,272736
1.7595,0.1662,38.6200,96,99,272739
1.7546,0.1515,38.7100,96,99,272743
1.7546,0.2004,38.7400,96,99,272746
1.7889,0.1711,38.5500,96,99,272749
1.7693,0.1662,38.8400,96,99,272753
1.7937,0.1711,38.6800,96,99,272756
1.7742,0.1662,38.8100,96,99,272759
1.7889,0.1613,38.7100,96,99,272763
1.8035,0.1662,38.6500,96,99,272766
1.7986,0.2151,38.7100,96,99,272770
1.8182,0.1662,38.5500,96,99,272773
1.7546,0.1613,38.7100,96,99,272777
1.7204,0.1613,38.7100,96,99,272780
1.6862,0.1711,38.6200,96,99,272783
1.6373,0.1662,38.6500,96,99,272787
1.7009,0.1760,38.4600,96,99,272790
1.8182,0.1711,38.6500,96,99,272793
2.0723,0.1662,38.9600,96,99,272797
2.4976,0.1711,38.6500,96,99,272800
2.9717,0.1662,38.9600,96,99,272803
3.5630,0.1760,38.4300,96,99,272807
3.8661,0.1662,38.8400,96,99,272811
3.9345,0.1662,38.6800,96,99,272814
3.7634,0.1515,38.6800,96,99,272818
3.3724,0.1662,38.6800,96,99,272821
3.0010,0.1760,38.5200,96,99,272824
2.5122,0.1711,38.6500,96,99,272827
2.1554,0.1662,38.5800,96,99,272831
1.8964,0.1613,38.7100,96,99,272834
1.7204,0.1662,38.7100,96,99,272837
1.6618,0.1760,38.6500,96,99,272841
1.5640,0.1515,38.7100,96,99,272844
1.5494,0.1662,38.5800,96,99,272847
1.5005,0.1662,38.7100,96,99,272851
1.5054,0.1662,38.7400,96,99,272855
1.5298,0.1808,38.5500,96,99,272858
1.5152,0.1662,38.6800,96,99,272862
1.5494,0.1711,38.5800,96,99,272865
1.5298,0.1613,38.6500,96,99,272868
1.5494,0.1662,38.9000,96,99,272871
1.5689,0.1711,38.5800,96,99,272875
1.5640,0.1662,38.7100,96,99,272878
1.5982,0.1662,38.4900,96,99,272881
1.5836,0.1662,38.6500,96,99,272885
1.5934,0.1613,38.7100,96,99,272888
1.6227,0.1760,38.6500,96,99,272891
1.6276,0.1515,38.7100,96,99,272896
1.6813,0.1711,38.4300,96,99,272899
1.6569,0.1613,38.7100,96,99,272902
1.6716,0.1613,38.7400,96,99,272906
1.6911,0.1515,38.7100,96,99,272909
1.7302,0.1613,38.7100,96,99,272912
1.7595,0.1808,38.4900,96,99,272915
1.7253,0.1711,38.6500,96,99,272919
1.7253,0.1613,38.6500,96,99,272922
1.7302,0.1711,38.6500,96,99,272925
1.7595,0.1662,38.7100,96,99,272929
1.7840,0.1711,38.5200,96,99,272932
1.7693,0.1662,38.6800,96,99,272935
1.7889,0.1662,38.5800,96,99,272940
1.7693,0.1662,38.8100,96,99,272943
1.7742,0.1760,38.7100,96,99,272946
1.8035,0.1515,38.5800,96,99,272950
1.7791,0.1662,38.6200,96,99,272953
1.8182,0.1760,38.5800,96,99,272956
1.7840,0.1662,38.7400,96,99,272959
1.7937,0.1808,38.7100,96,99,272963
1.8182,0.1662,38.6200,96,99,272966
1.8084,0.1662,38.6500,96,99,272969
1.8426,0.1857,38.5500,96,99,272973
1.8182,0.1662,38.6800,96,99,272976
1.8328,0.1613,38.7400,96,99,272979
1.8524,0.1711,38.6800,96,99,272984
1.8475,0.1662,38.7100,96,99,272987
1.9062,0.1711,38.4600,96,99,272990
1.8915,0.1711,38.6200,96,99,272994
1.9013,0.1613,38.6800,96,99,272997
1.9110,0.1711,38.6500,96,99,273000
1.9062,0.1613,38.7100,96,99,273004
1.9697,0.1711,38.4300,96,99,273007
1.9746,0.1711,38.5200,96,99,273012
1.9550,0.1613,38.6800,96,99,273015
1.9795,0.1515,38.5800,96,99,273018
1.9599,0.1662,38.7100,96,99,273021
1.9746,0.1613,38.7100,96,99,273026
1.9941,0.1760,38.5800,96,99,273029
1.9844,0.1760,38.7100,96,99,273032
2.0235,0.1662,38.5800,96,99,273036
1.9892,0.1662,38.7100,96,99,273039
1.9892,0.1515,38.7100,96,99,273042
2.0088,0.2053,38.5800,96,99,273046
1.9844,0.1613,38.6800,96,99,273049
1.9990,0.1662,38.5200,96,99,273052
1.9648,0.1662,38.5800,96,99,273056
1.9648,0.1662,38.7100,96,99,273059
1.9599,0.1711,38.6200,96,99,273062
1.9159,0.1662,38.7100,96,99,273065
1.9453,0.1662,38.4300,96,99,273070
1.8915,0.1613,38.6200,96,99,273073
1.8671,0.1613,38.7100,96,99,273076
1.8524,0.1662,38.6800,96,99,273080
1.8280,0.1662,38.6800,96,99,273083
1.8719,0.1808,38.5500,96,99,273086
1.8524,0.1662,38.6200,96,99,273090
1.8035,0.1613,38.8100,96,99,273093
1.7937,0.1857,38.7100,96,99,273096
1.7840,0.1662,38.7100,96,99,273100
1.8182,0.1662,38.5800,96,99,273103
1.7840,0.1711,38.6800,96,99,273106
1.7840,0.1662,38.5800,96,99,273111
1.7791,0.1613,38.7100,96,99,273114
1.7742,0.1613,38.7100,96,99,273117
1.8035,0.1760,38.5500,96,99,273120
1.7840,0.1662,38.6800,96,99,273124
1.8035,0.1711,38.6500,96,99,273127
1.7791,0.1662,38.7100,96,99,273130
1.7889,0.1515,38.7100,96,99,273134
1.8231,0.1662,38.5500,96,99,273137
1.7889,0.1662,38.7100,96,99,273140
1.8084,0.1906,38.5500,96,99,273144
1.7791,0.1613,38.6800,96,99,273147
1.7840,0.1613,38.6800,96,99,273150
1.7986,0.1760,38.5800,96,99,273155
1.7840,0.1662,38.7400,96,99,273158
1.8280,0.1711,38.4900,96,99,273161
1.7937,0.1613,38.6800,96,99,273164
1.8035,0.1662,38.7400,96,99,273168
1.8182,0.1613,38.6500,96,99,273171
1.7986,0.1662,38.7100,96,99,273174
1.8377,0.1711,38.4300,96,99,273178
1.8084,0.1662,39.0000,96,99,273181
1.7937,0.1613,38.7100,96,99,273184
1.7889,0.1662,38.7700,96,99,273188
1.7791,0.1662,38.7400,96,99,273191
1.8133,0.1711,38.5200,96,99,273195
1.7840,0.1760,38.5800,96,99,273199
1.7742,0.1613,38.6200,96,99,273202
1.7693,0.1662,38.7100,96,99,273205
1.7644,0.1564,38.6800,96,99,273209
1.7889,0.1711,38.5500,96,99,273212
1.7595,0.1613,38.7100,96,99,273215
1.7791,0.1662,38.5500,96,99,273218
1.7449,0.1662,38.6800,96,99,273222
1.7449,0.1613,38.7100,96,99,273225
1.7546,0.1662,38.6200,96,99,273228
1.7449,0.1613,38.7100,96,99,273232
1.7644,0.1662,38.5500,96,99,273235
1.7644,0.1662,38.7100,96,99,273239
1.7302,0.1662,38.7400,96,99,273243
1.7449,0.2053,38.5500,96,99,273246
1.7204,0.1662,38.7100,96,99,273249
1.7498,0.1662,38.4900,96,99,273253
1.7302,0.1711,38.5800,96,99,273256
1.7155,0.1662,38.9000,96,99,273259
1.7351,0.1711,38.6800,96,99,273263
1.7204,0.1662,38.7100,96,99,273266
1.7742,0.1760,38.4300,96,99,273269
1.7498,0.1662,38.6200,96,99,273272
1.7546,0.1613,38.7400,96,99,273276
1.7791,0.1662,38.6800,96,99,273280
1.7889,0.1662,38.6500,96,99,273283
1.8573,0.1760,38.5200,96,99,273287
1.8231,0.1711,38.6500,96,99,273290
1.8280,0.1613,38.6500,96,99,273293
1.8182,0.1613,38.7400,96,99,273297
1.8328,0.1662,38.6200,96,99,273300
1.8817,0.1760,38.6200,96,99,273303
1.8817,0.1711,38.6800,96,99,273307
1.9208,0.1662,38.5500,96,99,273310
1.9208,0.1662,38.7700,96,99,273313
1.9355,0.1906,38.7400,96,99,273316
1.9941,0.1711,38.5500,96,99,273320
1.9159,0.1564,38.6800,96,99,273324
1.9110,0.1662,38.5800,96,99,273327
1.8426,0.1613,38.6500,96,99,273331
1.8133,0.1662,38.7100,96,99,273334
1.7986,0.1760,38.5500,96,99,273337
1.7546,0.1662,38.7100,96,99,273341
1.7400,0.1711,38.5800,96,99,273344
1.6813,0.1711,38.6200,96,99,273347
1.6422,0.1662,38.7400,96,99,273351
1.6325,0.2004,38.6200,96,99,273354
1.5982,0.1662,38.7100,96,99,273357
1.6178,0.1515,38.4600,96,99,273360
1.5982,0.1564,38.6200,96,99,273364
1.5689,0.1662,38.7100,96,99,273368
1.5591,0.1711,38.7100,96,99,273371
1.5591,0.1662,38.7100,96,99,273375
1.6080,0.1857,38.4900,96,99,273378
1.5934,0.1613,38.6800,96,99,273381
1.5738,0.1613,38.6500,96,99,273385
1.5738,0.1662,38.7100,96,99,273388
1.5738,0.1662,38.8400,96,99,273391
1.6080,0.1760,38.5200,96,99,273395
1.5934,0.1515,38.6800,96,99,273398
1.6080,0.1711,38.5500,96,99,273401
1.6031,0.1662,38.6800,96,99,273405
1.6080,0.1662,38.7100,96,99,273409
1.6276,0.1760,38.5800,96,99,273412
1.5885,0.1662,38.6800,96,99,273415
1.5738,0.1711,38.7400,96,99,273419
1.5005,0.1613,38.7100,96,99,273422
1.4663,0.1613,38.7100,96,99,273425
1.4663,0.1662,38.6200,96,99,273429
1.5347,0.1613,38.7100,96,99,273432
1.7595,0.1662,38.5200,96,99,273435
2.0821,0.1613,38.7100,96,99,273439
2.5415,0.1662,38.5500,96,99,273442
3.0743,0.1613,38.6500,96,99,273445
3.4946,0.1662,38.7400,96,99,273449
3.8074,0.1711,38.4300,96,99,273453
3.7146,0.1760,38.6200,96,99,273456
3.3675,0.1662,38.7100,96,99,273459
2.9472,0.1711,38.6500,96,99,273463
2.4780,0.1662,38.7100,96,99,273466
2.1457,0.1760,38.4000,96,99,273469
1.8084,0.1613,38.5800,96,99,273473
1.5787,0.1515,38.6800,96,99,273476
1.4565,0.1711,38.6800,96,99,273479
1.4076,0.1662,38.7400,96,99,273483
1.3832,0.1808,38.4900,96,99,273486
1.3636,0.1808,38.6500,96,99,273489
1.3294,0.1662,38.6500,96,99,273494
1.3245,0.1662,38.6500,96,99,273497
1.3294,0.1662,38.7100,96,99,273500
1.3539,0.2102,38.6200,96,99,273503
1.3441,0.1662,38.6800,96,99,273507
1.3685,0.1711,38.1500,96,99,273510
1.3539,0.1662,38.7100,96,99,273513
1.3685,0.1662,38.7100,96,99,273517
1.4272,0.1711,38.5800,96,99,273520
1.3930,0.2004,38.6800,96,99,273523
1.4370,0.1662,38.5500,96,99,273527
1.4272,0.1662,38.5500,96,99,273530
1.4418,0.1662,38.7100,96,99,273533
1.4712,0.1808,38.5800,96,99,273538
1.4614,0.1662,38.7400,96,99,273541
1.5054,0.1711,38.4600,96,99,273544
1.4907,0.1711,38.6500,96,99,273548
1.4907,0.1662,38.7400,96,99,273551
1.5152,0.1711,38.6500,96,99,273554
1.5103,0.1662,38.7400,96,99,273557
1.5689,0.1760,38.3600,96,99,273561
1.5494,0.1662,38.6200,96,99,273564
1.5543,0.1613,38.9000,96,99,273567
1.5640,0.1711,38.6800,96,99,273571
1.5689,0.1662,38.7100,96,99,273574
1.6227,0.1711,38.5500,96,99,273577
1.5934,0.1662,38.7700,96,99,273582
1.6031,0.1613,38.5800,96,99,273585
1.5982,0.1662,38.7400,96,99,273588
1.6031,0.1662,38.7400,96,99,273592
1.6471,0.1711,38.5500,96,99,273595
1.6227,0.2004,38.6800,96,99,273598
1.6471,0.1662,38.5800,96,99,273602
1.6276,0.1662,38.7100,96,99,273605
1.6471,0.1662,38.7100,96,99,273608
1.6813,0.1711,38.5800,96,99,273611
1.6716,0.1662,37.8300,96,99,273615
1.7058,0.1760,38.5500,96,99,273618
1.6911,0.1808,38.4600,96,99,273622
1.7302,0.1515,38.5800,96,99,273626
1.7498,0.1662,38.6800,96,99,273629
1.7644,0.1711,38.6800,96,99,273633
1.7742,0.1613,38.7100,96,99,273636
1.8280,0.1857,38.4300,96,99,273639
1.7986,0.1760,38.6200,96,99,273643
1.8084,0.1662,38.6500,96,99,273646
1.8133,0.1760,38.6800,96,99,273649
1.8280,0.1613,38.7100,96,99,273653
1.8719,0.1515,38.5200,96,99,273656
1.8573,0.1711,38.6800,96,99,273659
1.8622,0.1662,38.5800,96,99,273664
1.8475,0.1564,38.7100,96,99,273667
1.8573,0.1613,38.7100,96,99,273670
1.8866,0.1760,38.5500,96,99,273673
1.8671,0.1662,38.7100,96,99,273677
1.8866,0.1711,38.7400,96,99,273680
1.8866,0.1662,38.7400,96,99,273683
1.8671,0.1662,38.6500,96,99,273687
1.8768,0.1613,38.6200,96,99,273690
1.8622,0.1662,38.7100,96,99,273693
1.8768,0.1711,38.5200,96,99,273697
1.8328,0.1662,38.7100,96,99,273700
1.8231,0.1711,38.7400,96,99,273703
1.8328,0.1760,38.6200,96,99,273708
1.7937,0.1711,38.7100,96,99,273711
1.8133,0.1711,38.4600,96,99,273714
1.7742,0.1711,38.5800,96,99,273718
1.7498,0.1613,38.7400,96,99,273721
1.7400,0.1662,38.6800,96,99,273724
1.7204,0.1711,38.7100,96,99,273727
1.7546,0.1515,38.4300,96,99,273731
1.7155,0.1808,38.5500,96,99,273734
1.6911,0.1613,38.6800,96,99,273737
1.6960,0.1662,38.7100,96,99,273741
1.6813,0.1613,38.6800,96,99,273744
1.7253,0.1808,38.4900,96,99,273747
1.6960,0.1760,38.6800,96,99,273752
1.6911,0.1662,38.5800,96,99,273755
1.6764,0.1662,38.5800,96,99,273758
1.6764,0.1662,38.7100,96,99,273762
1.7009,0.1711,38.6200,96,99,273765
1.7058,0.1760,38.6800,96,99,273768
1.7155,0.1711,38.5500,96,99,273771
1.6911,0.1760,38.7100,96,99,273775
1.6960,0.1662,38.7100,96,99,273778
1.7253,0.1760,38.5500,96,99,273781
1.7009,0.1662,38.7100,96,99,273785
1.7400,0.1662,38.5500,96,99,273788
1.7155,0.1711,38.6200,96,99,273792
1.7253,0.1662,38.7400,96,99,273796
1.7449,0.1760,38.5800,96,99,273799
1.7253,0.1662,38.7100,96,99,273802
1.7595,0.1711,38.4600,96,99,273806
1.7351,0.1711,38.6500,96,99,273809
1.7302,0.1662,38.5800,96,99,273812
1.7400,0.1808,38.6500,96,99,273815
1.7204,0.1662,38.7100,96,99,273819
1.7595,0.1760,38.4600,96,99,273822
1.7351,0.1613,38.6200,96,99,273825
1.7204,0.1662,38.7100,96,99,273829
1.7155,0.1711,38.6800,96,99,273832
1.7058,0.1662,38.6200,96,99,273836
1.7546,0.1857,38.5200,96,99,273840
1.7253,0.1711,38.6500,96,99,273843
1.7204,0.1662,38.6200,96,99,273846
1.7107,0.1711,38.7100,96,99,273850
1.7009,0.1662,38.7100,96,99,273853
1.7302,0.1760,38.5200,96,99,273856
1.6960,0.1711,38.6500,96,99,273860
1.7058,0.1613,38.5800,96,99,273863
1.6813,0.1515,38.7400,96,99,273866
1.6813,0.1711,38.6500,96,99,273869
1.6960,0.1515,38.6200,96,99,273873
1.6813,0.1662,38.6800,96,99,273876
1.7155,0.1760,38.5800,96,99,273880
1.6764,0.1613,38.7700,96,99,273884
1.6911,0.1662,38.7100,96,99,273887
1.6960,0.1711,38.5800,96,99,273890
1.6813,0.1662,38.7400,96,99,273894
1.7107,0.1760,38.5200,96,99,273897
1.6764,0.1857,38.8100,96,99,273900
1.6813,0.1613,38.7100,96,99,273904
1.6911,0.1711,38.5200,96,99,273907
1.6667,0.1662,38.7100,96,99,273910
1.7204,0.1857,38.4300,96,99,273914
1.6862,0.1711,38.6200,96,99,273917
1.6764,0.1662,38.5800,96,99,273921
1.6862,0.1711,38.6800,96,99,273924
1.6862,0.1662,38.7700,96,99,273928
1.7546,0.1857,38.4900,96,99,273931
1.7155,0.1760,37.8000,96,99,273934
1.7253,0.1662,38.6500,96,99,273938
1.7400,0.1711,38.7100,96,99,273941
1.7546,0.1662,38.7400,96,99,273944
1.8035,0.2053,38.5500,96,99,273948
1.7889,0.1711,38.6800,96,99,273951
1.8133,0.1662,38.7700,96,99,273954
1.8133,0.1711,38.7100,96,99,273958
1.8133,0.1662,38.7400,96,99,273961
1.8475,0.1760,38.6500,96,99,273965
1.8671,0.1711,38.7100,96,99,273968
1.9208,0.1906,38.6500,96,99,273972
1.9159,0.1662,38.7100,96,99,273975
1.9404,0.2053,38.6800,96,99,273978
1.9697,0.1760,38.6200,96,99,273982
1.9306,0.1711,38.9000,96,99,273985
1.9306,0.1711,38.5200,96,99,273988
1.8719,0.1662,38.6200,96,99,273992
1.8280,0.1662,38.6200,96,99,273995
1.8084,0.1808,38.5800,96,99,273998
1.7595,0.1515,38.7100,96,99,274002
1.7644,0.1760,38.4000,96,99,274006
1.7058,0.1711,38.6500,96,99,274009
1.6667,0.1662,38.7100,96,99,274012
1.6471,0.1808,38.6800,96,99,274016
1.6129,0.1662,38.7100,96,99,274019
1.6422,0.1760,38.4300,96,99,274022
1.5982,0.1662,38.5800,96,99,274026
1.5885,0.1662,38.7100,96,99,274029
1.5885,0.1711,38.8400,96,99,274032
1.5787,0.1760,38.7100,96,99,274036
1.6325,0.1857,38.5200,96,99,274039
1.5836,0.1711,38.8100,96,99,274042
1.5885,0.1760,38.6200,96,99,274046
1.5787,0.1711,38.6500,96,99,274050
1.6080,0.1711,38.6800,96,99,274053
1.6129,0.1760,38.4300,96,99,274057
1.5934,0.1711,38.6800,96,99,274060
1.6178,0.1515,38.5500,96,99,274063
1.5982,0.1857,38.7400,96,99,274066
1.6129,0.1613,38.7400,96,99,274070
1.6178,0.1711,38.5500,96,99,274073
1.5836,0.1662,38.6800,96,99,274076
1.5689,0.1711,38.8400,96,99,274080
1.5054,0.1613,38.6500,96,99,274083
1.4712,0.1662,38.7100,96,99,274086
1.4712,0.1760,38.5800,96,99,274091
1.5103,0.1662,38.7400,96,99,274094
1.7204,0.1711,38.4300,96,99,274097
1.9892,0.1662,38.6500,96,99,274101
2.4047,0.1662,38.9300,96,99,274104
2.8935,0.1711,38.7100,96,99,274107
3.3236,0.1662,38.7400,96,99,274111
3.6901,0.1808,38.4300,96,99,274114
3.6168,0.1711,38.6800,96,99,274117
3.3138,0.1613,38.6800,96,99,274120
2.9032,0.1711,38.6800,96,99,274124
2.4438,0.1662,38.6500,96,99,274127
2.0870,0.1857,38.4900,96,99,274130
1.7204,0.1760,38.6500,96,99,274135
1.4809,0.1662,38.5800,96,99,274138
1.3539,0.1760,38.6800,96,99,274141
1.2952,0.1662,38.7100,96,99,274145
1.3001,0.1808,38.8400,96,99,274148
1.2805,0.1760,38.6800,96,99,274151
1.3001,0.1613,38.5800,96,99,274154
1.2903,0.1662,38.7100,96,99,274158
1.3099,0.1711,38.6800,96,99,274161
1.3392,0.1711,38.6500,96,99,274164
1.3392,0.1662,38.6200,96,99,274168
1.3734,0.1760,38.5800,96,99,274171
1.3587,0.1662,38.6500,96,99,274174
1.3734,0.1711,38.7100,96,99,274179
1.4076,0.1760,38.6800,96,99,274182
1.4027,0.1613,38.7100,96,99,274185
1.4370,0.1711,38.6500,96,99,274189
1.4321,0.1857,38.5800,96,99,274192
1.4516,0.1662,38.7100,96,99,274195
1.4761,0.1760,38.5800,96,99,274199
1.4614,0.1662,38.7700,96,99,274202
1.5103,0.1808,38.4300,96,99,274205
1.4956,0.1662,38.5800,96,99,274208
1.5005,0.1711,38.7100,96,99,274212
1.5200,0.1711,38.6800,96,99,274215
1.5543,0.1613,38.7100,96,99,274219
1.5836,0.1857,38.4600,96,99,274223
1.5640,0.1711,38.6200,96,99,274226
1.5640,0.1662,39.0600,96,99,274229
1.5689,0.1857,38.6800,96,99,274233
1.5982,0.1711,38.7100,96,99,274236
1.6080,0.1662,38.7100,96,99,274240
1.6373,0.1808,38.4600,96,99,274243
1.6276,0.1711,38.7100,96,99,274246
1.6667,0.1662,38.5800,96,99,274250
1.6520,0.1613,38.6500,96,99,274253
1.6569,0.1662,38.7100,96,99,274256
1.6911,0.1760,38.5500,96,99,274259
1.6813,0.1711,38.6800,96,99,274264
1.7155,0.1711,38.4900,96,99,274267
1.7058,0.1711,38.6500,96,99,274270
1.7155,0.1662,38.7700,96,99,274274
1.7595,0.1760,38.6500,96,99,274277
1.7351,0.1662,38.7700,96,99,274280
1.7840,0.1760,38.4300,96,99,274284
1.7449,0.1662,38.6200,96,99,274287
1.7644,0.1760,38.5800,96,99,274290
1.7742,0.1662,38.7100,96,99,274294
1.7791,0.1711,38.7100,96,99,274297
1.8475,0.1857,38.4900,96,99,274300
1.8035,0.1760,38.7100,96,99,274304
1.8133,0.1662,38.6200,96,99,274308
1.8133,0.1515,38.6800,96,99,274311
1.8280,0.1711,38.7100,96,99,274314
1.8671,0.1808,38.5500,96,99,274318
1.8524,0.1711,38.7100,96,99,274321
1.8817,0.1760,38.5500,96,99,274324
1.8524,0.1711,38.7400,96,99,274328
1.8671,0.1613,38.7100,96,99,274331
1.9013,0.1808,38.6200,96,99,274334
1.8866,0.1760,38.7100,96,99,274338
1.9110,0.1808,38.6200,96,99,274341
1.8817,0.1662,38.8400,96,99,274344
1.8817,0.1613,38.7100,96,99,274349
1.8915,0.1711,38.5800,96,99,274352
1.8768,0.1711,38.7400,96,99,274355
1.8964,0.1515,38.4900,96,99,274358
1.8524,0.1613,38.7100,96,99,274362
1.8426,0.1662,38.8100,96,99,274365
1.8524,0.1711,38.6500,96,99,274368
1.8231,0.1711,38.6800,96,99,274372
1.8524,0.1808,38.4600,96,99,274375
1.8035,0.1711,38.5800,96,99,274378
1.7791,0.1711,38.7100,96,99,274382
1.7693,0.1662,38.6800,96,99,274385
1.7449,0.1662,38.7700,96,99,274388
1.7889,0.1906,38.4600,96,99,274393
1.7400,0.1760,38.5200,96,99,274396
1.7204,0.2151,38.6500,96,99,274399
1.7107,0.1711,38.7100,96,99,274403
1.7009,0.1711,38.7700,96,99,274406
1.7302,0.1808,38.5500,96,99,274409
1.7009,0.1711,38.6500,96,99,274412
1.7058,0.1711,38.0500,96,99,274416
1.6862,0.1711,38.7400,96,99,274419
1.6911,0.1711,38.8100,96,99,274422
1.7107,0.1760,38.6800,96,99,274426
1.6960,0.1711,38.7100,96,99,274429
1.7302,0.1760,38.6200,96,99,274433
1.7107,0.1711,38.7100,96,99,274437
1.7155,0.1662,38.7400,96,99,274440
1.7400,0.1760,38.6200,96,99,274443
1.7253,0.1711,38.6800,96,99,274447
1.7546,0.1760,38.5200,96,99,274450
1.7302,0.1613,38.6500,96,99,274453
1.7302,0.1711,38.7100,96,99,274456
1.7498,0.1808,38.6200,96,99,274460
1.7302,0.1906,38.7400,96,99,274463
1.7644,0.1760,38.4600,96,99,274466
1.7449,0.1760,38.5800,96,99,274470
1.7400,0.1613,38.7100,96,99,274473
1.7498,0.1760,38.6500,96,99,274477
1.7351,0.1711,38.8100,96,99,274481
1.8084,0.1808,38.4300,96,99,274484
1.7400,0.1711,38.6800,96,99,274487
1.7351,0.1662,38.7700,96,99,274491
1.7400,0.1711,38.6800,96,99,274494
1.7546,0.1711,38.7100,96,99,274497
1.7742,0.1857,38.5200,96,99,274500
1.7351,0.1760,38.9300,96,99,274504
1.7302,0.1760,38.6200,96,99,274507
1.7155,0.1760,38.7100,96,99,274510
1.7155,0.1711,38.6800,96,99,274514
1.7351,0.1760,38.6500,96,99,274518
1.7107,0.1760,38.7100,96,99,274521
1.7253,0.1711,38.5500,96,99,274525
1.7058,0.1711,38.7400,96,99,274528
1.7058,0.1711,38.7400,96,99,274531
1.7155,0.1711,37.8700,96,99,274535
1.6911,0.1808,38.6800,96,99,274538
1.7058,0.1662,38.5800,96,99,274541
1.6813,0.1662,38.6800,96,99,274544
1.6911,0.1613,38.7100,96,99,274548
1.7009,0.1711,38.4600,96,99,274551
1.6813,0.1662,38.7100,96,99,274554
1.7155,0.1711,38.4600,96,99,274558
1.6813,0.1613,38.6800,96,99,274562
1.6911,0.1711,38.8400,96,99,274565
1.6911,0.1760,38.6800,96,99,274569
1.6862,0.1711,38.7400,96,99,274572
1.7400,0.1808,38.4000,96,99,274575
1.7009,0.1760,38.6200,96,99,274579
1.6911,0.1662,38.6800,96,99,274582
1.7009,0.1711,38.6800,96,99,274585
1.7009,0.1711,38.7400,96,99,274589
1.7644,0.2102,38.5500,96,99,274592
1.7449,0.1808,38.6500,96,99,274595
1.7546,0.1662,38.6200,96,99,274598
1.7644,0.1711,38.7100,96,99,274603
1.7937,0.1711,38.8100,96,99,274606
1.8377,0.1857,38.5500,96,99,274609
1.8280,0.1711,38.5200,96,99,274613
1.8524,0.1808,38.5800,96,99,274616
1.8377,0.1711,38.7100,96,99,274619
1.8524,0.1857,38.7100,96,99,274623
1.8915,0.1662,38.6500,96,99,274626
1.9062,0.1760,38.6800,96,99,274629
1.9550,0.1760,38.5800,96,99,274633
1.9404,0.1711,38.8400,96,99,274636
1.9501,0.1808,38.7400,96,99,274639
1.9599,0.1760,38.5800,96,99,274642
1.9110,0.1711,38.8400,96,99,274647
1.9013,0.1662,38.4900,96,99,274650
1.8426,0.1711,38.5800,96,99,274653
1.7986,0.1711,38.7100,96,99,274657
1.7889,0.1808,38.2100,96,99,274660
1.7302,0.1906,38.6800,96,99,274663
1.7498,0.1711,38.4600,96,99,274667
1.6911,0.1711,38.6500,96,99,274670
1.6618,0.1711,38.7100,96,99,274673
1.6520,0.1760,38.7100,96,99,274677
1.6325,0.1662,38.7400,96,99,274680
1.6667,0.1857,38.4600,96,99,274683
1.6178,0.1711,38.6200,96,99,274688
1.6080,0.1662,38.6500,96,99,274691
1.6080,0.1711,38.0800,96,99,274694
1.6031,0.1808,38.7100,96,99,274697
1.6422,0.1808,38.5800,96,99,274701
1.6129,0.1711,38.6800,96,99,274704
1.6227,0.1760,38.5800,96,99,274707
1.6080,0.1711,37.9000,96,99,274711
1.6129,0.1857,38.7100,96,99,274714
1.6471,0.1760,38.5200,96,99,274717
1.6325,0.1857,38.6500,96,99,274721
1.6569,0.1711,38.5500,96,99,274724
1.6373,0.1711,38.7400,96,99,274727
1.6373,0.1711,38.6800,96,99,274732
1.6373,0.1857,38.5500,96,99,274735
1.5982,0.1711,38.6800,96,99,274738
1.5738,0.1711,38.5800,96,99,274741
1.5249,0.1613,38.6500,96,99,274745
1.5005,0.1711,38.5500,96,99,274748
1.5591,0.1711,38.6200,96,99,274751
1.7058,0.1711,38.7700,96,99,274755
2.0332,0.1760,38.4600,96,99,274758
2.3949,0.1662,38.6500,96,99,274761
2.8886,0.1711,38.7700,96,99,274765
3.3627,0.1760,38.6800,96,99,274768
3.6559,0.1711,38.5800,96,99,274771
3.7928,0.1857,38.4300,96,99,274776
3.4946,0.1711,38.6500,96,99,274779
3.0743,0.1857,38.6500,96,99,274782
2.6295,0.1711,38.6800,96,99,274786
2.2043,0.1711,38.7100,96,99,274789
1.9159,0.1808,38.5200,96,99,274792
1.6471,0.1808,38.6500,96,99,274795
1.4907,0.1711,38.7700,96,99,274799
1.4027,0.1662,38.6800,96,99,274802
1.3685,0.1711,38.7100,96,99,274805
1.3783,0.1760,38.6200,96,99,274809
1.3685,0.1711,38.6800,96,99,274812
1.3881,0.1711,38.5200,96,99,274816
1.4125,0.1711,38.7400,96,99,274820
1.3930,0.1808,38.7100,96,99,274823
1.4076,0.1711,38.6200,96,99,274826
1.4174,0.1711,38.9000,96,99,274830
1.4467,0.1711,38.5500,96,99,274833
1.4370,0.1711,38.7400,96,99,274836
1.4516,0.1613,38.7100,96,99,274839
1.4858,0.1760,38.6200,96,99,274843
1.5396,0.1808,38.6500,96,99,274847
1.5347,0.1760,38.7100,96,99,274850
1.5885,0.1906,38.4600,96,99,274853
1.5738,0.1808,38.6200,96,99,274856
1.6129,0.1662,38.6800,96,99,274861
1.5885,0.1760,38.7700,96,99,274864
1.5934,0.1760,38.6800,96,99,274867
1.6422,0.1808,38.5500,96,99,274871
1.6227,0.1760,38.7400,96,99,274874
1.6471,0.1760,38.6200,96,99,274877
1.6276,0.1711,38.7100,96,99,274881
1.6373,0.1760,38.7100,96,99,274884
1.6667,0.1808,38.6500,96,99,274887
1.6520,0.1711,38.4600,96,99,274890
1.6813,0.1808,38.5800,96,99,274894
1.6569,0.1711,38.7100,96,99,274897
1.6667,0.1711,38.7400,96,99,274900
1.7009,0.1808,38.5800,96,99,274905
1.6813,0.1711,38.7100,96,99,274908
1.7204,0.1711,38.5200,96,99,274911
1.6960,0.1662,38.6200,96,99,274915
1.7058,0.1711,38.7100,96,99,274918
1.7351,0.1760,38.5500,96,99,274921
1.7302,0.1808,38.7400,96,99,274925
1.7791,0.1760,38.4600,96,99,274928
1.7693,0.1760,37.9600,96,99,274931
1.7742,0.1711,38.7100,96,99,274934
1.8231,0.1760,38.6200,96,99,274938
1.7889,0.1711,38.7100,96,99,274941
1.8573,0.1808,38.4000,96,99,274945
1.8133,0.1711,38.6200,96,99,274949
1.8231,0.2053,38.7100,96,99,274952
1.8328,0.1711,38.7100,96,99,274955
1.8426,0.1711,38.7100,96,99,274959
1.9013,0.1906,38.6500,96,99,274962
1.8719,0.1857,38.7100,96,99,274965
1.8866,0.1711,38.6200,96,99,274969
1.8768,0.1662,38.7400,96,99,274972
1.9159,0.1711,38.7100,96,99,274975
1.9257,0.1808,38.5500,96,99,274979
1.9208,0.1760,38.6800,96,99,274982
1.9306,0.1760,38.5500,96,99,274985
1.9062,0.1711,38.8700,96,99,274989
1.9159,0.1711,38.7100,96,99,274993
1.9453,0.1808,38.5200,96,99,274996
1.9257,0.1808,38.7100,96,99,274999
1.9697,0.1711,38.5800,96,99,275003
1.9257,0.1662,38.7100,96,99,275006
1.9306,0.1711,38.6800,96,99,275009
1.9404,0.1760,38.5200,96,99,275013
1.9159,0.1906,38.7100,96,99,275016
1.9501,0.1760,38.4900,96,99,275019
1.8915,0.1711,38.5800,96,99,275023
1.9110,0.1711,38.7100,96,99,275026
1.8817,0.1808,38.7400,96,99,275030
1.8426,0.1711,38.6800,96,99,275033
1.8768,0.1808,38.4300,96,99,275037
1.8328,0.1760,38.5800,96,99,275040
1.8084,0.1711,38.7100,96,99,275043
1.7986,0.1760,38.6500,96,99,275047
1.7791,0.1760,38.7400,96,99,275050
1.8231,0.1906,38.4600,96,99,275053
1.7986,0.1760,38.5800,96,99,275057
1.7644,0.1662,38.6500,96,99,275060
1.7546,0.1760,38.6500,96,99,275063
1.7498,0.1760,38.7400,96,99,275067
1.7937,0.1808,38.5200,96,99,275070
1.7644,0.1808,38.6500,96,99,275074
1.7742,0.1760,38.5800,96,99,275077
1.7546,0.1760,38.6200,96,99,275081
1.7595,0.1711,38.7100,96,99,275084
1.7840,0.1808,38.6800,96,99,275087
1.7742,0.1711,38.7100,96,99,275091
1.7986,0.1808,38.5800,96,99,275094
1.7742,0.2053,38.6800,96,99,275097
1.7791,0.1711,38.7400,96,99,275101
1.8084,0.1808,38.6200,96,99,275104
1.7840,0.1711,38.6800,96,99,275107
1.8084,0.1711,38.5500,96,99,275111
1.7889,0.1808,38.6200,96,99,275115
1.7889,0.1711,38.7100,96,99,275118
1.8035,0.1857,38.5500,96,99,275122
1.7791,0.1711,38.6800,96,99,275125
1.8182,0.1760,38.4600,96,99,275128
1.7937,0.1711,38.6200,96,99,275131
1.7791,0.1711,38.5800,96,99,275135
1.7937,0.1857,38.6500,96,99,275138
1.7742,0.1711,38.7100,96,99,275141
1.8231,0.1808,38.4300,96,99,275145
1.7840,0.1515,38.7100,96,99,275148
1.7742,0.1662,38.6800,96,99,275151
1.7742,0.1760,38.6800,96,99,275155
1.7644,0.1662,38.7400,96,99,275159
1.8084,0.1857,38.5800,96,99,275162
1.7791,0.1760,38.7100,96,99,275166
1.7742,0.1760,38.5800,96,99,275169
1.7595,0.1711,38.8400,96,99,275172
1.7937,0.1711,38.7100,96,99,275175
1.7889,0.1808,38.5200,96,99,275179
1.7546,0.1808,38.7100,96,99,275182
1.7791,0.1711,38.5500,96,99,275185
1.7400,0.1711,38.8100,96,99,275189
1.7449,0.1711,38.7400,96,99,275192
1.7693,0.1760,38.5800,96,99,275195
1.7498,0.1760,38.6800,96,99,275200
1.7693,0.1760,38.5800,96,99,275203
1.7400,0.1711,38.6800,96,99,275206
1.7400,0.1760,38.7100,96,99,275210
1.7742,0.1760,38.5500,96,99,275213
1.7449,0.1711,38.7100,96,99,275216
1.7742,0.1711,38.4900,96,99,275219
1.7400,0.1711,38.6800,96,99,275223
1.7400,0.1760,38.7100,96,99,275226
1.7546,0.1808,38.6500,96,99,275229
1.7351,0.1711,38.6800,96,99,275233
1.8084,0.1808,38.4000,96,99,275236
1.7595,0.1760,38.6200,96,99,275239
1.7498,0.1711,38.7400,96,99,275244
1.7644,0.1760,38.7100,96,99,275247
1.7693,0.1711,38.9600,96,99,275250
1.8328,0.1906,38.4900,96,99,275254
1.8182,0.1515,38.6200,96,99,275257
1.8280,0.1711,38.6200,96,99,275260
1.8475,0.1760,38.7100,96,99,275263
1.8622,0.1711,38.6500,96,99,275267
1.9404,0.1760,38.5200,96,99,275270
1.8964,0.1760,38.6800,96,99,275273
1.9159,0.1760,38.5800,96,99,275277
1.9062,0.1711,38.7100,96,99,275280
1.9257,0.1760,38.7100,96,99,275283
1.9599,0.1760,38.6500,96,99,275288
1.9697,0.1711,38.8100,96,99,275291
2.0137,0.1808,38.6200,96,99,275294
1.9892,0.1711,38.8700,96,99,275298
1.9844,0.1808,38.7100,96,99,275301
1.9795,0.1808,38.6200,96,99,275304
1.9208,0.1760,38.7100,96,99,275307
1.9159,0.1711,38.5200,96,99,275311
1.8573,0.1711,38.7100,96,99,275314
1.8182,0.1760,38.7100,96,99,275317
1.8035,0.1808,38.5800,96,99,275321
1.7546,0.1662,38.7100,96,99,275324
1.7595,0.1808,38.4600,96,99,275328
1.7107,0.1711,38.6500,96,99,275332
1.6764,0.1760,38.7100,96,99,275335
1.6716,0.1760,38.7700,96,99,275338
1.6520,0.1711,38.7400,96,99,275342
1.7107,0.1857,38.4300,96,99,275345
1.6520,0.1760,38.8400,96,99,275348
1.6471,0.2053,38.6800,96,99,275351
1.6471,0.1760,38.7100,96,99,275355
1.6422,0.1711,38.6800,96,99,275358
1.6813,0.1857,38.5500,96,99,275361
1.6520,0.1760,38.6500,96,99,275365
1.6569,0.1760,38.5800,96,99,275368
1.6471,0.1515,38.7100,96,99,275372
1.6471,0.1906,38.8100,96,99,275376
1.6911,0.1857,38.5200,96,99,275379
1.6667,0.2004,38.6800,96,99,275382
1.7058,0.1760,38.5500,96,99,275386
1.6667,0.1760,38.2700,96,99,275389
1.6618,0.1711,38.7100,96,99,275392
1.6569,0.1760,38.5800,96,99,275396
1.5934,0.1711,38.7400,96,99,275399
1.5738,0.1760,38.5500,96,99,275402
1.5249,0.1711,38.5800,96,99,275405
1.5591,0.1711,38.7100,96,99,275409
1.7155,0.1760,38.5500,96,99,275412
1.9746,0.1760,38.6800,96,99,275416
2.4194,0.1760,38.4600,96,99,275420
2.8592,0.1662,38.6800,96,99,275423
3.3431,0.1711,38.8100,96,99,275426
3.6950,0.1760,38.6800,96,99,275430
3.7683,0.1711,38.6200,96,99,275433
3.6657,0.1808,38.4000,96,99,275436
3.2063,0.1760,38.6200,96,99,275440
2.7322,0.1662,38.7100,96,99,275443
2.3167,0.1711,38.6800,96,99,275446
1.9501,0.1515,38.7400,96,99,275449
1.7498,0.1906,38.5500,96,99,275453
1.4174,0.1711,38.5800,96,99,275458
1.3832,0.1760,38.6800,96,99,275461
1.4027,0.1808,38.5500,96,99,275464
1.3881,0.1760,38.7400,96,99,275467
1.4027,0.1711,38.7100,96,99,275471
1.4174,0.1760,38.5800,96,99,275474
1.4223,0.1760,38.7100,96,99,275477
1.4565,0.1711,38.5500,96,99,275481
1.4467,0.1711,38.6800,96,99,275484
1.4712,0.1711,38.6500,96,99,275487
1.4956,0.1760,38.6500,96,99,275491
1.4956,0.1711,38.7100,96,99,275494
1.5640,0.1760,38.4300,96,99,275497
1.5347,0.1808,38.6200,96,99,275502
1.5396,0.1711,38.9000,96,99,275505
1.5640,0.1760,38.6500,96,99,275508
1.5591,0.1711,38.7700,96,99,275511
1.6129,0.1760,38.4000,96,99,275515
1.5885,0.1760,38.5800,96,99,275518
1.5934,0.1662,38.7400,96,99,275521
1.6080,0.1711,38.6800,96,99,275525
1.6178,0.1711,38.9000,96,99,275528
1.6618,0.1906,38.5200,96,99,275531
1.6422,0.1808,38.6500,96,99,275535
1.6471,0.1711,38.8400,96,99,275538
1.6422,0.1760,38.7100,96,99,275542
1.6520,0.1760,38.6800,96,99,275546
1.6862,0.1711,38.6200,96,99,275549
1.6667,0.1711,38.7700,96,99,275552
1.6960,0.1662,38.5200,96,99,275555
1.6862,0.1760,38.7100,96,99,275559
1.6911,0.1711,38.6800,96,99,275562
1.7302,0.1808,38.5800,96,99,275565
1.7155,0.1808,38.7100,96,99,275569
1.7693,0.1808,38.5800,96,99,275572
1.7253,0.1711,38.6500,96,99,275575
1.7400,0.1711,38.7400,96,99,275579
1.7644,0.1760,38.5500,96,99,275582
1.7546,0.1711,38.6800,96,99,275586
1.7986,0.1760,38.4600,96,99,275590
1.7889,0.1711,38.5200,96,99,275593
1.7986,0.1760,38.6800,96,99,275596
1.8231,0.1808,38.6500,96,99,275599
1.8182,0.1711,38.9300,96,99,275603
1.8719,0.1808,38.4300,96,99,275606
1.8377,0.1711,38.6500,96,99,275609
1.8475,0.1808,38.7100,96,99,275613
1.8524,0.1760,38.6800,96,99,275616
1.8573,0.1613,38.7100,96,99,275619
1.9306,0.1906,38.4900,96,99,275623
1.8964,0.1808,38.6200,96,99,275627
1.9013,0.1760,38.6800,96,99,275630
1.9013,0.1760,38.7100,96,99,275634
1.9062,0.1662,38.7100,96,99,275637
1.9550,0.1808,38.5200,96,99,275640
1.9355,0.1760,38.6500,96,99,275643
1.9453,0.1760,38.5800,96,99,275647
1.9306,0.1711,38.8400,96,99,275650
1.9306,0.1711,38.6800,96,99,275653
1.9599,0.1808,38.5800,96,99,275657
1.9355,0.1760,38.8400,96,99,275660
1.9599,0.1857,38.6200,96,99,275663
1.9257,0.1711,38.7100,96,99,275667
1.9208,0.1760,38.7100,96,99,275671
1.9257,0.1760,38.5800,96,99,275674
1.9062,0.1760,38.9300,96,99,275678
1.9208,0.1808,38.4900,96,99,275681
1.8817,0.1760,38.4300,96,99,275684
1.8768,0.1711,38.6200,96,99,275687
1.8866,0.1857,38.6200,96,99,275691
1.8426,0.1711,38.7400,96,99,275694
1.8964,0.1857,38.4300,96,99,275697
1.8231,0.1760,38.6200,96,99,275701
1.7937,0.1662,38.7100,96,99,275704
1.7889,0.1760,38.6500,96,99,275707
1.7595,0.1711,38.6800,96,99,275712
1.8084,0.1808,38.4300,96,99,275715
1.7546,0.1760,38.5500,96,99,275718
1.7400,0.1613,38.6800,96,99,275722
1.7449,0.1760,38.6800,96,99,275725
1.7449,0.1711,38.7100,96,99,275728
1.7937,0.1906,38.5500,96,99,275731
1.7644,0.1808,38.6800,96,99,275735
1.7693,0.1760,38.6200,96,99,275738
1.7595,0.1711,38.7100,96,99,275741
1.7742,0.1760,38.7100,96,99,275745
1.7840,0.1808,38.6500,96,99,275748
1.7693,0.1760,38.6800,96,99,275751
1.7889,0.1808,38.5200,96,99,275756
1.7693,0.1760,38.6800,96,99,275759
1.7742,0.1760,38.7100,96,99,275762
1.8035,0.1808,38.5500,96,99,275766
1.7742,0.1760,38.6800,96,99,275769
1.8084,0.1711,38.5500,96,99,275772
1.7791,0.1711,38.6200,96,99,275776
1.7937,0.1760,38.6800,96,99,275779
1.8133,0.1808,38.5500,96,99,275782
1.7937,0.1760,38.6800,96,99,275785
1.8328,0.1808,38.4900,96,99,275789
1.7986,0.1760,38.6200,96,99,275792
1.7889,0.1760,38.7100,96,99,275795
1.7986,0.1808,38.6200,96,99,275800
1.7840,0.1711,38.7400,96,99,275803
1.8280,0.1760,38.4300,96,99,275806
1.7791,0.1711,38.6200,96,99,275810
1.8084,0.1760,38.7400,96,99,275813
1.7889,0.1515,38.6800,96,99,275816
1.7742,0.1760,38.7100,96,99,275820
1.8280,0.1906,38.4600,96,99,275823
1.7889,0.1808,38.6200,96,99,275826
1.7742,0.1760,38.6500,96,99,275829
1.7693,0.1760,38.7400,96,99,275833
1.7644,0.1955,38.6800,96,99,275836
1.7986,0.1808,38.5200,96,99,275840
1.7644,0.2004,38.6500,96,99,275844
1.7693,0.1760,38.6800,96,99,275847
1.7498,0.1711,38.6800,96,99,275850
1.7449,0.2102,38.7100,96,99,275854
1.7644,0.1808,38.6200,96,99,275857
1.7449,0.1760,38.7700,96,99,275860
1.7644,0.1906,38.5800,96,99,275863
1.7498,0.1711,38.7100,96,99,275867
1.7400,0.1711,38.8100,96,99,275870
1.7498,0.1760,38.6800,96,99,275873
1.7498,0.1711,38.7100,96,99,275877
1.7693,0.1760,38.5200,96,99,275880
1.7498,0.1760,38.7100,96,99,275884
1.7546,0.1711,38.7100,96,99,275888
1.7791,0.1857,38.6200,96,99,275891
1.7644,0.1760,38.7400,96,99,275894
1.8475,0.1711,38.4300,96,99,275898
1.8133,0.1760,38.6200,96,99,275901
1.8182,0.1760,38.6800,96,99,275904
1.8475,0.1808,38.7400,96,99,275908
1.8573,0.1760,38.6800,96,99,275911
1.9110,0.1711,38.4300,96,99,275914
1.8817,0.1760,38.5800,96,99,275917
1.8768,0.1760,38.6500,96,99,275921
1.8915,0.1760,38.6800,96,99,275924
1.9110,0.1857,38.7400,96,99,275928
1.9844,0.1906,38.4900,96,99,275932
1.9746,0.1808,38.7100,96,99,275935
1.9892,0.1808,38.6200,96,99,275938
1.9941,0.1760,38.7100,96,99,275942
1.9892,0.2053,38.8100,96,99,275945
1.9990,0.1808,38.6200,96,99,275948
1.9501,0.1760,38.6800,96,99,275951
1.9257,0.1760,39.0600,96,99,275955
1.8719,0.1711,38.7100,96,99,275958
1.8280,0.1711,38.7100,96,99,275961
1.8182,0.1711,38.5800,96,99,275965
1.7644,0.1760,38.8100,96,99,275969
1.7595,0.1711,38.5500,96,99,275972
1.6960,0.1711,38.6500,96,99,275976
1.6862,0.1760,38.6800,96,99,275979
1.6862,0.1808,38.5500,96,99,275982
1.6569,0.1662,38.7100,96,99,275986
1.6764,0.1711,38.4900,96,99,275989
1.6422,0.1760,38.6500,96,99,275992
1.6373,0.1760,38.7100,96,99,275996
1.6520,0.1808,38.7100,96,99,275999
1.6325,0.1760,38.6800,96,99,276002
1.6764,0.1808,38.4300,96,99,276005
1.6373,0.1711,37.7400,96,99,276009
1.6422,0.1760,38.7100,96,99,276013
1.6471,0.1515,38.6800,96,99,276016
1.6471,0.1760,38.7100,96,99,276020
1.7058,0.1955,38.4900,96,99,276023
1.6764,0.1808,38.7700,96,99,276026
1.6716,0.1906,38.6500,96,99,276030
1.6716,0.1760,38.8100,96,99,276033
1.6667,0.1955,38.7100,96,99,276036
1.6764,0.1857,38.5200,96,99,276040
1.6178,0.1808,38.6500,96,99,276043
1.5934,0.1760,38.5800,96,99,276046
1.5298,0.1760,38.7100,96,99,276049
1.5298,0.1760,38.7100,96,99,276054
1.6373,0.1808,38.5500,96,99,276057
1.8231,0.1760,38.6800,96,99,276060
2.1896,0.1760,38.5800,96,99,276064
2.6051,0.1760,38.7100,96,99,276067
3.4066,0.1760,38.7100,96,99,276071
2.9863,0.1760,38.7100,96,99,276074
2.5562,0.1808,38.6800,96,99,276077
2.1359,0.1857,38.7100,96,99,276081
1.8817,0.1808,38.4300,96,99,276084
1.6520,0.1808,38.5800,96,99,276087
1.5200,0.1808,38.7100,96,99,276090
1.4663,0.1808,38.6800,96,99,276094
1.4223,0.1711,38.7400,96,99,276098
1.4516,0.1906,38.4300,96,99,276101
1.4174,0.1760,38.6200,96,99,276105
1.4174,0.1711,38.6500,96,99,276108
1.4272,0.1760,38.6800,96,99,276111
1.4272,0.1760,38.8100,96,99,276115
1.4712,0.1808,38.5500,96,99,276118
1.4565,0.1808,38.6500,96,99,276121
1.4712,0.1760,38.8400,96,99,276125
1.4809,0.1760,38.7100,96,99,276128
1.4858,0.1711,38.8100,96,99,276131
1.5103,0.1711,38.6500,96,99,276134
1.5152,0.1760,38.6800,96,99,276139
1.5494,0.1808,38.5500,96,99,276142
1.5347,0.1760,38.6800,96,99,276145
1.5494,0.1711,38.7400,96,99,276149
1.5836,0.1857,38.5800,96,99,276152
1.5787,0.1760,38.7400,96,99,276155
1.6031,0.1711,38.5200,96,99,276159
1.5982,0.1760,38.6200,96,99,276162
1.6080,0.1760,38.7100,96,99,276165
1.6325,0.1857,38.6200,96,99,276169
1.6227,0.1760,38.7100,96,99,276172
1.6618,0.1808,38.4600,96,99,276175
1.6520,0.1808,38.7700,96,99,276178
1.6520,0.1711,38.7100,96,99,276183
1.6716,0.1808,38.6800,96,99,276186
1.6667,0.1760,38.9300,96,99,276189
1.7155,0.1857,38.4000,96,99,276193
1.6862,0.1760,38.5800,96,99,276196
1.6911,0.1955,38.7100,96,99,276199
1.7009,0.1760,38.6800,96,99,276203
1.7107,0.2102,38.7100,96,99,276206
1.7693,0.1955,38.5200,96,99,276209
1.7449,0.1808,38.6200,96,99,276213
1.7546,0.1857,38.6200,96,99,276216
1.7498,0.1760,37.9000,96,99,276219
1.7546,0.1857,38.7100,96,99,276224
1.7986,0.1808,38.5200,96,99,276227
1.7840,0.1760,38.6800,96,99,276230
1.8084,0.1808,38.5500,96,99,276233
1.7986,0.1711,38.7100,96,99,276237
1.8084,0.1760,38.6800,96,99,276240
1.8426,0.1808,38.5800,96,99,276243
1.8328,0.1760,38.6800,96,99,276247
1.8719,0.1808,38.5800,96,99,276250
1.8524,0.1711,38.7100,96,99,276253
1.8671,0.1760,38.7100,96,99,276257
1.8915,0.1711,38.5800,96,99,276260
1.8817,0.1760,38.7100,96,99,276263
1.9159,0.1760,38.4900,96,99,276267
1.8915,0.1760,38.7100,96,99,276271
1.8964,0.1760,38.7400,96,99,276274
1.9208,0.1808,38.6500,96,99,276277
1.9062,0.1760,38.8100,96,99,276281
1.9648,0.1857,38.4300,96,99,276284
1.9453,0.1808,38.6200,96,99,276287
1.9404,0.1711,38.7100,96,99,276291
1.9550,0.1515,38.6800,96,99,276294
1.9453,0.1760,38.7100,96,99,276297
2.0332,0.1955,38.4300,96,99,276301
1.9648,0.1808,38.5800,96,99,276304
1.9501,0.1711,38.6500,96,99,276307
1.9795,0.1808,38.6800,96,99,276311
1.9404,0.1711,38.7100,96,99,276315
1.9844,0.1857,38.5200,96,99,276318
1.9453,0.1808,38.6500,96,99,276321
1.9306,0.1760,38.5800,96,99,276325
1.8964,0.1808,38.6800,96,99,276328
1.8817,0.1711,38.7100,96,99,276331
1.8964,0.1906,38.6200,96,99,276335
1.8622,0.1857,38.6800,96,99,276338
1.8622,0.1760,38.5500,96,99,276341
1.8084,0.1760,38.7100,96,99,276345
1.8035,0.1760,38.7100,96,99,276348
1.8133,0.1808,38.6200,96,99,276352
1.7644,0.1711,38.6800,96,99,276355
1.7840,0.2151,38.5200,96,99,276359
1.7449,0.1711,38.6200,96,99,276362
1.7498,0.1760,38.5800,96,99,276365
1.7693,0.1808,38.5800,96,99,276369
1.7498,0.1760,38.7100,96,99,276372
1.7889,0.1808,38.4600,96,99,276375
1.7693,0.1857,38.6500,96,99,276379
1.7595,0.1760,38.7100,96,99,276382
1.7742,0.1808,38.6500,96,99,276385
1.7742,0.1760,38.6800,96,99,276389
1.8035,0.1857,38.4300,96,99,276392
1.7644,0.1808,38.6200,96,99,276396
1.7693,0.1711,38.7100,96,99,276399
1.7791,0.1808,38.6800,96,99,276403
1.7742,0.1711,38.7100,96,99,276406
1.8328,0.1906,38.5200,96,99,276409
1.8084,0.1857,38.6800,96,99,276413
1.7986,0.1760,38.6200,96,99,276416
1.7986,0.1857,38.7400,96,99,276419
1.7937,0.1760,38.7100,96,99,276423
1.8328,0.1857,38.7700,96,99,276426
1.8084,0.1711,38.6800,96,99,276429
1.8133,0.1515,38.5800,96,99,276433
1.7889,0.1760,38.7100,96,99,276436
