ecg,gsr,temp,hr,spo2,timest
1.7546,0.1026,39.4400,72,96,207222
1.7791,0.1026,39.3500,72,96,207226
1.7644,0.1075,39.4100,72,96,207229
1.7889,0.1075,39.2800,72,96,207233
1.7937,0.0978,39.4100,72,96,207237
1.7644,0.1026,39.3800,72,96,207240
1.7742,0.1075,39.4400,72,96,207243
1.7644,0.1026,39.4100,72,96,207247
1.7840,0.1026,39.2800,72,96,207250
1.7644,0.1026,39.4400,72,96,207253
1.7644,0.1026,39.4100,72,96,207257
1.7889,0.1124,39.3500,72,96,207260
1.7693,0.1075,39.4100,72,96,207263
1.8231,0.1026,39.3200,72,96,207266
1.7937,0.1075,39.0600,72,96,207270
1.7840,0.1026,39.3800,72,96,207273
1.7986,0.1075,39.3800,72,96,207277
1.7840,0.1026,39.6700,72,96,207281
1.8328,0.1124,39.1600,72,96,207284
1.7889,0.1026,39.3800,72,96,207287
1.7889,0.1026,39.4100,72,96,207291
1.7986,0.1075,39.4100,72,96,207294
1.7840,0.1026,39.4400,72,96,207297
1.8426,0.1075,39.3200,72,96,207300
1.8084,0.1124,39.3800,72,96,207304
1.7986,0.1075,39.3500,72,96,207307
1.8035,0.1075,39.4400,72,96,207310
1.7937,0.1026,39.5100,72,96,207314
1.8622,0.1222,39.3200,72,96,207318
1.8084,0.1075,39.6400,72,96,207321
1.8182,0.1271,39.3200,72,96,207325
1.7937,0.1026,39.5400,72,96,207328
1.7986,0.1124,39.4100,72,96,207331
1.8328,0.1124,39.3200,72,96,207335
1.8084,0.0929,39.4100,72,96,207338
1.8426,0.1124,39.3500,72,96,207341
1.8231,0.1271,39.3800,72,96,207345
1.8377,0.1026,39.4400,72,96,207348
1.8866,0.1026,39.3800,72,96,207351
1.8573,0.0733,39.4400,72,96,207354
1.8964,0.1026,39.2500,72,96,207358
1.9013,0.1075,39.4400,72,96,207362
1.8866,0.1026,39.4400,72,96,207365
1.9208,0.1124,39.3500,72,96,207369
1.9159,0.0929,39.4100,72,96,207372
1.9697,0.1075,39.2500,72,96,207375
1.9404,0.1026,39.3800,72,96,207379
1.9599,0.1026,39.4400,72,96,207382
1.9795,0.1124,39.4400,72,96,207385
1.9599,0.1026,39.4400,72,96,207389
2.0088,0.1075,39.1900,72,96,207392
1.9550,0.1075,39.3500,72,96,207395
1.9110,0.0978,39.4100,72,96,207398
1.9306,0.0929,39.4400,72,96,207403
1.8719,0.1026,39.5400,72,96,207406
1.8964,0.1417,39.2500,72,96,207409
1.8426,0.1075,39.4100,72,96,207413
1.8426,0.1026,39.2500,72,96,207416
1.8280,0.1075,39.4400,72,96,207419
1.8035,0.1026,39.2500,72,96,207423
1.8133,0.1173,39.3500,72,96,207426
1.7742,0.1075,39.4100,72,96,207429
1.7791,0.1173,39.2800,72,96,207433
1.7498,0.1026,39.4400,71,96,207436
1.7449,0.1026,39.4800,71,96,207440
1.7498,0.1124,39.4100,71,96,207443
1.7693,0.1124,39.4100,71,96,207447
1.7791,0.1075,39.4100,71,96,207450
1.8035,0.1075,39.1900,71,96,207454
1.7840,0.0978,39.3500,71,96,207457
1.7742,0.0929,39.4400,71,96,207460
1.7791,0.1075,39.4800,71,96,207464
1.7693,0.0978,39.4400,71,96,207467
1.8328,0.1222,39.3200,71,96,207470
1.7986,0.1075,39.3800,71,96,207474
1.7840,0.1026,39.3800,71,96,207477
1.7546,0.1075,39.4100,71,96,207480
1.7107,0.1075,39.4400,71,96,207484
1.7155,0.1124,39.2200,71,96,207488
1.6960,0.1026,39.4800,71,96,207491
1.7449,0.1026,39.3200,71,96,207494
1.8377,0.1124,39.4100,71,96,207498
2.0186,0.1075,39.4400,71,96,207501
2.2972,0.1124,39.3800,71,96,207504
2.6100,0.0929,39.4100,71,96,207508
3.0059,0.1075,39.3200,71,96,207511
3.3236,0.1075,39.4100,71,96,207514
3.5630,0.1026,39.4800,71,96,207518
3.6217,0.1124,39.3200,71,96,207521
3.3333,0.1026,39.4400,71,96,207524
2.9472,0.0733,39.3200,71,96,207528
2.4633,0.1026,39.3800,71,96,207532
2.0479,0.0929,39.4100,71,96,207535
1.7155,0.1075,39.3800,71,96,207538
1.4663,0.0978,39.4400,71,96,207542
1.3196,0.1075,39.2200,71,96,207545
1.2170,0.1026,39.4400,71,96,207548
1.1681,0.0929,39.4400,71,96,207552
1.1975,0.1124,39.2800,71,96,207555
1.2268,0.1075,39.4400,71,96,207558
1.3294,0.1124,39.1900,71,96,207562
1.3783,0.0978,39.3800,71,96,207565
1.4370,0.1026,39.4400,71,96,207568
1.5005,0.1075,39.5100,71,96,207572
1.5445,0.1026,39.4400,71,96,207576
1.6276,0.1222,39.2200,71,96,207579
1.6227,0.1124,39.4100,71,96,207582
1.6325,0.1026,39.4100,71,96,207586
1.6471,0.1075,39.4400,71,96,207589
1.6618,0.1026,39.5400,71,96,207592
1.7058,0.1173,39.3500,71,96,207596
1.6862,0.1075,39.5700,71,96,207599
1.7155,0.1124,39.3200,71,96,207602
1.7058,0.1075,39.4400,71,96,207606
1.7155,0.1026,39.4100,71,96,207609
1.7449,0.1124,39.3800,71,96,207612
1.7351,0.1075,39.4100,71,96,207617
1.7840,0.1026,39.3200,71,96,207620
1.7498,0.1075,39.4800,71,96,207623
1.7595,0.1075,39.4100,71,96,207626
1.7742,0.1075,39.3500,71,96,207630
1.7693,0.1026,39.5700,71,96,207633
1.8182,0.0929,39.2800,71,96,207636
1.7840,0.1173,39.4100,71,96,207640
1.7986,0.0929,39.5100,71,96,207643
1.8133,0.1124,39.3500,71,96,207646
1.8035,0.1026,39.4400,71,96,207650
1.8573,0.1075,39.1600,71,96,207653
1.8377,0.1026,39.3500,71,96,207656
1.8133,0.1026,39.4400,71,96,207661
1.8475,0.0929,39.4100,71,96,207664
1.8426,0.1026,39.4400,71,96,207667
1.9013,0.1369,39.1900,71,96,207670
1.8622,0.1026,39.3800,71,96,207674
1.8671,0.0978,39.4100,71,96,207677
1.8915,0.0929,39.4100,71,96,207680
1.8817,0.1026,39.4100,71,96,207684
1.9404,0.1271,39.2800,71,96,207687
1.9110,0.1075,39.3800,71,96,207690
1.9306,0.1026,39.3500,71,96,207694
1.9355,0.1124,39.4100,71,96,207697
1.9355,0.1124,39.5400,71,96,207700
1.9795,0.1124,39.3800,71,96,207705
1.9648,0.1075,39.3800,71,96,207708
2.0039,0.1075,39.3200,71,96,207711
1.9844,0.1026,39.4100,71,96,207715
1.9990,0.1026,39.4100,71,96,207718
2.0528,0.1173,39.3500,71,96,207721
2.0283,0.1222,39.4100,71,96,207724
2.0723,0.1026,39.2800,71,96,207728
2.0626,0.1026,39.3500,71,96,207731
2.0723,0.1075,39.4400,71,96,207734
2.0968,0.1075,39.3800,71,96,207738
2.1017,0.1026,39.4800,71,96,207741
2.1505,0.1075,39.2200,71,96,207745
2.1261,0.1075,39.4400,71,96,207749
2.1310,0.1320,39.4400,71,96,207752
2.1652,0.1124,39.3800,71,96,207755
2.1408,0.1026,39.4100,71,96,207758
2.1994,0.1026,39.1900,71,96,207762
2.1554,0.1026,39.4100,71,96,207765
2.1505,0.1026,39.4100,71,96,207768
2.1603,0.1075,39.4100,71,96,207772
2.1457,0.1026,39.5400,71,96,207775
2.1945,0.1222,39.2200,71,96,207778
2.1408,0.1173,39.3800,71,96,207782
2.1408,0.1075,39.3500,71,96,207785
2.0821,0.1075,39.3500,71,96,207789
2.0577,0.1026,39.4100,71,96,207793
2.0821,0.1124,39.2500,71,96,207796
2.0137,0.1026,39.4100,71,96,207799
2.0332,0.1124,39.3200,71,96,207802
1.9501,0.1075,39.4400,71,96,207806
1.9159,0.1124,39.4100,71,96,207809
1.9110,0.1124,39.3500,71,96,207812
1.8622,0.1075,39.3500,71,96,207816
1.8573,0.1075,39.1900,71,96,207819
1.7986,0.1026,39.5100,71,96,207822
1.7742,0.0978,39.4100,71,96,207826
1.7595,0.1075,39.3500,71,96,207830
1.7302,0.1075,39.4100,71,96,207833
1.7351,0.1075,39.3200,71,96,207836
1.6960,0.1026,39.3200,71,96,207840
1.6862,0.1124,39.4400,71,96,207843
1.7058,0.1124,39.3200,71,96,207846
1.6716,0.1124,39.4100,71,96,207850
1.7058,0.1075,39.2200,71,96,207853
1.6862,0.1075,39.3500,71,96,207856
1.6716,0.1075,39.5100,71,96,207860
1.6764,0.1075,39.4800,71,96,207863
1.6764,0.1026,39.4400,71,96,207866
1.7155,0.1124,39.1600,71,96,207870
1.6862,0.1026,39.3800,71,96,207874
1.6862,0.0978,39.3800,71,96,207877
1.7009,0.1075,39.4400,71,96,207881
1.6960,0.1026,39.3500,71,96,207884
1.7498,0.1320,39.3200,71,96,207887
1.7302,0.1075,39.3800,71,96,207890
1.7155,0.1026,39.3500,71,96,207894
1.7204,0.0929,39.4100,71,96,207897
1.7253,0.1026,39.4800,71,96,207900
1.7595,0.1173,39.3500,71,96,207904
1.7449,0.1075,39.4400,71,96,207907
1.7595,0.1173,39.3200,71,96,207910
1.7449,0.1075,39.5100,71,96,207915
1.7498,0.1369,39.4100,71,96,207918
1.7742,0.1124,39.3500,71,96,207921
1.7889,0.1026,39.4100,71,96,207925
1.7889,0.1026,39.3200,71,96,207928
1.7644,0.0978,39.3800,71,96,207931
1.7644,0.1026,39.4400,71,96,207934
1.7791,0.1075,39.4100,71,96,207938
1.7693,0.0978,39.4400,71,96,207941
1.7986,0.1075,39.2500,71,96,207944
1.7742,0.1320,39.4100,71,96,207948
1.7791,0.0929,39.4400,71,96,207951
1.7937,0.1075,39.6400,71,96,207954
1.7742,0.1075,39.4100,71,96,207959
1.8182,0.1075,39.1900,71,96,207962
1.7742,0.0978,39.3800,71,96,207965
1.7742,0.1026,39.4400,71,96,207969
1.7840,0.1075,39.4100,71,96,207972
1.7742,0.0929,39.4100,71,96,207975
1.8231,0.1222,39.2200,71,96,207978
1.7937,0.1075,39.3800,71,96,207982
1.7791,0.1026,39.3800,71,96,207985
1.7791,0.1075,39.4400,71,96,207988
1.7742,0.1026,39.4400,71,96,207992
1.8133,0.1124,39.4800,71,96,207995
1.7742,0.1075,39.4100,71,96,207998
1.7889,0.1026,39.3500,71,96,208003
1.7986,0.1075,39.4100,71,96,208006
1.7693,0.1026,39.4400,71,96,208009
1.7889,0.1075,39.4400,71,96,208013
1.7693,0.1075,39.4100,71,96,208016
1.7937,0.1075,39.3200,71,96,208019
1.7693,0.1075,39.4100,71,96,208022
1.7644,0.1026,39.4400,71,96,208026
1.7840,0.1026,39.3500,71,96,208029
1.8035,0.0978,39.4400,71,96,208032
1.7986,0.1026,39.3200,71,96,208036
1.7791,0.0978,39.4100,71,96,208039
1.7791,0.1026,39.4400,71,96,208043
1.8035,0.1124,39.4800,71,96,208047
1.7840,0.1075,39.4100,71,96,208050
1.7791,0.1124,39.4400,71,96,208054
1.8328,0.1222,39.3500,71,96,208057
1.7889,0.1075,39.3800,71,96,208060
1.7889,0.0978,39.3800,71,96,208064
1.7889,0.1026,39.4400,71,96,208067
1.7889,0.1026,39.4100,71,96,208070
1.8328,0.1124,39.3500,71,96,208073
1.8084,0.1075,39.4100,71,96,208077
1.8084,0.1026,39.3500,71,96,208080
1.7937,0.1271,39.4100,71,96,208083
1.7889,0.1026,39.4400,71,96,208088
1.8133,0.1320,39.3800,71,96,208091
1.7986,0.0929,39.4100,71,96,208094
1.8182,0.1075,39.3200,71,96,208098
1.7986,0.1026,39.4400,71,96,208101
1.7986,0.1026,39.4100,71,96,208104
1.8280,0.1124,39.3200,71,96,208108
1.7986,0.1026,39.4100,71,96,208111
1.8328,0.1026,39.2800,71,96,208114
1.8035,0.1026,39.3500,71,96,208117
1.7986,0.1026,39.4100,71,96,208121
1.8133,0.1075,39.4400,71,96,208124
1.8035,0.1026,39.4400,71,96,208128
1.8377,0.1075,39.2500,71,96,208132
1.8035,0.1075,39.4100,71,96,208135
1.8084,0.1026,39.5100,71,96,208138
1.8280,0.1417,39.3800,71,96,208142
1.8035,0.1026,39.3800,71,96,208145
1.8573,0.1075,39.1900,71,96,208148
1.8133,0.0929,39.4400,71,96,208151
1.8182,0.1026,39.4400,71,96,208155
1.8377,0.1320,39.4100,71,96,208158
1.8426,0.1026,39.4400,71,96,208161
1.9062,0.1222,39.1900,71,96,208165
1.8768,0.0929,39.3800,71,96,208168
1.8671,0.1026,39.3800,71,96,208172
1.8671,0.0929,39.4400,71,96,208176
1.8768,0.1026,39.4400,71,96,208179
1.9208,0.1271,39.3200,71,96,208182
1.8915,0.1075,39.5100,71,96,208186
1.9208,0.1026,39.3200,71,96,208189
1.9257,0.1075,39.5100,71,96,208192
1.9355,0.1026,39.5100,71,96,208195
1.9844,0.1026,39.3500,71,96,208199
1.9795,0.1075,39.4800,71,96,208202
2.0088,0.1124,39.3200,71,96,208205
1.9697,0.1026,39.4400,71,96,208209
1.9501,0.1026,39.4400,71,96,208212
1.9453,0.1075,39.3500,71,96,208216
1.9110,0.0733,39.4400,71,96,208220
1.9110,0.1026,39.2800,71,96,208223
1.8622,0.1026,39.4800,71,96,208226
1.8573,0.1026,39.4100,71,96,208230
1.8964,0.1026,39.3500,71,96,208233
1.8426,0.1026,39.4100,71,96,208236
1.8915,0.1075,39.2200,71,96,208239
1.8377,0.1075,39.3500,71,96,208243
1.7986,0.1026,39.4400,71,96,208246
1.7889,0.1124,39.4100,71,96,208249
1.7644,0.1124,39.4100,71,96,208253
1.8035,0.1173,39.1900,71,96,208257
1.7546,0.1124,39.3800,71,96,208260
1.7498,0.0978,39.4100,71,96,208264
1.7546,0.1075,39.4100,71,96,208267
1.7840,0.1026,39.4400,71,96,208270
1.7986,0.1173,39.2800,71,96,208274
1.7693,0.1417,39.3800,71,96,208277
1.7644,0.1026,39.3500,71,96,208280
1.7644,0.1075,39.2500,71,96,208283
1.7644,0.1026,39.3800,71,96,208287
1.7937,0.1124,39.3500,71,96,208290
1.7791,0.0929,39.4100,71,96,208293
1.7937,0.1075,39.3800,71,96,208297
1.7742,0.1026,39.4100,71,96,208301
1.7742,0.1026,39.4800,71,96,208304
1.8133,0.1173,39.3200,71,96,208308
1.7644,0.1026,39.3800,71,96,208311
1.7546,0.0978,39.3200,71,96,208314
1.7009,0.1026,39.3800,71,96,208318
1.6862,0.1026,39.3800,71,96,208321
1.7107,0.1075,39.3800,71,96,208324
1.7595,0.1026,39.4400,71,96,208328
1.9110,0.1026,39.2200,71,96,208331
2.0626,0.1075,39.4800,71,96,208334
2.3167,0.1026,39.4800,71,96,208337
2.6735,0.1026,39.3800,71,96,208342
2.9961,0.1026,39.4400,71,96,208345
3.3920,0.1173,39.1900,71,96,208348
3.4897,0.1026,38.9300,71,96,208352
3.4018,0.1075,39.4100,71,96,208355
3.1281,0.1075,39.4400,71,96,208358
2.6931,0.1026,39.5400,71,96,208362
2.3412,0.1222,39.1900,71,96,208365
1.9110,0.1124,39.4100,71,96,208368
1.5982,0.0978,39.3500,71,96,208371
1.3930,0.1075,39.5100,71,96,208375
1.2659,0.1222,39.4100,71,96,208378
1.2317,0.1124,39.2500,71,96,208381
1.2072,0.0929,39.4400,71,96,208386
1.2414,0.1026,39.3200,71,96,208389
1.2854,0.1075,39.5400,71,96,208392
1.3539,0.1075,39.4400,71,96,208396
1.4418,0.1124,39.4400,71,96,208399
1.4907,0.1075,39.4100,71,96,208402
1.5543,0.1124,39.3200,71,96,208406
1.5787,0.1026,39.3200,71,96,208409
1.6031,0.1026,39.4400,71,96,208412
1.6471,0.1026,39.3500,71,96,208415
1.6520,0.1026,39.5100,71,96,208419
1.7058,0.0978,39.2800,71,96,208422
1.6764,0.1026,39.4800,71,96,208425
1.6911,0.1026,39.4100,71,96,208430
1.7253,0.1075,39.3500,71,96,208433
1.7449,0.1075,39.4100,71,96,208436
1.7644,0.1075,39.2200,71,96,208440
1.7498,0.1075,39.3800,71,96,208443
1.7400,0.1075,39.4400,71,96,208446
1.7546,0.1075,39.3800,71,96,208450
1.7693,0.1075,39.4100,71,96,208453
1.8084,0.1124,39.1600,71,96,208456
1.7693,0.1075,39.4100,71,96,208459
1.7791,0.0978,39.4100,71,96,208463
1.7889,0.1124,39.4100,71,96,208466
1.7791,0.1026,39.4100,71,96,208470
1.8426,0.1173,39.2800,71,96,208474
1.8231,0.1124,39.3800,71,96,208477
1.8182,0.1026,39.2800,71,96,208480
1.8133,0.1026,39.4100,71,96,208484
1.8182,0.1026,39.4100,71,96,208487
1.8719,0.1124,39.3500,71,96,208490
1.8377,0.1075,39.4800,71,96,208494
1.8671,0.1369,39.2800,71,96,208497
1.8524,0.1026,39.4100,71,96,208500
1.8622,0.1075,39.4400,71,96,208504
1.8964,0.1124,39.3200,71,96,208507
1.9062,0.1026,39.4400,71,96,208510
1.9110,0.1026,39.3200,71,96,208514
1.8915,0.1026,39.3500,71,96,208518
1.9013,0.1417,39.4400,71,96,208521
1.9257,0.1124,39.3500,71,96,208524
1.9306,0.1026,39.4400,71,96,208528
1.9697,0.1026,39.1900,71,96,208531
1.9453,0.0929,39.4100,71,96,208534
1.9599,0.1026,39.4400,71,96,208538
1.9990,0.1124,39.4400,71,96,208541
1.9892,0.0929,39.4100,71,96,208544
2.0479,0.1075,39.4100,71,96,208548
2.0186,0.1026,39.3800,71,96,208551
2.0283,0.0929,39.4400,71,96,208555
2.0479,0.1075,39.5400,71,96,208558
2.0674,0.1075,39.4400,71,96,208562
2.1310,0.1124,39.1900,71,96,208565
2.0919,0.1075,39.3500,71,96,208568
2.0919,0.1075,39.3500,71,96,208572
2.1017,0.1075,39.4400,71,96,208575
2.1114,0.1026,39.4100,71,96,208578
2.1750,0.1173,39.2800,71,96,208582
2.1408,0.1075,38.8400,71,96,208585
2.1652,0.1271,39.3200,71,96,208588
2.1554,0.1075,39.4400,71,96,208591
2.1554,0.1173,39.4100,71,96,208595
2.1896,0.1124,39.3800,71,96,208599
2.1701,0.1075,39.4100,71,96,208602
2.1896,0.1417,39.2800,71,96,208606
2.1603,0.1026,39.4400,71,96,208609
2.1505,0.1026,39.5100,71,96,208612
2.1750,0.1075,39.4400,71,96,208616
2.1212,0.1075,39.4400,71,96,208619
2.1261,0.1026,39.2800,71,96,208622
2.0723,0.1075,39.4400,71,96,208626
2.0479,0.1026,39.5100,71,96,208629
2.0430,0.1271,39.3200,71,96,208632
1.9892,0.1026,39.4400,71,96,208635
1.9892,0.1075,39.2500,71,96,208640
1.9404,0.0929,39.4400,71,96,208643
1.8915,0.1026,39.4100,71,96,208646
1.8866,0.1124,39.3800,71,96,208650
1.8328,0.1026,39.4400,71,96,208653
1.8475,0.1417,39.1600,71,96,208656
1.7400,0.1271,39.3200,71,96,208660
1.7107,0.1075,39.3800,71,96,208663
1.6960,0.1026,39.3500,71,96,208667
1.6764,0.1124,39.5100,71,96,208670
1.6716,0.1026,39.5100,71,96,208673
1.6960,0.1124,39.3500,71,96,208677
1.6764,0.1075,39.4400,71,96,208680
1.6911,0.1369,39.2800,71,96,208684
1.6764,0.1026,39.4400,71,96,208687
1.6813,0.1075,39.4100,71,96,208691
1.7204,0.1124,39.3200,71,96,208694
1.6911,0.1075,39.4400,71,96,208697
1.7253,0.1026,39.2800,71,96,208701
1.7058,0.1026,39.4100,71,96,208704
1.7107,0.1075,39.4100,71,96,208707
1.7253,0.1075,39.3800,71,96,208711
1.7204,0.1124,39.4400,71,96,208714
1.7546,0.1075,39.2500,71,96,208717
1.7302,0.1075,39.4100,71,96,208721
1.7351,0.1026,39.5400,71,96,208724
1.7644,0.1124,39.3500,71,96,208728
1.7400,0.1075,39.5100,71,96,208731
1.7889,0.1075,39.2800,71,96,208735
1.7498,0.1026,39.3500,71,96,208738
1.7546,0.1026,39.4100,71,96,208741
1.7693,0.1075,39.4800,71,96,208745
1.7791,0.0929,39.4400,71,96,208748
1.8133,0.1222,39.3200,71,96,208751
1.8035,0.1075,39.3200,71,96,208755
1.7644,0.1026,39.3800,71,96,208758
1.7693,0.1173,39.4100,71,96,208761
1.7693,0.1026,39.4100,71,96,208765
1.8084,0.1222,39.3800,71,96,208769
1.7742,0.1075,39.4400,71,96,208772
1.7937,0.1026,39.5100,71,96,208775
1.8035,0.0978,39.4400,71,96,208779
1.7791,0.1026,39.4100,71,96,208782
1.7937,0.1417,39.3800,71,96,208785
1.7889,0.0929,39.4100,71,96,208789
1.8035,0.1124,39.3500,71,96,208792
1.7742,0.1075,39.3800,71,96,208795
1.7742,0.1026,39.4800,71,96,208799
1.7889,0.1173,39.3500,71,96,208802
1.7791,0.1075,39.4100,71,96,208805
1.7986,0.1026,39.2800,71,96,208809
1.7742,0.1026,39.4400,71,96,208813
1.7742,0.1026,39.4400,71,96,208816
1.8133,0.1026,39.3500,71,96,208819
1.7693,0.1026,39.4100,71,96,208823
1.8084,0.1075,39.2200,71,96,208826
1.7889,0.1075,39.3500,71,96,208829
1.7644,0.1026,39.4800,71,96,208833
1.7693,0.1075,39.4400,71,96,208836
1.7644,0.1026,39.4100,71,96,208839
1.8133,0.1124,39.1900,71,96,208843
1.7644,0.1320,39.3800,71,96,208846
1.7644,0.0929,39.4100,71,96,208849
1.7595,0.1075,39.4400,71,96,208854
1.7546,0.0978,39.4100,71,96,208857
1.8035,0.1124,39.2800,71,96,208860
1.7742,0.1124,39.4100,71,96,208863
1.7791,0.0978,39.3500,71,96,208867
1.7693,0.1075,39.3200,71,96,208870
1.7742,0.1026,39.4400,71,96,208873
1.8035,0.1124,39.4100,71,96,208877
1.7840,0.0978,39.4800,71,96,208880
1.7986,0.1075,39.3200,71,96,208883
1.7791,0.1075,39.4100,71,96,208887
1.7889,0.1026,39.4400,71,96,208890
1.8084,0.1124,39.4100,71,96,208893
1.7840,0.1075,39.4400,71,96,208898
1.8035,0.1026,39.3200,71,96,208901
1.7742,0.1026,39.4100,71,96,208904
1.7742,0.1026,39.4100,71,96,208907
1.7889,0.1075,39.3200,71,96,208911
1.7840,0.1075,39.4400,71,96,208914
1.8182,0.1075,39.2200,71,96,208917
1.7889,0.1124,39.4100,71,96,208921
1.7840,0.1026,39.4400,71,96,208924
1.8133,0.1124,39.5400,71,96,208927
1.7889,0.1075,39.4100,71,96,208931
1.8328,0.1124,39.1900,71,96,208934
1.8182,0.0978,39.3500,71,96,208937
1.7889,0.1026,39.4400,71,96,208942
1.7937,0.1075,39.4100,71,96,208945
1.7889,0.1026,39.4400,71,96,208948
1.8426,0.1271,39.2200,71,96,208951
1.8084,0.1173,39.3800,71,96,208955
1.7937,0.1026,39.3500,71,96,208958
1.7986,0.1075,39.5100,71,96,208961
1.7986,0.1026,39.4800,71,96,208965
1.8377,0.1173,39.2500,71,96,208968
1.8084,0.1075,39.3500,71,96,208971
1.8328,0.1075,39.3200,71,96,208975
1.8133,0.0733,39.4800,71,96,208978
1.8280,0.1026,39.4100,71,96,208982
1.8524,0.1026,39.3800,71,96,208986
1.8475,0.1075,39.4800,71,96,208989
1.8768,0.1369,39.3500,71,96,208992
1.8573,0.1026,39.5100,71,96,208995
1.8671,0.1026,39.4100,71,96,208999
1.8915,0.0929,39.3500,71,96,209002
1.8915,0.1075,39.4400,71,96,209005
1.9355,0.1026,39.3200,71,96,209009
1.9306,0.1026,39.4800,71,96,209012
1.9453,0.1320,39.4100,71,96,209015
1.9746,0.1124,39.3800,71,96,209019
1.9501,0.1124,39.4400,71,96,209022
1.9795,0.1075,39.2200,71,96,209026
1.9355,0.1075,39.3800,71,96,209030
1.9110,0.1075,39.4100,71,96,209033
1.8768,0.1075,39.4100,71,96,209036
1.8475,0.0978,39.3800,71,96,209039
1.8964,0.1124,39.1900,71,96,209043
1.8280,0.1222,39.3800,71,96,209046
1.8182,0.0978,39.5100,71,96,209049
1.8084,0.1075,39.4400,71,96,209053
1.7889,0.1075,39.4100,71,96,209056
1.8280,0.1173,39.2500,71,96,209059
1.7693,0.1075,39.3800,71,96,209063
1.7498,0.1075,39.3500,71,96,209067
1.7351,0.1075,39.3800,71,96,209070
1.7302,0.1026,39.4400,71,96,209074
1.7546,0.1124,39.4400,71,96,209077
1.7351,0.1075,39.4100,71,96,209080
1.7546,0.1026,39.3200,71,96,209083
1.7644,0.1026,39.4400,71,96,209087
1.7400,0.1026,39.4400,71,96,209090
1.7742,0.1124,39.2800,71,96,209093
1.7498,0.1026,39.4400,71,96,209097
1.7791,0.1026,39.3800,71,96,209100
1.7546,0.1075,39.3800,71,96,209103
1.7644,0.1026,39.4400,71,96,209107
1.7986,0.1124,39.3800,71,96,209111
1.7693,0.1026,39.4400,71,96,209114
1.7986,0.1075,39.2500,71,96,209118
1.7693,0.1026,39.4100,71,96,209121
1.7546,0.1026,39.4400,71,96,209124
1.7351,0.1320,39.3800,71,96,209127
1.6813,0.1075,39.4400,71,96,209131
1.6960,0.1075,39.2200,71,96,209134
1.6960,0.0978,39.4400,71,96,209137
1.7155,0.1026,39.4400,71,96,209141
1.8426,0.1417,39.5100,71,96,209144
2.0235,0.1026,39.4400,71,96,209147
2.3656,0.1222,39.2200,71,96,209152
2.6588,0.1026,39.3500,71,96,209155
3.0205,0.0978,39.3800,71,96,209158
3.3627,0.1320,39.4100,71,96,209162
3.5630,0.1026,39.4400,71,96,209165
3.5777,0.1124,39.2200,71,96,209168
3.2356,0.1075,39.4100,71,96,209171
2.8299,0.1026,39.3500,71,96,209175
2.3656,0.1075,39.4100,71,96,209178
1.9599,0.1026,39.4100,71,96,209181
1.6618,0.1075,39.3800,71,96,209185
1.4076,0.1075,39.4100,71,96,209188
1.2708,0.1026,39.2800,71,96,209191
1.1681,0.1026,39.4400,71,96,209196
1.1828,0.1075,39.4400,71,96,209199
1.1730,0.1075,38.8700,71,96,209202
1.2170,0.1026,39.4100,71,96,209205
1.3050,0.0978,39.3200,71,96,209209
1.3539,0.1026,39.4400,71,96,209212
1.4174,0.1026,39.4800,71,96,209215
1.4956,0.1124,39.4400,71,96,209219
1.5249,0.1026,39.4100,71,96,209222
1.5934,0.0929,39.2200,71,96,209225
1.5982,0.1075,39.3500,71,96,209229
1.6080,0.0978,39.4100,71,96,209232
1.6422,0.1075,39.4400,71,96,209235
1.6422,0.1026,39.4800,71,96,209240
1.7009,0.1075,39.1900,71,96,209243
1.6764,0.1026,39.4100,71,96,209246
1.6813,0.1026,39.4100,71,96,209249
1.7009,0.1124,39.4100,71,96,209253
1.6960,0.1075,39.4400,71,96,209256
1.7546,0.1222,39.1600,71,96,209259
1.7253,0.1124,39.3500,71,96,209263
1.7253,0.1075,39.3800,71,96,209266
1.7253,0.1075,39.4100,71,96,209269
1.7546,0.1026,39.5400,71,96,209274
1.7986,0.1075,39.4100,71,96,209277
1.8084,0.1124,39.3500,71,96,209282
1.7986,0.1026,39.4100,71,96,209285
1.8182,0.1026,39.3200,71,96,209288
1.7986,0.1173,39.3800,71,96,209292
1.8084,0.1075,39.4400,71,96,209295
1.8280,0.1075,39.3800,71,96,209298
1.8231,0.1075,39.4100,71,96,209301
1.8719,0.1026,39.2500,71,96,209305
1.8426,0.1320,39.4100,71,96,209308
1.8426,0.1026,39.4400,71,96,209311
1.8817,0.1124,39.3800,71,96,209315
1.8622,0.1075,39.5100,71,96,209318
1.9208,0.1124,39.1900,71,96,209321
1.8817,0.1026,39.3200,71,96,209326
1.8915,0.1026,39.5400,71,96,209329
1.9013,0.1124,39.4100,71,96,209332
1.9110,0.1075,39.4400,71,96,209336
1.9795,0.1222,39.2500,71,96,209339
1.9355,0.0929,39.4100,71,96,209342
1.9501,0.1026,39.4400,71,96,209345
1.9648,0.1075,39.4400,71,96,209349
1.9844,0.0733,39.4400,71,96,209352
2.0381,0.1124,39.3200,71,96,209355
2.0186,0.1075,39.4400,71,96,209359
2.0479,0.1026,39.3500,71,96,209362
2.0381,0.1124,39.4100,71,96,209366
2.0430,0.1026,39.4400,71,96,209370
2.0870,0.1124,39.2500,71,96,209373
2.0821,0.1124,39.4100,71,96,209376
2.1114,0.1124,39.3200,71,96,209379
2.0919,0.1075,39.4400,71,96,209383
2.1017,0.1320,39.4100,71,96,209386
2.1261,0.0929,39.3800,71,96,209389
2.1163,0.1075,39.4800,71,96,209393
2.1457,0.0978,39.3200,71,96,209396
2.1212,0.1075,39.3800,71,96,209399
2.1163,0.1124,39.4100,71,96,209403
2.1408,0.1124,39.3500,71,96,209406
2.1114,0.1026,39.4100,71,96,209410
2.1505,0.1075,39.2200,71,96,209414
2.1065,0.1124,39.3500,71,96,209417
2.0723,0.0978,39.4400,71,96,209420
2.0626,0.1075,39.4800,71,96,209423
2.0235,0.1026,39.5700,71,96,209427
2.0479,0.1173,39.1900,71,96,209430
1.9746,0.1026,39.3800,71,96,209433
1.9355,0.0978,39.4400,71,96,209437
1.9159,0.1075,39.4100,71,96,209440
1.8768,0.1026,39.4100,71,96,209443
1.8964,0.1222,39.3200,71,96,209447
1.8280,0.1173,39.4100,71,96,209451
1.8084,0.0929,39.4100,71,96,209454
1.7644,0.1075,39.5700,71,96,209458
1.7351,0.1075,39.4400,71,96,209461
1.7498,0.1124,39.3500,71,96,209464
1.7058,0.1075,39.4100,71,96,209467
1.7058,0.1075,39.2800,71,96,209471
1.6667,0.1026,39.3500,71,96,209474
1.6520,0.1026,39.4400,71,96,209477
1.6764,0.1124,39.3200,71,96,209481
1.6325,0.0978,39.4400,71,96,209484
1.6569,0.1124,39.3500,71,96,209487
1.6276,0.1026,39.3800,71,96,209491
1.6227,0.1075,39.4400,71,96,209495
1.6325,0.1026,39.3800,71,96,209498
1.6569,0.1026,39.4100,71,96,209502
1.6520,0.1026,39.2800,71,96,209505
1.6325,0.1320,39.4100,71,96,209508
1.6422,0.1026,39.4400,71,96,209511
1.6618,0.1124,39.4100,71,96,209515
1.6471,0.0929,39.4100,71,96,209518
1.6862,0.1075,39.2800,71,96,209521
1.6569,0.0978,39.4400,71,96,209525
1.6667,0.1026,39.4400,71,96,209528
1.6813,0.1271,39.3800,71,96,209531
1.6716,0.1026,39.4400,71,96,209536
1.7253,0.1173,39.1900,71,96,209539
1.7058,0.1075,39.3500,71,96,209542
1.6911,0.0978,39.4100,71,96,209546
1.6960,0.1075,39.4400,71,96,209549
1.6960,0.1075,39.4400,71,96,209552
1.7449,0.1075,39.3500,71,96,209555
1.7058,0.1075,38.7400,71,96,209559
1.7155,0.1075,39.3500,71,96,209562
1.7155,0.0733,39.4400,71,96,209565
1.7107,0.1026,39.5400,71,96,209569
1.7742,0.1026,39.3500,71,96,209572
1.7302,0.1075,39.4100,71,96,209575
1.7449,0.1075,39.2800,71,96,209580
1.7204,0.0929,39.4400,71,96,209583
1.7155,0.1026,39.3500,71,96,209586
1.7498,0.1026,39.3800,71,96,209590
1.7204,0.0733,39.4100,71,96,209593
1.7400,0.1026,39.2800,71,96,209596
1.7107,0.1026,39.4400,71,96,209599
1.7058,0.1026,39.5100,71,96,209603
1.7253,0.1124,39.3200,71,96,209606
1.6960,0.1026,39.4100,71,96,209609
1.7253,0.1124,39.2500,71,96,209613
1.7058,0.1075,39.4400,71,96,209616
1.6911,0.1026,39.4100,71,96,209619
1.6960,0.1075,39.4800,71,96,209624
1.6911,0.1026,39.4100,71,96,209627
1.7400,0.1124,39.1900,71,96,209630
1.6960,0.0978,39.4100,71,96,209634
1.7302,0.1075,39.4400,71,96,209637
1.7058,0.1075,39.4100,71,96,209640
1.6911,0.1026,39.4100,71,96,209643
1.7400,0.1222,39.1900,71,96,209647
1.7058,0.1124,39.3500,71,96,209650
1.7204,0.1026,39.4400,71,96,209653
1.7009,0.1075,39.4800,71,96,209657
1.6960,0.1075,39.4400,71,96,209660
1.7351,0.1124,39.3200,71,96,209664
1.7107,0.1075,39.3800,71,96,209668
1.7204,0.1026,39.3500,71,96,209671
1.7058,0.1075,39.4100,71,96,209674
1.7058,0.1222,39.4100,71,96,209678
1.7400,0.1124,39.2800,71,96,209681
1.7107,0.1075,39.3200,71,96,209684
1.7351,0.1026,39.3200,71,96,209687
1.7155,0.1075,39.4100,71,96,209691
1.7155,0.1026,39.4100,71,96,209694
1.7302,0.1075,39.4100,71,96,209697
1.7155,0.1075,39.3800,71,96,209701
1.7400,0.1124,39.3800,71,96,209704
1.7253,0.1026,39.5100,71,96,209708
1.7253,0.1075,39.4400,71,96,209712
1.7498,0.1075,39.2800,71,96,209715
1.7302,0.1026,39.3500,71,96,209718
1.7644,0.1026,39.3200,71,96,209721
1.7302,0.0978,39.5100,71,96,209725
1.7351,0.1075,39.4400,71,96,209728
1.7546,0.1124,39.3800,71,96,209731
1.7400,0.1075,39.4100,71,96,209735
1.7889,0.1124,39.1900,71,96,209738
1.7546,0.1075,39.3200,71,96,209741
1.7400,0.1026,39.4400,71,96,209745
1.7449,0.1075,39.4100,71,96,209748
1.7449,0.1124,39.4400,71,96,209752
1.8035,0.1222,38.6500,71,96,209756
1.7840,0.1026,39.4100,71,96,209759
1.7791,0.1026,39.3500,71,96,209762
1.7742,0.1075,39.4800,71,96,209765
1.7791,0.1026,39.4100,71,96,209769
1.8280,0.1124,39.3200,71,96,209772
1.8084,0.1075,39.4100,71,96,209775
1.8231,0.1124,39.3200,71,96,209779
1.8182,0.1026,39.3200,71,96,209782
1.8231,0.0978,39.4400,71,96,209785
1.8524,0.1124,39.4400,71,96,209789
1.8475,0.0978,39.5100,71,96,209793
1.8817,0.1124,39.3500,71,96,209796
1.8817,0.1026,39.4400,71,96,209800
1.9013,0.1026,39.4400,71,96,209803
1.9501,0.1466,39.3800,71,96,209806
1.9306,0.1026,39.4100,71,96,209810
1.9599,0.1075,39.3500,71,96,209813
1.9208,0.1026,39.4100,71,96,209816
1.9013,0.1026,39.4400,71,96,209819
1.9013,0.1124,39.3800,71,96,209823
1.8622,0.1075,39.4400,71,96,209826
1.8817,0.1075,39.2500,71,96,209829
1.8231,0.1026,39.4100,71,96,209833
1.8133,0.1075,39.4400,71,96,209837
1.8133,0.1124,39.4100,71,96,209840
1.7937,0.1026,39.4400,71,96,209844
1.8328,0.1124,39.2500,71,96,209847
1.7791,0.1075,39.4100,71,96,209850
1.7498,0.1222,39.4100,71,96,209853
1.7351,0.1075,39.4400,71,96,209857
1.7253,0.1075,39.4400,71,96,209860
1.7644,0.1124,39.3200,71,96,209863
1.7302,0.1075,39.4100,71,96,209867
1.7546,0.1075,39.4100,71,96,209870
1.7253,0.1075,39.5100,71,96,209873
1.7595,0.1075,39.4400,71,96,209878
1.7644,0.1124,39.5700,71,96,209881
1.7595,0.1222,39.3800,71,96,209886
1.7595,0.1026,39.5400,71,96,209889
1.7937,0.1075,39.2200,71,96,209892
1.7693,0.0929,39.4400,71,96,209896
1.7742,0.1026,39.5100,71,96,209899
1.7889,0.1124,39.3800,71,96,209902
1.7351,0.1075,39.4100,71,96,209906
1.7351,0.1369,39.1900,71,96,209909
1.6716,0.1026,39.3500,71,96,209912
1.6618,0.0978,39.4100,71,96,209916
1.6960,0.1075,39.4400,71,96,209920
1.7937,0.1124,39.5100,71,96,209923
2.0235,0.1222,39.2200,71,96,209926
2.2336,0.1124,39.3800,71,96,209930
2.5660,0.0929,39.3800,71,96,209933
2.9326,0.1075,39.4100,71,96,209936
3.3040,0.1026,39.4400,71,96,209940
3.6364,0.1124,39.2500,71,96,209943
3.6168,0.1075,39.4100,71,96,209946
3.4115,0.1075,39.3500,71,96,209950
2.9717,0.1124,39.4100,71,96,209953
2.5171,0.1026,39.4400,71,96,209956
2.1065,0.1124,39.3500,71,96,209960
1.7302,0.1075,39.4100,71,96,209964
1.4858,0.1124,39.3500,71,96,209967
1.2952,0.1075,39.4100,71,96,209970
1.1877,0.1026,39.4800,71,96,209974
1.1681,0.1271,39.3500,71,96,209977
1.1632,0.1075,39.5400,71,96,209980
1.2219,0.1075,39.2800,71,96,209984
1.2757,0.1075,39.4400,71,96,209987
1.3490,0.1026,39.3800,71,96,209990
1.4272,0.1075,39.3800,71,96,209994
1.4761,0.1026,39.4100,71,96,209997
1.5640,0.1075,39.2200,71,96,210000
1.5885,0.1124,39.3800,71,96,210004
1.5982,0.1026,39.3800,71,96,210008
1.6178,0.1075,39.4100,71,96,210011
1.6373,0.1026,38.9000,71,96,210014
1.7009,0.1222,39.1600,71,96,210018
1.6716,0.1026,39.4800,71,96,210021
1.6813,0.0978,39.4100,71,96,210024
1.6911,0.1075,39.4100,71,96,210028
1.7009,0.1026,39.4100,71,96,210031
1.7595,0.1271,39.3200,71,96,210034
1.7400,0.1124,39.3800,71,96,210038
1.7449,0.1075,39.3500,71,96,210041
1.7498,0.1075,39.5100,71,96,210044
1.7546,0.1075,39.4100,71,96,210049
1.7937,0.1124,39.3500,71,96,210052
1.7693,0.1075,39.4100,71,96,210055
1.7986,0.1026,39.2800,71,96,210058
1.7840,0.1075,39.4400,71,96,210062
1.7937,0.1026,39.3500,71,96,210065
1.8231,0.1173,39.3800,71,96,210068
1.8084,0.1075,39.4800,71,96,210072
1.8377,0.0929,39.3200,71,96,210075
1.8231,0.1026,39.4400,71,96,210078
1.8280,0.1026,39.4400,71,96,210082
1.8475,0.1075,39.1900,71,96,210085
1.8426,0.1075,39.5100,71,96,210088
1.8866,0.0929,39.2200,71,96,210093
1.8622,0.1075,39.4100,71,96,210096
1.8719,0.1075,39.4100,71,96,210099
1.9062,0.1124,39.4400,71,96,210102
1.8866,0.1026,39.4100,71,96,210106
1.9355,0.1124,39.1900,71,96,210109
1.9110,0.1075,39.3800,71,96,210112
1.9208,0.1026,39.4400,71,96,210116
1.9355,0.1075,39.5400,71,96,210119
1.9501,0.1075,39.4400,71,96,210122
2.0088,0.1173,39.1900,71,96,210126
1.9795,0.1369,39.3800,71,96,210129
1.9844,0.1026,39.3800,71,96,210132
1.9892,0.1124,39.4400,71,96,210137
1.9990,0.1026,39.4400,71,96,210140
2.0528,0.1124,39.2800,71,96,210143
2.0381,0.1075,39.4100,71,96,210146
2.0674,0.1075,39.3200,71,96,210150
2.0626,0.1075,39.4100,71,96,210153
2.0772,0.0978,39.4400,71,96,210156
2.1163,0.1124,39.3800,71,96,210160
2.1065,0.1320,39.4100,71,96,210163
2.1505,0.0929,39.3200,71,96,210166
2.1261,0.1075,39.5100,71,96,210170
2.1310,0.1026,39.4400,71,96,210173
2.1554,0.1075,39.3500,71,96,210177
2.1457,0.1075,39.5400,71,96,210180
2.1750,0.1124,39.2800,71,96,210184
2.1505,0.1075,39.4800,71,96,210187
2.1554,0.1026,39.4100,71,96,210190
2.1848,0.1124,39.3500,71,96,210194
2.1554,0.1075,39.4100,71,96,210197
2.1994,0.1075,39.2200,71,96,210200
2.1652,0.1124,39.3500,71,96,210204
2.1457,0.1075,39.4400,71,96,210207
2.1408,0.1075,39.4800,71,96,210210
2.1114,0.1075,39.4100,71,96,210214
2.1505,0.1124,39.1900,71,96,210217
2.0626,0.1124,39.4100,71,96,210221
2.0332,0.1075,39.4100,71,96,210224
2.0088,0.1075,39.4400,71,96,210228
1.9648,0.1075,39.4400,71,96,210231
1.9892,0.1222,39.2200,71,96,210234
1.9208,0.1124,39.4400,71,96,210238
1.8768,0.0978,39.3500,71,96,210241
1.8524,0.1075,39.4100,71,96,210244
1.8133,0.1026,39.5100,71,96,210248
1.8280,0.1173,39.3200,71,96,210251
1.7742,0.1075,39.3500,71,96,210254
1.7595,0.1271,39.3200,71,96,210258
1.7253,0.1075,39.4100,71,96,210262
1.7155,0.1124,39.4100,71,96,210265
1.7351,0.1124,39.2800,71,96,210268
1.7253,0.1124,39.4400,71,96,210272
1.7155,0.1124,39.3500,71,96,210275
1.6813,0.1026,39.4100,71,96,210278
1.6764,0.1075,39.4400,71,96,210282
1.6862,0.1222,39.3800,71,96,210285
1.6813,0.1075,39.4100,71,96,210288
1.7058,0.1075,39.2500,71,96,210292
1.6862,0.1075,39.4800,71,96,210295
1.6862,0.1026,39.4400,71,96,210298
1.7107,0.1124,39.3500,71,96,210302
1.7009,0.1075,39.4400,71,96,210306
1.7400,0.1075,38.8700,71,96,210309
1.7058,0.1026,39.4400,71,96,210312
1.7155,0.1026,39.4400,71,96,210316
1.7351,0.1173,39.3800,71,96,210319
1.7253,0.1026,39.4400,71,96,210322
1.7791,0.1320,39.1600,71,96,210326
1.7644,0.1173,39.2800,71,96,210329
1.7449,0.1026,39.4100,71,96,210332
1.7546,0.1075,39.4100,71,96,210336
1.7546,0.1075,39.6000,71,96,210339
1.8084,0.1222,39.3200,71,96,210342
1.7742,0.1075,39.4800,71,96,210347
1.7791,0.1026,39.3800,71,96,210350
1.7937,0.0929,39.4100,71,96,210353
1.7742,0.1075,39.4400,71,96,210356
1.7986,0.1173,39.3500,71,96,210360
1.7791,0.1075,39.4100,71,96,210363
1.7937,0.1075,39.3200,71,96,210366
1.7644,0.1026,39.4400,71,96,210370
1.7644,0.1075,39.4100,71,96,210373
1.7840,0.1124,39.4100,71,96,210376
1.7742,0.1075,39.4100,71,96,210380
1.8035,0.1026,39.2800,71,96,210383
1.7791,0.1075,39.4400,71,96,210386
1.7791,0.1124,39.4400,71,96,210391
1.8084,0.1124,39.3200,71,96,210394
1.7840,0.1075,39.4400,71,96,210397
1.8133,0.1075,39.2500,71,96,210400
1.7986,0.1075,39.3500,71,96,210404
1.7840,0.1075,39.4400,71,96,210407
1.7937,0.1124,39.6700,71,96,210410
1.7840,0.1075,39.4400,71,96,210414
1.8280,0.1124,39.1900,71,96,210417
1.7889,0.1124,39.3800,71,96,210420
1.7791,0.1075,39.4400,71,96,210424
1.7840,0.1075,39.5400,71,96,210427
1.7742,0.0978,39.4100,71,96,210430
1.8280,0.1124,39.2200,71,96,210435
1.7889,0.1124,39.3500,71,96,210438
1.7791,0.1026,39.3800,71,96,210441
1.7791,0.1173,39.4100,71,96,210444
1.7742,0.1026,39.3800,71,96,210448
1.8084,0.1173,39.3200,71,96,210451
1.7840,0.1075,39.4100,71,96,210454
1.7937,0.1075,39.1900,71,96,210458
1.7840,0.0929,39.4400,71,96,210461
1.7742,0.1026,39.4400,71,96,210464
1.8084,0.1124,39.2800,71,96,210468
1.7742,0.1075,39.5100,71,96,210471
1.7937,0.1124,39.3800,71,96,210475
1.7840,0.1026,39.4400,71,96,210479
1.7791,0.1026,39.4400,71,96,210482
1.7986,0.1075,39.3500,71,96,210485
1.7889,0.1075,39.4400,71,96,210488
1.8133,0.1026,39.2800,71,96,210492
1.8328,0.1124,39.1600,72,96,210496
1.7986,0.0733,39.3800,72,96,210500
1.7937,0.1026,39.7000,72,96,210503
1.8084,0.1026,39.4100,72,96,210506
1.7986,0.1026,39.5700,72,96,210510
1.8573,0.1173,39.2200,72,96,210513
1.8182,0.1124,39.3800,72,96,210516
1.8133,0.0978,39.3500,72,96,210521
1.8084,0.1075,39.4100,72,96,210524
1.8084,0.1075,39.4400,72,96,210527
1.8377,0.1124,39.2800,72,96,210531
1.8182,0.1320,39.4100,72,96,210534
1.8328,0.1075,39.3200,72,96,210537
1.8133,0.1075,39.4800,72,96,210540
1.8133,0.1075,39.4400,72,96,210544
1.8426,0.1124,39.3500,72,96,210547
1.8622,0.1026,39.4400,72,96,210550
1.8622,0.1124,39.3500,72,96,210554
1.8475,0.1075,39.4100,72,96,210557
1.8573,0.1026,39.4400,72,96,210561
1.8768,0.1075,39.3500,72,96,210565
1.8671,0.0978,39.4400,72,96,210568
1.9013,0.1075,39.2800,72,96,210571
1.8817,0.1369,39.4100,72,96,210575
1.8866,0.1026,39.4400,72,96,210578
1.9257,0.1124,39.4100,72,96,210581
1.9159,0.1075,39.4400,72,96,210585
1.9795,0.1124,39.2500,72,96,210588
1.9795,0.0929,39.3500,72,96,210591
1.9697,0.1026,39.4800,72,96,210594
1.9844,0.1173,39.4100,72,96,210598
1.9648,0.1075,39.4800,72,96,210601
2.0039,0.1173,39.1900,72,96,210605
1.9453,0.1075,39.3800,72,96,210609
1.9110,0.1075,39.2800,72,96,210612
1.9208,0.1075,39.4400,72,96,210615
1.8622,0.1075,39.4400,72,96,210619
1.9062,0.1222,39.3500,72,96,210622
1.8719,0.1124,39.3800,72,96,210625
1.8524,0.1026,39.3500,72,96,210628
1.8280,0.1124,39.3800,72,96,210632
1.8084,0.1026,39.4400,72,96,210635
1.8182,0.1124,39.4100,72,96,210638
1.7791,0.1075,39.4100,72,96,210642
1.7840,0.1075,39.3200,72,96,210646
1.7546,0.1075,39.4800,72,96,210649
1.7498,0.1075,39.4100,72,96,210653
1.7791,0.1515,39.3200,72,96,210656
1.7498,0.1075,39.4100,72,96,210659
1.7889,0.1075,39.3200,72,96,210663
1.7498,0.1026,39.2500,72,96,210666
1.7498,0.1124,39.4400,72,96,210669
1.7742,0.1075,39.4100,72,96,210673
1.7546,0.1124,39.4100,72,96,210676
1.7889,0.1075,39.2500,72,96,210679
1.7693,0.1369,39.3800,72,96,210682
1.7595,0.1026,39.4400,72,96,210686
1.7889,0.1124,39.3800,72,96,210690
1.7937,0.1075,39.4400,72,96,210693
1.8133,0.1124,39.3500,72,96,210697
1.7791,0.1026,39.3500,72,96,210700
1.7693,0.1026,39.4100,72,96,210703
1.7351,0.1026,39.4400,72,96,210707
1.7009,0.1026,39.4800,72,96,210710
1.7400,0.1271,39.2500,72,96,210713
1.7155,0.1124,39.3800,72,96,210717
1.7644,0.1026,39.3500,72,96,210720
1.8817,0.1075,39.4100,72,96,210723
2.0723,0.1075,39.5100,72,96,210726
2.3851,0.1124,39.2500,72,96,210731
2.6784,0.1075,39.3200,72,96,210734
3.0596,0.1075,39.3200,72,96,210737
3.3578,0.1075,39.4400,72,96,210741
3.5239,0.1075,39.4100,72,96,210744
3.5191,0.1026,39.3800,72,96,210747
3.1525,0.1075,39.4400,72,96,210751
2.7615,0.1124,39.3500,72,96,210754
2.2923,0.1075,39.4400,72,96,210757
1.9013,0.1075,39.4400,72,96,210761
1.6031,0.1075,39.3500,72,96,210764
1.3881,0.1075,38.8400,72,96,210767
1.2757,0.1222,39.3200,72,96,210770
1.2023,0.1075,39.3200,72,96,210775
1.1877,0.1075,39.4400,72,96,210778
1.2317,0.1124,39.3800,72,96,210781
1.2805,0.1026,39.4400,72,96,210785
1.3734,0.1124,39.2200,72,96,210788
1.4370,0.1369,39.3500,72,96,210791
1.4858,0.1026,39.4400,72,96,210795
1.5445,0.1075,39.4100,72,96,210798
1.5836,0.1075,39.5100,72,96,210801
1.6618,0.1173,39.2200,72,96,210805
1.6471,0.1075,39.3800,72,96,210808
1.6667,0.1026,39.4800,72,96,210811
1.6862,0.1075,39.5100,72,96,210814
1.6911,0.1075,39.5100,72,96,210819
1.7546,0.1173,39.2800,72,96,210822
1.7302,0.1124,39.3800,72,96,210825
1.7400,0.1075,39.3500,72,96,210829
1.7693,0.1075,39.4400,72,96,210832
1.7400,0.1075,39.4100,72,96,210835
1.7742,0.1124,39.4400,72,96,210839
1.7595,0.1075,39.4100,72,96,210842
1.7889,0.1271,39.3200,72,96,210845
1.7693,0.1075,39.4400,72,96,210849
1.7791,0.1075,39.4400,72,96,210852
1.8133,0.1124,39.3200,72,96,210855
1.7840,0.1075,39.4400,72,96,210860
1.8231,0.1026,39.2800,72,96,210863
1.8084,0.1075,39.3500,72,96,210866
1.8133,0.1026,39.4400,72,96,210869
1.8377,0.1124,39.3500,72,96,210873
1.8524,0.1026,39.5100,72,96,210876
1.8719,0.1075,39.2500,72,96,210879
1.8426,0.1124,39.3800,72,96,210883
1.8475,0.1026,39.4400,72,96,210886
1.8768,0.1222,39.3500,72,96,210889
1.8671,0.1026,39.4400,72,96,210893
1.9257,0.1124,39.1600,72,96,210896
1.8915,0.1075,39.3200,72,96,210899
1.8915,0.0978,39.4100,72,96,210904
1.9062,0.1075,39.4100,72,96,210907
1.9062,0.1075,39.4100,72,96,210910
1.9697,0.1222,39.2500,72,96,210913
1.9355,0.1075,39.4800,72,96,210917
1.9453,0.1075,39.3500,72,96,210920
1.9453,0.1075,39.3200,72,96,210923
1.9501,0.0929,39.4100,72,96,210927
1.9990,0.1124,39.2800,72,96,210930
1.9746,0.1075,39.4100,72,96,210933
2.0186,0.0929,39.3200,72,96,210937
2.0039,0.1075,39.4400,72,96,210940
2.0137,0.1026,39.4100,72,96,210944
2.0577,0.1124,39.3500,72,96,210948
2.0479,0.1075,39.5700,72,96,210951
2.0870,0.1271,39.3500,72,96,210954
2.0723,0.1075,39.4100,72,96,210957
2.0870,0.1075,39.5400,72,96,210961
2.1114,0.1417,39.3500,72,96,210964
2.1114,0.1075,39.4400,72,96,210967
2.1505,0.1075,39.2200,72,96,210971
2.1603,0.1026,39.4100,72,96,210974
2.1408,0.1026,39.4400,72,96,210977
2.1701,0.1124,39.3800,72,96,210981
2.1505,0.1075,39.5400,72,96,210984
2.1994,0.1124,39.2200,72,96,210988
2.2092,0.1026,39.3800,72,96,210991
2.1554,0.1026,39.4400,72,96,210995
2.1799,0.1026,39.4400,72,96,210998
2.1505,0.1075,39.4400,72,96,211001
2.1945,0.1124,39.1600,72,96,211005
2.1310,0.1075,39.3800,72,96,211008
2.1065,0.1026,39.4400,72,96,211011
2.0919,0.1075,39.4100,72,96,211015
2.0577,0.0929,39.4400,72,96,211018
2.0870,0.1222,39.2500,72,96,211021
2.0235,0.1173,39.3500,72,96,211025
1.9844,0.1026,39.3500,72,96,211028
1.9453,0.1075,39.4100,72,96,211032
1.9062,0.1026,39.4100,72,96,211035
1.9062,0.1124,39.3800,72,96,211039
1.8622,0.1124,39.4400,72,96,211042
1.8377,0.1075,39.3200,72,96,211045
1.7791,0.1026,39.4400,72,96,211049
1.7595,0.1075,39.5400,72,96,211052
1.7693,0.1173,39.3200,72,96,211055
1.7204,0.1075,39.5400,72,96,211059
1.7302,0.1075,39.3200,72,96,211062
1.7009,0.1026,39.3800,72,96,211065
1.6764,0.1026,39.4400,72,96,211069
1.6960,0.1124,39.3500,72,96,211073
1.6764,0.1075,39.4400,72,96,211076
1.6960,0.1075,39.2500,72,96,211079
1.6716,0.1075,39.3800,72,96,211083
1.6618,0.1075,39.5700,72,96,211086
1.6813,0.1173,39.3500,72,96,211089
1.6667,0.1075,39.5100,72,96,211093
1.7058,0.1124,39.1900,72,96,211096
1.6716,0.1026,39.3800,72,96,211099
1.6764,0.0978,39.5700,72,96,211103
1.6960,0.1124,39.4100,72,96,211106
1.7107,0.1075,39.4100,72,96,211111
1.7302,0.0929,39.4400,72,96,211115
1.7644,0.1124,39.2800,72,96,211118
1.7351,0.1075,39.4400,72,96,211122
1.7644,0.1075,39.2800,72,96,211125
1.7400,0.1026,39.4400,72,96,211128
1.7498,0.1075,39.4100,72,96,211131
1.7791,0.1075,39.3800,72,96,211135
1.7644,0.1075,39.4100,72,96,211138
1.7889,0.1075,39.2200,72,96,211141
1.7644,0.0929,39.4400,72,96,211145
1.7644,0.1075,39.5400,72,96,211148
1.7840,0.1320,39.3500,72,96,211151
1.7693,0.1075,39.4400,72,96,211155
1.7986,0.1075,39.2200,72,96,211159
1.7693,0.1075,39.4400,72,96,211162
1.7742,0.1026,39.5400,72,96,211166
1.8035,0.1173,39.4400,72,96,211169
1.7791,0.1075,39.2800,72,96,211172
1.8231,0.1222,39.1900,72,96,211175
1.7986,0.1075,39.4100,72,96,211179
1.7791,0.1026,39.4100,72,96,211182
1.7889,0.1075,39.4100,72,96,211185
1.7791,0.1075,39.3800,72,96,211189
1.8280,0.1222,39.1900,72,96,211192
1.7889,0.1222,39.3800,72,96,211195
1.7791,0.1026,39.3800,72,96,211200
1.7840,0.1075,39.5100,72,96,211203
1.7791,0.1124,39.4400,72,96,211206
1.8133,0.1124,39.1600,72,96,211210
1.7889,0.1075,39.4100,72,96,211213
1.7937,0.1075,39.3200,72,96,211216
1.7791,0.1271,39.4100,72,96,211220
1.7742,0.1075,39.4800,72,96,211223
1.8084,0.1124,39.3800,72,96,211226
1.7791,0.1075,39.4100,72,96,211229
1.7986,0.1124,39.3500,72,96,211233
1.7644,0.1075,39.4400,72,96,211236
1.7693,0.1075,39.4400,72,96,211239
1.7937,0.1124,39.3500,72,96,211244
1.7693,0.1075,39.3200,72,96,211247
1.7986,0.1271,39.2800,72,96,211250
1.7791,0.1026,39.3500,72,96,211254
1.7742,0.1075,39.4400,72,96,211257
1.7889,0.1124,39.3800,72,96,211260
1.7742,0.1075,39.4100,72,96,211264
1.8231,0.1124,39.2200,72,96,211267
1.7840,0.1075,39.3800,72,96,211270
1.7791,0.1075,39.4800,72,96,211273
1.7937,0.1124,39.3800,72,96,211277
1.7791,0.1075,39.4100,72,96,211280
1.8328,0.1173,39.1900,72,96,211283
1.7986,0.1173,39.3500,72,96,211288
1.7937,0.1026,39.4100,72,96,211291
1.7986,0.1075,39.4400,72,96,211294
1.7889,0.1075,39.4400,72,96,211298
1.8377,0.1173,39.2800,72,96,211301
1.8133,0.1124,39.4100,72,96,211304
1.8133,0.1026,39.2200,72,96,211308
1.7986,0.1075,39.4400,72,96,211311
1.7986,0.1124,39.4100,72,96,211314
1.8280,0.1124,39.2800,72,96,211318
1.7986,0.1075,39.2800,72,96,211321
1.8182,0.0929,39.3200,72,96,211324
1.8035,0.1075,39.4800,72,96,211328
1.7986,0.1369,39.4400,72,96,211332
1.8231,0.1124,39.4400,72,96,211335
1.8035,0.1075,39.4100,72,96,211338
1.8231,0.0929,39.3200,72,96,211342
1.8035,0.1026,39.4100,72,96,211345
1.8231,0.1026,39.4400,72,96,211348
1.8280,0.1075,39.3800,72,96,211352
1.8084,0.1075,39.4400,72,96,211355
1.8475,0.1075,39.2800,72,96,211358
1.8084,0.1026,39.4100,72,96,211362
1.8133,0.0978,39.4400,72,96,211365
1.8328,0.1124,39.4100,72,96,211368
1.8084,0.1026,39.4400,72,96,211372
1.8719,0.1124,39.1900,72,96,211376
1.8377,0.1075,39.3800,72,96,211379
1.8377,0.0929,39.4100,72,96,211382
1.8280,0.1075,39.4100,72,96,211386
1.8280,0.1026,39.5100,72,96,211389
1.8964,0.1222,39.3500,72,96,211392
1.8622,0.1075,39.4400,72,96,211396
1.8671,0.1026,39.3500,72,96,211399
1.8719,0.1075,39.4100,72,96,211402
1.8719,0.1075,39.4400,72,96,211406
1.9159,0.1124,39.3500,72,96,211409
1.9013,0.1075,39.4100,72,96,211412
1.9208,0.1075,39.3200,72,96,211416
1.9110,0.1075,39.4400,72,96,211420
1.9257,0.1075,39.4400,72,96,211423
1.9550,0.1124,39.4100,72,96,211426
1.9697,0.1075,39.4400,72,96,211430
1.9990,0.1124,39.3500,72,96,211433
1.9746,0.1026,39.4400,72,96,211436
1.9697,0.1026,39.4400,72,96,211440
1.9795,0.1124,39.3800,72,96,211443
1.9355,0.1075,39.3500,72,96,211446
1.9404,0.0978,39.2500,72,96,211450
1.9013,0.1075,39.3800,72,96,211453
1.8719,0.1075,39.5700,72,96,211457
1.8719,0.1124,39.3800,72,96,211460
1.8524,0.1075,39.5400,72,96,211464
1.8866,0.1075,39.1900,72,96,211467
1.8426,0.1075,38.7100,72,96,211470
1.8182,0.1026,39.4400,72,96,211474
1.8133,0.1124,39.4100,72,96,211477
1.7791,0.1075,39.4100,72,96,211480
1.8133,0.1124,39.1900,72,96,211484
1.7644,0.1369,39.3500,72,96,211487
1.7498,0.1026,39.4100,72,96,211490
1.7498,0.1124,39.2800,72,96,211494
1.7449,0.1026,39.4400,72,96,211497
1.7889,0.1369,39.2800,72,96,211501
1.7693,0.1124,39.4100,72,96,211504
1.7742,0.1026,39.3500,72,96,211508
1.7546,0.1075,39.4400,72,96,211511
1.7546,0.1026,39.4800,72,96,211514
1.7937,0.1075,39.2800,72,96,211518
1.7693,0.1075,38.8400,72,96,211521
1.7937,0.1369,39.3200,72,96,211524
1.7742,0.1026,39.4100,72,96,211528
1.7742,0.1075,39.4100,72,96,211531
1.7986,0.1124,39.3500,72,96,211534
1.7840,0.1417,39.4400,72,96,211538
1.7986,0.1026,39.2800,72,96,211542
1.7400,0.1026,39.3800,72,96,211545
1.7058,0.1124,39.4400,72,96,211549
1.7058,0.1173,39.3200,72,96,211552
1.6960,0.1075,39.4100,72,96,211555
1.7840,0.1075,39.2500,72,96,211558
1.8622,0.0978,39.4100,72,96,211562
2.0430,0.1026,39.4100,72,96,211565
2.3118,0.1075,39.4400,72,96,211568
2.6051,0.1075,39.5100,72,96,211572
3.0547,0.1173,39.1900,72,96,211575
3.3138,0.1075,39.3800,72,96,211578
3.4800,0.1026,39.3800,72,96,211582
3.4457,0.1173,39.4100,72,96,211586
3.1672,0.1075,39.5100,72,96,211589
2.8446,0.1271,39.2800,72,96,211592
2.3509,0.1124,39.4800,72,96,211596
1.9599,0.1026,39.3800,72,96,211599
1.6471,0.1075,39.4400,72,96,211602
1.4174,0.1026,39.4400,72,96,211606
1.3099,0.1222,39.3200,72,96,211609
1.2219,0.1075,39.4100,72,96,211612
1.2072,0.1075,39.4800,72,96,211616
1.2170,0.1026,39.4100,72,96,211619
1.2708,0.1026,39.4400,72,96,211622
1.3539,0.1124,39.4100,72,96,211627
1.4125,0.1075,39.4400,72,96,211630
1.4956,0.1124,39.3500,72,96,211633
1.5347,0.1026,39.4400,72,96,211636
1.5689,0.1026,39.4100,72,96,211640
1.6325,0.0929,39.3500,72,96,211643
1.6325,0.1075,39.4100,72,96,211646
1.6716,0.1026,39.2800,72,96,211650
1.6716,0.1075,39.3500,72,96,211653
1.6813,0.1026,39.5100,72,96,211656
1.7058,0.1124,39.3800,72,96,211660
1.7009,0.1075,39.4100,72,96,211663
1.7498,0.1026,39.2200,72,96,211666
1.7302,0.1075,39.5700,72,96,211671
1.7302,0.1026,39.4100,72,96,211674
1.7644,0.0929,39.3800,72,96,211677
1.7400,0.1026,39.4800,72,96,211680
1.7937,0.1124,39.1600,72,96,211684
1.7595,0.1026,39.3200,72,96,211687
1.7595,0.0978,39.4100,72,96,211690
1.7644,0.1075,39.4400,72,96,211694
1.7693,0.1124,39.4400,72,96,211697
1.8231,0.1124,39.2800,72,96,211700
1.7937,0.1124,39.4100,72,96,211704
1.8084,0.1026,39.3500,72,96,211707
1.8328,0.1124,39.4400,72,96,211710
1.8084,0.1026,39.5700,72,96,211715
1.8524,0.1173,39.2800,72,96,211718
1.8719,0.1075,39.3800,72,96,211723
1.8622,0.1075,39.4100,72,96,211726
1.9013,0.1124,39.2500,72,96,211729
1.8866,0.1075,39.3800,72,96,211733
1.8915,0.1026,39.4100,72,96,211736
1.9257,0.1124,39.3800,72,96,211739
1.9110,0.1026,39.3500,72,96,211742
1.9746,0.1075,39.1900,72,96,211746
1.9404,0.1026,39.4100,72,96,211749
1.9599,0.1075,39.4400,72,96,211752
1.9697,0.1075,39.4100,72,96,211757
1.9697,0.1075,39.4400,72,96,211760
2.0381,0.1222,39.2200,72,96,211763
2.0088,0.1075,39.3500,72,96,211767
2.0137,0.1124,39.3800,72,96,211770
2.0283,0.1075,39.5100,72,96,211773
2.0381,0.1075,39.4800,72,96,211777
2.1065,0.1124,39.2500,72,96,211780
2.0772,0.1417,39.3800,72,96,211783
2.1163,0.1075,39.4100,72,96,211786
2.0968,0.1075,39.5100,72,96,211790
2.1017,0.1075,39.4400,72,96,211793
2.1457,0.1124,39.3500,72,96,211796
2.1310,0.1075,39.4100,72,96,211801
2.1603,0.1026,39.3200,72,96,211804
2.1408,0.1075,39.4400,72,96,211807
2.1408,0.1466,39.4100,72,96,211811
2.1603,0.1075,39.3500,72,96,211814
2.1505,0.1075,39.4400,72,96,211817
2.1848,0.1026,39.3500,72,96,211820
2.1505,0.1075,39.4400,72,96,211824
2.1457,0.1026,39.4400,72,96,211827
2.1701,0.1173,39.3500,72,96,211830
2.1310,0.1075,39.4400,72,96,211834
2.1554,0.1075,39.2500,72,96,211837
2.1212,0.1026,39.3200,72,96,211841
2.0821,0.1124,39.5400,72,96,211845
2.0772,0.1075,39.3800,72,96,211848
2.0283,0.1075,39.4400,72,96,211851
2.0479,0.1124,39.1900,72,96,211855
1.9795,0.1075,39.4400,72,96,211858
1.9306,0.1026,39.4100,72,96,211861
1.9159,0.1173,39.3800,72,96,211864
1.8671,0.1075,39.4400,72,96,211868
1.8866,0.1369,39.1900,72,96,211871
1.8182,0.1124,39.3500,72,96,211874
1.7986,0.0978,39.3800,72,96,211878
1.7595,0.1075,39.5100,72,96,211881
1.7400,0.0929,39.4400,72,96,211885
1.7546,0.1124,39.0000,72,96,211889
1.7155,0.1173,39.3800,72,96,211892
1.7204,0.1026,39.3500,72,96,211895
1.6911,0.1173,39.4400,72,96,211899
1.6813,0.1026,39.4400,72,96,211902
1.7107,0.1124,39.2800,72,96,211905
1.6764,0.1075,39.4100,72,96,211908
1.6960,0.1124,39.3200,72,96,211912
1.6764,0.0978,39.4100,72,96,211915
1.6764,0.1026,39.5100,72,96,211918
1.6911,0.1124,39.3500,72,96,211922
1.6862,0.1075,39.4800,72,96,211926
1.7107,0.1026,39.2800,72,96,211929
1.6911,0.1026,39.4100,72,96,211933
1.6960,0.1026,39.4400,72,96,211936
1.7498,0.1173,39.3200,72,96,211939
1.7058,0.1075,39.4800,72,96,211943
1.7498,0.1075,39.2200,72,96,211946
1.7204,0.1026,39.3800,72,96,211949
1.7302,0.1026,39.4100,72,96,211952
1.7595,0.1124,39.4800,72,96,211956
1.7351,0.1026,39.4400,72,96,211959
1.7937,0.1124,39.1900,72,96,211962
1.7644,0.1075,39.3200,72,96,211966
1.7449,0.0978,39.4100,72,96,211970
1.7546,0.1173,39.4100,72,96,211973
1.7498,0.1026,39.4400,72,96,211977
1.8035,0.1124,39.2200,72,96,211980
1.7644,0.1075,39.4100,72,96,211983
1.7742,0.1026,39.2200,72,96,211987
1.7693,0.1026,39.4400,72,96,211990
1.7693,0.1026,39.4400,72,96,211993
1.7937,0.1075,39.3200,72,96,211997
1.7791,0.1075,39.4800,72,96,212000
1.7937,0.1075,39.3200,72,96,212003
1.7693,0.0978,39.4400,72,96,212006
1.7693,0.1026,39.4400,72,96,212011
1.7791,0.1026,39.3800,72,96,212014
1.7693,0.1075,39.3200,72,96,212017
1.7937,0.1026,39.2800,72,96,212021
1.7693,0.1075,39.5400,72,96,212024
1.7693,0.1026,39.4100,72,96,212027
1.7986,0.1124,39.3200,72,96,212031
1.7595,0.0978,39.4800,72,96,212034
1.7937,0.1075,39.2500,72,96,212037
1.7742,0.1075,39.3200,72,96,212041
1.7546,0.0978,39.4400,72,96,212044
1.7693,0.1124,39.4100,72,96,212047
1.7546,0.1075,39.4100,72,96,212050
1.8035,0.1124,39.1600,72,96,212055
1.7986,0.1026,39.3800,72,96,212058
1.7644,0.0733,39.4100,72,96,212061
1.7693,0.1075,39.3800,72,96,212065
1.7986,0.0929,39.4400,72,96,212068
1.8133,0.1222,39.3200,72,96,212071
1.7791,0.1124,39.3800,72,96,212075
1.7693,0.1026,39.3500,72,96,212078
1.7693,0.1075,39.4400,72,96,212081
1.7595,0.1026,39.4400,72,96,212085
1.7937,0.1173,39.3500,72,96,212088
1.7693,0.1075,39.4100,72,96,212091
1.7889,0.1075,39.3200,72,96,212096
1.7693,0.1271,39.5400,72,96,212099
1.7644,0.1075,39.4400,72,96,212102
1.8035,0.1124,39.3200,72,96,212105
1.7889,0.1026,39.4400,72,96,212109
1.8035,0.1026,39.3200,72,96,212112
1.7742,0.1075,39.3200,72,96,212115
1.7791,0.1026,39.4400,72,96,212119
1.7986,0.1173,39.3800,72,96,212122
1.7889,0.0929,39.4400,72,96,212125
1.8133,0.1075,39.4100,72,96,212129
1.7791,0.0929,39.3800,72,96,212132
1.7791,0.1026,39.4400,72,96,212135
1.7986,0.1075,39.3800,72,96,212140
1.7742,0.1026,39.4100,72,96,212143
1.8280,0.1124,39.4100,72,96,212146
1.7889,0.1026,39.3800,72,96,212149
1.7889,0.1026,39.3500,72,96,212153
1.7937,0.1026,39.4100,72,96,212156
1.7889,0.1026,39.4400,72,96,212159
1.8768,0.1173,39.2200,72,96,212163
1.8084,0.1124,39.4400,72,96,212166
1.7986,0.1271,39.3800,72,96,212169
1.7986,0.1075,39.5400,72,96,212173
1.7986,0.1075,39.4400,72,96,212176
1.8377,0.1124,39.2800,72,96,212179
1.8280,0.1075,39.4100,72,96,212184
1.8182,0.1075,39.3500,72,96,212187
1.8035,0.1075,39.4100,72,96,212190
1.8035,0.1075,39.4400,72,96,212194
1.8328,0.1124,39.3200,72,96,212197
1.8084,0.1124,39.4100,72,96,212200
1.8280,0.1124,39.4100,72,96,212203
1.8133,0.1075,39.5400,72,96,212207
1.8133,0.0929,39.4400,72,96,212210
1.8231,0.1075,39.3800,72,96,212213
1.8133,0.1075,39.4400,72,96,212217
1.8328,0.1075,39.2800,72,96,212220
1.8084,0.1075,39.5100,72,96,212224
1.8084,0.1222,39.4100,72,96,212228
1.8377,0.1124,39.3500,72,96,212231
1.8475,0.1075,39.5100,72,96,212234
1.8573,0.1075,39.2200,72,96,212237
1.8328,0.1124,39.2500,72,96,212241
1.8231,0.1075,39.5400,72,96,212244
1.8328,0.1124,39.5400,72,96,212247
1.8426,0.1026,39.4400,72,96,212251
1.8817,0.1124,39.1600,72,96,212254
1.8768,0.1075,39.4400,72,96,212257
1.8426,0.0978,39.4100,72,96,212261
1.8622,0.1124,39.4100,72,96,212264
1.8573,0.1026,39.4400,72,96,212268
1.9208,0.1222,39.3200,72,96,212272
1.8964,0.1026,39.3800,72,96,212275
1.8964,0.1026,39.4100,72,96,212278
1.8915,0.1173,39.3500,72,96,212281
1.9062,0.1026,39.4400,72,96,212285
1.9550,0.1124,39.3800,72,96,212288
1.9697,0.1075,39.4400,72,96,212291
1.9795,0.1075,39.1900,72,96,212295
1.9746,0.1075,39.4800,72,96,212298
1.9795,0.1075,39.4400,72,96,212301
2.0137,0.1173,39.3200,72,96,212305
1.9648,0.1075,39.4100,72,96,212308
1.9697,0.1124,39.3500,72,96,212312
1.9159,0.1026,39.4100,72,96,212316
1.8915,0.1026,39.4800,72,96,212319
1.8866,0.1075,39.3800,72,96,212322
1.8475,0.1075,39.4800,72,96,212326
1.8671,0.1026,39.2500,72,96,212329
1.8133,0.1124,39.1900,72,96,212334
1.7644,0.1075,39.3500,72,96,212337
1.7498,0.1026,39.4100,72,96,212340
1.7498,0.1075,39.4100,72,96,212343
1.7449,0.0733,39.4800,72,96,212347
1.7889,0.1222,39.2800,72,96,212350
1.7595,0.1124,39.4800,72,96,212354
1.7595,0.1026,39.3500,72,96,212358
1.7449,0.1026,39.4100,72,96,212361
1.7546,0.1026,39.4100,72,96,212364
1.7889,0.1173,39.3500,72,96,212368
1.7595,0.1075,39.4100,72,96,212371
1.7840,0.1075,39.3200,72,96,212374
1.7644,0.1075,39.4800,72,96,212378
1.7693,0.1026,39.3800,72,96,212381
1.7986,0.1124,39.3800,72,96,212384
1.7791,0.1075,39.4400,72,96,212388
1.8035,0.1026,39.2800,72,96,212391
1.7644,0.1026,39.4100,72,96,212395
1.7253,0.1026,39.5100,72,96,212398
1.7058,0.0929,39.2800,72,96,212402
1.6667,0.1075,39.4400,72,96,212405
1.7058,0.1124,39.2500,72,96,212408
1.7302,0.1026,39.5700,72,96,212412
1.8524,0.1026,39.4800,72,96,212415
2.0674,0.0929,39.4400,72,96,212418
2.3265,0.1075,39.4400,72,96,212422
2.7370,0.1075,39.1900,72,96,212425
3.0645,0.1075,39.3800,72,96,212428
3.3773,0.1026,39.4400,72,96,212431
3.5728,0.1075,39.4400,72,96,212435
3.4751,0.1026,38.8400,72,96,212439
3.2649,0.1222,39.2200,72,96,212442
2.7713,0.1124,39.3800,72,96,212446
2.3314,0.1075,39.3800,72,96,212449
1.9501,0.1075,39.4400,72,96,212452
1.6325,0.1026,39.3800,72,96,212456
1.4467,0.1124,39.3200,72,96,212459
1.2854,0.1417,39.5100,72,96,212462
1.2170,0.0978,39.4400,72,96,212466
1.1828,0.1075,39.4400,72,96,212469
1.1975,0.1075,39.4400,72,96,212472
1.2659,0.1124,39.4100,72,96,212475
1.3196,0.1075,39.4100,72,96,212480
1.4076,0.1075,39.3500,72,96,212483
1.4516,0.1075,39.4400,72,96,212486
1.5103,0.1075,39.4400,72,96,212490
1.5836,0.1124,39.3500,72,96,212493
1.5934,0.1026,39.4100,72,96,212496
1.6422,0.0733,39.2800,72,96,212500
1.6373,0.1026,39.3200,72,96,212503
1.6422,0.0978,39.4400,72,96,212506
1.6716,0.1124,38.9300,72,96,212510
1.6813,0.0978,39.4400,72,96,212513
1.7204,0.1075,39.2200,72,96,212516
1.7058,0.1075,39.3500,72,96,212519
1.7058,0.1075,39.4400,72,96,212524
1.7400,0.1124,39.4100,72,96,212527
1.7253,0.1075,39.4100,72,96,212530
1.8133,0.0929,39.1900,72,96,212534
1.7498,0.1075,39.3200,72,96,212537
1.7498,0.0978,39.4800,72,96,212540
1.7546,0.1075,39.4400,72,96,212544
1.7693,0.1026,39.4100,72,96,212547
1.8231,0.1222,39.2200,72,96,212550
1.7889,0.0929,39.4800,72,96,212554
1.7986,0.1026,39.3800,72,96,212557
1.8231,0.0929,39.4100,72,96,212560
1.8035,0.0733,39.4400,72,96,212563
1.8475,0.1124,39.3500,72,96,212568
1.8328,0.0929,39.4400,72,96,212571
1.8475,0.1075,39.3500,72,96,212574
1.8328,0.1026,39.4400,72,96,212578
1.8377,0.0929,39.4100,72,96,212581
1.8671,0.1124,39.3800,72,96,212584
1.8573,0.1075,39.4400,72,96,212588
1.8866,0.1075,39.0000,72,96,212591
1.8671,0.1271,39.4100,72,96,212594
1.8817,0.1075,39.4400,72,96,212598
1.9062,0.1075,39.3800,72,96,212601
1.9013,0.0929,39.4400,72,96,212604
1.9404,0.1075,39.2500,72,96,212608
1.9257,0.1075,39.4400,72,96,212612
1.9306,0.1026,39.4400,72,96,212615
1.9550,0.1173,39.4100,72,96,212618
1.9501,0.1026,39.5400,72,96,212622
2.0039,0.1075,39.2200,72,96,212625
1.9892,0.1075,39.3800,72,96,212628
1.9892,0.1026,39.4400,72,96,212632
2.0088,0.1026,39.4100,72,96,212635
2.0186,0.0978,39.4400,72,96,212638
2.0919,0.1124,39.1900,72,96,212641
2.0577,0.1026,39.3800,72,96,212645
2.0626,0.1026,39.4100,72,96,212648
2.0821,0.1075,39.5100,72,96,212652
2.0870,0.1075,39.5100,72,96,212656
2.1554,0.1173,39.2500,72,96,212659
2.1310,0.1124,39.5700,72,96,212662
2.1359,0.1075,39.3800,72,96,212666
2.1310,0.1075,39.5400,72,96,212669
2.1359,0.1026,39.4400,72,96,212672
2.1750,0.1124,39.3800,72,96,212676
2.1505,0.1075,39.4100,72,96,212679
2.1701,0.1075,39.3200,72,96,212682
2.1457,0.1075,39.4100,72,96,212685
2.1505,0.1075,39.4400,72,96,212689
2.1896,0.1124,39.3500,72,96,212692
2.1408,0.1173,39.4400,72,96,212696
2.1603,0.0733,39.3200,72,96,212700
2.1114,0.1271,39.3500,72,96,212703
2.0821,0.1075,39.4800,72,96,212706
2.0870,0.1075,39.3800,72,96,212710
2.0479,0.1075,39.4400,72,96,212713
2.0626,0.0929,39.2800,72,96,212716
1.9990,0.1075,39.4100,72,96,212719
1.9599,0.1026,39.5100,72,96,212723
1.9550,0.1124,39.3500,72,96,212726
1.8964,0.1026,39.3800,72,96,212729
1.9062,0.1075,39.2200,72,96,212733
1.8328,0.1026,39.4100,72,96,212737
1.8084,0.1124,39.4400,72,96,212740
1.7986,0.1124,39.4100,72,96,212744
1.7546,0.1075,39.4400,72,96,212747
1.7889,0.1173,39.2200,72,96,212750
1.7400,0.1369,39.3500,72,96,212754
1.7058,0.1026,39.4100,72,96,212757
1.6960,0.1026,39.4100,72,96,212760
1.6813,0.1026,39.4400,72,96,212763
1.7204,0.1124,39.2500,72,96,212767
1.6764,0.1026,39.4100,72,96,212770
1.6813,0.1026,39.3500,72,96,212773
1.6667,0.1075,39.4800,72,96,212777
1.6716,0.1075,39.4100,72,96,212781
1.6960,0.1124,39.3500,72,96,212784
1.6764,0.0978,39.4400,72,96,212788
1.6960,0.1075,39.3200,72,96,212791
1.6813,0.1026,39.4100,72,96,212794
1.6862,0.1026,39.4400,72,96,212798
1.7009,0.1124,39.3500,72,96,212801
1.6960,0.1124,39.4100,72,96,212804
1.7302,0.1026,39.3200,72,96,212807
1.7058,0.1124,39.4100,72,96,212811
1.7155,0.0978,39.4400,72,96,212814
1.7449,0.1124,39.3200,72,96,212817
1.7302,0.1075,39.4400,72,96,212822
1.7644,0.1075,39.3500,72,96,212825
1.7498,0.1173,39.3500,72,96,212828
1.7351,0.1026,39.4800,72,96,212832
1.7595,0.1075,39.4100,72,96,212835
1.7498,0.1075,39.0900,72,96,212838
1.7986,0.1124,39.1900,72,96,212842
1.7546,0.1075,39.4100,72,96,212845
1.7546,0.1026,39.4100,72,96,212848
1.7840,0.1124,39.4100,72,96,212851
1.7498,0.1075,39.4800,72,96,212855
1.8035,0.1222,39.2200,72,96,212858
1.7742,0.1124,39.3800,72,96,212861
1.7644,0.0978,39.3800,72,96,212866
1.7644,0.1075,39.4100,72,96,212869
1.7595,0.1075,39.4100,72,96,212872
1.7986,0.1124,39.3500,72,96,212876
1.7742,0.1417,39.4100,72,96,212879
1.7889,0.1075,39.3800,72,96,212882
1.7693,0.1075,39.5400,72,96,212886
1.7644,0.1026,39.5100,72,96,212889
1.7986,0.1124,39.2800,72,96,212892
1.7644,0.1075,39.4400,72,96,212896
1.7840,0.1075,39.3500,72,96,212899
1.7546,0.0978,39.4100,72,96,212902
1.7595,0.1026,39.4400,72,96,212905
1.7986,0.0929,39.4400,72,96,212910
1.7595,0.1075,39.4400,72,96,212913
1.7889,0.1075,39.2200,72,96,212916
1.7644,0.1026,39.3500,72,96,212920
1.7546,0.1075,39.4100,72,96,212923
1.8084,0.1124,39.3800,72,96,212926
1.7546,0.1075,39.4400,72,96,212930
1.7937,0.1369,39.2200,72,96,212933
1.7546,0.1026,39.4800,72,96,212936
1.7546,0.1222,39.4400,72,96,212940
1.7546,0.1075,39.4400,72,96,212943
1.7498,0.1515,39.4400,72,96,212948
1.7449,0.1026,39.4400,72,96,212952
1.7889,0.1124,39.3200,72,96,212955
1.7644,0.1075,39.4100,72,96,212959
1.7840,0.1075,39.3800,72,96,212962
1.7644,0.1417,39.4100,72,96,212965
1.7693,0.0929,39.4400,72,96,212968
1.7889,0.1417,39.3200,72,96,212972
1.7693,0.1075,39.4100,72,96,212975
1.7937,0.1026,39.3500,72,96,212978
1.7693,0.1026,39.4400,72,96,212982
1.7693,0.1026,39.4400,72,96,212985
1.7889,0.1124,39.3500,72,96,212988
1.7644,0.1075,39.4400,72,96,212993
1.7937,0.1075,39.2500,72,96,212996
1.7693,0.1075,39.4400,72,96,212999
1.7742,0.1026,39.4400,72,96,213002
1.7937,0.1075,39.4800,72,96,213006
1.7742,0.1075,39.6000,72,96,213009
1.8182,0.1173,39.1600,72,96,213012
1.7986,0.1075,39.3500,72,96,213016
1.7840,0.1026,39.5400,72,96,213019
1.7889,0.1173,39.4100,72,96,213022
1.7840,0.1075,39.4100,72,96,213026
1.8377,0.1271,39.1900,72,96,213029
1.7986,0.1124,39.5400,72,96,213032
1.7937,0.0978,39.3800,72,96,213037
1.7937,0.1075,39.5400,72,96,213040
1.7840,0.1026,39.4400,72,96,213043
1.8328,0.1222,39.2800,72,96,213046
1.8035,0.1075,39.3800,72,96,213050
1.8084,0.1026,39.3500,72,96,213053
1.7986,0.1075,39.5400,72,96,213056
1.7937,0.1026,39.4800,72,96,213060
1.8133,0.1222,39.3800,72,96,213063
1.7986,0.1075,39.4100,72,96,213066
1.8182,0.1075,39.2800,72,96,213070
1.7840,0.1075,39.4400,72,96,213073
1.7937,0.1026,39.3800,72,96,213076
1.8377,0.1026,39.3500,72,96,213081
1.7986,0.1075,39.4100,72,96,213084
1.8475,0.1026,39.3800,72,96,213087
1.8035,0.1026,39.3800,72,96,213090
1.7986,0.1026,39.4800,72,96,213094
1.8231,0.1075,39.3800,72,96,213097
1.8084,0.1075,39.4400,72,96,213100
1.8524,0.1075,39.1600,72,96,213104
1.8377,0.0929,39.4100,72,96,213107
1.8328,0.1026,39.4800,72,96,213110
1.8622,0.1075,39.3500,72,96,213114
1.8524,0.1075,39.4400,72,96,213117
1.9062,0.1124,39.2200,72,96,213121
1.8671,0.0978,39.3800,72,96,213124
1.8817,0.1026,39.4400,72,96,213128
1.8964,0.1173,39.4100,72,96,213131
1.9062,0.1222,39.5700,72,96,213134
1.9795,0.1271,39.2500,72,96,213138
1.9501,0.1124,39.3800,72,96,213141
1.9599,0.1026,39.3500,72,96,213144
1.9697,0.1075,39.4400,72,96,213148
1.9697,0.1026,39.4800,72,96,213151
2.0039,0.1173,39.2500,72,96,213154
1.9599,0.1075,39.5100,72,96,213158
1.9550,0.1271,39.4100,72,96,213161
1.9110,0.1075,39.4400,72,96,213165
1.8817,0.1026,39.4400,72,96,213168
1.8768,0.1124,39.3500,72,96,213172
1.8524,0.1075,39.4100,72,96,213175
1.8622,0.1417,39.3500,72,96,213178
1.8328,0.1075,39.4400,72,96,213182
1.8280,0.1026,39.5100,72,96,213185
1.8328,0.1075,39.3500,72,96,213188
1.7986,0.1075,39.4100,72,96,213192
1.8035,0.1320,39.2800,72,96,213195
1.7742,0.1075,39.3800,72,96,213198
1.7595,0.1075,39.4400,72,96,213202
1.7742,0.1124,39.3800,72,96,213206
1.7400,0.1026,39.4400,72,96,213209
1.7937,0.1075,39.1900,72,96,213213
1.7742,0.1124,39.3800,72,96,213216
1.7644,0.1075,39.5100,72,96,213219
1.7742,0.1075,39.4100,72,96,213222
1.7693,0.1075,39.4400,72,96,213226
1.8182,0.1124,39.2200,72,96,213229
1.7840,0.1075,39.3800,72,96,213232
1.7742,0.0978,39.4100,72,96,213236
1.7840,0.1075,39.4100,72,96,213239
1.7791,0.1026,39.4400,72,96,213242
1.8328,0.1173,39.3500,72,96,213246
1.8133,0.1124,39.4100,72,96,213250
1.8084,0.1026,39.3200,72,96,213253
1.8133,0.1026,39.4400,72,96,213257
1.7449,0.1075,39.4800,72,96,213260
1.7302,0.1124,39.3800,72,96,213263
1.6862,0.1075,39.3500,72,96,213266
1.7058,0.1369,39.4100,72,96,213270
1.7449,0.1075,39.3500,72,96,213273
1.8671,0.0978,39.4100,72,96,213276
2.1065,0.1124,39.3500,72,96,213280
2.3509,0.0978,39.4100,72,96,213283
2.7370,0.1026,39.3500,72,96,213286
3.0890,0.1026,39.5100,72,96,213291
3.4311,0.1075,39.4100,72,96,213294
3.6657,0.1124,39.3500,72,96,213297
3.5728,0.1075,39.4100,72,96,213301
3.3284,0.1075,39.2200,72,96,213304
2.8543,0.1075,39.4400,72,96,213307
2.3949,0.1026,39.4100,72,96,213310
2.0283,0.1124,39.4400,72,96,213314
1.6716,0.1075,39.4800,72,96,213317
1.4712,0.1075,39.2200,72,96,213320
1.2854,0.1026,39.3500,72,96,213324
1.2121,0.1124,39.4800,72,96,213327
1.1877,0.1075,39.4400,72,96,213330
1.2121,0.0929,39.4400,72,96,213335
1.2854,0.1222,39.3800,72,96,213338
1.3294,0.1124,39.4400,72,96,213341
1.3978,0.1026,39.3800,72,96,213345
1.4907,0.1026,39.4100,72,96,213348
1.5152,0.1075,39.4400,72,96,213351
1.5934,0.1515,39.2500,72,96,213354
1.6031,0.1075,39.4100,72,96,213358
1.6422,0.1075,39.3200,72,96,213361
1.6520,0.1075,39.4800,72,96,213364
1.6569,0.1075,39.4800,72,96,213368
1.6960,0.1124,39.3500,72,96,213371
1.6862,0.1075,39.3500,72,96,213374
1.7204,0.1271,39.3500,72,96,213379
1.7107,0.1075,39.4400,72,96,213382
1.7155,0.1173,39.5100,72,96,213385
1.7449,0.1075,39.3500,72,96,213389
1.7400,0.1075,39.5100,72,96,213392
1.7742,0.1075,39.3200,72,96,213395
1.7546,0.1075,39.4400,72,96,213398
1.7595,0.1124,39.4100,72,96,213402
1.7840,0.1124,39.3800,72,96,213405
1.7742,0.1075,39.4100,72,96,213408
1.8231,0.1075,39.2200,72,96,213412
1.8084,0.1417,39.3800,72,96,213415
1.8182,0.0929,39.4400,72,96,213419
1.8133,0.1222,39.5100,72,96,213423
1.8084,0.0733,39.4400,72,96,213426
1.8671,0.1124,39.1900,72,96,213429
1.8377,0.1075,39.3800,72,96,213433
1.8280,0.1075,39.4100,72,96,213436
1.8426,0.1026,39.4800,72,96,213439
1.8377,0.1075,39.4400,72,96,213442
1.9013,0.1222,39.3500,72,96,213446
1.8768,0.1124,39.4400,72,96,213449
1.8866,0.1026,39.3800,72,96,213452
1.8817,0.1124,39.4100,72,96,213456
1.8915,0.1075,39.4800,72,96,213459
1.9306,0.1222,39.3800,72,96,213463
1.9208,0.1075,39.4100,72,96,213467
1.9501,0.1075,39.3200,72,96,213470
1.9404,0.1075,39.4400,72,96,213473
1.9453,0.1026,39.4400,72,96,213477
1.9892,0.1222,39.3200,72,96,213480
1.9697,0.1075,39.4800,72,96,213483
2.0088,0.0978,39.3200,72,96,213486
1.9941,0.0929,39.3800,72,96,213490
2.0039,0.1026,39.4400,72,96,213493
2.0528,0.1124,39.3800,72,96,213496
2.0381,0.1075,39.4400,72,96,213500
2.0821,0.1075,39.2200,72,96,213504
2.0723,0.0929,39.3800,72,96,213507
2.0723,0.0733,39.4100,72,96,213511
2.1114,0.1124,39.3800,72,96,213514
2.0919,0.1075,39.5100,72,96,213517
2.1603,0.1124,39.2500,72,96,213521
2.1163,0.0978,39.3800,72,96,213524
2.1310,0.1026,39.5100,72,96,213527
2.1457,0.1173,39.4100,72,96,213530
2.1408,0.1075,39.4800,72,96,213534
2.2092,0.1271,39.1900,72,96,213537
2.1750,0.1124,39.3800,72,96,213540
2.1603,0.1026,39.4100,72,96,213544
2.1603,0.1075,39.4100,72,96,213548
2.1554,0.1075,39.6700,72,96,213551
2.1945,0.1173,39.2500,72,96,213555
2.1017,0.1075,39.4100,72,96,213559
2.0577,0.1075,39.4400,72,96,213563
2.0577,0.1026,39.3500,72,96,213566
1.9990,0.1026,39.4100,72,96,213569
1.9648,0.1075,39.4400,72,96,213573
1.9501,0.1075,39.3500,72,96,213576
1.9062,0.1075,39.4400,72,96,213579
1.9013,0.1075,39.3200,72,96,213582
1.8328,0.1075,39.4800,72,96,213586
1.8084,0.1026,39.4400,72,96,213590
1.8035,0.1124,39.3800,72,96,213593
1.7595,0.1075,39.4400,72,96,213597
1.7791,0.1124,39.2200,72,96,213600
1.7400,0.1075,39.3500,72,96,213603
1.7155,0.1026,39.5100,72,96,213607
1.7058,0.1075,39.5100,72,96,213610
1.6911,0.1075,39.4400,72,96,213613
1.7351,0.1222,39.2500,72,96,213616
1.6862,0.1075,39.4100,72,96,213620
1.6764,0.1026,39.4100,72,96,213623
1.6862,0.1075,39.4100,72,96,213626
1.6764,0.1075,39.5700,72,96,213630
1.7204,0.1271,39.3200,72,96,213634
1.7009,0.1124,39.5100,72,96,213637
1.7058,0.1124,39.3800,72,96,213641
1.6911,0.1075,39.4400,72,96,213644
1.6960,0.1124,39.5100,72,96,213647
1.7253,0.1124,39.4100,72,96,213651
1.7155,0.1075,39.4100,72,96,213654
1.7351,0.1124,39.3200,72,96,213657
1.7204,0.1075,39.4100,72,96,213661
1.7253,0.1075,39.4400,72,96,213664
1.7595,0.1124,39.3800,72,96,213667
1.7302,0.0929,39.5100,72,96,213670
1.7595,0.1026,39.2800,72,96,213675
1.7498,0.1369,39.3800,72,96,213678
1.7449,0.1026,39.4400,72,96,213681
1.7644,0.1173,39.3800,72,96,213685
1.7546,0.1026,39.4400,72,96,213688
1.7937,0.1075,39.2500,72,96,213691
1.7693,0.1075,39.3800,72,96,213695
1.7644,0.1026,39.5100,72,96,213698
1.8035,0.1026,39.4100,72,96,213701
1.7742,0.1075,39.4400,72,96,213705
1.8182,0.1124,39.1600,72,96,213708
1.7840,0.1075,39.3200,72,96,213711
1.7791,0.0978,39.4100,72,96,213714
1.7986,0.1026,39.4400,72,96,213719
1.7791,0.1075,39.4400,72,96,213722
1.8377,0.1222,39.3500,72,96,213725
1.7986,0.1124,39.4100,72,96,213729
1.7937,0.1075,39.4400,72,96,213732
1.7840,0.1075,39.4100,72,96,213735
1.7791,0.1075,39.4400,72,96,213739
1.8133,0.1124,39.2800,72,96,213742
1.7889,0.1026,39.4100,72,96,213745
1.8084,0.1075,39.3200,72,96,213749
1.7840,0.1075,39.4100,72,96,213752
1.7791,0.1124,39.4400,72,96,213755
1.7986,0.1173,39.6000,72,96,213760
1.7791,0.1124,39.4100,72,96,213763
1.8035,0.1026,39.4100,72,96,213766
1.7742,0.1026,39.3800,72,96,213769
1.7791,0.1075,39.4100,72,96,213773
1.7889,0.1075,39.3500,72,96,213776
1.7742,0.1124,39.4100,72,96,213779
1.8084,0.0929,39.3200,72,96,213783
1.7791,0.1271,39.4400,72,96,213786
1.7791,0.1026,39.5400,72,96,213789
1.8035,0.1124,39.4100,72,96,213793
1.7840,0.1075,39.4400,72,96,213796
1.8328,0.1124,39.1600,72,96,213799
1.7937,0.1124,39.3500,72,96,213803
1.7840,0.1075,39.5400,72,96,213807
1.7937,0.1026,39.4400,72,96,213810
1.7791,0.1026,39.3200,72,96,213813
1.8328,0.1271,39.1900,72,96,213817
1.7889,0.1124,39.4400,72,96,213820
1.7840,0.1124,39.4400,72,96,213823
1.7889,0.1075,39.4400,72,96,213827
1.7840,0.1075,39.3800,72,96,213830
1.8182,0.1026,39.3200,72,96,213833
1.7986,0.1075,39.3800,72,96,213837
1.8035,0.1026,39.3200,72,96,213840
1.7937,0.1075,39.4400,72,96,213843
1.7937,0.1026,39.4100,72,96,213847
1.8182,0.1124,39.4400,72,96,213851
1.8035,0.1075,38.9600,72,96,213854
1.8280,0.1124,39.3500,72,96,213857
1.8035,0.1075,39.4400,72,96,213861
1.8035,0.1026,39.4800,72,96,213864
1.8377,0.1124,39.3200,72,96,213867
1.8084,0.1075,39.4400,72,96,213871
1.8377,0.1026,39.2800,72,96,213874
1.8133,0.0978,39.3800,72,96,213877
1.8084,0.1075,39.4100,72,96,213881
1.8231,0.1124,39.3800,72,96,213884
1.8084,0.1173,39.4800,72,96,213888
1.8475,0.1173,39.2200,72,96,213891
1.8231,0.1124,39.3800,72,96,213895
1.8084,0.1075,39.4400,72,96,213898
1.8328,0.1124,39.3800,72,96,213901
1.8133,0.1124,39.4100,72,96,213905
1.8622,0.1124,39.1900,72,96,213908
1.8280,0.1075,39.3500,72,96,213911
1.8182,0.1026,39.4800,72,96,213915
1.8231,0.1075,39.4100,72,96,213918
1.8182,0.1026,39.4400,72,96,213921
1.8719,0.1222,39.3200,72,96,213925
1.8377,0.1075,39.4100,72,96,213928
1.8377,0.1026,39.3500,72,96,213932
1.8280,0.1075,39.5700,72,96,213936
1.8280,0.1026,39.4100,72,96,213939
1.8622,0.1124,39.3200,72,96,213942
1.8328,0.1075,39.4800,72,96,213945
1.8524,0.1124,39.2800,72,96,213949
1.8328,0.1075,39.4400,72,96,213952
1.8328,0.1026,39.4100,72,96,213955
1.8622,0.1124,39.3500,72,96,213959
1.8426,0.1075,39.4100,72,96,213962
1.8915,0.0929,39.3200,72,96,213965
1.8622,0.1026,39.3800,72,96,213969
1.8768,0.1075,39.4400,72,96,213972
1.8964,0.1075,39.3800,72,96,213976
1.8866,0.1075,39.4100,72,96,213980
1.9306,0.1075,39.2800,72,96,213983
1.9013,0.1075,39.4400,72,96,213986
1.9159,0.1026,39.4400,72,96,213989
1.9306,0.1124,39.4100,72,96,213993
1.9355,0.0929,39.4400,72,96,213996
1.9892,0.1124,39.3500,72,96,213999
1.9746,0.1124,39.3800,72,96,214003
1.9795,0.1026,39.4400,72,96,214006
1.9941,0.1075,39.5100,72,96,214009
1.9892,0.1026,39.5100,72,96,214013
2.0332,0.1075,39.2800,72,96,214017
1.9697,0.1075,39.4100,72,96,214020
1.9453,0.1075,39.3800,72,96,214024
1.9257,0.0929,39.4100,72,96,214027
1.8866,0.1026,39.5100,72,96,214030
1.9062,0.1173,39.3800,72,96,214033
1.8671,0.1075,39.3800,72,96,214037
1.8622,0.1075,39.3800,72,96,214040
1.8377,0.1026,39.4400,72,96,214043
1.8231,0.1075,39.4100,72,96,214047
1.8280,0.1124,39.3800,72,96,214050
1.7937,0.1075,39.4800,72,96,214053
1.7986,0.1075,39.3200,72,96,214057
1.7644,0.1075,39.5100,72,96,214061
1.7595,0.1075,39.4400,72,96,214064
1.7889,0.1124,39.4100,72,96,214068
1.7595,0.1075,39.4100,72,96,214071
1.7840,0.1026,39.2800,72,96,214074
1.7693,0.1026,39.3800,72,96,214077
1.7644,0.1075,39.4100,72,96,214081
1.7840,0.1124,39.3800,72,96,214084
1.7742,0.1075,39.4100,72,96,214087
1.8182,0.1075,39.2200,72,96,214091
1.7840,0.1026,39.4100,72,96,214094
1.7742,0.1075,39.4400,72,96,214097
1.7986,0.1124,39.4100,72,96,214102
1.7889,0.1124,39.4400,72,96,214105
1.8426,0.1124,39.1600,72,96,214108
1.8328,0.1026,39.3200,72,96,214112
1.7889,0.0978,39.4400,72,96,214115
1.7693,0.1075,39.4100,72,96,214118
1.7302,0.1026,39.3500,72,96,214122
1.7498,0.1173,39.2800,72,96,214125
1.7058,0.1075,39.4100,72,96,214128
1.7400,0.1026,39.3500,72,96,214131
1.8182,0.1075,39.4100,72,96,214135
1.9599,0.1026,38.9600,72,96,214138
2.2190,0.1124,39.2800,72,96,214141
2.4780,0.1075,39.3800,72,96,214146
2.8446,0.1222,39.3200,72,96,214149
3.1672,0.0733,39.4800,72,96,214152
3.4409,0.1026,39.4800,72,96,214156
3.5924,0.1124,39.3500,72,96,214159
3.3480,0.1075,39.4400,72,96,214162
3.0303,0.1026,39.3200,72,96,214165
2.5562,0.1026,39.2500,72,96,214169
1.2512,0.0978,39.4100,72,96,214173
1.2121,0.1026,39.4100,72,96,214177
1.2219,0.1075,39.3800,72,96,214180
1.2512,0.1124,39.4100,72,96,214183
1.3539,0.1124,39.1900,72,96,214188
1.3978,0.1124,39.3800,72,96,214191
1.4516,0.1026,39.4100,72,96,214194
1.5200,0.1026,39.4100,72,96,214198
1.5738,0.1075,39.4400,72,96,214201
1.6471,0.1173,39.2800,72,96,214204
1.6373,0.1075,39.4100,72,96,214208
1.6569,0.1026,39.2800,72,96,214211
1.6716,0.1075,39.4800,72,96,214214
1.6813,0.1026,39.4400,72,96,214217
1.7204,0.1124,39.3200,72,96,214221
1.7155,0.1075,39.4100,72,96,214224
1.7351,0.1075,39.3800,72,96,214227
1.7400,0.0929,39.4400,72,96,214232
1.7302,0.1026,39.4400,72,96,214235
1.7546,0.1173,39.3800,72,96,214238
1.7498,0.1075,39.5100,72,96,214242
1.7840,0.1124,39.3500,72,96,214245
1.7644,0.1026,39.0300,72,96,214248
1.7742,0.1026,39.5100,72,96,214252
1.8084,0.1124,39.3800,72,96,214255
1.7937,0.1075,39.4800,72,96,214258
1.8328,0.1026,39.2500,72,96,214261
1.8231,0.1075,39.3200,72,96,214265
1.8231,0.1026,39.4400,72,96,214268
1.8377,0.1075,39.3800,72,96,214272
1.8280,0.1075,39.4400,72,96,214276
1.8817,0.1075,39.2200,72,96,214279
1.8573,0.1026,39.4400,72,96,214282
1.8426,0.1026,39.4400,72,96,214286
1.8671,0.1075,39.3200,72,96,214289
1.8622,0.1075,39.4400,72,96,214292
1.9257,0.1222,39.2200,72,96,214296
1.9062,0.1026,39.3500,72,96,214299
1.8915,0.0929,39.3800,72,96,214302
1.9013,0.1075,39.4100,72,96,214305
1.9110,0.1026,39.4400,72,96,214309
1.9599,0.1124,39.4100,72,96,214312
1.9306,0.1075,39.4100,72,96,214316
1.9550,0.1026,39.3500,72,96,214320
1.9453,0.1075,39.4100,72,96,214323
1.9599,0.1026,39.4400,72,96,214326
2.0088,0.1124,39.2500,72,96,214330
1.9892,0.1026,39.4400,72,96,214333
2.0235,0.1075,39.3500,72,96,214336
2.0088,0.1124,39.4800,72,96,214340
2.0528,0.1026,39.4400,72,96,214343
2.0577,0.1075,39.3500,72,96,214346
2.0577,0.1124,39.4100,72,96,214349
2.0919,0.1026,39.3200,72,96,214353
2.0772,0.1026,39.5700,72,96,214356
2.0919,0.1124,39.4100,72,96,214360
2.1261,0.1075,39.3200,72,96,214364
2.1163,0.1124,39.4400,72,96,214367
2.1701,0.1075,39.3200,72,96,214370
2.1359,0.0978,39.4100,72,96,214374
2.1505,0.1026,39.4400,72,96,214377
2.1750,0.1075,39.3800,72,96,214380
2.1603,0.1075,39.4100,72,96,214383
2.2190,0.1124,39.1900,72,96,214387
2.1896,0.1075,39.3800,72,96,214390
2.1750,0.1075,39.4400,72,96,214393
2.1799,0.1026,39.4400,72,96,214397
2.1652,0.1026,39.4400,72,96,214401
2.2385,0.1173,39.2200,72,96,214404
2.1652,0.1075,39.4100,72,96,214408
2.1408,0.0978,39.3800,72,96,214411
2.1261,0.0733,39.4400,72,96,214414
2.0968,0.1026,39.4100,72,96,214418
2.1163,0.0929,39.3200,72,96,214421
2.0577,0.1075,39.4400,72,96,214424
2.0381,0.1026,39.3500,72,96,214427
1.9844,0.1075,39.4400,72,96,214431
1.9550,0.1026,39.4100,72,96,214434
1.9599,0.1026,39.4400,72,96,214437
1.8915,0.1026,39.4100,72,96,214441
1.8817,0.1075,39.3800,72,96,214445
1.8280,0.1026,39.4400,72,96,214448
1.7986,0.1026,39.4100,72,96,214452
1.8084,0.1124,39.3200,72,96,214455
1.7546,0.1369,39.4100,72,96,214458
1.7644,0.1026,39.2800,72,96,214462
1.7253,0.0978,39.3500,72,96,214465
1.7058,0.0929,39.4400,72,96,214468
1.7107,0.1124,39.3500,72,96,214471
1.6862,0.1075,39.4400,72,96,214475
1.7204,0.1075,39.2200,72,96,214478
1.6862,0.1124,39.3800,72,96,214481
1.6667,0.1026,39.4400,72,96,214486
1.6862,0.1075,39.3800,72,96,214489
1.6716,0.1075,39.4100,72,96,214492
1.7204,0.1124,39.1900,72,96,214496
1.6960,0.0929,39.3500,72,96,214499
1.6911,0.0978,39.4100,72,96,214502
1.6960,0.0978,39.4100,72,96,214506
1.6911,0.1026,39.4400,72,96,214509
1.7498,0.1222,39.2500,72,96,214512
1.7204,0.1075,39.3800,72,96,214515
1.7155,0.1026,39.3800,72,96,214519
1.7155,0.0929,39.4400,72,96,214522
1.7204,0.1026,39.4400,72,96,214525
1.7595,0.1075,39.3200,72,96,214530
1.7400,0.1026,39.4100,72,96,214533
1.7546,0.1026,38.8100,72,96,214536
1.7449,0.1075,39.4100,72,96,214540
1.7498,0.1026,39.4400,72,96,214543
1.7742,0.1124,39.3500,72,96,214546
1.7546,0.1026,39.5400,72,96,214550
1.7889,0.1075,39.2800,72,96,214553
1.7595,0.1026,39.5400,72,96,214556
1.7644,0.1026,39.5400,72,96,214559
1.7791,0.1075,39.3500,72,96,214563
1.7644,0.1026,39.4100,72,96,214566
1.7937,0.1026,39.2800,72,96,214569
1.7742,0.1026,39.4800,72,96,214574
1.7742,0.1271,39.4100,72,96,214577
1.7986,0.1075,39.3500,72,96,214580
1.7791,0.1075,39.4400,72,96,214584
1.8280,0.1026,39.2500,72,96,214587
1.7986,0.1075,39.4100,72,96,214590
1.7791,0.1271,39.5100,72,96,214594
1.7889,0.1075,39.3500,72,96,214597
1.7840,0.1075,39.4400,72,96,214600
1.8426,0.1124,39.1900,72,96,214603
1.7986,0.1026,39.5100,72,96,214607
1.7889,0.0978,39.3800,72,96,214610
1.7937,0.1026,39.4400,72,96,214614
1.8182,0.0929,39.5100,72,96,214618
1.8280,0.1124,39.2800,72,96,214621
1.8328,0.1124,39.4400,72,96,214624
1.8035,0.1026,39.4400,72,96,214628
1.7889,0.1075,39.4100,72,96,214631
1.7889,0.1026,39.6000,72,96,214634
1.8084,0.1075,39.4100,72,96,214638
1.7937,0.1026,39.5100,72,96,214641
1.8133,0.1075,39.3800,72,96,214644
1.7889,0.1026,39.4400,72,96,214647
1.7889,0.1026,39.3800,72,96,214651
1.8182,0.1026,39.3200,72,96,214654
1.7889,0.1026,39.4100,72,96,214658
1.8133,0.1075,39.3200,72,96,214662
1.7937,0.1026,39.3500,72,96,214665
1.7889,0.1124,39.4100,72,96,214668
1.8035,0.1075,39.4100,72,96,214672
1.7889,0.1026,39.5400,72,96,214675
1.8377,0.0733,39.3500,72,96,214678
1.8035,0.1271,39.3800,72,96,214682
1.8035,0.0978,39.4400,72,96,214685
1.8133,0.1075,39.4100,72,96,214688
1.8035,0.1026,39.3800,72,96,214691
1.8475,0.1222,39.1600,72,96,214695
1.8084,0.1026,39.6400,72,96,214699
1.8035,0.0880,39.4100,72,96,214702
1.8377,0.1026,39.4400,72,96,214706
1.7986,0.1075,39.4100,72,96,214709
1.8768,0.1173,39.2500,72,96,214712
1.8182,0.1075,39.4100,72,96,214716
1.8133,0.0978,39.3500,72,96,214719
1.8084,0.1026,39.4100,72,96,214722
1.8035,0.0929,39.4400,72,96,214726
1.8426,0.1075,39.2800,72,96,214729
1.8133,0.0978,39.4100,72,96,214732
1.8622,0.1075,39.3500,72,96,214735
1.8133,0.1026,39.4100,72,96,214739
1.8133,0.1124,39.5100,72,96,214743
1.8426,0.1075,39.3500,72,96,214746
1.8182,0.1369,39.4100,72,96,214750
1.8475,0.1026,39.3500,72,96,214753
1.8182,0.0978,39.4100,72,96,214756
1.8133,0.1075,39.4400,72,96,214760
1.8328,0.1026,39.4400,72,96,214763
1.8182,0.1026,39.4100,72,96,214766
1.8475,0.1026,39.2800,72,96,214770
1.8182,0.1075,39.4800,72,96,214773
1.8280,0.1026,39.4400,72,96,214776
1.8426,0.1075,39.3200,72,96,214779
1.8426,0.0978,39.4400,72,96,214785
1.8328,0.1026,39.4400,72,96,214788
1.8866,0.1222,39.2800,72,96,214792
1.8426,0.1026,39.4400,72,96,214795
1.8426,0.0978,39.3500,72,96,214798
1.8426,0.1075,39.4100,72,96,214802
1.8475,0.1026,39.4400,72,96,214805
1.8866,0.1124,39.2800,72,96,214808
1.8768,0.1026,39.4400,72,96,214812
1.9013,0.1075,39.3800,72,96,214815
1.8964,0.1026,39.4100,72,96,214818
1.8915,0.1026,39.4800,72,96,214822
1.9208,0.0978,39.4100,72,96,214825
1.9110,0.1026,39.5100,72,96,214829
1.9501,0.1075,39.3500,72,96,214832
1.9355,0.1026,39.4400,72,96,214836
1.9550,0.0978,39.4400,72,96,214839
1.9990,0.1026,39.3500,72,96,214842
1.9941,0.1026,39.4400,72,96,214846
2.0283,0.1026,39.2200,72,96,214849
2.0137,0.1075,39.4400,72,96,214852
1.9941,0.1026,39.4400,72,96,214856
1.9892,0.1320,39.3800,72,96,214859
1.9795,0.1026,39.4100,72,96,214862
1.9746,0.1026,39.2200,72,96,214866
1.9550,0.0929,39.3800,72,96,214870
1.8915,0.0733,39.4400,72,96,214873
1.8915,0.1075,39.3800,72,96,214876
1.8671,0.0978,39.5100,72,96,214880
1.9110,0.1075,39.1900,72,96,214883
1.8573,0.1075,39.3200,72,96,214886
1.8328,0.0978,39.4400,72,96,214890
1.8133,0.1026,39.4100,72,96,214893
1.7937,0.1026,39.4400,72,96,214896
1.8280,0.1124,39.3200,72,96,214900
1.7840,0.1026,39.5100,72,96,214903
1.7840,0.0978,39.3500,72,96,214906
1.7693,0.1075,39.5100,72,96,214910
1.7644,0.0978,39.4400,72,96,214914
1.7986,0.1515,39.2800,72,96,214917
1.7742,0.1026,39.4800,72,96,214920
1.7986,0.1075,39.3200,72,96,214924
1.7840,0.0929,39.4400,72,96,214927
1.7742,0.1026,39.4400,72,96,214930
1.7986,0.1075,39.3800,72,96,214934
1.7791,0.1026,39.4400,72,96,214937
1.8035,0.0978,39.2800,72,96,214940
1.7791,0.1173,39.4100,72,96,214944
1.7889,0.0978,39.4100,72,96,214947
1.8084,0.1369,39.3200,72,96,214950
1.7889,0.0929,39.4100,72,96,214953
1.7840,0.1026,39.4800,72,96,214958
1.7204,0.1026,39.4400,72,96,214961
1.6960,0.0978,39.4800,72,96,214964
1.7058,0.1075,39.3800,72,96,214968
1.7253,0.1026,39.4400,72,96,214971
1.8671,0.1026,39.2500,72,96,214974
1.9990,0.1075,39.3500,72,96,214978
2.2092,0.0978,39.4100,72,96,214981
2.5220,0.1026,39.4100,72,96,214984
2.8641,0.1026,39.4400,72,96,214988
3.2942,0.1222,39.2200,72,96,214991
3.4751,0.1124,39.5100,72,96,214994
3.4995,0.0978,39.3800,72,96,214998
3.2845,0.1026,39.4400,72,96,215002
2.9032,0.1026,39.4400,72,96,215005
2.5318,0.1124,39.2500,72,96,215008
2.0919,0.1026,39.4100,72,96,215012
1.7546,0.0978,39.4800,72,96,215015
1.5103,0.1075,39.4400,72,96,215018
1.3343,0.0978,39.4800,72,96,215022
1.2757,0.1026,39.4400,72,96,215025
1.2170,0.1026,39.4400,72,96,215028
1.2414,0.1026,39.3500,72,96,215032
1.2708,0.1026,39.4400,72,96,215035
1.3343,0.0978,39.0600,72,96,215038
1.4370,0.1173,39.3200,72,96,215042
1.4761,0.1026,39.4100,72,96,215046
1.5445,0.0978,39.2800,72,96,215049
1.5787,0.0978,39.5400,72,96,215052
1.6080,0.1026,39.4100,72,96,215056
1.6471,0.1026,39.3800,72,96,215059
1.6520,0.1026,39.5400,72,96,215062
1.7009,0.1515,39.2500,72,96,215066
1.6911,0.1026,39.4100,72,96,215069
1.7009,0.0978,39.5400,72,96,215072
1.7351,0.1222,39.3800,72,96,215075
1.7253,0.0929,39.4400,72,96,215079
1.7742,0.1075,39.2800,72,96,215083
1.7498,0.0978,39.3800,72,96,215086
1.7498,0.0978,39.4400,72,96,215090
1.7595,0.1026,39.4100,72,96,215093
1.7595,0.0978,39.4400,72,96,215096
1.8182,0.1124,39.2200,72,96,215100
1.7840,0.1075,39.3800,72,96,215103
1.7840,0.0978,39.3800,72,96,215106
1.7840,0.1075,39.4100,72,96,215110
1.7937,0.0978,39.4400,72,96,215113
1.8328,0.1075,39.2200,72,96,215116
1.8133,0.0929,39.4100,72,96,215119
1.8328,0.1026,38.7700,72,96,215123
1.8231,0.0978,39.4100,72,96,215127
1.8182,0.0929,39.4400,72,96,215130
1.8622,0.1075,39.3200,72,96,215134
1.8426,0.0978,39.4400,72,96,215137
1.8768,0.1026,39.4100,72,96,215140
1.8524,0.0929,39.5400,72,96,215144
1.8622,0.0978,39.4400,72,96,215147
1.8817,0.1026,39.3500,72,96,215150
1.8768,0.0978,39.4400,72,96,215154
1.9110,0.0978,39.3200,72,96,215157
1.8964,0.0978,39.4100,72,96,215160
1.9062,0.0733,39.4400,72,96,215163
1.9355,0.1026,39.4800,72,96,215168
1.9306,0.0978,39.4400,72,96,215171
1.9844,0.1026,39.1900,72,96,215174
1.9648,0.1075,39.3500,72,96,215178
1.9648,0.0978,39.4400,72,96,215181
1.9844,0.0929,39.4400,72,96,215184
1.9795,0.0978,39.4400,72,96,215188
2.0528,0.1075,39.1600,72,96,215191
2.0235,0.1026,39.3800,72,96,215194
2.0332,0.0733,39.4100,72,96,215197
2.0577,0.1026,39.3800,72,96,215201
2.0577,0.1026,39.4100,72,96,215204
2.1554,0.1124,39.2200,72,96,215207
2.1065,0.1124,39.3500,72,96,215212
2.1065,0.0978,39.4400,72,96,215215
2.1163,0.1026,39.4400,72,96,215218
2.1310,0.0929,39.4400,72,96,215222
2.1750,0.1124,39.3500,72,96,215225
2.1554,0.1026,39.4100,72,96,215228
2.1799,0.0978,39.3200,72,96,215232
2.1603,0.1026,39.4100,72,96,215235
2.1652,0.1075,39.4400,72,96,215238
2.2092,0.1075,39.3200,72,96,215241
2.1750,0.1417,39.4100,72,96,215245
2.2385,0.0929,39.3500,72,96,215248
2.1701,0.0978,39.4100,72,96,215251
2.1652,0.0978,39.4400,72,96,215256
2.1750,0.1026,39.3500,72,96,215259
2.1408,0.1026,39.4100,72,96,215262
2.1457,0.1075,39.2800,72,96,215266
2.0968,0.0978,39.4100,72,96,215269
2.0674,0.1026,39.4100,72,96,215272
2.0577,0.1026,39.3500,72,96,215275
2.0137,0.1026,39.4400,72,96,215279
2.0186,0.1026,39.2800,72,96,215282
1.9844,0.0978,39.4400,72,96,215285
1.9257,0.0978,39.4800,72,96,215289
1.9110,0.1026,39.3500,72,96,215292
1.8622,0.0978,39.5100,72,96,215296
1.8768,0.1075,39.2200,72,96,215300
1.8231,0.1026,39.3500,72,96,215303
1.7742,0.0978,39.4800,72,96,215306
1.7595,0.1026,39.4400,72,96,215310
1.7302,0.0978,39.4400,72,96,215313
1.7693,0.1173,39.2800,72,96,215316
1.7155,0.1026,39.3500,72,96,215319
1.7107,0.1026,39.4400,72,96,215323
1.6911,0.1026,39.4400,72,96,215326
1.6813,0.1124,39.4100,72,96,215329
1.7155,0.1075,39.4100,72,96,215333
1.6862,0.1026,39.4100,72,96,215336
1.7009,0.1026,39.4400,72,96,215340
1.6862,0.1026,39.4800,72,96,215344
1.7107,0.0978,39.4400,72,96,215347
1.7058,0.1026,39.3500,72,96,215350
1.6960,0.1026,39.4100,72,96,215354
1.7204,0.1124,39.3500,72,96,215357
1.7009,0.0978,39.4100,72,96,215360
1.7155,0.1026,39.4100,72,96,215363
1.7449,0.1075,39.3200,72,96,215367
1.7253,0.0978,39.4400,72,96,215370
1.7546,0.1026,39.2500,72,96,215373
1.7400,0.1222,39.3200,72,96,215377
1.7449,0.0978,39.4800,72,96,215380
1.7546,0.1124,39.3800,72,96,215384
1.7351,0.0978,39.4400,72,96,215388
1.7937,0.1026,39.3800,72,96,215391
1.8084,0.1222,39.3500,72,96,215396
1.7840,0.1075,39.3800,72,96,215399
1.7791,0.0978,39.3800,72,96,215402
1.7742,0.1026,39.4100,72,96,215406
1.7742,0.0978,39.4400,72,96,215409
1.8133,0.1124,39.3500,72,96,215412
1.7840,0.1026,39.4100,72,96,215415
1.7986,0.1026,39.3500,72,96,215419
1.7791,0.0929,39.4100,72,96,215422
1.7791,0.0978,39.4800,72,96,215426
1.8133,0.1124,39.2800,72,96,215430
1.7840,0.1026,39.6400,72,96,215433
1.8084,0.1075,39.3200,72,96,215436
1.7840,0.0978,39.3800,72,96,215440
1.7791,0.0978,39.4100,72,96,215443
1.7986,0.1026,39.3800,72,96,215446
1.7791,0.1026,39.4800,72,96,215450
1.8084,0.1026,39.2800,72,96,215453
1.7791,0.0978,39.3800,72,96,215456
1.7742,0.0978,39.4800,72,96,215459
1.8084,0.0929,39.3800,72,96,215463
1.7644,0.0978,39.4800,72,96,215467
1.8084,0.1320,39.2500,72,96,215470
1.7693,0.0978,39.3800,72,96,215474
1.7742,0.0978,39.4100,72,96,215477
1.7889,0.1026,39.4100,72,96,215480
1.7742,0.0978,39.4400,72,96,215484
1.8231,0.1124,39.1900,72,96,215487
1.7889,0.1026,39.3500,72,96,215490
1.7742,0.1026,39.4100,72,96,215494
1.7791,0.1026,39.6000,72,96,215497
1.7791,0.0978,39.4100,72,96,215500
1.8280,0.1075,39.2800,72,96,215503
1.7937,0.1026,39.4100,72,96,215507
1.7937,0.1026,39.3200,72,96,215511
1.7840,0.1026,39.4100,72,96,215514
1.7791,0.1320,39.5100,72,96,215518
1.8084,0.1075,39.3200,72,96,215521
1.7889,0.1026,39.4100,72,96,215524
1.8035,0.1124,39.3200,72,96,215528
1.7840,0.1026,39.4400,72,96,215531
1.7840,0.0978,39.4400,72,96,215534
1.8035,0.0978,39.4400,72,96,215537
1.7889,0.1026,39.4400,72,96,215541
1.8182,0.0978,39.3500,72,96,215544
1.7889,0.1026,39.4100,72,96,215547
1.7889,0.1075,39.4400,72,96,215552
1.8328,0.1026,39.3500,72,96,215555
1.7937,0.1026,39.4400,72,96,215558
1.8280,0.1124,39.2500,72,96,215562
1.8084,0.1026,39.3800,72,96,215565
1.7986,0.0978,39.4100,72,96,215568
1.8182,0.1026,39.4100,72,96,215572
1.8084,0.0978,39.4400,72,96,215575
1.8524,0.1026,39.2200,72,96,215578
1.8133,0.1026,39.7000,72,96,215581
1.8035,0.1075,39.4400,72,96,215585
1.8231,0.1026,39.4100,72,96,215588
1.8035,0.0978,39.3500,72,96,215591
1.8573,0.1173,39.2200,72,96,215596
1.8182,0.1075,39.3800,72,96,215599
1.8182,0.0978,39.4400,72,96,215602
1.8084,0.1026,39.4800,72,96,215606
1.8035,0.1075,39.4100,72,96,215609
1.8426,0.1124,39.3200,72,96,215612
1.8182,0.1026,39.4400,72,96,215616
1.8231,0.1026,39.3200,72,96,215619
1.8035,0.0978,39.3500,72,96,215622
1.8035,0.0978,39.5100,72,96,215625
1.8426,0.0929,39.2200,72,96,215629
1.8084,0.1026,39.4100,72,96,215632
1.8377,0.1075,39.3200,72,96,215635
1.8231,0.1026,39.4400,72,96,215640
1.8328,0.0978,39.4400,72,96,215643
1.8719,0.1026,39.3800,72,96,215646
1.8622,0.1026,39.4100,72,96,215650
1.8915,0.0978,39.2800,72,96,215653
1.8768,0.0978,39.4100,72,96,215656
1.8866,0.1026,39.4400,72,96,215660
1.9159,0.1026,39.3200,72,96,215663
1.9062,0.0978,39.4400,72,96,215666
1.9501,0.1075,39.2200,72,96,215669
1.9306,0.1124,39.4100,72,96,215673
1.9453,0.1026,39.4400,72,96,215676
1.9844,0.1075,38.8700,72,96,215680
1.9795,0.0978,39.4400,72,96,215684
2.0381,0.1075,39.2500,72,96,215687
1.9941,0.0978,39.3500,72,96,215690
1.9648,0.0929,39.4400,72,96,215694
1.9550,0.0978,39.4400,72,96,215697
1.9257,0.0978,39.4400,72,96,215700
1.9599,0.1124,39.2800,72,96,215704
1.9110,0.1026,39.5100,72,96,215707
1.8768,0.0978,39.3500,72,96,215710
1.8622,0.1075,39.4100,72,96,215713
1.8475,0.0978,39.4400,72,96,215717
1.8719,0.1075,39.2800,72,96,215720
1.8280,0.0929,39.4100,72,96,215724
1.8133,0.1026,39.3500,72,96,215728
1.7791,0.0978,39.4400,72,96,215731
1.7644,0.0978,39.5100,72,96,215734
1.7742,0.1075,39.4100,72,96,215738
1.7498,0.1026,39.4100,72,96,215741
1.7742,0.1075,39.3500,72,96,215744
1.7449,0.0929,39.4400,72,96,215748
1.7546,0.0978,39.4400,72,96,215751
1.7840,0.1026,39.3500,72,96,215754
1.7644,0.1026,39.4400,72,96,215757
1.7937,0.0978,39.2500,72,96,215761
1.7840,0.0978,39.3500,72,96,215764
1.7693,0.0978,39.4400,72,96,215768
1.7937,0.0733,39.3800,72,96,215772
1.7742,0.0978,39.4400,72,96,215775
1.8231,0.1173,39.3200,72,96,215778
1.7937,0.1026,39.4400,72,96,215782
1.7889,0.0978,39.4100,72,96,215785
1.8084,0.0929,39.3800,72,96,215788
1.7546,0.0978,39.4100,72,96,215792
1.7595,0.1124,39.2200,72,96,215795
1.6862,0.1026,39.3800,72,96,215798
1.6618,0.1075,39.4100,72,96,215801
1.6911,0.1026,39.4400,72,96,215805
1.7693,0.1271,39.4400,72,96,215809
1.9648,0.1124,39.3200,72,96,215812
2.1701,0.1026,39.4100,72,96,215816
2.4976,0.1026,39.3500,72,96,215819
2.8543,0.1026,39.3800,72,96,215822
3.2307,0.1026,39.4400,72,96,215826
3.6070,0.0733,39.2800,72,96,215829
3.6315,0.1026,39.3800,72,96,215832
3.4946,0.0880,39.3200,72,96,215836
3.0841,0.1026,39.4400,72,96,215839
2.6393,0.0978,39.4400,72,96,215842
2.2385,0.1026,39.3800,72,96,215845
1.8426,0.0929,39.4400,72,96,215849
1.5836,0.0978,38.7400,72,96,215853
1.3636,0.1369,39.4100,72,96,215856
1.2512,0.0978,39.4400,72,96,215860
1.2023,0.1026,39.3500,72,96,215863
1.1828,0.0929,39.4400,72,96,215866
1.2219,0.0978,39.2500,72,96,215870
1.2610,0.0978,39.4400,72,96,215873
1.3294,0.1026,39.4400,72,96,215876
1.4125,0.1173,39.3500,72,96,215879
1.4614,0.0978,38.8100,72,96,215883
1.5543,0.0978,39.1900,72,96,215886
1.5738,0.1026,39.3800,72,96,215889
1.5934,0.0978,39.4400,72,96,215894
1.6227,0.1026,39.4400,72,96,215897
1.6325,0.1026,39.4100,72,96,215900
1.6862,0.1124,39.2200,72,96,215904
1.6716,0.0978,39.3800,72,96,215907
1.6716,0.0929,39.3800,72,96,215910
1.6862,0.1026,38.7400,72,96,215914
1.6911,0.1026,39.4400,72,96,215917
1.7449,0.1075,39.3800,72,96,215920
1.7302,0.0978,39.5700,72,96,215923
1.7449,0.1075,39.3500,72,96,215927
1.7351,0.1026,39.4800,72,96,215930
1.7595,0.1026,39.5100,72,96,215933
1.7742,0.1075,39.3800,72,96,215938
1.7644,0.1075,39.4400,72,96,215941
1.7889,0.1075,39.3500,72,96,215944
1.7742,0.1124,39.4100,72,96,215948
1.7791,0.0978,39.4400,72,96,215951
1.8133,0.1075,39.3500,72,96,215954
1.7986,0.1026,39.4400,72,96,215958
1.8182,0.0978,39.1200,72,96,215961
1.8084,0.1075,39.3500,72,96,215964
1.8133,0.0978,39.4400,72,96,215967
1.8328,0.1124,39.3500,72,96,215971
1.8280,0.1075,39.4100,72,96,215974
1.8768,0.1026,39.2200,72,96,215977
1.8573,0.1026,39.3800,72,96,215982
1.8573,0.0978,39.4800,72,96,215985
1.8817,0.1075,39.4400,72,96,215988
1.8768,0.0978,39.4400,72,96,215992
1.9306,0.1075,39.1600,72,96,215995
1.9013,0.0978,39.3500,72,96,215998
1.8964,0.0929,39.3800,72,96,216002
1.9013,0.1075,39.4100,72,96,216005
1.9550,0.0978,39.4800,72,96,216010
1.9697,0.0978,39.5100,72,96,216013
2.0283,0.1075,39.2800,72,96,216016
2.0088,0.1026,39.3500,72,96,216020
2.0479,0.1075,39.3800,72,96,216024
2.0381,0.0978,39.4100,72,96,216027
2.0479,0.0978,39.4400,72,96,216030
2.0821,0.1075,39.3500,72,96,216034
2.1065,0.0978,39.4400,72,96,216037
2.1114,0.0978,39.3800,72,96,216040
2.0919,0.1026,39.3800,72,96,216044
2.1017,0.0929,39.4400,72,96,216047
2.1359,0.1026,39.3800,72,96,216050
2.1212,0.1026,39.4400,72,96,216054
2.1750,0.0929,39.2200,72,96,216057
2.1408,0.0978,39.4100,72,96,216060
2.1505,0.0880,39.4400,72,96,216064
2.1701,0.0929,39.3800,72,96,216068
2.1505,0.0978,39.5100,72,96,216071
2.1994,0.1026,39.2200,72,96,216074
2.1603,0.1026,39.3500,72,96,216078
2.1310,0.0978,39.4800,72,96,216081
2.1261,0.1026,39.4400,72,96,216084
2.1017,0.0978,39.5700,72,96,216088
2.1359,0.1124,39.2200,72,96,216091
2.0626,0.1026,39.4100,72,96,216094
2.0283,0.0929,39.4100,72,96,216097
2.0235,0.1026,39.4100,72,96,216101
1.9648,0.0733,39.5100,72,96,216104
1.9746,0.1075,39.3500,72,96,216108
1.9062,0.1026,39.4100,72,96,216112
1.8817,0.0978,39.3500,72,96,216115
1.8377,0.0978,39.4400,72,96,216118
1.8035,0.0978,39.4100,72,96,216122
1.7986,0.1466,39.3800,72,96,216125
1.7595,0.1026,39.5100,72,96,216128
1.7595,0.1026,39.3200,72,96,216131
1.7498,0.0978,39.4400,72,96,216135
1.7009,0.0978,39.5100,72,96,216138
1.7155,0.1075,39.3800,72,96,216141
1.6764,0.1026,39.4400,72,96,216145
1.6911,0.0978,39.2800,72,96,216148
1.6667,0.1075,39.4400,72,96,216152
1.6618,0.0978,39.4400,72,96,216156
1.6764,0.1026,39.4400,72,96,216159
1.6618,0.0978,39.4400,72,96,216162
1.6960,0.1026,39.1900,72,96,216166
1.6764,0.1026,39.4100,72,96,216169
1.6716,0.0978,39.5100,72,96,216172
1.6960,0.1026,39.4100,72,96,216175
1.6813,0.0929,39.4400,72,96,216179
1.7302,0.1075,39.1600,72,96,216182
1.6960,0.0929,39.3500,72,96,216185
1.6960,0.0978,39.4800,72,96,216189
1.7155,0.1075,39.4100,72,96,216193
1.7155,0.0733,39.5700,72,96,216196
1.7742,0.1271,39.3200,72,96,216200
1.7498,0.1075,39.3500,72,96,216203
1.7449,0.0978,39.4100,72,96,216206
1.7449,0.1026,39.4400,72,96,216210
1.7449,0.1075,39.4800,72,96,216213
1.8182,0.1075,39.2800,72,96,216216
1.7595,0.1026,39.4100,72,96,216219
1.7791,0.1075,39.3200,72,96,216223
1.7644,0.1026,39.4400,72,96,216226
1.7644,0.1075,39.4400,72,96,216229
1.7937,0.1075,39.4100,72,96,216233
1.7791,0.1026,39.4100,72,96,216237
1.8035,0.1075,39.3500,72,96,216240
1.7742,0.1026,39.4100,72,96,216244
1.7840,0.0978,39.4400,72,96,216247
1.7986,0.0978,39.4100,72,96,216250
1.7889,0.1026,39.4800,72,96,216254
1.8084,0.1173,39.3200,72,96,216257
1.7840,0.0978,39.4400,72,96,216260
1.7840,0.1075,39.3200,72,96,216263
1.8133,0.1075,39.3500,72,96,216267
1.7840,0.0978,39.4400,72,96,216270
1.8280,0.1075,39.2200,72,96,216273
1.8084,0.1026,39.3500,72,96,216278
1.7889,0.0978,39.4400,72,96,216281
1.8231,0.1075,39.4400,72,96,216284
1.7889,0.0978,38.8100,72,96,216288
1.8377,0.1026,39.3200,72,96,216291
1.7986,0.1026,39.3800,72,96,216294
1.7937,0.0929,39.5700,72,96,216297
1.8280,0.1075,39.4100,72,96,216301
1.7840,0.0733,39.4400,72,96,216304
1.8426,0.1124,39.3500,72,96,216307
1.8133,0.1026,39.3800,72,96,216311
1.8035,0.0978,39.4800,72,96,216314
1.7986,0.1075,39.4100,72,96,216317
1.7937,0.0978,39.4400,72,96,216322
1.8231,0.1173,39.3500,72,96,216325
1.7986,0.1026,39.4100,72,96,216328
1.8084,0.1026,39.3800,72,96,216332
1.7889,0.0978,39.4400,72,96,216335
1.7889,0.0978,39.4100,72,96,216338
1.8231,0.1026,39.3200,72,96,216341
1.7889,0.1026,39.4800,72,96,216345
1.8133,0.1075,39.3500,72,96,216348
1.7889,0.0978,39.4100,72,96,216351
1.7889,0.0978,39.4400,72,96,216355
1.8084,0.1026,39.3800,72,96,216358
1.7937,0.0929,39.4100,72,96,216361
1.8231,0.0978,39.2500,72,96,216366
1.8035,0.0978,39.4400,72,96,216369
1.8035,0.0978,39.4100,72,96,216372
1.8426,0.0929,39.3500,72,96,216376
1.8084,0.0978,39.4800,72,96,216379
1.8524,0.1026,39.2500,72,96,216382
1.8133,0.0929,39.4100,72,96,216385
1.8133,0.0978,39.5100,72,96,216389
1.8182,0.0929,39.4100,72,96,216392
1.8133,0.0978,39.4800,72,96,216395
1.8622,0.1173,39.1900,72,96,216399
1.8231,0.1026,39.3200,72,96,216402
1.7986,0.1026,39.4400,72,96,216406
1.8084,0.1026,39.6000,72,96,216410
1.8084,0.1075,39.5100,72,96,216413
1.8622,0.0929,39.2800,72,96,216416
1.8182,0.1075,39.4100,72,96,216420
1.8573,0.0978,39.3500,72,96,216423
1.8182,0.1026,39.4800,72,96,216426
1.8133,0.1075,39.4400,72,96,216429
1.8426,0.1075,39.4400,72,96,216433
1.8231,0.1026,39.4100,72,96,216436
1.8426,0.0978,39.3200,72,96,216439
1.8231,0.1026,39.4400,72,96,216443
1.8182,0.0978,39.4400,72,96,216446
1.8426,0.0978,39.3800,72,96,216450
1.8280,0.0978,39.4100,72,96,216454
1.8622,0.0978,39.3500,72,96,216457
1.8328,0.0978,39.4100,72,96,216460
1.8377,0.0929,39.4400,72,96,216464
1.8671,0.1026,39.3500,72,96,216467
1.8475,0.0929,39.4400,72,96,216470
1.8915,0.1026,39.2500,72,96,216473
1.8866,0.1320,39.3500,72,96,216477
1.8817,0.0929,39.4400,72,96,216480
1.9013,0.1320,39.4100,72,96,216483
1.8964,0.0929,39.4400,72,96,216487
1.9501,0.1026,39.1600,72,96,216491
1.9208,0.0978,39.4100,72,96,216494
1.9208,0.0978,39.4400,72,96,216498
1.9453,0.1026,39.3800,72,96,216501
1.9550,0.0978,39.4400,72,96,216504
2.0235,0.1222,39.2200,72,96,216507
1.9990,0.1124,39.3500,72,96,216511
1.9892,0.0978,39.3800,72,96,216514
1.9795,0.1026,39.4800,72,96,216517
1.9599,0.0978,39.4400,72,96,216521
1.9844,0.1124,39.3500,72,96,216524
1.9355,0.0929,39.4100,72,96,216527
1.9159,0.0978,39.4800,72,96,216531
1.8817,0.0733,39.4400,72,96,216535
1.8622,0.0978,39.4100,72,96,216538
1.8915,0.0978,39.3200,72,96,216542
1.8475,0.0978,39.2800,72,96,216545
1.8573,0.0978,39.3800,72,96,216548
1.8182,0.0929,39.4100,72,96,216552
1.7986,0.1222,39.4400,72,96,216555
1.7986,0.1026,39.3800,72,96,216558
1.7693,0.1369,39.4100,72,96,216561
1.7889,0.0978,39.2500,72,96,216565
1.7595,0.0978,39.3800,72,96,216568
1.7693,0.0978,39.4400,72,96,216571
1.7742,0.1075,39.3500,72,96,216576
1.7546,0.1173,39.4400,72,96,216579
1.7986,0.1026,39.2200,72,96,216582
1.7595,0.0978,39.4800,72,96,216586
1.7693,0.0978,39.4400,72,96,216589
1.7791,0.1026,39.4100,72,96,216592
1.7693,0.0978,39.5100,72,96,216596
1.8182,0.1124,39.1900,72,96,216599
1.7840,0.1026,39.3800,72,96,216602
1.7693,0.0929,39.4100,72,96,216605
1.7791,0.1026,39.4400,72,96,216609
1.7791,0.0978,39.4400,72,96,216612
1.8280,0.0978,39.3200,72,96,216615
1.7351,0.1075,39.3800,72,96,216621
1.7986,0.0978,39.4800,72,96,216624
1.9844,0.0978,39.3500,72,96,216628
2.1799,0.0929,39.4100,72,96,216631
2.4780,0.1124,39.5100,72,96,216634
2.8592,0.0978,39.3500,72,96,216638
3.1916,0.0978,39.3800,72,96,216641
3.5239,0.0978,39.2800,72,96,216644
3.5533,0.0978,39.4100,72,96,216648
3.3773,0.1222,39.4100,72,96,216651
3.0401,0.1026,39.4800,72,96,216654
2.5709,0.0978,39.4100,72,96,216658
2.1994,0.1075,39.2200,72,96,216662
1.8133,0.1026,39.4100,72,96,216665
1.5249,0.0880,39.4400,72,96,216668
1.3539,0.1026,39.4400,72,96,216672
1.2463,0.1026,39.5400,72,96,216675
1.2366,0.1026,39.1900,72,96,216678
1.2072,0.0978,39.3800,72,96,216682
1.2366,0.1075,39.4100,72,96,216685
1.3050,0.0978,39.4100,72,96,216688
1.3685,0.0978,39.4800,72,96,216692
1.4761,0.1173,39.3200,72,96,216695
1.5103,0.1026,39.5700,72,96,216698
1.5543,0.0880,39.3500,72,96,216701
1.5836,0.0929,39.4400,72,96,216706
1.6129,0.0978,39.5400,72,96,216709
1.6471,0.1026,39.3800,72,96,216712
1.6569,0.0978,39.5100,72,96,216716
1.6911,0.1026,39.2800,72,96,216719
1.6813,0.0978,39.4800,72,96,216722
1.6911,0.0978,39.4400,72,96,216726
1.7302,0.1026,39.3200,72,96,216729
1.7155,0.1026,39.4100,72,96,216732
1.7791,0.0978,39.3200,72,96,216736
1.7155,0.0929,39.3200,72,96,216739
1.7302,0.0929,39.4400,72,96,216742
1.7546,0.1026,39.4400,72,96,216745
1.7449,0.0978,39.4100,72,96,216750
1.7937,0.1026,39.2500,72,96,216753
1.7693,0.0978,39.4100,72,96,216756
1.7693,0.0978,39.4400,72,96,216760
1.8035,0.1026,39.2500,72,96,216763
1.7889,0.0978,39.5100,72,96,216766
1.8475,0.1026,39.1900,72,96,216770
1.8035,0.0929,39.3800,72,96,216773
1.8426,0.0929,39.4400,72,96,216776
1.8231,0.0978,39.4100,72,96,216780
1.8133,0.0978,39.4400,72,96,216783
1.8866,0.1124,39.1600,72,96,216786
1.8573,0.0929,39.3800,72,96,216790
1.8573,0.0929,39.3800,72,96,216794
1.8573,0.0978,39.4400,72,96,216797
1.8622,0.0929,39.4400,72,96,216800
1.9062,0.1026,39.2800,72,96,216804
1.8866,0.0978,39.4100,72,96,216807
1.9062,0.0978,39.3200,72,96,216810
1.8964,0.0978,39.4400,72,96,216814
1.9062,0.0978,39.4400,72,96,216817
1.9453,0.1026,39.3500,72,96,216820
1.9306,0.0978,39.4400,72,96,216824
1.9697,0.1026,39.3500,72,96,216827
1.9550,0.0978,39.4100,72,96,216830
1.9697,0.0978,39.4400,72,96,216834
1.9892,0.0978,39.4400,72,96,216838
1.9941,0.1222,39.4100,72,96,216841
2.0332,0.0733,39.2800,72,96,216844
2.0186,0.1320,39.4400,72,96,216848
2.0332,0.0978,39.4400,72,96,216851
2.0723,0.1026,39.3800,72,96,216854
2.0626,0.0880,39.4400,72,96,216858
2.1554,0.0978,39.2500,72,96,216861
2.1065,0.1026,39.3800,72,96,216864
2.1017,0.0929,39.5100,72,96,216867
2.1261,0.1026,39.4100,72,96,216871
2.1212,0.0929,39.4100,72,96,216875
2.1848,0.0978,39.1900,72,96,216878
2.1554,0.0978,39.3500,72,96,216882
2.1505,0.0978,39.4400,72,96,216885
2.1701,0.0929,39.4100,72,96,216888
2.1505,0.0929,38.8400,72,96,216892
2.2141,0.1124,39.2200,72,96,216895
2.1701,0.1026,39.6000,72,96,216898
2.1603,0.0978,39.3500,72,96,216902
2.1505,0.0929,39.4100,72,96,216905
2.1310,0.0929,39.3200,72,96,216908
2.1848,0.0929,39.3800,72,96,216911
2.1114,0.0978,39.4100,72,96,216915
2.1017,0.0978,39.3500,72,96,216919
2.0577,0.0929,39.4400,72,96,216922
2.0283,0.0929,39.3500,72,96,216926
2.0430,0.1075,39.2800,72,96,216929
1.9746,0.0978,39.4400,72,96,216932
1.9648,0.1026,39.3500,72,96,216936
1.9110,0.0929,39.4100,72,96,216939
1.8768,0.0929,39.5400,72,96,216942
1.8719,0.1075,39.3800,72,96,216945
1.8182,0.0978,39.4100,72,96,216949
1.8084,0.0929,39.2800,72,96,216952
1.7595,0.0978,39.3200,72,96,216955
1.7351,0.0929,39.4800,72,96,216960
1.7351,0.1026,39.3200,72,96,216963
1.7009,0.0929,39.4400,72,96,216966
1.7204,0.0978,39.2200,72,96,216970
1.6813,0.0880,39.4100,72,96,216973
1.6764,0.0929,39.4800,72,96,216976
1.6911,0.1026,39.3800,72,96,216980
1.6667,0.0929,39.3800,72,96,216983
1.7107,0.0978,39.2200,72,96,216986
1.6862,0.0978,39.3500,72,96,216989
1.6716,0.0880,39.4100,72,96,216993
1.6764,0.0978,39.4400,72,96,216996
1.6764,0.0929,39.2800,72,96,216999
1.7302,0.1075,39.2500,72,96,217004
1.6960,0.0978,39.3500,72,96,217007
1.6960,0.0929,39.3500,72,96,217010
1.7009,0.0929,39.4400,72,96,217014
1.6960,0.0929,39.5100,72,96,217017
1.7351,0.1222,39.2800,72,96,217020
1.7155,0.0929,39.4100,72,96,217023
1.7302,0.0929,39.3800,72,96,217027
1.7204,0.0929,39.5100,72,96,217030
1.7253,0.0978,39.4100,72,96,217033
1.7498,0.0929,39.3800,72,96,217037
1.7400,0.0978,39.4800,72,96,217040
1.7693,0.1026,39.3500,72,96,217043
1.7498,0.0929,39.4100,72,96,217048
1.7546,0.0978,39.5100,72,96,217051
1.7889,0.1026,39.4100,72,96,217054
1.7595,0.1124,39.4100,72,96,217058
1.7986,0.0929,39.2500,72,96,217061
1.7791,0.0978,39.3500,72,96,217064
1.8035,0.0978,39.4400,72,96,217068
1.7889,0.1026,39.5400,72,96,217071
1.7742,0.0880,39.5400,72,96,217074
1.8182,0.0978,39.2200,72,96,217077
1.7889,0.0978,39.3800,72,96,217081
1.7889,0.0929,39.4400,72,96,217084
1.7937,0.0978,39.3800,72,96,217088
1.7791,0.0978,39.4400,72,96,217092
1.8231,0.1026,39.1900,72,96,217095
1.7937,0.0978,39.3500,72,96,217098
1.7840,0.0733,39.4100,72,96,217102
1.7889,0.0978,39.5400,72,96,217105
1.7791,0.0929,39.4800,72,96,217108
1.8231,0.1075,39.3500,72,96,217112
1.8182,0.0978,39.4400,72,96,217115
1.7791,0.0929,39.3500,72,96,217118
1.7644,0.0978,39.5100,72,96,217121
1.7644,0.0929,39.4400,72,96,217125
1.7986,0.0978,39.3200,72,96,217128
1.7693,0.0929,39.4400,72,96,217132
1.7889,0.0978,39.3800,72,96,217136
1.7693,0.0929,39.5100,72,96,217139
1.7644,0.0929,39.6000,72,96,217142
1.7986,0.0978,39.3800,72,96,217146
1.7742,0.0929,39.4400,72,96,217149
1.7986,0.0929,39.2800,72,96,217152
1.7693,0.1026,39.4100,72,96,217155
1.7742,0.0929,39.4400,72,96,217159
1.7889,0.1075,39.2800,72,96,217162
1.7693,0.0929,39.4400,72,96,217165
1.8035,0.0929,39.2500,72,96,217169
1.7644,0.0929,39.4400,72,96,217172
1.7742,0.0929,39.5100,72,96,217176
1.7937,0.1026,39.3800,72,96,217180
1.7742,0.0929,39.4400,72,96,217183
1.8231,0.1124,39.2800,72,96,217186
1.7986,0.0978,39.3800,72,96,217190
1.7840,0.0929,39.2800,72,96,217193
1.7889,0.0929,39.4400,72,96,217196
1.7742,0.0929,39.4400,72,96,217199
1.8328,0.1075,39.2200,72,96,217203
1.7889,0.0733,39.4100,72,96,217206
1.7840,0.0880,39.3500,72,96,217209
1.7889,0.0929,39.4100,72,96,217213
1.7791,0.0978,39.4400,72,96,217217
1.8280,0.1026,39.1900,72,96,217220
1.8280,0.0978,39.4400,72,96,217224
1.8084,0.0929,39.3500,72,96,217227
1.7937,0.0929,39.4800,72,96,217230
1.8084,0.0978,39.5400,72,96,217235
1.8035,0.0929,39.4400,72,96,217238
1.8280,0.1320,39.3500,72,96,217242
1.8035,0.0929,39.4100,72,96,217245
1.8328,0.0929,39.4100,72,96,217248
1.8133,0.0880,39.3500,72,96,217251
1.8328,0.0978,39.4400,72,96,217255
1.8133,0.1026,39.3800,72,96,217259
1.7937,0.0978,39.4100,72,96,217262
1.8475,0.0978,39.1900,72,96,217266
1.8182,0.0929,39.3800,72,96,217269
1.8133,0.0929,39.5100,72,96,217272
1.8231,0.0978,39.4100,72,96,217276
1.8133,0.0929,39.4400,72,96,217279
1.8671,0.1124,39.1900,72,96,217282
1.8280,0.0978,39.3800,72,96,217286
1.8182,0.0880,39.3800,72,96,217289
1.8231,0.0978,39.4400,72,96,217292
1.8231,0.0929,39.5700,72,96,217295
1.8719,0.1124,39.2800,72,96,217299
1.8524,0.0978,39.5400,72,96,217303
1.8719,0.0978,39.3500,72,96,217306
1.8671,0.0929,39.4400,72,96,217310
1.8768,0.1026,39.4400,72,96,217313
1.9159,0.0929,39.2800,72,96,217316
1.8915,0.0880,39.5100,72,96,217320
1.9257,0.0978,39.4100,72,96,217323
1.9110,0.0929,39.0000,72,96,217326
1.9208,0.0978,39.4100,72,96,217330
1.9599,0.0978,39.3800,72,96,217333
1.9501,0.0929,39.5100,72,96,217336
1.9892,0.0880,39.3800,72,96,217339
1.9697,0.0929,39.4400,72,96,217344
1.9795,0.0929,39.4800,72,96,217347
1.9941,0.1026,39.4400,72,96,217350
1.9599,0.0978,39.4400,72,96,217354
1.9746,0.0929,38.6200,72,96,217357
1.9159,0.0880,39.4100,72,96,217360
1.8915,0.0929,39.4400,72,96,217364
1.8915,0.0978,39.3500,72,96,217367
1.8622,0.0929,39.4400,72,96,217370
1.9013,0.0978,39.2200,72,96,217373
1.8622,0.0978,39.3800,72,96,217377
1.8328,0.0929,39.4400,72,96,217380
1.8475,0.0929,39.4100,72,96,217383
1.7937,0.0929,39.4100,72,96,217388
1.8280,0.1124,39.3200,72,96,217391
1.7693,0.0978,39.4100,72,96,217394
1.7546,0.0929,39.3500,72,96,217398
1.7546,0.0929,39.4400,72,96,217401
1.7449,0.0929,39.4800,72,96,217404
1.7791,0.1026,39.3800,72,96,217408
1.7546,0.0978,39.4100,72,96,217411
1.7693,0.0978,39.4400,72,96,217414
1.7546,0.0929,39.4400,72,96,217417
1.7546,0.1075,39.4400,72,96,217421
1.7840,0.0978,39.4100,72,96,217424
1.7693,0.0929,39.5100,72,96,217427
1.7937,0.1026,39.4400,72,96,217432
1.7693,0.0929,39.4100,72,96,217435
1.7742,0.0978,39.4100,72,96,217438
1.8035,0.1026,39.6000,72,96,217442
1.7840,0.0978,39.4400,72,96,217445
1.7986,0.0929,39.2800,72,96,217448
1.7693,0.0929,39.4100,72,96,217452
1.7302,0.1075,39.4100,72,96,217455
1.7058,0.1026,39.3500,72,96,217458
1.6764,0.1026,39.4100,72,96,217461
1.7253,0.0978,39.2500,72,96,217465
1.7595,0.0880,39.4400,72,96,217468
1.8622,0.0929,39.4400,72,96,217472
2.0821,0.0978,39.4100,72,96,217476
2.3216,0.0929,39.4100,72,96,217479
2.7273,0.0929,39.1600,72,96,217482
3.0303,0.1124,39.3500,72,96,217486
3.3578,0.0929,39.4400,72,96,217489
3.4995,0.0978,38.8100,72,96,217492
3.4018,0.0831,39.4400,72,96,217496
3.1818,0.1075,39.3500,72,96,217499
2.7028,0.1075,39.3800,72,96,217502
2.2776,0.0978,39.3500,72,96,217505
1.8915,0.0929,39.5100,72,96,217509
1.5934,0.0978,39.4400,72,96,217512
1.4223,0.1026,39.2800,72,96,217516
1.2757,0.0929,39.4400,72,96,217520
1.2317,0.0733,39.3200,72,96,217523
1.2072,0.0929,39.4400,72,96,217526
1.2317,0.0978,39.4400,72,96,217530
1.3050,0.1026,39.5700,72,96,217533
1.3587,0.0929,39.4100,72,96,217536
1.4467,0.1026,39.3500,72,96,217539
1.4858,0.0929,39.4400,72,96,217543
1.5298,0.1124,39.4100,72,96,217546
1.5934,0.0978,39.3500,72,96,217549
1.6031,0.0929,38.9600,72,96,217553
1.6520,0.0978,39.2800,72,96,217556
1.6373,0.0929,39.3500,72,96,217560
1.6618,0.0978,39.5100,72,96,217564
1.6960,0.1026,39.4100,72,96,217567
1.6911,0.1075,39.4400,72,96,217570
1.7351,0.0978,39.1900,72,96,217574
1.7302,0.1026,39.3800,72,96,217577
1.7498,0.0929,39.4100,72,96,217580
1.7351,0.1271,39.3800,72,96,217584
1.7302,0.0929,39.4800,72,96,217587
1.7986,0.1075,39.2200,72,96,217590
1.7595,0.0733,39.4100,72,96,217593
1.7595,0.0880,39.4800,72,96,217597
1.7693,0.0978,39.4100,72,96,217601
1.7742,0.0978,39.5100,72,96,217604
1.8231,0.1026,39.2800,72,96,217608
1.8035,0.1075,39.3800,72,96,217611
1.8133,0.0978,39.3500,72,96,217614
1.8084,0.0929,39.4100,72,96,217618
1.8133,0.0929,39.4400,72,96,217621
1.8475,0.1026,39.4100,72,96,217624
1.8280,0.1222,39.4100,72,96,217627
1.8573,0.0929,39.3200,72,96,217631
1.8377,0.0929,39.4400,72,96,217634
1.8573,0.0929,39.4400,72,96,217637
1.8866,0.1026,39.4100,72,96,217641
1.8524,0.0978,39.4400,72,96,217645
1.8964,0.0929,39.3500,72,96,217648
1.8719,0.1173,39.3800,72,96,217652
1.8866,0.0929,39.4400,72,96,217655
1.9110,0.0978,39.3500,72,96,217658
1.9110,0.0929,39.4400,72,96,217662
1.9501,0.0978,38.7700,72,96,217665
1.9306,0.0978,39.4100,72,96,217668
1.9257,0.0929,39.4800,72,96,217671
1.9697,0.1026,39.3800,72,96,217675
1.9550,0.0929,39.4400,72,96,217678
2.0186,0.0929,39.2200,72,96,217681
1.9844,0.0929,39.3500,72,96,217686
1.9990,0.1026,39.4400,72,96,217689
2.0235,0.0733,39.4400,72,96,217692
2.0283,0.1026,39.4400,72,96,217696
2.0919,0.0929,39.1900,72,96,217699
2.0674,0.0978,39.3800,72,96,217702
2.0626,0.0880,39.3800,72,96,217705
2.1065,0.0929,39.4400,72,96,217709
2.0870,0.0978,39.4400,72,96,217712
2.1603,0.1026,39.1900,72,96,217715
2.1212,0.0978,39.4100,72,96,217719
2.1408,0.0929,39.3500,72,96,217722
2.1359,0.1075,39.4100,72,96,217725
2.1359,0.1026,39.4400,72,96,217730
2.1750,0.1026,39.3500,72,96,217733
2.1505,0.0978,39.4100,72,96,217736
2.1701,0.0978,39.3200,72,96,217739
2.1457,0.0978,38.9000,72,96,217743
2.1457,0.0978,39.4100,72,96,217746
2.1554,0.0929,39.3800,72,96,217749
2.1359,0.0929,39.4400,72,96,217753
2.1848,0.0978,39.3500,72,96,217756
2.1065,0.0978,39.4400,72,96,217759
2.0821,0.0880,39.4400,72,96,217763
2.0968,0.1026,39.3200,72,96,217766
2.0332,0.0929,39.4100,72,96,217769
2.0381,0.0978,39.2800,72,96,217773
2.0088,0.0978,39.3500,72,96,217777
1.9501,0.0929,39.4400,72,96,217780
1.9355,0.1075,39.3800,72,96,217783
1.8915,0.0978,39.4400,72,96,217787
1.8964,0.0978,39.2200,72,96,217790
1.8573,0.0929,39.4400,72,96,217793
1.7986,0.0929,39.4400,72,96,217797
1.7840,0.1026,39.4100,72,96,217800
1.7400,0.0978,39.4100,72,96,217803
1.7693,0.0929,39.1900,72,96,217806
1.7107,0.0929,39.3800,72,96,217810
1.7009,0.0880,39.4100,72,96,217814
1.6911,0.0978,39.4800,72,96,217817
1.6911,0.0978,39.4400,72,96,217821
1.7155,0.1075,39.2800,72,96,217824
1.6911,0.1075,39.3800,72,96,217827
1.6618,0.0978,39.3800,72,96,217831
1.6569,0.0978,39.5400,72,96,217834
1.6520,0.0978,39.4400,72,96,217837
1.6862,0.1026,39.2800,72,96,217841
1.6960,0.0978,39.3500,72,96,217845
1.6862,0.0978,39.4100,72,96,217849
1.7204,0.0978,39.3200,72,96,217852
1.7009,0.0929,39.4100,72,96,217856
1.7058,0.0929,39.4100,72,96,217859
1.7253,0.0978,39.3200,72,96,217863
1.7155,0.0978,39.4400,72,96,217866
1.7546,0.1075,39.2500,72,96,217869
1.7253,0.0733,39.4400,72,96,217873
1.7351,0.0929,39.4100,72,96,217876
1.7595,0.0929,39.3800,72,96,217879
1.7400,0.0929,39.5400,72,96,217883
1.7937,0.1075,39.1900,72,96,217886
1.7693,0.0978,39.3500,72,96,217889
1.7546,0.0929,39.2500,72,96,217892
1.7595,0.0978,39.5400,72,96,217896
1.7546,0.0929,39.4400,72,96,217900
1.8133,0.1075,39.2200,72,96,217903
1.7742,0.0978,39.4400,72,96,217907
1.7742,0.0929,39.3800,72,96,217910
1.7742,0.0733,39.4400,72,96,217913
1.7644,0.0929,39.5100,72,96,217917
1.8133,0.1026,39.3200,72,96,217920
1.7742,0.0978,39.4100,72,96,217923
1.7840,0.0978,39.3500,72,96,217927
1.7693,0.0733,39.4400,72,96,217930
1.7693,0.0978,39.5100,72,96,217933
1.7937,0.1026,39.4100,72,96,217936
1.7791,0.0978,39.3800,72,96,217940
1.7986,0.0978,39.3500,72,96,217944
1.7742,0.0978,39.3800,72,96,217947
1.7742,0.0978,39.4400,72,96,217951
1.8035,0.1026,39.3200,72,96,217954
1.7693,0.1026,39.4100,72,96,217957
1.7986,0.0929,39.3800,72,96,217961
1.7742,0.1026,39.3800,72,96,217964
1.7693,0.0929,39.4400,72,96,217967
1.7791,0.1222,39.3800,72,96,217971
1.7595,0.0929,39.4400,72,96,217974
1.8035,0.0978,39.2500,72,96,217977
1.7791,0.0978,39.3800,72,96,217980
1.7742,0.0929,39.4400,72,96,217985
1.7889,0.1320,39.3800,72,96,217988
1.7791,0.0978,39.4100,72,96,217991
1.8231,0.1026,39.1600,72,96,217995
1.7889,0.0929,39.3500,72,96,217998
1.7742,0.0880,39.4800,72,96,218001
1.7791,0.1173,39.4100,72,96,218005
1.7693,0.0929,39.5100,72,96,218008
1.8133,0.1124,39.3500,72,96,218011
1.7840,0.1026,39.4100,72,96,218015
1.7791,0.0929,39.5400,72,96,218018
1.7742,0.0929,39.4400,72,96,218021
1.7693,0.0929,39.4400,72,96,218024
1.8035,0.1466,39.2800,72,96,218029
1.7742,0.0978,39.4400,72,96,218032
1.7937,0.0929,39.2800,72,96,218035
1.7742,0.0929,39.4800,72,96,218039
1.7742,0.0978,39.4100,72,96,218042
1.7986,0.1124,39.3500,72,96,218045
1.7742,0.0733,39.4400,72,96,218049
1.8035,0.0929,39.3500,72,96,218052
1.7791,0.0880,39.4400,72,96,218055
1.7791,0.0929,39.5100,72,96,218059
1.7937,0.0978,39.3500,72,96,218062
1.7791,0.0978,39.5100,72,96,218065
1.8035,0.0978,39.2200,72,96,218068
1.7693,0.0978,39.4400,72,96,218073
1.7840,0.0929,39.6000,72,96,218076
1.8035,0.0978,39.3800,72,96,218079
1.7889,0.0978,39.5400,72,96,218083
1.8328,0.1026,39.2500,72,96,218086
1.8084,0.0978,39.3500,72,96,218089
1.7937,0.0929,39.4400,72,96,218093
1.8280,0.0978,39.4100,72,96,218096
1.7986,0.0978,39.5100,72,96,218099
1.8524,0.1075,39.1900,72,96,218102
1.8182,0.0978,39.3800,72,96,218106
1.8035,0.0929,39.4100,72,96,218109
1.8035,0.1075,39.4400,72,96,218113
1.8280,0.0978,39.4400,72,96,218117
1.8475,0.1075,39.2800,72,96,218120
1.8133,0.0929,39.3800,72,96,218123
1.8133,0.0929,39.3500,72,96,218127
1.8035,0.1075,39.4100,72,96,218130
1.8035,0.0929,39.4400,72,96,218133
1.8328,0.1222,39.3500,72,96,218137
1.8231,0.0978,39.5100,72,96,218140
1.8573,0.0978,39.3800,72,96,218143
1.8426,0.0978,39.4400,72,96,218147
1.8573,0.0929,39.5100,72,96,218150
1.8964,0.1026,39.3200,72,96,218153
1.8719,0.0978,39.4100,72,96,218157
1.9110,0.0978,39.3200,72,96,218161
1.8915,0.0978,39.4100,72,96,218164
1.8915,0.1026,39.4400,72,96,218167
1.9208,0.0978,39.4400,72,96,218171
1.9208,0.0978,39.4800,72,96,218174
2.0088,0.0978,39.2200,72,96,218177
1.9648,0.0929,39.3800,72,96,218181
1.9697,0.0929,39.5100,72,96,218184
1.9941,0.1124,39.4400,72,96,218187
1.9599,0.0978,39.4400,72,96,218190
1.9941,0.1026,39.2500,72,96,218194
1.9306,0.0929,39.3800,72,96,218198
1.9062,0.0929,39.8000,72,96,218201
1.8866,0.1075,39.4100,72,96,218205
1.8524,0.0978,39.4400,72,96,218208
1.8964,0.1124,39.2200,72,96,218211
1.8475,0.1026,39.3800,72,96,218215
1.8377,0.0929,39.3500,72,96,218218
1.8182,0.0978,39.4400,72,96,218221
1.7986,0.0929,39.4400,72,96,218225
1.8377,0.1026,39.2800,72,96,218228
1.7693,0.1026,39.4400,72,96,218231
1.7693,0.1026,39.3200,72,96,218234
1.7449,0.0978,39.4400,72,96,218238
1.7400,0.0978,39.5100,72,96,218242
1.7644,0.0929,39.3200,72,96,218245
1.7449,0.0978,39.4400,72,96,218249
1.7644,0.1320,39.3800,72,96,218252
1.7302,0.0929,39.4800,72,96,218255
1.7449,0.0929,39.3800,72,96,218259
1.7791,0.0929,39.3500,72,96,218262
1.7546,0.0978,39.4100,72,96,218265
1.7791,0.0978,39.3200,72,96,218269
1.7595,0.0978,39.3500,72,96,218272
1.7644,0.0929,39.4100,72,96,218275
1.7840,0.1026,39.3800,72,96,218278
1.7693,0.1222,39.4100,72,96,218283
1.8084,0.0929,39.2200,72,96,218286
1.7840,0.1026,39.3500,72,96,218289
1.7546,0.0929,39.4400,72,96,218293
1.7302,0.1026,39.3800,72,96,218296
1.6911,0.1026,39.4100,72,96,218299
1.7253,0.1026,39.1900,72,96,218303
1.7009,0.0929,39.3800,72,96,218306
1.7595,0.0831,39.4400,72,96,218309
1.8915,0.0978,39.4400,72,96,218313
2.0772,0.1173,39.4400,72,96,218316
2.4194,0.1124,39.2800,72,96,218319
2.7126,0.1124,39.3800,72,96,218322
3.0645,0.0733,39.3800,72,96,218327
3.3529,0.0978,39.5400,72,96,218330
3.4751,0.0929,39.4400,72,96,218333
3.4164,0.1320,39.4100,72,96,218337
3.0694,0.0978,39.4400,72,96,218340
2.6686,0.0978,39.3500,72,96,218343
2.2141,0.1173,39.4100,72,96,218347
1.8524,0.0733,39.4400,72,96,218350
1.5934,0.1075,39.3200,72,96,218353
1.3685,0.0978,39.4400,72,96,218357
1.2708,0.1075,39.3800,72,96,218360
1.1926,0.0929,39.4400,72,96,218363
1.1828,0.0929,39.4400,72,96,218366
1.2219,0.0978,39.3800,72,96,218371
1.2659,0.0929,39.4400,72,96,218374
1.3539,0.0978,39.1900,72,96,218377
1.4076,0.0929,39.3800,72,96,218381
1.4614,0.0929,39.4800,72,96,218384
1.5347,0.1075,39.3500,72,96,218387
1.5591,0.0978,39.4400,72,96,218391
1.6276,0.1026,39.1900,72,96,218394
1.6129,0.0929,39.3800,72,96,218397
1.6373,0.0978,39.4400,72,96,218401
1.6618,0.1026,39.4400,72,96,218404
1.6569,0.1026,39.4100,72,96,218407
1.7204,0.1173,39.2200,72,96,218411
1.6911,0.1026,39.4100,72,96,218415
1.6911,0.0929,39.4100,72,96,218418
1.7009,0.0978,39.2500,72,96,218421
1.7107,0.1075,39.4400,72,96,218425
1.7595,0.1026,39.2800,72,96,218428
1.7302,0.1026,39.5100,72,96,218431
1.7546,0.0978,39.4100,72,96,218435
1.7400,0.0978,39.4400,72,96,218438
1.7449,0.0978,39.4100,72,96,218441
1.7791,0.0733,39.3800,72,96,218445
1.7595,0.0978,39.4100,72,96,218448
1.7840,0.0880,39.3200,72,96,218451
1.7693,0.0978,39.4400,72,96,218455
1.8035,0.0929,39.4400,72,96,218460
1.8084,0.0978,39.1900,72,96,218463
1.8328,0.1369,39.3800,72,96,218467
1.8231,0.0978,39.4400,72,96,218470
1.8768,0.1026,39.2200,72,96,218473
1.8573,0.1026,39.4100,72,96,218477
1.8524,0.0929,39.4100,72,96,218480
1.8622,0.1026,39.4100,72,96,218483
1.8671,0.0978,39.4800,72,96,218487
1.9257,0.1124,39.1900,72,96,218490
1.8964,0.0978,39.4100,72,96,218493
1.9355,0.0929,39.4100,72,96,218498
1.9110,0.0978,39.3500,72,96,218501
1.9208,0.1075,39.4400,72,96,218504
1.9746,0.0929,39.2800,72,96,218507
1.9697,0.1026,39.4100,72,96,218511
1.9795,0.0978,39.3500,72,96,218514
1.9795,0.0929,39.4400,72,96,218517
1.9892,0.1026,39.5100,72,96,218521
2.0332,0.1075,39.3800,72,96,218524
2.0235,0.0978,39.4800,72,96,218527
