ecg,gsr,temp,hr,spo2,timest
1.9453,0.3128,37.4000,39,98,364023
1.9159,0.3079,37.6200,39,98,364027
1.8964,0.3030,37.7700,39,98,364030
1.9013,0.3079,37.7100,39,98,364034
1.8915,0.3030,37.7700,39,98,364038
1.9453,0.3226,37.4900,39,98,364041
1.9062,0.3079,37.6200,39,98,364044
1.8964,0.3030,37.7100,39,98,364047
1.8964,0.3079,36.8800,39,98,364051
1.8817,0.3128,37.8000,39,98,364054
1.9306,0.3177,37.5600,39,98,364057
1.9013,0.3470,37.6500,39,98,364061
1.8964,0.3030,37.6800,39,98,364064
1.8866,0.3079,37.7100,39,98,364067
1.8817,0.3128,37.7400,39,98,364071
1.9110,0.3079,37.6800,39,98,364075
1.8866,0.3079,37.7400,39,98,364078
1.9013,0.3079,37.7100,39,98,364081
1.8719,0.3079,37.7400,39,98,364085
1.8719,0.3030,37.6800,39,98,364088
1.8964,0.3128,37.6200,39,98,364091
1.8768,0.3079,37.6500,39,98,364095
1.8719,0.3030,37.7400,39,98,364098
1.8719,0.3128,37.4600,39,98,364102
1.8328,0.3128,37.6200,39,98,364105
1.8280,0.3030,37.7100,39,98,364108
1.8524,0.3226,37.6800,39,98,364112
1.8280,0.3030,37.8000,39,98,364115
1.8671,0.3128,37.4900,39,98,364119
1.8231,0.3030,37.6800,39,98,364123
1.8133,0.3128,37.7400,39,98,364126
1.8133,0.3079,37.7400,39,98,364129
1.8035,0.3324,37.8700,39,98,364132
1.8524,0.3226,37.5300,39,98,364136
1.8084,0.3128,37.6500,39,98,364139
1.7840,0.3030,37.6800,39,98,364142
1.7840,0.3030,37.7400,39,98,364146
1.7791,0.3030,37.7400,39,98,364149
1.8133,0.3128,37.5300,39,98,364152
1.7791,0.3079,37.6800,39,98,364156
1.7742,0.3079,37.5900,39,98,364160
1.7498,0.2884,37.7400,39,98,364163
1.7449,0.3030,37.6800,39,98,364166
1.7693,0.3128,37.6200,39,98,364170
1.7449,0.3079,37.8300,39,98,364173
1.7595,0.3128,37.5900,39,98,364176
1.7351,0.3030,37.7700,39,98,364180
1.7449,0.3030,37.7400,39,98,364183
1.7546,0.3030,37.5900,39,98,364186
1.7546,0.3079,37.7400,39,98,364190
1.7889,0.3079,37.5900,39,98,364193
1.7840,0.2981,37.7400,39,98,364196
1.7791,0.3030,37.7700,39,98,364199
1.8133,0.3470,37.6500,39,98,364204
1.8133,0.3079,37.8300,39,98,364207
1.8622,0.3128,37.4900,39,98,364210
1.8622,0.3079,37.6200,39,98,364214
1.8719,0.3079,37.7100,39,98,364217
1.9062,0.3079,37.6500,39,98,364220
1.9013,0.3079,37.7100,39,98,364224
1.9599,0.3128,37.4600,39,98,364227
1.9306,0.3079,37.6500,39,98,364230
1.9306,0.3030,37.8300,39,98,364234
1.9404,0.3079,37.6800,39,98,364237
1.9355,0.2884,37.7100,39,98,364240
1.9892,0.3275,37.4600,39,98,364243
1.9550,0.3079,37.7400,39,98,364248
1.9404,0.2933,37.7100,39,98,364251
1.9404,0.3079,37.7400,39,98,364254
1.9648,0.2981,37.7700,39,98,364258
1.9648,0.3177,37.7100,39,98,364261
1.9599,0.3079,37.7100,39,98,364264
1.9306,0.3079,37.6200,39,98,364268
1.9208,0.2884,37.7400,39,98,364271
1.9013,0.3030,37.7400,39,98,364274
1.9355,0.3177,37.5300,39,98,364277
1.9062,0.3079,37.7400,39,98,364281
1.9257,0.3470,37.5900,39,98,364284
1.9013,0.3030,37.7400,39,98,364288
1.9062,0.3030,37.5600,39,98,364292
1.9599,0.3079,37.6200,39,98,364295
1.9110,0.3079,37.7400,39,98,364298
1.9404,0.3030,37.6500,39,98,364302
1.9062,0.2981,37.7100,39,98,364305
1.9110,0.3030,37.6800,39,98,364308
1.9257,0.3128,37.5900,39,98,364311
1.8964,0.3030,37.7400,39,98,364315
1.9110,0.3128,37.5600,39,98,364318
1.8719,0.3079,37.8300,39,98,364321
1.8817,0.3030,37.6800,39,98,364325
1.8719,0.3079,37.7700,39,98,364328
1.8573,0.2981,37.7400,39,98,364332
1.8915,0.3128,37.4600,39,98,364336
1.8573,0.3079,37.6200,39,98,364339
1.8475,0.3030,37.8000,39,98,364342
1.8573,0.3079,37.7100,39,98,364345
1.8426,0.3079,37.7700,39,98,364349
1.8915,0.3177,37.4600,39,98,364352
1.8426,0.3177,37.6200,39,98,364355
1.8231,0.3030,37.7100,39,98,364359
1.8280,0.3372,37.7400,39,98,364362
1.8182,0.3079,37.7700,39,98,364365
1.8671,0.3177,37.5600,39,98,364369
1.8426,0.3079,37.6800,39,98,364372
1.8475,0.3079,37.6500,39,98,364376
1.8573,0.2884,37.7400,39,98,364380
1.9208,0.3030,37.7700,39,98,364383
2.0332,0.3128,37.6800,39,98,364386
2.0968,0.3128,37.5900,39,98,364389
2.1994,0.3128,37.5600,39,98,364393
2.2336,0.3421,37.7400,39,98,364396
2.2630,0.3079,37.7700,39,98,364399
2.1994,0.3079,37.9600,39,98,364403
2.0528,0.3079,37.7400,39,98,364406
1.9355,0.3079,37.6500,39,98,364409
1.7693,0.3030,37.6200,39,98,364413
1.6618,0.3030,37.7700,39,98,364417
1.6031,0.3128,37.6200,39,98,364420
1.5298,0.3030,37.7400,39,98,364423
1.5347,0.3030,37.5600,39,98,364427
1.5054,0.3030,37.6800,39,98,364430
1.4907,0.3030,37.7100,39,98,364433
1.4761,0.3128,37.6500,39,98,364437
1.3930,0.3030,37.7400,39,98,364440
1.3539,0.3128,37.4300,39,98,364443
1.2512,0.3030,37.6500,39,98,364447
1.1926,0.3079,37.7400,39,98,364450
1.1632,0.3079,37.7100,39,98,364453
1.1584,0.2884,37.7700,39,98,364456
1.2219,0.3226,37.4600,39,98,364461
1.2659,0.3128,37.6500,39,98,364464
1.3539,0.2981,36.8800,39,98,364467
1.4614,0.3030,37.7400,39,98,364471
1.5689,0.3030,37.7100,39,98,364474
1.7058,0.3128,37.5900,39,98,364477
1.7791,0.3030,37.6800,39,98,364481
1.8573,0.3030,37.6800,39,98,364484
1.9110,0.3030,37.7700,39,98,364487
1.9550,0.2933,37.7400,39,98,364490
2.0186,0.3079,37.7100,39,98,364494
2.0088,0.3128,37.7400,39,98,364497
2.0332,0.3079,37.5900,39,98,364500
2.0137,0.3030,37.7100,39,98,364505
2.0430,0.3030,37.7400,39,98,364508
2.0381,0.3079,37.6800,39,98,364511
2.0186,0.3030,37.7400,39,98,364515
2.0430,0.3128,37.6500,39,98,364518
2.0039,0.3030,37.7700,39,98,364521
1.9990,0.3079,37.7400,39,98,364524
2.0235,0.3128,37.6800,39,98,364528
2.0283,0.3079,37.7700,39,98,364531
2.0137,0.3030,37.5900,39,98,364534
1.9892,0.3030,37.6500,39,98,364538
1.9892,0.3128,37.7700,39,98,364541
2.0088,0.3128,37.6500,39,98,364545
1.9795,0.2981,37.7100,39,98,364549
2.0186,0.3079,37.4600,39,98,364552
1.9892,0.2981,37.6800,39,98,364555
1.9648,0.3030,37.8000,39,98,364558
1.9844,0.3079,37.6500,39,98,364562
1.9648,0.3030,37.7400,39,98,364565
2.0039,0.3128,37.4000,39,98,364568
1.9844,0.2884,37.6500,39,98,364572
1.9550,0.2981,37.7700,39,98,364575
1.9453,0.3079,37.7400,39,98,364578
1.9306,0.3030,37.8700,39,98,364582
1.9844,0.3666,37.4600,39,98,364585
1.9306,0.3079,37.6800,39,98,364589
1.9208,0.3030,37.6500,39,98,364592
1.9208,0.3079,37.7400,39,98,364596
1.9159,0.3030,37.7400,39,98,364599
1.9599,0.3128,37.5600,39,98,364602
1.9306,0.3079,37.6500,39,98,364606
1.9501,0.3079,37.6500,39,98,364609
1.9208,0.3079,38.0200,39,98,364612
1.9062,0.3128,37.7700,39,98,364616
1.9306,0.3079,37.5900,39,98,364619
1.9013,0.3079,37.7100,39,98,364622
1.9062,0.3079,37.5900,39,98,364625
1.8719,0.3030,37.7400,39,98,364630
1.8622,0.3030,37.7700,39,98,364633
1.8768,0.3030,37.6500,39,98,364636
1.8768,0.3030,37.7100,39,98,364640
1.8719,0.3079,37.7400,39,98,364643
1.8377,0.3030,37.7400,39,98,364646
1.8377,0.3030,38.0500,39,98,364650
1.8671,0.3226,37.6800,39,98,364653
1.8475,0.3079,37.8300,39,98,364656
1.8768,0.3079,37.5600,39,98,364659
1.8573,0.3079,37.6800,39,98,364663
1.8426,0.3030,37.8300,39,98,364666
1.8573,0.3128,37.6500,39,98,364669
1.8328,0.3617,37.7100,39,98,364674
1.8964,0.3128,37.4900,39,98,364677
1.8328,0.3079,37.6200,39,98,364680
1.8182,0.2981,37.7400,39,98,364684
1.8133,0.3128,37.8000,39,98,364687
1.7840,0.2981,37.7400,39,98,364690
1.8328,0.3177,37.4300,39,98,364693
1.8280,0.3079,37.5900,39,98,364697
1.7889,0.2981,37.7100,39,98,364700
1.8377,0.2981,37.7100,39,98,364703
1.8524,0.3177,37.7700,39,98,364707
1.8622,0.3030,37.7700,39,98,364710
1.9062,0.3177,37.5900,39,98,364715
1.8964,0.3030,37.9600,39,98,364718
1.9355,0.3030,37.6500,39,98,364721
1.9159,0.2981,37.7100,39,98,364725
1.9257,0.3177,37.7400,39,98,364728
1.9550,0.3079,38.0800,39,98,364731
1.9453,0.3177,37.7100,39,98,364735
1.9844,0.3128,37.5300,39,98,364738
1.9746,0.2981,37.6800,39,98,364741
1.9795,0.3030,37.7400,39,98,364744
2.0088,0.3079,37.5600,39,98,364748
1.9892,0.3030,37.7400,39,98,364751
2.0235,0.3128,37.7400,39,98,364754
1.9795,0.2981,37.7100,39,98,364759
1.9795,0.3030,37.7100,39,98,364762
1.9892,0.3128,37.6500,39,98,364765
1.9648,0.3030,37.7400,39,98,364769
2.0088,0.3177,37.4600,39,98,364772
1.9697,0.3128,37.6200,39,98,364775
1.9404,0.3030,37.7400,39,98,364778
1.9453,0.3079,37.7700,39,98,364782
1.9355,0.3030,37.7400,39,98,364785
1.9941,0.3226,37.5300,39,98,364788
1.9550,0.3128,37.6800,39,98,364792
1.9355,0.3030,37.6500,39,98,364795
1.9257,0.3079,37.7400,39,98,364798
1.9110,0.3079,37.7700,39,98,364803
1.9795,0.3128,37.5900,39,98,364806
1.9159,0.3079,37.6500,39,98,364809
1.9550,0.2981,37.6200,39,98,364812
1.9062,0.3030,37.7400,39,98,364816
1.9013,0.3030,37.8000,39,98,364819
1.9159,0.3128,37.6800,39,98,364822
1.8915,0.3177,37.7400,39,98,364826
1.8964,0.3128,37.6500,39,98,364829
1.8622,0.2981,37.7400,39,98,364832
1.8524,0.3030,37.8000,39,98,364836
1.8817,0.3079,37.5600,39,98,364839
1.8524,0.3030,37.7400,39,98,364843
1.8768,0.3079,37.6200,39,98,364846
1.8524,0.3030,37.6800,39,98,364850
1.8426,0.3030,37.7400,39,98,364853
1.8475,0.3128,37.5900,39,98,364856
1.8182,0.3030,37.9600,39,98,364860
1.8377,0.3177,37.4900,39,98,364863
1.8035,0.3079,37.7100,39,98,364866
1.8231,0.2981,37.7700,39,98,364870
1.8035,0.3079,37.6800,39,98,364873
1.7791,0.3079,37.7700,39,98,364876
1.8475,0.3128,37.4600,39,98,364879
1.7791,0.3128,37.5900,39,98,364883
1.7693,0.3030,37.7700,39,98,364887
1.7693,0.3079,37.7100,39,98,364890
1.7546,0.3030,37.8300,39,98,364894
1.7986,0.3324,37.5300,39,98,364897
1.7644,0.3079,37.6200,39,98,364900
1.7449,0.2981,37.7100,39,98,364904
1.7498,0.3079,37.8000,39,98,364907
1.7498,0.3079,37.7400,39,98,364910
1.7840,0.3177,37.4900,39,98,364914
1.7644,0.3030,37.6800,39,98,364917
1.7644,0.3079,37.5900,39,98,364920
1.7449,0.3030,37.7400,39,98,364923
1.7644,0.3030,37.7700,39,98,364928
1.8377,0.3079,37.7400,39,98,364931
1.8866,0.3030,37.6800,39,98,364934
1.9941,0.3128,37.5900,39,98,364938
2.0479,0.3030,37.7400,39,98,364941
2.1212,0.3030,37.7400,39,98,364944
2.1554,0.3030,37.9300,39,98,364948
2.1017,0.3079,37.8000,39,98,364951
2.0528,0.3128,37.6200,39,98,364954
1.9110,0.3128,37.8000,39,98,364957
1.8035,0.3030,37.7700,39,98,364961
1.7449,0.3079,37.4600,39,98,364964
1.6618,0.3030,37.7400,39,98,364967
1.6618,0.3079,37.4600,39,98,364972
1.6520,0.2981,37.6500,39,98,364975
1.6667,0.3030,37.7400,39,98,364978
1.6813,0.3177,37.6200,39,98,364982
1.6227,0.3079,37.8300,39,98,364985
1.5885,0.3177,37.4600,39,98,364988
1.4809,0.3079,37.6200,39,98,364991
1.3930,0.3128,37.7100,39,98,364995
1.3441,0.3128,37.7400,39,98,364998
1.3001,0.3079,37.7400,39,98,365001
1.3490,0.3177,37.3700,39,98,365005
1.3636,0.2981,37.5900,39,98,365008
1.4321,0.2981,37.7400,39,98,365011
1.5347,0.3128,37.7400,39,98,365016
1.5982,0.3030,37.7700,39,98,365019
1.7351,0.3226,37.6200,39,98,365022
1.7742,0.3079,37.9000,39,98,365025
1.8328,0.3030,37.6500,39,98,365029
1.8817,0.3079,37.4900,39,98,365032
1.9208,0.2981,37.7400,39,98,365035
1.9941,0.3128,37.5600,39,98,365039
1.9844,0.2981,37.7100,39,98,365042
2.0088,0.3079,37.6200,39,98,365045
1.9941,0.3079,37.7400,39,98,365049
1.9892,0.3079,37.8000,39,98,365052
2.0137,0.3079,37.6500,39,98,365056
1.9892,0.3079,37.7400,39,98,365059
2.0039,0.3128,37.6200,39,98,365063
1.9648,0.3079,37.8000,39,98,365066
1.9795,0.3079,37.7400,39,98,365069
1.9697,0.3079,37.6200,39,98,365073
1.9697,0.3079,37.7400,39,98,365076
2.0235,0.3128,37.6200,39,98,365079
1.9501,0.3030,37.7700,39,98,365083
1.9795,0.3030,37.7400,39,98,365086
1.9648,0.3128,37.7100,39,98,365089
1.9404,0.3030,37.7100,39,98,365092
1.9746,0.3128,37.6500,39,98,365096
1.9550,0.2981,37.6200,39,98,365100
1.9404,0.3030,37.7700,39,98,365103
1.9501,0.3177,37.6800,39,98,365107
1.9110,0.3030,38.0200,39,98,365110
1.9453,0.3226,37.4300,39,98,365113
1.9013,0.3079,37.9300,39,98,365117
1.8866,0.3079,37.7100,39,98,365120
1.8915,0.3079,37.7400,39,98,365123
1.8622,0.2981,37.6800,39,98,365126
1.9013,0.3372,37.4600,39,98,365130
1.8573,0.3079,37.6200,39,98,365133
1.8475,0.3030,37.6500,39,98,365136
1.8524,0.3079,37.6800,39,98,365140
1.8524,0.3030,37.7700,39,98,365144
1.9013,0.3226,37.5900,39,98,365147
1.8768,0.3128,37.7100,39,98,365151
1.8768,0.3079,37.5900,39,98,365154
1.8622,0.3030,37.8000,39,98,365157
1.8622,0.3030,37.8700,39,98,365160
1.8866,0.3128,37.6200,39,98,365164
1.8768,0.3275,37.8000,39,98,365167
1.8866,0.3128,37.5600,39,98,365170
1.8573,0.3030,37.9000,39,98,365174
1.8475,0.3030,37.7700,39,98,365177
1.8671,0.3128,37.6500,39,98,365180
1.8328,0.3030,37.7400,39,98,365185
1.8524,0.3079,37.6500,39,98,365188
1.8328,0.3128,37.7100,39,98,365191
1.8377,0.3030,37.7400,39,98,365194
1.8573,0.3079,37.6200,39,98,365198
1.8328,0.3030,37.7100,39,98,365201
1.8622,0.3079,37.5300,39,98,365204
1.8377,0.3079,37.7700,39,98,365208
1.8426,0.3030,37.7700,39,98,365211
1.8866,0.3128,37.6800,39,98,365214
1.8475,0.3030,37.7400,39,98,365218
1.9062,0.3128,37.4900,39,98,365221
1.8915,0.3079,37.6800,39,98,365224
1.8866,0.2981,37.7400,39,98,365228
1.9110,0.3079,37.9300,39,98,365232
1.9110,0.3079,37.7400,39,98,365235
1.9844,0.3226,37.4300,39,98,365238
1.9746,0.3079,37.6800,39,98,365242
1.9599,0.2981,37.7400,39,98,365245
1.9795,0.3030,37.6800,39,98,365248
1.9844,0.3030,37.8300,39,98,365252
2.0430,0.3226,37.5900,39,98,365255
2.0235,0.3128,37.6500,39,98,365258
2.0137,0.3030,37.6500,39,98,365261
1.9990,0.3128,37.7400,39,98,365265
1.9844,0.3079,37.6500,39,98,365268
2.0332,0.3128,37.6500,39,98,365272
1.9795,0.3079,37.7400,39,98,365276
1.9990,0.3079,37.6500,39,98,365279
1.9746,0.3030,37.7400,39,98,365282
1.9697,0.3030,37.7100,39,98,365286
1.9990,0.3177,37.5900,39,98,365289
1.9599,0.2933,37.7400,39,98,365292
1.9844,0.3128,37.6200,39,98,365296
1.9550,0.2981,37.6800,39,98,365299
1.9648,0.3030,37.7700,39,98,365302
1.9697,0.3177,37.5900,39,98,365305
1.9404,0.3079,37.7400,39,98,365309
1.9404,0.3079,37.6200,39,98,365313
1.8915,0.3128,37.4900,39,98,365317
1.8573,0.3079,37.6800,39,98,365320
1.8524,0.3030,37.7400,39,98,365323
1.8622,0.3079,37.7100,39,98,365327
1.8426,0.3079,37.7700,39,98,365330
1.8964,0.3226,37.5600,39,98,365333
1.8524,0.3128,37.6500,39,98,365337
1.8426,0.3177,37.6800,39,98,365340
1.8475,0.3030,37.7100,39,98,365343
1.8426,0.3128,37.7400,39,98,365346
1.8719,0.3128,37.5600,39,98,365350
1.8377,0.2884,37.7400,39,98,365353
1.8328,0.3079,37.8300,39,98,365357
1.8573,0.3079,37.7400,39,98,365361
1.8182,0.3030,37.7700,39,98,365364
1.8280,0.3128,37.6200,39,98,365367
1.7986,0.3128,37.8000,39,98,365371
1.8084,0.3128,37.6500,39,98,365374
1.7840,0.3030,37.7400,39,98,365377
1.7791,0.3030,37.7100,39,98,365380
1.8035,0.2981,37.6500,39,98,365384
1.7546,0.3030,37.7400,39,98,365387
1.7644,0.3177,37.6200,39,98,365390
1.7302,0.3030,37.9000,39,98,365394
1.7302,0.2981,37.7400,39,98,365398
1.7595,0.3128,37.5300,39,98,365401
1.7351,0.2884,37.7100,39,98,365405
1.7693,0.3128,37.7100,39,98,365408
1.7840,0.2884,37.6200,39,98,365411
1.7400,0.3030,37.7700,39,98,365415
1.7693,0.3128,37.7400,39,98,365418
1.7351,0.3030,37.3700,39,98,365421
1.7742,0.3226,37.4300,39,98,365424
1.7302,0.3079,37.6500,39,98,365428
1.7058,0.3079,37.7700,39,98,365431
1.7058,0.3128,37.7700,39,98,365434
1.6813,0.3030,37.7400,39,98,365438
1.7302,0.3177,37.5300,39,98,365442
1.7400,0.3128,37.6200,39,98,365445
1.7107,0.3030,37.6800,39,98,365449
1.7253,0.3030,37.7100,39,98,365452
1.7351,0.3030,37.8300,39,98,365455
1.7791,0.3226,37.5900,39,98,365458
1.7546,0.3079,37.7700,39,98,365462
1.7693,0.3079,37.6200,39,98,365465
1.7546,0.3030,36.9800,39,98,365468
1.7498,0.3128,37.7700,39,98,365472
1.7889,0.3079,37.5900,39,98,365475
1.7937,0.3079,37.7100,39,98,365478
1.8182,0.3079,37.6200,39,98,365483
1.8182,0.2933,37.7400,39,98,365486
1.8328,0.3030,37.7400,39,98,365489
1.8915,0.3128,37.6800,39,98,365492
1.8915,0.3079,37.7400,39,98,365496
1.9404,0.3226,37.6200,39,98,365499
1.9257,0.3030,37.7100,39,98,365502
1.9355,0.3079,37.7700,39,98,365506
1.9550,0.3128,37.5600,39,98,365509
1.9355,0.3030,37.6800,39,98,365512
1.9990,0.3128,37.5300,39,98,365516
1.9355,0.2933,37.7700,39,98,365519
1.9208,0.3030,37.7400,39,98,365522
1.9257,0.3079,37.8000,39,98,365527
1.9062,0.3030,37.8000,39,98,365530
1.9648,0.3275,37.4300,39,98,365533
1.9453,0.3079,37.6800,39,98,365536
1.9306,0.3030,37.7400,39,98,365540
1.9355,0.3079,37.7400,39,98,365543
1.9110,0.3128,37.7400,39,98,365546
1.9550,0.3226,37.4900,39,98,365550
1.9062,0.3421,37.6800,39,98,365553
1.8964,0.3030,37.6800,39,98,365556
1.8915,0.3275,37.8000,39,98,365560
1.8817,0.3030,37.7400,39,98,365563
1.9159,0.3177,37.5600,39,98,365566
1.8915,0.3128,37.6200,39,98,365570
1.8915,0.3079,37.6500,39,98,365574
1.8915,0.3079,37.7700,39,98,365577
1.8964,0.3324,37.7400,39,98,365580
1.9208,0.3079,37.6800,39,98,365584
1.8964,0.3079,37.6500,39,98,365587
1.9062,0.3177,37.5900,39,98,365590
1.8719,0.3079,37.7400,39,98,365594
1.8719,0.3030,37.7400,39,98,365597
1.8915,0.3128,37.5300,39,98,365600
1.8671,0.3030,37.7700,39,98,365604
1.8915,0.3030,37.5900,39,98,365607
1.9013,0.3030,37.6500,39,98,365611
1.8768,0.3030,37.8000,39,98,365614
1.9013,0.3128,37.6200,39,98,365618
1.8524,0.3030,37.8000,39,98,365621
1.8671,0.3177,37.6200,39,98,365624
1.8377,0.3030,37.6800,39,98,365628
1.8328,0.3030,37.7700,39,98,365631
1.8573,0.3177,37.6800,39,98,365634
1.8328,0.2981,37.6800,39,98,365637
1.8915,0.3128,37.4900,39,98,365641
1.8182,0.3128,37.6500,39,98,365644
1.8035,0.3030,37.7700,39,98,365647
1.7937,0.3079,37.7100,39,98,365651
1.7742,0.3030,37.7700,39,98,365655
1.8133,0.3226,37.4900,39,98,365658
1.7644,0.3128,37.7700,39,98,365662
1.7449,0.2981,37.7100,39,98,365665
1.7400,0.3079,37.7400,39,98,365668
1.7253,0.3128,37.7400,39,98,365672
1.7644,0.3079,37.5600,39,98,365675
1.7693,0.3128,37.6800,39,98,365678
1.7400,0.3030,37.6500,39,98,365681
1.7302,0.3079,37.7700,39,98,365685
1.7449,0.3030,37.7400,39,98,365688
1.7595,0.3079,37.6800,39,98,365691
1.7400,0.3079,37.7400,39,98,365696
1.7595,0.2884,37.6200,39,98,365699
1.7400,0.3079,37.7400,39,98,365702
1.7644,0.3030,37.7100,39,98,365706
1.8377,0.3079,37.7100,39,98,365709
1.9159,0.3030,37.7400,39,98,365712
2.0528,0.3128,37.7100,39,98,365715
2.1310,0.3030,37.7400,39,98,365719
2.2190,0.3030,37.8000,39,98,365722
2.3021,0.3079,37.6800,39,98,365725
2.2532,0.3030,37.7700,39,98,365729
2.2141,0.3079,37.4900,39,98,365732
2.1114,0.3030,37.6800,39,98,365735
2.0137,0.3030,37.9300,39,98,365740
1.9648,0.3128,37.6200,39,98,365743
1.8817,0.3030,37.6500,39,98,365746
1.8719,0.3128,37.5300,39,98,365749
1.8280,0.3079,36.9100,39,98,365753
1.8182,0.2981,37.7400,39,98,365756
1.8231,0.3079,36.8200,39,98,365759
1.7595,0.3030,37.7100,39,98,365763
1.7253,0.3177,37.4600,39,98,365766
1.5787,0.3030,37.6200,39,98,365769
1.4663,0.2981,37.7400,39,98,365773
1.3685,0.3079,37.7400,39,98,365776
1.2854,0.2981,37.7400,39,98,365779
1.2903,0.3226,37.5600,39,98,365784
1.2757,0.3079,37.6800,39,98,365787
1.3343,0.3030,37.6500,39,98,365790
1.4027,0.3128,37.7400,39,98,365793
1.4712,0.3030,37.7400,39,98,365797
1.5836,0.3177,37.5300,39,98,365800
1.6422,0.3079,37.6800,39,98,365803
1.7155,0.3079,37.5900,39,98,365807
1.7693,0.3030,37.7400,39,98,365810
1.8280,0.3030,37.8000,39,98,365813
1.8866,0.3226,37.6500,39,98,365817
1.8866,0.3079,37.7400,39,98,365820
1.9208,0.3079,37.6200,39,98,365824
1.9062,0.3030,37.7400,39,98,365827
1.9062,0.3079,37.8000,39,98,365831
1.9208,0.3079,37.6200,39,98,365834
1.9062,0.3030,37.8000,39,98,365837
1.9257,0.3079,37.5600,39,98,365841
1.8915,0.3030,37.7400,39,98,365844
1.8915,0.3030,37.7700,39,98,365847
1.9110,0.3128,37.6800,39,98,365850
1.8964,0.3030,37.9000,39,98,365854
1.9306,0.3030,37.5600,39,98,365857
1.9062,0.3128,37.6200,39,98,365860
1.8964,0.3030,37.7400,39,98,365864
1.9110,0.3128,37.6500,39,98,365868
1.8817,0.3372,37.7400,39,98,365871
1.9208,0.3128,37.4600,39,98,365875
1.8768,0.2981,37.6800,39,98,365878
1.8573,0.3030,37.7700,39,98,365881
1.8622,0.3079,37.7700,39,98,365884
1.8573,0.3030,37.7100,39,98,365888
1.8915,0.3079,37.4300,39,98,365891
1.8573,0.3128,37.6200,39,98,365894
1.8426,0.3030,37.6800,39,98,365898
1.8377,0.3079,37.8000,39,98,365901
1.8426,0.3324,37.7700,39,98,365904
1.8866,0.3177,37.5900,39,98,365908
1.8475,0.3079,37.7100,39,98,365912
1.8622,0.3079,37.6500,39,98,365915
1.8817,0.2981,37.7400,39,98,365919
1.8377,0.3030,37.9900,39,98,365922
1.8671,0.3421,37.5600,39,98,365925
1.8035,0.3275,37.6200,39,98,365929
1.7840,0.3030,37.7400,39,98,365932
1.8133,0.3128,37.5300,39,98,365935
1.8182,0.2981,37.6200,39,98,365939
1.7889,0.3030,37.7400,39,98,365942
1.8035,0.3030,37.6800,39,98,365945
1.7791,0.3030,37.7700,39,98,365949
1.8280,0.3128,37.4600,39,98,365953
1.7840,0.2981,37.6500,39,98,365956
1.8035,0.3030,37.5900,39,98,365960
1.8182,0.2981,37.7100,39,98,365963
1.8133,0.3030,37.7700,39,98,365966
1.8866,0.3177,37.4300,39,98,365969
1.8475,0.3079,37.7400,39,98,365973
1.8426,0.2933,37.7400,39,98,365976
1.8573,0.3177,37.7100,39,98,365979
1.8671,0.3030,37.7400,39,98,365983
1.9306,0.3177,37.5300,39,98,365986
1.9110,0.3079,37.8700,39,98,365989
1.9306,0.3128,37.6200,39,98,365993
1.9404,0.3079,37.8000,39,98,365997
1.9550,0.3030,37.8300,39,98,366000
1.9990,0.3226,37.5900,39,98,366003
1.9844,0.3079,37.7100,39,98,366007
1.9990,0.3079,37.6200,39,98,366010
1.9844,0.3030,37.7400,39,98,366013
1.9795,0.3079,37.8000,39,98,366017
1.9990,0.3030,37.6800,39,98,366020
1.9892,0.3128,37.6500,39,98,366023
2.0528,0.3128,37.6500,39,98,366027
1.9892,0.3030,37.7400,39,98,366030
1.9990,0.3030,37.7400,39,98,366033
2.0283,0.3079,37.6200,39,98,366036
1.9990,0.3079,37.7400,39,98,366041
2.0186,0.3079,37.5600,39,98,366044
1.9844,0.3079,37.6200,39,98,366047
1.9746,0.3030,37.7400,39,98,366051
1.9844,0.3226,37.6500,39,98,366054
1.9550,0.3079,37.8000,39,98,366057
1.9892,0.3128,37.6500,39,98,366061
1.9599,0.3128,37.6800,39,98,366064
1.9501,0.3030,37.7700,39,98,366067
1.9844,0.3128,37.6200,39,98,366070
1.9404,0.3030,37.9000,39,98,366074
1.9892,0.3226,37.4000,39,98,366077
1.9453,0.3030,37.7100,39,98,366081
1.9453,0.3030,37.7700,39,98,366085
1.9648,0.2884,37.7400,39,98,366088
1.9501,0.3421,37.7700,39,98,366091
1.9990,0.3226,37.4900,39,98,366095
1.9501,0.3177,37.6500,39,98,366098
1.9257,0.2981,37.6800,39,98,366101
1.9110,0.3128,37.7400,39,98,366105
1.8964,0.3030,37.7400,39,98,366108
1.9306,0.3324,37.5300,39,98,366111
1.8964,0.3079,37.5300,39,98,366114
1.9355,0.3030,37.6500,39,98,366118
1.8817,0.3030,37.7400,39,98,366121
1.8671,0.3030,37.7400,39,98,366125
1.8866,0.3128,37.5900,39,98,366129
1.8524,0.3079,37.7100,39,98,366132
1.8573,0.3128,37.6500,39,98,366135
1.8182,0.3030,37.7400,39,98,366139
1.8231,0.3030,37.7400,39,98,366142
1.8231,0.3079,37.6200,39,98,366145
1.8182,0.3079,37.7400,39,98,366148
1.8426,0.3079,37.7700,39,98,366152
1.8084,0.3030,37.7700,39,98,366155
1.8084,0.3030,37.8000,39,98,366158
1.8231,0.3617,37.5900,39,98,366162
1.7889,0.3030,37.7400,39,98,366166
1.8182,0.3030,37.5300,39,98,366169
1.7986,0.3079,37.6500,39,98,366173
1.7840,0.3030,37.7100,39,98,366176
1.7937,0.3128,37.6800,39,98,366179
1.7644,0.3030,37.7700,39,98,366182
1.7889,0.3128,37.4600,39,98,366186
1.7546,0.3030,37.6200,39,98,366189
1.7302,0.3030,37.7700,39,98,366192
1.7351,0.3079,37.7400,39,98,366196
1.7204,0.3030,37.7400,39,98,366199
1.7644,0.3226,37.4600,39,98,366202
1.7644,0.3128,37.6200,39,98,366206
1.7253,0.2981,37.8300,39,98,366210
1.7302,0.2884,37.7100,39,98,366213
1.7302,0.3030,37.8000,39,98,366217
1.7791,0.3177,37.5900,39,98,366220
1.7546,0.3128,37.9300,39,98,366223
1.7595,0.3030,37.6200,39,98,366226
1.7644,0.3079,37.7400,39,98,366230
1.7791,0.3079,37.7400,39,98,366233
1.8280,0.3079,37.5600,39,98,366236
1.8377,0.3079,37.7400,39,98,366240
1.8524,0.3128,37.5900,39,98,366243
1.8426,0.3079,37.7700,39,98,366246
1.8622,0.3030,37.7400,39,98,366249
1.9062,0.3030,37.6500,39,98,366254
1.8964,0.3079,37.7400,39,98,366257
1.9306,0.3079,37.7700,39,98,366260
1.9013,0.3128,37.7100,39,98,366264
1.9062,0.3030,37.7700,39,98,366267
1.9306,0.3079,37.5900,39,98,366270
1.9159,0.3030,37.7100,39,98,366274
1.9404,0.3079,37.4900,39,98,366277
1.9110,0.3079,37.7400,39,98,366280
1.9062,0.3030,37.7700,39,98,366283
1.9257,0.3177,37.6500,39,98,366287
1.9062,0.3030,37.6800,39,98,366290
1.9404,0.3177,37.4600,39,98,366294
1.9110,0.3079,37.8700,39,98,366298
1.8964,0.3030,37.8000,39,98,366301
1.9110,0.3079,37.6800,39,98,366304
1.8915,0.3128,37.8000,39,98,366308
1.9501,0.3128,37.4000,39,98,366311
1.9062,0.3128,37.6500,39,98,366314
1.8866,0.2884,37.7700,39,98,366317
1.8964,0.3079,37.5600,39,98,366321
1.9110,0.2981,37.7400,39,98,366324
1.9453,0.3226,37.7700,39,98,366327
1.9110,0.3079,37.6500,39,98,366331
1.9013,0.3030,37.7700,39,98,366334
1.8964,0.3079,37.7400,39,98,366338
1.8915,0.3030,37.7400,39,98,366342
1.9257,0.3128,37.6800,39,98,366345
1.8866,0.3079,37.7100,39,98,366348
1.8964,0.3079,37.6800,39,98,366352
1.8719,0.3030,37.7700,39,98,366355
1.8622,0.2981,37.7700,39,98,366358
1.8915,0.3177,37.5600,39,98,366361
1.8573,0.3079,37.7700,39,98,366365
1.8768,0.3177,37.6200,39,98,366368
1.8524,0.2981,37.6800,39,98,366371
1.8475,0.3030,37.7400,39,98,366375
1.8622,0.3079,37.7100,39,98,366379
1.8328,0.3079,37.7100,39,98,366382
1.8524,0.3128,37.5600,39,98,366386
1.8231,0.3030,37.6800,39,98,366389
1.8231,0.3030,37.8700,39,98,366392
1.8426,0.3226,37.6200,39,98,366396
1.8133,0.3079,37.7100,39,98,366399
1.8573,0.3470,37.4600,39,98,366402
1.8084,0.2981,37.6800,39,98,366405
1.8084,0.3030,37.7400,39,98,366409
1.8182,0.3079,37.7100,39,98,366412
1.7986,0.3030,37.8000,39,98,366415
1.8768,0.3177,37.4600,39,98,366419
1.8719,0.3079,37.5900,39,98,366423
1.9208,0.3030,37.7100,39,98,366426
2.0137,0.3079,37.5900,39,98,366430
2.1017,0.3030,37.7400,39,98,366433
2.2483,0.3226,37.5600,39,98,366436
2.2630,0.3177,37.6800,39,98,366439
2.2532,0.3030,37.6800,39,98,366443
2.1799,0.3079,37.7700,39,98,366446
2.0626,0.3079,37.7400,39,98,366449
1.9795,0.3128,37.5900,39,98,366453
1.8084,0.3079,36.8200,39,98,366456
1.7009,0.3030,37.6200,39,98,366459
1.6129,0.3030,37.7400,39,98,366462
1.5640,0.3128,37.7400,39,98,366467
1.5738,0.3079,37.6800,39,98,366470
1.5543,0.3079,37.7400,39,98,366473
1.5543,0.3128,37.6500,39,98,366477
1.5103,0.3030,37.8000,39,98,366480
1.4467,0.3030,37.7400,39,98,366483
1.3978,0.3128,37.6200,39,98,366487
1.3050,0.3030,37.8700,39,98,366490
1.2708,0.3079,37.5900,39,98,366493
1.2170,0.2884,37.7100,39,98,366496
1.2414,0.3030,37.7400,39,98,366500
1.3392,0.3128,37.6200,39,98,366503
1.3685,0.3030,37.8000,39,98,366507
1.4809,0.3177,37.5300,39,98,366511
1.5640,0.3030,37.6200,39,98,366514
1.6520,0.3030,37.9600,39,98,366517
1.7644,0.3226,37.6500,39,98,366521
1.8182,0.3030,37.7700,39,98,366524
1.9306,0.3128,37.4600,39,98,366527
1.9355,0.2981,37.6800,39,98,366530
1.9648,0.3079,37.8000,39,98,366534
1.9941,0.3128,37.7100,39,98,366537
1.9941,0.2884,37.7400,39,98,366541
1.9990,0.3030,37.7100,39,98,366544
2.0332,0.3128,37.5600,39,98,366547
2.0039,0.3079,37.0700,39,98,366552
2.0088,0.3030,37.5900,39,98,366555
1.9892,0.3030,37.4600,39,98,366558
1.9795,0.3030,37.7400,39,98,366562
1.9990,0.3030,37.6200,39,98,366565
1.9795,0.2884,37.7400,39,98,366568
1.9844,0.3079,37.5300,39,98,366571
1.9550,0.3030,37.7400,39,98,366575
1.9550,0.3030,37.8000,39,98,366578
1.9599,0.2884,37.6200,39,98,366581
1.9550,0.3030,37.8300,39,98,366585
1.9795,0.3030,37.6200,39,98,366588
1.9453,0.3030,37.7400,39,98,366592
1.9355,0.2981,37.7400,39,98,366596
1.9501,0.3128,37.6500,39,98,366599
1.9208,0.2884,37.7400,39,98,366602
1.9550,0.3079,37.4900,39,98,366605
1.9257,0.3079,37.6200,39,98,366609
1.9062,0.3030,37.8000,39,98,366612
1.9257,0.3275,37.7400,39,98,366615
1.9062,0.3030,37.7400,39,98,366619
1.9501,0.3079,37.4600,39,98,366622
1.9404,0.3079,37.6500,39,98,366625
1.8964,0.3030,37.8300,39,98,366629
1.9013,0.3372,37.7400,39,98,366632
1.8817,0.3030,37.7400,39,98,366636
1.9306,0.3275,37.4600,39,98,366639
1.8866,0.3079,38.0200,39,98,366643
1.8671,0.3324,37.6800,39,98,366646
1.8671,0.3030,37.7400,39,98,366649
1.8671,0.3030,37.7400,39,98,366653
1.9013,0.3177,37.7100,39,98,366656
1.8866,0.2981,37.7100,39,98,366659
1.8622,0.3030,36.7600,39,98,366663
1.8475,0.3030,37.7400,39,98,366666
1.8475,0.3079,37.7400,39,98,366669
1.8671,0.3128,37.5600,39,98,366673
1.8475,0.3079,37.7400,39,98,366676
1.8671,0.3128,37.5600,39,98,366680
1.8377,0.3079,37.7700,39,98,366683
1.8377,0.3030,37.7400,39,98,366687
1.8573,0.3079,37.6500,39,98,366690
1.8524,0.2981,37.7400,39,98,366693
1.8426,0.3030,37.8000,39,98,366697
1.8035,0.3030,37.7100,39,98,366700
1.7986,0.3030,37.7400,39,98,366703
1.8084,0.3079,37.6500,39,98,366707
1.7937,0.3030,37.7700,39,98,366710
1.8231,0.3128,37.5300,39,98,366713
1.8035,0.2981,37.7700,39,98,366716
1.8133,0.3030,37.8000,39,98,366721
1.8328,0.3372,37.7400,39,98,366724
1.8231,0.3030,37.7700,39,98,366727
1.8719,0.3519,37.4900,39,98,366731
1.8573,0.3079,37.6500,39,98,366734
1.8671,0.3079,37.7700,39,98,366737
1.8915,0.3079,37.8000,39,98,366741
1.9013,0.2981,37.7100,39,98,366744
1.9746,0.3177,37.4300,39,98,366747
1.9501,0.2981,37.6200,39,98,366750
1.9550,0.3030,37.7700,39,98,366754
1.9795,0.3079,37.8000,39,98,366757
1.9795,0.3079,37.7400,39,98,366760
2.0430,0.3177,37.5600,39,98,366765
2.0186,0.2981,37.6800,39,98,366768
2.0088,0.3030,37.6500,39,98,366771
1.9941,0.3030,36.9100,39,98,366774
1.9941,0.3030,37.7400,39,98,366778
2.0186,0.3079,37.6500,39,98,366781
1.9844,0.3030,37.6800,39,98,366784
1.9990,0.3079,37.6200,39,98,366788
1.9941,0.3079,37.7400,39,98,366791
1.9648,0.3030,37.7400,39,98,366794
1.9990,0.3128,37.5600,39,98,366798
1.9648,0.3079,36.9800,39,98,366801
1.9941,0.3177,37.6500,39,98,366804
1.9501,0.2981,37.8000,39,98,366809
1.9453,0.2933,37.8000,39,98,366812
1.9599,0.3079,37.8000,39,98,366815
1.9404,0.3030,37.7100,39,98,366818
1.9599,0.3128,37.5300,39,98,366822
1.9306,0.3128,37.6800,39,98,366825
1.9257,0.3030,37.7400,39,98,366828
1.9404,0.3226,37.6200,39,98,366832
1.9159,0.3030,37.7400,39,98,366835
1.9501,0.3128,37.4900,39,98,366838
1.9062,0.2933,37.7400,39,98,366842
1.9110,0.3079,37.8000,39,98,366845
1.9257,0.3128,37.7400,39,98,366849
1.8964,0.2981,37.7400,39,98,366852
1.9453,0.3128,37.4300,39,98,366856
1.9013,0.3030,37.6200,39,98,366859
1.8768,0.2981,37.7100,39,98,366862
1.8719,0.2981,37.7400,39,98,366866
1.8671,0.3030,37.7400,39,98,366869
1.9208,0.3079,37.5600,39,98,366872
1.8817,0.3079,37.6800,39,98,366876
1.8671,0.3324,37.6500,39,98,366879
1.8573,0.3079,37.7100,39,98,366882
1.8475,0.3177,37.7700,39,98,366886
1.8719,0.3079,37.3400,39,98,366889
1.8377,0.2981,37.6800,39,98,366893
1.8475,0.3079,37.6500,39,98,366896
1.8475,0.3079,37.7700,39,98,366900
1.8084,0.3030,37.7700,39,98,366903
1.8231,0.3030,37.6500,39,98,366906
1.7986,0.3030,37.7400,39,98,366910
1.8084,0.3128,37.6500,39,98,366913
1.7791,0.3030,37.9600,39,98,366916
1.7742,0.2981,37.7400,39,98,366920
1.7937,0.3079,37.6500,39,98,366923
1.7693,0.2884,37.7700,39,98,366926
1.7889,0.3030,37.6800,39,98,366929
1.7644,0.3128,37.6500,39,98,366934
1.7644,0.3030,37.7400,39,98,366937
1.7840,0.3177,37.6500,39,98,366940
1.7546,0.3030,37.8000,39,98,366944
1.7791,0.3128,37.4300,39,98,366947
1.7351,0.3079,37.6800,39,98,366950
1.7155,0.2981,37.7700,39,98,366954
1.7351,0.3079,36.9500,39,98,366957
1.7351,0.3079,37.7700,39,98,366960
1.8280,0.3079,36.8800,39,98,366964
1.8768,0.3030,37.6200,39,98,366967
1.9795,0.3079,37.7400,39,98,366970
2.0919,0.3079,37.7100,39,98,366973
2.1701,0.3030,37.7700,39,98,366978
2.2874,0.3275,37.5600,39,98,366981
2.2239,0.3079,37.8000,39,98,366984
2.1310,0.2981,37.6200,39,98,366988
2.0039,0.3030,37.8700,39,98,366991
1.8719,0.3030,37.7700,39,98,366994
1.7889,0.3177,37.5300,39,98,366998
1.6764,0.3226,37.7100,39,98,367001
1.6373,0.3079,37.6500,39,98,367004
1.5982,0.3079,37.8000,39,98,367007
1.5982,0.3030,37.7400,39,98,367011
1.6276,0.3226,37.5900,39,98,367014
1.6031,0.3079,37.7100,39,98,367017
1.5836,0.3079,37.5600,39,98,367022
1.4956,0.3079,37.7700,39,98,367025
1.4272,0.3030,37.7700,39,98,367028
1.3734,0.3079,37.6500,39,98,367032
1.3099,0.3030,37.8700,39,98,367035
1.2952,0.2981,37.5600,39,98,367038
1.2854,0.3030,37.8300,39,98,367041
1.3294,0.3079,37.7400,39,98,367045
1.4125,0.3128,37.6500,39,98,367048
1.4809,0.3030,37.7700,39,98,367051
1.6129,0.3128,37.5900,39,98,367055
1.6862,0.3128,37.6500,39,98,367058
1.7595,0.3030,37.9000,39,98,367062
1.8768,0.3128,37.7100,39,98,367066
1.8915,0.3030,37.9600,39,98,367069
1.9844,0.3226,37.4000,39,98,367072
1.9795,0.3030,37.5600,39,98,367076
1.9892,0.3030,37.7400,39,98,367079
2.0088,0.3079,37.7100,39,98,367082
2.0039,0.3030,37.7400,39,98,367085
2.0577,0.3226,37.4900,39,98,367089
2.0186,0.3079,37.9300,39,98,367092
2.0039,0.3030,37.6800,39,98,367095
2.0088,0.3030,37.8000,39,98,367099
1.9941,0.3030,37.7100,39,98,367102
2.0479,0.3177,37.6200,39,98,367106
1.9990,0.3079,37.7100,39,98,367109
1.9892,0.3030,37.6200,39,98,367113
1.9648,0.3030,37.8000,39,98,367116
1.9550,0.3030,37.8700,39,98,367119
1.9795,0.3128,37.5600,39,98,367123
1.9404,0.3079,37.7100,39,98,367126
1.9550,0.3128,37.5900,39,98,367129
1.9257,0.3030,37.7400,39,98,367133
1.9257,0.3079,37.8000,39,98,367136
1.9501,0.3128,37.6200,39,98,367139
1.9208,0.3079,37.8000,39,98,367142
1.9404,0.3128,37.6500,39,98,367147
1.9013,0.3030,37.6200,39,98,367150
1.8817,0.3030,37.7100,39,98,367154
1.8817,0.3030,37.7400,39,98,367157
1.8866,0.3030,37.6800,39,98,367160
1.8719,0.3030,37.7700,39,98,367164
1.9110,0.3128,37.4000,39,98,367167
1.8866,0.3128,37.6500,39,98,367170
1.8671,0.3030,37.7100,39,98,367174
1.8719,0.3079,37.7700,39,98,367177
1.8622,0.3275,37.7700,39,98,367180
1.9208,0.3226,37.5300,39,98,367183
1.9013,0.2884,37.6800,39,98,367187
1.8622,0.3030,37.6800,39,98,367191
1.8573,0.3030,37.7400,39,98,367194
1.8573,0.3030,37.7400,39,98,367198
1.8817,0.3275,37.5600,39,98,367201
1.8524,0.3079,37.7100,39,98,367204
1.8524,0.3079,37.6200,39,98,367208
1.8280,0.3079,37.7400,39,98,367211
1.8231,0.2933,37.7700,39,98,367214
1.8475,0.3079,37.7700,39,98,367218
1.8377,0.2981,37.7400,39,98,367221
1.8768,0.3079,37.5900,39,98,367224
1.8475,0.3030,37.7700,39,98,367227
1.8671,0.3030,37.7700,39,98,367232
1.9062,0.3177,37.6800,39,98,367235
1.8915,0.3030,37.7400,39,98,367238
1.9306,0.3128,37.5600,39,98,367242
1.9306,0.3030,37.6500,39,98,367245
1.9404,0.3030,37.7700,39,98,367248
1.9795,0.3079,37.6200,39,98,367252
1.9844,0.3079,37.7400,39,98,367255
2.0332,0.3128,37.4900,39,98,367258
2.0235,0.3079,37.7100,39,98,367261
2.0332,0.3030,37.7400,39,98,367265
2.0577,0.3079,37.6800,39,98,367268
2.0381,0.3030,37.7400,39,98,367271
2.0870,0.3128,37.4600,39,98,367276
2.0332,0.3030,37.5900,39,98,367279
2.0332,0.3128,37.7700,39,98,367282
2.0381,0.3079,37.7100,39,98,367285
2.0186,0.3079,37.7400,39,98,367289
2.0821,0.3177,37.4900,39,98,367292
2.0186,0.3079,37.6800,39,98,367295
1.9941,0.2981,37.6800,39,98,367299
1.9892,0.3079,37.7700,39,98,367302
1.9746,0.3030,37.7700,39,98,367305
2.0235,0.3128,37.5300,39,98,367309
1.9697,0.3079,37.6800,39,98,367312
1.9501,0.2981,37.6500,39,98,367315
1.9306,0.3079,37.7400,39,98,367319
1.9208,0.2981,37.7400,39,98,367323
1.9453,0.3079,37.5900,39,98,367326
1.9062,0.3079,37.7100,39,98,367329
1.9208,0.3079,37.5300,39,98,367333
1.8915,0.2981,37.7400,39,98,367336
1.8866,0.3030,37.7400,39,98,367339
1.9013,0.3030,37.6800,39,98,367343
1.8866,0.3079,37.9000,39,98,367346
1.9110,0.3079,37.6500,39,98,367349
1.8768,0.3030,37.7100,39,98,367353
1.8719,0.2981,37.7700,39,98,367356
1.8817,0.3128,36.7900,39,98,367360
1.8524,0.3030,37.7700,39,98,367363
1.8719,0.3079,37.4900,39,98,367367
1.8377,0.3079,37.6500,39,98,367370
1.8328,0.3030,37.7700,39,98,367373
1.8475,0.3128,37.6500,39,98,367377
1.8280,0.3128,37.8000,39,98,367380
1.8719,0.3079,37.4000,39,98,367383
1.8377,0.3030,37.6800,39,98,367387
1.8133,0.3030,37.7400,39,98,367390
1.8182,0.3079,37.7100,39,98,367393
1.7937,0.3030,37.8300,39,98,367396
1.8328,0.3128,37.4300,39,98,367400
1.7889,0.3226,37.5900,39,98,367404
1.7791,0.2688,37.7100,39,98,367407
1.7742,0.3128,37.7400,39,98,367411
1.7644,0.3030,37.8000,39,98,367414
1.8035,0.3128,37.6200,39,98,367417
1.7693,0.3128,37.6800,39,98,367421
1.7595,0.3030,37.6500,39,98,367424
1.7351,0.3079,37.7400,39,98,367427
1.7400,0.3079,37.7400,39,98,367430
1.7742,0.3128,37.5600,39,98,367434
1.7449,0.3372,37.7100,39,98,367437
1.7595,0.3079,37.6500,39,98,367440
1.7400,0.3030,37.8000,39,98,367444
1.7302,0.2981,37.8000,39,98,367448
1.7546,0.3177,37.6200,39,98,367451
1.7253,0.3275,37.7100,39,98,367455
1.7400,0.3128,37.6500,39,98,367458
1.6960,0.3226,37.7700,39,98,367461
1.6911,0.3030,37.7100,39,98,367464
1.6960,0.3324,37.6500,39,98,367468
1.6862,0.3030,37.7400,39,98,367471
1.7107,0.3079,37.5600,39,98,367474
1.6960,0.3030,37.7700,39,98,367478
1.7009,0.3030,37.7400,39,98,367481
1.7253,0.3128,37.6800,39,98,367484
1.7107,0.3030,37.7100,39,98,367489
1.7400,0.3128,37.4600,39,98,367492
1.7400,0.3079,37.5900,39,98,367495
1.7400,0.3324,37.7700,39,98,367498
1.7742,0.3079,37.7100,39,98,367502
1.7889,0.3030,37.7100,39,98,367505
1.8573,0.3128,37.4300,39,98,367508
1.8426,0.3079,37.6800,39,98,367512
1.8475,0.2981,37.7400,39,98,367515
1.8671,0.3324,37.7100,39,98,367518
1.8768,0.3030,37.7700,39,98,367522
1.9501,0.3226,37.5300,39,98,367525
1.9208,0.3079,37.6800,39,98,367528
1.9159,0.3324,37.6800,39,98,367533
1.9110,0.3079,37.7700,39,98,367536
1.9062,0.3030,37.7400,39,98,367539
1.9501,0.3177,37.6800,39,98,367542
1.9208,0.3030,37.7100,39,98,367546
1.9306,0.3079,37.6200,39,98,367549
1.9110,0.3128,37.7700,39,98,367552
1.9110,0.3030,37.7400,39,98,367556
1.9404,0.3079,37.5600,39,98,367559
1.9110,0.3079,37.7100,39,98,367562
1.9355,0.3079,37.6200,39,98,367566
1.9062,0.3030,37.7100,39,98,367569
1.9013,0.3030,37.2200,39,98,367572
1.9208,0.3128,37.6200,39,98,367576
1.9013,0.3079,37.7100,39,98,367580
1.9208,0.3128,37.5900,39,98,367583
1.8915,0.3030,37.6800,39,98,367586
1.8915,0.2981,37.7700,39,98,367590
1.9110,0.3128,37.6800,39,98,367593
1.8817,0.3177,37.8000,39,98,367596
1.9208,0.3128,37.5300,39,98,367600
1.8817,0.2981,37.8000,39,98,367603
1.8817,0.3030,37.7400,39,98,367606
1.8964,0.3079,37.7400,39,98,367609
1.8817,0.3030,37.7400,39,98,367613
1.9159,0.3128,37.4300,39,98,367617
1.9110,0.3128,37.6800,39,98,367620
1.8622,0.3128,37.8000,39,98,367624
1.8671,0.3079,37.7100,39,98,367627
1.8524,0.3030,37.7100,39,98,367630
1.9404,0.3177,37.4900,39,98,367634
1.8622,0.3275,37.6200,39,98,367637
1.8573,0.3030,37.6500,39,98,367640
1.8524,0.3372,37.7100,39,98,367644
1.8426,0.3030,37.7700,39,98,367647
1.8768,0.3079,37.5300,39,98,367650
1.8475,0.3079,37.7400,39,98,367653
1.8377,0.3079,37.6200,39,98,367657
1.8182,0.2884,37.7700,39,98,367661
1.8182,0.3128,37.7400,39,98,367664
1.8280,0.3079,37.7400,39,98,367668
1.8035,0.3617,37.7100,39,98,367671
1.8182,0.3128,37.6500,39,98,367674
1.7791,0.2981,37.8000,39,98,367678
1.7742,0.3030,37.8700,39,98,367681
1.7986,0.3177,37.6500,39,98,367684
1.7742,0.3030,37.7700,39,98,367688
1.7986,0.3079,37.5600,39,98,367691
1.7791,0.3030,37.7700,39,98,367694
1.7840,0.3030,37.7700,39,98,367697
1.7937,0.3079,37.5900,39,98,367702
1.7693,0.2933,37.7400,39,98,367705
1.7986,0.3079,37.4900,39,98,367708
1.7644,0.3177,37.6800,39,98,367712
1.7449,0.3030,37.7700,39,98,367715
1.7595,0.3226,37.6800,39,98,367718
1.7351,0.3030,37.7400,39,98,367722
1.7742,0.3079,37.4900,39,98,367725
1.7253,0.3030,37.6200,39,98,367728
1.7253,0.3128,37.8000,39,98,367731
1.7351,0.3079,37.7100,39,98,367735
1.7351,0.3030,37.7400,39,98,367738
1.7937,0.3079,37.5600,39,98,367741
1.7546,0.3079,37.6800,39,98,367746
1.7498,0.3030,37.6500,39,98,367749
1.7742,0.2981,37.7100,39,98,367752
1.7644,0.3030,37.8300,39,98,367756
1.8182,0.3128,37.5600,39,98,367759
1.8964,0.3226,37.6200,39,98,367763
1.8915,0.3030,37.7400,39,98,367766
1.9257,0.3128,37.5900,39,98,367769
1.9062,0.2981,37.6800,39,98,367772
1.9110,0.3030,37.8700,39,98,367776
1.9355,0.3030,37.5900,39,98,367779
1.9159,0.3079,37.7400,39,98,367782
1.9501,0.3275,37.5300,39,98,367787
1.9159,0.3030,37.8300,39,98,367790
1.9110,0.3372,37.7400,39,98,367793
1.9257,0.3079,37.8000,39,98,367797
1.9110,0.2884,37.7400,39,98,367800
1.9550,0.3128,37.4600,39,98,367803
1.9208,0.2981,37.6500,39,98,367807
1.9110,0.3030,37.7700,39,98,367810
1.9159,0.3275,37.8000,39,98,367813
1.9062,0.3030,37.7700,39,98,367816
1.9599,0.3275,37.5900,39,98,367820
1.9159,0.3079,37.6500,39,98,367823
1.8964,0.3030,37.6800,39,98,367826
1.9013,0.2981,37.7400,39,98,367831
1.8866,0.3030,37.8000,39,98,367834
1.9306,0.3226,37.5600,39,98,367837
1.9013,0.3079,37.8000,39,98,367841
1.8915,0.3030,37.5900,39,98,367844
1.8964,0.2981,37.7700,39,98,367847
1.8817,0.3079,37.8000,39,98,367850
1.9110,0.3128,37.6500,39,98,367854
1.8817,0.3079,37.7400,39,98,367857
1.8915,0.2981,37.6800,39,98,367860
1.8671,0.3030,37.7700,39,98,367864
1.8964,0.3079,37.8000,39,98,367867
1.8866,0.3128,37.5300,39,98,367870
1.8524,0.3079,37.7700,39,98,367875
1.8671,0.3079,37.5900,39,98,367878
1.8377,0.2884,37.6500,39,98,367881
1.8280,0.2981,37.7700,39,98,367884
1.8524,0.3128,37.6200,39,98,367888
1.8280,0.3030,37.8300,39,98,367891
1.8475,0.3128,37.5600,39,98,367894
1.8182,0.3030,37.9600,39,98,367898
1.8133,0.3030,37.7400,39,98,367901
1.8328,0.3128,37.5900,39,98,367904
1.8133,0.3030,37.7100,39,98,367908
1.8524,0.3079,37.4600,39,98,367911
1.8231,0.2884,37.6800,39,98,367915
1.7937,0.3030,37.9300,39,98,367918
1.8035,0.3030,37.7400,39,98,367922
1.8133,0.3030,37.7700,39,98,367925
1.9110,0.3226,37.4300,39,98,367928
1.9453,0.3079,37.7400,39,98,367932
2.0235,0.3030,37.7400,39,98,367935
2.1163,0.3079,37.7400,39,98,367938
2.1799,0.2981,37.7400,39,98,367942
2.2727,0.3177,37.5300,39,98,367945
2.2043,0.2884,37.6800,39,98,367948
2.0968,0.3030,37.6500,39,98,367952
1.9501,0.3079,37.7400,39,98,367955
1.7937,0.2884,37.7400,39,98,367959
1.6960,0.3177,37.6200,39,98,367962
1.5836,0.3079,37.7100,39,98,367966
1.5347,0.3079,37.5300,39,98,367969
1.4907,0.3030,37.7400,39,98,367972
1.4809,0.3030,37.8000,39,98,367976
1.5298,0.3128,37.6500,39,98,367979
1.4663,0.3030,37.8000,39,98,367982
1.4418,0.3128,37.6200,39,98,367986
1.3587,0.3030,37.7400,39,98,367989
1.2805,0.3030,37.7400,39,98,367992
1.2414,0.3079,37.8000,39,98,367995
1.1877,0.3079,37.7400,39,98,368000
1.1877,0.3079,37.5900,39,98,368003
1.2023,0.2981,37.6800,39,98,368006
1.2610,0.3030,37.7400,39,98,368010
1.3539,0.3177,37.6800,39,98,368013
1.4370,0.3030,37.7400,39,98,368016
1.5689,0.3128,37.4900,39,98,368020
1.6471,0.3079,37.6500,39,98,368023
1.7351,0.3030,37.8300,39,98,368026
1.8719,0.2981,37.6800,39,98,368029
1.8866,0.3030,37.7700,39,98,368033
1.9844,0.3275,37.4000,39,98,368036
1.9697,0.3079,37.6800,39,98,368039
1.9844,0.3226,37.7400,39,98,368044
1.9990,0.3079,37.7400,39,98,368047
2.0039,0.3030,37.7400,39,98,368050
2.0626,0.3177,37.4900,39,98,368054
2.0088,0.3079,37.7100,39,98,368057
2.0039,0.3030,37.6800,39,98,368060
1.9990,0.2981,37.7100,39,98,368063
1.9892,0.3030,37.7400,39,98,368067
2.0381,0.3177,37.4900,39,98,368070
1.9990,0.3079,37.7400,39,98,368073
1.9941,0.3079,37.6200,39,98,368077
1.9795,0.3079,37.7700,39,98,368080
1.9697,0.3030,37.9300,39,98,368083
2.0283,0.3128,37.6200,39,98,368087
1.9697,0.3079,37.7100,39,98,368091
1.9795,0.3030,37.6200,39,98,368094
1.9501,0.3030,37.7700,39,98,368097
1.9453,0.3030,37.8000,39,98,368101
1.9550,0.3030,37.6500,39,98,368104
1.9404,0.3030,37.9300,39,98,368107
1.9697,0.3177,37.5900,39,98,368111
1.9306,0.3030,37.7100,39,98,368114
1.9208,0.2981,37.7400,39,98,368117
1.9404,0.3079,37.6500,39,98,368120
1.9110,0.3030,37.7400,39,98,368124
1.9257,0.3128,37.5300,39,98,368128
1.9062,0.3030,37.5900,39,98,368131
1.8915,0.2981,37.7700,39,98,368135
1.9110,0.3079,37.7400,39,98,368138
1.8866,0.3030,37.7400,39,98,368141
1.9257,0.3128,37.5300,39,98,368145
1.8866,0.3079,37.6800,39,98,368148
1.8768,0.3030,37.7400,39,98,368151
1.8817,0.3030,37.7100,39,98,368154
1.8475,0.2981,37.7700,39,98,368158
1.8964,0.3177,37.4300,39,98,368161
1.8475,0.3079,37.6200,39,98,368164
1.8377,0.3275,37.7400,39,98,368168
1.8377,0.3030,37.7100,39,98,368172
1.8280,0.3128,37.7400,39,98,368175
1.8817,0.3226,37.5900,39,98,368179
1.8328,0.3128,37.7400,39,98,368182
1.8231,0.3030,37.7100,39,98,368185
1.8280,0.2884,37.7400,39,98,368189
1.8084,0.3030,37.8700,39,98,368192
1.8377,0.3177,37.5600,39,98,368195
1.8133,0.3079,37.8000,39,98,368198
1.8231,0.3079,37.6200,39,98,368202
1.8035,0.3030,37.7400,39,98,368205
1.8035,0.3030,37.7400,39,98,368208
1.8328,0.3177,37.6200,39,98,368212
1.8035,0.3079,37.8300,39,98,368216
1.8133,0.3128,37.6200,39,98,368219
1.7840,0.3079,37.5900,39,98,368223
1.7742,0.2884,37.8000,39,98,368226
1.7889,0.3128,37.6200,39,98,368229
1.7742,0.3079,37.7400,39,98,368232
1.7986,0.3128,37.5600,39,98,368236
1.7742,0.3079,37.7400,39,98,368239
1.7840,0.3030,37.7400,39,98,368242
1.8182,0.3079,37.6200,39,98,368246
1.8084,0.3030,37.7100,39,98,368249
1.8524,0.3079,37.4000,39,98,368252
1.8475,0.3079,37.6200,39,98,368257
1.8328,0.3079,37.7400,39,98,368260
1.8671,0.3128,37.7100,39,98,368263
1.8671,0.3030,37.7700,39,98,368266
1.9404,0.3177,37.4300,39,98,368270
1.9208,0.3079,37.6500,39,98,368273
1.9306,0.3030,37.7400,39,98,368276
1.9550,0.3079,37.7100,39,98,368280
1.9501,0.3030,37.7700,39,98,368283
2.0137,0.3275,37.5600,39,98,368286
1.9844,0.3079,37.6500,39,98,368290
1.9746,0.2981,37.7100,39,98,368293
1.9648,0.3079,37.8300,39,98,368296
1.9941,0.3030,37.7700,39,98,368300
1.9990,0.3177,37.6800,39,98,368304
1.9746,0.3128,37.6800,39,98,368307
1.9697,0.3079,37.6500,39,98,368310
1.9844,0.2981,37.7700,39,98,368314
1.9501,0.3030,37.8300,39,98,368317
1.9795,0.3177,37.5600,39,98,368320
1.9453,0.3079,37.5900,39,98,368324
1.9648,0.3128,37.5900,39,98,368327
1.9355,0.3030,37.7400,39,98,368330
1.9257,0.3030,37.7400,39,98,368333
1.9501,0.3079,37.6200,39,98,368337
1.9208,0.3079,37.7400,39,98,368340
1.9453,0.3128,37.5900,39,98,368344
1.9013,0.3030,37.7400,39,98,368348
1.8964,0.3079,37.7400,39,98,368351
1.9062,0.3079,37.5900,39,98,368354
1.8915,0.2981,37.7700,39,98,368358
1.9257,0.3128,37.4900,39,98,368361
1.9110,0.3030,37.7700,39,98,368364
1.8964,0.3030,37.7400,39,98,368367
1.9208,0.3275,37.6500,39,98,368371
1.8622,0.3079,37.8300,39,98,368374
1.8866,0.3079,37.7700,39,98,368378
1.8964,0.3177,37.5300,39,98,368381
1.8573,0.3079,37.7100,39,98,368385
1.8475,0.3030,37.6200,39,98,368389
1.8524,0.3030,37.7400,39,98,368392
1.8231,0.3030,37.8000,39,98,368395
1.8426,0.3128,37.5900,39,98,368399
1.8133,0.3079,37.7100,39,98,368402
1.8182,0.3079,37.6200,39,98,368405
1.7937,0.3079,37.7400,39,98,368408
1.7937,0.3030,37.7400,39,98,368412
1.8084,0.3079,37.6500,39,98,368415
1.7889,0.3030,37.8700,39,98,368418
1.7986,0.3177,37.6800,39,98,368422
1.7644,0.3030,37.6800,39,98,368425
1.7498,0.2981,37.7400,39,98,368429
1.7742,0.3079,37.6200,39,98,368433
1.7546,0.3030,37.7400,39,98,368436
1.7840,0.3079,37.5300,39,98,368439
1.7693,0.2981,37.6200,39,98,368443
1.7546,0.3030,37.7700,39,98,368446
1.7693,0.3128,37.6500,39,98,368449
1.7449,0.3030,37.7100,39,98,368452
1.7889,0.3177,37.4900,39,98,368456
1.7791,0.3079,37.6500,39,98,368459
1.8084,0.2981,37.7700,39,98,368462
1.8866,0.3128,37.2200,39,98,368466
1.9599,0.2981,37.7700,39,98,368470
2.0919,0.3177,37.4600,39,98,368473
2.1261,0.3079,37.6200,39,98,368477
2.1603,0.2981,37.7100,39,98,368480
2.1603,0.2884,37.7400,39,98,368483
2.0528,0.3030,37.7700,39,98,368486
1.9844,0.3226,37.5300,39,98,368490
1.7937,0.3079,37.7100,39,98,368493
1.6618,0.3324,37.6800,39,98,368496
1.5543,0.3030,37.7100,39,98,368500
1.4907,0.2884,37.7400,39,98,368503
1.5103,0.3079,37.5600,39,98,368506
1.5249,0.2884,37.7100,39,98,368510
1.5200,0.3079,37.6500,39,98,368514
1.5054,0.3079,37.7400,39,98,368517
1.4614,0.3079,37.7700,39,98,368520
1.4272,0.3079,37.6500,39,98,368524
1.3539,0.3079,37.7400,39,98,368527
1.3196,0.3079,37.7100,39,98,368530
1.2708,0.3030,37.7700,39,98,368534
1.2659,0.3030,37.7100,39,98,368537
1.3050,0.2981,37.6500,39,98,368540
1.3441,0.3030,37.7400,39,98,368544
1.4467,0.3324,37.5600,39,98,368547
1.5200,0.3030,37.6500,39,98,368550
1.6227,0.3030,37.7700,39,98,368555
1.7351,0.3128,37.6500,39,98,368558
1.7937,0.3079,37.7400,39,98,368561
1.9013,0.3128,37.5300,39,98,368564
1.9257,0.3372,37.6200,39,98,368568
1.9306,0.3030,37.7400,39,98,368571
1.9746,0.3128,37.7100,39,98,368574
1.9697,0.3030,37.7400,39,98,368578
2.0381,0.3177,37.4300,39,98,368581
2.0039,0.3079,37.6500,39,98,368584
1.9941,0.3030,37.0400,39,98,368588
2.0039,0.3128,37.7400,39,98,368591
1.9941,0.3030,37.8000,39,98,368594
2.0430,0.3226,37.6200,39,98,368598
1.9941,0.3128,37.6200,39,98,368602
1.9795,0.3030,37.6500,39,98,368605
1.9990,0.3079,37.7400,39,98,368608
1.9746,0.3030,37.8700,39,98,368612
2.0186,0.3079,37.5900,39,98,368615
1.9844,0.3079,37.7100,39,98,368618
1.9795,0.3079,37.6200,39,98,368621
1.9599,0.3079,37.7400,39,98,368625
1.9501,0.3030,37.7400,39,98,368628
1.9746,0.3177,37.5900,39,98,368631
1.9404,0.3079,37.7400,39,98,368635
1.9501,0.3177,37.5900,39,98,368638
1.9208,0.3030,37.8700,39,98,368642
1.9159,0.3128,37.7400,39,98,368646
1.9453,0.3128,37.6200,39,98,368649
1.9159,0.3079,37.7400,39,98,368652
1.9404,0.3079,37.5900,39,98,368656
1.9062,0.3030,37.7100,39,98,368659
1.8964,0.3030,37.7700,39,98,368662
1.9062,0.3128,37.6200,39,98,368665
1.8768,0.3030,37.7400,39,98,368669
1.8964,0.3079,37.5900,39,98,368672
1.8671,0.3030,37.7700,39,98,368675
1.8719,0.3030,37.7400,39,98,368679
1.8817,0.3128,37.6500,39,98,368683
1.8573,0.3030,37.7100,39,98,368686
1.8964,0.3226,37.4600,39,98,368690
1.8719,0.3079,37.9000,39,98,368693
1.8573,0.3421,37.7100,39,98,368696
1.8719,0.3177,37.6800,39,98,368699
1.8573,0.2884,37.7700,39,98,368703
1.9110,0.3226,37.4600,39,98,368706
1.8719,0.3079,37.6500,39,98,368709
1.8573,0.2981,37.7400,39,98,368713
1.8719,0.3079,37.7400,39,98,368716
1.8622,0.3030,37.7700,39,98,368719
1.9013,0.3275,37.5900,39,98,368723
1.8768,0.3128,37.6800,39,98,368727
1.8524,0.3030,37.6500,39,98,368730
1.8377,0.3079,37.7400,39,98,368733
1.8328,0.3079,37.7400,39,98,368737
1.8573,0.3079,37.6500,39,98,368740
1.8377,0.3421,37.7100,39,98,368743
1.8719,0.3128,37.5900,39,98,368747
1.8671,0.3079,37.7700,39,98,368750
1.8817,0.3030,37.6500,39,98,368753
1.9306,0.3226,37.6800,39,98,368757
1.9013,0.3030,37.7700,39,98,368760
1.9355,0.3177,37.5900,39,98,368763
1.9159,0.3030,37.6800,39,98,368768
1.9257,0.3470,37.7700,39,98,368771
1.9599,0.3079,37.5900,39,98,368774
1.9550,0.3128,37.7400,39,98,368777
1.9941,0.3128,37.5300,39,98,368781
1.9795,0.2981,37.6800,39,98,368784
1.9892,0.3030,37.7400,39,98,368787
2.0186,0.3177,37.6200,39,98,368791
1.9941,0.2884,37.7100,39,98,368794
2.0430,0.3128,37.4000,39,98,368797
1.9892,0.3030,37.6800,39,98,368801
1.9941,0.3079,37.7400,39,98,368804
1.9941,0.3079,37.7400,39,98,368807
1.9746,0.3030,37.7700,39,98,368811
2.0235,0.3177,37.3700,39,98,368815
1.9941,0.3128,37.6500,39,98,368818
1.9355,0.3030,37.7700,39,98,368821
1.9257,0.3079,37.7400,39,98,368825
1.9013,0.3030,37.7400,39,98,368828
1.9453,0.3226,37.4900,39,98,368831
1.9013,0.3128,37.7100,39,98,368834
1.8866,0.3030,37.6500,39,98,368838
1.8768,0.3030,37.7400,39,98,368841
1.8573,0.3030,37.8300,39,98,368844
1.8817,0.3421,37.5600,39,98,368848
1.8524,0.3079,37.7700,39,98,368851
1.8524,0.3079,37.6200,39,98,368855
1.8328,0.3079,37.8000,39,98,368859
1.8231,0.2981,37.7700,39,98,368862
1.8524,0.3128,37.7100,39,98,368865
1.8426,0.3128,37.7100,39,98,368868
1.8671,0.3128,37.5900,39,98,368872
1.8817,0.3079,37.7400,39,98,368875
1.8475,0.3030,37.7400,39,98,368878
1.8671,0.3128,37.5900,39,98,368882
1.8280,0.3079,37.7400,39,98,368885
1.8377,0.3128,37.5900,39,98,368888
1.8133,0.3030,37.6200,39,98,368892
1.8035,0.3079,37.7400,39,98,368896
1.8182,0.3079,37.8000,39,98,368899
1.7937,0.2981,37.7400,39,98,368903
1.8280,0.3128,37.4900,39,98,368906
1.7986,0.3177,37.6800,39,98,368909
1.7840,0.3030,37.7400,39,98,368912
1.8035,0.3079,37.6500,39,98,368916
1.7791,0.3079,37.7100,39,98,368919
1.7937,0.3079,37.4000,39,98,368922
1.7498,0.3030,37.6800,39,98,368926
1.7449,0.3030,36.9500,39,98,368929
1.7546,0.3079,37.7700,39,98,368932
1.7400,0.3226,37.7400,39,98,368936
1.7889,0.3226,37.5300,39,98,368940
1.7498,0.3079,37.6800,39,98,368943
1.7351,0.3030,37.7100,39,98,368946
1.7351,0.3079,37.7400,39,98,368950
1.7400,0.3030,37.7400,39,98,368953
1.7742,0.3177,37.5300,39,98,368956
1.7449,0.3079,37.7100,39,98,368960
1.7449,0.3079,37.5900,39,98,368963
1.7253,0.3079,37.7400,39,98,368966
1.7155,0.3030,37.7400,39,98,368970
1.7400,0.3128,37.5600,39,98,368973
1.7155,0.3079,37.7700,39,98,368976
1.7351,0.3128,37.5900,39,98,368979
1.7058,0.3030,37.7700,39,98,368984
1.7009,0.3030,37.7400,39,98,368988
1.7058,0.3030,37.7400,39,98,368991
1.7253,0.3226,37.6500,39,98,368994
1.7155,0.3079,37.7700,39,98,368997
1.7644,0.3372,37.4300,39,98,369001
1.7498,0.3079,37.6500,39,98,369004
1.7449,0.3079,37.7700,39,98,369007
1.7693,0.3128,37.4600,39,98,369011
1.7791,0.2981,37.7400,39,98,369014
1.8524,0.3079,36.8200,39,98,369017
1.8426,0.3030,37.7400,39,98,369021
1.8524,0.2981,38.1800,39,98,369025
1.8768,0.3079,37.7100,39,98,369028
1.8866,0.3030,37.8000,39,98,369031
1.9501,0.3177,37.6200,39,98,369035
1.9355,0.3128,37.6800,39,98,369038
1.9306,0.3030,37.6500,39,98,369041
1.9306,0.2884,37.7400,39,98,369045
1.9257,0.3030,37.7700,39,98,369048
1.9599,0.3128,37.6500,39,98,369051
1.9355,0.3079,37.6200,39,98,369055
1.9844,0.2981,37.5900,39,98,369058
1.9257,0.2981,37.7100,39,98,369061
1.9257,0.3030,37.7400,39,98,369064
1.9550,0.3421,37.6200,39,98,369069
1.9257,0.3079,37.6800,39,98,369072
1.9453,0.3128,37.6800,39,98,369075
1.9159,0.3030,37.7100,39,98,369079
1.9110,0.3421,37.7400,39,98,369082
1.9306,0.3079,37.5900,39,98,369085
1.9110,0.3177,37.7100,39,98,369089
1.9404,0.3079,37.6200,39,98,369092
1.9306,0.3128,37.6800,39,98,369095
1.9062,0.3030,37.7400,39,98,369099
1.9306,0.3079,37.7700,39,98,369102
1.9013,0.3128,37.7400,39,98,369105
1.9404,0.3079,37.5300,39,98,369108
1.9257,0.3030,37.6800,39,98,369113
1.9013,0.3030,37.7100,39,98,369116
1.9062,0.3128,37.7100,39,98,369119
1.8964,0.3030,37.7400,39,98,369123
1.9795,0.3177,37.4300,39,98,369126
1.9013,0.3079,37.6800,39,98,369129
1.8817,0.3030,37.7100,39,98,369133
1.8768,0.3226,37.6800,39,98,369136
1.8964,0.3030,37.7400,39,98,369139
1.9159,0.3177,37.4300,39,98,369142
1.8768,0.3128,37.6800,39,98,369146
1.8622,0.3030,37.6500,39,98,369149
1.8475,0.3030,37.7400,39,98,369153
1.8426,0.3030,37.6200,39,98,369157
1.8719,0.3128,37.5900,39,98,369160
1.8426,0.3079,37.8700,39,98,369163
1.8426,0.2981,37.5900,39,98,369167
1.8231,0.3079,37.7400,39,98,369170
1.8084,0.3030,37.7400,39,98,369173
1.8328,0.3079,37.6500,39,98,369176
1.8182,0.3030,37.7100,39,98,369180
1.8377,0.3128,37.6500,39,98,369183
1.8035,0.2981,37.7100,39,98,369186
1.8035,0.3030,37.7700,39,98,369190
1.8231,0.3079,37.6200,39,98,369193
1.7986,0.3079,37.7400,39,98,369197
1.8231,0.3079,37.5900,39,98,369201
1.8035,0.3030,37.6500,39,98,369204
1.7937,0.3030,37.8300,39,98,369207
1.8084,0.3177,37.6800,39,98,369210
1.7840,0.3030,37.8000,39,98,369214
1.8182,0.3324,37.4900,39,98,369217
1.7937,0.3079,37.7700,39,98,369220
1.7840,0.3030,37.7700,39,98,369224
1.7889,0.3079,37.6800,39,98,369227
1.7546,0.3030,37.7400,39,98,369230
1.8035,0.3128,37.4300,39,98,369234
1.7546,0.3030,37.7100,39,98,369238
1.7546,0.2933,37.7400,39,98,369241
1.7644,0.3079,37.7700,39,98,369244
1.7937,0.3030,37.7400,39,98,369248
1.8231,0.3226,37.5300,39,98,369251
1.7840,0.3128,37.6800,39,98,369254
1.7791,0.3030,37.7100,39,98,369258
1.7889,0.2884,37.7400,39,98,369261
1.7937,0.3030,37.7700,39,98,369264
1.8377,0.3226,37.5600,39,98,369268
1.8328,0.3324,37.7400,39,98,369271
1.8573,0.3079,37.5900,39,98,369274
1.8622,0.3030,36.8800,39,98,369278
1.8817,0.3030,37.7400,39,98,369282
1.9257,0.3128,37.6200,39,98,369285
1.9110,0.3275,37.7100,39,98,369288
1.9453,0.3128,37.6200,39,98,369292
1.9208,0.3079,37.7400,39,98,369295
1.9355,0.3030,37.7700,39,98,369298
1.9453,0.3079,37.6200,39,98,369302
1.9355,0.3030,37.7400,39,98,369305
1.9599,0.3079,37.5900,39,98,369308
1.9306,0.3079,37.7400,39,98,369312
1.9306,0.3079,37.7400,39,98,369315
1.9599,0.3128,37.6500,39,98,369318
1.9306,0.3128,37.7700,39,98,369321
1.9648,0.3128,37.5600,39,98,369326
1.9404,0.3128,37.6200,39,98,369329
1.9257,0.3030,37.7700,39,98,369332
1.9453,0.3079,37.6800,39,98,369336
1.9110,0.2981,37.7700,39,98,369339
1.9648,0.3177,37.4300,39,98,369342
1.9306,0.3079,37.9900,39,98,369346
1.9159,0.3030,37.7400,39,98,369349
1.9208,0.3079,37.7400,39,98,369352
1.9062,0.3030,37.5900,39,98,369355
1.9599,0.3177,37.4600,39,98,369359
1.9208,0.3079,37.5600,39,98,369362
1.9062,0.3030,37.6800,39,98,369366
1.9110,0.3079,37.7700,39,98,369370
1.9110,0.2981,37.7400,39,98,369373
1.9501,0.3177,37.7100,39,98,369376
1.9062,0.3030,37.7100,39,98,369380
1.9110,0.3079,37.6200,39,98,369383
1.9013,0.3079,37.7400,39,98,369386
1.8817,0.3030,37.8000,39,98,369389
1.9110,0.3128,37.5900,39,98,369393
1.8768,0.2884,37.7400,39,98,369396
1.8964,0.3079,37.5600,39,98,369399
1.8719,0.3079,37.7400,39,98,369403
1.8671,0.3030,37.8000,39,98,369406
1.9013,0.3079,37.6200,39,98,369410
1.8573,0.3079,37.7400,39,98,369414
1.8719,0.3079,37.5900,39,98,369417
1.8328,0.2981,37.7400,39,98,369420
1.8328,0.3030,37.7700,39,98,369423
1.8426,0.3079,37.6800,39,98,369427
1.8231,0.3030,37.7400,39,98,369430
1.8475,0.3079,37.4600,39,98,369433
1.8133,0.3030,37.7400,39,98,369437
1.8133,0.3030,37.7400,39,98,369440
1.8475,0.3128,37.7100,39,98,369443
1.8035,0.2981,37.7100,39,98,369447
1.8524,0.3128,37.4600,39,98,369451
1.8231,0.3666,37.6500,39,98,369454
1.8035,0.3030,37.7700,39,98,369457
1.8133,0.3079,37.7400,39,98,369461
1.8182,0.3030,37.7700,39,98,369464
1.8475,0.3177,37.4000,39,98,369467
1.8231,0.3079,37.6500,39,98,369471
1.8475,0.2981,37.7400,39,98,369474
1.9159,0.3079,37.7100,39,98,369477
1.9892,0.3030,37.7700,39,98,369481
2.1212,0.3177,37.5900,39,98,369484
2.1603,0.3177,37.6200,39,98,369487
2.1945,0.3079,37.6500,39,98,369490
2.1457,0.3079,37.3400,39,98,369495
2.0674,0.2884,37.7700,39,98,369498
1.9795,0.3177,37.7400,39,98,369501
1.8231,0.3128,37.7700,39,98,369505
1.7302,0.3079,37.6200,39,98,369508
1.6227,0.3030,37.7700,39,98,369511
1.5640,0.3079,37.8700,39,98,369515
1.5689,0.3177,37.5600,39,98,369518
1.5543,0.3030,37.7100,39,98,369521
1.5836,0.3128,37.5600,39,98,369525
1.5543,0.2981,37.3400,39,98,369528
1.5445,0.3030,37.7400,39,98,369531
1.4809,0.3079,37.6200,39,98,369534
1.4125,0.3030,37.7100,39,98,369539
1.3539,0.3079,37.5300,39,98,369542
1.2952,0.3128,37.6500,39,98,369545
1.2854,0.3030,37.9000,39,98,369549
1.3294,0.3226,37.5600,39,98,369552
1.3539,0.3079,37.7400,39,98,369555
1.4663,0.3128,37.4900,39,98,369559
1.5200,0.2981,37.7100,39,98,369562
1.6080,0.3030,37.7400,39,98,369565
1.7009,0.3079,37.7400,39,98,369568
1.7791,0.3030,37.7400,39,98,369572
1.9062,0.3128,37.4600,39,98,369575
1.9257,0.3079,36.9800,39,98,369579
1.9648,0.3030,37.7100,39,98,369583
1.9795,0.3030,37.7400,39,98,369586
1.9892,0.3030,37.7400,39,98,369589
2.0479,0.3226,37.5900,39,98,369593
2.0186,0.3128,37.5300,39,98,369596
1.9892,0.3079,37.7400,39,98,369600
2.0332,0.3128,37.5900,39,98,369603
1.9795,0.3030,37.7700,39,98,369606
1.9746,0.3177,37.7700,39,98,369609
1.9795,0.3030,37.6500,39,98,369613
1.9697,0.3030,37.8300,39,98,369616
1.9941,0.3079,37.6800,39,98,369619
1.9599,0.3030,37.7400,39,98,369624
1.9550,0.3079,37.7400,39,98,369627
1.9697,0.3079,37.6800,39,98,369630
1.9404,0.2981,37.8000,39,98,369634
1.9648,0.3079,37.6500,39,98,369637
1.9355,0.3079,37.6500,39,98,369640
1.9257,0.3030,37.7700,39,98,369643
1.9453,0.3128,37.6500,39,98,369647
1.9208,0.3030,37.7400,39,98,369650
1.9599,0.3079,37.4000,39,98,369653
1.9257,0.2981,37.6800,39,98,369657
1.9062,0.3079,37.7700,39,98,369660
1.9062,0.3128,37.7100,39,98,369664
1.8817,0.3030,37.7400,39,98,369668
1.9306,0.3226,37.4300,39,98,369671
1.8817,0.3079,37.7400,39,98,369674
1.8671,0.3030,37.6800,39,98,369677
1.8671,0.3079,37.7400,39,98,369681
1.8573,0.3128,37.7400,39,98,369684
1.9110,0.3079,37.6200,39,98,369687
1.8671,0.3372,37.7400,39,98,369691
1.8622,0.3030,37.6500,39,98,369694
1.8573,0.3079,37.7400,39,98,369697
1.8475,0.3030,37.7700,39,98,369701
1.8817,0.3519,37.5600,39,98,369704
1.8524,0.3079,37.7400,39,98,369708
1.8622,0.3079,37.6200,39,98,369712
1.8377,0.3030,37.7700,39,98,369715
1.8280,0.3324,37.8000,39,98,369718
1.8426,0.3128,37.6500,39,98,369721
1.8084,0.3324,37.8000,39,98,369725
1.8280,0.3128,37.6200,39,98,369728
1.7840,0.2981,37.6800,39,98,369731
1.8084,0.2884,37.6800,39,98,369735
1.7840,0.3079,37.6200,39,98,369738
1.7693,0.3275,37.7400,39,98,369741
1.7986,0.3128,37.5300,39,98,369745
1.7742,0.3079,37.7400,39,98,369748
1.7742,0.3030,37.7400,39,98,369752
1.7937,0.3079,37.6800,39,98,369755
1.7840,0.3030,37.7100,39,98,369759
1.8377,0.3177,37.3700,39,98,369762
1.8280,0.3128,37.6500,39,98,369765
1.8328,0.3030,37.7400,39,98,369769
1.8622,0.3079,37.6800,39,98,369772
1.8671,0.3030,37.7700,39,98,369775
1.9599,0.3177,37.4300,39,98,369779
1.9208,0.3079,37.6200,39,98,369782
1.9306,0.3030,37.7400,39,98,369785
1.9550,0.3128,37.7400,39,98,369788
1.9550,0.3030,37.7400,39,98,369793
2.0235,0.3177,37.5300,39,98,369796
1.9941,0.3079,37.6200,39,98,369799
1.9844,0.2981,37.6800,39,98,369803
1.9795,0.3079,37.6800,39,98,369806
1.9795,0.3030,37.7700,39,98,369809
2.0235,0.3226,37.6200,39,98,369813
1.9941,0.3079,37.7100,39,98,369816
2.0088,0.3079,37.5900,39,98,369819
1.9990,0.3079,37.7100,39,98,369822
1.9941,0.3030,37.7100,39,98,369826
2.0283,0.3177,37.5600,39,98,369829
1.9990,0.3079,37.8700,39,98,369832
2.0186,0.3421,37.6200,39,98,369837
1.9892,0.3030,37.7100,39,98,369840
1.9844,0.3030,37.7400,39,98,369843
2.0039,0.3128,37.6500,39,98,369847
1.9795,0.3030,37.6200,39,98,369850
2.0235,0.3079,37.5900,39,98,369853
1.9599,0.2981,37.6800,39,98,369856
1.9550,0.3030,37.7400,39,98,369860
1.9746,0.3128,37.5900,39,98,369863
1.9501,0.3324,37.7400,39,98,369866
1.9892,0.3128,37.4900,39,98,369870
1.9501,0.3030,37.7400,39,98,369873
1.9453,0.3030,37.7700,39,98,369876
1.9599,0.3177,37.7100,39,98,369881
1.9306,0.3079,37.7100,39,98,369884
1.9697,0.3177,37.4300,39,98,369887
1.9306,0.3128,37.5900,39,98,369890
1.9013,0.3030,37.7700,39,98,369894
1.9110,0.2884,37.7100,39,98,369897
1.8915,0.3030,37.7700,39,98,369900
1.9501,0.3177,37.4900,39,98,369904
1.9110,0.3128,37.6500,39,98,369907
1.9013,0.2981,37.7100,39,98,369910
1.8915,0.3470,37.7400,39,98,369914
1.8915,0.2884,37.7400,39,98,369917
1.9110,0.3177,37.5900,39,98,369921
1.8671,0.3079,37.7100,39,98,369924
1.8622,0.3128,37.2800,39,98,369928
1.8377,0.3030,37.7700,39,98,369931
1.8280,0.3079,37.7400,39,98,369934
1.8475,0.3128,37.7100,39,98,369938
1.8280,0.3079,37.7400,39,98,369941
1.8377,0.3128,37.5900,39,98,369944
1.8084,0.3128,37.7400,39,98,369948
1.8035,0.3030,37.7700,39,98,369951
1.8231,0.3128,37.6200,39,98,369954
1.7937,0.3079,37.7400,39,98,369958
1.8084,0.3617,37.6200,39,98,369961
1.7889,0.3030,37.6800,39,98,369965
1.7791,0.3030,37.7400,39,98,369968
1.7937,0.3079,37.5900,39,98,369972
1.7644,0.3030,37.7100,39,98,369975
1.7889,0.3128,37.4900,39,98,369978
1.7546,0.3079,37.7100,39,98,369982
1.7400,0.2884,37.7400,39,98,369985
1.7498,0.3079,37.1000,39,98,369988
1.7155,0.2981,37.7400,39,98,369992
1.7498,0.3128,37.4300,39,98,369995
1.7009,0.3030,37.6800,39,98,369998
1.7107,0.3079,37.7700,39,98,370001
1.7253,0.3421,37.8000,39,98,370006
1.7204,0.3030,37.7400,39,98,370009
1.7693,0.3226,37.4900,39,98,370012
1.7400,0.2884,37.7100,39,98,370016
1.7400,0.3030,37.6800,39,98,370019
1.7889,0.2884,37.7100,39,98,370022
1.7693,0.3030,38.0500,39,98,370026
1.8328,0.3226,37.5300,39,98,370029
1.8231,0.3079,37.9300,39,98,370032
1.8426,0.3030,37.6200,39,98,370035
1.8524,0.3079,37.7700,39,98,370039
1.8671,0.3030,37.7100,39,98,370042
1.9159,0.3128,37.5900,39,98,370045
1.9208,0.3079,37.6800,39,98,370050
1.9453,0.3128,37.5600,39,98,370053
1.9306,0.3079,37.8300,39,98,370056
1.9404,0.3030,37.7700,39,98,370060
1.9501,0.3030,37.9000,39,98,370063
1.9404,0.3079,37.8000,39,98,370066
1.9746,0.3128,37.6200,39,98,370069
1.9355,0.3030,37.7400,39,98,370073
1.9355,0.3030,37.8000,39,98,370076
1.9648,0.3128,36.7600,39,98,370079
1.9404,0.3030,37.7700,39,98,370083
1.9648,0.3079,37.5300,39,98,370086
1.9453,0.3079,37.6800,39,98,370089
1.9306,0.3030,37.7700,39,98,370094
1.9550,0.3177,37.6800,39,98,370097
1.9208,0.3030,37.7700,39,98,370100
1.9550,0.3128,36.7300,39,98,370103
1.9208,0.3079,37.6800,39,98,370107
1.9110,0.3030,37.8000,39,98,370110
1.9257,0.3079,37.7100,39,98,370113
1.9110,0.3079,37.7400,39,98,370117
1.9501,0.3079,37.6800,39,98,370120
1.9257,0.2884,37.6500,39,98,370123
1.9013,0.3030,37.6500,39,98,370127
1.9208,0.2981,37.7400,39,98,370130
1.9013,0.3030,37.7400,39,98,370134
1.9599,0.3177,37.5300,39,98,370137
1.9110,0.3128,37.9600,39,98,370141
1.8964,0.2981,37.6800,39,98,370144
1.8915,0.3226,37.7400,39,98,370147
1.8866,0.3030,37.7400,39,98,370151
1.9110,0.3177,37.5300,39,98,370154
1.8915,0.3079,37.7400,39,98,370157
1.8915,0.3079,37.5900,39,98,370161
1.8768,0.3079,37.7400,39,98,370164
1.8719,0.3030,37.8300,39,98,370167
1.8964,0.3128,37.5900,39,98,370170
1.8671,0.3079,37.8300,39,98,370174
1.8768,0.3128,37.5900,39,98,370178
1.8426,0.3030,37.9000,39,98,370181
1.8377,0.3030,37.8300,39,98,370185
1.8426,0.3030,37.6800,39,98,370188
1.8328,0.3030,37.7400,39,98,370191
1.8866,0.3128,37.5900,39,98,370195
1.8231,0.3030,37.7400,39,98,370198
1.8133,0.3030,37.7400,39,98,370201
1.8377,0.3128,37.5300,39,98,370204
1.7889,0.3079,37.7100,39,98,370209
1.7791,0.3030,37.8000,39,98,370212
1.8280,0.3226,37.4300,39,98,370216
1.7840,0.3079,37.5900,39,98,370220
1.7644,0.2884,37.7400,39,98,370223
1.7693,0.3079,37.8300,39,98,370227
1.7546,0.3030,37.7400,39,98,370230
1.8084,0.3226,37.6200,39,98,370233
1.7742,0.3128,37.6800,39,98,370237
1.7742,0.3030,37.6500,39,98,370240
1.7595,0.3079,37.7400,39,98,370243
1.7546,0.3030,37.8000,39,98,370246
1.7937,0.3079,37.7100,39,98,370250
1.8182,0.2981,37.6800,39,98,370253
1.7986,0.3079,37.6200,39,98,370256
1.7791,0.3030,37.7400,39,98,370260
1.7791,0.3030,37.8000,39,98,370264
1.8084,0.3226,37.5600,39,98,370267
1.7889,0.3128,37.8300,39,98,370271
1.8231,0.3128,37.6200,39,98,370274
1.8182,0.3030,37.6800,39,98,370277
1.8328,0.3030,37.7700,39,98,370280
1.8719,0.3128,37.6200,39,98,370284
1.8719,0.3421,37.8000,39,98,370287
1.9013,0.3079,37.5600,39,98,370290
1.9013,0.3030,37.6800,39,98,370294
1.9110,0.3030,37.7700,39,98,370297
1.9404,0.3079,37.5900,39,98,370300
1.9208,0.3030,37.7400,39,98,370305
1.9648,0.3128,37.4600,39,98,370308
1.9453,0.3030,37.6800,39,98,370311
1.9306,0.3030,37.7700,39,98,370314
1.9355,0.3079,37.6200,39,98,370318
1.9208,0.3030,37.7700,39,98,370321
1.9697,0.3079,37.4900,39,98,370324
1.9306,0.2981,37.6800,39,98,370328
1.9159,0.3030,37.7400,39,98,370331
1.9550,0.3079,37.6800,39,98,370334
1.9208,0.3030,37.7400,39,98,370338
1.9795,0.3226,37.4600,39,98,370341
1.9453,0.3079,37.6500,39,98,370344
1.9306,0.3030,37.7700,39,98,370348
1.9355,0.2981,37.7400,39,98,370352
1.9208,0.3030,37.8000,39,98,370355
1.9550,0.3128,37.6200,39,98,370358
1.9208,0.3079,37.6800,39,98,370362
1.9159,0.3079,37.6500,39,98,370365
1.8964,0.3079,37.7400,39,98,370368
1.9062,0.3030,37.6800,39,98,370372
1.9404,0.3177,37.6800,39,98,370375
1.9208,0.3079,37.7700,39,98,370378
1.9355,0.3079,37.5600,39,98,370381
1.9013,0.3079,37.8300,39,98,370385
1.8866,0.3275,37.7400,39,98,370388
1.9062,0.3079,37.5900,39,98,370392
1.8719,0.2884,37.7100,39,98,370396
1.8866,0.3128,37.7400,39,98,370399
1.8426,0.2981,37.6800,39,98,370402
1.8377,0.3030,37.7700,39,98,370406
1.8524,0.3128,37.6200,39,98,370409
1.8328,0.3030,37.7400,39,98,370412
1.8622,0.3128,37.4900,39,98,370415
1.8377,0.3128,37.7400,39,98,370419
1.8280,0.3079,37.7700,39,98,370422
1.8573,0.3128,37.6800,39,98,370425
1.8328,0.3128,37.7400,39,98,370429
1.8817,0.3128,37.5300,39,98,370433
1.8475,0.3030,37.6500,39,98,370436
1.8426,0.3030,37.7700,39,98,370440
1.8426,0.2981,37.7100,39,98,370443
1.8231,0.3568,37.7400,39,98,370446
1.8622,0.3177,37.4900,39,98,370450
1.8182,0.3079,37.7400,39,98,370453
1.8280,0.2884,37.6800,39,98,370456
1.8768,0.3079,37.7700,39,98,370459
1.9795,0.3030,37.7700,39,98,370463
2.0772,0.3128,37.6500,39,98,370466
2.1310,0.2884,37.7100,39,98,370469
2.1945,0.3079,37.6800,39,98,370473
2.1994,0.3030,37.7100,39,98,370477
2.1408,0.3030,37.7400,39,98,370480
2.0674,0.3079,37.5300,39,98,370484
1.9062,0.3079,37.7100,39,98,370487
1.7840,0.3079,37.5900,39,98,370490
1.6520,0.3030,37.7400,39,98,370493
1.5689,0.3030,37.8000,39,98,370497
1.5347,0.3030,37.6500,39,98,370500
1.5103,0.3030,37.7700,39,98,370503
1.5347,0.3128,37.6500,39,98,370507
1.5152,0.3030,37.7400,39,98,370510
1.4956,0.3030,37.7400,39,98,370513
1.4712,0.3128,37.6200,39,98,370518
1.3734,0.3079,37.8000,39,98,370521
1.3196,0.3128,37.5300,39,98,370524
1.2268,0.3079,37.6500,39,98,370527
1.1975,0.2884,37.7700,39,98,370531
1.1877,0.3421,37.6800,39,98,370534
1.2121,0.3030,37.7400,39,98,370537
1.3099,0.3128,37.4900,39,98,370541
1.3881,0.3079,37.6800,39,98,370544
1.4761,0.3030,37.5300,39,98,370547
1.6031,0.3128,37.7100,39,98,370551
1.7009,0.3030,37.7700,39,98,370554
1.8475,0.3666,37.4300,39,98,370557
1.8915,0.3079,37.5900,39,98,370561
1.9453,0.2933,37.6800,39,98,370565
1.9795,0.3079,37.7400,39,98,370568
1.9941,0.3030,37.7400,39,98,370571
2.0626,0.3177,37.5900,39,98,370575
2.0479,0.3079,37.6800,39,98,370578
2.0186,0.3030,37.6800,39,98,370581
2.0137,0.3128,37.7100,39,98,370585
2.0137,0.3030,37.7400,39,98,370588
2.0479,0.3177,37.5600,39,98,370591
2.0235,0.3128,37.7400,39,98,370594
2.0137,0.3030,37.5900,39,98,370598
1.9844,0.3030,37.7700,39,98,370601
1.9844,0.3030,37.7400,39,98,370605
2.0039,0.3128,37.6200,39,98,370609
1.9746,0.3079,37.7100,39,98,370612
1.9941,0.3079,37.4900,39,98,370615
1.9648,0.2981,37.7700,39,98,370619
1.9599,0.3030,37.9900,39,98,370622
1.9697,0.3030,37.6200,39,98,370625
1.9550,0.3079,37.7100,39,98,370628
1.9844,0.3079,37.5300,39,98,370632
1.9599,0.3030,37.7700,39,98,370635
1.9599,0.3079,37.7100,39,98,370638
1.9795,0.3128,37.6500,39,98,370642
1.9550,0.3177,37.7400,39,98,370646
1.9844,0.3079,37.4600,39,98,370649
1.9501,0.3128,37.6200,39,98,370653
1.9355,0.3030,37.8000,39,98,370656
1.9453,0.2981,37.6800,39,98,370659
1.9159,0.3079,37.7100,39,98,370662
1.9599,0.3177,37.4000,39,98,370666
1.9110,0.3079,37.6500,39,98,370669
1.8964,0.3030,37.8000,39,98,370672
1.9062,0.3177,37.6800,39,98,370676
1.8866,0.3030,37.7100,39,98,370679
1.9306,0.3275,37.4600,39,98,370682
1.8817,0.3079,37.6500,39,98,370686
1.8573,0.3030,37.6500,39,98,370690
1.8475,0.3079,37.7400,39,98,370693
1.8524,0.3030,37.7700,39,98,370696
1.8915,0.3177,37.6200,39,98,370700
1.8573,0.3079,37.6800,39,98,370703
1.8573,0.3275,37.6200,39,98,370706
1.8426,0.3030,37.7400,39,98,370710
1.8377,0.3079,37.7700,39,98,370713
1.8719,0.3079,37.5600,39,98,370716
1.8426,0.3079,37.7100,39,98,370720
1.8573,0.3079,37.5600,39,98,370723
1.8328,0.3079,37.7700,39,98,370726
1.8231,0.3030,37.9000,39,98,370731
1.8475,0.3128,37.6500,39,98,370734
1.8328,0.3030,37.7400,39,98,370737
1.8573,0.3079,37.5900,39,98,370740
1.8280,0.2884,37.7400,39,98,370744
1.8133,0.3030,37.7700,39,98,370747
1.8084,0.3128,37.6200,39,98,370750
1.7889,0.3030,37.9300,39,98,370754
1.8035,0.3128,37.4900,39,98,370757
1.7644,0.3030,37.8700,39,98,370760
1.7644,0.3030,37.7700,39,98,370764
1.7840,0.3079,37.8700,39,98,370767
1.7791,0.3079,37.7100,39,98,370770
1.8280,0.3177,37.5900,39,98,370774
1.8231,0.3128,37.6500,39,98,370778
1.8084,0.3079,37.7700,39,98,370781
1.8328,0.3079,37.7400,39,98,370784
1.8328,0.3030,37.8300,39,98,370788
1.9110,0.3226,37.4600,39,98,370791
1.8964,0.3079,37.6200,39,98,370794
1.9453,0.2981,37.7100,39,98,370798
1.9355,0.3079,37.7700,39,98,370801
1.9501,0.3079,37.7400,39,98,370804
2.0088,0.3177,37.5600,39,98,370807
1.9941,0.3030,37.6800,39,98,370811
2.0039,0.3030,37.6500,39,98,370814
1.9892,0.3079,37.8700,39,98,370818
1.9550,0.3030,37.7700,39,98,370823
1.9550,0.3030,37.7400,39,98,370826
1.9892,0.3128,37.6200,39,98,370830
1.9599,0.3079,37.7400,39,98,370833
2.0039,0.3128,37.5900,39,98,370836
1.9550,0.3030,37.7400,39,98,370840
1.9453,0.3030,37.7400,39,98,370843
1.9648,0.3079,37.6200,39,98,370846
1.9404,0.3128,37.8000,39,98,370849
1.9795,0.3128,37.5300,39,98,370853
1.9404,0.3226,37.7400,39,98,370856
1.9355,0.3030,37.8000,39,98,370860
1.9501,0.3079,37.7400,39,98,370864
1.9159,0.2981,37.7100,39,98,370867
1.9550,0.3177,37.4300,39,98,370870
1.9110,0.3030,37.6800,39,98,370874
1.9159,0.3128,37.7400,39,98,370877
1.9306,0.3275,37.6800,39,98,370880
1.9110,0.3030,37.7400,39,98,370883
1.9599,0.3275,37.4600,39,98,370887
1.9355,0.3128,37.6200,39,98,370890
1.8915,0.3030,37.7100,39,98,370893
1.8817,0.3079,37.7400,39,98,370897
1.8671,0.3079,37.5300,39,98,370900
1.9062,0.3128,37.5300,39,98,370904
1.8622,0.3128,37.7100,39,98,370908
1.8671,0.3079,37.6500,39,98,370911
1.8524,0.3079,37.7400,39,98,370914
1.8475,0.3030,37.7700,39,98,370917
1.8768,0.3128,37.5900,39,98,370921
1.8573,0.3079,37.7100,39,98,370924
1.8573,0.3079,37.5300,39,98,370927
1.8328,0.3079,37.7400,39,98,370931
1.8182,0.3030,37.7700,39,98,370934
1.8328,0.3079,37.6500,39,98,370937
1.8133,0.3030,37.9000,39,98,370941
1.8328,0.3324,37.5900,39,98,370945
1.7937,0.3030,37.7700,39,98,370948
1.7889,0.2981,37.8000,39,98,370951
1.8133,0.3128,37.5900,39,98,370955
1.7937,0.3128,37.7700,39,98,370958
1.8035,0.3128,37.4900,39,98,370961
1.7742,0.3030,37.6200,39,98,370965
1.7595,0.3030,37.7400,39,98,370968
1.7742,0.3226,37.6500,39,98,370971
1.7400,0.3030,37.7400,39,98,370975
1.7742,0.3079,37.4600,39,98,370978
1.7400,0.2981,37.6500,39,98,370981
1.7253,0.3030,37.7700,39,98,370984
1.7302,0.3079,37.6800,39,98,370989
1.7155,0.3030,37.7400,39,98,370992
1.7449,0.3177,36.5800,39,98,370995
1.7058,0.3079,37.5900,39,98,370999
1.6960,0.3324,37.7400,39,98,371002
1.7155,0.3079,37.7400,39,98,371005
1.7449,0.3128,37.7700,39,98,371009
1.8719,0.3226,37.6500,39,98,371012
1.9404,0.3128,37.6800,39,98,371015
2.0332,0.3030,37.6800,39,98,371019
2.1163,0.2981,37.7100,39,98,371022
2.1896,0.3030,37.7700,39,98,371025
2.2483,0.3128,37.6500,39,98,371028
2.1799,0.3079,37.7100,39,98,371033
2.1261,0.3128,37.6200,39,98,371036
2.0088,0.2884,37.7400,39,98,371039
1.9159,0.3030,37.7700,39,98,371043
1.8671,0.3275,37.6200,39,98,371046
1.7840,0.3030,37.7100,39,98,371049
1.7742,0.3715,37.6500,39,98,371053
1.7449,0.3079,37.7400,39,98,371056
1.7449,0.2933,37.7400,39,98,371059
1.7302,0.3079,37.5900,39,98,371062
1.6520,0.3030,37.7100,39,98,371066
1.5836,0.3128,37.5600,39,98,371069
1.4712,0.3079,37.8300,39,98,371073
1.3832,0.3030,37.7700,39,98,371077
1.3343,0.3470,37.6800,39,98,371080
1.2903,0.3030,37.7700,39,98,371083
1.3343,0.3030,37.5600,39,98,371087
1.3685,0.3128,37.6500,39,98,371090
1.4272,0.3275,37.7400,39,98,371093
1.5200,0.3079,37.7100,39,98,371096
1.6373,0.2884,37.7400,39,98,371100
1.7351,0.3177,37.4600,39,98,371103
1.7791,0.3079,37.6500,39,98,371106
1.8377,0.2981,37.9300,39,98,371110
1.8964,0.3079,37.7100,39,98,371113
1.9306,0.3079,37.8700,39,98,371117
2.0088,0.3226,37.5900,39,98,371121
1.9892,0.3128,37.6500,39,98,371124
1.9795,0.3030,37.6200,39,98,371127
1.9648,0.3079,37.7400,39,98,371130
1.9648,0.3177,37.8000,39,98,371134
1.9990,0.3177,37.6200,39,98,371137
1.9795,0.3177,37.6800,39,98,371140
1.9990,0.3128,37.6200,39,98,371144
1.9795,0.3079,37.7700,39,98,371147
1.9844,0.3030,37.8000,39,98,371150
2.0137,0.3079,37.5600,39,98,371154
1.9746,0.3079,37.7100,39,98,371158
1.9941,0.3177,37.5900,39,98,371161
1.9501,0.2981,37.5900,39,98,371165
1.9355,0.3128,37.7400,39,98,371168
1.9453,0.3079,37.5600,39,98,371171
1.9110,0.3030,37.7400,39,98,371174
1.9355,0.3128,37.5300,39,98,371178
1.9013,0.3030,37.6500,39,98,371181
1.8915,0.3030,37.7400,39,98,371184
1.9062,0.3568,37.6200,39,98,371188
1.8719,0.3030,37.7700,39,98,371191
1.9062,0.3128,37.4900,39,98,371194
1.8622,0.3030,37.7700,39,98,371198
1.8719,0.3177,37.8000,39,98,371202
1.8817,0.3079,37.7100,39,98,371205
1.8671,0.3079,37.7700,39,98,371209
1.9159,0.3079,37.4300,39,98,371212
1.8719,0.3030,37.6500,39,98,371215
1.8475,0.2688,37.7400,39,98,371218
1.8671,0.3128,37.7400,39,98,371222
1.8573,0.3030,37.7700,39,98,371225
1.9110,0.3226,37.5300,39,98,371228
1.8768,0.3128,37.6500,39,98,371232
1.8671,0.3030,37.6200,39,98,371235
1.8671,0.2884,37.7700,39,98,371238
1.8671,0.3030,37.8000,39,98,371243
1.8915,0.3177,37.5600,39,98,371246
1.8671,0.3079,37.7100,39,98,371249
1.8622,0.3177,37.6200,39,98,371252
1.8328,0.3079,37.7400,39,98,371256
1.8328,0.3030,37.7400,39,98,371259
1.8524,0.3030,37.6500,39,98,371262
1.8377,0.2884,37.7100,39,98,371266
1.8671,0.3128,37.6500,39,98,371269
1.8475,0.3079,37.8300,39,98,371272
1.8524,0.3275,37.7700,39,98,371276
1.8817,0.3128,37.6800,39,98,371279
1.8671,0.2981,37.7400,39,98,371282
1.9013,0.3128,37.5300,39,98,371287
1.8866,0.3030,37.6800,39,98,371290
1.8866,0.3030,37.7400,39,98,371293
1.9257,0.3177,37.6500,39,98,371296
1.9159,0.3030,37.7700,39,98,371300
1.9892,0.3079,37.5900,39,98,371303
1.9746,0.3128,37.6500,39,98,371306
1.9844,0.3030,37.8000,39,98,371310
2.0235,0.3079,37.6500,39,98,371313
2.0332,0.3079,37.7700,39,98,371316
2.0821,0.3128,37.4600,39,98,371319
2.0381,0.3079,37.6200,39,98,371323
2.0332,0.3030,37.7400,39,98,371326
2.0283,0.3079,37.6500,39,98,371330
2.0430,0.3079,37.7400,39,98,371334
2.0772,0.3226,37.5300,39,98,371337
2.0283,0.3079,37.6800,39,98,371340
2.0137,0.3030,37.6800,39,98,371344
2.0039,0.3079,37.7400,39,98,371347
2.0088,0.2981,37.7400,39,98,371350
2.0332,0.3177,37.5600,39,98,371353
1.9941,0.2981,37.6800,39,98,371357
1.9844,0.3079,37.6200,39,98,371360
1.9648,0.3079,37.7400,39,98,371363
1.9550,0.3030,37.7700,39,98,371367
1.9795,0.3666,37.6200,39,98,371371
1.9501,0.3128,37.7100,39,98,371374
1.9550,0.3079,37.6200,39,98,371378
1.9257,0.3030,37.7400,39,98,371381
1.9110,0.3421,37.7400,39,98,371384
1.9159,0.3079,37.6200,39,98,371387
1.9013,0.3128,37.7400,39,98,371391
1.9159,0.3079,37.6200,39,98,371394
1.8866,0.3030,37.7400,39,98,371397
1.8817,0.3030,37.7400,39,98,371401
1.8964,0.3470,37.6200,39,98,371404
1.8622,0.3030,37.6200,39,98,371407
1.8817,0.3128,37.5600,39,98,371411
1.8573,0.3079,37.6800,39,98,371415
1.8377,0.3030,37.8300,39,98,371418
1.8622,0.3128,37.6500,39,98,371421
1.8328,0.3030,37.7700,39,98,371425
1.8768,0.3226,37.4300,39,98,371428
1.8573,0.3226,37.6200,39,98,371433
1.8231,0.3128,37.7100,39,98,371436
1.8084,0.3177,37.6200,39,98,371439
1.7937,0.3128,37.7400,39,98,371443
1.7889,0.2981,37.7700,39,98,371446
1.8133,0.3128,37.8000,39,98,371449
1.7937,0.2981,37.7100,39,98,371453
1.7986,0.3079,37.5900,39,98,371457
1.7986,0.3030,37.7400,39,98,371460
1.7644,0.3030,37.8700,39,98,371464
1.7889,0.3177,37.5600,39,98,371467
1.7644,0.3079,37.7400,39,98,371470
1.7840,0.3128,37.6200,39,98,371473
1.7546,0.3030,37.7100,39,98,371477
1.7546,0.3079,37.7400,39,98,371480
1.7742,0.3079,37.6500,39,98,371483
1.7498,0.3079,37.7400,39,98,371487
1.7595,0.3128,37.5900,39,98,371490
1.7351,0.3079,37.6500,39,98,371493
1.7253,0.3030,37.7700,39,98,371497
1.7351,0.3177,37.6500,39,98,371501
1.7058,0.3079,37.7700,39,98,371504
1.7449,0.3128,37.5600,39,98,371507
1.7009,0.3030,37.6800,39,98,371511
1.7107,0.3079,37.7100,39,98,371514
1.7302,0.3128,37.7400,39,98,371517
1.7204,0.3079,37.9000,39,98,371521
1.7742,0.3128,37.4600,39,98,371524
1.7498,0.3128,37.6500,39,98,371527
1.7400,0.3128,37.7100,39,98,371531
1.7546,0.3079,37.7100,39,98,371534
1.7644,0.3079,37.7400,39,98,371537
1.8328,0.3177,37.5600,39,98,371540
1.8231,0.3470,37.7400,39,98,371545
1.8280,0.3030,37.6500,39,98,371548
1.8475,0.3079,37.7700,39,98,371551
1.8622,0.3519,37.8000,39,98,371555
1.9110,0.3079,37.5600,39,98,371558
1.9062,0.3079,37.6800,39,98,371561
1.9257,0.3128,37.6200,39,98,371565
1.9208,0.3421,37.7400,39,98,371568
1.9257,0.3030,37.7400,39,98,371571
1.9453,0.3079,37.6200,39,98,371574
1.9257,0.3079,37.7700,39,98,371578
1.9550,0.3079,37.5900,39,98,371581
1.9208,0.2884,37.7400,39,98,371585
1.9208,0.3030,37.7700,39,98,371589
1.9599,0.3128,37.5900,39,98,371592
1.9257,0.3079,37.7400,39,98,371595
1.9501,0.3079,37.6200,39,98,371599
1.9404,0.2981,37.6200,39,98,371602
1.9159,0.3030,37.8300,39,98,371605
1.9453,0.3128,37.5900,39,98,371608
1.9159,0.3079,37.8300,39,98,371612
1.9697,0.3079,37.4600,39,98,371615
1.9110,0.3079,37.7100,39,98,371618
1.9013,0.3177,37.7700,39,98,371622
1.9208,0.3128,37.6800,39,98,371625
1.8964,0.3177,37.7100,39,98,371629
1.9453,0.3128,37.4600,39,98,371633
1.8964,0.3128,37.6500,39,98,371636
1.9062,0.3030,37.7700,39,98,371639
1.9110,0.3177,37.7100,39,98,371642
1.9062,0.3030,37.7400,39,98,371646
1.9599,0.3275,37.4600,39,98,371649
1.9159,0.3128,37.6800,39,98,371652
1.8964,0.3128,37.6800,39,98,371656
1.8915,0.3079,37.6800,39,98,371659
1.9110,0.2981,37.7400,39,98,371662
1.9062,0.3128,37.9900,39,98,371666
1.8817,0.3079,37.7100,39,98,371670
1.8768,0.3079,37.5600,39,98,371673
1.8573,0.3079,37.7400,39,98,371677
1.8573,0.3079,37.8000,39,98,371680
1.8866,0.3128,37.5900,39,98,371683
1.8671,0.3079,37.7100,39,98,371686
1.8817,0.3079,37.5900,39,98,371690
1.8426,0.3030,37.7400,39,98,371693
1.8328,0.3128,37.7700,39,98,371696
1.8328,0.3079,37.6800,39,98,371700
1.8231,0.3128,37.7400,39,98,371703
1.8426,0.3030,37.5600,39,98,371706
1.8133,0.2981,37.7400,39,98,371710
1.8133,0.3030,37.9000,39,98,371714
1.8280,0.3128,37.6800,39,98,371717
1.7986,0.3079,37.7700,39,98,371721
1.8280,0.3128,37.5300,39,98,371724
1.8035,0.3079,37.7400,39,98,371727
1.7937,0.3324,37.7400,39,98,371730
1.8035,0.3470,37.6800,39,98,371734
1.7840,0.3030,37.7400,39,98,371737
1.8231,0.3177,37.4300,39,98,371740
1.7791,0.3079,37.6500,39,98,371744
1.7693,0.3079,37.7400,39,98,371747
1.7693,0.3128,37.7400,39,98,371750
1.7449,0.3030,37.2800,39,98,371755
1.7937,0.3226,37.4600,39,98,371758
1.7546,0.3177,37.6200,39,98,371761
1.7400,0.3030,37.6500,39,98,371764
1.7498,0.3079,37.8300,39,98,371768
1.7595,0.3030,37.7400,39,98,371771
1.7937,0.3177,37.4600,39,98,371774
1.7693,0.3079,37.7100,39,98,371778
1.7840,0.3079,37.7100,39,98,371781
1.7693,0.3079,37.7400,39,98,371784
1.7742,0.3030,37.7700,39,98,371788
1.8231,0.3226,37.5600,39,98,371791
1.8133,0.3079,37.8300,39,98,371794
1.8524,0.3128,37.6200,39,98,371799
1.8426,0.3030,37.9600,39,98,371802
1.8671,0.3079,37.7700,39,98,371805
1.9013,0.3079,37.6200,39,98,371808
1.9159,0.3079,37.7400,39,98,371812
1.9306,0.3079,37.5600,39,98,371815
1.9159,0.3128,37.7100,39,98,371818
1.9306,0.3079,37.7400,39,98,371822
1.9550,0.3128,37.6200,39,98,371825
1.9404,0.3079,37.7400,39,98,371828
1.9746,0.3079,37.4600,39,98,371832
1.9306,0.3030,37.7400,39,98,371835
1.9306,0.3128,37.6800,39,98,371838
1.9550,0.3177,37.6500,39,98,371842
1.9257,0.3030,37.9600,39,98,371846
1.9795,0.3177,37.4900,39,98,371849
1.9501,0.3079,37.6500,39,98,371852
1.9355,0.3079,37.8000,39,98,371856
1.9453,0.3079,37.7100,39,98,371859
1.9306,0.3226,37.7400,39,98,371862
1.9844,0.3275,37.4600,39,98,371866
1.9453,0.3128,37.6200,39,98,371869
1.9306,0.3030,37.7700,39,98,371872
1.9257,0.3079,37.7100,39,98,371875
1.9159,0.3079,37.7400,39,98,371879
1.9550,0.3177,37.5300,39,98,371883
1.9257,0.3128,37.6800,39,98,371886
1.9257,0.3079,37.6200,39,98,371890
1.9257,0.3030,37.7400,39,98,371893
1.9110,0.3372,37.7400,39,98,371896
1.9355,0.3128,37.8000,39,98,371900
1.9110,0.3079,37.7100,39,98,371903
1.9257,0.3128,37.5900,39,98,371906
1.8964,0.3079,37.7400,39,98,371910
1.8817,0.3030,37.7400,39,98,371913
1.9062,0.3177,37.5600,39,98,371916
1.8719,0.3079,37.7400,39,98,371919
1.8915,0.3128,37.5600,39,98,371923
1.8622,0.3079,37.6500,39,98,371927
1.8622,0.3079,37.7700,39,98,371930
1.8817,0.3079,37.7400,39,98,371934
1.8622,0.3177,37.7700,39,98,371937
1.8915,0.3128,37.5900,39,98,371940
1.8671,0.3128,37.6500,39,98,371944
1.8426,0.3079,37.7400,39,98,371947
1.8622,0.3079,37.6800,39,98,371950
1.8280,0.3079,37.7400,39,98,371953
1.8719,0.3128,37.7100,39,98,371957
1.8231,0.3030,37.6500,39,98,371960
1.8182,0.3030,37.8000,39,98,371963
1.8231,0.3079,37.7100,39,98,371968
1.8084,0.3079,37.7400,39,98,371971
1.8671,0.3275,37.4600,39,98,371974
1.8475,0.3079,37.6800,39,98,371978
1.8915,0.3030,37.7100,39,98,371981
1.9795,0.3079,37.7400,39,98,371984
2.1017,0.2884,37.7400,39,98,371987
2.2043,0.3079,37.5600,39,98,371991
2.2385,0.3128,37.6800,39,98,371994
2.2532,0.3079,37.6500,39,98,371997
2.1750,0.3128,37.7400,39,98,372001
2.0528,0.3079,37.7400,39,98,372004
1.9404,0.3226,37.5900,39,98,372007
1.7742,0.3079,37.7100,39,98,372012
1.6667,0.3079,37.5600,39,98,372015
1.5640,0.3079,37.7400,39,98,372018
1.5152,0.3226,37.8000,39,98,372022
1.5054,0.3128,37.6200,39,98,372025
1.5005,0.3079,37.8300,39,98,372028
1.5298,0.3177,37.6200,39,98,372031
1.4809,0.3079,37.7700,39,98,372035
1.4370,0.3079,37.7400,39,98,372038
1.3881,0.3079,37.9000,39,98,372041
1.2414,0.3079,37.7400,39,98,372046
1.3001,0.3030,37.7400,39,98,372049
1.4272,0.3177,37.4300,39,98,372054
1.5005,0.3177,37.6500,39,98,372057
1.6227,0.2884,37.7400,39,98,372060
1.7009,0.3079,37.7100,39,98,372064
1.7889,0.3226,37.7400,39,98,372067
1.9208,0.3079,37.4600,39,98,372070
1.9501,0.2981,37.6500,39,98,372073
1.9892,0.3079,37.6800,39,98,372077
1.9941,0.3128,37.7400,39,98,372080
1.9990,0.3079,37.7400,39,98,372083
2.0430,0.3128,37.6200,39,98,372087
2.0137,0.3079,37.7400,39,98,372090
2.0332,0.3079,36.9800,39,98,372093
2.0137,0.3030,37.7700,39,98,372098
2.0137,0.2981,37.7700,39,98,372101
2.0430,0.3177,37.5900,39,98,372104
2.0088,0.3079,37.7100,39,98,372107
2.0332,0.3079,37.7100,39,98,372111
2.0039,0.2981,37.7700,39,98,372114
2.0039,0.2884,37.7700,39,98,372117
2.0283,0.3128,37.6500,39,98,372121
1.9990,0.3079,37.7700,39,98,372124
2.0186,0.3079,37.6500,39,98,372127
1.9746,0.3079,37.6800,39,98,372130
1.9795,0.3079,37.7400,39,98,372134
1.9941,0.3079,37.5300,39,98,372137
1.9599,0.3128,37.7700,39,98,372141
1.9892,0.3079,37.4900,39,98,372145
1.9501,0.3030,37.7700,39,98,372148
1.9501,0.3030,37.9600,39,98,372151
1.9795,0.3128,37.6800,39,98,372155
1.9453,0.3030,37.7400,39,98,372158
1.9844,0.3128,37.4600,39,98,372161
1.9501,0.3079,37.6800,39,98,372164
1.9257,0.3030,37.7400,39,98,372168
1.9306,0.3079,37.7100,39,98,372171
1.9159,0.3079,37.7700,39,98,372174
1.9648,0.3226,37.4300,39,98,372178
1.9159,0.3030,37.6200,39,98,372182
1.9013,0.2884,37.6800,39,98,372185
1.9062,0.3079,37.7400,39,98,372189
1.8915,0.3030,37.7700,39,98,372192
1.9404,0.3226,37.6200,39,98,372195
1.9013,0.3128,37.6500,39,98,372198
1.8866,0.3030,37.6800,39,98,372202
1.8671,0.3079,37.6500,39,98,372205
1.8622,0.3079,37.7700,39,98,372208
1.8817,0.3128,37.6800,39,98,372212
1.8622,0.3079,37.7700,39,98,372215
1.8719,0.3226,37.5900,39,98,372218
1.8426,0.3030,37.7400,39,98,372222
1.8377,0.2884,37.7700,39,98,372226
1.8719,0.3177,37.5600,39,98,372229
1.8426,0.3079,37.7700,39,98,372233
1.8719,0.3079,37.5900,39,98,372236
1.8280,0.2981,37.6500,39,98,372239
1.8328,0.3079,37.7700,39,98,372242
1.8475,0.3128,37.5900,39,98,372246
1.8280,0.3079,37.6200,39,98,372249
1.8426,0.3177,37.5600,39,98,372252
1.8133,0.3079,37.6500,39,98,372256
1.8035,0.3079,37.8000,39,98,372259
1.8182,0.3079,37.6500,39,98,372262
1.7889,0.2981,37.7700,39,98,372267
1.8182,0.3177,37.5300,39,98,372270
1.7791,0.3128,37.6800,39,98,372273
1.7889,0.3079,37.7400,39,98,372276
1.8084,0.3275,37.7100,39,98,372280
1.8084,0.3079,37.7400,39,98,372283
1.8622,0.3226,37.4300,39,98,372286
1.8377,0.3128,37.6200,39,98,372290
1.8231,0.3030,37.7100,39,98,372293
1.8426,0.3079,37.7400,39,98,372296
1.8475,0.3030,37.9600,39,98,372300
1.9404,0.3177,37.4900,39,98,372303
1.9062,0.3079,37.7100,39,98,372306
1.9159,0.2981,37.6500,39,98,372310
1.9306,0.3128,37.5900,39,98,372314
1.9453,0.3128,37.7700,39,98,372317
1.9892,0.3177,37.6800,39,98,372320
1.9795,0.3128,37.7100,39,98,372324
2.0039,0.3128,37.6800,39,98,372327
1.9892,0.3421,37.7100,39,98,372330
1.9892,0.3030,37.9300,39,98,372334
2.0039,0.3128,37.6800,39,98,372337
1.9892,0.2981,37.7100,39,98,372340
2.0039,0.3372,37.6200,39,98,372344
1.9697,0.3079,37.8300,39,98,372347
1.9697,0.3079,37.7400,39,98,372350
2.0039,0.3128,37.5900,39,98,372354
1.9746,0.3079,37.7400,39,98,372358
1.9941,0.3128,37.5900,39,98,372361
1.9697,0.3030,37.7400,39,98,372364
1.9599,0.3128,37.7400,39,98,372368
1.9746,0.3177,37.6500,39,98,372371
1.9453,0.3079,37.7100,39,98,372374
1.9941,0.3128,37.4600,39,98,372378
1.9550,0.3079,37.6500,39,98,372381
1.9453,0.3030,37.8300,39,98,372384
1.9697,0.3128,37.6800,39,98,372387
1.9306,0.3030,37.7400,39,98,372391
1.9795,0.3226,37.4900,39,98,372395
1.9355,0.3128,37.6200,39,98,372398
1.9208,0.3128,37.7400,39,98,372402
1.9257,0.3079,37.4600,39,98,372405
1.9110,0.3128,37.7400,39,98,372408
1.9599,0.3079,37.5900,39,98,372412
1.9159,0.3226,37.6800,39,98,372415
1.8915,0.3030,37.4300,39,98,372418
1.8866,0.2884,37.7400,39,98,372421
1.8768,0.3079,36.8800,39,98,372425
1.9062,0.3226,37.5600,39,98,372428
1.8719,0.3079,37.6800,39,98,372431
1.8817,0.3128,37.6200,39,98,372435
1.8573,0.3128,37.8300,39,98,372439
1.8475,0.3030,37.7700,39,98,372442
1.8719,0.3079,37.6200,39,98,372446
1.8426,0.3030,37.7100,39,98,372449
1.8573,0.3128,37.6200,39,98,372452
1.8182,0.3128,37.7400,39,98,372455
1.8133,0.3030,37.7700,39,98,372459
1.8231,0.3177,37.6800,39,98,372462
1.8084,0.3128,37.7400,39,98,372465
1.8182,0.3079,37.5600,39,98,372469
1.7937,0.3079,37.9300,39,98,372472
1.7889,0.3079,37.7400,39,98,372475
1.7986,0.3128,37.6200,39,98,372480
1.7644,0.3079,37.7400,39,98,372483
1.7840,0.3128,37.4600,39,98,372486
1.7693,0.3128,37.6500,39,98,372490
1.7498,0.3030,37.7400,39,98,372493
1.7693,0.3470,37.7400,39,98,372496
1.7498,0.2884,37.7100,39,98,372499
1.7986,0.3177,37.3700,39,98,372503
1.7449,0.3079,37.6800,39,98,372506
1.7302,0.3030,37.7700,39,98,372509
1.7595,0.3128,37.7700,39,98,372513
1.7204,0.3128,36.8800,39,98,372516
1.7937,0.3324,37.5600,39,98,372519
1.8133,0.3226,37.6500,39,98,372524
1.8622,0.3079,37.6500,39,98,372527
1.9550,0.3030,37.7100,39,98,372530
2.0479,0.3030,37.8700,39,98,372534
2.1701,0.3421,37.6200,39,98,372537
2.1945,0.3079,37.7400,39,98,372540
2.1848,0.3079,37.6200,39,98,372543
2.0674,0.3079,37.8700,39,98,372547
1.9306,0.3079,37.7400,39,98,372550
1.8182,0.3128,37.5600,39,98,372553
1.6569,0.3079,37.7100,39,98,372557
1.5738,0.3079,37.6800,39,98,372560
1.4907,0.3030,37.7400,39,98,372563
1.4858,0.2981,37.7700,39,98,372568
1.5103,0.3324,37.5900,39,98,372571
1.5249,0.3079,37.7700,39,98,372574
1.5396,0.3079,37.5600,39,98,372577
1.4858,0.3128,37.6800,39,98,372581
1.4418,0.3128,37.8300,39,98,372584
1.4370,0.3128,37.5900,39,98,372587
1.3343,0.3079,37.7100,39,98,372591
1.3343,0.3128,37.4900,39,98,372594
1.2805,0.3275,37.6800,39,98,372597
1.2952,0.3030,37.7400,39,98,372601
1.3539,0.3079,37.6200,39,98,372604
1.4223,0.3128,37.7400,39,98,372608
1.5494,0.3177,37.4900,39,98,372611
1.6227,0.3128,37.6500,39,98,372615
1.7009,0.3030,37.7100,39,98,372618
1.7889,0.3079,37.7400,39,98,372621
1.8622,0.3079,37.7400,39,98,372625
1.9795,0.3226,37.5300,39,98,372628
1.9746,0.3177,37.6500,39,98,372631
1.9941,0.3079,37.6800,39,98,372635
2.0137,0.3079,37.8300,39,98,372638
2.0137,0.3079,37.7700,39,98,372641
2.0919,0.3128,37.5600,39,98,372644
2.0381,0.3079,37.7700,39,98,372648
2.0332,0.3079,37.6200,39,98,372652
2.0088,0.2884,37.7400,39,98,372655
1.9892,0.3030,37.8000,39,98,372660
1.9892,0.3079,37.7400,39,98,372663
2.0039,0.3079,37.7100,39,98,372667
1.9648,0.3030,37.7400,39,98,372670
1.9844,0.3128,37.5300,39,98,372673
1.9599,0.3128,37.6800,39,98,372677
1.9453,0.3128,37.8000,39,98,372680
1.9990,0.3177,37.6800,39,98,372683
1.9404,0.3079,37.7400,39,98,372686
1.9746,0.3128,37.4900,39,98,372690
1.9404,0.3128,37.6800,39,98,372694
1.9208,0.3079,37.7400,39,98,372697
1.9599,0.3128,37.6800,39,98,372701
1.9062,0.3079,37.5900,39,98,372704
1.9648,0.3421,37.4300,39,98,372707
1.9013,0.3079,37.6200,39,98,372711
1.9110,0.2981,37.7400,39,98,372714
1.8964,0.3079,37.7100,39,98,372717
1.8915,0.3079,37.7700,39,98,372720
1.9501,0.3226,37.5300,39,98,372724
1.9110,0.3128,37.6800,39,98,372727
1.8964,0.3079,37.7400,39,98,372730
1.8915,0.3079,37.7700,39,98,372734
1.8915,0.3079,37.7700,39,98,372738
1.9404,0.3177,37.6200,39,98,372741
1.9159,0.3128,37.7400,39,98,372745
1.9257,0.3128,37.6200,39,98,372748
1.9110,0.3079,37.7100,39,98,372751
1.9453,0.3030,37.8300,39,98,372755
1.9306,0.3079,37.6500,39,98,372758
1.9159,0.2981,37.7100,39,98,372761
1.9013,0.3128,37.6500,39,98,372764
1.8524,0.2981,37.7400,39,98,372768
1.8377,0.3079,37.7700,39,98,372771
1.8377,0.3128,37.6200,39,98,372774
1.8133,0.3079,37.7100,39,98,372779
1.8768,0.3128,37.5300,39,98,372782
1.8182,0.3030,37.8000,39,98,372785
1.8377,0.3079,37.8000,39,98,372789
1.8573,0.3177,37.8300,39,98,372792
1.8426,0.2884,37.7400,39,98,372795
1.8915,0.3177,36.6100,39,98,372798
1.8915,0.3128,37.6500,39,98,372802
1.8915,0.3030,37.7100,39,98,372805
1.9208,0.3079,37.7700,39,98,372808
1.9306,0.3079,37.7700,39,98,372812
2.0039,0.3226,37.4300,39,98,372815
1.9795,0.3079,37.6500,39,98,372818
1.9892,0.2981,37.7100,39,98,372823
2.0039,0.3079,37.9600,39,98,372826
1.9990,0.3030,37.7400,39,98,372829
2.0626,0.3372,37.5300,39,98,372832
2.0186,0.3079,37.6800,39,98,372836
2.0039,0.3030,37.6500,39,98,372839
2.0332,0.2981,37.7400,39,98,372842
1.9892,0.3079,37.7400,39,98,372846
2.0528,0.3128,37.6200,39,98,372849
1.9844,0.3128,37.8300,39,98,372852
1.9844,0.3128,37.6200,39,98,372856
1.9550,0.3079,37.7400,39,98,372859
1.9844,0.3030,37.7400,39,98,372862
1.9795,0.3079,37.5300,39,98,372866
1.9453,0.3079,37.7100,39,98,372870
1.9550,0.3128,37.5900,39,98,372873
1.9208,0.2981,37.8000,39,98,372876
1.9159,0.3079,37.7400,39,98,372880
1.9355,0.3079,37.5900,39,98,372883
1.9062,0.2981,37.7100,39,98,372886
1.9208,0.3079,37.6200,39,98,372890
1.8768,0.3030,37.7400,39,98,372893
1.8719,0.3079,37.7400,39,98,372896
1.8817,0.3079,37.5600,39,98,372899
1.8573,0.3079,37.7400,39,98,372903
1.8768,0.3128,37.4600,39,98,372907
1.8377,0.3079,37.7700,39,98,372910
1.8377,0.3030,37.9900,39,98,372914
1.8573,0.3128,37.6800,39,98,372917
1.8280,0.3079,37.7400,39,98,372920
1.9062,0.3128,37.4300,39,98,372924
1.8377,0.3079,37.5600,39,98,372927
1.8328,0.2981,37.7700,39,98,372930
1.8280,0.3666,37.6800,39,98,372933
1.8182,0.3079,37.7700,39,98,372937
1.8671,0.3275,37.4900,39,98,372940
1.8280,0.3079,37.6800,39,98,372943
1.8084,0.3079,37.6800,39,98,372947
1.7986,0.3079,37.7100,39,98,372951
1.7937,0.3079,37.9900,39,98,372954
1.8280,0.3226,37.5600,39,98,372958
1.7937,0.3128,37.5900,39,98,372961
1.7986,0.3128,37.6200,39,98,372964
1.7742,0.3079,37.9000,39,98,372968
1.7644,0.3079,37.7400,39,98,372971
1.7840,0.3128,37.6800,39,98,372974
1.7693,0.2981,37.7100,39,98,372977
1.7742,0.3128,37.6500,39,98,372981
1.7498,0.3079,37.7400,39,98,372984
1.7351,0.3079,37.7400,39,98,372987
1.7595,0.3177,37.5900,39,98,372992
1.7302,0.3030,37.7700,39,98,372995
1.7449,0.3128,37.5900,39,98,372998
1.7204,0.3128,37.6800,39,98,373002
1.7253,0.3030,37.7400,39,98,373005
1.7351,0.3128,37.6500,39,98,373008
1.7204,0.3079,37.7400,39,98,373011
1.7400,0.3128,37.4000,39,98,373015
1.7400,0.3128,37.6800,39,98,373018
1.7107,0.3079,37.7700,39,98,373021
1.7253,0.3128,37.6500,39,98,373025
1.6960,0.3079,37.7400,39,98,373028
1.7302,0.3177,37.5900,39,98,373031
1.6911,0.3030,37.6800,39,98,373036
1.7009,0.3079,37.7700,39,98,373039
1.7400,0.3128,37.7100,39,98,373042
1.7058,0.3079,37.7100,39,98,373045
1.7693,0.3177,37.4300,39,98,373049
1.7204,0.3079,37.6500,39,98,373052
1.7155,0.3030,37.7100,39,98,373055
1.7302,0.3079,37.8000,39,98,373059
1.7351,0.3079,37.7400,39,98,373062
1.7889,0.3177,37.4900,39,98,373065
1.7840,0.3128,37.7100,39,98,373069
1.8035,0.3128,37.6500,39,98,373072
1.8182,0.3079,37.7100,39,98,373075
1.8475,0.3079,37.7100,39,98,373079
1.9062,0.3079,37.5900,39,98,373083
1.9110,0.3128,37.7100,39,98,373086
1.9453,0.3128,37.5900,39,98,373089
1.9306,0.3128,37.8000,39,98,373093
1.9306,0.3079,37.8000,39,98,373096
1.9501,0.3226,37.6500,39,98,373099
1.9404,0.3079,37.7400,39,98,373103
1.9746,0.3128,37.6200,39,98,373106
1.9501,0.3079,37.7400,39,98,373109
1.9550,0.3079,37.7400,39,98,373113
1.9746,0.3128,37.6500,39,98,373116
1.9404,0.3079,37.7700,39,98,373120
1.9648,0.3079,37.4900,39,98,373123
1.9355,0.3177,37.6500,39,98,373127
1.9159,0.3079,37.7400,39,98,373130
1.9257,0.3128,37.6500,39,98,373133
1.8915,0.3079,37.7400,39,98,373137
1.9355,0.3177,37.5600,39,98,373140
1.9062,0.3128,37.6500,39,98,373143
1.8866,0.3079,37.7400,39,98,373147
1.8817,0.3128,37.7100,39,98,373150
1.8719,0.3079,37.7700,39,98,373153
1.9257,0.3177,37.4900,39,98,373156
1.9013,0.3177,37.5900,39,98,373160
1.9013,0.3030,37.4000,39,98,373164
1.9062,0.3030,37.7100,39,98,373167
1.9013,0.3079,37.7400,39,98,373171
1.9501,0.3226,37.5900,39,98,373174
1.9062,0.3177,37.6800,39,98,373177
1.8817,0.3079,37.6200,39,98,373181
1.8671,0.3079,37.7400,39,98,373184
1.8573,0.3030,37.7400,39,98,373187
1.8866,0.3177,37.5600,39,98,373191
1.8671,0.3079,37.7100,39,98,373194
1.8671,0.3079,37.5900,39,98,373197
1.8377,0.2981,37.7400,39,98,373200
1.8328,0.3030,37.7700,39,98,373204
1.8622,0.3128,37.7400,39,98,373208
1.8182,0.3079,37.7700,39,98,373211
1.8328,0.3128,37.6500,39,98,373215
1.7840,0.3030,37.7400,39,98,373218
1.7889,0.3030,37.9300,39,98,373221
1.8084,0.3030,37.6500,39,98,373225
1.7937,0.3079,37.7400,39,98,373228
1.8133,0.3079,37.4900,39,98,373231
1.7840,0.3079,37.7400,39,98,373234
1.7840,0.3079,37.8000,39,98,373238
1.8035,0.3128,37.6200,39,98,373241
1.7693,0.3079,37.7400,39,98,373244
1.8035,0.3128,37.4600,39,98,373249
1.7889,0.3128,37.6500,39,98,373252
1.7742,0.3030,37.8000,39,98,373255
1.7889,0.3079,37.7100,39,98,373259
1.7742,0.3177,37.8000,39,98,373262
1.8182,0.3177,37.4300,39,98,373265
1.7840,0.3128,37.5900,39,98,373270
1.7595,0.3079,37.7400,39,98,373273
1.7498,0.3079,37.5900,39,98,373276
1.7351,0.3079,37.7400,39,98,373280
1.7351,0.3128,37.7400,39,98,373283
1.7644,0.3128,37.6800,39,98,373286
1.7546,0.3079,37.7100,39,98,373291
1.7791,0.3128,37.5900,39,98,373294
1.7546,0.3128,37.7400,39,98,373297
1.7595,0.3079,37.7700,39,98,373301
1.7986,0.3079,37.5900,39,98,373304
1.7840,0.3079,37.9900,39,98,373307
1.8280,0.3079,37.5600,39,98,373310
1.8231,0.2884,37.6800,39,98,373314
1.8377,0.3079,37.7100,39,98,373317
1.8768,0.3128,36.7000,39,98,373320
1.8719,0.3079,37.7400,39,98,373324
1.9257,0.3128,37.4900,39,98,373327
1.9208,0.3128,37.7100,39,98,373330
1.9257,0.3079,37.7400,39,98,373335
1.9550,0.3079,37.6800,39,98,373338
1.9355,0.3079,37.7400,39,98,373341
1.9844,0.3177,37.4600,39,98,373344
1.9257,0.3079,37.6800,39,98,373348
1.9306,0.3030,37.9300,39,98,373351
1.9404,0.3128,37.7100,39,98,373354
1.9208,0.3079,37.8000,39,98,373358
1.9795,0.3275,37.4600,39,98,373361
1.9501,0.3128,37.6800,39,98,373364
1.9453,0.3030,37.6500,39,98,373368
1.9599,0.3079,37.7400,39,98,373371
1.9599,0.3079,37.7100,39,98,373374
2.0186,0.3128,37.5600,39,98,373378
1.9990,0.3079,37.5900,39,98,373382
1.9990,0.3177,37.6200,39,98,373385
1.9892,0.3079,37.7400,39,98,373388
1.9844,0.3030,37.7400,39,98,373392
2.0088,0.3177,37.5900,39,98,373395
1.9697,0.3079,37.8300,39,98,373398
1.9697,0.3275,37.5900,39,98,373402
1.9159,0.3079,37.7700,39,98,373405
1.9159,0.2884,37.7700,39,98,373408
1.9257,0.3079,37.6500,39,98,373411
1.9110,0.3030,37.7100,39,98,373415
1.9453,0.3177,37.6200,39,98,373419
1.8768,0.3079,37.7400,39,98,373422
1.8622,0.3079,37.7400,39,98,373426
1.8622,0.3226,37.6200,39,98,373429
1.8231,0.3030,37.7400,39,98,373432
1.8475,0.3128,37.5300,39,98,373436
1.8133,0.3079,37.6800,39,98,373439
1.8035,0.2981,37.7400,39,98,373442
1.8231,0.3177,37.5600,39,98,373446
1.8133,0.3079,37.7100,39,98,373449
1.8328,0.3079,37.4000,39,98,373452
1.8182,0.2981,37.4000,39,98,373455
1.7840,0.3079,37.7700,39,98,373459
1.7937,0.3617,37.6800,39,98,373463
1.7840,0.3079,37.7400,39,98,373466
1.8328,0.3226,37.4300,39,98,373470
1.7937,0.3079,37.5900,39,98,373473
1.7791,0.3030,37.7100,39,98,373476
1.7791,0.3079,37.7400,39,98,373480
1.7693,0.2981,37.7400,39,98,373483
1.8133,0.3226,37.6800,39,98,373486
1.7742,0.3128,37.6500,39,98,373489
1.7742,0.3079,37.6500,39,98,373493
1.7595,0.2884,37.7400,39,98,373496
1.7595,0.3079,37.7100,39,98,373499
1.7986,0.3177,37.5300,39,98,373504
1.8084,0.3275,37.7100,39,98,373507
1.8866,0.3128,37.6200,39,98,373510
1.9404,0.3079,37.7400,39,98,373514
2.0137,0.3079,37.7700,39,98,373517
2.1261,0.3177,37.6500,39,98,373520
2.1505,0.3079,37.7400,39,98,373524
2.1750,0.3128,37.6500,39,98,373527
2.0772,0.3079,37.7100,39,98,373530
1.9746,0.3030,37.7400,39,98,373533
1.8622,0.3128,37.5600,39,98,373537
1.7351,0.3079,37.7400,39,98,373540
1.6618,0.3079,37.5300,39,98,373543
1.5689,0.3079,37.7700,39,98,373548
1.5298,0.3079,37.7700,39,98,373551
1.5396,0.3128,37.6800,39,98,373554
1.5249,0.3079,37.7400,39,98,373558
1.5640,0.3177,37.4900,39,98,373561
1.5054,0.3177,37.6200,39,98,373564
1.4370,0.3079,37.7100,39,98,373567
1.3783,0.3177,37.7100,39,98,373571
1.3099,0.3079,37.7400,39,98,373574
1.2903,0.3226,37.5300,39,98,373577
1.2463,0.3128,37.6500,39,98,373581
1.2512,0.3079,37.6500,39,98,373584
1.3099,0.3079,37.7400,39,98,373587
1.3783,0.3079,37.7100,39,98,373592
1.5152,0.3275,37.6200,39,98,373595
1.5836,0.3128,37.5900,39,98,373598
1.6862,0.3128,37.6800,39,98,373602
1.7400,0.3079,37.7700,39,98,373605
1.8182,0.3079,37.7700,39,98,373608
1.9159,0.3177,37.6500,39,98,373611
1.9404,0.3079,37.7400,39,98,373615
1.9941,0.3079,37.5900,39,98,373618
2.0039,0.3079,37.7100,39,98,373621
2.0088,0.3079,37.7700,39,98,373625
2.0479,0.3177,37.9900,39,98,373628
2.0283,0.3079,37.7100,39,98,373632
2.0479,0.3177,37.6200,39,98,373636
2.0137,0.3030,37.7100,39,98,373639
2.0186,0.3079,37.7700,39,98,373642
2.0283,0.3128,37.6500,39,98,373645
2.0430,0.3128,37.7400,39,98,373649
2.0332,0.3128,37.5600,39,98,373652
2.0039,0.3079,37.6800,39,98,373655
2.0088,0.3079,37.7400,39,98,373659
2.0332,0.3128,37.5900,39,98,373662
2.0137,0.3079,37.7100,39,98,373665
2.0919,0.3128,37.4900,39,98,373668
2.0235,0.3079,37.7100,39,98,373672
2.0381,0.3079,37.7400,39,98,373676
2.0479,0.3079,37.8000,39,98,373679
2.0332,0.3030,37.7700,39,98,373683
2.0723,0.3226,37.4300,39,98,373686
2.0235,0.3128,37.7100,39,98,373689
1.9941,0.2981,37.7700,39,98,373693
1.9795,0.3079,37.7400,39,98,373696
1.9648,0.2884,37.7700,39,98,373699
2.0186,0.3275,37.9600,39,98,373702
1.9746,0.3128,37.6800,39,98,373706
1.9550,0.3030,37.6500,39,98,373709
1.9501,0.3128,37.7700,39,98,373712
1.9208,0.3079,37.7400,39,98,373716
1.9453,0.3226,37.5600,39,98,373720
1.8817,0.3128,37.6800,39,98,373723
1.8426,0.3128,37.6800,39,98,373727
1.8035,0.3079,37.7400,39,98,373730
1.7840,0.3079,37.7400,39,98,373733
1.8084,0.3177,37.6500,39,98,373736
1.7937,0.3079,37.7100,39,98,373740
1.8231,0.3128,37.6200,39,98,373743
1.8084,0.2981,37.7400,39,98,373746
1.8182,0.3079,37.8000,39,98,373750
1.8475,0.3177,37.6500,39,98,373753
1.8133,0.3079,37.7400,39,98,373756
1.8328,0.3666,37.6200,39,98,373761
1.7937,0.3079,37.6800,39,98,373764
1.7840,0.3177,37.7400,39,98,373767
1.8035,0.3079,37.8000,39,98,373771
1.7840,0.3079,37.7700,39,98,373774
1.8035,0.3128,37.5600,39,98,373777
1.7791,0.3079,37.6200,39,98,373780
1.7791,0.2981,37.7400,39,98,373784
1.7937,0.3079,37.7400,39,98,373787
1.7693,0.3079,37.7700,39,98,373790
1.8035,0.3128,37.4600,39,98,373794
1.7595,0.3030,37.7100,39,98,373797
1.7644,0.3079,37.7400,39,98,373800
1.7791,0.3079,37.8300,39,98,373804
1.7791,0.3079,37.7400,39,98,373808
1.8377,0.3177,37.4000,39,98,373811
1.7937,0.3128,37.7100,39,98,373814
1.7937,0.3030,37.6500,39,98,373818
1.8084,0.3128,37.7400,39,98,373821
1.8182,0.3079,37.1600,39,98,373824
1.8915,0.3226,37.5600,39,98,373828
1.8719,0.3324,37.7100,39,98,373831
1.8866,0.3079,37.6500,39,98,373834
1.9013,0.3128,37.7400,39,98,373838
1.9257,0.3079,37.7400,39,98,373841
1.9697,0.3177,37.5900,39,98,373844
1.9697,0.3079,37.7100,39,98,373848
1.9990,0.3470,37.6500,39,98,373852
1.9844,0.3079,37.7400,39,98,373855
1.9844,0.3030,37.7400,39,98,373858
2.0039,0.3128,37.6800,39,98,373862
1.9844,0.3079,37.8000,39,98,373865
1.9990,0.3177,37.6200,39,98,373868
1.9697,0.3128,37.6500,39,98,373872
1.9648,0.3128,37.7700,39,98,373875
1.9990,0.3128,36.7300,39,98,373878
1.9697,0.3079,37.7100,39,98,373883
1.9550,0.3030,37.7700,39,98,373886
2.0039,0.3226,37.4600,39,98,373890
1.9599,0.3079,37.6500,39,98,373894
1.9501,0.3079,37.7400,39,98,373897
1.9599,0.3128,37.6800,39,98,373900
1.9453,0.3030,37.7400,39,98,373904
2.0039,0.3275,37.4900,39,98,373907
1.9550,0.3275,37.6200,39,98,373910
1.9355,0.3030,37.6500,39,98,373914
1.9306,0.3079,37.8000,39,98,373917
1.9208,0.3079,37.7400,39,98,373920
1.9501,0.3177,37.6500,39,98,373923
1.9208,0.3128,37.6800,39,98,373927
1.9159,0.3128,37.6200,39,98,373931
1.8964,0.3079,37.8000,39,98,373934
1.8964,0.3079,37.8300,39,98,373938
1.9257,0.3568,37.5900,39,98,373941
1.8915,0.3079,37.7700,39,98,373944
1.9110,0.3177,37.5900,39,98,373948
1.8817,0.3079,37.7700,39,98,373951
1.8768,0.3079,37.5900,39,98,373954
1.9013,0.3128,37.6200,39,98,373957
1.8671,0.3079,37.6500,39,98,373961
1.9110,0.3128,37.5600,39,98,373964
1.8475,0.3030,37.6500,39,98,373967
1.8426,0.2981,37.7700,39,98,373971
1.8573,0.3128,37.6200,39,98,373975
1.8475,0.2884,37.7400,39,98,373978
1.8671,0.3128,37.4300,39,98,373982
1.8231,0.3079,37.9000,39,98,373985
1.8133,0.3079,37.7400,39,98,373988
1.8231,0.3177,37.6800,39,98,373992
1.7986,0.2981,37.7700,39,98,373995
1.8475,0.3177,37.4300,39,98,373998
1.8133,0.3030,37.6800,39,98,374001
1.7937,0.3079,37.7400,39,98,374005
1.7986,0.3177,37.7700,39,98,374008
1.7840,0.3079,37.7400,39,98,374011
1.8328,0.3275,37.4600,39,98,374016
1.7937,0.3079,37.7400,39,98,374019
1.7742,0.3128,37.6800,39,98,374022
1.7644,0.3079,37.1000,39,98,374026
1.7449,0.3079,37.7400,39,98,374029
1.7644,0.3177,37.5900,39,98,374032
1.7449,0.3079,37.6500,39,98,374035
1.7449,0.3128,37.6200,39,98,374039
1.7155,0.3079,37.7100,39,98,374042
1.7253,0.3079,37.7400,39,98,374045
1.7595,0.3324,37.6500,39,98,374049
1.7693,0.3079,37.7400,39,98,374052
1.8328,0.3128,37.5900,39,98,374055
1.8915,0.3079,37.7400,39,98,374060
1.9892,0.3079,37.7400,39,98,374063
2.1163,0.3177,37.5900,39,98,374066
2.1750,0.3079,37.7700,39,98,374070
2.2532,0.3128,37.5600,39,98,374073
2.1994,0.3030,37.6500,39,98,374076
2.1310,0.2981,37.7700,39,98,374079
2.0479,0.3128,37.5900,39,98,374083
1.9453,0.3030,37.7700,39,98,374086
1.8377,0.3128,37.4900,39,98,374089
1.7595,0.3128,37.6800,39,98,374093
1.6960,0.3079,37.4600,39,98,374096
1.7107,0.3128,37.6500,39,98,374099
1.6862,0.3079,37.7100,39,98,374104
1.7107,0.3421,37.4300,39,98,374107
1.6178,0.3030,37.6200,39,98,374110
1.5494,0.2981,37.7400,39,98,374113
1.4663,0.3079,37.7400,39,98,374117
1.3881,0.3079,37.7400,39,98,374120
1.3636,0.3226,37.4900,39,98,374123
1.3099,0.3128,37.6800,39,98,374127
1.3050,0.3030,37.8000,39,98,374130
1.3734,0.3079,37.7100,39,98,374133
1.4223,0.3079,37.8000,39,98,374137
1.5396,0.3128,37.5600,39,98,374140
1.6031,0.3128,37.1000,39,98,374144
1.6911,0.3030,37.6200,39,98,374148
1.7595,0.3079,37.7400,39,98,374151
1.8182,0.3079,37.7700,39,98,374154
1.9062,0.3177,37.6200,39,98,374157
1.9159,0.3128,37.6800,39,98,374161
1.9599,0.3128,37.5900,39,98,374164
1.9453,0.3079,37.7400,39,98,374167
1.9599,0.3079,37.7400,39,98,374171
1.9844,0.3030,37.6200,39,98,374174
1.9844,0.3079,37.7400,39,98,374177
2.0088,0.3079,37.5900,39,98,374181
1.9648,0.2884,37.7400,39,98,374184
1.9599,0.3079,37.7700,39,98,374188
1.9697,0.3177,37.6200,39,98,374191
1.9453,0.3128,37.7100,39,98,374195
1.9697,0.3128,37.5300,39,98,374198
1.9453,0.3128,37.5900,39,98,374201
1.9257,0.3079,37.7400,39,98,374205
1.9550,0.3177,37.6500,39,98,374208
1.9208,0.3079,37.6500,39,98,374211
1.9648,0.3177,37.4600,39,98,374215
1.9208,0.3079,37.6500,39,98,374218
1.9257,0.3079,37.7100,39,98,374221
1.8964,0.3079,37.8300,39,98,374225
1.8964,0.2981,37.7700,39,98,374228
1.9208,0.3079,37.5300,39,98,374232
1.8817,0.3177,37.6200,39,98,374235
1.8719,0.3079,37.9600,39,98,374239
1.8671,0.2884,37.7100,39,98,374242
1.8719,0.3079,37.7700,39,98,374245
1.8866,0.3226,37.6500,39,98,374249
1.8524,0.3177,37.7100,39,98,374252
1.8622,0.3079,37.6500,39,98,374255
1.8475,0.2884,37.7400,39,98,374259
1.8524,0.3030,37.7400,39,98,374262
1.9208,0.3128,37.5900,39,98,374265
1.8524,0.3079,37.7100,39,98,374269
1.8768,0.3128,37.5900,39,98,374273
1.8328,0.3079,37.9600,39,98,374276
1.8231,0.3030,37.8000,39,98,374279
1.8475,0.3128,37.6500,39,98,374283
1.8133,0.3275,37.7400,39,98,374286
1.8280,0.3128,37.5600,39,98,374289
1.7937,0.3030,37.7100,39,98,374293
1.7986,0.3079,37.7700,39,98,374296
1.8182,0.3177,37.5600,39,98,374299
1.8035,0.3079,37.7400,39,98,374303
1.8426,0.3128,37.4900,39,98,374306
1.8133,0.3030,37.7700,39,98,374309
1.8231,0.2981,37.7400,39,98,374312
1.8475,0.3128,37.6800,39,98,374317
1.8426,0.3079,37.7100,39,98,374320
1.9013,0.3177,37.3400,39,98,374323
1.9159,0.3128,37.6200,39,98,374327
1.8964,0.3128,37.8000,39,98,374330
1.9208,0.3128,37.7400,39,98,374333
1.9404,0.3079,37.9600,39,98,374337
2.0186,0.3324,37.4900,39,98,374340
1.9941,0.3177,37.9000,39,98,374343
1.9941,0.3030,37.6500,39,98,374346
2.0088,0.3079,37.7400,39,98,374350
2.0137,0.3079,37.9000,39,98,374353
2.0626,0.3226,37.5600,39,98,374356
2.0430,0.3128,37.6800,39,98,374361
2.0332,0.3030,37.6500,39,98,374364
2.0137,0.3030,37.7400,39,98,374367
2.0088,0.3079,37.9000,39,98,374371
2.0332,0.3715,37.6500,39,98,374374
2.0088,0.3079,37.7400,39,98,374377
2.0186,0.3079,37.6500,39,98,374380
1.9844,0.2981,37.7100,39,98,374384
1.9795,0.3079,37.8700,39,98,374387
2.0039,0.3177,37.5600,39,98,374390
1.9648,0.3079,37.8300,39,98,374394
1.9941,0.3128,37.5900,39,98,374397
1.9453,0.3030,37.7700,39,98,374401
1.9355,0.3030,37.7700,39,98,374405
1.9501,0.3079,37.9000,39,98,374408
1.9208,0.3128,37.7100,39,98,374411
1.9453,0.3128,37.4900,39,98,374414
1.9110,0.3030,37.6800,39,98,374418
1.9257,0.3030,37.7400,39,98,374421
1.9208,0.3226,37.5300,39,98,374424
1.8915,0.3128,37.7400,39,98,374428
1.9257,0.3177,37.4600,39,98,374431
1.8817,0.3030,37.6500,39,98,374434
1.8817,0.3079,37.9000,39,98,374438
1.8719,0.3128,37.6800,39,98,374441
1.8475,0.3079,37.8000,39,98,374445
1.9013,0.3177,37.4300,39,98,374448
1.8524,0.3079,37.5900,39,98,374452
1.8328,0.3079,37.7100,39,98,374455
1.8328,0.3079,37.8300,39,98,374458
1.8182,0.3128,37.7400,39,98,374462
1.8622,0.3275,37.5300,39,98,374465
1.8231,0.3128,37.6800,39,98,374468
1.8035,0.3079,37.5900,39,98,374472
1.7986,0.3128,37.7400,39,98,374475
1.7840,0.3079,37.7400,39,98,374478
1.8084,0.3128,37.5600,39,98,374481
1.7889,0.3128,37.7100,39,98,374486
1.7937,0.3079,37.6200,39,98,374489
1.7644,0.3079,37.7400,39,98,374492
1.7449,0.3079,37.7400,39,98,374497
1.7595,0.3079,37.9900,39,98,374500
1.8133,0.3177,37.6200,39,98,374504
1.7546,0.3079,37.7100,39,98,374507
1.7742,0.3128,37.4900,39,98,374510
1.7595,0.3079,37.7100,39,98,374514
1.7449,0.3030,37.7400,39,98,374517
1.7546,0.3177,37.7700,39,98,374520
1.7693,0.3079,37.7400,39,98,374524
1.7791,0.3079,37.4900,39,98,374528
1.7204,0.3128,37.6500,39,98,374531
1.7058,0.3030,37.8000,39,98,374534
1.7058,0.3177,37.8000,39,98,374538
1.7009,0.2884,37.7400,39,98,374541
1.7449,0.3079,36.8200,39,98,374544
1.7204,0.3177,37.6200,39,98,374548
1.7107,0.3030,37.7100,39,98,374551
1.7107,0.3079,37.7700,39,98,374554
1.7155,0.3079,37.7700,39,98,374558
1.7595,0.3177,37.6200,39,98,374561
1.7449,0.3079,37.7100,39,98,374564
1.7644,0.3128,37.6200,39,98,374567
1.7693,0.3079,37.7400,39,98,374572
1.7889,0.3030,37.7400,39,98,374575
1.8377,0.3177,37.5600,39,98,374578
1.8328,0.3079,37.7100,39,98,374582
1.8768,0.3177,37.6200,39,98,374585
1.8719,0.3030,37.7400,39,98,374588
1.8866,0.3079,37.7400,39,98,374592
1.9306,0.3128,37.6200,39,98,374595
1.9208,0.3079,37.7100,39,98,374598
1.9550,0.3079,37.6200,39,98,374602
1.9306,0.3030,37.7100,39,98,374605
1.9355,0.3079,37.7400,39,98,374608
1.9501,0.3128,37.5900,39,98,374611
1.9501,0.3079,37.7100,39,98,374616
1.9599,0.3079,37.4300,39,98,374619
1.9257,0.3079,37.7100,39,98,374622
1.9257,0.3079,37.7700,39,98,374626
1.9355,0.3128,37.6800,39,98,374629
1.9110,0.3079,37.7700,39,98,374632
1.9648,0.3177,37.4300,39,98,374636
1.9208,0.3372,37.6800,39,98,374639
1.9062,0.2884,37.7400,39,98,374642
1.9062,0.3226,37.7400,39,98,374645
1.8964,0.3079,37.7100,39,98,374649
1.9550,0.3275,37.4600,39,98,374652
1.9110,0.3128,37.6500,39,98,374656
1.8964,0.3079,37.6500,39,98,374660
1.8964,0.3079,37.7400,39,98,374663
1.8915,0.3079,37.7700,39,98,374666
1.9306,0.3128,37.5900,39,98,374670
1.9062,0.3079,37.9300,39,98,374673
1.9062,0.3128,37.6200,39,98,374676
1.8915,0.3079,37.7400,39,98,374679
1.9159,0.3030,37.7400,39,98,374683
1.9110,0.3079,37.7100,39,98,374686
1.8768,0.3079,37.7100,39,98,374689
1.8866,0.3128,37.5900,39,98,374693
1.8524,0.3128,37.7100,39,98,374696
1.8524,0.3079,37.7400,39,98,374700
1.9062,0.3275,37.5900,39,98,374704
1.8573,0.3079,37.7100,39,98,374707
1.8768,0.3128,37.5300,39,98,374710
1.8573,0.3079,37.8300,39,98,374714
1.8768,0.2981,37.7100,39,98,374717
1.8719,0.3324,37.6200,39,98,374720
1.8475,0.3079,37.7700,39,98,374723
1.8671,0.3128,37.9000,39,98,374727
1.8182,0.3128,37.6500,39,98,374730
1.7986,0.3079,37.6500,39,98,374733
1.8377,0.3177,37.7100,39,98,374737
1.7889,0.3079,37.7700,39,98,374740
1.8328,0.3128,37.4600,39,98,374744
1.7889,0.3079,37.5900,39,98,374748
1.7889,0.2884,37.7400,39,98,374751
1.7840,0.3079,37.7100,39,98,374754
1.7791,0.3079,37.7700,39,98,374758
1.8280,0.3275,37.4900,39,98,374761
1.7937,0.3128,37.6800,39,98,374764
1.7742,0.3030,37.7100,39,98,374767
1.7693,0.3079,37.7400,39,98,374771
1.7595,0.3079,37.7400,39,98,374774
1.7986,0.3177,37.5300,39,98,374777
1.7546,0.3421,37.7400,39,98,374781
1.7546,0.3079,37.6200,39,98,374785
1.7302,0.3030,37.8000,39,98,374788
1.7204,0.3030,37.7100,39,98,374792
1.7449,0.3079,37.5600,39,98,374795
1.7253,0.3079,37.7400,39,98,374798
1.7449,0.3128,37.5900,39,98,374801
1.7351,0.3079,37.8000,39,98,374805
1.7400,0.3079,37.7400,39,98,374808
1.7498,0.3079,37.7700,39,98,374811
1.7449,0.2981,37.6800,39,98,374815
1.7742,0.3128,37.6200,39,98,374818
1.7595,0.3079,37.8700,39,98,374821
1.7742,0.3079,37.7700,39,98,374825
1.8133,0.3128,37.6200,39,98,374829
1.7986,0.2981,37.7100,39,98,374832
1.8475,0.3128,37.4900,39,98,374835
1.8573,0.3079,37.5900,39,98,374839
1.8964,0.2981,37.7100,39,98,374842
1.9062,0.3079,37.6500,39,98,374845
1.8964,0.2981,37.7400,39,98,374849
1.9501,0.3177,37.3700,39,98,374852
1.9159,0.3128,37.6800,39,98,374855
1.9062,0.3079,37.7700,39,98,374859
1.9306,0.3128,37.7100,39,98,374862
1.9257,0.3079,37.7400,39,98,374865
1.9892,0.3275,37.4900,39,98,374868
1.9453,0.3372,37.6800,39,98,374873
1.9306,0.3030,37.6800,39,98,374876
1.9257,0.3079,37.7100,39,98,374879
1.9208,0.3079,37.8000,39,98,374883
1.9599,0.3177,37.2800,39,98,374886
1.9257,0.2884,37.7400,39,98,374889
1.9355,0.3079,37.5900,39,98,374893
1.9110,0.3128,37.8300,39,98,374896
1.9110,0.3079,37.8000,39,98,374899
1.9453,0.3177,37.5600,39,98,374903
1.9159,0.3030,37.7100,39,98,374906
1.9306,0.3128,37.5600,39,98,374909
1.9013,0.3079,37.7400,39,98,374913
1.8964,0.2981,37.7400,39,98,374917
1.9159,0.3128,37.9300,39,98,374920
1.8866,0.3079,37.7400,39,98,374923
1.9159,0.3128,37.5900,39,98,374927
1.8866,0.3079,37.6500,39,98,374930
1.8915,0.3079,37.1000,39,98,374933
1.9062,0.3128,37.5900,39,98,374937
1.8768,0.3079,37.7700,39,98,374940
1.9013,0.3128,37.4900,39,98,374943
1.8622,0.3226,37.7400,39,98,374947
1.8573,0.3079,37.8000,39,98,374950
1.8622,0.3079,37.7100,39,98,374953
1.8475,0.3128,37.7100,39,98,374957
1.8915,0.3519,37.4300,39,98,374961
1.8524,0.3128,37.6800,39,98,374964
1.8524,0.3079,37.8000,39,98,374967
1.8524,0.3079,37.9000,39,98,374971
1.8426,0.3079,37.8000,39,98,374974
1.8964,0.3275,37.4900,39,98,374977
1.8426,0.3372,37.6200,39,98,374981
1.8280,0.3030,37.7100,39,98,374984
1.8231,0.3079,37.5900,39,98,374987
1.8377,0.3079,37.7400,39,98,374990
1.8622,0.3128,37.7700,39,98,374994
1.8622,0.3128,37.6800,39,98,374998
1.9013,0.3128,37.6500,39,98,375001
1.9599,0.3079,37.7700,39,98,375005
2.0430,0.3079,37.7400,39,98,375008
2.1505,0.3128,37.7100,39,98,375011
2.1945,0.3079,37.6800,39,98,375015
2.2678,0.3128,37.5900,39,98,375018
2.1750,0.3079,37.7400,39,98,375021
2.0626,0.3079,37.6800,39,98,375024
1.9501,0.3128,37.8000,39,98,375028
1.7644,0.3079,37.7400,39,98,375031
1.6520,0.3128,36.7900,39,98,375034
1.5347,0.3079,37.6800,39,98,375038
1.4663,0.3079,37.6800,39,98,375042
1.4516,0.3128,37.6200,39,98,375045
1.4272,0.3079,37.8000,39,98,375049
1.4418,0.3128,37.4600,39,98,375052
1.4174,0.3079,37.6500,39,98,375055
1.3783,0.2884,37.7100,39,98,375059
1.3490,0.3079,37.7100,39,98,375062
1.2659,0.2981,37.7400,39,98,375065
1.2366,0.3079,37.1600,39,98,375068
1.1584,0.3079,37.6500,39,98,375072
1.1486,0.3079,37.7400,39,98,375075
1.1730,0.3128,37.7700,39,98,375078
1.2219,0.3470,37.7400,39,98,375083
1.3490,0.3275,37.4600,39,98,375086
1.4027,0.3079,37.7400,39,98,375089
1.5054,0.2981,37.7100,39,98,375093
1.6129,0.3079,37.7400,39,98,375096
1.7155,0.3030,37.7400,39,98,375099
1.8524,0.3177,37.5900,39,98,375102
2.0430,0.3079,37.6200,39,98,375107
2.0283,0.3079,37.7100,39,98,375111
2.0577,0.3128,37.5900,39,98,375114
2.0332,0.3030,37.8700,39,98,375117
2.0381,0.3128,37.7400,39,98,375120
2.0626,0.3128,37.6200,39,98,375124
2.0381,0.3079,37.7400,39,98,375128
2.0723,0.3128,37.5300,39,98,375131
2.0332,0.3030,37.7700,39,98,375135
2.0528,0.3079,37.7700,39,98,375138
2.0332,0.3128,37.5900,39,98,375141
2.0039,0.3079,37.7400,39,98,375144
2.0430,0.3128,37.4900,39,98,375148
2.0039,0.3128,37.6500,39,98,375151
1.9795,0.3079,37.8000,39,98,375154
1.9844,0.3128,37.6800,39,98,375158
1.9599,0.3079,37.7400,39,98,375161
2.0381,0.3177,37.4300,39,98,375164
1.9501,0.3324,37.6500,39,98,375169
1.9453,0.3030,37.7100,39,98,375172
1.9550,0.3079,37.7100,39,98,375175
1.9648,0.2884,37.7700,39,98,375178
2.0088,0.3275,37.6500,39,98,375182
1.9697,0.3177,37.6800,39,98,375185
1.9599,0.3030,36.7600,39,98,375188
1.9746,0.3128,37.7400,39,98,375192
1.9453,0.3079,37.7100,39,98,375195
1.9599,0.3177,37.6800,39,98,375198
1.9159,0.3079,37.7100,39,98,375202
1.9257,0.3128,37.6500,39,98,375205
1.8817,0.3079,37.7400,39,98,375208
1.8768,0.3079,37.7700,39,98,375213
1.8964,0.3177,37.5600,39,98,375216
1.8719,0.3079,37.7400,39,98,375219
1.8915,0.3421,37.5900,39,98,375222
1.8671,0.3030,37.7400,39,98,375226
1.8573,0.3079,37.7100,39,98,375229
1.8817,0.3128,37.6200,39,98,375232
1.8671,0.3128,37.8000,39,98,375236
1.8964,0.3128,37.5600,39,98,375239
1.8768,0.3030,37.6500,39,98,375242
1.8817,0.3079,37.7700,39,98,375246
1.8964,0.3177,37.9000,39,98,375249
1.8964,0.2981,37.7400,39,98,375252
1.8866,0.3079,37.5300,39,98,375256
1.8328,0.3030,37.7100,39,98,375260
1.8377,0.3079,37.6500,39,98,375263
1.8377,0.3128,37.7100,39,98,375266
1.8280,0.3079,37.7100,39,98,375270
1.8866,0.3177,37.4000,39,98,375273
1.8377,0.3128,37.5900,39,98,375276
1.8182,0.2884,37.7100,39,98,375280
1.8182,0.3177,37.7100,39,98,375283
1.8084,0.3079,37.7400,39,98,375286
1.8622,0.3275,37.7700,39,98,375289
1.8231,0.3079,37.6800,39,98,375293
1.8084,0.3079,37.6500,39,98,375297
1.7986,0.3079,37.6800,39,98,375300
1.7840,0.3079,37.7400,39,98,375304
