ecg,gsr,temp,hr,spo2,timest
1.6862,0.4203,39.2800,77,97,287495
1.7009,0.3910,39.3200,77,97,287498
1.7155,0.3959,39.1900,77,97,287501
1.7155,0.3959,39.2800,77,97,287505
1.7400,0.4008,39.0900,77,97,287508
1.7449,0.3959,39.2800,77,97,287511
1.7351,0.3959,39.3200,77,97,287515
1.7595,0.3959,39.1900,77,97,287518
1.7449,0.3959,39.3500,77,97,287521
1.8084,0.3959,39.0300,77,97,287524
1.7644,0.4008,39.1600,77,97,287528
1.7546,0.3959,39.3200,77,97,287532
1.7644,0.3861,39.2500,77,97,287535
1.7644,0.3959,39.2800,77,97,287539
1.8182,0.4106,38.9600,77,97,287542
1.7791,0.4301,39.2200,77,97,287545
1.7791,0.3910,39.2500,77,97,287549
1.7840,0.3959,39.3500,77,97,287552
1.7791,0.4008,39.2800,77,97,287555
1.8280,0.4106,39.1200,77,97,287559
1.7986,0.4057,39.2500,77,97,287562
1.8280,0.3959,39.1900,77,97,287565
1.7889,0.3959,39.2200,77,97,287568
1.7840,0.3959,39.3200,77,97,287572
1.8035,0.4106,39.1900,77,97,287576
1.7889,0.4008,39.3200,77,97,287579
1.7937,0.4008,39.1600,77,97,287583
1.7791,0.3959,39.2800,77,97,287586
1.7742,0.3959,39.4400,77,97,287589
1.8035,0.3959,39.1200,77,97,287593
1.7693,0.4008,39.2200,77,97,287597
1.7595,0.3959,39.2800,77,97,287601
1.8084,0.4106,39.0300,77,97,287604
1.7644,0.3959,39.1900,77,97,287607
1.7644,0.3959,39.2800,77,97,287611
1.7693,0.3959,39.3500,77,97,287614
1.7644,0.3910,39.2500,77,97,287618
1.8133,0.4106,39.0000,77,97,287622
1.7693,0.4057,39.2500,77,97,287625
1.7742,0.3910,39.2500,77,97,287628
1.7742,0.3959,39.1600,77,97,287631
1.7644,0.3959,39.2800,77,97,287635
1.8084,0.4106,39.0900,77,97,287638
1.7742,0.4008,39.2500,77,97,287641
1.7791,0.3959,39.1600,77,97,287645
1.7693,0.3959,39.2800,77,97,287648
1.7742,0.3959,39.2800,77,97,287651
1.7986,0.4008,39.0900,77,97,287655
1.7644,0.3861,39.2500,77,97,287659
1.7889,0.4008,39.1200,77,97,287662
1.7693,0.3959,39.2800,77,97,287666
1.7644,0.3959,39.2800,77,97,287669
1.7889,0.3959,39.1900,77,97,287672
1.7693,0.3959,39.2800,77,97,287675
1.7986,0.4008,39.1600,77,97,287679
1.7644,0.3959,39.2500,77,97,287682
1.7693,0.3959,39.2500,77,97,287685
1.7791,0.3861,39.1900,77,97,287689
1.7742,0.3959,39.2800,77,97,287692
1.8084,0.4008,39.0600,77,97,287695
1.7693,0.3959,39.3200,77,97,287699
1.7742,0.3861,39.2800,77,97,287703
1.7840,0.4008,39.2200,77,97,287706
1.7644,0.3959,39.2800,77,97,287710
1.8133,0.4106,38.9600,77,97,287713
1.7840,0.4008,39.1900,77,97,287716
1.7840,0.3861,39.2800,77,97,287719
1.7937,0.4008,39.2500,77,97,287723
1.7937,0.3959,39.2800,77,97,287726
1.8426,0.4497,39.0900,77,97,287729
1.7889,0.3861,39.2500,77,97,287733
1.7889,0.3959,39.1600,77,97,287736
1.7791,0.3959,39.2800,77,97,287739
1.7791,0.3959,39.2800,77,97,287744
1.8035,0.3861,39.1900,77,97,287747
1.7791,0.4008,39.2800,77,97,287750
1.7986,0.4008,39.1600,77,97,287754
1.7840,0.3959,39.2800,77,97,287757
1.7889,0.3959,39.2800,77,97,287760
1.8084,0.3959,39.1600,77,97,287764
1.7937,0.4057,39.2500,77,97,287767
1.8133,0.4008,39.1900,77,97,287770
1.7889,0.3959,39.2800,77,97,287773
1.7986,0.3959,39.2800,77,97,287777
1.8182,0.4008,39.1600,77,97,287780
1.7986,0.3959,39.2800,77,97,287783
1.8280,0.4106,39.0900,77,97,287788
1.8084,0.4057,39.1600,77,97,287791
1.7986,0.4008,39.2800,77,97,287794
1.8084,0.4008,39.2200,77,97,287798
1.7937,0.3959,39.2800,77,97,287801
1.8377,0.4057,39.0600,77,97,287804
1.7986,0.4203,39.2500,77,97,287807
1.8035,0.3959,39.2800,77,97,287811
1.8084,0.3959,39.2500,77,97,287814
1.8377,0.3959,39.3200,77,97,287817
1.8671,0.4154,39.0300,77,97,287821
1.8280,0.3861,39.2500,77,97,287824
1.8377,0.3959,39.2500,77,97,287827
1.8426,0.3959,39.2500,77,97,287832
1.8475,0.3959,39.2800,77,97,287835
1.9013,0.4106,39.1200,77,97,287838
1.8719,0.4008,39.2200,77,97,287842
1.8768,0.4008,39.1200,77,97,287845
1.8719,0.3959,39.2800,77,97,287848
1.9208,0.4008,39.2800,77,97,287852
1.9306,0.4057,39.1200,77,97,287855
1.9013,0.3959,39.2500,77,97,287858
1.9355,0.4008,39.1600,77,97,287861
1.9110,0.3959,39.2800,77,97,287865
1.9355,0.3959,39.2500,77,97,287868
1.9208,0.4154,39.1600,77,97,287872
1.9013,0.3959,39.2500,77,97,287876
1.9110,0.4008,39.1900,77,97,287879
1.8719,0.4106,39.2500,77,97,287882
1.8671,0.3959,39.2800,77,97,287886
1.8573,0.4008,39.2200,77,97,287889
1.8328,0.3861,39.2500,77,97,287892
1.8475,0.4008,39.0000,77,97,287896
1.7986,0.3910,39.2500,77,97,287899
1.7840,0.3959,39.3500,77,97,287902
1.7742,0.4008,39.2200,77,97,287905
1.7498,0.3959,39.3500,77,97,287909
1.7889,0.4154,39.0000,77,97,287912
1.7498,0.4008,39.2200,77,97,287916
1.7302,0.3910,39.2500,77,97,287920
1.7351,0.3959,39.2800,77,97,287923
1.7302,0.3959,39.2200,77,97,287926
1.7840,0.4154,39.0900,77,97,287930
1.7400,0.4008,39.1900,77,97,287933
1.7449,0.3910,39.1900,77,97,287936
1.7351,0.3959,39.2800,77,97,287940
1.7449,0.3959,39.2500,77,97,287943
1.7791,0.4057,39.1600,77,97,287946
1.7546,0.3959,39.2500,77,97,287949
1.7791,0.4008,39.1600,77,97,287953
1.7498,0.4008,39.2800,77,97,287956
1.7595,0.3959,39.2800,77,97,287960
1.7742,0.4057,39.2500,77,97,287964
1.8035,0.3959,39.2800,77,97,287967
1.8035,0.4057,39.1600,77,97,287970
1.7889,0.4008,39.2800,77,97,287974
1.8182,0.3959,39.2800,77,97,287977
1.8866,0.4350,39.1900,77,97,287980
1.9599,0.3959,38.6200,77,97,287984
2.1554,0.4008,39.0600,77,97,287987
2.3754,0.3959,39.1600,77,97,287990
2.6735,0.3959,39.2500,77,97,287993
3.0450,0.4008,39.2200,77,97,287997
3.3529,0.3959,39.2500,77,97,288001
3.6608,0.4057,39.0300,77,97,288004
3.6657,0.3861,39.2200,77,97,288008
3.5386,0.3959,39.1900,77,97,288011
3.2845,0.4008,39.2500,77,97,288014
2.7957,0.3861,39.2800,77,97,288018
2.3363,0.4106,39.0600,77,97,288021
1.8133,0.3959,39.2500,77,97,288024
1.4467,0.3910,39.2500,77,97,288027
1.2072,0.4008,39.2500,77,97,288031
1.0606,0.3959,39.2800,77,97,288034
1.0313,0.4106,39.0900,77,97,288037
1.0117,0.4057,39.2800,77,97,288041
1.0655,0.3959,39.1900,77,97,288045
1.1290,0.3959,39.2500,77,97,288048
1.2170,0.4008,39.2500,77,97,288052
1.3196,0.4057,39.0900,77,97,288055
1.3783,0.3959,39.2800,77,97,288058
1.4614,0.4008,39.2500,77,97,288061
1.4809,0.3959,39.2800,77,97,288065
1.5152,0.3959,39.3200,77,97,288068
1.5591,0.4057,39.2200,77,97,288071
1.5591,0.3959,39.2500,77,97,288075
1.6325,0.3959,39.1600,77,97,288078
1.5982,0.3959,39.2800,77,97,288081
1.6178,0.3959,39.2800,77,97,288086
1.6325,0.3959,39.1900,77,97,288089
1.6325,0.3959,39.2800,77,97,288092
1.6618,0.4008,38.9300,77,97,288096
1.6520,0.3959,39.2800,77,97,288099
1.6618,0.3959,39.2800,77,97,288102
1.7204,0.3959,39.2200,77,97,288106
1.6862,0.3959,39.2200,77,97,288109
1.7693,0.4057,39.0300,77,97,288112
1.7155,0.4008,39.2200,77,97,288115
1.7058,0.4154,39.2800,77,97,288119
1.7155,0.3959,39.2500,77,97,288122
1.7155,0.4008,39.2800,77,97,288125
1.7791,0.4154,39.0300,77,97,288130
1.7351,0.4497,39.1900,77,97,288133
1.7351,0.3910,39.2200,77,97,288136
1.7351,0.3959,39.2800,77,97,288140
1.7498,0.3910,39.2800,77,97,288143
1.7791,0.4057,39.3500,77,97,288146
1.7498,0.3959,39.2500,77,97,288150
1.7742,0.3959,39.1600,77,97,288153
1.7595,0.3959,39.2800,77,97,288156
1.7644,0.3959,39.2500,77,97,288160
1.7889,0.4008,39.2200,77,97,288163
1.7791,0.4008,39.3800,77,97,288166
1.8084,0.4057,39.1600,77,97,288169
1.7889,0.3959,39.2800,77,97,288174
1.7986,0.3959,39.1900,77,97,288177
1.8328,0.3861,39.1600,77,97,288180
1.8084,0.3959,39.2800,77,97,288184
1.8328,0.3959,39.0900,77,97,288187
1.8280,0.3959,39.1600,77,97,288190
1.8280,0.4008,39.2800,77,97,288194
1.8475,0.4008,39.2200,77,97,288197
1.8426,0.3959,39.2800,77,97,288200
1.8866,0.4106,39.0600,77,97,288203
1.9355,0.4154,39.0600,77,97,288208
1.9110,0.4008,39.2500,77,97,288211
1.9208,0.3910,39.1900,77,97,288216
1.9257,0.3959,39.2800,77,97,288219
1.9306,0.4008,39.2200,77,97,288222
1.9795,0.4106,39.1900,77,97,288226
1.9501,0.3959,39.2500,77,97,288229
1.9697,0.3959,39.1600,77,97,288232
1.9599,0.3959,39.3500,77,97,288236
1.9599,0.4154,39.3500,77,97,288239
1.9941,0.4008,39.0900,77,97,288242
1.9648,0.3959,39.2200,77,97,288246
1.9990,0.4057,39.1600,77,97,288249
1.9697,0.3959,39.2500,77,97,288252
1.9892,0.4008,39.3200,77,97,288256
1.9892,0.4008,39.2800,77,97,288260
1.9795,0.3959,39.3200,77,97,288263
2.0039,0.3861,39.1200,77,97,288266
1.9697,0.3910,39.2500,77,97,288270
1.9892,0.3959,39.3200,77,97,288273
1.9697,0.4008,39.3500,77,97,288276
1.9453,0.4057,39.2800,77,97,288280
1.9746,0.4057,39.0600,77,97,288283
1.9062,0.3910,39.2200,77,97,288286
1.8866,0.3959,39.2800,77,97,288290
1.8719,0.4008,39.2200,77,97,288293
1.8231,0.3861,39.3200,77,97,288296
1.8328,0.4106,39.0000,77,97,288300
1.7644,0.4252,39.1600,77,97,288304
1.7204,0.3910,39.2800,77,97,288307
1.6911,0.4154,39.2500,77,97,288310
1.6618,0.3959,39.2800,77,97,288314
1.6862,0.4154,39.0900,77,97,288317
1.6325,0.4008,39.2800,77,97,288320
1.6129,0.3959,39.1900,77,97,288324
1.5885,0.3959,39.2500,77,97,288327
1.5836,0.3959,39.1600,77,97,288330
1.6325,0.4106,39.1600,77,97,288334
1.5787,0.3959,39.2800,77,97,288337
1.5885,0.4008,39.1900,77,97,288340
1.5640,0.3959,39.2800,77,97,288344
1.5689,0.4106,39.2500,77,97,288348
1.5885,0.3959,39.2200,77,97,288351
1.5885,0.3959,39.2800,77,97,288354
1.6227,0.4008,39.1900,77,97,288358
1.6031,0.3959,39.3200,77,97,288361
1.6227,0.3861,39.2800,77,97,288364
1.6569,0.4057,39.1900,77,97,288368
1.6471,0.3910,39.2500,77,97,288371
1.6862,0.3861,39.0900,77,97,288374
1.6764,0.3959,39.1600,77,97,288378
1.6813,0.3959,39.2800,77,97,288381
1.6862,0.3910,39.2500,77,97,288385
1.6862,0.3959,39.2800,77,97,288388
1.7351,0.4057,39.0900,77,97,288392
1.7400,0.4008,39.2200,77,97,288395
1.7302,0.3959,39.2800,77,97,288398
1.7155,0.3959,39.4800,77,97,288402
1.7302,0.3910,39.2800,77,97,288405
1.7791,0.4154,39.0300,77,97,288408
1.7546,0.4008,39.2200,77,97,288412
1.7351,0.3861,39.2200,77,97,288415
1.7400,0.3959,39.2500,77,97,288418
1.7400,0.3959,39.2800,77,97,288422
1.7889,0.4106,39.0900,77,97,288425
1.7644,0.4008,39.2200,77,97,288429
1.7644,0.3959,39.1600,77,97,288432
1.7546,0.3910,39.3200,77,97,288436
1.7595,0.4008,39.2800,77,97,288439
1.7840,0.4057,39.1900,77,97,288442
1.7595,0.3959,39.2500,77,97,288446
1.7791,0.4008,39.2200,77,97,288449
1.7595,0.4008,39.3200,77,97,288452
1.7693,0.3959,39.2800,77,97,288456
1.7840,0.4008,39.2200,77,97,288459
1.7693,0.3959,39.2800,77,97,288462
1.7937,0.3959,39.1600,77,97,288465
1.7644,0.4008,39.2200,77,97,288470
1.7693,0.3861,39.2800,77,97,288473
1.7791,0.4203,39.3200,77,97,288476
1.7644,0.3861,39.2500,77,97,288480
1.7840,0.4008,39.0900,77,97,288483
1.7546,0.3910,39.1900,77,97,288486
1.7498,0.3861,39.2800,77,97,288490
1.7693,0.3959,39.2200,77,97,288493
1.7498,0.3959,39.3500,77,97,288496
1.7937,0.4106,39.0300,77,97,288500
1.7644,0.3861,39.1600,77,97,288503
1.7498,0.3959,39.2800,77,97,288506
1.7546,0.3959,39.3500,77,97,288510
1.7449,0.4008,39.2800,77,97,288514
1.8035,0.4203,39.0600,77,97,288517
1.7449,0.4008,39.3500,77,97,288520
1.7449,0.3959,39.2500,77,97,288524
1.7498,0.3959,39.2800,77,97,288527
1.7498,0.3959,39.2800,77,97,288530
1.7889,0.4057,39.1200,77,97,288534
1.7644,0.4154,39.2800,77,97,288537
1.7791,0.4008,39.1600,77,97,288540
1.7644,0.3959,39.5400,77,97,288544
1.7644,0.3959,39.2800,77,97,288547
1.7840,0.4057,39.4400,77,97,288550
1.7742,0.4008,39.2500,77,97,288555
1.7986,0.4057,39.1600,77,97,288558
1.7889,0.3910,39.2800,77,97,288561
1.7742,0.3861,39.2800,77,97,288564
1.7937,0.4106,39.1600,77,97,288568
1.7742,0.3959,39.3800,77,97,288571
1.8084,0.4008,39.0900,77,97,288574
1.7889,0.3959,39.1900,77,97,288578
1.7791,0.3959,39.3800,77,97,288581
1.7889,0.4008,39.2200,77,97,288584
1.7791,0.3959,39.2800,77,97,288588
1.8328,0.4057,39.0300,77,97,288591
1.7791,0.3959,38.9300,77,97,288594
1.7791,0.3959,39.2800,77,97,288599
1.7840,0.3910,39.3200,77,97,288602
1.7791,0.3910,39.3200,77,97,288605
1.8280,0.4154,39.0000,77,97,288608
1.7889,0.3910,39.2200,77,97,288612
1.8084,0.3910,39.2500,77,97,288615
1.7840,0.3959,39.2200,77,97,288618
1.7840,0.3959,39.2800,77,97,288622
1.8231,0.4106,39.1600,77,97,288625
1.8084,0.4008,39.2200,77,97,288628
1.7986,0.3861,39.1900,77,97,288632
1.7791,0.4008,39.2500,77,97,288635
1.7840,0.3959,39.2800,77,97,288638
1.8133,0.4203,39.1600,77,97,288643
1.7840,0.3959,39.3800,77,97,288646
1.8035,0.4008,39.1200,77,97,288649
1.8084,0.4008,39.2800,77,97,288652
1.7840,0.3861,39.3200,77,97,288656
1.8182,0.4057,39.2500,77,97,288659
1.8426,0.3959,39.2800,77,97,288662
1.8377,0.3959,39.1600,77,97,288666
1.8084,0.3910,39.2500,77,97,288669
1.8182,0.3959,39.3200,77,97,288672
1.8328,0.4497,39.1900,77,97,288676
1.8426,0.3959,39.2500,77,97,288679
1.8866,0.4008,39.0900,77,97,288683
1.8524,0.3910,39.2800,77,97,288687
1.8719,0.3959,39.4100,77,97,288690
1.8866,0.4008,39.2200,77,97,288693
1.8719,0.3959,39.4400,77,97,288696
1.9257,0.4106,39.0900,77,97,288700
1.9110,0.4008,39.1900,77,97,288703
1.9110,0.3959,39.2200,77,97,288706
1.9306,0.3959,39.3200,77,97,288710
1.9355,0.4203,39.2800,77,97,288713
1.9990,0.4106,39.0600,77,97,288716
1.9404,0.4008,39.4800,77,97,288720
1.9257,0.4008,39.2200,77,97,288723
1.9110,0.3861,39.2800,77,97,288727
1.8964,0.3959,39.2800,77,97,288730
1.9208,0.4399,39.1200,77,97,288734
1.8768,0.3861,39.2500,77,97,288737
1.8622,0.3959,39.1900,77,97,288740
1.8280,0.3959,39.2800,77,97,288744
1.8133,0.3959,39.3500,77,97,288747
1.8280,0.3861,39.2500,77,97,288750
1.7889,0.3959,39.2800,77,97,288754
1.7937,0.4008,39.1900,77,97,288757
1.7546,0.3959,39.4400,77,97,288760
1.7449,0.3959,39.2800,77,97,288764
1.7693,0.4057,39.4100,77,97,288768
1.7400,0.3959,39.2800,77,97,288771
1.7742,0.3959,39.1200,77,97,288775
1.7595,0.4008,39.1900,77,97,288778
1.7595,0.3959,39.2800,77,97,288781
1.7742,0.3910,39.2200,77,97,288784
1.7644,0.3959,39.2800,77,97,288788
1.7986,0.4057,38.3300,77,97,288791
1.7693,0.3959,39.2500,77,97,288794
1.7742,0.3959,39.2800,77,97,288798
1.7791,0.4008,39.2500,77,97,288801
1.7644,0.3959,39.2800,77,97,288804
1.8133,0.4106,38.9600,77,97,288808
1.7791,0.3861,39.2200,77,97,288812
1.7840,0.3910,39.2500,77,97,288815
1.8133,0.3959,39.2500,77,97,288818
1.9892,0.3959,39.3200,77,97,288822
2.1505,0.4252,39.2500,77,97,288826
2.4242,0.4057,39.0900,77,97,288829
2.6979,0.3959,39.2800,77,97,288832
3.0841,0.4106,39.1600,77,97,288835
3.3724,0.3959,39.2500,77,97,288839
3.5924,0.4252,39.3200,77,97,288842
3.6852,0.4008,39.4400,77,97,288845
3.5582,0.4301,39.2800,77,97,288849
3.3284,0.3959,39.1600,77,97,288852
2.8348,0.4057,39.2200,77,97,288856
2.3705,0.3959,39.2800,77,97,288860
1.9013,0.3959,38.5200,77,97,288863
1.5347,0.3910,39.2500,77,97,288866
1.3245,0.4057,39.0600,77,97,288870
1.1584,0.3910,39.3200,77,97,288873
1.1046,0.3910,39.2800,77,97,288876
1.0997,0.4008,38.5200,77,97,288879
1.1290,0.3910,39.3200,77,97,288883
1.2366,0.4106,39.0000,77,97,288886
1.3050,0.4008,39.2200,77,97,288889
1.3881,0.3910,39.6400,77,97,288893
1.4712,0.3959,39.2500,77,97,288897
1.5591,0.3959,39.2800,77,97,288900
1.6716,0.4057,39.0900,77,97,288904
1.6764,0.3959,39.2200,77,97,288907
1.7204,0.3959,39.2200,77,97,288910
1.7400,0.3959,39.2800,77,97,288913
1.7644,0.3959,39.2500,77,97,288917
1.8524,0.4057,39.1900,77,97,288920
1.8035,0.3959,39.2500,77,97,288923
1.8231,0.4106,39.1600,77,97,288927
1.8084,0.3959,39.3200,77,97,288930
1.8280,0.3959,39.2800,77,97,288933
1.8524,0.4008,39.2200,77,97,288937
1.8524,0.4008,39.2800,77,97,288941
1.8866,0.4106,39.1900,77,97,288944
1.8719,0.3959,39.2500,77,97,288948
1.8866,0.3959,39.3500,77,97,288951
1.9159,0.4008,39.1900,77,97,288954
1.9013,0.3959,39.2800,77,97,288957
1.9306,0.4008,38.3300,77,97,288961
1.9208,0.4106,39.1900,77,97,288964
1.9208,0.3959,39.2500,77,97,288967
1.9306,0.4301,39.1900,77,97,288971
1.9159,0.3959,39.2800,77,97,288974
1.9746,0.4057,39.0300,77,97,288977
1.9404,0.4008,39.2500,77,97,288982
1.9355,0.3959,39.3200,77,97,288985
1.9501,0.3959,39.2200,77,97,288988
1.9746,0.4008,39.2800,77,97,288992
2.0039,0.4106,39.0600,77,97,288995
1.9599,0.3959,39.2500,77,97,288998
1.9648,0.3910,39.2500,77,97,289001
1.9697,0.3959,39.3800,77,97,289005
1.9941,0.4008,39.2800,77,97,289008
2.0283,0.4154,39.0900,77,97,289011
1.9892,0.4008,39.1900,77,97,289015
1.9892,0.4008,39.1600,77,97,289018
1.9844,0.3959,39.2800,77,97,289021
1.9892,0.4154,39.2800,77,97,289026
2.0332,0.4057,39.1600,77,97,289029
2.0332,0.3959,39.2800,77,97,289032
2.0332,0.4008,39.1200,77,97,289035
2.0137,0.3959,39.2800,77,97,289039
2.0137,0.3910,39.2800,77,97,289042
2.0332,0.4057,39.2200,77,97,289045
2.0186,0.3959,39.3200,77,97,289049
2.0528,0.4350,39.1600,77,97,289052
2.0186,0.3861,39.2800,77,97,289055
2.0235,0.4252,39.2800,77,97,289059
2.0430,0.3861,39.2500,77,97,289062
2.0283,0.3959,39.3200,77,97,289065
2.0674,0.4301,39.1900,77,97,289069
2.0381,0.3959,39.2500,77,97,289073
2.0430,0.3959,39.2500,77,97,289076
2.0674,0.4057,39.2200,77,97,289079
2.0479,0.3959,39.2500,77,97,289083
2.0919,0.4106,39.0300,77,97,289086
2.0674,0.4008,39.1900,77,97,289089
2.0528,0.3959,39.2800,77,97,289093
2.0723,0.4057,39.2500,77,97,289096
2.0528,0.3959,39.2500,77,97,289099
2.1065,0.4106,38.9600,77,97,289102
2.0577,0.3910,39.2500,77,97,289106
2.0577,0.3910,39.2800,77,97,289110
2.0577,0.3959,39.2200,77,97,289113
2.0528,0.4008,39.2800,77,97,289117
2.1114,0.4154,39.0600,77,97,289120
2.0577,0.4008,39.2500,77,97,289123
2.0479,0.4008,39.2200,77,97,289127
2.0332,0.3861,39.2800,77,97,289130
2.0186,0.3959,39.2800,77,97,289133
2.0723,0.4154,39.1200,77,97,289136
1.9892,0.4008,39.2500,77,97,289140
1.9746,0.4008,39.1600,77,97,289143
1.9306,0.3861,39.2800,77,97,289146
1.9062,0.3959,39.3800,77,97,289150
1.9062,0.4057,39.1200,77,97,289154
1.8475,0.3959,39.2500,77,97,289157
1.8524,0.4057,39.1600,77,97,289161
1.7986,0.3910,39.3200,77,97,289164
1.7742,0.3910,39.2800,77,97,289167
1.7595,0.4008,39.2800,77,97,289171
1.7253,0.4008,39.3200,77,97,289174
1.7204,0.4008,39.1200,77,97,289177
1.6862,0.3959,39.2800,77,97,289180
1.6764,0.3959,39.2500,77,97,289184
1.6862,0.4008,39.2200,77,97,289187
1.6716,0.3910,39.2800,77,97,289190
1.7058,0.4057,39.0600,77,97,289195
1.6667,0.3910,39.2500,77,97,289198
1.6716,0.3959,39.2800,77,97,289201
1.6862,0.4008,39.2800,77,97,289205
1.6764,0.3959,39.2800,77,97,289208
1.7351,0.4106,39.0300,77,97,289211
1.7155,0.4057,39.1900,77,97,289215
1.7107,0.3910,39.2500,77,97,289218
1.7204,0.3959,39.2500,77,97,289221
1.7253,0.3959,39.2500,77,97,289224
1.7791,0.4154,39.1600,77,97,289228
1.7498,0.4008,39.2500,77,97,289231
1.7595,0.3910,39.1900,77,97,289234
1.7644,0.3861,39.2500,77,97,289239
1.7742,0.3959,39.2800,77,97,289242
1.8133,0.4057,39.1600,77,97,289245
1.7986,0.3910,39.2500,77,97,289249
1.8280,0.4008,39.1200,77,97,289252
1.8133,0.3959,39.3500,77,97,289255
1.8231,0.3959,39.2800,77,97,289259
1.8377,0.4008,39.2200,77,97,289262
1.8328,0.3959,39.3500,77,97,289265
1.8573,0.4008,39.1600,77,97,289269
1.8377,0.3959,39.2800,77,97,289272
1.8328,0.4008,39.1900,77,97,289275
1.8671,0.4106,39.1200,77,97,289278
1.8426,0.3959,39.1900,77,97,289283
1.8817,0.4057,39.0600,77,97,289286
1.8671,0.3861,39.1600,77,97,289289
1.8524,0.4008,39.2500,77,97,289293
1.8671,0.4008,39.2200,77,97,289296
1.8524,0.3959,39.3500,77,97,289299
1.9013,0.4057,39.0300,77,97,289303
1.8622,0.3959,39.3800,77,97,289306
1.8573,0.4008,39.2800,77,97,289309
1.8524,0.3861,39.3200,77,97,289313
1.8524,0.4008,39.2800,77,97,289316
1.9013,0.4057,39.0600,77,97,289319
1.8573,0.4008,39.1600,77,97,289323
1.8573,0.3959,39.2200,77,97,289327
1.8524,0.4008,39.3500,77,97,289330
1.8817,0.3910,39.2800,77,97,289333
1.8866,0.4057,39.1600,77,97,289337
1.8524,0.4106,39.2500,77,97,289340
1.8671,0.4008,39.1600,77,97,289343
1.8475,0.4008,39.2800,77,97,289347
1.8475,0.3959,39.2800,77,97,289350
1.8768,0.3959,39.4100,77,97,289353
1.8475,0.3959,39.2800,77,97,289357
1.8719,0.4057,39.1600,77,97,289360
1.8426,0.3910,39.2800,77,97,289363
1.8426,0.3959,39.3200,77,97,289367
1.8475,0.4008,39.1900,77,97,289371
1.8328,0.3959,39.2800,77,97,289374
1.8524,0.4057,39.0900,77,97,289377
1.8328,0.3959,39.2500,77,97,289381
1.8280,0.3959,39.3500,77,97,289384
1.8377,0.4008,39.2200,77,97,289387
1.8231,0.3959,39.2800,77,97,289391
1.8622,0.4008,39.0600,77,97,289394
1.8280,0.3861,39.3200,77,97,289397
1.8280,0.3910,39.2800,77,97,289401
1.8377,0.4008,39.2500,77,97,289404
1.8328,0.3959,39.2800,77,97,289408
1.8817,0.4057,39.0000,77,97,289411
1.8524,0.4008,39.1900,77,97,289415
1.8475,0.3910,39.2800,77,97,289418
1.8524,0.3861,39.2800,77,97,289421
1.8524,0.3959,39.2200,77,97,289425
1.9110,0.4057,39.0900,77,97,289428
1.9062,0.4008,39.1900,77,97,289432
1.8866,0.4106,39.2800,77,97,289435
1.9355,0.4057,39.1900,77,97,289438
1.9110,0.3959,39.1900,77,97,289442
1.9599,0.3959,39.2500,77,97,289445
1.9550,0.3959,39.2800,77,97,289448
1.9599,0.4008,39.3200,77,97,289453
1.9892,0.3861,39.1200,77,97,289456
1.9599,0.3959,39.2800,77,97,289459
1.9550,0.3959,39.3200,77,97,289462
1.9599,0.4057,39.2800,77,97,289466
1.9257,0.3861,39.2800,77,97,289469
1.9550,0.4106,39.0300,77,97,289472
1.9159,0.4008,39.1600,77,97,289476
1.8866,0.3910,39.2800,77,97,289479
1.9062,0.3959,39.2500,77,97,289482
1.8426,0.3959,39.3500,77,97,289486
1.8817,0.4106,38.9600,77,97,289489
1.8231,0.3959,39.2200,77,97,289492
1.7986,0.3910,39.2500,77,97,289497
1.8035,0.3959,39.2800,77,97,289500
1.7693,0.3861,39.2800,77,97,289503
1.8475,0.4154,39.1200,77,97,289506
1.7742,0.4008,39.2500,77,97,289510
1.7742,0.4008,39.1900,77,97,289513
1.7644,0.3861,39.2800,77,97,289516
1.7595,0.4106,39.3200,77,97,289520
1.7889,0.4106,39.1900,77,97,289523
1.7742,0.3959,39.3800,77,97,289526
1.8280,0.4008,39.1200,77,97,289530
1.7840,0.3959,39.1600,77,97,289533
1.7840,0.3910,39.2800,77,97,289537
1.8328,0.4057,39.1600,77,97,289541
1.8084,0.3910,39.2500,77,97,289544
1.8671,0.4008,39.1900,77,97,289547
1.8133,0.3910,39.3200,77,97,289550
1.8231,0.3959,39.2800,77,97,289554
1.8377,0.4008,39.1900,77,97,289557
1.8671,0.3959,39.2500,77,97,289560
1.8768,0.4008,39.0600,77,97,289564
1.8622,0.3910,39.2500,77,97,289567
1.8964,0.3959,39.2800,77,97,289570
1.9648,0.4008,39.1900,77,97,289574
2.0674,0.4057,39.3200,77,97,289577
2.3069,0.4057,39.0000,77,97,289581
2.5122,0.3959,39.3500,77,97,289584
2.8495,0.4057,39.3200,77,97,289588
3.2209,0.4008,39.2500,77,97,289591
3.5142,0.4106,39.3200,77,97,289594
3.7977,0.4154,39.0300,77,97,289598
3.7439,0.4008,39.2500,77,97,289601
3.5484,0.4008,39.2500,77,97,289604
3.2014,0.3959,39.2800,77,97,289608
2.6979,0.3959,39.2800,77,97,289611
2.2385,0.4057,39.0900,77,97,289614
1.7400,0.3959,39.2800,77,97,289618
1.4076,0.3910,39.1600,77,97,289622
1.1779,0.3861,39.2800,77,97,289625
1.0655,0.3959,39.3200,77,97,289628
1.0411,0.4057,39.1600,77,97,289632
1.0313,0.3959,39.2500,77,97,289635
1.0948,0.3959,39.1200,77,97,289638
1.1535,0.3959,39.2500,77,97,289642
1.2463,0.4301,39.2500,77,97,289645
1.3490,0.3959,39.2200,77,97,289648
1.4076,0.3959,39.4800,77,97,289652
1.4907,0.4008,39.2200,77,97,289655
1.5200,0.3959,39.3500,77,97,289658
1.5640,0.3959,39.3200,77,97,289661
1.6227,0.4057,39.1900,77,97,289666
1.6227,0.3910,39.2800,77,97,289669
1.6716,0.4008,39.0900,77,97,289672
1.6716,0.3959,39.1600,77,97,289676
1.6764,0.4008,39.3200,77,97,289679
1.7058,0.4008,39.3200,77,97,289682
1.7107,0.3959,39.2800,77,97,289686
1.7644,0.4057,39.0000,77,97,289689
1.7400,0.3959,39.2200,77,97,289692
1.7498,0.4008,39.2800,77,97,289696
1.7644,0.3959,39.2500,77,97,289699
1.7595,0.3959,39.1900,77,97,289702
1.8182,0.4203,39.0300,77,97,289705
1.7791,0.4057,39.2200,77,97,289710
1.7889,0.3959,39.2200,77,97,289713
1.7840,0.3959,39.2500,77,97,289716
1.7742,0.3861,39.2800,77,97,289720
1.8231,0.4154,39.1600,77,97,289723
1.7986,0.4008,39.2500,77,97,289726
1.8084,0.3959,39.1600,77,97,289730
1.7937,0.3910,39.2800,77,97,289733
1.7937,0.3959,39.2800,77,97,289736
1.8280,0.4057,39.1200,77,97,289740
1.8035,0.4154,39.2800,77,97,289743
1.8475,0.4057,39.1900,77,97,289746
1.8133,0.3959,39.3200,77,97,289750
1.8426,0.4008,39.3200,77,97,289754
1.8377,0.4008,39.1600,77,97,289757
1.8328,0.3910,39.2800,77,97,289760
1.8671,0.3959,39.1200,77,97,289764
1.8475,0.3910,39.2500,77,97,289767
1.8622,0.3959,39.2800,77,97,289770
1.8817,0.4057,39.2200,77,97,289774
1.8915,0.3959,39.2800,77,97,289777
1.9355,0.4057,39.0600,77,97,289780
1.9110,0.3959,39.2800,77,97,289784
1.9208,0.3861,39.2800,77,97,289787
1.9404,0.4301,39.3200,77,97,289790
1.9355,0.3959,39.2800,77,97,289795
1.9941,0.4106,38.9600,77,97,289798
1.9697,0.4008,39.2500,77,97,289801
1.9697,0.3910,39.2800,77,97,289804
1.9746,0.3959,39.2800,77,97,289808
1.9892,0.3959,39.4800,77,97,289811
2.0626,0.4057,39.0900,77,97,289814
2.0088,0.3959,39.1900,77,97,289818
2.0186,0.3959,39.1900,77,97,289821
2.0186,0.4008,39.2800,77,97,289824
2.0235,0.3959,39.2800,77,97,289828
2.0577,0.4203,39.1900,77,97,289831
2.0332,0.3959,39.2500,77,97,289835
2.0528,0.4008,39.3200,77,97,289838
2.0283,0.4448,39.3200,77,97,289842
2.0332,0.3959,39.2800,77,97,289845
2.0479,0.4008,39.1900,77,97,289848
2.0332,0.3959,39.2800,77,97,289852
2.0528,0.4057,39.1900,77,97,289855
2.0235,0.4008,39.2800,77,97,289858
2.0235,0.3910,39.2800,77,97,289862
2.0430,0.4057,39.1900,77,97,289865
2.0137,0.3959,39.2800,77,97,289868
2.0381,0.4008,39.1200,77,97,289871
2.0137,0.3959,39.2200,77,97,289875
1.9892,0.3910,39.2500,77,97,289879
1.9844,0.4008,39.2200,77,97,289882
1.9501,0.3959,39.2800,77,97,289886
1.9697,0.4203,39.0600,77,97,289889
1.9110,0.3959,39.2800,77,97,289892
1.8817,0.3959,39.2500,77,97,289896
1.8622,0.4008,39.2500,77,97,289899
1.8231,0.3959,39.2200,77,97,289902
1.8328,0.4057,39.0000,77,97,289906
1.7693,0.3959,39.2500,77,97,289909
1.7546,0.3910,39.2500,77,97,289912
1.7253,0.4008,39.4800,77,97,289915
1.7009,0.3959,39.2800,77,97,289920
1.7204,0.4154,39.1900,77,97,289923
1.6716,0.4252,39.2200,77,97,289926
1.6520,0.3959,39.1900,77,97,289930
1.6325,0.3959,39.2500,77,97,289933
1.6325,0.3959,39.3800,77,97,289936
1.6764,0.4106,39.0900,77,97,289940
1.6276,0.3959,39.2800,77,97,289943
1.6422,0.3959,39.1200,77,97,289946
1.6227,0.3959,39.2800,77,97,289950
1.6325,0.3959,39.2800,77,97,289953
1.6471,0.4008,39.1900,77,97,289956
1.6373,0.3959,39.3500,77,97,289960
1.6764,0.3861,39.1600,77,97,289964
1.6520,0.3959,39.2500,77,97,289967
1.6667,0.3861,39.2800,77,97,289970
1.6813,0.4008,39.1900,77,97,289974
1.6911,0.3959,39.2800,77,97,289977
1.7107,0.4008,39.3500,77,97,289980
1.6813,0.3959,39.2800,77,97,289984
1.7009,0.3959,39.4400,77,97,289987
1.7449,0.4008,39.2200,77,97,289990
1.7155,0.3959,39.2800,77,97,289994
1.7742,0.4057,39.0000,77,97,289997
1.7449,0.4008,39.1900,77,97,290000
1.7400,0.3959,39.2800,77,97,290004
1.7498,0.3861,39.2500,77,97,290008
1.7498,0.3959,39.2500,77,97,290011
1.8182,0.4154,39.0600,77,97,290014
1.7693,0.4399,39.2500,77,97,290018
1.7791,0.3959,39.2200,77,97,290021
1.7742,0.3959,39.2800,77,97,290024
1.8084,0.4008,39.2800,77,97,290028
1.8133,0.4057,39.1600,77,97,290031
1.7937,0.4008,39.2500,77,97,290034
1.8182,0.3959,39.1600,77,97,290038
1.7937,0.3959,39.3500,77,97,290041
1.8231,0.3910,39.4100,77,97,290045
1.7937,0.3959,39.2800,77,97,290049
1.8133,0.4057,39.1600,77,97,290052
1.7937,0.3959,39.2800,77,97,290056
1.8280,0.4008,39.0300,77,97,290059
1.8084,0.4057,39.1900,77,97,290062
1.7937,0.3959,39.3200,77,97,290065
1.8133,0.4008,39.2500,77,97,290069
1.8084,0.3959,39.2500,77,97,290072
1.8475,0.4106,39.0000,77,97,290075
1.7986,0.3959,39.1600,77,97,290079
1.8182,0.3910,39.2800,77,97,290082
1.7840,0.3959,39.2500,77,97,290085
1.7840,0.3959,39.2500,77,97,290089
1.8377,0.4154,39.0900,77,97,290093
1.7937,0.3959,39.2500,77,97,290096
1.7937,0.3959,39.2200,77,97,290100
1.7791,0.4008,39.2800,77,97,290103
1.7742,0.3959,39.2800,77,97,290106
1.8084,0.4057,39.1900,77,97,290110
1.7840,0.3861,39.2500,77,97,290113
1.7889,0.4008,39.1600,77,97,290116
1.7693,0.3959,39.2800,77,97,290119
1.7644,0.3959,39.2200,77,97,290123
1.7986,0.4057,39.1900,77,97,290126
1.7644,0.3959,39.2500,77,97,290129
1.8133,0.4008,39.1600,77,97,290134
1.7742,0.3910,39.1900,77,97,290137
1.7791,0.3959,39.2800,77,97,290140
1.7937,0.4008,39.1900,77,97,290144
1.7986,0.3959,39.2800,77,97,290147
1.8231,0.4008,39.0600,77,97,290150
1.7937,0.4008,39.2200,77,97,290154
1.7937,0.3959,39.2800,77,97,290157
1.7986,0.4008,38.9600,77,97,290160
1.7889,0.3910,39.2800,77,97,290163
1.8280,0.4106,39.0300,77,97,290167
1.7840,0.3959,39.2500,77,97,290170
1.7889,0.4008,39.2800,77,97,290173
1.7986,0.4008,39.2500,77,97,290178
1.7889,0.3910,39.2800,77,97,290181
1.8426,0.4154,39.0300,77,97,290184
1.8035,0.4350,39.1900,77,97,290188
1.7986,0.3910,39.2200,77,97,290191
1.7986,0.3959,39.2800,77,97,290194
1.7986,0.3959,39.2500,77,97,290198
1.8377,0.4057,39.0900,77,97,290201
1.8084,0.3959,39.2500,77,97,290204
1.8182,0.3959,39.2500,77,97,290207
1.8035,0.3959,39.3500,77,97,290211
1.8133,0.3959,39.2800,77,97,290214
1.8377,0.4008,39.1900,77,97,290217
1.8231,0.3861,39.2800,77,97,290222
1.8475,0.4008,39.1600,77,97,290225
1.8475,0.3959,39.2800,77,97,290228
1.8377,0.3959,39.2800,77,97,290232
1.8573,0.4008,39.2200,77,97,290235
1.8524,0.3910,39.2800,77,97,290238
1.8817,0.3910,39.1200,77,97,290242
1.8573,0.3959,39.2800,77,97,290245
1.8964,0.4008,39.3500,77,97,290248
1.8866,0.4008,39.1900,77,97,290251
1.8768,0.4448,39.2800,77,97,290255
1.9306,0.4057,39.0600,77,97,290258
1.9208,0.4008,39.5700,77,97,290262
1.9159,0.3959,39.2800,77,97,290266
1.9306,0.4008,39.2500,77,97,290269
1.9208,0.3861,38.5200,77,97,290272
1.9648,0.4399,39.0600,77,97,290276
1.9110,0.3959,39.3200,77,97,290279
1.9013,0.3910,39.3200,77,97,290282
1.8964,0.3861,39.2800,77,97,290285
1.8817,0.3910,39.2800,77,97,290289
1.9208,0.4154,39.0600,77,97,290292
1.8622,0.4497,39.2200,77,97,290295
1.8475,0.4008,39.2200,77,97,290299
1.8231,0.3959,39.4400,77,97,290302
1.8035,0.3959,39.2800,77,97,290306
1.8328,0.4057,39.1600,77,97,290310
1.8280,0.4008,39.2500,77,97,290313
1.8035,0.4008,39.1900,77,97,290316
1.7742,0.3910,39.2500,77,97,290320
1.7791,0.3959,39.2800,77,97,290323
1.7986,0.4399,39.1200,77,97,290326
1.7595,0.3959,39.2800,77,97,290330
1.7889,0.4252,39.2200,77,97,290333
1.7595,0.3910,39.2500,77,97,290336
1.7644,0.3959,39.4400,77,97,290339
1.7742,0.4008,39.2200,77,97,290343
1.7644,0.3959,39.3200,77,97,290347
1.7937,0.4008,39.0900,77,97,290350
1.7693,0.3861,39.2500,77,97,290354
1.7693,0.3861,39.2500,77,97,290357
1.7791,0.3861,39.2200,77,97,290360
1.7693,0.4008,39.2800,77,97,290364
1.8328,0.4106,39.0600,77,97,290367
1.7840,0.3959,39.3500,77,97,290370
1.8035,0.3959,39.2800,77,97,290374
1.8231,0.4008,39.2800,77,97,290377
1.8377,0.4008,39.3200,77,97,290380
1.9306,0.4057,39.0000,77,97,290383
1.9501,0.4008,39.1900,77,97,290387
2.0577,0.3910,39.2200,77,97,290391
2.2532,0.3959,39.2800,77,97,290394
2.5122,0.3959,38.9300,77,97,290398
2.9228,0.4106,39.1200,77,97,290401
3.2160,0.3959,39.3200,77,97,290404
3.5288,0.4057,39.1600,77,97,290408
3.6901,0.3861,39.2800,77,97,290411
3.6901,0.3959,39.2800,77,97,290414
3.5533,0.4057,39.1900,77,97,290417
3.1476,0.3959,39.2800,77,97,290421
2.6833,0.4203,39.1600,77,97,290424
2.1505,0.3959,39.2800,77,97,290427
1.7204,0.3910,39.3200,77,97,290432
1.4076,0.3959,39.2200,77,97,290435
1.1975,0.3959,39.1600,77,97,290438
1.1046,0.4008,39.1600,77,97,290442
1.0459,0.3959,39.3200,77,97,290445
1.0802,0.4252,39.3200,77,97,290448
1.1584,0.4008,39.1900,77,97,290452
1.2219,0.3959,39.2500,77,97,290455
1.3294,0.4008,39.0900,77,97,290458
1.3930,0.3959,39.1900,77,97,290461
1.4467,0.3959,39.3200,77,97,290465
1.5005,0.3959,39.2200,77,97,290468
1.5298,0.3959,39.2800,77,97,290471
1.5934,0.4106,39.0300,77,97,290476
1.5787,0.3959,39.4100,77,97,290479
1.6031,0.3959,39.3200,77,97,290482
1.6227,0.3959,39.3500,77,97,290486
1.6373,0.4008,39.2800,77,97,290489
1.7009,0.4154,39.0600,77,97,290492
1.6716,0.3959,39.2500,77,97,290496
1.6813,0.3910,39.2200,77,97,290499
1.6911,0.3959,39.3500,77,97,290502
1.6960,0.3959,39.2800,77,97,290505
1.7498,0.4106,39.1600,77,97,290509
1.7302,0.4008,39.2500,77,97,290512
1.7449,0.3959,39.3500,77,97,290515
1.7351,0.3861,39.2800,77,97,290520
1.7400,0.3959,39.2800,77,97,290523
1.7742,0.3959,39.1200,77,97,290526
1.7546,0.3959,39.1600,77,97,290530
1.7986,0.4008,39.1900,77,97,290533
1.7546,0.3861,39.2800,77,97,290536
1.7644,0.4008,39.3200,77,97,290540
1.7840,0.3959,39.2500,77,97,290543
1.7742,0.4008,39.2800,77,97,290546
1.8084,0.3959,39.1200,77,97,290549
1.7840,0.3910,39.3500,77,97,290553
1.7937,0.4008,39.2800,77,97,290556
1.8035,0.4008,39.2200,77,97,290560
1.8035,0.3959,39.1200,77,97,290564
1.8377,0.4008,39.0600,77,97,290567
1.8084,0.3910,39.2800,77,97,290570
1.8182,0.3959,39.3800,77,97,290574
1.8328,0.4008,39.2500,77,97,290577
1.8280,0.3959,39.2800,77,97,290580
1.9110,0.4106,39.0600,77,97,290584
1.8622,0.4008,39.2200,77,97,290587
1.8524,0.3910,39.2800,77,97,290590
1.8622,0.3959,39.2800,77,97,290593
1.8671,0.3959,39.2800,77,97,290597
1.9306,0.4154,39.0900,77,97,290600
1.8866,0.3959,39.2500,77,97,290604
1.9013,0.3959,39.2500,77,97,290608
1.9013,0.3959,39.3500,77,97,290611
1.9062,0.4057,39.2800,77,97,290614
1.9550,0.3861,39.2500,77,97,290618
1.9355,0.3959,39.3200,77,97,290621
1.9550,0.4008,39.1600,77,97,290624
1.9453,0.4154,39.2800,77,97,290628
1.9599,0.3959,39.2800,77,97,290631
1.9844,0.4008,39.2200,77,97,290634
1.9941,0.3910,39.2800,77,97,290637
2.0186,0.4057,39.2500,77,97,290641
1.9892,0.3959,39.2800,77,97,290644
2.0039,0.3861,39.2800,77,97,290648
2.0332,0.4057,39.0900,77,97,290652
2.0283,0.3959,39.2500,77,97,290655
2.0332,0.3910,39.2800,77,97,290659
2.0821,0.4106,39.0000,77,97,290662
2.0381,0.4057,39.2200,77,97,290665
2.0723,0.3910,39.2800,77,97,290669
2.0430,0.3959,39.2800,77,97,290672
2.0332,0.4154,39.2800,77,97,290675
2.1017,0.4154,39.0600,77,97,290678
2.0137,0.4008,39.2200,77,97,290682
1.9941,0.4203,39.2500,77,97,290685
1.9697,0.3959,39.2800,77,97,290689
1.9453,0.4008,39.3200,77,97,290693
1.9599,0.4106,39.1900,77,97,290696
1.9013,0.3959,39.2800,77,97,290699
1.8719,0.4008,39.1900,77,97,290703
1.8182,0.3959,39.2500,77,97,290706
1.8035,0.3910,39.2800,77,97,290709
1.7840,0.4057,39.1600,77,97,290713
1.7253,0.3910,39.2800,77,97,290716
1.7253,0.4057,39.1600,77,97,290719
1.6764,0.3910,39.2200,77,97,290722
1.6569,0.3910,39.2800,77,97,290726
1.6569,0.4008,39.1900,77,97,290729
1.6716,0.3910,39.2800,77,97,290733
1.6471,0.3959,39.1200,77,97,290737
1.6276,0.4057,39.3500,77,97,290740
1.6227,0.3959,39.2800,77,97,290743
1.6276,0.4350,39.2200,77,97,290747
1.6227,0.3959,39.2800,77,97,290750
1.6569,0.4057,39.0300,77,97,290753
1.6276,0.3910,39.2500,77,97,290757
1.6373,0.3959,39.2800,77,97,290760
1.6569,0.4008,39.2200,77,97,290763
1.6618,0.3959,39.2800,77,97,290766
1.7351,0.4057,39.0000,77,97,290770
1.7107,0.4008,39.2800,77,97,290774
1.7058,0.3910,39.3500,77,97,290777
1.7204,0.3959,39.2500,77,97,290781
1.7204,0.3959,39.4100,77,97,290784
1.7742,0.4203,39.0900,77,97,290787
1.7449,0.3959,39.4100,77,97,290791
1.7498,0.4203,39.1900,77,97,290794
1.7546,0.3959,39.2800,77,97,290797
1.7595,0.3959,39.2800,77,97,290801
1.7986,0.4057,39.1900,77,97,290804
1.7742,0.3959,39.3500,77,97,290807
1.7937,0.4008,39.1600,77,97,290810
1.7742,0.3959,39.2800,77,97,290814
1.7791,0.4008,39.2500,77,97,290818
1.7986,0.4008,39.2200,77,97,290821
1.7889,0.3959,39.3500,77,97,290825
1.8133,0.4106,39.1900,77,97,290828
1.7840,0.3959,39.2800,77,97,290831
1.7937,0.3812,39.3500,77,97,290835
1.8231,0.4008,39.1600,77,97,290838
1.8182,0.4008,39.2800,77,97,290841
1.8328,0.4008,39.1200,77,97,290845
1.8133,0.4057,39.1600,77,97,290848
1.8084,0.3959,39.3200,77,97,290851
1.8084,0.4057,39.2200,77,97,290854
1.7986,0.3959,39.2800,77,97,290859
1.8377,0.4057,39.1200,77,97,290862
1.8133,0.3959,39.2500,77,97,290865
1.7937,0.3959,39.4100,77,97,290869
1.7937,0.4008,39.2500,77,97,290872
1.7889,0.4008,39.2800,77,97,290875
1.8426,0.4154,39.0300,77,97,290879
1.7986,0.3861,39.2800,77,97,290882
1.7937,0.3910,39.2800,77,97,290885
1.7937,0.3910,39.2800,77,97,290888
1.7937,0.3959,39.2800,77,97,290892
1.8328,0.4203,39.1200,77,97,290895
1.8084,0.3861,39.2500,77,97,290898
1.8035,0.3959,39.1600,77,97,290903
1.7889,0.3959,39.3200,77,97,290906
1.7889,0.3910,39.2800,77,97,290909
1.8084,0.4057,39.1600,77,97,290913
1.7840,0.4057,39.2800,77,97,290916
1.8377,0.3959,39.1200,77,97,290919
1.7742,0.3959,39.5400,77,97,290923
1.7791,0.3959,39.2800,77,97,290926
1.7937,0.4008,39.5400,77,97,290929
1.7840,0.3959,39.2500,77,97,290933
1.8426,0.3959,39.1600,77,97,290936
1.7840,0.3959,39.2800,77,97,290939
1.7840,0.4008,39.2800,77,97,290942
1.8035,0.3959,39.2200,77,97,290947
1.7986,0.4203,39.2800,77,97,290950
1.8573,0.4008,39.0600,77,97,290953
1.8035,0.3861,39.2800,77,97,290957
1.8280,0.3959,39.2800,77,97,290960
1.8182,0.4008,39.1900,77,97,290963
1.8035,0.3959,39.3200,77,97,290967
1.8475,0.4057,39.0300,77,97,290970
1.8133,0.4008,39.1900,77,97,290973
1.8084,0.3910,39.2500,77,97,290976
1.8035,0.3959,39.2500,77,97,290980
1.8328,0.3959,39.2800,77,97,290983
1.8524,0.4154,39.0600,77,97,290987
1.7986,0.4008,39.2200,77,97,290991
1.8084,0.3959,39.2200,77,97,290994
1.8035,0.4057,39.3500,77,97,290997
1.8035,0.3959,39.2800,77,97,291001
1.8377,0.4057,39.0900,77,97,291004
1.8182,0.4008,39.2800,77,97,291007
1.8280,0.4008,39.1900,77,97,291011
1.8084,0.3959,39.2500,77,97,291014
1.8133,0.3959,39.2800,77,97,291017
1.8328,0.4008,39.3500,77,97,291020
1.8231,0.4057,39.2500,77,97,291024
1.8475,0.4106,39.1900,77,97,291027
1.8133,0.3959,39.2800,77,97,291031
1.8133,0.3959,39.3200,77,97,291035
1.8719,0.3959,39.1900,77,97,291038
1.8084,0.3959,39.2800,77,97,291041
1.8328,0.4008,39.1900,77,97,291045
1.8133,0.3861,39.1900,77,97,291048
1.8084,0.3959,39.2800,77,97,291051
1.8133,0.4008,39.2500,77,97,291055
1.8035,0.3959,39.2800,77,97,291058
1.8377,0.4106,39.0300,77,97,291061
1.8035,0.4008,39.2500,77,97,291064
1.8035,0.3910,39.2800,77,97,291068
1.8084,0.3959,39.2500,77,97,291072
1.8035,0.3959,39.2200,77,97,291075
1.8768,0.4106,39.0000,77,97,291079
1.8084,0.3959,39.3200,77,97,291082
1.8035,0.3959,39.2800,77,97,291085
1.8035,0.3861,39.2500,77,97,291089
1.7986,0.3959,39.2800,77,97,291092
1.8524,0.4106,39.0900,77,97,291095
1.8280,0.4008,39.2500,77,97,291099
1.8377,0.3959,39.2500,77,97,291102
1.8231,0.4057,39.2800,77,97,291105
1.8231,0.3959,39.2800,77,97,291108
1.8622,0.4057,38.9600,77,97,291112
1.8328,0.3959,39.2800,77,97,291116
1.8524,0.4008,39.2500,77,97,291119
1.8280,0.4008,39.3200,77,97,291123
1.8426,0.3861,39.2800,77,97,291126
1.8622,0.4057,39.1900,77,97,291129
1.8573,0.3959,39.2800,77,97,291133
1.8915,0.3959,39.1600,77,97,291136
1.8622,0.3910,39.3200,77,97,291139
1.8622,0.3959,39.2500,77,97,291143
1.8768,0.3959,39.2200,77,97,291146
1.8768,0.3959,39.2800,77,97,291149
1.9159,0.3959,39.0600,77,97,291152
1.8915,0.3959,39.2500,77,97,291156
1.9208,0.3959,39.2800,77,97,291160
1.9257,0.4008,39.3800,77,97,291163
1.9159,0.3910,39.2800,77,97,291167
1.9648,0.4057,39.2200,77,97,291170
1.9257,0.4106,39.2200,77,97,291173
1.9062,0.3861,39.2800,77,97,291177
1.9013,0.3959,39.2500,77,97,291180
1.8768,0.3959,39.2800,77,97,291183
1.9159,0.4154,39.0900,77,97,291187
1.8426,0.3861,39.2800,77,97,291190
1.8231,0.3910,39.1900,77,97,291193
1.8084,0.3959,39.2800,77,97,291197
1.7937,0.3959,39.3800,77,97,291201
1.8231,0.4057,39.1600,77,97,291204
1.7791,0.3910,39.2800,77,97,291207
1.8084,0.3959,39.1600,77,97,291211
1.7546,0.3959,39.3200,77,97,291214
1.7546,0.3959,39.2800,77,97,291217
1.7644,0.4008,39.4400,77,97,291221
1.7498,0.4057,39.2500,77,97,291224
1.7742,0.4057,39.1900,77,97,291227
1.7400,0.3959,39.2800,77,97,291231
1.7498,0.3959,39.2800,77,97,291234
1.7742,0.4008,39.1900,77,97,291237
1.7546,0.3959,39.3200,77,97,291241
1.7840,0.4008,39.1600,77,97,291245
1.7644,0.4057,39.1900,77,97,291248
1.7595,0.3861,39.3200,77,97,291251
1.7937,0.3959,39.2200,77,97,291255
1.7644,0.3959,39.3800,77,97,291258
1.8084,0.4057,39.0900,77,97,291261
1.9013,0.4203,39.1200,77,97,291265
1.9453,0.4008,39.2500,77,97,291268
2.0968,0.3959,39.1900,77,97,291272
2.3314,0.3910,39.3200,77,97,291275
2.6197,0.3959,39.1900,77,97,291278
3.0059,0.4057,39.1900,77,97,291282
3.3089,0.3861,39.2800,77,97,291286
3.5630,0.4008,39.1200,77,97,291289
3.6119,0.3959,39.2800,77,97,291293
3.5093,0.3959,39.4100,77,97,291296
3.2893,0.4106,39.1200,77,97,291299
2.8055,0.3959,39.2800,77,97,291302
2.3363,0.4057,39.1600,77,97,291306
1.8475,0.3910,39.2500,77,97,291309
1.4761,0.3959,39.4100,77,97,291312
1.2317,0.4008,39.2800,77,97,291316
1.0753,0.3959,39.2800,77,97,291319
1.0215,0.3959,39.0900,77,97,291322
0.9971,0.3959,39.2800,77,97,291326
1.0411,0.3959,39.4800,77,97,291330
1.1241,0.3959,39.2500,77,97,291333
1.2023,0.3959,39.3500,77,97,291337
1.3196,0.4057,39.0300,77,97,291340
1.3636,0.3910,39.3500,77,97,291343
1.4467,0.4057,39.2800,77,97,291346
1.5054,0.4008,39.2800,77,97,291350
1.5347,0.3959,39.2200,77,97,291353
1.6471,0.4106,39.0000,77,97,291356
1.6031,0.4008,39.2200,77,97,291360
1.6129,0.3910,39.2200,77,97,291363
1.6325,0.3959,39.2800,77,97,291366
1.6471,0.3959,39.3200,77,97,291371
1.7107,0.4057,39.0900,77,97,291374
1.6813,0.4106,39.1900,77,97,291377
1.7253,0.3959,39.2200,77,97,291381
1.7058,0.3959,39.1600,77,97,291384
1.7155,0.4008,39.3200,77,97,291387
1.7498,0.4057,39.1600,77,97,291390
1.7302,0.3959,39.2800,77,97,291394
1.7595,0.4008,39.1600,77,97,291397
1.7400,0.4203,39.2800,77,97,291400
1.7498,0.3910,39.2800,77,97,291404
1.7644,0.3959,39.2200,77,97,291407
1.7644,0.3959,39.2800,77,97,291410
1.7889,0.4008,39.1600,77,97,291415
1.7644,0.3861,39.2800,77,97,291418
1.7742,0.3959,39.3800,77,97,291421
1.7889,0.4008,39.1900,77,97,291425
1.7840,0.3861,39.2500,77,97,291428
1.8280,0.4057,39.0600,77,97,291431
1.8035,0.3861,39.1900,77,97,291434
1.7937,0.3959,39.2500,77,97,291438
1.8084,0.3959,39.4400,77,97,291441
1.8035,0.3861,39.2800,77,97,291444
1.8524,0.3861,39.0300,77,97,291448
1.8084,0.4008,39.2500,77,97,291451
1.8084,0.3959,39.2800,77,97,291454
1.8133,0.3959,39.4100,77,97,291459
1.8133,0.3959,39.3200,77,97,291462
1.8768,0.4154,39.2500,77,97,291465
1.8573,0.4008,39.2800,77,97,291469
1.8377,0.3861,39.2200,77,97,291472
1.8377,0.4448,39.3200,77,97,291475
1.8426,0.3959,39.4800,77,97,291479
1.8915,0.4154,39.1900,77,97,291482
1.8622,0.3959,39.1200,77,97,291485
1.8768,0.3959,39.1600,77,97,291488
1.8622,0.4301,39.2500,77,97,291492
1.8719,0.3959,39.3200,77,97,291495
1.9062,0.4154,39.1600,77,97,291499
1.8866,0.3959,39.2800,77,97,291503
1.9208,0.4008,39.1600,77,97,291506
1.9306,0.3910,39.2200,77,97,291509
1.9013,0.3861,39.3200,77,97,291513
1.9208,0.4008,39.2200,77,97,291516
1.9110,0.3959,39.2800,77,97,291519
1.9501,0.4154,39.0900,77,97,291523
1.9306,0.3861,39.2500,77,97,291526
1.9257,0.3959,39.2500,77,97,291529
1.9697,0.3959,39.2200,77,97,291532
1.9355,0.3959,39.3800,77,97,291536
1.9844,0.3959,39.0300,77,97,291539
1.9453,0.3959,39.2200,77,97,291543
1.9501,0.3910,39.2800,77,97,291547
1.9648,0.3959,39.2500,77,97,291550
1.9990,0.3910,39.2800,77,97,291553
2.0235,0.4154,39.0600,77,97,291557
1.9892,0.4008,39.2500,77,97,291560
1.9795,0.3910,39.2200,77,97,291563
1.9795,0.3959,39.2800,77,97,291567
1.9746,0.3959,39.2800,77,97,291570
2.0186,0.4057,39.0900,77,97,291573
1.9697,0.3959,39.1900,77,97,291576
1.9892,0.4008,39.1900,77,97,291580
1.9404,0.3959,39.2800,77,97,291584
1.9159,0.3959,39.3200,77,97,291587
1.9110,0.4057,38.4000,77,97,291591
1.8719,0.3959,39.2800,77,97,291594
1.8573,0.4008,39.1600,77,97,291597
1.8182,0.3959,39.2800,77,97,291601
1.7937,0.3861,39.2800,77,97,291604
1.7742,0.3959,39.2500,77,97,291607
1.7400,0.3861,39.2800,77,97,291611
1.7400,0.3959,39.2800,77,97,291614
1.6911,0.3959,39.2800,77,97,291617
1.6716,0.3959,39.4100,77,97,291620
1.6618,0.4008,39.1900,77,97,291624
1.6325,0.3959,39.2800,77,97,291628
1.6569,0.3959,39.0600,77,97,291631
1.6325,0.4008,38.8400,77,97,291635
1.6178,0.4106,39.3200,77,97,291638
1.6276,0.3959,39.2200,77,97,291641
1.6373,0.3959,39.2800,77,97,291645
1.6716,0.4057,38.4300,77,97,291648
1.6373,0.3959,39.1900,77,97,291651
1.6373,0.3910,39.4800,77,97,291655
1.6471,0.3959,39.2800,77,97,291658
1.6471,0.3959,39.3200,77,97,291661
1.7204,0.4154,39.1200,77,97,291665
1.6716,0.4008,39.4100,77,97,291668
1.6813,0.3910,39.1900,77,97,291672
1.6813,0.3959,38.4600,77,97,291675
1.6911,0.3959,39.2800,77,97,291679
1.7204,0.4057,39.2200,77,97,291682
1.7253,0.4008,39.2500,77,97,291685
1.7351,0.4008,39.1600,77,97,291689
1.7302,0.3959,39.2800,77,97,291692
1.7351,0.3959,39.2800,77,97,291695
1.7644,0.4008,39.1900,77,97,291699
1.7400,0.3959,39.2200,77,97,291702
1.7644,0.4301,39.1600,77,97,291705
1.7449,0.3959,39.1900,77,97,291709
1.7498,0.3910,39.2800,77,97,291713
1.7644,0.4008,39.2200,77,97,291716
1.7595,0.3959,39.3500,77,97,291720
1.7986,0.4008,39.0600,77,97,291723
1.7693,0.3959,39.3200,77,97,291726
1.7742,0.4008,39.3500,77,97,291729
1.7840,0.3861,39.2500,77,97,291733
1.7791,0.3959,39.2800,77,97,291736
1.8426,0.4106,39.0300,77,97,291739
1.7889,0.3959,39.2500,77,97,291743
1.7889,0.3910,39.2800,77,97,291746
1.7986,0.4008,39.2500,77,97,291749
1.7840,0.3959,39.3200,77,97,291753
1.8377,0.4154,39.1200,77,97,291757
1.7986,0.3959,39.2200,77,97,291760
1.7791,0.3959,39.2200,77,97,291764
1.7644,0.3861,39.3500,77,97,291767
1.7693,0.4301,39.1900,77,97,291770
1.8035,0.4057,39.1200,77,97,291773
1.7742,0.4301,39.2800,77,97,291777
1.8035,0.4008,39.1900,77,97,291780
1.7742,0.3959,39.2800,77,97,291783
1.7644,0.4008,39.3200,77,97,291787
1.7791,0.4008,39.2200,77,97,291790
1.7595,0.3959,39.4800,77,97,291793
1.7840,0.3959,39.1900,77,97,291798
1.7546,0.3959,39.3500,77,97,291801
1.7693,0.3959,39.2800,77,97,291804
1.7791,0.3959,39.4400,77,97,291808
1.8035,0.4008,39.2800,77,97,291811
1.7937,0.4008,39.1200,77,97,291814
1.7644,0.3910,39.2500,77,97,291817
1.7791,0.3910,39.2800,77,97,291821
1.7889,0.4057,39.1600,77,97,291824
1.7693,0.3959,39.2500,77,97,291827
1.8133,0.4106,39.0300,77,97,291831
1.7937,0.4008,39.1900,77,97,291834
1.7791,0.3959,39.5100,77,97,291837
1.7889,0.3959,39.2500,77,97,291842
1.7791,0.3959,39.2800,77,97,291845
1.8182,0.4154,39.0300,77,97,291848
1.7742,0.4252,39.2200,77,97,291852
1.7791,0.3910,39.2500,77,97,291855
1.7791,0.3959,39.2800,77,97,291858
1.7791,0.4008,39.3200,77,97,291862
1.8182,0.4106,39.1600,77,97,291865
1.8035,0.3959,39.2500,77,97,291868
1.7986,0.3959,39.1900,77,97,291871
1.7840,0.3910,39.2800,77,97,291875
1.7693,0.3959,39.2800,77,97,291878
1.7791,0.3959,39.2800,77,97,291883
1.8084,0.4057,39.2200,77,97,291886
1.7889,0.3959,39.1200,77,97,291889
1.8280,0.4008,39.0600,77,97,291893
1.8084,0.3959,39.2200,77,97,291896
1.8133,0.3959,39.3800,77,97,291899
1.8328,0.3959,39.2200,77,97,291903
1.8328,0.3959,39.2800,77,97,291906
1.8964,0.4057,39.0300,77,97,291909
1.8524,0.4154,39.2200,77,97,291913
1.8622,0.3959,39.2800,77,97,291916
1.8671,0.3959,39.2500,77,97,291919
1.8671,0.3959,39.2800,77,97,291923
1.9306,0.4154,39.0600,77,97,291927
1.9013,0.4008,39.2800,77,97,291930
1.9110,0.3910,39.2200,77,97,291933
1.9208,0.3910,39.2800,77,97,291937
1.9306,0.3959,39.2800,77,97,291940
1.9746,0.4106,39.1600,77,97,291943
1.9550,0.4008,39.2500,77,97,291947
1.9599,0.3959,39.1600,77,97,291950
1.9306,0.3959,39.3200,77,97,291953
1.9159,0.3910,39.2800,77,97,291957
1.9355,0.4057,39.1900,77,97,291960
1.8817,0.4008,39.2800,77,97,291963
1.9208,0.4057,39.1900,77,97,291968
1.8426,0.3910,39.3200,77,97,291971
1.8280,0.4008,39.2800,77,97,291974
1.8231,0.4008,39.2200,77,97,291977
1.7986,0.4008,39.2800,77,97,291981
1.8133,0.4008,39.0900,77,97,291984
1.7644,0.3959,39.1900,77,97,291987
1.7498,0.3910,39.3200,77,97,291991
1.7546,0.4008,39.3800,77,97,291994
1.7351,0.3959,39.3200,77,97,291997
1.7742,0.3861,39.0600,77,97,292001
1.7351,0.4057,39.3200,77,97,292004
1.7449,0.3959,39.2800,77,97,292007
1.7546,0.4057,39.2500,77,97,292012
1.7498,0.3959,39.3200,77,97,292015
1.7986,0.4057,39.0600,77,97,292018
1.7889,0.4008,39.1900,77,97,292021
1.7595,0.3910,39.2800,77,97,292025
1.7889,0.3959,39.2500,77,97,292028
1.7742,0.3959,39.4100,77,97,292031
1.8231,0.4106,39.1200,77,97,292035
1.7840,0.3959,39.3500,77,97,292038
1.7937,0.3910,39.1900,77,97,292041
1.7840,0.3959,39.3500,77,97,292045
1.7889,0.3959,39.2800,77,97,292048
1.8133,0.4057,39.1900,77,97,292051
1.8035,0.3861,39.3200,77,97,292056
1.8426,0.3861,39.1200,77,97,292059
1.8524,0.3861,39.2800,77,97,292062
1.9306,0.3959,39.2800,77,97,292065
2.0772,0.4301,39.2800,77,97,292069
2.2825,0.3959,39.2800,77,97,292072
2.5855,0.3959,39.2500,77,97,292075
2.8886,0.3959,39.2800,77,97,292079
3.2307,0.3959,39.0000,77,97,292082
3.5337,0.4008,39.1900,77,97,292085
3.6413,0.3861,39.2800,77,97,292089
3.6755,0.4008,39.1600,77,97,292092
3.4311,0.3861,39.2200,77,97,292096
3.0108,0.3959,39.0900,77,97,292100
2.5367,0.3959,39.2500,77,97,292103
2.0381,0.3959,39.2500,77,97,292106
1.6813,0.4057,39.0300,77,97,292109
1.3441,0.3959,39.2500,77,97,292113
1.1681,0.3910,39.2800,77,97,292116
1.0753,0.3959,39.2800,77,97,292119
1.0362,0.3959,39.2800,77,97,292123
1.1144,0.4203,39.0600,77,97,292126
1.1046,0.4008,39.3200,77,97,292129
1.1828,0.3910,39.1900,77,97,292133
1.2708,0.3959,39.2500,77,97,292136
1.3539,0.4008,39.3200,77,97,292140
1.4614,0.4057,39.1900,77,97,292144
1.5054,0.4008,39.2500,77,97,292147
1.5591,0.3959,39.1600,77,97,292150
1.5885,0.3959,39.4800,77,97,292153
1.6227,0.3959,39.2800,77,97,292157
1.6764,0.4057,39.1900,77,97,292160
1.6667,0.3959,39.2800,77,97,292163
1.7058,0.4057,38.9000,77,97,292167
1.6911,0.3910,39.2500,77,97,292170
1.7058,0.3910,39.2800,77,97,292173
1.7253,0.4008,39.2200,77,97,292177
1.7400,0.3910,39.2800,77,97,292180
1.7595,0.3861,39.1600,77,97,292184
1.7644,0.3959,39.2500,77,97,292188
1.7449,0.3959,39.3500,77,97,292191
1.7644,0.3959,39.2500,77,97,292194
1.7595,0.3861,39.2800,77,97,292197
1.7986,0.4057,39.0300,77,97,292201
1.7644,0.3959,39.2800,77,97,292204
1.7693,0.3959,39.3500,77,97,292207
1.7840,0.4008,39.2500,77,97,292211
1.7742,0.3959,39.2800,77,97,292214
1.8280,0.4203,39.0000,77,97,292217
1.7986,0.3861,39.2200,77,97,292221
1.7937,0.3910,39.2200,77,97,292225
1.8035,0.3861,39.2800,77,97,292228
1.8084,0.3959,39.2800,77,97,292232
1.8866,0.4154,39.0900,77,97,292235
1.8231,0.3959,39.2800,77,97,292238
1.8377,0.3910,39.1600,77,97,292241
1.8231,0.3959,39.3500,77,97,292245
1.8280,0.3861,39.2800,77,97,292248
1.8622,0.4057,39.1900,77,97,292251
1.8426,0.4008,39.2800,77,97,292255
1.8671,0.4008,39.1600,77,97,292258
1.8475,0.4203,39.2800,77,97,292261
1.8524,0.3959,39.2800,77,97,292265
1.8719,0.3959,39.2200,77,97,292269
1.8719,0.3861,39.2800,77,97,292272
1.9013,0.3959,39.1600,77,97,292276
1.8817,0.3959,39.2800,77,97,292279
1.8866,0.3910,39.2800,77,97,292282
1.9159,0.3861,39.1900,77,97,292286
1.8964,0.3910,39.3200,77,97,292289
1.9404,0.4008,39.0900,77,97,292292
1.9208,0.4008,39.1600,77,97,292295
1.9159,0.3861,39.2800,77,97,292299
1.9355,0.4008,39.2500,77,97,292302
1.9306,0.4008,39.2800,77,97,292305
1.9844,0.4106,39.0000,77,97,292310
1.9501,0.4008,39.2500,77,97,292313
1.9550,0.3959,39.3500,77,97,292316
1.9697,0.3959,39.4800,77,97,292320
1.9648,0.3959,39.2800,77,97,292323
2.0283,0.4154,39.0600,77,97,292326
1.9844,0.4252,39.2500,77,97,292330
1.9941,0.3959,39.2200,77,97,292333
1.9844,0.4057,39.2800,77,97,292336
1.9844,0.3959,39.2800,77,97,292339
2.0186,0.4106,39.2500,77,97,292343
1.9941,0.3959,39.2800,77,97,292346
2.0088,0.4008,39.1200,77,97,292349
1.9990,0.3959,39.3200,77,97,292354
1.9941,0.3910,39.2800,77,97,292357
2.0283,0.3959,39.1200,77,97,292360
1.9892,0.3959,39.2500,77,97,292364
2.0186,0.4057,39.2500,77,97,292367
1.9795,0.3910,39.2800,77,97,292370
1.9697,0.3861,39.2800,77,97,292373
1.9697,0.3959,39.2500,77,97,292377
1.9404,0.3959,39.2800,77,97,292380
1.9404,0.4448,39.1600,77,97,292383
1.8915,0.3959,39.2800,77,97,292387
1.8719,0.4106,39.2800,77,97,292390
1.8573,0.4008,39.2200,77,97,292393
1.8133,0.3959,39.3800,77,97,292398
1.8231,0.3959,39.0300,77,97,292401
1.7595,0.3910,39.2200,77,97,292404
1.7595,0.3959,39.3200,77,97,292408
1.7302,0.4008,39.3200,77,97,292411
1.7009,0.3959,39.3500,77,97,292414
1.7302,0.4106,38.3600,77,97,292418
1.6862,0.4301,39.1600,77,97,292421
1.6667,0.3861,39.3200,77,97,292424
1.6618,0.4008,39.2800,77,97,292427
1.6520,0.3959,39.2800,77,97,292431
1.6960,0.4057,39.1200,77,97,292434
1.6471,0.3959,39.2500,77,97,292438
1.6618,0.3959,39.2200,77,97,292442
1.6764,0.3959,39.2800,77,97,292445
1.6667,0.3959,39.4800,77,97,292448
1.7009,0.4057,39.1900,77,97,292452
1.6862,0.3959,39.2800,77,97,292455
1.7107,0.4106,39.1600,77,97,292458
1.6960,0.3959,39.3500,77,97,292462
1.7400,0.3910,39.3200,77,97,292465
1.7253,0.3959,39.2500,77,97,292468
1.7204,0.4008,39.3200,77,97,292471
1.7449,0.3959,39.1600,77,97,292475
1.7253,0.3959,39.3200,77,97,292478
1.7351,0.3959,39.2800,77,97,292482
1.7644,0.3959,39.1200,77,97,292486
1.7742,0.3959,39.2800,77,97,292489
1.7840,0.3910,39.2800,77,97,292493
1.8328,0.4203,39.0300,77,97,292496
1.7937,0.3959,39.1900,77,97,292499
1.7937,0.3910,39.2200,77,97,292503
1.7889,0.3959,39.3200,77,97,292506
1.7840,0.4008,39.2800,77,97,292509
1.8328,0.4106,39.1200,77,97,292513
1.7937,0.4008,39.4800,77,97,292516
1.8035,0.4008,39.2500,77,97,292519
1.7986,0.3959,39.3200,77,97,292523
1.7986,0.4252,39.3200,77,97,292527
1.8231,0.3861,39.2200,77,97,292530
1.8133,0.3959,39.2800,77,97,292533
1.8280,0.4008,39.1600,77,97,292537
1.8035,0.4154,39.3200,77,97,292540
1.8084,0.3959,39.2800,77,97,292543
1.8328,0.4057,39.1600,77,97,292547
1.8035,0.3861,39.2800,77,97,292550
1.8231,0.4008,39.1200,77,97,292553
1.8084,0.3959,39.2200,77,97,292557
1.7986,0.3959,38.4600,77,97,292560
1.8084,0.4008,39.2200,77,97,292563
1.7986,0.3959,39.4100,77,97,292568
1.8280,0.4008,39.0600,77,97,292571
1.7986,0.3959,39.2800,77,97,292574
1.7986,0.3959,39.3500,77,97,292577
1.8084,0.4057,39.2500,77,97,292581
1.8035,0.3959,39.2800,77,97,292584
1.8426,0.4057,39.0300,77,97,292587
1.7986,0.3861,39.2800,77,97,292591
1.7937,0.3910,39.2800,77,97,292594
1.8084,0.3959,39.2800,77,97,292597
1.7937,0.3959,39.2500,77,97,292601
1.8573,0.4154,39.1200,77,97,292604
1.8133,0.4008,39.2200,77,97,292608
1.8377,0.3959,39.2200,77,97,292612
1.8035,0.4154,39.3200,77,97,292615
1.8084,0.3959,39.2800,77,97,292618
1.8377,0.4057,39.1900,77,97,292621
1.7986,0.3959,39.3200,77,97,292625
1.8182,0.4008,39.1600,77,97,292628
1.7986,0.4203,39.2800,77,97,292631
1.8035,0.3959,39.2500,77,97,292635
1.8133,0.4106,39.2200,77,97,292638
1.7937,0.3959,39.2800,77,97,292641
1.8231,0.4008,39.1900,77,97,292645
1.8084,0.3959,39.2800,77,97,292648
1.8035,0.3861,39.3800,77,97,292652
1.8133,0.4008,39.2200,77,97,292656
1.8084,0.3861,39.2800,77,97,292659
1.8280,0.4008,39.0900,77,97,292662
1.7986,0.4008,39.2800,77,97,292665
1.8035,0.3861,39.2800,77,97,292669
1.8182,0.4203,39.2200,77,97,292672
1.7937,0.3959,39.3200,77,97,292675
1.8426,0.4154,39.0600,77,97,292679
1.8280,0.4008,39.2200,77,97,292682
1.8084,0.3959,39.4100,77,97,292685
1.8182,0.3959,39.2800,77,97,292689
1.8133,0.3959,39.2500,77,97,292692
1.8768,0.4203,39.0300,77,97,292696
1.8475,0.3959,39.2200,77,97,292700
1.8475,0.3910,39.2500,77,97,292703
1.8622,0.3959,39.3200,77,97,292706
1.8671,0.3959,39.2800,77,97,292709
1.9159,0.4106,39.2200,77,97,292713
1.8768,0.3959,39.2800,77,97,292716
1.8817,0.3861,39.1900,77,97,292719
1.8817,0.3910,39.2800,77,97,292723
1.8964,0.3959,39.3500,77,97,292726
1.9306,0.4057,39.2200,77,97,292729
1.9257,0.3861,39.2800,77,97,292733
1.9501,0.4008,39.1600,77,97,292737
1.9306,0.3959,39.2800,77,97,292740
1.9306,0.3910,39.3200,77,97,292744
1.9550,0.4057,39.1600,77,97,292747
1.9110,0.4008,39.3500,77,97,292750
1.9208,0.3910,39.1600,77,97,292753
1.8817,0.3959,39.2200,77,97,292757
1.8671,0.3959,39.2200,77,97,292760
1.8622,0.3959,39.2200,77,97,292763
1.8328,0.3959,39.2200,77,97,292767
1.8524,0.4057,39.1200,77,97,292770
1.8035,0.4154,39.2500,77,97,292773
1.7889,0.3910,39.2800,77,97,292777
1.7937,0.4008,39.2800,77,97,292781
1.7693,0.4008,39.3200,77,97,292784
1.8035,0.4057,39.0300,77,97,292788
1.7498,0.4203,39.2500,77,97,292791
1.7449,0.3861,39.2800,77,97,292794
1.7498,0.3959,39.2500,77,97,292797
1.7449,0.3959,39.3200,77,97,292801
1.7937,0.4203,39.0900,77,97,292804
1.7546,0.3861,39.2500,77,97,292807
1.7498,0.3959,39.1600,77,97,292811
1.7449,0.3959,39.2800,77,97,292814
1.7498,0.4301,39.2800,77,97,292817
1.7889,0.4057,39.2500,77,97,292822
1.7791,0.3910,39.2800,77,97,292825
1.7791,0.3861,39.1600,77,97,292828
1.7595,0.3959,39.2800,77,97,292832
1.7644,0.3959,39.2800,77,97,292835
1.7889,0.4057,39.2500,77,97,292838
1.8182,0.3959,39.2800,77,97,292842
1.8231,0.4008,39.3800,77,97,292845
1.8084,0.4008,39.2800,77,97,292848
1.8426,0.3959,39.2800,77,97,292851
1.8915,0.4252,39.2200,77,97,292855
1.9599,0.3959,39.2800,77,97,292858
2.1212,0.4008,39.0900,77,97,292861
2.2923,0.3959,39.2800,77,97,292866
2.5758,0.3959,39.2500,77,97,292869
2.9423,0.4008,39.2500,77,97,292872
3.2698,0.3959,39.3500,77,97,292876
3.6315,0.4106,39.0300,77,97,292879
3.7439,0.4008,39.1900,77,97,292882
3.6804,0.3959,39.1600,77,97,292885
3.4848,0.3959,39.2800,77,97,292889
3.0792,0.3959,39.4400,77,97,292892
2.6393,0.4203,39.0600,77,97,292895
2.0772,0.3959,39.1900,77,97,292899
1.6520,0.4252,39.3200,77,97,292902
1.3490,0.3861,39.2800,77,97,292905
1.1584,0.3959,39.2500,77,97,292910
1.1193,0.4057,39.1900,77,97,292913
1.0362,0.4008,39.2800,77,97,292916
1.0655,0.4008,39.1600,77,97,292920
1.1486,0.3959,39.2800,77,97,292923
1.2023,0.3959,39.2800,77,97,292926
1.3050,0.4154,39.2200,77,97,292929
1.3734,0.3861,39.2800,77,97,292933
1.4565,0.4008,39.1600,77,97,292936
1.4907,0.3959,39.2500,77,97,292939
1.5347,0.3959,39.2800,77,97,292943
1.6129,0.4106,39.1900,77,97,292946
1.5885,0.4008,39.2800,77,97,292950
1.6618,0.4008,39.1600,77,97,292954
1.6325,0.3959,39.2200,77,97,292957
1.6471,0.4008,39.4400,77,97,292960
1.6764,0.3959,39.2800,77,97,292964
1.6764,0.4252,39.3200,77,97,292967
1.7204,0.4008,39.0600,77,97,292970
1.7009,0.3959,39.2200,77,97,292973
1.7107,0.3910,39.2800,77,97,292977
1.7302,0.4008,39.2800,77,97,292980
1.7253,0.3959,39.3500,77,97,292983
1.7937,0.4057,39.0300,77,97,292987
1.7400,0.4008,39.2500,77,97,292990
1.7840,0.3910,39.2800,77,97,292994
1.7595,0.3861,39.2500,77,97,292998
1.7889,0.3910,39.3200,77,97,293001
1.8133,0.4154,39.1900,77,97,293004
1.7791,0.4203,39.2500,77,97,293008
1.7791,0.3959,39.2200,77,97,293011
1.7986,0.4008,39.2500,77,97,293014
1.7791,0.3959,39.2500,77,97,293017
1.8182,0.4057,39.0900,77,97,293021
1.7986,0.3959,39.2500,77,97,293024
1.8133,0.4008,39.1600,77,97,293027
1.7986,0.3959,39.2800,77,97,293031
1.8084,0.3959,39.2800,77,97,293035
1.8328,0.3959,39.2500,77,97,293038
1.8231,0.3959,39.2800,77,97,293042
1.8475,0.3959,39.2500,77,97,293045
1.8231,0.3861,39.2800,77,97,293048
1.8280,0.3959,39.2800,77,97,293052
1.8426,0.4008,39.2200,77,97,293055
1.8426,0.3959,39.2800,77,97,293058
1.8719,0.4008,39.1200,77,97,293061
1.8524,0.3959,39.2500,77,97,293065
1.8817,0.3910,39.2800,77,97,293068
1.8768,0.4008,38.8100,77,97,293071
1.8719,0.3910,39.2800,77,97,293075
1.9208,0.4057,39.0600,77,97,293079
1.9062,0.4057,39.2200,77,97,293082
1.8964,0.3959,39.2800,77,97,293086
1.9062,0.4057,39.1600,77,97,293089
1.9257,0.3910,39.3200,77,97,293092
1.9746,0.4106,39.0000,77,97,293096
1.9990,0.4057,39.5400,77,97,293099
1.9795,0.3910,39.2800,77,97,293103
2.0039,0.3959,39.1900,77,97,293106
1.9746,0.3959,39.1900,77,97,293109
1.9795,0.3861,39.3200,77,97,293112
1.9990,0.4203,39.2500,77,97,293116
2.0039,0.4008,39.2800,77,97,293120
2.0283,0.4057,39.1600,77,97,293123
2.0088,0.4008,39.3800,77,97,293127
2.0137,0.3910,39.2800,77,97,293130
2.0528,0.4057,39.1600,77,97,293133
2.0137,0.3910,39.2800,77,97,293137
2.0283,0.4008,39.1600,77,97,293140
2.0088,0.3910,39.2200,77,97,293143
1.9941,0.3959,39.3200,77,97,293146
1.9941,0.4008,39.2200,77,97,293150
1.9648,0.3959,39.3200,77,97,293153
1.9844,0.4008,39.0600,77,97,293156
1.9306,0.3959,39.2800,77,97,293160
1.9062,0.3959,39.2800,77,97,293164
1.8866,0.3959,39.2500,77,97,293167
1.8426,0.3959,39.4100,77,97,293171
1.8817,0.4057,39.0300,77,97,293174
1.7840,0.3959,39.2800,77,97,293177
1.7546,0.4008,39.2800,77,97,293181
1.7302,0.4008,39.4400,77,97,293184
1.7107,0.3959,39.3200,77,97,293187
1.7204,0.4154,39.0900,77,97,293190
1.6618,0.4399,39.1900,77,97,293194
1.6276,0.3861,39.2200,77,97,293197
1.6178,0.3959,39.2800,77,97,293200
1.5982,0.3959,39.4100,77,97,293204
1.6178,0.4106,39.1200,77,97,293208
1.5836,0.3959,39.2200,77,97,293211
1.5982,0.4008,39.1600,77,97,293215
1.5836,0.3959,39.2800,77,97,293218
1.5885,0.4008,39.2800,77,97,293221
1.6080,0.4057,39.2500,77,97,293225
1.5982,0.4008,39.3500,77,97,293228
1.6276,0.4301,39.1900,77,97,293231
1.6080,0.3959,39.3500,77,97,293234
1.6178,0.3959,39.2800,77,97,293238
1.6325,0.3959,39.2200,77,97,293241
1.6422,0.3959,39.3800,77,97,293244
1.6716,0.4008,39.1200,77,97,293249
1.6618,0.4203,39.3200,77,97,293252
1.6764,0.3959,39.2800,77,97,293255
1.7058,0.4057,39.0900,77,97,293259
1.6911,0.3861,39.2800,77,97,293262
1.7449,0.4057,39.0300,77,97,293265
1.7204,0.3959,39.1900,77,97,293269
1.7204,0.3861,39.3500,77,97,293272
1.7351,0.3959,39.2500,77,97,293275
1.7400,0.3959,39.5100,77,97,293279
1.7986,0.4106,39.0300,77,97,293282
1.7546,0.3959,39.2200,77,97,293285
1.7546,0.4008,39.2200,77,97,293288
1.7644,0.3959,39.2500,77,97,293293
1.7595,0.3959,39.2800,77,97,293296
1.8426,0.4106,39.1900,77,97,293299
1.7742,0.3959,39.3200,77,97,293303
1.7840,0.4008,39.1900,77,97,293306
1.7693,0.3959,39.2800,77,97,293309
1.7693,0.3959,39.3200,77,97,293313
1.7937,0.4057,39.2500,77,97,293316
1.7742,0.4301,39.2500,77,97,293319
1.7937,0.4057,39.1600,77,97,293323
1.7595,0.3959,39.2800,77,97,293326
1.7595,0.3959,39.3200,77,97,293329
1.7840,0.4057,39.0900,77,97,293332
1.7546,0.3959,39.2800,77,97,293337
1.7889,0.3959,39.1600,77,97,293340
1.7693,0.4203,39.2200,77,97,293343
1.7693,0.3910,39.3200,77,97,293347
1.7791,0.4008,39.2200,77,97,293350
1.7742,0.3959,39.2800,77,97,293353
1.8035,0.4057,39.0300,77,97,293357
1.7791,0.4008,39.2800,77,97,293360
1.7742,0.3959,39.2800,77,97,293363
1.7791,0.3959,39.2200,77,97,293366
1.7693,0.3959,39.2800,77,97,293370
1.8035,0.4106,39.2200,77,97,293373
1.7644,0.3861,39.2500,77,97,293377
1.7644,0.3910,39.2800,77,97,293381
1.7791,0.3959,39.2500,77,97,293384
1.7644,0.3910,39.2800,77,97,293387
1.8084,0.4154,39.1900,77,97,293391
1.7693,0.4008,39.2500,77,97,293394
1.7644,0.4057,39.1900,77,97,293397
1.7546,0.3959,39.2500,77,97,293401
1.7595,0.3959,39.2800,77,97,293404
1.8035,0.4057,39.1900,77,97,293407
1.7889,0.4057,39.2800,77,97,293411
1.7937,0.4008,39.2200,77,97,293414
1.7742,0.4252,39.2500,77,97,293417
1.7742,0.3959,39.2800,77,97,293421
1.7937,0.4008,39.2200,77,97,293425
1.7840,0.3910,39.2800,77,97,293428
1.8084,0.4057,39.1600,77,97,293431
1.7840,0.3959,39.2800,77,97,293435
1.7840,0.4008,39.2800,77,97,293438
1.7889,0.4008,39.3200,77,97,293441
1.7791,0.4057,39.2800,77,97,293445
1.8084,0.3959,39.0000,77,97,293448
1.7791,0.3861,39.1600,77,97,293451
1.7986,0.3959,39.2800,77,97,293454
1.8035,0.4057,39.2500,77,97,293458
1.7889,0.3959,39.2800,77,97,293462
1.8377,0.4057,39.1200,77,97,293465
1.8182,0.4008,39.2200,77,97,293469
1.7986,0.3861,39.2800,77,97,293472
1.8035,0.3959,39.2500,77,97,293475
1.7986,0.3959,39.3200,77,97,293479
1.8475,0.4106,39.0300,77,97,293482
1.8035,0.4008,39.2200,77,97,293485
1.8035,0.3910,39.3500,77,97,293489
1.8084,0.4301,39.3200,77,97,293492
1.8133,0.3959,39.3500,77,97,293495
1.8524,0.4154,39.1600,77,97,293498
1.8133,0.4008,39.2800,77,97,293502
1.8133,0.3959,39.5700,77,97,293506
1.7986,0.4008,39.3200,77,97,293509
1.7986,0.3959,39.3500,77,97,293513
1.8231,0.4106,39.1900,77,97,293516
1.8035,0.3959,39.2200,77,97,293519
1.8182,0.4057,39.1200,77,97,293523
1.7986,0.3959,39.5400,77,97,293526
1.7986,0.3861,39.3200,77,97,293529
1.8231,0.3861,39.1600,77,97,293533
1.8035,0.3959,39.3200,77,97,293536
1.8280,0.3959,39.1600,77,97,293539
1.8084,0.3959,39.2200,77,97,293543
1.8035,0.3910,39.2800,77,97,293547
1.8280,0.4008,39.1900,77,97,293550
1.8280,0.3959,39.3200,77,97,293553
1.8719,0.4008,39.1600,77,97,293557
1.8573,0.3959,39.2500,77,97,293560
1.8573,0.3959,39.3500,77,97,293563
1.8768,0.3959,39.2500,77,97,293567
1.8768,0.3959,39.3200,77,97,293570
1.9306,0.4106,39.0300,77,97,293573
1.8866,0.3959,39.3200,77,97,293577
1.8915,0.4008,39.2800,77,97,293580
1.9062,0.4008,39.2800,77,97,293583
1.8915,0.3959,39.2800,77,97,293587
1.9599,0.4057,39.0600,77,97,293591
1.9355,0.4057,39.2200,77,97,293594
1.9404,0.4399,39.2200,77,97,293597
1.9453,0.3959,39.3200,77,97,293601
1.9697,0.3959,39.3200,77,97,293604
1.9990,0.4057,39.1200,77,97,293607
1.9648,0.3959,39.2800,77,97,293611
1.9795,0.4008,39.1600,77,97,293614
1.9501,0.4057,39.2800,77,97,293617
1.9599,0.3959,39.3200,77,97,293621
1.9501,0.4350,39.1900,77,97,293624
1.9062,0.4008,39.3200,77,97,293627
1.9159,0.4057,39.1900,77,97,293632
1.8622,0.3910,39.3200,77,97,293635
1.8426,0.3959,39.3500,77,97,293638
1.8426,0.4008,39.2500,77,97,293641
1.8182,0.3910,39.2800,77,97,293645
1.8328,0.4057,39.2200,77,97,293648
1.8182,0.3959,39.3200,77,97,293651
1.7840,0.3959,39.2800,77,97,293655
1.7986,0.4057,39.2500,77,97,293658
1.7791,0.3959,39.2200,77,97,293661
1.8231,0.4106,39.0600,77,97,293665
1.8084,0.4008,39.2800,77,97,293668
1.7937,0.3910,39.3500,77,97,293671
1.7986,0.3959,39.2500,77,97,293676
1.7937,0.3959,39.2500,77,97,293679
1.8573,0.4154,39.0300,77,97,293682
1.8084,0.4008,39.2500,77,97,293685
1.8231,0.3910,39.2500,77,97,293689
1.8133,0.3959,39.2800,77,97,293692
1.8133,0.4203,39.3200,77,97,293695
1.8671,0.4106,39.1200,77,97,293699
1.8328,0.4448,39.2800,77,97,293702
1.8573,0.3959,39.1900,77,97,293705
1.8475,0.4057,39.3200,77,97,293709
2.0968,0.3959,39.2800,77,97,293712
2.2972,0.3959,39.5100,77,97,293716
2.6100,0.4008,39.2500,77,97,293720
2.9228,0.3861,39.2800,77,97,293723
3.3236,0.4008,39.0900,77,97,293727
3.5728,0.4057,39.2800,77,97,293730
3.6999,0.3959,39.3200,77,97,293733
3.6901,0.4057,39.2200,77,97,293736
3.4604,0.3959,39.2800,77,97,293740
3.1183,0.4057,39.0900,77,97,293743
2.5464,0.3959,39.2500,77,97,293746
2.0479,0.3959,39.2500,77,97,293750
1.6373,0.4008,39.2800,77,97,293753
1.3294,0.3861,39.2800,77,97,293756
1.1730,0.4154,39.0300,77,97,293761
1.0508,0.3861,39.2500,77,97,293764
1.0117,0.3910,39.2500,77,97,293767
1.0704,0.4057,39.3500,77,97,293771
1.1437,0.3959,39.4100,77,97,293774
1.2659,0.4399,39.1200,77,97,293777
1.3148,0.4008,39.2500,77,97,293780
1.3978,0.3959,39.2500,77,97,293784
1.4516,0.3959,39.3200,77,97,293787
1.5054,0.3959,39.2800,77,97,293790
1.5836,0.4057,39.0900,77,97,293794
1.5787,0.3959,39.1900,77,97,293797
1.6227,0.4008,39.1900,77,97,293800
1.6227,0.3861,39.3200,77,97,293805
1.6373,0.3959,39.3200,77,97,293808
1.6667,0.4008,39.2200,77,97,293811
1.6618,0.4106,39.2800,77,97,293815
1.7009,0.3959,39.1900,77,97,293818
1.6764,0.3959,38.8400,77,97,293821
1.6960,0.4008,39.3200,77,97,293824
1.7204,0.3861,39.2200,77,97,293828
1.7253,0.3959,39.2800,77,97,293831
1.7644,0.4106,39.0900,77,97,293834
1.7351,0.3959,39.2800,77,97,293838
1.7644,0.3959,39.3200,77,97,293841
1.7546,0.4057,39.2200,77,97,293844
1.7546,0.3959,39.3500,77,97,293849
1.7986,0.4057,39.0000,77,97,293852
1.7742,0.4106,39.2200,77,97,293855
1.7644,0.3959,39.3200,77,97,293859
1.7693,0.4008,39.2500,77,97,293862
1.7693,0.3861,39.3200,77,97,293865
1.8231,0.4203,39.0900,77,97,293868
1.7840,0.4008,39.3200,77,97,293872
1.7889,0.3959,39.2500,77,97,293875
1.7840,0.4008,39.2800,77,97,293878
1.7937,0.3861,39.3200,77,97,293882
1.8280,0.4448,39.1600,77,97,293885
1.8084,0.3959,39.2800,77,97,293889
1.8280,0.4057,39.1600,77,97,293893
1.8182,0.3861,39.2800,77,97,293896
1.8231,0.3910,39.2800,77,97,293899
1.8475,0.4008,39.2500,77,97,293903
1.8377,0.3959,39.2800,77,97,293906
1.8719,0.4106,39.1900,77,97,293909
1.8524,0.4008,39.2800,77,97,293912
1.8573,0.3959,39.2800,77,97,293916
1.8817,0.4106,39.2500,77,97,293919
1.8622,0.3959,39.3200,77,97,293922
1.8915,0.4497,39.0900,77,97,293926
1.8817,0.3959,39.1900,77,97,293929
1.8866,0.3959,39.1600,77,97,293933
1.9110,0.4008,38.4600,77,97,293937
1.9110,0.3959,39.2800,77,97,293940
1.9599,0.4154,39.0600,77,97,293943
1.9404,0.3959,39.3200,77,97,293947
1.9453,0.3959,39.3200,77,97,293950
1.9599,0.3959,39.2800,77,97,293953
1.9599,0.4008,39.2800,77,97,293957
2.0186,0.4106,39.0300,77,97,293960
1.9795,0.3959,39.1900,77,97,293963
1.9746,0.3910,39.2500,77,97,293966
1.9844,0.3959,39.3800,77,97,293970
1.9892,0.3959,39.3200,77,97,293974
2.0381,0.4106,39.0900,77,97,293977
2.0039,0.4008,39.3500,77,97,293981
2.0381,0.4008,39.1900,77,97,293984
2.0039,0.3959,39.4100,77,97,293987
2.0088,0.4057,39.3500,77,97,293991
2.0626,0.4008,39.1200,77,97,293994
2.0137,0.3959,39.2800,77,97,293997
2.0381,0.4008,39.1600,77,97,294000
2.0039,0.3959,39.3200,77,97,294004
2.0088,0.3959,39.2800,77,97,294007
2.0186,0.4057,39.1900,77,97,294010
1.9941,0.3910,39.2800,77,97,294014
2.0137,0.4057,39.1900,77,97,294018
1.9697,0.3861,39.3200,77,97,294021
1.9599,0.3910,39.3200,77,97,294025
1.9550,0.4252,39.2500,77,97,294028
1.9208,0.3959,39.2800,77,97,294031
1.9110,0.4008,39.1200,77,97,294034
1.8475,0.4008,39.2800,77,97,294038
1.8182,0.3959,39.3200,77,97,294041
1.8084,0.3959,39.2200,77,97,294044
1.7546,0.3959,39.2800,77,97,294048
1.7693,0.4154,39.0300,77,97,294051
1.7204,0.3861,39.1900,77,97,294054
1.6764,0.3959,39.2500,77,97,294059
1.6520,0.3959,39.3200,77,97,294062
1.6276,0.4057,39.3200,77,97,294065
1.6618,0.4154,39.0300,77,97,294069
1.6080,0.3910,39.2500,77,97,294072
1.6325,0.3910,39.2500,77,97,294075
1.5934,0.3959,39.2800,77,97,294078
1.5885,0.3910,39.2500,77,97,294082
1.6325,0.4106,39.0900,77,97,294085
1.5982,0.4106,39.2500,77,97,294088
1.6471,0.4008,39.1900,77,97,294092
1.6129,0.3959,39.1200,77,97,294095
1.6178,0.3959,39.3200,77,97,294098
1.6471,0.4252,39.2200,77,97,294103
1.6471,0.3959,39.2800,77,97,294106
1.6618,0.4057,39.1600,77,97,294109
1.6471,0.3959,39.3200,77,97,294113
1.6618,0.4252,39.2800,77,97,294116
1.6960,0.4057,39.1200,77,97,294119
1.6813,0.3959,39.2800,77,97,294123
1.7155,0.4008,39.1600,77,97,294126
1.7204,0.3959,39.2500,77,97,294129
1.7155,0.3861,39.2800,77,97,294132
1.7302,0.4057,39.2200,77,97,294136
1.7253,0.3861,39.3200,77,97,294139
1.7644,0.4154,39.0300,77,97,294142
1.7351,0.3959,39.2800,77,97,294147
1.7400,0.3959,39.2500,77,97,294150
1.7546,0.3861,39.2200,77,97,294153
1.7400,0.3959,39.2800,77,97,294157
1.7889,0.4203,39.0000,77,97,294160
1.7449,0.3959,39.5100,77,97,294163
1.7449,0.3910,39.2800,77,97,294167
1.7498,0.3959,39.2800,77,97,294170
1.7351,0.4008,39.2500,77,97,294173
1.7840,0.4154,39.0900,77,97,294177
1.7546,0.4106,39.2500,77,97,294180
1.7498,0.3959,39.1900,77,97,294183
1.7449,0.3959,39.2800,77,97,294187
1.7449,0.3959,38.5500,77,97,294191
1.7791,0.4106,39.1600,77,97,294194
1.7449,0.3959,39.2800,77,97,294197
1.7595,0.4008,39.1200,77,97,294201
1.7351,0.3959,39.4100,77,97,294204
1.7351,0.4008,39.3500,77,97,294207
1.7498,0.4008,39.3500,77,97,294211
1.7400,0.4203,39.2500,77,97,294214
1.7644,0.4008,39.1600,77,97,294217
1.7400,0.3959,39.2800,77,97,294221
1.7400,0.4106,39.2800,77,97,294224
1.7595,0.4008,39.2200,77,97,294227
1.7498,0.3959,39.3800,77,97,294231
1.7791,0.4008,39.0900,77,97,294235
1.7546,0.3959,39.5400,77,97,294238
1.7693,0.3959,39.3500,77,97,294241
1.7742,0.4008,39.2500,77,97,294245
1.7546,0.4008,39.2800,77,97,294248
1.7937,0.4057,39.0300,77,97,294251
1.7644,0.4008,39.1600,77,97,294255
1.7546,0.3910,39.3200,77,97,294258
1.7595,0.3959,39.2200,77,97,294261
1.7546,0.3910,39.2800,77,97,294265
1.8182,0.4154,39.0900,77,97,294268
1.7742,0.3959,39.2200,77,97,294272
1.7742,0.3861,39.2500,77,97,294275
1.7742,0.4008,39.3200,77,97,294279
1.7742,0.3959,39.2800,77,97,294282
1.8084,0.4057,39.1200,77,97,294285
1.7742,0.4008,39.2500,77,97,294289
1.7889,0.4008,39.1600,77,97,294292
1.7644,0.4008,39.3200,77,97,294295
1.7595,0.3959,39.3200,77,97,294299
1.7742,0.3959,39.2200,77,97,294302
1.7595,0.3959,39.2500,77,97,294305
1.7840,0.4154,39.1600,77,97,294309
1.7644,0.3959,39.3500,77,97,294312
1.7693,0.3910,39.3200,77,97,294316
1.7986,0.4057,39.1600,77,97,294319
1.7986,0.4008,39.2800,77,97,294323
1.7937,0.3959,39.2800,77,97,294326
1.8426,0.4106,39.0000,77,97,294330
1.8035,0.3959,39.2200,77,97,294333
1.8035,0.3910,39.2800,77,97,294336
1.8084,0.3959,39.4800,77,97,294340
1.8035,0.4008,39.2800,77,97,294343
1.8573,0.4154,39.0900,77,97,294346
1.8084,0.4106,39.3200,77,97,294350
1.7986,0.3959,39.2500,77,97,294353
1.7986,0.3959,39.2200,77,97,294356
1.7937,0.3861,39.3200,77,97,294361
1.8280,0.4106,39.1600,77,97,294364
1.8035,0.3959,39.2500,77,97,294367
1.8084,0.4008,39.1900,77,97,294370
1.8231,0.3959,39.2800,77,97,294374
1.7986,0.3959,39.3500,77,97,294377
1.8377,0.4106,39.1200,77,97,294380
1.7986,0.3959,39.2800,77,97,294384
1.8231,0.4106,39.1900,77,97,294387
1.7986,0.3910,39.2800,77,97,294390
1.7986,0.4448,39.3200,77,97,294394
1.8084,0.4008,39.1600,77,97,294397
1.7937,0.4252,39.3200,77,97,294401
1.8231,0.3861,39.1200,77,97,294405
1.7937,0.3959,39.2500,77,97,294408
1.7986,0.3959,39.3200,77,97,294411
1.8133,0.3959,39.2500,77,97,294415
1.7986,0.3959,39.2500,77,97,294418
1.8377,0.4057,39.0600,77,97,294421
1.7937,0.3910,39.2500,77,97,294424
1.7986,0.3959,39.3200,77,97,294428
1.8084,0.4008,39.2800,77,97,294431
1.8035,0.3959,39.3200,77,97,294434
1.8671,0.4154,39.0600,77,97,294438
1.8377,0.4008,39.1900,77,97,294441
1.8328,0.3910,39.2500,77,97,294445
1.8475,0.3910,39.2500,77,97,294449
1.8475,0.3959,39.3200,77,97,294452
1.8964,0.4057,39.0900,77,97,294455
1.8671,0.3959,39.2800,77,97,294459
1.8719,0.4008,39.1600,77,97,294462
1.8768,0.3959,39.3500,77,97,294465
1.8915,0.3959,39.3200,77,97,294468
1.9355,0.4057,39.1900,77,97,294472
1.9208,0.3959,39.4800,77,97,294475
1.9453,0.4106,39.1900,77,97,294478
1.9208,0.3959,39.2800,77,97,294482
1.9159,0.3910,39.2500,77,97,294486
1.9257,0.4008,39.2200,77,97,294489
1.9013,0.4057,39.2800,77,97,294493
1.9159,0.4008,39.1600,77,97,294496
1.8671,0.3910,39.3200,77,97,294499
1.8524,0.3861,39.3500,77,97,294503
1.8475,0.4057,39.2500,77,97,294506
1.8133,0.3861,39.2800,77,97,294509
1.8377,0.4203,39.1200,77,97,294512
1.8084,0.4057,39.2500,77,97,294516
1.7791,0.3959,39.3500,77,97,294519
1.7742,0.3861,39.2500,77,97,294522
1.7546,0.3959,39.3200,77,97,294526
1.8280,0.4057,39.0000,77,97,294530
1.7546,0.3959,39.4800,77,97,294533
1.7546,0.3812,39.3200,77,97,294537
1.7498,0.3959,39.3500,77,97,294540
1.7449,0.3812,39.2800,77,97,294543
1.7889,0.4057,39.1600,77,97,294547
1.7498,0.3959,39.2800,77,97,294550
1.7546,0.3959,39.4800,77,97,294553
1.7449,0.3910,39.2800,77,97,294557
1.7546,0.3959,39.2800,77,97,294560
1.7840,0.4057,39.2200,77,97,294563
1.7644,0.3959,39.2800,77,97,294566
1.7840,0.4008,39.1600,77,97,294571
1.7644,0.3959,39.2800,77,97,294574
1.7693,0.3959,39.3500,77,97,294577
1.8084,0.4106,39.1900,77,97,294581
1.7889,0.3959,39.3500,77,97,294584
1.8231,0.3959,39.1600,77,97,294587
1.8133,0.3910,39.2500,77,97,294591
1.8475,0.3959,39.3800,77,97,294594
1.9306,0.4008,39.2500,77,97,294597
2.0479,0.3959,39.3500,77,97,294601
2.2825,0.4008,39.0900,77,97,294604
2.5220,0.3959,39.2500,77,97,294607
2.8543,0.3959,39.3800,77,97,294610
3.2258,0.4008,39.2500,77,97,294615
3.4800,0.3861,39.2800,77,97,294618
3.7048,0.4057,39.0900,77,97,294621
3.5973,0.3959,39.2800,77,97,294625
3.3822,0.3959,39.3200,77,97,294628
3.0010,0.4008,39.3200,77,97,294631
2.4976,0.3861,39.3200,77,97,294635
2.0674,0.4154,38.9600,77,97,294638
1.6178,0.3959,39.2200,77,97,294641
1.3050,0.3910,39.3200,77,97,294644
1.1241,0.3959,39.2800,77,97,294648
1.0313,0.3959,39.3800,77,97,294651
1.0313,0.4106,39.1200,77,97,294654
1.0215,0.4008,39.3500,77,97,294659
1.0850,0.3959,39.2200,77,97,294662
1.1584,0.3910,39.3200,77,97,294665
1.2463,0.3861,39.3200,77,97,294669
1.3539,0.3959,39.1900,77,97,294672
1.4125,0.3959,39.1900,77,97,294675
1.4858,0.4008,39.1600,77,97,294679
1.5152,0.3959,39.2800,77,97,294682
1.5543,0.3959,39.2500,77,97,294685
1.5982,0.4008,39.3500,77,97,294688
1.6129,0.3861,39.2800,77,97,294692
1.6569,0.4008,39.1600,77,97,294695
1.6471,0.3910,39.2800,77,97,294699
1.6618,0.3959,39.3200,77,97,294703
1.6862,0.4106,39.1900,77,97,294706
1.6813,0.4008,39.2500,77,97,294709
1.7204,0.4106,39.0300,77,97,294713
1.7204,0.4008,39.2500,77,97,294716
1.7107,0.3959,39.3200,77,97,294719
1.7302,0.4008,39.2500,77,97,294723
1.7302,0.3959,39.2800,77,97,294726
1.7791,0.4057,39.0300,77,97,294729
1.7449,0.3959,39.2500,77,97,294732
1.7546,0.3861,39.3200,77,97,294736
1.7644,0.4008,39.2800,77,97,294739
1.7644,0.3959,39.2800,77,97,294743
1.8182,0.4057,39.0900,77,97,294747
1.7791,0.4008,38.9600,77,97,294750
1.7840,0.4008,39.2200,77,97,294753
1.7889,0.3861,39.2800,77,97,294757
1.7937,0.3910,39.3200,77,97,294760
1.8377,0.4057,39.2500,77,97,294763
1.8182,0.3959,39.3200,77,97,294767
1.8377,0.4008,39.1900,77,97,294770
1.8231,0.3959,39.2200,77,97,294773
1.8328,0.4008,39.3200,77,97,294776
1.8622,0.3861,39.1900,77,97,294780
1.8328,0.4008,39.2800,77,97,294784
1.8671,0.4057,39.2200,77,97,294787
1.8377,0.3910,39.2500,77,97,294791
1.8475,0.3959,39.3200,77,97,294794
1.8622,0.3959,39.2200,77,97,294797
1.8524,0.3861,39.3200,77,97,294801
1.8817,0.4252,39.1200,77,97,294804
1.8622,0.3959,39.2800,77,97,294807
1.8671,0.4008,39.3200,77,97,294811
1.8817,0.3861,39.2500,77,97,294814
1.8768,0.3959,39.3200,77,97,294817
1.9257,0.4106,39.0300,77,97,294821
1.8817,0.4203,39.3200,77,97,294824
1.8915,0.3959,39.3200,77,97,294828
1.9013,0.3959,39.2800,77,97,294831
1.9062,0.3959,39.2800,77,97,294835
1.9697,0.4154,39.0600,77,97,294838
1.9306,0.3959,39.2500,77,97,294841
1.9257,0.3910,39.2500,77,97,294845
1.9257,0.3959,39.2800,77,97,294848
1.9355,0.3959,39.2800,77,97,294851
2.0039,0.4057,39.0900,77,97,294855
1.9453,0.4008,39.3500,77,97,294858
1.9550,0.4008,39.1600,77,97,294861
1.9404,0.3959,39.2800,77,97,294865
1.9355,0.3959,39.3500,77,97,294868
1.9648,0.4008,39.1900,77,97,294872
1.9550,0.3959,39.3200,77,97,294875
1.9892,0.4399,39.0600,77,97,294879
1.9648,0.4008,39.3200,77,97,294882
1.9697,0.3959,39.3800,77,97,294885
1.9844,0.4008,39.2500,77,97,294889
1.9795,0.3959,39.3200,77,97,294892
2.0039,0.4203,39.1600,77,97,294895
1.9746,0.3959,39.3200,77,97,294899
1.9746,0.3959,39.2800,77,97,294902
1.9892,0.4008,39.1900,77,97,294905
1.9501,0.4154,39.3200,77,97,294909
1.9746,0.4057,39.0600,77,97,294913
1.9306,0.4057,39.1900,77,97,294916
1.8866,0.4008,39.2800,77,97,294919
1.8719,0.4008,39.1900,77,97,294923
1.8328,0.3910,39.3800,77,97,294926
1.8573,0.4057,39.0300,77,97,294929
1.7204,0.4057,39.1900,77,97,294933
1.6716,0.4252,39.2800,77,97,294936
1.6618,0.3959,39.1900,77,97,294940
1.6325,0.3959,39.3800,77,97,294943
1.6178,0.3959,39.3200,77,97,294946
1.6373,0.4057,39.2200,77,97,294950
1.6129,0.3959,39.3500,77,97,294953
1.6276,0.4057,39.1600,77,97,294957
1.6031,0.3959,39.1900,77,97,294961
1.6080,0.3910,39.2800,77,97,294964
1.6325,0.4057,39.1600,77,97,294967
1.6080,0.3959,39.2800,77,97,294971
1.6373,0.4008,39.1200,77,97,294974
1.6373,0.4008,39.2200,77,97,294977
1.6667,0.3910,39.2800,77,97,294980
1.6667,0.4008,39.1900,77,97,294984
1.6618,0.4008,39.2800,77,97,294987
1.7107,0.4057,39.1200,77,97,294990
1.6813,0.3959,39.2800,77,97,294994
1.6960,0.3959,39.3200,77,97,294998
1.7107,0.4008,39.2800,77,97,295001
1.7400,0.3959,39.2800,77,97,295005
1.7644,0.4057,39.0300,77,97,295008
1.7204,0.3959,39.2500,77,97,295011
1.7204,0.3910,39.2800,77,97,295014
1.7351,0.3959,39.4400,77,97,295018
1.7351,0.3861,39.2800,77,97,295021
1.7840,0.4154,39.1200,77,97,295024
1.7595,0.4057,39.2200,77,97,295028
1.7595,0.3959,39.1900,77,97,295031
1.7644,0.3959,39.2800,77,97,295034
1.7693,0.3959,39.3500,77,97,295038
1.8084,0.4106,39.1200,77,97,295042
1.7840,0.3959,39.2200,77,97,295045
1.8035,0.4057,39.1600,77,97,295049
1.7791,0.3910,39.3500,77,97,295052
1.7840,0.4203,39.2800,77,97,295055
1.7986,0.4057,39.2200,77,97,295059
1.7889,0.3959,39.2800,77,97,295062
1.8475,0.4008,39.1900,77,97,295065
1.7889,0.3959,39.2800,77,97,295068
1.7889,0.4008,39.2800,77,97,295072
1.7986,0.3959,39.2200,77,97,295075
1.7889,0.3959,39.2500,77,97,295078
1.8182,0.4008,39.0600,77,97,295083
1.7840,0.3959,39.3200,77,97,295086
1.7937,0.3959,39.3200,77,97,295089
1.8084,0.4203,39.2800,77,97,295093
1.7791,0.4008,39.3200,77,97,295096
1.8328,0.4057,39.1200,77,97,295099
1.8084,0.3959,39.1900,77,97,295103
1.7937,0.3959,39.3200,77,97,295106
1.8035,0.3959,39.3200,77,97,295109
1.7791,0.3959,39.3200,77,97,295112
1.8231,0.4106,39.0600,77,97,295116
1.7742,0.4008,39.2500,77,97,295119
1.7693,0.4154,39.2800,77,97,295122
1.7693,0.3959,39.2800,77,97,295127
1.7595,0.3959,39.2800,77,97,295130
1.8035,0.4106,39.1600,77,97,295133
1.7644,0.3959,39.2500,77,97,295137
1.7742,0.4106,39.1900,77,97,295140
1.7546,0.3959,39.2800,77,97,295143
1.7595,0.3910,39.3200,77,97,295147
1.7840,0.4008,39.2500,77,97,295150
1.7742,0.3959,39.2800,77,97,295153
1.8035,0.4057,39.1600,77,97,295156
1.7693,0.4252,39.2800,77,97,295160
1.7840,0.3959,39.3200,77,97,295163
1.8084,0.4057,39.1900,77,97,295166
1.7840,0.3959,39.3500,77,97,295171
1.8035,0.4008,39.1200,77,97,295174
1.7840,0.3910,39.2200,77,97,295177
1.7840,0.3861,39.3200,77,97,295181
1.8133,0.4008,39.2500,77,97,295184
1.7889,0.3861,39.3200,77,97,295187
1.8280,0.4154,39.0600,77,97,295191
1.7986,0.3959,39.2500,77,97,295194
1.7937,0.3959,39.2500,77,97,295197
1.7986,0.4008,39.2800,77,97,295200
1.7937,0.3861,39.3200,77,97,295204
1.8426,0.4154,38.9600,77,97,295207
1.7986,0.3959,39.2200,77,97,295211
1.7986,0.3910,39.2800,77,97,295215
1.8035,0.3959,39.4100,77,97,295218
1.8182,0.3910,39.2800,77,97,295221
1.8524,0.4154,39.4100,77,97,295225
1.8524,0.3959,39.2500,77,97,295228
1.8182,0.3959,39.2500,77,97,295231
1.8035,0.3861,39.2800,77,97,295235
1.8035,0.3959,39.2200,77,97,295238
1.8524,0.4106,39.1200,77,97,295241
1.8133,0.3959,39.2800,77,97,295245
1.8475,0.4057,39.1900,77,97,295248
1.8377,0.3959,39.4400,77,97,295251
1.8475,0.4008,39.2800,77,97,295255
1.8719,0.4008,39.2200,77,97,295259
1.8622,0.3959,39.3500,77,97,295262
1.8866,0.4057,39.1600,77,97,295265
1.8622,0.3959,39.4100,77,97,295269
1.8671,0.3910,39.2800,77,97,295272
1.9013,0.4008,39.2200,77,97,295275
1.9062,0.3861,39.2800,77,97,295279
1.9648,0.4008,39.0900,77,97,295282
1.9355,0.3959,39.5100,77,97,295285
1.9697,0.4008,39.3200,77,97,295289
1.9599,0.4008,39.2200,77,97,295292
1.9306,0.4008,39.2800,77,97,295296
1.9648,0.4106,39.0000,77,97,295299
1.9208,0.4008,39.2800,77,97,295303
1.8866,0.3959,39.2800,77,97,295306
1.8768,0.4008,39.2800,77,97,295309
1.8524,0.3959,39.3500,77,97,295313
1.8768,0.4057,39.0600,77,97,295316
1.8231,0.4008,39.3800,77,97,295319
1.8035,0.3812,39.2500,77,97,295323
1.7889,0.3959,39.3200,77,97,295326
1.7742,0.4106,39.3200,77,97,295329
1.7986,0.4057,39.1200,77,97,295332
1.7595,0.4203,39.3500,77,97,295336
1.7644,0.3959,39.2200,77,97,295340
1.7546,0.3959,39.2500,77,97,295343
1.7595,0.3959,39.3200,77,97,295347
1.7742,0.4008,39.1600,77,97,295350
1.7595,0.4008,39.2800,77,97,295353
1.7889,0.4008,39.1900,77,97,295357
1.7644,0.4301,39.3200,77,97,295360
1.7791,0.3861,39.3200,77,97,295363
1.8035,0.4399,39.1900,77,97,295367
1.7742,0.3959,39.2800,77,97,295370
1.7986,0.4057,39.1900,77,97,295373
1.7889,0.3861,39.2200,77,97,295376
1.7840,0.3959,39.2800,77,97,295380
1.7986,0.4008,39.2200,77,97,295384
1.7840,0.3959,39.3200,77,97,295387
1.8280,0.4057,39.0600,77,97,295391
1.8084,0.3959,39.2500,77,97,295394
1.8182,0.4008,39.3500,77,97,295397
1.8475,0.4008,39.2800,77,97,295401
1.8671,0.3959,39.3800,77,97,295404
1.9844,0.4057,39.0000,77,97,295407
2.0577,0.3910,39.2800,77,97,295411
2.2385,0.3910,39.2800,77,97,295414
2.5073,0.3959,39.2800,77,97,295417
2.8299,0.4008,39.2500,77,97,295420
3.2600,0.4154,39.1600,77,97,295425
3.4897,0.4008,39.2200,77,97,295428
3.6461,0.4057,39.2500,77,97,295431
3.6364,0.3959,39.2200,77,97,295435
3.4751,0.3910,39.3200,77,97,295438
3.1574,0.4008,39.1200,77,97,295441
2.6197,0.4008,39.3200,77,97,295445
2.1505,0.4008,39.1900,77,97,295448
1.7058,0.3959,39.3200,77,97,295451
1.3930,0.3861,39.2800,77,97,295455
1.2121,0.4057,39.2500,77,97,295458
1.0899,0.3959,39.2200,77,97,295461
1.0606,0.4106,39.1600,77,97,295464
1.0508,0.3861,39.3200,77,97,295469
1.1046,0.3959,39.3500,77,97,295472
1.1877,0.4057,39.2200,77,97,295475
1.2610,0.3959,39.3200,77,97,295479
1.3636,0.4106,39.1600,77,97,295482
1.4223,0.3959,39.5400,77,97,295485
1.4907,0.4008,39.3200,77,97,295489
1.5591,0.4057,39.2200,77,97,295492
1.5787,0.4008,39.2800,77,97,295495
1.6569,0.4057,39.0600,77,97,295498
1.6569,0.4008,39.1900,77,97,295502
1.6618,0.3959,39.2800,77,97,295505
1.6862,0.4008,39.2800,77,97,295508
1.6862,0.3959,39.2500,77,97,295513
1.7400,0.4106,39.0000,77,97,295516
1.7155,0.3959,39.2200,77,97,295519
1.7253,0.3910,39.3200,77,97,295523
1.7400,0.3959,39.3200,77,97,295526
1.7400,0.3910,39.2800,77,97,295529
1.7986,0.4057,39.0900,77,97,295533
1.7644,0.4008,39.3200,77,97,295536
1.7791,0.4203,39.3200,77,97,295539
1.7742,0.3959,39.3200,77,97,295542
1.7937,0.3959,39.3500,77,97,295546
1.8426,0.4008,39.3200,77,97,295549
1.8426,0.4057,39.3200,77,97,295554
1.8280,0.3959,39.2800,77,97,295557
1.8475,0.4008,39.2200,77,97,295560
1.8328,0.4008,39.3200,77,97,295564
1.8377,0.3959,39.3200,77,97,295567
1.8524,0.4008,39.2500,77,97,295570
1.8524,0.3959,39.3800,77,97,295574
1.8964,0.4057,39.0000,77,97,295577
1.8671,0.3959,39.2500,77,97,295580
1.8671,0.3959,39.3500,77,97,295584
1.8768,0.4008,39.2800,77,97,295587
1.8768,0.3910,39.2800,77,97,295590
1.9306,0.4350,39.0000,77,97,295593
1.8915,0.3861,39.2500,77,97,295598
1.8964,0.3910,39.3500,77,97,295601
1.9062,0.3910,39.2800,77,97,295604
1.9062,0.3959,39.4100,77,97,295608
1.9599,0.4154,39.1900,77,97,295611
1.9208,0.4008,39.3500,77,97,295614
1.9257,0.3959,39.2500,77,97,295618
1.9208,0.3959,39.3500,77,97,295621
1.9306,0.3959,39.3200,77,97,295624
1.9746,0.4057,39.0900,77,97,295628
1.9453,0.3959,39.2800,77,97,295631
1.9746,0.4008,39.1600,77,97,295634
1.9550,0.3959,39.2800,77,97,295638
1.9550,0.3910,39.2800,77,97,295642
1.9844,0.4106,39.2200,77,97,295645
1.9697,0.3959,39.2800,77,97,295648
2.0039,0.4008,39.1900,77,97,295652
1.9746,0.3959,39.2800,77,97,295655
1.9844,0.3959,39.2800,77,97,295658
1.9990,0.4008,39.2800,77,97,295662
1.9990,0.4008,39.3200,77,97,295665
2.0332,0.3861,39.0900,77,97,295668
2.0088,0.4008,39.2800,77,97,295672
2.0137,0.4008,39.3200,77,97,295675
2.0430,0.3861,39.1900,77,97,295678
2.0137,0.3959,39.2800,77,97,295682
2.1065,0.4057,39.0300,77,97,295686
2.0479,0.4008,39.1900,77,97,295689
2.0283,0.3959,39.3500,77,97,295692
2.0283,0.3959,39.2800,77,97,295696
2.0088,0.3861,39.3500,77,97,295699
2.0528,0.4106,39.0000,77,97,295702
1.9892,0.4008,39.2500,77,97,295705
1.9746,0.3910,39.2500,77,97,295709
1.9453,0.3959,39.2800,77,97,295712
1.9257,0.3959,39.3200,77,97,295715
1.9501,0.4154,39.1200,77,97,295719
1.8817,0.3959,39.2500,77,97,295723
1.8573,0.3959,39.2200,77,97,295726
1.8231,0.3959,39.3500,77,97,295730
1.7986,0.3910,39.2500,77,97,295733
1.8084,0.4057,39.2500,77,97,295736
1.7595,0.4106,39.2500,77,97,295740
1.7449,0.4008,39.1600,77,97,295743
1.7107,0.4057,39.2800,77,97,295746
1.7058,0.3959,39.2800,77,97,295750
1.7058,0.4057,39.2200,77,97,295753
1.6716,0.4008,39.2800,77,97,295756
1.6862,0.3959,39.1900,77,97,295759
1.6520,0.4008,39.2500,77,97,295763
1.6569,0.3959,39.3200,77,97,295767
1.6960,0.4008,39.2200,77,97,295770
1.6667,0.3861,39.2800,77,97,295774
1.6960,0.4008,39.1200,77,97,295777
1.6813,0.3861,39.2800,77,97,295780
1.6911,0.3959,39.3200,77,97,295784
1.7107,0.4008,39.2800,77,97,295787
1.7107,0.3959,39.3800,77,97,295790
1.7644,0.4106,39.0300,77,97,295794
1.7302,0.3959,39.2200,77,97,295797
1.7351,0.3959,39.3200,77,97,295800
1.7546,0.4008,39.2500,77,97,295803
1.7498,0.3959,39.3200,77,97,295808
1.8133,0.4154,39.1200,77,97,295811
1.7840,0.4057,39.2200,77,97,295814
1.7840,0.3959,39.3500,77,97,295818
1.7840,0.3959,39.2800,77,97,295821
1.7889,0.3959,39.2800,77,97,295824
1.8622,0.4106,39.1200,77,97,295828
1.8035,0.4252,39.2800,77,97,295831
1.8231,0.4057,39.2200,77,97,295834
1.8084,0.3959,39.3200,77,97,295838
1.8133,0.4008,39.3200,77,97,295841
1.8475,0.4106,39.2800,77,97,295844
1.8280,0.3959,39.2800,77,97,295848
1.8573,0.4106,39.1900,77,97,295852
1.8182,0.3959,39.2800,77,97,295855
1.8182,0.3959,39.3500,77,97,295858
1.8133,0.4008,39.2200,77,97,295862
1.8035,0.3959,39.3200,77,97,295865
1.8280,0.4008,39.1200,77,97,295868
1.7986,0.3959,39.2800,77,97,295872
1.7986,0.3959,39.3200,77,97,295875
1.8133,0.4106,39.2200,77,97,295878
1.7889,0.3959,39.4100,77,97,295882
1.8328,0.4106,39.0600,77,97,295885
1.8133,0.4008,39.1900,77,97,295888
1.7937,0.3959,39.2800,77,97,295892
1.7986,0.3959,39.2200,77,97,295896
1.7889,0.3959,39.2800,77,97,295899
1.8475,0.4057,39.0600,77,97,295902
1.7937,0.3959,39.2200,77,97,295906
1.7791,0.3959,39.2500,77,97,295909
1.7889,0.3959,39.3200,77,97,295912
1.7937,0.3910,39.2800,77,97,295916
1.8328,0.4057,39.1200,77,97,295919
1.7986,0.4057,39.3200,77,97,295922
1.8133,0.3959,39.1900,77,97,295926
1.7937,0.4057,39.2500,77,97,295929
1.7937,0.3959,39.3200,77,97,295932
1.8084,0.4057,39.2200,77,97,295937
1.7937,0.4008,39.2800,77,97,295940
1.8133,0.4008,39.1200,77,97,295943
1.7937,0.3861,39.3200,77,97,295947
1.7986,0.3959,39.2500,77,97,295950
1.8280,0.4057,39.1900,77,97,295953
1.7937,0.3959,39.2800,77,97,295956
1.8182,0.3861,39.1600,77,97,295960
1.7986,0.4008,39.2200,77,97,295963
1.7986,0.3959,39.3200,77,97,295966
1.8133,0.4008,39.2500,77,97,295970
1.7986,0.3959,39.2800,77,97,295973
1.8377,0.4057,39.0900,77,97,295976
1.8133,0.3959,39.2200,77,97,295981
1.8084,0.3959,39.4100,77,97,295984
1.8182,0.4106,39.2800,77,97,295987
1.8133,0.3959,39.2800,77,97,295991
1.8573,0.4106,39.0600,77,97,295994
1.8133,0.3959,39.2800,77,97,295997
1.8133,0.3910,39.2500,77,97,296000
1.8182,0.4008,39.2800,77,97,296004
1.8133,0.3959,39.2200,77,97,296007
1.8622,0.4203,39.1200,77,97,296010
1.8328,0.4008,39.3500,77,97,296014
1.8231,0.4008,39.2200,77,97,296017
1.8133,0.3959,38.6200,77,97,296020
1.8133,0.4008,39.2800,77,97,296025
1.8524,0.4057,39.1200,77,97,296028
1.8182,0.4252,39.3200,77,97,296031
1.8377,0.4008,39.1600,77,97,296035
1.8182,0.3959,39.2800,77,97,296038
1.8328,0.3959,39.3200,77,97,296041
1.8524,0.4252,39.1600,77,97,296044
1.8328,0.3959,39.2800,77,97,296048
1.8622,0.4008,39.2800,77,97,296051
1.8377,0.3959,39.2500,77,97,296054
1.8426,0.3959,39.3800,77,97,296058
1.8524,0.4057,39.2200,77,97,296061
1.8524,0.3959,39.3500,77,97,296065
1.8866,0.4301,39.1200,77,97,296069
1.8524,0.3959,39.3500,77,97,296072
1.8524,0.3959,39.3200,77,97,296075
1.8671,0.4008,39.2800,77,97,296079
1.8817,0.3959,39.2800,77,97,296082
1.9062,0.4057,39.0300,77,97,296085
1.8915,0.4008,39.1600,77,97,296088
1.8866,0.4008,39.3200,77,97,296092
1.9013,0.3959,39.3800,77,97,296095
1.9013,0.4203,39.2800,77,97,296098
1.9453,0.4154,39.0600,77,97,296102
1.9062,0.4057,39.2800,77,97,296105
1.9013,0.3959,39.2200,77,97,296109
1.9110,0.3959,39.3200,77,97,296113
1.9208,0.4008,39.3200,77,97,296116
1.9746,0.4106,39.1600,77,97,296119
1.9501,0.4057,39.3500,77,97,296123
1.9648,0.3959,39.1900,77,97,296126
1.9501,0.3959,39.2800,77,97,296129
1.9453,0.3959,39.3200,77,97,296132
1.9550,0.4154,39.2800,77,97,296136
1.9501,0.3959,39.2800,77,97,296139
1.9355,0.4057,39.1900,77,97,296142
1.8964,0.3861,39.2800,77,97,296146
1.8768,0.3959,39.2500,77,97,296150
1.8817,0.4057,39.1900,76,97,296153
1.7937,0.4008,39.2800,76,97,296157
1.7791,0.3959,39.3800,76,97,296160
1.8524,0.4057,39.0300,76,97,296164
1.7889,0.3959,39.2500,76,97,296167
1.7937,0.3861,39.2800,76,97,296170
1.7937,0.3910,39.2500,76,97,296174
1.7986,0.3959,39.2800,76,97,296177
1.8622,0.4154,38.8400,76,97,296180
1.8035,0.3861,39.2500,76,97,296184
1.8084,0.3959,39.2500,76,97,296187
1.8084,0.3959,39.2800,76,97,296190
1.8035,0.3959,39.2500,76,97,296194
1.8426,0.4106,39.1900,76,97,296198
1.8231,0.3959,39.2200,76,97,296201
1.8426,0.4008,39.1900,76,97,296204
1.8280,0.3959,39.2800,76,97,296208
1.8328,0.4008,39.3200,76,97,296211
1.8768,0.4057,39.1600,76,97,296214
1.8866,0.3959,39.2800,76,97,296218
1.8915,0.3861,39.1900,76,97,296221
1.8768,0.3910,39.3200,76,97,296224
1.9013,0.3959,39.3200,76,97,296228
2.0039,0.4106,39.1900,76,97,296231
2.1261,0.3959,39.2800,76,97,296235
2.3900,0.4008,39.1200,76,97,296239
2.6637,0.4448,39.2500,76,97,296242
3.0059,0.3959,39.2800,76,97,296245
3.3724,0.4008,39.2800,76,97,296248
3.6168,0.3959,39.2800,76,97,296252
3.8465,0.4057,39.0600,76,97,296255
3.6657,0.3910,39.2500,76,97,296258
3.4213,0.3959,39.3200,76,97,296262
3.0059,0.4008,39.3200,76,97,296265
2.5024,0.3959,39.3200,76,97,296268
2.0479,0.4106,39.0300,76,97,296272
1.6129,0.4008,39.2200,76,97,296275
1.3294,0.3910,39.2500,76,97,296279
1.1632,0.4008,39.2800,76,97,296282
1.0850,0.3910,39.3200,76,97,296286
1.0997,0.3861,39.0900,76,97,296289
1.1144,0.4008,39.4100,76,97,296292
1.1828,0.4008,39.3200,76,97,296296
1.2561,0.3959,39.3200,76,97,296299
1.3392,0.3910,39.2500,76,97,296302
1.4370,0.3861,39.1600,76,97,296306
1.4761,0.3959,39.3500,76,97,296309
1.5249,0.3959,39.1200,76,97,296312
1.5494,0.3959,39.2500,76,97,296316
1.5738,0.3959,39.2800,76,97,296320
1.6031,0.3959,39.1900,76,97,296323
1.6325,0.4008,39.3200,76,97,296326
1.6569,0.4008,39.1900,76,97,296330
1.6520,0.3910,39.3200,76,97,296333
1.6667,0.3959,39.3200,76,97,296336
1.7107,0.4008,39.1900,76,97,296340
1.7058,0.3959,39.4100,76,97,296343
1.7449,0.4057,39.1200,76,97,296346
1.7449,0.3861,39.2200,76,97,296350
1.7449,0.3959,39.3200,76,97,296353
1.7644,0.4008,38.4600,76,97,296356
1.7595,0.3959,39.2800,76,97,296360
1.8133,0.4106,39.0600,76,97,296364
1.7840,0.4106,39.2500,76,97,296367
1.7986,0.3910,39.3200,76,97,296370
1.7889,0.3959,39.2800,76,97,296374
1.7937,0.4203,39.3200,76,97,296377
1.8426,0.3861,39.0600,76,97,296380
1.8035,0.3910,39.2500,76,97,296384
1.8133,0.3910,39.2500,76,97,296387
1.8133,0.3959,39.2500,76,97,296390
1.8182,0.3959,39.3500,76,97,296394
1.8573,0.4252,39.1600,76,97,296397
1.8328,0.4008,39.2800,76,97,296400
1.8475,0.4008,39.1600,76,97,296404
1.8377,0.3861,39.2800,76,97,296408
1.8475,0.3959,39.3500,76,97,296411
1.8817,0.4057,39.1600,76,97,296414
1.8622,0.3959,39.2500,76,97,296418
1.8915,0.4008,39.2200,76,97,296421
1.8671,0.3910,39.2500,76,97,296424
1.8719,0.4008,39.3200,76,97,296428
1.8964,0.4008,39.2200,76,97,296431
1.8866,0.3959,39.2800,76,97,296434
1.9208,0.3959,39.1200,76,97,296438
1.9062,0.3959,39.0900,76,97,296441
1.9257,0.3910,39.2800,76,97,296444
1.9257,0.4008,39.2500,76,97,296449
1.9208,0.3959,39.2800,76,97,296452
1.9795,0.4057,39.0600,76,97,296455
1.9404,0.3910,39.5400,76,97,296458
1.9501,0.4008,39.3200,76,97,296462
1.9697,0.3959,39.2800,76,97,296465
1.9648,0.3910,39.3200,76,97,296468
2.0332,0.4106,39.0000,76,97,296472
2.0039,0.3959,39.2200,76,97,296475
1.9941,0.3910,39.2800,76,97,296478
1.9990,0.3959,39.2800,76,97,296482
1.9990,0.3959,39.2800,76,97,296485
2.0626,0.4106,39.0900,76,97,296488
2.0186,0.4008,39.3500,76,97,296493
2.0186,0.3959,39.2200,76,97,296496
2.0137,0.4008,39.3200,76,97,296499
2.0088,0.3861,39.3200,76,97,296502
2.0528,0.4057,39.2200,76,97,296506
2.0577,0.3959,39.2500,76,97,296509
2.0381,0.4008,39.1900,76,97,296512
2.0235,0.4008,39.2800,76,97,296516
2.0186,0.3959,39.2800,76,97,296519
2.0430,0.4008,39.2500,76,97,296522
2.0186,0.3959,39.3800,76,97,296525
2.0332,0.4008,39.1200,76,97,296529
1.9990,0.3959,39.3800,76,97,296532
1.9941,0.3959,39.2800,76,97,296536
2.0137,0.4057,39.1900,76,97,296540
1.9648,0.3959,39.2800,76,97,296543
1.9746,0.3861,39.1200,76,97,296546
1.9257,0.3959,39.2200,76,97,296550
1.8915,0.3910,39.3200,76,97,296553
1.8915,0.3959,39.2500,76,97,296556
1.8280,0.3910,39.3200,76,97,296560
1.8328,0.4057,39.0600,76,97,296563
1.7644,0.3861,39.2500,76,97,296566
1.7302,0.3959,39.3200,76,97,296569
1.7058,0.3959,39.2500,76,97,296573
1.6764,0.3959,39.3200,76,97,296577
1.6960,0.4203,39.0000,76,97,296580
1.6373,0.3959,39.2500,76,97,296584
1.6227,0.3910,39.2800,76,97,296587
1.6520,0.3959,39.2800,76,97,296590
1.6080,0.3959,39.3500,76,97,296594
1.6520,0.4154,39.1900,76,97,296597
1.6129,0.4008,39.2500,76,97,296600
1.5982,0.3959,39.2200,76,97,296604
1.5934,0.3861,39.3200,76,97,296607
1.6031,0.4008,39.3200,76,97,296610
1.6422,0.4057,39.1200,76,97,296613
1.6227,0.4252,39.2800,76,97,296617
1.6471,0.4008,39.1900,76,97,296621
1.6373,0.3959,39.2800,76,97,296624
1.6618,0.4008,39.3200,76,97,296628
1.6764,0.4057,39.2200,76,97,296631
1.6618,0.3959,39.2800,76,97,296634
1.7058,0.4008,39.2800,76,97,296638
1.6862,0.3910,39.2500,76,97,296641
1.7009,0.3959,39.2800,76,97,296644
1.7155,0.3959,39.2200,76,97,296648
1.7498,0.3959,39.2800,76,97,296651
1.7498,0.4008,39.1600,76,97,296654
1.7351,0.3959,39.3200,76,97,296657
1.7400,0.3910,39.2200,76,97,296662
1.7644,0.4008,39.2200,76,97,296665
1.7449,0.3959,39.3200,76,97,296668
1.7889,0.4008,39.0300,76,97,296672
1.7693,0.4008,39.1900,76,97,296675
1.7595,0.3959,39.2500,76,97,296678
1.7742,0.4008,39.2500,76,97,296682
1.7693,0.3959,39.3500,76,97,296685
1.8280,0.4203,39.0600,76,97,296688
1.7937,0.3910,39.2200,76,97,296692
1.7889,0.3910,39.2500,76,97,296695
1.7840,0.3959,39.2800,76,97,296698
1.7937,0.3959,39.4800,76,97,296701
1.8475,0.4106,39.1600,76,97,296706
1.8084,0.3959,39.3200,76,97,296709
1.8182,0.4008,39.1900,76,97,296712
1.8035,0.3959,39.3200,76,97,296716
1.7986,0.3959,39.2800,76,97,296719
1.8182,0.4008,39.2500,76,97,296722
1.7937,0.3959,39.3500,76,97,296726
1.8182,0.4008,39.1600,76,97,296729
1.7840,0.3959,39.2800,76,97,296732
1.7840,0.3910,39.3200,76,97,296736
1.8133,0.4057,39.1600,76,97,296739
1.7889,0.3959,39.2500,76,97,296742
1.8084,0.3959,39.2200,76,97,296745
1.7840,0.4008,39.2200,76,97,296750
1.7791,0.3959,39.2800,76,97,296753
1.7986,0.4008,39.2200,76,97,296756
1.7791,0.3959,39.2800,76,97,296760
1.8084,0.4008,39.0900,76,97,296763
1.8182,0.4154,39.0600,76,97,296768
1.7791,0.3959,39.2500,76,97,296771
1.7840,0.3910,39.2200,76,97,296774
1.7937,0.3959,39.2800,76,97,296778
1.7937,0.3910,39.4400,76,97,296781
1.8328,0.4106,39.0000,76,97,296784
1.8035,0.4008,39.2500,76,97,296788
1.8084,0.3959,39.2200,76,97,296792
1.7986,0.3959,39.3200,76,97,296795
1.7986,0.3959,39.2200,76,97,296798
1.8377,0.4057,39.1200,76,97,296802
1.8035,0.3959,39.2200,76,97,296805
1.8426,0.3959,39.1900,76,97,296808
1.8035,0.3959,39.1900,76,97,296812
1.8035,0.3861,39.3200,76,97,296815
1.8280,0.4008,39.1900,76,97,296818
1.8035,0.3959,39.3200,76,97,296822
1.8328,0.3959,39.1600,76,97,296825
1.8035,0.3959,39.2500,76,97,296828
1.8133,0.3959,39.3200,76,97,296833
1.8231,0.3959,39.2200,76,97,296836
1.8182,0.3861,39.2800,76,97,296839
1.8573,0.4008,39.0600,76,97,296843
1.8133,0.3910,39.2800,76,97,296846
1.8231,0.4057,39.3200,76,97,296849
1.8280,0.4008,39.2500,76,97,296852
1.8133,0.3959,39.2800,76,97,296856
1.8671,0.4057,39.0000,76,97,296859
1.8328,0.4008,39.3800,76,97,296862
1.8182,0.3910,39.2800,76,97,296866
1.8182,0.3959,39.3500,76,97,296869
1.8133,0.4008,39.3200,76,97,296872
1.8622,0.4154,39.1200,76,97,296877
1.8231,0.4203,39.2500,76,97,296880
1.8280,0.3959,39.2500,76,97,296883
1.8133,0.3959,39.2800,76,97,296887
1.8133,0.3959,39.3200,76,97,296890
1.8377,0.4057,39.1600,76,97,296893
1.8035,0.3959,39.2800,76,97,296896
1.8280,0.4008,39.1600,76,97,296900
1.8035,0.4008,39.2800,76,97,296903
1.8035,0.3959,39.3200,76,97,296906
1.8182,0.4057,39.2500,76,97,296910
1.8084,0.3861,39.2800,76,97,296913
1.8328,0.4008,39.2800,76,97,296916
1.8084,0.3959,39.2800,76,97,296921
1.8084,0.3910,39.5100,76,97,296924
1.8280,0.3959,39.1600,76,97,296927
1.8084,0.3959,39.2800,76,97,296931
1.8377,0.4106,39.0900,76,97,296934
1.8231,0.3959,39.1900,76,97,296937
1.8133,0.4008,39.2800,76,97,296940
1.8280,0.4008,39.2200,76,97,296944
1.8182,0.3959,39.3500,76,97,296947
1.8671,0.4057,39.0300,76,97,296950
1.8426,0.3959,39.2500,76,97,296954
1.8475,0.3959,39.3200,76,97,296957
1.8622,0.3959,39.2800,76,97,296961
1.8622,0.3910,39.3200,76,97,296965
1.9257,0.4154,39.1900,76,97,296968
1.8817,0.3959,39.2500,76,97,296971
1.8866,0.3959,39.2500,76,97,296975
1.8817,0.3959,39.2800,76,97,296978
1.8964,0.4106,39.3200,76,97,296981
1.9453,0.4057,39.1900,76,97,296985
1.9306,0.3959,39.3500,76,97,296988
1.9453,0.3959,39.2500,76,97,296991
1.9306,0.4252,39.2800,76,97,296994
1.9257,0.3959,39.4400,76,97,296998
1.9697,0.4057,39.3200,76,97,297001
1.9355,0.3959,39.3200,76,97,297005
1.9550,0.4057,39.1200,76,97,297009
1.9208,0.3910,39.2500,76,97,297012
1.8964,0.3959,39.3200,76,97,297015
1.9013,0.4008,39.2800,76,97,297019
1.8622,0.3861,39.3200,76,97,297022
1.8719,0.4008,39.1200,76,97,297025
1.8328,0.3861,39.2500,76,97,297029
1.8133,0.3959,39.2800,76,97,297032
1.8182,0.4008,39.2500,76,97,297035
1.7937,0.3959,39.4100,76,97,297038
1.8622,0.4106,39.0600,76,97,297042
1.7742,0.3959,39.2800,76,97,297046
1.7840,0.3959,39.3200,76,97,297049
1.7742,0.3959,39.1200,76,97,297053
1.7693,0.3959,39.3200,76,97,297056
1.8231,0.4154,39.0300,76,97,297059
1.7937,0.3959,39.2500,76,97,297063
1.7791,0.3910,39.2500,76,97,297066
1.7791,0.3959,39.3200,76,97,297069
1.7791,0.3910,39.2800,76,97,297073
1.8231,0.4106,39.1200,76,97,297076
1.7937,0.4106,39.2500,76,97,297079
1.8035,0.4008,39.1900,76,97,297083
1.7986,0.3959,39.4400,76,97,297086
1.7937,0.3910,39.3200,76,97,297090
1.8231,0.4057,39.1600,76,97,297093
1.8084,0.4008,39.2800,76,97,297097
1.8475,0.4008,39.1600,76,97,297100
1.8280,0.3959,39.3200,76,97,297103
1.8426,0.4008,39.3200,76,97,297107
1.8768,0.3861,39.2500,76,97,297110
1.9110,0.3959,39.2800,76,97,297113
2.0381,0.3959,39.1600,76,97,297117
2.1750,0.4203,39.2800,76,97,297120
2.4194,0.3910,39.3200,76,97,297123
2.7615,0.4008,39.2500,76,97,297126
3.0890,0.3910,39.2800,76,97,297131
3.4653,0.4057,39.0900,76,97,297134
3.6657,0.3959,39.2200,76,97,297137
3.6950,0.3959,39.2800,76,97,297141
3.5973,0.4008,39.2500,76,97,297144
3.2698,0.3959,39.3800,76,97,297147
2.8739,0.4106,39.0600,76,97,297151
2.3069,0.3959,39.2500,76,97,297154
1.8377,0.4057,39.3200,76,97,297157
1.4858,0.3861,39.2800,76,97,297161
1.2463,0.3959,39.2800,76,97,297164
1.1486,0.4154,39.0600,76,97,297167
1.0557,0.4008,39.2500,76,97,297170
1.0606,0.3910,39.2500,76,97,297175
1.1241,0.3959,39.3200,76,97,297178
1.1877,0.3959,39.5100,76,97,297181
1.3245,0.4106,39.1900,76,97,297185
1.3636,0.3959,39.2800,76,97,297188
1.4418,0.4301,39.1900,76,97,297191
1.4907,0.3959,39.4100,76,97,297195
1.5298,0.3910,39.2800,76,97,297198
1.5934,0.4057,39.1200,76,97,297201
1.5934,0.3959,39.2800,76,97,297205
1.6276,0.4057,39.1200,76,97,297208
1.6129,0.3910,39.2500,76,97,297211
1.6325,0.3959,39.2800,76,97,297214
1.6569,0.4008,39.2800,76,97,297219
1.6569,0.3959,39.3200,76,97,297222
1.6960,0.4008,39.1200,76,97,297225
1.6862,0.3861,39.2800,76,97,297229
1.6960,0.3959,39.2500,76,97,297232
1.7155,0.3959,39.2500,76,97,297235
1.7107,0.3959,39.3500,76,97,297239
1.7937,0.4154,39.0600,76,97,297242
1.7253,0.4008,39.2800,76,97,297245
1.7351,0.3910,39.3200,76,97,297249
1.7498,0.4008,39.2800,76,97,297252
1.7449,0.3959,39.3200,76,97,297255
1.7986,0.4106,39.0300,76,97,297259
1.7693,0.4106,39.2200,76,97,297263
1.7644,0.3910,39.3500,76,97,297266
1.7644,0.3959,39.2800,76,97,297269
1.7693,0.3861,39.3500,76,97,297273
1.8182,0.4057,39.0900,76,97,297276
1.7937,0.3959,39.2500,76,97,297279
1.7986,0.3959,39.2200,76,97,297283
1.8035,0.3959,39.3200,76,97,297286
1.7986,0.3959,39.3800,76,97,297289
1.8524,0.3959,39.1900,76,97,297293
1.8133,0.3959,39.5100,76,97,297296
1.8426,0.4106,39.1600,76,97,297299
1.8231,0.3959,39.3500,76,97,297304
1.8280,0.3959,39.3500,76,97,297307
1.8426,0.3959,39.4800,76,97,297310
1.8475,0.3910,39.2800,76,97,297313
1.8768,0.3959,39.1600,76,97,297317
1.8573,0.3959,39.3200,76,97,297320
1.8671,0.3959,39.4100,76,97,297323
1.9013,0.4008,39.2200,76,97,297327
1.8768,0.3959,39.3500,76,97,297330
1.9159,0.4057,39.0600,76,97,297333
1.9062,0.4008,39.0600,76,97,297337
1.8964,0.3959,39.3500,76,97,297340
1.9110,0.4008,39.2500,76,97,297344
1.9062,0.3959,39.3200,76,97,297348
1.9648,0.4106,39.0600,76,97,297351
1.9355,0.4008,39.2800,76,97,297354
1.9355,0.3959,39.2800,76,97,297357
1.9501,0.3959,39.2800,76,97,297361
1.9501,0.3959,39.4100,76,97,297364
2.0430,0.4203,39.0900,76,97,297367
1.9746,0.4008,39.3200,76,97,297371
1.9746,0.4203,39.2500,76,97,297374
1.9795,0.3959,39.2800,76,97,297377
1.9990,0.3959,39.2800,76,97,297382
2.0186,0.3959,39.3200,76,97,297385
2.0479,0.4057,39.1900,76,97,297390
2.0283,0.3959,39.3200,76,97,297393
2.0528,0.4008,39.1600,76,97,297396
2.0235,0.3910,39.2200,76,97,297400
2.0186,0.3959,39.2800,76,97,297403
2.0283,0.4008,39.2200,76,97,297406
2.0039,0.3959,39.3800,76,97,297409
2.0235,0.4008,39.0900,76,97,297413
1.9746,0.3959,39.2200,76,97,297416
1.9404,0.3959,39.3200,76,97,297419
1.9257,0.3959,39.2800,76,97,297423
1.8817,0.3959,39.2800,76,97,297426
1.9355,0.4057,39.0900,76,97,297430
1.8182,0.3959,39.0600,76,97,297434
1.7889,0.3812,39.2800,76,97,297437
1.7595,0.4008,39.3200,76,97,297440
1.7155,0.3959,39.3200,76,97,297444
1.7400,0.4154,39.0900,76,97,297447
1.6764,0.4057,39.2500,76,97,297450
1.6373,0.3910,39.2500,76,97,297453
1.6227,0.3959,39.3200,76,97,297457
1.6080,0.3959,39.2800,76,97,297460
1.6373,0.4057,39.1600,76,97,297463
1.6031,0.3959,39.3200,76,97,297467
1.6129,0.3959,39.1600,76,97,297470
1.5934,0.3959,39.2800,76,97,297474
1.5934,0.3910,39.2800,76,97,297478
1.6178,0.4057,39.2200,76,97,297481
1.6031,0.3959,39.3500,76,97,297484
1.6325,0.4008,39.1900,76,97,297488
1.5982,0.3959,39.2800,76,97,297491
1.6471,0.4008,39.3200,76,97,297494
1.6373,0.3959,39.2500,76,97,297497
1.6373,0.4008,39.2800,76,97,297501
1.6667,0.3959,39.1200,76,97,297504
1.6764,0.4008,39.3200,76,97,297507
1.6667,0.3959,39.2800,76,97,297511
1.6911,0.4057,39.2800,76,97,297515
1.6764,0.3959,39.2800,76,97,297518
1.7253,0.4301,39.0600,76,97,297522
1.7449,0.4008,39.2200,76,97,297525
1.7009,0.3959,39.3500,76,97,297528
1.7253,0.3959,39.3200,76,97,297532
1.7107,0.3959,39.3200,76,97,297535
1.7595,0.4154,39.0900,76,97,297538
1.7253,0.4008,39.2200,76,97,297541
1.7204,0.3910,39.2500,76,97,297545
1.7302,0.3959,39.2800,76,97,297548
1.7253,0.3959,39.4400,76,97,297551
1.7742,0.4106,39.1600,76,97,297555
1.7351,0.3959,39.2800,76,97,297559
1.7595,0.3959,39.1900,76,97,297562
1.7400,0.3959,39.4100,76,97,297566
1.7449,0.3910,39.3200,76,97,297569
1.7693,0.4008,39.2200,76,97,297572
1.7595,0.3959,39.2800,76,97,297576
1.7840,0.3861,39.1600,76,97,297579
1.7693,0.3910,39.2800,76,97,297582
1.7644,0.3959,39.3200,76,97,297586
1.7889,0.4106,39.1600,76,97,297589
1.7595,0.3959,39.3500,76,97,297592
1.7791,0.4008,39.1600,76,97,297595
1.7546,0.3959,39.2200,76,97,297600
1.7546,0.4008,39.2800,76,97,297603
1.7791,0.4008,39.2200,76,97,297606
1.7644,0.3959,39.4800,76,97,297610
1.8182,0.4008,39.0600,76,97,297613
1.7693,0.4057,39.2500,76,97,297616
1.7595,0.3959,39.3500,76,97,297620
1.7644,0.4008,39.2800,76,97,297623
1.7498,0.3959,39.3200,76,97,297626
1.7889,0.4106,39.0300,76,97,297629
1.7400,0.3959,39.1600,76,97,297633
1.7351,0.3910,39.3200,76,97,297636
1.7400,0.3959,39.2800,76,97,297639
1.7351,0.4008,39.2800,76,97,297644
1.7889,0.4154,39.1200,76,97,297647
1.7546,0.3959,39.2500,76,97,297650
1.7498,0.3861,39.1900,76,97,297654
1.7449,0.4008,39.2800,76,97,297657
1.7449,0.3861,39.3200,76,97,297660
1.7791,0.4106,39.0900,76,97,297664
1.7595,0.3959,39.2800,76,97,297667
1.7791,0.4008,39.1600,76,97,297670
1.7742,0.4008,39.3200,76,97,297674
1.7498,0.3861,39.3200,76,97,297677
1.7693,0.4106,39.1600,76,97,297680
1.7351,0.3959,39.3500,76,97,297683
1.7693,0.3959,39.1900,76,97,297688
1.7449,0.3910,39.3500,76,97,297691
1.7498,0.3861,39.3200,76,97,297694
1.7644,0.3959,39.2500,76,97,297698
1.7644,0.3959,39.3200,76,97,297701
1.7986,0.4008,39.0900,76,97,297704
1.7693,0.3959,39.2800,76,97,297708
1.8035,0.3959,39.2800,76,97,297711
1.7986,0.4008,39.2200,76,97,297714
1.7791,0.3910,39.3200,76,97,297718
1.8231,0.4057,39.1200,76,97,297721
1.7937,0.4057,39.1900,76,97,297724
1.7889,0.3959,39.3200,76,97,297728
1.8133,0.4008,39.2800,76,97,297732
1.7889,0.3959,39.3500,76,97,297735
1.8377,0.4497,39.0600,76,97,297738
1.7986,0.4008,39.2500,76,97,297742
1.7937,0.3910,39.1900,76,97,297745
1.7889,0.4008,39.2800,76,97,297748
1.7937,0.3959,39.3200,76,97,297752
1.8328,0.4106,39.1200,76,97,297755
1.7986,0.3959,39.2500,76,97,297758
1.8084,0.4008,39.1900,76,97,297762
1.7986,0.3959,39.2800,76,97,297765
1.8035,0.3959,39.3200,76,97,297768
1.8231,0.4057,39.2200,76,97,297772
1.8035,0.3959,39.2200,76,97,297776
1.8133,0.4106,39.1600,76,97,297779
1.7889,0.3959,39.2800,76,97,297782
1.7889,0.3959,39.2800,76,97,297786
1.8231,0.4057,39.1900,76,97,297789
1.8035,0.3959,39.2800,76,97,297792
1.8133,0.3959,39.1600,76,97,297796
1.8035,0.3910,39.2200,76,97,297799
1.8035,0.3861,39.3200,76,97,297802
1.8231,0.4008,39.2200,76,97,297806
1.8182,0.3959,39.3200,76,97,297809
1.8573,0.4057,39.0900,76,97,297812
1.8280,0.4008,39.2500,76,97,297817
1.8133,0.3910,39.4800,76,97,297820
1.8377,0.3910,39.1900,76,97,297823
1.8035,0.3959,39.2800,76,97,297826
1.8475,0.4008,39.0300,76,97,297830
1.7986,0.3959,39.2500,76,97,297833
1.7937,0.4154,39.3200,76,97,297836
1.7986,0.3861,39.2800,76,97,297840
1.8035,0.3959,39.3500,76,97,297843
1.8524,0.4154,39.1200,76,97,297846
1.8231,0.4301,39.2200,76,97,297850
1.8280,0.3959,39.2200,76,97,297853
1.8231,0.4008,39.3200,76,97,297857
1.8377,0.3910,39.2800,76,97,297861
1.8719,0.4154,39.1900,76,97,297864
1.8524,0.3959,39.2800,76,97,297867
1.8866,0.4106,39.1600,76,97,297870
1.8524,0.3959,39.3800,76,97,297874
1.8671,0.3959,39.3200,76,97,297877
1.9110,0.4008,39.1900,76,97,297880
1.8964,0.3910,39.2800,76,97,297884
1.9355,0.4008,39.1600,76,97,297887
1.9159,0.3959,39.2200,76,97,297890
1.9550,0.3959,39.2800,76,97,297894
1.9306,0.4008,39.1600,76,97,297897
1.9159,0.3959,39.3200,76,97,297901
1.9404,0.4008,39.1600,76,97,297905
1.8915,0.4008,39.2800,76,97,297908
1.8817,0.3959,39.3800,76,97,297911
1.8768,0.4008,39.2500,76,97,297915
1.8475,0.3959,39.2800,76,97,297918
1.8671,0.4057,39.1600,76,97,297921
1.8182,0.4008,39.2200,76,97,297924
1.7889,0.3959,39.2800,76,97,297928
1.7791,0.3910,39.2500,76,97,297931
1.7595,0.3959,39.2800,76,97,297934
1.7986,0.4252,39.1200,76,97,297938
1.7546,0.4008,39.3500,76,97,297942
1.7449,0.3959,39.3200,76,97,297945
1.7400,0.3959,39.3200,76,97,297949
1.7400,0.3959,39.2200,76,97,297952
1.7840,0.4106,39.1600,76,97,297955
1.7400,0.3959,38.7100,76,97,297959
1.7546,0.4008,39.3500,76,97,297962
1.7351,0.3910,39.3200,76,97,297965
1.7400,0.3959,39.2800,76,97,297968
1.7546,0.4008,39.2500,76,97,297972
1.7693,0.3861,39.2800,76,97,297975
1.7644,0.4057,39.1600,76,97,297978
1.7449,0.3959,39.3200,76,97,297982
1.7546,0.4008,39.2500,76,97,297986
1.7791,0.4008,39.1900,76,97,297989
1.8524,0.4008,39.3200,76,97,297994
1.9208,0.4203,39.2800,76,97,297997
2.1114,0.4057,39.0300,76,97,298001
2.2825,0.4106,39.2200,76,97,298004
2.5513,0.3910,39.3200,76,97,298007
2.9032,0.3959,39.3500,76,97,298011
3.2356,0.4008,39.3200,76,97,298014
3.5924,0.4154,39.0900,76,97,298017
3.6217,0.4057,39.2500,76,97,298020
3.5630,0.3959,39.2200,76,97,298024
3.3236,0.3959,38.6500,76,97,298028
2.9179,0.3959,39.2800,76,97,298031
2.4731,0.4057,39.2500,76,97,298035
1.9648,0.4008,39.2500,76,97,298038
1.5885,0.4008,39.1900,76,97,298041
1.2952,0.3959,39.2800,76,97,298045
1.1241,0.3959,39.2800,76,97,298048
1.0606,0.4057,39.0600,76,97,298051
1.0166,0.3910,39.3500,76,97,298054
1.0459,0.3861,39.1900,76,97,298058
1.0948,0.3910,39.2800,76,97,298061
1.1681,0.4008,39.2800,76,97,298064
1.2708,0.4008,39.1200,76,97,298068
1.3392,0.3861,39.3200,76,97,298072
1.4321,0.3861,39.2500,76,97,298075
1.4809,0.3959,39.3200,76,97,298079
1.5347,0.3861,39.3200,76,97,298082
1.5787,0.4154,39.2200,76,97,298085
1.6031,0.3861,39.3500,76,97,298089
1.6520,0.4057,39.0900,76,97,298092
1.6373,0.3861,39.3500,76,97,298095
1.6520,0.3959,39.3200,76,97,298098
1.7009,0.3959,39.2500,76,97,298102
1.6716,0.3959,39.2800,76,97,298105
1.7449,0.4057,39.0000,76,97,298108
1.7058,0.4008,39.2200,76,97,298113
1.7058,0.3910,39.2800,76,97,298116
1.7155,0.3959,39.2800,76,97,298119
1.7204,0.3959,39.2200,76,97,298123
1.7742,0.4106,39.0900,76,97,298126
1.7400,0.4008,39.4400,76,97,298129
1.7449,0.3959,39.2200,76,97,298133
1.7449,0.3959,39.2800,76,97,298136
1.7498,0.3959,39.2800,76,97,298139
1.7986,0.4057,39.1600,76,97,298142
1.7693,0.3959,39.2800,76,97,298146
1.7889,0.4106,39.1600,76,97,298149
1.7742,0.3959,39.2800,76,97,298152
1.7791,0.3910,39.3200,76,97,298157
1.7986,0.3959,39.3200,76,97,298160
1.7889,0.4008,39.3200,76,97,298163
1.8231,0.4106,39.1900,76,97,298167
1.7986,0.3959,39.3500,76,97,298170
1.8182,0.3959,39.2800,76,97,298173
1.8328,0.4008,39.2500,76,97,298177
1.8084,0.3959,39.3200,76,97,298180
1.8475,0.4008,39.0900,76,97,298183
1.8328,0.4106,39.1900,76,97,298186
1.8328,0.3959,39.2800,76,97,298190
1.8524,0.4057,39.2200,76,97,298193
1.8426,0.3861,39.2800,76,97,298196
1.8964,0.4057,39.0000,76,97,298201
1.8768,0.3959,39.2500,76,97,298204
1.8671,0.3959,39.3800,76,97,298207
1.8719,0.3910,39.2800,76,97,298211
1.8768,0.3959,39.2800,76,97,298214
1.9404,0.4203,39.1200,76,97,298217
1.9013,0.3959,39.2200,76,97,298221
1.9062,0.3910,39.2200,76,97,298224
1.9110,0.4008,39.3200,76,97,298227
1.9159,0.3959,39.3800,76,97,298230
1.9795,0.4057,39.1600,76,97,298234
1.9453,0.4008,39.1200,76,97,298237
1.9550,0.3910,39.1900,76,97,298241
1.9501,0.3959,39.3500,76,97,298245
1.9550,0.3959,39.3200,76,97,298248
1.9990,0.4057,39.1900,76,97,298251
1.9648,0.3910,39.3500,76,97,298255
1.9941,0.4008,39.1600,76,97,298258
1.9697,0.3959,39.2800,76,97,298261
1.9697,0.3959,39.3500,76,97,298265
2.0039,0.4008,39.2200,76,97,298268
1.9795,0.3959,39.4100,76,97,298271
2.0137,0.3959,39.2200,76,97,298274
1.9795,0.3910,39.3500,76,97,298278
1.9795,0.3959,39.3200,76,97,298281
1.9990,0.4008,39.2800,76,97,298285
1.9892,0.4008,39.2800,76,97,298289
2.0577,0.4008,39.1200,76,97,298292
1.9892,0.3959,39.2800,76,97,298295
1.9892,0.3910,39.3500,76,97,298299
2.0088,0.4008,39.3200,76,97,298302
1.9795,0.4008,39.2800,76,97,298305
2.0137,0.4106,39.0300,76,97,298308
1.9599,0.4008,39.1900,76,97,298312
1.9306,0.3959,39.3200,76,97,298315
1.9159,0.4008,39.3200,76,97,298318
1.8915,0.3959,39.3200,76,97,298322
1.9208,0.4154,39.0600,76,97,298326
1.8524,0.4008,39.2500,76,97,298329
1.8133,0.3910,39.2500,76,97,298333
1.7840,0.3861,39.2800,76,97,298336
1.7595,0.3959,39.3500,76,97,298339
1.8035,0.4057,39.1600,76,97,298342
1.7155,0.3959,39.2800,76,97,298346
1.7155,0.4497,39.1900,76,97,298349
1.6813,0.3959,39.4100,76,97,298352
1.6618,0.3959,39.3200,76,97,298356
1.6764,0.4008,39.2200,76,97,298359
1.6862,0.3959,39.2800,76,97,298362
1.6667,0.4057,39.1900,76,97,298366
1.6325,0.3959,39.3200,76,97,298370
1.6422,0.3959,39.4100,76,97,298373
1.6618,0.4057,39.1900,76,97,298377
1.6422,0.3959,39.3200,76,97,298380
1.6618,0.4008,39.1600,76,97,298383
1.6471,0.3959,39.2200,76,97,298387
1.6569,0.3959,39.3200,76,97,298390
1.6667,0.4008,39.2500,76,97,298393
1.6618,0.3959,39.3200,76,97,298397
1.7155,0.4057,39.0300,76,97,298400
1.7009,0.4008,39.2500,76,97,298403
1.6960,0.3861,39.3200,76,97,298406
1.7058,0.4008,39.2500,76,97,298411
1.7155,0.3910,39.2800,76,97,298414
1.7644,0.4106,39.0300,76,97,298417
1.7644,0.3910,39.2500,76,97,298421
1.7351,0.3910,39.3200,76,97,298424
1.7400,0.3959,39.2500,76,97,298427
1.7351,0.3959,39.3200,76,97,298431
1.7889,0.4106,39.1200,76,97,298434
1.7693,0.4008,39.2500,76,97,298437
1.7595,0.3959,39.3500,76,97,298440
1.7595,0.3959,39.2800,76,97,298444
1.7644,0.3959,38.7700,76,97,298447
1.7986,0.4008,39.1200,76,97,298450
1.7791,0.3959,39.2800,76,97,298455
1.7937,0.3959,39.1900,76,97,298458
1.7742,0.3959,39.3500,76,97,298461
1.7742,0.4008,39.3800,76,97,298465
1.7986,0.4008,39.1900,76,97,298468
1.7693,0.3959,39.2500,76,97,298471
1.7986,0.4008,39.1900,76,97,298475
1.7644,0.3910,39.2800,76,97,298478
1.7693,0.4008,39.3200,76,97,298481
1.7889,0.3861,39.2200,76,97,298484
1.7791,0.3959,39.3500,76,97,298488
1.8035,0.4057,39.0900,76,97,298491
1.7742,0.3959,39.3200,76,97,298494
1.7791,0.3959,39.3500,76,97,298499
1.7986,0.4008,39.1600,76,97,298502
1.7791,0.3861,39.2800,76,97,298505
1.8133,0.4057,39.0300,76,97,298509
1.7791,0.3959,39.2200,76,97,298512
1.7546,0.3959,39.2800,76,97,298515
1.7986,0.3959,39.2500,76,97,298519
1.7693,0.4008,39.3200,76,97,298522
1.8231,0.4350,39.0600,76,97,298525
1.7840,0.4008,39.2200,76,97,298529
1.7693,0.3959,39.2200,76,97,298532
1.7693,0.3959,39.2800,76,97,298535
1.7595,0.3959,39.3200,76,97,298539
1.8231,0.4106,39.1600,76,97,298543
1.7693,0.3910,39.3200,76,97,298546
1.7840,0.4008,39.1900,76,97,298549
1.7693,0.3959,39.2800,76,97,298553
1.7742,0.4203,39.2800,76,97,298556
1.7986,0.3861,39.2500,76,97,298559
1.7791,0.4008,39.1900,76,97,298563
1.8035,0.4008,39.1900,76,97,298566
1.7840,0.3959,39.3200,76,97,298569
1.7937,0.4008,39.3200,76,97,298572
1.8133,0.4057,39.1900,76,97,298576
1.8280,0.3910,39.2800,76,97,298579
1.8133,0.3861,39.1200,76,97,298583
1.7937,0.4008,39.2500,76,97,298587
1.7937,0.3959,39.3200,76,97,298590
1.8133,0.3959,39.2500,76,97,298593
1.8133,0.3959,39.3200,76,97,298597
1.8573,0.4106,39.0600,76,97,298600
1.9062,0.4057,39.0900,76,97,298605
1.8622,0.3959,39.3200,76,97,298608
1.8719,0.3959,39.3200,76,97,298611
1.8719,0.3959,39.3800,76,97,298615
1.8719,0.3959,39.3800,76,97,298618
1.9062,0.4057,39.1600,76,97,298621
1.8964,0.3959,39.2500,76,97,298626
1.9257,0.4008,39.1600,76,97,298629
1.9110,0.3959,39.2800,76,97,298632
1.9257,0.3959,39.2800,76,97,298636
1.9648,0.4106,39.1600,76,97,298639
1.9404,0.3959,39.3800,76,97,298642
2.0039,0.4008,39.1600,76,97,298645
1.9648,0.3910,39.2500,76,97,298649
1.9257,0.3959,39.3800,76,97,298652
1.9306,0.4106,39.2200,76,97,298655
1.9013,0.3959,39.3500,76,97,298659
1.9159,0.4203,39.1200,76,97,298662
1.8768,0.3959,39.2200,76,97,298665
1.8524,0.4008,39.3200,76,97,298670
1.8475,0.4008,39.2500,76,97,298673
1.8084,0.3959,39.3800,76,97,298676
1.8328,0.4057,39.0300,76,97,298679
1.7742,0.3910,39.2800,76,97,298683
1.7693,0.3959,39.2800,76,97,298686
1.7644,0.3861,39.2800,76,97,298689
1.7498,0.4154,39.2800,76,97,298693
1.7986,0.4154,39.0300,76,97,298696
1.7693,0.4008,39.2200,76,97,298699
1.7595,0.3910,39.2200,76,97,298703
1.7644,0.3959,39.3500,76,97,298706
1.7644,0.4057,39.3200,76,97,298710
1.8133,0.4057,39.1600,76,97,298714
1.8035,0.3959,39.2500,76,97,298717
1.7742,0.3861,39.1900,76,97,298720
1.7644,0.4301,39.2800,76,97,298724
1.7742,0.3959,39.3200,76,97,298727
1.7986,0.4301,39.1900,76,97,298730
1.7791,0.3959,39.2800,76,97,298733
1.7937,0.4008,39.2200,76,97,298737
1.7889,0.3959,39.2800,76,97,298740
1.7889,0.3959,39.3500,76,97,298743
1.8182,0.3959,39.2500,76,97,298747
1.8182,0.3959,39.4400,76,97,298750
1.8622,0.3910,39.1600,76,97,298754
1.8671,0.3861,39.2800,76,97,298758
1.9355,0.3959,39.3200,76,97,298761
2.0821,0.4008,39.1900,76,97,298764
2.2483,0.3959,39.3200,76,97,298768
2.5660,0.4057,39.0600,76,97,298771
2.8641,0.4106,39.2200,76,97,298774
3.1867,0.3861,39.3200,76,97,298777
3.5288,0.4008,39.2500,76,97,298781
3.6559,0.3861,39.3200,76,97,298784
3.7488,0.4399,39.0300,76,97,298787
3.5044,0.4008,39.2500,76,97,298791
