ecg,gsr,temp,hr,spo2,timest
1.8377,0.2297,38.3000,80,96,143606
1.8280,0.2248,38.5200,80,96,143610
1.8280,0.2199,38.4000,80,96,143613
1.8719,0.2297,38.3300,80,96,143617
1.8524,0.2248,38.4300,80,96,143621
1.8768,0.2297,38.3000,80,96,143624
1.8524,0.2248,38.4000,80,96,143627
1.8426,0.2248,38.5800,80,96,143630
1.8671,0.2346,38.3000,80,96,143634
1.8377,0.2248,38.4300,80,96,143637
1.8622,0.2199,38.3000,80,96,143640
1.8280,0.2199,38.3600,80,96,143644
1.8182,0.2199,38.4600,80,96,143647
1.8328,0.2297,38.2700,80,96,143650
1.8133,0.2248,38.4000,80,96,143654
1.8426,0.2199,38.2400,80,96,143657
1.8182,0.2248,38.4000,80,96,143661
1.8133,0.2248,38.4300,80,96,143665
1.8328,0.2297,38.3600,80,96,143668
1.8035,0.2248,38.4000,80,96,143671
1.8768,0.2346,38.1500,80,96,143674
1.8084,0.2248,38.3600,80,96,143678
1.8524,0.2248,38.4300,80,96,143681
1.8280,0.2297,38.3300,80,96,143684
1.8182,0.2248,38.4300,80,96,143688
1.8622,0.2395,38.1100,80,96,143691
1.8231,0.2248,38.3300,80,96,143694
1.8133,0.2199,38.3600,80,96,143698
1.8182,0.2297,38.4000,80,96,143702
1.8133,0.2248,38.4600,80,96,143705
1.8524,0.2444,38.2100,80,96,143709
1.8328,0.2297,38.4000,80,96,143712
1.8377,0.2297,38.3000,80,96,143715
1.8280,0.2248,38.4300,80,96,143718
1.8280,0.2248,38.4900,80,96,143722
1.8622,0.2346,38.2400,80,96,143725
1.8426,0.2248,38.4900,80,96,143728
1.8622,0.2346,38.2700,80,96,143732
1.8377,0.2248,38.4300,80,96,143735
1.8426,0.2248,38.4600,80,96,143738
1.8524,0.2248,38.3300,80,96,143742
1.8524,0.2248,38.4000,80,96,143746
1.8817,0.2199,38.2700,80,96,143749
1.8573,0.2248,38.4600,80,96,143753
1.8622,0.2248,38.4300,80,96,143756
1.8817,0.2297,38.3600,80,96,143759
1.8622,0.2199,38.4300,80,96,143762
1.8964,0.2297,38.1800,80,96,143766
1.8719,0.2297,38.3300,80,96,143769
1.8573,0.2199,38.4300,80,96,143772
1.8817,0.2297,38.3600,80,96,143776
1.8768,0.2199,38.4300,80,96,143779
1.9110,0.2297,37.4000,80,96,143782
1.9062,0.2199,38.3000,80,96,143787
1.8622,0.2199,38.4300,80,96,143790
1.8573,0.2297,38.3000,80,96,143793
1.8426,0.2248,38.4000,80,96,143797
1.8964,0.2395,38.2100,80,96,143800
1.8524,0.2199,38.3300,80,96,143803
1.8377,0.2199,38.3600,80,96,143806
1.8231,0.2297,38.4000,80,96,143810
1.8182,0.2199,38.4300,80,96,143813
1.8231,0.2248,38.4300,80,96,143817
1.8524,0.2737,38.2700,80,96,143820
1.8280,0.2248,38.4300,80,96,143823
1.8475,0.2248,38.3000,80,96,143827
1.8377,0.2248,38.3300,80,96,143831
1.8280,0.2248,38.4000,80,96,143834
1.8573,0.2297,38.2700,80,96,143838
1.8280,0.2248,38.4600,80,96,143841
1.8622,0.2248,38.1500,80,96,143844
1.8426,0.2297,38.3600,80,96,143848
1.8377,0.2199,38.4900,80,96,143851
1.8573,0.2297,38.3600,80,96,143854
1.8377,0.2248,38.4000,80,96,143857
1.8915,0.2346,38.1800,80,96,143861
1.8573,0.2248,38.3000,80,96,143864
1.8524,0.2151,38.4300,80,96,143867
1.8573,0.2248,38.4900,80,96,143872
1.8475,0.2102,38.4300,80,96,143875
1.9110,0.2395,38.2100,80,96,143878
1.8622,0.2346,38.4300,80,96,143882
1.8671,0.2248,38.3300,80,96,143885
1.8671,0.2248,38.4300,80,96,143888
1.8573,0.2248,38.4300,80,96,143892
1.8866,0.2346,38.2700,80,96,143895
1.8573,0.2297,38.4000,80,96,143898
1.8719,0.2248,38.2700,80,96,143902
1.8524,0.2248,38.4000,80,96,143905
1.8524,0.2248,38.5200,80,96,143908
1.8817,0.2297,38.3300,80,96,143911
1.8475,0.2248,38.5500,80,96,143916
1.8719,0.2248,38.3000,80,96,143919
1.8426,0.2199,38.4000,80,96,143922
1.8426,0.2248,38.4300,80,96,143926
1.8573,0.2102,38.2700,80,96,143929
1.8475,0.2248,38.4300,80,96,143932
1.8768,0.2346,38.2400,80,96,143936
1.8524,0.2248,38.6500,80,96,143939
1.8573,0.2297,38.4300,80,96,143942
1.8768,0.2297,38.5800,80,96,143945
1.8573,0.2199,38.4300,80,96,143949
1.9013,0.2297,38.2100,80,96,143952
1.8671,0.2151,38.3600,80,96,143955
1.8475,0.2248,38.5200,80,96,143960
1.8573,0.2102,38.4000,80,96,143963
1.8328,0.2248,38.4600,80,96,143966
1.8866,0.2444,38.1500,80,96,143970
1.8524,0.2297,38.4000,80,96,143973
1.8328,0.2199,38.3600,80,96,143976
1.8328,0.2248,38.4000,80,96,143980
1.8280,0.2248,38.4600,80,96,143983
1.9110,0.2346,38.2400,80,96,143986
1.8524,0.2297,38.4000,80,96,143990
1.8622,0.2444,38.3300,80,96,143993
1.8426,0.2248,38.4900,80,96,143996
1.8426,0.2248,38.4300,80,96,144000
1.8573,0.2297,38.1100,80,96,144004
1.8377,0.2248,38.4300,80,96,144007
1.8719,0.2346,38.3300,80,96,144010
1.8426,0.2248,38.4300,80,96,144014
1.8377,0.2248,38.4300,80,96,144017
1.8573,0.2297,38.3300,80,96,144020
1.8328,0.2248,37.8300,80,96,144024
1.8622,0.2444,38.3000,80,96,144027
1.8524,0.2248,38.3300,80,96,144030
1.8524,0.2248,38.2400,80,96,144034
1.8768,0.2346,38.3000,80,96,144037
1.8475,0.2248,38.4300,80,96,144040
1.8817,0.2297,38.1500,80,96,144044
1.8573,0.2248,38.3300,80,96,144048
1.8475,0.2248,38.4900,80,96,144051
1.8622,0.2346,38.4000,80,96,144054
1.8475,0.2248,38.4300,80,96,144058
1.8964,0.2346,38.1100,80,96,144061
1.8573,0.2248,38.3000,80,96,144064
1.8524,0.2199,38.3600,80,96,144068
1.8573,0.2248,38.4000,80,96,144071
1.8524,0.2248,38.3000,80,96,144074
1.9013,0.2493,38.2400,80,96,144078
1.8573,0.2297,38.4000,80,96,144081
1.8573,0.2199,38.2700,80,96,144084
1.8475,0.2248,38.4300,80,96,144088
1.8426,0.2248,38.4000,80,96,144092
1.8817,0.2346,38.2400,80,96,144095
1.8524,0.2297,38.4000,80,96,144098
1.8671,0.2248,38.2700,80,96,144102
1.8426,0.2248,38.4300,80,96,144105
1.8328,0.2248,38.4300,80,96,144108
1.8475,0.2297,38.3300,80,96,144112
1.8133,0.2248,38.4000,80,96,144115
1.8426,0.2248,38.3000,80,96,144118
1.8426,0.2199,38.4000,80,96,144121
1.9062,0.2248,38.3300,80,96,144125
2.0479,0.2297,38.3300,80,96,144129
2.1212,0.2248,38.4000,80,96,144132
2.2630,0.2248,38.2700,80,96,144136
2.3265,0.2102,38.4000,80,96,144139
2.4047,0.2248,38.4300,80,96,144142
2.4829,0.2297,38.4900,80,96,144146
2.5318,0.2248,38.4300,80,96,144149
2.6833,0.2297,38.1800,80,96,144152
2.8104,0.2297,38.4300,80,96,144156
2.8641,0.2248,38.4300,80,96,144159
2.8935,0.2346,38.3300,80,96,144162
2.6540,0.2248,38.4300,80,96,144165
2.4145,0.2346,38.3000,80,96,144169
2.0283,0.2297,38.3000,80,96,144173
1.7302,0.2199,38.4000,80,96,144176
1.5445,0.2297,38.4300,80,96,144180
1.4370,0.2248,38.4300,80,96,144183
1.4467,0.2395,38.2100,80,96,144186
1.4223,0.2297,38.4000,80,96,144190
1.4370,0.2248,38.3300,80,96,144193
1.4956,0.2248,38.2700,80,96,144196
1.5787,0.2248,38.4300,80,96,144199
1.6667,0.2297,37.8300,80,96,144203
1.6862,0.2151,38.4300,80,96,144206
1.7155,0.2248,38.3000,80,96,144209
1.6911,0.2297,38.4600,80,96,144214
1.6569,0.2248,38.4300,80,96,144217
1.6764,0.2590,38.3600,80,96,144220
1.6373,0.2248,38.4000,80,96,144224
1.6373,0.2297,38.2700,80,96,144227
1.6129,0.2199,38.3600,80,96,144230
1.6129,0.2199,38.4000,80,96,144234
1.6618,0.2199,38.3000,80,96,144237
1.6178,0.2248,38.4300,80,96,144240
1.6471,0.2688,38.2400,80,96,144243
1.6422,0.2248,38.3300,80,96,144247
1.6471,0.2248,38.3600,80,96,144250
1.6716,0.2346,38.3300,80,96,144253
1.6569,0.2248,38.4000,80,96,144258
1.7009,0.2346,38.3000,80,96,144261
1.6716,0.2199,38.3600,80,96,144264
1.6813,0.2248,38.4000,80,96,144268
1.6911,0.2297,38.4300,80,96,144271
1.6911,0.2248,38.5500,80,96,144274
1.7449,0.2346,38.1800,80,96,144278
1.7155,0.2297,38.3600,80,96,144281
1.7107,0.2248,38.3300,80,96,144284
1.7155,0.2493,38.4300,80,96,144287
1.7058,0.2248,38.4600,80,96,144291
1.7546,0.2297,38.1800,80,96,144294
1.7302,0.2297,38.3600,80,96,144297
1.7351,0.2248,38.3600,80,96,144302
1.7302,0.2248,38.4300,80,96,144305
1.7400,0.2248,38.4300,80,96,144308
1.7742,0.2297,38.3000,80,96,144312
1.7595,0.2248,38.4300,80,96,144315
1.7742,0.2248,38.2700,80,96,144318
1.7742,0.2199,38.4000,80,96,144322
1.7546,0.2248,38.4000,80,96,144325
1.7595,0.2248,38.3300,80,96,144328
1.7595,0.2248,38.4300,80,96,144331
1.7889,0.2248,38.2700,80,96,144335
1.7693,0.2248,38.4600,80,96,144338
1.7791,0.2590,38.4000,80,96,144342
1.8035,0.2297,38.4300,80,96,144346
1.7937,0.2248,38.5800,80,96,144349
1.8280,0.2493,38.2100,80,96,144352
1.8084,0.2297,38.4300,80,96,144356
1.7986,0.2248,38.4900,80,96,144359
1.8328,0.2297,38.3300,80,96,144362
1.8133,0.2248,38.4000,80,96,144366
1.8866,0.2346,38.1500,80,96,144369
1.8328,0.2151,38.3000,80,96,144372
1.8280,0.2102,38.4000,80,96,144375
1.8280,0.2297,38.4000,80,96,144379
1.8133,0.2248,38.5500,80,96,144382
1.8964,0.2444,38.1800,80,96,144386
1.8182,0.2297,38.3600,80,96,144390
1.8231,0.2248,38.3600,80,96,144393
1.7986,0.2248,38.4000,80,96,144396
1.7937,0.2199,38.4300,80,96,144400
1.8280,0.2346,38.2700,80,96,144403
1.8280,0.2199,38.4000,80,96,144406
1.8182,0.2248,38.3000,80,96,144410
1.8084,0.2151,38.4000,80,96,144413
1.8231,0.2199,38.4000,80,96,144416
1.8524,0.2297,38.2400,80,96,144419
1.8964,0.2297,38.2100,80,96,144423
1.8817,0.2542,38.4300,80,96,144427
1.9208,0.2248,38.2100,80,96,144431
1.9013,0.2248,38.3600,80,96,144434
1.8866,0.2248,38.4300,80,96,144437
1.9208,0.2297,38.5200,80,96,144441
1.9013,0.2346,38.4900,80,96,144444
1.9795,0.2346,38.1800,80,96,144447
1.9062,0.2542,38.3600,80,96,144451
1.9062,0.2199,38.4000,80,96,144454
1.9062,0.2297,38.4900,80,96,144457
1.8964,0.2248,38.4300,80,96,144460
1.9306,0.2395,38.1800,80,96,144464
1.8964,0.2248,38.3000,80,96,144467
1.8817,0.2199,38.3600,80,96,144471
1.8866,0.2199,38.4300,80,96,144475
1.8768,0.2248,38.5200,80,96,144478
1.9110,0.2297,38.3000,80,96,144481
1.8866,0.2297,38.3600,80,96,144485
1.8866,0.2248,38.2700,80,96,144488
1.9062,0.2248,38.4300,80,96,144491
1.8817,0.2248,38.5200,80,96,144495
1.9257,0.2297,38.2400,80,96,144498
1.8915,0.2346,38.4300,80,96,144501
1.9062,0.2297,38.2700,80,96,144504
1.8817,0.2248,38.4300,80,96,144508
1.8866,0.2248,38.4300,80,96,144512
1.9013,0.2297,38.3000,80,96,144515
1.8964,0.2102,38.4300,80,96,144519
1.9159,0.2346,38.3000,80,96,144522
1.8817,0.2199,38.4000,80,96,144525
1.8866,0.2248,38.4300,80,96,144529
1.9110,0.2297,38.2700,80,96,144532
1.8866,0.2248,38.4000,80,96,144535
1.9159,0.2297,38.2400,80,96,144538
1.8915,0.2346,38.3300,80,96,144542
1.8768,0.2248,38.4300,80,96,144545
1.8915,0.2346,38.3300,80,96,144548
1.8622,0.2248,38.4300,80,96,144552
1.9013,0.2297,38.1800,80,96,144556
1.8573,0.2199,38.3600,80,96,144559
1.8475,0.2248,38.4300,80,96,144563
1.8573,0.2297,38.4000,80,96,144566
1.8377,0.2248,38.4300,80,96,144569
1.8866,0.2395,38.2100,80,96,144573
1.8426,0.2297,38.4000,80,96,144576
1.8280,0.2346,38.3300,80,96,144579
1.8231,0.2248,38.4000,80,96,144582
1.8182,0.2248,38.4300,80,96,144586
1.8573,0.2346,38.3300,80,96,144589
1.8328,0.2297,38.4000,80,96,144592
1.8426,0.2297,38.2700,80,96,144596
1.8280,0.2248,38.4000,80,96,144600
1.8231,0.2248,38.4300,80,96,144603
1.8524,0.2297,38.2700,80,96,144607
1.8377,0.2346,38.4000,80,96,144610
1.8768,0.2297,38.3300,80,96,144613
1.8377,0.2199,38.3600,80,96,144617
1.8426,0.2102,38.4300,80,96,144620
1.8524,0.2542,38.3000,80,96,144623
1.8475,0.2102,38.4000,80,96,144627
1.8719,0.2248,38.2700,80,96,144630
1.8622,0.2248,38.3600,80,96,144633
1.8622,0.2248,38.4300,80,96,144636
1.8866,0.2395,38.3300,80,96,144641
1.8768,0.2248,38.4300,80,96,144644
1.9159,0.2297,38.1100,80,96,144647
1.8768,0.2199,38.4300,80,96,144651
1.8817,0.2248,38.6500,80,96,144654
1.8964,0.2297,38.3600,80,96,144657
1.8671,0.2248,38.4000,80,96,144661
1.9159,0.2395,38.1500,80,96,144664
1.8866,0.2297,38.3000,80,96,144667
1.8866,0.2199,38.3600,80,96,144670
1.9159,0.2297,38.4300,80,96,144674
1.9110,0.2248,38.4000,80,96,144677
1.9453,0.2395,38.3000,80,96,144680
1.8964,0.2297,38.3600,80,96,144685
1.8719,0.2590,38.3000,80,96,144688
1.8817,0.2102,38.4000,80,96,144691
1.8622,0.2248,38.4300,80,96,144695
1.9062,0.2297,38.2400,80,96,144698
1.9013,0.2248,38.4000,80,96,144701
1.8915,0.2248,38.3000,80,96,144705
1.8671,0.2248,38.2700,80,96,144708
1.8573,0.2248,38.4300,80,96,144711
1.8719,0.2248,37.5900,80,96,144714
1.8475,0.2346,38.4900,80,96,144718
1.8719,0.2297,38.3300,80,96,144721
1.8377,0.2346,38.4000,80,96,144724
1.8377,0.2248,38.4300,80,96,144729
1.8622,0.2297,38.3000,80,96,144732
1.8328,0.2248,38.4300,80,96,144735
1.8622,0.2248,38.1800,80,96,144739
1.8426,0.2248,38.3300,80,96,144742
1.8328,0.2248,38.3600,80,96,144745
1.8671,0.2346,38.3300,80,96,144749
1.8426,0.2248,38.4000,80,96,144752
1.9062,0.2346,38.1800,80,96,144755
1.8524,0.2248,38.3600,80,96,144758
1.8328,0.2102,38.4300,80,96,144762
1.8475,0.2297,38.3600,80,96,144765
1.8280,0.2248,38.4000,80,96,144769
1.8866,0.2395,38.1500,80,96,144773
1.8524,0.2199,38.3300,80,96,144776
1.8524,0.2199,38.5500,80,96,144779
1.8573,0.2297,38.4000,80,96,144783
1.8524,0.2248,38.4900,80,96,144786
1.8915,0.2444,38.3000,80,96,144789
1.8524,0.2297,38.3600,80,96,144793
1.8622,0.2248,38.2700,80,96,144796
1.8524,0.2102,38.4300,80,96,144799
1.8426,0.2248,38.4300,80,96,144802
1.8719,0.2639,38.2400,80,96,144806
1.8475,0.2248,38.4300,80,96,144809
1.8622,0.2248,38.2700,80,96,144813
1.8377,0.2248,38.4600,80,96,144817
1.8328,0.2248,38.4600,80,96,144820
1.8719,0.2248,38.3000,80,96,144823
1.8377,0.2248,38.4300,80,96,144827
1.8671,0.2199,38.2700,80,96,144830
1.8426,0.2248,38.4000,80,96,144833
1.8524,0.2248,38.4600,80,96,144837
1.8915,0.2248,38.3000,80,96,144840
1.8426,0.2248,38.4300,80,96,144843
1.8719,0.2297,38.2400,80,96,144846
1.8426,0.2199,38.4000,80,96,144850
1.8524,0.2248,38.4000,80,96,144854
1.8671,0.2297,38.3600,80,96,144857
1.8475,0.2151,38.4300,80,96,144861
1.8915,0.2297,38.1500,80,96,144864
1.8671,0.2248,38.3300,80,96,144867
1.8573,0.2199,38.3300,80,96,144871
1.8622,0.2248,38.4000,80,96,144874
1.8524,0.2248,38.4300,80,96,144877
1.9013,0.2395,38.2400,80,96,144881
1.8622,0.2297,38.3300,80,96,144884
1.8377,0.2248,38.3600,80,96,144887
1.8377,0.2248,38.4300,80,96,144890
1.8280,0.2248,38.4300,80,96,144894
1.8622,0.2248,38.2700,80,96,144898
1.8426,0.2297,38.4300,80,96,144901
1.8622,0.2248,38.2700,80,96,144905
1.8426,0.2248,38.4300,80,96,144908
1.8573,0.2395,38.4000,80,96,144911
1.8719,0.2248,38.4000,80,96,144915
1.8524,0.2248,38.4000,80,96,144918
1.8719,0.2248,38.3000,80,96,144921
1.8377,0.2248,37.9600,80,96,144925
1.8328,0.2395,38.4300,80,96,144928
1.8622,0.2346,38.3000,80,96,144931
1.8377,0.2248,38.4000,80,96,144934
1.8719,0.2248,38.2400,80,96,144939
1.8524,0.2248,38.3000,80,96,144942
1.8573,0.2248,38.4300,80,96,144945
1.8866,0.2297,38.3600,80,96,144949
1.8524,0.2248,38.4300,80,96,144952
1.9062,0.2297,38.1500,80,96,144955
1.8817,0.2199,38.3300,80,96,144959
1.8671,0.2248,38.4600,80,96,144962
1.9013,0.2297,38.4300,80,96,144965
1.8719,0.2248,38.4600,80,96,144969
1.9208,0.2395,38.1500,80,96,144972
1.8768,0.2297,38.3300,80,96,144975
1.8573,0.2199,38.4000,80,96,144978
1.8719,0.2297,38.4000,80,96,144983
1.8573,0.2248,38.3000,80,96,144986
1.9110,0.2346,38.3000,80,96,144989
1.8866,0.2102,38.3600,80,96,144993
1.9013,0.2248,38.4300,80,96,144996
1.9013,0.2248,38.4600,80,96,144999
1.9013,0.2248,38.4000,80,96,145003
1.9257,0.2297,38.1500,80,96,145006
1.8817,0.2297,38.4000,80,96,145009
1.8866,0.2248,38.2700,80,96,145013
1.8524,0.2248,38.4000,80,96,145016
1.8475,0.2248,38.3600,80,96,145019
1.8768,0.2297,38.3000,80,96,145022
1.8524,0.2248,38.4600,80,96,145027
1.8768,0.2248,38.3000,80,96,145030
1.8524,0.2444,38.2100,80,96,145033
1.8622,0.2199,38.4000,80,96,145037
1.8719,0.2248,38.4900,80,96,145040
1.8817,0.2199,38.4000,80,96,145044
1.8671,0.2248,38.4300,80,96,145047
1.9110,0.2346,38.1100,80,96,145050
1.8768,0.2297,38.3300,80,96,145053
1.8328,0.2199,38.4600,80,96,145057
1.8328,0.2199,38.4000,80,96,145060
1.8182,0.2248,38.4600,80,96,145063
1.8719,0.2395,38.1500,80,96,145068
1.8475,0.2297,38.3300,80,96,145071
1.8377,0.2199,38.3300,80,96,145074
1.8475,0.2248,38.4300,80,96,145078
1.8328,0.2248,38.3300,80,96,145081
1.8768,0.2346,38.2700,80,96,145084
1.8475,0.2297,38.4300,80,96,145088
1.8573,0.2248,38.2700,80,96,145091
1.8377,0.2248,38.4600,80,96,145094
1.8328,0.2297,38.4600,80,96,145097
1.8524,0.2297,38.3600,80,96,145101
1.8377,0.2248,38.3300,80,96,145104
1.8622,0.2346,38.3300,80,96,145107
1.8377,0.2248,38.4900,80,96,145112
1.8475,0.2248,38.4300,80,96,145115
1.8768,0.2297,38.3600,80,96,145118
1.8671,0.2248,38.4600,80,96,145122
1.8915,0.2248,38.2100,80,96,145125
1.8768,0.2248,38.2700,80,96,145128
1.8573,0.2248,38.4600,80,96,145132
1.8671,0.2346,38.3300,80,96,145135
1.8426,0.2248,38.5200,80,96,145138
1.8866,0.2346,38.1500,80,96,145142
1.8573,0.2199,38.4300,80,96,145145
1.8377,0.2248,38.4300,80,96,145148
1.8377,0.2297,38.4000,80,96,145152
1.8133,0.2248,38.4000,80,96,145156
1.8671,0.2444,38.1800,80,96,145159
1.8328,0.2248,38.3600,80,96,145162
1.8671,0.2199,38.3600,80,96,145166
1.8768,0.2248,38.4000,80,96,145169
1.9355,0.2248,38.4000,80,96,145172
2.0674,0.2346,38.4000,80,96,145176
2.1457,0.2297,38.3600,80,96,145179
2.2923,0.2248,38.3300,80,96,145182
2.4242,0.2493,38.4000,80,96,145186
2.5318,0.2248,38.4300,80,96,145189
2.6686,0.2297,38.2400,80,96,145192
2.7468,0.2248,38.4000,80,96,145196
2.9326,0.2297,38.3000,80,96,145200
3.0987,0.2444,38.4900,80,96,145203
3.2063,0.2248,38.4300,80,96,145206
3.1378,0.2297,38.3600,80,96,145210
2.8201,0.2248,38.4000,80,96,145213
2.5367,0.2199,38.2700,80,96,145216
2.1310,0.2199,38.4300,80,96,145220
1.8475,0.2248,38.4300,80,96,145223
1.6422,0.2248,38.6800,80,96,145226
1.5005,0.2199,38.4300,80,96,145229
1.4907,0.2297,38.2100,80,96,145233
1.4223,0.2590,38.4000,80,96,145236
1.4321,0.2199,38.4300,80,96,145240
1.4712,0.2297,38.3600,80,96,145244
1.4956,0.2248,38.4600,80,96,145247
1.5787,0.2297,37.7400,80,96,145250
1.5934,0.2346,38.3600,80,96,145254
1.6031,0.2248,38.4300,80,96,145257
1.6129,0.2102,38.4300,80,96,145260
1.5885,0.2248,38.4600,80,96,145264
1.6129,0.2639,38.1800,80,96,145267
1.5640,0.2297,38.3000,80,96,145270
1.5445,0.2199,38.5800,80,96,145273
1.5494,0.2297,38.4000,80,96,145277
1.5494,0.2248,38.4300,80,96,145281
1.5885,0.2297,38.2400,80,96,145284
1.5689,0.2297,38.4300,80,96,145288
1.5934,0.2248,38.3300,80,96,145291
1.5885,0.2199,38.4300,80,96,145294
1.6129,0.2248,38.4000,80,96,145298
1.6422,0.2102,38.3600,80,96,145301
1.6520,0.2248,38.4300,80,96,145304
1.6911,0.2346,38.2700,80,96,145308
1.6813,0.2248,38.4300,80,96,145311
1.6911,0.2639,38.4000,80,96,145314
1.7155,0.2346,38.3000,80,96,145317
1.6862,0.2248,38.4900,80,96,145321
1.7009,0.2199,38.2400,80,96,145325
1.6764,0.2248,38.3300,80,96,145328
1.6764,0.2248,38.4300,80,96,145332
1.7107,0.2297,38.3000,80,96,145335
1.7009,0.2199,38.4000,80,96,145338
1.7498,0.2346,38.2100,80,96,145342
1.7400,0.2297,38.4000,80,96,145345
1.7351,0.2248,38.3600,80,96,145348
1.7595,0.2297,38.3600,80,96,145351
1.7498,0.2248,38.4900,80,96,145355
1.7986,0.2248,38.1500,80,96,145358
1.7693,0.2248,38.3300,80,96,145361
1.7742,0.2199,38.4000,80,96,145366
1.7889,0.2102,38.4000,80,96,145369
1.7840,0.2248,38.4000,80,96,145372
1.8426,0.2444,38.2100,80,96,145376
1.8035,0.2297,38.3600,80,96,145379
1.8035,0.2199,38.3600,80,96,145382
1.8035,0.2248,38.4300,80,96,145386
1.7986,0.2248,38.4300,80,96,145389
1.8231,0.2297,38.2400,80,96,145392
1.8084,0.2248,38.3600,80,96,145395
1.8182,0.2248,38.3000,80,96,145399
1.7937,0.2248,38.4000,80,96,145402
1.8231,0.2248,38.4000,80,96,145405
1.8280,0.2297,38.2700,80,96,145410
1.8035,0.2297,38.4300,80,96,145413
1.8231,0.2346,38.3000,80,96,145416
1.8084,0.2297,38.4900,80,96,145420
1.8084,0.2297,38.4300,80,96,145423
1.8231,0.2248,38.3300,80,96,145426
1.8084,0.2346,38.4000,80,96,145430
1.8280,0.2102,38.2400,80,96,145433
1.8035,0.2248,38.4000,80,96,145436
1.8084,0.2199,38.4000,80,96,145439
1.8280,0.2297,38.3300,80,96,145443
1.8084,0.2346,38.4000,80,96,145446
1.8377,0.2346,38.1800,80,96,145449
1.8133,0.2248,38.4300,80,96,145454
1.8084,0.2248,38.4300,80,96,145457
1.8475,0.2297,38.3600,80,96,145460
1.8426,0.2444,38.4000,80,96,145464
1.9062,0.2346,38.1100,80,96,145467
1.8866,0.2346,38.2700,80,96,145470
1.8866,0.2199,38.4300,80,96,145473
1.9013,0.2248,38.5500,80,96,145477
1.9110,0.2444,38.4000,80,96,145480
1.9941,0.2297,38.2100,80,96,145483
1.9501,0.2395,38.3600,80,96,145487
1.9453,0.2248,38.3300,80,96,145490
1.9355,0.2395,38.4000,80,96,145494
1.9355,0.2248,38.4300,80,96,145498
1.9599,0.2297,38.3600,80,96,145501
1.9208,0.2248,38.4000,80,96,145504
1.9257,0.2248,38.3000,80,96,145508
1.8964,0.2199,38.4600,80,96,145511
1.8817,0.2248,38.4300,80,96,145514
1.9110,0.2297,38.2700,80,96,145517
1.8817,0.2248,38.4000,80,96,145521
1.9062,0.2297,38.2700,80,96,145524
1.8671,0.2102,38.4000,80,96,145527
1.8671,0.2248,38.4300,80,96,145531
1.8817,0.2102,38.2700,80,96,145534
1.8573,0.2248,38.4000,80,96,145538
1.8768,0.2297,38.2400,80,96,145542
1.8475,0.2248,38.3300,80,96,145545
1.8328,0.2248,38.4000,80,96,145548
1.8475,0.2346,38.3300,80,96,145552
1.8231,0.2248,38.4000,80,96,145555
1.8622,0.2346,38.1800,80,96,145558
1.8133,0.2199,38.4000,80,96,145561
1.8084,0.2395,38.4000,80,96,145565
1.8133,0.2297,38.4000,80,96,145568
1.7986,0.2248,38.2400,80,96,145571
1.8524,0.2297,38.1800,80,96,145575
1.8231,0.2297,38.3600,80,96,145579
1.8084,0.2199,38.3300,80,96,145582
1.8084,0.2297,38.4000,80,96,145586
1.8035,0.2248,38.4300,80,96,145589
1.8328,0.2346,38.2700,80,96,145592
1.8133,0.2297,38.4300,80,96,145596
1.8182,0.2248,38.3000,80,96,145599
1.8035,0.2248,38.4300,80,96,145602
1.7986,0.2248,38.4300,80,96,145605
1.8280,0.2297,38.3300,80,96,145609
1.8035,0.2248,38.4000,80,96,145612
1.8231,0.2199,38.2700,80,96,145615
1.8084,0.2248,38.4000,80,96,145619
1.8084,0.2248,38.4600,80,96,145623
1.8231,0.2297,38.3600,80,96,145626
1.8035,0.2248,38.4000,80,96,145630
1.8426,0.2297,38.3000,80,96,145633
1.8035,0.2248,38.4900,80,96,145636
1.8133,0.2248,38.4000,80,96,145639
1.8573,0.2395,38.3000,80,96,145643
1.8426,0.2346,38.3600,80,96,145646
1.8280,0.2737,38.4300,80,96,145650
1.8817,0.2297,38.1500,80,96,145653
1.8475,0.2297,38.2700,80,96,145656
1.8231,0.2199,38.4000,80,96,145660
1.8328,0.2248,38.2700,80,96,145664
1.8280,0.2297,38.4300,80,96,145667
1.8817,0.2395,38.2700,80,96,145671
1.8622,0.2297,38.4300,80,96,145674
1.8280,0.2199,38.3300,80,96,145677
1.8133,0.2297,38.4900,80,96,145681
1.8133,0.2248,38.4300,80,96,145684
1.8377,0.2346,38.3300,80,96,145687
1.8377,0.2297,38.4300,80,96,145690
1.8182,0.2248,38.3000,80,96,145694
1.7889,0.2248,38.5500,80,96,145697
1.7889,0.2248,38.4300,80,96,145700
1.8231,0.2346,38.3000,80,96,145704
1.7986,0.2248,38.4000,80,96,145708
1.8182,0.2248,37.9300,80,96,145711
1.7840,0.2542,38.4000,80,96,145715
1.7791,0.2102,38.4300,80,96,145718
1.8035,0.2297,38.2400,80,96,145721
1.7889,0.2248,38.4000,80,96,145725
1.8133,0.2248,38.2100,80,96,145728
1.7937,0.2297,38.3300,80,96,145731
1.7889,0.2248,38.4300,80,96,145734
1.8035,0.2688,38.3000,80,96,145738
1.8182,0.2102,38.4300,80,96,145741
1.8328,0.2346,38.1800,80,96,145744
1.8182,0.2151,38.4300,80,96,145748
1.8035,0.2248,38.5200,80,96,145752
1.8133,0.2542,38.4300,80,96,145755
1.8035,0.2248,38.4300,80,96,145759
1.8475,0.2395,38.1500,80,96,145762
1.8182,0.2248,38.3300,80,96,145765
1.8035,0.2199,38.6500,80,96,145768
1.8133,0.2248,38.4300,80,96,145772
1.8035,0.2248,38.4300,80,96,145775
1.8524,0.2346,38.2100,80,96,145778
1.8231,0.2297,38.3600,80,96,145782
1.8280,0.2248,38.2700,80,96,145785
1.8182,0.2102,38.4300,80,96,145788
1.8133,0.2248,38.3300,80,96,145793
1.8426,0.2297,38.2700,80,96,145796
1.8133,0.2248,38.4000,80,96,145799
1.8328,0.2199,38.3000,80,96,145803
1.8133,0.2248,38.4000,80,96,145806
1.8133,0.2248,38.4300,80,96,145809
1.8231,0.2248,38.3600,80,96,145813
1.8133,0.2199,38.3300,80,96,145816
1.8377,0.2248,38.3000,80,96,145819
1.8084,0.2346,38.4000,80,96,145822
1.8475,0.2248,38.4300,80,96,145826
1.8328,0.2297,37.6200,80,96,145829
1.8035,0.2102,38.4300,80,96,145832
1.8280,0.2297,38.2100,80,96,145837
1.8035,0.2199,38.3300,80,96,145840
1.7840,0.2199,38.4300,80,96,145843
1.8035,0.2444,38.3600,80,96,145847
1.7742,0.2102,38.4300,80,96,145850
1.8231,0.2297,38.2700,80,96,145853
1.7937,0.2102,38.3300,80,96,145857
1.7791,0.2199,38.5200,80,96,145860
1.7937,0.2297,38.4000,80,96,145863
1.7840,0.2248,38.4000,80,96,145866
1.8426,0.2395,38.2100,80,96,145870
1.8035,0.2297,38.3300,80,96,145873
1.7986,0.2199,38.4000,80,96,145876
1.7986,0.2297,38.4000,80,96,145881
1.8084,0.2248,38.4300,80,96,145884
1.8524,0.2346,38.3000,80,96,145887
1.8182,0.2102,38.4000,80,96,145891
1.8280,0.2248,38.2400,80,96,145894
1.8084,0.2248,38.4300,80,96,145897
1.8133,0.2199,38.4300,80,96,145900
1.8475,0.2346,38.2400,80,96,145904
1.8280,0.2248,38.4000,80,96,145907
1.8475,0.2297,38.3000,80,96,145910
1.8182,0.2199,38.4000,80,96,145914
1.8182,0.2248,38.3000,80,96,145917
1.8475,0.2248,38.3000,80,96,145921
1.8377,0.2248,38.4300,80,96,145925
1.8622,0.2248,38.2700,80,96,145928
1.8377,0.2199,38.3600,80,96,145931
1.8280,0.2493,38.4300,80,96,145935
1.8426,0.2346,38.3000,80,96,145938
1.8231,0.2248,38.3600,80,96,145941
1.8573,0.2297,38.2400,80,96,145944
1.8231,0.2199,38.3000,80,96,145948
1.8133,0.2199,38.4300,80,96,145951
1.8377,0.2297,38.3600,80,96,145954
1.8231,0.2346,38.4000,80,96,145958
1.8768,0.2297,38.1100,80,96,145961
1.8426,0.2248,38.4000,80,96,145965
1.8622,0.2151,38.4000,80,96,145969
1.8280,0.2297,38.3600,80,96,145972
1.8231,0.2199,38.4300,80,96,145975
1.8817,0.2395,38.2700,80,96,145979
1.8573,0.2346,38.3300,80,96,145982
1.8524,0.2248,38.3300,80,96,145985
1.8426,0.2297,38.4600,80,96,145988
1.8328,0.2248,38.4300,80,96,145992
1.8719,0.2297,38.2700,80,96,145995
1.8573,0.2199,38.4000,80,96,145998
1.9062,0.2248,37.7700,80,96,146002
1.9501,0.2248,38.3300,80,96,146006
2.0479,0.2248,38.4300,80,96,146009
2.1750,0.2248,38.2700,80,96,146013
2.2727,0.2297,38.4000,80,96,146016
2.4047,0.2297,38.3300,80,96,146019
2.4389,0.2248,38.4000,80,96,146022
2.5122,0.2151,38.4000,80,96,146026
2.6491,0.2297,38.3000,80,96,146029
2.7664,0.2248,38.4300,80,96,146032
2.9521,0.2297,38.2400,80,96,146036
2.9765,0.2248,38.2100,80,96,146039
2.8152,0.2542,38.4300,80,96,146042
2.5806,0.2297,38.4300,80,96,146046
2.2190,0.2248,38.4000,80,96,146050
1.9453,0.2346,38.1500,80,96,146053
1.6667,0.2248,38.3000,80,96,146057
1.5054,0.2199,38.4300,80,96,146060
1.4516,0.2297,38.3600,80,96,146063
1.4272,0.2248,38.4000,80,96,146066
1.4956,0.2346,38.1100,80,96,146070
1.4907,0.2248,38.3300,80,96,146073
1.5689,0.2151,38.4000,80,96,146076
1.6178,0.2248,38.4300,80,96,146080
1.6569,0.2248,38.4000,80,96,146083
1.7253,0.2297,38.2100,80,96,146086
1.6862,0.2297,38.4000,80,96,146091
1.6813,0.2199,38.3300,80,96,146094
1.6276,0.2248,38.4000,80,96,146097
1.6178,0.2199,38.4300,80,96,146100
1.6276,0.2297,38.2400,80,96,146104
1.6031,0.2297,38.4300,80,96,146107
1.6178,0.2248,38.3000,80,96,146110
1.6080,0.2248,38.4300,80,96,146114
1.6129,0.2199,38.4300,80,96,146117
1.6471,0.2297,38.4900,80,96,146120
1.6325,0.2248,38.4000,80,96,146124
1.6618,0.2297,38.3000,80,96,146127
1.6422,0.2199,38.4900,80,96,146130
1.6471,0.2151,38.4000,80,96,146135
1.6716,0.2248,38.3300,80,96,146138
1.6716,0.2248,38.4000,80,96,146141
1.7058,0.2297,38.2400,80,96,146144
1.6960,0.2248,38.4300,80,96,146148
1.7107,0.2248,38.4300,80,96,146151
1.7253,0.2297,38.3600,80,96,146154
1.7204,0.2199,38.4300,80,96,146158
1.7546,0.2297,38.1800,80,96,146161
1.7400,0.2297,38.3300,80,96,146164
1.7302,0.2102,38.4300,80,96,146168
1.7449,0.2297,38.4000,80,96,146171
1.7302,0.2199,38.4300,80,96,146174
1.7840,0.2346,38.1500,80,96,146179
1.7595,0.2297,38.2700,80,96,146182
1.7546,0.2199,38.4000,80,96,146185
1.7644,0.2248,38.4000,80,96,146188
1.7644,0.2493,38.4300,80,96,146192
1.8133,0.2395,38.2400,80,96,146195
1.7889,0.2248,38.3600,80,96,146198
1.7937,0.2199,38.3300,80,96,146202
1.7840,0.2248,38.4000,80,96,146205
1.7840,0.2248,38.4300,80,96,146208
1.8231,0.2297,38.3300,80,96,146212
1.8328,0.2102,38.4000,80,96,146215
1.8377,0.2248,38.2700,80,96,146219
1.8182,0.2248,38.4300,80,96,146222
1.8231,0.2199,38.4300,80,96,146226
1.8524,0.2444,38.3000,80,96,146229
1.8182,0.2248,38.4300,80,96,146232
1.8377,0.2248,38.3600,80,96,146236
1.8035,0.2199,38.3600,80,96,146239
1.8035,0.2248,38.5500,80,96,146242
1.8280,0.2248,38.2400,80,96,146246
1.7986,0.2248,38.4600,80,96,146249
1.8231,0.2346,38.2100,80,96,146252
1.8182,0.2346,38.1500,80,96,146256
1.7693,0.2444,38.3000,80,96,146259
1.7840,0.2151,38.4300,80,96,146264
1.7546,0.2248,38.4600,80,96,146267
1.7693,0.2102,38.4000,80,96,146270
1.8280,0.2395,38.2700,80,96,146274
1.8084,0.2297,38.4000,80,96,146277
1.8231,0.2248,38.3300,80,96,146280
1.8280,0.2248,38.4000,80,96,146283
1.8426,0.2395,38.4000,80,96,146287
1.8964,0.2346,38.2400,80,96,146290
1.8866,0.2199,38.3600,80,96,146293
1.9208,0.2248,38.3000,80,96,146297
1.9062,0.2248,38.4300,80,96,146300
1.9159,0.2199,38.4000,80,96,146304
1.9550,0.2297,38.3000,80,96,146308
1.9404,0.2248,38.4600,80,96,146311
1.9697,0.2248,38.2700,80,96,146314
1.9355,0.2199,38.4000,80,96,146317
1.9306,0.2248,38.4000,80,96,146321
1.9404,0.2248,38.3300,80,96,146324
1.9257,0.2248,38.4300,80,96,146327
1.9501,0.2248,38.2700,80,96,146331
1.9257,0.2248,38.4300,80,96,146334
1.9062,0.2248,38.4300,80,96,146337
1.9110,0.2248,38.3300,80,96,146341
1.8866,0.2248,38.3600,80,96,146344
1.9257,0.2346,38.1800,80,96,146348
1.9013,0.2297,38.3300,80,96,146351
1.8866,0.2248,38.4600,80,96,146355
1.8964,0.2297,38.3600,80,96,146358
1.8768,0.2248,38.4000,80,96,146361
1.9208,0.2395,38.1100,80,96,146365
1.8817,0.2248,38.2700,80,96,146368
1.8524,0.2248,38.4000,80,96,146371
1.8524,0.2248,38.4000,80,96,146375
1.8377,0.2248,38.4000,80,96,146378
1.8866,0.2395,38.0800,80,96,146381
1.8573,0.2297,38.3600,80,96,146385
1.8573,0.2151,38.3300,80,96,146388
1.8475,0.2248,38.4300,80,96,146392
1.8426,0.2151,38.4000,80,96,146395
1.8622,0.2297,38.3600,80,96,146399
1.8328,0.2248,38.4000,80,96,146402
1.8475,0.2199,38.3000,80,96,146405
1.8231,0.2248,38.4300,80,96,146409
1.8231,0.2248,38.4000,80,96,146412
1.8622,0.2297,38.2700,80,96,146415
1.8328,0.2248,38.4000,80,96,146419
1.8475,0.2102,38.3000,80,96,146422
1.8231,0.2199,38.3600,80,96,146425
1.8280,0.2395,38.4300,80,96,146429
1.8426,0.2297,38.3000,80,96,146433
1.8182,0.2248,38.4000,80,96,146436
1.8377,0.2297,38.2100,80,96,146439
1.8084,0.2248,38.3300,80,96,146443
1.7986,0.2248,38.4300,80,96,146446
1.8133,0.2248,38.3000,80,96,146449
1.8035,0.2248,38.4000,80,96,146453
1.8622,0.2346,38.2100,80,96,146456
1.8035,0.2199,38.3600,80,96,146459
1.8084,0.2248,38.4300,80,96,146463
1.8280,0.2297,38.4000,80,96,146466
1.8133,0.2444,38.4900,80,96,146469
1.8671,0.2395,38.1500,80,96,146472
1.8328,0.2297,38.5500,80,96,146477
1.8231,0.2297,38.3600,80,96,146480
1.8328,0.2248,38.4300,80,96,146483
1.8524,0.2248,38.4000,80,96,146487
1.8768,0.2297,38.1500,80,96,146490
1.8475,0.2297,38.3300,80,96,146493
1.8573,0.2248,38.3300,80,96,146497
1.8280,0.2199,38.4000,80,96,146500
1.8328,0.2248,38.4000,80,96,146503
1.8524,0.2297,38.3300,80,96,146507
1.8328,0.2346,38.4000,80,96,146510
1.8768,0.2248,38.2700,80,96,146513
1.8280,0.2248,38.5200,80,96,146516
1.8280,0.2248,38.4000,80,96,146521
1.8377,0.2248,38.3300,80,96,146524
1.8231,0.2248,38.4600,80,96,146527
1.8475,0.2248,38.3000,80,96,146531
1.8231,0.2248,38.4000,80,96,146534
1.8426,0.2199,38.4600,80,96,146537
1.8475,0.2297,38.4000,80,96,146541
1.8280,0.2199,38.4000,80,96,146544
1.8671,0.2102,38.2400,80,96,146547
1.8426,0.2248,38.3600,80,96,146550
1.8280,0.2151,38.4300,80,96,146554
1.8524,0.2297,38.3300,80,96,146557
1.8182,0.2297,38.4600,80,96,146561
1.8573,0.2297,38.1500,80,96,146565
1.8182,0.2248,38.3300,80,96,146568
1.8084,0.2248,38.5500,80,96,146571
1.8133,0.2395,38.4900,80,96,146575
1.8084,0.2199,38.4300,80,96,146578
1.8524,0.2297,38.1800,80,96,146581
1.8133,0.2199,38.3600,80,96,146585
1.8084,0.2199,38.3600,80,96,146588
1.8035,0.2346,38.4000,80,96,146591
1.7986,0.2248,38.5200,80,96,146595
1.8328,0.2444,38.3000,80,96,146598
1.8084,0.2248,38.4000,80,96,146601
1.8133,0.2248,38.4300,80,96,146605
1.8035,0.2248,38.4300,80,96,146609
1.8084,0.2248,38.4600,80,96,146612
1.8475,0.2395,38.2400,80,96,146615
1.8231,0.2248,38.4000,80,96,146619
1.8377,0.2297,38.2400,80,96,146622
1.8182,0.2248,38.4000,80,96,146625
1.8182,0.2248,38.4600,80,96,146629
1.8671,0.2248,38.3000,80,96,146632
1.8328,0.2248,38.4300,80,96,146635
1.8622,0.2248,38.4600,80,96,146638
1.8377,0.2248,38.3600,80,96,146642
1.8475,0.2248,38.4300,80,96,146646
1.8768,0.2199,38.2700,80,96,146649
1.8573,0.2248,38.4300,80,96,146653
1.8964,0.2297,38.2400,80,96,146656
1.8622,0.2199,38.4300,80,96,146659
1.8573,0.2151,38.4000,80,96,146663
1.8768,0.2297,38.3600,80,96,146666
1.8573,0.2297,38.4600,80,96,146669
1.9159,0.2346,38.1100,80,96,146673
1.8768,0.2297,38.3600,80,96,146676
1.8671,0.2199,38.4300,80,96,146679
1.8622,0.2248,38.3600,80,96,146682
1.8475,0.2102,38.4300,80,96,146686
1.9013,0.2395,38.2100,80,96,146690
1.8719,0.2297,38.3300,80,96,146693
1.8475,0.2199,38.4300,80,96,146697
1.8328,0.2297,38.4000,80,96,146700
1.8182,0.2248,38.4300,80,96,146703
1.8475,0.2297,38.2700,80,96,146707
1.8182,0.2248,38.3600,80,96,146710
1.8328,0.2248,38.2700,80,96,146713
1.8084,0.2248,38.4000,80,96,146717
1.8084,0.2248,38.6200,80,96,146720
1.8328,0.2102,38.4300,80,96,146723
1.8280,0.2248,38.4300,80,96,146726
1.8622,0.2297,38.2400,80,96,146731
1.8377,0.2248,38.4300,80,96,146734
1.8426,0.2248,38.4900,80,96,146737
1.8719,0.2199,38.3000,80,96,146741
1.8475,0.2248,38.4000,80,96,146744
1.8719,0.2248,38.4000,80,96,146747
1.8524,0.2199,38.4300,80,96,146751
1.8328,0.2199,38.4600,80,96,146754
1.8622,0.2346,38.3000,80,96,146757
1.8133,0.2248,38.4300,80,96,146761
1.8377,0.2346,38.2400,80,96,146764
1.8084,0.2199,38.3300,80,96,146767
1.7937,0.2248,38.4600,80,96,146770
1.8133,0.2248,38.3600,80,96,146775
1.8133,0.2248,38.4000,80,96,146778
1.9062,0.2688,38.1100,80,96,146781
1.9306,0.2248,38.3000,80,96,146785
2.0186,0.2199,38.4300,80,96,146788
2.1359,0.2297,38.3300,80,96,146791
2.2532,0.2248,38.4300,80,96,146795
2.4145,0.2444,38.3000,80,96,146798
2.4536,0.2297,38.4000,80,96,146801
2.5220,0.2248,38.3300,80,96,146804
2.5953,0.2248,38.4300,80,96,146808
2.7175,0.2248,38.4300,80,96,146811
2.9179,0.2346,38.2700,80,96,146814
2.9717,0.2297,38.4300,80,96,146819
2.9081,0.2346,38.2700,80,96,146822
2.6491,0.2248,38.4000,80,96,146825
2.3363,0.2248,38.4600,80,96,146829
2.0332,0.2346,38.2400,80,96,146832
1.7449,0.1906,38.4000,80,96,146835
1.5885,0.2297,38.3300,80,96,146839
1.4761,0.2151,38.4000,80,96,146842
1.4516,0.2248,38.4300,80,96,146845
1.4809,0.2297,38.3600,80,96,146848
1.5298,0.2102,38.4300,80,96,146852
1.5934,0.2248,38.3600,80,96,146855
1.6276,0.2248,38.4600,80,96,146859
1.6716,0.2199,38.3600,80,96,146863
1.7155,0.2102,38.3600,80,96,146866
1.6129,0.2248,38.4300,80,96,146870
1.6080,0.2248,38.4000,80,96,146873
1.6667,0.2346,38.1800,80,96,146876
1.6520,0.2297,38.5800,80,96,146880
1.6422,0.2297,38.3300,80,96,146883
1.6276,0.2248,38.4300,80,96,146886
1.6276,0.2248,38.0500,80,96,146889
1.6618,0.2395,38.2700,80,96,146893
1.6471,0.2248,38.4000,80,96,146896
1.6569,0.2248,38.2700,80,96,146899
1.6520,0.2248,38.4300,80,96,146904
1.6471,0.2297,38.4300,80,96,146907
1.6813,0.2248,38.3600,80,96,146910
1.6764,0.2248,38.4000,80,96,146914
1.7107,0.2199,38.3300,80,96,146917
1.6764,0.2248,38.4000,80,96,146920
1.6813,0.2102,38.4300,80,96,146924
1.7155,0.2297,38.3000,80,96,146927
1.7107,0.2248,38.4300,80,96,146930
1.7449,0.2248,38.1800,80,96,146934
1.7400,0.2199,38.3300,80,96,146937
1.7400,0.2199,38.4300,80,96,146940
1.7644,0.2395,38.3300,80,96,146944
1.7400,0.2199,38.4300,80,96,146948
1.7791,0.2297,38.2400,80,96,146951
1.7644,0.2199,38.3300,80,96,146954
1.7546,0.2199,38.5200,80,96,146958
1.7840,0.2248,38.4300,80,96,146961
1.7791,0.2248,38.4300,80,96,146964
1.8280,0.2346,38.1500,80,96,146968
1.7937,0.2248,38.3300,80,96,146971
1.7986,0.2199,38.4000,80,96,146974
1.8133,0.2199,38.4300,80,96,146978
1.8328,0.2248,38.4600,80,96,146981
1.9159,0.2395,38.2700,80,96,146984
1.8719,0.2248,38.4000,80,96,146988
1.8768,0.2248,38.3300,80,96,146992
1.8573,0.2248,38.4900,80,96,146995
1.8426,0.2248,38.4000,80,96,146998
1.8768,0.2346,38.2400,80,96,147002
1.8377,0.2346,38.4000,80,96,147005
1.8524,0.2297,38.2700,80,96,147008
1.8182,0.2248,38.5200,80,96,147012
1.8328,0.2248,38.4000,80,96,147015
1.8719,0.2248,38.3300,80,96,147018
1.8426,0.2248,38.4000,80,96,147022
1.8671,0.1906,38.2700,80,96,147025
1.8182,0.2199,38.3600,80,96,147028
1.8231,0.2102,38.4300,80,96,147032
1.8377,0.2248,38.3000,80,96,147036
1.8328,0.2199,38.4300,80,96,147039
1.8768,0.2297,38.2100,80,96,147042
1.8426,0.2248,38.4000,80,96,147046
1.8524,0.2248,38.4300,80,96,147049
1.8719,0.2395,38.3600,80,96,147052
1.8768,0.2248,38.4900,80,96,147056
1.9306,0.2297,38.1100,80,96,147059
1.8964,0.2346,38.3300,80,96,147062
1.8817,0.2199,38.5800,80,96,147066
1.8964,0.2297,38.4000,80,96,147069
1.8915,0.2248,38.5200,80,96,147073
1.9599,0.2493,38.2400,80,96,147076
1.9355,0.2297,38.3000,80,96,147080
1.9306,0.2248,38.3600,80,96,147083
1.9306,0.2248,38.4300,80,96,147086
1.9208,0.2248,38.6500,80,96,147090
1.9501,0.2248,38.2400,80,96,147093
1.9208,0.2248,38.4000,80,96,147096
1.9306,0.2248,38.3300,80,96,147100
1.9110,0.2248,38.4300,80,96,147103
1.9159,0.2248,38.5200,80,96,147106
1.9355,0.2346,38.3600,80,96,147109
1.9208,0.2248,38.4300,80,96,147113
1.9404,0.2297,38.3300,80,96,147117
1.9062,0.2248,38.4300,80,96,147120
1.8964,0.2248,38.4300,80,96,147124
1.9208,0.2346,38.3000,80,96,147127
1.8866,0.2248,37.7100,80,96,147130
1.9013,0.2248,38.2400,80,96,147134
1.8817,0.2199,38.3300,80,96,147137
1.8817,0.2248,38.4900,80,96,147140
1.9062,0.2297,38.3000,80,96,147144
1.8768,0.2248,38.4900,80,96,147147
1.9110,0.2346,38.1800,80,96,147150
1.8817,0.2248,38.3300,80,96,147153
1.8622,0.2248,38.4000,80,96,147158
1.8768,0.2102,38.4000,80,96,147161
1.8524,0.2248,38.4300,80,96,147164
1.8915,0.2297,38.1100,80,96,147168
1.8524,0.2248,38.3300,80,96,147171
1.8524,0.2199,38.4000,80,96,147174
1.8622,0.2248,38.4000,80,96,147178
1.8475,0.2395,38.4000,80,96,147181
1.8817,0.2395,38.2400,80,96,147184
1.8426,0.2297,38.3600,80,96,147188
1.8377,0.2297,38.3300,80,96,147191
1.8426,0.2248,38.4000,80,96,147194
1.8426,0.2248,38.4000,80,96,147197
1.8671,0.2297,38.2400,80,96,147202
1.8328,0.2102,38.4000,80,96,147205
1.8377,0.2248,38.3000,80,96,147208
1.8084,0.2199,38.5200,80,96,147212
1.8084,0.2248,38.4600,80,96,147215
1.8426,0.2297,38.3000,80,96,147218
1.8328,0.2248,38.4000,80,96,147222
1.8622,0.2395,38.3600,80,96,147225
1.8328,0.2248,38.4000,80,96,147228
1.8280,0.2248,38.4600,80,96,147231
1.8671,0.2199,38.3300,80,96,147235
1.8328,0.2248,38.3000,80,96,147238
1.8573,0.2248,38.2400,80,96,147241
1.8280,0.2248,38.4300,80,96,147246
1.8328,0.2248,38.4300,80,96,147249
1.8622,0.2297,38.3600,80,96,147252
1.8426,0.2346,38.4600,80,96,147256
1.8866,0.2346,38.1800,80,96,147259
1.8671,0.2297,38.3300,80,96,147262
1.8573,0.2248,38.4300,80,96,147266
1.8719,0.2542,38.3600,80,96,147269
1.8573,0.2248,38.4300,80,96,147272
1.9208,0.2395,38.1500,80,96,147275
1.8915,0.2248,38.3000,80,96,147279
1.8768,0.2199,38.3000,80,96,147282
1.8915,0.2444,38.4000,80,96,147286
1.8915,0.2102,38.4600,80,96,147290
1.9453,0.2395,38.4000,80,96,147293
1.8964,0.2297,38.4300,80,96,147296
1.8866,0.2199,38.3000,80,96,147300
1.8719,0.2395,38.4600,80,96,147303
1.8622,0.2248,38.4300,80,96,147306
1.8768,0.2297,38.3300,80,96,147310
1.8719,0.2297,38.4000,80,96,147313
1.8622,0.2248,38.3300,80,96,147316
1.8377,0.2102,38.4000,80,96,147319
1.8280,0.2248,38.4300,80,96,147323
1.8524,0.2297,38.3300,80,96,147326
1.8280,0.2248,38.4300,80,96,147330
1.8671,0.2248,38.2700,80,96,147334
1.8475,0.2248,38.3600,80,96,147337
1.8671,0.2199,38.4300,80,96,147340
1.9013,0.2199,38.2700,80,96,147344
1.8768,0.2248,38.4900,80,96,147347
1.9013,0.2199,38.3000,80,96,147350
1.8768,0.2248,38.3600,80,96,147354
1.8671,0.2248,38.4000,80,96,147357
1.8719,0.2297,38.3600,80,96,147360
1.8280,0.2248,38.4000,80,96,147363
1.8573,0.2444,38.1500,80,96,147367
1.8133,0.2199,38.3600,80,96,147371
1.8133,0.2151,38.4300,80,96,147374
1.8280,0.2248,38.4000,80,96,147378
1.8231,0.2248,38.4300,80,96,147381
1.8768,0.2395,38.2100,80,96,147384
1.8377,0.2493,38.3300,80,96,147388
1.8328,0.2199,38.3600,80,96,147391
1.8377,0.2248,38.2100,80,96,147394
1.8426,0.2248,38.4300,80,96,147398
1.8768,0.2444,38.2400,80,96,147401
1.8475,0.2297,38.4000,80,96,147404
1.8377,0.2248,38.5200,80,96,147407
1.7937,0.2248,38.4300,80,96,147411
1.7742,0.2248,38.4300,80,96,147415
1.7937,0.2297,38.3000,80,96,147418
1.7889,0.2248,38.4300,80,96,147422
1.8426,0.2346,38.2700,80,96,147425
1.8768,0.2248,38.4600,80,96,147428
1.9697,0.2248,38.6500,80,96,147432
2.1017,0.2199,38.3600,80,96,147435
2.2434,0.2248,38.4300,80,96,147438
2.4145,0.2248,38.2100,80,96,147442
2.5171,0.2248,38.4300,80,96,147445
2.6246,0.2248,38.4600,80,96,147448
2.7713,0.2297,38.3300,80,96,147451
2.9179,0.2248,38.4000,80,96,147456
3.2111,0.2297,38.1500,80,96,147459
3.2258,0.2297,38.3300,80,96,147462
3.0596,0.2199,38.4300,80,96,147466
2.8055,0.2297,38.3300,80,96,147469
2.4340,0.2248,38.4000,80,96,147472
2.1554,0.2346,38.1800,80,96,147476
1.4174,0.2346,38.3000,80,96,147479
1.4076,0.2297,38.4000,80,96,147483
1.4418,0.2248,38.3000,80,96,147486
1.5005,0.2102,38.4300,80,96,147489
1.5152,0.2199,38.4300,80,96,147493
1.5787,0.2102,38.4300,80,96,147496
1.5689,0.2248,38.4300,80,96,147500
1.5885,0.2542,38.3000,80,96,147503
1.5591,0.2199,38.4000,80,96,147507
1.5494,0.2151,38.4300,80,96,147510
1.5689,0.2297,38.3000,80,96,147513
1.5494,0.2248,38.4000,80,96,147517
1.5738,0.2199,38.2700,80,96,147520
1.5494,0.2248,38.3600,80,96,147523
1.5347,0.2199,38.4300,80,96,147527
1.5591,0.2297,38.2700,80,96,147530
1.5640,0.2248,38.4300,80,96,147533
1.6031,0.2297,38.2100,80,96,147537
1.5934,0.2297,38.4000,80,96,147540
1.6031,0.2199,38.4300,80,96,147544
1.6276,0.2297,38.3600,80,96,147547
1.6227,0.2248,38.4300,80,96,147551
1.6862,0.2297,38.1500,80,96,147554
1.6764,0.2199,38.3300,80,96,147557
1.6862,0.2199,38.4300,80,96,147561
1.7058,0.2444,38.4000,80,96,147564
1.7058,0.2248,38.4300,80,96,147567
1.7693,0.2395,38.4600,80,96,147571
1.7351,0.2248,38.3600,80,96,147574
1.7302,0.2199,38.3600,80,96,147577
1.7351,0.2248,38.4300,80,96,147581
1.7155,0.2248,38.4900,80,96,147585
1.7546,0.2346,38.2400,80,96,147588
1.7351,0.2248,38.3600,80,96,147591
1.7546,0.2542,38.3000,80,96,147595
1.7595,0.2248,38.4600,80,96,147598
1.7791,0.2199,38.4900,80,96,147601
1.8231,0.2346,38.3300,80,96,147605
1.8084,0.2248,38.5200,80,96,147608
1.8328,0.2199,38.3300,80,96,147611
1.7986,0.2199,38.4300,80,96,147615
1.7937,0.2199,38.4000,80,96,147618
1.8182,0.2199,38.3600,80,96,147621
1.8231,0.2248,38.4300,80,96,147624
1.8622,0.2248,38.2400,80,96,147629
1.8426,0.2248,38.4300,80,96,147632
1.8475,0.2297,38.4300,80,96,147635
1.8719,0.2297,38.3600,80,96,147639
1.8426,0.2248,38.4300,80,96,147642
1.8768,0.2297,38.1500,80,96,147645
1.8475,0.2297,38.3600,80,96,147649
1.8328,0.2248,38.4300,80,96,147652
1.8231,0.2346,38.4000,80,96,147655
1.8377,0.2102,38.4300,80,96,147659
1.8524,0.2297,38.2100,80,96,147662
1.8231,0.2297,38.3000,80,96,147665
1.8182,0.2199,38.4000,80,96,147670
1.8280,0.2248,38.4000,80,96,147673
1.8426,0.2248,38.4300,80,96,147676
1.8866,0.2395,38.2700,80,96,147679
1.8622,0.2346,38.3600,80,96,147683
1.8573,0.2248,38.3300,80,96,147686
1.8573,0.2297,38.4000,80,96,147689
1.8671,0.2248,38.4300,80,96,147693
1.8964,0.2395,38.3600,80,96,147696
1.8866,0.2248,38.4300,80,96,147699
1.9159,0.2297,38.2700,80,96,147703
1.9013,0.2248,38.4300,80,96,147706
1.9013,0.2199,38.4000,80,96,147709
1.9453,0.2395,38.3000,80,96,147713
1.9062,0.2248,38.4900,80,96,147717
1.9404,0.2248,38.2700,80,96,147720
1.9257,0.2199,38.3600,80,96,147723
1.9306,0.2248,38.4900,80,96,147727
1.9550,0.2297,38.2400,80,96,147730
1.9208,0.2248,38.3300,80,96,147733
1.9501,0.2395,38.2100,80,96,147737
1.9208,0.2199,38.3600,80,96,147740
1.8964,0.2199,38.4300,80,96,147743
1.9062,0.2297,38.3300,80,96,147747
1.8671,0.2248,38.4000,80,96,147750
1.8964,0.2346,38.1500,80,96,147753
1.8426,0.2199,38.3300,80,96,147757
1.8280,0.2248,38.4000,80,96,147761
1.8328,0.2248,38.4300,80,96,147764
1.8182,0.2248,38.4000,80,96,147767
1.8671,0.2395,38.2100,80,96,147771
1.8280,0.2297,38.3300,80,96,147774
1.8084,0.2248,38.4300,80,96,147777
1.8084,0.2248,38.4000,80,96,147781
1.8035,0.2297,38.4300,80,96,147784
1.8475,0.2297,38.2400,80,96,147787
1.8231,0.2248,38.3600,80,96,147791
1.8133,0.2248,38.3000,80,96,147794
1.7986,0.2199,38.4000,80,96,147798
1.8280,0.2199,38.4000,80,96,147801
1.8280,0.2297,38.2700,80,96,147805
1.8133,0.2248,38.4000,80,96,147808
1.8573,0.2297,38.3000,80,96,147811
1.8084,0.2248,38.3300,80,96,147815
1.8084,0.2199,38.4300,80,96,147818
1.8231,0.2199,38.3300,80,96,147821
1.8133,0.2297,38.4000,80,96,147825
1.8328,0.2102,38.2700,80,96,147828
1.8084,0.2248,38.4300,80,96,147831
1.8182,0.2248,38.4300,80,96,147834
1.8475,0.2297,38.4300,80,96,147838
1.8524,0.2199,38.4300,80,96,147842
1.8622,0.2297,37.7700,80,96,147845
1.8524,0.2297,38.3600,80,96,147849
1.8426,0.1906,38.4300,80,96,147852
1.8573,0.2639,38.3600,80,96,147855
1.8377,0.2199,38.4300,80,96,147859
1.8817,0.2297,38.1500,80,96,147862
1.8426,0.2248,38.3000,80,96,147865
1.8280,0.2199,38.3600,80,96,147869
1.8573,0.2102,38.4300,80,96,147872
1.8328,0.2248,38.5500,80,96,147875
1.8817,0.2395,38.3000,80,96,147878
1.8426,0.2297,38.3600,80,96,147883
1.8328,0.2199,38.3300,80,96,147886
1.8328,0.2248,38.4300,80,96,147889
1.8328,0.2297,38.4300,80,96,147893
1.8622,0.2346,38.3600,80,96,147896
1.8377,0.2248,38.4000,80,96,147899
1.8573,0.2102,38.3000,80,96,147903
1.8231,0.2248,38.4300,80,96,147906
1.8133,0.2248,38.4300,80,96,147909
1.8475,0.2297,38.3300,80,96,147913
1.8182,0.2102,38.4300,80,96,147916
1.8328,0.2297,38.4300,80,96,147919
1.8084,0.2346,38.3600,80,96,147923
1.8035,0.2199,38.4300,80,96,147927
1.8280,0.2346,38.3000,80,96,147930
1.8084,0.2199,38.4600,80,96,147933
1.8280,0.2248,38.2400,80,96,147937
1.8084,0.2248,38.3600,80,96,147940
1.8035,0.2199,38.4000,80,96,147943
1.8231,0.2297,38.3300,80,96,147947
1.8035,0.2248,38.4300,80,96,147950
1.8475,0.2346,38.1800,80,96,147953
1.8035,0.2151,38.4300,80,96,147957
1.8084,0.2248,38.3600,80,96,147960
1.8231,0.2444,38.4000,80,96,147963
1.8182,0.2199,38.4600,80,96,147968
1.8719,0.2346,38.1500,80,96,147971
1.8377,0.2199,38.3300,80,96,147974
1.8280,0.2199,38.4000,80,96,147977
1.8377,0.2346,38.4000,80,96,147981
1.8231,0.2199,38.4300,80,96,147984
1.8622,0.2395,38.3000,80,96,147987
1.8328,0.2297,38.3300,80,96,147991
1.8231,0.2248,38.4900,80,96,147994
1.8084,0.2102,38.4300,80,96,147997
1.8133,0.2199,38.4300,80,96,148001
1.8377,0.2248,38.2700,80,96,148004
1.8133,0.2248,38.4300,80,96,148007
1.8231,0.2248,38.2400,80,96,148011
1.8231,0.2102,38.4300,80,96,148015
1.7889,0.2248,38.4300,80,96,148018
1.7986,0.2199,38.3300,80,96,148021
1.7937,0.2248,38.5800,80,96,148025
1.8280,0.2151,38.3000,80,96,148028
1.8035,0.2248,38.4600,80,96,148031
1.8280,0.2102,38.4300,80,96,148035
1.8231,0.2297,38.3300,80,96,148038
1.7889,0.2102,38.4300,80,96,148041
1.8133,0.2248,38.3000,80,96,148045
1.7986,0.2493,38.3300,80,96,148048
1.7986,0.2248,38.4000,80,96,148051
1.8475,0.2297,38.4300,80,96,148055
1.8768,0.2248,38.4000,80,96,148059
2.0137,0.2346,38.2100,80,96,148062
2.0968,0.2248,38.2700,80,96,148065
2.2239,0.2542,38.4000,80,96,148069
2.3607,0.2248,38.4300,80,96,148072
2.4487,0.2248,38.4300,80,96,148075
2.6149,0.2297,38.1500,80,96,148079
2.6833,0.2297,38.3000,80,96,148082
2.8348,0.2493,38.3300,80,96,148085
3.0156,0.2248,38.4300,80,96,148089
1.9062,0.2248,38.4300,80,96,148092
1.6471,0.2590,38.4300,80,96,148097
1.4956,0.2346,38.2700,80,96,148100
1.3734,0.2297,38.4000,80,96,148103
1.3685,0.2199,38.3000,80,96,148106
1.3539,0.2199,38.3600,80,96,148110
1.3930,0.2199,38.4300,80,96,148113
1.4614,0.2542,38.3000,80,96,148116
1.5152,0.2297,38.4000,80,96,148120
1.5934,0.2248,38.2100,80,96,148123
1.6178,0.2248,38.3600,80,96,148126
1.6227,0.2248,38.4300,80,96,148130
1.6373,0.2297,38.3600,80,96,148133
1.5982,0.2199,38.4300,80,96,148136
1.6178,0.2297,38.1500,80,96,148141
1.5738,0.2199,38.3300,80,96,148144
1.5738,0.2199,38.4000,80,96,148147
1.5836,0.2297,38.4000,80,96,148150
1.5934,0.2248,38.5200,80,96,148154
1.6422,0.2444,38.1800,80,96,148157
1.6080,0.2297,38.3600,80,96,148160
1.6080,0.2199,38.3000,80,96,148164
1.6227,0.2102,38.4000,80,96,148167
1.6178,0.2199,38.4300,80,96,148170
1.6618,0.2297,38.2400,80,96,148174
1.6471,0.2297,38.3600,80,96,148177
1.6569,0.2297,38.3000,80,96,148180
1.6569,0.2248,38.4300,80,96,148185
1.6618,0.2199,38.4900,80,96,148188
1.6960,0.2297,38.2700,80,96,148191
1.6862,0.2248,38.4300,80,96,148194
1.7058,0.2297,38.3300,80,96,148198
1.7204,0.2248,38.4600,80,96,148201
1.6960,0.2199,38.4000,80,96,148204
1.7107,0.2542,38.3300,80,96,148208
1.7155,0.2248,38.4300,80,96,148211
1.7400,0.2248,38.4300,80,96,148214
1.7204,0.2248,38.4300,80,96,148218
1.7351,0.2199,38.4900,80,96,148221
1.7595,0.2199,38.3300,80,96,148225
1.7400,0.2199,38.4900,80,96,148229
1.7840,0.2346,38.1800,80,96,148232
1.7742,0.2297,38.3300,80,96,148235
1.7644,0.2199,38.4000,80,96,148238
1.7937,0.2297,38.3000,80,96,148242
1.7644,0.2199,38.3600,80,96,148245
1.8182,0.2199,38.1800,80,96,148248
1.7889,0.2248,38.3000,80,96,148252
1.7742,0.2199,38.4000,80,96,148255
1.7791,0.2297,38.4300,80,96,148258
1.7693,0.2199,38.4300,80,96,148262
1.8231,0.2395,38.1800,80,96,148265
1.7937,0.2297,38.3300,80,96,148269
1.7840,0.2199,38.3300,80,96,148272
1.7840,0.2248,38.4300,80,96,148276
1.7742,0.2248,38.4000,80,96,148279
1.8084,0.2346,38.3000,80,96,148282
1.7742,0.2248,38.4000,80,96,148286
1.7840,0.2248,38.2700,80,96,148289
1.7595,0.2248,38.4300,80,96,148292
1.7546,0.2199,38.4600,80,96,148296
1.7791,0.2346,38.2400,80,96,148299
1.7400,0.2248,38.4000,80,96,148302
1.7546,0.2297,38.3600,80,96,148306
1.7302,0.2102,38.4000,80,96,148310
1.7351,0.2248,38.4300,80,96,148313
1.7693,0.2199,38.3000,80,96,148316
1.7546,0.2248,38.4600,80,96,148320
1.7889,0.2199,38.2400,80,96,148323
1.7889,0.2199,38.3600,80,96,148326
1.8133,0.2248,38.4000,80,96,148330
1.8573,0.2297,38.3300,80,96,148333
1.8524,0.2248,38.4000,80,96,148336
1.9159,0.2297,38.1800,80,96,148340
1.8719,0.2199,38.3600,80,96,148343
1.8866,0.2102,38.4300,80,96,148346
1.9062,0.2248,38.4000,80,96,148350
1.8964,0.2248,38.4300,80,96,148354
1.9453,0.2297,38.3000,80,96,148357
1.9013,0.2346,38.3600,80,96,148360
1.8817,0.2102,38.4300,80,96,148364
1.9013,0.2297,38.4600,80,96,148367
1.9013,0.2199,38.4300,80,96,148370
1.9501,0.2395,38.3300,80,96,148374
1.9208,0.2297,38.4000,80,96,148377
1.8964,0.2199,38.3300,80,96,148380
1.8719,0.2248,38.4000,80,96,148384
1.8671,0.2102,38.4300,80,96,148387
1.9062,0.2297,38.0200,80,96,148390
1.8866,0.2248,38.4000,80,96,148393
1.8964,0.2248,38.3300,80,96,148398
1.8573,0.2248,37.7100,80,96,148401
1.8573,0.1906,38.4300,80,96,148404
1.8622,0.2248,38.3600,80,96,148408
1.8475,0.2102,38.4300,80,96,148411
1.8622,0.2297,38.3000,80,96,148414
1.8231,0.2248,38.4300,80,96,148418
1.8182,0.2199,38.4300,80,96,148421
1.8426,0.2102,38.2700,80,96,148424
1.8084,0.2248,38.4000,80,96,148428
1.8426,0.2248,38.2100,80,96,148431
1.8182,0.2248,38.4300,80,96,148434
1.8084,0.2297,38.4600,80,96,148438
1.8328,0.2297,38.3300,80,96,148442
1.8084,0.2248,38.4300,80,96,148445
1.8475,0.2346,38.1800,80,96,148448
1.8182,0.2248,38.3000,80,96,148452
1.8280,0.2199,38.4300,80,96,148455
1.8182,0.2248,38.3000,80,96,148458
1.8084,0.2248,38.4300,80,96,148462
1.8671,0.2395,38.1500,80,96,148465
1.8328,0.2297,38.3000,80,96,148468
1.8182,0.2199,38.3600,80,96,148472
1.8280,0.2542,38.4000,80,96,148475
1.8231,0.2199,38.4300,80,96,148478
1.8671,0.2346,38.2700,80,96,148483
1.8475,0.2297,38.4000,80,96,148486
1.8524,0.2248,38.3000,80,96,148489
1.8475,0.2346,38.4000,80,96,148492
1.8475,0.2102,38.4300,80,96,148496
1.8817,0.2297,37.5300,80,96,148499
1.8573,0.2248,38.4000,80,96,148502
1.8817,0.2248,38.6500,80,96,148506
1.8622,0.2248,38.4900,80,96,148509
1.8671,0.2199,38.4600,80,96,148512
1.8915,0.2493,38.3600,80,96,148516
1.8671,0.2199,38.4300,80,96,148519
1.8915,0.2248,38.2700,80,96,148523
1.8671,0.2151,38.3600,80,96,148526
1.8719,0.2248,38.4600,80,96,148530
1.9062,0.2199,38.2700,80,96,148533
1.8719,0.2248,38.4300,80,96,148536
1.8915,0.2248,38.1800,80,96,148540
1.8524,0.2199,38.4900,80,96,148543
1.8475,0.2444,38.4300,80,96,148546
1.8622,0.2346,38.3600,80,96,148550
1.8377,0.2199,38.4300,80,96,148553
1.8817,0.2297,38.1800,80,96,148556
1.8426,0.2639,38.3300,80,96,148560
1.8182,0.2199,38.4300,80,96,148563
1.8182,0.2199,38.4000,80,96,148567
1.8035,0.2199,38.4300,80,96,148570
1.8573,0.2395,38.2100,80,96,148574
1.8182,0.2297,38.3300,80,96,148577
1.7937,0.2199,38.4000,80,96,148580
1.7937,0.2590,38.4000,80,96,148584
1.7889,0.2199,38.4300,80,96,148587
1.8280,0.2346,38.3000,80,96,148590
1.8035,0.2151,38.3600,80,96,148594
1.8182,0.2248,38.3000,80,96,148597
1.7986,0.2248,38.4300,80,96,148600
1.8084,0.2199,38.4300,80,96,148604
1.8280,0.2297,38.3600,80,96,148608
1.8133,0.2102,38.4300,80,96,148611
1.8377,0.2297,38.3300,80,96,148614
1.8084,0.2199,38.4300,80,96,148618
1.8133,0.2199,38.4300,80,96,148621
1.8426,0.2297,38.3000,80,96,148624
1.8231,0.2199,38.4300,80,96,148628
1.8573,0.2248,38.3000,80,96,148631
1.8377,0.2248,38.3300,80,96,148634
1.8328,0.2199,38.4300,80,96,148638
1.8573,0.2346,38.3000,80,96,148641
1.8328,0.2199,38.4300,80,96,148644
1.8768,0.2297,38.1100,80,96,148648
1.8426,0.2248,38.4300,80,96,148652
1.8328,0.2199,38.4600,80,96,148655
1.8426,0.2297,38.4300,80,96,148658
1.8231,0.2199,38.4600,80,96,148662
1.8817,0.2297,38.1100,80,96,148665
1.8426,0.2248,38.3000,80,96,148668
1.8328,0.2199,38.3600,80,96,148672
1.8328,0.2248,38.4600,80,96,148675
1.8182,0.2199,38.4300,80,96,148678
1.8622,0.2395,38.2400,80,96,148682
1.8280,0.2248,38.3300,80,96,148685
1.8573,0.2102,38.3600,80,96,148688
1.8182,0.2248,38.4000,80,96,148692
1.8182,0.2248,38.4300,80,96,148696
1.8524,0.2297,38.2700,80,96,148699
1.8133,0.2248,38.3000,80,96,148703
1.7986,0.2199,38.4300,80,96,148706
1.8280,0.2248,38.0200,80,96,148709
1.8035,0.2248,38.3600,80,96,148713
1.8035,0.2199,38.4300,80,96,148716
1.8280,0.2297,38.3600,80,96,148719
1.8426,0.2199,38.4300,80,96,148723
1.8475,0.2297,38.2100,80,96,148726
1.8182,0.2102,38.3600,80,96,148729
1.8231,0.2199,38.5500,80,96,148733
1.8377,0.2199,38.4300,80,96,148737
1.8328,0.2248,38.4000,80,96,148740
1.9110,0.2395,38.1500,80,96,148744
1.8426,0.2248,38.3600,80,96,148747
1.8280,0.2151,38.3600,80,96,148750
1.8328,0.2248,38.4900,80,96,148754
1.8280,0.2248,38.4300,80,96,148757
1.8768,0.2297,38.2700,80,96,148760
1.8817,0.2199,38.4300,80,96,148763
1.8524,0.2248,38.3300,80,96,148767
1.8377,0.2248,38.4000,80,96,148770
1.8524,0.2102,38.4300,80,96,148773
1.8622,0.2493,38.2400,80,96,148777
1.8377,0.2248,38.4300,80,96,148781
1.8524,0.2248,38.2100,80,96,148784
1.8231,0.2248,38.4300,80,96,148788
1.8231,0.2199,38.3300,80,96,148791
1.8377,0.2199,38.3300,80,96,148794
1.8231,0.2248,38.4600,80,96,148798
1.8475,0.2248,38.2700,80,96,148801
1.8182,0.2248,38.4600,80,96,148804
1.8133,0.2248,38.4000,80,96,148807
1.8328,0.2297,38.3600,80,96,148811
1.8182,0.2151,38.4300,80,96,148814
1.8622,0.2248,38.1800,80,96,148817
1.8426,0.2297,38.3300,80,96,148822
1.8426,0.2248,38.4300,80,96,148825
1.8573,0.2297,38.4000,80,96,148828
1.8377,0.2248,38.4000,80,96,148832
1.8915,0.2297,38.1500,80,96,148835
1.8622,0.2199,38.3000,80,96,148838
1.8524,0.1906,38.4300,80,96,148842
1.8426,0.2297,37.8000,80,96,148845
1.8231,0.2248,38.4000,80,96,148848
1.8768,0.2395,38.1800,80,96,148851
1.8426,0.2297,38.3600,80,96,148855
1.8671,0.2199,38.3300,80,96,148858
1.9208,0.2346,38.4300,80,96,148861
2.0137,0.1906,38.4300,80,96,148866
2.1652,0.2297,38.3600,80,96,148869
2.2434,0.2248,38.4000,80,96,148872
2.3705,0.2199,38.3000,80,96,148876
2.4096,0.2248,38.4300,80,96,148879
2.4682,0.2444,38.4300,80,96,148882
2.5806,0.2346,38.2400,80,96,148885
2.6588,0.2248,38.4600,80,96,148889
2.8250,0.2199,38.3000,80,96,148892
2.8935,0.2199,38.4300,80,96,148895
2.8592,0.2199,38.4300,80,96,148899
2.6882,0.2297,38.3000,80,96,148902
2.3412,0.2102,38.4000,80,96,148905
2.0235,0.2199,38.3000,80,96,148910
1.7058,0.2151,38.3300,80,96,148913
1.5152,0.2199,38.4300,80,96,148916
1.4418,0.2248,37.5600,80,96,148919
1.3978,0.2248,38.4300,80,96,148923
1.4272,0.2248,38.2100,80,96,148926
1.4418,0.2199,38.4000,80,96,148929
1.4956,0.2199,38.4300,80,96,148933
1.5787,0.2444,38.4000,80,96,148936
1.6276,0.2199,38.4300,80,96,148939
1.7009,0.2297,38.1500,80,96,148943
1.6764,0.2248,38.3600,80,96,148946
1.6618,0.2199,38.4600,80,96,148950
1.6813,0.2199,38.4000,80,96,148954
1.6373,0.2199,38.1500,80,96,148957
1.6716,0.2346,38.2400,80,96,148960
1.6276,0.2297,38.2100,80,96,148963
1.6080,0.2444,38.3300,80,96,148967
1.6031,0.2248,38.4600,80,96,148970
1.6031,0.2199,38.4000,80,96,148973
1.6422,0.2297,38.2400,80,96,148977
1.6227,0.2248,38.4000,80,96,148980
1.6325,0.2297,38.3000,80,96,148983
1.6227,0.2199,38.4300,80,96,148987
1.6276,0.2199,38.4300,80,96,148990
1.6618,0.2297,38.4000,80,96,148994
1.6569,0.2248,38.4000,80,96,148998
1.6862,0.2395,38.3300,80,96,149001
1.6667,0.2248,38.4900,80,96,149004
1.6667,0.2395,38.4300,80,96,149007
1.6911,0.2297,38.3000,80,96,149011
1.6764,0.2199,38.4000,80,96,149014
1.7009,0.2199,38.2700,80,96,149017
1.6862,0.2199,38.3300,80,96,149021
1.7009,0.2199,38.4300,80,96,149024
1.7302,0.2346,38.3000,80,96,149027
1.7204,0.2248,38.4300,80,96,149031
1.7644,0.2346,38.2400,80,96,149035
1.7449,0.2297,38.3600,80,96,149038
1.7400,0.2199,38.4600,80,96,149041
1.7546,0.2199,38.3600,80,96,149045
1.7400,0.2199,38.4300,80,96,149048
1.7937,0.2297,38.2400,80,96,149051
1.7693,0.2248,38.3300,80,96,149055
1.7644,0.2199,38.4900,80,96,149058
1.7693,0.2297,38.4300,80,96,149061
1.7693,0.2199,38.4300,80,96,149065
1.8328,0.2395,38.2400,80,96,149068
1.7986,0.2248,38.4900,80,96,149071
1.8133,0.2199,38.3600,80,96,149075
1.8182,0.2248,38.4600,80,96,149079
1.8182,0.2151,38.4300,80,96,149082
1.8573,0.2297,38.2700,80,96,149085
1.8328,0.2199,38.4000,80,96,149089
1.8524,0.2199,38.3000,80,96,149092
1.8328,0.2199,38.4900,80,96,149095
1.8377,0.2297,38.4300,80,96,149099
1.8671,0.2297,38.3300,80,96,149102
1.8328,0.2248,38.4000,80,96,149105
1.8524,0.2346,38.3000,80,96,149109
1.8182,0.2199,38.4000,80,96,149112
1.8182,0.2199,38.4300,80,96,149115
1.8280,0.2248,38.3600,80,96,149120
1.8084,0.2151,38.4000,80,96,149123
1.8280,0.2248,38.2700,80,96,149126
1.8035,0.2199,38.4000,80,96,149129
1.8133,0.2248,38.4000,80,96,149133
1.8426,0.2297,38.3300,80,96,149136
1.8280,0.2199,38.4300,80,96,149139
1.8719,0.2297,38.1800,80,96,149143
1.8524,0.2248,38.3600,80,96,149146
1.8524,0.2199,38.4300,80,96,149149
1.8768,0.2248,38.1800,80,96,149153
1.8768,0.2199,38.4300,80,96,149156
1.9404,0.2297,38.1100,80,96,149159
1.9159,0.2248,38.3000,80,96,149164
1.9062,0.2199,38.3600,80,96,149167
1.9208,0.2199,38.4300,80,96,149170
1.9208,0.2199,38.5500,80,96,149173
1.9844,0.2444,38.3000,80,96,149177
1.9599,0.2297,38.3300,80,96,149180
1.9550,0.2199,38.2700,80,96,149183
1.9355,0.2248,38.4300,80,96,149187
1.9306,0.2199,38.4600,80,96,149190
1.9844,0.2102,38.3300,80,96,149193
1.9257,0.2248,38.4000,80,96,149197
1.9306,0.2297,38.2700,80,96,149200
1.8964,0.2248,38.4300,80,96,149203
1.8817,0.2199,38.4600,80,96,149208
1.9062,0.2297,38.3000,80,96,149211
1.8719,0.2248,38.4000,80,96,149214
1.8866,0.2248,38.3300,80,96,149217
1.8475,0.2199,38.3600,80,96,149221
1.8426,0.2199,38.4600,80,96,149224
1.8622,0.2248,38.2700,80,96,149227
1.8475,0.2199,38.5200,80,96,149231
1.8817,0.2248,38.2100,80,96,149234
1.8622,0.2248,38.3300,80,96,149237
1.8524,0.2199,38.4300,80,96,149241
1.8719,0.2297,38.4000,80,96,149244
1.8377,0.2590,38.4300,80,96,149248
1.8817,0.2346,38.1800,80,96,149251
1.8377,0.2542,38.3600,80,96,149255
1.8328,0.2102,38.4300,80,96,149258
1.8426,0.2248,38.3600,80,96,149261
1.8231,0.2199,38.4300,80,96,149265
1.8719,0.2444,38.2400,80,96,149268
1.8573,0.2346,38.3000,80,96,149271
1.8328,0.2199,38.3300,80,96,149275
1.8573,0.2248,38.4300,80,96,149278
1.8328,0.2199,38.4300,80,96,149281
1.8719,0.2493,38.3000,80,96,149285
1.8524,0.2297,38.1100,80,96,149288
1.8573,0.2248,38.2700,80,96,149292
1.8475,0.2199,38.4300,80,96,149296
1.8524,0.2199,38.5500,80,96,149299
1.8866,0.2297,38.3000,80,96,149302
1.8524,0.2248,38.4300,80,96,149305
1.8719,0.2639,38.3000,80,96,149309
1.8426,0.2199,38.4300,80,96,149312
1.8328,0.2151,38.4000,80,96,149316
1.8475,0.2102,38.4600,80,96,149319
1.8768,0.2297,38.1800,80,96,149322
1.8524,0.2199,38.4300,80,96,149326
1.8964,0.2297,38.2700,80,96,149329
1.8671,0.2297,38.3300,80,96,149332
1.8475,0.2199,38.5200,80,96,149337
1.8573,0.2248,38.4000,80,96,149340
1.8524,0.2199,38.4000,80,96,149343
1.9062,0.2395,38.1500,80,96,149346
1.8719,0.2297,38.3000,80,96,149350
1.8475,0.2199,38.3600,80,96,149353
1.8426,0.2248,38.4000,80,96,149356
1.8426,0.2199,38.4000,80,96,149360
1.8817,0.2395,38.2700,80,96,149363
1.8524,0.2248,38.4300,80,96,149366
1.8524,0.2151,38.3300,80,96,149370
1.8328,0.2248,38.4600,80,96,149373
1.8719,0.2102,38.4300,80,96,149377
1.8622,0.2297,38.4000,80,96,149381
1.8475,0.2248,38.4000,80,96,149384
1.8671,0.2297,38.3000,80,96,149387
1.8377,0.2248,38.4300,80,96,149391
1.8426,0.2199,38.3000,80,96,149394
1.8573,0.2297,38.3300,80,96,149397
1.8328,0.2248,38.4600,80,96,149400
1.8524,0.2248,38.2700,80,96,149404
1.8280,0.2151,38.4300,80,96,149407
1.8231,0.2199,38.4600,80,96,149410
1.8328,0.2297,38.3000,80,96,149414
1.8133,0.2199,38.4300,80,96,149417
1.8573,0.2346,38.1800,80,96,149421
1.8328,0.2248,38.3300,80,96,149425
1.8182,0.2199,38.4300,80,96,149428
1.8280,0.2297,38.4300,80,96,149431
1.7937,0.2199,38.5500,80,96,149435
1.8377,0.2346,38.1100,80,96,149438
1.7986,0.2248,38.4300,80,96,149441
1.7937,0.2199,38.4000,80,96,149444
1.7986,0.2248,38.4600,80,96,149448
1.7889,0.2395,38.4300,80,96,149451
1.8426,0.2395,38.2400,80,96,149454
1.8133,0.2297,38.5500,80,96,149458
1.8182,0.2248,38.3300,80,96,149462
1.8182,0.2248,38.4300,80,96,149465
1.8475,0.2248,38.4300,80,96,149469
1.8622,0.2297,38.2700,80,96,149472
1.8377,0.2248,38.4300,80,96,149475
1.8426,0.2248,38.3000,80,96,149479
1.8182,0.2444,38.4300,80,96,149482
1.8182,0.2248,38.4300,80,96,149485
1.8475,0.2395,38.3000,80,96,149488
1.8231,0.2248,38.3600,80,96,149492
1.8622,0.2199,38.3300,80,96,149495
1.8475,0.2199,38.4000,80,96,149498
1.8426,0.2199,38.6200,80,96,149502
1.8671,0.2248,38.3300,80,96,149506
1.8426,0.2199,38.3600,80,96,149509
1.8622,0.2248,38.2100,80,96,149513
1.8280,0.2248,38.4000,80,96,149516
1.8377,0.2297,38.4000,80,96,149519
1.8768,0.2297,38.3600,80,96,149523
1.8622,0.2151,38.4300,80,96,149526
1.9062,0.2297,38.1500,80,96,149529
1.8671,0.2248,38.3300,80,96,149532
1.8377,0.2199,38.4300,80,96,149536
1.8377,0.2346,38.4000,80,96,149539
1.8231,0.2199,38.4300,80,96,149542
1.8817,0.2395,38.2100,80,96,149547
1.8573,0.2297,38.3300,80,96,149550
1.8475,0.2199,37.8300,80,96,149553
1.8475,0.2199,38.4300,80,96,149557
1.8524,0.2199,38.6200,80,96,149560
1.8964,0.2639,38.2700,80,96,149563
1.8622,0.2248,38.4000,80,96,149567
1.8719,0.2248,38.3000,80,96,149570
1.8573,0.2297,38.4300,80,96,149573
1.8377,0.2199,38.4300,80,96,149576
1.8622,0.2102,38.4300,80,96,149580
1.8426,0.2248,38.4000,80,96,149583
1.8622,0.2395,38.3300,80,96,149586
1.8328,0.2248,38.3300,80,96,149591
1.8280,0.2248,38.4300,80,96,149594
1.8573,0.2297,38.3300,80,96,149597
1.8328,0.2102,38.4300,80,96,149601
1.8573,0.2248,38.2700,80,96,149604
1.8377,0.2444,38.3300,80,96,149607
1.8231,0.2199,38.4300,80,96,149611
1.8377,0.2346,38.3300,80,96,149614
1.7986,0.2102,38.4600,80,96,149617
1.8328,0.2297,38.1800,80,96,149621
1.8182,0.2199,38.3300,80,96,149624
1.8231,0.2199,38.4600,80,96,149627
1.8817,0.2248,38.4000,80,96,149630
1.9550,0.2248,38.4300,80,96,149635
2.1408,0.2297,38.1500,80,96,149638
2.2385,0.2248,38.3300,80,96,149641
2.3705,0.2151,38.4000,80,96,149645
2.4829,0.2199,38.4300,80,96,149648
2.5513,0.2199,38.4600,80,96,149651
2.6735,0.2395,38.2400,80,96,149655
2.7273,0.2248,38.3600,80,96,149658
2.8739,0.2248,38.3000,80,96,149661
2.9961,0.2248,38.4300,80,96,149665
2.9912,0.2199,38.6500,80,96,149668
2.8788,0.2248,38.2700,80,96,149671
2.5269,0.2248,38.4900,80,96,149675
2.2043,0.2346,38.3000,80,96,149679
1.8768,0.2102,38.4300,80,96,149682
1.6422,0.2248,38.4600,80,96,149685
1.5298,0.2297,38.3000,80,96,149689
1.4565,0.2199,38.4000,80,96,149692
1.4761,0.2444,38.3000,80,96,149695
1.4761,0.2151,38.4000,80,96,149699
1.5298,0.2199,38.3600,80,96,149702
1.6080,0.2199,38.3300,80,96,149705
1.6569,0.2248,38.4600,80,96,149708
1.7058,0.2248,38.1800,80,96,149712
1.6862,0.2102,38.4300,80,96,149715
1.6716,0.2199,38.5200,80,96,149719
1.6716,0.2102,38.3600,80,96,149723
1.6129,0.2248,38.4000,80,96,149726
1.6325,0.2297,38.1800,80,96,149729
1.5885,0.2248,38.3300,80,96,149733
1.5689,0.2248,38.4600,80,96,149736
1.5836,0.2248,38.3600,80,96,149739
1.5738,0.2199,38.4300,80,96,149743
1.6373,0.2297,38.1800,80,96,149746
1.6129,0.2297,38.3300,80,96,149749
1.6178,0.2151,38.3600,80,96,149752
1.6276,0.2297,38.4000,80,96,149756
1.6276,0.2199,38.4600,80,96,149760
1.6764,0.2297,38.2100,80,96,149763
1.6471,0.2102,38.4000,80,96,149767
1.6471,0.2199,38.3300,80,96,149770
1.6471,0.2199,38.4300,80,96,149773
1.6618,0.2199,38.4300,80,96,149777
1.6960,0.2297,38.4000,80,96,149780
1.6813,0.2297,38.4300,80,96,149783
1.7009,0.2248,38.2700,80,96,149787
1.6813,0.2199,38.4300,80,96,149790
1.7155,0.2199,38.4600,80,96,149793
1.7351,0.2297,38.3000,80,96,149796
1.7204,0.2248,38.4300,80,96,149800
1.7449,0.2199,37.7100,80,96,149804
1.7302,0.2248,38.3600,80,96,149807
1.7302,0.2199,38.4300,80,96,149811
1.7791,0.2248,38.2700,80,96,149814
1.7253,0.2199,38.4300,80,96,149817
1.7742,0.2248,38.3600,80,96,149821
1.7986,0.2248,38.4300,80,96,149824
1.7693,0.2199,38.4900,80,96,149827
1.7937,0.2248,38.3600,80,96,149831
1.7889,0.2199,38.4300,80,96,149834
1.8475,0.2297,38.1500,80,96,149837
1.8084,0.2199,38.3600,80,96,149840
1.8035,0.2199,38.4000,80,96,149844
1.8035,0.2248,38.4300,80,96,149848
1.8084,0.2199,38.5200,80,96,149851
1.8622,0.2444,38.1800,80,96,149855
1.8231,0.2248,38.3600,80,96,149858
1.8182,0.2199,38.3300,80,96,149861
1.8133,0.2248,38.3600,80,96,149865
1.8035,0.2151,38.4300,80,96,149868
1.8426,0.2297,38.2700,80,96,149871
1.8671,0.2199,38.4000,80,96,149875
1.8475,0.2248,38.3300,80,96,149878
1.8280,0.2248,38.4000,80,96,149881
1.8133,0.2248,38.4300,80,96,149884
1.8280,0.2297,38.3300,80,96,149889
1.7937,0.2297,38.4000,80,96,149892
1.8475,0.2297,38.3000,80,96,149895
1.7937,0.2199,38.3600,80,96,149899
1.8084,0.2248,38.4300,80,96,149902
1.8231,0.2248,38.2700,80,96,149905
1.8133,0.2248,38.4300,80,96,149909
1.8475,0.2248,38.2400,80,96,149912
1.8328,0.2199,38.4300,80,96,149915
1.8573,0.2199,38.4600,80,96,149919
1.8964,0.2395,38.3600,80,96,149922
1.9306,0.2248,38.4000,80,96,149926
1.9208,0.2199,38.4300,80,96,149929
1.9795,0.2395,38.3300,80,96,149933
1.9453,0.2297,38.3600,80,96,149936
1.9306,0.2199,38.3300,80,96,149940
1.9355,0.2248,38.4300,80,96,149943
1.9208,0.2199,38.4300,80,96,149946
1.9501,0.2395,38.2700,80,96,149950
1.9062,0.2248,38.4000,80,96,149953
1.8915,0.2248,38.2700,80,96,149956
1.8915,0.2102,38.4300,80,96,149960
1.8573,0.2199,38.4300,80,96,149963
1.8866,0.2102,38.3600,80,96,149966
1.8671,0.2248,38.3300,80,96,149970
1.8817,0.2199,38.3000,80,96,149974
1.8426,0.2199,38.4000,80,96,149977
1.8524,0.2151,38.4300,80,96,149980
1.8915,0.2297,38.3000,80,96,149984
1.8719,0.2248,38.4600,80,96,149987
1.8915,0.2248,38.2400,80,96,149990
1.8524,0.2248,38.3300,80,96,149994
1.8328,0.2102,38.4300,80,96,149997
1.8475,0.2297,38.4000,80,96,150000
1.8182,0.2297,38.4300,80,96,150004
1.8573,0.2297,38.2100,80,96,150007
1.8377,0.2151,38.3000,80,96,150010
1.8671,0.2102,38.4300,80,96,150014
1.8671,0.2248,38.4300,80,96,150018
1.8475,0.2151,38.4300,80,96,150021
1.9013,0.2297,38.1500,80,96,150024
1.8524,0.2248,38.3000,80,96,150028
1.8524,0.2151,38.4000,80,96,150031
1.8573,0.2297,38.4000,80,96,150034
1.8426,0.2199,38.6200,80,96,150038
1.8866,0.2346,38.2700,80,96,150041
1.8475,0.2346,38.4000,80,96,150044
1.8524,0.2199,38.3600,80,96,150048
1.8524,0.2199,38.4300,80,96,150051
1.8475,0.2151,38.4300,80,96,150054
1.8622,0.2248,38.3000,80,96,150059
1.8377,0.2248,38.4000,80,96,150062
1.8573,0.2248,38.2700,80,96,150065
1.8377,0.2199,38.4300,80,96,150068
1.8426,0.2248,38.4300,80,96,150072
1.8719,0.2248,38.4000,80,96,150075
1.8426,0.2248,38.4300,80,96,150078
1.8768,0.2199,38.2700,80,96,150082
1.8475,0.2199,38.4000,80,96,150085
1.8426,0.2102,38.4000,80,96,150088
1.8524,0.2248,38.3000,80,96,150092
1.8328,0.2151,38.4300,80,96,150095
1.8768,0.2248,38.2100,80,96,150098
1.8622,0.2248,38.4000,80,96,150103
1.8768,0.2199,38.4300,80,96,150106
1.8915,0.2297,38.4000,80,96,150109
1.8622,0.2199,38.4300,80,96,150112
1.9013,0.2297,38.1800,80,96,150116
1.8622,0.2493,38.3300,80,96,150119
1.8524,0.2199,38.4300,80,96,150122
1.8622,0.2199,38.4300,80,96,150126
1.8524,0.2199,38.4600,80,96,150129
1.8964,0.2395,38.2100,80,96,150132
1.8573,0.2297,38.3000,80,96,150136
1.8328,0.2199,38.3300,80,96,150139
1.8524,0.2199,38.4300,80,96,150142
1.8377,0.2199,38.4900,80,96,150147
1.8768,0.2248,38.2700,80,96,150150
1.8475,0.2248,38.4000,80,96,150153
1.8426,0.2199,38.3300,80,96,150156
1.7986,0.2102,38.4000,80,96,150160
1.8084,0.2199,38.4300,80,96,150163
1.8231,0.2346,38.4000,80,96,150166
1.8133,0.2248,38.4300,80,96,150170
1.8475,0.2297,38.7400,80,96,150173
1.8280,0.2199,38.4600,80,96,150176
1.8328,0.2199,38.4300,80,96,150180
1.8524,0.2297,38.3000,80,96,150183
1.8328,0.2248,38.4000,80,96,150187
1.8573,0.2199,38.2700,80,96,150191
1.8280,0.2199,38.3000,80,96,150194
1.8182,0.2248,38.4300,80,96,150197
1.8426,0.2297,37.9300,80,96,150200
1.8231,0.2395,38.4300,80,96,150204
1.8671,0.2297,38.1800,80,96,150207
1.8426,0.2444,38.3300,80,96,150210
1.8377,0.1906,38.4600,80,96,150214
1.8475,0.2297,38.4300,80,96,150217
1.8377,0.2248,38.4300,80,96,150220
1.8964,0.2297,38.1100,80,96,150224
1.8622,0.2248,38.3000,80,96,150227
1.8671,0.2151,38.4000,80,96,150231
1.8719,0.2346,38.4300,80,96,150235
1.8573,0.2248,38.4000,80,96,150238
1.8866,0.2346,38.2700,80,96,150241
1.8377,0.2248,38.4000,80,96,150244
1.8377,0.2199,38.3600,80,96,150248
1.8377,0.2248,38.4600,80,96,150251
1.8377,0.2199,38.4300,80,96,150254
1.8719,0.2297,38.2400,80,96,150258
1.8524,0.2248,38.4600,80,96,150261
1.8719,0.2248,38.3000,80,96,150264
1.8475,0.2248,38.4300,80,96,150268
1.8377,0.2199,38.4900,80,96,150272
1.8524,0.2297,38.3300,80,96,150275
1.8182,0.2346,38.4000,80,96,150279
1.8622,0.2248,38.3000,80,96,150282
1.8133,0.2151,38.4000,80,96,150285
1.8182,0.2248,38.4000,80,96,150288
1.8426,0.2102,38.3300,80,96,150292
1.8280,0.2199,38.4600,80,96,150295
1.8622,0.2199,38.2100,80,96,150298
1.8280,0.2199,38.4900,80,96,150302
1.8231,0.2199,38.4300,80,96,150305
1.8475,0.2297,38.4900,80,96,150308
1.8280,0.2199,38.4300,80,96,150312
1.8671,0.2248,38.1500,80,96,150316
1.8231,0.2102,38.3300,80,96,150319
1.8133,0.2199,38.4600,80,96,150323
1.8280,0.2102,38.3600,80,96,150326
1.8084,0.2199,38.5500,80,96,150329
1.8671,0.2542,38.1800,80,96,150332
1.8426,0.2297,38.5200,80,96,150336
1.8328,0.2248,38.3600,80,96,150339
1.8426,0.2248,38.4300,80,96,150342
1.8475,0.2199,38.4300,80,96,150346
1.8866,0.2297,38.2700,80,96,150349
1.8671,0.2590,38.3600,80,96,150352
1.8622,0.2199,38.3000,80,96,150356
1.8328,0.2248,38.4600,80,96,150360
1.8231,0.2248,38.4300,80,96,150363
1.8328,0.2297,38.4300,80,96,150367
1.8182,0.2248,38.4300,80,96,150370
1.8524,0.2297,38.3000,80,96,150373
1.8328,0.2248,38.4000,80,96,150376
1.8524,0.2199,38.4300,80,96,150380
1.8719,0.2297,38.2700,80,96,150383
1.8475,0.2248,38.4300,80,96,150386
1.8622,0.2199,38.2700,80,96,150390
1.8377,0.2102,38.3300,80,96,150393
1.8084,0.2199,38.5200,80,96,150396
1.8280,0.2346,38.3000,80,96,150401
1.8133,0.2199,38.4300,80,96,150404
1.8768,0.2248,38.1800,80,96,150407
1.9062,0.2297,38.3600,80,96,150411
1.9892,0.2199,38.4300,80,96,150414
2.1310,0.2297,38.4000,80,96,150417
2.2581,0.2199,38.4600,80,96,150420
2.4633,0.2346,38.2100,80,96,150424
2.5611,0.2199,38.3300,80,96,150427
2.6442,0.2151,38.4300,80,96,150430
2.7615,0.2346,38.4000,80,96,150434
2.9130,0.2199,38.4300,80,96,150437
3.2063,0.2395,38.2400,80,96,150440
3.2747,0.2102,38.4000,80,96,150445
3.1574,0.2199,38.3600,80,96,150448
2.8543,0.2248,38.4000,80,96,150451
2.5024,0.2199,38.4300,80,96,150455
2.1994,0.2297,38.2100,80,96,150458
1.8719,0.2102,38.4000,80,96,150461
1.6373,0.2248,38.3000,80,96,150464
1.4761,0.2199,38.4000,80,96,150468
1.4321,0.2199,38.4600,80,96,150471
1.4027,0.2297,38.3300,80,96,150474
1.3978,0.2297,38.4300,80,96,150478
1.4321,0.2297,38.3000,80,96,150481
1.4516,0.2199,38.4600,80,96,150484
1.5200,0.2102,38.4300,80,96,150489
1.5543,0.2248,38.3300,80,96,150492
1.5787,0.2297,38.4000,80,96,150495
1.6129,0.2199,38.2400,80,96,150498
1.5934,0.2297,38.4300,80,96,150502
1.5640,0.2199,38.4300,80,96,150505
1.5543,0.2297,38.3300,80,96,150508
1.5347,0.2248,38.4300,80,96,150512
1.5689,0.2297,38.2100,80,96,150515
1.5689,0.2248,38.3300,80,96,150518
1.5640,0.2199,38.4300,80,96,150522
1.5836,0.2102,38.3600,80,96,150525
1.5836,0.2199,38.4900,80,96,150529
1.6325,0.2346,38.1800,80,96,150533
1.6813,0.2102,38.3000,80,96,150536
1.6716,0.2248,38.4000,80,96,150540
1.6911,0.2248,38.2700,80,96,150543
1.6911,0.2199,38.4600,80,96,150546
1.6813,0.2199,38.4000,80,96,150549
1.7155,0.2199,38.4000,80,96,150553
1.6911,0.2248,38.4900,80,96,150556
1.7253,0.2248,38.2700,80,96,150559
1.7058,0.2248,38.4300,80,96,150563
1.7155,0.2493,38.4900,80,96,150566
1.7449,0.2346,38.3300,80,96,150569
1.7498,0.2199,38.4300,80,96,150574
1.7840,0.2248,38.2400,80,96,150577
1.7742,0.2199,38.4000,80,96,150580
1.7693,0.2199,38.4000,80,96,150584
1.7986,0.2297,38.3600,80,96,150587
1.7742,0.2248,38.4000,80,96,150590
1.8231,0.2297,38.1800,80,96,150593
1.7937,0.2248,38.2700,80,96,150597
1.7840,0.2151,38.4300,80,96,150600
1.7986,0.2297,38.4300,80,96,150603
1.7889,0.2444,38.4300,80,96,150607
1.8475,0.2297,38.1500,80,96,150610
1.8328,0.2199,38.3300,80,96,150614
1.8084,0.2151,38.4000,80,96,150618
1.8084,0.2248,38.4000,80,96,150621
1.8035,0.1906,38.4300,80,96,150624
1.8475,0.2346,38.2400,80,96,150628
1.8035,0.2248,38.3600,80,96,150631
1.8084,0.2199,38.3600,80,96,150634
1.7986,0.2199,38.4300,80,96,150637
1.7937,0.2199,38.5200,80,96,150641
1.8231,0.2248,38.2400,80,96,150644
1.7889,0.2248,38.2700,80,96,150647
1.7986,0.2199,38.2700,80,96,150651
1.7742,0.2199,38.4600,80,96,150654
1.7693,0.2199,38.3000,80,96,150658
1.7937,0.2297,38.3000,80,96,150662
1.7742,0.2248,38.4300,80,96,150665
1.8035,0.2248,38.3000,80,96,150668
1.7791,0.2248,38.4000,80,96,150672
1.7937,0.2199,38.5200,80,96,150675
1.8231,0.2248,38.3300,80,96,150678
1.8328,0.2199,38.4600,80,96,150681
1.8768,0.2248,38.2700,80,96,150685
1.8622,0.2199,38.4900,80,96,150688
1.8719,0.2248,38.4900,80,96,150691
1.9062,0.2297,38.3600,80,96,150695
1.8866,0.2688,38.4600,80,96,150699
1.9453,0.2297,38.1800,80,96,150702
1.9110,0.2248,38.3300,80,96,150706
1.9159,0.2248,38.4600,80,96,150709
1.9110,0.2248,38.4000,80,96,150712
1.9013,0.2248,38.4300,80,96,150716
1.9550,0.2395,38.1500,80,96,150719
1.9159,0.2248,38.3000,80,96,150722
1.8915,0.2199,38.4000,80,96,150725
1.8817,0.2248,38.4000,80,96,150729
1.8671,0.2199,38.4300,80,96,150732
1.9013,0.2297,38.2700,80,96,150735
1.8622,0.2346,38.3600,80,96,150739
1.8573,0.2199,38.3000,80,96,150743
1.8328,0.2590,38.4300,80,96,150746
1.8280,0.2199,38.4300,80,96,150750
1.8475,0.2297,38.3600,80,96,150753
1.8231,0.2248,38.4300,80,96,150756
1.8377,0.2297,38.3000,80,96,150760
1.8084,0.2248,38.4300,80,96,150763
1.7986,0.2199,38.4300,80,96,150766
1.8280,0.2199,38.3000,80,96,150769
1.7986,0.2248,38.4900,80,96,150773
1.8133,0.2199,38.2700,80,96,150776
1.7840,0.2199,38.3600,80,96,150779
1.7791,0.2199,38.4900,80,96,150784
1.7986,0.2297,38.2700,80,96,150787
1.7693,0.2199,38.4000,80,96,150790
1.8035,0.2297,38.2100,80,96,150794
1.7840,0.2297,38.3600,80,96,150797
1.7791,0.2199,38.4000,80,96,150800
1.8280,0.2248,38.4300,80,96,150803
1.7742,0.2199,38.4300,80,96,150807
1.8328,0.2444,38.1500,80,96,150810
1.8084,0.2199,38.4000,80,96,150813
1.8133,0.2199,38.4600,80,96,150817
1.8328,0.2248,38.4300,80,96,150820
1.8231,0.2248,38.4600,80,96,150823
1.8817,0.2395,38.2100,80,96,150828
1.8475,0.2297,38.3300,80,96,150831
1.8475,0.2199,38.3600,80,96,150834
1.8524,0.2248,38.4000,80,96,150838
1.8475,0.2199,38.4300,80,96,150841
1.8866,0.2542,38.2700,80,96,150844
1.8671,0.2248,38.4000,80,96,150848
1.8768,0.2248,38.3300,80,96,150851
1.8964,0.2199,38.4300,80,96,150854
1.8671,0.2199,38.4600,80,96,150857
1.9062,0.2346,38.3300,80,96,150861
1.8768,0.2248,38.4300,80,96,150864
1.9062,0.2297,38.3600,80,96,150867
1.8768,0.2102,38.4000,80,96,150872
1.8768,0.2199,38.4300,80,96,150875
1.8866,0.2590,38.3600,80,96,150878
1.8768,0.1906,38.4300,80,96,150882
1.8964,0.2248,38.2700,80,96,150885
1.8671,0.2248,38.4300,80,96,150888
1.8671,0.2199,38.4900,80,96,150891
1.8866,0.2297,38.3600,80,96,150895
1.8622,0.2199,38.4300,80,96,150898
1.9062,0.2346,38.1500,80,96,150901
1.8671,0.2248,38.4300,80,96,150905
1.8475,0.2199,38.4000,80,96,150908
1.8573,0.2297,38.3600,80,96,150912
1.8377,0.2248,38.4600,80,96,150916
1.8817,0.2297,38.1500,80,96,150919
1.8377,0.2297,38.2700,80,96,150922
1.8182,0.2151,38.3600,80,96,150926
1.8133,0.2248,38.4000,80,96,150929
1.8133,0.2199,38.4300,80,96,150932
1.8622,0.2395,38.2400,80,96,150936
1.8377,0.2248,38.3600,80,96,150939
1.8377,0.2248,38.3000,80,96,150942
1.8182,0.2102,38.4300,80,96,150945
1.8133,0.2199,38.4300,80,96,150949
1.8377,0.2297,38.3600,80,96,150952
1.8231,0.2248,38.4000,80,96,150956
1.8475,0.2248,38.2700,80,96,150960
1.8280,0.2199,38.6500,80,96,150963
1.8231,0.2248,38.4600,80,96,150966
1.8524,0.2297,38.3000,80,96,150970
1.8328,0.2102,38.4000,80,96,150973
1.8426,0.1906,38.2700,80,96,150976
1.8231,0.2199,38.3300,80,96,150980
1.8231,0.2102,38.4300,80,96,150983
1.8377,0.2297,38.2700,80,96,150986
1.8328,0.2199,38.4000,80,96,150989
1.8426,0.2248,38.2100,80,96,150993
1.8182,0.2444,38.3600,80,96,150996
1.8035,0.2199,38.4300,80,96,151000
1.8328,0.2297,38.4000,80,96,151004
1.8524,0.2199,38.4600,80,96,151007
1.8671,0.2297,38.1500,80,96,151010
1.8377,0.2199,38.3300,80,96,151014
1.8231,0.2199,38.4600,80,96,151017
1.8231,0.2248,38.4300,80,96,151020
1.8133,0.2199,38.4000,80,96,151024
1.8671,0.2395,38.2100,80,96,151027
1.8280,0.2297,38.3600,80,96,151030
1.8231,0.2199,38.3300,80,96,151033
1.8182,0.2297,38.4600,80,96,151037
1.8133,0.2248,38.4600,80,96,151041
1.8426,0.2297,38.2400,80,96,151044
1.8475,0.2199,38.4300,80,96,151048
1.8377,0.2248,38.3000,80,96,151051
1.8182,0.2493,38.4300,80,96,151054
1.8182,0.2199,38.4300,80,96,151058
1.8377,0.2297,38.3600,80,96,151061
1.8133,0.2102,38.4300,80,96,151064
1.8328,0.2248,38.3300,80,96,151068
1.8035,0.2248,38.4000,80,96,151071
1.8084,0.2199,38.4000,80,96,151074
1.8231,0.2248,38.3000,80,96,151077
1.8084,0.2346,38.4000,80,96,151081
1.8280,0.2199,38.2400,80,96,151085
1.8035,0.2395,38.4300,80,96,151088
1.8084,0.2102,38.4300,80,96,151092
1.8280,0.2297,38.6200,80,96,151095
1.8084,0.2248,38.4000,80,96,151098
1.8524,0.2297,38.1800,80,96,151102
1.8328,0.2248,38.3300,80,96,151105
1.8182,0.2248,38.4300,80,96,151108
1.8426,0.2346,38.4000,80,96,151112
1.8231,0.2102,38.4300,80,96,151115
1.8817,0.2297,38.3000,80,96,151118
1.8475,0.2248,38.3300,80,96,151121
1.8280,0.2199,38.4000,80,96,151126
1.8328,0.2248,38.2700,80,96,151129
1.8280,0.2199,38.4300,80,96,151132
1.8768,0.2346,38.3000,80,96,151136
1.8426,0.2297,38.3600,80,96,151139
1.8377,0.2199,38.3300,80,96,151142
1.8182,0.2493,38.4300,80,96,151146
1.8182,0.2248,38.4300,80,96,151149
1.8231,0.2199,38.4300,80,96,151153
1.8671,0.2102,38.3300,80,96,151156
1.8231,0.2199,38.4000,80,96,151159
1.8671,0.2199,38.2400,80,96,151163
1.8377,0.2248,38.3600,80,96,151166
1.8231,0.2199,38.4300,80,96,151170
1.8426,0.2297,38.3300,80,96,151174
1.8084,0.2102,38.4300,80,96,151177
1.8573,0.2297,38.2100,80,96,151180
1.8328,0.2542,38.3300,80,96,151183
1.8133,0.2199,38.4600,80,96,151187
1.8182,0.2297,38.4000,80,96,151190
1.8035,0.2102,38.4300,80,96,151193
1.8573,0.2346,38.1800,80,96,151197
1.8182,0.2199,38.3300,80,96,151200
1.8084,0.2199,38.3300,80,96,151203
1.8084,0.2199,38.4000,80,96,151207
1.7986,0.2199,38.4300,80,96,151211
1.8377,0.2346,38.2700,80,96,151214
1.8035,0.2199,38.4000,80,96,151217
1.8133,0.2199,38.4300,80,96,151221
1.8035,0.2346,38.4000,80,96,151224
1.8280,0.2248,38.4600,80,96,151227
1.8426,0.2297,38.2700,80,96,151231
1.8231,0.2248,38.4000,80,96,151234
1.8328,0.2248,38.3000,80,96,151237
1.8133,0.2493,38.4000,80,96,151241
1.8280,0.2248,38.4300,80,96,151244
1.8426,0.2297,37.5600,80,96,151247
1.8133,0.2297,38.4000,80,96,151250
1.8426,0.2248,38.3000,80,96,151255
1.8084,0.2151,38.4300,80,96,151258
1.8231,0.2151,38.4300,80,96,151261
1.8231,0.2248,38.5200,80,96,151265
1.8084,0.2297,38.4300,80,96,151268
1.8377,0.2248,38.2400,80,96,151271
1.8035,0.2199,38.4600,80,96,151275
1.8133,0.2199,38.4600,80,96,151278
1.8328,0.2346,38.3600,80,96,151281
1.8231,0.2199,38.4600,80,96,151285
1.8671,0.2444,38.1500,80,96,151288
1.8377,0.2248,38.3300,80,96,151291
1.8280,0.2199,38.4300,80,96,151296
1.8475,0.2248,38.4300,80,96,151299
1.8377,0.2199,38.4000,80,96,151302
1.8866,0.2444,38.1800,80,96,151305
1.8573,0.2297,38.3300,80,96,151309
1.8377,0.2199,38.4000,80,96,151312
1.8377,0.2248,38.4600,80,96,151315
1.8377,0.2346,38.4300,80,96,151319
1.8915,0.2346,38.3000,80,96,151322
1.8573,0.2297,38.4000,80,96,151325
1.8768,0.2248,38.3300,80,96,151329
1.8426,0.2248,38.4600,80,96,151332
1.8573,0.2248,38.4600,80,96,151335
1.8671,0.2297,38.5800,80,96,151340
1.8475,0.2248,38.4300,80,96,151343
1.8768,0.2297,38.3000,80,96,151346
1.8426,0.2151,38.4300,80,96,151349
1.8377,0.2199,38.4300,80,96,151353
1.8622,0.2297,38.3300,80,96,151356
1.8377,0.2248,38.4600,80,96,151359
1.8573,0.2346,38.3000,80,96,151363
1.8377,0.2199,38.3300,80,96,151366
1.8280,0.2199,38.5200,80,96,151369
1.8573,0.2297,38.3000,80,96,151373
1.8328,0.2248,38.4300,80,96,151376
1.8719,0.2346,38.2100,80,96,151379
1.8475,0.2248,38.4000,80,96,151384
1.8377,0.2199,38.4000,80,96,151387
1.8475,0.2297,38.4000,80,96,151390
1.8328,0.2199,38.4300,80,96,151393
1.8866,0.2346,38.1800,80,96,151397
1.8524,0.2199,38.3600,80,96,151400
1.8524,0.2151,38.4000,80,96,151403
1.8524,0.2248,38.4000,80,96,151407
1.8524,0.2151,38.4000,80,96,151410
1.9062,0.2395,38.2100,80,96,151413
1.8622,0.2297,38.4300,80,96,151417
1.8622,0.2297,38.3300,80,96,151420
1.8524,0.2248,38.4000,80,96,151424
1.8426,0.2248,38.4300,80,96,151428
1.8719,0.2297,38.2400,80,96,151431
1.8328,0.2248,38.4300,80,96,151434
1.8426,0.2248,38.3000,80,96,151437
1.8133,0.2199,38.4300,80,96,151441
1.8084,0.2151,38.4300,80,96,151444
1.8426,0.2297,38.2700,80,96,151447
1.8377,0.2297,38.4300,80,96,151451
1.9257,0.2248,38.3300,80,96,151454
1.9892,0.2199,38.4000,80,96,151457
2.1065,0.2199,38.4000,80,96,151461
2.2483,0.2248,38.2400,80,96,151464
2.3363,0.2297,38.4300,80,96,151468
2.4536,0.2248,38.2400,80,96,151471
2.4780,0.2199,38.4300,80,96,151475
2.5513,0.2199,38.4300,80,96,151478
2.6784,0.2444,38.3600,80,96,151481
2.7957,0.2248,38.4600,80,96,151485
2.9619,0.2590,38.1500,80,96,151488
2.8788,0.2248,38.3600,80,96,151491
2.6442,0.2199,38.4600,80,96,151495
2.3558,0.2248,38.4000,80,96,151498
2.0039,0.2199,37.7400,80,96,151501
1.7742,0.2297,38.1500,80,96,151505
1.5591,0.2297,38.3000,80,96,151508
1.4565,0.2199,38.4000,80,96,151512
1.4370,0.2102,38.4000,80,96,151516
1.4370,0.2199,38.5800,80,96,151519
1.5103,0.2346,38.3000,80,96,151522
1.5347,0.2297,38.4300,80,96,151525
1.6031,0.2199,38.3300,80,96,151529
1.6422,0.1906,38.4300,80,96,151532
1.6764,0.2248,38.4900,80,96,151535
1.7058,0.2297,38.3600,80,96,151539
1.6813,0.2151,38.4000,80,96,151542
1.7009,0.2199,38.2700,80,96,151545
1.6373,0.2248,38.4300,80,96,151549
1.6520,0.2248,38.4600,80,96,151553
1.6276,0.2297,38.3300,80,96,151556
1.6031,0.2248,38.4300,80,96,151560
1.6129,0.2199,38.4300,80,96,151563
1.5934,0.2248,38.4300,80,96,151566
1.5934,0.2199,38.4300,80,96,151569
1.6129,0.2248,38.3000,80,96,151573
1.5982,0.2248,38.4300,80,96,151576
1.6422,0.2297,38.1800,80,96,151579
1.6178,0.2248,38.3600,80,96,151583
1.6227,0.2199,38.4000,80,96,151586
1.6373,0.2102,38.4000,80,96,151589
1.6373,0.2199,38.6500,80,96,151593
1.6960,0.2395,38.1100,80,96,151597
1.6618,0.2199,38.3300,80,96,151600
1.6618,0.2151,38.4300,80,96,151604
1.6716,0.2248,38.5200,80,96,151607
1.6716,0.2102,38.4300,80,96,151610
1.7253,0.2395,38.2700,80,96,151613
1.7009,0.2199,38.4300,80,96,151617
1.7204,0.2199,38.3300,80,96,151620
1.7204,0.2248,38.4000,80,96,151623
1.7351,0.2199,38.4600,80,96,151627
1.7693,0.2297,38.2400,80,96,151630
1.7498,0.2248,38.4000,80,96,151633
1.7693,0.2248,38.4000,80,96,151638
1.7644,0.2297,38.4000,80,96,151641
1.7742,0.2248,38.4300,80,96,151644
1.8231,0.2346,38.3600,80,96,151648
1.7937,0.2248,38.4300,80,96,151651
1.8231,0.2248,38.2700,80,96,151654
1.8035,0.2102,38.4300,80,96,151657
1.8133,0.2199,38.4000,80,96,151661
1.8328,0.2248,38.3000,80,96,151664
1.8182,0.2199,38.4300,80,96,151667
1.8426,0.2248,38.2100,80,96,151671
1.8133,0.2248,38.4900,80,96,151674
1.8182,0.2248,38.4300,80,96,151677
1.8377,0.2297,38.4000,80,96,151682
1.8182,0.2346,38.4300,80,96,151685
1.8622,0.2102,38.1800,80,96,151688
1.8231,0.2248,38.4600,80,96,151692
1.8035,0.2248,38.4300,80,96,151695
1.8133,0.2248,38.4600,80,96,151698
1.7937,0.2151,38.4000,80,96,151701
1.8426,0.2395,38.1500,80,96,151705
1.8035,0.2199,38.3000,80,96,151708
1.7986,0.2199,38.3600,80,96,151711
1.7840,0.2248,38.4900,80,96,151715
1.7742,0.2346,38.4300,80,96,151718
1.8231,0.2346,38.2700,80,96,151721
1.7937,0.2297,38.4300,80,96,151726
1.7986,0.2199,38.3000,80,96,151729
1.7889,0.2248,38.3300,80,96,151732
1.8182,0.2102,38.4600,80,96,151736
1.8328,0.2297,38.3000,80,96,151739
1.8280,0.2199,38.4300,80,96,151742
1.8622,0.2248,38.3300,80,96,151745
1.8524,0.2199,38.4000,80,96,151749
1.8719,0.2199,38.4300,80,96,151752
1.9159,0.2346,38.2700,80,96,151755
1.9599,0.2297,38.4300,80,96,151759
1.9404,0.2199,38.4300,80,96,151762
1.9844,0.2297,38.1500,80,96,151767
1.9550,0.2199,38.3300,80,96,151770
1.9355,0.2199,38.4600,80,96,151773
1.9404,0.2248,38.4000,80,96,151777
1.9208,0.2199,38.4300,80,96,151780
1.9648,0.2346,38.1500,80,96,151783
1.9159,0.2248,38.3300,80,96,151787
1.8964,0.2199,38.4000,80,96,151790
1.9159,0.2248,38.4000,80,96,151793
1.8719,0.2199,38.4300,80,96,151796
1.9062,0.2346,38.3300,80,96,151800
1.8719,0.2297,38.1100,80,96,151803
1.8719,0.2297,38.3000,80,96,151806
1.8622,0.2248,38.4600,80,96,151811
1.8524,0.2199,38.4300,80,96,151814
1.8817,0.2297,38.2700,80,96,151817
1.8622,0.2248,38.4000,80,96,151821
1.8719,0.2248,38.3000,80,96,151824
1.8426,0.2493,38.4000,80,96,151827
1.8475,0.2102,38.4300,80,96,151831
1.8719,0.2199,38.2700,80,96,151834
1.8573,0.2199,38.4000,80,96,151837
1.8817,0.2199,38.2700,80,96,151840
1.8573,0.2199,38.3600,80,96,151844
1.8671,0.2248,38.4300,80,96,151847
1.8768,0.2297,38.3000,80,96,151851
1.8622,0.2199,38.4300,80,96,151855
1.9013,0.2248,38.1800,80,96,151858
1.8622,0.2151,38.4000,80,96,151861
1.8671,0.2199,38.4600,80,96,151865
1.8817,0.2248,38.3600,80,96,151868
1.8671,0.2199,38.4300,80,96,151871
1.9110,0.2395,38.1800,80,96,151875
1.8768,0.2248,38.3300,80,96,151878
1.8524,0.2199,38.4000,80,96,151881
1.8622,0.2297,38.4000,80,96,151884
1.8524,0.2199,38.4300,80,96,151888
1.9110,0.2542,38.2100,80,96,151891
1.8719,0.2297,38.4900,80,96,151895
1.8426,0.2297,38.4000,80,96,151899
1.8280,0.2102,38.4600,80,96,151902
1.8231,0.2199,38.4300,80,96,151905
1.8573,0.2297,38.2700,80,96,151909
1.8426,0.2248,38.4000,80,96,151912
1.8573,0.2248,38.3000,80,96,151915
1.8328,0.2248,38.4600,80,96,151919
1.8328,0.2248,38.4300,80,96,151922
1.8524,0.2297,38.4300,80,96,151925
1.8426,0.2395,38.4000,80,96,151928
1.8475,0.2102,38.3300,80,96,151932
1.8231,0.2444,38.4000,80,96,151936
1.8231,0.2199,38.4300,80,96,151939
1.8475,0.2297,38.2700,80,96,151943
1.8280,0.2199,38.4300,80,96,151946
1.8524,0.2248,38.2100,80,96,151949
1.8671,0.2199,38.3300,80,96,151953
1.8231,0.2199,38.4300,80,96,151956
1.8426,0.2297,38.3300,80,96,151959
1.8182,0.2248,38.4900,80,96,151963
1.8622,0.2297,38.1800,80,96,151966
1.8377,0.2199,38.5800,80,96,151969
1.8328,0.2151,38.4600,80,96,151973
1.8426,0.2248,38.5800,80,96,151976
1.8328,0.2199,38.4900,80,96,151980
1.8915,0.2346,38.1800,80,96,151983
1.8524,0.2199,38.3300,80,96,151987
1.8475,0.2199,38.4000,80,96,151990
1.8426,0.2248,38.4600,80,96,151993
1.8328,0.2199,38.4300,80,96,151997
1.8671,0.2395,38.3000,80,96,152000
1.8377,0.2102,38.4000,80,96,152003
1.8377,0.2199,38.3300,80,96,152007
1.8231,0.2248,38.4000,80,96,152010
1.8231,0.2199,38.4300,80,96,152013
1.8524,0.2493,38.2400,80,96,152017
1.8231,0.2248,38.4000,80,96,152020
1.8328,0.2248,38.2400,80,96,152024
1.8084,0.2248,38.4300,80,96,152027
1.8133,0.2199,38.4000,80,96,152031
1.8377,0.2248,38.2700,80,96,152034
1.8084,0.2297,38.4000,80,96,152037
1.8328,0.2199,38.2700,80,96,152041
1.8084,0.2199,38.3600,80,96,152044
1.8035,0.2248,38.4300,80,96,152047
1.8182,0.2248,38.3000,80,96,152051
1.7986,0.2248,38.4000,80,96,152054
1.8280,0.2248,38.2100,80,96,152057
1.7986,0.2199,38.4600,80,96,152060
1.8084,0.2248,38.4300,80,96,152065
1.8377,0.2297,38.4000,80,96,152068
1.8231,0.2199,38.4300,80,96,152071
1.8719,0.2297,38.1500,80,96,152075
1.8426,0.2248,38.3600,80,96,152078
1.8426,0.2151,38.4300,80,96,152081
1.8328,0.2248,38.4000,80,96,152085
1.8280,0.2248,38.4600,80,96,152088
1.8719,0.2395,38.1800,80,96,152091
1.8231,0.2297,38.3000,80,96,152095
1.8035,0.2199,38.3600,80,96,152098
1.7986,0.2248,38.4300,80,96,152101
1.7986,0.2199,38.4300,80,96,152104
1.8426,0.2297,38.2100,80,96,152109
1.8280,0.2297,38.3600,80,96,152112
1.8328,0.2248,38.4900,80,96,152115
1.8182,0.2248,38.4300,80,96,152119
1.8231,0.2199,38.5200,80,96,152122
1.8377,0.2297,38.4000,80,96,152125
1.8328,0.2248,38.4300,80,96,152129
1.8524,0.2395,38.3600,80,96,152132
1.8231,0.2199,37.9000,80,96,152135
1.8182,0.2199,38.4000,80,96,152139
1.8524,0.2297,38.3600,80,96,152142
1.8328,0.2248,38.4300,80,96,152145
1.8671,0.2248,38.3000,80,96,152148
1.8426,0.2199,38.4300,80,96,152153
1.8328,0.2248,38.4300,80,96,152156
1.8524,0.2297,38.5800,80,96,152159
1.8280,0.2248,38.4300,80,96,152163
1.8622,0.2297,38.2100,80,96,152166
1.8426,0.2297,38.3600,80,96,152169
1.8280,0.2199,38.4300,80,96,152173
1.8377,0.2297,38.5500,80,96,152176
1.8133,0.2102,38.4600,80,96,152179
1.8573,0.2297,38.1500,80,96,152183
1.8280,0.2248,38.3300,80,96,152186
1.8328,0.2199,38.4300,80,96,152189
1.8817,0.2346,38.4000,80,96,152193
1.9550,0.2199,38.4300,80,96,152197
2.1114,0.2395,38.2700,80,96,152200
2.1945,0.2199,38.3600,80,96,152203
2.3118,0.2199,38.3300,80,96,152207
2.4096,0.2248,38.4000,80,96,152210
2.4585,0.2199,38.4300,80,96,152213
2.5611,0.2835,38.2100,80,96,152217
2.6149,0.2248,38.4000,80,96,152220
2.7615,0.2248,38.3600,80,96,152223
2.8543,0.2248,38.4600,80,96,152227
2.8837,0.2199,38.5800,80,96,152230
2.8006,0.2346,38.3300,80,96,152233
2.4682,0.2248,38.4600,80,96,152237
2.1701,0.2493,38.3000,80,96,152241
1.8622,0.2248,38.4000,80,96,152244
1.6227,0.2248,38.4300,80,96,152247
1.5152,0.2248,38.3000,80,96,152251
1.4516,0.2199,38.4300,80,96,152254
1.4565,0.2248,38.2400,80,96,152257
1.4565,0.2102,38.4900,80,96,152261
1.5103,0.2199,38.4900,80,96,152264
1.5982,0.2199,38.3300,80,96,152267
1.6471,0.2199,38.4600,80,96,152271
1.7253,0.2346,38.1800,80,96,152274
1.7155,0.2248,38.4000,80,96,152278
1.6911,0.2297,38.4300,80,96,152281
1.6764,0.2248,38.3600,80,96,152285
1.6422,0.2395,38.4300,80,96,152288
1.6716,0.2395,38.1800,80,96,152291
1.6227,0.2395,38.3000,80,96,152295
1.5982,0.2199,38.3600,80,96,152298
1.5982,0.2248,38.6200,80,96,152301
1.6031,0.2248,38.4300,80,96,152305
1.6520,0.2346,38.3000,80,96,152308
1.6373,0.2297,38.4000,80,96,152311
1.6373,0.2151,38.3300,80,96,152314
1.6373,0.2248,38.4300,80,96,152318
1.6569,0.2102,38.4600,80,96,152322
1.6716,0.2297,38.4300,80,96,152325
1.6471,0.2346,38.4000,80,96,152329
1.6667,0.2248,38.3000,80,96,152332
1.6422,0.2248,38.4300,80,96,152335
1.6520,0.1906,38.4300,80,96,152339
1.6960,0.2297,38.0200,80,96,152342
1.6911,0.2248,38.4600,80,96,152345
1.7155,0.2248,38.2700,80,96,152349
1.7351,0.2199,38.3600,80,96,152352
1.6960,0.2199,38.4900,80,96,152355
1.7546,0.2297,38.2400,80,96,152359
1.7204,0.2248,38.4300,80,96,152363
1.7644,0.2248,38.1800,80,96,152366
1.8231,0.2590,38.1500,80,96,152370
1.8035,0.2248,38.3300,80,96,152373
1.8084,0.2199,38.4000,80,96,152376
1.8133,0.2199,38.4300,80,96,152380
1.8084,0.2199,38.4600,80,96,152383
1.8573,0.2395,38.2700,80,96,152386
1.8182,0.2248,38.4600,80,96,152390
1.8280,0.2346,38.3300,80,96,152393
1.8231,0.2248,38.4600,80,96,152396
1.8182,0.2248,38.4300,80,96,152400
1.8475,0.2297,38.3000,80,96,152403
1.8133,0.2248,38.4300,80,96,152407
1.8328,0.2297,38.2700,80,96,152411
1.8133,0.2248,38.4000,80,96,152414
1.8182,0.2199,38.4300,80,96,152417
1.8426,0.2248,38.2400,80,96,152420
1.8475,0.2199,38.4000,80,96,152424
1.8328,0.2199,38.2400,80,96,152427
1.8035,0.2297,38.3600,80,96,152430
1.8084,0.2199,38.4600,80,96,152434
1.8182,0.2248,38.3600,80,96,152437
1.7937,0.2102,38.4600,80,96,152440
1.8182,0.2248,38.2400,80,96,152444
1.7791,0.2248,38.4000,80,96,152448
1.7840,0.2199,38.4900,80,96,152451
1.8035,0.2346,38.4000,80,96,152455
1.8035,0.2199,38.4300,80,96,152458
1.8671,0.2297,38.1500,80,96,152461
1.8475,0.2248,38.3600,80,96,152464
1.8573,0.2199,38.4000,80,96,152468
1.8768,0.2248,38.4000,80,96,152471
1.8817,0.2199,38.4600,80,96,152474
1.9550,0.2493,38.2100,80,96,152478
1.9208,0.2297,38.3600,80,96,152481
1.9257,0.2199,38.3300,80,96,152484
1.9599,0.2199,38.4300,80,96,152488
1.9306,0.2199,38.4300,80,96,152492
1.9697,0.2493,38.2700,80,96,152495
1.9355,0.2248,38.4000,80,96,152498
1.9404,0.2248,37.5900,80,96,152502
1.9159,0.2151,38.4000,80,96,152505
1.9110,0.2199,38.4600,80,96,152508
1.9306,0.2395,38.4000,80,96,152512
1.9159,0.2248,38.4300,80,96,152515
1.9404,0.2297,38.3300,80,96,152518
1.9062,0.2248,38.4300,80,96,152522
1.9013,0.2199,38.4600,80,96,152525
1.9306,0.2346,38.3300,80,96,152528
1.9062,0.2248,38.4900,80,96,152532
1.9208,0.2297,38.2700,80,96,152536
1.8964,0.2248,38.3300,80,96,152539
1.8817,0.2199,38.4600,80,96,152542
1.9013,0.2346,38.3000,80,96,152546
1.8671,0.2199,37.6800,80,96,152549
1.9013,0.2346,38.2100,80,96,152552
1.8719,0.2248,38.4000,80,96,152556
1.8573,0.2199,38.4900,80,96,152559
1.8719,0.2297,38.3600,80,96,152562
1.8475,0.2199,38.4000,80,96,152566
1.8915,0.2346,38.1500,80,96,152569
1.8524,0.2248,38.3000,80,96,152572
1.8719,0.2102,38.4300,80,96,152577
1.8377,0.2248,38.4900,80,96,152580
1.8377,0.2248,38.4300,80,96,152583
1.8915,0.2395,38.2400,80,96,152586
1.8671,0.2346,38.3600,80,96,152590
1.8622,0.2199,38.3300,80,96,152593
1.8573,0.2199,38.4300,80,96,152596
1.8475,0.2199,38.4300,80,96,152600
1.8817,0.2590,38.2700,80,96,152603
1.8524,0.2248,38.3600,80,96,152606
1.8671,0.2590,38.3000,80,96,152610
1.8524,0.2102,38.4300,80,96,152613
1.8426,0.2199,38.4900,80,96,152616
1.8768,0.2346,38.3000,80,96,152621
1.8475,0.2248,38.4300,80,96,152624
1.8768,0.2248,38.3000,80,96,152627
1.8573,0.2199,38.4000,80,96,152630
1.8768,0.2199,38.4300,80,96,152634
1.8915,0.2199,38.3300,80,96,152637
1.8915,0.2248,38.4300,80,96,152640
1.9013,0.2248,38.2400,80,96,152644
1.8573,0.2102,38.4600,80,96,152647
1.8426,0.2199,38.4300,80,96,152650
1.8671,0.2297,38.3300,80,96,152654
1.8475,0.2248,38.4600,80,96,152657
1.8964,0.2346,38.1800,80,96,152660
1.8719,0.2248,38.4000,80,96,152665
1.8524,0.2248,38.4600,80,96,152668
1.8622,0.2297,38.4300,80,96,152671
1.8475,0.2444,38.4300,80,96,152674
1.9062,0.2297,38.1800,80,96,152678
1.8964,0.2248,38.3300,80,96,152681
1.8573,0.2199,38.3300,80,96,152684
1.8573,0.2248,38.4300,80,96,152688
1.8866,0.2199,38.4300,80,96,152691
1.8964,0.2297,38.2400,80,96,152694
1.8671,0.2297,38.4300,80,96,152698
1.8622,0.2248,38.3300,80,96,152701
1.8475,0.2248,38.4300,80,96,152705
1.8573,0.2199,38.4900,80,96,152709
1.8866,0.2248,38.4000,80,96,152712
1.8768,0.2248,38.4000,80,96,152715
1.8964,0.2297,38.4000,80,96,152718
1.8768,0.2248,38.4300,80,96,152722
1.8524,0.2199,38.4600,80,96,152725
1.8768,0.2248,38.3600,80,96,152728
1.8524,0.2248,38.4600,80,96,152732
1.8768,0.2248,38.2400,80,96,152735
1.8671,0.2199,38.3600,80,96,152738
1.8328,0.2199,38.4300,80,96,152742
1.8524,0.2346,38.3000,80,96,152745
1.8426,0.2199,38.4000,80,96,152749
1.8866,0.2199,38.1800,80,96,152753
1.8622,0.2297,38.7700,80,96,152756
1.8475,0.2248,38.4300,80,96,152759
1.8524,0.2297,38.3600,80,96,152762
1.8377,0.2248,38.4300,80,96,152766
1.8866,0.2346,38.1500,80,96,152769
1.8573,0.2493,38.3300,80,96,152772
1.8671,0.2151,38.4000,80,96,152776
1.8719,0.2248,38.4000,80,96,152779
1.8719,0.2199,38.4900,80,96,152782
1.9208,0.2493,38.2400,80,96,152786
1.8866,0.2248,38.3600,80,96,152790
1.8768,0.2493,38.3300,80,96,152793
1.8573,0.2248,38.4600,80,96,152797
1.8377,0.2444,38.4300,80,96,152800
1.8573,0.2346,38.2400,80,96,152803
1.8280,0.2297,38.4300,80,96,152807
1.8768,0.2248,38.3000,80,96,152810
1.8280,0.2248,38.4300,80,96,152813
1.8328,0.2346,38.4000,80,96,152816
1.8622,0.2297,38.3300,80,96,152820
1.8328,0.2248,38.4000,80,96,152823
1.8768,0.2199,38.3000,80,96,152826
1.8426,0.2199,38.4000,80,96,152830
1.8475,0.2248,38.4600,80,96,152834
1.8573,0.2248,38.3300,80,96,152837
1.8426,0.2248,38.4300,80,96,152841
1.8622,0.2248,38.2400,80,96,152844
1.8280,0.2199,38.5800,80,96,152847
1.8328,0.2248,38.4300,80,96,152850
1.8671,0.2297,38.3600,80,96,152854
1.8622,0.2199,38.4000,80,96,152857
1.9013,0.2297,38.1800,80,96,152860
1.8768,0.2248,38.3600,80,96,152864
1.8915,0.2199,38.4300,80,96,152867
1.8719,0.2542,38.4000,80,96,152870
1.8719,0.2248,38.4300,80,96,152875
1.9110,0.2297,38.2400,80,96,152878
1.9062,0.2199,38.3000,80,96,152881
1.8573,0.2199,38.4000,80,96,152885
1.8622,0.2248,38.4000,80,96,152888
1.8573,0.2248,38.4600,80,96,152891
1.9013,0.2297,38.3000,80,96,152894
1.8768,0.2346,38.4300,80,96,152898
1.8768,0.2199,38.3000,80,96,152901
1.8671,0.2248,38.4300,80,96,152904
1.8622,0.2199,38.4300,80,96,152908
1.8866,0.2444,38.3600,80,96,152911
1.8573,0.2297,38.4300,80,96,152914
1.8719,0.2248,38.3000,80,96,152919
1.8426,0.2248,38.4300,80,96,152922
1.8280,0.2199,38.4300,80,96,152925
1.8671,0.2395,38.3000,80,96,152929
1.8573,0.2248,38.4300,80,96,152932
1.8915,0.2248,38.2700,80,96,152935
1.8915,0.2199,38.3300,80,96,152938
1.8573,0.2199,38.4900,80,96,152942
1.8964,0.2102,38.2700,80,96,152945
1.8280,0.2199,38.4600,80,96,152948
1.8671,0.2395,38.1500,80,96,152952
1.8524,0.2248,38.4000,80,96,152955
1.8475,0.2248,38.4300,80,96,152958
1.8622,0.2297,38.4300,80,96,152963
1.8426,0.2248,38.5200,80,96,152966
1.8866,0.2346,38.1800,80,96,152969
1.8671,0.2248,38.3600,80,96,152973
1.8768,0.2102,38.4900,80,96,152976
1.8719,0.2248,38.4300,80,96,152979
1.8719,0.2199,38.4300,80,96,152983
1.8719,0.2199,38.4600,80,96,152986
1.9013,0.2346,38.2400,80,96,152990
1.8671,0.2248,38.4000,80,96,152993
1.8768,0.2395,38.3600,80,96,152996
1.8524,0.2248,38.4600,80,96,152999
1.8475,0.2199,38.5800,80,96,153004
1.8573,0.2102,38.2700,80,96,153007
1.8475,0.2248,38.4600,80,96,153010
1.8622,0.2493,38.3300,80,96,153014
1.8426,0.2199,38.3300,80,96,153017
1.8524,0.2297,38.4300,80,96,153020
1.8915,0.2248,38.3300,80,96,153024
1.9159,0.2346,38.4300,80,96,153027
2.0235,0.2248,38.1800,80,96,153030
2.0968,0.2297,38.3600,80,96,153034
2.2336,0.2248,38.4300,80,96,153037
2.3803,0.2248,38.3600,80,96,153040
2.4829,0.2102,38.4300,80,96,153043
2.6491,0.2297,38.2400,80,96,153048
2.7077,0.2248,38.4000,80,96,153051
2.8837,0.2199,38.4300,80,96,153054
3.0792,0.2297,38.4000,80,96,153058
3.2405,0.2248,38.4600,80,96,153061
3.2551,0.2395,38.2400,80,96,153064
2.9521,0.2346,38.3300,80,96,153068
2.5904,0.2199,38.3600,80,96,153071
2.2434,0.2248,38.5500,80,96,153074
1.9453,0.2199,38.4600,80,96,153077
1.7351,0.2297,38.2700,80,96,153081
1.5591,0.2297,38.4000,80,96,153084
1.4712,0.2248,38.3000,80,96,153088
1.4223,0.2346,38.4000,80,96,153092
1.4125,0.2248,38.4600,80,96,153095
1.4614,0.2542,38.3600,80,96,153098
1.4956,0.2248,38.4300,80,96,153102
1.5543,0.2297,38.2700,80,96,153105
1.5640,0.2248,38.4300,80,96,153108
1.5787,0.2248,38.4300,80,96,153112
1.5934,0.2297,38.3600,80,96,153115
1.5640,0.2590,38.4000,80,96,153118
1.5885,0.2199,38.2400,80,96,153122
1.5543,0.2248,38.3600,80,96,153125
1.5445,0.2297,38.3600,80,96,153128
1.5738,0.2297,38.3000,80,96,153132
1.5689,0.2248,38.4300,80,96,153136
1.6129,0.2297,38.1800,80,96,153139
1.5836,0.2248,38.3000,80,96,153142
1.5885,0.2199,38.3600,80,96,153146
1.5885,0.2248,38.4000,80,96,153149
1.5836,0.2199,38.4300,80,96,153152
1.6373,0.2395,38.1500,80,96,153156
1.6129,0.2297,38.4900,80,96,153159
1.6178,0.2248,38.3600,80,96,153162
1.6325,0.2248,38.4300,80,96,153166
1.6373,0.2199,38.4300,80,96,153169
1.6960,0.2297,38.3600,80,96,153172
1.6813,0.2444,38.4300,80,96,153176
1.7009,0.2199,38.3000,80,96,153180
1.6911,0.2248,38.4900,80,96,153183
1.6960,0.2248,38.4300,80,96,153186
1.7351,0.2297,38.2700,80,96,153190
1.7253,0.2199,38.4300,80,96,153193
1.7449,0.2297,38.3000,80,96,153196
1.7253,0.2248,38.4000,80,96,153200
1.7302,0.2199,38.4300,80,96,153203
1.7693,0.2248,38.3000,80,96,153206
1.7595,0.2248,38.4300,80,96,153210
1.7986,0.2248,38.2400,80,96,153213
1.8035,0.2199,38.4300,80,96,153217
1.8231,0.2151,38.4600,80,96,153220
1.8377,0.2248,38.3600,80,96,153224
1.8182,0.2248,38.4300,80,96,153227
1.8475,0.2248,38.2100,80,96,153230
1.8182,0.2102,38.4000,80,96,153234
1.8133,0.2199,38.4600,80,96,153237
1.8328,0.2248,38.4000,80,96,153240
1.8280,0.2199,38.4300,80,96,153244
1.8768,0.2297,38.1500,80,96,153247
1.8426,0.2297,38.3300,80,96,153250
1.8231,0.2199,38.4600,80,96,153254
1.8231,0.2248,38.4300,80,96,153257
1.8133,0.2199,38.4900,80,96,153261
1.8622,0.2297,38.2100,80,96,153264
1.8280,0.2297,38.3600,80,96,153268
1.8133,0.2444,38.3600,80,96,153271
1.8133,0.2248,38.4900,80,96,153274
1.8231,0.2346,38.4300,80,96,153278
1.8524,0.2297,38.2700,80,96,153281
1.8231,0.2542,38.4000,80,96,153284
1.8182,0.2102,38.2700,80,96,153288
1.7840,0.2248,38.5200,80,96,153291
1.7791,0.2248,38.4600,80,96,153294
1.7986,0.2248,38.3600,80,96,153298
1.7937,0.2444,38.4300,80,96,153302
1.8377,0.2297,38.3300,80,96,153305
1.8231,0.2248,38.4300,80,96,153308
1.8426,0.2199,38.4300,80,96,153312
1.8915,0.2297,38.3000,80,96,153315
1.8866,0.2248,38.4300,80,96,153318
1.9306,0.2248,38.2400,80,96,153322
1.9355,0.2199,38.3300,80,96,153325
1.9159,0.2199,38.4900,80,96,153328
1.9453,0.2297,38.3300,80,96,153332
1.9208,0.2248,38.4300,80,96,153335
1.9697,0.2346,38.1500,80,96,153338
1.9355,0.2199,38.3300,80,96,153342
1.9257,0.2102,38.4600,80,96,153346
1.9355,0.2248,38.4000,80,96,153349
1.9208,0.2248,38.4300,80,96,153353
1.9648,0.2395,38.1800,80,96,153356
1.9208,0.2297,38.3300,80,96,153359
1.9062,0.2199,38.3600,80,96,153362
1.8915,0.2248,38.6500,80,96,153366
1.8768,0.2102,38.4300,80,96,153369
1.9013,0.2297,38.3300,80,96,153372
1.8622,0.2199,38.4300,80,96,153376
1.8671,0.2248,38.3300,80,96,153379
1.8622,0.2102,38.4300,80,96,153382
1.8475,0.2248,38.4000,80,96,153387
1.8719,0.2395,38.2400,80,96,153390
1.8377,0.2248,38.4600,80,96,153393
1.8475,0.2395,38.3000,80,96,153397
1.8182,0.2199,38.4000,80,96,153400
1.8084,0.2199,38.6200,80,96,153403
1.8231,0.2248,38.3000,80,96,153406
1.7986,0.2248,38.6200,80,96,153410
1.8084,0.2248,38.2400,80,96,153413
1.7986,0.2199,38.4000,80,96,153416
1.8035,0.2248,38.4900,80,96,153420
1.8280,0.2199,38.3300,80,96,153423
1.8133,0.2199,38.5200,80,96,153426
1.8524,0.2248,38.1800,80,96,153431
1.8182,0.2151,38.3300,80,96,153434
1.8426,0.2199,38.4600,80,96,153437
1.8377,0.2297,38.4600,80,96,153441
1.8280,0.2102,38.4300,80,96,153444
1.8768,0.2297,38.2700,80,96,153447
1.8475,0.2297,38.3000,80,96,153450
1.8377,0.2248,38.4300,80,96,153454
1.8426,0.2297,38.4000,80,96,153457
1.8475,0.2102,38.4300,80,96,153460
1.8915,0.2395,38.2100,80,96,153464
1.8671,0.2297,38.3600,80,96,153467
1.8524,0.2199,38.2700,80,96,153470
1.8426,0.2199,38.4300,80,96,153475
1.8475,0.2199,38.4600,80,96,153478
1.8817,0.2493,38.3000,80,96,153481
1.8622,0.2248,38.3600,80,96,153485
1.8719,0.2346,38.2700,80,96,153488
1.8377,0.2248,38.4600,80,96,153491
1.8280,0.2199,38.5200,80,96,153494
1.8768,0.2248,38.4300,80,96,153498
1.8377,0.2248,38.4300,80,96,153501
1.8622,0.2297,38.3000,80,96,153504
1.8328,0.2248,38.3600,80,96,153508
1.8328,0.2248,38.4300,80,96,153511
1.8573,0.2297,38.3300,80,96,153515
1.8475,0.2199,38.4600,80,96,153519
1.8671,0.2248,38.2100,80,96,153522
1.8377,0.2297,38.3600,80,96,153525
1.8182,0.2199,38.4300,80,96,153529
1.8377,0.2346,38.3600,80,96,153532
1.8133,0.2248,38.4300,80,96,153535
1.8622,0.2346,38.1100,80,96,153539
1.8280,0.2248,38.3000,80,96,153542
1.8231,0.2199,38.4300,80,96,153545
1.8231,0.2102,38.4000,80,96,153548
1.8182,0.2248,38.4300,80,96,153552
1.8671,0.2493,38.1800,80,96,153555
1.8328,0.2297,38.3300,80,96,153559
1.8280,0.2102,38.3600,80,96,153563
1.8328,0.2248,38.4300,80,96,153566
1.8328,0.2199,38.4300,80,96,153569
1.8719,0.2297,37.9600,80,96,153573
1.8426,0.2297,38.4000,80,96,153576
1.8573,0.2248,38.3000,80,96,153579
1.8280,0.2248,38.4600,80,96,153583
1.8182,0.2199,38.4300,80,96,153586
1.8426,0.2297,38.2700,80,96,153589
1.8133,0.2102,38.3000,80,96,153593
1.7889,0.2248,38.4300,80,96,153596
1.8231,0.2493,38.2100,80,96,153600
1.8084,0.2297,38.4000,80,96,153604
1.8084,0.2395,38.5200,80,96,153607
1.8328,0.2297,38.3600,80,96,153610
1.8084,0.2248,38.4300,80,96,153614
1.8524,0.2346,38.1500,80,96,153617
1.8035,0.2199,38.3300,80,96,153620
1.8035,0.2199,38.4000,80,96,153624
1.8231,0.2297,38.4000,80,96,153627
1.7986,0.2199,38.4000,80,96,153630
1.8475,0.2444,38.1800,80,96,153634
1.8084,0.2297,38.3600,80,96,153637
1.8035,0.2199,38.3600,80,96,153640
1.8133,0.2199,38.4300,80,96,153644
1.8133,0.2199,38.6500,80,96,153648
1.8622,0.2346,38.2400,80,96,153651
1.8231,0.2248,38.4000,80,96,153654
1.8280,0.2248,38.3000,80,96,153658
1.8182,0.2199,38.4300,80,96,153661
1.8231,0.2199,38.5200,80,96,153664
1.8768,0.2346,38.3300,80,96,153668
1.8328,0.2248,38.4000,80,96,153671
1.8475,0.2346,38.3600,80,96,153674
1.8133,0.2102,38.4300,80,96,153677
1.8231,0.2199,37.7400,80,96,153681
1.8377,0.2199,38.3300,80,96,153684
1.8328,0.2248,38.4300,80,96,153688
1.8524,0.2248,38.2700,80,96,153692
1.8231,0.2248,38.5800,80,96,153695
1.8231,0.2151,38.4900,80,96,153698
1.8377,0.2297,38.3300,80,96,153702
1.8182,0.2395,38.4300,80,96,153705
1.8573,0.2297,38.1800,80,96,153708
1.8377,0.2248,38.3600,80,96,153712
1.8280,0.2199,38.4300,80,96,153715
1.8377,0.2297,38.4000,80,96,153718
1.8182,0.2199,38.4300,80,96,153722
1.8671,0.2297,38.1500,80,96,153725
1.8377,0.2248,38.2700,80,96,153729
1.8182,0.2199,37.7400,80,96,153732
1.8182,0.2199,38.4000,80,96,153736
1.8084,0.2199,38.4600,80,96,153739
1.8573,0.2395,38.2100,80,96,153742
1.8328,0.2297,38.4300,80,96,153746
1.8182,0.2199,38.3600,80,96,153749
1.8035,0.2248,38.4300,80,96,153752
1.7986,0.2248,38.3600,80,96,153756
1.8231,0.2395,38.3300,80,96,153759
1.8035,0.2248,38.4600,80,96,153762
1.8182,0.2346,38.3300,80,96,153766
1.7986,0.2248,38.3600,80,96,153769
1.7986,0.2151,38.4300,80,96,153773
1.8280,0.2297,38.3000,80,96,153776
1.8035,0.2248,38.4000,80,96,153780
1.8328,0.2248,38.3000,80,96,153783
1.8084,0.2199,38.3600,80,96,153786
1.8182,0.2199,38.4300,80,96,153790
1.8475,0.2297,38.3000,80,96,153793
1.8231,0.2248,38.4600,80,96,153796
1.8475,0.2248,38.2100,80,96,153800
1.8280,0.2248,38.3600,80,96,153803
1.8182,0.2248,38.4300,80,96,153806
1.8328,0.2297,38.4300,80,96,153810
1.8182,0.2346,38.4300,80,96,153814
1.8573,0.2297,38.1500,80,96,153817
1.8231,0.2151,38.3600,80,96,153820
1.8328,0.2199,37.7700,80,96,153824
1.8426,0.2199,38.4600,80,96,153827
1.8377,0.2199,38.4600,80,96,153830
1.8866,0.2395,38.2100,80,96,153834
1.8475,0.2297,38.3300,80,96,153837
1.8328,0.2199,38.3600,80,96,153840
1.8377,0.2248,38.4300,80,96,153844
1.8328,0.2297,38.4300,80,96,153847
1.8573,0.2346,38.2700,80,96,153850
1.8231,0.2248,38.3600,80,96,153854
1.8231,0.2248,38.3300,80,96,153858
1.8133,0.2151,38.4300,80,96,153861
1.8328,0.2102,38.4000,80,96,153864
1.9208,0.2297,38.2700,80,96,153868
1.9990,0.2297,38.4300,80,96,153871
2.1114,0.2297,38.3300,80,96,153874
2.1994,0.2248,38.3600,80,96,153878
2.3118,0.2199,38.4300,80,96,153881
2.4194,0.2248,38.4000,80,96,153884
2.4829,0.2248,38.4000,80,96,153888
2.5904,0.2248,38.3000,80,96,153891
2.6784,0.2248,38.4300,80,96,153894
2.8348,0.2199,38.4900,80,96,153897
2.9863,0.2199,38.3300,80,96,153902
2.9326,0.2248,38.4300,80,96,153905
2.7761,0.2346,38.1800,80,96,153908
2.4438,0.2297,38.3000,80,96,153912
2.0821,0.2199,38.4300,80,96,153915
1.8084,0.2297,38.3600,80,96,153918
1.5689,0.2248,38.4600,80,96,153922
1.4956,0.2297,38.2400,80,96,153925
1.4174,0.2248,38.3300,80,96,153928
1.4125,0.2199,38.4300,80,96,153932
1.4614,0.2199,38.4000,80,96,153935
1.4858,0.2199,38.4300,80,96,153938
1.5982,0.2786,38.1800,80,96,153942
1.6373,0.2297,38.3300,80,96,153946
1.6764,0.2151,38.3600,80,96,153949
1.6862,0.2248,38.4300,80,96,153952
1.6716,0.2248,38.4000,80,96,153956
1.6862,0.2297,38.3300,80,96,153959
1.6325,0.2248,38.4000,80,96,153962
1.6276,0.2199,38.3000,80,96,153966
1.5934,0.2248,38.4900,80,96,153969
1.5934,0.2297,38.4300,80,96,153972
1.6178,0.2297,38.3000,80,96,153976
1.5934,0.2493,38.4000,80,96,153979
1.6227,0.2297,38.3000,80,96,153982
1.6080,0.2199,38.6800,80,96,153986
1.6178,0.2199,38.4300,80,96,153990
1.6422,0.2248,38.3300,80,96,153993
1.6276,0.2248,38.4000,80,96,153996
1.6520,0.2248,38.2700,80,96,154000
1.6471,0.2199,38.7100,80,96,154003
1.6960,0.2199,38.3000,80,96,154006
1.6862,0.2297,38.3300,80,96,154010
1.6716,0.2493,38.4300,80,96,154013
1.7107,0.2297,38.1800,80,96,154016
1.6764,0.2199,38.4000,80,96,154020
1.7009,0.2199,38.4600,80,96,154023
1.7204,0.2297,38.3300,80,96,154027
1.7204,0.2248,38.4300,80,96,154030
1.7595,0.2297,37.3700,80,96,154034
1.7253,0.2297,38.3600,80,96,154037
1.7204,0.2199,38.4600,80,96,154040
1.7302,0.2297,38.4000,80,96,154044
1.7302,0.2199,38.4000,80,96,154047
1.7889,0.2395,38.2400,80,96,154050
1.7546,0.2248,38.3300,80,96,154054
1.7546,0.2199,38.3000,80,96,154057
1.7546,0.2248,37.6800,80,96,154060
1.7546,0.2151,38.4600,80,96,154063
1.7986,0.2297,38.2400,80,96,154067
1.7791,0.2248,38.3600,80,96,154071
1.7986,0.2102,38.3000,80,96,154074
1.7742,0.2248,38.4900,80,96,154078
1.7791,0.2102,38.4300,80,96,154081
1.8035,0.2297,37.8300,80,96,154084
1.7889,0.2297,38.4000,80,96,154088
1.8475,0.2297,38.3300,80,96,154091
1.7840,0.2444,38.3600,80,96,154094
1.7791,0.2102,38.4300,80,96,154098
1.8133,0.2297,38.2400,80,96,154101
1.7889,0.2248,38.4300,80,96,154104
1.8182,0.2248,37.5300,80,96,154107
1.7986,0.2199,38.4300,80,96,154112
1.7889,0.2199,38.4300,80,96,154115
1.8426,0.2346,38.3300,80,96,154118
1.7791,0.2248,38.4300,80,96,154122
1.8182,0.2297,38.1800,80,96,154125
1.7937,0.2199,38.3300,80,96,154128
1.7742,0.2199,38.4000,80,96,154132
1.8035,0.2199,38.3600,80,96,154135
1.7840,0.2199,38.5200,80,96,154138
1.8377,0.2542,38.1500,80,96,154142
1.8035,0.2248,38.2700,80,96,154145
1.7986,0.2151,38.4000,80,96,154148
1.8084,0.2199,38.4300,80,96,154151
1.8231,0.2248,38.5200,80,96,154156
1.8866,0.2395,38.2700,80,96,154159
1.8622,0.2297,38.3600,80,96,154162
1.8817,0.2248,38.3600,80,96,154166
1.8817,0.2248,38.5200,80,96,154169
1.8915,0.2199,38.4000,80,96,154172
1.9355,0.2346,38.2100,80,96,154176
1.9110,0.2493,38.4000,80,96,154179
1.9746,0.2199,38.2700,80,96,154182
1.9257,0.2248,38.4600,80,96,154186
1.9306,0.2248,38.4300,80,96,154189
1.9599,0.2297,38.3000,80,96,154192
1.9306,0.2248,38.4300,80,96,154195
1.9550,0.2297,38.3000,80,96,154200
1.9257,0.2151,38.2100,80,96,154203
1.8964,0.2542,38.4000,80,96,154207
1.9208,0.2199,38.4300,80,96,154210
1.9062,0.2297,37.7700,80,96,154213
1.8866,0.2297,38.4600,80,96,154217
1.9306,0.2346,38.1500,80,96,154220
1.8964,0.2248,37.6500,80,96,154223
1.8768,0.2151,38.4300,80,96,154226
1.8866,0.2248,38.4600,80,96,154230
1.8719,0.2199,38.4300,80,96,154233
1.9355,0.2395,38.2400,80,96,154236
1.8915,0.2346,38.3300,80,96,154241
1.8768,0.2102,38.3600,80,96,154244
1.8671,0.2248,38.4300,80,96,154247
1.8573,0.2151,38.4300,80,96,154251
1.8915,0.2297,38.2100,80,96,154254
1.8573,0.2102,38.4000,80,96,154257
1.8768,0.2248,38.3000,80,96,154261
1.8475,0.2248,38.4600,80,96,154264
1.8426,0.2199,38.4300,80,96,154267
1.8573,0.2297,38.4000,80,96,154270
1.8426,0.2248,38.4000,80,96,154274
1.8622,0.2297,38.3300,80,96,154277
1.8475,0.2248,38.4300,80,96,154280
1.8377,0.1906,38.4300,80,96,154285
1.8622,0.2297,38.2700,80,96,154288
1.8426,0.2248,38.4300,80,96,154291
1.8671,0.2248,38.2400,80,96,154295
1.8573,0.2102,38.3300,80,96,154298
1.8524,0.2248,38.4300,80,96,154301
1.8768,0.2297,38.3000,80,96,154305
1.8524,0.2248,38.4300,80,96,154308
1.8915,0.2297,38.1800,80,96,154311
1.8719,0.2199,38.4000,80,96,154314
1.8573,0.2199,38.4900,80,96,154318
1.8622,0.2102,38.4000,80,96,154321
1.8475,0.2248,38.4600,80,96,154324
1.8964,0.2297,38.1100,80,96,154329
1.8671,0.2248,38.4000,80,96,154332
1.8573,0.2248,38.4000,80,96,154335
1.8622,0.2102,38.4300,80,96,154339
1.8524,0.2151,38.4300,80,96,154342
1.8915,0.2346,38.3000,80,96,154345
1.8573,0.2297,38.4000,80,96,154349
1.8671,0.2199,38.3600,80,96,154352
1.8475,0.2248,38.4300,80,96,154355
1.8475,0.2248,38.4300,80,96,154358
1.8768,0.2297,38.3300,80,96,154362
1.8475,0.2248,38.4000,80,96,154365
1.8573,0.2248,38.2700,80,96,154369
1.8280,0.2542,38.4300,80,96,154373
1.8280,0.2199,38.4600,80,96,154376
1.8475,0.2248,38.3300,80,96,154379
1.8182,0.2297,38.4300,80,96,154383
1.8426,0.2199,38.3000,80,96,154386
1.8084,0.2248,38.4000,80,96,154389
1.8133,0.2248,38.4300,80,96,154393
1.8280,0.2248,38.4000,80,96,154396
1.8084,0.2297,38.4900,80,96,154399
1.8671,0.2346,38.2400,80,96,154402
1.8084,0.2248,38.4300,80,96,154406
1.8133,0.2493,38.4300,80,96,154409
1.8328,0.2297,38.3600,80,96,154413
1.8182,0.2199,38.4300,80,96,154417
1.8524,0.2297,38.1800,80,96,154420
1.8280,0.2248,38.3300,80,96,154423
1.8182,0.2199,38.4300,80,96,154427
1.8328,0.2346,38.3600,80,96,154430
1.8231,0.2248,38.4600,80,96,154433
1.8817,0.2395,38.1800,80,96,154437
1.8524,0.2297,38.3300,80,96,154440
1.8377,0.2248,38.3600,80,96,154443
1.8475,0.2248,38.4300,80,96,154446
1.8377,0.2199,38.4900,80,96,154450
1.8817,0.2346,38.2700,80,96,154454
1.8524,0.2248,38.4000,80,96,154457
1.8573,0.2248,38.2700,80,96,154461
1.8328,0.2102,38.4300,80,96,154464
1.8328,0.2248,38.4300,80,96,154467
1.8622,0.2297,38.3600,80,96,154471
1.8377,0.2248,38.4300,80,96,154474
1.9013,0.2297,38.3300,80,96,154477
1.8426,0.2248,38.4300,80,96,154481
1.8426,0.2248,38.4600,80,96,154484
1.8671,0.2297,38.2400,80,96,154487
1.8377,0.2248,38.4300,80,96,154490
1.8573,0.2248,38.2400,80,96,154494
1.8328,0.2297,38.4000,80,96,154498
1.8328,0.2199,38.4300,80,96,154501
1.8719,0.2346,38.3000,80,96,154505
1.8231,0.2248,38.4300,80,96,154508
1.8622,0.2297,38.2100,80,96,154511
1.8426,0.2248,38.3300,80,96,154515
1.8328,0.2248,38.5200,80,96,154518
1.8573,0.2248,38.3300,80,96,154521
1.8328,0.2199,38.4300,80,96,154525
1.8768,0.2297,38.1100,80,96,154528
1.8377,0.2248,38.3300,80,96,154531
1.8328,0.2199,38.4300,80,96,154534
1.8719,0.2248,38.4000,80,96,154539
1.8280,0.2199,38.5200,80,96,154542
1.8817,0.2395,38.2400,80,96,154545
1.8426,0.2346,38.3600,80,96,154549
1.8377,0.2199,38.3300,80,96,154552
1.8377,0.2248,37.8300,80,96,154555
1.8328,0.2248,38.4300,80,96,154559
1.8719,0.2297,38.2700,80,96,154562
1.8475,0.2248,38.4000,80,96,154565
1.8719,0.2248,38.3000,80,96,154569
1.8524,0.2248,38.5500,80,96,154572
1.8573,0.2248,38.4300,80,96,154575
1.8719,0.2297,38.3600,80,96,154578
1.8377,0.2297,38.4000,80,96,154583
1.8524,0.2297,38.3000,80,96,154586
1.8182,0.2199,38.4000,80,96,154589
1.8280,0.2199,38.4300,80,96,154593
1.8426,0.2248,38.3300,80,96,154596
1.8280,0.2248,38.4300,80,96,154599
1.8622,0.2248,38.2100,80,96,154603
1.8280,0.2248,38.4000,80,96,154606
1.8328,0.2102,38.4300,80,96,154609
1.8524,0.2297,38.3600,80,96,154612
1.8280,0.2199,38.4300,80,96,154616
1.8719,0.2297,38.1800,80,96,154619
1.8377,0.2248,38.3300,80,96,154622
1.8475,0.2248,38.4600,80,96,154627
1.8280,0.2297,38.4000,80,96,154630
1.8231,0.2102,38.4300,80,96,154633
1.8622,0.2297,38.1500,80,96,154637
1.8328,0.2248,38.3000,80,96,154640
1.8133,0.2199,38.4000,80,96,154643
1.8231,0.2297,38.4000,80,96,154647
1.8182,0.2248,38.4300,80,96,154650
1.8719,0.2395,38.2400,80,96,154653
1.8573,0.2297,38.4300,80,96,154656
1.8524,0.2248,38.3600,80,96,154660
1.8426,0.2297,38.4300,80,96,154663
1.8426,0.2199,38.4900,80,96,154667
1.8671,0.2395,38.3600,80,96,154671
1.8475,0.2248,38.4300,80,96,154674
1.8622,0.2248,38.2400,80,96,154677
1.8328,0.2248,38.4300,80,96,154681
1.8280,0.2199,38.4300,80,96,154684
1.8573,0.2297,38.3000,80,96,154687
1.8377,0.2248,38.4300,80,96,154691
1.8719,0.2199,38.2700,80,96,154694
1.8524,0.2199,38.4000,80,96,154697
1.8524,0.2248,38.4300,80,96,154700
1.8817,0.2297,38.4900,80,96,154704
1.8622,0.2493,38.4300,80,96,154707
1.9013,0.2248,38.2100,80,96,154711
1.8719,0.2590,38.3600,80,96,154715
1.8671,0.2102,38.4000,80,96,154718
1.8719,0.2297,38.2700,80,96,154721
1.8475,0.2248,38.4600,80,96,154725
1.9013,0.2346,38.1500,80,96,154728
1.8573,0.2248,38.3300,80,96,154731
1.8426,0.2199,38.4000,80,96,154735
1.8475,0.2248,38.4000,80,96,154738
1.8377,0.2199,38.4300,80,96,154741
1.8817,0.2395,38.1800,80,96,154744
1.8377,0.2248,38.4300,80,96,154748
1.8377,0.2199,38.3600,80,96,154752
1.8426,0.2248,38.4300,80,96,154755
1.8377,0.2199,38.4300,80,96,154759
1.8768,0.2297,38.3000,80,96,154762
1.8573,0.2297,38.4000,80,96,154765
1.8622,0.2248,38.3300,80,96,154769
1.8377,0.2199,38.4300,80,96,154772
1.8426,0.2199,38.4000,80,96,154775
1.8719,0.2346,38.4900,80,96,154779
1.8524,0.2248,38.4300,80,96,154782
1.8768,0.2297,38.3600,80,96,154785
1.8426,0.2102,38.4600,80,96,154788
1.8573,0.2248,38.4900,80,96,154792
1.8671,0.2346,38.3300,80,96,154796
1.8573,0.2248,38.4600,80,96,154799
1.8817,0.2248,38.3300,80,96,154803
1.8524,0.2248,38.4300,80,96,154806
1.8622,0.2248,38.4000,80,96,154809
1.8915,0.2297,38.3600,80,96,154813
1.8768,0.2248,37.8000,80,96,154816
1.8671,0.2395,38.4300,80,96,154820
1.9159,0.2395,38.1800,80,96,154823
1.8768,0.2297,38.3300,80,96,154826
1.8573,0.2102,38.3300,80,96,154830
1.8475,0.2248,38.4600,80,96,154833
1.8426,0.2199,38.4300,80,96,154836
1.8817,0.2346,38.3000,80,96,154840
1.8475,0.2248,38.4000,80,96,154844
1.8573,0.2248,38.3000,80,96,154847
1.8231,0.2248,38.4000,80,96,154850
1.8182,0.2199,38.4300,80,96,154854
1.8328,0.2297,38.4000,80,96,154857
1.8182,0.2248,38.4300,80,96,154860
1.8377,0.2297,38.4000,80,96,154864
1.8084,0.2199,38.4300,80,96,154867
1.8035,0.2248,38.4300,80,96,154870
1.8377,0.2297,38.3600,80,96,154874
1.8231,0.2248,38.4300,80,96,154877
1.8475,0.2199,38.2400,80,96,154881
1.8475,0.2248,38.3600,80,96,154884
1.8328,0.2199,38.4300,80,96,154888
1.8768,0.2297,38.3000,80,96,154891
1.8377,0.2248,38.4300,80,96,154894
