ecg,gsr,temp,hr,spo2,timest
1.5494,0.0538,39.4100,80,99,0
1.5298,0.0489,39.5700,80,99,3
1.5445,0.0635,39.5100,80,99,6
1.5249,0.0538,39.5700,80,99,8
1.5396,0.0538,39.4400,80,99,11
1.5103,0.0538,39.3800,80,99,14
1.4907,0.0538,39.5700,80,99,17
1.5249,0.0635,39.2800,80,99,20
1.4956,0.0538,39.4800,80,99,23
1.5152,0.0538,39.4800,80,99,26
1.5543,0.0587,39.5100,80,99,29
1.5543,0.0587,39.5700,80,99,32
1.5396,0.0440,39.6400,80,99,35
1.5445,0.0587,39.5700,80,99,38
1.5445,0.0782,39.5400,80,99,41
1.5934,0.0587,39.4800,80,99,45
1.5836,0.0489,39.6000,80,99,48
1.5885,0.0489,39.5700,80,99,51
1.6471,0.0587,39.3200,80,99,54
1.5982,0.0440,39.6700,80,99,57
1.6129,0.0440,39.6000,80,99,60
1.6373,0.0684,39.5100,80,99,63
1.6471,0.0538,39.5400,80,99,66
1.6569,0.0440,39.5400,80,99,69
1.6716,0.0538,39.6000,80,99,72
1.6520,0.0538,39.6000,80,99,75
1.6764,0.0489,39.4400,80,99,78
1.6716,0.0587,39.6000,80,99,81
1.6764,0.0538,39.7700,80,99,84
1.7498,0.0684,39.4100,80,99,88
1.7107,0.0489,39.5700,80,99,91
1.7107,0.0489,39.5700,80,99,94
1.7155,0.0831,39.4800,80,99,96
1.7107,0.0538,39.5700,80,99,99
1.7253,0.0538,39.4800,80,99,102
1.7449,0.0587,39.5400,80,99,105
1.7546,0.0489,39.6000,80,99,108
1.7986,0.0342,39.3800,80,99,111
1.7595,0.0489,39.5700,80,99,115
1.7595,0.0538,39.7000,80,99,118
1.7889,0.0635,39.5400,80,99,121
1.7889,0.0733,39.5400,80,99,124
1.7986,0.0440,39.5700,80,99,128
1.8328,0.0538,39.5400,80,99,131
1.8280,0.0489,39.6000,80,99,134
1.8426,0.0489,39.4400,80,99,137
1.8182,0.0538,39.5700,80,99,140
1.8328,0.0635,39.5700,80,99,143
1.8915,0.0635,39.4800,80,99,146
1.8964,0.0342,39.5400,80,99,149
1.8964,0.0489,39.6000,80,99,152
1.9159,0.0587,39.4100,80,99,155
1.8964,0.0782,39.5700,80,99,158
1.9306,0.1124,39.4800,80,99,161
1.9110,0.0587,39.5700,80,99,164
1.9306,0.0489,39.6000,80,99,167
1.9990,0.0684,39.4400,80,99,171
1.9599,0.0538,39.5400,80,99,174
1.9404,0.0489,39.6000,80,99,177
1.9550,0.0587,39.4400,80,99,180
1.9550,0.0587,39.5400,80,99,183
1.9941,0.0587,39.4800,80,99,186
1.9892,0.0538,39.6000,80,99,189
1.9892,0.0489,39.7700,80,99,192
2.0381,0.0587,39.2500,80,99,195
2.0039,0.0782,39.5700,80,99,198
1.9941,0.0538,39.7300,80,99,201
2.0235,0.0587,39.5100,80,99,204
2.0479,0.0538,39.5700,80,99,207
2.0381,0.0391,39.5100,80,99,210
2.0235,0.0538,39.6000,80,99,214
1.9990,0.0489,39.5700,80,99,217
2.0332,0.0587,39.3800,80,99,220
1.9844,0.0538,39.4800,80,99,223
1.9746,0.0489,39.6000,80,99,226
1.9892,0.0587,39.5400,80,99,229
1.9550,0.0489,39.5100,80,99,232
1.9013,0.0440,39.6400,80,99,235
1.8817,0.0587,39.5400,80,99,238
1.8426,0.0538,39.6000,80,99,241
1.8524,0.0538,39.4400,80,99,244
1.8133,0.0489,39.6000,80,99,247
1.7937,0.0489,39.6000,80,99,250
1.8084,0.0635,39.4400,80,99,253
1.7449,0.0489,39.6000,80,99,257
1.7107,0.0538,39.8000,80,99,260
1.7155,0.0635,39.4800,80,99,263
1.7009,0.0342,39.5400,80,99,267
1.7107,0.0538,39.4800,80,99,270
1.6716,0.0489,39.6000,80,99,273
1.6520,0.0489,39.7000,80,99,276
1.6862,0.0684,39.3800,80,99,279
1.6373,0.0782,39.5100,80,99,282
1.6667,0.0538,39.6000,80,99,285
1.6813,0.0538,39.4800,80,99,288
1.6618,0.0538,39.6000,80,99,291
1.6667,0.0831,39.4800,80,99,294
1.6471,0.0635,39.5700,80,99,297
1.6325,0.0587,39.6000,80,99,301
1.6813,0.0635,39.3200,80,99,304
1.6471,0.0684,39.5400,80,99,307
1.6618,0.0587,39.6400,80,99,310
1.7204,0.0587,39.4400,80,99,313
1.6667,0.0538,39.5700,80,99,316
1.6716,0.0538,39.5100,80,99,319
1.6716,0.0538,39.6400,80,99,322
1.7058,0.0538,39.6000,80,99,325
1.7400,0.0538,39.3800,80,99,328
1.7058,0.0489,39.6000,80,99,331
1.7058,0.0489,39.6000,80,99,334
1.7302,0.0587,39.4400,80,99,337
1.7204,0.0684,39.5400,80,99,340
1.7253,0.0782,39.5700,80,99,344
1.7351,0.0587,39.5700,80,99,347
1.7449,0.0489,39.6000,80,99,350
1.7595,0.0489,39.3800,80,99,353
1.7155,0.0538,39.3500,80,99,356
1.7155,0.0538,39.6400,80,99,359
1.7595,0.0587,39.4100,80,99,362
1.7644,0.0587,39.5100,80,99,365
1.7546,0.0440,39.5700,80,99,368
1.7791,0.0538,39.5400,80,99,371
1.7546,0.0489,39.6000,80,99,374
1.7742,0.0489,39.4800,80,99,377
1.7449,0.0587,39.5700,80,99,380
1.7595,0.0538,39.6000,80,99,384
1.8133,0.0342,39.4100,80,99,387
1.7889,0.0489,39.4400,80,99,391
1.7693,0.0489,39.6400,80,99,394
1.7840,0.0587,39.5100,80,99,397
1.7644,0.0538,39.5700,80,99,400
1.7986,0.0587,39.4800,80,99,403
1.7937,0.0538,39.5100,80,99,406
1.7986,0.0489,39.6400,80,99,409
1.8475,0.0733,39.3500,80,99,412
1.7986,0.0489,39.5100,80,99,415
1.7791,0.0538,39.6000,80,99,418
1.7937,0.0538,39.5400,80,99,421
1.7937,0.0538,39.6700,80,99,424
1.8182,0.0635,39.4400,80,99,428
1.8035,0.0489,39.5700,80,99,431
1.7889,0.0489,39.5700,80,99,434
1.8231,0.0587,39.3200,80,99,437
1.7840,0.0733,39.5700,80,99,440
1.7840,0.0538,39.6000,80,99,443
1.8280,0.0538,39.5100,80,99,446
1.8133,0.0538,39.5700,80,99,449
1.8133,0.0440,39.5100,80,99,452
1.7986,0.0733,39.5400,80,99,455
1.7840,0.0538,39.5700,80,99,458
1.8231,0.0831,39.3500,80,99,461
1.7986,0.0489,39.5700,80,99,464
1.8084,0.0489,39.5700,80,99,467
1.8328,0.0538,39.6400,80,99,471
1.8182,0.0538,39.4800,80,99,474
1.8035,0.0538,39.5700,80,99,477
1.8182,0.0538,39.5700,80,99,480
1.8182,0.0538,39.6000,80,99,483
1.8475,0.0342,39.4100,80,99,486
1.8182,0.0489,39.6000,80,99,489
1.8133,0.0489,39.6000,80,99,492
1.8328,0.0635,39.6000,80,99,495
1.8035,0.0587,39.6700,80,99,498
1.7937,0.0538,39.5700,80,99,501
1.8475,0.0587,39.5100,80,99,504
1.8231,0.0538,39.5700,80,99,507
1.8524,0.0489,39.5100,80,99,510
1.8133,0.0489,39.6000,80,99,514
1.8035,0.0538,39.6000,80,99,518
1.8622,0.0733,39.3800,80,99,521
1.8426,0.0587,39.5400,80,99,524
1.8768,0.0489,39.5700,80,99,527
1.8817,0.0538,39.1600,80,99,530
1.8671,0.0929,39.6400,80,99,533
1.8866,0.0440,39.4400,80,99,536
1.8475,0.0587,39.5700,80,99,539
1.8622,0.0538,39.6000,80,99,542
1.9355,0.0635,39.2800,80,99,545
1.9208,0.0733,39.5700,80,99,548
1.9208,0.0538,39.6000,80,99,551
1.9501,0.0342,39.4800,80,99,555
1.9306,0.0538,39.5700,80,99,558
1.9550,0.0538,39.5100,80,99,561
1.9550,0.0538,39.6000,80,99,564
1.9648,0.0489,39.6000,80,99,567
2.0479,0.0587,39.3500,80,99,570
1.9648,0.0440,39.4800,80,99,573
1.9159,0.0342,39.6000,80,99,576
1.9208,0.0635,39.5100,80,99,579
1.8817,0.0538,39.6000,80,99,582
1.8671,0.0489,39.7300,80,99,585
1.8573,0.0733,39.5700,80,99,588
1.8426,0.0489,39.5700,80,99,591
1.8622,0.0489,39.4100,80,99,594
1.8133,0.0489,39.5400,80,99,598
1.8035,0.0538,39.7000,80,99,601
1.8328,0.0635,39.4100,80,99,604
1.8231,0.0587,39.5700,80,99,607
1.8182,0.0391,39.5700,80,99,610
1.8084,0.0538,39.5400,80,99,613
1.8035,0.0587,39.5700,80,99,618
1.7937,0.0489,39.5700,80,99,621
1.8280,0.0587,39.3200,80,99,624
1.7937,0.0538,39.5100,80,99,627
1.7889,0.0538,39.7300,80,99,630
1.8280,0.0538,39.4800,80,99,633
1.8035,0.0489,39.6700,80,99,637
1.8280,0.0831,39.4800,80,99,641
1.7889,0.0489,39.6000,80,99,644
1.7742,0.0489,39.6000,80,99,647
1.7840,0.0635,39.4400,80,99,650
1.7449,0.0782,39.5400,80,99,653
1.7155,0.0342,39.5100,80,99,656
1.7058,0.0489,39.5700,80,99,660
1.7644,0.0489,39.5700,80,99,663
1.9746,0.0587,39.3200,80,99,666
2.1603,0.0440,39.5100,80,99,669
2.4780,0.0489,39.5700,80,99,672
2.8348,0.0587,39.5400,80,99,675
3.1476,0.0440,39.5700,80,99,678
3.4066,0.0489,39.4800,80,99,681
3.4995,0.0489,39.8000,80,99,686
3.4897,0.0587,39.6000,80,99,689
3.3920,0.0587,39.4400,80,99,692
3.0743,0.0538,39.5700,80,99,695
2.7468,0.0489,39.5100,80,99,698
2.4145,0.0489,39.5700,80,99,701
2.1261,0.0489,39.5700,80,99,704
1.9648,0.0587,39.3200,80,99,707
1.7937,0.0538,39.5100,80,99,711
1.7009,0.0587,39.5700,80,99,714
1.6716,0.0635,39.5100,80,99,717
1.6080,0.0831,39.6400,80,99,720
1.6080,0.0489,39.4400,80,99,723
1.5543,0.0538,39.5700,80,99,727
1.5445,0.0782,39.5400,80,99,730
1.5640,0.0538,39.5400,80,99,734
1.5543,0.0538,39.7000,80,99,737
1.5787,0.0440,39.5100,80,99,740
1.5445,0.0538,39.6400,80,99,743
1.5396,0.0587,39.5700,80,99,746
1.5934,0.0635,39.3800,80,99,749
1.5787,0.0489,39.4800,80,99,752
1.5885,0.0489,39.6000,80,99,755
1.6129,0.0635,39.4800,80,99,759
1.5982,0.0440,39.6000,80,99,762
1.6227,0.0489,39.4800,80,99,765
1.6129,0.0538,39.6000,80,99,769
1.6373,0.0489,39.6400,80,99,772
1.6813,0.0342,39.4400,80,99,775
1.6764,0.0880,39.6400,80,99,778
1.6911,0.0489,39.4800,80,99,782
1.6764,0.0538,39.7000,80,99,785
1.6764,0.0489,39.6000,80,99,788
1.7449,0.0684,39.3200,80,99,791
1.7204,0.0342,39.5100,80,99,794
1.7302,0.0440,39.6000,80,99,797
1.7449,0.0538,39.5400,80,99,800
1.7351,0.0489,39.5700,80,99,804
1.7644,0.0538,39.3500,80,99,807
1.7498,0.0440,39.5400,80,99,811
1.7644,0.0489,39.6000,80,99,814
1.8035,0.0489,39.4800,80,99,817
1.7937,0.0342,39.5700,80,99,820
1.7986,0.0489,39.5400,80,99,823
1.7791,0.0587,39.6000,80,99,826
1.7889,0.0538,39.6000,80,99,830
1.8573,0.0635,39.4100,80,99,833
1.8377,0.0489,39.5400,80,99,836
1.8328,0.0440,39.5400,80,99,839
1.8426,0.0538,39.5400,80,99,842
1.8280,0.0489,39.4800,80,99,845
1.8719,0.0587,39.3800,80,99,848
1.8524,0.0489,39.5400,80,99,852
1.8622,0.0538,39.6000,80,99,856
1.8768,0.0489,39.5100,80,99,859
1.8671,0.0489,39.7000,80,99,862
1.8866,0.0489,39.4400,80,99,865
1.8671,0.0538,39.5100,80,99,868
1.8768,0.0538,39.6000,80,99,871
1.9501,0.0587,39.4100,80,99,874
1.9355,0.0538,39.5100,80,99,878
1.9208,0.0391,39.5700,80,99,881
1.9306,0.0538,39.7300,80,99,884
1.9257,0.0440,39.6000,80,99,887
1.9892,0.0538,39.3800,80,99,890
1.9697,0.0587,39.6000,80,99,893
1.9892,0.0440,39.5700,80,99,897
2.0235,0.0538,39.4800,80,99,901
1.9892,0.0489,39.5700,80,99,904
2.0235,0.0538,39.4800,80,99,907
1.9990,0.0831,39.6000,80,99,910
2.0186,0.0489,39.6000,80,99,913
2.0674,0.0538,39.4400,80,99,916
2.0430,0.0538,39.5100,80,99,919
2.0332,0.0440,39.5700,80,99,922
2.0235,0.0538,39.5700,80,99,926
2.0137,0.0635,39.5700,80,99,929
2.0626,0.0538,39.3500,80,99,932
2.0430,0.0489,39.8300,80,99,935
2.0235,0.0489,39.6400,80,99,939
2.0283,0.0538,39.4800,80,99,942
1.9795,0.0489,39.6400,80,99,945
1.9795,0.0538,39.4800,80,99,948
1.9404,0.0538,39.6000,80,99,952
1.9306,0.0489,39.6000,80,99,955
1.9453,0.0587,39.4800,80,99,958
1.8866,0.0538,39.5400,80,99,961
1.8426,0.0489,39.5700,80,99,964
1.8133,0.0538,39.5700,80,99,967
1.7791,0.0342,39.6000,80,99,970
1.8182,0.0538,39.3500,80,99,974
1.8035,0.0440,39.5400,80,99,977
1.7400,0.0489,39.6000,80,99,980
1.7253,0.0489,39.4400,80,99,984
1.6911,0.0440,39.5700,80,99,987
1.6960,0.0587,39.5100,80,99,990
1.6764,0.0440,39.5700,80,99,993
1.6960,0.0440,39.6000,80,99,996
1.7107,0.0538,39.5100,80,99,1000
1.6813,0.0538,39.5100,80,99,1003
1.6667,0.0489,39.4800,80,99,1006
1.6569,0.0538,39.5700,80,99,1009
1.6667,0.0489,39.6700,80,99,1012
1.7302,0.0635,39.3200,80,99,1016
1.6911,0.0489,39.4800,80,99,1019
1.6716,0.0538,39.5700,80,99,1022
1.6667,0.0587,39.5400,80,99,1026
1.6618,0.0489,39.5700,80,99,1029
1.7155,0.0342,39.3500,80,99,1033
1.7058,0.0489,39.5100,80,99,1036
1.6911,0.0440,39.6400,80,99,1039
1.7204,0.0587,39.5100,80,99,1042
1.6911,0.0489,39.5700,80,99,1045
1.7204,0.0489,39.4100,80,99,1048
1.7009,0.0440,39.5100,80,99,1052
1.7204,0.0342,39.5700,80,99,1055
1.7449,0.0489,39.5100,80,99,1058
1.7351,0.0489,39.5700,80,99,1061
1.7546,0.0587,39.5100,80,99,1064
1.7351,0.0538,39.6000,80,99,1069
1.7498,0.0489,39.6000,80,99,1072
1.7986,0.0538,39.4400,80,99,1075
1.7791,0.0489,39.6000,80,99,1078
1.7742,0.0440,39.5100,80,99,1081
1.7546,0.0489,39.6000,80,99,1085
1.7449,0.0489,39.6000,80,99,1088
1.8035,0.0635,39.4400,80,99,1091
1.7840,0.0587,39.5400,80,99,1094
1.7840,0.0440,39.5700,80,99,1097
1.7889,0.0538,39.5700,80,99,1100
1.7742,0.0489,39.6000,80,99,1104
1.8182,0.0587,39.3200,80,99,1107
1.7937,0.0538,39.6000,80,99,1111
1.7889,0.0489,39.5700,80,99,1114
1.8231,0.0587,39.4800,80,99,1117
1.7937,0.0635,39.6400,80,99,1121
1.8182,0.0489,39.3800,80,99,1124
1.7840,0.0489,39.5100,80,99,1127
1.7840,0.0538,39.5700,80,99,1130
1.8133,0.0587,39.4400,80,99,1133
1.8084,0.0440,39.5700,80,99,1137
1.8328,0.0440,39.4800,80,99,1140
1.7986,0.0538,39.6000,80,99,1143
1.7889,0.0440,39.6000,80,99,1146
1.8182,0.0733,39.4100,80,99,1149
1.8133,0.0489,39.5700,80,99,1153
1.8231,0.0489,39.4400,80,99,1157
1.8280,0.0489,39.5700,80,99,1160
1.7889,0.0440,39.6000,80,99,1163
1.8133,0.0880,39.4400,80,99,1166
1.7937,0.0635,39.5400,80,99,1169
1.7937,0.0440,39.5400,80,99,1173
1.8035,0.0733,39.6400,80,99,1176
1.7986,0.0440,39.6000,80,99,1179
1.8426,0.0684,39.4400,80,99,1182
1.8133,0.0489,39.4800,80,99,1185
1.7840,0.0440,39.6400,80,99,1189
1.8035,0.0538,39.5400,80,99,1192
1.8084,0.0440,39.6000,80,99,1196
1.8426,0.0538,39.3500,80,99,1199
1.8084,0.0342,39.5400,80,99,1202
1.7889,0.0587,39.6000,80,99,1205
1.8035,0.0587,39.4400,80,99,1209
1.7937,0.0587,39.5700,80,99,1212
1.8280,0.0587,39.4800,80,99,1215
1.8035,0.0440,39.6000,80,99,1218
1.7986,0.0489,39.6000,80,99,1221
1.8133,0.0489,39.4400,80,99,1225
1.8280,0.0538,39.4800,80,99,1228
1.8035,0.0489,39.7000,80,99,1231
1.8426,0.0489,39.4800,80,99,1235
1.8377,0.0440,39.6400,80,99,1239
1.8622,0.0489,39.4800,80,99,1242
1.8817,0.0489,39.4800,80,99,1245
1.8671,0.0489,39.6000,80,99,1248
1.8915,0.0489,39.4800,80,99,1251
1.8768,0.0538,39.6400,80,99,1255
1.8915,0.0538,39.5700,80,99,1258
1.9501,0.0587,39.4100,80,99,1261
1.9453,0.0342,39.5400,80,99,1264
1.9355,0.0440,39.5100,80,99,1267
1.9404,0.0440,39.6000,80,99,1271
1.9110,0.0538,39.5700,80,99,1274
1.9697,0.0635,39.3800,80,99,1277
1.9355,0.0489,39.5100,80,99,1281
1.9062,0.0391,39.5700,80,99,1284
1.8915,0.0342,39.5700,80,99,1288
1.8426,0.0489,39.5700,80,99,1291
1.8622,0.0538,39.3500,80,99,1294
1.8231,0.0538,39.5400,80,99,1297
1.8035,0.0489,39.6000,80,99,1300
1.8280,0.0587,39.4800,80,99,1304
1.7889,0.0489,39.6000,80,99,1307
1.7986,0.0440,39.4100,80,99,1310
1.7498,0.0489,39.5100,80,99,1313
1.7498,0.0538,39.6000,80,99,1316
1.7693,0.0538,39.4400,80,99,1319
1.7644,0.0489,39.5700,80,99,1324
1.7840,0.0538,39.6000,80,99,1327
1.7498,0.0489,39.5700,80,99,1330
1.7449,0.0489,39.6400,80,99,1333
1.7791,0.0635,39.5100,80,99,1336
1.7742,0.0538,39.5700,80,99,1340
1.7937,0.0440,39.4800,80,99,1343
1.7742,0.0440,39.5400,80,99,1346
1.7644,0.0538,39.6000,80,99,1349
1.7986,0.0684,39.4400,80,99,1352
1.7742,0.0635,39.5700,80,99,1355
1.7742,0.0391,39.5700,80,99,1359
1.7937,0.0440,39.5700,80,99,1362
1.7742,0.0440,39.6000,80,99,1366
1.7986,0.0342,39.3200,80,99,1369
1.7009,0.0538,39.5100,80,99,1372
1.6667,0.0538,39.5700,80,99,1376
1.7107,0.0587,39.5100,80,99,1379
1.8035,0.0489,39.5700,80,99,1382
2.0626,0.0489,39.3800,80,99,1385
2.3069,0.0489,39.5100,80,99,1388
2.6197,0.0440,39.6000,80,99,1392
2.9717,0.0587,39.5100,80,99,1395
3.2551,0.0538,39.5700,80,99,1398
3.5386,0.0489,39.4800,80,99,1401
3.5875,0.0489,39.6000,80,99,1404
3.4848,0.0440,39.6000,80,99,1408
3.2845,0.0489,39.5100,80,99,1412
2.8983,0.0538,39.5700,80,99,1415
2.5758,0.0440,39.4800,80,99,1418
2.2239,0.0440,39.5700,80,99,1421
1.9795,0.0489,39.6000,80,99,1424
1.8475,0.0635,39.4400,80,99,1428
1.7107,0.0587,39.5400,80,99,1431
1.6325,0.0342,39.5100,80,99,1434
1.5836,0.0538,39.6000,80,99,1437
1.5591,0.0489,39.6000,80,99,1440
1.5787,0.0635,39.4400,80,99,1444
1.5249,0.0538,39.5100,80,99,1447
1.5005,0.0489,39.6400,80,99,1451
1.5054,0.0538,39.5400,80,99,1454
1.4956,0.0489,39.6400,80,99,1457
1.5396,0.0538,39.3500,80,99,1460
1.5249,0.0538,39.5400,80,99,1464
1.5298,0.0489,39.5700,80,99,1467
1.5543,0.0587,39.4800,80,99,1470
1.5445,0.0587,39.6400,80,99,1473
1.5787,0.0489,39.4100,80,99,1476
1.5640,0.0440,39.6000,80,99,1480
1.5787,0.0733,39.6000,80,99,1483
1.6129,0.0587,39.5400,80,99,1486
1.6325,0.0440,39.5700,80,99,1489
1.6227,0.0538,39.4400,80,99,1492
1.6129,0.0440,39.6000,80,99,1497
1.6276,0.0489,39.6400,80,99,1500
1.6764,0.0587,39.4400,80,99,1503
1.6618,0.0538,39.5400,80,99,1506
1.6716,0.0538,39.4800,80,99,1509
1.6618,0.0440,39.5400,80,99,1513
1.6764,0.0489,39.6400,80,99,1516
1.7351,0.0635,39.4400,80,99,1519
1.7107,0.0538,39.6000,80,99,1522
1.7058,0.0440,39.5700,80,99,1525
1.7204,0.0538,39.4400,80,99,1528
1.7107,0.0489,39.6700,80,99,1532
1.7693,0.0587,39.3500,80,99,1536
1.7449,0.0391,39.5100,80,99,1539
1.7498,0.0489,39.6400,80,99,1542
1.7742,0.0587,39.5400,80,99,1545
1.7644,0.0587,39.6000,80,99,1549
1.8035,0.0538,39.3800,80,99,1552
1.7742,0.0440,39.6000,80,99,1555
1.7889,0.0440,39.7000,80,99,1558
1.8231,0.0538,39.5700,80,99,1561
1.8182,0.0489,39.6000,80,99,1565
1.8671,0.0440,39.4800,80,99,1568
1.8328,0.0440,39.5700,80,99,1571
1.8377,0.0587,39.5400,80,99,1574
1.8866,0.0587,39.5100,80,99,1577
1.8671,0.0489,39.5700,80,99,1581
1.8964,0.0489,39.4400,80,99,1585
1.8817,0.0489,39.6000,80,99,1588
1.8866,0.0489,39.6000,80,99,1591
1.9306,0.0635,39.5100,80,99,1594
1.9159,0.0538,39.5700,80,99,1597
1.9257,0.0440,39.5700,80,99,1601
1.9355,0.0538,39.6000,80,99,1604
1.9355,0.0489,39.6000,80,99,1607
1.9990,0.0635,39.3800,80,99,1610
1.9648,0.0489,39.5400,80,99,1613
1.9599,0.0489,39.6000,80,99,1617
1.9844,0.0538,39.5700,80,99,1620
1.9844,0.0489,39.6000,80,99,1624
2.0381,0.0538,39.3500,80,99,1627
1.9941,0.0440,39.5700,80,99,1630
1.9990,0.0489,39.5700,80,99,1633
2.0283,0.0538,39.5100,80,99,1637
2.0137,0.0489,39.6000,80,99,1640
2.0430,0.0489,39.4400,80,99,1643
2.0088,0.0489,39.5700,80,99,1646
2.0039,0.0440,39.6400,80,99,1649
2.0235,0.0635,39.5100,80,99,1653
2.0283,0.0587,39.5700,80,99,1656
2.0137,0.0782,39.5700,80,99,1659
1.9746,0.0489,39.6000,80,99,1662
1.9599,0.0587,39.6000,80,99,1666
1.9697,0.0733,39.5100,80,99,1669
1.9208,0.0538,39.5700,80,99,1673
1.8915,0.0440,39.4800,80,99,1676
1.8671,0.0587,39.5700,80,99,1679
1.8719,0.0440,39.6400,80,99,1682
1.8622,0.0733,39.3800,80,99,1685
1.8035,0.0440,39.4800,80,99,1689
1.7595,0.0489,39.6000,80,99,1692
1.7449,0.0587,39.5700,80,99,1695
1.7155,0.0440,39.6000,80,99,1698
1.7449,0.0635,39.3800,80,99,1701
1.6911,0.0391,39.5400,80,99,1705
1.6716,0.0342,39.6400,80,99,1709
1.6862,0.0587,39.4800,80,99,1712
1.6618,0.0489,39.5700,80,99,1715
1.6862,0.0489,39.4400,80,99,1718
1.6667,0.0489,39.6000,80,99,1722
1.6569,0.0489,39.6000,80,99,1725
1.6764,0.0538,39.6000,80,99,1728
1.6569,0.0489,39.5700,80,99,1731
1.6764,0.0538,39.5100,80,99,1734
1.6569,0.0538,39.6000,80,99,1737
1.6667,0.0489,39.6000,80,99,1741
1.6911,0.0538,39.5400,80,99,1744
1.6764,0.0538,39.5400,80,99,1747
1.6813,0.0538,39.5100,80,99,1751
1.6716,0.0538,39.5700,80,99,1754
1.6716,0.0440,39.6000,80,99,1758
1.7546,0.0635,39.4100,80,99,1761
1.7204,0.0538,39.6000,80,99,1764
1.7058,0.0342,39.5400,80,99,1767
1.7107,0.0538,39.5700,80,99,1770
1.6911,0.0489,39.6000,80,99,1774
1.7546,0.0587,39.3200,80,99,1777
1.7204,0.0489,39.5100,80,99,1780
1.7302,0.0489,39.6000,80,99,1783
1.7498,0.0538,39.5400,80,99,1786
1.7253,0.0489,39.6000,80,99,1789
1.7595,0.0538,39.3800,80,99,1794
1.7400,0.0538,39.5700,80,99,1797
1.7449,0.0489,39.6400,80,99,1800
1.7791,0.0489,39.4400,80,99,1803
1.7595,0.0440,39.6000,80,99,1806
1.7742,0.0440,39.4800,80,99,1810
1.7351,0.0489,39.6400,80,99,1813
1.7400,0.0635,39.6400,80,99,1816
1.7693,0.0538,39.5100,80,99,1819
1.7693,0.0489,39.7000,80,99,1822
1.7889,0.0489,39.4400,80,99,1826
1.7595,0.0489,39.5700,80,99,1829
1.7498,0.0538,39.5700,80,99,1832
1.7840,0.0587,39.4100,80,99,1836
1.7840,0.0587,39.8900,80,99,1840
1.7693,0.0538,39.6400,80,99,1843
1.7986,0.0538,39.2500,80,99,1846
1.7889,0.0489,39.6400,80,99,1849
1.7889,0.0440,39.5700,80,99,1852
1.8084,0.0587,39.4800,80,99,1856
1.7742,0.0538,39.6000,80,99,1859
1.7742,0.0489,39.5400,80,99,1862
1.7791,0.0587,39.5700,80,99,1865
1.7889,0.0489,39.5100,80,99,1868
1.8475,0.0635,39.3500,80,99,1872
1.7986,0.0538,39.4400,80,99,1875
1.7791,0.0489,39.5700,80,99,1879
1.7840,0.0587,39.5700,80,99,1882
1.7840,0.0587,39.5700,80,99,1885
1.8475,0.0587,39.3500,80,99,1889
1.7986,0.0440,39.5400,80,99,1892
1.7986,0.0391,39.6000,80,99,1895
1.7986,0.0538,39.5400,80,99,1898
1.7840,0.0538,39.6000,80,99,1901
1.8182,0.0538,39.4100,80,99,1905
1.8035,0.0489,39.5100,80,99,1908
1.8084,0.0489,39.6000,80,99,1911
1.8182,0.0489,39.4400,80,99,1914
1.7889,0.0538,39.6000,80,99,1917
1.8084,0.0587,39.4400,80,99,1921
1.7889,0.0342,39.6000,80,99,1925
1.8035,0.0489,39.6000,80,99,1928
1.8328,0.0538,39.5400,80,99,1931
1.8084,0.0489,39.5700,80,99,1934
1.8182,0.0489,39.5100,80,99,1937
1.7791,0.0538,39.6000,80,99,1941
1.7791,0.0342,39.5700,80,99,1944
1.8426,0.0635,39.4400,80,99,1947
1.8182,0.0587,39.5400,80,99,1950
1.7937,0.0391,39.5400,80,99,1953
1.7791,0.0538,39.5700,80,99,1957
1.7644,0.0538,39.5100,80,99,1960
1.8182,0.0684,39.3200,80,99,1964
1.7937,0.0440,39.5400,80,99,1967
1.8133,0.0391,39.6400,80,99,1970
1.8622,0.0489,39.5400,80,99,1973
1.8231,0.0489,39.6000,80,99,1977
1.8768,0.0587,39.3800,80,99,1980
1.8426,0.0538,39.5100,80,99,1983
1.8426,0.0489,39.6000,80,99,1986
1.8915,0.0538,39.4400,80,99,1989
1.8768,0.0489,39.6000,80,99,1993
1.9062,0.0489,39.4800,80,99,1996
1.8817,0.0538,39.6000,80,99,1999
1.8915,0.0538,39.6000,80,99,2002
1.9257,0.0538,39.5700,80,99,2006
1.9306,0.0538,39.6000,80,99,2010
1.9404,0.0440,39.4800,80,99,2013
1.9013,0.0489,39.5700,80,99,2016
1.8719,0.0489,39.6400,80,99,2019
1.8915,0.0635,39.4400,80,99,2022
1.8671,0.0587,39.5400,80,99,2025
1.8426,0.0489,39.5400,80,99,2029
1.8182,0.0489,39.5700,80,99,2032
1.7937,0.0489,39.5100,80,99,2035
1.8280,0.0684,39.4800,80,99,2038
1.7791,0.0489,39.5100,80,99,2041
1.7791,0.0489,39.6000,80,99,2045
1.7937,0.0831,39.5400,80,99,2049
1.8133,0.0440,39.6000,80,99,2052
1.8084,0.0538,39.3800,80,99,2055
1.7644,0.0782,39.5400,80,99,2058
1.7498,0.0587,39.6400,80,99,2062
1.7791,0.0684,39.4800,80,99,2065
1.7742,0.0489,39.6000,80,99,2068
1.8084,0.0342,39.4400,80,99,2071
1.7742,0.0440,39.5700,80,99,2074
1.7595,0.0489,39.6400,80,99,2078
1.7644,0.0538,39.5100,80,99,2081
1.7644,0.0538,39.5700,80,99,2084
1.7986,0.0587,39.5100,80,99,2087
1.7791,0.0489,39.5700,80,99,2091
1.7791,0.0489,39.7000,80,99,2094
1.8035,0.0587,39.4400,80,99,2098
1.7791,0.0538,39.5400,80,99,2101
1.7791,0.0538,39.4800,80,99,2104
1.7449,0.0538,39.6000,80,99,2107
1.7155,0.0489,39.6000,80,99,2110
1.7351,0.0635,39.4400,80,99,2114
1.7155,0.0929,39.5100,80,99,2117
1.8084,0.0587,39.5700,80,99,2120
2.0332,0.0587,39.5700,80,99,2123
2.3412,0.0489,39.6000,80,99,2126
2.7370,0.0587,39.2800,80,99,2130
3.0254,0.0587,39.5700,80,99,2134
3.2698,0.0587,39.6400,80,99,2137
3.5142,0.0635,39.5100,80,99,2140
3.5533,0.0538,39.6000,80,99,2143
3.4995,0.0635,39.3800,80,99,2146
3.2160,0.0440,39.5100,80,99,2150
2.8299,0.0538,39.6000,80,99,2153
2.4927,0.0587,39.5700,80,99,2156
2.1652,0.0587,39.5700,80,99,2159
1.9648,0.0587,39.4800,80,99,2162
1.7840,0.0538,39.6000,80,99,2166
1.7253,0.0440,39.6000,80,99,2169
1.6520,0.0538,39.5100,80,99,2172
1.5787,0.0538,39.5700,80,99,2176
1.5445,0.0538,39.5100,80,99,2179
1.5103,0.0538,39.6000,80,99,2183
1.5152,0.0489,39.6000,80,99,2186
1.5445,0.0538,39.4400,80,99,2189
1.5249,0.0538,39.5400,80,99,2192
1.5005,0.0440,39.5100,80,99,2195
1.4956,0.0587,39.5700,80,99,2198
1.5005,0.0538,39.6400,80,99,2202
1.5640,0.0684,39.3800,80,99,2205
1.5494,0.0538,39.5700,80,99,2208
1.5494,0.0440,39.6400,80,99,2211
1.5640,0.0538,39.5700,80,99,2214
1.5494,0.0489,39.6000,80,99,2219
1.5885,0.0587,39.3800,80,99,2222
1.5787,0.0538,39.6000,80,99,2225
1.5934,0.0489,39.6000,80,99,2228
1.6276,0.0489,39.5400,80,99,2231
1.6129,0.0489,39.6000,80,99,2235
1.6373,0.0489,39.4800,80,99,2238
1.6178,0.0538,39.7000,80,99,2241
1.6373,0.0538,39.6400,80,99,2244
1.6862,0.0635,39.5100,80,99,2247
1.6813,0.0489,39.6400,80,99,2250
1.7009,0.0489,39.5100,80,99,2254
1.6764,0.0880,39.6000,80,99,2257
1.6764,0.0538,39.5100,80,99,2260
1.7204,0.0587,39.4400,80,99,2264
1.7253,0.0538,38.7700,80,99,2267
1.7449,0.0440,39.4100,80,99,2271
1.7400,0.0489,39.6000,80,99,2274
1.7351,0.0489,39.6000,80,99,2277
1.7889,0.0684,39.3500,80,99,2280
1.7546,0.0538,39.5400,80,99,2283
1.7644,0.0440,39.6000,80,99,2287
1.7937,0.0782,39.5400,80,99,2290
1.7791,0.0587,39.5700,80,99,2293
1.8182,0.0538,39.3500,80,99,2296
1.7840,0.0391,39.5700,80,99,2299
1.7840,0.0538,39.5700,80,99,2302
1.8231,0.0635,39.5400,80,99,2307
1.8280,0.0489,39.6000,80,99,2310
1.8622,0.0489,39.4100,80,99,2313
1.8280,0.0635,39.5700,80,99,2316
1.8280,0.0489,39.5700,80,99,2319
1.8622,0.0587,39.5400,80,99,2323
1.8573,0.0538,39.5400,80,99,2326
1.9062,0.0587,39.4800,80,99,2329
1.9110,0.0489,39.6000,80,99,2332
1.8915,0.0538,39.6000,80,99,2335
1.9550,0.0587,39.4400,80,99,2339
1.9013,0.0489,39.5700,80,99,2342
1.9257,0.0538,39.5100,80,99,2345
1.9501,0.0440,39.6000,80,99,2349
1.9355,0.0489,39.6000,80,99,2352
1.9844,0.0831,39.4800,80,99,2355
1.9404,0.0587,39.5400,80,99,2359
1.9355,0.0587,39.5700,80,99,2362
1.9599,0.0342,39.5700,80,99,2365
1.9697,0.0489,39.6000,80,99,2368
2.0332,0.0587,39.3200,80,99,2371
1.9892,0.0489,39.5100,80,99,2375
1.9697,0.0489,39.6000,80,99,2378
1.9941,0.0587,39.5100,80,99,2381
1.9892,0.0538,39.6000,80,99,2384
2.0430,0.0538,39.4100,80,99,2387
2.0039,0.0489,39.6000,80,99,2392
1.9892,0.0440,39.6400,80,99,2395
1.9941,0.0587,39.5100,80,99,2398
1.9501,0.0538,39.6400,80,99,2401
1.9599,0.0489,39.4800,80,99,2404
1.9208,0.0440,39.5700,80,99,2407
1.9013,0.0489,39.5700,80,99,2411
1.8964,0.0587,39.5100,80,99,2414
1.8377,0.0538,39.5700,80,99,2417
1.8182,0.0538,39.4400,80,99,2420
1.7791,0.0538,39.6000,80,99,2423
1.7693,0.0489,39.6700,80,99,2427
1.7840,0.0587,38.8100,80,99,2430
1.7351,0.0538,39.6400,80,99,2434
1.6960,0.0440,39.5100,80,99,2437
1.6667,0.0635,39.5700,80,99,2440
1.6471,0.0587,39.5700,80,99,2444
1.6960,0.0831,39.3500,80,99,2447
1.6276,0.0587,39.4400,80,99,2450
1.6276,0.0538,39.5400,80,99,2454
1.6325,0.0440,39.5400,80,99,2457
1.6276,0.0489,39.5400,80,99,2460
1.6080,0.0489,39.6400,80,99,2463
1.6422,0.0684,39.3800,80,99,2466
1.6178,0.0538,39.4800,80,99,2469
1.6178,0.0587,39.6400,80,99,2473
1.6422,0.0538,39.5700,80,99,2477
1.6471,0.0342,39.6000,80,99,2480
1.6960,0.0587,39.3500,80,99,2483
1.6422,0.0489,39.5400,80,99,2486
1.6471,0.0538,39.6400,80,99,2490
1.6667,0.0538,39.5100,80,99,2493
1.6716,0.0489,39.5700,80,99,2496
1.7058,0.0489,39.4100,80,99,2499
1.6716,0.0489,39.6000,80,99,2502
1.6667,0.0489,39.6400,80,99,2506
1.6960,0.0587,39.4400,80,99,2509
1.6911,0.0538,39.5400,80,99,2512
1.7302,0.0538,39.5400,80,99,2515
1.7107,0.0489,39.6000,80,99,2519
1.7058,0.0440,39.8300,80,99,2523
1.7204,0.0831,39.4800,80,99,2526
1.7058,0.0587,39.5100,80,99,2529
1.7302,0.0538,39.4400,80,99,2532
1.7253,0.0489,39.6000,80,99,2535
1.7302,0.0391,39.5700,80,99,2538
1.7644,0.0489,39.4400,80,99,2542
1.7253,0.0587,39.5400,80,99,2545
1.7155,0.0489,39.5700,80,99,2548
1.7253,0.0587,39.5700,80,99,2551
1.7400,0.0489,39.5700,80,99,2554
1.8231,0.0538,39.3200,80,99,2558
1.7546,0.0489,39.5100,80,99,2562
1.7351,0.0489,39.6000,80,99,2565
1.7498,0.0587,39.5700,80,99,2568
1.7449,0.0538,39.6000,80,99,2571
1.7791,0.0538,39.4100,80,99,2575
1.7546,0.0489,39.6000,80,99,2578
1.7546,0.0440,39.6000,80,99,2581
1.7595,0.0538,39.5100,80,99,2584
1.7400,0.0538,39.6400,80,99,2587
1.7693,0.0489,39.4800,80,99,2591
1.7546,0.0440,39.6400,80,99,2594
1.7644,0.0440,39.7000,80,99,2597
1.7791,0.0587,39.5700,80,99,2600
1.7449,0.0538,39.4800,80,99,2604
1.7546,0.0538,39.4800,80,99,2607
1.7351,0.0538,39.6700,80,99,2611
1.7449,0.0489,39.6000,80,99,2614
1.7840,0.0684,39.5400,80,99,2617
1.7644,0.0587,39.6000,80,99,2620
1.7546,0.0440,39.4800,80,99,2623
1.7449,0.0587,39.5700,80,99,2627
1.7400,0.0440,39.3800,80,99,2630
1.8035,0.0635,39.3800,80,99,2633
1.8133,0.0489,39.4400,80,99,2636
1.7546,0.0440,39.6000,80,99,2639
1.7546,0.0489,39.5700,80,99,2643
1.7400,0.0440,39.6000,80,99,2647
1.7742,0.0587,39.3500,80,99,2650
1.7693,0.0489,39.5700,80,99,2653
1.7644,0.0391,39.7000,80,99,2656
1.7791,0.0587,39.5700,80,99,2659
1.7498,0.0342,39.6000,80,99,2663
1.7742,0.0440,39.4100,80,99,2666
1.7351,0.0489,39.5400,80,99,2669
1.7742,0.0440,39.6000,80,99,2672
1.8035,0.0538,39.4800,80,99,2675
1.7937,0.0342,39.5700,80,99,2679
1.8182,0.0538,39.4800,80,99,2682
1.7742,0.0538,39.6000,80,99,2685
1.7889,0.0489,39.5400,80,99,2689
1.8328,0.0587,39.5400,80,99,2692
1.8377,0.0538,39.6400,80,99,2696
1.8671,0.0440,39.5100,80,99,2699
1.8524,0.0489,39.6400,80,99,2702
1.8524,0.0538,39.6000,80,99,2705
1.8964,0.0684,39.4100,80,99,2708
1.9110,0.0587,39.5100,80,99,2712
1.8622,0.0342,39.5700,80,99,2715
1.8573,0.0489,39.5700,80,99,2718
1.8280,0.0440,39.6000,80,99,2721
1.8475,0.0587,39.3200,80,99,2724
1.7742,0.0489,39.5400,80,99,2727
1.7595,0.0489,39.6400,80,99,2732
1.7693,0.0538,39.5400,80,99,2735
1.7546,0.0489,39.0000,80,99,2738
1.7791,0.0489,39.3800,80,99,2741
1.7253,0.0489,39.5100,80,99,2744
1.7155,0.0489,39.6000,80,99,2748
1.7302,0.0587,39.4800,80,99,2751
1.7204,0.0489,39.6000,80,99,2754
1.7449,0.0440,39.4800,80,99,2757
1.7155,0.0440,39.6000,80,99,2760
1.7058,0.0489,39.5100,80,99,2764
1.7107,0.0489,39.6700,80,99,2767
1.7058,0.0538,39.5700,80,99,2770
1.7351,0.0538,39.4800,80,99,2774
1.7253,0.0538,39.5400,80,99,2777
1.7204,0.0440,39.6000,80,99,2780
1.7449,0.0538,39.5100,80,99,2784
1.7204,0.0489,39.5700,80,99,2787
1.7155,0.0538,39.5400,80,99,2790
1.7302,0.0489,39.6000,80,99,2793
1.7400,0.0538,39.5700,80,99,2796
1.7889,0.0635,39.4400,80,99,2800
1.7351,0.0489,39.5700,80,99,2803
1.7058,0.0587,39.5700,80,99,2806
1.6764,0.0684,39.5700,80,99,2809
1.6422,0.0440,39.6000,80,99,2812
1.6716,0.0587,39.4400,80,99,2817
1.7107,0.0538,39.5400,80,99,2820
1.7791,0.0440,39.6400,80,99,2823
2.0186,0.0635,39.5400,80,99,2826
2.2776,0.0489,39.6000,80,99,2829
2.6588,0.0489,39.4100,80,99,2832
2.9228,0.0440,39.6000,80,99,2836
3.1965,0.0440,39.6000,80,99,2839
3.3724,0.0440,39.5100,80,99,2842
3.3773,0.0489,39.6000,80,99,2845
3.2796,0.0538,39.4100,80,99,2848
2.9814,0.0635,39.6400,80,99,2852
2.6735,0.0391,39.6000,80,99,2855
2.4096,0.0880,39.4400,80,99,2859
2.1261,0.0538,39.5400,80,99,2862
1.8768,0.0489,39.5100,80,99,2865
1.7204,0.0538,39.7000,80,99,2869
1.6129,0.0538,39.6000,80,99,2872
1.6080,0.0733,39.4100,80,99,2875
1.5396,0.0489,39.5700,80,99,2878
1.5005,0.0489,39.5700,80,99,2881
1.4809,0.0538,39.6700,80,99,2884
1.4663,0.0587,39.6400,80,99,2888
1.5054,0.0635,39.3800,80,99,2891
1.4956,0.0489,39.5100,80,99,2894
1.4956,0.0489,39.6400,80,99,2897
1.5249,0.0587,39.5100,80,99,2900
1.4956,0.0538,39.6400,80,99,2905
1.5152,0.0538,39.3800,80,99,2908
1.5103,0.0489,39.5700,80,99,2911
1.5298,0.0489,39.6000,80,99,2914
1.5591,0.0489,39.5100,80,99,2917
1.5494,0.0489,39.6400,80,99,2921
1.5738,0.0538,39.5400,80,99,2924
1.5543,0.0880,39.5400,80,99,2927
1.5689,0.0489,39.6700,80,99,2930
1.6178,0.0635,39.4800,80,99,2933
1.6178,0.0587,39.5700,80,99,2936
1.6325,0.0587,39.5400,80,99,2940
1.6276,0.0538,39.6000,80,99,2944
1.6129,0.0831,39.6000,80,99,2947
1.6618,0.0587,39.4800,80,99,2950
1.6862,0.0587,39.5400,80,99,2953
1.6813,0.0391,39.5100,80,99,2957
1.6667,0.0538,39.6000,80,99,2960
1.6569,0.0489,39.6000,80,99,2963
1.7009,0.0684,39.3800,80,99,2966
1.6716,0.0538,39.5400,80,99,2969
1.6862,0.0587,39.6400,80,99,2973
1.7155,0.0538,39.5700,80,99,2976
1.7107,0.0489,39.6400,80,99,2979
1.7498,0.0538,39.3800,80,99,2982
1.7155,0.0538,39.5400,80,99,2985
1.7155,0.0489,39.6000,80,99,2990
1.7449,0.0587,39.4800,80,99,2993
1.7449,0.0587,39.6000,80,99,2996
1.7840,0.0489,39.4800,80,99,2999
1.7693,0.0587,39.5700,80,99,3002
1.7693,0.0587,39.6000,80,99,3005
1.8084,0.0635,39.5100,80,99,3009
1.7986,0.0587,39.6000,80,99,3012
1.8377,0.0538,39.5100,80,99,3015
1.8426,0.0440,39.6000,80,99,3018
1.8231,0.0440,39.5700,80,99,3021
1.8475,0.0538,39.4800,80,99,3025
1.8622,0.0440,39.5700,80,99,3028
1.8524,0.0440,39.5100,80,99,3032
1.8719,0.0440,39.6000,80,99,3035
1.8768,0.0489,39.6000,80,99,3038
1.9404,0.0635,39.4400,80,99,3042
1.9013,0.0587,39.5400,80,99,3045
1.8817,0.0489,39.5700,80,99,3048
1.9062,0.0587,39.5700,80,99,3051
1.9208,0.0440,39.6000,80,99,3054
1.9844,0.0587,39.3800,80,99,3057
2.0283,0.0635,39.4400,80,99,3061
1.9892,0.0489,39.5700,80,99,3064
1.9795,0.0391,39.6000,80,99,3067
1.9795,0.0538,39.5700,80,99,3072
1.9746,0.0489,39.6000,80,99,3075
2.0283,0.0587,39.7000,80,99,3078
2.0039,0.0538,39.5400,80,99,3081
1.9844,0.0440,39.6000,80,99,3084
1.9941,0.0587,39.5100,80,99,3088
1.9355,0.0489,39.6400,80,99,3091
1.9355,0.0538,39.4100,80,99,3094
1.8866,0.0489,39.6700,80,99,3097
1.8719,0.0489,39.7300,80,99,3100
1.8622,0.0489,39.6000,80,99,3103
1.8231,0.0489,39.7000,80,99,3107
1.8133,0.0538,39.5100,80,99,3110
1.7546,0.0587,39.6000,80,99,3113
1.7400,0.0978,39.5700,80,99,3117
1.7546,0.0587,39.4400,80,99,3120
1.7204,0.0538,39.5700,80,99,3124
1.7058,0.0587,39.5700,80,99,3127
1.6667,0.0587,39.6400,80,99,3130
1.6422,0.0489,39.6400,80,99,3133
1.7009,0.0684,39.4400,80,99,3136
1.6618,0.0635,39.5400,80,99,3140
1.6422,0.0440,39.5700,80,99,3143
1.6716,0.0440,39.5700,80,99,3146
1.6227,0.0342,39.6000,80,99,3149
1.6618,0.0342,39.3200,80,99,3152
1.6325,0.0538,39.4800,80,99,3155
1.6373,0.0489,39.6000,80,99,3160
1.6667,0.0587,39.5400,80,99,3163
1.6569,0.0489,39.6400,80,99,3166
1.6862,0.0538,39.3500,80,99,3169
1.6520,0.0684,39.5400,80,99,3172
1.6520,0.0538,39.6700,80,99,3176
1.6813,0.0538,39.4400,80,99,3179
1.6862,0.0880,39.5700,80,99,3182
1.7155,0.0538,39.4800,80,99,3185
1.7155,0.0440,39.6000,80,99,3188
1.6764,0.0489,39.6000,80,99,3192
1.6960,0.0587,39.4800,80,99,3195
1.6862,0.0538,39.5700,80,99,3198
1.7302,0.0587,39.4400,80,99,3202
1.7155,0.0489,39.6400,80,99,3205
1.7155,0.0489,39.6000,80,99,3209
1.7400,0.0587,39.5100,80,99,3212
1.7253,0.0538,39.5700,80,99,3215
1.7400,0.0489,39.5400,80,99,3218
1.7498,0.0342,39.6000,80,99,3221
1.7546,0.0489,39.6000,80,99,3224
1.8084,0.0635,39.4100,80,99,3228
1.7595,0.0538,39.5100,80,99,3231
1.7498,0.0342,39.6000,80,99,3234
1.7693,0.0587,39.7000,80,99,3237
1.7693,0.0489,39.6400,80,99,3240
1.8231,0.0538,39.3500,80,99,3245
1.7840,0.0440,39.6000,80,99,3248
1.7742,0.0489,39.6400,80,99,3251
1.7986,0.0635,39.5100,80,99,3254
1.7889,0.0538,39.6400,80,99,3257
1.8280,0.0538,39.4400,80,99,3261
1.8133,0.0538,39.6400,80,99,3264
1.8084,0.0538,39.6400,80,99,3267
1.8231,0.0587,39.5700,80,99,3270
1.7986,0.0538,39.6000,80,99,3273
1.8426,0.0538,39.5400,80,99,3277
1.8328,0.0489,39.6000,80,99,3280
1.8475,0.0489,39.5700,80,99,3283
1.8377,0.0538,39.5100,80,99,3287
1.8084,0.0342,39.5700,80,99,3290
1.8084,0.0587,39.4800,80,99,3293
1.7986,0.0587,39.6000,80,99,3297
1.8084,0.0440,39.6000,80,99,3300
1.8622,0.0635,39.4400,80,99,3303
1.8524,0.0538,39.5400,80,99,3306
1.8084,0.0782,39.5700,80,99,3309
1.8133,0.0587,39.5700,80,99,3313
1.8084,0.0587,39.6000,80,99,3316
1.8622,0.0684,39.3200,80,99,3319
1.8231,0.0489,39.5700,80,99,3322
1.8280,0.0489,39.6000,80,99,3325
1.8328,0.0587,39.5400,80,99,3329
1.7986,0.0587,39.5700,80,99,3333
1.8377,0.0538,39.3800,80,99,3336
1.8133,0.0489,39.6400,80,99,3339
1.8426,0.0489,39.6000,80,99,3342
1.8768,0.0538,39.5100,80,99,3345
1.8622,0.0489,39.6000,80,99,3349
1.8866,0.0489,39.4800,80,99,3352
1.8573,0.0489,39.5400,80,99,3355
1.8671,0.0489,39.7300,80,99,3358
1.9013,0.0587,39.5400,80,99,3361
1.9110,0.0489,39.5400,80,99,3365
1.9404,0.0489,39.4800,80,99,3368
1.9208,0.0489,39.6000,80,99,3372
1.9257,0.0489,39.6000,80,99,3375
1.9697,0.0635,39.4800,80,99,3378
1.9550,0.0635,39.5400,80,99,3382
1.9501,0.0440,39.5100,80,99,3385
1.9355,0.0538,39.5700,80,99,3388
1.9110,0.0440,39.6000,80,99,3391
1.9404,0.0684,39.3800,80,99,3394
1.8719,0.0440,39.5700,80,99,3397
1.8524,0.0489,39.6000,80,99,3401
1.8475,0.0538,39.5700,80,99,3404
1.8182,0.0489,39.6400,80,99,3407
1.8524,0.0538,39.3500,80,99,3410
1.8084,0.0391,39.5700,80,99,3414
1.7986,0.0489,39.7000,80,99,3418
1.8084,0.0733,39.5400,80,99,3421
1.7840,0.0489,39.6000,80,99,3424
1.7937,0.0782,39.4100,80,99,3427
1.7595,0.0587,39.6000,80,99,3430
1.7546,0.0489,39.6700,80,99,3433
1.7644,0.0489,39.5400,80,99,3437
1.7498,0.0440,39.6400,80,99,3440
1.7742,0.0587,39.5100,80,99,3443
1.7546,0.0391,39.6000,80,99,3446
1.7595,0.0587,39.6000,80,99,3449
1.7889,0.0733,39.5100,80,99,3453
1.7791,0.0587,39.5700,80,99,3457
1.7889,0.0489,39.5100,80,99,3460
1.7889,0.0489,39.6000,80,99,3463
1.7791,0.0440,39.6000,80,99,3466
1.8328,0.0538,39.4400,80,99,3470
1.7889,0.0587,39.5400,80,99,3473
1.7742,0.0440,39.6000,80,99,3476
1.7693,0.0587,39.6000,80,99,3479
1.7449,0.0489,39.6000,80,99,3482
1.7351,0.0587,39.3500,80,99,3485
1.6813,0.0440,39.5400,80,99,3489
1.7302,0.0489,39.5700,80,99,3492
1.8866,0.0587,39.5700,80,99,3495
2.0919,0.0538,39.6700,80,99,3499
2.4291,0.0489,39.4800,80,99,3502
2.7322,0.0489,39.5400,80,99,3506
3.0401,0.0489,39.6000,80,99,3509
3.3431,0.0538,39.5100,80,99,3512
3.5093,0.0538,39.5700,80,99,3515
3.5826,0.0342,39.4800,80,99,3518
3.3920,0.0538,39.6000,80,99,3522
3.0987,0.0489,39.6000,80,99,3525
2.7908,0.0587,39.5700,80,99,3528
2.4340,0.0538,39.5700,80,99,3531
2.1603,0.0489,39.5100,80,99,3534
1.9453,0.0538,39.6000,80,99,3537
1.7937,0.0440,39.6000,80,99,3542
1.7302,0.0538,39.4100,80,99,3545
1.6422,0.0587,39.5100,80,99,3548
1.5836,0.0440,39.5700,80,99,3551
1.5640,0.0538,39.6000,80,99,3554
1.5591,0.0538,39.6000,80,99,3558
1.5934,0.0587,39.3200,80,99,3561
1.5396,0.0489,39.5700,80,99,3564
1.5347,0.0489,39.6700,80,99,3567
1.5494,0.0538,39.6000,80,99,3570
1.5445,0.0489,39.5400,80,99,3574
1.5885,0.0538,39.4400,80,99,3577
1.5738,0.0489,39.5700,80,99,3580
1.5787,0.0489,39.7000,80,99,3584
1.5982,0.0831,39.5100,80,99,3587
1.5934,0.0489,39.6000,80,99,3590
1.6227,0.0489,39.5100,80,99,3594
1.6031,0.0635,39.6000,80,99,3597
1.6129,0.0538,39.6400,80,99,3600
1.6325,0.0440,39.5700,80,99,3603
1.6276,0.0538,39.6000,80,99,3606
1.6520,0.0489,39.4400,80,99,3610
1.6716,0.0489,39.5700,80,99,3613
1.6569,0.0538,39.6000,80,99,3616
1.7058,0.0684,39.4400,80,99,3619
1.7107,0.0587,39.5700,80,99,3622
1.7058,0.0440,39.5100,80,99,3627
1.7400,0.0538,39.5700,80,99,3630
1.7155,0.0489,39.6000,80,99,3633
1.7693,0.0733,39.3800,80,99,3636
1.7400,0.0489,39.4800,80,99,3639
1.7693,0.0489,39.6000,80,99,3642
1.7644,0.0440,39.5700,80,99,3646
1.7742,0.0489,39.6400,80,99,3649
1.8231,0.0342,39.3500,80,99,3652
1.7986,0.0538,39.5700,80,99,3655
1.7986,0.0440,39.6000,80,99,3658
1.8182,0.0587,39.5100,80,99,3662
1.8084,0.0489,39.5700,80,99,3665
1.8377,0.0342,39.4400,80,99,3668
1.8133,0.0538,39.3800,81,99,3672
1.8573,0.0440,39.6000,81,99,3676
1.8671,0.0489,39.6000,81,99,3679
1.8915,0.0587,39.6400,81,99,3682
1.8915,0.0538,39.6400,81,99,3685
1.9306,0.0587,39.4100,81,99,3689
1.9159,0.0684,39.5400,81,99,3692
1.9208,0.0440,39.6000,81,99,3695
1.9453,0.0782,39.5100,81,99,3698
1.9453,0.0587,39.5700,81,99,3701
1.9844,0.0635,39.4800,81,99,3704
1.9697,0.0635,39.6000,81,99,3708
1.9795,0.0342,39.6000,81,99,3712
2.0137,0.0538,39.5400,81,99,3715
1.9844,0.0538,39.5700,81,99,3718
2.0039,0.0489,39.5400,81,99,3721
1.9892,0.0538,39.5700,81,99,3725
2.0283,0.0440,39.6000,81,99,3728
2.0626,0.0684,39.4100,81,99,3731
2.0626,0.0538,39.5100,81,99,3734
2.0430,0.0440,39.6000,81,99,3737
2.0381,0.0635,39.5700,81,99,3741
2.0235,0.0782,39.6000,81,99,3744
2.0626,0.0587,39.3200,81,99,3747
1.9990,0.0489,39.5700,81,99,3750
1.9844,0.0489,39.6000,81,99,3753
1.9844,0.0538,39.6700,81,99,3757
1.9453,0.0489,39.6000,81,99,3761
1.9599,0.0635,39.4100,81,99,3764
1.9159,0.0489,39.5400,81,99,3767
1.8915,0.0489,39.6400,81,99,3770
1.8817,0.0538,39.5400,81,99,3773
1.8475,0.0538,39.6000,81,99,3777
1.8475,0.0538,39.5100,81,99,3780
1.7986,0.0538,39.6000,81,99,3783
1.7840,0.0489,39.6400,81,99,3786
1.7742,0.0538,39.6000,81,99,3789
1.7498,0.0489,39.6000,81,99,3793
1.7351,0.0440,39.5100,81,99,3796
1.7009,0.0538,39.6700,81,99,3800
1.6862,0.0489,39.6000,81,99,3803
1.7204,0.0587,39.4800,81,99,3806
1.6911,0.0587,39.6000,81,99,3809
1.6716,0.0440,39.5700,81,99,3813
1.6716,0.0538,39.6700,81,99,3816
1.6667,0.0489,39.5400,81,99,3819
1.7155,0.0635,39.3200,81,99,3822
1.6764,0.0489,39.5400,81,99,3825
1.6764,0.0489,39.6400,81,99,3829
1.6862,0.0489,39.5700,81,99,3832
1.6764,0.0440,39.6400,81,99,3835
1.7009,0.0587,39.3800,81,99,3838
1.6764,0.0440,39.5400,81,99,3842
1.6716,0.0489,39.7300,81,99,3846
1.7009,0.0587,39.5100,81,99,3849
1.6813,0.0489,39.6000,81,99,3852
1.7058,0.0489,39.4800,81,99,3855
1.6862,0.0587,39.5700,81,99,3858
1.6960,0.0489,39.6000,81,99,3861
1.7204,0.0587,39.5400,81,99,3865
1.7204,0.0733,39.5700,81,99,3868
1.7400,0.0538,39.4800,81,99,3871
1.7204,0.0587,39.6400,81,99,3874
1.7253,0.0538,39.6400,81,99,3877
1.7644,0.0635,39.4400,81,99,3881
1.7595,0.0538,39.5700,81,99,3885
1.7595,0.0440,39.5100,81,99,3888
1.7644,0.0538,39.6000,81,99,3891
1.7693,0.0342,39.6000,81,99,3894
1.8377,0.0684,39.4100,81,99,3898
1.7791,0.0538,39.5100,81,99,3901
1.7742,0.0440,39.6000,81,99,3904
1.7889,0.0538,39.5700,81,99,3907
1.7840,0.0489,39.6700,81,99,3910
1.8231,0.0587,39.3500,81,99,3913
1.7937,0.0538,39.5400,81,99,3917
1.7791,0.0489,39.6400,81,99,3920
1.8133,0.0733,39.5100,81,99,3923
1.7986,0.0587,39.6000,81,99,3927
1.8328,0.0489,39.4100,81,99,3930
1.7986,0.0587,39.5700,81,99,3934
1.7986,0.0440,39.6000,81,99,3937
1.7986,0.0635,39.5400,81,99,3940
1.7937,0.0587,39.6000,81,99,3943
1.8182,0.0538,39.5100,81,99,3946
1.7937,0.0440,39.6000,81,99,3950
1.7937,0.0587,39.6000,81,99,3953
1.8280,0.0684,39.4400,81,99,3956
1.8133,0.0587,39.5700,81,99,3959
1.8573,0.0587,39.5100,81,99,3962
1.8084,0.0538,39.6000,81,99,3966
1.8280,0.0440,39.6400,81,99,3970
1.8426,0.0635,39.4400,81,99,3973
1.8133,0.0342,39.5400,81,99,3976
1.7889,0.0440,39.5700,81,99,3979
1.8084,0.0587,39.6000,81,99,3982
1.8035,0.0538,39.6000,81,99,3986
1.8573,0.0587,39.4400,81,99,3989
1.8377,0.0587,39.5100,81,99,3992
1.8182,0.0489,39.6700,81,99,3995
1.8328,0.0587,39.5700,81,99,3998
1.8133,0.0538,39.6700,81,99,4002
1.8475,0.0538,39.4100,81,99,4005
1.8133,0.0733,39.6000,81,99,4008
1.8035,0.0489,39.6000,81,99,4012
1.8182,0.0538,39.6000,81,99,4015
1.7986,0.0538,39.6700,81,99,4019
1.8280,0.0489,39.4400,81,99,4022
1.8035,0.0587,39.5700,81,99,4025
1.8084,0.0538,39.6000,81,99,4028
1.8377,0.0587,39.5400,81,99,4031
1.8133,0.0538,39.6000,81,99,4034
1.8328,0.0538,39.5100,81,99,4038
1.8084,0.0489,39.6000,81,99,4041
1.8084,0.0538,39.6400,81,99,4044
1.8377,0.0635,39.4800,81,99,4047
1.8182,0.0538,39.6000,81,99,4050
1.8035,0.0489,39.5100,81,99,4055
1.7937,0.0635,39.6000,81,99,4058
1.7937,0.0440,39.6400,81,99,4061
1.8524,0.0684,39.3800,81,99,4064
1.8182,0.0782,39.5400,81,99,4067
1.8035,0.0587,39.6400,81,99,4071
1.8133,0.0538,39.5700,81,99,4074
1.7937,0.0489,39.6400,81,99,4077
1.8377,0.0342,39.3800,81,99,4080
1.7986,0.0538,39.6000,81,99,4083
1.7986,0.0587,39.6000,81,99,4086
1.8377,0.0587,39.5400,81,99,4090
1.8084,0.0489,39.6000,81,99,4093
1.8280,0.0587,39.4400,81,99,4097
1.8035,0.0538,39.6000,81,99,4100
1.8377,0.0489,39.6000,81,99,4103
1.8671,0.0538,39.5100,81,99,4107
1.8133,0.0538,39.6000,81,99,4110
1.8377,0.0538,39.5100,81,99,4113
1.8084,0.0538,39.6400,81,99,4116
1.8084,0.0489,39.6400,81,99,4119
1.8475,0.0587,39.5700,81,99,4123
1.8475,0.0538,39.6700,81,99,4126
1.8719,0.0538,39.5700,81,99,4129
1.8719,0.0538,39.6700,81,99,4132
1.8671,0.0587,39.6000,81,99,4135
1.9159,0.0684,39.4400,81,99,4140
1.8915,0.0587,39.5700,81,99,4143
1.8866,0.0538,39.5700,81,99,4146
1.9013,0.0342,39.5700,81,99,4149
1.9013,0.0440,39.6400,81,99,4152
1.9599,0.0587,39.3200,81,99,4155
1.9208,0.0489,39.5100,81,99,4159
1.9208,0.0342,39.6000,81,99,4162
1.9404,0.0587,39.5700,81,99,4165
1.9062,0.0538,39.6000,81,99,4168
1.9306,0.0587,39.4100,81,99,4171
1.8768,0.0538,39.6400,81,99,4175
1.8622,0.0489,39.6000,81,99,4178
1.8719,0.0587,39.5100,81,99,4182
1.8328,0.0538,39.7000,81,99,4185
1.8475,0.0489,39.5100,81,99,4188
1.8084,0.0440,39.5400,81,99,4192
1.8035,0.0489,39.6000,81,99,4195
1.8133,0.0635,39.5400,81,99,4198
1.7889,0.0538,39.6000,81,99,4201
1.7986,0.0538,39.4800,81,99,4204
1.7742,0.0538,39.6000,81,99,4207
1.7644,0.0489,39.6400,81,99,4211
1.7986,0.0635,39.5700,81,99,4214
1.7742,0.0489,39.5700,81,99,4217
1.7644,0.0489,39.5700,81,99,4220
1.7693,0.0538,39.6000,81,99,4224
1.7742,0.0489,39.6000,81,99,4228
1.8280,0.0684,39.3800,81,99,4231
1.7937,0.0489,38.8100,81,99,4234
1.7889,0.0489,39.6000,81,99,4237
1.7986,0.0587,39.5700,81,99,4240
1.7889,0.0538,39.5700,81,99,4243
1.8328,0.0538,39.4100,81,99,4247
1.7986,0.0489,39.5400,81,99,4250
1.7986,0.0489,39.7700,81,99,4253
1.8084,0.0587,39.4800,81,99,4256
1.7693,0.0538,39.4800,81,99,4259
1.7449,0.0733,39.4100,81,99,4263
1.6862,0.0489,39.5700,81,99,4267
1.6813,0.0489,39.6000,81,99,4270
1.7693,0.0587,39.5100,81,99,4273
1.9159,0.0538,39.6400,81,99,4276
2.1994,0.0587,39.4800,81,99,4280
2.4878,0.0587,39.7000,82,99,4283
3.4897,0.0489,39.6400,82,99,4286
3.2698,0.0489,39.6700,82,99,4290
2.9912,0.0635,39.5400,82,99,4293
2.5904,0.0538,39.5700,82,99,4296
2.2923,0.0538,39.4400,82,99,4299
1.9990,0.0733,39.6000,82,99,4302
1.8133,0.0489,39.6400,82,99,4305
1.7204,0.0587,39.5100,82,99,4310
1.6325,0.0489,39.5700,82,99,4313
1.5885,0.0489,39.5100,82,99,4316
1.5445,0.0782,39.6000,82,99,4319
1.5249,0.0489,39.6000,82,99,4322
1.5543,0.0684,39.4400,82,99,4326
1.5298,0.0538,39.5400,82,99,4329
1.5005,0.0440,39.6000,82,99,4332
1.5249,0.0538,39.5700,82,99,4335
1.5152,0.0587,39.6400,82,99,4338
1.5543,0.0587,39.4400,82,99,4342
1.5298,0.0489,39.5100,82,99,4345
1.5396,0.0489,39.6400,82,99,4348
1.5689,0.0538,39.5700,82,99,4352
1.5591,0.0489,39.6400,82,99,4355
1.5982,0.0538,39.3800,82,99,4359
1.5738,0.0489,39.5700,82,99,4362
1.5836,0.0489,39.6400,82,99,4365
1.6178,0.0587,39.5400,82,99,4368
1.6178,0.0782,39.6400,82,99,4371
1.6569,0.0391,39.5100,82,99,4375
1.6422,0.0489,39.5700,82,99,4378
1.6520,0.0538,39.6700,82,99,4381
1.6813,0.0635,39.5400,82,99,4384
1.6911,0.0538,39.6000,82,99,4387
1.7058,0.0684,39.5100,82,99,4390
1.6911,0.0489,39.6400,82,99,4395
1.6911,0.0489,39.6400,82,99,4398
1.7302,0.0635,39.5100,82,99,4401
1.7107,0.0538,39.5700,82,99,4404
1.7302,0.0489,39.5400,82,99,4407
1.7253,0.0538,39.6400,82,99,4411
1.7351,0.0489,39.6000,82,99,4414
1.7937,0.0684,39.3800,82,99,4417
1.7644,0.0489,39.4800,82,99,4420
1.7595,0.0489,39.6400,82,99,4423
1.7791,0.0538,39.7300,82,99,4427
1.7742,0.0489,39.7300,82,99,4430
1.8280,0.0538,39.2800,82,99,4433
1.7937,0.0489,39.5700,82,99,4436
1.8035,0.0440,39.6000,82,99,4440
1.8280,0.0587,39.5100,82,99,4443
1.8182,0.0880,39.6000,82,99,4447
1.8573,0.0489,39.4100,82,99,4450
1.8426,0.0489,39.5100,82,99,4453
1.8573,0.0538,39.5700,82,99,4456
1.8866,0.0489,39.5100,82,99,4459
1.8719,0.0489,39.5700,82,99,4463
1.8964,0.0635,39.5100,82,99,4466
1.8719,0.0733,39.6000,82,99,4469
1.9208,0.0440,39.6400,82,99,4472
1.9306,0.0489,39.5400,82,99,4475
1.9208,0.0587,39.6400,82,99,4480
1.9355,0.0489,39.5400,82,99,4483
1.9404,0.0538,39.6000,82,99,4486
1.9453,0.0489,39.6000,82,99,4489
2.0088,0.0684,39.4800,82,99,4492
1.9795,0.0587,39.5100,82,99,4495
1.9648,0.0391,39.6000,82,99,4499
1.9795,0.0440,39.5700,82,99,4502
1.9746,0.0538,39.6400,82,99,4505
2.0528,0.0587,39.3500,82,99,4508
2.0039,0.0440,39.5700,82,99,4511
2.0137,0.0684,39.6400,82,99,4515
2.0332,0.0587,39.5400,82,99,4518
2.0186,0.0782,39.6000,82,99,4521
2.0479,0.0489,39.3500,82,99,4525
2.0235,0.0538,39.5400,82,99,4528
2.0235,0.0489,39.6400,82,99,4531
2.0381,0.0538,39.5100,82,99,4535
2.0137,0.0489,39.7000,82,99,4538
2.0235,0.0538,39.5700,82,99,4541
1.9697,0.0489,39.6700,82,99,4544
1.9501,0.0489,39.7000,82,99,4547
1.9501,0.0587,39.5700,82,99,4551
1.9110,0.0538,39.7000,82,99,4554
1.8915,0.0489,39.5400,82,99,4557
1.8524,0.0538,39.6000,82,99,4560
1.8231,0.0489,39.6400,82,99,4563
1.8475,0.0587,39.3800,82,99,4568
1.8035,0.0684,39.5400,82,99,4571
1.7546,0.0489,39.5700,82,99,4574
1.7351,0.0587,39.6000,82,99,4577
1.7058,0.0440,39.6400,82,99,4580
1.7302,0.0587,39.3800,82,99,4583
1.6764,0.0440,39.5400,82,99,4587
1.6813,0.0440,39.6000,82,99,4590
1.6764,0.0635,39.5700,82,99,4593
1.6471,0.0342,39.6400,82,99,4596
1.6862,0.0489,39.4100,82,99,4599
1.6618,0.0342,39.5100,82,99,4603
1.6520,0.0342,39.6400,82,99,4606
1.6667,0.0538,39.4400,82,99,4610
1.6520,0.0489,39.6700,82,99,4613
1.6764,0.0489,39.5400,82,99,4616
1.6520,0.0489,39.6400,82,99,4620
1.6520,0.0489,39.7000,82,99,4623
1.6667,0.0489,39.6000,82,99,4626
1.6618,0.0538,39.6000,82,99,4629
1.6911,0.0489,39.4800,82,99,4632
1.6813,0.0489,39.7000,82,99,4636
1.6862,0.0489,39.6000,82,99,4639
1.7155,0.0538,39.5100,82,99,4642
1.7107,0.0538,39.5700,82,99,4645
1.7302,0.0489,39.5400,82,99,4648
1.7058,0.0538,39.6000,82,99,4652
1.7107,0.0538,39.6400,82,99,4656
1.7644,0.0684,39.4400,82,99,4659
1.7302,0.0489,39.4800,82,99,4662
1.7351,0.0489,39.6000,82,99,4665
1.7400,0.0587,39.5700,82,99,4668
1.7400,0.0489,39.6000,82,99,4672
1.7791,0.0587,39.4100,82,99,4675
1.7498,0.0342,39.5100,82,99,4678
1.7400,0.0342,39.6400,82,99,4681
1.7644,0.0635,39.5100,82,99,4684
1.7449,0.0489,39.6700,82,99,4688
1.7742,0.0489,39.4400,82,99,4691
1.7449,0.0489,39.6000,82,99,4695
1.7498,0.0440,39.6400,82,99,4698
1.7546,0.0489,39.5400,82,99,4701
1.7449,0.0489,39.6000,82,99,4704
1.7693,0.0538,39.5100,82,99,4708
1.7449,0.0684,39.6700,82,99,4711
1.7546,0.0684,39.6400,82,99,4714
1.7937,0.0587,39.4800,82,99,4717
1.7742,0.0440,39.5700,82,99,4720
1.7840,0.0489,39.5100,82,99,4724
1.7742,0.0489,39.7000,82,99,4727
1.7791,0.0489,39.6000,82,99,4730
1.8328,0.0684,39.4400,82,99,4733
1.8084,0.0489,39.5700,82,99,4737
1.7937,0.0440,39.5400,82,99,4741
1.7986,0.0587,39.5700,82,99,4744
1.7840,0.0489,39.6700,82,99,4747
1.8328,0.0635,39.3200,82,99,4750
1.7889,0.0538,39.5400,82,99,4753
1.7742,0.0489,39.6400,82,99,4756
1.7986,0.0587,39.5400,82,99,4760
1.7791,0.0489,39.6400,82,99,4763
1.8280,0.0342,39.4100,82,99,4766
1.7840,0.0489,39.5400,82,99,4769
1.7791,0.0440,39.7000,82,99,4772
1.7986,0.0489,39.5100,82,99,4776
1.7840,0.0489,39.6000,82,99,4780
1.8084,0.0489,39.5700,82,99,4783
1.7791,0.0489,39.6700,82,99,4786
1.7937,0.0440,39.6000,82,99,4789
1.8377,0.0587,39.4800,82,99,4793
1.7937,0.0538,39.6000,82,99,4796
1.8084,0.0489,39.5100,82,99,4799
1.7840,0.0489,39.6000,82,99,4802
1.7742,0.0489,39.6000,82,99,4805
1.8035,0.0538,39.4800,82,99,4808
1.7937,0.0342,39.5700,82,99,4812
1.7791,0.0342,39.5700,82,99,4815
1.7840,0.0587,39.6400,82,99,4818
1.7791,0.0489,39.6700,82,99,4822
1.8280,0.0635,39.3800,82,99,4825
1.7986,0.0538,39.5400,82,99,4829
1.7840,0.0342,39.6000,82,99,4832
1.7937,0.0538,39.5700,82,99,4835
1.7791,0.0489,39.6000,82,99,4838
1.8182,0.0489,39.3800,82,99,4841
1.7840,0.0489,39.6000,82,99,4845
1.7791,0.0489,39.6400,82,99,4848
1.7986,0.0538,39.6000,82,99,4851
1.7889,0.0489,39.6400,82,99,4854
1.8182,0.0440,39.5100,82,99,4857
1.7937,0.0489,39.6400,82,99,4860
1.7937,0.0489,39.8000,82,99,4865
1.8182,0.0587,39.4800,82,99,4868
1.7937,0.0489,39.6000,82,99,4871
1.8133,0.0782,39.5100,82,99,4874
1.7889,0.0489,39.6000,82,99,4877
1.7840,0.0489,39.6400,82,99,4881
1.8035,0.0929,39.5700,82,99,4884
1.7840,0.0489,39.5400,82,99,4887
1.7840,0.0440,39.5400,82,99,4890
1.7791,0.0489,39.6700,82,99,4893
1.7937,0.0489,39.6400,82,99,4897
1.8035,0.0489,39.6400,82,99,4900
1.8426,0.0538,39.4800,82,99,4903
1.8231,0.0538,39.5100,82,99,4908
1.8084,0.0440,38.7700,82,99,4911
1.7889,0.0538,39.6000,82,99,4914
1.7889,0.0489,39.6400,82,99,4917
1.8524,0.0635,39.4400,82,99,4920
1.8182,0.0489,39.5400,82,99,4923
1.8084,0.0391,39.5400,82,99,4927
1.8084,0.0489,39.5400,82,99,4930
1.7986,0.0733,39.6000,82,99,4933
1.8426,0.0587,39.4100,82,99,4936
1.8280,0.0538,39.5400,82,99,4939
1.8182,0.0489,39.7000,82,99,4943
1.8328,0.0587,39.5100,82,99,4946
1.7986,0.0391,39.6000,82,99,4950
1.8231,0.0831,39.4100,82,99,4953
1.8084,0.0587,39.5700,82,99,4956
1.8182,0.0342,39.6400,82,99,4960
1.8475,0.0440,39.5100,82,99,4963
1.8426,0.0489,39.6000,82,99,4966
1.8768,0.0440,39.5400,82,99,4969
1.8475,0.0489,39.6000,82,99,4972
1.8622,0.0342,39.6000,82,99,4975
1.9110,0.0342,39.4400,82,99,4979
1.9062,0.0489,39.5700,82,99,4982
1.9306,0.0440,39.5100,82,99,4985
1.9110,0.0489,39.6400,82,99,4988
1.9013,0.0440,39.6400,82,99,4992
1.9355,0.0342,39.4800,82,99,4996
1.9013,0.0538,39.5400,82,99,4999
1.8817,0.0440,39.5700,82,99,5002
1.8719,0.0489,39.5700,82,99,5005
1.8475,0.0440,39.6400,82,99,5008
1.8622,0.0538,39.3200,82,99,5012
1.8035,0.0538,39.6400,82,99,5015
1.7840,0.0489,39.6700,82,99,5018
1.8084,0.0587,39.5700,82,99,5021
1.7889,0.0538,39.6000,82,99,5024
1.8133,0.0489,39.4100,82,99,5027
1.7644,0.0489,39.5400,82,99,5031
1.7449,0.0489,39.6000,82,99,5035
1.7546,0.0538,39.5100,82,99,5038
1.7498,0.0538,39.6700,82,99,5041
1.7742,0.0489,39.4800,82,99,5044
1.7546,0.0440,39.6400,82,99,5048
1.7595,0.0489,39.6000,82,99,5051
1.7693,0.0587,39.5100,82,99,5054
1.7498,0.0538,39.6000,82,99,5057
1.7791,0.0489,39.5100,82,99,5060
1.7595,0.0440,39.6000,82,99,5064
1.7644,0.0342,39.6000,82,99,5067
1.8084,0.0538,39.5100,82,99,5070
1.7644,0.0538,39.5700,82,99,5073
1.7693,0.0489,39.5400,82,99,5076
1.7644,0.0489,39.6000,82,99,5081
1.7742,0.0440,39.6400,82,99,5084
1.8280,0.0587,39.4400,82,99,5087
1.7595,0.0489,39.5400,82,99,5090
1.6960,0.0440,39.6000,82,99,5093
1.6764,0.0538,39.6700,82,99,5096
1.6569,0.0489,39.6400,82,99,5100
1.7400,0.0538,39.4100,82,99,5103
1.8377,0.0440,39.5100,82,99,5106
2.0430,0.0440,39.6400,82,99,5109
2.3460,0.0587,39.5700,82,99,5112
2.6588,0.0342,39.6000,82,99,5116
3.0645,0.0489,39.4400,82,99,5120
3.2698,0.0489,39.6400,82,99,5123
3.4653,0.0440,39.6400,82,99,5126
3.5386,0.0538,39.5100,82,99,5129
3.3529,0.0489,39.6000,82,99,5133
3.1036,0.0587,39.5100,82,99,5136
2.7322,0.0489,39.6000,82,99,5139
2.4096,0.0440,39.6000,82,99,5142
2.1603,0.0538,39.5100,82,99,5145
1.9062,0.0489,39.5700,82,99,5148
1.7742,0.0440,39.5100,82,99,5152
1.6422,0.0342,39.6700,82,99,5155
1.5787,0.0489,39.6000,82,99,5158
1.5885,0.0635,39.4800,82,99,5161
1.5396,0.0489,39.5700,82,99,5165
1.5103,0.0391,39.6000,82,99,5169
1.4956,0.0538,39.6400,82,99,5172
1.4761,0.0489,39.6700,82,99,5175
1.5200,0.0538,39.7000,82,99,5178
1.4956,0.0489,39.6700,82,99,5181
1.5005,0.0440,39.8000,82,99,5185
1.5200,0.0538,39.5700,82,99,5188
1.5152,0.0489,39.6400,82,99,5191
1.5396,0.0489,39.4100,82,99,5194
1.5298,0.0489,39.8000,82,99,5197
1.5543,0.0489,39.6000,82,99,5200
1.5787,0.0538,39.5400,82,99,5204
1.5689,0.0440,39.6400,82,99,5208
1.5885,0.0489,39.4400,82,99,5211
1.5591,0.0489,39.6700,82,99,5214
1.5738,0.0489,39.6400,82,99,5217
1.6178,0.0538,39.5700,82,99,5221
1.6227,0.0587,39.5700,82,99,5224
1.6422,0.0538,39.5100,82,99,5227
1.6276,0.0391,39.6400,82,99,5230
1.6373,0.0489,39.6000,82,99,5233
1.6960,0.0635,39.5100,82,99,5237
1.6813,0.0440,39.5700,82,99,5240
1.7009,0.0391,39.5400,82,99,5243
1.6911,0.0489,39.5700,82,99,5246
1.6911,0.0440,39.6700,82,99,5250
1.7742,0.0587,39.4400,82,99,5253
1.7058,0.0489,39.5100,82,99,5257
1.7058,0.0489,39.6400,82,99,5260
1.7351,0.0342,39.6000,82,99,5263
1.7204,0.0440,39.6000,82,99,5266
1.7693,0.0587,39.3800,82,99,5269
1.7400,0.0440,39.6400,82,99,5273
1.7595,0.0342,39.6400,82,99,5276
1.7889,0.0538,39.5100,82,99,5279
1.7840,0.0489,38.8400,82,99,5282
1.8084,0.0440,39.4800,82,99,5285
1.7791,0.0342,39.5700,82,99,5288
1.7791,0.0489,39.6400,82,99,5293
1.8133,0.0538,39.5100,82,99,5296
1.8133,0.0489,39.6000,82,99,5299
1.8426,0.0489,39.4800,82,99,5302
1.8328,0.0440,39.6000,82,99,5305
1.8377,0.0440,39.6400,82,99,5309
1.8719,0.0587,39.5100,82,99,5312
1.8573,0.0538,39.6400,82,99,5315
1.8817,0.0440,39.5700,82,99,5318
1.8964,0.0489,39.5400,82,99,5321
1.9013,0.0587,39.5400,82,99,5325
1.9599,0.0635,39.4100,82,99,5328
1.9159,0.0489,39.5100,82,99,5331
1.9110,0.0391,39.6000,82,99,5335
1.9355,0.0440,39.6000,82,99,5338
1.9453,0.0391,39.6400,82,99,5342
2.0039,0.0440,39.3500,82,99,5345
1.9550,0.0489,39.5700,82,99,5348
1.9550,0.0391,39.6400,82,99,5351
1.9795,0.0587,39.5400,82,99,5354
1.9746,0.0440,39.6400,82,99,5357
2.0283,0.0440,39.4100,82,99,5361
2.0039,0.0782,39.5400,82,99,5364
1.9941,0.0538,39.6000,82,99,5367
2.0332,0.0489,39.5100,82,99,5370
1.9844,0.0489,39.5700,82,99,5373
2.0137,0.0831,39.5700,82,99,5378
1.9892,0.0587,39.6400,82,99,5381
1.9941,0.0440,39.6400,82,99,5384
1.9941,0.0538,39.5400,82,99,5387
1.9501,0.0489,39.6000,82,99,5390
1.9404,0.0342,39.5400,82,99,5394
1.9013,0.0538,39.6000,82,99,5397
1.8866,0.0489,39.6400,82,99,5400
1.9110,0.0538,39.4400,82,99,5403
1.8524,0.0538,39.4400,82,99,5406
1.8035,0.0391,39.5700,82,99,5409
1.7742,0.0538,39.6000,82,99,5413
1.7449,0.0489,39.6400,82,99,5416
1.7791,0.0538,39.3200,82,99,5420
1.7155,0.0489,39.5700,82,99,5423
1.6911,0.0440,39.6400,82,99,5426
1.6716,0.0489,39.6000,82,99,5430
1.6618,0.0489,39.6000,82,99,5433
1.6520,0.0538,39.3800,82,99,5436
1.6276,0.0489,39.5400,82,99,5439
1.6276,0.0489,39.6400,82,99,5442
1.6325,0.0342,39.4800,82,99,5446
1.6080,0.0440,39.6000,82,99,5449
1.6520,0.0440,39.4800,82,99,5452
1.6031,0.0440,39.5400,82,99,5455
1.5982,0.0489,39.6000,82,99,5458
1.6178,0.0587,39.5400,82,99,5462
1.6129,0.0440,39.5700,82,99,5466
1.6227,0.0489,39.5100,82,99,5469
1.5982,0.0342,39.6000,82,99,5472
1.6422,0.0538,39.6000,82,99,5475
1.6520,0.0587,39.4400,82,99,5478
1.6618,0.0538,39.5700,82,99,5482
1.6618,0.0391,39.5400,82,99,5485
1.6471,0.0489,39.6000,82,99,5488
1.6422,0.0342,39.6400,82,99,5491
1.6813,0.0635,39.4400,82,99,5494
1.6520,0.0489,39.4800,82,99,5498
1.6569,0.0440,39.6000,82,99,5501
1.6764,0.0489,39.5700,82,99,5505
1.6911,0.0489,39.6400,82,99,5510
1.7058,0.0440,39.6400,82,99,5513
1.7595,0.0635,39.4400,82,99,5516
1.7204,0.0538,39.3800,82,99,5519
1.7107,0.0342,39.6400,82,99,5522
1.7302,0.0489,39.6000,82,99,5525
1.7302,0.0489,39.6400,82,99,5529
1.7840,0.0342,39.3800,82,99,5532
1.7400,0.0391,39.6000,82,99,5535
1.7400,0.0440,39.6400,82,99,5538
1.7546,0.0342,39.5400,82,99,5541
1.7449,0.0489,39.6400,82,99,5545
1.7791,0.0489,39.4400,82,99,5549
1.7644,0.0440,39.5700,82,99,5552
1.7644,0.0440,39.6400,82,99,5555
1.7791,0.0489,39.5400,82,99,5558
1.7595,0.0489,39.5700,82,99,5562
1.7840,0.0538,39.6000,82,99,5565
1.7644,0.0489,39.6700,82,99,5568
1.7693,0.0489,39.6700,82,99,5571
1.7889,0.0587,39.6400,82,99,5574
1.7644,0.0489,39.6000,82,99,5577
1.7644,0.0440,39.7000,82,99,5581
1.7595,0.0489,39.6000,82,99,5584
1.7693,0.0440,39.6700,82,99,5587
1.8231,0.0538,39.4100,82,99,5591
1.8182,0.0538,39.4800,82,99,5594
1.7742,0.0391,39.6000,82,99,5598
1.7644,0.0489,39.6000,82,99,5601
1.7644,0.0440,39.6000,82,99,5604
1.8182,0.0538,39.3500,82,99,5607
1.7791,0.0391,39.5400,82,99,5610
1.7840,0.0440,39.6400,82,99,5614
1.7889,0.0538,39.5700,82,99,5617
1.7644,0.0489,39.6400,82,99,5620
1.8035,0.0489,39.4100,82,99,5623
1.7889,0.0440,39.5100,82,99,5626
1.8035,0.0440,39.6400,82,99,5629
1.8035,0.0489,39.4800,82,99,5634
1.7840,0.0440,39.6000,82,99,5637
1.7986,0.0489,39.5100,82,99,5640
1.7791,0.0489,39.6400,82,99,5643
1.7937,0.0342,39.6400,82,99,5646
1.8133,0.0489,39.5700,82,99,5650
1.8035,0.0440,39.6000,82,99,5653
1.8035,0.0342,39.5100,82,99,5656
1.7840,0.0489,39.6400,82,99,5659
1.7840,0.0489,39.6400,82,99,5662
1.8280,0.0587,39.4400,82,99,5666
1.8182,0.0538,39.5400,82,99,5669
1.8035,0.0391,39.5700,82,99,5672
1.7986,0.0489,39.5700,82,99,5676
1.7742,0.0440,39.6000,82,99,5679
1.8475,0.0635,39.3800,82,99,5682
1.7986,0.0489,39.5100,82,99,5686
1.8035,0.0440,39.7300,82,99,5689
1.8182,0.0489,39.6000,82,99,5692
1.8035,0.0440,39.6400,82,99,5695
1.8328,0.0489,39.4100,82,99,5698
1.8035,0.0489,39.5400,82,99,5702
1.8035,0.0489,39.6400,82,99,5705
1.8475,0.0538,39.5100,82,99,5708
1.8426,0.0440,39.7300,82,99,5711
1.8671,0.0440,39.4400,82,99,5714
1.8426,0.0440,39.5700,82,99,5719
1.8426,0.0489,39.6000,82,99,5722
1.8671,0.0489,39.6400,82,99,5725
1.8768,0.0538,39.6000,82,99,5728
1.9159,0.0440,39.4100,82,99,5731
1.9013,0.0489,39.6000,82,99,5734
1.8964,0.0440,39.6000,82,99,5738
1.9355,0.0538,38.6800,82,99,5741
1.9208,0.0538,39.5700,82,99,5744
1.9208,0.0440,39.8300,82,99,5747
1.9159,0.0489,39.6700,82,99,5750
1.9013,0.0440,39.5100,82,99,5754
1.9404,0.0635,39.4100,82,99,5757
1.8768,0.0440,39.5400,82,99,5761
1.8524,0.0440,39.6000,82,99,5764
1.8524,0.0538,39.5100,82,99,5767
1.8426,0.0489,39.6700,82,99,5771
1.8671,0.0489,39.3500,82,99,5774
1.8231,0.0587,39.5400,82,99,5777
1.7889,0.0440,39.6000,82,99,5780
1.8035,0.0587,39.5100,82,99,5783
1.7791,0.0342,39.6400,82,99,5786
1.8231,0.0440,39.4400,82,99,5790
1.7840,0.0440,39.6000,82,99,5793
1.7791,0.0342,39.6400,82,99,5796
1.7840,0.0489,39.5400,82,99,5799
1.7986,0.0587,39.6400,82,99,5803
1.8084,0.0587,39.5400,82,99,5807
1.7840,0.0489,39.6400,82,99,5810
1.7840,0.0440,39.6400,82,99,5813
1.8035,0.0538,39.4400,82,99,5816
1.7791,0.0538,39.6000,82,99,5819
1.7889,0.0489,39.5100,82,99,5823
1.7791,0.0489,39.6400,82,99,5826
1.7937,0.0440,39.7000,82,99,5829
1.8426,0.0587,39.4800,82,99,5832
1.8133,0.0489,39.6000,82,99,5835
1.7889,0.0391,39.6000,82,99,5838
1.7840,0.0538,39.6000,82,99,5842
1.7546,0.0440,39.6000,82,99,5846
1.7791,0.0538,39.3500,82,99,5849
1.7204,0.0489,39.5400,82,99,5852
1.7204,0.0440,39.6400,82,99,5855
1.8328,0.0538,39.5400,82,99,5859
1.9990,0.0489,39.6400,82,99,5862
2.3118,0.0489,39.4400,82,99,5865
2.6051,0.0440,39.5700,82,99,5868
2.9228,0.0440,39.6000,82,99,5871
3.2258,0.0440,39.5100,82,99,5875
3.4018,0.0489,39.6400,82,99,5878
3.5533,0.0440,39.5100,82,99,5881
3.3920,0.0489,39.6000,82,99,5884
3.1720,0.0489,39.6000,82,99,5888
2.9130,0.0635,39.5100,82,99,5891
2.5562,0.0489,39.6000,82,99,5895
2.2923,0.0440,39.5100,82,99,5898
2.0235,0.0489,39.6400,82,99,5901
1.8426,0.0538,39.7000,82,99,5904
1.7742,0.0587,39.4800,82,99,5907
1.6911,0.0342,39.6400,82,99,5911
1.6373,0.0391,39.5700,82,99,5914
1.6031,0.0489,39.6000,82,99,5917
1.5787,0.0489,39.6000,82,99,5920
1.6129,0.0635,39.3500,82,99,5923
1.5885,0.0489,39.5700,82,99,5926
1.5787,0.0440,39.6400,82,99,5931
1.5885,0.0538,39.4800,82,99,5934
1.5640,0.0440,39.6700,82,99,5937
1.5934,0.0489,39.3500,82,99,5940
1.5738,0.0489,39.5400,82,99,5943
1.5934,0.0440,39.7300,82,99,5947
1.6276,0.0489,39.4800,82,99,5950
1.6276,0.0538,39.4800,82,99,5953
1.6520,0.0440,39.5100,82,99,5956
1.6373,0.0489,39.6000,82,99,5959
1.6373,0.0635,39.6400,82,99,5963
1.6862,0.0587,39.5100,82,99,5966
1.6813,0.0489,39.6000,82,99,5969
1.7107,0.0342,39.5100,82,99,5972
1.6862,0.0440,39.6400,82,99,5976
1.6862,0.0440,39.6700,82,99,5980
1.7253,0.0538,39.5100,82,99,5983
1.7155,0.0538,39.4800,82,99,5986
1.7449,0.0440,39.5100,82,99,5989
1.7449,0.0440,39.7000,82,99,5992
1.7449,0.0440,39.6700,82,99,5996
1.7937,0.0929,39.5100,82,99,5999
1.7595,0.0635,39.5400,82,99,6002
1.7644,0.0684,39.6000,82,99,6005
1.8035,0.0440,39.5700,82,99,6008
1.7889,0.0538,39.6000,82,99,6011
1.8377,0.0782,39.3800,82,99,6016
1.8133,0.0440,39.6000,82,99,6019
1.7937,0.0440,39.6000,82,99,6022
1.8231,0.0587,39.5700,82,99,6025
1.8182,0.0489,39.6400,82,99,6028
1.8719,0.0489,39.4100,82,99,6032
1.8377,0.0342,39.6700,82,99,6035
1.8377,0.0342,39.6400,82,99,6038
1.8622,0.0538,39.5400,82,99,6041
1.8524,0.0489,39.8000,82,99,6044
1.9013,0.0489,39.5100,82,99,6048
1.8817,0.0391,39.6000,82,99,6051
1.8915,0.0440,39.6400,82,99,6054
1.9159,0.0538,39.5400,82,99,6057
1.9013,0.0489,38.8100,82,99,6061
1.9306,0.0489,39.5100,82,99,6064
1.9257,0.0489,39.6700,82,99,6068
1.9453,0.0440,39.5400,82,99,6071
1.9892,0.0538,39.5400,82,99,6074
1.9599,0.0489,39.5700,82,99,6077
1.9501,0.0440,39.5700,82,99,6080
1.9648,0.0538,39.5700,82,99,6084
1.9746,0.0489,39.6000,82,99,6087
2.0479,0.0587,39.7700,82,99,6090
2.0137,0.0440,39.5400,82,99,6093
1.9990,0.0440,39.6000,82,99,6096
2.0186,0.0489,39.6400,82,99,6100
2.0039,0.0489,39.6000,82,99,6104
2.0528,0.0440,39.4100,82,99,6107
2.0381,0.0440,39.6700,82,99,6110
2.0430,0.0440,39.6400,82,99,6113
2.0577,0.1026,39.5100,82,99,6116
2.0528,0.0538,38.9300,82,99,6121
2.0137,0.0440,39.7000,82,99,6124
2.0332,0.0489,39.4100,82,99,6127
1.9795,0.0489,39.5700,82,99,6131
1.9648,0.0489,39.6400,82,99,6134
1.9648,0.0489,39.5700,82,99,6137
1.9208,0.0440,39.6400,82,99,6140
1.9159,0.0391,39.5400,82,99,6144
1.8475,0.0440,39.6400,82,99,6147
1.8182,0.0489,39.5700,82,99,6151
1.8328,0.0587,39.5100,82,99,6154
1.7937,0.0684,39.5700,82,99,6157
1.7889,0.0440,39.5100,82,99,6160
1.7400,0.0440,39.8000,82,99,6163
1.7155,0.0440,39.6400,82,99,6167
1.7302,0.0538,39.4800,82,99,6170
1.7058,0.0538,39.5400,82,99,6173
1.6911,0.0391,39.5700,82,99,6176
1.6862,0.0489,39.7000,82,99,6179
1.6716,0.0440,39.6400,82,99,6183
1.7058,0.0635,39.3800,82,99,6187
1.6667,0.0538,39.5100,82,99,6190
1.6569,0.0587,39.6400,82,99,6193
1.6911,0.0538,39.5700,82,99,6196
1.6667,0.0440,39.6000,82,99,6199
1.7107,0.0538,39.3800,82,99,6203
1.6813,0.0489,39.6000,82,99,6206
1.6764,0.0489,39.6400,82,99,6209
1.7009,0.0587,39.5100,82,99,6212
1.6911,0.0440,39.6000,82,99,6215
1.7302,0.0440,39.4800,82,99,6219
1.7058,0.0440,39.6000,82,99,6222
1.7058,0.0342,39.6400,82,99,6225
1.7253,0.0538,39.5100,82,99,6228
1.7107,0.0489,39.6700,82,99,6232
1.7449,0.0538,39.5400,82,99,6236
1.7302,0.0440,39.6700,82,99,6239
1.7302,0.0440,39.6000,82,99,6242
1.7546,0.0538,39.4800,82,99,6245
1.7351,0.0440,39.5400,82,99,6248
1.7449,0.0489,39.5400,82,99,6252
1.7498,0.0782,39.6000,82,99,6255
1.7644,0.0489,39.6400,82,99,6258
1.8133,0.0587,39.5100,82,99,6261
1.7791,0.0538,39.6000,82,99,6264
1.7595,0.0293,39.6000,82,99,6267
1.7693,0.0538,39.6000,82,99,6272
1.7644,0.0489,39.6700,82,99,6275
1.8280,0.0538,39.3200,82,99,6278
1.7937,0.0440,39.5400,82,99,6281
1.7791,0.0440,39.6400,82,99,6284
1.7889,0.0538,39.5700,82,99,6288
1.7742,0.0489,39.6400,82,99,6291
1.8231,0.0489,39.4400,82,99,6294
1.8035,0.0489,39.6000,82,99,6297
1.8133,0.0440,39.7300,82,99,6300
1.8280,0.0538,39.4100,82,99,6304
1.7937,0.0782,39.6700,82,99,6307
1.8133,0.0587,39.5100,82,99,6310
1.7937,0.0489,39.7000,82,99,6313
1.8035,0.0733,39.6000,82,99,6317
1.8671,0.0635,39.5700,82,99,6321
1.8133,0.0489,39.6000,82,99,6324
1.8231,0.0440,39.5100,82,99,6327
1.8280,0.0440,39.6400,82,99,6330
1.8133,0.0489,39.6400,82,99,6333
1.8573,0.0587,39.5700,82,99,6336
1.8328,0.0489,39.6000,82,99,6340
1.8182,0.0391,39.5700,82,99,6343
1.8084,0.0489,39.5700,82,99,6346
1.8035,0.0489,39.6400,82,99,6349
1.8573,0.0635,39.4100,82,99,6352
1.8377,0.0489,39.4800,82,99,6356
1.8377,0.0440,39.7300,82,99,6360
1.8475,0.0489,39.7000,82,99,6363
1.8231,0.0440,39.6700,82,99,6366
1.8573,0.0538,39.4800,82,99,6369
1.8133,0.0391,39.6000,82,99,6373
1.8231,0.0489,39.6400,82,99,6376
1.8622,0.0538,39.5400,82,99,6379
1.8231,0.0440,39.6400,82,99,6382
1.8475,0.0440,39.4400,82,99,6385
1.8035,0.0342,39.5700,82,99,6389
1.8182,0.0489,39.6700,82,99,6392
1.8377,0.0538,39.5700,82,99,6395
1.8328,0.0489,39.5400,82,99,6398
1.8524,0.0538,39.5700,82,99,6402
1.8133,0.0440,39.6400,82,99,6405
1.8035,0.0489,39.5100,82,99,6409
1.8231,0.0538,39.7300,82,99,6412
1.8182,0.0538,39.6400,82,99,6415
1.8426,0.0440,39.4400,82,99,6418
1.8328,0.0538,39.6400,82,99,6421
1.8231,0.0489,39.7000,82,99,6425
1.8573,0.0587,39.4400,82,99,6428
1.8328,0.0538,39.5700,82,99,6431
1.8133,0.0440,39.5700,82,99,6434
1.8231,0.0489,39.6400,82,99,6437
1.8133,0.0440,39.6400,82,99,6441
1.8573,0.0587,39.3800,82,99,6445
1.8035,0.0489,39.5400,82,99,6448
1.7986,0.0489,39.7300,82,99,6451
1.8182,0.0538,39.5700,82,99,6454
1.8182,0.0489,39.6700,82,99,6458
1.8622,0.0489,39.3800,82,99,6461
1.8280,0.0782,39.5400,82,99,6464
1.8133,0.0489,39.6700,82,99,6467
1.8426,0.0587,39.5100,82,99,6470
1.8280,0.0587,39.6000,82,99,6474
1.8768,0.0391,39.4800,82,99,6477
1.8328,0.0391,39.6400,82,99,6480
1.8231,0.0440,39.6000,82,99,6483
1.8328,0.0342,39.5700,82,99,6487
1.8182,0.0538,39.6000,82,99,6490
1.8768,0.0538,39.4800,82,99,6494
1.8328,0.0489,39.6000,82,99,6497
1.8377,0.0440,39.6400,82,99,6500
1.8524,0.0538,39.4400,82,99,6503
1.8280,0.0538,39.5700,82,99,6506
1.8280,0.0489,39.5400,82,99,6510
1.8231,0.0489,39.6000,82,99,6513
1.8377,0.0440,39.6400,82,99,6516
1.8964,0.0635,39.4400,82,99,6519
1.8475,0.0440,39.6000,82,99,6522
1.8280,0.0391,39.6000,82,99,6526
1.8133,0.0538,39.6000,82,99,6530
1.8182,0.0489,39.7000,82,99,6533
1.8719,0.0538,39.3800,82,99,6536
1.8475,0.0538,39.5700,82,99,6539
1.8377,0.0440,39.6400,82,99,6542
1.8622,0.0635,39.5100,82,99,6546
1.8426,0.0587,39.6000,82,99,6549
1.8817,0.0538,39.4100,82,99,6552
1.8671,0.0489,39.5700,82,99,6555
1.8719,0.0489,39.6000,82,99,6558
1.8964,0.0587,39.5400,82,99,6562
1.8866,0.0489,39.7700,82,99,6565
1.9159,0.0489,39.5400,82,99,6568
1.9013,0.0489,39.6400,82,99,6572
1.9208,0.0587,39.7000,82,99,6575
1.9697,0.0587,39.4800,82,99,6579
1.9501,0.0489,39.6000,82,99,6582
1.9501,0.0489,39.5100,82,99,6585
1.9159,0.0489,39.6400,82,99,6588
1.9110,0.0489,39.6400,82,99,6591
1.9501,0.0587,39.4800,82,99,6594
1.9159,0.0538,39.5400,82,99,6598
1.8866,0.0342,39.5700,82,99,6601
1.8475,0.0342,39.6000,82,99,6604
1.8280,0.0489,39.6400,82,99,6607
1.8671,0.0587,39.3800,82,99,6610
1.8328,0.0538,39.5400,82,99,6615
1.8280,0.0440,39.6400,82,99,6618
1.8377,0.0538,39.5700,82,99,6621
1.8035,0.0440,39.7000,82,99,6624
1.8231,0.0342,39.4100,82,99,6627
1.7889,0.0489,39.6400,82,99,6631
1.7937,0.0489,39.6400,82,99,6634
1.8133,0.0489,39.5100,82,99,6637
1.8035,0.0440,39.6400,82,99,6640
1.8133,0.0440,39.4800,82,99,6643
1.7742,0.0489,39.7000,82,99,6646
1.7693,0.0489,39.6400,82,99,6650
1.8084,0.0587,39.5100,82,99,6653
1.7986,0.1026,39.6400,82,99,6657
1.8231,0.0489,39.5100,82,99,6660
1.7937,0.0782,39.6000,82,99,6663
1.7840,0.0440,39.6700,82,99,6667
1.8133,0.0587,39.5100,82,99,6670
1.8035,0.0880,39.5700,82,99,6673
1.7986,0.0440,39.6000,82,99,6676
1.7742,0.0587,39.6700,82,99,6679
1.7253,0.0440,39.6000,82,99,6683
1.7351,0.0684,39.3800,82,99,6686
1.6911,0.0733,39.5700,82,99,6689
1.7595,0.0489,39.6700,82,99,6692
1.9648,0.0342,39.6000,82,99,6695
2.2141,0.0538,39.6400,82,99,6699
2.6100,0.0538,39.3800,82,99,6703
2.8690,0.0538,39.5700,82,99,6706
3.1623,0.0489,39.6400,82,99,6709
3.4653,0.0587,39.5400,82,99,6712
3.5679,0.0489,39.6000,82,99,6715
3.5826,0.0684,39.4400,82,99,6719
3.3138,0.0440,39.7000,82,99,6722
2.9863,0.0489,39.6400,82,99,6725
2.6588,0.0635,39.5100,82,99,6728
1.6520,0.0635,39.5700,82,99,6733
1.5836,0.0489,39.6000,82,99,6736
1.5738,0.0489,39.4800,82,99,6739
1.5396,0.0391,39.6700,82,99,6743
1.5347,0.0489,39.6400,82,99,6747
1.5298,0.0489,39.5700,82,99,6750
1.5054,0.0489,39.6400,82,99,6753
1.5152,0.0831,39.5400,82,99,6756
1.4907,0.0440,39.6000,82,99,6759
1.5103,0.0489,39.7000,82,99,6762
1.5591,0.0635,39.5700,82,99,6766
1.5543,0.0342,39.6000,82,99,6769
1.5738,0.0440,39.5100,82,99,6772
1.5640,0.0440,39.6400,82,99,6775
1.5591,0.0489,39.7000,82,99,6778
1.6276,0.0684,39.5700,82,99,6782
1.6325,0.0587,39.5700,82,99,6786
1.6471,0.0489,39.6000,82,99,6789
1.6129,0.0440,39.6400,82,99,6792
1.6129,0.0489,39.6400,82,99,6795
1.6618,0.0538,39.3500,82,99,6799
1.6520,0.0538,39.5400,82,99,6802
1.6618,0.0440,39.6400,82,99,6805
1.6960,0.0538,39.7300,82,99,6808
1.6764,0.0440,39.7000,82,99,6811
1.7058,0.0489,39.4400,82,99,6814
1.6862,0.0489,39.5700,82,99,6818
1.7058,0.0489,39.6700,82,99,6821
1.7351,0.0489,39.5400,82,99,6824
1.7400,0.0440,39.6400,82,99,6828
1.7840,0.0440,39.5100,82,99,6831
1.7400,0.0489,39.6400,82,99,6835
1.7400,0.0489,39.6400,82,99,6838
1.7791,0.0342,39.5100,82,99,6841
1.7791,0.0538,39.6000,82,99,6844
1.8035,0.0440,39.5100,82,99,6847
1.7937,0.0489,39.6400,82,99,6850
1.7937,0.0489,39.6700,82,99,6854
1.8328,0.0587,39.4800,82,99,6857
1.8231,0.0538,39.6000,82,99,6860
1.8280,0.0440,39.6400,82,99,6863
1.8426,0.0489,39.6400,82,99,6866
1.8426,0.0440,39.6000,82,99,6871
1.8915,0.0587,39.4400,82,99,6874
1.8524,0.0538,39.5400,82,99,6877
1.8524,0.0489,39.6700,82,99,6880
1.8866,0.0587,39.5700,82,99,6883
1.8866,0.0440,39.6400,82,99,6887
1.9355,0.0587,39.4100,82,99,6890
1.9062,0.0440,39.6000,82,99,6893
1.8964,0.0538,39.7000,82,99,6896
1.9257,0.0538,39.5100,82,99,6899
1.9648,0.0538,39.6400,82,99,6903
2.0088,0.0391,39.5100,82,99,6906
1.9697,0.0489,39.6000,82,99,6909
1.9746,0.0489,39.6400,82,99,6913
2.0039,0.0538,39.5100,82,99,6916
1.9795,0.0342,39.6400,82,99,6919
2.0186,0.0489,39.5100,82,99,6923
2.0088,0.0489,39.6400,82,99,6926
2.0186,0.0440,39.6400,82,99,6929
2.0723,0.0587,39.5100,82,99,6932
2.0283,0.0587,39.6000,82,99,6935
2.0235,0.0440,39.6000,82,99,6939
2.0283,0.0684,39.6400,82,99,6942
2.0381,0.0489,39.7000,82,99,6945
2.1017,0.0880,39.4100,82,99,6948
2.0528,0.0733,39.5700,82,99,6951
2.0235,0.0440,39.4800,82,99,6955
2.0283,0.0635,39.5700,82,99,6959
2.0039,0.0489,39.7700,82,99,6962
2.0381,0.0489,39.5100,82,99,6965
1.9844,0.0489,39.8300,82,99,6968
1.9550,0.0440,39.6400,82,99,6971
1.9453,0.0538,39.5400,82,99,6975
1.8964,0.0489,39.6400,82,99,6978
1.8964,0.0440,39.5700,82,99,6981
1.8524,0.0489,39.7300,82,99,6984
1.8280,0.0440,39.5400,82,99,6987
1.8231,0.0538,39.4800,82,99,6990
1.7644,0.0489,39.7000,82,99,6994
1.7546,0.0538,39.4800,82,99,6998
1.7155,0.0538,39.6400,82,99,7001
1.7009,0.0440,39.6400,82,99,7004
1.7155,0.0538,39.4800,82,99,7007
1.6813,0.0489,39.6000,82,99,7011
1.6618,0.0489,39.5400,82,99,7014
1.6471,0.0587,39.6000,82,99,7017
1.6520,0.0538,39.6000,82,99,7020
1.7058,0.0684,39.4100,82,99,7023
1.6764,0.0489,39.5700,82,99,7027
1.6569,0.0587,39.5700,82,99,7030
1.6667,0.0538,39.6000,82,99,7033
1.6471,0.0489,39.6700,82,99,7036
1.7107,0.0538,39.4400,82,99,7040
1.6862,0.0440,39.6000,82,99,7044
1.6813,0.0342,39.7000,82,99,7047
1.7009,0.0538,39.5700,82,99,7050
1.6569,0.0440,39.7000,82,99,7053
1.6813,0.0440,39.4400,82,99,7056
1.6813,0.0489,39.6000,82,99,7059
1.6764,0.0391,39.6400,82,99,7063
1.7204,0.0538,39.5100,82,99,7066
1.7009,0.0489,39.6400,82,99,7069
1.7107,0.0538,39.5400,82,99,7072
1.6911,0.0489,39.6400,82,99,7075
1.6960,0.0342,39.6400,82,99,7079
1.7400,0.0538,39.5100,82,99,7083
1.7351,0.0538,39.6400,82,99,7086
1.7449,0.0440,39.5100,82,99,7089
1.7253,0.0489,39.6400,82,99,7092
1.7155,0.0489,39.7000,82,99,7096
1.7644,0.0635,39.4400,82,99,7099
1.7498,0.0538,39.5100,82,99,7102
1.7449,0.0489,39.6000,82,99,7105
1.7546,0.0440,39.6000,82,99,7108
1.7449,0.0440,39.6700,82,99,7111
1.7889,0.0831,39.3500,82,99,7115
1.7498,0.0440,39.5400,82,99,7118
1.7595,0.0440,39.6400,82,99,7121
1.8035,0.0538,39.5700,82,99,7124
1.7742,0.0489,39.6400,82,99,7128
1.8084,0.0489,39.3800,82,99,7132
1.7644,0.0489,39.5700,82,99,7135
1.7791,0.0489,39.6400,82,99,7138
1.7840,0.0538,39.5400,82,99,7141
1.7742,0.0489,39.6400,82,99,7144
1.8084,0.0440,39.4800,82,99,7148
1.7791,0.0391,39.6000,82,99,7151
1.7840,0.0489,39.6400,82,99,7154
1.7986,0.0587,39.5100,82,99,7157
1.7889,0.0538,39.6000,82,99,7160
1.8133,0.0489,39.5100,82,99,7163
1.7937,0.0489,39.6400,82,99,7168
1.7840,0.0440,39.6700,82,99,7171
1.8035,0.0538,39.6400,82,99,7174
1.7791,0.0538,39.6400,82,99,7177
1.7840,0.0489,39.5400,82,99,7180
1.7937,0.0538,39.5100,82,99,7184
1.7986,0.0538,39.5400,82,99,7187
1.8524,0.0635,39.4100,82,99,7190
1.8035,0.0440,39.5100,82,99,7193
1.7840,0.0440,39.6000,82,99,7196
1.7986,0.0538,39.5700,82,99,7200
1.7986,0.0782,39.6700,82,99,7203
1.8426,0.0880,39.3800,82,99,7206
1.7889,0.0391,39.5700,82,99,7209
1.7889,0.0391,39.6400,82,99,7213
1.8084,0.0538,39.5400,82,99,7217
1.7889,0.0489,39.6400,82,99,7220
1.8231,0.0489,39.4400,82,99,7223
1.8084,0.0440,39.5700,82,99,7226
1.7986,0.0440,39.6400,82,99,7229
1.8084,0.0489,39.5100,82,99,7232
1.7889,0.0489,39.6000,82,99,7236
1.8133,0.0587,39.5400,82,99,7239
1.8035,0.0489,39.6400,82,99,7242
1.8133,0.0440,39.6400,82,99,7245
1.8328,0.0538,39.6000,82,99,7248
1.8035,0.0489,39.6000,82,99,7252
1.8084,0.0440,39.5400,82,99,7256
1.7986,0.0342,39.6400,82,99,7259
1.8035,0.0489,39.6700,82,99,7262
1.8573,0.0342,39.4400,82,99,7265
1.8328,0.0538,39.5700,82,99,7269
1.8084,0.0391,39.5700,82,99,7272
1.8035,0.0538,39.6000,82,99,7275
1.7889,0.0489,39.6400,82,99,7278
1.8475,0.0587,39.3500,82,99,7281
1.8084,0.0440,39.6000,82,99,7284
1.8084,0.0440,39.6400,82,99,7288
1.8133,0.0538,39.5700,82,99,7291
1.7986,0.0489,39.6700,82,99,7294
1.8328,0.0538,39.4100,82,99,7298
1.8182,0.0489,39.5400,82,99,7301
1.8182,0.0440,39.8000,82,99,7305
1.8426,0.0538,39.4800,82,99,7308
1.8182,0.0489,39.7000,82,99,7311
1.8377,0.0440,39.5100,82,99,7314
1.8035,0.0489,39.6400,82,99,7317
1.8133,0.0538,39.6400,82,99,7321
1.8426,0.0440,39.5700,82,99,7324
1.8328,0.0489,39.7000,82,99,7327
1.8475,0.0587,39.5700,82,99,7330
1.8231,0.0342,39.6400,82,99,7333
1.8182,0.0489,39.6000,82,99,7336
1.8524,0.0538,39.4800,82,99,7341
1.8377,0.0635,39.5400,82,99,7345
1.8280,0.0489,39.6000,82,99,7348
1.8475,0.0489,39.5400,82,99,7352
1.8231,0.0489,39.6000,82,99,7355
1.8231,0.0440,39.6400,82,99,7358
1.8524,0.0587,39.5700,82,99,7361
1.8280,0.0538,39.6000,82,99,7364
1.8231,0.0489,39.5700,82,99,7368
1.8231,0.0440,39.6000,82,99,7371
1.8231,0.0440,39.6400,82,99,7374
1.8768,0.0635,39.4400,82,99,7377
1.8377,0.0489,39.5400,82,99,7380
1.8231,0.0440,39.6700,82,99,7385
1.8328,0.0538,39.0000,82,99,7388
1.8280,0.0489,39.6700,82,99,7391
1.8768,0.0538,39.3800,82,99,7394
1.8231,0.0391,39.6400,82,99,7397
1.8182,0.0440,39.5400,82,99,7400
1.8328,0.0538,39.5100,82,99,7404
1.8182,0.0440,39.6400,82,99,7407
1.8524,0.0538,39.4100,82,99,7410
1.8426,0.0440,39.5700,82,99,7413
1.8280,0.0538,39.4800,82,99,7416
1.8426,0.0440,39.5100,82,99,7420
1.8622,0.0489,39.6400,82,99,7424
1.8622,0.0587,39.5100,82,99,7427
1.8328,0.0489,39.6400,82,99,7430
1.8377,0.0440,39.6400,82,99,7433
1.8524,0.0538,39.5700,82,99,7437
1.8426,0.0489,39.6000,82,99,7440
1.8671,0.0489,39.5100,82,99,7443
1.8573,0.0489,39.6700,82,99,7446
1.8622,0.0489,39.7300,82,99,7449
1.9159,0.0538,39.4400,82,99,7453
1.9013,0.0587,39.5700,82,99,7456
1.8915,0.0489,39.6000,82,99,7459
1.9013,0.0587,39.6400,82,99,7462
1.9062,0.0440,39.6000,82,99,7465
1.9746,0.0587,39.4800,82,99,7469
1.9599,0.0538,39.5700,82,99,7473
1.9697,0.0391,39.6400,82,99,7476
1.9501,0.0587,39.6000,82,99,7479
1.9257,0.0489,39.6400,82,99,7482
1.9550,0.0587,39.4400,82,99,7485
1.9159,0.0342,39.5400,82,99,7489
1.8915,0.0342,39.6400,82,99,7492
1.8915,0.0489,39.5700,82,99,7495
1.8426,0.0538,39.6400,82,99,7498
1.8524,0.0440,39.5100,82,99,7501
1.8182,0.0440,39.7000,82,99,7505
1.8182,0.0489,39.7300,82,99,7508
1.8231,0.0489,39.6700,82,99,7512
1.8035,0.0489,39.5100,82,99,7515
1.8084,0.0489,39.5400,82,99,7518
1.7791,0.0489,39.6700,82,99,7522
1.7693,0.0489,39.6400,82,99,7525
1.8035,0.0538,39.5100,82,99,7528
1.7889,0.0538,39.5700,82,99,7531
1.8084,0.0440,39.5700,82,99,7534
1.7742,0.0684,39.6000,82,99,7537
1.7693,0.0489,39.5400,82,99,7541
1.8231,0.0880,39.4100,82,99,7544
1.8035,0.0489,39.5400,82,99,7547
1.7840,0.0587,39.6400,82,99,7550
1.7889,0.0489,39.6000,82,99,7554
1.7889,0.0440,39.6400,82,99,7558
1.8573,0.0538,39.3800,82,99,7561
1.8084,0.0587,39.5700,82,99,7564
1.7889,0.0489,39.6400,82,99,7567
1.8035,0.0538,39.5400,82,99,7570
1.7546,0.0440,39.6400,82,99,7574
1.7400,0.0489,39.4400,82,99,7577
1.6813,0.0440,39.6000,82,99,7580
1.6911,0.0489,39.6700,82,99,7583
1.7937,0.0489,39.5700,82,99,7586
1.9795,0.0489,39.6700,82,99,7589
2.2825,0.0538,39.5700,82,99,7593
2.5806,0.0489,39.8000,82,99,7597
2.9130,0.0440,39.6000,82,99,7600
3.2698,0.0538,39.4800,82,99,7603
3.4800,0.0538,39.6400,82,99,7606
3.6119,0.0489,39.5100,82,99,7610
3.5288,0.0489,39.7000,82,99,7613
3.3040,0.0440,39.6400,82,99,7616
3.0401,0.0342,39.4800,82,99,7619
2.6295,0.0342,39.5400,82,99,7622
2.2825,0.0440,39.6400,82,99,7625
2.0577,0.0440,39.7000,82,99,7629
1.8377,0.0538,39.6400,82,99,7632
1.7937,0.0587,39.4400,82,99,7635
1.6569,0.0342,39.5400,82,99,7639
1.5885,0.0489,39.6400,82,99,7642
1.5787,0.0538,39.5700,82,99,7646
1.5396,0.0489,39.6400,82,99,7649
1.5591,0.0489,39.4100,82,99,7652
1.5249,0.0489,38.8100,82,99,7655
1.5200,0.0440,39.7300,82,99,7658
1.5347,0.0489,39.5400,82,99,7662
1.5298,0.0489,39.6400,82,99,7665
1.5640,0.0489,39.5400,82,99,7668
1.5494,0.0489,39.6700,82,99,7671
1.5640,0.0440,39.6400,82,99,7674
1.5934,0.0538,39.5100,82,99,7677
1.5787,0.0538,39.6000,82,99,7682
1.5885,0.0489,39.4400,82,99,7685
1.5787,0.0538,39.6700,82,99,7688
1.5934,0.0489,39.6700,82,99,7691
1.6373,0.0489,39.5100,82,99,7694
1.6325,0.0489,39.6000,82,99,7698
1.6325,0.0391,39.5700,82,99,7701
1.6422,0.0489,39.6400,82,99,7704
1.6618,0.0489,39.6700,82,99,7707
1.7498,0.0538,39.3800,82,99,7710
1.6862,0.0342,39.5700,82,99,7714
1.6813,0.0440,39.6700,82,99,7717
1.7058,0.0538,39.5700,82,99,7720
1.7009,0.0489,39.6400,82,99,7724
1.7449,0.0587,39.4100,82,99,7727
1.7302,0.0538,39.6000,82,99,7731
1.7400,0.0440,39.6400,82,99,7734
1.7644,0.0489,39.5100,82,99,7737
1.7449,0.0489,39.6400,82,99,7740
1.7840,0.0342,39.5100,82,99,7743
1.7644,0.0489,39.6400,82,99,7746
1.7742,0.0489,39.6400,82,99,7750
1.8133,0.0587,39.5700,82,99,7753
1.7937,0.0489,39.6000,82,99,7756
1.8182,0.0489,39.6000,82,99,7759
1.7986,0.0489,39.7000,82,99,7762
1.8084,0.0489,39.5700,82,99,7767
1.8475,0.0538,39.5100,82,99,7770
1.8426,0.0538,39.6000,82,99,7773
1.8524,0.0440,39.5400,82,99,7776
1.8524,0.0489,39.7000,82,99,7779
1.8573,0.0489,39.8000,82,99,7783
1.9257,0.0635,39.4800,82,99,7786
1.8915,0.0538,39.5700,82,99,7789
1.8915,0.0440,39.5700,82,99,7792
1.9110,0.0587,39.6000,82,99,7795
1.9062,0.0489,39.6400,82,99,7798
1.9501,0.0733,39.3500,82,99,7802
1.9208,0.0440,39.6000,82,99,7805
1.9159,0.0489,39.7700,82,99,7809
1.9501,0.0538,39.5400,82,99,7812
1.9453,0.0440,39.7000,82,99,7815
1.9795,0.0440,39.4400,82,99,7819
1.9599,0.0538,39.5700,82,99,7822
1.9697,0.0978,39.6000,82,99,7825
2.0137,0.0635,39.5400,82,99,7828
2.0088,0.0587,39.6400,82,99,7831
2.0430,0.0538,39.6700,82,99,7834
2.0137,0.0489,39.6000,82,99,7838
2.0088,0.0489,39.6400,82,99,7841
2.0381,0.0538,39.6000,82,99,7844
2.0283,0.0538,39.6400,82,99,7847
2.0430,0.0440,39.5700,82,99,7851
2.0723,0.0489,39.7000,82,99,7855
2.0381,0.0391,39.6400,82,99,7858
2.0821,0.0538,39.4400,82,99,7861
2.0283,0.0538,39.5700,82,99,7864
2.0137,0.0489,39.6000,82,99,7867
2.0235,0.0440,39.6400,82,99,7870
2.0332,0.0440,39.6400,82,99,7874
2.0235,0.0587,39.5700,82,99,7877
1.9501,0.0440,39.7000,82,99,7880
1.9062,0.0489,39.6400,82,99,7883
1.8964,0.0635,39.5400,82,99,7886
1.8573,0.0489,39.6000,82,99,7890
1.8671,0.0489,39.5400,82,99,7894
1.8133,0.0489,39.6400,82,99,7897
1.7840,0.0489,39.6400,82,99,7900
1.7937,0.0635,39.5100,82,99,7903
1.7302,0.0538,39.6400,82,99,7907
1.7351,0.0538,39.5400,82,99,7910
1.7009,0.0489,39.6700,82,99,7913
1.6911,0.0440,39.6400,82,99,7916
1.6862,0.0538,39.4800,82,99,7919
1.6520,0.0538,39.6000,82,99,7922
1.6520,0.0342,39.5100,82,99,7926
1.6325,0.0538,39.6400,82,99,7929
1.6325,0.0489,39.6700,82,99,7932
1.6667,0.0538,39.8000,82,99,7936
1.6373,0.0538,39.5400,82,99,7939
1.6129,0.0440,39.6400,82,99,7943
1.6178,0.0635,39.6000,82,99,7946
1.6276,0.0440,39.5700,82,99,7949
1.6862,0.0880,39.3500,82,99,7952
1.6911,0.0635,39.6700,82,99,7957
1.6862,0.0587,39.5700,82,99,7960
1.6764,0.0440,39.6000,82,99,7963
1.6764,0.0489,38.8700,82,99,7966
1.6667,0.0489,39.6000,82,99,7970
1.7107,0.0684,39.3800,82,99,7973
1.6911,0.0587,39.5400,82,99,7976
1.6960,0.0538,39.6000,82,99,7980
1.7302,0.0587,39.5700,82,99,7983
1.7155,0.0489,39.6400,82,99,7986
1.7644,0.0538,39.4100,82,99,7990
1.7107,0.0342,39.5700,82,99,7993
1.7107,0.0587,39.6400,82,99,7996
1.7449,0.0440,39.5400,82,99,7999
1.7449,0.0489,39.6400,82,99,8002
1.7840,0.0489,39.4800,82,99,8006
1.7253,0.0489,39.6000,82,99,8009
1.7253,0.0489,39.6700,82,99,8012
1.7644,0.0587,39.4800,82,99,8015
1.7546,0.0538,39.7000,82,99,8018
1.7791,0.0489,39.5100,82,99,8023
1.7546,0.0489,39.6400,82,99,8026
1.7498,0.0489,39.6400,82,99,8029
1.7742,0.0587,39.5400,82,99,8032
1.7644,0.0538,39.6000,82,99,8035
1.7742,0.0489,39.6400,82,99,8039
1.7644,0.0489,39.6000,82,99,8042
1.7595,0.0489,39.6400,82,99,8045
1.7986,0.0587,39.4400,82,99,8048
1.7498,0.0489,39.5100,82,99,8051
1.7351,0.0489,39.6000,82,99,8054
1.7498,0.0538,39.5700,82,99,8058
1.7644,0.0489,39.6000,82,99,8061
1.7986,0.0587,39.3800,82,99,8065
1.7595,0.0440,39.5700,82,99,8068
1.7449,0.0489,39.6400,82,99,8071
1.7693,0.0587,39.5700,82,99,8075
1.7644,0.0538,39.6700,82,99,8078
1.8084,0.0440,39.4400,82,99,8081
1.7791,0.0489,39.6400,82,99,8084
1.7742,0.0440,39.6400,82,99,8087
1.7840,0.0342,39.5100,82,99,8091
1.7644,0.0538,39.5700,82,99,8094
1.7986,0.0538,39.5400,82,99,8097
1.7791,0.0489,39.6400,82,99,8100
1.7840,0.0440,39.6700,82,99,8103
1.7986,0.0538,39.5100,82,99,8107
1.7742,0.0538,39.6400,82,99,8111
1.7791,0.0489,39.5700,82,99,8114
1.7742,0.0538,39.7000,82,99,8117
1.7791,0.0489,39.5400,82,99,8120
1.8231,0.0587,39.4800,82,99,8123
1.7889,0.0538,39.6000,82,99,8127
1.7644,0.0440,39.6000,82,99,8130
1.7644,0.0538,39.6400,82,99,8133
1.7644,0.0684,39.6000,82,99,8136
1.8231,0.0587,39.3500,82,99,8139
1.7889,0.0489,39.5100,82,99,8143
1.7742,0.0489,39.6700,82,99,8146
1.7791,0.0342,39.6400,82,99,8150
1.7693,0.0440,39.6400,82,99,8153
1.8084,0.0587,39.4400,82,99,8156
1.7742,0.0489,39.7000,82,99,8160
1.7791,0.0342,39.6400,82,99,8163
1.7937,0.0538,39.5700,82,99,8166
1.7644,0.0489,39.7000,82,99,8169
1.7742,0.0489,39.4800,82,99,8172
1.7546,0.0489,39.6400,82,99,8175
1.7693,0.0489,39.6700,82,99,8179
1.8035,0.0489,39.9300,82,99,8182
1.7840,0.0489,39.6000,82,99,8185
1.7986,0.0489,39.4800,82,99,8188
1.7644,0.0538,39.6700,82,99,8192
1.7693,0.0489,39.6400,82,99,8196
1.8084,0.0587,39.4400,82,99,8199
1.7986,0.0489,39.5700,82,99,8202
1.7986,0.0440,39.2200,82,99,8205
1.7840,0.0684,39.6400,82,99,8208
1.7742,0.0538,39.6400,82,99,8212
1.8328,0.0831,39.4400,82,99,8215
1.8084,0.0538,39.5400,82,99,8218
1.7986,0.0440,39.6000,82,99,8221
1.8035,0.0489,39.6400,82,99,8224
1.7791,0.0489,39.6700,82,99,8227
1.8133,0.0538,39.3800,82,99,8231
1.7742,0.0440,39.5700,82,99,8235
1.7937,0.0440,39.7000,82,99,8238
1.8133,0.0587,39.6000,82,99,8241
1.7937,0.0538,39.6400,82,99,8244
1.8231,0.0342,39.4400,82,99,8248
1.7791,0.0342,39.5400,82,99,8251
1.7644,0.0587,39.6400,82,99,8254
1.7937,0.0538,39.5100,82,99,8257
1.7889,0.0489,39.6000,82,99,8260
1.8231,0.0489,39.6000,82,99,8264
1.7889,0.0489,39.6700,82,99,8267
1.7840,0.0489,39.8000,82,99,8270
1.8035,0.0587,39.6000,82,99,8273
1.7937,0.0538,39.7000,82,99,8276
1.8328,0.0489,39.5400,82,99,8281
1.8231,0.0489,39.6400,82,99,8284
1.8280,0.0635,39.6000,82,99,8287
1.8719,0.0587,39.6000,82,99,8290
1.8671,0.0587,39.5700,82,99,8293
1.8671,0.0440,39.6400,82,99,8296
1.8915,0.0489,39.6000,82,99,8300
1.8964,0.0733,39.6700,82,99,8303
1.9453,0.0733,39.3500,82,99,8306
1.8915,0.0489,39.6000,82,99,8309
1.9110,0.0440,39.6700,82,99,8312
1.9208,0.0587,39.6000,82,99,8316
1.8768,0.0342,39.6400,82,99,8320
1.9013,0.0342,39.4100,82,99,8323
1.8524,0.0538,39.5400,82,99,8326
1.8084,0.0489,39.6400,82,99,8329
1.8084,0.0538,39.5100,82,99,8333
1.7840,0.0538,39.6000,82,99,8336
1.8133,0.0440,39.5100,82,99,8339
1.7791,0.0342,39.6400,82,99,8342
1.7693,0.0440,39.6400,82,99,8345
1.7595,0.0489,39.5700,82,99,8348
1.7302,0.0538,39.6400,82,99,8352
1.7449,0.0587,39.5100,82,99,8355
1.7155,0.0538,39.7000,82,99,8358
1.7351,0.0489,39.6400,82,99,8361
1.7644,0.0538,39.4800,82,99,8365
1.7449,0.0587,39.5400,82,99,8369
1.7400,0.0489,39.5700,82,99,8372
1.7351,0.0538,39.6000,82,99,8375
1.7351,0.0489,39.7300,82,99,8378
1.7937,0.0635,39.3800,82,99,8381
1.7498,0.0440,39.5400,82,99,8385
1.7351,0.0391,39.6400,82,99,8388
1.7351,0.0587,39.5700,82,99,8391
1.7400,0.0489,39.6400,82,99,8394
1.7986,0.0538,39.3800,82,99,8397
1.7840,0.0538,39.5700,82,99,8401
1.7400,0.0342,39.7000,82,99,8404
1.7155,0.0587,39.5100,82,99,8408
1.6471,0.0342,39.6700,82,99,8411
1.6520,0.0538,39.4800,82,99,8414
1.6764,0.0489,39.6000,82,99,8417
1.8475,0.0489,39.6700,82,99,8421
2.0968,0.0489,39.6400,82,99,8424
2.3705,0.0489,39.6400,82,99,8427
2.7322,0.0538,39.5400,82,99,8430
2.9961,0.0538,39.6700,82,99,8433
3.2600,0.0489,39.6700,82,99,8437
3.4800,0.0538,39.5100,82,99,8440
3.4457,0.0489,39.6400,82,99,8443
3.2893,0.0489,39.5400,82,99,8446
2.9668,0.0538,39.6400,82,99,8450
2.6344,0.0489,39.6400,82,99,8454
2.3803,0.0635,39.5100,82,99,8457
2.0919,0.0538,39.6400,82,99,8460
1.8671,0.0440,39.6000,82,99,8463
1.7253,0.0489,39.6400,82,99,8466
1.6276,0.0489,39.5700,82,99,8469
1.6129,0.0587,38.9000,82,99,8473
1.5494,0.0538,39.6400,82,99,8476
1.5200,0.0489,39.6400,82,99,8479
1.5249,0.0733,39.5700,82,99,8482
1.4956,0.0440,39.6400,82,99,8485
1.5103,0.0538,39.4100,82,99,8489
1.4809,0.0684,39.5400,82,99,8493
1.4809,0.0489,39.8300,82,99,8496
1.5152,0.0538,39.9300,82,99,8499
1.5200,0.0440,39.6700,82,99,8502
1.5543,0.0440,39.5400,82,99,8505
1.5347,0.0733,39.6700,82,99,8509
1.5347,0.0831,39.6400,82,99,8512
1.5689,0.0684,39.5100,82,99,8515
1.5640,0.0342,39.6400,82,99,8518
1.5934,0.0587,39.5100,82,99,8521
1.5934,0.0489,39.6400,82,99,8525
1.5885,0.0440,39.6000,82,99,8528
1.6227,0.0684,39.5100,82,99,8531
1.6325,0.0538,39.6000,82,99,8535
1.6422,0.0440,39.5700,82,99,8538
1.6911,0.0489,39.6400,82,99,8542
1.6618,0.0440,39.7000,82,99,8545
1.7155,0.0635,39.4100,82,99,8548
1.6716,0.0538,39.5700,82,99,8551
1.6667,0.0489,39.6400,82,99,8554
1.6911,0.0538,39.6000,82,99,8558
1.6960,0.0489,39.6400,82,99,8561
1.7400,0.0538,38.6200,82,99,8564
1.7986,0.0635,39.4400,82,99,8569
1.7644,0.0489,39.5100,82,99,8572
1.7449,0.0440,39.6700,82,99,8576
1.7595,0.0538,39.6400,82,99,8579
1.7595,0.0489,39.7000,82,99,8582
1.8182,0.0538,39.4100,82,99,8585
1.8084,0.0538,39.6700,82,99,8589
1.8035,0.0440,39.6400,82,99,8592
1.8231,0.0587,39.6400,82,99,8595
1.8035,0.0733,39.6400,82,99,8598
1.8377,0.0489,39.5700,82,99,8601
1.8231,0.0489,39.6000,82,99,8605
1.8377,0.0538,39.6700,82,99,8608
1.8573,0.0587,39.5400,82,99,8611
1.8475,0.0489,39.6400,82,99,8614
1.8719,0.0538,39.5400,82,99,8617
1.8817,0.0538,39.6700,82,99,8622
1.8671,0.0489,39.6400,82,99,8625
1.9257,0.0342,39.4800,82,99,8628
1.9159,0.0538,39.6700,82,99,8631
1.9355,0.0489,39.5400,82,99,8634
1.9159,0.0538,39.6400,82,99,8638
1.9208,0.0489,39.7000,82,99,8641
1.9844,0.0635,39.5100,82,99,8644
1.9746,0.0538,39.6700,82,99,8647
1.9795,0.0440,39.6400,82,99,8650
1.9892,0.0538,39.6400,82,99,8653
1.9844,0.0538,39.6400,82,99,8657
2.0430,0.0587,39.4100,82,99,8660
2.0137,0.0587,39.5700,82,99,8664
1.9990,0.0489,39.6700,82,99,8667
2.0186,0.0635,39.6000,82,99,8670
1.9990,0.0587,39.6400,82,99,8674
2.0381,0.0782,39.4800,82,99,8677
2.0039,0.0587,39.6000,82,99,8680
1.9990,0.0587,39.7000,82,99,8683
2.0137,0.0587,39.5100,82,99,8686
1.9844,0.0489,39.6400,82,99,8690
1.9941,0.0489,39.4800,82,99,8693
1.9453,0.0440,39.6400,82,99,8696
1.9257,0.0489,39.6400,82,99,8699
1.9355,0.0587,39.5100,82,99,8702
1.8817,0.0538,38.9000,82,99,8707
1.8719,0.0538,39.4800,82,99,8710
1.8182,0.0489,39.2800,82,99,8713
1.7840,0.0489,39.7300,82,99,8716
1.7840,0.0538,39.5100,82,99,8719
1.7449,0.0538,39.6000,82,99,8722
1.7253,0.0489,39.5400,82,99,8726
1.7009,0.0538,39.8000,82,99,8729
1.6764,0.0489,39.7300,82,99,8732
1.7058,0.0635,39.4800,82,99,8735
1.6569,0.0538,39.6700,82,99,8738
1.6276,0.0440,39.7700,82,99,8742
1.6325,0.0587,39.6400,82,99,8745
1.6178,0.0489,39.6400,82,99,8749
1.6422,0.0587,39.3800,82,99,8752
1.6031,0.0342,39.5700,82,99,8755
1.5934,0.0489,39.6400,82,99,8759
1.6276,0.0538,39.5700,82,99,8762
1.6129,0.0489,39.6400,82,99,8765
1.6520,0.0342,39.4400,82,99,8768
1.6276,0.0489,39.6400,82,99,8771
1.6325,0.0489,39.7700,82,99,8775
1.6569,0.0538,39.4400,82,99,8778
1.6667,0.0489,39.6000,82,99,8781
1.6667,0.0538,39.5400,82,99,8784
1.6471,0.0489,39.7000,82,99,8787
1.6471,0.0489,39.6400,82,99,8791
1.6813,0.0587,39.5400,82,99,8795
1.6862,0.0440,39.6400,82,99,8798
1.6911,0.0440,39.5400,82,99,8801
1.7009,0.0440,39.6400,82,99,8804
1.6960,0.0489,39.6700,82,99,8807
1.7644,0.0684,39.5100,82,99,8811
1.7546,0.0538,39.5700,82,99,8814
1.7449,0.0440,39.6000,82,99,8817
1.7155,0.0538,39.6000,82,99,8820
1.7302,0.0489,39.6700,82,99,8823
1.7791,0.0538,39.3800,82,99,8827
1.7498,0.0489,39.5400,82,99,8830
1.7449,0.0489,39.5700,82,99,8834
1.7546,0.0538,39.6700,82,99,8837
1.7449,0.0489,39.0900,82,99,8840
1.7937,0.0538,39.4100,82,99,8843
1.7546,0.0489,39.6700,82,99,8847
1.7595,0.0489,39.6000,82,99,8850
1.7791,0.0538,39.6700,82,99,8853
1.7644,0.0440,39.7000,82,99,8856
1.7889,0.0635,39.4800,82,99,8859
1.7742,0.0635,39.6400,82,99,8863
1.7889,0.0733,39.6400,82,99,8866
1.8280,0.0489,39.5400,82,99,8869
1.7937,0.0538,39.6000,82,99,8872
1.8133,0.0880,39.4800,82,99,8876
1.7937,0.0538,39.6000,82,99,8880
1.7937,0.0489,39.6400,82,99,8883
1.8426,0.0538,39.5700,82,99,8886
1.8182,0.0538,39.5700,82,99,8889
1.8182,0.0440,39.5700,82,99,8892
1.8035,0.0538,39.6000,82,99,8896
1.7986,0.0489,39.6400,82,99,8899
1.8426,0.0635,39.5100,82,99,8902
1.8182,0.0538,39.5400,82,99,8905
1.8035,0.0440,39.6700,82,99,8908
1.8133,0.0538,39.6400,82,99,8911
1.8035,0.0489,39.6700,82,99,8915
1.8426,0.0587,39.4100,82,99,8919
1.7937,0.0489,39.6400,82,99,8922
1.7937,0.0489,39.6700,82,99,8925
1.8133,0.0831,39.6000,82,99,8928
1.7986,0.0440,39.6400,82,99,8932
1.8524,0.0489,39.4100,82,99,8935
1.8182,0.0440,39.5700,82,99,8938
1.7986,0.0440,39.6400,82,99,8941
1.8182,0.0342,39.4800,82,99,8944
1.8084,0.0489,39.6700,82,99,8948
1.8426,0.0342,39.4800,82,99,8951
1.8035,0.0489,39.6700,82,99,8954
1.8035,0.0489,39.6700,82,99,8957
1.8182,0.0538,39.6000,82,99,8961
1.8084,0.0538,39.6400,82,99,8964
1.8280,0.0489,39.5400,82,99,8968
1.8133,0.0489,39.7300,82,99,8971
1.8133,0.0489,39.7000,82,99,8974
1.8475,0.0587,39.5400,82,99,8977
1.8328,0.0587,39.5700,82,99,8980
1.8182,0.0489,39.5400,82,99,8984
1.8182,0.0538,39.6000,82,99,8987
1.8133,0.0489,39.8000,82,99,8990
1.8671,0.0635,39.3500,82,99,8993
1.8182,0.0782,39.5400,82,99,8996
1.8182,0.0489,39.6700,82,99,9000
1.8328,0.0635,39.6000,82,99,9004
1.8524,0.0440,39.6400,82,99,9007
1.8866,0.0587,39.5400,82,99,9010
1.8817,0.0538,39.5400,82,99,9013
1.8328,0.0440,39.6400,82,99,9017
1.8524,0.0587,39.5400,82,99,9020
1.8328,0.0489,39.6400,82,99,9023
1.8671,0.0489,39.4800,82,99,9026
1.8524,0.0489,39.6700,82,99,9029
1.8622,0.0489,39.6700,82,99,9033
1.8768,0.0489,39.7000,82,99,9036
1.8817,0.0538,39.6400,82,99,9039
1.9208,0.0538,39.5400,82,99,9042
1.9062,0.0587,39.6400,82,99,9046
1.9110,0.0440,39.6700,82,99,9049
1.9501,0.0635,39.4800,82,99,9053
1.9257,0.0538,39.6000,82,99,9056
1.9404,0.0489,39.5700,82,99,9059
1.9355,0.0538,39.7000,82,99,9062
1.9355,0.0587,39.6400,82,99,9065
1.9795,0.0635,39.4800,82,99,9069
1.9355,0.0587,39.5700,82,99,9072
1.9013,0.0391,39.6000,82,99,9075
1.8915,0.0538,39.6400,82,99,9078
1.8719,0.0489,39.6400,82,99,9081
1.9062,0.0587,39.4400,82,99,9085
1.8573,0.0538,39.6400,82,99,9089
1.8280,0.0489,39.6000,82,99,9092
1.8377,0.0538,39.5400,82,99,9095
1.8035,0.0635,39.6400,82,99,9098
1.8328,0.0635,39.4100,82,99,9102
1.8084,0.0489,39.5400,82,99,9105
1.7937,0.0684,39.6400,82,99,9108
1.8035,0.0587,39.5700,82,99,9111
1.7889,0.0538,39.6400,82,99,9114
1.8133,0.0489,39.6400,82,99,9117
1.7986,0.0538,39.7000,82,99,9121
1.8133,0.0538,39.6400,82,99,9124
1.8182,0.0538,39.5100,82,99,9127
1.8035,0.0538,39.6400,82,99,9131
1.8182,0.0489,39.5400,82,99,9134
1.7986,0.0538,39.6000,82,99,9138
1.7986,0.0489,39.6700,82,99,9141
1.8377,0.0587,39.5100,82,99,9144
1.8280,0.0538,39.6000,82,99,9147
1.8280,0.0440,39.5700,82,99,9150
1.8280,0.0538,39.6400,82,99,9154
1.8133,0.0489,39.5400,82,99,9157
1.8328,0.0684,39.5700,82,99,9160
1.7595,0.0538,39.6400,82,99,9163
1.7253,0.0489,39.8600,82,99,9166
1.7546,0.0587,39.6000,82,99,9170
1.8426,0.0538,39.6700,82,99,9174
2.0772,0.0684,39.3800,82,99,9177
3.5875,0.0635,39.4400,82,99,9181
3.5679,0.0489,39.5400,82,99,9185
3.4213,0.0440,39.6400,82,99,9188
3.1672,0.0538,39.6400,82,99,9191
2.8104,0.0538,39.6700,82,99,9194
2.5415,0.0538,39.4100,82,99,9197
2.2092,0.0733,39.5400,82,99,9201
1.9648,0.0489,39.6700,82,99,9204
1.8328,0.0538,39.5400,82,99,9207
1.7204,0.0538,39.6400,82,99,9210
1.6813,0.0489,39.4800,82,99,9213
1.6129,0.0440,39.6000,82,99,9218
1.5836,0.0489,39.6400,82,99,9221
1.5885,0.0440,39.5700,82,99,9224
1.5591,0.0587,39.6400,82,99,9227
1.5787,0.0538,39.5700,82,99,9230
1.5640,0.0538,39.6400,82,99,9234
1.5689,0.0489,39.6400,82,99,9237
1.6031,0.0587,39.4800,82,99,9240
1.5885,0.0538,39.6700,82,99,9243
1.5982,0.0489,39.6000,82,99,9246
1.5885,0.0538,39.6700,82,99,9249
1.5982,0.0489,39.8300,82,99,9253
1.6520,0.0635,39.5100,82,99,9256
1.6422,0.0538,39.6700,82,99,9260
1.6422,0.0440,39.6000,82,99,9263
1.6618,0.0538,39.5400,82,99,9266
1.6667,0.0587,39.7000,82,99,9270
1.7253,0.0489,39.3800,82,99,9273
1.7009,0.0587,39.5700,82,99,9276
1.6960,0.0635,39.6000,82,99,9279
1.7302,0.0538,39.6000,82,99,9282
1.7155,0.0489,39.6400,82,99,9286
1.7889,0.0587,39.4100,82,99,9289
1.7400,0.0489,39.5700,82,99,9292
1.7449,0.0440,39.6700,82,99,9295
1.7693,0.0587,39.5100,82,99,9298
1.7644,0.0489,39.7000,82,99,9302
1.7889,0.0538,39.5100,82,99,9306
1.7693,0.0489,39.6400,82,99,9309
1.7840,0.0489,39.6700,82,99,9312
1.8280,0.0635,39.5100,82,99,9315
1.8084,0.0538,39.6700,82,99,9318
1.8328,0.0538,39.5100,82,99,9322
1.8084,0.0489,39.6000,82,99,9325
1.8133,0.0489,39.6400,82,99,9328
1.8475,0.0587,39.5100,82,99,9331
1.8426,0.0538,39.6400,82,99,9334
1.8475,0.0489,39.6000,82,99,9338
1.8426,0.0538,39.5400,82,99,9341
1.8524,0.0587,39.7000,82,99,9345
1.9208,0.0635,39.5100,82,99,9348
1.8866,0.0733,39.5400,82,99,9351
1.8866,0.0440,39.6400,82,99,9355
1.9062,0.0538,39.6400,82,99,9358
1.9013,0.0440,39.6400,82,99,9361
1.9599,0.0587,39.3800,82,99,9364
1.9355,0.0342,39.5700,82,99,9367
1.9404,0.0489,39.6400,82,99,9370
1.9697,0.0538,39.5700,82,99,9374
1.9746,0.0440,39.6400,82,99,9377
1.9892,0.0489,39.4800,82,99,9380
1.9648,0.0489,39.6000,82,99,9383
1.9648,0.0489,39.6400,82,99,9387
2.0088,0.0587,39.5700,82,99,9391
1.9990,0.0538,39.6700,82,99,9394
2.0381,0.0587,39.5400,82,99,9397
2.0088,0.0489,39.6700,82,99,9400
2.0235,0.0440,39.6400,82,99,9403
2.0577,0.0538,39.5400,82,99,9407
2.0381,0.0538,39.6000,82,99,9410
2.0626,0.0489,39.5400,82,99,9413
2.0528,0.0538,39.7000,82,99,9416
2.0577,0.0489,39.6400,82,99,9419
2.1261,0.0684,39.4800,82,99,9422
2.0723,0.0587,39.5700,82,99,9426
2.0577,0.0391,39.6400,82,99,9430
2.0674,0.0587,39.6000,82,99,9433
2.0479,0.0440,39.6400,82,99,9436
2.0919,0.0587,39.3800,82,99,9439
2.0626,0.0489,39.5700,82,99,9443
1.9990,0.0489,39.6400,82,99,9446
1.9990,0.0587,39.5400,82,99,9449
1.9550,0.0538,39.6400,82,99,9452
1.9599,0.0538,39.4400,82,99,9455
1.8964,0.0489,39.6400,82,99,9458
1.8622,0.0489,39.6700,82,99,9462
1.8622,0.0342,39.5400,82,99,9465
1.8133,0.0538,39.4800,82,99,9468
1.8182,0.0538,39.5700,82,99,9472
1.7693,0.0489,39.6400,82,99,9475
1.7498,0.0489,39.6700,82,99,9479
1.7498,0.0880,39.5400,82,99,9482
1.7155,0.0538,39.5700,82,99,9485
1.7107,0.0489,39.4800,82,99,9488
1.6813,0.0538,39.6400,82,99,9491
1.6716,0.0440,39.6400,82,99,9495
1.6960,0.0635,39.5400,82,99,9498
1.6716,0.0587,39.5700,82,99,9501
1.6569,0.0440,39.5700,82,99,9504
1.6569,0.0538,39.6400,82,99,9507
1.6471,0.0342,39.6400,82,99,9511
1.7058,0.0635,39.4100,82,99,9515
1.6813,0.0538,39.5100,82,99,9518
1.6716,0.0489,39.6700,82,99,9521
1.6813,0.0538,39.5400,82,99,9524
1.6764,0.0489,39.6400,82,99,9527
1.7204,0.0538,39.4100,82,99,9531
1.6911,0.0489,39.6000,82,99,9534
1.7009,0.0489,39.5700,82,99,9537
1.7302,0.0587,39.7300,82,99,9540
1.7107,0.0587,39.7000,82,99,9543
1.7351,0.0587,39.4800,82,99,9547
1.7204,0.0489,39.5700,82,99,9550
1.7204,0.0489,39.6400,82,99,9553
1.7449,0.0538,39.5400,82,99,9556
1.7302,0.0538,39.6400,82,99,9560
1.7498,0.0342,39.5400,82,99,9564
1.7253,0.0538,39.6400,82,99,9567
1.7351,0.0489,39.2200,82,99,9570
1.7693,0.0635,39.7700,82,99,9573
1.7644,0.0538,39.6000,82,99,9576
1.7791,0.0489,39.2800,82,99,9580
1.7693,0.0538,39.6400,82,99,9583
1.7937,0.0440,39.7000,82,99,9586
1.8133,0.0635,39.4800,82,99,9589
1.7937,0.0587,39.5700,82,99,9592
1.7791,0.0440,39.6000,82,99,9596
1.7791,0.0538,39.6000,82,99,9600
1.7742,0.0489,39.6700,82,99,9603
1.8182,0.0538,39.3800,82,99,9606
1.7791,0.0489,39.5700,82,99,9609
1.7840,0.0489,39.8300,82,99,9612
1.8035,0.0587,39.6000,82,99,9616
1.7937,0.0831,39.6700,82,99,9619
1.8328,0.0587,39.4400,82,99,9622
1.8035,0.0538,39.5700,82,99,9625
1.7986,0.0489,39.5700,82,99,9628
1.8182,0.0587,39.4800,82,99,9632
1.8377,0.0440,39.6400,82,99,9635
1.8280,0.0489,39.4800,82,99,9638
1.8280,0.0489,39.6400,82,99,9641
1.8035,0.0489,39.6400,82,99,9645
1.8084,0.0440,39.6000,82,99,9649
1.8035,0.0538,39.6400,82,99,9652
1.8231,0.0538,39.5400,82,99,9655
1.8182,0.0587,39.6000,82,99,9658
1.8035,0.0489,39.6400,82,99,9661
1.8426,0.0587,39.4800,82,99,9664
1.8133,0.0538,39.6000,82,99,9668
1.8182,0.0489,39.5400,82,99,9671
1.8084,0.0342,39.6400,82,99,9674
1.8035,0.0489,39.6400,82,99,9677
1.8671,0.0635,39.4400,82,99,9680
1.8133,0.0538,38.8100,82,99,9684
1.8035,0.0440,39.6400,82,99,9688
1.8133,0.0538,39.6700,82,99,9691
1.8084,0.0489,39.6400,82,99,9694
1.8524,0.0538,39.4400,82,99,9697
1.8182,0.0538,39.6000,82,99,9701
1.7986,0.0489,39.6700,82,99,9704
1.8426,0.0587,39.5700,82,99,9707
1.7986,0.0587,39.6400,82,99,9710
1.8231,0.0440,39.4400,82,99,9713
1.7986,0.0342,39.6000,82,99,9717
1.7986,0.0489,39.6400,82,99,9720
1.8035,0.0538,39.5100,82,99,9723
1.7986,0.0489,39.6400,82,99,9726
1.8328,0.0587,39.5700,82,99,9730
1.8133,0.0538,39.6700,82,99,9734
1.8182,0.0489,39.6700,82,99,9737
1.8475,0.0538,39.4400,82,99,9740
1.8182,0.0733,39.6000,82,99,9743
1.8231,0.0880,39.5100,82,99,9746
1.8035,0.0538,39.6700,82,99,9749
1.8035,0.0538,39.6400,82,99,9753
1.8475,0.0880,39.4800,82,99,9756
1.8280,0.0587,39.5700,82,99,9759
1.8133,0.0587,39.5700,82,99,9762
1.8133,0.0489,39.6000,82,99,9765
1.8426,0.0538,39.6700,82,99,9769
1.8768,0.0684,39.4400,82,99,9773
1.8377,0.0538,39.5400,82,99,9776
1.8182,0.0440,39.6400,82,99,9779
1.8328,0.0538,39.6000,82,99,9782
1.8133,0.0489,39.6400,82,99,9786
1.8475,0.0538,39.4100,82,99,9789
1.8964,0.0733,39.4100,82,99,9793
1.8671,0.0342,39.5700,82,99,9797
1.8671,0.0342,39.6700,82,99,9800
1.8915,0.0538,39.6400,82,99,9803
1.8964,0.0440,39.7300,82,99,9806
1.9453,0.0538,39.4800,82,99,9809
1.9110,0.0587,39.5700,82,99,9814
1.9013,0.0489,39.6000,82,99,9817
1.9306,0.0587,39.5400,82,99,9820
1.9159,0.0587,39.6700,82,99,9823
1.9404,0.0391,39.4800,82,99,9826
1.9062,0.0440,39.6400,82,99,9829
1.9013,0.0587,39.7000,82,99,9833
1.9013,0.0587,39.5700,82,99,9836
1.8768,0.0538,39.6700,82,99,9839
1.8866,0.0635,39.5700,82,99,9842
1.8719,0.0440,39.6400,82,99,9845
1.8231,0.0440,39.7000,82,99,9849
1.8426,0.0489,39.5400,82,99,9852
1.8182,0.0538,39.6000,82,99,9856
1.8182,0.0342,39.5400,82,99,9859
1.8084,0.0538,39.6400,82,99,9862
1.7986,0.0342,39.6400,82,99,9866
1.8328,0.0635,39.5100,82,99,9869
1.7889,0.0538,39.5700,82,99,9872
1.7644,0.0440,39.6400,82,99,9875
1.7693,0.0538,39.6700,82,99,9878
1.7693,0.0489,39.6400,82,99,9881
1.8231,0.0587,39.4400,82,99,9885
1.7937,0.0538,39.5100,82,99,9888
1.7791,0.0538,39.6400,82,99,9891
1.7986,0.0587,39.5700,82,99,9894
1.8035,0.0440,39.6400,82,99,9897
1.8182,0.0635,39.4400,82,99,9902
1.7937,0.0342,39.5700,82,99,9905
1.7889,0.0440,39.6000,82,99,9908
1.8035,0.0538,39.5700,82,99,9911
1.7937,0.0440,39.6700,82,99,9914
1.8133,0.0635,39.5100,82,99,9918
1.7595,0.0342,39.6400,82,99,9921
1.7253,0.0440,39.6700,82,99,9924
1.7253,0.0587,39.5100,82,99,9927
1.7253,0.0538,39.6400,82,99,9930
1.8524,0.0489,39.5700,82,99,9934
2.0430,0.0489,39.6700,82,99,9937
2.3216,0.0489,39.7000,82,99,9940
2.6979,0.0587,39.5400,82,99,9944
2.9912,0.0538,39.8000,82,99,9947
3.2747,0.0440,39.5700,82,99,9950
3.4897,0.0489,39.6400,82,99,9954
3.5679,0.0489,39.6400,82,99,9957
3.5679,0.0635,39.4800,82,99,9960
3.2307,0.0538,39.7000,82,99,9963
2.8739,0.0489,39.6700,82,99,9966
2.5367,0.0538,39.8000,82,99,9970
2.2043,0.0489,39.6700,82,99,9973
1.9990,0.0538,39.4100,82,99,9976
1.7986,0.0538,39.6400,82,99,9979
1.6862,0.0489,39.6700,82,99,9982
1.6373,0.0538,39.6000,82,99,9987
1.5787,0.0489,39.8300,82,99,9990
1.5689,0.0440,39.5400,82,99,9993
1.5298,0.0489,39.6700,82,99,9996
1.5200,0.0440,39.7700,82,99,9999
1.5396,0.0587,39.6400,82,99,10002
1.5200,0.0489,39.6400,82,99,10006
1.5445,0.0489,39.5400,82,99,10009
1.5249,0.0489,39.7300,82,99,10012
1.5298,0.0391,39.7000,82,99,10015
1.5591,0.0684,39.5400,82,99,10019
1.5591,0.0489,39.6700,82,99,10022
1.5836,0.0538,39.5400,82,99,10025
1.5689,0.0538,39.6700,82,99,10029
1.5738,0.0489,39.7700,82,99,10033
1.5982,0.0489,39.5700,82,99,10036
1.5982,0.0538,39.6400,82,99,10039
1.6325,0.0538,39.6000,82,99,10042
1.6227,0.0489,39.7300,82,99,10046
1.6325,0.0342,39.6700,82,99,10049
1.6716,0.0587,39.5100,82,99,10052
1.6569,0.0489,39.6000,82,99,10055
1.6813,0.0538,39.5100,82,99,10059
1.6716,0.0489,39.6700,82,99,10062
1.6813,0.0440,39.6400,82,99,10065
1.7155,0.0538,39.6700,82,99,10068
1.7009,0.0489,39.6400,82,99,10073
1.7302,0.0538,39.5100,82,99,10076
1.7204,0.0489,39.7300,82,99,10079
1.7253,0.0440,39.6700,82,99,10082
1.7546,0.0635,39.5400,82,99,10086
1.7449,0.0489,39.6400,82,99,10089
1.7742,0.0440,39.5100,82,99,10092
1.7644,0.0489,39.6400,82,99,10095
1.7791,0.0440,39.6400,82,99,10099
1.8524,0.0587,39.4400,82,99,10102
1.8035,0.0538,39.6000,82,99,10105
1.8231,0.0489,39.5400,82,99,10108
1.8084,0.0489,39.6400,82,99,10113
1.8133,0.0440,39.6400,82,99,10116
1.8573,0.0538,39.5700,82,99,10119
1.8719,0.0538,39.6400,82,99,10122
1.8573,0.0489,39.5400,82,99,10126
1.8426,0.0489,39.6400,82,99,10129
1.8475,0.0440,39.6700,82,99,10132
1.8768,0.0733,39.5700,82,99,10135
1.8671,0.0489,39.6400,82,99,10139
1.9013,0.0440,39.5400,82,99,10142
1.8866,0.0391,39.6400,82,99,10145
1.8915,0.0440,39.6700,82,99,10148
1.9697,0.0635,39.4800,82,99,10151
1.9257,0.0489,39.6000,82,99,10156
1.9453,0.0440,39.5400,82,99,10159
1.9599,0.0440,39.7000,82,99,10162
1.9550,0.0440,39.6700,82,99,10165
2.0039,0.0733,39.5100,82,99,10169
1.9892,0.0489,39.6400,82,99,10172
2.0283,0.0440,39.5700,82,99,10175
1.9844,0.0489,39.6700,82,99,10178
1.9941,0.0440,39.6400,82,99,10182
2.0479,0.0587,39.4800,82,99,10185
2.0137,0.0489,39.6000,82,99,10188
2.0186,0.0391,39.6000,82,99,10191
2.0235,0.0489,39.6700,82,99,10195
2.0283,0.0440,39.6400,82,99,10199
2.0870,0.0831,39.4400,82,99,10202
2.0528,0.0538,39.7700,82,99,10205
2.0332,0.0489,39.5700,82,99,10209
2.0186,0.0538,39.7000,82,99,10212
2.0381,0.0587,39.6700,82,99,10215
2.0479,0.0831,39.4400,82,99,10218
1.9844,0.0538,39.5700,82,99,10221
1.9404,0.0391,39.6400,82,99,10225
1.9110,0.0489,39.6000,82,99,10228
1.8671,0.0440,39.6400,82,99,10231
1.8964,0.0635,39.4100,82,99,10234
1.8280,0.0489,39.5400,82,99,10238
1.7791,0.0440,39.6400,82,99,10242
1.7546,0.0489,39.6000,82,99,10245
1.7058,0.0440,39.6700,82,99,10248
1.7351,0.0587,39.3800,82,99,10252
1.6813,0.0489,39.5700,82,99,10255
1.6667,0.0391,39.6400,82,99,10258
1.6618,0.0538,39.6000,82,99,10261
1.6520,0.0440,39.6700,82,99,10265
1.6813,0.0538,39.3200,82,99,10268
1.6325,0.0440,39.5700,82,99,10271
1.6276,0.0440,39.6700,82,99,10274
1.6276,0.0440,39.6000,82,99,10278
1.6178,0.0440,39.6400,82,99,10281
1.6716,0.0538,39.3500,82,99,10285
1.6422,0.0489,39.5700,82,99,10288
1.6276,0.0440,39.6700,82,99,10292
1.6373,0.0538,39.6000,82,99,10295
1.6276,0.0489,39.6700,82,99,10298
1.6764,0.0538,39.4100,82,99,10301
1.6471,0.0440,39.5700,82,99,10305
1.6471,0.0538,39.6400,82,99,10308
1.6618,0.0489,39.8300,82,99,10311
1.6618,0.0440,39.6400,82,99,10314
1.7058,0.0587,39.3500,82,99,10317
1.6716,0.0440,39.6400,82,99,10321
1.6911,0.0440,39.6700,82,99,10324
1.7058,0.0782,39.5400,82,99,10328
1.6911,0.0440,39.7000,82,99,10331
1.7400,0.0538,39.4400,82,99,10335
1.7107,0.0489,39.5400,82,99,10338
1.7107,0.0440,39.7000,82,99,10341
1.7351,0.0538,39.5700,82,99,10344
1.7204,0.0440,38.9300,82,99,10348
1.7595,0.0489,39.4100,82,99,10351
1.7351,0.0538,39.6400,82,99,10354
1.7351,0.0440,39.6400,82,99,10357
1.7595,0.0342,39.5700,82,99,10361
1.7449,0.0489,39.6000,82,99,10364
1.7840,0.0342,39.4400,82,99,10368
1.7595,0.0342,39.6400,82,99,10371
1.7498,0.0538,39.6400,82,99,10375
1.7742,0.0538,39.5700,82,99,10378
1.7595,0.0440,39.6400,82,99,10381
1.7937,0.0587,39.4100,82,99,10384
1.7742,0.0440,39.5100,82,99,10388
1.7595,0.0391,39.6700,82,99,10391
1.7791,0.0587,39.5700,82,99,10394
1.7595,0.0440,39.6700,82,99,10397
1.8328,0.0440,39.4400,82,99,10401
1.8280,0.0538,39.3800,82,99,10405
1.7937,0.0440,39.5700,82,99,10408
1.8035,0.0440,39.6700,82,99,10413
1.8328,0.0489,39.6000,82,99,10416
1.8084,0.0538,39.6400,82,99,10419
1.8524,0.0489,39.3800,82,99,10422
1.8182,0.0733,39.5700,82,99,10426
1.8084,0.0440,39.6700,82,99,10429
1.8182,0.0342,39.6000,82,99,10432
1.7986,0.0684,39.6700,82,99,10435
1.8377,0.0489,39.4400,82,99,10439
1.8426,0.0440,39.5700,82,99,10442
1.8084,0.0440,39.6400,82,99,10445
1.8328,0.0538,39.5700,82,99,10448
1.8231,0.0440,39.5700,82,99,10452
1.8671,0.0489,39.4100,82,99,10456
1.8231,0.0391,39.6400,82,99,10459
1.8231,0.0587,39.6400,82,99,10462
1.8377,0.0489,39.8000,82,99,10466
1.8231,0.0440,39.6400,82,99,10469
1.8573,0.0489,39.4100,82,99,10472
1.8280,0.0489,39.6000,82,99,10475
1.8328,0.0391,39.6700,82,99,10479
1.8328,0.0831,39.7000,82,99,10482
1.8133,0.0440,39.6700,82,99,10485
1.8524,0.0489,39.4100,82,99,10488
1.8231,0.0440,39.8300,82,99,10491
1.8328,0.0489,39.6400,82,99,10496
1.8231,0.0635,39.6400,82,99,10499
1.8035,0.0440,39.6700,82,99,10502
1.8377,0.0391,39.4100,82,99,10505
1.8035,0.0440,38.9000,82,99,10509
1.8035,0.0391,39.6700,82,99,10512
1.8182,0.0538,39.6000,82,99,10515
1.8035,0.0440,39.6400,82,99,10518
1.8280,0.0391,39.4400,82,99,10522
1.8084,0.0440,39.6000,82,99,10525
1.8035,0.0440,39.7000,82,99,10528
1.8280,0.0489,38.7100,82,99,10531
1.8182,0.0440,39.6400,82,99,10535
1.8377,0.0391,39.5100,82,99,10539
1.8084,0.0440,39.6400,82,99,10542
1.8182,0.0440,39.7000,82,99,10545
1.8426,0.0440,39.6700,82,99,10549
1.8719,0.0440,39.6400,82,99,10552
1.8768,0.0391,39.4400,82,99,10555
1.8671,0.0440,39.6400,82,99,10558
1.9013,0.0391,39.7000,82,99,10561
1.9013,0.0538,38.7700,82,99,10565
1.8915,0.0440,39.6400,82,99,10568
1.9257,0.0440,39.5100,82,99,10571
1.9062,0.0391,39.6000,82,99,10574
1.9306,0.0440,39.7000,82,99,10578
1.9306,0.0440,39.5100,82,99,10582
1.9208,0.0440,39.6700,82,99,10585
1.9501,0.0489,39.5700,82,99,10588
1.9257,0.0440,39.6700,82,99,10592
1.9355,0.0440,39.6400,82,99,10595
1.9257,0.0440,39.9300,82,99,10598
1.9062,0.0342,39.6700,82,99,10601
1.9062,0.0489,39.5400,82,99,10605
1.8573,0.0440,39.8000,82,99,10608
1.8377,0.0391,39.6700,82,99,10611
1.8475,0.0538,39.1200,82,99,10614
1.8182,0.0440,39.7000,82,99,10618
1.8280,0.0342,39.5400,82,99,10621
1.8035,0.0587,39.6700,82,99,10625
1.8035,0.0440,39.7000,82,99,10628
1.8182,0.0635,39.3800,82,99,10632
1.7937,0.0440,39.6400,82,99,10635
1.8035,0.0440,39.5100,82,99,10638
1.7791,0.0440,39.6700,82,99,10641
1.7840,0.0440,39.6400,82,99,10644
1.8084,0.0538,39.6000,82,99,10648
1.7937,0.0440,39.6700,82,99,10651
1.8182,0.0489,39.5100,82,99,10654
1.8280,0.0489,39.6400,82,99,10657
1.7937,0.0440,39.7000,82,99,10661
1.8328,0.0440,39.5100,82,99,10664
1.8231,0.0440,39.6400,82,99,10668
1.8280,0.0440,39.5400,82,99,10671
1.8084,0.0782,39.6400,82,99,10675
1.8084,0.0391,39.6700,82,99,10678
1.8280,0.0342,39.5100,82,99,10681
1.8133,0.0489,39.7000,82,99,10684
1.7889,0.0440,39.5700,82,99,10688
1.7595,0.0391,39.6400,82,99,10691
1.7107,0.0391,39.6700,82,99,10694
1.7742,0.0538,39.7700,82,99,10697
1.8915,0.0440,39.6400,82,99,10701
2.1261,0.0391,39.5400,82,99,10704
2.4194,0.0440,39.5700,82,99,10707
2.7713,0.0440,39.6400,82,99,10711
3.1574,0.0489,39.4100,82,99,10715
3.4115,0.0489,39.6400,82,99,10718
3.6119,0.0489,39.5700,82,99,10721
3.5973,0.0440,39.6000,82,99,10724
3.4409,0.0440,39.6700,82,99,10728
3.1965,0.0635,39.4800,82,99,10731
2.7859,0.0489,39.6000,82,99,10734
2.4194,0.0489,39.5700,82,99,10737
2.1163,0.0440,39.7700,82,99,10740
1.8866,0.0440,39.6700,82,99,10744
1.7937,0.0587,39.5100,82,99,10747
1.6716,0.0440,39.7700,82,99,10750
1.6325,0.0391,39.5700,82,99,10754
1.6129,0.0391,39.6700,82,99,10758
1.5494,0.0440,39.6000,82,99,10761
1.5836,0.0342,39.4400,82,99,10764
1.5640,0.0440,39.5700,82,99,10767
1.5347,0.0391,38.8400,82,99,10771
1.5396,0.0342,39.6400,82,99,10774
1.5347,0.0391,39.7000,82,99,10777
1.5885,0.0587,39.4400,82,99,10780
1.5640,0.0538,39.5700,82,99,10784
1.5591,0.0440,39.6000,82,99,10787
1.5689,0.0440,39.6400,82,99,10790
1.5689,0.0440,39.7000,82,99,10793
1.6227,0.0684,39.4400,82,99,10798
1.5934,0.0440,39.5100,82,99,10801
1.5982,0.0391,39.7000,82,99,10804
1.6178,0.0440,39.6400,82,99,10807
1.6178,0.0391,39.6000,82,99,10811
1.6813,0.0538,39.4400,82,99,10814
1.6813,0.0489,39.5100,82,99,10817
1.6520,0.0391,39.7000,82,99,10820
1.6716,0.0440,39.6400,82,99,10824
1.6764,0.0391,39.6400,82,99,10827
1.7400,0.0587,39.6400,82,99,10830
1.7107,0.0440,39.6400,82,99,10833
1.7204,0.0391,39.6400,82,99,10838
1.7107,0.0440,39.6000,82,99,10841
1.7204,0.0342,39.6700,82,99,10844
1.7742,0.0587,39.4400,82,99,10847
1.7546,0.0440,39.6000,82,99,10851
1.7546,0.0391,39.6700,82,99,10854
1.7742,0.0440,39.7000,82,99,10857
1.7693,0.0440,39.6400,82,99,10860
1.8280,0.0538,39.3800,82,99,10863
1.8035,0.0440,39.6000,82,99,10867
1.7986,0.0391,39.6700,82,99,10870
1.8231,0.0733,39.6700,82,99,10873
1.8182,0.0440,39.6700,82,99,10876
1.9013,0.0489,39.4100,82,99,10881
1.8328,0.0733,39.5700,82,99,10884
1.8426,0.0391,39.6700,82,99,10887
1.8573,0.0489,39.6400,82,99,10890
1.8573,0.0587,39.6700,82,99,10894
1.9159,0.0489,39.4100,82,99,10897
1.8915,0.0489,39.6000,82,99,10900
1.8817,0.0391,39.8600,82,99,10903
1.9110,0.0538,39.6700,82,99,10907
1.9257,0.0244,39.6700,82,99,10910
1.9697,0.0489,39.2800,82,99,10913
1.9453,0.0342,39.6000,82,99,10916
1.9404,0.0440,39.6400,82,99,10920
1.9697,0.0489,39.5100,82,99,10924
1.9697,0.0440,39.6700,82,99,10927
2.0186,0.0489,39.4100,82,99,10930
1.9844,0.0391,39.7000,82,99,10934
2.0088,0.0391,39.7000,82,99,10937
2.0039,0.0489,39.7300,82,99,10940
2.0283,0.0391,39.6400,82,99,10943
2.0430,0.0440,39.4100,82,99,10947
2.0332,0.0342,39.5400,82,99,10950
2.0186,0.0391,39.6700,82,99,10953
2.0577,0.0538,39.5700,82,99,10956
2.0332,0.0538,39.6700,82,99,10959
2.0772,0.0440,39.4400,82,99,10963
2.0772,0.0440,39.5700,82,99,10967
2.0479,0.0440,39.7700,82,99,10970
2.1017,0.0440,39.5400,82,99,10973
2.0283,0.0440,38.8700,82,99,10977
2.0479,0.0489,39.4800,82,99,10980
2.0039,0.0489,39.6700,82,99,10983
1.9844,0.0391,39.6700,82,99,10986
1.9892,0.0538,39.5700,82,99,10990
1.9355,0.0440,39.6700,82,99,10993
1.9208,0.0391,39.5400,82,99,10996
1.8671,0.0342,39.5700,82,99,10999
1.8328,0.0440,39.6700,82,99,11003
1.8280,0.0440,39.5400,82,99,11006
1.7840,0.0440,39.6000,82,99,11010
1.7840,0.0342,39.5400,82,99,11013
1.7351,0.0391,39.0000,82,99,11016
1.6569,0.0342,39.6400,82,99,11021
1.6569,0.0391,39.6400,82,99,11024
1.6716,0.0538,39.5100,82,99,11028
1.6471,0.0440,39.6700,82,99,11031
1.6764,0.0489,39.4400,82,99,11034
1.6569,0.0440,39.5100,82,99,11037
1.6520,0.0391,39.7000,82,99,11041
1.6716,0.0538,39.5700,82,99,11044
1.6569,0.0440,39.5400,82,99,11047
1.6911,0.0342,39.4800,82,99,11051
1.6667,0.0391,39.6000,82,99,11055
1.6764,0.0391,39.6000,82,99,11058
1.6911,0.0440,39.5400,82,99,11061
1.6862,0.0440,39.6700,82,99,11064
1.7058,0.0440,39.4800,82,99,11067
1.6911,0.0440,39.6400,82,99,11071
1.7058,0.0440,39.6700,82,99,11074
1.7351,0.0440,39.5100,82,99,11077
1.7204,0.0489,39.6400,82,99,11080
1.7449,0.0391,39.5400,82,99,11084
1.7253,0.0342,39.6400,82,99,11087
1.7302,0.0391,39.6400,82,99,11090
1.7546,0.0684,39.5100,82,99,11094
1.7449,0.0440,39.6700,82,99,11098
1.7644,0.0440,39.5100,82,99,11101
1.7400,0.0391,39.7000,82,99,11104
1.7449,0.0342,39.6700,82,99,11107
1.7546,0.0440,39.5700,82,99,11111
1.7546,0.0440,39.7300,82,99,11114
1.7937,0.0440,39.5100,82,99,11117
1.7644,0.0587,39.6700,82,99,11120
1.7693,0.0391,39.6700,82,99,11124
1.7986,0.0489,39.5400,82,99,11127
1.7791,0.0489,39.7000,82,99,11130
1.8084,0.0440,39.5400,82,99,11133
1.7889,0.0391,39.6400,82,99,11138
1.7937,0.0489,39.6700,82,99,11141
1.8133,0.0440,39.7700,82,99,11144
1.8035,0.0440,39.6400,82,99,11147
1.8231,0.0489,39.6400,82,99,11151
1.7889,0.0440,39.6700,82,99,11154
1.7937,0.0440,39.7700,82,99,11157
1.8035,0.0440,39.5700,82,99,11160
1.7937,0.0391,39.6700,82,99,11163
1.8133,0.0489,39.6400,82,99,11167
1.7840,0.0440,39.6700,82,99,11170
1.7889,0.0684,39.6400,82,99,11173
1.8182,0.0538,39.5100,82,99,11176
1.7937,0.0440,39.6400,82,99,11181
1.8084,0.0733,39.5100,82,99,11184
1.7840,0.0440,39.6700,82,99,11187
1.7937,0.0391,39.6400,82,99,11190
1.8231,0.0489,39.5700,82,99,11194
1.8133,0.0489,39.6400,82,99,11197
1.8524,0.0440,39.5100,82,99,11200
1.8035,0.0440,39.5400,82,99,11203
1.8035,0.0440,39.6400,82,99,11207
1.8328,0.0440,39.6400,82,99,11210
1.8133,0.0440,39.7300,82,99,11213
1.8280,0.0440,39.5400,82,99,11216
1.7986,0.0440,39.6400,82,99,11220
1.7986,0.0440,39.6700,82,99,11224
1.8280,0.0587,39.4800,82,99,11227
1.8084,0.0440,39.6700,82,99,11230
1.8231,0.0440,39.5400,82,99,11234
1.8231,0.0440,39.6700,82,99,11237
1.7937,0.0440,39.7300,82,99,11240
1.8328,0.0342,39.5400,82,99,11243
1.8084,0.0391,39.7000,82,99,11247
1.8133,0.0440,39.5400,82,99,11250
1.8035,0.0440,39.6400,82,99,11253
1.8133,0.0489,39.5700,82,99,11256
1.8475,0.0342,39.5700,82,99,11259
1.8231,0.0635,39.6400,82,99,11264
1.8231,0.0391,39.5100,82,99,11267
1.8035,0.0440,39.6400,82,99,11270
1.7937,0.0733,39.6700,82,99,11273
1.8328,0.0538,39.5700,82,99,11277
1.8133,0.0342,39.6000,82,99,11280
1.8133,0.0342,39.5700,82,99,11283
1.8035,0.0440,39.6700,82,99,11286
1.7986,0.0538,39.6700,82,99,11290
1.8328,0.0538,39.5100,82,99,11293
1.8280,0.0489,39.6000,82,99,11296
1.8182,0.0391,39.5400,82,99,11299
1.8182,0.0440,39.6400,82,99,11303
1.8133,0.0440,39.6700,82,99,11307
1.8524,0.0635,39.5700,82,99,11310
1.8280,0.0489,39.6000,82,99,11313
1.8328,0.0440,39.5700,82,99,11317
1.8231,0.0489,39.6700,82,99,11320
1.8231,0.0440,39.6400,82,99,11323
1.8866,0.0587,39.4800,82,99,11326
1.8475,0.0538,39.5700,82,99,11330
1.8280,0.0391,39.6400,82,99,11333
1.8377,0.0440,39.6400,82,99,11336
1.8426,0.0684,39.6700,82,99,11339
1.8964,0.0587,39.5400,82,99,11343
1.8622,0.0342,39.6000,82,99,11346
1.8524,0.0391,39.6400,82,99,11350
1.8671,0.0489,39.5400,82,99,11353
1.8768,0.0440,39.6700,82,99,11357
1.9501,0.0635,39.5100,82,99,11360
1.9159,0.0489,39.6700,82,99,11363
1.9306,0.0391,39.6000,82,99,11366
1.9159,0.0538,39.7000,82,99,11370
1.9062,0.0440,39.6700,82,99,11373
1.9599,0.0635,39.4400,82,99,11376
1.9110,0.0391,39.5400,82,99,11379
1.8866,0.0342,39.6400,82,99,11382
1.8719,0.0489,39.5700,82,99,11386
1.8524,0.0440,39.6400,82,99,11389
1.9159,0.0587,39.3800,82,99,11393
1.8231,0.0440,39.5700,82,99,11396
1.7986,0.0342,39.6700,82,99,11400
1.7937,0.0489,39.6400,82,99,11403
1.7791,0.0538,39.6400,82,99,11406
1.8182,0.0538,39.4800,82,99,11409
1.7791,0.0391,39.5700,82,99,11413
1.7595,0.0391,39.6700,82,99,11416
1.7693,0.0489,39.0300,82,99,11419
1.7400,0.0391,39.6700,82,99,11422
1.7791,0.0538,39.4800,82,99,11426
1.7400,0.0440,39.5700,82,99,11429
1.7351,0.0489,39.6700,82,99,11432
1.7498,0.0489,39.6000,82,99,11436
1.7498,0.0342,39.6700,82,99,11440
1.7937,0.0391,39.3800,82,99,11443
1.7546,0.0635,39.6000,82,99,11446
1.7546,0.0342,39.7000,82,99,11449
1.7644,0.0684,39.6400,82,99,11453
1.7644,0.0440,39.7300,82,99,11456
1.7986,0.0489,39.4100,82,99,11459
1.7791,0.0489,39.5700,82,99,11462
1.7595,0.0391,39.6400,82,99,11466
1.7546,0.0538,39.6400,82,99,11469
1.7009,0.0782,39.6700,82,99,11472
1.7058,0.0489,39.4100,82,99,11475
1.6667,0.0391,39.5700,82,99,11480
1.7155,0.0440,39.6400,82,99,11483
1.8915,0.0489,39.6000,82,99,11486
2.1212,0.0391,39.6700,82,99,11489
2.5024,0.0489,39.4400,82,99,11492
2.7908,0.0391,39.6400,82,99,11496
3.0938,0.0440,39.6400,82,99,11499
3.3529,0.0489,39.6000,82,99,11502
3.4555,0.0489,39.6700,82,99,11505
