ecg,gsr,temp,hr,spo2,timest
1.9208,0.0880,39.8900,87,90,3
1.8768,0.0733,40.0600,87,90,6
1.8622,0.0733,39.9600,87,90,8
1.8377,0.0733,39.8900,87,90,11
1.7986,0.0733,40.2300,87,90,14
1.8035,0.0831,39.8600,87,90,17
1.7498,0.0733,39.9300,87,90,20
1.7400,0.0733,39.8300,87,90,23
1.6862,0.0782,40.0000,87,90,26
1.6667,0.0733,39.9600,87,90,29
1.7058,0.0782,39.7000,87,90,32
1.6764,0.0733,39.8600,87,90,35
1.6618,0.0733,40.0000,87,90,38
1.6764,0.0733,39.8900,87,90,41
1.6764,0.0782,39.8900,87,90,45
1.6325,0.0684,39.9300,87,90,48
1.6520,0.0831,39.8900,87,90,51
1.6471,0.0978,39.9300,87,90,54
1.6862,0.0782,39.8600,87,90,57
1.6569,0.0978,39.9300,87,90,60
1.6471,0.0733,40.0000,87,90,63
1.6813,0.0831,39.6700,87,90,66
1.6373,0.0684,39.9300,87,90,69
1.6471,0.0733,39.9300,87,90,72
1.6911,0.0831,39.8900,87,90,75
1.6911,0.0733,40.0000,87,90,78
1.6911,0.0684,39.8900,87,90,81
1.6862,0.0978,39.8900,87,90,84
1.6716,0.0733,39.9600,87,90,88
1.7009,0.0978,39.8000,87,90,91
1.6911,0.0733,39.9600,87,90,93
1.7351,0.0733,39.9300,87,90,96
1.7595,0.0880,39.8000,87,90,99
1.7204,0.0733,39.8600,87,90,102
1.6911,0.0733,39.9600,87,90,105
1.7107,0.0733,39.8900,87,90,108
1.7204,0.0733,39.9300,87,90,111
1.7498,0.0733,39.8300,87,90,114
1.7498,0.0733,39.9300,87,90,117
1.7400,0.0635,39.9600,87,90,121
1.7840,0.0782,39.6700,87,90,124
1.7400,0.0782,39.9300,87,90,128
1.7498,0.0782,39.9600,87,90,131
1.7693,0.0733,39.8900,87,90,134
1.7742,0.0733,39.9600,87,90,137
1.7742,0.0684,39.8900,87,90,140
1.7889,0.0782,39.9300,87,90,143
1.7498,0.0782,39.9600,87,90,146
1.7889,0.0733,39.8000,87,90,149
1.7546,0.0733,39.9300,87,90,152
1.7742,0.0733,40.0000,87,90,155
1.8084,0.0880,39.8900,87,90,158
1.7937,0.1075,39.9600,87,90,161
1.7693,0.0635,39.9300,87,90,164
1.7791,0.0782,39.8900,87,90,167
1.7742,0.0733,40.0300,87,90,171
1.8084,0.0733,39.8600,87,90,174
1.7937,0.0733,39.9600,87,90,177
1.7986,0.0782,39.9600,87,90,180
1.8328,0.0831,39.8300,87,90,183
1.7937,0.0782,39.8600,87,90,186
1.7644,0.0733,39.9600,87,90,189
1.8035,0.0831,39.8000,87,90,192
1.7889,0.0733,39.9300,87,90,195
1.8182,0.0733,39.8300,87,90,198
1.8182,0.0538,39.9300,87,90,201
1.7693,0.0733,39.9600,87,90,204
1.8133,0.0929,39.7000,87,90,207
1.7840,0.0929,39.8600,87,90,210
1.7791,0.0782,39.9300,87,90,214
1.8035,0.0733,39.8300,87,90,217
1.7937,0.0782,39.9600,87,90,220
1.7986,0.0782,39.8300,87,90,223
1.7644,0.0733,39.9600,87,90,226
1.7644,0.0684,39.9600,87,90,229
1.8182,0.1026,39.6700,87,90,232
1.8035,0.0782,39.8600,87,90,235
1.7889,0.0635,40.0000,87,90,238
1.7986,0.0684,39.8600,87,90,241
1.7840,0.0782,39.9300,87,90,244
1.7693,0.0733,39.8900,87,90,247
1.7742,0.0782,39.9600,87,90,250
1.7889,0.0733,39.9300,87,90,253
1.8328,0.0782,39.7700,87,90,257
1.8035,0.0635,39.8900,87,90,260
1.7889,0.0733,39.9600,87,90,263
1.8035,0.0831,39.8600,87,90,267
1.7937,0.0733,39.8900,87,90,270
1.7889,0.0684,39.9300,87,90,273
1.8035,0.0733,39.9300,87,90,276
1.8035,0.0733,39.9300,87,90,279
1.8084,0.0782,39.8300,87,90,282
1.7791,0.0684,39.9300,87,90,285
1.7644,0.0733,39.9600,87,90,288
1.8133,0.0831,39.8300,87,90,291
1.8084,0.0880,39.8600,87,90,294
1.8035,0.0684,39.9300,87,90,297
1.8231,0.0831,39.8900,87,90,301
1.7937,0.0733,39.9600,87,90,304
1.8084,0.0782,39.8600,87,90,307
1.7840,0.0733,40.0000,87,90,310
1.7986,0.0733,40.0000,87,90,313
1.8719,0.0880,39.8000,87,90,316
1.8377,0.0733,39.8600,87,90,319
1.8475,0.0733,39.9600,87,90,322
1.8475,0.0831,39.8300,87,90,325
1.8280,0.0733,39.8000,87,90,328
1.8524,0.0733,39.8000,87,90,331
1.8524,0.0684,39.9300,87,90,334
1.8671,0.0635,40.0000,87,90,337
1.9355,0.0782,39.6400,87,90,340
1.8866,0.0635,40.0300,87,90,344
1.8915,0.0733,40.0000,87,90,347
1.9306,0.0831,39.8300,87,90,350
1.9257,0.0782,39.9300,87,90,353
1.9453,0.0733,39.8600,87,90,356
1.9306,0.0733,39.9600,87,90,359
1.9110,0.0733,39.9600,87,90,362
1.9404,0.0733,39.7000,87,90,365
1.8768,0.0782,40.0000,87,90,368
1.8671,0.0733,40.0000,87,90,371
1.8866,0.0782,39.8000,87,90,374
1.8475,0.0782,39.9300,87,90,377
1.8182,0.0538,39.8900,87,90,380
1.8084,0.0733,39.9300,87,90,384
1.7693,0.0782,39.9600,87,90,387
1.7889,0.0782,39.8000,87,90,390
1.7595,0.0733,39.9600,87,90,393
1.7595,0.0733,40.0300,87,90,396
1.7889,0.0782,39.8000,87,90,399
1.7644,0.0831,39.8600,87,90,402
1.7302,0.0733,39.9600,87,90,406
1.7498,0.0831,39.8900,87,90,409
1.7351,0.0733,40.0000,87,90,412
1.7742,0.0733,39.8000,87,90,415
1.7498,0.0635,39.9600,87,90,418
1.7449,0.0733,40.0000,87,90,421
1.7889,0.0880,39.8000,87,90,424
1.7351,0.0733,40.1000,87,90,428
1.7351,0.0733,39.9600,87,90,431
1.7644,0.0831,39.8300,87,90,434
1.7595,0.0733,39.9600,87,90,437
1.7937,0.0733,39.8000,87,90,440
1.7546,0.0733,39.8300,87,90,443
1.7498,0.0733,39.9300,87,90,446
1.7937,0.0929,39.6700,87,90,449
1.7449,0.0684,39.8900,87,90,452
1.7204,0.0733,39.9600,87,90,455
1.7009,0.0733,39.8600,87,90,458
1.6716,0.0733,39.9600,87,90,461
1.7009,0.0733,39.8600,87,90,464
1.7937,0.1124,39.9300,87,90,467
2.0283,0.0782,39.9600,87,90,471
2.3314,0.0782,39.6700,87,90,474
2.6197,0.0733,39.9300,87,90,477
2.9472,0.0733,40.0000,87,90,480
3.2600,0.0733,39.8900,87,90,483
3.4800,0.0733,39.9600,87,90,486
3.6119,0.0684,39.9600,87,90,489
3.5924,0.0782,39.8900,87,90,492
3.4066,0.0733,39.9600,87,90,495
3.1427,0.0782,39.8300,87,90,498
2.7664,0.0733,39.9300,87,90,501
2.3900,0.0733,39.9600,87,90,504
2.1408,0.0733,39.8600,87,90,507
1.9159,0.0782,39.9300,87,90,510
1.7644,0.0733,39.9300,87,90,514
1.6911,0.0782,39.9300,87,90,517
1.6031,0.0733,39.9300,87,90,520
1.5738,0.0782,39.8300,87,90,523
1.5249,0.0782,39.9300,87,90,526
1.4858,0.0733,39.9300,87,90,529
1.5200,0.0880,39.8300,87,90,532
1.4907,0.0733,39.9600,87,90,535
1.4858,0.0684,39.9600,87,90,538
1.4956,0.0733,39.8900,87,90,541
1.4809,0.0733,39.9600,87,90,544
1.5005,0.0782,39.8300,87,90,547
1.4956,0.0782,39.9600,87,90,550
1.5152,0.0733,39.9600,87,90,555
1.5738,0.0831,39.6700,87,90,558
1.5494,0.0782,39.8600,87,90,561
1.5298,0.0684,40.0300,87,90,564
1.5445,0.0782,39.8600,87,90,567
1.5543,0.0782,39.9600,87,90,570
1.5787,0.0733,39.9600,87,90,573
1.5885,0.0733,39.9300,87,90,576
1.6031,0.0733,39.9600,87,90,579
1.6471,0.0782,39.7700,87,90,582
1.6227,0.0782,39.8600,87,90,585
1.6129,0.0733,39.9300,87,90,588
1.6422,0.0831,39.9300,87,90,591
1.6569,0.0831,39.8900,87,90,594
1.6764,0.0538,39.8900,87,90,598
1.6716,0.0782,39.9600,87,90,601
1.6667,0.0733,40.0000,87,90,604
1.7009,0.0880,39.7300,87,90,607
1.6813,0.1075,39.9300,87,90,610
1.7009,0.0782,40.0300,87,90,613
1.7351,0.0733,40.0600,87,90,617
1.7693,0.1026,39.8900,87,90,621
1.7791,0.0733,39.9600,87,90,624
1.8035,0.0733,40.0300,87,90,627
1.7791,0.0782,39.9600,87,90,630
1.7791,0.0733,39.9300,87,90,633
1.8671,0.0929,39.7700,87,90,636
1.8182,0.0978,39.8300,87,90,640
1.8231,0.0684,40.0000,87,90,644
1.8475,0.0782,39.4800,87,90,647
1.8573,0.0635,39.9600,87,90,650
1.8622,0.0782,39.7300,87,90,653
1.8377,0.0782,39.9300,87,90,656
1.8475,0.0733,39.9600,87,90,659
1.8915,0.0929,39.8600,87,90,662
1.8866,0.0733,39.8900,87,90,665
1.9062,0.0782,39.8300,87,90,669
1.8768,0.0733,39.9600,87,90,672
1.8768,0.0733,39.9300,87,90,675
1.9306,0.0831,39.8000,87,90,678
1.9306,0.0831,39.8600,87,90,681
1.9257,0.0587,39.9300,87,90,685
1.9355,0.0733,39.9300,87,90,688
1.9208,0.0782,39.9600,87,90,692
1.9648,0.0782,39.7300,87,90,695
1.9404,0.0733,39.8300,87,90,698
1.9453,0.0733,39.9600,87,90,701
1.9795,0.0733,39.8300,87,90,704
1.9697,0.0538,39.9300,87,90,707
1.9892,0.0831,39.8900,87,90,710
1.9501,0.0831,39.9300,87,90,714
1.9550,0.0733,39.9600,87,90,717
1.9990,0.1026,39.8600,87,90,720
1.9941,0.0782,39.8900,87,90,723
1.9795,0.0684,40.0000,87,90,727
1.9550,0.0733,39.9300,87,90,730
1.9355,0.0733,39.9600,87,90,733
1.9697,0.1026,39.6700,87,90,736
1.9208,0.0782,39.9300,87,90,740
1.9110,0.0733,39.9300,87,90,743
1.9501,0.0782,39.8000,87,90,746
1.8719,0.0733,39.9600,87,90,749
1.8622,0.0782,39.8900,87,90,752
1.8035,0.0782,39.9300,87,90,755
1.7889,0.0733,39.8900,87,90,758
1.8133,0.0831,39.7700,87,90,762
1.7840,0.0782,39.8900,87,90,765
1.7546,0.0684,39.8900,87,90,769
1.7204,0.0733,40.0300,87,90,772
1.6911,0.0831,39.9300,87,90,775
1.7302,0.0831,39.7000,87,90,778
1.6813,0.0782,39.9300,87,90,781
1.6813,0.0733,39.9600,87,90,784
1.6960,0.0880,39.8600,87,90,788
1.6618,0.0733,39.9600,87,90,791
1.6716,0.0733,39.8600,87,90,794
1.6520,0.0782,39.9300,87,90,797
1.6716,0.0782,39.9600,87,90,800
1.7058,0.0782,39.8600,87,90,803
1.6911,0.0782,39.9300,87,90,806
1.6911,0.0684,39.8300,87,90,811
1.6813,0.0782,39.9300,87,90,814
1.6813,0.0733,40.0000,87,90,817
1.7400,0.0880,39.7000,87,90,820
1.7204,0.0782,39.8300,87,90,823
1.7155,0.0733,39.9600,87,90,826
1.7253,0.0831,39.8600,87,90,829
1.7009,0.0733,39.9600,87,90,832
1.7155,0.0733,39.8000,87,90,836
1.7107,0.0782,39.9300,87,90,839
1.7204,0.0733,39.9300,87,90,842
1.7498,0.0782,39.8600,87,90,845
1.7351,0.0733,40.0300,87,90,848
1.7302,0.0684,39.8600,87,90,851
1.7204,0.0782,40.0000,87,90,855
1.7253,0.0733,39.8600,87,90,859
1.7889,0.0978,39.7300,87,90,862
1.7693,0.0733,39.8600,87,90,865
1.7644,0.0684,39.9600,87,90,868
1.7791,0.0831,39.8600,87,90,871
1.7498,0.0831,39.9300,87,90,874
1.8084,0.0782,39.7700,87,90,877
1.7644,0.0733,39.9600,87,90,880
1.7742,0.0635,39.9600,87,90,884
1.8084,0.0831,39.8600,87,90,887
1.7693,0.0782,39.9300,87,90,890
1.7791,0.0733,39.8900,87,90,893
1.7595,0.0782,39.9300,87,90,897
1.7644,0.0733,39.9600,87,90,900
1.8328,0.0929,40.0000,87,90,903
1.7986,0.0733,39.8300,87,90,907
1.7742,0.0880,39.9600,87,90,910
1.7693,0.0782,39.9300,87,90,913
1.7595,0.0733,40.0000,87,90,916
1.8035,0.0831,39.7700,87,90,919
1.7889,0.0782,39.8900,87,90,922
1.7889,0.0929,40.0000,87,90,925
1.7986,0.0733,39.8600,87,90,929
1.7742,0.0733,39.9600,87,90,932
1.7889,0.0782,39.8300,87,90,935
1.7742,0.0782,39.8600,87,90,939
1.7889,0.0733,39.9600,87,90,942
1.8426,0.0880,39.8300,87,90,945
1.8035,0.1026,39.8600,87,90,948
1.7889,0.0733,39.9300,87,90,951
1.7791,0.0831,39.8300,87,90,955
1.7937,0.0782,39.9300,87,90,958
1.8182,0.0782,39.7300,87,90,961
1.7937,0.0782,39.8900,87,90,964
1.7937,0.0782,39.9600,87,90,967
1.7889,0.0831,39.8600,87,90,970
1.7693,0.0782,39.9300,87,90,973
1.7986,0.0782,39.8600,87,90,977
1.7840,0.0782,39.9600,87,90,980
1.7937,0.0733,39.8900,87,90,984
1.8719,0.0929,39.8000,87,90,987
1.8133,0.0831,39.9600,87,90,990
1.7791,0.0684,39.9300,87,90,993
1.7889,0.0733,39.9300,87,90,996
1.7840,0.0733,39.9300,87,90,999
1.8377,0.0782,39.7300,87,90,1003
1.7986,0.0684,39.9600,87,90,1006
1.7937,0.0733,39.9600,87,90,1009
1.7986,0.0782,39.8600,87,90,1012
1.7644,0.0733,39.9600,87,90,1015
1.8035,0.0733,39.8300,87,90,1019
1.7937,0.0733,39.8900,87,90,1022
1.7986,0.0733,40.0000,87,90,1026
1.8084,0.0733,39.8300,87,90,1029
1.7840,0.0733,39.9600,87,90,1032
1.8084,0.0782,39.8300,87,90,1035
1.7840,0.0782,39.9600,87,90,1039
1.7986,0.0733,39.9600,87,90,1042
1.8328,0.0831,39.8900,87,90,1045
1.8133,0.0733,40.0300,87,90,1048
1.8035,0.0733,39.8600,87,90,1051
1.7937,0.0782,39.9600,87,90,1055
1.7889,0.0733,39.9300,87,90,1058
1.8475,0.1075,39.7700,87,90,1061
1.8182,0.0880,39.8600,87,90,1064
1.8035,0.0684,39.8900,87,90,1068
1.8084,0.0929,39.9300,87,90,1072
1.8035,0.0733,39.9300,87,90,1075
1.8671,0.0831,39.7300,87,90,1078
1.8426,0.0635,39.8900,87,90,1081
1.8524,0.0635,39.9600,87,90,1084
1.8671,0.0782,39.8600,87,90,1088
1.8328,0.0782,39.9300,87,90,1091
1.8817,0.0733,39.7700,87,90,1094
1.8817,0.0733,39.8600,87,90,1097
1.9013,0.0733,40.0000,87,90,1100
1.9453,0.0733,40.2600,87,90,1103
1.9355,0.0733,39.9600,87,90,1107
1.9599,0.0733,39.8600,87,90,1111
1.9208,0.0733,40.1000,87,90,1114
1.9257,0.0733,40.0000,87,90,1117
1.9501,0.0831,39.8900,87,90,1120
1.9306,0.0733,39.9300,87,90,1124
1.9208,0.0733,39.8300,87,90,1127
1.8671,0.0733,39.9300,87,90,1130
1.8280,0.0782,39.9600,87,90,1133
1.8475,0.0831,40.1300,87,90,1136
1.8328,0.0831,39.8900,87,90,1140
1.8084,0.0733,39.8900,87,90,1143
1.8280,0.0782,39.9300,87,90,1146
1.7742,0.0831,39.9600,87,90,1149
1.7986,0.0880,39.6700,87,90,1153
1.7449,0.0782,39.8600,87,90,1156
1.7400,0.0782,39.9600,87,90,1160
1.7742,0.0782,39.9600,87,90,1163
1.7498,0.0538,39.9300,87,90,1166
1.7791,0.0733,39.7300,87,90,1169
1.7400,0.0782,39.8600,87,90,1172
1.7302,0.0782,39.9300,87,90,1176
1.7546,0.0733,39.8600,87,90,1179
1.7546,0.0733,39.9600,87,90,1182
1.7791,0.0733,39.8600,87,90,1185
1.7449,0.0733,39.9300,87,90,1188
1.7449,0.0733,39.9600,87,90,1192
1.7498,0.0782,39.8600,87,90,1196
1.7546,0.0733,40.0000,87,90,1199
1.7937,0.0782,39.8300,87,90,1202
1.7693,0.0978,39.8000,87,90,1205
1.7546,0.0733,40.0000,87,90,1209
1.7351,0.0831,39.8000,87,90,1212
1.6716,0.0831,39.9300,87,90,1215
1.6569,0.0831,39.8600,87,90,1218
1.6911,0.0782,39.9600,87,90,1221
1.8231,0.0684,39.9300,87,90,1224
2.1017,0.0978,39.7700,87,90,1228
2.3607,0.0782,39.8300,87,90,1231
2.6882,0.0587,39.9300,87,90,1234
3.0743,0.0782,39.8900,87,98,1238
3.1134,0.0782,39.8000,87,98,1242
2.7517,0.0733,40.0600,87,98,1245
2.4780,0.0929,39.8300,87,98,1248
2.1408,0.0733,39.8000,87,98,1251
1.8915,0.0684,39.9600,87,98,1255
1.7449,0.0733,39.8900,87,98,1258
1.6178,0.0733,39.9600,87,98,1261
1.6031,0.0831,39.7700,87,98,1264
1.5298,0.0782,39.8900,87,98,1267
1.5103,0.0733,39.8600,87,98,1270
1.5005,0.0831,39.9300,87,98,1274
1.4712,0.0684,39.9600,87,98,1277
1.4809,0.1271,39.8300,87,98,1281
1.4663,0.0880,39.8900,87,98,1284
1.4761,0.0782,40.0300,87,98,1287
1.5298,0.0782,39.8300,87,98,1291
1.5200,0.0782,39.9300,87,98,1294
1.5200,0.0929,39.8600,87,98,1297
1.4956,0.0684,39.9300,87,98,1300
1.5103,0.0684,40.0300,87,98,1303
1.5494,0.0831,39.8900,87,98,1307
1.5591,0.0733,39.9300,87,98,1310
1.5836,0.0733,39.8300,87,98,1313
1.5787,0.0782,39.9300,87,98,1316
1.5982,0.0782,39.9300,87,98,1319
1.6325,0.0880,39.7700,87,98,1323
1.6129,0.0733,39.8900,87,98,1327
1.6178,0.0684,39.9600,87,98,1330
1.6325,0.0733,39.9300,87,98,1333
1.6276,0.0733,39.9600,87,98,1336
1.6667,0.0733,39.7000,87,98,1339
1.6422,0.0733,39.8300,87,98,1343
1.6569,0.0733,39.9600,87,98,1346
1.6862,0.0782,40.0000,87,98,1349
1.6911,0.0733,40.0000,87,98,1352
1.7204,0.0782,39.7000,87,98,1355
1.6960,0.0782,39.9300,87,98,1359
1.6911,0.0733,40.0600,87,98,1362
1.7253,0.0880,39.7700,87,98,1366
1.7302,0.0733,39.9600,87,98,1369
1.7644,0.0733,39.8000,87,98,1372
1.7449,0.0831,39.7000,87,98,1375
1.7449,0.0733,39.9600,87,98,1379
1.7595,0.1075,39.8300,87,98,1382
1.7644,0.1026,39.9300,87,98,1385
1.8035,0.0929,39.8300,87,98,1388
1.8133,0.0782,39.9600,87,98,1391
1.7937,0.0782,39.9600,87,98,1395
1.8231,0.0880,39.8000,87,98,1398
1.8084,0.0733,39.8900,87,98,1401
1.8426,0.0782,39.8600,87,98,1404
1.8524,0.0831,39.9300,87,98,1408
1.8475,0.0733,39.9600,87,98,1412
1.9013,0.0929,39.7700,87,98,1415
1.8622,0.0733,39.8600,87,98,1418
1.8475,0.0684,39.9600,87,98,1421
1.8719,0.0733,39.9600,87,98,1424
1.8866,0.0733,40.0000,87,98,1428
1.9501,0.0831,39.7000,87,98,1431
1.9257,0.0782,39.8900,87,98,1434
1.9062,0.0733,40.0000,87,98,1437
1.9306,0.1075,39.8600,87,98,1440
1.9159,0.0782,39.9600,87,98,1443
1.9599,0.0782,39.8300,87,98,1447
1.9453,0.0733,39.9300,87,98,1451
1.9453,0.0733,39.9600,87,98,1454
1.9501,0.0782,39.8600,87,98,1457
1.9355,0.0978,39.9300,87,98,1460
1.9648,0.0831,39.8600,87,98,1464
1.9453,0.0782,39.9600,87,98,1467
1.9746,0.0538,39.9600,87,98,1470
2.0088,0.0831,39.8000,87,98,1473
1.9648,0.0782,39.9600,87,98,1476
1.9697,0.0782,39.8300,87,98,1480
1.9453,0.0782,39.9300,87,98,1483
1.9501,0.0733,39.9600,87,98,1486
1.9941,0.0733,39.8000,87,98,1489
1.9599,0.0733,39.8600,87,98,1492
1.9159,0.0684,39.9300,87,98,1496
1.8866,0.0733,39.9600,87,98,1500
1.8622,0.0733,39.9600,87,98,1503
1.8964,0.0831,39.6400,87,98,1506
1.8524,0.0831,39.8000,87,98,1509
1.8133,0.0733,39.9600,87,98,1512
1.7937,0.0831,39.8900,87,98,1516
1.7449,0.0782,39.9300,87,98,1519
1.7595,0.0831,39.7000,87,98,1522
1.7155,0.0782,39.8900,87,98,1525
1.7107,0.0782,40.0300,87,98,1528
1.7155,0.0782,39.8300,87,98,1532
1.6813,0.0782,39.9300,87,98,1536
1.6813,0.0782,39.8000,87,98,1539
1.6471,0.0733,39.9600,87,98,1542
1.6569,0.0782,39.9600,87,98,1545
1.6862,0.0831,39.8000,87,98,1549
1.6667,0.0733,39.9600,87,98,1552
1.6667,0.0733,39.8000,87,98,1555
1.6471,0.0782,39.9600,87,98,1558
1.6422,0.0733,39.9600,87,98,1561
1.6813,0.0831,39.8600,87,98,1564
1.6813,0.0831,39.8900,87,98,1568
1.6862,0.0733,39.8600,87,98,1571
1.6813,0.0733,39.8900,87,98,1574
1.6764,0.1026,39.9300,87,98,1577
1.7253,0.0929,39.7700,87,98,1581
1.6960,0.0733,39.8300,87,98,1585
1.6911,0.0635,39.9300,87,98,1588
1.7009,0.0782,39.9600,87,98,1591
1.6960,0.0831,40.0000,87,98,1594
1.7351,0.0831,39.7700,87,98,1597
1.7351,0.0782,39.9300,87,98,1601
1.6960,0.0782,39.9300,87,98,1604
1.7546,0.0782,39.8300,87,98,1607
1.7155,0.0782,39.8900,87,98,1610
1.7449,0.0782,39.7700,87,98,1613
1.7107,0.0733,39.9600,87,98,1617
1.7058,0.0733,39.9600,87,98,1620
1.7351,0.0831,39.8300,87,98,1624
1.7253,0.0733,39.9300,87,98,1627
1.7546,0.0782,39.8600,87,98,1630
1.7302,0.0782,39.9300,87,98,1633
1.7302,0.0733,40.0000,87,98,1637
1.7546,0.0831,39.8600,87,98,1640
1.7449,0.0929,39.8900,87,98,1643
1.7595,0.0733,39.9300,87,98,1646
1.7498,0.0782,40.0600,87,98,1649
1.7498,0.0831,39.9600,87,98,1653
1.7889,0.0880,39.8300,87,98,1656
1.7546,0.0880,39.8900,87,98,1659
1.7449,0.0831,39.8900,87,98,1662
1.7546,0.0782,39.9300,87,98,1666
1.7498,0.0782,39.9600,87,98,1670
1.8084,0.0831,39.6700,87,98,1673
1.7595,0.0733,39.8600,87,98,1676
1.7449,0.0733,39.9600,87,98,1679
1.7595,0.0733,39.8600,87,98,1682
1.7449,0.0782,39.9600,87,98,1685
1.7937,0.0782,39.7700,87,98,1689
1.7449,0.0733,39.9600,87,98,1692
1.7449,0.0733,39.9300,87,98,1695
1.7595,0.0831,39.8900,87,98,1698
1.7400,0.0733,39.8600,87,98,1701
1.7644,0.0733,39.8000,87,98,1705
1.7498,0.0733,40.0000,87,98,1709
1.7546,0.0733,39.9600,87,98,1712
1.7742,0.0782,39.8600,87,98,1715
1.7644,0.0782,39.9300,87,98,1718
1.7742,0.0782,39.8300,87,98,1722
1.7546,0.0733,39.8600,87,98,1725
1.7595,0.0831,39.9600,87,98,1728
1.7889,0.0880,39.8600,87,98,1731
1.7693,0.0733,39.9600,87,98,1734
1.7644,0.0880,39.8900,87,98,1738
1.7791,0.0782,39.9300,87,98,1741
1.7644,0.0782,39.9600,87,98,1744
1.8377,0.0929,39.8000,87,98,1747
1.7889,0.0782,39.8300,87,98,1751
1.7644,0.0733,39.9600,87,98,1754
1.7742,0.0782,39.9300,87,98,1758
1.7644,0.0782,39.9600,87,98,1761
1.8084,0.0831,39.7000,87,98,1764
1.7693,0.0782,39.8900,87,98,1767
1.7644,0.0782,39.9300,87,98,1770
1.7889,0.0831,39.8900,87,98,1774
1.7644,0.0733,40.0000,87,98,1777
1.7840,0.0782,39.8000,87,98,1780
1.7595,0.0733,39.8600,87,98,1783
1.7644,0.0733,39.9600,87,98,1786
1.7791,0.0880,39.8600,87,98,1790
1.7644,0.0733,39.8300,87,98,1794
1.7889,0.0831,40.2000,87,98,1797
1.7595,0.0733,39.9600,87,98,1800
1.7644,0.0782,39.9600,87,98,1803
1.7937,0.0929,39.8600,87,98,1806
1.7889,0.1026,39.9600,87,98,1810
1.7937,0.0831,39.8000,87,98,1813
1.7840,0.0782,40.0000,87,98,1816
1.7693,0.0782,39.9600,87,98,1819
1.8133,0.1075,39.8000,87,98,1822
1.7937,0.0831,39.8600,87,98,1826
1.7840,0.0635,39.8900,87,98,1829
1.8035,0.0782,39.9300,87,98,1832
1.7693,0.0782,39.9600,87,98,1836
1.8133,0.0880,39.6700,87,98,1839
1.7937,0.0782,39.8600,87,98,1843
1.7791,0.0782,40.0000,87,98,1846
1.7937,0.0880,39.9300,87,98,1849
1.7889,0.0929,39.8600,87,98,1853
1.7986,0.0831,39.9300,87,98,1856
1.8573,0.0831,39.6700,87,98,1859
1.8524,0.0782,39.8900,87,98,1862
1.8084,0.0782,39.9300,87,98,1865
1.8231,0.0880,39.8900,87,98,1868
1.8084,0.0733,39.9300,87,98,1872
1.8622,0.1075,39.7300,87,98,1875
1.8426,0.0782,40.0000,87,98,1879
1.8622,0.0782,39.9600,87,98,1882
1.9062,0.0831,39.8300,87,98,1885
1.9013,0.0782,39.9600,87,98,1889
1.9355,0.0782,39.8300,87,98,1892
1.9159,0.0733,39.9600,87,98,1895
1.9110,0.0733,39.9600,87,98,1898
1.9110,0.0831,39.8900,87,98,1901
1.8768,0.0733,39.9300,87,98,1905
1.8671,0.0733,39.8300,87,98,1908
1.8182,0.0782,39.9600,87,98,1911
1.7986,0.0733,39.9600,87,98,1914
1.8133,0.0880,39.8900,87,98,1917
1.7840,0.0782,39.1600,87,98,1921
1.7693,0.0733,39.9600,87,98,1925
1.7546,0.0782,39.8900,87,98,1928
1.7449,0.0684,39.9600,87,98,1931
1.7937,0.0880,39.7300,87,98,1934
1.7498,0.0782,39.8300,87,98,1937
1.7498,0.0782,39.9300,87,98,1941
1.7302,0.0782,39.8900,87,98,1944
1.7351,0.0782,39.9300,87,98,1947
1.7644,0.0880,39.7300,87,98,1950
1.7204,0.0733,39.8900,87,98,1953
1.7302,0.0733,39.9600,87,98,1957
1.7449,0.0831,39.8900,87,98,1960
1.7302,0.0733,40.0300,87,98,1964
1.7546,0.0782,39.7700,87,98,1967
1.7351,0.0782,40.0000,87,98,1970
1.7351,0.0733,39.9600,87,98,1974
1.7498,0.0831,39.7700,87,98,1977
1.7449,0.0782,39.8900,87,98,1980
1.7644,0.0831,39.8900,87,98,1983
1.7302,0.1026,39.9600,87,98,1986
1.7498,0.0782,40.0000,87,98,1989
1.7009,0.0880,39.9300,87,98,1993
1.6569,0.0733,39.9300,87,98,1996
1.6520,0.0782,39.8900,87,98,1999
1.7253,0.0782,39.9300,87,98,2002
1.8475,0.0782,39.9300,87,98,2006
2.1310,0.0880,39.8000,87,98,2010
2.4291,0.0831,39.8600,87,98,2013
2.7468,0.0635,39.9300,87,98,2016
3.0841,0.0831,39.9300,87,98,2019
3.3187,0.0831,39.9600,87,98,2022
3.5679,0.0978,39.7000,87,98,2026
3.4946,0.0782,39.8600,87,98,2029
3.3040,0.0831,40.1000,87,98,2032
3.0352,0.0831,39.8900,87,98,2035
2.7028,0.0782,39.9300,87,98,2038
2.3949,0.0880,39.7300,87,98,2041
2.0821,0.1075,39.8300,87,98,2045
1.8573,0.0733,40.0000,87,98,2049
1.7253,0.0782,39.8000,87,98,2052
1.6276,0.0782,39.9300,87,98,2055
1.5982,0.0782,39.8900,87,98,2058
1.5347,0.0978,40.0300,87,98,2062
1.5054,0.0733,39.9300,87,98,2065
1.5005,0.0880,39.8600,87,98,2068
1.4858,0.0782,40.0600,87,98,2071
1.5005,0.0782,39.8600,87,98,2074
1.5005,0.0782,40.0000,87,98,2077
1.4956,0.0782,39.9300,87,98,2081
1.5249,0.0733,39.7700,87,98,2084
1.5054,0.0831,39.7700,87,98,2087
1.5103,0.0733,39.8900,87,98,2091
1.5396,0.0733,39.9600,87,98,2094
1.5543,0.0782,39.9600,87,98,2098
1.5982,0.0831,39.7000,87,98,2101
1.5591,0.0733,39.9600,87,98,2104
1.5640,0.0782,39.9600,87,98,2107
1.5836,0.0831,39.9300,87,98,2110
1.5934,0.1075,39.9300,87,98,2114
1.6422,0.0782,39.6700,87,98,2117
1.6569,0.0782,39.8600,87,98,2120
1.6129,0.0782,39.9600,87,98,2123
1.6276,0.0733,39.8600,87,98,2126
1.6325,0.0782,39.9600,87,98,2129
1.6813,0.0782,39.8000,87,98,2134
1.6862,0.0782,39.9300,87,98,2137
1.6813,0.0733,39.9600,87,98,2140
1.6862,0.0733,39.8600,87,98,2143
1.6716,0.0782,39.9300,87,98,2146
1.7009,0.0831,39.8000,87,98,2150
1.6862,0.0733,39.9300,87,98,2153
1.7107,0.0733,39.9600,87,98,2156
1.7498,0.0831,39.7700,87,98,2159
1.7253,0.0880,39.8600,87,98,2162
1.7204,0.0782,39.9300,87,98,2166
1.7204,0.0782,39.8600,87,98,2169
1.7351,0.0733,39.9300,87,98,2172
1.8035,0.0929,39.7300,87,98,2176
1.7742,0.0733,39.8600,87,98,2179
1.7546,0.0684,39.9300,87,98,2183
1.7595,0.0831,39.8900,87,98,2186
1.7595,0.0782,39.9300,87,98,2189
1.8182,0.0831,39.7000,87,98,2192
1.8133,0.0831,39.8900,87,98,2195
1.8280,0.0782,40.0000,87,98,2198
1.8328,0.0831,39.8600,87,98,2202
1.8084,0.0782,39.9600,87,98,2205
1.8475,0.0782,39.7700,87,98,2208
1.8328,0.0782,39.9600,87,98,2211
1.8524,0.0733,39.9600,87,98,2214
1.8768,0.0782,39.8300,87,98,2219
1.8671,0.0733,39.9600,87,98,2222
1.8866,0.0831,39.8600,87,98,2225
1.8573,0.0782,40.0300,87,98,2228
1.8768,0.0782,40.0300,87,98,2231
1.9257,0.0831,39.8300,87,98,2235
1.9208,0.0929,39.8900,87,98,2238
1.9306,0.0782,39.8300,87,98,2241
1.9062,0.1075,39.9300,87,98,2244
1.9013,0.0831,39.9300,87,98,2247
1.9599,0.0929,39.8300,87,98,2250
1.9550,0.0880,39.8600,87,98,2254
1.9501,0.0684,40.1600,87,98,2257
1.9550,0.0782,39.8900,87,98,2260
1.9404,0.0782,39.9300,87,98,2264
1.9892,0.0880,39.6700,87,98,2267
1.9648,0.0831,39.7300,87,98,2271
1.9599,0.0733,39.9600,87,98,2274
1.9844,0.0880,39.8600,87,98,2277
1.9599,0.0782,39.9300,87,98,2280
1.9795,0.0880,39.7300,87,98,2283
1.9208,0.0782,39.9300,87,98,2287
1.9062,0.0831,39.9600,87,98,2290
1.9257,0.0782,39.8300,87,98,2293
1.9257,0.0880,40.0000,87,98,2296
1.8964,0.1075,39.8000,87,98,2299
1.8377,0.0831,39.9600,87,98,2302
1.8133,0.0782,39.9600,87,98,2307
1.8133,0.0880,39.8000,87,98,2310
1.7889,0.0831,39.9300,87,98,2313
1.7791,0.0733,39.8300,87,98,2316
1.7449,0.0782,39.9300,87,98,2319
1.7107,0.0831,39.9600,87,98,2323
1.7155,0.0880,39.8600,87,98,2326
1.6862,0.0831,39.8900,87,98,2329
1.6813,0.0733,39.8600,87,98,2332
1.6813,0.0782,39.9600,87,98,2335
1.6764,0.0733,39.9600,87,98,2339
1.7107,0.0929,39.7700,87,98,2342
1.6618,0.0978,39.8900,87,98,2345
1.6422,0.1075,39.9300,87,98,2349
1.6618,0.0831,39.8900,87,98,2352
1.6667,0.0782,39.9600,87,98,2356
1.7058,0.0831,39.7000,87,98,2359
1.6569,0.0782,39.9300,87,98,2362
1.6422,0.0782,39.9600,87,98,2365
1.6618,0.0880,39.8300,87,98,2368
1.6520,0.0782,39.9300,87,98,2371
1.7302,0.0782,39.7700,87,98,2375
1.6813,0.0782,39.9600,87,98,2378
1.6813,0.0733,39.9600,87,98,2381
1.6960,0.0880,39.8000,87,98,2384
1.6716,0.0831,39.9600,87,98,2387
1.7058,0.0880,39.8600,87,98,2392
1.7009,0.0782,39.9600,87,98,2395
1.7058,0.0733,39.9300,87,98,2398
1.7253,0.0831,39.8600,87,98,2401
1.7058,0.0831,39.9300,87,98,2404
1.7107,0.0782,39.8300,87,98,2408
1.7155,0.0782,39.3500,87,98,2411
1.7302,0.0880,39.9600,87,98,2414
1.7840,0.0929,39.8000,87,98,2417
1.7498,0.0880,40.2000,87,98,2420
1.7253,0.0733,39.9300,87,98,2423
1.7302,0.0978,40.0000,87,98,2427
1.7302,0.0782,40.0300,87,98,2430
1.7937,0.0880,39.7000,87,98,2434
1.7644,0.0733,39.8900,87,98,2437
1.7546,0.0733,40.0300,87,98,2440
1.7742,0.0880,40.1000,87,98,2444
1.7449,0.0782,40.0600,87,98,2447
1.7840,0.0831,39.7700,87,98,2450
1.7644,0.0880,39.9300,87,98,2453
1.7791,0.0733,39.5700,87,98,2456
1.7986,0.0831,40.1000,87,98,2459
1.8084,0.0831,39.9600,87,98,2463
1.7840,0.0733,39.9300,87,98,2466
1.7986,0.0782,39.7700,87,98,2469
1.7693,0.0782,39.9300,87,98,2473
1.7693,0.0782,39.9600,87,98,2477
1.7889,0.0782,39.8300,87,98,2480
1.7889,0.0733,39.9300,87,98,2483
1.8084,0.0782,39.8600,87,98,2486
1.7693,0.0782,39.9300,87,98,2490
1.7595,0.0782,39.8600,87,98,2493
1.7937,0.0880,40.0600,87,98,2496
1.7840,0.0831,39.9300,87,98,2499
1.8035,0.0782,39.7700,87,98,2502
1.7840,0.0782,39.9300,87,98,2506
1.7742,0.0782,39.2500,87,98,2509
1.7986,0.0880,39.8000,87,98,2512
1.7840,0.0880,39.9600,87,98,2515
1.7791,0.0733,39.8900,87,98,2519
1.7889,0.0782,39.9600,87,98,2522
1.7840,0.0733,39.9300,87,98,2526
1.8231,0.0929,39.7300,87,98,2529
1.7791,0.1026,39.8600,87,98,2532
1.7644,0.0782,40.0000,87,98,2535
1.8035,0.0929,39.8900,87,98,2538
1.7889,0.0831,39.9600,87,98,2542
1.8280,0.0782,39.7700,87,98,2545
1.7889,0.0782,39.8900,87,98,2548
1.7742,0.0831,39.9600,87,98,2551
1.7937,0.0880,39.8000,87,98,2554
1.7840,0.0831,39.9300,87,98,2558
1.8231,0.1026,39.8300,87,98,2562
1.8133,0.0733,39.9300,87,98,2565
1.8133,0.0733,39.9600,87,98,2568
1.8475,0.0880,39.9600,87,98,2571
1.8231,0.0831,39.9600,87,98,2574
1.8524,0.0831,39.8300,87,98,2578
1.8426,0.0782,40.0600,87,98,2581
1.8524,0.0733,39.9600,87,98,2584
1.8866,0.0880,39.8900,87,98,2587
1.8817,0.0831,39.9600,87,98,2590
1.8866,0.0782,39.8600,87,98,2594
1.9013,0.0831,40.0000,87,98,2597
1.9208,0.0782,40.0000,87,98,2600
1.9941,0.0929,39.7300,87,98,2604
1.9404,0.0782,39.8900,87,98,2607
1.9110,0.0733,39.9600,87,98,2611
1.9013,0.0831,40.1000,87,98,2614
1.8768,0.0782,39.9300,87,98,2617
1.9062,0.0831,39.7000,87,98,2620
1.8475,0.0782,39.8900,87,98,2623
1.8182,0.0831,39.9300,87,98,2626
1.8084,0.0880,39.8300,87,98,2630
1.7693,0.0733,40.0000,87,98,2633
1.7937,0.0733,39.8000,87,98,2636
1.7693,0.0782,39.9300,87,98,2639
1.7742,0.0733,40.0000,87,98,2642
1.7937,0.0880,39.8300,87,98,2647
1.7546,0.0880,39.8900,87,98,2650
1.7693,0.1173,39.8600,87,98,2653
1.7449,0.0880,39.9300,87,98,2656
1.7546,0.0733,40.0300,87,98,2659
1.7840,0.0831,39.8900,87,98,2663
1.7693,0.0880,39.8900,87,98,2666
1.7644,0.0782,39.8900,87,98,2669
1.7351,0.0733,39.9300,87,98,2672
1.7400,0.0782,39.9600,87,98,2675
1.7986,0.0978,39.8000,87,98,2678
1.7791,0.0929,39.8600,87,98,2682
1.7791,0.1026,39.9300,87,98,2685
1.7889,0.0733,39.9600,87,98,2689
1.7791,0.0733,39.9600,87,98,2692
1.8377,0.0880,39.6700,87,98,2695
1.7840,0.0733,39.9600,87,98,2699
1.7693,0.0782,39.9600,87,98,2702
1.7498,0.0880,39.8600,87,98,2705
1.6862,0.0782,39.9600,87,98,2708
1.6911,0.0733,39.7300,87,98,2711
1.7009,0.0782,39.9300,87,98,2715
1.8475,0.0782,40.0000,87,98,2718
2.1114,0.0831,39.8600,87,98,2721
2.3949,0.0782,39.9600,87,98,2724
2.7761,0.0782,39.8900,87,98,2727
3.0499,0.0733,39.9600,87,98,2731
3.3089,0.0733,39.9600,87,98,2735
3.5093,0.0880,39.8900,87,98,2738
3.5044,0.0733,39.9300,87,98,2741
3.3773,0.0782,39.8300,87,98,2744
3.0938,0.0782,39.9600,87,98,2747
2.7615,0.0880,39.9300,87,98,2751
2.4927,0.0929,39.8000,87,98,2754
2.1505,0.0782,39.9300,87,98,2757
1.9257,0.0782,39.9300,87,98,2760
1.7791,0.0733,39.9300,87,98,2763
1.6813,0.0782,39.9600,87,98,2766
1.6520,0.0733,39.7300,87,98,2770
1.5738,0.0782,39.8600,87,98,2774
1.5494,0.0782,40.0600,87,98,2777
1.5591,0.0831,39.8900,87,98,2780
1.5347,0.0782,39.9600,87,98,2783
1.5640,0.0733,39.7300,87,98,2787
1.5200,0.0782,39.6700,87,98,2790
1.5249,0.0782,40.0300,87,98,2793
1.5494,0.0880,39.8900,87,98,2796
1.5494,0.0782,39.9600,87,98,2799
1.5787,0.0782,39.8000,87,98,2803
1.5640,0.0782,39.9600,87,98,2806
1.5689,0.0782,39.9600,87,98,2809
1.5934,0.0880,39.8900,87,98,2812
1.5982,0.0831,39.9300,87,98,2816
1.6178,0.0782,39.8300,87,98,2819
1.6227,0.0782,39.9600,87,98,2823
1.6325,0.0782,40.0000,87,98,2826
1.6667,0.0880,39.8600,87,98,2829
1.6520,0.0831,39.9300,87,98,2832
1.6618,0.0782,39.9600,87,98,2835
1.6716,0.0831,39.9300,87,98,2839
1.6764,0.0880,39.9300,87,98,2842
1.7400,0.1026,39.7700,87,98,2845
1.7107,0.0782,39.8300,87,98,2848
1.7058,0.0831,39.9300,87,98,2851
1.7302,0.0880,39.8900,87,98,2855
1.7253,0.0782,39.9600,87,98,2859
1.7791,0.0782,39.8300,87,98,2862
1.7400,0.0782,39.8900,87,98,2865
1.7546,0.0831,40.0000,87,98,2868
1.7644,0.0880,39.9600,87,98,2871
1.7693,0.0782,39.9300,87,98,2875
1.8084,0.0782,39.7700,87,98,2878
1.8133,0.0782,39.8900,87,98,2881
1.8377,0.0782,39.9300,87,98,2884
1.8231,0.0782,39.8600,87,98,2887
1.8182,0.0733,39.9600,87,98,2891
1.8524,0.0880,39.9600,87,98,2894
1.8328,0.0782,39.9600,87,98,2897
1.8475,0.0782,40.0300,87,98,2900
1.8817,0.0880,39.9300,87,98,2904
1.8622,0.0733,39.9300,87,98,2908
1.8817,0.0782,39.8300,87,98,2911
1.8719,0.0831,39.8900,87,98,2914
1.8768,0.0782,40.0000,87,98,2917
1.9404,0.0880,39.4100,87,98,2920
1.9208,0.0880,39.8600,87,98,2924
1.9062,0.0733,39.9600,87,98,2927
1.9208,0.0831,39.8900,87,98,2930
1.9208,0.0782,40.2000,87,98,2933
1.9844,0.0880,39.0600,87,98,2936
1.9501,0.0782,39.8600,87,98,2939
1.9550,0.0782,40.0000,87,98,2944
1.9697,0.0831,39.9300,87,98,2947
1.9599,0.0782,39.9300,87,98,2950
1.9990,0.0831,39.7300,87,98,2953
1.9795,0.0782,39.8300,87,98,2956
1.9795,0.0782,40.0000,87,98,2960
2.0039,0.1075,39.8900,87,98,2963
1.9990,0.0782,40.0300,87,98,2966
2.0235,0.0782,39.8600,87,98,2969
1.9892,0.0782,40.0600,87,98,2972
1.9941,0.0733,39.9600,87,98,2975
2.0186,0.0880,39.9600,87,98,2979
1.9990,0.0733,39.9300,87,98,2982
2.0137,0.0733,39.8300,87,98,2985
1.9795,0.0831,39.9600,87,98,2989
1.9599,0.0782,40.0300,87,98,2992
1.9892,0.0880,39.7700,87,98,2996
1.9599,0.0880,39.8000,87,98,2999
1.9257,0.0733,39.8900,87,98,3002
1.9110,0.0831,40.0300,87,98,3005
1.8768,0.0831,40.0000,87,98,3008
1.9013,0.0880,39.7000,87,98,3011
1.8328,0.0733,39.9600,87,98,3015
1.8084,0.0782,40.0000,87,98,3018
1.8035,0.0831,39.8900,87,98,3021
1.7644,0.0782,40.0300,87,98,3024
1.7791,0.0831,39.7300,87,98,3027
1.7351,0.0782,39.8900,87,98,3032
1.7107,0.0782,40.0000,87,98,3035
1.7204,0.0880,39.8000,87,98,3038
1.7058,0.0782,39.3800,87,98,3041
1.7253,0.0782,39.8300,87,98,3044
1.6960,0.0782,40.0000,87,98,3048
1.6862,0.0733,39.9600,87,98,3051
1.6960,0.0831,39.9300,87,98,3054
1.6911,0.0733,39.9600,87,98,3057
1.7107,0.0782,39.8600,87,98,3060
1.6960,0.0782,40.0600,87,98,3063
1.6960,0.0782,39.9300,87,98,3067
1.7302,0.0880,39.8300,87,98,3070
1.7400,0.0831,39.9300,87,98,3074
1.7253,0.0831,39.9300,87,98,3078
1.7400,0.0880,39.8000,87,98,3081
1.7302,0.0831,39.8600,87,98,3084
1.7400,0.0684,39.9300,87,98,3087
1.7791,0.1173,39.8300,87,98,3090
1.7937,0.0880,39.8900,87,98,3094
1.7449,0.0782,39.8900,87,98,3097
1.7498,0.0831,39.9300,87,98,3100
1.7449,0.0733,39.9600,87,98,3103
1.8084,0.0929,39.7300,87,98,3106
1.7791,0.0782,39.8000,87,98,3110
1.7693,0.0782,39.9600,87,98,3113
1.7937,0.0880,39.9600,87,98,3117
1.7742,0.0782,40.0300,87,98,3120
1.8231,0.0831,39.7000,87,98,3123
1.7889,0.0733,39.9300,87,98,3126
1.7937,0.0782,40.1600,87,98,3130
1.8182,0.0929,39.8300,87,98,3133
1.7937,0.0782,39.9300,87,98,3136
1.8524,0.0831,39.8000,87,98,3139
1.7986,0.0782,39.8900,87,98,3142
1.7986,0.0782,39.9300,87,98,3146
1.8182,0.0733,39.8600,87,98,3149
1.8084,0.0782,39.9300,87,98,3152
1.8280,0.0831,39.8600,87,98,3155
1.7986,0.0831,39.9600,87,98,3159
1.8035,0.0733,39.9600,87,98,3163
1.8377,0.0880,39.9600,87,98,3166
1.8328,0.0831,39.9300,87,98,3169
1.8377,0.0782,39.8600,87,98,3172
1.8133,0.0831,39.8600,87,98,3175
1.8035,0.0831,39.9300,87,98,3179
1.8524,0.0880,39.8000,87,98,3182
1.8377,0.0880,39.8300,87,98,3185
1.8328,0.0733,39.8600,87,98,3188
1.8426,0.0831,39.9300,87,98,3191
1.8231,0.0782,39.9300,87,98,3194
1.8622,0.0782,39.6700,87,98,3198
1.8182,0.0782,39.8600,87,98,3202
1.8231,0.0782,39.9600,87,98,3205
1.8475,0.0880,39.8900,87,98,3208
1.8328,0.0782,39.9300,87,98,3211
1.8573,0.0831,39.7700,87,98,3215
1.8231,0.0831,39.8600,87,98,3218
1.8035,0.0831,39.9600,87,98,3221
1.8231,0.0831,39.8300,87,98,3224
1.8182,0.0782,39.9600,87,98,3227
1.8475,0.0782,39.8600,87,98,3231
1.8133,0.0782,39.9600,87,98,3234
1.8035,0.0782,39.8300,87,98,3237
1.8133,0.0782,39.7300,87,98,3240
1.8084,0.0782,39.8300,87,98,3244
1.8377,0.0831,39.8300,87,98,3247
1.8231,0.0782,39.8000,87,98,3251
1.8133,0.0782,39.9300,87,98,3254
1.8377,0.0978,39.7700,87,98,3257
1.8280,0.0831,39.8900,87,98,3260
1.8182,0.0733,39.8900,87,98,3263
1.8231,0.0782,39.9300,87,98,3267
1.8426,0.0782,39.9600,87,98,3270
1.8719,0.0978,39.7300,87,98,3273
1.8280,0.0733,39.8300,87,98,3276
1.8475,0.0782,39.9600,87,98,3279
1.8622,0.0880,39.8900,87,98,3283
1.8524,0.0782,39.9300,87,98,3287
1.9110,0.0733,39.7000,87,98,3290
1.8768,0.0733,39.8300,87,98,3293
1.8426,0.0782,39.9600,87,98,3296
1.8671,0.0929,40.0000,87,98,3300
1.8671,0.0831,39.8600,87,98,3303
1.9257,0.0782,39.7300,87,98,3306
1.9159,0.0782,39.8900,87,98,3309
1.9208,0.0880,39.9600,87,98,3312
1.9306,0.0831,39.9300,87,98,3315
1.9208,0.0880,40.0000,87,98,3319
1.9501,0.0880,39.8300,87,98,3322
1.9257,0.0782,39.1600,87,98,3325
1.9257,0.0782,40.0300,87,98,3329
1.9453,0.0880,39.7700,87,98,3332
1.9110,0.0831,39.8900,87,98,3336
1.8524,0.1075,39.8300,87,98,3339
1.8475,0.0782,39.9300,87,98,3342
1.8475,0.0880,39.9300,87,98,3345
1.8573,0.0978,39.8900,87,98,3348
1.8426,0.0831,39.8600,87,98,3352
1.7937,0.0782,39.9600,87,98,3355
1.7791,0.0831,39.8900,87,98,3358
1.7644,0.0831,39.9300,87,98,3361
1.8182,0.0929,39.7300,87,98,3364
1.7937,0.0831,39.9300,87,98,3368
1.7742,0.0782,40.0000,87,98,3372
1.7791,0.0929,39.8600,87,98,3375
1.7498,0.0831,39.8900,87,98,3378
1.7889,0.0978,39.7300,87,98,3381
1.7791,0.0831,39.9300,87,98,3384
1.7693,0.0782,39.9600,87,98,3388
1.7986,0.0831,39.8000,87,98,3391
1.7742,0.0880,39.9600,87,98,3394
1.7889,0.0782,39.8300,87,98,3397
1.7498,0.0831,39.9600,87,98,3400
1.7693,0.0831,39.9300,87,98,3404
1.8182,0.0880,39.8300,87,98,3407
1.8035,0.0733,39.9600,87,98,3410
1.8133,0.0831,39.8300,87,98,3414
1.7546,0.0733,39.9600,87,98,3417
1.7253,0.0782,39.9600,87,98,3421
1.7204,0.0880,39.6400,87,98,3424
1.6960,0.0831,40.1300,87,98,3427
1.7400,0.0782,39.1600,87,98,3430
1.8671,0.0831,40.0000,87,98,3433
2.0968,0.0782,40.0300,87,98,3437
2.4731,0.0978,39.7000,87,98,3440
2.7908,0.0831,39.8900,87,98,3443
3.1183,0.0733,39.9600,87,98,3446
3.4409,0.0978,39.8900,87,98,3449
3.6119,0.0782,40.0300,87,98,3452
3.7146,0.0880,39.7000,87,98,3457
3.4800,0.0831,39.8300,87,98,3460
3.1867,0.0782,39.9300,87,98,3463
2.8543,0.0929,39.8600,87,98,3466
2.4682,0.0782,39.9600,87,98,3469
2.1896,0.0782,39.8000,87,98,3473
1.9208,0.0831,39.9600,87,98,3476
1.7546,0.0831,39.9300,87,98,3479
1.6813,0.0880,39.8900,87,98,3482
1.6031,0.0831,39.8900,87,98,3485
1.5836,0.0831,39.8300,87,98,3488
1.5298,0.0782,39.9300,87,98,3492
1.4956,0.1026,39.9300,87,98,3495
1.5152,0.0880,39.8300,87,98,3499
1.4809,0.0880,39.8900,87,98,3502
1.4907,0.0831,39.8600,87,98,3505
1.4956,0.0782,39.9300,87,98,3509
1.5054,0.0782,39.9300,87,98,3512
1.5494,0.0978,39.8000,87,98,3515
1.5103,0.0831,39.9300,87,98,3518
1.5103,0.0782,39.9300,87,98,3521
1.5396,0.0831,39.9600,87,98,3525
1.5543,0.0782,39.9600,87,98,3528
1.6080,0.0733,39.6700,87,98,3531
1.5640,0.0782,39.8000,87,98,3534
1.5640,0.0782,39.9600,87,98,3537
1.5934,0.0929,39.8600,87,98,3540
1.5934,0.0733,39.9600,87,98,3545
1.6471,0.0831,39.7300,87,98,3548
1.6325,0.0880,39.9300,87,98,3551
1.6373,0.0782,40.0300,87,98,3554
1.6569,0.0880,39.8300,87,98,3557
1.6471,0.0880,39.9600,87,98,3561
1.6862,0.0782,39.8600,87,98,3564
1.6862,0.1026,39.9300,87,98,3567
1.7009,0.0978,39.9300,87,98,3570
1.7253,0.0880,39.9300,87,98,3573
1.7155,0.0978,39.9300,87,98,3577
1.7351,0.0929,39.8300,87,98,3580
1.7351,0.0831,39.9300,87,98,3584
1.7546,0.0733,39.8000,87,98,3587
1.8035,0.0880,39.8600,87,98,3590
1.7840,0.0831,39.9300,87,98,3594
1.7693,0.0782,39.8900,87,98,3597
1.7791,0.0831,39.9600,87,98,3600
1.7889,0.0782,39.9600,87,98,3603
1.8573,0.0929,39.7700,87,98,3606
1.8280,0.0782,39.8300,87,98,3609
1.8231,0.0782,39.9300,87,98,3613
1.8328,0.0929,39.8900,87,98,3616
1.8231,0.0831,39.8600,87,98,3619
1.8817,0.0880,39.6700,87,98,3622
1.8622,0.0782,39.8900,87,98,3625
1.8768,0.0782,39.9600,87,98,3630
1.9013,0.0831,39.9300,87,98,3633
1.8817,0.0733,39.9600,87,98,3636
1.9013,0.0733,39.7700,87,98,3639
1.8964,0.0733,39.8900,87,98,3642
1.9062,0.0733,39.9600,87,98,3646
1.9306,0.0782,40.2600,87,98,3649
1.9306,0.0782,40.0600,87,98,3652
1.9550,0.0831,39.8600,87,98,3655
1.9257,0.0782,39.9600,87,98,3658
1.9404,0.0782,39.8600,87,98,3662
1.9795,0.0831,39.8300,87,98,3665
1.9844,0.0782,39.9300,87,98,3668
1.9990,0.0782,39.8000,87,98,3672
1.9746,0.0880,39.8900,87,98,3675
1.9746,0.0782,40.0600,87,98,3678
2.0332,0.0929,39.6400,87,98,3682
2.0088,0.0880,39.8300,87,98,3685
1.9990,0.0880,39.8900,87,98,3688
2.0088,0.0978,39.8000,87,98,3692
1.9941,0.0782,39.9300,87,98,3695
1.9746,0.0684,39.9300,87,98,3698
1.9941,0.0978,39.8000,87,98,3701
1.9306,0.0880,39.8900,87,98,3704
1.8964,0.0782,39.9300,87,98,3708
1.8964,0.0880,39.9300,87,98,3712
1.8915,0.0782,39.9600,87,98,3715
1.8964,0.0880,39.7000,87,98,3718
1.8182,0.0782,39.8900,87,98,3721
1.7791,0.0782,39.9300,87,98,3724
1.8084,0.0831,39.8600,87,98,3728
1.7498,0.0782,39.9300,87,98,3731
1.7693,0.0782,39.7700,87,98,3734
1.7400,0.0733,39.9600,87,98,3737
1.7107,0.0782,39.9600,87,98,3740
1.7204,0.0831,39.8300,87,98,3744
1.6960,0.0831,39.9600,87,98,3747
1.7253,0.0782,39.8600,87,98,3750
1.7107,0.0782,39.9600,87,98,3753
1.7058,0.0733,39.9600,87,98,3757
1.7204,0.0831,39.8900,87,98,3761
1.6960,0.0733,39.9300,87,98,3764
1.7107,0.0782,39.8300,87,98,3767
1.7058,0.0831,39.9600,87,98,3770
1.7204,0.0733,39.8900,87,98,3773
1.7595,0.0880,39.8300,87,98,3776
1.7351,0.0831,39.9600,87,98,3780
1.7155,0.0733,39.8900,87,98,3783
1.7107,0.0831,39.9300,87,98,3786
1.7155,0.0782,39.9600,87,98,3789
1.7840,0.1222,39.7000,87,98,3792
1.7595,0.0782,39.8300,87,98,3796
1.7742,0.0782,39.9300,87,98,3800
1.7546,0.0880,39.8900,87,98,3803
1.7498,0.0782,39.9300,87,98,3806
1.7889,0.0831,39.7300,87,98,3809
1.7595,0.0782,39.9300,87,98,3813
1.7644,0.0782,39.9600,87,98,3816
1.7840,0.0831,39.8300,87,98,3819
1.7546,0.0782,40.0300,87,98,3822
1.7791,0.0782,39.8000,87,98,3825
1.7644,0.0733,39.8900,87,98,3829
1.7889,0.0733,39.9600,87,98,3832
1.8182,0.0733,39.8000,87,98,3835
1.8084,0.0782,40.1000,87,98,3838
1.8182,0.0782,39.8000,87,98,3842
1.7937,0.0782,39.9600,87,98,3845
1.7986,0.0782,40.0600,87,98,3849
1.8377,0.0880,39.0600,87,98,3852
1.8328,0.0782,39.8900,87,98,3855
1.8328,0.0782,39.8300,87,98,3858
1.8182,0.0782,40.0000,87,98,3861
1.8084,0.0733,40.0300,87,98,3865
1.8671,0.0929,39.6700,87,98,3868
1.8426,0.0782,39.8300,87,98,3871
1.8426,0.0684,39.9300,87,98,3874
1.8622,0.0831,39.9300,87,98,3877
1.8524,0.0782,39.9300,87,98,3881
1.8622,0.0880,39.7000,87,98,3885
1.8182,0.0782,39.8900,87,98,3888
1.8280,0.0831,39.9600,87,98,3891
1.8622,0.0831,39.9600,87,98,3894
1.8426,0.0733,39.9300,87,98,3897
1.8671,0.0782,39.7700,87,98,3901
1.8328,0.0782,40.0300,87,98,3904
1.8280,0.0733,39.9600,87,98,3907
1.8524,0.0782,39.8300,87,98,3910
1.8475,0.0733,39.8300,87,98,3913
1.8768,0.0782,39.8900,87,98,3917
1.8377,0.0733,40.1300,87,98,3920
1.8231,0.0831,39.9600,87,98,3923
1.8426,0.1075,39.9300,87,98,3927
1.8426,0.0880,39.8900,87,98,3930
1.8671,0.0782,39.8000,87,98,3934
1.8524,0.0782,39.9300,87,98,3937
1.8426,0.0635,39.9600,87,98,3940
1.8866,0.0782,39.7700,87,98,3943
1.8426,0.0831,39.8600,87,98,3946
1.8426,0.0733,39.9300,87,98,3950
1.8573,0.0733,39.9300,87,98,3953
1.8622,0.0733,40.0000,87,98,3956
1.9110,0.0929,39.7000,87,98,3959
1.8622,0.0733,39.7700,87,98,3962
1.8524,0.0733,40.0300,87,98,3965
1.8719,0.0831,39.8600,87,98,3970
1.8719,0.0782,39.9300,87,98,3973
1.9257,0.1173,39.7000,87,98,3976
1.8915,0.0831,39.8300,87,98,3979
1.8671,0.0684,39.9600,87,98,3982
1.8866,0.0880,39.8600,87,98,3986
1.8622,0.0782,39.9300,87,98,3989
1.9208,0.0782,39.8000,87,98,3992
1.8964,0.0782,39.9300,87,98,3995
1.8866,0.0635,39.9600,87,98,3998
1.9208,0.0782,39.8600,87,98,4002
1.8719,0.0782,39.9300,87,98,4005
1.8964,0.0782,39.8000,87,98,4008
1.8817,0.0782,39.9300,87,98,4012
1.9013,0.0733,39.9600,87,98,4015
1.9306,0.0782,39.7700,87,98,4018
1.9062,0.0733,39.9300,87,98,4022
1.9062,0.0733,39.8600,87,98,4025
1.9159,0.0782,39.9600,87,98,4028
1.9355,0.0733,39.9300,87,98,4031
1.9990,0.0733,39.7300,87,98,4034
1.9648,0.0782,39.9600,87,98,4038
1.9453,0.0684,39.9300,87,98,4041
1.9501,0.0782,39.9600,87,98,4044
1.9648,0.0733,40.0300,87,98,4047
2.0332,0.0733,39.6700,87,98,4050
2.0235,0.0733,39.9600,87,98,4055
2.0186,0.0782,39.9600,87,98,4058
2.0381,0.0831,39.7700,87,98,4061
2.0088,0.0733,39.9600,87,98,4064
2.0381,0.0782,39.7000,87,98,4067
2.0137,0.0733,39.9300,87,98,4070
2.0039,0.0733,39.9300,87,98,4074
1.9941,0.0782,39.8600,87,98,4077
1.9404,0.0733,39.9300,87,98,4080
1.9453,0.0831,39.8600,87,98,4083
1.8964,0.0733,39.9600,87,98,4086
1.9013,0.0733,39.9600,87,98,4090
1.9404,0.0782,39.8000,87,98,4093
1.9110,0.0733,39.9300,87,98,4097
1.9062,0.0733,39.8300,87,98,4100
1.8671,0.0733,39.9300,87,98,4103
1.8573,0.0733,39.8600,87,98,4107
1.9013,0.0880,39.7000,87,98,4110
1.8817,0.0782,40.0600,87,98,4113
1.8671,0.0635,39.9600,87,98,4116
1.8622,0.0733,39.8900,87,98,4119
1.8426,0.1075,39.9300,87,98,4122
1.8866,0.0929,39.6700,87,98,4126
1.8622,0.0782,39.8600,87,98,4129
1.8573,0.0635,39.9300,87,98,4132
1.8915,0.0733,39.8900,87,98,4135
1.8671,0.0684,39.9600,87,98,4139
1.9208,0.0635,39.7000,87,98,4143
1.8622,0.0733,39.8900,87,98,4146
1.8768,0.0733,39.9600,87,98,4149
1.9110,0.0782,39.8000,87,98,4152
1.9062,0.0635,39.9300,87,98,4155
1.9013,0.0733,39.8000,87,98,4159
1.8231,0.0733,39.9300,87,98,4162
1.7791,0.0733,39.9600,87,98,4165
1.7937,0.0831,39.7700,87,98,4168
1.8231,0.0733,39.9300,87,98,4171
1.9990,0.0733,39.8000,87,98,4175
2.2190,0.0733,40.0600,87,98,4178
2.5318,0.0684,39.9300,87,98,4182
2.9326,0.0831,39.8300,87,98,4185
3.2551,0.0782,39.8300,87,98,4188
3.5386,0.0684,39.8900,87,98,4191
3.7146,0.0733,40.0000,87,98,4195
3.7146,0.0684,39.9600,87,98,4198
3.6266,0.0880,39.7700,87,98,4201
3.2405,0.0733,39.7700,87,98,4204
2.8495,0.0684,40.0300,87,98,4207
2.5171,0.0782,39.8600,87,98,4211
2.2141,0.0733,40.0000,87,98,4214
2.0381,0.0733,39.7300,87,98,4217
1.8377,0.0831,39.9300,87,98,4220
1.7302,0.0782,39.9300,87,98,4224
1.6862,0.0733,39.8300,87,98,4227
1.6373,0.0733,39.9300,87,98,4231
1.6422,0.0684,39.7700,87,98,4234
1.6080,0.0635,39.9300,87,98,4237
1.5885,0.0635,39.9600,87,98,4240
1.5982,0.0733,39.8000,87,98,4243
1.5738,0.0635,39.9300,87,98,4247
1.6031,0.0782,39.8300,87,98,4250
1.6373,0.0538,39.9300,87,98,4253
1.6373,0.0684,39.9300,87,98,4256
1.6373,0.0782,39.8600,87,98,4259
1.6227,0.0733,39.9300,87,98,4263
1.6325,0.0684,39.8600,87,98,4267
1.6422,0.0733,39.9600,87,98,4270
1.6618,0.0684,39.9300,87,98,4273
1.7253,0.0831,39.8300,87,98,4276
1.6960,0.0733,39.8600,87,98,4280
1.6862,0.0635,39.9300,87,98,4283
1.7058,0.0635,39.9300,87,98,4286
1.7155,0.0782,39.9600,87,98,4289
1.7889,0.1075,39.7000,87,98,4292
1.8280,0.0831,39.8000,87,98,4297
1.8280,0.0733,39.7700,87,98,4300
1.8231,0.0587,39.8600,87,98,4303
1.8280,0.0684,39.9300,87,98,4306
1.8182,0.0684,39.9300,87,98,4311
1.8671,0.0782,39.6700,87,98,4314
1.8475,0.0635,39.8900,87,98,4317
1.8671,0.0684,39.9300,87,98,4320
1.8964,0.0733,39.8900,87,98,4323
1.8817,0.0635,39.9300,87,98,4327
1.9110,0.0684,39.7300,87,98,4330
1.8817,0.0684,39.8900,87,98,4333
1.8964,0.0635,39.9300,87,98,4336
1.9355,0.0684,39.8000,87,98,4339
1.9257,0.0342,39.9300,87,98,4343
1.9648,0.0635,39.8300,87,98,4346
1.9257,0.0635,40.0300,87,98,4349
1.9355,0.0635,40.0300,87,98,4353
1.9746,0.0733,39.0300,87,98,4356
1.9648,0.0929,39.9300,87,98,4360
1.9990,0.0684,39.8000,87,98,4363
1.9795,0.0635,39.9300,87,98,4366
1.9795,0.0684,39.9300,87,98,4369
2.0137,0.0684,39.8900,87,98,4372
2.0088,0.0733,40.1000,87,98,4375
2.0186,0.0587,39.9300,87,98,4379
2.0332,0.0635,40.0300,87,98,4382
2.0381,0.0635,39.9300,87,98,4385
2.1017,0.0782,39.8000,87,98,4388
2.0626,0.0684,39.8900,87,98,4391
2.0577,0.0635,39.9600,87,98,4396
2.0919,0.0684,40.0000,87,98,4399
2.0968,0.0635,39.9300,87,98,4402
2.1554,0.0684,39.7300,87,98,4405
2.1065,0.0635,39.9600,87,98,4408
2.1017,0.0342,39.9600,87,98,4411
2.1261,0.0684,39.8300,87,98,4415
2.1114,0.0635,39.9300,87,98,4418
2.1505,0.0587,39.8000,87,98,4421
2.1212,0.0635,39.9600,87,98,4424
2.1114,0.0342,40.0000,87,98,4427
2.1261,0.0733,39.8300,87,98,4431
2.0919,0.0684,40.0000,87,98,4434
2.1163,0.0635,39.8300,87,98,4438
2.0870,0.0635,39.9300,87,98,4441
2.0674,0.0587,39.9300,87,98,4444
2.0772,0.0733,39.9300,87,98,4447
2.0283,0.0684,39.9600,87,98,4451
1.9892,0.0635,39.8600,87,98,4454
1.9746,0.0342,39.9300,87,98,4457
1.9501,0.0635,39.9600,87,98,4460
1.9892,0.0733,39.7300,87,98,4463
1.9110,0.0635,39.9600,87,98,4467
1.8719,0.0587,40.0000,87,98,4470
1.8573,0.0684,39.8600,87,98,4473
1.8328,0.0635,40.1300,87,98,4476
1.8768,0.0684,39.6700,87,98,4480
1.8328,0.0635,39.8900,87,98,4484
1.8133,0.0587,40.0000,87,98,4487
1.8133,0.0733,39.8600,87,98,4490
1.7742,0.0684,39.9300,87,98,4493
1.7986,0.0635,39.8000,87,98,4496
1.7840,0.0684,40.0300,87,98,4499
1.7889,0.0587,39.8000,87,98,4503
1.8133,0.0684,39.7300,87,98,4506
1.7791,0.0684,39.9300,87,98,4509
1.7937,0.0733,39.8600,87,98,4512
1.7742,0.0684,39.9300,87,98,4515
1.7889,0.0635,39.9300,87,98,4519
1.8280,0.0538,39.8300,87,98,4523
1.8133,0.0587,39.8900,87,98,4526
1.8280,0.0684,39.8600,87,98,4529
1.7937,0.0684,39.9300,87,98,4532
1.7986,0.0635,39.9600,87,98,4536
1.8573,0.0733,39.8000,87,98,4539
1.8475,0.0684,39.8900,87,98,4542
1.8280,0.0538,39.9300,87,98,4545
1.8231,0.0635,39.9300,87,98,4548
1.8133,0.0587,39.9600,87,98,4551
1.8671,0.0684,39.7000,87,98,4555
1.8377,0.0635,39.8000,87,98,4558
1.8426,0.0587,40.0000,87,98,4561
1.8622,0.0684,39.9300,87,98,4564
1.8328,0.0587,39.9300,87,98,4568
1.8573,0.0635,39.7300,87,98,4572
1.8280,0.0587,39.9600,87,98,4575
1.8475,0.0684,39.9300,87,98,4578
1.8866,0.0782,39.8300,87,98,4581
1.8719,0.0684,39.9300,87,98,4584
1.8915,0.0587,39.8000,87,98,4588
1.8622,0.0587,39.8900,87,98,4591
1.8671,0.0684,40.0000,87,98,4594
1.9013,0.0684,39.8300,87,98,4597
1.8964,0.0635,39.9300,87,98,4600
1.9208,0.0587,39.8300,87,98,4604
1.8915,0.0635,39.9300,87,98,4608
1.8768,0.0587,39.8300,87,98,4611
1.9062,0.0733,40.0300,87,98,4614
1.8964,0.0635,39.9300,87,98,4617
1.9110,0.0587,39.9600,87,98,4620
1.9110,0.0635,39.9300,87,98,4624
1.8964,0.0831,39.8900,87,98,4627
1.9404,0.0733,39.7300,87,98,4630
1.9110,0.0635,39.8300,87,98,4633
1.8817,0.0831,39.8900,87,98,4636
1.9159,0.0635,39.8900,87,98,4640
1.9404,0.0635,39.9600,87,98,4643
1.9501,0.0733,39.7000,87,98,4646
1.8866,0.0538,39.8900,87,98,4649
1.9013,0.0635,39.9600,87,98,4653
1.9062,0.0733,39.8600,87,98,4657
1.8964,0.0587,39.9300,87,98,4660
1.9306,0.0587,39.7700,87,98,4663
1.8964,0.0587,39.9600,87,98,4666
1.8817,0.0587,39.9300,87,98,4669
1.8964,0.0635,39.2500,87,98,4673
1.8866,0.0733,39.9300,87,98,4676
1.9257,0.0684,39.8300,87,98,4679
1.9013,0.0635,39.9300,87,98,4682
1.8915,0.0684,39.9600,87,98,4685
1.8964,0.0684,39.9300,87,98,4688
1.8719,0.1026,39.9300,87,98,4692
1.8915,0.0831,39.8300,87,98,4696
1.8866,0.0538,39.9300,87,98,4699
1.9355,0.0587,39.9300,87,98,4702
1.9550,0.0684,39.7700,87,98,4705
1.9208,0.0684,39.8600,87,98,4709
1.8915,0.0587,39.8600,87,98,4712
1.9013,0.0684,39.9300,87,98,4715
1.9062,0.0587,39.9600,87,98,4718
1.9795,0.0635,39.7000,87,98,4721
1.9355,0.0587,39.8600,87,98,4725
1.9257,0.0587,39.9300,87,98,4728
1.9257,0.0684,39.9600,87,98,4731
1.9110,0.0635,40.0000,87,98,4734
1.9746,0.0635,39.7300,87,98,4738
1.9746,0.0635,39.9600,87,98,4742
1.9795,0.0538,39.9600,87,98,4745
2.0088,0.0635,40.0300,87,98,4748
1.9892,0.0635,39.9300,87,98,4751
2.0235,0.0587,39.8000,87,98,4754
2.0137,0.0587,40.0300,87,98,4757
2.0235,0.0587,39.8900,87,98,4761
2.0283,0.0587,39.8300,87,98,4764
1.9892,0.0587,40.0000,87,98,4767
1.9697,0.0635,39.8300,87,98,4770
1.9159,0.0635,39.9300,87,98,4773
1.9013,0.0587,39.9300,87,98,4777
1.9355,0.0635,39.8000,87,98,4781
1.9306,0.0587,39.8900,87,98,4784
1.8719,0.0587,39.8600,87,98,4787
1.8377,0.0587,39.9300,87,98,4790
1.8231,0.0538,39.9300,87,98,4794
1.8719,0.0782,39.7300,87,98,4797
1.8280,0.0587,39.8300,87,98,4800
1.8133,0.0538,39.9600,87,98,4803
1.8035,0.0635,40.0000,87,98,4806
1.7791,0.0587,39.9600,87,98,4809
1.8133,0.0684,39.7300,87,98,4813
1.7889,0.0635,39.0600,87,98,4816
1.7889,0.0587,40.0000,87,98,4819
1.8182,0.0587,39.8300,87,98,4823
1.7889,0.0587,39.9300,87,98,4826
1.8035,0.0635,39.7700,87,98,4830
1.7742,0.0587,39.8900,87,98,4833
1.7840,0.0635,39.9300,87,98,4836
1.8084,0.0587,39.8600,87,98,4839
1.8133,0.1026,39.9300,87,98,4842
1.8426,0.0587,39.8900,87,98,4846
1.8084,0.0538,40.0000,87,98,4849
1.8035,0.0538,39.9600,87,98,4852
1.8182,0.0538,39.7700,87,98,4855
1.7644,0.0635,39.9300,87,98,4858
1.7351,0.0587,39.8300,87,98,4862
1.7009,0.0587,39.9300,87,98,4866
1.7253,0.0538,39.9300,87,98,4869
1.8964,0.0684,39.8000,87,98,4872
2.1065,0.0635,39.9600,87,98,4875
2.3900,0.0342,39.9300,87,98,4878
2.7419,0.0342,39.9300,87,98,4882
3.0450,0.0538,39.9300,87,98,4885
3.3773,0.0635,39.6700,87,98,4888
3.4702,0.0635,39.8600,87,98,4891
3.4555,0.0587,39.9300,87,98,4894
3.3627,0.0635,39.9600,87,98,4898
3.0694,0.0538,39.9300,87,98,4901
2.8055,0.0587,39.7300,87,98,4904
1.7253,0.0587,39.7000,86,98,4910
1.6422,0.0489,39.8600,86,98,4913
1.5738,0.0538,39.9300,86,98,4916
1.5445,0.0538,39.8900,86,98,4919
1.5298,0.0538,39.9600,86,98,4922
1.5738,0.0587,39.7300,86,98,4925
1.5591,0.0538,39.8600,86,98,4929
1.5494,0.0538,39.9600,86,98,4932
1.5591,0.0782,39.8300,86,98,4935
1.5347,0.0782,39.9300,86,98,4938
1.5494,0.0538,39.8000,86,98,4941
1.5445,0.0489,39.9300,86,98,4945
1.5591,0.0489,40.0000,86,98,4948
1.5885,0.0489,39.8600,86,98,4952
1.5836,0.0538,39.9300,86,98,4955
1.5982,0.0538,39.8000,86,98,4958
1.5934,0.0831,39.9600,86,98,4962
1.6178,0.0587,39.9300,86,98,4965
1.7058,0.0635,39.7700,86,98,4968
1.6862,0.0538,39.8600,86,98,4971
1.6911,0.0440,39.8600,86,98,4974
1.6862,0.0538,39.9600,86,98,4978
1.6862,0.0538,39.9300,86,98,4981
1.7400,0.0684,39.7700,86,98,4984
1.7058,0.0489,39.8300,86,98,4987
1.7009,0.0440,40.0000,86,98,4990
1.7058,0.0538,39.9300,86,98,4994
1.7204,0.0538,39.9600,86,98,4998
1.7644,0.0587,39.7000,86,98,5001
1.7449,0.0342,39.8600,86,98,5004
1.7449,0.0489,39.9300,86,98,5007
1.7693,0.0635,39.8600,86,98,5010
1.7351,0.0489,39.9600,86,98,5014
1.7351,0.0489,39.7700,86,98,5017
1.7204,0.0489,39.9300,86,98,5020
1.7351,0.0489,39.9600,86,98,5023
1.7693,0.0538,39.8600,86,98,5026
1.7742,0.0489,40.0000,86,98,5030
1.8084,0.0538,39.8300,86,98,5033
1.7937,0.0538,39.9300,86,98,5037
1.8084,0.0489,40.0300,86,98,5040
1.8671,0.0587,39.7700,86,98,5043
1.8671,0.0587,39.8900,86,98,5046
1.8768,0.0733,39.8300,86,98,5050
1.8622,0.0538,39.9300,86,98,5053
1.8768,0.0440,39.9300,86,98,5056
1.9013,0.0684,39.8000,86,98,5059
1.8915,0.0587,39.8600,86,98,5062
1.8915,0.0391,39.8900,86,98,5066
1.9110,0.0538,39.9300,86,98,5069
1.9110,0.0489,39.9300,86,98,5072
1.9648,0.0587,39.6700,86,98,5075
1.9257,0.0538,39.8900,86,98,5079
1.9208,0.0489,39.9600,86,98,5083
1.9453,0.0587,39.8600,86,98,5086
1.9257,0.0489,40.0000,86,98,5089
1.9599,0.0538,39.7300,86,98,5092
1.9110,0.0489,39.8600,86,98,5095
1.9013,0.0489,39.9600,86,98,5098
1.9208,0.0538,39.8300,86,98,5102
1.9208,0.0489,39.9600,86,98,5105
1.9697,0.0489,39.8600,86,98,5108
1.9550,0.0489,39.8900,86,98,5111
1.9599,0.0489,39.9300,86,98,5114
1.9892,0.0635,39.8600,86,98,5118
1.9697,0.0538,39.9300,86,98,5122
1.9990,0.0538,39.8000,86,98,5125
1.9795,0.0489,40.0600,86,98,5128
1.9746,0.0489,39.9600,86,98,5131
1.9941,0.0538,39.8900,86,98,5135
1.9550,0.0587,39.8600,86,98,5138
1.9257,0.0440,39.9300,86,98,5141
1.9062,0.0538,39.9300,86,98,5144
1.8866,0.0489,40.0300,86,98,5147
1.9208,0.0684,39.7000,86,98,5150
1.8573,0.0538,39.8300,86,98,5154
1.8133,0.0489,39.2800,86,98,5157
1.8035,0.0635,39.9300,86,98,5160
1.7742,0.0684,39.9300,86,98,5164
1.7986,0.0635,39.7000,86,98,5167
1.7498,0.0587,39.8600,86,98,5171
1.7204,0.0587,39.9300,86,98,5174
1.7155,0.0587,39.8300,86,98,5177
1.6813,0.0538,39.9600,86,98,5180
1.6862,0.0440,39.7700,86,98,5183
1.6569,0.0489,39.9300,86,98,5187
1.6618,0.0342,39.9600,86,98,5190
1.6911,0.0538,39.8600,86,98,5193
1.6716,0.0538,40.1300,86,98,5196
1.6911,0.0538,39.8000,86,98,5199
1.6667,0.0489,39.9600,86,98,5203
1.6667,0.0489,40.1600,86,98,5207
1.6960,0.0733,39.8000,86,98,5210
1.6813,0.0538,39.8900,86,98,5213
1.6813,0.0489,39.8600,86,98,5216
1.6716,0.0538,39.8000,86,98,5219
1.6764,0.0538,39.9300,86,98,5223
1.7302,0.0880,39.8300,86,98,5226
1.7155,0.0782,39.8600,86,98,5229
1.7058,0.0440,39.9300,86,98,5232
1.7058,0.0587,39.8900,86,98,5235
1.6862,0.0440,39.9300,86,98,5239
1.7204,0.0684,39.7000,86,98,5242
1.6862,0.0684,39.8300,86,98,5245
1.6813,0.0489,39.9300,86,98,5249
1.7107,0.0635,39.8900,86,98,5252
1.7009,0.0782,39.9300,86,98,5255
1.7449,0.0587,39.7300,86,98,5259
1.7204,0.0489,39.9600,86,98,5262
1.7400,0.0489,39.9600,86,98,5265
1.7595,0.0587,39.8300,86,98,5268
1.7449,0.0440,39.9300,86,98,5271
1.7693,0.0538,39.8600,86,98,5275
1.7498,0.0587,39.9300,86,98,5278
1.7546,0.0489,39.9300,86,98,5281
1.7889,0.0538,39.9600,86,98,5284
1.7742,0.0538,39.9300,86,98,5287
1.7937,0.0489,39.8600,86,98,5292
1.7742,0.0538,40.0000,86,98,5295
1.7693,0.0489,40.0000,86,98,5298
1.8035,0.0635,39.8600,86,98,5301
1.7840,0.0538,39.9600,86,98,5304
1.7791,0.0440,39.8900,86,98,5308
1.7889,0.0538,39.8000,86,98,5311
1.7937,0.0489,40.0300,86,98,5314
1.8475,0.0635,40.1000,86,98,5317
1.8133,0.0978,39.8600,86,98,5320
1.8035,0.0489,39.9300,86,98,5323
1.8231,0.0538,39.8900,86,98,5327
1.8084,0.0489,39.9600,86,98,5330
1.8426,0.0538,39.9300,86,98,5334
1.8035,0.0538,39.9300,86,98,5337
1.7986,0.0489,39.9300,86,98,5340
1.8231,0.0489,39.8300,86,98,5344
1.8084,0.0489,39.9300,86,98,5347
1.8377,0.0440,39.8000,86,98,5350
1.8133,0.0489,39.8900,86,98,5353
1.8182,0.0391,40.0000,86,98,5356
1.8475,0.0587,39.8600,86,98,5360
1.8328,0.0538,39.9300,86,98,5363
1.9013,0.0489,39.8000,86,98,5366
1.8475,0.0538,39.9300,86,98,5369
1.8524,0.0489,39.9600,86,98,5372
1.8866,0.0538,39.8300,86,98,5376
1.8817,0.0538,39.9300,86,98,5380
1.9013,0.0440,39.8600,86,98,5383
1.9208,0.0538,39.9600,86,98,5386
1.9306,0.0489,39.9600,86,98,5389
1.9990,0.0635,39.7300,86,98,5392
1.9599,0.0489,39.8300,86,98,5396
1.9404,0.0440,39.9300,86,98,5399
1.9501,0.0587,39.9300,86,98,5402
1.9208,0.0489,39.9600,86,98,5405
1.9599,0.0538,39.7000,86,98,5408
1.8964,0.0440,39.9600,86,98,5412
1.8768,0.0440,39.9300,86,98,5415
1.8622,0.0587,39.8900,86,98,5419
1.8182,0.0489,39.8600,86,98,5422
1.8182,0.0489,39.7700,86,98,5425
1.7791,0.0489,39.8300,86,98,5428
1.7644,0.0489,39.9300,86,98,5432
1.7693,0.0587,39.8600,86,98,5435
1.7449,0.0489,39.9300,86,98,5438
1.7693,0.0587,39.8600,86,98,5441
1.7400,0.0489,39.9300,86,98,5444
1.7351,0.0440,39.9300,86,98,5448
1.7546,0.0635,39.8900,86,98,5451
1.7546,0.0538,39.8900,86,98,5454
1.7546,0.0342,39.8300,86,98,5457
1.7449,0.0538,39.9600,86,98,5460
1.7498,0.0489,39.9600,86,98,5465
1.7986,0.0538,39.8000,86,98,5468
1.7791,0.0538,39.7700,86,98,5471
1.7498,0.0440,39.8900,86,98,5474
1.7449,0.0538,39.8600,86,98,5477
1.7351,0.0489,39.8600,86,98,5481
1.7889,0.0587,39.6700,86,98,5484
1.7546,0.0489,39.8600,86,98,5487
1.7546,0.0440,39.9600,86,98,5490
1.7644,0.0635,39.8900,86,98,5493
1.7498,0.0538,39.9300,86,98,5496
1.7595,0.0538,39.7000,86,98,5500
1.7009,0.0489,39.8600,86,98,5504
1.6716,0.0440,39.9300,86,98,5507
1.7204,0.0587,39.7700,86,98,5510
1.7937,0.0342,39.9300,86,98,5513
2.0088,0.0342,39.8000,86,98,5517
2.2434,0.0391,39.7700,85,98,5520
3.4409,0.0489,39.9600,85,98,5524
3.3284,0.0489,39.9300,85,98,5528
3.1232,0.0587,39.8300,85,98,5531
2.7761,0.0538,40.0300,85,98,5534
2.4976,0.0489,39.8300,85,98,5537
2.1945,0.0440,39.9300,85,98,5540
1.9648,0.0489,39.9600,85,98,5543
1.8133,0.0635,39.8900,85,98,5548
1.6862,0.0538,40.0000,85,98,5551
1.6373,0.0538,39.8300,85,98,5554
1.5738,0.0538,40.0600,85,98,5557
1.5494,0.0489,39.8600,85,98,5560
1.5591,0.0635,39.8000,85,98,5564
1.5347,0.0538,39.8000,85,98,5567
1.5298,0.0440,39.9300,85,98,5570
1.5347,0.0587,39.8900,85,98,5573
1.5347,0.1026,40.0000,85,98,5576
1.5836,0.0684,39.7300,85,98,5580
1.5591,0.0538,39.8300,85,98,5583
1.5640,0.0489,39.9300,85,98,5586
1.5689,0.0587,39.8600,85,98,5590
1.5591,0.0489,39.9600,85,98,5593
1.6129,0.0587,39.7000,85,98,5596
1.5836,0.0342,39.8900,85,98,5600
1.6031,0.0440,39.9300,85,98,5603
1.6276,0.0538,39.8900,85,98,5606
1.6227,0.0489,40.0300,85,98,5609
1.6471,0.0489,39.7700,85,98,5612
1.6422,0.0489,39.8600,85,98,5616
1.6520,0.0489,39.9300,85,98,5619
1.6764,0.0538,39.8000,85,98,5622
1.6764,0.0538,40.0000,85,98,5625
1.6960,0.0538,39.8300,85,98,5628
1.6960,0.0538,39.9600,85,98,5633
1.7107,0.0489,40.0300,85,98,5636
1.7449,0.0587,39.8600,85,98,5639
1.7302,0.0538,39.9600,85,98,5642
1.7351,0.0489,39.9300,85,98,5645
1.7400,0.0538,39.9600,85,98,5649
1.7449,0.0391,39.9300,85,98,5652
1.7986,0.0635,39.7300,85,98,5655
1.7889,0.0587,39.8300,85,98,5658
1.7644,0.0489,39.8900,85,98,5661
1.7937,0.0538,39.9300,85,98,5664
1.7937,0.0342,39.9300,85,98,5668
1.8377,0.0587,39.6700,85,98,5671
1.8084,0.0489,39.8600,85,98,5675
1.8182,0.0489,39.9600,85,98,5678
1.8377,0.0538,39.9300,85,98,5681
1.8280,0.0489,39.9600,85,98,5685
1.8719,0.0538,39.7300,85,98,5688
1.8524,0.0489,39.9300,85,98,5691
1.8573,0.0489,40.0600,85,98,5694
1.8915,0.0538,39.8000,85,98,5697
1.8915,0.0538,40.0000,85,98,5701
1.9257,0.0489,39.8300,85,98,5704
1.8964,0.0489,40.0300,85,98,5707
1.9013,0.0489,39.9300,85,98,5710
1.9110,0.0587,39.8900,85,98,5713
1.9013,0.0538,39.9600,85,98,5716
1.9257,0.0489,39.8000,85,98,5721
1.9110,0.0538,39.8900,85,98,5724
1.9208,0.0489,39.9300,85,98,5727
1.9746,0.0587,39.7700,85,98,5730
1.9746,0.0587,39.9300,85,98,5733
1.9746,0.0587,39.8300,85,98,5737
1.9795,0.0440,39.8600,85,98,5740
1.9746,0.0538,39.9300,85,98,5743
2.0283,0.0587,39.7000,85,98,5746
1.9892,0.0587,39.8000,85,98,5749
1.9844,0.0489,40.0300,85,98,5753
1.9990,0.0489,39.9300,85,98,5756
2.0039,0.0538,39.9300,85,98,5760
2.0332,0.0587,39.7300,85,98,5763
2.0186,0.0587,39.8600,85,98,5766
1.9746,0.0538,40.0000,85,98,5769
2.0235,0.0587,39.8600,85,98,5773
1.9550,0.0440,39.9300,85,98,5776
1.9550,0.0782,39.8300,85,98,5779
1.8964,0.0440,39.9300,85,98,5782
1.8622,0.0538,39.9300,85,98,5785
1.8622,0.0538,39.8600,85,98,5789
1.8182,0.0635,39.9300,85,98,5792
1.8231,0.0587,39.8000,85,98,5795
1.7742,0.0538,39.9600,85,98,5798
1.7595,0.0489,39.9600,85,98,5801
1.7693,0.0587,39.8000,85,98,5806
1.7400,0.0587,39.9300,85,98,5809
1.7302,0.0538,39.8600,85,98,5812
1.7107,0.0538,39.9600,85,98,5815
1.6960,0.0489,39.9600,85,98,5818
1.7351,0.0342,39.7300,85,98,5821
1.6862,0.0538,39.8900,85,98,5825
1.6716,0.0489,39.9600,85,98,5828
1.6764,0.0587,39.8300,85,98,5831
1.6764,0.0489,39.9600,85,98,5834
1.7204,0.0587,39.7000,85,98,5837
1.6911,0.0538,39.8300,85,98,5841
1.6716,0.0538,39.8900,85,98,5844
1.6960,0.0538,39.8600,85,98,5848
1.7058,0.0538,39.9600,85,98,5851
1.7155,0.0538,39.7300,85,98,5854
1.7253,0.0342,39.8900,85,98,5858
1.7009,0.0342,39.9300,85,98,5861
1.7009,0.0538,39.8600,85,98,5864
1.6813,0.0538,39.9300,85,98,5867
1.7009,0.0342,39.8600,85,98,5870
1.6911,0.0538,39.9300,85,98,5874
1.6960,0.0538,40.0000,85,98,5877
1.7400,0.0587,39.8000,85,98,5880
1.7204,0.0538,39.9600,85,98,5883
1.7351,0.0538,39.8300,85,98,5886
1.7302,0.0538,39.9600,85,98,5890
1.7302,0.0538,39.9600,85,98,5894
1.7742,0.0635,39.8000,85,98,5897
1.7595,0.0587,39.9600,85,98,5900
1.7449,0.0489,39.9600,85,98,5903
1.7449,0.0587,40.0000,85,98,5906
1.7498,0.0538,40.0000,85,98,5910
1.8035,0.0635,39.7300,85,98,5913
1.7742,0.0587,40.2000,85,98,5916
1.7644,0.0538,40.0600,85,98,5919
1.7791,0.0635,39.8900,85,98,5922
1.7644,0.0782,39.9600,85,98,5926
1.7986,0.0587,39.7300,85,98,5929
1.7693,0.0587,39.8900,85,98,5933
1.7693,0.0587,39.9600,85,98,5936
1.7840,0.0587,39.8000,85,98,5939
1.7693,0.0831,39.8600,85,98,5942
1.7937,0.0587,39.8000,85,98,5946
1.7742,0.0587,39.9300,85,98,5949
1.7937,0.0538,39.9300,85,98,5952
1.8280,0.0538,39.8000,85,98,5955
1.7986,0.0587,39.9600,85,98,5958
1.8084,0.0342,39.8300,85,98,5962
1.7840,0.0587,39.9300,85,98,5965
1.8182,0.0587,39.9300,85,98,5968
1.8280,0.0635,39.8000,85,98,5971
1.8182,0.0538,39.8900,85,98,5975
1.8182,0.0342,39.8300,85,98,5979
1.8035,0.0587,39.9300,85,98,5982
1.7937,0.0538,39.9600,85,98,5985
1.8426,0.0733,39.7700,85,98,5988
1.7986,0.0587,39.9600,85,98,5991
1.7742,0.0489,40.0000,85,98,5994
1.7693,0.0635,39.8900,85,98,5998
1.7449,0.0538,39.8600,85,98,6001
1.7742,0.0587,39.7000,85,98,6004
1.7400,0.0489,39.8600,85,98,6007
1.7302,0.0538,39.9600,85,98,6010
1.7546,0.0635,39.9300,85,98,6014
1.7351,0.0538,40.0600,85,98,6018
1.7644,0.0538,39.7700,85,98,6021
1.7351,0.0831,39.9300,85,98,6024
1.7400,0.0635,40.0300,85,98,6027
1.7742,0.0929,39.8600,85,98,6031
1.7889,0.0587,39.9600,85,98,6034
1.8035,0.0635,39.8600,85,98,6037
1.7889,0.0587,39.9300,85,98,6040
1.8182,0.0538,39.9300,85,98,6043
1.8328,0.0635,39.8300,85,98,6047
1.8377,0.0587,39.9300,85,98,6050
1.8622,0.0538,39.8600,85,98,6053
1.8671,0.0538,40.0000,85,98,6056
1.8768,0.0538,39.9600,85,98,6060
1.9257,0.0684,39.8000,85,98,6063
1.8915,0.0587,39.9600,85,98,6067
1.8915,0.0489,39.8900,85,98,6070
1.9062,0.0587,39.8600,85,98,6073
1.9062,0.0538,39.9300,85,98,6076
1.9599,0.0635,39.6000,85,98,6079
1.9013,0.0733,39.8300,85,98,6083
1.8622,0.0538,40.0300,85,98,6086
1.8475,0.0587,39.8900,85,98,6089
1.8035,0.0538,39.9600,85,98,6092
1.8231,0.0587,39.7000,85,98,6095
1.7693,0.0587,39.9300,85,98,6099
1.7595,0.0587,39.9300,85,98,6103
1.7889,0.0538,39.8900,85,98,6106
1.7302,0.0587,39.8900,85,98,6109
1.7449,0.0538,39.8000,85,98,6112
1.7204,0.0538,39.8900,85,98,6116
1.7204,0.0538,39.9600,85,98,6119
1.7449,0.0587,39.9600,85,98,6122
1.7253,0.0587,39.9300,85,98,6125
1.7449,0.0587,39.5400,85,98,6128
1.7253,0.0587,39.9300,85,98,6131
1.7155,0.0587,39.9300,85,98,6136
1.7302,0.0342,39.9600,85,98,6139
1.7693,0.0684,39.8600,85,98,6142
1.7546,0.0587,39.9300,85,98,6147
1.7742,0.0587,39.0300,85,98,6150
1.7400,0.0587,40.0300,85,98,6153
1.7253,0.0538,39.9600,85,98,6156
1.7204,0.0635,39.8600,85,98,6159
1.6667,0.0635,40.0000,85,98,6163
1.6422,0.0538,39.8900,85,98,6166
1.6520,0.0587,39.9300,85,98,6169
1.7693,0.0489,39.9300,85,98,6172
2.0528,0.0880,39.8000,85,98,6175
2.3167,0.0587,39.9600,85,98,6179
2.6637,0.0489,40.0000,85,98,6182
3.0254,0.0929,39.9300,85,98,6185
3.3138,0.0538,39.8900,85,98,6189
3.6217,0.0635,39.6700,85,98,6192
3.6168,0.0587,39.8600,85,98,6195
3.4848,0.0635,39.9300,85,98,6199
3.2502,0.0587,39.8900,85,98,6202
2.8495,0.0587,39.9600,85,98,6205
2.5171,0.0587,39.7300,85,98,6208
2.1554,0.0587,39.9300,85,98,6211
1.9257,0.0587,39.9300,85,98,6215
1.7742,0.0684,39.8600,85,98,6218
1.6569,0.0587,39.9300,85,98,6221
1.6227,0.0538,39.8600,85,98,6224
1.5494,0.0538,39.9300,85,98,6227
1.5152,0.0538,40.0300,85,98,6232
1.5152,0.0635,39.8600,85,98,6235
1.4907,0.0587,39.8900,85,98,6238
1.5005,0.0929,39.8000,85,98,6241
1.4809,0.0587,39.9600,85,98,6244
1.4761,0.0587,39.9300,85,98,6248
1.4956,0.0733,39.8600,85,98,6251
1.4761,0.0635,39.8900,85,98,6254
1.5005,0.0391,39.8900,85,98,6257
1.5249,0.0587,39.9300,85,98,6260
1.5494,0.0342,39.9600,85,98,6263
1.6080,0.0733,39.7300,85,98,6267
1.5689,0.0538,39.8600,85,98,6270
1.5543,0.0538,39.9600,85,98,6274
1.5640,0.0635,39.9300,85,98,6277
1.5591,0.0587,39.9300,85,98,6280
1.5982,0.0635,39.7000,85,98,6284
1.5787,0.0831,39.8600,85,98,6287
1.5885,0.0538,39.9300,85,98,6290
1.6080,0.0733,39.8900,85,98,6293
1.6031,0.0733,39.9300,85,98,6296
1.6422,0.0635,39.8300,85,98,6300
1.6422,0.0587,39.8900,85,98,6303
1.6667,0.0635,39.9600,85,98,6306
1.6960,0.0587,39.8600,85,98,6309
1.7009,0.0587,39.9300,85,98,6312
1.7351,0.0635,39.8300,85,98,6317
1.7351,0.0538,39.9600,85,98,6320
1.7449,0.0538,39.8300,85,98,6323
1.7742,0.0684,39.8600,85,98,6326
1.7546,0.0587,39.7700,85,98,6329
1.7644,0.0587,39.8000,85,98,6333
1.7498,0.0587,39.9300,85,98,6336
1.7644,0.0342,39.9300,85,98,6339
1.8622,0.0538,39.7700,85,98,6342
1.8328,0.0635,39.9600,85,98,6345
1.8280,0.0489,39.8900,85,98,6348
1.8426,0.0342,39.8900,85,98,6352
1.8524,0.0538,39.9300,85,98,6355
1.9159,0.0635,39.6400,85,98,6359
1.8866,0.0538,39.8900,85,98,6362
1.8964,0.0538,39.9300,85,98,6365
1.9013,0.0587,39.8900,85,98,6369
1.8768,0.0587,39.9300,85,98,6372
1.9013,0.0587,39.7300,85,98,6375
1.8671,0.0587,39.8300,85,98,6378
1.8524,0.0538,39.9300,85,98,6381
1.8817,0.0587,39.8300,85,98,6385
1.8719,0.0538,39.9300,85,98,6388
1.9062,0.0538,39.8000,85,98,6391
1.9013,0.0538,39.9600,85,98,6394
1.9355,0.0538,40.0000,85,98,6397
1.9795,0.0587,39.9600,85,98,6402
1.9892,0.0587,40.0600,85,98,6405
2.0137,0.0587,39.8000,85,98,6408
1.9746,0.0587,39.8600,85,98,6411
1.9648,0.0538,39.9300,85,98,6414
2.0088,0.0635,39.7000,85,98,6417
2.0039,0.0635,39.8900,85,98,6421
2.0186,0.0538,39.8600,85,98,6424
2.0186,0.0587,39.8900,85,98,6427
2.0088,0.0538,40.0000,85,98,6430
2.0626,0.0538,39.7300,85,98,6433
2.0039,0.0538,39.8300,85,98,6437
2.0039,0.0587,39.9300,85,98,6440
2.0088,0.0538,39.9600,85,98,6444
2.0039,0.0538,39.9300,85,98,6447
2.0186,0.0587,39.6700,85,98,6450
1.9599,0.0684,39.8600,85,98,6453
1.9159,0.0929,39.8900,85,98,6457
1.9159,0.0342,39.8300,85,98,6460
1.8622,0.0342,39.9300,85,98,6463
1.8622,0.0538,39.8000,85,98,6466
1.8084,0.0538,39.8900,85,98,6469
1.7889,0.0538,39.9300,85,98,6473
1.7742,0.0587,39.8300,85,98,6476
1.7498,0.0587,39.9600,85,98,6479
1.7546,0.0635,39.8000,85,98,6482
1.7204,0.0684,39.9600,85,98,6486
1.7107,0.0538,39.8600,85,98,6490
1.7302,0.0635,39.7300,85,98,6493
1.7058,0.0635,39.8900,85,98,6496
1.7107,0.0684,39.8300,85,98,6499
1.7058,0.0635,39.9300,85,98,6502
1.7058,0.0538,39.9300,85,98,6505
1.7498,0.0880,39.8000,85,98,6509
1.7204,0.0635,39.8000,85,98,6512
1.7155,0.0538,40.0000,85,98,6515
1.7302,0.0635,40.0000,85,98,6518
1.7400,0.0587,39.8000,85,98,6521
1.7937,0.0635,39.7000,85,98,6525
1.7693,0.0635,39.8300,85,98,6529
1.7546,0.0587,39.9600,85,98,6532
1.7889,0.0733,39.8600,85,98,6535
1.7742,0.0587,39.9300,85,98,6538
1.8133,0.0684,39.7300,85,98,6542
1.7986,0.0587,39.8900,85,98,6545
1.8084,0.0538,39.9600,85,98,6548
1.8231,0.0538,39.8300,85,98,6551
1.8133,0.0342,39.9300,85,98,6554
1.8426,0.0538,39.8600,85,98,6557
1.8035,0.0538,39.9600,85,98,6561
1.8035,0.0538,39.9600,85,98,6564
1.8328,0.0635,39.8300,85,98,6567
1.8231,0.0587,39.8900,85,98,6571
1.8475,0.0587,39.8300,85,98,6574
1.8328,0.0587,40.0000,85,98,6578
1.8328,0.0538,40.0000,85,98,6581
1.8768,0.0635,39.8600,85,98,6584
1.8524,0.0635,39.9300,85,98,6587
1.8377,0.0538,39.8900,85,98,6590
1.8377,0.0587,39.3800,85,98,6594
1.8377,0.0587,39.9600,85,98,6597
1.9013,0.0684,39.7000,85,98,6600
1.8719,0.0684,39.8600,85,98,6603
1.8622,0.0880,39.9300,85,98,6606
1.8671,0.0635,39.8600,85,98,6610
1.8475,0.0587,39.9300,85,98,6614
1.8964,0.0538,39.7000,85,98,6617
1.8622,0.0587,39.9300,85,98,6620
1.8622,0.0538,39.9600,85,98,6623
1.8866,0.0587,39.8300,85,98,6626
1.8671,0.0342,39.9600,85,98,6630
1.8915,0.0538,39.8000,85,98,6633
1.8671,0.0538,39.8900,85,98,6636
1.8671,0.0538,39.7000,85,98,6639
1.9013,0.0635,39.8600,85,98,6642
1.8719,0.0880,39.8900,85,98,6646
1.8964,0.0587,39.8000,85,98,6649
1.8719,0.0538,39.8900,85,98,6652
1.8719,0.0587,39.9300,85,98,6656
1.9257,0.0635,39.8300,85,98,6659
1.9110,0.0538,39.8900,85,98,6663
1.9257,0.0538,39.8600,85,98,6666
1.8964,0.0538,39.9300,85,98,6669
1.8915,0.0538,39.9600,85,98,6672
1.9404,0.0684,39.7700,85,98,6675
1.8964,0.0587,39.8900,85,98,6679
1.8866,0.0489,39.9600,85,98,6682
1.8915,0.0733,39.8900,85,98,6685
1.8817,0.0635,39.8900,85,98,6688
1.9306,0.0733,39.6700,85,98,6691
1.8964,0.0538,39.8600,85,98,6694
1.8671,0.0342,39.9300,85,98,6699
1.8915,0.0587,39.8900,85,98,6702
1.8719,0.0342,39.9300,85,98,6705
1.9062,0.0538,39.7300,85,98,6708
1.8671,0.0538,39.9600,85,98,6711
1.8671,0.0489,39.1900,85,98,6715
1.8866,0.0587,39.2800,85,98,6718
1.8719,0.0489,39.9300,85,98,6721
1.8964,0.0538,39.8300,85,98,6724
1.8671,0.0440,39.8600,85,98,6727
1.8622,0.0538,39.9300,85,98,6731
1.8866,0.0538,39.8600,85,98,6734
1.8622,0.0440,39.9300,85,98,6737
1.8817,0.0440,39.8000,85,98,6740
1.8622,0.0489,39.9300,85,98,6744
1.8768,0.0489,40.0600,85,98,6749
1.8915,0.0489,39.9600,85,98,6752
1.9257,0.0635,39.8300,85,98,6755
1.8964,0.0538,39.8600,85,98,6759
1.9110,0.0684,39.7700,85,98,6762
1.8964,0.0489,39.9300,85,98,6765
1.9110,0.0489,39.9300,85,98,6768
1.9550,0.0587,39.8000,85,98,6771
1.9453,0.0538,39.8600,85,98,6774
1.9306,0.0489,39.9300,85,98,6778
1.9159,0.0489,39.8900,85,98,6781
1.9257,0.0587,39.9300,85,98,6785
2.0137,0.0635,39.7300,85,98,6788
2.0039,0.0587,39.8900,85,98,6791
2.0235,0.0440,39.9300,85,98,6795
2.0479,0.0587,39.8900,85,98,6798
2.0332,0.0782,39.9300,85,98,6801
2.0674,0.0587,39.7000,85,98,6804
2.0186,0.0782,39.8900,85,98,6807
1.9990,0.0489,39.6700,85,98,6810
1.9990,0.0538,39.8000,85,98,6814
1.9550,0.0489,39.9600,85,98,6817
1.9550,0.0489,39.8000,85,98,6820
1.9110,0.0489,39.9600,85,98,6823
1.8964,0.0342,39.9300,85,98,6827
1.9062,0.0538,39.8600,85,98,6831
1.8622,0.0538,40.0300,85,98,6834
1.8671,0.0489,39.7300,85,98,6837
1.8328,0.0489,39.8000,85,98,6840
1.8426,0.0489,40.0000,85,98,6843
1.8817,0.0538,39.8300,85,98,6847
1.8768,0.0587,39.8900,85,98,6850
1.8768,0.0684,39.8900,85,98,6853
1.8524,0.0440,39.9600,85,98,6856
1.8377,0.0440,39.9300,85,98,6859
1.8817,0.0733,39.7300,85,98,6862
1.8328,0.0489,39.8600,85,98,6866
1.8182,0.0391,39.9300,85,98,6870
1.8231,0.0538,39.8900,85,98,6873
1.8133,0.0489,39.9300,85,98,6876
1.8573,0.0538,39.7000,85,98,6879
1.8182,0.0440,39.9600,85,98,6883
1.8084,0.0440,39.9600,85,98,6886
1.8377,0.0342,39.8000,85,98,6889
1.8377,0.0440,39.9300,85,98,6892
1.8426,0.0538,39.7300,85,98,6895
1.8133,0.0489,39.9600,85,98,6899
1.8280,0.0440,39.9600,85,98,6902
1.8426,0.0538,39.8300,85,98,6905
1.7986,0.0489,39.9600,85,98,6908
1.8133,0.0489,39.8300,85,98,6912
1.8133,0.0440,39.9300,85,98,6915
1.9159,0.0440,39.9600,85,98,6919
2.1408,0.0538,39.8300,85,98,6922
2.4047,0.0489,39.1900,85,98,6925
2.7615,0.0440,39.8300,85,98,6928
3.0841,0.0440,39.9600,85,98,6931
3.4018,0.0440,39.9600,85,98,6935
3.6901,0.0587,39.8000,85,98,6938
3.7243,0.0489,39.8900,85,98,6941
3.5924,0.0342,39.9300,85,98,6944
3.3431,0.0489,40.0600,85,98,6947
2.9765,0.0440,39.9600,85,98,6951
2.6833,0.0489,39.7000,85,98,6955
2.2972,0.0440,39.8300,85,98,6958
2.0479,0.0440,40.0300,85,98,6961
1.9013,0.0538,39.8600,85,98,6964
1.7644,0.0342,39.9300,85,98,6967
1.7253,0.0342,39.7300,85,98,6971
1.6471,0.0440,40.0300,85,98,6974
1.6276,0.0440,39.9600,85,98,6977
1.6373,0.0489,39.9300,85,98,6980
1.6080,0.0440,39.8600,85,98,6983
1.6178,0.0391,39.8300,85,98,6987
1.5640,0.0391,39.8900,85,98,6990
1.5298,0.0440,39.9600,85,98,6993
1.5494,0.0538,39.8600,85,98,6996
1.5494,0.0440,39.5100,85,98,7000
1.5934,0.0440,39.8300,85,98,7003
1.5982,0.0440,39.9600,85,98,7007
1.6129,0.0391,39.9300,85,98,7010
1.6471,0.0782,39.8900,85,98,7013
1.6325,0.0440,39.8900,85,98,7016
1.6373,0.0342,39.8600,85,98,7019
1.6520,0.0440,39.9300,85,98,7023
1.6618,0.0489,39.9300,85,98,7026
1.7204,0.0489,39.7000,85,98,7029
1.6960,0.0391,39.8300,85,98,7032
1.7058,0.0440,39.9600,85,98,7035
1.7449,0.0489,39.8900,85,98,7040
1.7498,0.0684,39.9600,85,98,7043
1.8133,0.0587,39.7300,85,98,7046
1.8035,0.0391,39.9300,85,98,7049
1.8084,0.0342,39.9600,85,98,7052
1.8280,0.0391,39.8600,85,98,7055
1.8084,0.0342,39.9300,85,98,7059
1.8377,0.0342,39.8000,85,98,7062
1.8133,0.0391,39.8900,85,98,7065
1.8280,0.0391,39.9300,85,98,7068
1.8377,0.0391,39.8600,85,98,7071
1.8231,0.0342,39.9300,85,98,7075
1.8280,0.0391,39.8000,85,98,7078
1.8377,0.0391,39.9300,85,98,7081
1.8231,0.0342,39.9600,85,98,7085
1.8817,0.0342,39.8600,85,98,7088
1.8817,0.0342,39.9300,85,98,7092
1.9013,0.0293,39.9300,85,98,7095
1.9013,0.0342,39.9600,85,98,7098
1.9110,0.0342,39.9300,85,98,7101
1.9844,0.0489,39.7700,85,98,7104
1.9697,0.0489,39.8300,85,98,7108
1.9599,0.0391,39.9300,85,98,7111
1.9697,0.0391,39.9300,85,98,7114
1.9550,0.0440,39.9600,85,98,7117
1.9990,0.0391,39.6700,85,98,7120
1.9599,0.0293,39.8600,85,98,7123
1.9599,0.0293,39.9300,85,98,7128
1.9844,0.0391,39.8900,85,98,7131
1.9892,0.0293,39.9300,85,98,7134
2.0381,0.0293,39.7000,85,98,7137
2.0283,0.0147,39.8600,85,98,7140
2.0235,0.0342,40.0000,85,98,7144
2.0626,0.0342,39.8300,85,98,7147
2.0723,0.0342,39.9300,85,98,7150
2.1212,0.0391,39.8600,85,98,7153
2.1065,0.0342,39.9300,85,98,7156
2.0968,0.0147,39.9600,85,98,7160
2.1114,0.0391,39.9300,85,98,7163
2.1017,0.0342,39.9300,85,98,7166
2.1310,0.0293,39.8300,85,98,7170
2.1114,0.0293,39.9600,85,98,7173
2.0821,0.0293,39.9300,85,98,7176
2.1065,0.0391,39.7700,85,98,7180
2.0821,0.0342,39.8600,85,98,7183
2.0870,0.0244,39.9300,85,98,7186
2.1163,0.0342,39.9300,85,98,7189
2.1310,0.0293,39.9300,85,98,7192
2.1896,0.0391,39.6700,85,98,7196
2.1114,0.0293,39.8600,85,98,7199
2.0528,0.0293,39.9300,85,98,7202
2.0088,0.0342,39.8600,85,98,7205
1.9306,0.0293,39.9300,85,98,7208
1.9159,0.0293,39.7300,85,98,7212
1.8622,0.0147,39.8600,85,98,7216
1.8426,0.0244,39.9300,85,98,7219
1.8671,0.0342,39.7300,85,98,7222
1.8475,0.0293,39.8300,85,98,7225
1.8524,0.0293,39.8600,85,98,7228
1.7889,0.0293,39.4800,85,98,7232
1.7595,0.0587,39.9600,85,98,7235
1.7595,0.0489,39.8900,85,98,7238
1.7546,0.0342,39.9300,85,98,7241
1.7791,0.0391,39.8000,85,98,7244
1.7693,0.0293,39.9300,85,98,7248
1.7840,0.0293,39.8900,85,98,7251
1.8377,0.0391,39.7700,85,98,7255
1.8280,0.0342,39.8900,85,98,7258
1.8035,0.0147,39.8300,85,98,7261
1.7693,0.0342,39.9600,85,98,7265
1.7546,0.0147,39.9300,85,98,7268
1.7986,0.0342,39.7300,85,98,7271
1.7840,0.0293,39.8300,85,98,7274
1.7986,0.0244,39.9600,85,98,7277
1.8231,0.0342,39.8900,85,98,7280
1.8084,0.0293,39.9600,85,98,7284
1.8426,0.0342,39.8300,85,98,7287
1.8182,0.0293,39.8300,85,98,7290
1.8133,0.0244,39.9300,85,98,7293
1.8475,0.0391,39.8300,85,98,7297
1.8231,0.0587,39.9300,85,98,7301
1.8524,0.0293,39.7700,85,98,7304
1.8182,0.0293,39.8900,85,98,7307
1.8426,0.0342,39.9300,85,98,7310
1.8231,0.0147,39.8300,85,98,7313
1.8133,0.0293,39.9300,85,98,7317
1.8426,0.0342,39.8600,85,98,7320
1.8231,0.0293,39.4800,85,98,7323
1.8084,0.0244,39.8900,85,98,7326
1.8133,0.0342,39.8000,85,98,7329
1.7693,0.0293,39.9300,85,98,7333
1.7693,0.0293,39.8000,85,98,7336
1.7644,0.0293,39.8000,85,98,7340
1.7986,0.0293,39.9600,85,98,7343
1.8866,0.0391,39.8000,85,98,7346
1.9208,0.0342,39.8000,85,98,7349
1.9404,0.0196,39.9600,85,98,7353
1.9501,0.0342,39.9300,85,98,7356
1.8573,0.0293,39.9300,85,98,7360
1.8768,0.0244,39.9600,85,98,7364
1.9599,0.0391,39.8000,85,98,7367
1.9746,0.0342,39.9600,85,98,7370
1.9648,0.0244,39.8900,85,98,7373
1.9453,0.0293,39.9300,85,98,7376
1.8964,0.0244,39.9300,85,98,7380
1.9062,0.0342,39.7000,85,98,7384
1.8231,0.0244,40.1300,85,98,7387
1.7840,0.0489,40.0300,85,98,7390
1.7840,0.0342,39.8900,85,98,7393
1.7791,0.0440,39.9600,85,98,7397
1.8377,0.0489,39.7000,85,98,7400
1.8280,0.0244,39.8300,85,98,7403
1.8328,0.0244,39.8300,85,98,7406
1.8719,0.0293,39.7700,85,98,7409
1.8915,0.0244,39.9300,85,98,7412
1.9208,0.0196,39.8000,85,98,7416
1.9062,0.0147,39.9300,85,98,7419
1.9159,0.0196,39.9300,85,98,7422
1.9208,0.0244,39.8600,85,98,7426
1.9355,0.0293,39.9300,85,98,7429
1.9355,0.0244,39.8600,85,98,7433
1.9404,0.0244,39.9300,85,98,7436
1.9697,0.0196,39.9600,85,98,7439
2.0479,0.0293,39.8000,85,98,7442
2.0332,0.0293,39.9300,85,98,7445
1.9844,0.0196,39.8600,85,98,7449
1.9062,0.0244,39.9600,85,98,7452
1.8524,0.0244,39.9600,85,98,7455
1.8964,0.0342,39.7700,85,98,7458
1.8524,0.0196,39.8000,85,98,7461
1.8133,0.0147,39.9600,85,98,7464
1.7742,0.0538,39.9300,85,98,7469
1.7498,0.0196,39.9300,85,98,7472
1.7693,0.0244,39.7000,85,98,7475
1.7986,0.0293,39.8600,85,98,7478
1.7791,0.0196,39.9300,85,98,7481
1.8133,0.0293,39.9600,85,98,7485
1.8133,0.0196,39.9600,85,98,7488
1.8622,0.0196,39.8000,85,98,7491
1.8573,0.0196,39.8600,85,98,7494
1.8866,0.0196,40.0600,85,98,7497
1.9404,0.0244,40.1000,85,98,7501
1.9550,0.0196,40.0000,85,98,7504
1.9795,0.0244,39.9300,85,98,7507
1.9355,0.0342,39.9300,85,98,7511
1.9208,0.0196,39.9300,85,98,7514
1.9355,0.0342,39.7700,85,98,7518
1.9013,0.0244,39.9600,85,98,7521
1.9355,0.0244,39.8900,85,98,7524
1.9306,0.0147,39.9300,85,98,7527
1.9013,0.0147,39.9600,85,98,7530
1.8866,0.0391,39.8300,85,98,7533
1.8573,0.0293,39.8600,85,98,7537
1.8622,0.0147,39.8900,85,98,7540
1.8817,0.0244,39.9300,85,98,7543
1.8622,0.0196,39.9600,85,98,7546
1.8768,0.0342,39.7000,85,98,7549
1.8133,0.0244,39.8600,85,98,7554
1.7986,0.0196,39.9600,85,98,7557
1.8328,0.0244,40.1300,85,98,7560
1.8426,0.0196,39.9300,85,98,7563
1.9208,0.0244,39.0900,85,98,7566
1.9208,0.0196,39.8600,85,98,7570
1.9306,0.0196,40.0300,85,98,7573
1.9550,0.0244,39.8300,85,98,7576
1.9355,0.0196,39.8900,85,98,7579
1.9746,0.0196,39.8000,85,98,7582
1.9648,0.0244,39.9300,85,98,7586
1.9746,0.0196,39.9600,85,98,7589
1.9990,0.0293,39.8300,85,98,7592
1.9550,0.0244,39.9600,85,98,7596
1.9550,0.0196,39.7700,85,98,7599
1.9159,0.0147,39.9300,85,98,7602
1.8915,0.0196,39.9600,85,98,7606
1.8866,0.0293,39.8600,85,98,7609
1.8231,0.0244,39.8600,85,98,7612
1.7840,0.0147,39.8900,85,98,7615
1.7546,0.0196,39.9300,85,98,7618
1.7400,0.0196,39.9300,85,98,7622
1.7889,0.0342,39.7300,85,98,7625
1.7546,0.0244,39.7300,85,98,7628
1.7595,0.0147,40.0300,85,98,7631
1.7889,0.0196,39.8900,85,98,7634
1.7937,0.0196,40.0000,85,98,7639
1.8426,0.0293,39.7000,85,98,7642
1.8084,0.0147,39.8600,85,98,7645
1.7937,0.0196,39.9300,85,98,7648
1.8280,0.0244,39.8600,85,98,7651
1.7791,0.0196,39.9300,85,98,7655
1.7889,0.0244,39.7700,85,98,7658
1.7498,0.0147,39.9300,85,98,7661
1.7546,0.0147,39.9600,85,98,7664
1.7840,0.0244,39.9600,85,98,7667
1.7742,0.0147,39.9600,85,98,7670
1.8084,0.0196,39.8300,85,98,7674
1.7840,0.0147,40.0300,85,98,7677
1.7644,0.0147,39.9300,85,98,7681
1.7498,0.0342,39.8600,85,98,7684
1.6960,0.0147,40.0300,85,98,7687
1.6960,0.0147,39.8300,85,98,7691
1.7400,0.0147,40.1300,85,98,7694
1.9159,0.0147,39.8600,85,98,7697
2.2287,0.0293,39.7700,85,98,7700
2.5318,0.0196,39.8600,85,98,7703
2.8788,0.0098,39.8000,85,98,7707
3.2209,0.0196,39.8900,85,98,7710
3.4897,0.0147,40.1300,85,98,7713
3.7439,0.0244,39.6400,85,98,7716
3.6364,0.0196,39.8600,85,98,7719
3.3822,0.0147,39.9600,85,98,7723
3.0743,0.0196,39.8900,85,98,7727
2.6931,0.0196,39.8900,85,98,7730
2.4291,0.0244,39.8300,85,98,7733
2.1212,0.0147,39.9300,85,98,7736
1.9208,0.0147,39.9300,85,98,7739
1.8231,0.0147,39.8600,85,98,7743
1.6569,0.0147,39.9300,85,98,7746
1.6178,0.0098,39.8000,85,98,7749
1.5738,0.0147,39.8900,85,98,7752
1.5494,0.0147,39.9300,85,98,7755
1.5640,0.0147,39.9600,85,98,7759
1.5396,0.0147,39.9300,85,98,7762
1.5543,0.0147,39.7700,85,98,7766
1.5396,0.0196,39.9600,85,98,7769
1.5396,0.0147,40.0600,85,98,7772
1.5738,0.0244,39.5400,85,98,7776
1.5689,0.0147,39.8900,85,98,7779
1.5787,0.0098,40.0600,85,98,7782
1.5787,0.0147,39.9300,85,98,7785
1.5885,0.0147,39.8600,85,98,7788
1.6471,0.0293,39.7300,85,98,7791
1.6276,0.0196,39.8300,85,98,7795
1.6325,0.0098,39.9600,85,98,7798
1.6520,0.0244,39.9300,85,98,7801
1.6569,0.0196,39.9300,85,98,7804
1.7058,0.0196,39.7000,85,98,7808
1.6764,0.0049,39.8900,85,98,7812
1.6911,0.0049,39.9300,85,98,7815
1.7155,0.0147,39.8900,85,98,7818
1.7204,0.0147,39.9600,85,98,7821
1.7644,0.0147,39.7700,85,98,7824
1.7498,0.0147,39.8900,85,98,7828
1.7400,0.0147,39.9600,85,98,7831
1.7498,0.0196,39.8300,85,98,7834
1.7351,0.0196,39.9300,85,98,7837
1.7595,0.0098,39.8300,85,98,7840
1.7449,0.0147,39.9300,85,98,7843
1.7644,0.0293,39.9300,85,98,7847
1.8035,0.0293,39.8900,85,98,7851
1.7986,0.0098,39.9300,85,98,7854
1.8084,0.0147,39.8000,85,98,7857
1.7840,0.0098,39.9300,85,98,7860
1.7791,0.0147,39.9300,85,98,7864
1.8182,0.0196,39.7700,85,98,7867
1.8377,0.0196,39.8600,85,98,7870
1.7986,0.0098,39.8600,85,98,7873
1.8524,0.0147,39.9300,85,98,7876
1.8280,0.0196,39.9600,85,98,7880
1.8964,0.0293,39.7000,85,98,7883
1.8426,0.0147,39.8300,85,98,7886
1.8475,0.0147,39.9300,85,98,7889
1.8671,0.0196,39.9600,85,98,7892
1.8671,0.0147,39.9300,85,98,7897
1.9159,0.0342,39.7700,85,98,7900
1.8964,0.0489,39.8900,85,98,7903
1.8915,0.0098,39.9300,85,98,7906
1.9453,0.0244,39.8300,85,98,7909
1.9159,0.0147,39.9300,85,98,7912
1.9599,0.0147,39.8300,85,98,7916
1.9404,0.0147,39.9300,85,98,7919
1.9501,0.0147,39.9600,85,98,7922
1.9648,0.0196,39.8600,85,98,7925
1.9697,0.0196,39.9300,85,98,7928
2.0039,0.0244,39.8300,85,98,7932
1.9892,0.0196,39.9600,85,98,7936
1.9990,0.0147,40.0300,85,98,7939
2.0430,0.0244,39.8000,85,98,7942
2.0235,0.0244,39.9300,85,98,7945
2.0283,0.0147,39.8300,85,98,7949
2.0186,0.0196,39.9600,85,98,7952
2.0235,0.0147,39.9300,85,98,7955
2.0919,0.0342,39.7700,85,98,7958
2.0528,0.0244,39.8900,85,98,7961
2.0332,0.0098,39.9300,85,98,7964
2.0332,0.0244,39.9300,85,98,7968
1.9648,0.0293,39.9600,85,98,7972
1.9062,0.0196,39.9300,85,98,7975
1.9501,0.0342,39.7700,85,98,7980
1.8866,0.0196,39.8300,85,98,7983
1.8426,0.0098,39.9300,85,98,7986
1.8377,0.0244,39.8900,85,98,7989
1.8231,0.0196,39.9300,85,98,7992
1.8231,0.0244,39.7000,85,98,7996
1.7595,0.0147,39.9600,85,98,7999
1.7449,0.0147,39.9600,85,98,8002
1.7498,0.0244,39.8300,85,98,8005
1.7155,0.0196,39.9300,85,98,8008
1.7351,0.0293,39.7300,85,98,8012
1.7107,0.0098,39.8600,85,98,8015
1.7009,0.0244,39.9300,85,98,8018
1.7302,0.0196,39.8300,85,98,8022
1.7009,0.0196,39.9300,85,98,8025
1.7253,0.0293,39.8300,85,98,8028
1.6960,0.0244,39.9300,85,98,8032
1.7155,0.0196,39.9600,85,98,8035
1.7107,0.0244,39.7700,85,98,8038
1.7009,0.0244,39.9300,85,98,8041
1.7107,0.0196,39.8300,85,98,8044
1.6960,0.0147,39.9600,85,98,8048
1.6960,0.0196,39.9300,85,98,8051
1.7400,0.0244,39.7700,85,98,8054
1.7253,0.0244,39.9300,85,98,8057
1.7107,0.0147,39.8900,85,98,8060
1.7204,0.0244,39.9600,85,98,8065
1.7058,0.0147,39.9600,85,98,8068
1.7546,0.0293,39.7000,85,98,8071
1.7204,0.0196,39.8900,85,98,8074
1.7253,0.0147,39.9300,85,98,8077
1.7498,0.0244,39.8900,85,98,8080
1.7449,0.0196,39.8900,85,98,8084
1.7840,0.0196,39.7700,85,98,8087
1.7546,0.0244,39.8600,85,98,8090
1.7400,0.0196,39.9300,85,98,8093
1.7546,0.0293,39.8000,85,98,8096
1.7449,0.0147,39.9300,85,98,8100
1.7693,0.0244,39.8000,85,98,8103
1.7498,0.0098,39.9300,85,98,8107
1.7498,0.0196,39.9600,85,98,8110
1.7595,0.0244,39.8600,85,98,8113
1.7546,0.0196,39.9600,85,98,8117
1.7791,0.0244,39.8000,85,98,8120
1.7644,0.0196,39.9300,85,98,8123
1.7693,0.0147,39.9300,85,98,8126
1.8084,0.0244,39.7700,85,98,8129
1.7937,0.0244,39.8900,85,98,8133
1.7937,0.0147,39.8900,85,98,8136
1.7937,0.0196,40.0000,85,98,8139
1.7937,0.0196,39.9600,85,98,8142
1.8426,0.0342,39.7300,85,98,8145
1.8035,0.0196,40.0600,85,98,8148
1.7840,0.0147,39.9600,85,98,8153
1.7889,0.0244,39.9600,85,98,8156
1.7840,0.0196,39.9300,85,98,8159
1.8328,0.0244,39.6700,85,98,8162
1.8133,0.0244,39.8900,85,98,8165
1.7986,0.0147,39.8600,85,98,8169
1.8182,0.0342,39.8300,85,98,8172
1.8182,0.0147,39.9600,85,98,8175
1.8377,0.0147,39.7700,85,98,8178
1.8035,0.0196,39.9300,85,98,8181
1.8035,0.0147,39.9600,85,98,8185
1.8035,0.0196,39.8300,85,98,8188
1.7840,0.0196,39.9300,85,98,8192
1.8133,0.0244,39.8300,85,98,8195
1.7840,0.0196,39.9600,85,98,8198
1.7840,0.0196,40.1300,85,98,8202
1.8133,0.0244,40.0600,85,98,8205
1.7889,0.0538,39.9300,85,98,8208
1.7937,0.0293,39.8900,85,98,8211
1.7791,0.0489,39.9300,85,98,8214
1.7791,0.0244,39.8900,85,98,8217
1.8182,0.0391,39.8000,85,98,8221
1.7986,0.0244,39.8900,85,98,8224
1.7791,0.0293,39.8900,85,98,8227
1.7742,0.0147,39.9300,85,98,8230
1.7986,0.0196,39.9300,85,98,8233
1.8182,0.0342,39.6700,85,98,8238
1.7840,0.0244,39.8900,85,98,8241
1.7693,0.0147,39.9600,85,98,8244
1.7937,0.0244,39.9600,85,98,8247
1.7742,0.0196,39.9600,85,98,8250
1.8182,0.0244,39.7300,85,98,8254
1.7840,0.0244,39.1600,85,98,8257
1.7791,0.0147,40.1300,85,98,8260
1.7986,0.0244,39.9600,85,98,8263
1.7791,0.0196,39.9600,85,98,8266
1.7937,0.0196,39.6400,85,98,8269
1.7742,0.0049,39.9300,85,98,8273
1.7742,0.0147,39.8900,85,98,8276
1.8035,0.0293,39.8300,85,98,8280
1.7889,0.0147,39.9300,85,98,8283
1.8035,0.0293,39.8300,85,98,8286
1.8133,0.0196,39.9300,85,98,8290
1.7889,0.0147,39.9300,85,98,8293
1.8280,0.0244,39.8300,85,98,8296
1.8182,0.0244,39.8900,85,98,8299
1.8280,0.0147,39.8600,85,98,8302
1.8231,0.0196,39.9300,85,98,8306
1.8182,0.0196,39.8900,85,98,8309
1.8671,0.0733,39.7700,85,98,8312
1.8377,0.0196,39.8900,85,98,8315
1.8475,0.0147,39.9300,85,98,8318
1.8817,0.0196,39.9300,85,98,8323
1.8817,0.0147,39.9600,85,98,8326
1.9453,0.0293,39.6000,85,98,8329
1.8915,0.0196,39.9600,85,98,8332
1.8915,0.0147,39.9300,85,98,8335
1.9208,0.0244,39.9600,85,98,8339
1.9013,0.0147,39.9300,85,98,8342
1.9257,0.0196,39.7300,85,98,8345
1.8671,0.0196,40.0300,85,98,8348
1.8377,0.0147,39.9300,85,98,8351
1.8280,0.0293,39.8600,85,98,8354
1.7889,0.0293,39.9300,85,98,8358
1.7937,0.0147,39.8300,85,98,8361
1.7595,0.0293,39.9300,85,98,8365
1.7449,0.0244,39.9600,85,98,8368
1.7546,0.0244,39.8600,85,98,8371
1.7351,0.0293,39.9300,85,98,8375
1.7449,0.0196,39.8000,85,98,8378
1.7204,0.0147,39.9300,85,98,8381
1.7155,0.0196,39.9300,85,98,8384
1.7351,0.0293,39.8300,85,98,8387
1.7107,0.0244,39.9300,85,98,8391
1.7107,0.0147,39.9600,85,98,8394
1.7107,0.0244,40.1300,85,98,8397
1.7107,0.0196,39.9600,85,98,8400
1.7644,0.0342,39.5100,85,98,8403
1.7302,0.0196,39.8300,85,98,8408
1.7155,0.0196,39.9300,85,98,8411
1.7302,0.0293,39.8900,85,98,8414
1.7253,0.0244,39.9300,85,98,8417
1.7693,0.0293,39.7300,85,98,8420
1.7351,0.0147,39.8900,85,98,8424
1.7351,0.0196,39.9600,85,98,8427
1.7351,0.0244,39.9600,85,98,8430
1.6911,0.0440,39.9300,85,98,8433
1.6764,0.0440,39.7000,85,98,8436
1.6276,0.0196,39.8900,85,98,8439
1.6422,0.0196,40.0600,85,98,8443
1.7742,0.0293,39.8300,85,98,8446
1.9697,0.0293,39.9300,85,98,8450
2.2972,0.0293,39.8300,85,98,8453
2.6149,0.0147,39.9300,85,98,8456
2.9619,0.0196,39.9300,85,98,8460
3.2942,0.0244,39.9300,85,98,8463
3.4897,0.0244,39.8900,85,98,8466
3.5973,0.0196,39.8300,85,98,8469
3.4604,0.0244,39.9300,85,98,8472
3.1965,0.0147,39.9600,85,98,8476
2.9081,0.0147,39.7000,85,98,8479
2.5171,0.0293,39.8600,85,98,8482
2.1750,0.0196,39.8900,85,98,8485
1.9208,0.0244,39.9600,85,98,8488
1.7449,0.0196,39.9600,85,98,8492
1.6716,0.0342,39.7000,85,98,8496
1.5640,0.0196,39.8600,85,98,8499
1.5054,0.0196,39.9600,85,98,8502
1.4809,0.0244,39.8900,85,98,8505
1.4565,0.0196,39.9600,85,98,8508
1.4761,0.0244,39.7000,85,98,8512
1.4516,0.0196,39.8600,85,98,8515
1.4418,0.0196,39.8600,85,98,8518
1.4663,0.0440,39.8300,85,98,8521
1.4614,0.0147,39.9300,85,98,8524
1.4809,0.0293,39.7700,85,98,8528
1.4614,0.0293,39.9300,85,98,8531
1.4809,0.0196,39.9600,85,98,8535
1.4858,0.0244,39.8600,85,98,8538
1.4858,0.0196,39.9300,85,98,8541
1.5152,0.0196,39.8000,85,98,8545
1.5054,0.0244,39.9300,85,98,8548
1.5200,0.0147,39.9600,85,98,8551
1.5445,0.0147,39.7700,85,98,8554
1.5396,0.0244,39.9300,85,98,8557
1.5543,0.0147,39.8600,85,98,8560
1.5640,0.0244,39.9300,85,98,8564
1.5787,0.0196,39.9300,85,98,8567
1.6373,0.0342,39.7300,85,98,8570
1.6080,0.0244,39.8300,85,98,8573
1.6080,0.0147,39.9300,85,98,8577
1.6276,0.0244,39.9600,85,98,8581
1.6520,0.0147,39.9300,85,98,8585
1.6764,0.0196,39.9300,85,98,8588
1.7449,0.0342,39.7700,85,98,8592
1.7107,0.0244,39.8300,85,98,8595
1.7009,0.0147,40.0000,85,98,8598
1.7155,0.0244,39.8900,85,98,8601
1.7107,0.0196,39.9600,85,98,8604
1.7693,0.0293,39.7000,85,98,8608
1.7302,0.0196,39.8300,85,98,8611
1.7400,0.0196,39.9300,85,98,8614
1.7595,0.0293,39.8600,85,98,8617
1.7498,0.0244,39.9600,85,98,8621
1.7889,0.0244,39.7700,85,98,8624
1.7742,0.0587,39.8900,85,98,8628
1.7791,0.0196,39.9300,85,98,8631
1.8035,0.0244,39.8300,85,98,8634
1.8084,0.0244,39.9600,85,98,8637
1.8719,0.0147,39.8300,85,98,8640
1.8377,0.0293,39.9300,85,98,8644
1.8280,0.0244,39.9300,85,98,8647
1.8573,0.0293,39.8900,85,98,8650
1.8524,0.0244,39.9300,85,98,8653
1.8719,0.0244,39.8600,85,98,8656
1.8573,0.0244,39.9300,85,98,8660
1.8671,0.0244,40.0000,85,98,8664
1.9159,0.0293,39.0600,85,98,8667
1.9110,0.0293,39.8600,85,98,8670
1.9013,0.0147,39.8300,85,98,8673
1.9110,0.0342,39.9300,85,98,8677
1.9062,0.0244,39.9600,85,98,8680
1.9648,0.0342,39.7300,85,98,8683
1.9257,0.0147,39.8300,85,98,8686
1.9257,0.0293,39.9600,85,98,8689
1.9404,0.0244,39.8900,85,98,8692
1.9257,0.0147,39.9600,85,98,8696
1.9648,0.0244,39.7000,85,98,8699
1.9306,0.0244,39.8600,85,98,8702
1.9110,0.0196,39.9300,85,98,8706
1.9257,0.0293,39.8300,85,98,8709
1.8915,0.0244,39.9600,85,98,8713
1.8964,0.0196,39.8000,85,98,8716
1.8475,0.0196,39.9300,85,98,8719
1.8231,0.0244,39.8900,85,98,8722
1.8084,0.0244,39.9300,85,98,8725
1.7791,0.0244,39.9300,85,98,8729
1.7742,0.0244,39.8900,85,98,8732
1.7302,0.0391,39.9300,85,98,8735
1.7107,0.0244,39.9300,85,98,8738
1.7204,0.0342,39.8300,85,98,8741
1.6960,0.0244,39.9300,85,98,8745
1.6764,0.0196,39.8600,85,98,8749
1.6520,0.0196,39.9600,85,98,8752
1.6373,0.0147,39.9600,85,98,8755
1.6618,0.0342,39.8000,85,98,8758
1.6276,0.0147,39.8300,85,98,8761
1.6080,0.0196,39.9300,85,98,8765
1.6276,0.0293,39.9300,85,98,8768
1.6276,0.0244,39.9600,85,98,8771
1.6764,0.0293,39.7000,85,98,8774
1.6471,0.0244,39.8000,85,98,8777
1.6276,0.0196,39.9300,85,98,8781
1.6520,0.0342,39.8600,85,98,8784
1.6373,0.0244,40.0000,85,98,8787
1.6813,0.0244,38.9300,85,98,8791
1.6618,0.0196,39.8900,85,98,8794
1.6569,0.0293,39.9600,85,98,8798
1.6569,0.0293,39.8300,85,98,8801
1.6471,0.0293,39.9300,85,98,8804
1.6813,0.0196,39.8600,85,98,8807
1.6667,0.0196,39.9600,85,98,8810
1.6911,0.0196,39.9300,85,98,8814
1.7204,0.0293,39.8000,85,98,8817
1.6911,0.0244,40.0000,85,98,8820
1.7009,0.0196,39.8000,85,98,8823
1.6862,0.0244,39.9300,85,98,8826
1.7155,0.0196,39.9300,85,98,8829
1.7693,0.0244,39.8000,85,98,8834
1.7546,0.0244,39.9600,85,98,8837
1.7253,0.0147,39.8900,85,98,8840
1.7253,0.0244,39.9300,85,98,8843
1.7155,0.0196,40.1600,85,98,8846
1.7937,0.0342,39.7300,85,98,8850
1.7693,0.0538,39.8600,85,98,8853
1.7498,0.0147,39.9600,85,98,8856
1.7693,0.0244,39.8900,85,98,8859
1.7351,0.0196,39.9300,85,98,8862
1.7791,0.0244,39.7000,85,98,8866
1.7595,0.0293,39.9300,85,98,8869
1.7693,0.0196,39.9300,85,98,8872
1.7840,0.0293,39.8600,85,98,8876
1.7742,0.0196,39.9300,85,98,8879
1.7693,0.0196,39.8000,85,98,8882
1.7351,0.0244,39.9300,85,98,8886
1.7595,0.0196,40.0000,85,98,8889
1.7937,0.0293,39.8300,85,98,8892
1.7742,0.0196,39.8000,85,98,8895
1.7840,0.0244,39.8000,85,98,8898
1.7449,0.0244,39.9300,85,98,8902
1.7449,0.0244,39.9600,85,98,8905
1.7791,0.0293,39.8300,85,98,8908
1.7742,0.0244,39.8000,85,98,8911
1.7742,0.0147,39.8600,85,98,8914
1.7595,0.0244,39.8000,85,98,8919
1.7449,0.0244,40.1600,85,98,8922
1.7889,0.0342,39.7300,85,98,8925
1.7644,0.0342,39.8000,85,98,8928
1.7595,0.0147,39.8600,85,98,8931
1.7693,0.0196,39.8900,85,98,8935
1.7498,0.0196,39.9300,85,98,8938
1.7791,0.0293,39.6700,85,98,8941
1.7400,0.0196,39.9300,85,98,8944
1.7449,0.0196,39.9600,85,98,8947
1.7742,0.0293,39.9600,85,98,8950
1.7546,0.0196,40.0300,85,98,8954
1.7840,0.0196,39.7300,85,98,8957
1.7400,0.0244,40.0000,85,98,8961
1.7400,0.0196,40.0000,85,98,8964
1.7742,0.0293,39.8600,85,98,8967
1.7644,0.0244,40.0000,85,98,8971
1.7937,0.0196,39.8300,85,98,8974
1.7546,0.0147,39.8600,85,98,8977
1.7400,0.0244,39.8600,85,98,8980
1.7546,0.0342,39.8000,85,98,8983
1.7449,0.0244,40.0000,85,98,8987
1.7644,0.0196,39.8300,85,98,8990
1.7546,0.0244,40.0300,85,98,8993
1.7498,0.0244,39.9300,85,98,8996
1.7791,0.0391,39.8900,85,98,8999
1.7546,0.0293,39.9300,85,98,9003
1.7546,0.0196,39.8900,85,98,9007
1.7791,0.0244,39.8900,85,98,9010
1.8035,0.0196,39.9300,85,98,9013
1.8377,0.0391,39.7000,85,98,9016
1.7889,0.0196,39.8300,85,98,9019
1.7693,0.0196,39.9300,85,98,9023
1.7986,0.0293,39.9600,85,98,9026
1.8133,0.0196,39.9600,85,98,9029
1.8915,0.0244,39.7300,85,98,9032
1.8622,0.0147,40.0300,85,98,9035
1.8671,0.0196,39.9600,85,98,9039
1.8817,0.0293,39.8600,85,98,9042
1.8719,0.0244,39.9600,85,98,9046
1.9062,0.0293,39.7300,85,98,9049
1.8817,0.0147,39.8600,85,98,9052
1.8671,0.0196,39.9300,85,98,9056
1.8426,0.0244,39.8300,85,98,9059
1.8035,0.0244,39.9300,85,98,9062
1.8035,0.0293,39.8300,85,98,9065
1.7742,0.0244,39.9300,85,98,9068
1.7693,0.0196,40.1600,85,98,9072
1.7791,0.0244,40.0600,85,98,9075
1.7400,0.0244,39.9300,85,98,9078
1.7302,0.0196,39.8600,85,98,9081
1.7058,0.0244,39.9300,85,98,9084
1.7058,0.0196,40.0300,85,98,9088
1.7546,0.0293,39.7300,85,98,9092
1.7253,0.0342,39.8600,85,98,9095
1.6960,0.0196,39.8900,85,98,9098
1.6911,0.0147,39.9600,85,98,9101
1.6764,0.0244,39.9300,85,98,9104
1.7595,0.0147,39.7000,85,98,9108
1.7058,0.0147,39.8600,85,98,9111
1.7155,0.0196,39.9600,85,98,9114
1.7155,0.0244,39.8600,85,98,9117
1.6911,0.0196,40.1300,85,98,9120
1.7204,0.0244,39.6400,85,98,9124
1.7058,0.0244,39.8000,85,98,9127
1.7058,0.0196,40.0300,85,98,9131
1.7302,0.0244,39.7700,85,98,9134
1.7058,0.0196,39.9600,85,98,9137
1.7058,0.0196,40.2000,85,98,9141
1.6520,0.0196,39.8900,85,98,9144
1.6178,0.0293,39.9300,85,98,9147
1.6129,0.0244,39.8900,85,98,9150
1.6276,0.0147,39.8900,85,98,9153
1.7449,0.0538,39.8000,85,98,9156
1.9159,0.0147,39.9300,85,98,9160
2.1994,0.0147,39.9300,85,98,9163
2.5953,0.0342,39.7700,85,98,9166
2.9228,0.0293,39.8900,85,98,9169
3.2209,0.0196,39.8600,85,98,9172
3.4066,0.0244,39.9300,85,98,9177
3.4555,0.0147,39.9300,85,98,9180
3.4360,0.0391,39.8000,85,98,9183
3.1183,0.0244,39.8000,85,98,9186
2.7810,0.0196,39.9600,85,98,9189
2.4731,0.0293,39.9300,85,98,9193
1.5445,0.0293,39.9300,85,98,9197
1.5103,0.0147,39.9300,85,98,9200
1.5200,0.0440,39.7700,85,98,9204
1.4663,0.0244,39.8000,85,98,9207
1.4321,0.0196,39.9300,85,98,9210
1.4370,0.0293,39.9300,85,98,9213
1.4223,0.0244,39.9300,85,98,9217
1.4858,0.0244,39.7700,85,98,9220
1.4467,0.0196,39.8300,85,98,9224
1.4418,0.0196,39.8900,85,98,9227
1.4516,0.0342,39.8300,85,98,9230
1.4467,0.0342,39.9300,85,98,9233
1.4907,0.0489,39.8300,85,98,9236
1.4907,0.0196,39.8600,85,98,9240
1.5005,0.0293,39.9300,85,98,9243
1.5200,0.0147,39.8000,85,98,9246
1.5103,0.0293,39.9300,85,98,9249
1.5396,0.0635,39.8300,85,98,9252
1.5347,0.0293,39.9300,85,98,9256
1.5591,0.0147,39.9600,85,98,9260
1.5738,0.0293,39.8900,85,98,9263
1.5689,0.0244,39.9300,85,98,9266
1.5836,0.0147,39.8300,85,98,9269
1.5738,0.0293,39.9600,85,98,9273
1.5934,0.0244,40.0000,85,98,9276
1.6471,0.0293,39.7700,85,98,9279
1.6422,0.0293,39.8600,85,98,9282
1.6227,0.0147,40.3300,85,98,9285
1.6227,0.0293,39.8300,85,98,9288
1.6178,0.0244,39.9600,85,98,9292
1.6813,0.0342,39.6700,85,98,9295
1.6618,0.0196,39.8300,85,98,9298
1.6911,0.0196,39.9300,85,98,9302
1.6813,0.0244,39.8900,85,98,9305
1.6716,0.0244,39.9600,85,98,9309
1.7155,0.0391,39.7700,85,98,9312
1.7058,0.0293,39.8600,85,98,9315
1.7155,0.0244,39.9300,85,98,9318
1.7449,0.0293,39.7700,85,98,9321
1.7253,0.0244,40.0000,85,98,9325
1.7449,0.0244,39.8000,85,98,9328
1.7204,0.0244,39.8900,85,98,9331
1.7351,0.0244,39.9300,85,98,9334
1.7644,0.0293,39.8000,85,98,9337
1.7693,0.0244,39.8300,85,98,9341
1.7937,0.0244,39.7000,85,98,9345
1.7693,0.0342,39.9300,85,98,9348
1.7791,0.0244,39.9300,85,98,9351
1.8182,0.0147,39.8000,85,98,9354
1.8328,0.0293,39.8900,85,98,9357
1.8426,0.0147,39.8600,85,98,9361
1.8377,0.0244,39.9300,85,98,9364
1.8328,0.0147,39.9600,85,98,9367
1.8866,0.0342,39.7700,85,98,9370
1.8719,0.0342,39.8600,85,98,9373
1.8768,0.0196,39.6700,85,98,9377
1.9013,0.0244,39.8300,85,98,9380
1.8964,0.0244,39.9300,85,98,9383
1.9453,0.0342,39.6400,85,98,9387
1.9062,0.0440,39.8300,85,98,9390
1.9013,0.0244,39.9300,85,98,9394
1.9355,0.0342,39.8600,85,98,9397
1.9404,0.0244,39.9300,85,98,9400
1.9697,0.0244,39.7700,85,98,9403
1.9257,0.0244,39.8600,85,98,9406
1.9453,0.0244,39.9300,85,98,9410
1.9306,0.0293,39.8300,85,98,9413
1.9208,0.0244,39.9300,85,98,9416
1.9453,0.0244,39.8300,85,98,9419
1.8964,0.0244,39.7000,85,98,9422
1.8671,0.0244,39.9600,85,98,9425
1.8622,0.0342,39.8000,85,98,9430
1.8182,0.0293,39.8300,85,98,9433
1.8182,0.0244,39.9300,85,98,9436
1.7889,0.0391,39.9300,85,98,9439
1.7595,0.0244,39.9600,85,98,9442
1.7595,0.0684,39.8000,85,98,9446
1.7155,0.0342,39.8600,85,98,9449
1.6813,0.0244,39.8900,85,98,9452
1.6716,0.0293,39.8000,85,98,9455
1.6569,0.0293,39.9300,85,98,9458
1.6862,0.0391,39.7000,85,98,9462
1.6373,0.0196,39.8000,85,98,9465
1.5982,0.0244,40.0300,85,98,9468
1.5982,0.0342,39.9300,85,98,9472
1.5836,0.0293,39.9300,85,98,9475
1.6276,0.0244,39.7300,85,98,9478
1.5982,0.0244,39.9300,85,98,9482
1.5836,0.0293,39.9300,85,98,9485
1.5885,0.0342,39.8000,85,98,9488
1.6080,0.0293,39.9300,85,98,9491
1.5982,0.0342,39.8000,85,98,9494
1.6031,0.0244,39.9300,85,98,9498
1.6031,0.0196,39.9300,85,98,9501
1.6373,0.0342,39.8000,85,98,9504
1.6080,0.0293,39.9300,85,98,9507
1.6227,0.0147,39.8300,85,98,9510
1.6080,0.0293,39.9300,85,98,9515
1.6227,0.0293,39.9300,85,98,9518
1.6618,0.0342,39.8300,85,98,9521
1.6471,0.0293,39.8600,85,98,9524
1.6373,0.0244,39.0600,85,98,9527
1.6276,0.0293,39.9300,85,98,9531
1.6373,0.0342,39.9300,85,98,9534
1.6960,0.0489,39.7700,85,98,9537
1.6813,0.0244,39.8600,85,98,9540
1.6764,0.0196,39.8900,85,98,9543
1.6716,0.0293,39.8900,85,98,9546
1.6618,0.0244,39.9300,85,98,9550
1.7155,0.0342,39.6400,85,98,9553
1.6911,0.0244,39.8600,85,98,9556
1.6960,0.0244,39.9300,85,98,9560
1.7204,0.0342,39.8600,85,98,9563
1.6960,0.0293,39.9600,85,98,9567
1.7155,0.0293,39.8900,85,98,9570
1.6862,0.0293,39.8900,85,98,9573
1.6960,0.0196,39.9300,85,98,9576
1.7253,0.0440,39.8300,85,98,9579
1.7204,0.0293,39.9300,85,98,9583
1.7253,0.0244,39.8000,85,98,9586
1.7058,0.0244,39.8900,85,98,9589
1.7204,0.0244,39.9300,85,98,9592
1.7498,0.0342,39.8600,85,98,9595
1.7400,0.0293,39.9300,85,98,9600
1.7546,0.0293,39.8300,85,98,9603
1.7302,0.0293,39.9600,85,98,9606
1.7302,0.0293,40.1300,85,98,9609
1.7644,0.0391,39.8000,85,98,9612
1.7546,0.0342,39.9600,85,98,9615
1.7546,0.0244,39.8600,85,98,9619
1.7546,0.0342,40.1300,85,98,9622
1.7498,0.0293,39.8000,85,98,9625
1.8035,0.0440,39.8000,85,98,9628
1.7742,0.0293,39.7700,85,98,9631
1.7693,0.0244,39.5700,85,98,9635
1.7937,0.0342,39.8900,85,98,9638
1.7840,0.0293,39.1200,85,98,9641
1.8328,0.0342,39.7700,85,98,9645
1.7937,0.0293,39.8900,85,98,9648
1.7937,0.0293,39.9300,85,98,9652
1.8231,0.0684,39.8600,85,98,9655
1.8133,0.0244,39.9300,85,98,9658
1.8524,0.0293,39.7700,85,98,9661
1.8377,0.0244,39.8900,85,98,9664
1.8622,0.0293,39.9600,85,98,9668
1.8817,0.0293,39.9600,85,98,9671
1.8866,0.0293,39.9600,85,98,9674
1.9159,0.0342,39.8300,85,98,9677
1.8915,0.0293,39.9600,85,98,9680
1.8915,0.0293,40.0300,85,98,9683
1.9013,0.0342,39.9300,85,98,9688
1.8719,0.0342,40.1000,85,98,9691
1.8622,0.0293,40.1000,85,98,9694
1.8182,0.0342,39.9300,85,98,9697
1.7889,0.0244,39.9300,85,98,9700
1.8084,0.0342,39.8000,85,98,9704
1.7840,0.0440,39.8600,85,98,9707
1.7351,0.0587,39.8900,85,98,9710
1.7400,0.0293,39.9300,85,98,9713
1.7155,0.0293,39.9300,85,98,9716
1.7498,0.0440,39.7000,85,98,9720
1.6960,0.0293,39.8600,85,98,9723
1.6813,0.0293,39.9300,85,98,9726
1.6862,0.0391,39.8600,85,98,9730
1.6716,0.0293,39.9300,85,98,9733
1.7058,0.0342,39.7700,85,98,9737
1.6862,0.0293,39.8300,85,98,9740
1.6813,0.0293,39.9600,85,98,9743
1.6960,0.0342,39.7700,85,98,9746
1.6813,0.0293,40.0000,85,98,9749
1.7107,0.0293,39.8300,85,98,9752
1.6862,0.0293,39.8900,85,98,9756
1.6911,0.0342,39.9300,85,98,9759
1.7058,0.0391,39.8900,85,98,9762
1.6960,0.0391,39.9300,85,98,9765
1.7107,0.0293,39.8000,85,98,9768
1.6911,0.0293,39.9600,85,98,9773
1.6862,0.0293,39.9300,85,98,9776
1.6862,0.0391,39.7700,85,98,9779
1.6227,0.0342,39.8900,85,98,9782
1.5738,0.0147,39.8600,85,98,9785
1.5738,0.0342,39.9300,85,98,9789
1.6325,0.0244,39.9300,85,98,9792
1.8475,0.0489,39.7000,85,98,9795
2.0626,0.0293,39.8300,85,98,9798
2.3509,0.0244,39.9300,85,98,9801
2.6979,0.0342,39.9300,84,98,9804
3.1232,0.0587,39.9300,84,98,9809
2.8201,0.0293,39.9300,84,98,9812
2.5709,0.0538,39.8300,84,98,9816
2.2239,0.0147,39.8000,84,98,9820
1.9648,0.0293,39.9300,84,98,9823
1.8182,0.0391,39.8900,84,98,9826
1.6422,0.0147,39.9300,84,98,9829
1.5934,0.0440,39.7000,84,98,9832
1.5103,0.0244,39.8900,84,98,9836
1.4858,0.0293,39.9300,84,98,9839
1.4809,0.0391,39.9300,84,98,9842
1.4565,0.0293,40.0300,84,98,9845
1.4614,0.0293,39.7700,84,98,9848
1.4467,0.0293,39.9600,84,98,9852
1.4467,0.0293,39.9600,84,98,9856
1.4565,0.0440,39.8000,84,98,9859
1.4614,0.0342,40.0300,84,98,9862
1.4907,0.0342,39.8600,84,98,9865
1.4809,0.0342,39.9600,84,98,9868
1.4907,0.0293,39.8900,84,98,9872
1.5152,0.0342,39.8600,84,98,9875
1.5103,0.0342,39.8900,84,98,9878
1.5347,0.0293,39.8900,84,98,9881
1.5347,0.0342,40.0300,84,98,9884
1.5445,0.0293,39.8900,84,98,9888
1.5885,0.0635,39.7700,84,98,9891
1.5787,0.0489,39.8600,84,98,9894
1.5787,0.0147,39.8900,84,98,9897
1.5787,0.0391,39.9300,84,98,9901
1.6129,0.0342,39.9600,84,98,9905
1.6422,0.0440,39.7000,84,98,9908
1.6227,0.0293,39.8600,84,98,9911
1.6276,0.0293,39.9600,84,98,9914
1.6373,0.0342,39.8900,84,98,9917
1.6422,0.0342,39.8600,84,98,9921
1.6862,0.0342,40.0600,84,98,9924
1.6716,0.0342,39.7000,84,98,9927
1.6716,0.0293,39.8600,84,98,9930
1.7302,0.0391,39.7700,84,98,9933
1.6911,0.0342,39.9300,84,98,9936
1.7204,0.0391,39.8000,84,98,9940
1.7107,0.0391,39.9300,84,98,9944
1.7400,0.0244,39.9600,84,98,9947
1.7400,0.0391,39.8300,84,98,9950
1.7351,0.0342,39.9300,84,98,9953
1.7595,0.0293,39.8000,84,98,9957
1.7791,0.0391,39.9300,84,98,9960
1.7791,0.0244,39.9600,84,98,9963
1.8035,0.0440,39.8000,84,98,9966
1.7889,0.0342,39.9300,84,98,9969
1.7937,0.0147,39.8600,84,98,9973
1.7937,0.0342,39.9300,84,98,9976
1.7986,0.0342,40.0000,84,98,9979
1.8719,0.0489,39.7300,84,98,9982
1.8426,0.0342,39.8300,84,98,9986
1.8377,0.0244,39.9600,84,98,9989
1.8524,0.0342,39.9600,84,98,9993
1.8524,0.0342,39.9300,84,98,9996
1.9110,0.0440,39.6700,84,98,9999
1.8964,0.0342,39.8600,84,98,10002
1.8964,0.0342,39.9600,84,98,10006
1.9355,0.0391,39.9300,84,98,10009
1.9159,0.0342,39.9300,84,98,10012
1.9697,0.0391,39.7000,84,98,10015
1.9453,0.0391,39.8900,84,98,10019
1.9404,0.0342,39.9300,84,98,10022
1.9746,0.0440,39.8600,84,98,10025
1.9795,0.0342,39.9300,84,98,10029
2.0088,0.0391,39.2200,84,98,10032
1.9648,0.0293,39.9600,84,98,10036
1.9697,0.0244,39.9300,84,98,10039
1.9941,0.0391,39.7700,84,98,10042
1.9697,0.0342,39.9600,84,98,10045
2.0088,0.0391,39.7300,84,98,10049
1.9648,0.0342,39.8600,84,98,10052
1.9501,0.0293,39.9300,84,98,10055
1.9404,0.0684,39.8300,84,98,10058
1.8964,0.0342,39.9300,84,98,10062
1.9062,0.0391,39.7700,84,98,10065
1.8475,0.0342,39.8600,84,98,10068
1.8182,0.0342,39.9300,84,98,10072
1.8084,0.0440,39.8300,84,98,10076
1.7693,0.0342,39.9600,84,98,10079
1.7742,0.0391,39.7300,84,98,10082
1.7302,0.0587,39.9300,84,98,10085
1.7204,0.0342,39.9600,84,98,10089
1.7155,0.0391,39.7700,84,98,10092
1.6862,0.0391,39.9300,84,98,10095
1.6960,0.0342,39.8000,84,98,10098
1.6618,0.0391,39.8600,84,98,10102
1.6569,0.0342,39.9300,84,98,10105
1.6667,0.0391,39.8000,84,98,10108
1.6520,0.0391,39.9300,84,98,10112
1.6618,0.0635,39.8000,84,98,10116
1.6422,0.0342,39.8900,84,98,10119
1.6716,0.0342,39.9300,84,98,10122
1.6667,0.0587,39.8900,84,98,10125
1.6569,0.0342,39.9600,84,98,10128
1.6764,0.0489,39.7700,84,98,10132
1.6520,0.0391,39.9300,84,98,10135
1.6471,0.0391,39.9600,84,98,10138
1.6813,0.0440,39.8300,84,98,10141
1.6667,0.0391,39.9300,84,98,10145
1.6960,0.0342,39.8300,84,98,10148
1.6716,0.0391,39.8900,84,98,10151
1.6764,0.0342,39.9600,84,98,10155
1.6960,0.0391,39.8300,84,98,10159
1.6862,0.0440,39.9300,84,98,10162
1.7155,0.0342,39.9300,84,98,10165
1.6960,0.0342,39.9300,84,98,10168
1.6960,0.0440,39.9300,84,98,10172
1.7058,0.0342,39.8600,84,98,10175
1.7155,0.0391,39.9300,84,98,10178
1.7498,0.0440,39.9300,84,98,10181
1.7302,0.0342,39.9600,84,98,10185
1.7351,0.0391,39.9300,84,98,10188
1.7595,0.0391,39.8000,84,98,10191
1.7400,0.0391,39.9600,84,98,10194
1.7644,0.0440,39.8300,84,98,10199
1.7400,0.0391,40.0000,84,98,10202
1.7498,0.0391,39.9300,84,98,10205
1.7742,0.0733,39.8900,84,98,10208
1.7644,0.0391,39.9300,84,98,10212
1.8035,0.0391,39.8300,84,98,10215
1.7644,0.0342,40.0000,84,98,10218
1.7693,0.0342,39.8300,84,98,10221
1.7840,0.0440,39.8600,84,98,10225
1.7840,0.0391,39.8900,84,98,10228
1.7986,0.0391,39.8300,84,98,10231
1.7742,0.0342,39.9600,84,98,10234
1.7840,0.0342,39.9300,84,98,10237
1.8231,0.0440,39.8000,84,98,10242
1.8280,0.0342,39.8900,84,98,10245
1.8328,0.0342,39.8000,84,98,10248
1.8133,0.0342,39.9300,84,98,10251
1.8133,0.0733,39.9300,84,98,10255
1.8426,0.0440,39.8600,84,98,10258
1.8377,0.0342,39.9300,84,98,10261
1.8573,0.0635,39.8000,84,98,10264
1.8524,0.0342,39.9600,84,98,10268
1.8964,0.0391,39.9300,84,98,10271
1.9110,0.0635,39.8900,84,98,10274
1.9110,0.0391,39.9300,84,98,10277
1.9208,0.0293,39.8300,84,98,10281
1.9062,0.0440,39.8900,84,98,10285
1.9159,0.0391,40.0000,84,98,10288
1.9306,0.0782,39.7300,84,98,10291
1.8915,0.0440,39.7300,84,98,10295
1.8768,0.0391,39.8300,84,98,10298
1.8328,0.0391,39.8900,84,98,10301
1.8084,0.0342,39.9300,84,98,10304
1.8133,0.0489,39.8000,84,98,10308
1.7742,0.0440,39.9300,84,98,10311
1.7595,0.0342,39.8600,84,98,10314
1.7253,0.0342,39.9300,84,98,10317
1.7107,0.0391,39.9300,84,98,10321
1.7351,0.0489,39.8300,84,98,10324
1.7204,0.0391,39.8900,84,98,10328
1.6960,0.0342,39.7700,84,98,10331
1.6862,0.0391,39.9600,84,98,10335
1.6862,0.0391,39.9300,84,98,10338
1.7253,0.0440,39.7000,84,98,10341
1.7155,0.0440,39.8600,84,98,10344
1.7009,0.0391,39.8900,84,98,10347
1.6960,0.0391,39.9300,84,98,10351
1.6960,0.0440,39.9300,84,98,10354
1.7449,0.0538,39.8000,84,98,10357
1.7155,0.0440,39.8600,84,98,10360
1.7107,0.0342,39.8600,84,98,10364
1.7204,0.0342,39.9300,84,98,10368
1.7351,0.0391,39.9300,84,98,10371
1.7644,0.0538,39.7700,84,98,10374
1.7253,0.0440,39.8300,84,98,10378
1.7009,0.0342,39.8900,84,98,10381
1.6764,0.0440,39.8900,84,98,10384
1.6373,0.0342,40.0000,84,98,10387
1.6813,0.0538,39.7300,84,98,10391
1.7009,0.0440,39.8300,84,98,10394
1.8328,0.0342,39.9600,84,98,10397
2.0919,0.0391,39.9300,84,98,10400
2.4047,0.0391,39.8600,84,98,10404
2.8152,0.0587,39.7000,84,98,10407
3.0938,0.0489,39.8000,84,98,10411
3.3529,0.0342,39.9300,84,98,10414
3.5191,0.0440,39.9300,84,98,10417
2.2434,0.0342,39.9600,84,98,10422
1.9697,0.0391,39.9600,84,98,10425
1.8231,0.0440,39.7700,84,98,10429
1.6960,0.0440,39.8900,84,98,10432
1.6031,0.0342,39.8600,84,98,10435
1.5494,0.0391,39.9300,84,98,10438
1.5054,0.0391,40.0600,84,98,10442
1.5200,0.0342,39.8000,84,98,10445
1.4809,0.0489,39.8300,84,98,10448
1.4614,0.0342,39.9600,84,98,10451
1.4565,0.0342,39.9300,84,98,10456
1.4663,0.0391,39.9300,84,98,10459
1.5005,0.0538,39.7700,84,98,10462
1.4809,0.0440,39.8900,84,98,10465
1.4809,0.0342,39.8600,84,98,10469
1.4956,0.0440,40.0300,84,98,10472
1.5054,0.0342,39.9300,84,98,10475
1.5640,0.0538,39.8300,84,98,10478
1.5396,0.0489,39.9600,84,98,10481
1.5396,0.0391,39.8900,84,98,10485
1.5591,0.0440,39.9600,84,98,10488
1.5689,0.0440,39.9300,84,98,10491
1.6276,0.0538,39.7300,84,98,10494
1.6031,0.0391,39.8300,84,98,10499
1.5982,0.0293,39.9300,84,98,10502
1.6080,0.0440,39.9300,84,98,10505
1.6471,0.0342,39.9600,84,98,10508
1.6716,0.0538,39.7000,84,98,10512
1.6569,0.0440,39.8300,84,98,10515
1.6520,0.0391,39.9300,84,98,10518
1.6716,0.0440,39.8600,84,98,10521
1.6716,0.0342,39.9300,84,98,10525
1.7302,0.0489,39.7000,84,98,10528
1.7058,0.0391,39.8600,84,98,10531
1.7155,0.0342,39.9300,84,98,10534
1.7351,0.0489,39.8900,84,98,10539
1.7302,0.0391,39.9300,84,98,10542
1.7791,0.0342,39.6400,84,98,10545
1.7546,0.0391,39.8600,84,98,10548
1.7595,0.0391,40.2000,84,98,10552
1.7742,0.0440,39.9300,84,98,10555
1.7937,0.0391,39.9300,84,98,10558
1.8231,0.0831,39.6700,84,98,10561
1.8035,0.0440,39.8300,84,98,10565
1.7937,0.0391,39.8900,84,98,10568
1.8182,0.0489,39.8900,84,98,10571
1.8182,0.0342,39.9600,84,98,10574
1.8671,0.0489,39.6700,84,98,10577
1.8475,0.0342,39.9300,84,98,10582
1.8622,0.0391,39.9300,84,98,10585
1.8768,0.0489,39.8600,84,98,10588
1.8768,0.0391,39.9300,84,98,10591
1.9306,0.0342,39.7700,84,98,10595
1.8964,0.0342,39.8900,84,98,10598
1.9159,0.0391,40.0000,84,98,10601
1.9355,0.0489,39.8600,84,98,10604
1.9306,0.0391,40.0300,84,98,10608
1.9746,0.0440,39.7000,84,98,10611
1.9550,0.0440,40.0000,84,98,10614
1.9453,0.0391,39.9300,84,98,10617
1.9648,0.0538,39.8300,84,98,10621
1.9453,0.0391,40.1000,84,98,10625
1.9844,0.0440,39.7000,84,98,10628
1.9648,0.0391,39.9300,84,98,10631
1.9697,0.0391,39.9600,84,98,10635
1.9941,0.0440,39.8300,84,98,10638
1.9746,0.0391,40.0600,84,98,10641
1.9990,0.0489,39.7700,84,98,10644
1.9892,0.0391,39.9300,84,98,10648
1.9697,0.0391,40.0000,84,98,10651
1.9844,0.0489,39.8600,84,98,10654
1.9453,0.0391,39.9300,84,98,10657
1.9550,0.0391,39.8000,84,98,10661
1.9062,0.0342,39.8300,84,98,10664
1.8817,0.0440,39.9600,84,98,10668
1.8866,0.0440,39.5700,84,98,10671
1.8426,0.0391,39.9300,84,98,10674
1.8426,0.0391,39.8000,84,98,10678
1.7986,0.0342,39.8900,84,98,10681
1.7742,0.0391,39.9600,84,98,10684
1.7742,0.0440,39.8300,84,98,10687
1.7791,0.0440,39.9300,84,98,10691
1.7546,0.0391,39.8000,84,98,10694
1.7155,0.0391,40.0000,84,98,10697
1.7107,0.0391,39.9300,84,98,10700
1.7155,0.0782,39.8300,84,98,10704
1.6862,0.0391,39.8600,84,98,10707
1.6911,0.0342,39.8000,84,98,10711
1.6667,0.0489,39.8600,84,98,10714
1.6716,0.0391,39.9300,84,98,10718
1.6813,0.0440,39.8600,84,98,10721
1.6764,0.0440,39.8900,84,98,10724
1.7058,0.0391,39.8000,84,98,10727
1.6862,0.0489,39.9300,84,98,10731
1.6960,0.0391,40.0300,84,98,10734
1.7302,0.0391,39.8600,84,98,10737
1.7107,0.0391,40.1300,84,98,10740
1.7400,0.0489,39.8300,84,98,10744
1.7155,0.0489,39.9300,84,98,10747
1.7253,0.0391,39.9300,84,98,10750
1.7595,0.0489,39.8000,84,98,10754
1.7400,0.0440,39.9300,84,98,10758
1.7595,0.0489,39.8600,84,98,10761
1.7253,0.0391,39.9300,84,98,10764
1.7644,0.0391,39.9600,84,98,10767
1.7742,0.0538,39.8300,84,98,10771
1.7644,0.0440,39.9300,84,98,10774
1.8231,0.0440,39.8300,84,98,10777
1.7644,0.0440,40.0300,84,98,10780
1.7644,0.0342,39.9300,84,98,10783
1.7791,0.0587,39.8600,84,98,10787
1.7742,0.0440,39.9600,84,98,10790
1.7840,0.0489,39.8300,84,98,10793
1.7693,0.0391,39.9300,84,98,10797
1.7693,0.0391,39.9300,84,98,10801
1.8084,0.0489,39.8000,84,98,10804
1.7937,0.0538,39.8900,84,98,10807
1.8133,0.0440,39.8000,84,98,10810
1.8035,0.0391,39.9300,84,98,10814
1.8133,0.0391,39.8900,84,98,10817
1.8475,0.0489,39.8300,84,98,10820
1.8377,0.0489,39.8900,84,98,10823
1.8573,0.0440,39.8300,84,98,10827
1.8768,0.0440,39.9600,84,98,10830
1.8622,0.0391,39.8900,84,98,10833
1.8964,0.0489,39.8600,84,98,10836
1.8915,0.0489,39.9300,84,98,10841
1.9257,0.0440,39.8300,84,98,10844
1.9257,0.0440,39.9300,84,98,10847
1.9404,0.0440,39.9300,84,98,10850
1.9844,0.0489,39.7700,84,98,10854
1.9599,0.0440,39.8900,84,98,10857
1.9648,0.0391,39.8300,84,98,10860
1.9453,0.0440,40.0600,84,98,10863
1.9306,0.0391,39.9300,84,98,10866
1.9599,0.0489,39.7700,84,98,10870
1.9208,0.0489,39.8900,84,98,10873
1.8866,0.0391,39.8300,84,98,10876
1.8524,0.0440,39.7000,84,98,10880
1.8231,0.0440,39.9300,84,98,10884
1.8426,0.0587,39.8000,84,98,10887
1.7986,0.0440,39.9600,84,98,10890
1.7840,0.0391,39.8300,84,98,10893
1.7644,0.0440,39.9300,84,98,10897
1.7498,0.0440,39.9600,84,98,10900
1.7889,0.0538,39.8000,84,98,10903
1.7595,0.1026,39.8600,84,98,10906
1.7400,0.0391,39.8900,84,98,10910
1.7351,0.0489,39.9300,84,98,10913
1.7302,0.0440,39.9600,84,98,10916
1.7791,0.0587,39.8300,84,98,10919
1.7498,0.0489,39.8900,84,98,10924
1.7351,0.0391,39.8900,84,98,10927
1.7449,0.0782,39.9300,84,98,10930
1.7498,0.0440,40.1000,84,98,10933
1.8035,0.0538,39.7700,84,98,10937
1.7595,0.0489,39.8600,84,98,10940
1.7498,0.0342,39.8900,84,98,10943
1.7595,0.0440,39.9300,84,98,10946
1.7595,0.0587,39.9300,84,98,10950
1.8084,0.0587,39.7300,84,98,10953
1.7644,0.0489,39.8300,84,98,10956
1.7204,0.0391,39.8900,84,98,10959
1.6911,0.0440,39.9600,84,98,10962
1.6618,0.0489,39.9600,84,98,10967
1.7498,0.0587,39.7300,84,98,10970
1.8475,0.0440,39.8000,84,98,10973
2.0674,0.0440,39.8900,84,98,10976
2.3851,0.0489,39.9600,84,98,10980
2.7419,0.0440,39.9300,84,98,10983
3.1672,0.0538,39.6700,84,98,10986
3.4115,0.0489,39.8600,84,98,10989
3.5679,0.0391,39.9300,84,98,10993
3.6022,0.0538,39.8600,84,98,10996
3.4115,0.0342,39.9300,84,98,10999
3.1769,0.0391,39.6700,84,98,11002
2.7370,0.0440,39.8300,84,98,11006
2.3754,0.0342,39.9600,84,98,11010
2.1017,0.0391,39.9300,84,98,11013
1.8719,0.0440,40.0300,84,98,11016
1.7840,0.0587,39.6700,84,98,11020
1.6373,0.0440,39.8600,84,98,11023
1.5787,0.0440,39.9600,84,98,11026
1.5591,0.0342,39.9600,84,98,11029
1.4956,0.0440,39.9300,84,98,11034
1.5054,0.0440,39.9300,84,98,11037
1.5591,0.0587,39.7300,84,98,11040
1.5396,0.0489,39.8600,84,98,11044
1.5347,0.0489,39.9300,84,98,11047
1.5445,0.0489,39.9300,84,98,11051
1.5494,0.0440,39.9300,84,98,11054
1.6080,0.0587,39.7300,84,98,11058
1.5885,0.0489,39.8600,84,98,11061
1.5885,0.0391,39.8900,84,98,11064
1.6031,0.0489,39.8300,84,98,11067
1.6080,0.0440,39.9600,84,98,11071
1.6667,0.0929,39.7700,84,98,11074
1.6422,0.0489,39.8600,84,98,11077
1.6569,0.0391,39.9300,84,98,11080
1.6667,0.0782,39.9300,84,98,11084
1.6618,0.0440,39.9300,84,98,11087
1.7546,0.0538,39.7000,84,98,11090
1.6960,0.0782,39.8300,84,98,11094
1.6960,0.0391,39.9600,84,98,11098
1.7449,0.0440,39.8900,84,98,11101
1.7204,0.0440,39.8600,84,98,11104
1.8133,0.0538,39.6700,84,98,11107
1.7840,0.0440,39.8300,84,98,11111
1.7546,0.0391,40.0000,84,98,11114
1.7742,0.0489,39.9300,84,98,11117
1.7791,0.0489,39.9300,84,98,11120
1.8328,0.0489,39.6700,84,98,11123
1.8084,0.0440,39.8600,84,98,11127
1.7986,0.0440,39.9600,84,98,11130
1.8231,0.0489,39.8900,84,98,11133
1.8133,0.0733,39.9300,84,98,11137
1.8719,0.0489,39.7700,84,98,11141
1.8377,0.0440,39.8600,84,98,11144
1.8377,0.0489,39.8900,84,98,11147
1.8573,0.0538,39.8900,84,98,11150
1.8622,0.0342,39.9300,84,98,11154
1.9110,0.0538,39.6700,84,98,11157
1.8719,0.0440,39.8600,84,98,11160
1.8866,0.0342,39.9600,84,98,11163
1.9013,0.0489,39.8900,84,98,11167
1.8964,0.0440,40.0600,84,98,11170
1.9453,0.0587,39.7000,84,98,11173
1.9355,0.0684,39.8900,84,98,11176
1.9306,0.0440,39.9600,84,98,11181
1.9648,0.0538,39.8600,84,98,11184
1.9453,0.0440,39.9300,84,98,11187
1.9892,0.0489,39.7000,84,98,11190
1.9697,0.0440,39.9300,84,98,11194
1.9697,0.0440,40.0300,84,98,11197
2.0137,0.0342,39.8600,84,98,11200
1.9844,0.0440,40.0600,84,98,11203
2.0186,0.0489,39.8300,84,98,11206
1.9795,0.0489,39.8900,84,98,11210
1.9795,0.0342,39.9600,84,98,11213
1.9990,0.0391,39.8600,84,98,11216
1.9795,0.0440,40.0300,84,98,11219
2.0088,0.0489,39.7700,84,98,11224
1.9697,0.0440,39.8600,84,98,11227
1.9844,0.0440,39.9300,84,98,11230
1.9550,0.0538,39.8300,84,98,11233
1.9208,0.0440,39.9300,84,98,11237
1.9257,0.0391,39.7700,84,98,11240
1.8768,0.0440,40.0000,84,98,11243
1.8573,0.0440,39.9600,84,98,11246
1.8573,0.0489,39.8900,84,98,11250
1.8182,0.0342,39.9300,84,98,11253
1.8182,0.0489,39.8300,84,98,11256
1.7791,0.0587,39.9300,84,98,11259
1.7644,0.0440,40.0000,84,98,11264
1.7693,0.0635,39.8300,84,98,11267
1.7351,0.0635,39.9300,84,98,11270
1.7449,0.0440,39.8300,84,98,11273
1.7107,0.0440,39.8600,84,98,11277
1.7058,0.0440,40.0000,84,98,11280
1.7107,0.0489,39.8300,84,98,11283
1.6862,0.0538,39.9300,84,98,11286
1.7058,0.0440,39.8300,84,98,11289
1.6764,0.0635,39.9300,84,98,11293
1.6813,0.0440,39.9600,84,98,11296
1.6960,0.0440,39.9600,84,98,11299
1.6960,0.0440,39.8900,84,98,11302
1.7204,0.0538,39.8600,84,98,11307
1.7107,0.0538,39.8900,84,98,11310
1.7107,0.0489,39.9300,84,98,11313
1.7449,0.0538,39.8300,84,98,11316
1.7302,0.0489,39.9300,84,98,11320
1.7498,0.0782,39.8600,84,98,11323
1.7253,0.0440,39.9600,84,98,11326
1.7302,0.0440,39.9300,84,98,11329
1.7449,0.0538,39.8900,84,98,11333
1.7400,0.0489,39.9600,84,98,11336
1.7595,0.0489,39.8300,84,98,11339
1.7449,0.0440,39.9300,84,98,11342
1.7498,0.0440,39.9300,84,98,11346
1.7693,0.0538,39.8900,84,98,11350
1.7595,0.0489,39.9300,84,98,11353
1.7937,0.0440,39.8300,84,98,11356
1.7693,0.0440,39.9300,84,98,11360
1.7693,0.0440,40.0000,84,98,11363
1.8328,0.0538,39.7700,84,98,11366
1.7742,0.0489,39.8900,84,98,11369
1.7889,0.0440,39.8300,84,98,11373
1.7840,0.0489,39.9300,84,98,11376
1.7742,0.0440,40.0300,84,98,11379
1.8035,0.0440,39.8300,84,98,11382
1.7889,0.0489,39.8900,84,98,11385
1.7986,0.0342,39.8300,84,98,11389
1.7840,0.0391,39.9300,84,98,11393
1.7889,0.0489,39.9300,84,98,11396
1.8182,0.0538,39.8300,84,98,11399
1.7986,0.0489,39.9300,84,98,11403
1.8133,0.0440,39.8900,84,98,11406
1.8035,0.0489,40.0600,84,98,11409
1.8035,0.0489,39.9300,84,98,11412
1.8475,0.0538,39.8300,84,98,11416
1.8328,0.0489,39.9600,84,98,11419
1.8475,0.0538,39.8600,84,98,11422
1.8426,0.0489,39.9600,84,98,11425
1.8573,0.0440,39.9300,84,98,11429
1.8866,0.0635,39.8000,84,98,11432
1.8719,0.0538,39.8900,84,98,11436
1.8719,0.0440,39.8600,84,98,11439
1.8622,0.0440,39.8900,84,98,11443
1.8719,0.0440,40.1600,84,98,11446
1.9257,0.0587,39.8300,84,98,11449
1.9110,0.0440,39.9300,84,98,11452
1.9257,0.0440,39.8600,84,98,11456
1.9306,0.0489,39.9300,84,98,11459
1.9404,0.0440,39.9300,84,98,11462
1.9844,0.0538,39.7700,84,98,11465
1.9550,0.0538,39.8600,84,98,11469
1.9208,0.0684,39.8600,84,98,11472
1.8964,0.0489,39.9300,84,98,11475
1.8719,0.0489,39.9300,84,98,11479
1.8964,0.0587,39.8900,84,98,11483
1.8475,0.0538,39.9600,84,98,11486
1.8133,0.0391,39.8600,84,98,11489
1.7937,0.0391,39.9300,84,98,11492
1.7791,0.0440,40.0300,84,98,11496
1.8182,0.0635,39.7700,84,98,11499
1.7644,0.0489,39.8600,84,98,11502
1.7498,0.0391,39.8900,84,98,11505
1.7400,0.0489,39.9600,84,98,11509
1.7302,0.0587,39.9600,84,98,11512
