ecg,gsr,temp,hr,spo2,timest
1.7253,0.1857,37.6800,39,98,295976
1.7693,0.1808,37.6800,39,98,295981
1.8768,0.1906,37.5300,39,98,295984
1.9599,0.1857,37.6800,39,98,295987
2.0919,0.1955,37.5900,39,98,295991
2.1457,0.1857,37.6800,39,98,295994
2.2092,0.1857,37.3100,39,98,295997
2.2092,0.2199,37.5600,39,98,296001
2.1212,0.1857,37.6800,39,98,296004
2.0332,0.1906,37.5600,39,98,296007
1.8719,0.1857,37.7100,39,98,296010
1.7498,0.2199,37.7100,39,98,296014
1.6764,0.1808,37.5900,39,98,296017
1.5982,0.1857,37.7400,39,98,296020
1.6031,0.1857,36.9100,39,98,296025
1.5836,0.1857,37.5900,39,98,296028
1.5836,0.1808,37.7100,39,98,296031
1.5885,0.1906,37.6200,39,98,296035
1.5347,0.1808,37.6200,39,98,296038
1.5200,0.1906,37.3700,39,98,296041
1.4174,0.1955,37.6200,39,98,296045
1.3490,0.1711,37.6800,39,98,296048
1.3196,0.2297,37.6500,39,98,296051
1.2903,0.1808,37.6800,39,98,296054
1.3441,0.2004,37.4600,39,98,296058
1.3685,0.1906,37.5900,39,98,296061
1.4321,0.1808,37.7700,39,98,296065
1.5249,0.1857,37.6800,39,98,296069
1.6129,0.1760,37.6500,39,98,296072
1.7400,0.1906,37.5900,39,98,296075
1.7937,0.1857,37.6800,39,98,296079
1.8719,0.1711,37.5600,39,98,296082
1.9110,0.1711,37.7100,39,98,296085
1.9404,0.1857,37.7400,39,98,296088
1.9990,0.2004,37.4900,39,98,296092
1.9795,0.1857,37.7400,39,98,296095
2.0137,0.2248,37.5300,39,98,296098
1.9892,0.1857,37.6800,39,98,296102
1.9892,0.1760,37.6800,39,98,296105
2.0137,0.1906,37.5600,39,98,296109
1.9844,0.1857,37.6800,39,98,296113
2.0088,0.1808,37.6500,39,98,296116
1.9795,0.1760,37.6200,39,98,296119
1.9795,0.1857,37.7100,39,98,296122
1.9941,0.1955,37.5600,39,98,296126
1.9697,0.1857,37.7100,39,98,296129
1.9941,0.2248,37.4300,39,98,296132
1.9501,0.1857,37.6500,39,98,296136
1.9550,0.1857,37.7100,39,98,296139
1.9599,0.1906,37.7100,39,98,296142
1.9404,0.1857,37.6800,39,98,296146
1.9892,0.1906,37.3400,39,98,296150
1.9892,0.1955,37.5900,39,98,296153
1.9306,0.1857,37.6500,39,98,296157
1.9306,0.1857,37.6800,39,98,296160
1.9110,0.1857,37.7700,39,98,296163
1.9941,0.1906,37.4600,39,98,296166
1.9159,0.1955,37.5900,39,98,296170
1.8964,0.1711,37.6500,39,98,296173
1.8915,0.2248,37.7400,39,98,296176
1.8866,0.1857,37.6800,39,98,296180
1.9208,0.1955,37.5300,39,98,296183
1.9062,0.1906,37.6500,39,98,296186
1.8964,0.1857,37.5900,39,98,296190
1.8719,0.1857,37.7400,39,98,296194
1.8573,0.1857,37.7400,39,98,296198
1.8573,0.2053,37.7100,39,98,296201
1.8817,0.1906,37.6800,39,98,296204
1.8622,0.1711,37.6800,39,98,296208
1.8866,0.1857,37.4300,39,98,296211
1.8622,0.1857,37.5600,39,98,296214
1.8426,0.1857,37.7100,39,98,296217
1.8524,0.1906,37.6500,39,98,296221
1.8280,0.2248,37.7400,39,98,296224
1.9013,0.1955,37.4300,39,98,296227
1.8328,0.1857,37.6200,39,98,296231
1.8377,0.1711,37.6800,39,98,296235
1.8573,0.2151,37.6200,39,98,296238
1.8573,0.1808,37.7400,39,98,296242
1.9208,0.2297,37.4000,39,98,296245
1.8915,0.1906,37.5600,39,98,296248
1.8915,0.1808,37.6800,39,98,296251
1.9159,0.1857,37.6800,39,98,296255
1.9208,0.1857,37.7100,39,98,296258
1.9795,0.1955,37.5600,39,98,296261
1.9599,0.1906,37.6500,39,98,296265
1.9746,0.1857,37.6200,39,98,296268
1.9844,0.1857,37.6800,39,98,296271
1.9990,0.1857,37.8000,39,98,296275
2.0479,0.1955,37.4900,39,98,296279
2.0283,0.1808,37.6800,39,98,296282
2.0528,0.1857,37.5300,39,98,296286
2.0235,0.1711,37.7100,39,98,296289
2.0235,0.1857,37.7100,39,98,296292
2.0528,0.1808,37.5600,39,98,296295
2.0186,0.1857,37.6500,39,98,296299
2.0332,0.1906,37.5600,39,98,296302
1.9892,0.1808,37.6500,39,98,296305
1.9746,0.1760,37.7100,39,98,296309
1.9844,0.1857,37.5300,39,98,296312
1.9550,0.1808,37.6800,39,98,296315
1.9795,0.1857,37.4600,39,98,296320
1.9697,0.1808,37.6800,39,98,296323
1.9306,0.1515,37.7100,39,98,296326
1.9355,0.1955,37.6200,39,98,296329
1.9062,0.1808,37.6800,39,98,296333
1.9453,0.1955,37.4000,39,98,296336
1.9110,0.1906,37.4900,39,98,296339
1.8915,0.1808,37.7100,39,98,296343
1.8964,0.1906,37.6500,39,98,296346
1.8866,0.1808,37.6800,39,98,296349
1.9257,0.2004,37.4000,39,98,296353
1.9159,0.1857,37.5600,39,98,296356
1.8671,0.1808,37.7100,39,98,296359
1.8719,0.1955,37.6800,39,98,296363
1.8671,0.1515,37.7400,39,98,296367
1.9110,0.2004,37.5600,39,98,296370
1.8866,0.1906,37.5900,39,98,296373
1.8719,0.1808,37.6200,39,98,296377
1.8524,0.1857,37.8000,39,98,296380
1.8377,0.1808,37.7100,39,98,296383
1.8622,0.1906,37.5900,39,98,296387
1.8377,0.1808,37.6800,39,98,296390
1.8475,0.1857,37.5600,39,98,296393
1.8231,0.1711,37.7400,39,98,296396
1.8182,0.1857,37.6200,39,98,296400
1.8524,0.1955,37.5600,39,98,296403
1.8133,0.1857,37.6800,39,98,296407
1.8328,0.1857,37.5900,39,98,296411
1.7937,0.1857,37.6200,39,98,296414
1.7840,0.1857,37.6800,39,98,296417
1.8035,0.1906,37.5600,39,98,296421
1.7791,0.1808,37.6800,39,98,296424
1.8035,0.2151,37.4600,39,98,296427
1.7742,0.1857,37.6200,39,98,296431
1.7644,0.1955,37.7400,39,98,296434
1.7889,0.1906,37.5900,39,98,296437
1.7498,0.1857,37.6500,39,98,296440
1.7840,0.1906,37.3700,39,98,296444
1.7351,0.1808,37.7700,39,98,296448
1.7253,0.1857,37.6800,39,98,296451
1.7400,0.1906,37.6500,39,98,296455
1.7253,0.1857,37.7100,39,98,296458
1.7644,0.2102,37.4300,39,98,296461
1.7351,0.1906,37.6200,39,98,296465
1.7204,0.2053,37.6800,39,98,296468
1.7204,0.1857,36.8800,39,98,296471
1.7107,0.1906,37.6800,39,98,296474
1.7546,0.2053,37.5300,39,98,296478
1.7058,0.1857,37.6800,39,98,296481
1.6911,0.1808,37.5900,39,98,296484
1.6764,0.1906,37.6500,39,98,296488
1.7107,0.1857,37.7100,39,98,296492
1.7058,0.1906,37.5300,39,98,296495
1.7009,0.1906,37.6500,39,98,296499
1.7204,0.1857,37.5600,39,98,296502
1.7009,0.1711,37.7400,39,98,296505
1.7155,0.1857,37.7700,39,98,296508
1.7351,0.1857,37.6200,39,98,296512
1.7302,0.1857,37.6500,39,98,296515
1.7986,0.1906,37.5600,39,98,296518
1.7546,0.1760,37.6800,39,98,296522
1.7791,0.1808,37.7100,39,98,296525
1.8182,0.1906,37.5900,39,98,296528
1.8182,0.1857,37.6800,39,98,296532
1.8622,0.2199,37.4600,39,98,296536
1.8671,0.1857,37.5900,39,98,296539
1.8719,0.1906,37.6800,39,98,296543
1.9110,0.1955,37.5300,39,98,296546
1.9306,0.1808,37.6800,39,98,296549
1.9501,0.1906,37.4600,39,98,296552
1.9208,0.1906,37.6500,39,98,296556
1.9062,0.1711,37.7100,39,98,296559
1.9208,0.2004,37.6200,39,98,296562
1.9062,0.1857,37.7100,39,98,296566
1.9501,0.1955,37.3400,39,98,296569
1.9159,0.1857,37.5600,39,98,296572
1.9110,0.2102,37.6500,39,98,296577
1.9110,0.1857,37.6800,39,98,296580
1.9013,0.1808,37.7400,39,98,296583
1.9599,0.2004,37.4600,39,98,296586
1.9110,0.1906,37.6500,39,98,296590
1.9062,0.1906,37.5900,39,98,296593
1.9013,0.1857,37.9300,39,98,296596
1.8964,0.1808,37.7100,39,98,296600
1.9355,0.1906,37.6800,39,98,296603
1.9062,0.1906,37.6500,39,98,296606
1.9110,0.1857,36.9100,39,98,296610
1.8915,0.1711,37.6800,39,98,296613
1.8964,0.1906,37.7100,39,98,296616
1.9208,0.1906,37.5600,39,98,296620
1.8964,0.1857,37.6500,39,98,296624
1.9208,0.1906,37.5900,39,98,296627
1.8866,0.1857,37.9600,39,98,296630
1.9013,0.1857,37.6800,39,98,296634
1.8964,0.1857,37.5300,39,98,296637
1.8719,0.1808,37.7100,39,98,296640
1.8964,0.1857,37.4900,39,98,296644
1.8622,0.1711,37.7100,39,98,296647
1.8573,0.2151,37.7100,39,98,296650
1.8768,0.1906,37.6200,39,98,296654
1.8622,0.1857,37.6800,39,98,296657
1.8915,0.1906,37.4000,39,98,296660
1.8768,0.1711,37.5600,39,98,296664
1.8475,0.1857,37.6800,39,98,296668
1.8475,0.1906,37.6500,39,98,296671
1.8280,0.2004,37.6800,39,98,296674
1.9062,0.1906,37.3700,39,98,296678
1.8231,0.1857,37.6200,39,98,296681
1.8084,0.1808,37.6800,39,98,296684
1.8084,0.2248,37.6500,39,98,296688
1.7986,0.1711,37.6800,39,98,296691
1.8475,0.2004,37.4600,39,98,296694
1.8084,0.1906,37.6200,39,98,296697
1.7937,0.1857,37.6200,39,98,296701
1.7840,0.1955,37.6800,39,98,296705
1.7791,0.1857,37.7400,39,98,296708
1.7986,0.1955,37.6200,39,98,296712
1.7840,0.1906,37.6800,39,98,296715
1.7937,0.1808,37.5600,39,98,296718
1.7742,0.1857,37.6200,39,98,296722
1.7889,0.1857,37.7400,39,98,296725
1.7937,0.1906,37.5300,39,98,296728
1.7595,0.1857,37.6800,39,98,296732
1.7693,0.1906,37.4900,39,98,296735
1.7351,0.1808,37.6500,39,98,296738
1.7253,0.1857,37.9000,39,98,296741
1.7449,0.1906,37.5600,39,98,296745
1.7302,0.1955,37.6800,39,98,296749
1.7595,0.1857,37.5600,39,98,296752
1.7400,0.1808,37.6500,39,98,296756
1.7498,0.1857,37.7100,39,98,296759
1.7693,0.2102,37.5600,39,98,296762
1.7449,0.1857,37.6800,39,98,296766
1.7840,0.1955,37.4000,39,98,296769
1.7546,0.1808,37.6800,39,98,296772
1.7693,0.1808,37.6800,39,98,296775
1.7986,0.1906,37.6200,39,98,296779
1.8035,0.1857,37.6500,39,98,296782
1.8768,0.1955,37.3700,39,98,296785
1.8573,0.2102,37.5900,39,98,296790
1.8622,0.1808,37.7100,39,98,296793
1.8964,0.1906,37.6500,39,98,296796
1.8866,0.1857,37.9600,39,98,296800
1.9501,0.2053,37.4600,39,98,296803
1.9453,0.1906,37.5300,39,98,296807
1.9062,0.1857,37.6500,39,98,296810
1.9257,0.1906,37.5900,39,98,296813
1.8915,0.1857,37.6800,39,98,296817
1.8915,0.1857,37.7100,39,98,296820
1.9013,0.1857,37.4000,39,98,296823
1.8915,0.2004,37.7100,39,98,296826
1.9208,0.1857,37.5300,39,98,296830
1.9062,0.1711,37.6800,39,98,296834
1.8915,0.1906,37.7400,39,98,296837
1.9159,0.1955,37.5900,39,98,296841
1.8915,0.1857,37.6500,39,98,296844
1.9208,0.1857,37.4300,39,98,296847
1.8964,0.1906,37.6200,39,98,296851
1.8817,0.1760,37.6800,39,98,296854
1.9013,0.1955,37.7100,39,98,296857
1.8866,0.1711,37.7100,39,98,296860
1.9257,0.1955,37.4000,39,98,296864
1.8817,0.1857,37.5600,39,98,296867
1.8768,0.1857,37.7100,39,98,296870
1.8817,0.1906,37.6500,39,98,296875
1.8768,0.1857,37.7100,39,98,296878
1.9648,0.2004,37.4300,39,98,296881
1.8817,0.1955,37.5600,39,98,296885
1.8622,0.1808,37.6200,39,98,296888
1.8573,0.2248,37.7100,39,98,296891
1.8475,0.1857,37.6800,39,98,296895
1.8768,0.1955,37.5600,39,98,296898
1.8475,0.1857,37.6500,39,98,296901
1.8622,0.1808,37.5600,39,98,296904
1.8328,0.2248,37.6800,39,98,296908
1.8328,0.1857,37.8000,39,98,296911
1.8573,0.2053,37.5600,39,98,296914
1.8231,0.1857,37.7100,39,98,296919
1.8524,0.1955,37.5900,39,98,296922
1.8084,0.1808,37.7100,39,98,296925
1.7986,0.2199,37.7100,39,98,296929
1.8182,0.1906,37.8000,39,98,296932
1.8280,0.1906,37.6800,39,98,296935
1.8231,0.1857,37.4900,39,98,296938
1.7937,0.1808,37.6200,39,98,296942
1.7986,0.1857,37.6800,39,98,296945
1.8328,0.2053,37.5600,39,98,296948
1.8524,0.1857,37.6800,39,98,296952
1.9697,0.2053,37.4000,39,98,296955
2.0186,0.1808,37.6800,39,98,296958
2.1065,0.1857,37.7100,39,98,296963
2.1896,0.1906,37.6800,39,98,296966
2.2043,0.1857,37.6500,39,98,296969
2.2239,0.1955,37.4000,39,98,296973
2.0870,0.1906,37.6500,39,98,296976
1.9404,0.1857,37.8300,39,98,296979
1.8035,0.1906,37.6800,39,98,296982
1.6764,0.1857,37.8300,39,98,296986
1.6325,0.2102,37.4300,39,98,296989
1.5396,0.2004,37.5600,39,98,296992
1.5054,0.1808,37.6500,39,98,296996
1.5054,0.1857,37.5300,39,98,296999
1.5103,0.1808,37.7100,39,98,297003
1.5103,0.2004,37.5600,39,98,297006
1.4467,0.1906,37.5900,39,98,297010
1.3832,0.1711,37.5900,39,98,297013
1.2903,0.1857,37.6800,39,98,297016
1.2219,0.1857,37.6800,39,98,297020
1.1975,0.1955,37.6200,39,98,297023
1.1681,0.1857,37.7700,39,98,297026
1.2072,0.1808,37.5600,39,98,297030
1.2561,0.1857,37.7100,39,98,297033
1.3294,0.1808,37.7100,39,98,297036
1.4663,0.1955,37.6500,39,98,297040
1.5543,0.1808,37.6800,39,98,297043
1.6813,0.1857,37.5600,39,98,297047
1.7498,0.1808,37.6500,39,98,297050
1.8426,0.1808,37.7100,39,98,297054
1.9257,0.1906,37.5300,39,98,297057
1.9550,0.1711,37.6800,39,98,297060
2.0235,0.1906,37.4300,39,98,297064
2.0137,0.1857,37.5900,39,98,297067
2.0137,0.1857,37.6800,39,98,297070
2.0479,0.2004,37.6200,39,98,297074
2.0283,0.1857,37.7400,39,98,297077
2.0772,0.1906,37.3700,39,98,297080
2.0235,0.1808,37.6500,39,98,297083
2.0186,0.1857,37.8300,39,98,297088
2.0186,0.2004,37.6800,39,98,297091
1.9990,0.1857,37.6800,39,98,297094
2.0479,0.2102,37.4000,39,98,297098
2.0039,0.1906,37.6500,39,98,297101
1.9844,0.1808,37.6800,39,98,297104
1.9990,0.1808,37.6500,39,98,297108
1.9648,0.1857,37.7400,39,98,297111
2.0137,0.2053,37.4900,39,98,297114
1.9697,0.1906,37.6200,39,98,297117
1.9648,0.1808,37.5900,39,98,297121
1.9941,0.1808,37.7100,39,98,297124
1.9550,0.1857,37.7100,39,98,297127
1.9892,0.1955,37.5300,39,98,297132
1.9648,0.1906,37.6500,39,98,297135
1.9795,0.1808,37.5600,39,98,297138
1.9404,0.1857,37.7700,39,98,297142
1.9257,0.1857,37.7100,39,98,297145
1.9404,0.2004,37.6500,39,98,297148
1.9355,0.1906,37.6800,39,98,297151
1.9355,0.1906,37.5600,39,98,297155
1.9062,0.1857,37.7100,39,98,297158
1.9062,0.1857,37.6800,39,98,297161
1.9453,0.1955,37.5600,39,98,297165
1.8964,0.1857,37.6800,39,98,297168
1.9159,0.1857,37.5300,39,98,297171
1.8915,0.1955,37.6200,39,98,297176
1.8866,0.1857,37.6800,39,98,297179
1.9062,0.1955,37.5900,39,98,297182
1.8768,0.1857,37.6800,39,98,297185
1.9062,0.1906,37.4600,39,98,297189
1.8719,0.1906,37.5900,39,98,297192
1.8573,0.1857,37.6500,39,98,297195
1.8671,0.1906,37.6200,39,98,297199
1.8524,0.1857,37.7400,39,98,297202
1.8866,0.1906,37.3700,39,98,297205
1.8426,0.1857,37.5600,39,98,297209
1.8328,0.1515,37.7100,39,98,297212
1.8231,0.1808,37.6800,39,98,297216
1.8182,0.1857,37.8700,39,98,297220
1.8817,0.1906,37.4900,39,98,297223
1.8280,0.1906,37.6800,39,98,297226
1.8182,0.2151,37.5900,39,98,297229
1.8182,0.1906,37.8300,39,98,297233
1.8524,0.1857,37.6800,39,98,297236
1.8573,0.1906,37.4600,39,98,297239
1.8328,0.1857,37.6500,39,98,297243
1.8328,0.1857,37.5300,39,98,297246
1.8084,0.1857,37.7100,39,98,297249
1.8035,0.1906,37.7400,39,98,297253
1.8328,0.1906,37.5600,39,98,297256
1.8035,0.1906,37.6500,39,98,297260
1.8231,0.1955,37.5600,39,98,297263
1.7986,0.1857,37.7100,39,98,297267
1.8377,0.1857,37.7100,39,98,297270
1.8280,0.1857,37.5300,39,98,297273
1.8328,0.1906,37.6800,39,98,297277
1.8524,0.1857,37.5900,39,98,297280
1.8426,0.1857,37.6800,39,98,297283
1.8573,0.1906,37.6500,39,98,297287
1.8964,0.1955,37.5900,39,98,297290
1.8817,0.1906,37.6800,39,98,297293
1.9355,0.1955,37.4600,39,98,297296
1.9257,0.1906,37.5900,39,98,297300
1.9355,0.1808,37.7100,39,98,297304
1.9599,0.1857,37.6500,39,98,297307
1.9599,0.1857,37.7400,39,98,297311
2.0186,0.2199,37.3400,39,98,297314
1.9795,0.1857,36.7600,39,98,297317
1.9795,0.1808,37.6800,39,98,297321
1.9795,0.1857,37.6800,39,98,297324
1.9648,0.1760,37.6800,39,98,297327
2.0235,0.2004,37.4300,39,98,297331
1.9844,0.1955,37.6800,39,98,297334
1.9746,0.1808,37.6200,39,98,297337
1.9697,0.1906,37.6800,39,98,297340
1.9648,0.1808,37.6200,39,98,297345
2.0283,0.1906,37.5900,39,98,297348
1.9648,0.1906,37.7100,39,98,297351
1.9599,0.1808,37.5300,39,98,297355
1.9355,0.1857,37.7100,39,98,297358
1.9404,0.1857,37.6800,39,98,297361
1.9648,0.1955,37.4900,39,98,297365
1.9355,0.1906,37.6800,39,98,297368
1.9501,0.1906,37.5600,39,98,297371
1.9208,0.1955,37.6800,39,98,297374
1.9257,0.1857,37.6800,39,98,297378
1.9355,0.1808,37.6200,39,98,297381
1.9110,0.1857,37.6800,39,98,297384
1.9306,0.2199,37.4900,39,98,297389
1.8964,0.1808,37.6200,39,98,297392
1.8964,0.1857,37.7100,39,98,297395
1.9159,0.1906,37.5300,39,98,297399
1.8866,0.1857,37.7400,39,98,297402
1.9110,0.1857,37.4300,39,98,297405
1.8768,0.1906,37.6800,39,98,297408
1.8573,0.1857,37.7400,39,98,297412
1.8671,0.1906,37.6200,39,98,297415
1.8280,0.2053,37.6800,39,98,297419
1.8182,0.1857,37.6800,39,98,297422
1.8524,0.1955,37.4600,39,98,297425
1.8182,0.1857,37.7700,39,98,297430
1.8084,0.1906,37.5600,39,98,297433
1.7986,0.1857,37.6800,39,98,297436
1.7937,0.1906,37.7100,39,98,297440
1.8231,0.1906,37.6200,39,98,297443
1.8426,0.1808,37.6800,39,98,297446
1.8133,0.1857,37.6200,39,98,297450
1.8035,0.1711,37.6800,39,98,297453
1.7644,0.1857,37.6800,39,98,297456
1.7595,0.1711,37.6200,39,98,297459
1.7546,0.1857,37.6800,39,98,297463
1.7889,0.1808,37.5300,39,98,297466
1.7498,0.1955,37.6500,39,98,297469
1.7351,0.1857,37.7100,39,98,297474
1.7889,0.1955,37.5600,39,98,297477
1.7253,0.1857,37.7100,39,98,297480
1.7595,0.1906,37.4300,39,98,297484
1.7595,0.1955,37.5600,39,98,297487
1.7937,0.1857,37.7100,39,98,297490
1.8719,0.1955,37.6800,39,98,297494
1.9404,0.1857,37.7700,39,98,297497
2.0772,0.2053,37.4000,39,98,297500
2.1065,0.1906,37.6500,39,98,297503
2.1359,0.1955,37.7100,39,98,297507
2.1163,0.1906,37.6500,39,98,297510
2.0235,0.1857,37.7100,39,98,297513
1.9697,0.2053,37.4300,39,98,297518
1.7986,0.2102,37.5600,39,98,297521
1.6813,0.1808,37.5900,39,98,297524
1.5934,0.2102,37.6800,39,98,297528
1.5396,0.1857,37.7100,39,98,297531
1.5591,0.1955,37.5600,39,98,297534
1.5396,0.1906,37.5900,39,98,297538
1.5836,0.1955,37.5600,39,98,297541
1.5103,0.2248,37.6800,39,98,297544
1.4614,0.1857,37.7100,39,98,297547
1.4272,0.2004,37.5600,39,98,297551
1.3392,0.1857,37.6800,39,98,297554
1.3050,0.2248,37.5600,39,98,297558
1.2610,0.1857,37.7100,39,98,297562
1.2708,0.1808,37.7100,39,98,297565
1.3245,0.1906,37.3100,39,98,297568
1.3930,0.1808,37.6800,39,98,297572
1.4956,0.1857,37.5300,39,98,297575
1.5885,0.1857,37.6200,39,98,297578
1.6667,0.1857,37.7100,39,98,297581
1.7889,0.1955,37.5600,39,98,297585
1.8426,0.1857,37.6800,39,98,297588
1.9404,0.1906,37.4300,39,98,297591
1.9453,0.2053,37.6500,39,98,297595
1.9844,0.1711,37.7100,39,98,297598
2.0088,0.2053,37.6500,39,98,297602
2.0088,0.1857,37.7100,39,98,297606
2.0674,0.1955,37.4000,39,98,297609
2.0332,0.1808,37.5900,39,98,297612
2.0235,0.1711,37.7100,39,98,297615
2.0137,0.1808,37.6500,39,98,297619
1.9941,0.1711,37.7100,39,98,297622
2.0430,0.2053,37.3700,39,98,297625
2.0088,0.1906,37.6200,39,98,297629
1.9795,0.1808,37.6500,39,98,297632
1.9844,0.1906,37.6500,39,98,297635
1.9795,0.1857,37.7100,39,98,297639
2.0381,0.2004,36.6700,39,98,297643
2.0039,0.1955,37.6200,39,98,297646
1.9990,0.1857,37.5600,39,98,297649
1.9746,0.1955,37.6800,39,98,297653
1.9648,0.1857,37.5900,39,98,297656
2.0186,0.1955,37.5900,39,98,297659
1.9550,0.1857,37.5600,39,98,297663
1.9697,0.1808,37.5300,39,98,297666
1.9404,0.1857,37.6800,39,98,297669
1.9306,0.1711,37.7100,39,98,297673
1.9599,0.1906,37.5300,39,98,297676
1.9257,0.1906,37.6800,39,98,297679
1.9453,0.1906,37.5300,39,98,297682
1.9208,0.1711,37.6200,39,98,297687
1.9159,0.1857,37.7100,39,98,297690
1.9257,0.1906,37.5600,39,98,297693
1.8964,0.1857,37.6800,39,98,297697
1.9159,0.1955,37.4600,39,98,297700
1.8817,0.1857,37.5900,39,98,297703
1.8817,0.1857,37.7100,39,98,297707
1.9013,0.1955,37.6200,39,98,297710
1.8719,0.1857,37.8000,39,98,297713
1.9159,0.1906,37.4000,39,98,297717
1.8671,0.1515,37.6800,39,98,297720
1.8719,0.1808,37.7100,39,98,297723
1.8817,0.1906,37.6500,39,98,297726
1.8817,0.1857,37.7100,39,98,297731
1.9404,0.2004,37.4000,39,98,297734
1.9013,0.1906,37.5600,39,98,297737
1.8817,0.2151,37.6800,39,98,297741
1.8768,0.2004,37.6500,39,98,297744
1.8964,0.1808,37.7100,39,98,297747
1.9110,0.1955,37.4600,39,98,297751
1.9013,0.1955,37.6800,39,98,297754
1.8524,0.1857,37.5900,39,98,297757
1.8328,0.1857,37.6500,39,98,297760
1.8231,0.1857,37.7100,39,98,297764
1.8671,0.2053,37.4900,39,98,297767
1.8280,0.1906,37.7100,39,98,297771
1.8475,0.1808,37.5600,39,98,297775
1.8377,0.1857,36.8800,39,98,297778
1.8475,0.1857,37.6800,39,98,297781
1.8768,0.1760,37.5900,39,98,297785
1.8768,0.1857,37.7100,39,98,297788
1.9062,0.1906,37.5600,39,98,297791
1.8866,0.1857,37.6800,39,98,297794
1.9013,0.2102,37.7100,39,98,297798
1.9404,0.1906,37.5900,39,98,297801
1.9306,0.1955,37.6800,39,98,297804
1.9746,0.1857,37.4600,39,98,297808
1.9648,0.1857,37.6200,39,98,297811
1.9648,0.1857,37.7100,39,98,297815
1.9941,0.1906,37.6200,39,98,297819
1.9697,0.1857,37.7700,39,98,297822
2.0479,0.1955,37.4000,39,98,297825
1.9795,0.1857,37.5900,39,98,297829
1.9550,0.1955,37.6800,39,98,297832
1.9648,0.1906,37.6800,39,98,297835
1.9453,0.1906,37.7100,39,98,297838
1.9941,0.1906,37.4000,39,98,297842
1.9404,0.1808,37.5600,39,98,297845
1.9257,0.1808,37.6500,39,98,297848
1.9110,0.1906,37.6500,39,98,297852
1.8915,0.1857,37.6800,39,98,297856
1.9355,0.2053,37.5600,39,98,297859
1.8915,0.1906,37.6500,39,98,297863
1.8817,0.2199,37.6200,39,98,297866
1.8719,0.1857,37.6800,39,98,297869
1.8768,0.1808,37.7400,39,98,297872
1.8915,0.1906,37.6500,39,98,297876
1.8622,0.1711,37.6500,39,98,297879
1.8719,0.1857,37.5300,39,98,297882
1.8377,0.1857,37.7100,39,98,297886
1.8426,0.1857,37.7100,39,98,297889
1.8719,0.1906,37.6200,39,98,297892
1.8524,0.1906,37.6500,39,98,297896
1.8915,0.1955,37.6200,39,98,297900
1.8524,0.1857,37.4900,39,98,297903
1.8573,0.1857,37.6800,39,98,297906
1.8622,0.1857,36.7900,39,98,297910
1.8426,0.1857,37.7100,39,98,297913
1.8573,0.1955,37.4600,39,98,297916
1.8231,0.1857,37.7100,39,98,297920
1.8231,0.1857,37.7100,39,98,297923
1.8328,0.1955,37.6200,39,98,297926
1.8035,0.1857,37.7400,39,98,297930
1.8377,0.2053,37.3700,39,98,297933
1.8182,0.1906,37.5900,39,98,297936
1.7937,0.1857,37.7100,39,98,297940
1.7986,0.1857,37.6500,39,98,297944
1.7791,0.2053,37.7100,39,98,297947
1.8182,0.2004,37.3700,39,98,297950
1.7644,0.1857,37.5300,39,98,297954
1.7498,0.1808,37.6500,39,98,297957
1.7595,0.1857,37.6500,39,98,297960
1.7595,0.1857,37.6800,39,98,297964
1.8084,0.1906,37.4900,39,98,297967
1.7791,0.1906,37.7400,39,98,297970
1.7644,0.1906,37.5600,39,98,297974
1.7498,0.1906,37.7100,39,98,297977
1.7302,0.1857,37.6500,39,98,297980
1.7498,0.1906,37.8300,39,98,297985
1.7302,0.1906,37.6500,39,98,297988
1.7351,0.1906,37.5600,39,98,297991
1.7204,0.1857,37.6800,39,98,297994
1.7253,0.1857,37.7100,39,98,297998
1.7546,0.1955,37.5600,39,98,298001
1.7302,0.1857,37.6500,39,98,298004
1.7498,0.1857,37.5300,39,98,298008
1.7107,0.1906,37.6200,39,98,298011
1.6960,0.1857,37.7100,39,98,298014
1.7009,0.1955,37.5300,39,98,298018
1.6716,0.1857,37.6800,39,98,298021
1.6960,0.2248,37.4600,39,98,298024
1.7302,0.1955,37.4300,39,98,298029
1.7009,0.1955,37.5600,39,98,298032
1.7204,0.1808,37.6500,39,98,298035
1.7644,0.1857,37.6500,39,98,298039
1.8328,0.1857,37.7700,39,98,298042
2.0039,0.2004,37.4600,39,98,298045
2.0674,0.1906,37.6500,39,98,298049
2.1652,0.1808,37.5900,39,98,298052
2.2581,0.1906,37.6800,39,98,298055
2.3069,0.2053,37.7400,39,98,298059
2.3656,0.1906,37.4900,39,98,298062
2.2483,0.1955,37.6200,39,98,298065
2.1701,0.1857,37.5600,39,98,298070
2.0528,0.1906,37.6800,39,98,298073
1.9453,0.1808,37.6800,39,98,298076
1.9013,0.1906,37.5900,39,98,298079
1.8182,0.1857,37.6500,39,98,298083
1.7937,0.1906,37.5600,39,98,298086
1.7595,0.1857,37.7100,39,98,298089
1.7449,0.1857,37.9000,39,98,298093
1.7204,0.1857,37.5600,39,98,298096
1.6325,0.1857,37.7100,39,98,298099
1.5640,0.1857,37.4900,39,98,298103
1.4516,0.1857,37.7400,39,98,298106
1.3734,0.1857,36.9100,39,98,298109
1.3196,0.1955,37.6500,39,98,298113
1.2952,0.2395,37.6800,39,98,298117
1.3392,0.1906,37.4300,39,98,298120
1.3734,0.1955,37.6800,39,98,298123
1.4321,0.1857,37.7400,39,98,298127
1.5249,0.1906,37.6500,39,98,298130
1.5934,0.1857,37.8700,39,98,298133
1.7351,0.1955,37.3400,39,98,298137
1.7595,0.1955,37.5600,39,98,298140
1.8133,0.1808,37.6800,39,98,298143
1.8719,0.2004,37.6500,39,98,298147
1.9062,0.1711,37.6800,39,98,298150
1.9892,0.2004,37.4900,39,98,298153
1.9746,0.1906,37.5900,39,98,298157
1.9599,0.1808,37.6800,39,98,298161
1.9501,0.1808,37.6800,39,98,298164
1.9501,0.1857,37.8300,39,98,298167
1.9746,0.1955,37.5600,39,98,298171
1.9453,0.1857,37.6800,39,98,298174
1.9599,0.1955,37.5600,39,98,298177
1.9355,0.1906,37.6800,39,98,298181
1.9355,0.1808,37.7100,39,98,298184
1.9697,0.2004,37.5600,39,98,298187
1.9355,0.1906,37.7100,39,98,298191
1.9550,0.1857,37.5600,39,98,298194
1.9159,0.1808,37.6800,39,98,298198
1.9013,0.1906,37.6800,39,98,298201
1.9110,0.1906,37.5600,39,98,298205
1.8817,0.2053,37.6800,39,98,298208
1.9013,0.1857,37.4600,39,98,298211
1.8719,0.1808,37.6800,39,98,298215
1.8719,0.1857,37.6800,39,98,298218
1.8866,0.1955,37.5600,39,98,298221
1.8573,0.1515,37.6800,39,98,298225
1.8964,0.2004,37.4300,39,98,298228
1.8524,0.1808,37.7400,39,98,298231
1.8573,0.1906,37.7100,39,98,298234
1.8622,0.1906,37.6500,39,98,298238
1.8719,0.1906,37.7100,39,98,298242
1.8964,0.1955,37.4000,39,98,298245
1.8573,0.1906,37.5600,39,98,298249
1.8768,0.1857,37.7100,39,98,298252
1.8475,0.1955,37.6800,39,98,298255
1.8328,0.1857,37.6800,39,98,298259
1.8719,0.2004,37.4600,39,98,298262
1.8280,0.1906,37.6500,39,98,298265
1.8084,0.1857,37.5900,39,98,298268
1.8035,0.1808,37.6800,39,98,298272
1.7986,0.1857,37.6800,39,98,298275
1.8328,0.1906,37.5300,39,98,298278
1.8182,0.1906,37.6500,39,98,298283
1.8280,0.2248,37.6200,39,98,298286
1.8182,0.1857,37.7100,39,98,298289
1.8328,0.1906,37.6800,39,98,298293
1.8622,0.1906,37.5300,39,98,298296
1.8573,0.1808,37.6500,39,98,298299
1.9013,0.1906,37.6200,39,98,298302
1.8964,0.1857,37.6800,39,98,298306
1.9159,0.1857,37.6200,39,98,298309
1.9648,0.1906,37.6200,39,98,298312
1.9550,0.1857,37.7400,39,98,298316
1.9990,0.1857,37.4900,39,98,298319
1.9892,0.1857,37.6500,39,98,298322
2.0186,0.1906,37.6800,39,98,298327
2.0283,0.1906,37.5600,39,98,298330
2.0381,0.1857,37.6800,39,98,298333
2.0626,0.1906,37.4600,39,98,298336
2.0381,0.1906,37.5900,39,98,298340
2.0332,0.1857,37.7400,39,98,298343
2.0528,0.1906,37.7100,39,98,298346
2.0235,0.1808,37.6800,39,98,298350
2.0674,0.1955,37.4300,39,98,298353
2.0137,0.1857,37.5900,39,98,298356
2.0088,0.1857,37.7100,39,98,298360
2.0137,0.1906,37.7100,39,98,298363
2.0137,0.1808,37.6800,39,98,298366
2.0381,0.2004,37.4300,39,98,298370
1.9941,0.1906,37.6200,39,98,298374
1.9746,0.1808,37.6500,39,98,298377
1.9697,0.1808,37.6500,39,98,298380
1.9648,0.1857,37.7400,39,98,298384
1.9990,0.1955,37.4900,39,98,298387
1.9550,0.1906,37.6200,39,98,298390
1.9453,0.1857,37.6200,39,98,298394
1.9257,0.1857,37.6800,39,98,298397
1.9159,0.1906,37.6800,39,98,298400
1.9404,0.1955,37.5600,39,98,298403
1.9159,0.1857,37.6800,39,98,298407
1.9306,0.1857,37.5600,39,98,298411
1.9062,0.1808,37.7100,39,98,298414
1.9013,0.1857,37.6800,39,98,298418
1.8964,0.1857,37.5900,39,98,298421
1.8866,0.1857,37.6500,39,98,298424
1.9062,0.1857,37.5600,39,98,298428
1.8573,0.1808,37.6800,39,98,298431
1.8524,0.1857,37.7100,39,98,298434
1.8671,0.1955,37.5300,39,98,298438
1.8377,0.1857,37.6800,39,98,298441
1.8964,0.1955,37.4300,39,98,298444
1.8377,0.1857,37.5900,39,98,298447
1.8133,0.1711,37.6800,39,98,298451
1.8231,0.1955,37.6500,39,98,298455
1.7937,0.1857,37.7400,39,98,298458
1.8280,0.2297,37.4000,39,98,298462
1.7937,0.1906,37.5900,39,98,298465
1.7791,0.1906,37.7100,39,98,298468
1.7889,0.1906,37.7100,39,98,298472
1.7791,0.1857,37.7100,39,98,298475
1.8231,0.2053,37.4000,39,98,298478
1.7986,0.1906,37.6800,39,98,298482
1.7693,0.1808,38.1500,39,98,298485
1.7644,0.1955,37.6500,39,98,298488
1.7498,0.1857,37.7100,39,98,298491
1.7937,0.1906,37.5600,39,98,298496
1.7595,0.1906,37.9000,39,98,298499
1.7498,0.1955,37.5600,39,98,298502
1.7351,0.2004,37.6800,39,98,298506
1.7302,0.1857,37.7100,39,98,298509
1.7595,0.1906,37.5600,39,98,298512
1.7302,0.1906,37.6800,39,98,298516
1.7400,0.1906,37.5300,39,98,298519
1.7107,0.1857,37.6800,39,98,298522
1.7009,0.1857,36.7900,39,98,298525
1.7204,0.1906,37.5600,39,98,298529
1.6960,0.1857,37.6500,39,98,298532
1.7351,0.1857,37.5900,39,98,298535
1.6862,0.1808,37.7400,39,98,298540
1.7058,0.1711,37.6800,39,98,298543
1.7107,0.1906,37.4000,39,98,298546
1.7009,0.2004,37.6800,39,98,298550
1.7351,0.1857,37.4600,39,98,298553
1.7253,0.1906,37.7100,39,98,298556
1.7400,0.1857,37.6800,39,98,298559
1.7742,0.1955,37.6200,39,98,298563
1.7693,0.1857,37.5900,39,98,298566
1.8280,0.1857,37.4300,39,98,298569
1.8280,0.1906,37.7100,39,98,298573
1.8280,0.1955,37.6800,39,98,298576
1.8524,0.1906,37.7100,39,98,298579
1.8719,0.1711,37.6800,39,98,298584
1.9355,0.2053,37.4000,39,98,298587
1.9110,0.1906,37.5600,39,98,298590
1.9013,0.1808,37.6200,39,98,298594
1.9110,0.1906,37.6800,39,98,298597
1.9013,0.1857,37.6800,39,98,298600
1.9453,0.2004,37.4900,39,98,298603
1.9208,0.1955,37.5900,39,98,298607
1.9159,0.1857,37.5600,39,98,298610
1.9110,0.1857,37.5600,39,98,298613
1.9110,0.1857,37.6800,39,98,298617
1.9355,0.1955,37.6200,39,98,298620
1.9159,0.1906,37.6800,39,98,298624
1.9355,0.1906,38.0800,39,98,298628
1.9013,0.1857,37.6800,39,98,298631
1.9062,0.1857,37.7100,39,98,298634
1.9404,0.1906,37.5600,39,98,298637
1.9257,0.1906,37.6200,39,98,298641
1.8964,0.1857,37.6200,39,98,298644
1.9306,0.1955,37.4300,39,98,298648
1.9013,0.1906,37.5900,39,98,298651
1.8866,0.1955,37.7100,39,98,298654
1.9013,0.1906,37.7100,39,98,298658
1.8866,0.1955,37.6800,39,98,298661
1.9306,0.1955,37.3700,39,98,298664
1.8817,0.1808,37.5600,39,98,298669
1.8719,0.1808,37.7100,39,98,298672
1.8622,0.1808,37.6500,39,98,298675
1.8573,0.1857,37.6800,39,98,298678
1.9110,0.2053,37.4900,39,98,298682
1.8671,0.1906,37.5300,39,98,298685
1.8573,0.1760,37.6200,39,98,298688
1.8524,0.2151,37.6800,39,98,298692
1.8475,0.1857,37.7100,39,98,298695
1.8768,0.1955,37.5300,39,98,298698
1.8475,0.1906,37.7100,39,98,298702
1.8817,0.1808,37.5300,39,98,298705
1.8280,0.1857,37.7700,39,98,298708
1.8231,0.1857,37.7100,39,98,298713
1.8426,0.2004,37.5300,39,98,298716
1.8280,0.1808,37.6800,39,98,298719
1.8426,0.1955,37.5600,39,98,298722
1.8035,0.1955,37.6500,39,98,298726
1.7986,0.1857,37.6800,39,98,298729
1.8035,0.1760,37.5600,39,98,298732
1.7889,0.1857,37.6800,39,98,298736
1.8084,0.1760,37.4900,39,98,298739
1.7840,0.1857,37.6800,39,98,298742
1.7791,0.1808,37.7100,39,98,298746
1.7937,0.1955,37.6500,39,98,298749
1.7742,0.1857,37.7100,39,98,298753
1.8084,0.1857,37.4000,39,98,298757
1.7840,0.1906,37.6200,39,98,298760
1.7546,0.1857,37.7100,39,98,298763
1.7644,0.1906,37.6500,39,98,298766
1.7498,0.1857,37.7400,39,98,298770
1.7889,0.1955,37.3700,39,98,298773
1.7498,0.1955,37.4900,39,98,298776
1.7449,0.1808,37.6500,39,98,298780
1.7546,0.1857,37.6800,39,98,298783
1.7498,0.1857,37.6800,39,98,298786
1.7986,0.1955,37.3100,39,98,298790
1.7742,0.1906,37.6200,39,98,298793
1.7693,0.2151,37.6200,39,98,298797
1.7693,0.1906,37.7700,39,98,298800
1.8035,0.1711,37.6800,39,98,298804
1.8328,0.1955,37.6200,39,98,298807
1.8182,0.1857,37.6800,39,98,298810
1.8622,0.1906,37.5300,39,98,298814
1.8573,0.1857,37.7100,39,98,298817
1.8768,0.1857,37.6800,39,98,298820
1.9208,0.1955,37.5900,39,98,298824
1.9257,0.1906,37.6800,39,98,298827
1.9404,0.1906,36.7000,39,98,298830
1.9208,0.1760,37.6200,39,98,298834
1.9306,0.1857,37.2800,39,98,298838
1.9599,0.1906,37.5900,39,98,298841
1.9404,0.1857,37.2500,39,98,298844
1.9697,0.1955,37.4600,39,98,298848
1.9404,0.1857,37.5900,39,98,298851
1.9355,0.1857,37.7100,39,98,298854
1.9599,0.2004,37.6800,39,98,298858
1.9355,0.2053,37.6800,39,98,298861
1.9844,0.1955,37.4000,39,98,298864
1.9257,0.2053,37.6200,39,98,298868
1.9257,0.1711,37.7400,39,98,298871
1.9257,0.2004,37.6800,39,98,298874
1.9159,0.1857,37.7100,39,98,298877
1.9697,0.2053,37.3700,39,98,298882
1.9257,0.1906,37.6200,39,98,298885
1.9110,0.1857,37.6500,39,98,298888
1.9110,0.1906,37.6800,39,98,298892
1.8964,0.1857,37.6500,39,98,298895
1.9453,0.2004,37.4900,39,98,298898
1.9110,0.2004,37.6200,39,98,298902
1.8964,0.1857,37.6200,39,98,298905
1.8817,0.1906,37.7400,39,98,298908
1.8964,0.1808,37.7400,39,98,298911
1.9110,0.1955,37.5300,39,98,298915
1.8964,0.1808,37.6200,39,98,298918
1.9062,0.1857,37.5900,39,98,298921
1.8768,0.1857,37.6800,39,98,298926
1.8671,0.1857,37.9300,39,98,298929
1.8768,0.1857,37.5900,39,98,298932
1.8524,0.1906,37.6500,39,98,298936
1.8817,0.2004,37.6200,39,98,298939
1.8475,0.1906,37.6500,39,98,298942
1.8719,0.1857,37.6800,39,98,298945
1.8671,0.1955,37.5600,39,98,298949
1.8475,0.1857,37.6800,39,98,298952
1.8671,0.1955,37.5600,39,98,298955
1.8475,0.1906,37.6200,39,98,298959
1.8328,0.1955,37.6800,39,98,298962
1.8377,0.1955,37.5600,39,98,298966
1.8084,0.1955,37.7100,39,98,298970
1.8426,0.1906,37.4000,39,98,298973
1.8084,0.2053,37.5900,39,98,298976
1.7986,0.1808,37.6800,39,98,298980
1.8035,0.1906,37.7100,39,98,298983
1.7791,0.1857,37.7100,39,98,298986
1.8426,0.1955,37.4900,39,98,298989
1.8524,0.1955,37.5900,39,98,298993
1.9110,0.1808,37.6500,39,98,298996
2.0137,0.1906,37.6800,39,98,298999
2.0968,0.1857,37.6500,39,98,299003
2.2336,0.1906,37.4600,39,98,299006
2.2287,0.1906,37.5600,39,98,299010
2.1945,0.1808,37.6200,39,98,299014
2.0968,0.2004,37.6800,39,98,299017
1.9648,0.1906,37.6800,39,98,299020
1.8671,0.1955,37.4600,39,98,299023
1.7155,0.1955,37.6800,39,98,299027
1.6178,0.1857,37.5900,39,98,299030
1.5396,0.1808,37.6800,39,98,299033
1.5103,0.1857,37.7100,39,98,299037
1.5543,0.1955,37.5900,39,98,299040
1.5152,0.1906,37.7100,39,98,299043
1.5103,0.1955,37.5600,39,98,299047
1.4418,0.1857,37.9000,39,98,299051
1.3832,0.1711,37.6800,39,98,299054
1.3148,0.1906,37.5600,39,98,299057
1.2366,0.1857,37.6800,39,98,299061
1.2072,0.1857,37.4900,39,98,299064
1.1730,0.1857,37.6800,39,98,299067
1.1926,0.2199,37.7100,39,98,299071
1.2561,0.1955,37.7100,39,98,299074
1.3196,0.1955,37.7100,39,98,299077
1.4516,0.1955,37.4000,39,98,299081
1.5347,0.1955,37.6500,39,98,299084
1.6227,0.1808,37.6500,39,98,299087
1.7253,0.1955,37.6500,39,98,299091
1.8035,0.1857,37.6800,39,98,299095
1.9404,0.1955,37.4000,39,98,299098
1.9453,0.2004,37.5900,39,98,299101
1.9648,0.1808,37.6800,39,98,299105
1.9892,0.1906,37.5600,39,98,299108
1.9892,0.1906,37.6800,39,98,299111
2.0577,0.2053,37.4900,39,98,299115
2.0235,0.1955,37.5900,39,98,299118
2.0137,0.1857,37.6200,39,98,299121
2.0039,0.1857,37.8000,39,98,299125
2.0088,0.1711,37.7100,39,98,299128
2.0479,0.2004,37.4600,39,98,299131
1.9990,0.1808,37.7400,39,98,299134
2.0283,0.1808,37.5600,39,98,299139
1.9892,0.1857,37.7400,39,98,299142
1.9892,0.1808,37.7100,39,98,299145
2.0137,0.1955,37.4900,39,98,299149
1.9697,0.1955,37.6800,39,98,299152
1.9892,0.1955,37.5600,39,98,299155
1.9648,0.1857,37.7100,39,98,299159
1.9550,0.1955,37.6800,39,98,299162
1.9795,0.1906,37.5600,39,98,299165
1.9501,0.1955,37.7100,39,98,299168
1.9697,0.1857,37.5300,39,98,299172
1.9355,0.1906,37.6800,39,98,299175
1.9355,0.1857,37.8000,39,98,299179
1.9501,0.1955,37.5600,39,98,299183
1.9208,0.1906,37.5900,39,98,299186
1.9550,0.1857,37.4300,39,98,299189
1.9159,0.1857,37.7400,39,98,299193
1.9404,0.1808,37.6800,39,98,299196
1.9159,0.1906,37.7100,39,98,299199
1.8866,0.1711,37.7100,39,98,299203
1.9404,0.1955,37.3700,39,98,299206
1.9159,0.1906,37.6200,39,98,299209
1.8964,0.1857,37.6800,39,98,299212
1.9013,0.1906,37.6800,39,98,299216
1.8915,0.1857,37.6800,39,98,299219
1.9453,0.1906,37.4300,39,98,299223
1.8866,0.2053,37.5900,39,98,299227
1.8622,0.1857,37.6200,39,98,299230
1.8524,0.1955,37.6800,39,98,299233
1.8426,0.1857,37.7100,39,98,299237
1.8768,0.1955,37.5300,39,98,299240
1.8524,0.1906,37.7700,39,98,299243
1.8475,0.1955,37.6200,39,98,299246
1.8328,0.1906,37.7100,39,98,299250
1.8035,0.1857,37.7100,39,98,299253
1.8084,0.1906,37.6500,39,98,299257
1.8280,0.1955,37.6200,39,98,299260
1.8035,0.1906,37.6800,39,98,299264
1.8280,0.1711,37.4300,39,98,299268
1.8133,0.1906,37.6200,39,98,299271
1.8133,0.1906,37.7100,39,98,299274
1.8084,0.2248,37.6500,39,98,299278
1.7791,0.1857,37.6800,39,98,299281
1.8182,0.1955,37.4000,39,98,299284
1.7840,0.1906,37.6200,39,98,299288
1.7742,0.1857,37.6800,39,98,299291
1.7937,0.1906,37.6500,39,98,299294
1.7937,0.2248,37.7100,39,98,299297
1.8573,0.2053,37.4600,39,98,299301
1.8280,0.1857,37.5600,39,98,299304
1.8328,0.1857,37.6200,39,98,299308
1.8426,0.1955,37.6500,39,98,299312
1.8475,0.1857,37.6800,39,98,299315
1.9013,0.2004,37.5300,39,98,299318
1.8964,0.1955,37.7700,39,98,299322
1.9257,0.1808,37.6200,39,98,299325
1.9257,0.1955,37.6800,39,98,299328
1.9453,0.1906,37.7400,39,98,299332
1.9990,0.1955,37.4900,39,98,299335
1.9795,0.1906,37.9000,39,98,299338
2.0039,0.1955,37.5600,39,98,299341
1.9844,0.1906,37.7100,39,98,299345
1.9892,0.1906,37.6800,39,98,299348
2.0137,0.1906,37.5600,39,98,299352
1.9844,0.2199,37.6800,39,98,299356
2.0088,0.1857,37.5300,39,98,299359
1.9746,0.1808,37.6500,39,98,299362
1.9844,0.1857,37.6800,39,98,299366
1.9990,0.2102,37.5300,39,98,299369
1.9746,0.1857,37.7100,39,98,299372
2.0088,0.1906,37.4300,39,98,299375
1.9697,0.1857,37.7100,39,98,299379
1.9648,0.1906,37.7400,39,98,299382
1.9892,0.2004,37.5900,39,98,299385
1.9501,0.2151,37.6800,39,98,299389
1.9892,0.1955,37.4000,39,98,299393
1.9550,0.2151,37.5300,39,98,299396
1.9306,0.1857,37.7400,39,98,299400
1.9648,0.1955,37.6800,39,98,299403
1.9208,0.1857,37.7400,39,98,299406
1.9697,0.2444,37.3700,39,98,299409
1.9208,0.1857,37.4300,39,98,299413
1.9062,0.1857,37.6800,39,98,299416
1.9110,0.1906,37.6800,39,98,299419
1.9013,0.1955,37.7100,39,98,299423
1.9501,0.2004,37.4600,39,98,299426
1.9208,0.1955,37.6200,39,98,299429
1.9062,0.1906,37.5600,39,98,299433
1.8866,0.2004,37.6800,39,98,299437
1.8719,0.1857,37.8000,39,98,299440
1.8964,0.1955,37.6500,39,98,299443
1.8768,0.1906,37.6500,39,98,299447
1.8817,0.2151,37.5300,39,98,299450
1.8524,0.1906,37.5300,39,98,299453
1.8475,0.1711,37.7100,39,98,299457
1.8671,0.1955,37.5600,39,98,299460
1.8377,0.1906,37.6800,39,98,299463
1.8524,0.1857,37.5300,39,98,299467
1.8133,0.1857,37.6500,39,98,299470
1.8035,0.1906,37.7100,39,98,299473
1.8182,0.1906,37.5300,39,98,299478
1.7889,0.1711,37.6800,39,98,299481
1.8231,0.1906,37.4600,39,98,299484
1.8182,0.1906,37.5900,39,98,299487
1.7889,0.1857,37.7400,39,98,299491
1.8035,0.1955,37.5900,39,98,299494
1.7742,0.1906,37.7100,39,98,299497
1.8084,0.2102,37.4000,39,98,299501
1.7644,0.1857,37.6800,39,98,299504
1.7693,0.1808,37.7100,39,98,299507
1.7742,0.1906,37.6800,39,98,299511
1.7742,0.1906,37.6800,39,98,299514
1.8035,0.2053,37.5300,39,98,299517
1.7644,0.1906,37.6200,39,98,299521
1.7400,0.1808,37.6500,39,98,299525
1.7449,0.2004,37.6800,39,98,299528
1.7449,0.1906,37.6800,39,98,299531
1.8084,0.1955,37.4900,39,98,299535
1.8231,0.1906,37.6200,39,98,299538
1.8915,0.2199,37.5900,39,98,299541
1.9795,0.1906,37.7100,39,98,299545
2.0626,0.1808,37.7100,39,98,299548
2.1750,0.1955,37.5600,39,98,299551
2.1896,0.1955,37.6500,39,98,299554
2.1652,0.1906,37.5600,39,98,299558
2.0479,0.1906,37.7100,39,98,299561
1.9257,0.1906,37.6800,39,98,299565
1.7986,0.1857,37.6500,39,98,299569
1.7009,0.1906,37.6500,39,98,299572
1.5982,0.1955,37.6200,39,98,299575
1.5249,0.1857,37.7400,39,98,299579
1.5200,0.1906,37.7100,39,98,299582
1.5543,0.1955,37.5600,39,98,299585
1.5445,0.1760,37.6500,39,98,299589
1.5445,0.1906,37.4600,39,98,299592
1.4907,0.1857,37.5900,39,98,299595
1.4712,0.1808,37.7100,39,98,299598
1.3930,0.2248,37.5900,39,98,299602
1.3441,0.1906,37.7100,39,98,299606
1.3441,0.1955,37.3400,39,98,299609
1.3148,0.1906,37.6200,39,98,299613
1.3490,0.1857,37.7100,39,98,299616
1.4223,0.1906,37.6200,39,98,299619
1.4809,0.1906,37.6800,39,98,299623
1.6276,0.2004,37.4000,39,98,299626
1.6667,0.1857,36.8800,39,98,299629
1.7449,0.1808,37.6800,39,98,299632
1.8280,0.1906,37.7700,39,98,299636
1.8768,0.1711,37.6800,39,98,299639
1.9892,0.2053,37.4600,39,98,299642
1.9746,0.1955,37.6200,39,98,299646
1.9892,0.1857,37.6200,39,98,299650
1.9941,0.1906,37.6800,39,98,299653
1.9990,0.1906,37.7100,39,98,299657
2.0381,0.1906,37.4900,39,98,299660
2.0088,0.1857,37.6200,39,98,299663
2.0186,0.1955,37.5600,39,98,299666
1.9892,0.1906,37.7100,39,98,299670
1.9844,0.1955,37.7100,39,98,299673
2.0088,0.1955,37.5900,39,98,299676
1.9844,0.1857,37.6500,39,98,299680
2.0039,0.1906,37.5600,39,98,299683
1.9697,0.1906,37.9000,39,98,299686
1.9697,0.1906,37.6800,39,98,299691
1.9648,0.1906,37.6800,39,98,299694
1.9501,0.1857,37.6800,39,98,299697
1.9697,0.1955,37.4900,39,98,299700
1.9355,0.1808,37.6800,39,98,299704
1.9404,0.1857,37.7100,39,98,299707
1.9599,0.1955,37.5600,39,98,299710
1.9306,0.2102,37.6800,39,98,299714
1.9990,0.1906,37.4300,39,98,299717
1.9355,0.1906,37.4600,39,98,299720
1.9159,0.1857,37.6800,39,98,299724
1.9355,0.1955,37.5900,39,98,299727
1.9306,0.1711,37.7100,39,98,299730
1.9453,0.2053,37.4000,39,98,299734
1.9013,0.1906,37.5600,39,98,299738
1.8817,0.1955,37.7100,39,98,299741
1.8915,0.1857,37.6500,39,98,299744
1.8719,0.2444,37.6800,39,98,299748
1.9355,0.2053,37.4600,39,98,299751
1.9257,0.2004,37.5900,39,98,299754
1.8768,0.1857,37.6800,39,98,299758
1.8719,0.1906,37.6800,39,98,299761
1.8671,0.1857,37.7100,39,98,299764
1.9062,0.2004,37.5600,39,98,299768
1.8768,0.2053,37.6800,39,98,299771
1.8866,0.1711,37.5600,39,98,299774
1.8817,0.1906,37.7100,39,98,299778
1.8671,0.1906,37.5300,39,98,299782
1.8915,0.1955,37.5300,39,98,299785
1.8671,0.1808,37.6500,39,98,299788
1.8866,0.1955,37.5900,39,98,299792
1.8524,0.1955,37.6800,39,98,299795
1.8475,0.1857,37.7100,39,98,299798
1.8671,0.1955,37.5600,39,98,299802
1.8475,0.1906,37.6800,39,98,299805
1.8866,0.1857,37.4900,39,98,299808
1.8475,0.1857,37.9000,39,98,299812
1.8671,0.1857,37.6800,39,98,299815
1.8817,0.2004,37.6500,39,98,299819
1.8671,0.1857,37.6800,39,98,299822
1.9110,0.1955,37.5900,39,98,299826
1.8915,0.1711,37.6500,39,98,299829
1.8964,0.1857,37.7400,39,98,299832
1.9208,0.1955,37.6500,39,98,299836
1.9208,0.1808,37.7100,39,98,299839
1.9892,0.2004,37.4600,39,98,299842
1.9697,0.1955,37.5900,39,98,299846
1.9648,0.1857,37.6500,39,98,299849
1.9795,0.1906,37.6800,39,98,299852
1.9844,0.1857,37.8000,39,98,299856
2.0674,0.2004,37.4600,39,98,299859
1.9990,0.1955,37.5900,39,98,299864
1.9648,0.1906,37.6500,39,98,299867
1.9746,0.1906,37.4600,39,98,299870
1.9648,0.1808,37.6800,39,98,299873
1.9404,0.1906,37.9600,39,98,299877
1.9404,0.1955,37.7100,39,98,299880
1.9306,0.1906,37.6800,39,98,299883
1.9453,0.1906,37.5600,39,98,299887
1.9062,0.1906,37.7700,39,98,299890
1.9013,0.1906,37.7400,39,98,299893
1.9208,0.1955,37.5300,39,98,299897
1.8866,0.1906,37.7100,39,98,299900
1.9208,0.1955,37.5300,39,98,299904
1.8964,0.1955,37.5600,39,98,299907
1.8817,0.1857,37.7100,39,98,299911
1.8964,0.1955,37.6200,39,98,299914
1.8671,0.1906,37.7400,39,98,299917
1.9062,0.1955,37.4000,39,98,299921
1.8671,0.1955,37.6200,39,98,299924
1.8524,0.1857,37.6800,39,98,299927
1.8671,0.1857,37.6500,39,98,299931
1.8622,0.1906,37.6800,39,98,299934
1.9110,0.2053,37.4300,39,98,299937
1.8671,0.2004,37.4900,39,98,299940
1.8426,0.1857,37.5900,39,98,299944
1.8377,0.1906,37.7100,39,98,299948
1.8280,0.1955,37.6800,39,98,299951
1.8622,0.1906,37.5600,39,98,299955
1.8328,0.2151,37.6200,39,98,299958
1.8231,0.1906,37.5600,39,98,299961
1.8231,0.1906,37.6800,39,98,299965
1.8133,0.1906,37.8000,39,98,299968
1.8426,0.2004,37.5300,39,98,299971
1.8084,0.1906,37.8300,39,98,299975
1.8133,0.1955,37.5300,39,98,299978
1.7840,0.1906,37.7100,39,98,299981
1.7742,0.2102,37.7100,39,98,299984
1.7937,0.2004,37.5600,39,98,299988
1.7791,0.2004,37.6800,39,98,299992
1.8035,0.1906,37.5300,39,98,299995
1.7693,0.1857,37.6200,39,98,299999
1.7644,0.1906,37.8300,39,98,300002
1.7742,0.1955,37.5300,39,98,300005
1.7498,0.1906,37.6800,39,98,300009
1.7791,0.1906,37.4900,39,98,300012
1.7449,0.1906,37.8300,39,98,300015
1.7449,0.2004,37.7100,39,98,300018
1.7595,0.1906,37.6500,39,98,300022
1.7400,0.1857,37.7100,39,98,300025
1.7840,0.1906,37.4000,39,98,300028
1.7546,0.1955,37.5900,39,98,300033
1.7595,0.1808,37.6800,39,98,300036
1.7351,0.1906,37.6500,39,98,300039
1.7204,0.1906,37.7100,39,98,300043
1.7546,0.2102,37.4000,39,98,300046
1.7204,0.1906,37.5900,39,98,300049
1.7155,0.1857,37.6500,39,98,300052
1.7791,0.1906,37.7100,39,98,300056
1.8475,0.1906,37.6800,39,98,300059
1.9990,0.2004,37.5300,39,98,300062
2.0626,0.2004,37.4900,39,98,300066
2.1359,0.1857,37.5900,39,98,300069
2.1701,0.1906,37.7100,39,98,300072
2.1457,0.1906,37.7100,39,98,300077
2.0870,0.2004,37.6200,39,98,300080
1.9453,0.1857,37.6500,39,98,300083
1.8328,0.1906,37.6800,39,98,300086
1.7009,0.1906,37.7700,39,98,300090
1.6227,0.1906,37.8000,39,98,300093
1.6325,0.1955,37.5600,39,98,300096
1.5591,0.2199,37.6800,39,98,300100
1.5934,0.1906,37.5300,39,98,300103
1.5836,0.1857,37.6800,39,98,300106
1.5885,0.1857,37.6800,39,98,300110
1.5934,0.1955,37.5900,39,98,300113
1.4907,0.1906,37.1600,39,98,300116
1.4712,0.2004,37.4600,39,98,300121
1.3636,0.1906,37.5900,39,98,300124
1.3148,0.1857,37.6800,39,98,300127
1.3148,0.2004,36.7600,39,98,300130
1.3050,0.1857,37.6800,39,98,300134
1.3881,0.1906,37.4300,39,98,300137
1.4174,0.1955,37.6200,39,98,300140
1.5152,0.1857,37.6800,39,98,300144
1.6129,0.1906,37.6500,39,98,300147
1.7009,0.2199,37.7100,39,98,300150
1.8377,0.1906,37.4300,39,98,300154
1.8719,0.2004,37.6200,39,98,300157
1.9110,0.1808,37.6800,39,98,300161
1.9599,0.1857,37.6500,39,98,300164
1.9795,0.1906,37.6800,39,98,300168
2.0430,0.1955,37.4900,39,98,300171
2.0235,0.1906,37.6800,39,98,300174
2.0137,0.1857,37.7100,39,98,300178
2.0039,0.1955,37.6800,39,98,300181
2.0039,0.1906,37.7100,39,98,300184
2.0381,0.1955,37.7100,39,98,300188
2.0186,0.1857,37.6500,39,98,300191
2.0332,0.1906,37.5600,39,98,300194
2.0039,0.1955,37.6800,39,98,300197
1.9990,0.1906,37.7400,39,98,300201
2.0039,0.1955,37.6500,39,98,300205
1.9892,0.1906,37.7100,39,98,300208
1.9990,0.1955,37.5300,39,98,300212
1.9599,0.1906,37.6800,39,98,300215
1.9648,0.1906,37.7400,39,98,300218
1.9844,0.1906,37.5600,39,98,300222
1.9599,0.1955,37.7100,39,98,300225
1.9844,0.1906,37.4600,39,98,300228
1.9599,0.1857,37.6200,39,98,300231
1.9453,0.1857,37.7100,39,98,300235
1.9550,0.1906,37.5600,39,98,300238
1.9208,0.1906,37.7700,39,98,300241
1.9501,0.2346,37.4300,39,98,300246
1.9110,0.1955,37.5900,39,98,300249
1.8915,0.1906,37.7100,39,98,300252
1.9062,0.1955,37.6500,39,98,300256
1.8817,0.1955,37.6800,39,98,300259
1.9306,0.2004,37.3700,39,98,300262
1.8817,0.1955,37.5600,39,98,300265
1.8719,0.1857,37.7100,39,98,300269
1.8719,0.1955,37.6800,39,98,300272
1.8671,0.1906,37.7100,39,98,300275
1.9453,0.1906,37.4600,39,98,300279
1.8817,0.1906,37.6500,39,98,300282
1.8719,0.1906,37.5900,39,98,300285
1.8671,0.1906,37.6800,39,98,300290
1.8671,0.1906,37.6800,39,98,300293
1.8964,0.2004,37.4900,39,98,300296
1.8573,0.1906,37.6800,39,98,300300
1.8671,0.1906,37.5900,39,98,300303
1.8573,0.1955,37.6800,39,98,300306
1.8328,0.1906,37.9300,39,98,300309
1.8719,0.1955,37.5600,39,98,300313
1.8377,0.1906,37.6200,39,98,300316
1.9013,0.2004,37.6200,39,98,300319
1.8426,0.1906,37.7100,39,98,300323
1.8475,0.1808,37.7400,39,98,300326
1.8719,0.1906,37.5600,39,98,300329
1.8719,0.1808,37.6800,39,98,300334
1.8964,0.1906,37.5300,39,98,300337
1.8915,0.1808,37.6800,39,98,300340
1.8964,0.1906,37.7100,39,98,300343
1.9306,0.1955,37.6200,39,98,300347
1.9306,0.1906,37.7400,39,98,300350
1.9892,0.1955,37.4000,39,98,300353
1.9844,0.1955,37.5600,39,98,300357
1.9892,0.1808,37.7400,39,98,300360
2.0186,0.1955,37.6800,39,98,300363
2.0137,0.1808,37.6500,39,98,300367
2.0723,0.2004,37.4300,39,98,300370
2.0332,0.2297,37.5900,39,98,300374
2.0283,0.1711,37.6800,39,98,300377
2.0283,0.1955,37.8000,39,98,300381
2.0088,0.1906,37.7100,39,98,300384
2.1017,0.2102,37.4300,39,98,300387
2.0137,0.1906,37.5600,39,98,300391
1.9892,0.1906,37.6500,39,98,300394
1.9795,0.1906,37.6800,39,98,300397
1.9746,0.1711,37.7100,39,98,300401
2.0039,0.2053,37.5600,39,98,300404
1.9648,0.1955,37.6500,39,98,300407
1.9599,0.1906,37.6800,39,98,300410
1.9404,0.1906,37.6800,39,98,300414
1.9355,0.1906,37.7400,39,98,300418
1.9599,0.2004,37.5300,39,98,300421
1.9159,0.2248,37.6500,39,98,300425
1.9257,0.1906,37.5300,39,98,300428
1.8915,0.1955,37.6800,39,98,300431
1.8866,0.1906,37.6800,39,98,300435
1.9013,0.2297,37.5600,39,98,300438
1.8768,0.1906,37.6800,39,98,300441
1.9013,0.1906,37.5900,39,98,300444
1.8671,0.1711,37.6500,39,98,300448
1.8719,0.2004,37.6800,39,98,300451
1.8915,0.1906,37.5300,39,98,300454
1.8671,0.1955,37.7100,39,98,300459
1.8964,0.1906,37.4300,39,98,300462
1.8475,0.1906,37.6800,39,98,300465
1.8426,0.1857,37.6800,39,98,300469
1.8573,0.2395,37.6200,39,98,300472
1.8035,0.1857,37.6800,39,98,300476
1.8035,0.1711,37.6800,39,98,300479
1.8475,0.2053,37.4900,39,98,300482
1.8133,0.1955,37.6800,39,98,300486
1.7986,0.1906,37.5600,39,98,300489
1.7840,0.1955,37.6800,39,98,300492
1.7791,0.1906,37.6500,39,98,300495
1.8133,0.2004,37.5600,39,98,300499
1.7889,0.1906,37.6500,39,98,300503
1.8035,0.1955,37.5600,39,98,300506
1.7693,0.1906,37.7100,39,98,300510
1.7595,0.1857,37.7100,39,98,300513
1.7644,0.1906,37.5900,39,98,300516
1.7791,0.1955,37.6800,39,98,300520
1.7693,0.1955,37.5900,39,98,300523
1.7400,0.1906,37.7100,39,98,300526
1.7351,0.1906,37.7400,39,98,300529
1.7595,0.1955,37.5600,39,98,300533
1.7498,0.1906,37.7100,39,98,300536
1.7595,0.1906,37.4000,39,98,300539
1.7400,0.1955,37.5600,39,98,300544
1.7302,0.1906,37.7100,39,98,300547
1.7742,0.2004,37.5900,39,98,300550
1.7058,0.1906,37.6800,39,98,300554
1.7351,0.2346,37.4300,39,98,300557
1.7009,0.1906,37.6200,39,98,300560
1.6862,0.1906,37.7400,39,98,300563
1.7009,0.1955,37.6800,39,98,300567
1.7204,0.1906,37.9000,39,98,300570
1.8133,0.2151,37.3700,39,98,300573
1.8622,0.1906,37.5600,39,98,300577
1.9648,0.1808,37.6800,39,98,300580
2.0577,0.1906,37.6500,39,98,300583
2.1359,0.1906,37.6800,39,98,300588
2.2630,0.2102,37.4600,39,98,300591
2.2336,0.1955,37.6200,39,98,300594
2.1408,0.1906,37.5900,39,98,300597
2.0235,0.1955,37.6800,39,98,300601
1.8964,0.1857,37.6800,39,98,300604
1.8328,0.1906,37.4900,39,98,300607
1.7009,0.1955,37.6500,39,98,300611
1.6520,0.1955,37.5600,39,98,300614
1.6178,0.1906,37.7100,39,98,300617
1.6276,0.1955,37.6800,39,98,300621
1.6569,0.1955,37.5600,39,98,300624
1.6422,0.1906,37.6500,39,98,300627
1.5982,0.1955,37.5300,39,98,300632
1.5152,0.1906,37.7100,39,98,300635
1.4370,0.2151,37.5900,39,98,300638
1.3734,0.1906,37.5600,39,98,300641
1.3196,0.2395,37.7100,39,98,300645
1.3050,0.1906,37.4900,39,98,300648
1.3050,0.2004,37.6800,39,98,300651
1.3490,0.1906,37.6800,39,98,300655
1.4418,0.1955,37.6500,39,98,300658
1.5152,0.1906,37.7100,39,98,300661
1.6373,0.1955,37.4300,39,98,300665
1.7107,0.1955,37.7100,39,98,300668
1.7840,0.1808,37.7100,39,98,300672
1.8719,0.1955,37.7700,39,98,300675
1.9306,0.1808,37.6800,39,98,300679
2.0088,0.2004,37.2800,39,98,300682
2.0283,0.1906,37.5600,39,98,300685
1.9990,0.1857,37.6800,39,98,300689
2.0137,0.1906,37.6800,39,98,300692
2.0186,0.1711,37.7100,39,98,300695
2.0772,0.2053,37.4300,39,98,300699
2.0332,0.2004,37.5900,39,98,300702
2.0137,0.1857,37.7400,39,98,300705
2.0186,0.1955,37.6800,39,98,300708
1.9892,0.1906,37.9600,39,98,300712
2.0137,0.2004,37.5600,39,98,300716
1.9795,0.1906,37.6200,39,98,300719
1.9746,0.1906,37.5300,39,98,300723
1.9550,0.1906,37.7100,39,98,300726
1.9501,0.2151,37.6800,39,98,300729
1.9795,0.2004,37.5300,39,98,300733
1.9501,0.1955,37.6800,39,98,300736
1.9697,0.1906,37.5300,39,98,300739
1.9355,0.1906,37.6800,39,98,300742
1.9257,0.1906,37.7100,39,98,300746
1.9404,0.1906,37.5900,39,98,300749
1.9110,0.1906,37.6500,39,98,300752
1.9208,0.1906,37.5600,39,98,300756
1.8866,0.1857,37.6800,39,98,300760
1.8817,0.1906,37.7700,39,98,300763
1.8964,0.1955,37.5300,39,98,300767
1.8768,0.1906,37.9000,39,98,300770
1.9062,0.1955,37.4900,39,98,300773
1.8719,0.2102,37.7700,39,98,300776
1.8768,0.1906,37.7400,39,98,300780
1.8866,0.2004,37.4900,39,98,300783
1.8671,0.1955,37.7100,39,98,300786
1.9159,0.2004,37.6500,39,98,300790
1.8964,0.1955,37.5900,39,98,300793
1.8719,0.1906,37.7100,39,98,300796
1.8817,0.1906,37.6800,39,98,300801
1.8622,0.1906,37.6800,39,98,300804
1.9159,0.2053,37.4000,39,98,300807
1.8671,0.1955,37.5300,39,98,300810
1.8426,0.1857,37.6200,39,98,300814
1.8475,0.1906,37.6500,39,98,300817
1.8377,0.1711,37.6800,39,98,300820
1.8768,0.2004,37.4600,39,98,300824
1.8524,0.1955,37.6200,39,98,300827
1.8426,0.1906,37.5900,39,98,300830
1.8280,0.1955,37.6800,39,98,300834
1.8426,0.1906,37.7100,39,98,300837
1.8817,0.2004,37.6200,39,98,300840
1.8671,0.1906,37.6500,39,98,300845
1.8964,0.1955,37.5900,39,98,300848
1.8817,0.1857,37.6800,39,98,300851
1.9013,0.1906,37.6800,39,98,300854
1.9550,0.2004,37.5600,39,98,300858
1.9550,0.1906,37.8000,39,98,300861
2.0039,0.1955,37.5600,39,98,300864
1.9941,0.1857,37.6200,39,98,300868
2.0137,0.1906,37.7100,39,98,300871
2.0430,0.1955,37.5600,39,98,300874
2.0332,0.1906,37.6800,39,98,300878
2.0577,0.1906,37.4900,39,98,300881
2.0283,0.1906,37.5900,39,98,300884
2.0186,0.1906,37.6200,39,98,300888
2.0332,0.2053,37.5600,39,98,300892
2.0039,0.1906,37.6800,39,98,300895
2.0381,0.1955,37.4900,39,98,300898
1.9892,0.1857,37.6500,39,98,300902
1.9795,0.2053,37.7100,39,98,300905
1.9892,0.2004,37.7100,39,98,300908
2.0039,0.1955,37.7100,39,98,300912
1.9990,0.2004,37.3700,39,98,300915
1.9648,0.1955,37.6200,39,98,300918
1.9453,0.1857,37.6800,39,98,300921
1.9355,0.1808,37.6800,39,98,300925
1.9110,0.1906,37.7100,39,98,300929
1.9550,0.2102,37.4900,39,98,300932
1.9110,0.2004,37.6200,39,98,300936
1.9013,0.1857,37.5600,39,98,300939
1.8964,0.1906,37.6800,39,98,300942
1.8866,0.1906,37.8000,39,98,300945
1.9257,0.2346,37.5300,39,98,300949
1.8964,0.1955,37.6500,39,98,300952
1.8866,0.2004,37.5600,39,98,300955
1.8622,0.1906,37.6800,39,98,300959
1.8622,0.2004,37.6800,39,98,300962
1.8817,0.1955,37.7100,39,98,300965
1.8622,0.1955,37.6800,39,98,300969
1.8719,0.1955,37.5300,39,98,300973
1.8475,0.1906,37.7100,39,98,300976
1.8426,0.1906,37.7100,39,98,300980
1.8573,0.2004,37.5600,39,98,300983
1.8231,0.1955,37.6500,39,98,300986
1.8426,0.1906,37.5600,39,98,300989
1.8182,0.1906,37.6200,39,98,300993
1.8182,0.1906,37.6800,39,98,300996
1.8377,0.1955,37.5600,39,98,300999
1.8133,0.1906,37.6800,39,98,301003
1.8328,0.1955,37.4300,39,98,301006
1.7889,0.1906,37.6500,39,98,301009
1.7742,0.1906,37.6800,39,98,301014
1.8035,0.2004,37.6200,39,98,301017
1.7742,0.1906,37.7700,39,98,301020
1.8035,0.2053,37.4000,39,98,301023
1.7498,0.1857,37.6200,39,98,301027
1.7498,0.1808,37.7400,39,98,301030
1.7546,0.1955,37.8000,39,98,301033
1.7498,0.1906,37.6800,39,98,301037
1.7889,0.2102,37.4000,39,98,301040
1.7546,0.2248,37.5300,39,98,301043
1.7351,0.1857,37.6500,39,98,301047
1.7400,0.1955,37.6800,39,98,301050
1.7302,0.1906,37.8000,39,98,301053
1.7693,0.2395,37.4600,39,98,301057
1.7400,0.1955,37.6500,39,98,301061
1.7302,0.1857,37.5600,39,98,301064
1.7155,0.1906,37.7100,39,98,301067
1.7107,0.2004,37.6800,39,98,301071
1.7302,0.1955,37.5300,39,98,301074
1.7107,0.1955,37.6500,39,98,301077
1.7253,0.1906,37.5300,39,98,301081
1.6960,0.1857,37.7100,39,98,301084
1.7253,0.2151,37.6800,39,98,301088
1.7351,0.1906,37.7400,39,98,301091
1.7595,0.1955,37.6200,39,98,301094
1.7498,0.1808,37.5900,39,98,301099
1.8084,0.1955,37.4000,39,98,301102
1.7937,0.1906,37.6500,39,98,301105
1.7937,0.1906,37.5900,39,98,301108
1.8231,0.1906,37.6200,39,98,301112
1.8328,0.1955,37.6800,39,98,301115
1.9062,0.1906,37.3700,39,98,301118
1.8964,0.1955,37.5600,39,98,301122
1.9013,0.1808,37.6800,39,98,301125
1.9257,0.1906,37.7100,39,98,301128
1.9208,0.1906,37.7100,39,98,301132
1.9844,0.2053,37.4600,39,98,301135
1.9550,0.1906,37.6200,39,98,301138
1.9355,0.2102,37.5900,39,98,301142
1.9257,0.1906,37.6800,39,98,301146
1.9355,0.1906,37.6800,39,98,301149
1.9550,0.2004,37.5900,39,98,301152
1.9355,0.1955,37.7100,39,98,301156
1.9501,0.1906,37.5600,39,98,301159
1.9306,0.1808,37.6800,39,98,301162
1.9306,0.1906,37.7700,39,98,301166
1.9550,0.2053,37.5300,39,98,301169
1.9159,0.1906,37.8000,39,98,301172
1.9355,0.2053,37.5900,39,98,301175
1.9110,0.1857,37.6500,39,98,301179
1.9062,0.1906,37.7400,39,98,301182
1.9306,0.1955,37.5600,39,98,301186
1.9110,0.2151,37.6800,39,98,301190
1.9355,0.1955,37.4900,39,98,301193
1.9013,0.1711,37.6200,39,98,301196
1.8964,0.1906,37.6800,39,98,301200
1.9355,0.2004,37.5900,39,98,301203
1.8964,0.1906,37.6200,39,98,301206
1.9404,0.1955,37.4000,39,98,301209
1.8964,0.1808,37.9600,39,98,301213
1.9355,0.1857,37.6800,39,98,301216
1.9062,0.1955,37.9300,39,98,301219
1.8817,0.1906,37.7400,39,98,301223
1.9306,0.2004,37.3400,39,98,301227
1.8817,0.1955,37.5900,39,98,301230
1.8622,0.1857,37.7400,39,98,301234
1.8622,0.1955,37.6800,39,98,301237
1.8475,0.1906,37.6500,39,98,301240
1.9159,0.1906,37.4900,39,98,301244
1.8573,0.2004,37.6200,39,98,301247
1.8719,0.1857,37.6200,39,98,301250
1.8377,0.2151,37.6500,39,98,301253
1.8280,0.1906,37.7100,39,98,301257
1.8524,0.2004,37.5600,39,98,301260
1.8328,0.1906,37.6500,39,98,301263
1.8328,0.1906,37.5300,39,98,301267
1.8084,0.1906,37.7100,39,98,301271
1.7986,0.1906,37.7400,39,98,301274
1.8182,0.1906,37.6500,39,98,301278
1.7889,0.1906,37.7100,39,98,301281
1.8426,0.1955,37.5900,39,98,301284
1.7791,0.1857,37.6800,39,98,301287
1.7742,0.1955,37.6800,39,98,301291
1.7986,0.2053,37.5600,39,98,301294
1.7742,0.1906,37.6200,39,98,301297
1.7986,0.1955,37.4900,39,98,301301
1.7840,0.1906,37.7100,39,98,301304
1.7791,0.2004,37.6800,39,98,301307
1.7937,0.2004,37.0100,39,98,301312
1.7644,0.1711,37.7400,39,98,301315
1.8035,0.1955,37.4000,39,98,301318
1.7937,0.1906,37.6500,39,98,301322
1.7498,0.1906,37.8300,39,98,301325
1.7889,0.1955,37.6200,39,98,301328
1.7400,0.1906,37.6200,39,98,301331
1.7889,0.2004,37.3700,39,98,301335
1.7546,0.1906,37.5300,39,98,301338
1.7546,0.1808,37.7100,39,98,301341
1.7644,0.1906,37.7400,39,98,301345
1.7693,0.1711,37.6800,39,98,301348
1.8133,0.2053,37.4900,39,98,301351
1.7693,0.1955,37.6200,39,98,301356
1.7840,0.1857,37.5900,39,98,301359
1.7986,0.1906,37.7400,39,98,301362
1.8133,0.1906,37.7100,39,98,301365
1.8768,0.2004,37.4900,39,98,301369
1.8622,0.2102,37.7400,39,98,301372
1.8964,0.1906,37.5600,39,98,301375
1.8964,0.2004,37.6800,39,98,301379
1.9208,0.1906,37.6800,39,98,301382
1.9599,0.1955,37.5300,39,98,301385
1.9453,0.1955,37.6500,39,98,301389
1.9697,0.2004,37.5900,39,98,301392
1.9453,0.1808,37.7100,39,98,301395
1.9453,0.1906,36.8800,39,98,301399
1.9599,0.1906,37.5600,39,98,301403
1.9404,0.1906,37.7100,39,98,301406
1.9599,0.1808,37.5300,39,98,301409
1.9306,0.2004,37.6800,39,98,301413
1.9355,0.1808,37.7100,39,98,301416
1.9404,0.1955,37.6200,39,98,301419
1.9110,0.1906,37.7100,39,98,301423
1.9453,0.1955,37.4000,39,98,301426
1.9110,0.1906,37.5900,39,98,301429
1.8964,0.1906,37.6800,39,98,301433
1.9110,0.1955,37.6800,39,98,301436
1.8964,0.1906,37.7400,39,98,301440
1.9550,0.1955,37.4000,39,98,301443
1.9159,0.1906,37.6200,39,98,301447
1.9110,0.1857,37.7100,39,98,301450
1.9159,0.1906,37.6200,39,98,301453
1.9257,0.1808,37.7100,39,98,301457
1.9501,0.2102,37.6800,39,98,301460
1.9062,0.2053,37.5900,39,98,301463
1.8915,0.1857,37.5900,39,98,301467
1.8866,0.1906,37.7100,39,98,301470
1.8719,0.2151,37.7100,39,98,301473
1.9013,0.2004,37.5300,39,98,301476
1.8671,0.2102,37.6500,39,98,301480
1.9013,0.1906,37.5600,39,98,301484
1.8524,0.2004,37.6800,39,98,301487
1.8573,0.1906,37.7400,39,98,301491
1.8964,0.2102,37.5300,39,98,301494
1.8719,0.1906,37.6800,39,98,301497
1.8915,0.2297,37.6200,39,98,301501
1.8671,0.1906,37.6800,39,98,301504
1.8622,0.1857,37.6800,39,98,301507
1.8671,0.1955,37.6200,39,98,301511
1.8377,0.1906,37.7100,39,98,301514
1.8377,0.1906,37.4600,39,98,301517
1.7986,0.1857,37.6200,39,98,301520
1.7986,0.1857,37.7700,39,98,301524
1.8426,0.1955,37.5900,39,98,301528
1.7986,0.1857,37.7100,39,98,301531
1.8280,0.1955,37.4600,39,98,301535
1.7889,0.1857,37.6800,39,98,301538
1.7889,0.1955,37.7100,39,98,301541
1.7937,0.2053,37.6800,39,98,301545
1.7791,0.1906,37.9300,39,98,301548
1.8280,0.2004,37.3400,39,98,301551
1.7986,0.1906,37.6500,39,98,301554
1.7889,0.1857,37.7100,39,98,301558
1.8133,0.1906,37.6800,39,98,301561
1.8524,0.1808,37.6800,39,98,301564
1.9892,0.2053,37.4900,39,98,301569
2.0381,0.1955,37.5900,39,98,301572
2.1114,0.1857,37.6200,39,98,301575
2.1799,0.2151,37.6800,39,98,301579
2.1994,0.1857,37.7100,39,98,301582
2.1994,0.1955,37.4900,39,98,301585
2.0870,0.1906,37.6500,39,98,301589
1.9795,0.1906,37.5600,39,98,301592
1.8475,0.1906,37.6800,39,98,301595
1.7546,0.1857,37.6800,39,98,301598
1.7107,0.1955,37.9000,39,98,301602
1.6471,0.1955,37.7400,39,98,301605
1.6373,0.1955,37.5600,39,98,301608
1.6080,0.1906,37.7100,39,98,301613
1.6031,0.1857,37.5600,39,98,301616
1.5934,0.2004,37.5600,39,98,301619
1.5103,0.1906,37.6800,39,98,301623
1.4565,0.1906,37.5600,39,98,301626
1.3636,0.1906,37.6200,39,98,301629
1.3001,0.1711,37.7100,39,98,301632
1.2757,0.1906,37.5600,39,98,301636
1.2610,0.1906,37.6800,39,98,301639
1.3294,0.2297,37.4000,39,98,301642
1.3734,0.1955,37.6500,39,98,301646
1.4614,0.2199,37.7100,39,98,301649
1.5640,0.1906,37.6200,39,98,301652
1.6276,0.1906,37.6800,39,98,301657
1.7546,0.1955,37.3700,39,98,301660
1.7937,0.1857,37.5900,39,98,301663
1.8524,0.1857,37.6800,39,98,301667
1.9062,0.2004,37.7100,39,98,301670
1.9404,0.1906,37.8000,39,98,301673
2.0235,0.2297,37.4600,39,98,301676
1.9941,0.1955,37.6500,39,98,301680
1.9941,0.1906,37.6200,39,98,301683
1.9941,0.1906,37.7400,39,98,301686
1.9844,0.1906,37.6800,39,98,301690
2.0235,0.1955,37.4600,39,98,301693
1.9892,0.1955,37.5900,39,98,301698
1.9599,0.1906,37.6800,39,98,301701
1.9892,0.1808,37.5600,39,98,301704
1.9697,0.1857,37.6500,39,98,301708
1.9795,0.1955,37.7400,39,98,301711
1.9990,0.1906,37.5600,39,98,301714
1.9746,0.2102,37.6800,39,98,301717
1.9941,0.1955,37.4300,39,98,301721
1.9453,0.1808,37.7100,39,98,301724
1.9355,0.1857,37.7700,39,98,301727
1.9550,0.1955,37.6200,39,98,301731
1.9110,0.1857,37.7100,39,98,301734
1.9453,0.1906,37.3700,39,98,301737
1.9013,0.2199,37.5900,39,98,301742
1.8817,0.1906,37.7400,39,98,301745
1.8817,0.1906,37.6500,39,98,301748
1.8768,0.1857,37.7100,39,98,301751
1.9306,0.2297,37.4000,39,98,301755
1.8817,0.1906,37.5900,39,98,301758
1.8622,0.1857,37.6500,39,98,301761
1.8524,0.1906,37.6800,39,98,301765
1.8377,0.1857,37.7100,39,98,301768
1.8817,0.2004,37.4900,39,98,301771
1.8524,0.2248,37.6800,39,98,301775
1.8475,0.1857,37.5900,39,98,301778
1.8377,0.2102,37.6800,39,98,301782
1.8426,0.1857,37.7100,39,98,301786
1.8622,0.1906,37.6800,39,98,301789
1.8426,0.1906,37.6800,39,98,301792
1.8524,0.2053,37.5300,39,98,301795
1.8231,0.1906,37.7400,39,98,301799
1.8182,0.1857,37.7100,39,98,301802
1.8377,0.1955,37.5900,39,98,301805
1.8035,0.1906,37.6800,39,98,301809
1.8231,0.1906,37.6800,39,98,301812
1.7937,0.1906,37.6200,39,98,301815
1.7889,0.1857,37.7400,39,98,301819
1.8035,0.1955,37.5300,39,98,301822
1.7840,0.1906,37.6800,39,98,301826
1.8035,0.1955,37.4300,39,98,301829
1.7742,0.1857,37.5600,39,98,301833
1.7595,0.1857,37.6500,39,98,301836
1.7840,0.1955,37.6200,39,98,301839
1.7546,0.1906,37.7100,39,98,301843
1.8084,0.1955,37.4300,39,98,301846
1.7742,0.1808,37.6500,39,98,301849
1.7937,0.1857,37.6200,39,98,301853
1.8182,0.1808,37.6800,39,98,301856
1.8035,0.1857,37.7400,39,98,301859
1.8671,0.1906,37.4600,39,98,301863
1.8475,0.1906,37.5900,39,98,301867
1.8573,0.1808,37.6500,39,98,301870
1.8817,0.1955,37.6500,39,98,301873
1.9013,0.1857,37.6800,39,98,301877
1.9697,0.2004,37.4600,39,98,301880
1.9599,0.1906,37.6500,39,98,301883
1.9795,0.1906,37.5600,39,98,301887
1.9892,0.1906,37.7100,39,98,301890
1.9941,0.1906,37.7100,39,98,301893
2.0186,0.1857,37.4900,39,98,301897
2.0088,0.1906,37.8000,39,98,301900
2.0283,0.1955,37.5300,39,98,301903
2.0039,0.1906,37.6800,39,98,301906
2.0088,0.1906,37.7400,39,98,301911
2.0479,0.1711,37.5900,39,98,301914
2.0137,0.1906,37.8700,39,98,301917
2.0381,0.1955,37.5600,39,98,301921
1.9990,0.1857,37.6800,39,98,301924
2.0137,0.1808,37.6800,39,98,301927
2.0283,0.1955,37.5600,39,98,301931
1.9892,0.1906,37.7400,39,98,301934
2.0088,0.1906,37.6200,39,98,301937
1.9844,0.2053,37.6200,39,98,301940
1.9746,0.1955,37.6800,39,98,301944
2.0137,0.1955,37.6200,39,98,301947
1.9599,0.1906,37.6800,39,98,301950
1.9990,0.2053,37.4300,39,98,301955
1.9599,0.1906,37.5900,39,98,301958
1.9404,0.1857,37.7400,39,98,301961
1.9550,0.1955,37.6200,39,98,301965
1.9355,0.1906,37.7100,39,98,301968
2.0088,0.1955,37.3700,39,98,301971
1.9404,0.1857,37.7700,39,98,301974
1.9306,0.1857,37.6800,39,98,301978
1.9159,0.1906,37.6200,39,98,301981
1.9257,0.1857,37.6800,39,98,301984
1.9404,0.2053,37.4900,39,98,301988
1.9306,0.2004,37.6200,39,98,301991
1.8817,0.1857,37.7700,39,98,301995
1.8719,0.1906,37.6500,39,98,301999
1.8622,0.1808,37.7100,39,98,302002
1.8964,0.1906,37.5300,39,98,302005
1.8573,0.2004,37.6500,39,98,302008
1.8719,0.1857,37.5900,39,98,302012
1.8377,0.1857,37.6800,39,98,302015
1.8182,0.1857,37.7100,39,98,302018
1.8426,0.2053,37.5900,39,98,302022
1.8182,0.1906,37.6800,39,98,302025
1.8328,0.1906,37.5900,39,98,302028
1.8084,0.1711,37.6800,39,98,302032
1.8035,0.1857,37.7400,39,98,302035
1.8182,0.1906,37.5600,39,98,302039
1.8035,0.1906,37.8000,39,98,302042
1.8182,0.1955,37.5300,39,98,302046
1.7889,0.1906,37.6500,39,98,302049
1.7840,0.1857,37.7100,39,98,302052
1.7986,0.1955,37.5600,39,98,302056
1.7742,0.1906,37.6800,39,98,302059
1.8035,0.1906,37.4600,39,98,302062
1.7742,0.1955,37.6200,39,98,302066
1.7546,0.1857,37.3700,39,98,302069
1.7742,0.1906,37.6200,39,98,302072
1.7595,0.1857,37.7100,39,98,302076
1.8084,0.1955,37.4000,39,98,302080
1.7546,0.2004,37.5900,39,98,302083
1.7351,0.1857,37.7100,39,98,302086
1.7400,0.1906,37.7100,39,98,302090
1.7204,0.1808,37.6800,39,98,302093
1.7693,0.2053,37.4300,39,98,302096
1.7302,0.1955,37.5600,39,98,302100
1.7253,0.1857,37.6200,39,98,302103
1.7204,0.1906,37.7100,39,98,302106
1.7253,0.1857,37.7400,39,98,302110
1.7693,0.1906,37.5900,39,98,302113
1.7449,0.1906,37.6500,39,98,302116
1.7742,0.1711,37.5600,39,98,302119
1.7644,0.2004,37.6800,39,98,302124
1.7840,0.1857,37.7100,39,98,302127
1.8377,0.2053,37.4600,39,98,302130
1.8328,0.1857,37.7400,39,98,302134
1.8719,0.1955,37.5900,39,98,302137
1.8671,0.1857,37.7100,39,98,302140
1.8817,0.1857,37.7100,39,98,302144
1.9159,0.2102,37.5600,39,98,302147
1.9159,0.1906,37.6800,39,98,302150
1.9453,0.1857,37.4900,39,98,302154
1.9208,0.1857,37.6200,39,98,302157
1.9306,0.1857,37.6800,39,98,302160
1.9550,0.1955,37.5900,39,98,302163
1.9355,0.1857,37.7400,39,98,302168
2.0137,0.1955,37.4300,39,98,302171
1.9404,0.1906,37.6500,39,98,302174
1.9404,0.1857,37.6800,39,98,302178
1.9501,0.1906,37.8700,39,98,302181
1.9257,0.1857,37.6800,39,98,302184
1.9746,0.1955,37.4000,39,98,302188
1.9501,0.1955,37.5900,39,98,302191
1.9257,0.1857,37.7100,39,98,302194
1.9306,0.1906,37.6800,39,98,302197
1.9159,0.1857,37.7700,39,98,302201
1.9697,0.2053,37.4300,39,98,302204
1.9257,0.1906,37.5900,39,98,302208
1.9208,0.1711,37.6500,39,98,302212
1.9159,0.1906,37.6800,39,98,302215
1.9062,0.1857,37.7100,39,98,302218
1.9453,0.1906,37.4900,39,98,302222
1.9062,0.1955,37.6500,39,98,302225
1.9110,0.1857,37.6200,39,98,302228
1.8964,0.1955,37.7100,39,98,302231
1.8915,0.1808,37.6800,39,98,302235
1.9062,0.1906,37.6800,39,98,302238
1.8866,0.1857,37.7100,39,98,302241
1.9013,0.1906,37.5900,39,98,302245
1.8817,0.1955,37.8000,39,98,302248
1.8719,0.1857,37.6800,39,98,302252
1.8915,0.2004,37.5900,39,98,302256
1.8622,0.1857,37.6800,39,98,302259
1.8768,0.1955,37.5600,39,98,302262
1.8524,0.1857,37.6500,39,98,302266
1.8475,0.1857,37.7400,39,98,302269
1.8671,0.1906,37.6200,39,98,302272
1.8377,0.1857,37.6800,39,98,302275
1.8671,0.1906,37.4000,39,98,302279
1.8377,0.1906,37.6200,39,98,302282
1.8182,0.1857,37.9000,39,98,302285
1.8328,0.1955,37.6500,39,98,302289
1.8133,0.1857,37.9300,39,98,302292
1.8573,0.1955,37.4300,39,98,302296
1.8133,0.1955,37.6200,39,98,302300
1.8084,0.1857,37.6800,39,98,302303
1.8035,0.1955,37.6800,39,98,302306
1.9306,0.1857,37.6800,39,98,302310
2.0088,0.1711,37.7100,39,98,302313
2.1359,0.1955,37.4900,39,98,302316
2.1750,0.1808,37.6800,39,98,302320
2.2239,0.1906,37.5300,39,98,302323
2.1652,0.1906,37.6800,39,98,302326
2.0723,0.1808,37.6800,39,98,302330
1.9844,0.1955,37.6200,39,98,302333
1.8475,0.1906,37.7100,39,98,302337
1.7595,0.1906,37.5900,39,98,302341
1.6471,0.1955,37.6500,39,98,302344
1.5934,0.1857,37.7400,39,98,302347
1.5836,0.1955,37.5600,39,98,302350
1.5689,0.1857,37.6500,39,98,302354
1.5885,0.1808,37.4900,39,98,302357
1.5298,0.1857,37.7400,39,98,302360
1.4809,0.1857,37.7400,39,98,302364
1.4223,0.1955,37.6200,39,98,302367
1.3343,0.1857,37.7100,39,98,302370
1.3099,0.1955,37.4000,39,98,302374
1.2659,0.1906,37.5900,39,98,302377
1.2561,0.1857,37.7100,39,98,302381
1.2952,0.1906,37.7400,39,98,302385
1.3490,0.1955,37.6800,39,98,302388
1.4712,0.2004,37.4000,39,98,302391
1.5298,0.1955,37.5600,39,98,302394
1.6178,0.1808,37.7100,39,98,302398
1.7107,0.1906,37.6500,39,98,302401
1.7840,0.1857,37.7100,39,98,302404
1.8964,0.2102,37.5600,39,98,302408
1.9159,0.1906,37.7400,39,98,302411
1.9501,0.1955,37.5900,39,98,302414
1.9550,0.1906,37.6800,39,98,302418
1.9599,0.1808,37.7400,39,98,302422
1.9892,0.1906,37.6800,39,98,302425
1.9795,0.1906,37.6500,39,98,302428
2.0137,0.1906,37.5300,39,98,302432
1.9648,0.1906,37.7100,39,98,302435
1.9648,0.1906,37.6800,39,98,302438
1.9941,0.1955,37.4900,39,98,302442
1.9599,0.1906,37.6800,39,98,302445
1.9844,0.1955,37.5600,39,98,302448
1.9501,0.1808,37.6200,39,98,302452
1.9501,0.1857,37.7100,39,98,302455
1.9746,0.1906,37.5600,39,98,302458
1.9453,0.1857,37.7400,39,98,302461
1.9599,0.1711,37.4600,39,98,302466
1.9355,0.2199,37.5900,39,98,302469
1.9306,0.1857,37.6800,39,98,302472
1.9501,0.2151,37.6200,39,98,302476
1.9355,0.1857,37.7100,39,98,302479
1.9697,0.1955,37.3400,39,98,302482
1.9208,0.1857,37.6500,39,98,302486
1.9159,0.1857,37.7100,39,98,302489
1.9208,0.1906,37.6800,39,98,302492
1.8964,0.1906,37.6800,39,98,302496
1.9501,0.1955,37.4000,39,98,302499
1.9062,0.2102,37.5900,39,98,302502
1.9013,0.1711,37.6500,39,98,302505
1.8915,0.1955,37.6500,39,98,302510
1.8817,0.1857,37.7100,39,98,302513
1.9306,0.2053,37.4600,39,98,302516
1.8915,0.1906,37.6800,39,98,302520
1.8768,0.1955,37.5900,39,98,302523
1.8622,0.1857,37.6800,39,98,302526
1.8524,0.1808,37.7400,39,98,302530
1.8768,0.1906,37.5300,39,98,302533
1.8622,0.1955,37.6800,39,98,302536
1.8719,0.1906,37.5300,39,98,302539
1.8426,0.1857,37.6800,39,98,302543
1.8377,0.1857,37.5900,39,98,302546
1.8524,0.1857,37.6200,39,98,302550
1.8280,0.1906,37.6500,39,98,302554
1.8622,0.1955,37.5600,39,98,302557
1.8231,0.2053,37.6500,39,98,302560
1.8231,0.1857,37.7400,39,98,302564
1.8475,0.1955,37.6200,39,98,302567
1.8231,0.1857,37.7100,39,98,302570
1.8622,0.1906,37.4900,39,98,302574
1.8377,0.1906,37.5600,39,98,302577
1.8328,0.1906,37.6800,39,98,302580
1.8426,0.2053,37.6200,39,98,302583
1.8182,0.1857,37.7100,39,98,302587
1.8475,0.2053,37.4000,39,98,302590
1.8133,0.1857,37.5900,39,98,302594
1.7986,0.1857,37.7100,39,98,302598
1.8084,0.1906,37.6800,39,98,302601
1.7840,0.1857,37.7100,39,98,302604
1.8475,0.2004,37.3700,39,98,302608
1.8035,0.1906,37.5600,39,98,302611
1.7986,0.1808,37.6200,39,98,302614
1.8182,0.1906,37.8000,39,98,302617
1.8182,0.1857,37.6800,39,98,302621
1.8768,0.2053,37.5300,39,98,302624
1.8524,0.1906,37.6500,39,98,302627
1.8622,0.1857,37.5600,39,98,302631
1.8671,0.1906,37.7400,39,98,302635
1.8817,0.1906,37.7100,39,98,302638
1.9404,0.1955,37.4900,39,98,302642
1.9257,0.1906,37.6500,39,98,302645
1.9599,0.1906,37.5300,39,98,302648
1.9501,0.1808,37.7100,39,98,302652
1.9648,0.1857,37.7100,39,98,302655
2.0039,0.2004,37.5900,39,98,302658
1.9892,0.1808,37.6800,39,98,302661
2.0137,0.1906,37.5900,39,98,302665
1.9844,0.1857,37.6800,39,98,302668
1.9844,0.1857,37.6800,39,98,302671
2.0381,0.1808,37.5600,39,98,302675
1.9892,0.1906,37.7400,39,98,302679
2.0039,0.1857,37.4900,39,98,302682
1.9795,0.1906,37.7100,39,98,302685
1.9697,0.1857,37.7100,39,98,302689
1.9892,0.1955,37.6200,39,98,302692
1.9550,0.1808,37.7400,39,98,302695
1.9941,0.1955,37.4900,39,98,302699
1.9599,0.2004,37.5900,39,98,302702
1.9453,0.1857,37.7100,39,98,302705
1.9501,0.1906,37.6200,39,98,302709
1.9306,0.1857,37.5900,39,98,302712
1.9795,0.1955,37.4300,39,98,302715
1.9404,0.1906,37.5600,39,98,302720
1.9306,0.1760,37.6500,39,98,302723
1.9257,0.1906,36.8500,39,98,302726
1.9159,0.1857,37.6800,39,98,302729
1.9697,0.2053,37.3100,39,98,302733
1.9355,0.1906,37.6500,39,98,302736
1.9257,0.1906,37.6500,39,98,302739
1.9159,0.1906,37.7100,39,98,302743
1.9110,0.1857,37.6800,39,98,302746
1.9453,0.2004,37.5900,39,98,302749
1.9159,0.1906,37.7100,39,98,302753
1.9453,0.1955,37.5900,39,98,302756
1.8964,0.2053,37.6800,39,98,302759
1.8817,0.1711,37.7100,39,98,302763
1.9159,0.2493,37.5600,39,98,302767
1.8768,0.1857,37.6500,39,98,302770
1.9306,0.1955,37.5600,39,98,302773
1.8622,0.1857,37.8300,39,98,302777
1.8475,0.1857,37.6800,39,98,302780
1.8719,0.1955,37.5300,39,98,302783
1.8622,0.1955,37.7100,39,98,302787
1.8524,0.1906,37.4300,39,98,302790
1.8133,0.1857,37.5900,39,98,302793
1.8035,0.1857,37.7400,39,98,302797
1.8182,0.2004,37.5600,39,98,302800
1.7889,0.1906,37.5900,39,98,302803
1.8524,0.1955,37.4300,39,98,302807
1.7693,0.1808,37.6500,39,98,302811
1.7644,0.1857,37.7100,39,98,302814
1.7742,0.2053,37.6800,39,98,302817
1.7546,0.1857,37.7700,39,98,302821
1.7986,0.2053,37.4300,39,98,302824
1.7546,0.1906,36.7000,39,98,302827
1.7449,0.1857,37.6800,39,98,302831
1.7498,0.1906,37.6800,39,98,302834
1.7449,0.1711,37.7100,39,98,302837
1.7889,0.2004,37.4900,39,98,302841
1.7449,0.1906,37.6500,39,98,302844
1.7351,0.1857,37.5900,39,98,302848
1.7204,0.1906,37.6500,39,98,302851
1.7107,0.1857,37.7700,39,98,302855
1.7449,0.1955,37.5600,39,98,302858
1.7204,0.2151,37.6500,39,98,302861
1.7400,0.1906,37.5900,39,98,302865
1.7204,0.1857,37.4900,39,98,302868
1.7595,0.1857,37.7100,39,98,302871
1.7449,0.1906,37.5900,39,98,302875
1.7595,0.1808,37.7400,39,98,302878
1.7546,0.1955,37.6800,39,98,302881
1.7498,0.1857,37.7100,39,98,302884
1.7644,0.1857,37.6800,39,98,302888
1.8133,0.1955,37.5600,39,98,302892
1.8084,0.1955,37.7100,39,98,302895
1.8622,0.1857,37.4600,39,98,302899
1.8671,0.1955,37.5900,39,98,302902
1.8817,0.1808,37.7100,39,98,302905
1.9550,0.2053,37.5900,39,98,302909
1.9110,0.1857,37.6800,39,98,302912
1.9599,0.2053,37.4000,39,98,302915
1.9844,0.2053,37.4900,39,98,302919
1.9453,0.1955,37.5900,39,98,302922
1.9355,0.1857,37.6800,39,98,302925
1.9306,0.2151,37.6800,39,98,302929
1.9257,0.1857,37.6500,39,98,302932
1.9599,0.1906,37.5900,39,98,302936
1.9306,0.1906,37.6500,39,98,302940
1.9453,0.1857,37.5900,39,98,302943
1.9208,0.2004,37.7400,39,98,302946
1.9159,0.1906,37.7400,39,98,302950
1.9453,0.1955,37.4600,39,98,302953
1.9110,0.1906,37.6800,39,98,302956
1.9355,0.1906,37.5300,39,98,302960
1.9159,0.1906,37.7100,39,98,302963
1.9110,0.1857,37.6500,39,98,302966
1.9306,0.1906,37.5600,39,98,302969
1.9062,0.2151,37.7100,39,98,302973
1.9257,0.1857,37.5300,39,98,302977
1.8964,0.1857,37.6800,39,98,302980
1.8964,0.1857,37.8000,39,98,302984
1.9208,0.1955,37.5300,39,98,302987
1.8915,0.1906,37.6800,39,98,302990
1.9159,0.1955,37.4300,39,98,302994
1.8719,0.1857,37.5900,39,98,302997
1.8964,0.1808,37.7100,39,98,303000
1.8768,0.1906,37.6500,39,98,303003
1.8573,0.1857,37.6800,39,98,303007
1.8964,0.1955,37.3100,39,98,303010
1.8622,0.1955,37.5900,39,98,303013
1.8475,0.1857,37.7100,39,98,303017
1.8524,0.1906,37.7100,39,98,303021
1.8426,0.1808,37.7100,39,98,303024
1.8915,0.2053,37.4900,39,98,303028
1.8573,0.1955,37.5900,39,98,303031
1.8182,0.1808,37.6200,39,98,303034
1.8133,0.1955,37.6800,39,98,303038
1.8084,0.1857,37.6200,39,98,303041
1.8671,0.1955,37.5300,39,98,303044
1.8622,0.1906,37.7400,39,98,303047
1.9159,0.1955,37.5600,39,98,303051
1.9599,0.1906,37.7100,39,98,303054
2.0479,0.1857,37.7100,39,98,303057
2.1554,0.1955,37.6200,39,98,303062
2.2141,0.1906,37.7100,39,98,303065
2.2727,0.1955,37.5600,39,98,303068
2.2043,0.1906,37.6800,39,98,303072
2.1114,0.1906,37.6800,39,98,303075
2.0088,0.1955,37.6200,39,98,303078
1.8426,0.1857,37.6500,39,98,303082
1.7449,0.1857,37.4900,39,98,303085
1.6325,0.1808,37.5900,39,98,303088
1.5640,0.1857,37.7100,39,98,303091
1.5396,0.1955,37.5600,39,98,303095
1.5103,0.1857,37.7400,39,98,303098
1.5494,0.1955,37.4900,39,98,303101
1.4858,0.1906,37.6500,39,98,303106
1.4321,0.1857,37.7100,39,98,303109
1.3734,0.1857,37.6200,39,98,303112
1.2854,0.1906,37.7400,39,98,303116
1.2561,0.2004,37.3700,39,98,303119
1.1828,0.1857,37.5900,39,98,303122
1.1632,0.1955,37.6800,39,98,303126
1.1730,0.1906,37.9600,39,98,303129
1.2023,0.1711,37.7100,39,98,303132
1.3245,0.2199,37.4900,39,98,303135
1.3978,0.1906,37.6200,39,98,303139
1.4809,0.1857,37.5900,39,98,303142
1.5934,0.1906,37.6800,39,98,303145
1.6813,0.2102,37.7400,39,98,303150
1.8035,0.1955,37.4900,39,98,303153
1.8524,0.1955,37.6800,39,98,303156
1.9257,0.1906,37.5600,39,98,303160
1.9453,0.1857,37.6800,39,98,303163
1.9697,0.1857,37.7100,39,98,303166
2.0186,0.2004,37.5900,39,98,303169
2.0137,0.1906,37.6800,39,98,303173
2.0381,0.1955,37.5900,39,98,303176
2.0088,0.1857,37.6800,39,98,303179
2.0088,0.1857,37.6800,39,98,303183
2.0186,0.1906,37.5600,39,98,303186
2.0088,0.1857,37.6800,39,98,303190
2.0235,0.1857,37.4900,39,98,303194
1.9892,0.1906,37.7100,39,98,303197
1.9941,0.1857,37.8000,39,98,303200
2.0235,0.1955,37.5600,39,98,303203
1.9892,0.1906,37.7400,39,98,303207
2.0381,0.1906,37.4300,39,98,303210
1.9941,0.1906,37.6500,39,98,303213
1.9746,0.1955,37.7100,39,98,303217
1.9892,0.1955,37.5900,39,98,303220
1.9746,0.1955,37.6800,39,98,303223
2.0137,0.1955,37.4000,39,98,303227
1.9599,0.1906,37.5900,39,98,303230
1.9501,0.1857,37.7100,39,98,303234
1.9550,0.1955,37.6500,39,98,303237
1.9404,0.1857,37.7400,39,98,303241
2.0039,0.2004,37.4300,39,98,303244
1.9648,0.1955,37.5900,39,98,303247
1.9453,0.1760,37.6200,39,98,303251
1.9404,0.1906,37.6800,39,98,303254
1.9453,0.1906,37.6800,39,98,303257
1.9648,0.2004,37.6500,39,98,303261
1.9306,0.2248,37.6800,39,98,303264
1.9257,0.1906,37.5900,39,98,303267
1.9257,0.1711,37.7100,39,98,303270
1.9062,0.1857,37.7700,39,98,303275
1.9453,0.1955,37.5300,39,98,303278
1.9062,0.1760,37.6800,39,98,303281
1.9257,0.1906,37.5300,39,98,303285
1.9013,0.2053,37.5900,39,98,303288
1.8866,0.1808,37.7400,39,98,303291
1.9110,0.1906,37.5300,39,98,303295
1.8817,0.1906,37.6800,39,98,303298
1.8964,0.1857,37.5900,39,98,303301
1.8671,0.1808,37.6200,39,98,303304
1.8622,0.1857,37.6200,39,98,303308
1.8817,0.1906,37.5300,39,98,303311
1.8622,0.1857,37.7700,39,98,303314
1.9208,0.1906,37.4900,39,98,303319
1.8573,0.1906,37.7400,39,98,303322
1.8866,0.1906,37.7100,39,98,303325
1.8719,0.1906,37.6500,39,98,303329
1.8426,0.1857,37.7100,39,98,303332
1.8915,0.1955,37.4000,39,98,303335
1.8915,0.1955,37.5900,39,98,303339
1.8426,0.1857,37.9000,39,98,303342
1.8524,0.1906,37.6800,39,98,303345
1.8377,0.1906,37.7700,39,98,303348
1.8964,0.2102,37.4300,39,98,303352
1.8426,0.1857,37.5600,39,98,303355
1.8231,0.1857,37.6500,39,98,303358
1.8231,0.1955,37.7100,39,98,303363
1.8133,0.1906,37.7100,39,98,303366
1.8475,0.1955,37.5300,39,98,303369
1.8231,0.1906,37.5900,39,98,303373
1.8377,0.1955,37.5600,39,98,303376
1.8133,0.1906,37.8700,39,98,303379
1.8182,0.1906,37.6800,39,98,303383
1.8475,0.2199,37.6200,39,98,303386
1.8231,0.1906,37.6800,39,98,303389
1.8524,0.1906,37.5300,39,98,303392
1.8328,0.1857,37.6800,39,98,303396
1.8426,0.1906,37.6500,39,98,303399
1.8866,0.1955,37.5600,39,98,303403
1.8817,0.1906,37.7400,39,98,303407
1.9110,0.1906,37.5900,39,98,303410
1.9257,0.1808,37.6500,39,98,303413
1.9159,0.1906,37.9000,39,98,303417
1.9501,0.1906,37.5600,39,98,303420
1.9404,0.1857,37.5600,39,98,303423
1.9892,0.1955,37.4300,39,98,303426
1.9550,0.1906,37.5600,39,98,303430
1.9453,0.1760,37.6800,39,98,303433
1.9697,0.1955,37.7400,39,98,303436
1.9404,0.1808,37.6800,39,98,303440
1.9892,0.1955,37.4000,39,98,303443
1.9746,0.1857,37.5900,39,98,303447
1.9306,0.1857,37.6200,39,98,303451
1.9404,0.1955,37.6800,39,98,303454
1.9257,0.2151,37.6800,39,98,303457
1.9795,0.2004,37.5300,39,98,303461
1.9355,0.1955,37.6200,39,98,303464
1.9208,0.1857,37.6500,39,98,303467
1.9208,0.1955,37.6800,39,98,303470
1.9110,0.1857,37.7100,39,98,303474
1.9453,0.2004,37.4600,39,98,303477
1.9159,0.1906,37.7700,39,98,303480
1.9159,0.1711,37.5900,39,98,303484
1.9013,0.1906,37.7100,39,98,303488
1.8964,0.1955,37.7100,39,98,303491
1.9257,0.1955,37.7700,39,98,303495
1.9062,0.1955,37.6800,39,98,303498
1.9110,0.1906,37.7100,39,98,303501
1.8866,0.1906,37.6800,39,98,303504
1.8866,0.1857,37.7700,39,98,303508
1.9159,0.1906,37.5300,39,98,303511
1.8817,0.1906,37.8000,39,98,303514
1.8964,0.2053,37.5300,39,98,303518
1.8622,0.1906,37.5600,39,98,303521
1.8524,0.1808,37.6800,39,98,303524
1.8719,0.1955,37.7400,39,98,303528
1.8328,0.1906,37.6800,39,98,303532
1.8133,0.1955,37.6800,39,98,303536
1.8573,0.1906,37.4300,39,98,303539
1.8084,0.2004,37.5900,39,98,303542
1.7889,0.1857,37.6200,39,98,303545
1.7840,0.1906,37.7400,39,98,303549
1.7937,0.1906,37.7100,39,98,303552
1.8280,0.2053,37.5300,39,98,303555
1.7937,0.1906,37.6500,39,98,303559
1.7840,0.1857,37.8300,39,98,303562
1.7595,0.1955,37.7100,39,98,303565
1.7546,0.2053,37.7100,39,98,303569
1.7791,0.2004,37.6200,39,98,303572
1.7498,0.1906,37.6800,39,98,303576
1.7693,0.1955,37.5300,39,98,303579
1.7644,0.1906,37.6800,39,98,303583
1.7986,0.1857,37.7100,39,98,303586
1.8915,0.2102,37.5300,39,98,303589
1.9501,0.1906,37.7700,39,98,303593
2.0674,0.1955,37.5600,39,98,303596
2.1114,0.1857,37.6200,39,98,303599
2.1652,0.1955,37.6800,39,98,303603
2.1848,0.1955,37.5900,39,98,303606
2.0919,0.1906,37.7100,39,98,303609
2.0039,0.1955,37.4600,39,98,303613
1.8280,0.2053,37.6200,39,98,303617
1.7253,0.1906,37.7100,39,98,303620
1.6031,0.2004,37.5900,39,98,303623
1.5005,0.1857,37.7100,39,98,303627
1.4956,0.1955,37.4300,39,98,303630
1.4467,0.1857,37.6200,39,98,303633
1.4516,0.1857,37.6800,39,98,303637
1.4516,0.1906,37.6500,39,98,303640
1.4174,0.1808,37.6800,39,98,303643
1.4125,0.2004,37.4000,39,98,303647
1.3441,0.1906,37.6500,39,98,303650
1.2952,0.1857,37.6800,39,98,303653
1.2463,0.1760,37.6800,39,98,303656
1.2463,0.1906,37.7100,39,98,303661
1.3050,0.2053,37.4600,39,98,303664
1.3294,0.1955,37.6200,39,98,303667
1.4076,0.1857,37.6200,39,98,303671
1.4907,0.1906,37.6800,39,98,303674
1.5885,0.1906,37.8300,39,98,303677
1.7107,0.2004,37.4900,39,98,303681
1.7791,0.1906,37.7400,39,98,303684
1.8671,0.2004,37.5300,39,98,303687
1.9110,0.1906,37.7700,39,98,303690
1.9501,0.1808,37.7100,39,98,303694
1.9990,0.1906,37.5600,39,98,303697
2.0235,0.1955,37.6800,39,98,303700
2.0381,0.1906,37.5600,39,98,303705
2.0137,0.1906,37.7100,39,98,303708
2.0137,0.1906,37.7100,39,98,303711
2.0430,0.2053,37.5600,39,98,303715
2.0088,0.1906,37.6800,39,98,303718
2.0381,0.1857,37.3400,39,98,303721
2.0039,0.1808,37.6200,39,98,303724
1.9941,0.1906,37.7400,39,98,303728
2.0088,0.2053,37.5600,39,98,303731
1.9746,0.1711,37.6800,39,98,303734
2.0039,0.1906,37.5300,39,98,303738
1.9697,0.1906,37.5900,39,98,303741
1.9648,0.1857,37.7100,39,98,303745
1.9892,0.2053,37.5900,39,98,303749
1.9599,0.1857,37.7400,39,98,303752
2.0039,0.1955,37.3700,39,98,303755
1.9550,0.1857,37.6200,39,98,303758
1.9550,0.1955,37.7100,39,98,303762
1.9501,0.1906,37.6800,39,98,303765
1.9550,0.1906,37.6800,39,98,303768
1.9990,0.2102,37.4000,39,98,303772
1.9501,0.1906,37.4900,39,98,303775
1.9306,0.1808,37.6500,39,98,303778
1.9306,0.1906,37.6500,39,98,303782
1.9208,0.1808,37.7100,39,98,303785
1.9697,0.2004,36.7600,39,98,303789
1.9355,0.1906,37.6500,39,98,303792
1.9257,0.1906,37.6200,39,98,303796
1.9062,0.1906,37.6800,39,98,303799
1.8964,0.1906,37.3700,39,98,303802
1.9306,0.1906,37.5300,39,98,303806
1.8964,0.1857,37.6800,39,98,303809
1.9208,0.1906,37.5600,39,98,303812
1.8817,0.1906,37.7100,39,98,303816
1.8817,0.1857,37.7100,39,98,303819
1.8915,0.2004,37.5900,39,98,303822
1.8817,0.1955,37.6500,39,98,303825
1.9062,0.1955,37.4900,39,98,303830
1.8719,0.1906,37.7100,39,98,303833
1.8719,0.1906,37.7400,39,98,303836
1.8964,0.1955,37.5600,39,98,303840
1.8719,0.1906,37.6800,39,98,303843
1.8915,0.1955,37.4900,39,98,303846
1.8768,0.1955,37.5900,39,98,303850
1.8768,0.1906,37.6800,39,98,303853
1.9013,0.2004,37.6200,39,98,303856
1.8768,0.1906,37.6800,39,98,303859
1.9159,0.1955,37.4000,39,98,303863
1.8768,0.1955,37.6500,39,98,303866
1.8622,0.2151,37.6800,39,98,303869
1.8671,0.1955,37.6200,39,98,303874
1.8475,0.1955,37.7400,39,98,303877
1.9013,0.2004,37.4000,39,98,303880
1.8817,0.1857,37.5300,39,98,303884
1.8573,0.1857,37.5900,39,98,303887
1.8719,0.1808,37.6800,39,98,303890
1.8671,0.1906,37.6800,39,98,303894
1.9159,0.2053,37.4900,39,98,303897
1.8817,0.1906,37.6500,39,98,303900
1.9159,0.1906,37.5900,39,98,303903
1.8866,0.2248,37.6800,39,98,303907
1.8964,0.1906,37.7100,39,98,303910
1.9404,0.1955,37.4900,39,98,303913
1.9208,0.1906,37.7100,39,98,303918
1.9453,0.1955,37.5300,39,98,303921
1.9306,0.1906,37.7700,39,98,303924
1.9355,0.1906,37.6800,39,98,303928
1.9746,0.1955,37.5600,39,98,303931
1.9550,0.1906,37.6500,39,98,303934
1.9844,0.1955,37.5300,39,98,303937
1.9453,0.2004,37.6500,39,98,303941
1.9453,0.1906,37.6800,39,98,303944
1.9550,0.1857,37.5600,39,98,303947
1.9355,0.1906,37.6800,39,98,303951
1.9550,0.1955,37.4600,39,98,303954
1.9208,0.1906,37.7100,39,98,303958
1.9208,0.1857,37.7100,39,98,303962
1.9404,0.1906,37.6200,39,98,303965
1.9110,0.1808,37.6500,39,98,303968
1.9550,0.1955,37.4300,39,98,303972
1.9159,0.1955,37.5900,39,98,303975
1.8915,0.1857,37.7100,39,98,303978
1.9062,0.1906,37.6500,39,98,303981
1.8817,0.1906,37.9600,39,98,303985
1.9355,0.2053,37.4300,39,98,303988
1.8915,0.1955,37.6200,39,98,303991
1.8719,0.1857,37.6200,39,98,303995
1.8768,0.2004,37.6500,39,98,303998
1.8719,0.1906,37.7400,39,98,304002
1.9110,0.2004,37.5600,39,98,304006
1.8866,0.1955,37.6200,39,98,304009
1.8768,0.1857,37.6200,39,98,304012
1.8622,0.1808,37.7100,39,98,304015
1.8573,0.1906,37.7700,39,98,304019
1.8866,0.1955,37.6200,39,98,304022
1.8573,0.1906,37.7100,39,98,304025
1.8768,0.1955,37.5600,39,98,304029
1.8426,0.2004,37.6500,39,98,304032
1.8280,0.1808,37.7100,39,98,304035
1.8622,0.2004,37.5300,39,98,304039
1.8280,0.1906,37.6800,39,98,304043
1.8475,0.1955,37.6500,39,98,304046
1.8231,0.1760,37.6800,39,98,304049
1.8182,0.1857,37.8300,39,98,304053
1.8328,0.1955,37.5900,39,98,304056
1.7986,0.1906,37.7400,39,98,304059
1.8084,0.1808,37.4600,39,98,304063
1.7693,0.1857,37.7700,39,98,304066
1.7742,0.1711,37.6800,39,98,304069
1.7840,0.2004,37.5600,39,98,304073
1.7595,0.1955,37.7400,39,98,304076
1.7889,0.1955,37.6200,39,98,304079
1.7351,0.1857,37.5900,39,98,304083
1.7400,0.1906,37.7400,39,98,304087
1.7546,0.1955,37.6800,39,98,304090
1.7351,0.1906,37.7100,39,98,304093
1.7791,0.1955,37.4300,39,98,304097
1.7400,0.2102,37.5900,39,98,304100
1.7204,0.1857,37.6800,39,98,304103
1.7253,0.1955,37.6800,39,98,304107
1.7253,0.1857,37.6800,39,98,304110
1.7889,0.2297,37.4600,39,98,304113
1.7840,0.1906,37.8000,39,98,304117
1.8231,0.2102,37.5600,39,98,304120
1.8964,0.1906,37.6800,39,98,304123
1.9795,0.1857,37.6800,39,98,304126
2.0919,0.1906,37.5600,39,98,304131
2.1310,0.1906,37.5900,39,98,304134
2.1554,0.1906,37.5900,39,98,304137
2.0723,0.1906,37.6500,39,98,304141
1.5054,0.1857,37.7100,39,98,304144
1.4712,0.2444,37.6500,39,98,304148
1.4809,0.1955,37.4900,39,98,304151
1.4809,0.1857,37.7100,39,98,304154
1.5249,0.1906,37.4600,39,98,304158
1.4858,0.2102,37.5900,39,98,304161
1.4321,0.1857,37.7100,39,98,304164
1.4223,0.1906,37.6200,39,98,304167
1.3245,0.1906,37.7100,39,98,304172
1.3245,0.1955,37.4000,39,98,304175
1.2805,0.1906,37.5900,39,98,304178
1.2903,0.1857,37.7100,39,98,304182
1.3392,0.1906,37.7100,39,98,304185
1.3978,0.1808,37.6800,39,98,304188
1.5200,0.2053,37.4300,39,98,304192
1.5934,0.1955,37.5900,39,98,304195
1.6716,0.1857,37.5600,39,98,304198
1.7595,0.1857,37.7100,39,98,304202
1.8377,0.1808,37.7100,39,98,304205
1.9453,0.2004,37.5900,39,98,304208
1.9599,0.1857,37.6500,39,98,304211
1.9990,0.1857,37.5600,39,98,304216
1.9990,0.1711,37.6800,39,98,304219
2.0039,0.1857,36.8800,39,98,304222
2.0479,0.1955,37.4900,39,98,304226
2.0186,0.1906,37.6200,39,98,304229
2.0381,0.2248,37.5300,39,98,304232
2.0137,0.1857,37.7400,39,98,304236
2.0137,0.1857,37.5900,39,98,304239
2.0332,0.1906,37.6200,39,98,304242
2.0039,0.1857,37.6500,39,98,304245
2.0235,0.1955,37.5600,39,98,304249
1.9892,0.1857,37.6500,39,98,304252
1.9990,0.1808,37.6500,39,98,304256
2.0088,0.1906,37.5600,39,98,304260
1.9941,0.1906,37.9300,39,98,304263
2.0528,0.1955,37.4600,39,98,304266
1.9795,0.1857,37.6500,39,98,304270
1.9990,0.1711,37.7100,39,98,304273
1.9844,0.1906,37.6200,39,98,304276
1.9550,0.1857,37.7100,39,98,304279
1.9892,0.1857,37.4300,39,98,304283
1.9550,0.1906,37.6500,39,98,304286
1.9355,0.2053,37.6800,39,98,304289
1.9453,0.1906,37.1600,39,98,304293
1.9355,0.1906,37.7100,39,98,304296
1.9990,0.2053,37.5600,39,98,304300
1.9501,0.1906,37.5900,39,98,304304
1.9257,0.1857,37.6200,39,98,304307
1.9257,0.1857,37.7100,39,98,304310
1.9110,0.1906,37.7100,39,98,304314
1.9648,0.2004,37.5300,39,98,304317
1.9110,0.1906,37.5300,39,98,304320
1.9062,0.1857,37.6200,39,98,304323
1.8915,0.1857,37.7400,39,98,304327
1.8817,0.1857,37.7700,39,98,304330
1.9110,0.1857,37.6200,39,98,304333
1.8866,0.1906,37.7400,39,98,304337
1.9013,0.2102,37.5300,39,98,304340
1.8719,0.1857,37.9000,39,98,304344
1.8817,0.1711,37.6800,39,98,304348
1.9110,0.1955,37.6200,39,98,304351
1.8817,0.1906,37.6800,39,98,304354
1.9110,0.1857,37.5300,39,98,304357
1.8768,0.1857,37.6200,39,98,304361
1.8817,0.1857,37.9000,39,98,304364
1.9013,0.1906,37.5300,39,98,304367
1.8719,0.1857,37.6500,39,98,304371
1.8866,0.1906,37.4600,39,98,304374
1.8622,0.1857,37.5900,39,98,304377
1.8475,0.1857,37.7100,39,98,304381
1.8768,0.1906,37.5600,39,98,304385
1.8524,0.1857,37.6800,39,98,304388
1.9062,0.1955,37.3700,39,98,304392
1.8622,0.1857,37.5900,39,98,304395
1.8817,0.1906,37.7100,39,98,304398
1.8915,0.1906,37.6800,39,98,304401
1.8817,0.1955,37.7100,39,98,304405
1.9453,0.2053,37.6800,39,98,304408
1.9355,0.1955,37.5900,39,98,304411
1.9110,0.1808,37.6200,39,98,304415
1.9208,0.1857,37.6800,39,98,304418
1.9208,0.1955,37.7400,39,98,304421
1.9795,0.1955,37.5300,39,98,304425
1.9599,0.1857,37.6200,39,98,304429
1.9795,0.1857,37.5600,39,98,304432
1.9746,0.1808,37.6500,39,98,304436
1.9795,0.1857,37.6800,39,98,304439
2.0186,0.1955,37.4900,39,98,304442
1.9795,0.1906,37.6800,39,98,304445
1.9941,0.1906,37.5300,39,98,304449
1.9599,0.1906,37.6800,39,98,304452
1.9501,0.1808,37.6800,39,98,304455
1.9599,0.1857,37.5300,39,98,304459
1.9404,0.1857,37.6800,39,98,304462
1.9550,0.1711,37.5300,39,98,304465
1.9208,0.1857,37.7100,39,98,304470
1.9159,0.1857,37.9000,39,98,304473
1.9599,0.1955,37.5900,39,98,304476
1.9013,0.1857,37.7100,39,98,304479
1.9648,0.1711,37.4600,39,98,304483
1.9062,0.1906,37.6200,39,98,304486
1.8817,0.1857,37.6800,39,98,304489
1.9013,0.1955,37.6200,39,98,304493
1.8866,0.1857,37.6800,39,98,304496
1.9306,0.2151,37.4000,39,98,304499
1.8866,0.1857,37.7400,39,98,304503
1.8964,0.1857,37.6800,39,98,304506
1.8768,0.1906,37.5900,39,98,304509
1.8866,0.1857,37.7100,39,98,304514
1.9208,0.2053,37.5300,39,98,304517
1.8817,0.1955,37.6200,39,98,304520
1.8719,0.1808,37.5900,39,98,304523
1.8622,0.1906,37.6800,39,98,304527
1.8573,0.1955,37.6800,39,98,304530
1.8915,0.1906,37.7400,39,98,304533
1.8622,0.2004,37.6200,39,98,304537
1.8622,0.1857,37.5900,39,98,304540
1.8280,0.1808,37.7100,39,98,304543
1.8231,0.1857,37.7400,39,98,304547
1.8524,0.1955,37.5300,39,98,304550
1.8182,0.1906,37.6800,39,98,304553
1.8426,0.1955,37.5600,39,98,304557
1.8084,0.1857,37.9000,39,98,304561
1.7986,0.1808,37.6800,39,98,304564
1.8133,0.1857,37.4300,39,98,304567
1.7791,0.1906,37.6800,39,98,304571
1.7986,0.1857,37.5300,39,98,304574
1.7693,0.1808,37.6500,39,98,304577
1.7644,0.1857,37.7700,39,98,304581
1.7693,0.1906,37.5600,39,98,304584
1.7498,0.1857,37.6500,39,98,304587
1.7693,0.1955,37.4900,39,98,304591
1.7351,0.1857,37.7100,39,98,304594
1.7400,0.1515,37.7400,39,98,304598
1.7449,0.1906,37.6500,39,98,304601
1.7302,0.1857,37.6800,39,98,304605
1.7791,0.2053,37.4300,39,98,304608
1.7498,0.1906,37.6200,39,98,304611
1.7351,0.1857,37.6800,39,98,304615
1.7351,0.1857,37.7100,39,98,304618
1.7302,0.1857,37.6800,39,98,304621
1.7742,0.2297,37.4300,39,98,304625
1.7302,0.1906,37.6200,39,98,304628
1.7107,0.1808,37.6500,39,98,304631
1.7009,0.1857,37.6800,39,98,304635
1.6911,0.1857,37.6200,39,98,304638
1.7058,0.1955,37.5300,39,98,304642
1.6960,0.2004,37.6800,39,98,304645
1.7302,0.1857,37.5900,39,98,304649
1.7546,0.1857,37.6500,39,98,304652
1.8280,0.1857,37.8000,39,98,304655
1.9453,0.1955,37.6200,39,98,304659
2.0332,0.1857,37.6800,39,98,304662
2.1408,0.1906,37.5900,39,98,304665
2.1652,0.1857,37.8300,39,98,304669
2.1652,0.1760,37.6800,39,98,304672
2.1310,0.1906,37.5600,39,98,304675
1.9990,0.1808,37.8000,39,98,304678
1.9062,0.1955,37.5300,39,98,304683
1.7742,0.1857,37.5300,39,98,304686
1.6862,0.1808,37.7400,39,98,304689
1.6422,0.2444,37.6200,39,98,304693
1.6031,0.1857,37.6800,39,98,304696
1.6471,0.2102,37.4000,39,98,304699
1.6422,0.1906,37.6800,39,98,304703
1.6373,0.1760,37.6800,39,98,304706
1.6227,0.1906,37.6500,39,98,304709
1.5396,0.1808,37.7400,39,98,304712
1.5152,0.1955,37.4300,39,98,304716
1.4076,0.1906,37.5900,39,98,304719
1.3587,0.1808,37.7100,39,98,304722
1.3148,0.1906,37.6200,39,98,304727
1.3050,0.1857,37.6800,39,98,304730
1.3783,0.2004,37.4300,39,98,304733
1.4516,0.1906,37.5900,39,98,304737
1.4907,0.1760,37.6500,39,98,304740
1.5885,0.1857,37.6800,39,98,304743
1.6764,0.1808,37.7400,39,98,304746
1.7937,0.2004,37.4900,39,98,304750
1.9990,0.1857,37.5600,39,98,304754
1.9844,0.1857,37.7100,39,98,304757
2.0186,0.1808,37.5300,39,98,304760
1.9990,0.1760,37.6500,39,98,304763
1.9990,0.1857,37.6500,39,98,304768
2.0137,0.1857,37.5900,39,98,304771
1.9892,0.1857,37.6500,39,98,304774
2.0186,0.1711,37.4300,39,98,304778
1.9795,0.1955,37.7100,39,98,304781
1.9892,0.1808,37.7400,39,98,304784
2.0039,0.2053,37.6500,39,98,304788
1.9746,0.1808,37.6800,39,98,304791
2.0137,0.1906,37.4000,39,98,304794
1.9746,0.1857,37.5900,39,98,304797
1.9501,0.1808,37.6500,39,98,304801
1.9550,0.1857,37.6500,39,98,304804
1.9306,0.2053,37.6500,39,98,304807
2.0137,0.1955,37.4000,39,98,304812
1.9306,0.1857,37.5900,39,98,304815
1.9062,0.1711,37.6800,39,98,304818
1.9013,0.1857,37.7700,39,98,304822
1.9257,0.1808,37.6800,39,98,304825
1.9404,0.2004,37.5900,39,98,304828
1.9110,0.1857,37.6800,39,98,304831
1.8915,0.1808,37.5900,39,98,304835
1.8866,0.1857,37.6800,39,98,304838
1.8817,0.1515,37.7400,39,98,304841
1.9110,0.2297,37.6800,39,98,304845
1.8817,0.1857,37.6200,39,98,304848
1.8915,0.1857,37.5900,39,98,304851
1.8768,0.1857,37.6800,39,98,304856
1.9159,0.1808,37.6800,39,98,304859
1.9110,0.1906,37.6500,39,98,304862
1.8866,0.1857,37.6800,39,98,304865
1.8964,0.1906,37.4900,39,98,304869
1.8866,0.1760,37.6500,39,98,304872
1.8622,0.1808,36.8200,39,98,304875
1.8817,0.1906,37.5900,39,98,304879
1.8573,0.1808,37.6800,39,98,304882
1.8719,0.1711,37.4600,39,98,304885
1.8475,0.1760,37.5600,39,98,304889
1.8426,0.1857,37.6800,39,98,304892
1.8671,0.2297,37.5600,39,98,304896
1.8475,0.1857,37.7700,39,98,304900
1.8964,0.1955,37.4000,39,98,304903
1.8573,0.1808,37.6500,39,98,304906
1.8719,0.1711,37.7100,39,98,304909
1.8768,0.1906,37.6200,39,98,304913
1.8768,0.1857,37.7100,39,98,304916
1.9404,0.2053,37.4300,39,98,304919
1.9159,0.1857,37.6800,39,98,304923
1.9208,0.1857,37.6800,39,98,304926
1.9404,0.1857,37.8700,39,98,304929
1.9599,0.1760,37.6800,39,98,304933
2.0283,0.1906,37.5300,39,98,304936
2.0186,0.1955,37.6200,39,98,304940
2.0283,0.1808,37.5900,39,98,304943
2.0283,0.1857,37.9000,39,98,304947
2.0235,0.1906,37.6800,39,98,304950
2.0577,0.1955,37.4900,39,98,304953
2.0283,0.1906,37.6200,39,98,304957
2.0626,0.1808,37.6200,39,98,304960
1.9990,0.1857,37.7700,39,98,304963
1.9990,0.1808,37.7100,39,98,304967
1.9990,0.1906,37.4600,39,98,304970
1.9795,0.2004,37.7100,39,98,304973
1.9941,0.1906,37.5300,39,98,304976
1.9941,0.1808,37.6800,39,98,304980
1.9697,0.1808,37.7100,39,98,304984
1.9892,0.2346,37.5600,39,98,304987
1.9501,0.1857,37.0400,39,98,304991
1.9550,0.1760,37.4900,39,98,304994
1.9208,0.1857,37.5900,39,98,304997
1.9110,0.2004,37.7100,39,98,305001
1.9306,0.1906,37.6200,39,98,305004
1.9062,0.2053,37.6500,39,98,305007
1.9257,0.1857,37.4000,39,98,305010
1.8866,0.1906,37.6200,39,98,305014
1.8768,0.1711,37.7100,39,98,305017
1.8866,0.1906,37.6200,39,98,305020
1.8622,0.1857,37.7400,39,98,305025
1.9013,0.1906,37.4000,39,98,305028
1.8573,0.1857,37.5900,39,98,305031
1.8475,0.1808,37.7100,39,98,305035
1.8573,0.1906,37.6500,39,98,305038
1.8377,0.1857,37.6800,39,98,305041
1.8866,0.2004,37.3700,39,98,305044
1.8377,0.1906,37.7400,39,98,305048
1.8182,0.1760,37.6200,39,98,305051
1.8182,0.1906,37.6800,39,98,305054
1.8084,0.1808,37.7400,39,98,305058
1.8573,0.1955,37.4600,39,98,305061
1.8377,0.1857,37.6500,39,98,305064
1.8377,0.1857,37.5600,39,98,305069
1.8133,0.1857,37.7100,39,98,305072
1.7986,0.1857,37.6500,39,98,305075
1.8084,0.1906,37.1900,39,98,305079
1.7791,0.1857,37.6800,39,98,305082
1.7937,0.1906,37.5600,39,98,305085
1.7693,0.1857,37.7100,39,98,305088
1.7595,0.1955,37.7100,39,98,305092
1.7693,0.1857,37.6800,39,98,305095
1.7595,0.1857,37.7100,39,98,305098
1.7791,0.1906,37.4900,39,98,305102
1.7498,0.2199,37.7400,39,98,305105
1.7449,0.1808,37.7100,39,98,305108
1.7595,0.2199,37.5300,39,98,305113
1.7400,0.1857,37.7700,39,98,305116
1.7742,0.1906,37.4600,39,98,305119
1.7546,0.1906,37.5900,39,98,305122
1.7400,0.1906,37.6500,39,98,305126
1.7546,0.1906,37.6500,39,98,305129
1.7351,0.2004,37.7100,39,98,305132
1.7742,0.1906,37.4000,39,98,305136
1.7302,0.1808,37.6200,39,98,305139
1.7204,0.1808,37.7100,39,98,305142
1.7155,0.1857,37.7100,39,98,305146
1.6911,0.1808,37.6800,39,98,305149
1.7400,0.2004,37.3700,39,98,305153
1.7302,0.1711,37.5600,39,98,305156
1.7058,0.1808,37.6500,39,98,305160
1.7107,0.1906,37.6500,39,98,305163
1.7204,0.1857,37.7400,39,98,305166
1.7693,0.1906,37.5300,39,98,305170
1.7351,0.1906,37.5900,39,98,305173
1.7595,0.1711,37.5600,39,98,305176
1.7351,0.1760,37.6800,39,98,305180
1.7498,0.1808,37.6800,39,98,305183
1.7986,0.1955,37.4600,39,98,305186
1.7937,0.1857,37.6500,39,98,305190
1.8328,0.1906,37.5300,39,98,305193
1.8328,0.1857,37.7100,39,98,305197
1.8426,0.1808,37.7100,39,98,305200
1.8817,0.1857,37.5600,39,98,305204
1.8719,0.1808,37.6800,39,98,305207
1.9062,0.1857,37.6200,39,98,305210
1.9208,0.1808,37.6500,39,98,305214
1.8964,0.1857,37.6800,39,98,305217
1.9257,0.1857,37.5900,39,98,305220
1.9159,0.1857,37.6500,39,98,305224
1.9550,0.1711,37.4300,39,98,305227
1.9306,0.1857,37.6800,39,98,305230
1.9404,0.1857,37.6800,39,98,305234
1.9550,0.2151,37.6200,39,98,305238
1.9355,0.1857,37.8000,39,98,305241
1.9795,0.1955,37.3700,39,98,305244
1.9355,0.1906,37.6500,39,98,305248
1.9062,0.1857,37.6500,39,98,305251
1.9013,0.1857,37.7100,39,98,305254
1.8964,0.1857,37.6800,39,98,305258
1.9453,0.2004,37.4600,39,98,305261
1.9110,0.1906,37.6200,39,98,305264
1.8964,0.1808,37.6200,39,98,305268
1.8964,0.1857,37.6800,39,98,305271
1.8915,0.1857,37.7700,39,98,305274
1.9257,0.1955,37.5300,39,98,305277
1.9062,0.1906,37.6800,39,98,305282
1.9404,0.1711,37.6200,39,98,305285
1.8768,0.1857,37.7100,39,98,305288
1.8768,0.1857,37.7100,39,98,305292
1.8866,0.1906,37.6200,39,98,305295
1.8671,0.1857,37.6800,39,98,305298
1.8915,0.1955,37.5600,39,98,305302
1.8622,0.1857,37.6500,39,98,305305
1.8573,0.1857,37.6800,39,98,305308
1.8768,0.1906,37.5300,39,98,305312
1.8475,0.1857,37.6800,39,98,305315
1.8671,0.1857,37.5300,39,98,305318
1.8524,0.1857,37.5600,39,98,305321
1.8524,0.1808,37.7100,39,98,305326
1.8622,0.1857,37.6800,39,98,305329
1.8426,0.1808,37.7100,39,98,305332
1.8719,0.2248,37.4000,39,98,305336
1.8426,0.1857,37.6800,39,98,305339
1.8280,0.1857,37.7100,39,98,305342
1.8328,0.1906,37.6200,39,98,305346
1.8133,0.1808,37.6800,39,98,305349
1.8719,0.1955,37.3700,39,98,305352
1.8133,0.1760,37.4900,39,98,305356
1.7986,0.1808,37.7400,39,98,305359
1.7889,0.1857,37.7100,39,98,305362
1.7644,0.1857,37.7100,39,98,305367
1.7742,0.1808,37.7700,39,98,305370
1.8035,0.2004,37.5600,39,98,305373
1.7742,0.1857,37.7400,39,98,305377
1.7937,0.2151,37.5600,39,98,305380
1.7595,0.1808,37.6500,39,98,305383
1.7498,0.1857,37.7100,39,98,305387
1.7546,0.2297,37.5300,39,98,305390
1.7302,0.1808,37.6500,39,98,305393
1.7400,0.1857,37.4000,39,98,305397
1.7253,0.1857,37.5900,39,98,305400
1.7400,0.1808,37.8700,39,98,305403
1.7693,0.1955,37.5600,39,98,305406
1.7644,0.1857,37.6800,39,98,305411
1.8035,0.1857,37.4600,39,98,305414
1.7693,0.1808,37.6500,39,98,305417
1.7791,0.1760,37.7100,39,98,305421
1.8035,0.1906,37.9000,39,98,305424
1.8182,0.1711,37.6800,39,98,305427
1.8768,0.1955,37.3700,39,98,305431
1.8524,0.1955,37.6200,39,98,305434
1.8475,0.1808,37.6500,39,98,305437
1.8671,0.1857,37.7100,39,98,305441
1.8671,0.2102,37.6200,39,98,305444
1.9404,0.2004,37.4900,39,98,305447
1.9159,0.1857,37.6800,39,98,305451
1.9208,0.1808,37.5900,39,98,305455
1.9257,0.1808,37.7100,39,98,305458
1.9355,0.1857,37.6800,39,98,305461
1.9697,0.1906,37.5300,39,98,305465
1.9404,0.1906,37.6200,39,98,305468
1.9453,0.1857,37.5600,39,98,305471
1.9208,0.1857,37.6800,39,98,305475
1.9159,0.1760,37.6800,39,98,305478
1.9355,0.1906,37.6200,39,98,305481
1.9062,0.2248,37.6500,39,98,305484
1.9355,0.1906,37.5300,39,98,305488
1.9013,0.1857,37.6800,39,98,305491
1.8964,0.1808,37.7700,39,98,305495
1.9159,0.2004,37.5600,39,98,305499
1.8964,0.1857,37.6500,39,98,305502
1.9257,0.1857,37.5300,39,98,305505
1.9110,0.1857,37.6200,39,98,305509
1.9062,0.1711,37.7100,39,98,305512
1.9159,0.1906,37.6200,39,98,305515
1.8915,0.1857,37.6200,39,98,305519
1.9501,0.1955,37.4300,39,98,305522
1.9013,0.1906,37.5900,39,98,305525
1.8915,0.1857,37.7100,39,98,305528
1.9110,0.1906,37.6200,39,98,305532
1.8915,0.2151,37.6800,39,98,305536
1.9550,0.1955,37.3700,39,98,305539
1.9062,0.1857,37.5600,39,98,305543
1.8915,0.1760,37.8300,39,98,305546
1.9159,0.1808,37.7100,39,98,305549
1.8622,0.1857,37.6500,39,98,305553
1.9013,0.2004,37.4900,39,98,305556
1.8426,0.1906,37.6200,39,98,305559
1.8280,0.1857,37.6500,39,98,305563
1.8182,0.1857,37.6800,39,98,305566
1.8231,0.1857,37.6800,39,98,305569
1.8573,0.2053,37.5600,39,98,305572
1.8231,0.1906,37.8000,39,98,305576
1.8280,0.1857,37.4900,39,98,305580
1.7986,0.1857,37.6800,39,98,305583
1.7889,0.2102,37.6200,39,98,305587
1.8182,0.1955,37.4600,39,98,305590
1.7986,0.1808,37.6800,39,98,305593
1.8231,0.1906,37.6800,39,98,305597
1.7986,0.1857,37.7100,39,98,305600
1.7986,0.1857,37.7700,39,98,305603
1.8084,0.1857,37.5600,39,98,305606
1.7937,0.1857,37.6800,39,98,305610
1.8084,0.1857,37.5300,39,98,305613
1.7791,0.1857,37.6800,39,98,305616
1.7889,0.1857,37.6800,39,98,305620
1.8280,0.1906,37.4600,39,98,305624
1.8622,0.1857,37.7100,39,98,305627
1.9795,0.1906,37.4000,39,98,305631
2.0528,0.1906,37.5900,39,98,305634
2.1114,0.1857,37.6500,39,98,305637
2.1994,0.1906,37.6500,39,98,305641
2.2141,0.1857,37.6500,39,98,305644
2.2483,0.1955,37.3700,39,98,305647
2.1212,0.1808,37.5900,39,98,305650
2.0088,0.1711,37.6800,39,98,305654
1.8964,0.2053,37.7100,39,98,305657
1.7840,0.1857,37.7100,39,98,305660
1.7595,0.2004,37.4000,39,98,305665
1.7107,0.2004,37.5600,39,98,305668
1.6422,0.1808,37.6200,39,98,305671
1.6325,0.1808,37.6800,39,98,305675
1.6178,0.1808,37.8300,39,98,305678
1.6129,0.2053,37.5900,39,98,305681
1.5103,0.1857,37.6500,39,98,305684
1.4467,0.1857,37.5300,39,98,305688
1.3490,0.1906,37.7400,39,98,305691
1.3148,0.1760,37.7100,39,98,305694
1.2659,0.1906,36.8200,39,98,305698
1.2463,0.1857,37.6800,39,98,305701
1.3001,0.1906,37.6200,39,98,305704
1.3587,0.1857,37.7100,39,98,305709
1.4516,0.1808,37.7100,39,98,305712
1.5591,0.1857,37.5900,39,98,305715
1.6373,0.1857,37.6800,39,98,305718
1.7400,0.1711,37.4600,39,98,305722
1.7986,0.1808,37.5900,39,98,305725
1.8964,0.1808,37.6800,39,98,305728
1.9306,0.1906,37.4600,39,98,305732
1.9306,0.1857,37.6200,39,98,305735
1.9892,0.1857,37.4000,39,98,305738
1.9501,0.1711,37.6500,39,98,305742
1.9599,0.1857,37.7100,39,98,305745
1.9746,0.1711,37.6800,39,98,305748
1.9648,0.1857,37.8000,39,98,305753
2.0137,0.1906,37.3400,39,98,305756
1.9795,0.1906,37.5300,39,98,305759
1.9648,0.1808,37.6800,39,98,305762
1.9697,0.1857,37.7100,39,98,305766
1.9550,0.1711,37.6800,39,98,305769
2.0283,0.2004,37.4900,39,98,305772
1.9746,0.1955,37.5900,39,98,305776
1.9697,0.1808,37.5300,39,98,305779
1.9697,0.1906,37.6800,39,98,305782
1.9550,0.1515,37.8000,39,98,305786
1.9941,0.1857,37.5600,39,98,305789
1.9648,0.1906,37.5300,39,98,305793
1.9599,0.1857,37.5300,39,98,305796
1.9355,0.1857,37.8300,39,98,305800
1.9208,0.1808,37.7100,39,98,305803
1.9453,0.1906,37.6800,39,98,305806
1.9306,0.1857,37.6800,39,98,305810
1.9453,0.1906,37.5900,39,98,305813
1.9062,0.1857,37.6800,39,98,305816
1.9110,0.1857,37.6500,39,98,305820
1.9404,0.1906,37.5600,39,98,305823
1.9110,0.1808,37.6500,39,98,305826
1.9355,0.1857,37.4900,39,98,305829
1.9110,0.1808,37.5900,39,98,305833
1.9013,0.1808,37.7400,39,98,305837
1.9159,0.1955,37.5900,39,98,305840
1.8866,0.1857,37.7100,39,98,305844
1.9110,0.2151,37.4000,39,98,305847
1.8768,0.1906,37.5900,39,98,305850
1.8622,0.1808,37.7400,39,98,305854
1.8817,0.1906,37.5600,39,98,305857
1.8573,0.1857,37.7700,39,98,305860
1.9013,0.1906,37.4000,39,98,305864
1.8524,0.1808,37.5900,39,98,305867
1.8426,0.1857,37.7100,39,98,305870
1.8426,0.1906,37.6500,39,98,305873
1.8328,0.1808,37.7100,39,98,305878
1.8817,0.2395,37.4300,39,98,305881
1.8426,0.1906,37.6200,39,98,305884
1.8328,0.1808,37.5900,39,98,305888
1.8280,0.1857,37.6800,39,98,305891
1.8231,0.1857,37.7100,39,98,305894
1.8524,0.1955,37.3400,39,98,305898
1.8182,0.1906,37.6500,39,98,305901
1.8133,0.1857,37.5600,39,98,305904
1.8231,0.1711,37.6800,39,98,305907
1.7840,0.1857,37.7400,39,98,305911
1.8035,0.1906,37.5600,39,98,305914
1.7840,0.1857,37.6500,39,98,305917
1.8133,0.1808,37.5600,39,98,305922
1.7840,0.1857,37.9600,39,98,305925
1.8084,0.1857,37.7400,39,98,305928
1.8182,0.1857,37.1000,39,98,305932
1.8231,0.1857,37.7100,39,98,305935
1.8475,0.2151,37.4600,39,98,305938
1.8377,0.1857,37.7700,39,98,305942
1.8573,0.1857,37.7100,39,98,305945
1.8964,0.1906,37.5900,39,98,305948
1.8964,0.1857,37.6800,39,98,305951
1.9501,0.1906,37.4300,39,98,305955
1.9501,0.1906,37.6500,39,98,305958
1.9501,0.1808,37.9900,39,98,305961
1.9795,0.1955,37.6200,39,98,305966
1.9795,0.1857,37.6800,39,98,305969
2.0430,0.1955,37.3400,39,98,305972
2.0283,0.1955,37.5300,39,98,305977
1.9990,0.1906,37.6800,39,98,305980
1.9941,0.1857,37.6200,39,98,305984
1.9795,0.1857,37.6800,39,98,305987
1.9795,0.1808,37.7100,39,98,305990
2.0039,0.1906,37.6200,39,98,305994
1.9892,0.1906,37.6500,39,98,305997
1.9990,0.1857,37.5300,39,98,306000
1.9697,0.1906,37.6800,39,98,306003
1.9697,0.1857,37.6800,39,98,306008
1.9941,0.1906,37.5300,39,98,306011
1.9550,0.1857,37.5300,39,98,306014
2.0137,0.1857,37.5300,39,98,306018
1.9404,0.1808,37.7100,39,98,306021
1.9355,0.2199,37.6800,39,98,306024
1.9501,0.1906,37.4900,39,98,306028
1.9257,0.1808,37.6800,39,98,306031
1.9550,0.1857,37.5900,39,98,306034
1.9306,0.1808,37.6200,39,98,306037
1.9208,0.1808,37.6800,39,98,306041
1.9404,0.2102,37.6200,39,98,306044
1.9062,0.1711,37.6800,39,98,306048
1.9404,0.1906,37.3400,39,98,306052
1.8866,0.1808,37.5900,39,98,306055
1.8915,0.1857,37.7100,39,98,306058
1.8915,0.1906,37.6800,39,98,306062
1.8719,0.1808,37.6800,39,98,306065
1.9208,0.2004,37.4300,39,98,306068
1.8817,0.1906,37.5300,39,98,306071
1.8622,0.1808,37.6200,39,98,306075
1.8622,0.1808,37.6800,39,98,306078
1.8475,0.1857,37.6800,39,98,306081
1.8817,0.1906,37.4900,39,98,306085
1.8426,0.1906,37.6800,39,98,306088
1.8231,0.1857,37.5900,39,98,306092
1.8035,0.1857,37.6800,39,98,306096
1.8084,0.1857,37.8300,39,98,306099
1.8377,0.1906,37.5600,39,98,306102
1.8133,0.1808,37.6500,39,98,306105
1.8231,0.1857,37.5600,39,98,306109
1.7937,0.2053,37.6800,39,98,306112
1.7937,0.1857,37.8300,39,98,306115
1.8035,0.1808,37.5900,39,98,306119
1.7742,0.1857,37.7100,39,98,306122
1.8035,0.1857,37.5600,39,98,306125
1.7644,0.1857,37.7700,39,98,306129
1.7840,0.1808,37.7100,39,98,306132
1.7840,0.1906,37.7700,39,98,306136
1.7595,0.1808,37.6800,39,98,306140
1.7693,0.1857,37.4900,39,98,306143
1.7400,0.1711,37.5600,39,98,306146
1.7302,0.1857,37.6800,39,98,306149
1.7449,0.1906,37.6200,39,98,306153
1.7155,0.1906,37.6500,39,98,306156
1.7498,0.1906,37.4000,39,98,306159
1.7155,0.1808,37.5900,39,98,306163
1.7107,0.1857,37.6800,39,98,306166
1.7351,0.1906,37.5300,39,98,306169
1.7595,0.1857,37.6800,39,98,306173
1.8768,0.2004,37.3700,39,98,306177
1.9257,0.1857,37.5600,39,98,306180
2.0137,0.2102,37.6500,39,98,306183
2.1114,0.1857,37.6800,39,98,306187
2.1848,0.1857,37.6800,39,98,306190
2.2776,0.2004,37.5300,39,98,306193
2.2092,0.1711,37.6200,39,98,306197
2.1310,0.1857,36.9500,39,98,306200
2.0039,0.1857,37.7100,39,98,306203
1.8817,0.2151,37.7100,39,98,306207
1.8133,0.1906,37.5300,39,98,306210
1.7155,0.1857,37.6800,39,98,306213
1.6862,0.1857,37.5300,39,98,306217
1.6520,0.1857,37.7100,39,98,306221
1.6520,0.1857,37.6800,39,98,306224
1.6667,0.1808,37.5600,39,98,306227
1.6080,0.1857,37.7400,39,98,306231
1.5738,0.1808,37.5300,39,98,306234
1.4809,0.1808,37.6500,39,98,306237
1.4418,0.1808,37.7100,39,98,306241
1.3636,0.1857,37.1300,39,98,306244
1.3196,0.1857,37.7400,39,98,306247
1.3392,0.1857,37.4900,39,98,306251
1.3539,0.1808,37.7100,39,98,306254
1.4174,0.1857,37.7400,39,98,306257
1.5054,0.1906,37.6800,39,98,306262
1.5934,0.1760,37.7400,39,98,306265
1.7009,0.1906,37.8300,39,98,306268
1.7546,0.1857,37.6200,39,98,306271
1.8133,0.1857,37.7100,39,98,306275
1.8866,0.1955,37.6500,39,98,306278
1.9159,0.1857,37.6800,39,98,306281
2.0039,0.2004,37.4600,39,98,306285
1.9746,0.1906,37.5900,39,98,306288
1.9746,0.1711,37.6200,39,98,306291
1.9795,0.1906,37.6500,39,98,306295
1.9795,0.1857,37.6800,39,98,306298
2.0235,0.1906,37.4900,39,98,306301
1.9941,0.1906,37.6200,39,98,306305
1.9892,0.1857,37.5600,39,98,306309
1.9990,0.1857,37.7400,39,98,306312
1.9550,0.1857,37.7400,39,98,306315
1.9746,0.1906,37.6500,39,98,306319
1.9453,0.1857,37.6500,39,98,306322
1.9697,0.1857,37.5300,39,98,306325
1.9257,0.1906,37.6800,39,98,306329
1.9208,0.1808,37.6800,39,98,306332
1.9599,0.1955,37.5300,39,98,306335
1.9306,0.1857,37.7100,39,98,306339
1.9453,0.1857,37.5300,39,98,306342
1.9110,0.1808,37.6800,39,98,306345
1.9013,0.1808,37.6800,39,98,306349
1.9159,0.1906,37.9000,39,98,306353
1.8915,0.1857,37.6800,39,98,306356
1.9208,0.1906,37.4300,39,98,306359
1.8866,0.1857,37.5900,39,98,306363
1.8719,0.1808,37.6800,39,98,306366
1.8866,0.2053,37.5900,39,98,306369
1.8573,0.1857,37.7100,39,98,306373
1.9013,0.1857,37.4000,39,98,306376
1.8524,0.1808,37.6200,39,98,306379
1.8475,0.1857,37.7100,39,98,306382
1.8573,0.1857,37.7400,39,98,306386
1.8573,0.1857,37.7400,39,98,306390
1.9110,0.2102,37.4600,39,98,306393
1.8768,0.1955,37.6500,39,98,306397
1.8622,0.1808,37.6200,39,98,306400
1.8622,0.1857,37.1300,39,98,306403
1.8573,0.1711,37.7100,39,98,306407
1.8866,0.1906,37.4900,39,98,306410
1.8524,0.1857,37.6500,39,98,306413
1.8573,0.2053,37.5600,39,98,306417
1.8377,0.1808,37.6800,39,98,306420
1.8328,0.1808,37.8000,39,98,306423
1.8622,0.1906,37.5300,39,98,306426
1.8524,0.2199,37.6800,39,98,306430
1.8817,0.1906,37.5600,39,98,306434
1.8622,0.1955,37.8000,39,98,306437
1.8719,0.1808,37.7100,39,98,306441
1.8817,0.1906,37.6200,39,98,306444
1.8817,0.1857,37.6800,39,98,306447
1.9208,0.2053,37.4600,39,98,306451
1.9110,0.1857,37.7400,39,98,306454
1.9355,0.1857,37.7100,39,98,306457
1.9746,0.1906,37.5900,39,98,306461
1.9746,0.1711,37.6800,39,98,306464
2.0283,0.2004,37.4000,39,98,306467
2.0430,0.1711,37.5300,39,98,306470
2.0186,0.1808,37.6800,39,98,306475
2.0381,0.1711,37.6200,39,98,306478
2.0332,0.1857,37.4300,39,98,306481
2.0919,0.1857,37.4000,39,98,306485
2.0479,0.1857,37.6200,39,98,306488
2.0381,0.1906,37.7100,39,98,306491
2.0430,0.1906,37.6500,39,98,306495
2.0235,0.1808,37.5600,39,98,306498
2.0723,0.2004,37.4300,39,98,306501
2.0283,0.1857,37.6500,39,98,306504
2.0088,0.1808,37.6500,39,98,306508
2.0088,0.1711,37.6800,39,98,306511
1.9844,0.1906,37.6800,39,98,306514
2.0283,0.1906,37.5300,39,98,306519
1.9795,0.1857,37.6800,39,98,306522
1.9648,0.1906,37.5600,39,98,306525
1.9453,0.1857,37.6800,39,98,306528
1.9355,0.1711,37.7100,39,98,306532
1.9648,0.2297,37.4900,39,98,306535
1.9257,0.1857,37.1000,39,98,306538
1.9355,0.1808,37.5600,39,98,306542
1.9062,0.1808,37.7400,39,98,306545
1.9208,0.1808,37.7100,39,98,306548
1.9159,0.1906,37.5600,39,98,306552
1.9208,0.1857,37.6800,39,98,306555
1.9159,0.1857,37.5600,39,98,306558
1.8768,0.1760,37.6500,39,98,306563
1.8719,0.1808,37.8700,39,98,306566
1.8817,0.1906,37.5300,39,98,306569
1.8573,0.1857,37.8700,39,98,306572
1.8768,0.1857,37.4300,39,98,306576
1.8426,0.1857,37.7400,39,98,306579
1.8719,0.1808,37.7100,39,98,306582
1.8573,0.1955,37.5900,39,98,306586
1.8182,0.1857,37.7100,39,98,306590
1.8182,0.1711,37.6800,39,98,306594
1.8524,0.1906,36.8500,39,98,306597
1.8133,0.1906,37.6500,39,98,306600
1.8035,0.1808,37.5600,39,98,306605
1.7937,0.1515,37.6800,39,98,306608
1.7889,0.2053,37.6800,39,98,306611
1.8133,0.1906,37.5300,39,98,306615
1.7889,0.1808,37.6800,39,98,306618
1.7937,0.1857,37.5300,39,98,306621
1.7644,0.1857,37.6500,39,98,306624
1.7595,0.1808,37.6500,39,98,306628
1.7742,0.1808,37.6500,39,98,306631
1.7546,0.1857,37.7700,39,98,306634
1.7742,0.1808,37.5600,39,98,306638
1.7449,0.2053,37.6800,39,98,306641
1.7546,0.1711,37.7100,39,98,306644
1.7693,0.2004,37.5300,39,98,306649
1.7351,0.1857,37.6800,39,98,306652
1.7644,0.1857,37.4900,39,98,306655
1.7400,0.1808,37.5600,39,98,306659
1.7204,0.1808,37.7100,39,98,306662
1.7351,0.1906,37.6200,39,98,306665
1.7058,0.1808,37.6500,39,98,306668
1.7693,0.1906,37.4000,39,98,306672
1.7155,0.1857,37.5900,39,98,306675
1.7058,0.1760,37.7100,39,98,306678
1.7253,0.1857,37.6500,39,98,306682
1.7204,0.1711,37.6800,39,98,306685
1.7693,0.1955,37.4000,39,98,306689
1.7351,0.1857,37.5600,39,98,306693
1.7302,0.1808,37.6500,39,98,306696
1.7449,0.1857,37.7100,39,98,306699
1.7889,0.1711,37.6800,39,98,306702
1.8280,0.2004,37.5900,39,98,306706
1.8133,0.1857,37.6200,39,98,306709
1.8377,0.1808,37.5600,39,98,306712
1.8475,0.1857,37.7100,39,98,306716
1.8671,0.1808,37.7400,39,98,306719
1.9355,0.1906,37.4900,39,98,306722
1.9110,0.2004,37.6800,39,98,306726
1.9306,0.1808,37.5900,39,98,306729
1.9208,0.1857,37.9000,39,98,306733
1.9208,0.1857,37.7400,39,98,306736
1.9501,0.1906,37.5900,39,98,306740
1.9306,0.1857,37.7400,39,98,306743
1.9599,0.1906,37.6200,39,98,306746
1.9208,0.2297,37.6500,39,98,306750
1.9208,0.1808,37.7100,39,98,306753
1.9404,0.2053,37.5300,39,98,306756
1.9306,0.1857,37.6500,39,98,306760
1.9550,0.1857,37.4600,39,98,306763
1.9257,0.1808,37.7100,39,98,306766
1.9257,0.1760,37.6500,39,98,306769
1.9404,0.1906,37.6500,39,98,306774
1.9159,0.1857,37.8000,39,98,306777
1.9550,0.1857,37.4000,39,98,306780
1.9306,0.2199,37.6200,39,98,306784
1.9159,0.1857,37.7100,39,98,306787
1.9355,0.1857,37.6200,39,98,306790
1.9013,0.1808,37.6800,39,98,306794
1.9501,0.2199,37.3700,39,98,306797
1.9110,0.1857,37.5600,39,98,306800
1.9013,0.1760,37.6800,39,98,306804
1.9062,0.1857,37.6800,39,98,306807
1.8964,0.1857,37.6800,39,98,306810
1.9501,0.1906,37.5900,39,98,306813
1.9159,0.2004,37.6200,39,98,306818
1.9062,0.1808,37.5900,39,98,306821
1.8866,0.1808,37.7100,39,98,306824
1.8817,0.1808,37.7400,39,98,306828
1.9159,0.1955,37.6200,39,98,306831
1.8817,0.1857,37.9000,39,98,306834
1.8915,0.1760,37.5600,39,98,306838
1.8671,0.1760,37.6800,39,98,306841
1.8719,0.1808,37.7100,39,98,306844
1.8964,0.2151,37.5600,39,98,306847
1.8622,0.1857,37.7400,39,98,306851
1.8768,0.1808,37.5600,39,98,306854
1.8328,0.1808,37.6500,39,98,306857
1.8280,0.1857,37.6800,39,98,306862
1.8426,0.1906,37.5900,39,98,306865
1.8182,0.2199,37.6800,39,98,306868
1.8377,0.1808,37.4900,39,98,306872
1.8231,0.1857,37.6800,39,98,306875
1.7986,0.1515,37.7100,39,98,306878
1.8084,0.1906,37.5900,39,98,306882
1.7791,0.1711,37.7100,39,98,306885
1.8182,0.1906,37.4000,39,98,306888
1.7791,0.1760,37.6200,39,98,306891
1.7840,0.1760,37.7100,39,98,306895
1.7937,0.1857,37.6500,39,98,306898
1.8084,0.1808,37.7100,39,98,306902
1.8328,0.1906,37.4300,39,98,306906
1.7889,0.1857,37.5900,39,98,306909
1.7742,0.1760,37.7100,39,98,306912
1.7742,0.1857,37.7100,39,98,306916
1.7546,0.1808,37.7400,39,98,306919
1.7937,0.1955,37.4600,39,98,306922
1.7595,0.1906,37.5900,39,98,306925
1.7498,0.1808,37.6200,39,98,306929
1.7400,0.1857,37.6800,39,98,306932
1.7400,0.1808,37.6800,39,98,306935
1.7791,0.1906,37.4300,39,98,306939
1.7693,0.1857,37.6500,39,98,306942
1.7840,0.1857,38.0500,39,98,306946
1.7937,0.1711,37.7100,39,98,306950
1.7742,0.1857,37.7100,39,98,306953
1.7937,0.1808,37.6800,39,98,306956
1.8035,0.2004,37.6500,39,98,306960
1.8475,0.1906,37.5900,39,98,306963
1.8377,0.1760,37.6800,39,98,306966
1.8524,0.1906,37.7100,39,98,306969
1.8915,0.1857,37.5600,39,98,306973
1.8866,0.1857,37.6200,39,98,306976
1.9306,0.1711,37.4600,39,98,306979
1.9208,0.1857,37.5600,39,98,306983
1.9208,0.1857,37.7100,39,98,306987
1.9453,0.1955,37.5900,39,98,306990
1.9306,0.1808,37.6800,39,98,306994
1.9746,0.1906,37.4000,39,98,306997
1.9453,0.1808,37.6200,39,98,307000
1.9257,0.1955,37.6500,39,98,307003
1.9355,0.1906,37.6500,39,98,307007
1.9208,0.1808,37.6800,39,98,307010
1.9697,0.1955,37.3700,39,98,307013
1.9355,0.1808,37.5300,39,98,307017
1.9208,0.1808,37.6800,39,98,307020
1.9257,0.1857,37.6200,39,98,307023
1.9208,0.1808,37.6800,39,98,307027
1.9697,0.2297,37.5600,39,98,307031
1.9306,0.1857,37.6500,39,98,307034
1.9257,0.1808,37.5900,39,98,307038
1.9110,0.1857,37.9000,39,98,307041
1.9062,0.1760,37.6800,39,98,307044
1.9355,0.1906,37.4900,39,98,307047
1.9013,0.1906,37.6800,39,98,307051
1.9159,0.1857,37.5900,39,98,307054
1.8915,0.2004,37.6500,39,98,307057
1.8964,0.1808,37.6800,39,98,307061
1.9257,0.1955,37.6200,39,98,307064
1.9013,0.1857,37.6800,39,98,307067
1.9257,0.1808,37.5600,39,98,307072
1.8964,0.1857,37.7100,39,98,307075
1.8866,0.1808,37.7100,39,98,307078
1.8964,0.1857,37.9300,39,98,307081
1.9013,0.1808,37.6800,39,98,307085
1.8964,0.1857,37.5300,39,98,307088
1.8573,0.1857,37.7100,39,98,307091
1.8622,0.1857,37.6800,39,98,307095
1.8671,0.1955,37.6200,39,98,307098
1.8573,0.1808,37.6800,39,98,307101
1.9013,0.1906,37.5900,39,98,307105
1.8671,0.1906,37.6200,39,98,307108
1.8328,0.1808,37.8000,39,98,307111
1.8475,0.1857,37.6800,39,98,307116
1.8231,0.1808,37.6800,39,98,307119
1.8817,0.1955,37.4300,39,98,307122
1.8377,0.1857,37.5300,39,98,307125
1.8182,0.1760,37.6500,39,98,307129
1.8182,0.1857,37.6500,39,98,307132
1.8035,0.1808,37.7100,39,98,307135
1.8622,0.1955,37.5300,39,98,307139
1.8622,0.1906,37.6800,39,98,307142
1.9110,0.1857,37.5900,39,98,307145
1.9746,0.1857,37.6800,39,98,307149
2.0968,0.1711,37.7400,39,98,307152
2.1750,0.1906,37.7400,39,98,307155
2.2092,0.1906,37.6500,39,98,307159
2.2483,0.1711,37.5600,39,98,307163
2.1603,0.1906,37.7100,39,98,307166
2.0528,0.1808,37.6800,39,98,307169
1.9501,0.1955,37.5300,39,98,307173
1.7840,0.1857,37.7400,39,98,307176
1.6960,0.1906,37.5300,39,98,307179
1.5885,0.1808,37.6500,39,98,307183
1.5347,0.1808,37.5300,39,98,307186
1.5298,0.1906,37.5600,39,98,307189
1.5152,0.1906,37.6500,39,98,307193
1.5249,0.1857,37.4600,39,98,307196
1.2561,0.1906,37.3400,39,98,307202
1.1926,0.1857,37.5900,39,98,307205
1.1926,0.1760,37.6800,39,98,307208
1.2317,0.1857,37.6200,39,98,307211
1.2952,0.1857,37.7400,39,98,307215
1.4223,0.2102,37.4900,39,98,307218
1.4907,0.1857,37.6500,39,98,307221
1.5885,0.1808,37.6200,39,98,307225
1.6813,0.1857,37.7100,39,98,307228
1.7742,0.1857,37.7400,39,98,307231
1.8915,0.1906,37.5600,39,98,307235
1.9208,0.1857,37.6800,39,98,307238
1.9746,0.1857,37.6500,39,98,307241
1.9746,0.1906,37.6800,39,98,307245
1.9941,0.1857,37.7100,39,98,307249
2.0283,0.1711,37.5900,39,98,307252
2.0137,0.1515,37.7100,39,98,307255
