ecg,gsr,temp,hr,spo2,timest
2.0772,0.4399,38.6500,65,97,212328
2.0821,0.4057,38.4900,65,97,212331
2.0821,0.3275,38.7100,65,97,212335
2.1359,0.3324,38.4300,65,97,212338
2.1017,0.3275,38.3600,65,97,212342
2.0870,0.3128,38.5800,65,97,212345
2.0723,0.3763,38.6500,65,97,212348
2.0674,0.4399,38.5800,65,97,212353
2.0968,0.4350,38.6500,65,97,212356
2.0479,0.4057,38.4300,65,97,212359
2.0479,0.3421,38.5500,65,97,212362
2.0039,0.3128,38.5500,65,97,212366
1.9844,0.3910,38.6500,65,97,212369
1.9844,0.4350,38.6500,65,97,212372
1.9355,0.4448,38.4600,65,97,212376
1.9355,0.3861,38.6200,65,97,212379
1.8768,0.3079,38.4600,65,97,212382
1.8573,0.3177,38.6500,65,97,212386
1.8328,0.3959,38.5800,65,97,212389
1.7986,0.4497,38.4900,65,97,212392
1.7986,0.4252,38.6200,65,97,212396
1.7449,0.3763,38.5500,65,97,212400
1.7302,0.3275,38.6500,65,97,212403
1.7302,0.3177,38.6800,65,97,212406
1.6960,0.4057,38.7100,65,97,212410
1.7498,0.4497,38.6200,65,97,212413
1.6911,0.4301,38.4900,65,97,212416
1.6667,0.3568,38.6200,65,97,212420
1.6667,0.3079,38.6500,65,97,212423
1.6569,0.3421,38.4900,65,97,212426
1.6960,0.4643,38.6200,65,97,212430
1.6618,0.4643,38.3600,65,97,212433
1.6569,0.4203,38.5500,65,97,212436
1.6667,0.3470,38.6200,65,97,212440
1.6618,0.3079,38.5500,65,97,212444
1.7155,0.3372,38.6500,65,97,212447
1.6862,0.4545,38.3000,65,97,212450
1.6862,0.4497,38.5200,65,97,212454
1.6862,0.4106,38.7400,65,97,212457
1.6911,0.3470,38.6500,65,97,212460
1.7253,0.3030,38.6200,65,97,212464
1.7058,0.3666,38.4600,65,97,212467
1.7253,0.4252,38.5800,65,97,212470
1.7155,0.4497,38.5200,65,97,212473
1.7204,0.4057,38.6500,65,97,212477
1.7546,0.3372,38.6200,65,97,212481
1.7302,0.3079,38.5200,65,97,212484
1.7595,0.3568,38.5800,65,97,212488
1.7351,0.4252,38.4900,65,97,212491
1.7400,0.4448,38.6200,65,97,212494
1.7546,0.4106,38.6500,65,97,212498
1.7449,0.3421,38.5800,65,97,212501
1.7693,0.3079,38.5800,65,97,212504
1.7498,0.3470,38.5200,65,97,212508
1.7498,0.4252,38.7100,65,97,212511
1.7644,0.4448,38.6800,65,97,212514
1.7546,0.4057,38.5800,65,97,212517
1.7889,0.3275,38.6200,65,97,212521
1.7742,0.3030,38.4000,65,97,212525
1.7595,0.3715,38.5800,65,97,212528
1.7791,0.4252,38.6500,65,97,212532
1.7644,0.4448,38.8400,65,97,212535
1.8084,0.4252,38.6800,65,97,212538
1.7791,0.3324,38.4300,65,97,212542
1.7595,0.3030,38.6200,65,97,212545
1.7644,0.3715,38.6800,65,97,212548
1.7546,0.4399,38.5500,65,97,212551
1.8035,0.4399,38.6500,65,97,212555
1.7644,0.4008,38.3300,65,97,212558
1.7546,0.3226,38.6200,65,97,212561
1.7546,0.3177,38.6200,65,97,212566
1.7595,0.3861,38.6200,65,97,212569
1.7937,0.4399,38.6800,65,97,212572
1.7644,0.4545,38.3000,65,97,212576
1.7742,0.3861,38.5500,65,97,212579
1.7595,0.3079,38.5200,65,97,212582
1.7595,0.3177,38.6800,65,97,212586
1.7889,0.3910,38.6200,65,97,212589
1.7644,0.4545,38.4900,65,97,212592
1.7889,0.4497,38.5800,65,97,212595
1.7595,0.3666,38.4900,65,97,212599
1.7595,0.3079,38.6500,65,97,212602
1.7937,0.3226,38.5800,65,97,212605
1.7644,0.4008,38.5800,65,97,212610
1.8133,0.4448,38.6800,65,97,212613
1.7742,0.4350,38.5200,65,97,212616
1.7693,0.3666,38.6200,65,97,212620
1.7889,0.3030,38.6200,65,97,212623
1.7791,0.3372,38.4900,65,97,212626
1.8035,0.4057,38.6200,65,97,212629
1.7791,0.4497,38.4600,65,97,212633
1.8035,0.4203,38.5200,65,97,212636
1.7986,0.3519,38.6500,65,97,212639
1.7840,0.3079,38.4900,65,97,212643
1.8280,0.3324,38.6800,65,97,212646
1.7889,0.4252,38.4000,65,97,212649
1.7937,0.4497,38.5500,65,97,212654
1.8084,0.4154,38.6200,65,97,212657
1.7986,0.3519,38.5800,65,97,212660
1.8524,0.2981,38.6200,65,97,212663
1.8280,0.3519,38.3600,65,97,212667
1.8035,0.4203,38.4600,65,97,212670
1.8084,0.4399,38.6800,65,97,212673
1.8035,0.4154,38.6200,65,97,212677
1.8573,0.3275,38.6800,65,97,212680
1.8426,0.3177,38.5800,65,97,212683
1.8231,0.3617,38.5500,65,97,212687
1.8084,0.4203,38.5500,65,97,212690
1.8084,0.4399,38.6200,65,97,212694
1.8426,0.4057,38.6200,65,97,212698
1.8133,0.3470,38.4600,65,97,212701
1.8280,0.3030,38.6800,65,97,212704
1.8035,0.3568,38.4900,65,97,212707
1.8084,0.4252,38.6200,65,97,212711
1.8231,0.4448,38.8700,65,97,212714
1.8182,0.4154,38.5500,65,97,212717
1.8475,0.3324,38.6200,65,97,212721
1.8231,0.3079,38.7100,65,97,212724
1.8475,0.3617,38.6200,65,97,212727
1.8622,0.4252,38.5800,65,97,212731
1.8426,0.4497,38.5800,65,97,212734
1.8817,0.4008,38.6200,65,97,212738
1.8817,0.3275,38.4300,65,97,212742
1.8866,0.2981,38.6500,65,97,212745
1.9208,0.3715,38.6200,65,97,212748
1.9110,0.4545,38.5200,65,97,212751
1.9648,0.4399,38.6500,65,97,212755
1.9501,0.4057,38.4000,65,97,212758
1.9599,0.3226,38.4900,65,97,212761
1.9892,0.3079,38.6200,65,97,212765
1.9746,0.3812,38.6200,65,97,212768
2.0186,0.4350,38.6200,65,97,212771
1.9501,0.4594,38.3300,65,97,212775
1.9208,0.3861,38.4900,65,97,212779
1.9062,0.3079,38.6200,65,97,212782
1.8768,0.3177,38.6200,65,97,212785
1.9159,0.3861,38.6800,65,97,212789
1.8671,0.4594,38.4300,65,97,212792
1.8524,0.4252,38.5800,65,97,212795
1.8622,0.3812,38.8100,65,97,212799
1.8426,0.3177,38.6200,65,97,212802
1.8768,0.3177,38.6800,65,97,212805
1.7889,0.4301,38.5200,65,97,212809
1.7644,0.4497,38.6200,65,97,212812
1.7937,0.4350,38.4900,65,97,212815
1.7644,0.3666,38.6500,65,97,212819
1.7693,0.3030,38.6200,65,97,212823
1.7840,0.3324,38.4600,65,97,212826
1.7693,0.4008,38.5800,65,97,212829
1.8035,0.4448,38.5200,65,97,212833
1.7791,0.4203,38.5800,65,97,212836
1.7840,0.3617,38.6500,65,97,212839
1.7986,0.3128,38.4900,65,97,212843
1.7840,0.3324,38.6200,65,97,212846
1.8328,0.4154,38.4000,65,97,212849
1.8084,0.4448,38.5500,65,97,212853
1.7986,0.4203,38.6200,65,97,212856
1.8035,0.3568,38.5800,65,97,212859
1.7986,0.3030,38.6200,65,97,212864
1.8573,0.3470,38.3600,65,97,212867
1.7840,0.4154,38.6200,65,97,212870
1.7791,0.4497,38.6500,65,97,212873
1.7155,0.4203,38.5800,65,97,212877
1.6960,0.3812,38.6200,65,97,212880
1.7595,0.3177,38.3600,65,97,212883
1.7889,0.3470,38.5500,65,97,212887
1.9208,0.4203,38.6200,65,97,212890
2.1114,0.4448,38.6200,65,97,212893
2.3900,0.4057,38.6500,65,97,212897
2.7761,0.3568,38.4000,65,97,212900
3.1036,0.3079,38.5500,65,97,212903
3.4604,0.3519,38.5200,65,97,212907
3.5826,0.4350,38.6800,65,97,212911
3.4946,0.4448,38.5800,65,97,212914
3.2405,0.4545,38.4900,65,97,212917
2.7664,0.3324,38.6200,65,97,212921
2.3607,0.2981,38.4900,65,97,212924
1.9404,0.3568,38.6200,65,97,212927
1.6276,0.4350,38.6500,65,97,212931
1.4272,0.4448,38.5800,65,97,212934
1.2805,0.4008,37.8700,65,97,212937
1.2317,0.3324,38.4900,65,97,212941
1.1975,0.3030,38.6500,65,97,212944
1.2219,0.3666,38.6500,65,97,212947
1.2903,0.4399,38.5500,65,97,212951
1.3441,0.3812,38.4900,65,97,212955
1.4418,0.4399,38.6200,65,97,212958
1.4761,0.4497,38.3300,65,97,212962
1.5298,0.3910,38.5500,65,97,212965
1.5787,0.3079,38.6200,65,97,212968
1.6031,0.3128,38.6200,65,97,212972
1.6764,0.3812,38.6800,65,97,212975
1.6618,0.4594,38.4300,65,97,212978
1.6667,0.4448,38.5800,65,97,212982
1.6862,0.3763,38.5500,65,97,212985
1.6911,0.3079,37.8300,65,97,212988
1.7595,0.3128,38.6200,65,97,212992
1.7302,0.4008,38.5500,65,97,212996
1.7400,0.4448,38.6800,65,97,212999
1.7400,0.4350,38.6200,65,97,213002
1.7449,0.3763,38.6200,65,97,213006
1.7840,0.3030,38.6500,65,97,213009
1.7644,0.3324,38.5500,65,97,213012
1.7840,0.4008,38.6200,65,97,213016
1.7791,0.4448,38.5200,65,97,213019
1.7791,0.4203,38.6800,65,97,213022
1.8035,0.3617,38.8400,65,97,213025
1.7937,0.3079,38.5200,65,97,213029
1.8231,0.3275,38.7100,65,97,213032
1.8035,0.4252,38.4300,65,97,213036
1.8133,0.4448,38.5800,65,97,213040
1.8475,0.4203,38.6500,65,97,213043
1.8280,0.3617,38.5500,65,97,213046
1.8573,0.2981,38.6200,65,97,213050
1.8475,0.3421,38.3300,65,97,213053
1.8475,0.4106,38.6800,65,97,213056
1.8671,0.4448,38.6500,65,97,213060
1.8622,0.4203,38.6500,65,97,213063
1.9062,0.3470,38.6800,65,97,213066
1.8866,0.3128,38.3300,65,97,213069
1.8866,0.3470,38.5500,65,97,213073
1.9159,0.4203,38.6800,65,97,213076
1.9062,0.4497,38.7100,65,97,213080
1.9697,0.4106,38.6200,65,97,213084
1.9306,0.3568,38.4600,65,97,213087
1.9355,0.3079,38.5500,65,97,213090
1.9550,0.3519,38.5200,65,97,213094
1.9550,0.4203,38.6500,65,97,213097
2.0235,0.4252,38.6500,65,97,213100
1.9892,0.4203,38.4600,65,97,213103
1.9990,0.3470,38.6200,65,97,213107
2.0088,0.3030,38.4900,65,97,213110
2.0137,0.3568,38.6800,65,97,213113
2.0723,0.4350,38.6500,65,97,213117
2.0430,0.4497,38.6200,65,97,213121
2.0674,0.4057,38.6200,65,97,213124
2.0577,0.3372,38.5500,65,97,213128
2.0772,0.3030,38.5800,65,97,213131
2.1065,0.3861,38.6200,65,97,213134
2.0919,0.4399,38.5200,65,97,213138
2.1212,0.4399,38.6800,65,97,213141
2.1017,0.4008,38.4600,65,97,213144
2.1065,0.3226,38.5500,65,97,213147
2.1212,0.3030,38.7700,65,97,213151
2.1163,0.3861,38.5200,65,97,213154
2.1505,0.4301,38.6500,65,97,213157
2.1114,0.4497,38.2700,65,97,213161
2.1163,0.3910,38.5500,65,97,213165
2.1408,0.3128,38.6500,65,97,213168
2.1017,0.3079,38.6200,65,97,213172
2.1261,0.3812,38.6500,65,97,213175
2.0919,0.4594,38.3600,65,97,213178
2.0626,0.4350,38.6200,65,97,213182
2.0577,0.3812,38.6200,65,97,213185
2.0137,0.3177,38.6200,65,97,213188
2.0430,0.3079,38.5500,65,97,213191
1.9795,0.4057,38.4900,65,97,213195
1.9501,0.4448,38.5500,65,97,213198
1.9355,0.4350,38.5500,65,97,213201
1.8915,0.3812,38.6200,65,97,213206
1.9110,0.2884,38.6500,65,97,213209
1.8426,0.3275,38.5500,65,97,213212
1.8133,0.3959,38.5800,65,97,213216
1.7986,0.4448,38.4900,65,97,213219
1.7546,0.4252,38.6200,65,97,213222
1.7986,0.3715,38.6200,65,97,213225
1.7449,0.3079,38.5800,65,97,213229
1.7302,0.3226,38.6200,65,97,213232
1.7498,0.4057,38.5200,65,97,213235
1.7107,0.4399,38.6200,65,97,213239
1.7400,0.4252,38.8700,65,97,213242
1.7107,0.3812,38.5500,65,97,213245
1.7253,0.2981,38.6200,65,97,213250
1.7107,0.3324,38.4600,65,97,213253
1.7400,0.4106,38.6500,65,97,213256
1.7351,0.4448,38.6500,65,97,213260
1.7204,0.4301,38.5200,65,97,213263
1.7498,0.3470,38.6500,65,97,213266
1.7253,0.3128,38.3600,65,97,213269
1.7302,0.3421,38.9000,65,97,213273
1.7449,0.4154,38.5200,65,97,213276
1.7400,0.4497,38.5800,65,97,213279
1.7986,0.4154,38.6200,65,97,213283
1.7498,0.3959,38.3300,65,97,213286
1.7498,0.3030,38.5500,65,97,213289
1.7791,0.3421,38.5500,65,97,213294
1.7546,0.4154,38.6200,65,97,213297
1.7986,0.4448,38.6200,65,97,213300
1.7840,0.4252,38.4600,65,97,213303
1.7742,0.3421,38.6200,65,97,213307
1.7889,0.3030,38.6500,65,97,213310
1.7791,0.3519,38.6500,65,97,213313
1.8280,0.4154,38.6200,65,97,213317
1.7889,0.4545,38.5500,65,97,213320
1.7840,0.4106,38.6200,65,97,213323
1.7889,0.3372,38.4900,65,97,213327
1.7840,0.3030,38.6500,65,97,213330
1.8377,0.3666,38.6200,65,97,213334
1.7986,0.4350,38.4600,65,97,213338
1.7937,0.4448,38.6200,65,97,213341
1.7937,0.4057,38.4900,65,97,213344
1.7889,0.3079,38.6200,65,97,213347
1.8231,0.3030,38.0200,65,97,213351
1.7889,0.3715,38.4900,65,97,213354
1.7986,0.4301,38.6200,65,97,213357
1.7791,0.4497,37.8300,65,97,213361
1.7986,0.3959,38.5500,65,97,213364
1.8133,0.3226,38.6800,65,97,213367
1.7840,0.3079,38.6200,65,97,213371
1.8133,0.3812,38.6200,65,97,213374
1.7840,0.4448,38.3600,65,97,213378
1.7791,0.4350,38.5800,65,97,213381
1.7986,0.3910,38.6500,65,97,213385
1.7791,0.3226,38.6500,65,97,213388
1.7986,0.3079,38.6200,65,97,213391
1.7986,0.3959,38.3600,65,97,213395
1.7840,0.4448,38.5200,65,97,213398
1.7986,0.4448,38.5800,65,97,213401
1.7840,0.3861,38.6200,65,97,213405
1.8182,0.3079,38.7100,65,97,213408
1.7791,0.3324,38.4600,65,97,213411
1.7840,0.3959,38.5500,65,97,213415
1.7986,0.4545,38.5200,65,97,213419
1.7889,0.4301,38.6200,65,97,213422
1.7840,0.3715,38.7700,65,97,213425
1.8328,0.3226,38.4900,65,97,213429
1.8035,0.3177,38.6200,65,97,213432
1.8035,0.4008,38.4900,65,97,213435
1.7937,0.4497,38.6500,65,97,213439
1.7986,0.4301,38.6500,65,97,213442
1.8280,0.3666,38.5800,65,97,213445
1.8035,0.3030,38.6200,65,97,213449
1.8231,0.3324,38.4900,65,97,213452
1.7986,0.4057,38.7400,65,97,213455
1.8035,0.4448,38.6200,65,97,213459
1.8182,0.4301,38.5200,65,97,213463
1.8084,0.3568,38.6200,65,97,213466
1.8377,0.3128,38.4300,65,97,213469
1.8035,0.3372,38.5200,65,97,213473
1.8133,0.4106,38.6200,65,97,213476
1.8377,0.4545,38.5500,65,97,213479
1.8182,0.4154,38.6500,65,97,213483
1.8475,0.3617,38.3600,65,97,213486
1.8280,0.3030,38.6500,65,97,213489
1.8182,0.3421,38.5800,65,97,213493
1.8671,0.4252,38.5800,65,97,213496
1.8182,0.4448,38.6500,65,97,213499
1.8671,0.4350,38.3600,65,97,213504
1.8328,0.3372,38.5800,65,97,213507
1.8280,0.2981,38.6200,65,97,213510
1.8377,0.3470,38.6500,65,97,213513
1.8280,0.4203,38.6200,65,97,213517
1.8817,0.4594,38.4000,65,97,213520
1.8377,0.4106,38.5500,65,97,213523
1.8377,0.3421,38.4900,65,97,213527
1.8377,0.3030,38.6200,65,97,213530
1.8377,0.3568,38.6800,65,97,213533
1.8915,0.4350,38.4600,65,97,213537
1.8671,0.4448,38.5200,65,97,213540
1.8915,0.4252,38.5500,65,97,213543
1.8719,0.3275,38.6500,65,97,213547
1.8915,0.3030,38.6500,65,97,213551
1.9306,0.3715,38.4900,65,97,213554
1.9062,0.4301,38.6800,65,97,213557
1.9404,0.4497,38.4600,65,97,213561
1.9257,0.4448,38.3300,66,97,213564
1.9355,0.4350,38.6200,66,97,213569
1.9795,0.3861,38.6200,66,97,213572
1.9746,0.3177,38.5800,66,97,213575
2.0186,0.3079,38.6200,66,97,213579
1.9844,0.4008,38.3600,66,97,213582
1.9795,0.4448,38.5500,66,97,213585
1.9746,0.4350,38.6200,66,97,213588
1.9599,0.3861,38.6200,66,97,213593
1.9453,0.3079,38.6200,66,97,213596
1.9208,0.3275,38.4300,66,97,213599
1.8817,0.3959,38.6800,66,97,213603
1.8817,0.4643,38.5200,66,97,213606
1.8622,0.4301,38.6800,66,97,213609
1.9013,0.3470,38.6200,66,97,213613
1.8671,0.3128,38.4900,66,97,213616
1.8475,0.3275,38.6800,66,97,213619
1.8377,0.3959,38.4900,66,97,213623
1.8133,0.4448,38.6500,66,97,213626
1.8426,0.4301,38.6500,66,97,213629
1.8133,0.3715,38.5800,66,97,213633
1.7693,0.3030,37.8000,66,97,213637
1.7693,0.3324,38.4900,66,97,213640
1.7595,0.4057,38.6500,66,97,213643
1.8035,0.4448,38.6800,66,97,213647
1.7791,0.4643,38.5500,66,97,213650
1.7889,0.3568,38.6200,66,97,213653
1.7742,0.3030,38.4000,66,97,213657
1.7791,0.3372,38.5200,66,97,213660
1.8084,0.4106,38.6500,66,97,213663
1.7840,0.4643,38.5200,66,97,213666
1.8084,0.4154,38.6500,66,97,213670
1.7889,0.3617,38.3600,66,97,213673
1.7889,0.2981,38.5200,66,97,213677
1.8231,0.3421,38.6500,66,97,213681
1.7937,0.4203,38.6200,66,97,213684
1.8231,0.4545,38.6500,66,97,213687
1.8328,0.4350,38.4300,66,97,213691
1.8035,0.3421,38.5800,66,97,213694
1.7986,0.2981,38.5800,66,97,213697
1.7449,0.3470,38.6200,66,97,213701
1.7449,0.4203,38.4900,66,97,213704
1.7107,0.4594,38.4300,66,97,213707
1.7595,0.3861,38.5800,66,97,213710
1.8182,0.3372,38.5200,66,97,213714
1.9306,0.3030,38.6200,66,97,213718
2.2092,0.3519,38.6200,66,97,213721
2.3998,0.4350,38.4000,66,97,213725
2.7322,0.4497,38.6800,66,97,213728
3.0938,0.4106,38.4900,66,97,213731
3.3773,0.3324,38.6200,66,97,213735
3.6022,0.3030,38.6200,66,97,213738
3.4164,0.3715,38.5200,66,97,213741
3.0987,0.4252,38.6500,66,97,213744
2.6637,0.4448,38.6200,66,97,213748
2.2385,0.4203,38.5800,66,97,213751
1.9257,0.3226,38.6200,66,97,213754
1.5885,0.3030,38.5500,66,97,213758
1.3930,0.3763,38.6200,66,97,213762
1.2757,0.4350,38.4600,66,97,213765
1.2219,0.4399,38.6800,66,97,213769
1.2414,0.3959,38.5800,66,97,213772
1.2463,0.3275,38.5500,66,97,213775
1.3099,0.3030,38.6200,66,97,213779
1.3636,0.3910,38.3600,66,97,213782
1.4321,0.4399,38.5500,66,97,213785
1.5005,0.4399,38.6500,66,97,213788
1.5445,0.4057,38.5800,66,97,213792
1.6276,0.3177,38.6800,66,97,213795
1.6080,0.3226,38.3300,66,97,213798
1.6373,0.3861,38.4900,66,97,213803
1.6813,0.4301,38.5800,66,97,213806
1.6716,0.4399,38.6200,66,97,213809
1.7058,0.3812,38.6500,66,97,213812
1.7009,0.3079,38.4300,66,97,213816
1.6960,0.3275,38.6200,66,97,213819
1.7302,0.3861,38.5500,66,97,213822
1.7302,0.4448,38.6200,66,97,213826
1.7693,0.4301,38.6500,66,97,213829
1.7498,0.3861,38.4900,66,97,213832
1.7498,0.3079,38.6200,66,97,213836
1.7742,0.3226,38.4900,66,97,213839
1.7644,0.3959,38.6200,66,97,213842
1.8280,0.4399,38.6500,66,97,213847
1.7840,0.4448,38.5500,66,97,213850
1.7889,0.3568,38.6200,66,97,213853
1.7986,0.3030,38.4900,66,97,213857
1.7937,0.3226,38.7700,66,97,213860
1.8573,0.4008,38.6200,66,97,213863
1.8182,0.4497,38.4600,66,97,213866
1.8182,0.4203,38.7400,66,97,213870
1.8231,0.3910,38.4000,66,97,213873
1.8280,0.2981,38.5500,66,97,213876
1.8671,0.3324,38.6200,66,97,213880
1.8426,0.4252,38.5800,66,97,213883
1.8671,0.4448,38.6500,66,97,213886
1.8524,0.4301,38.3600,66,97,213891
1.8622,0.3470,38.6200,66,97,213894
1.8964,0.2933,38.6800,66,97,213897
1.8817,0.3421,38.6200,66,97,213900
1.9159,0.4203,38.6500,66,97,213904
1.9013,0.4643,38.3300,66,97,213907
1.9062,0.4203,38.5500,66,97,213910
1.9306,0.3421,38.5500,66,97,213914
1.9306,0.3030,38.5200,66,97,213917
1.9648,0.3470,38.6500,66,97,213920
1.9453,0.4301,38.4300,66,97,213924
1.9648,0.4497,38.7100,66,97,213927
1.9941,0.4057,38.5500,66,97,213931
1.9844,0.3372,38.6200,66,97,213935
2.0381,0.2981,38.6500,66,97,213938
2.0235,0.3568,38.4900,66,97,213941
2.0430,0.4301,38.6500,66,97,213944
2.0479,0.4497,38.4600,66,97,213948
2.0479,0.4008,38.6200,66,97,213951
2.1065,0.3324,38.6200,66,97,213954
2.0723,0.3030,38.5800,66,97,213958
2.0772,0.3617,38.5800,66,97,213961
2.0968,0.4301,38.4900,66,97,213964
2.0919,0.4399,38.3000,66,97,213968
2.1603,0.4154,38.6200,66,97,213971
2.1163,0.3275,38.5500,66,97,213975
2.1114,0.3030,38.6500,66,97,213979
2.1163,0.3715,38.4000,66,97,213982
2.1065,0.4350,38.5200,66,97,213985
2.1652,0.4399,38.6500,66,97,213988
2.1163,0.3959,38.5500,66,97,213992
2.1163,0.3177,38.6500,66,97,213995
2.0919,0.3128,38.3600,66,97,213998
2.0821,0.3812,38.5200,66,97,214002
2.1065,0.4350,38.6500,66,97,214005
2.0528,0.4399,38.5800,66,97,214008
2.0577,0.3861,38.5200,66,97,214012
2.0137,0.3372,38.3600,66,97,214016
1.9892,0.3128,38.2700,66,97,214019
1.9892,0.3959,38.5500,66,97,214022
1.9404,0.4448,38.6200,66,97,214026
1.9404,0.4301,38.5800,66,97,214029
1.8817,0.3910,38.4900,66,97,214032
1.7546,0.3079,38.6200,66,97,214036
1.7449,0.3177,38.8400,66,97,214039
1.7400,0.3861,38.6800,66,97,214042
1.7351,0.4399,38.6500,66,97,214046
1.7351,0.4399,38.4600,66,97,214049
1.7009,0.3715,38.6200,66,97,214052
1.7107,0.3079,38.4600,66,97,214056
1.6813,0.3177,38.6200,66,97,214060
1.6764,0.4008,38.6800,66,97,214063
1.7253,0.4399,38.4900,66,97,214066
1.6862,0.4301,38.6200,66,97,214070
1.7204,0.3568,38.4900,66,97,214073
1.6911,0.2981,38.6500,66,97,214076
1.6960,0.3372,38.6800,66,97,214080
1.7351,0.4106,38.4900,66,97,214083
1.7155,0.4497,38.8100,66,97,214086
1.7302,0.4594,38.3600,66,97,214090
1.7155,0.3519,38.6200,66,97,214093
1.7155,0.2981,38.6800,66,97,214096
1.7449,0.3470,38.5500,66,97,214099
1.7253,0.4154,38.6200,66,97,214104
1.7546,0.4692,38.3300,66,97,214107
1.7400,0.4154,38.5500,66,97,214110
1.7449,0.3421,38.6500,66,97,214114
1.7791,0.3128,38.6200,66,97,214117
1.7644,0.3421,38.6200,66,97,214120
1.7840,0.4448,38.4300,66,97,214124
1.7693,0.4545,38.5500,66,97,214127
1.7644,0.4106,38.5500,66,97,214130
1.7840,0.3372,38.6200,66,97,214134
1.7742,0.2981,38.6200,66,97,214137
1.8084,0.3617,38.4900,66,97,214140
1.7791,0.4252,38.7700,66,97,214144
1.7742,0.4399,38.4900,66,97,214148
1.7889,0.3959,38.6200,66,97,214151
1.7791,0.3324,38.6200,66,97,214154
1.8231,0.2981,38.5800,66,97,214158
1.7840,0.3568,38.6500,66,97,214161
1.7840,0.4399,38.5500,66,97,214164
1.7937,0.4448,38.6200,66,97,214168
1.7742,0.4008,38.6500,66,97,214171
1.8280,0.3324,38.4600,66,97,214174
1.7937,0.3959,38.5800,66,97,214179
1.7840,0.3177,38.6500,66,97,214182
1.7791,0.3177,38.3600,66,97,214187
1.7742,0.3812,38.5200,66,97,214190
1.8231,0.4301,38.6200,66,97,214193
1.7791,0.4350,38.6200,66,97,214197
1.7791,0.3812,38.6200,66,97,214200
1.7693,0.3470,38.3600,66,97,214203
1.7644,0.3128,38.6200,66,97,214206
1.7937,0.3861,38.6800,66,97,214210
1.7693,0.4399,38.6200,66,97,214213
1.7889,0.4301,38.7700,66,97,214216
1.7644,0.3861,38.5200,66,97,214220
1.7693,0.3079,38.6200,66,97,214223
1.7693,0.3226,38.4900,66,97,214226
1.7742,0.3959,38.7700,66,97,214231
1.7986,0.4350,38.6200,66,97,214234
1.7742,0.4399,38.4600,66,97,214237
1.7742,0.3666,38.7400,66,97,214241
1.7937,0.3030,38.5200,66,97,214244
1.7742,0.3275,38.6200,66,97,214247
1.8035,0.4008,38.6200,66,97,214250
1.7889,0.4545,38.5200,66,97,214254
1.7840,0.4203,38.6200,66,97,214257
1.7937,0.3470,38.4600,66,97,214260
1.7840,0.2981,38.6500,66,97,214264
1.8280,0.3324,38.6200,66,97,214267
1.7937,0.4106,38.5500,66,97,214270
1.8133,0.4448,38.7400,66,97,214274
1.8035,0.4350,38.4000,66,97,214278
1.7937,0.3470,38.6200,66,97,214281
1.8475,0.2981,38.6500,66,97,214284
1.8035,0.3470,38.6200,66,97,214288
1.8035,0.4154,38.6200,66,97,214291
1.8035,0.4594,38.2700,66,97,214294
1.7986,0.4203,38.5500,66,97,214298
1.8426,0.3372,38.6200,66,97,214301
1.8035,0.3079,38.6200,66,97,214304
1.8084,0.3372,38.6200,66,97,214308
1.7937,0.4399,38.4300,66,97,214311
1.7986,0.4497,38.5500,66,97,214315
1.8328,0.4057,38.5500,66,97,214318
1.8084,0.3372,38.6500,66,97,214322
1.8328,0.2981,38.6500,66,97,214325
1.8084,0.3617,38.4900,66,97,214328
1.8084,0.4252,38.8400,66,97,214332
1.8377,0.4350,38.5200,66,97,214335
1.8182,0.3861,38.6200,66,97,214338
1.8524,0.3226,38.6500,66,97,214342
1.8280,0.3030,38.5800,66,97,214345
1.8328,0.3617,38.7100,66,97,214348
1.8573,0.4399,38.5200,66,97,214352
1.8573,0.4399,38.6500,66,97,214355
1.8964,0.3910,38.6500,66,97,214359
1.8817,0.3372,38.5200,66,97,214362
1.9013,0.3128,38.7400,66,97,214366
1.9257,0.3666,38.4300,66,97,214369
1.9208,0.4350,38.5200,66,97,214372
1.9746,0.4399,38.5500,66,97,214376
1.9746,0.4008,38.5500,66,97,214379
1.9648,0.3177,38.6200,66,97,214382
1.9795,0.3226,38.3300,66,97,214386
1.9599,0.3763,38.5500,66,97,214389
1.9941,0.4350,38.5800,66,97,214392
1.9208,0.4350,38.6200,66,97,214396
1.8866,0.3861,38.6200,66,97,214400
1.8768,0.3372,38.3300,66,97,214403
1.8524,0.3128,38.5800,66,97,214407
1.8915,0.3812,39.0300,66,97,214410
1.8475,0.4399,38.6200,66,97,214413
1.8377,0.4301,38.7100,66,97,214416
1.8280,0.4252,38.4900,66,97,214420
1.8182,0.3128,38.5800,66,97,214423
1.8426,0.3177,38.5500,66,97,214426
1.7986,0.3910,38.6500,66,97,214430
1.7986,0.4252,38.6500,66,97,214433
1.7595,0.4399,38.7100,66,97,214436
1.7595,0.3715,38.6800,66,97,214440
1.7693,0.3079,38.4900,66,97,214444
1.7400,0.3079,38.6500,66,97,214447
1.7644,0.3959,38.2100,66,97,214450
1.7351,0.4545,38.5200,66,97,214454
1.7400,0.4252,38.6500,66,97,214457
1.7546,0.3666,38.5800,66,97,214460
1.7449,0.2981,38.5800,66,97,214464
1.7986,0.3275,38.6500,66,97,214467
1.7546,0.4106,38.5800,66,97,214470
1.7546,0.4399,38.6800,66,97,214474
1.7986,0.4301,38.4000,66,97,214477
1.7644,0.3715,38.6500,66,97,214480
1.8035,0.3030,38.6800,66,97,214484
1.7644,0.3372,38.5800,66,97,214488
1.7791,0.4301,38.6500,66,97,214491
1.7889,0.4594,38.3600,66,97,214494
1.7791,0.4203,38.6800,66,97,214498
1.8182,0.3470,38.6500,66,97,214501
1.7498,0.3030,38.6200,66,97,214504
1.7058,0.3421,38.6500,66,97,214508
1.6862,0.4399,38.4900,66,97,214511
1.6862,0.4545,38.5200,66,97,214514
1.7840,0.4106,38.5800,66,97,214518
1.8671,0.3421,38.6200,66,97,214521
2.0186,0.2981,38.6500,66,97,214524
2.2630,0.3617,38.4900,66,97,214528
2.5709,0.4448,38.5800,66,97,214532
2.9863,0.4497,38.5500,66,97,214535
3.2796,0.4057,38.7400,66,97,214538
3.5239,0.3421,38.6800,66,97,214542
3.4751,0.3079,38.6200,66,97,214545
3.2209,0.3568,38.8100,66,97,214548
2.8935,0.4545,38.5200,66,97,214552
2.4096,0.4399,38.5500,66,97,214555
2.0479,0.4008,38.6500,66,97,214558
1.6862,0.3275,38.5500,66,97,214562
1.4516,0.3030,38.7100,66,97,214565
1.3196,0.3666,37.8300,66,97,214568
1.2170,0.4350,38.5800,66,97,214572
1.2072,0.4350,38.6500,66,97,214576
1.2023,0.4008,38.5200,66,97,214579
1.2512,0.3275,38.5800,66,97,214582
1.3245,0.3128,38.4000,66,97,214586
1.3832,0.3715,38.5800,66,97,214589
1.4858,0.4301,38.6200,66,97,214592
1.5103,0.4350,38.6200,66,97,214596
1.5494,0.3910,38.6200,66,97,214599
1.6129,0.3275,38.3600,66,97,214602
1.6129,0.2981,38.5800,66,97,214605
1.6716,0.3763,38.6500,66,97,214609
1.6520,0.4399,38.6200,66,97,214612
1.6667,0.4350,38.6500,66,97,214616
1.6813,0.4057,38.4600,66,97,214620
1.6764,0.3128,38.6200,66,97,214623
1.7449,0.3128,38.5800,66,97,214626
1.7107,0.3861,38.6500,66,97,214630
1.7204,0.4399,38.6500,66,97,214633
1.7253,0.4448,38.4300,66,97,214636
1.7302,0.3715,38.5800,66,97,214640
1.7742,0.3128,38.5200,66,97,214643
1.7986,0.3177,38.6200,66,97,214646
1.7791,0.3910,38.8400,66,97,214649
1.8084,0.4497,38.4300,66,97,214653
1.7840,0.4301,38.6200,66,97,214657
1.7937,0.3763,38.6500,66,97,214660
1.8133,0.3030,38.6800,66,97,214664
1.7986,0.3226,38.6500,66,97,214667
1.8377,0.4057,38.5500,66,97,214670
1.8182,0.4350,38.6500,66,97,214674
1.8280,0.4252,38.4600,66,97,214677
1.8524,0.3617,38.6200,66,97,214680
1.8426,0.2981,38.6200,66,97,214684
1.8915,0.3372,38.6500,66,97,214687
1.8768,0.4057,38.6500,66,97,214690
1.8671,0.4545,38.4000,66,97,214693
1.8768,0.4252,38.6200,66,97,214697
1.8866,0.3470,38.6500,66,97,214701
1.9453,0.3079,38.5500,66,97,214704
1.9159,0.3372,38.6500,66,97,214708
1.9159,0.4301,38.3300,66,97,214711
1.9306,0.4448,38.5200,66,97,214714
1.9355,0.4106,38.6200,66,97,214718
1.9990,0.3275,38.6200,66,97,214721
1.9795,0.2981,38.6500,66,97,214724
1.9941,0.3666,38.4600,66,97,214727
1.9892,0.4252,38.6200,66,97,214731
2.0039,0.4448,38.5200,66,97,214734
2.0381,0.4154,38.6800,66,97,214737
2.0283,0.3324,38.6500,66,97,214742
2.0626,0.3079,38.5200,66,97,214745
2.0479,0.3519,38.6200,66,97,214748
2.0528,0.4301,38.5500,66,97,214752
2.0919,0.4497,38.6800,66,97,214755
2.0674,0.4057,38.6500,66,97,214758
2.1017,0.3470,38.4900,66,97,214762
2.0723,0.2981,38.6200,66,97,214765
2.0723,0.3666,38.5500,66,97,214768
2.0968,0.4203,38.5800,66,97,214771
2.0772,0.4399,38.6500,66,97,214775
2.1114,0.4057,38.4900,66,97,214778
2.0870,0.3275,38.7700,66,97,214781
2.0772,0.3079,38.4300,66,97,214786
2.0919,0.3324,38.3600,66,97,214790
2.0577,0.3079,38.5800,66,97,214794
2.0870,0.3763,38.6500,66,97,214797
2.0283,0.4399,38.6200,66,97,214800
2.0137,0.4350,38.6200,66,97,214804
2.0039,0.3959,38.4300,66,97,214807
1.9648,0.3128,38.6200,66,97,214810
1.9892,0.3128,38.5800,66,97,214814
1.9306,0.3861,38.6200,66,97,214817
1.8866,0.4399,38.6500,66,97,214820
1.8671,0.4448,38.4600,66,97,214824
1.8328,0.3763,38.6200,66,97,214828
1.8573,0.3079,38.4900,66,97,214831
1.7840,0.3226,38.6500,66,97,214834
1.7546,0.3959,38.6800,66,97,214838
1.7302,0.4545,38.5500,66,97,214841
1.7155,0.4252,38.6500,66,97,214844
1.7253,0.3715,38.5200,66,97,214848
1.6911,0.2981,38.6500,66,97,214851
1.6911,0.3275,38.6500,66,97,214854
1.6667,0.4057,38.5500,66,97,214858
1.6569,0.4497,38.6500,66,97,214861
1.6667,0.4301,38.4300,66,97,214864
1.6422,0.3568,38.6500,66,97,214867
1.6716,0.2981,38.6500,66,97,214872
1.6471,0.3372,38.6200,66,97,214875
1.6520,0.4106,38.6200,66,97,214878
1.6764,0.4594,38.3600,66,97,214882
1.6569,0.4203,38.5500,66,97,214885
1.6862,0.3519,38.6200,66,97,214888
1.6716,0.2981,38.5500,66,97,214892
1.6716,0.3275,38.6500,66,97,214895
1.6862,0.4350,38.3600,66,97,214898
1.6764,0.4497,38.5500,66,97,214902
1.7253,0.4106,38.6200,66,97,214905
1.7009,0.3421,38.6500,66,97,214908
1.6960,0.3030,38.6500,66,97,214912
1.7155,0.3666,38.4900,66,97,214916
1.7058,0.4252,38.4600,66,97,214919
1.7546,0.4448,38.5500,66,97,214922
1.7204,0.4106,38.6200,66,97,214926
1.7204,0.3324,38.7700,66,97,214929
1.7253,0.3324,38.5500,66,97,214932
1.7204,0.3568,38.6500,66,97,214936
1.7742,0.4301,38.4900,66,97,214939
1.7400,0.4448,38.6500,66,97,214942
1.7693,0.4008,38.6500,66,97,214945
1.7351,0.3421,38.5200,66,97,214949
1.7302,0.3030,38.6500,66,97,214952
1.7644,0.3666,38.5200,66,97,214956
1.7400,0.4252,38.5500,66,97,214960
1.7546,0.4448,38.6200,66,97,214963
1.7351,0.4008,38.4600,66,97,214966
1.7400,0.3226,38.6500,66,97,214970
1.7791,0.3030,38.4000,66,97,214973
1.7400,0.3470,38.5200,66,97,214976
1.7644,0.4301,38.6500,66,97,214980
1.7351,0.4448,38.5800,66,97,214983
1.7302,0.3910,38.5800,66,97,214986
1.7351,0.3275,38.3600,66,97,214989
1.7351,0.3079,38.6200,66,97,214993
1.7546,0.3666,38.6500,66,97,214996
1.7302,0.4399,38.6200,66,97,215000
1.7351,0.4350,38.6200,66,97,215004
1.7595,0.4008,38.3600,66,97,215007
1.7351,0.3079,38.4600,66,97,215010
1.7742,0.3128,38.6200,66,97,215014
1.7498,0.3861,38.6200,66,97,215017
1.7498,0.4448,38.6500,66,97,215020
1.7498,0.4594,38.4000,66,97,215023
1.7351,0.3861,38.5500,66,97,215027
1.7840,0.3079,38.4900,66,97,215030
1.7449,0.3421,38.6500,66,97,215033
1.7400,0.3910,38.6500,66,97,215037
1.7449,0.4497,38.4900,66,97,215041
1.7400,0.4252,38.6500,66,97,215044
1.7937,0.3763,38.4900,66,97,215048
1.7546,0.3030,38.6200,66,97,215051
1.7498,0.3128,38.6800,66,97,215054
1.7546,0.3959,38.5800,66,97,215058
1.7449,0.4448,38.6200,66,97,215061
1.7986,0.4301,38.5200,66,97,215064
1.7595,0.3617,38.6500,66,97,215067
1.7693,0.2981,38.6500,66,97,215071
1.7742,0.3372,38.5200,66,97,215074
1.7498,0.4057,38.6800,66,97,215077
1.7889,0.4790,38.4000,66,97,215081
1.7595,0.4203,38.4900,66,97,215085
1.7937,0.3470,38.6800,66,97,215088
1.7644,0.3079,38.5200,66,97,215092
1.7644,0.3324,38.6800,66,97,215095
1.7840,0.4252,38.3600,66,97,215098
1.7644,0.4741,38.5500,66,97,215101
1.7889,0.4057,38.6500,66,97,215105
1.7595,0.3519,38.6500,66,97,215108
1.7595,0.2981,38.6800,66,97,215111
1.7742,0.3617,38.3600,66,97,215115
1.7595,0.4203,38.5800,66,97,215118
1.7889,0.4448,38.5800,66,97,215121
1.7644,0.4399,38.6200,66,97,215126
1.7742,0.3372,38.6500,66,97,215129
1.7986,0.3079,38.4600,66,97,215132
1.8084,0.3715,38.5500,66,97,215136
1.8426,0.4203,38.5200,66,97,215139
1.8231,0.4545,38.6200,66,97,215142
1.8182,0.4057,38.6500,66,97,215145
1.8377,0.3421,38.4900,66,97,215149
1.8475,0.3226,38.5800,66,97,215152
1.9159,0.3568,38.4900,66,97,215155
1.8719,0.4252,38.6500,66,97,215159
1.8866,0.4741,38.6500,66,97,215162
1.9062,0.4106,38.5200,66,97,215165
1.9208,0.3079,38.6500,66,97,215170
1.9746,0.3030,38.4900,66,97,215173
1.9404,0.3519,38.6200,66,97,215176
1.9306,0.4301,38.6200,66,97,215179
1.8915,0.4448,38.6800,66,97,215183
1.8622,0.3959,38.6200,66,97,215186
1.8622,0.3226,38.4600,66,97,215189
1.8231,0.3030,38.6500,66,97,215193
1.8426,0.3666,38.6200,66,97,215196
1.7889,0.4252,38.5800,66,97,215199
1.7840,0.4643,38.6200,66,97,215203
1.8133,0.3959,38.3600,66,97,215206
1.7693,0.3079,38.5500,66,97,215209
1.7986,0.3030,38.6200,66,97,215214
1.7546,0.3812,38.6500,66,97,215217
1.7351,0.4350,38.6500,66,97,215220
1.7351,0.4594,38.3300,66,97,215223
1.7155,0.3861,38.4900,66,97,215227
1.7693,0.3079,38.8400,66,97,215230
1.7107,0.3128,38.6200,66,97,215233
1.7058,0.3812,38.6500,66,97,215237
1.7107,0.4545,38.4600,66,97,215240
1.7058,0.4350,38.6200,66,97,215243
1.7546,0.3763,38.5200,66,97,215247
1.7155,0.3079,38.5800,66,97,215250
1.7155,0.3177,38.6500,66,97,215254
1.7253,0.4008,38.6800,66,97,215258
1.7253,0.4448,38.6200,66,97,215261
1.7351,0.4252,38.4900,66,97,215264
1.7693,0.3910,38.6500,66,97,215267
1.7400,0.3030,38.6200,66,97,215271
1.7546,0.3324,38.5200,66,97,215274
1.7058,0.4057,38.6500,66,97,215277
1.6667,0.4497,38.5200,66,97,215281
1.6569,0.4203,38.5500,66,97,215284
1.6178,0.3519,38.6200,66,97,215287
1.6716,0.3030,38.4900,66,97,215291
1.7302,0.3275,38.5500,66,97,215294
1.8915,0.4106,38.4000,66,97,215298
2.1505,0.4448,38.5800,66,97,215302
2.4487,0.4154,38.5200,66,97,215305
2.8739,0.3568,38.6200,66,97,215308
3.1965,0.2884,38.6500,66,97,215311
3.5044,0.3470,38.3600,66,97,215315
3.6119,0.4203,38.5800,66,97,215318
3.4164,0.4448,38.6500,66,97,215321
3.1329,0.4154,38.7100,66,97,215325
2.6295,0.3372,38.6500,66,97,215328
2.1750,0.3177,38.4300,66,97,215331
1.8084,0.3519,38.5500,66,97,215335
1.5103,0.4154,38.5800,66,97,215339
1.3490,0.4399,38.6200,66,97,215342
1.1975,0.4057,38.6800,66,97,215345
1.1388,0.3470,38.4900,66,97,215349
1.1290,0.3030,38.6200,66,97,215352
1.1486,0.3519,38.5200,66,97,215355
1.2414,0.4203,38.6800,66,97,215359
1.2952,0.4399,38.6200,66,97,215362
1.3539,0.4154,38.5200,66,97,215365
1.4076,0.3324,38.7700,66,97,215369
1.4565,0.3079,38.5500,66,97,215372
1.5249,0.3470,38.6500,66,97,215375
1.5396,0.4252,38.7400,66,97,215379
1.5836,0.4497,38.5800,66,97,215383
1.5787,0.3959,38.6500,66,97,215386
1.5982,0.3275,38.6200,66,97,215389
1.6373,0.2981,38.6500,66,97,215393
1.6178,0.3666,38.6500,66,97,215396
1.6520,0.4448,38.6200,66,97,215399
1.6276,0.3812,38.5800,66,97,215404
1.6373,0.4350,38.6800,66,97,215407
1.6764,0.4594,38.4300,66,97,215411
1.6422,0.3910,38.5500,66,97,215414
1.6716,0.2981,38.5500,66,97,215417
1.6569,0.3079,38.6800,66,97,215421
1.6569,0.3861,38.6200,66,97,215425
1.6813,0.4497,38.4900,66,97,215428
1.6764,0.4350,37.8300,66,97,215432
1.7253,0.3763,38.5200,66,97,215435
1.6911,0.3079,38.6500,66,97,215438
1.7009,0.3079,38.6800,66,97,215441
1.7253,0.4008,38.5800,66,97,215445
1.7155,0.4741,38.5800,66,97,215448
1.7742,0.4350,38.5200,66,97,215451
1.7498,0.3666,38.7700,66,97,215455
1.7449,0.3226,38.6500,66,97,215458
1.7546,0.3324,38.4900,66,97,215461
1.7693,0.4008,38.6200,66,97,215465
1.8280,0.4643,38.4900,66,97,215469
1.7986,0.4252,38.5800,66,97,215472
1.8084,0.3568,38.6200,66,97,215475
1.8084,0.2981,38.4900,66,97,215479
1.8182,0.3275,38.6500,66,97,215482
1.8622,0.4154,38.4600,66,97,215485
1.8475,0.4497,38.5800,66,97,215489
1.8719,0.4154,38.6500,66,97,215492
1.8573,0.3568,38.5200,66,97,215495
1.8768,0.2981,38.6800,66,97,215499
1.9306,0.3519,38.4000,66,97,215502
1.9013,0.4154,38.5800,66,97,215505
1.9404,0.4350,38.6500,66,97,215510
1.9306,0.4154,38.6200,66,97,215513
1.9404,0.3421,38.7400,66,97,215516
1.9795,0.3226,38.4300,66,97,215519
1.9844,0.3470,38.5800,66,97,215523
1.9990,0.4154,38.9000,66,97,215526
1.9892,0.4448,38.6200,66,97,215529
1.9990,0.3861,38.6500,66,97,215533
2.0332,0.3470,38.4600,66,97,215536
2.0186,0.3030,38.6200,66,97,215539
2.0674,0.3470,38.5800,66,97,215543
2.0430,0.4203,38.6800,66,97,215546
2.0381,0.4399,38.6200,66,97,215549
2.0674,0.4154,38.4900,66,97,215553
2.0528,0.3324,38.6500,66,97,215557
2.1065,0.3079,38.4600,66,97,215560
2.0626,0.3519,38.6500,66,97,215563
2.0674,0.4252,37.8000,66,97,215567
2.0723,0.4448,38.5800,66,97,215570
2.0577,0.4057,38.6200,66,97,215573
2.1114,0.3177,38.4900,66,97,215577
2.0577,0.2981,38.6200,66,97,215580
2.0332,0.3666,38.6500,66,97,215583
2.0235,0.4350,38.5500,66,97,215586
1.9990,0.4594,38.6500,66,97,215590
2.0674,0.4008,38.4300,66,97,215593
1.9697,0.3226,38.5500,66,97,215597
1.9648,0.3030,38.6500,66,97,215601
1.9110,0.3812,38.5800,66,97,215604
1.8866,0.4301,38.6500,66,97,215607
1.8866,0.4545,38.3600,66,97,215611
1.8328,0.3910,38.5500,66,97,215614
1.8280,0.3177,38.7100,66,97,215617
1.7791,0.3324,38.6500,66,97,215621
1.7644,0.3666,38.6800,66,97,215624
1.7546,0.4594,38.4300,66,97,215627
1.7302,0.4399,38.5800,66,97,215630
1.7351,0.3812,38.5500,66,97,215634
1.6911,0.3177,38.5800,66,97,215638
1.6862,0.3128,38.6500,66,97,215641
1.7058,0.4008,38.5200,66,97,215645
1.7009,0.4497,38.6200,66,97,215648
1.7009,0.4252,38.4900,66,97,215651
1.6813,0.3763,38.6500,66,97,215655
1.6716,0.3128,38.6800,66,97,215658
1.6862,0.3324,38.4900,66,97,215661
1.6716,0.4008,38.6200,66,97,215665
1.7302,0.4497,38.5800,66,97,215668
1.6911,0.4203,38.6500,66,97,215671
1.6862,0.3666,38.7400,66,97,215674
1.7009,0.3079,38.5200,66,97,215678
1.6960,0.3275,38.6200,66,97,215682
1.7498,0.4057,38.8400,66,97,215685
1.7253,0.4497,38.6200,66,97,215689
1.7155,0.4203,38.6500,66,97,215692
1.7400,0.3666,38.5800,66,97,215695
1.7204,0.2884,38.6500,66,97,215699
1.7791,0.3421,38.4000,66,97,215702
1.7742,0.4106,38.6200,66,97,215705
1.7498,0.4252,38.6200,66,97,215709
1.7595,0.4203,38.5800,66,97,215712
1.7498,0.3519,38.6500,66,97,215715
1.7889,0.3128,38.3300,66,97,215718
1.7644,0.3470,38.6200,66,97,215723
1.7742,0.4106,38.6500,66,97,215726
1.7644,0.4448,38.6200,66,97,215729
1.7937,0.4154,38.6800,66,97,215733
1.7889,0.3861,38.4600,66,97,215736
1.7693,0.3079,38.5500,66,97,215739
1.8133,0.3470,38.5500,66,97,215743
1.7742,0.4154,38.6800,66,97,215746
1.7742,0.4399,38.6500,66,97,215749
1.8133,0.4203,38.4900,66,97,215752
1.7791,0.3372,38.6500,66,97,215756
1.7986,0.3079,38.4900,66,97,215759
1.7791,0.3470,38.6500,66,97,215762
1.7791,0.4301,38.6500,66,97,215767
1.7986,0.4497,38.5800,66,97,215770
1.7791,0.4057,38.6500,66,97,215773
1.8231,0.3372,38.5200,66,97,215777
1.7986,0.2981,38.6500,66,97,215780
1.7840,0.3568,38.6500,66,97,215783
1.7986,0.4350,38.7100,66,97,215786
1.7840,0.4448,38.6500,66,97,215790
1.8328,0.4057,38.4600,66,97,215793
1.7937,0.3226,38.6200,66,97,215796
1.7889,0.3030,38.6200,66,97,215800
1.7937,0.3763,38.5800,66,97,215803
1.7889,0.4301,38.7400,66,97,215806
1.8426,0.4594,38.4300,66,97,215811
1.8133,0.3959,38.5800,66,97,215814
1.8084,0.3177,38.6500,66,97,215817
1.7986,0.2981,38.6200,66,97,215821
1.7937,0.3715,38.6800,66,97,215824
1.8280,0.4839,38.3300,66,97,215827
1.7986,0.4350,38.5800,66,97,215830
1.8133,0.3812,38.6200,66,97,215834
1.7937,0.3421,38.6200,66,97,215837
1.7986,0.3079,38.7400,66,97,215840
1.8280,0.4106,38.4300,66,97,215844
1.7986,0.4497,38.5500,66,97,215847
1.8231,0.4350,38.5500,66,97,215851
1.7840,0.3763,38.6200,66,97,215855
1.7937,0.3079,38.6500,66,97,215858
1.8182,0.3226,38.4000,66,97,215861
1.7986,0.4008,38.6200,66,97,215865
1.8231,0.4448,38.4900,66,97,215868
1.8475,0.4301,38.6500,66,97,215871
1.8084,0.3715,38.6500,66,97,215874
1.8035,0.3128,38.5500,66,97,215878
1.8280,0.3079,38.7700,66,97,215881
1.8182,0.4057,38.5200,66,97,215884
1.8964,0.4350,38.6200,66,97,215888
1.8328,0.4252,38.7100,66,97,215891
1.8328,0.3715,38.5200,66,97,215895
1.8377,0.3030,38.6200,66,97,215899
1.8377,0.3324,38.4600,66,97,215902
1.8964,0.4057,38.6500,66,97,215905
1.8622,0.4448,38.6500,66,97,215909
1.9110,0.4301,38.6200,66,97,215912
1.8719,0.3519,38.6500,66,97,215915
1.8768,0.3128,38.5800,66,97,215918
1.9208,0.3324,38.5500,66,97,215922
1.9110,0.4106,38.6200,66,97,215925
1.9501,0.4448,38.5800,66,97,215928
1.9306,0.4252,38.6800,66,97,215932
1.9404,0.3617,38.4000,66,97,215936
1.9697,0.3128,38.5500,66,97,215939
1.9795,0.3372,38.5800,66,97,215943
2.0283,0.4203,38.6500,66,97,215946
2.0039,0.4448,38.6800,66,97,215949
1.9990,0.4350,38.4600,66,97,215952
2.0137,0.3470,38.5800,66,97,215956
1.9648,0.2981,38.5500,66,97,215959
1.9697,0.3861,38.6500,66,97,215962
1.9208,0.4203,38.6500,66,97,215966
1.8915,0.4545,38.4900,66,97,215969
1.8866,0.4106,38.6200,66,97,215972
1.8817,0.3372,38.4900,66,97,215976
1.9013,0.3079,38.6200,66,97,215980
1.8622,0.3519,38.6500,66,97,215983
1.8475,0.4350,38.4600,66,97,215987
1.8573,0.4448,38.6500,66,97,215990
1.8328,0.4057,38.5200,66,97,215993
1.8768,0.3177,38.5200,66,97,215996
1.8084,0.2981,38.6800,66,97,216000
1.7889,0.3715,38.5200,66,97,216003
1.7840,0.4350,38.6500,66,97,216006
1.7742,0.4497,38.4300,66,97,216010
1.8280,0.4497,38.4300,66,96,216014
1.7840,0.4399,38.6500,66,96,216018
1.7889,0.3812,38.5800,66,96,216022
1.7742,0.3128,38.6500,66,96,216025
1.7742,0.3079,38.6500,66,96,216029
1.8084,0.3959,38.4900,66,96,216032
1.7840,0.4252,38.5800,66,96,216035
1.8035,0.4350,38.5500,66,96,216039
1.7840,0.3861,38.6200,66,96,216042
1.7986,0.3079,38.6500,66,96,216045
1.8182,0.3275,38.4600,66,96,216048
1.7986,0.4008,38.6200,66,96,216052
1.8328,0.4497,38.4900,66,96,216055
1.7986,0.4252,38.3300,66,96,216058
1.8035,0.3715,38.6500,66,96,216062
1.8133,0.3079,38.5200,66,96,216066
1.7742,0.3079,38.6200,66,96,216069
1.7644,0.4057,38.4900,66,96,216073
1.7107,0.4350,38.6500,66,96,216076
1.7058,0.4252,38.6500,66,96,216079
1.7742,0.3715,38.5200,66,96,216082
1.8182,0.2981,38.6500,66,96,216086
2.0137,0.3324,38.4300,66,96,216089
2.2141,0.4106,38.6800,66,96,216092
2.4878,0.4448,38.6500,66,96,216096
2.8837,0.4252,38.5800,66,96,216099
3.1867,0.3519,38.6500,66,96,216102
3.5630,0.3128,38.4000,66,96,216107
3.5679,0.3421,38.5500,66,96,216110
3.3724,0.4106,38.6800,66,96,216113
3.0352,0.4448,38.5800,66,96,216117
2.5904,0.4154,38.6500,66,96,216120
2.2385,0.3617,38.3600,66,96,216123
1.8280,0.3030,38.5200,66,96,216126
1.5494,0.3372,38.6200,66,96,216130
1.3636,0.4203,38.6200,66,96,216133
1.2561,0.4448,38.6500,66,96,216136
1.2366,0.4301,38.4600,66,96,216140
1.2121,0.3470,38.5800,66,96,216143
1.2512,0.3030,38.5500,66,96,216146
1.3050,0.3470,38.6500,66,96,216151
1.3734,0.4203,38.6500,66,96,216154
1.4663,0.4448,38.5500,66,96,216157
1.5152,0.4106,38.6200,66,96,216160
1.5738,0.3372,38.5800,66,96,216164
1.5885,0.3030,38.6500,66,96,216167
1.6129,0.3519,38.6800,66,96,216170
1.6569,0.4399,38.5200,66,96,216174
1.6569,0.4448,38.6200,66,96,216177
1.7009,0.4203,38.5200,66,96,216180
1.6862,0.3177,38.5800,66,96,216184
1.6960,0.2981,38.6500,66,96,216187
1.7204,0.3568,38.4600,66,96,216190
1.7107,0.4301,38.6800,66,96,216195
1.7595,0.4497,38.4600,66,96,216198
1.7351,0.3910,38.5500,66,96,216201
1.7449,0.3226,38.6800,66,96,216204
1.7693,0.3079,37.7400,66,96,216208
1.7644,0.3666,38.5800,66,96,216211
1.8182,0.4399,38.3600,66,96,216214
1.7986,0.4350,38.6200,66,96,216218
1.7889,0.3910,38.5500,66,96,216221
1.7986,0.3324,38.6200,66,96,216224
1.7986,0.3079,38.6500,66,96,216228
1.8573,0.3910,38.4000,66,96,216231
1.8231,0.4399,38.5500,66,96,216235
1.8280,0.4301,38.6200,66,96,216238
1.8622,0.3861,38.6200,66,96,216242
1.8377,0.3128,38.6500,66,96,216245
1.8817,0.3226,38.4600,66,96,216248
1.8622,0.3910,38.5800,66,96,216252
1.8817,0.4399,38.5500,66,96,216255
1.8671,0.4350,38.7100,66,96,216258
1.8768,0.3763,38.5800,66,96,216262
1.9257,0.3226,38.4900,66,96,216265
1.8915,0.3177,38.6200,66,96,216268
1.9257,0.3959,38.5200,66,96,216271
1.9257,0.4497,38.6500,66,96,216275
1.9257,0.4301,38.6800,66,96,216279
1.9550,0.3715,38.5800,66,96,216282
1.9355,0.2981,38.6200,66,96,216286
1.9746,0.3275,38.5500,66,96,216289
1.9599,0.4057,38.6500,66,96,216292
1.9648,0.4448,38.6500,66,96,216296
1.9892,0.4301,38.5500,66,96,216299
1.9795,0.3617,38.6800,66,96,216302
2.0332,0.3030,38.4600,66,96,216306
2.0186,0.3324,38.5200,66,96,216309
2.0235,0.4106,38.6500,66,96,216312
2.0528,0.4545,38.6500,66,96,216315
2.0430,0.4154,38.6500,66,96,216320
2.1017,0.3666,38.3600,66,96,216323
2.0674,0.2981,38.5800,66,96,216326
2.0723,0.3324,38.6500,66,96,216330
2.0919,0.4154,38.6200,66,96,216333
2.0821,0.4448,38.6200,66,96,216336
2.1505,0.4643,38.3600,66,96,216340
2.1212,0.3470,38.5500,66,96,216343
2.1114,0.2981,38.5800,66,96,216346
2.1163,0.3421,38.6500,66,96,216350
2.1163,0.4203,38.7700,66,96,216353
2.1701,0.4643,38.4900,66,96,216356
2.1261,0.4106,38.6800,66,96,216359
2.1359,0.3372,38.5200,66,96,216364
2.1065,0.2981,38.6800,66,96,216367
2.0968,0.3519,38.6500,66,96,216370
2.1114,0.4350,38.4900,66,96,216374
2.0723,0.4790,38.6200,66,96,216377
2.0723,0.4057,38.4900,66,96,216380
2.0332,0.3324,38.6500,66,96,216384
2.0039,0.2981,38.6200,66,96,216387
1.9941,0.3715,38.5200,66,96,216390
1.9648,0.4252,38.5800,66,96,216394
1.9599,0.4448,37.8000,66,96,216397
1.8964,0.4008,38.6200,66,96,216400
1.8768,0.3275,38.6500,66,96,216403
1.8719,0.3030,38.0800,66,96,216408
1.8182,0.3617,38.6800,66,96,216411
1.8182,0.4448,38.4300,66,96,216414
1.7791,0.4399,38.6500,66,96,216418
1.7546,0.3959,38.6500,66,96,216421
1.7498,0.3324,38.5500,66,96,216424
1.7253,0.3030,38.6500,66,96,216428
1.7595,0.3910,38.3600,66,96,216431
1.7155,0.4399,38.6500,66,96,216434
1.7058,0.4350,38.6800,66,96,216437
1.7058,0.3861,38.6200,66,96,216441
1.6960,0.3079,38.6500,66,96,216444
1.7449,0.3275,38.4000,66,96,216448
1.7058,0.3861,38.5500,66,96,216452
1.7107,0.4350,38.5500,66,96,216455
1.7009,0.4301,38.6500,66,96,216458
1.6960,0.3763,38.6500,66,96,216462
1.7400,0.3275,38.5500,66,96,216465
1.7204,0.3226,38.6800,66,96,216468
1.7204,0.3910,38.5500,66,96,216471
1.7155,0.4399,38.6500,66,96,216475
1.7204,0.4399,38.6500,66,96,216478
1.7644,0.3861,38.5500,66,96,216481
1.7644,0.3079,38.6200,66,96,216485
1.7546,0.3226,38.4900,66,96,216488
1.7889,0.3861,38.6500,66,96,216492
1.7693,0.4399,38.7700,66,96,216496
1.7693,0.4350,38.5200,66,96,216499
1.7840,0.3666,38.7400,66,96,216502
1.7791,0.3030,38.4900,66,96,216506
1.8084,0.3275,38.5800,66,96,216509
1.7693,0.4008,38.6500,66,96,216512
1.7742,0.4594,38.4900,66,96,216515
1.7937,0.4203,38.6500,66,96,216519
1.7693,0.3617,38.4000,66,96,216522
1.8231,0.3030,38.5500,66,96,216525
1.8035,0.3324,38.6500,66,96,216529
1.7742,0.4203,38.6800,66,96,216532
1.7791,0.4448,38.6800,66,96,216536
1.7791,0.4301,38.4000,66,96,216540
1.8328,0.3519,38.6200,66,96,216543
1.7889,0.2884,38.6200,66,96,216546
1.7840,0.3421,38.6500,66,96,216550
1.7791,0.4203,38.6800,66,96,216553
1.7742,0.4448,38.4300,66,96,216556
1.8035,0.4203,38.6200,66,96,216559
1.7840,0.3372,38.6500,66,96,216563
1.7986,0.3030,38.6500,66,96,216566
1.7742,0.3470,38.7400,66,96,216569
1.7791,0.4741,38.4900,66,96,216573
1.7937,0.4497,38.6200,66,96,216577
1.7791,0.4106,38.5200,66,96,216580
1.8035,0.3324,38.6500,66,96,216584
1.7742,0.2981,38.6500,66,96,216587
1.7791,0.3617,38.4900,66,96,216590
1.8084,0.4350,38.6200,66,96,216594
1.7791,0.4545,38.5200,66,96,216597
1.8280,0.4057,38.6500,66,96,216600
1.7840,0.3324,38.6500,66,96,216603
1.7840,0.3030,38.3000,66,96,216607
1.7986,0.3617,38.6200,66,96,216610
1.7840,0.4301,38.4900,66,96,216613
1.8182,0.4399,38.8400,66,96,216617
1.7986,0.4008,38.6500,66,96,216621
1.7889,0.3275,38.5500,66,96,216624
1.8035,0.3861,38.5800,66,96,216629
1.7889,0.3079,38.6500,66,96,216632
1.8377,0.3275,38.4000,66,96,216636
1.8133,0.3861,38.5500,66,96,216639
1.7986,0.4350,38.5800,66,96,216642
1.8035,0.4350,38.6200,66,96,216646
1.7986,0.3812,38.6500,66,96,216649
1.8475,0.3177,38.4300,66,96,216652
1.8084,0.3226,38.6200,66,96,216655
1.7986,0.3861,38.5500,66,96,216659
1.8035,0.4399,38.6200,66,96,216663
1.8133,0.4301,38.6500,66,96,216666
1.8426,0.3812,38.6200,66,96,216670
1.8084,0.3079,38.5800,66,96,216673
1.8524,0.3275,38.4900,66,96,216676
1.8084,0.3959,38.7400,66,96,216680
1.8035,0.4399,38.6500,66,96,216683
1.8328,0.4350,38.5200,66,96,216686
1.8084,0.3666,38.6500,66,96,216689
1.8377,0.3030,38.4900,66,96,216693
1.8182,0.3226,38.5800,66,96,216696
1.8231,0.4008,38.6800,66,96,216699
1.8426,0.4497,38.4900,66,96,216704
1.8377,0.4154,38.6500,66,96,216707
1.8719,0.3617,38.4300,66,96,216710
1.8524,0.3030,38.5800,66,96,216714
1.8622,0.3324,38.6500,66,96,216717
1.9013,0.4203,38.5500,66,96,216720
1.8964,0.4448,38.6500,66,96,216723
1.9355,0.4301,38.4000,66,96,216727
1.9257,0.3763,38.5800,66,96,216730
1.9208,0.2981,38.6500,66,96,216733
1.9501,0.3470,38.4300,66,96,216737
1.9501,0.4154,38.6500,66,96,216740
2.0088,0.4643,38.4300,66,96,216743
1.9746,0.4350,38.5500,66,96,216748
1.9648,0.3421,38.5800,66,96,216751
1.9550,0.3030,38.6500,66,96,216754
1.9208,0.3519,38.6500,66,96,216758
1.9550,0.4252,38.4600,66,96,216761
1.8866,0.4399,38.5500,66,96,216764
1.8671,0.4057,38.5200,66,96,216767
1.8524,0.3372,38.6500,66,96,216771
1.8377,0.2981,38.8100,66,96,216774
1.8817,0.3617,38.4900,66,96,216777
1.8426,0.4301,38.7400,66,96,216781
1.8622,0.4741,38.5200,66,96,216784
1.8231,0.4057,38.6800,66,96,216787
1.8084,0.3275,38.6500,66,96,216792
1.8280,0.3079,38.5500,66,96,216795
1.7791,0.3617,38.6500,66,96,216798
1.7937,0.4301,38.4900,66,96,216802
1.7546,0.4399,38.6800,66,96,216805
1.7498,0.3959,38.6500,66,96,216808
1.7742,0.3324,38.5500,66,96,216811
1.7546,0.3030,38.6500,66,96,216815
1.7791,0.3763,38.4000,66,96,216818
1.7449,0.4350,38.5500,66,96,216821
1.7546,0.4399,38.6500,66,96,216825
1.7742,0.4008,38.6200,66,96,216828
1.7595,0.3177,37.8300,66,96,216832
1.7986,0.3177,38.3300,66,96,216836
1.7644,0.3763,38.5500,66,96,216839
1.7791,0.4301,38.8100,66,96,216842
1.7937,0.4448,38.6500,66,96,216845
1.7986,0.3861,38.6200,66,96,216849
1.8280,0.3324,38.4300,66,96,216852
1.8084,0.3030,38.5500,66,96,216855
1.7937,0.3812,38.5800,66,96,216859
1.7889,0.4399,38.6500,66,96,216862
1.7546,0.4252,38.6500,66,96,216865
1.7693,0.3861,38.5800,66,96,216869
1.7058,0.3079,38.6200,66,96,216872
1.7009,0.3226,38.5200,66,96,216876
1.7400,0.3910,38.9000,66,96,216880
1.8280,0.4594,38.6500,66,96,216883
2.0430,0.4448,38.4600,66,96,216886
2.2336,0.3715,38.6200,66,96,216889
2.5269,0.3128,38.5200,66,96,216893
2.8592,0.3177,38.6200,66,96,216896
3.1965,0.3959,38.6500,66,96,216899
3.5044,0.4252,38.5500,66,96,216903
3.4848,0.4252,38.6200,66,96,216906
3.2991,0.3666,38.4600,66,96,216909
2.9228,0.3030,38.5800,66,96,216913
2.4682,0.3275,38.5800,66,96,216916
2.1065,0.4594,38.5200,66,96,216920
1.7351,0.4448,38.6500,66,96,216924
1.5054,0.4350,38.4300,66,96,216927
1.3245,0.3519,38.6200,66,96,216930
1.2463,0.3079,38.6500,66,96,216933
1.2170,0.3421,38.6200,66,96,216937
1.2121,0.4057,38.6500,66,96,216940
1.2757,0.4594,38.3300,66,96,216943
1.3245,0.4203,38.4900,66,96,216947
1.3930,0.3421,38.6500,66,96,216950
1.4712,0.3030,38.6500,66,96,216953
1.5152,0.3421,38.5200,66,96,216957
1.6031,0.4252,38.4600,66,96,216961
1.5982,0.4545,38.5200,66,96,216964
1.6325,0.4154,38.5500,66,96,216968
1.6618,0.3421,38.6200,66,96,216971
1.6716,0.2981,38.7400,66,96,216974
1.7253,0.3715,38.4600,66,96,216977
1.7351,0.4252,38.6200,66,96,216981
1.7058,0.4497,38.7100,66,96,216984
1.7155,0.4008,38.6500,66,96,216987
1.7204,0.3324,38.6500,66,96,216991
1.7742,0.3030,38.7100,66,96,216994
1.7449,0.3666,38.6500,66,96,216997
1.7498,0.4252,38.5200,66,96,217001
1.7498,0.4399,38.6500,66,96,217005
1.7595,0.3861,38.6500,66,96,217008
1.7937,0.3372,38.5500,66,96,217011
1.7840,0.2981,38.6500,66,96,217015
1.8035,0.3666,38.4600,66,96,217018
1.7889,0.4301,38.5500,66,96,217021
1.7986,0.4399,38.6500,66,96,217025
1.8182,0.4057,38.3600,66,96,217028
1.8133,0.3226,38.6500,66,96,217031
1.8475,0.3128,38.4300,66,96,217035
1.8231,0.3763,38.6500,66,96,217038
1.8426,0.4399,38.6500,66,96,217041
1.8671,0.4448,38.6200,66,96,217046
1.8475,0.3861,38.7700,66,96,217049
1.8817,0.3372,38.3600,66,96,217052
1.8671,0.3079,38.5500,66,96,217055
1.8866,0.3763,38.6200,66,96,217059
1.8866,0.4350,38.6800,66,96,217062
1.8768,0.4350,38.6500,66,96,217065
1.9306,0.3959,38.5200,66,96,217069
1.8964,0.3128,38.6200,66,96,217072
1.9062,0.3128,38.5500,66,96,217075
1.9208,0.3910,38.6200,66,96,217079
1.9208,0.4399,38.6500,66,96,217082
1.9844,0.4448,38.4600,66,96,217085
1.9501,0.3763,38.6200,66,96,217090
1.9550,0.3079,38.5200,66,96,217093
1.9844,0.3226,38.6500,66,96,217096
2.0186,0.3959,38.6500,66,96,217099
2.0283,0.4448,38.5200,66,96,217103
2.0772,0.4252,38.9000,66,96,217106
2.0528,0.4154,38.4900,66,96,217109
2.0919,0.2981,38.6200,66,96,217113
2.0674,0.3275,38.8700,66,96,217116
2.0723,0.4106,38.5200,66,96,217119
2.1017,0.4252,38.6500,66,96,217123
2.0919,0.4301,38.6500,66,96,217126
2.1212,0.3568,38.6800,66,96,217129
2.1017,0.2981,38.6500,66,96,217133
2.1017,0.3372,38.6800,66,96,217137
2.1212,0.4057,38.6500,66,96,217140
2.0968,0.4594,38.4000,66,96,217143
2.1359,0.4252,38.5800,66,96,217147
2.0870,0.3763,38.6500,66,96,217150
2.0821,0.3030,38.6200,66,96,217153
2.0821,0.3421,38.7100,66,96,217157
2.0479,0.4301,38.4000,66,96,217160
2.0870,0.4497,38.5800,66,96,217163
2.0283,0.4203,38.6200,66,96,217167
1.9892,0.3470,38.6200,66,96,217170
1.9697,0.2981,38.6800,66,96,217174
1.9355,0.3617,38.5200,66,96,217177
1.9648,0.4350,38.6200,66,96,217181
1.8915,0.4448,38.5500,66,96,217184
1.8622,0.4106,38.5800,66,96,217187
1.8328,0.3421,38.6500,66,96,217191
1.8084,0.3079,38.5500,66,96,217194
1.8231,0.3568,38.6500,66,96,217197
1.7693,0.4301,38.4900,66,96,217201
1.7595,0.4448,38.5500,66,96,217204
1.7302,0.4203,38.6500,66,96,217207
1.7302,0.3421,38.5200,66,96,217211
1.7302,0.3030,38.6500,66,96,217214
1.7058,0.3666,38.4900,66,96,217218
1.7155,0.4252,38.5500,66,96,217221
1.6862,0.4399,38.6500,66,96,217225
1.6862,0.4057,38.6800,66,96,217228
1.7107,0.3226,38.6500,66,96,217231
1.6813,0.3079,38.4600,66,96,217235
1.7155,0.3324,38.4600,66,96,217239
1.6911,0.3128,38.5800,66,96,217243
1.6911,0.3763,38.6800,66,96,217246
1.7058,0.4399,38.6500,66,96,217249
1.6960,0.4350,38.6800,66,96,217253
1.7351,0.3959,38.5200,66,96,217256
1.7155,0.3128,38.6200,66,96,217260
1.7155,0.3128,38.5200,66,96,217264
1.7449,0.3910,38.6500,66,96,217267
1.7253,0.4399,38.6800,66,96,217270
1.7742,0.4399,38.3600,66,96,217273
1.7351,0.3763,38.6500,66,96,217277
1.7400,0.3128,38.5200,66,96,217280
1.7791,0.3226,38.6500,66,96,217283
1.7449,0.3910,38.6500,66,96,217287
1.7986,0.4497,38.4000,66,96,217290
1.7693,0.4252,38.7400,66,96,217293
1.7644,0.3715,38.4600,66,96,217297
1.7644,0.2981,38.6200,66,96,217300
1.7693,0.3421,38.6500,66,96,217304
1.8133,0.4106,38.5200,66,96,217308
1.7791,0.4448,38.6500,66,96,217311
1.7889,0.4301,38.4000,66,96,217314
1.7693,0.3519,38.6500,66,96,217317
1.7742,0.2981,38.6500,66,96,217321
1.7986,0.3568,38.6200,66,96,217324
1.7791,0.4106,38.7700,66,96,217327
1.8035,0.4594,38.4000,66,96,217331
1.7742,0.4301,38.5800,66,96,217334
1.7742,0.3470,38.6500,66,96,217337
1.7889,0.3030,38.4600,66,96,217341
1.7742,0.3372,38.6500,66,96,217345
1.8280,0.4399,38.4300,66,96,217348
1.7693,0.4643,38.5200,66,96,217351
1.7693,0.4154,38.5500,66,96,217355
1.8035,0.3421,38.6200,66,96,217358
1.7693,0.2981,38.7700,66,96,217361
1.8084,0.3617,38.5200,66,96,217365
1.7840,0.4252,38.7100,66,96,217368
1.7693,0.4985,38.4900,66,96,217371
1.7840,0.4057,38.6500,66,96,217375
1.7644,0.3324,38.7100,66,96,217378
1.8133,0.2981,38.4900,66,96,217381
1.7644,0.3470,38.6200,66,96,217385
1.7693,0.4350,38.5200,66,96,217389
1.7791,0.4497,38.6800,66,96,217392
1.7791,0.4008,38.6500,66,96,217395
1.8231,0.3421,38.5500,66,96,217399
1.7840,0.3030,38.6800,66,96,217402
1.7742,0.3666,38.4900,66,96,217405
1.7791,0.4301,38.5200,66,96,217409
1.7693,0.4350,38.6500,66,96,217412
1.8182,0.4057,38.3300,66,96,217415
1.7840,0.3226,38.6500,66,96,217419
1.7889,0.3128,38.4000,66,96,217422
1.7742,0.3763,38.5800,66,96,217425
1.7742,0.4301,38.6500,66,96,217430
1.8084,0.4497,38.6200,66,96,217433
1.7791,0.3861,38.7400,66,96,217436
1.8133,0.3275,38.3000,66,96,217439
1.7791,0.3128,38.6200,66,96,217443
1.7791,0.3715,38.6500,66,96,217446
1.8084,0.4350,38.6500,66,96,217449
1.7889,0.4350,38.6500,66,96,217453
1.8182,0.3959,38.4600,66,96,217456
1.7889,0.3177,38.6200,66,96,217459
1.7937,0.3128,38.6200,66,96,217463
1.8035,0.3910,38.6500,66,96,217466
1.7937,0.4399,37.8300,66,96,217469
1.8231,0.4448,38.5500,66,96,217474
1.7937,0.3763,38.6200,66,96,217477
1.7986,0.3079,38.6200,66,96,217480
1.8133,0.3226,38.6500,66,96,217483
1.7986,0.3910,38.6800,66,96,217487
1.8426,0.4545,38.5500,66,96,217490
1.8182,0.4301,38.6500,66,96,217493
1.8084,0.3763,38.5200,66,96,217497
1.8182,0.2981,38.6200,66,96,217500
1.8475,0.3226,38.6500,66,96,217503
1.8817,0.4106,38.5500,66,96,217507
1.8475,0.4448,38.7100,66,96,217510
1.8475,0.4301,38.4000,66,96,217513
1.8524,0.3470,38.6500,66,96,217517
1.8573,0.2981,38.6500,66,96,217521
1.9159,0.3421,38.5800,66,96,217524
1.8915,0.4106,38.6500,66,96,217527
1.9062,0.4545,38.4000,66,96,217531
1.8964,0.4301,38.5500,66,96,217534
1.9062,0.3519,38.6800,66,96,217537
1.9453,0.3030,38.6800,66,96,217541
1.9453,0.3470,38.6500,66,96,217544
1.9795,0.4252,38.3600,66,96,217547
1.9501,0.4545,38.5200,66,96,217551
1.9404,0.4106,38.6200,66,96,217554
1.9746,0.3421,38.6500,66,96,217558
1.8964,0.2981,38.7100,66,96,217561
1.9013,0.3715,38.4600,66,96,217565
1.8573,0.4252,38.5800,66,96,217568
1.8426,0.4448,38.5200,66,96,217571
1.8524,0.4057,38.6500,66,96,217575
1.8231,0.3372,38.6500,66,96,217578
1.8524,0.3421,38.5800,66,96,217581
1.8280,0.3568,38.6200,66,96,217585
1.8133,0.4301,38.5200,66,96,217588
1.8182,0.4497,38.6500,66,96,217591
1.7937,0.4057,38.6500,66,96,217594
1.8133,0.3470,38.4900,66,96,217598
1.7644,0.2981,38.6500,66,96,217602
1.7498,0.3617,38.5500,66,96,217605
1.7498,0.4252,38.6500,66,96,217609
1.7351,0.4399,38.7400,66,96,217612
1.7937,0.4057,38.5200,66,96,217615
1.7595,0.3275,38.7100,66,96,217619
1.7546,0.3568,38.4600,66,96,217622
1.7546,0.3666,38.5500,66,96,217625
1.7546,0.4301,38.7700,66,96,217629
1.8231,0.4545,38.5500,66,96,217632
1.7595,0.3959,38.6500,66,96,217635
1.7644,0.3079,38.4000,66,96,217638
1.7546,0.3030,38.5800,66,96,217643
1.7546,0.3763,38.6500,66,96,217646
1.7937,0.4350,38.6200,66,96,217649
1.7840,0.4399,38.7700,66,96,217653
1.7986,0.4301,38.3600,66,96,217656
1.7791,0.3177,38.5500,66,96,217659
1.7791,0.3030,38.6500,66,96,217663
1.7693,0.3812,38.6500,66,96,217666
1.7204,0.4350,38.6500,66,96,217669
1.7107,0.4545,38.4600,66,96,217672
1.6667,0.3910,38.5800,66,96,217676
1.6862,0.3372,38.5500,66,96,217679
1.7742,0.3128,38.6200,66,96,217682
1.8768,0.3861,38.6800,66,96,217687
2.1114,0.4497,38.4900,66,96,217690
2.3705,0.4252,38.5800,66,96,217693
2.6931,0.3812,38.5200,66,96,217697
3.0841,0.3324,38.6200,66,96,217700
3.3675,0.3177,38.8100,66,96,217703
3.6022,0.3959,38.5800,66,96,217706
1.9257,0.4448,38.6800,66,96,217710
1.6031,0.4350,38.5500,66,96,217713
1.3930,0.4008,38.6800,66,96,217716
1.2659,0.3079,38.6500,66,96,217720
1.2170,0.3324,38.5200,66,96,217723
1.2219,0.4057,38.6200,66,96,217726
1.2268,0.4497,38.4900,66,96,217731
1.2903,0.4301,38.5500,66,96,217734
1.3441,0.3568,38.6500,66,96,217737
1.4125,0.3177,38.5500,66,96,217741
1.5054,0.3324,38.6800,66,96,217744
1.5200,0.4203,38.3300,66,96,217747
1.5982,0.4497,38.5500,66,96,217750
1.5885,0.4203,38.6500,66,96,217754
1.6129,0.3568,37.9000,66,96,217757
1.6471,0.2981,38.6500,66,96,217760
1.6471,0.3519,38.3600,66,96,217764
1.6813,0.4154,38.5200,66,96,217767
1.6716,0.4692,38.6800,66,96,217771
1.6862,0.4154,38.6200,66,96,217775
1.7107,0.3421,38.6500,66,96,217778
1.7009,0.3177,38.4600,66,96,217781
1.7546,0.3519,38.6200,66,96,217784
1.7204,0.4203,38.5800,66,96,217788
1.7595,0.4497,38.6500,66,96,217791
1.7498,0.4057,38.6800,66,96,217794
1.7400,0.3470,38.4900,66,96,217798
1.7889,0.3030,38.6200,66,96,217801
1.7644,0.3568,38.5200,66,96,217804
1.7595,0.4252,38.6500,66,96,217808
1.7742,0.4448,38.6500,66,96,217811
1.7742,0.4154,38.4300,66,96,217815
1.8377,0.3617,38.6800,66,96,217819
1.7986,0.3128,38.5500,66,96,217822
1.8035,0.3568,38.7400,66,96,217825
1.8084,0.4301,38.6500,66,96,217828
1.8084,0.4448,38.5500,66,96,217832
1.8573,0.4057,38.6800,66,96,217835
1.8377,0.3275,38.4600,66,96,217838
1.8524,0.3030,38.6800,66,96,217842
1.8426,0.3715,38.6500,66,96,217845
1.8475,0.4399,38.5800,66,96,217848
1.8768,0.3812,38.6200,66,96,217853
1.8671,0.4350,38.6800,66,96,217857
1.9062,0.4545,38.4600,66,96,217861
1.8817,0.3910,38.5800,66,96,217864
1.8915,0.3079,38.6500,66,96,217867
1.9257,0.3128,38.6500,66,96,217871
1.9110,0.3910,38.6800,66,96,217874
1.9404,0.4497,38.5500,66,96,217877
1.9404,0.4350,38.6500,66,96,217880
1.9453,0.3812,38.5200,66,96,217884
1.9746,0.3177,38.6200,66,96,217887
1.9648,0.3177,38.6500,66,96,217890
2.0186,0.3959,38.5800,66,96,217894
2.0039,0.4448,38.6500,66,96,217897
2.0088,0.4350,38.5200,66,96,217901
2.0381,0.3666,38.7100,66,96,217905
2.0283,0.3030,38.6800,66,96,217908
2.0919,0.3324,38.5500,66,96,217911
2.0528,0.4057,38.6500,66,96,217915
2.0626,0.4545,38.4600,66,96,217918
2.0772,0.4252,38.5800,66,96,217921
2.0723,0.3861,38.6500,66,96,217924
2.1359,0.3128,38.5500,66,96,217928
2.0968,0.3324,38.7700,66,96,217931
2.0821,0.4252,38.4000,66,96,217934
2.0919,0.4448,38.5500,66,96,217938
2.0870,0.4154,38.6500,66,96,217942
2.1457,0.3666,38.6200,66,96,217945
2.0968,0.2981,38.6500,66,96,217949
2.0919,0.3519,38.4000,66,96,217952
2.0772,0.4350,38.4900,66,96,217955
2.0626,0.4350,38.6200,66,96,217958
2.0772,0.4154,38.6200,66,96,217962
2.0332,0.3421,38.6500,66,96,217965
2.0332,0.3226,38.4600,66,96,217968
1.9892,0.3519,38.5800,66,96,217972
1.9648,0.4203,38.5200,66,96,217975
1.9550,0.4497,38.6500,66,96,217978
1.9208,0.4057,38.7700,66,96,217982
1.9110,0.3470,38.4600,66,96,217986
1.8524,0.2884,38.6200,66,96,217989
1.8280,0.3568,38.5200,66,96,217992
1.8280,0.4252,38.9000,66,96,217996
1.7742,0.4497,38.6500,66,96,217999
1.7791,0.4154,38.5500,66,96,218002
1.7449,0.3324,38.4900,66,96,218006
1.7204,0.3666,38.5200,66,96,218009
1.7204,0.3568,38.6500,66,96,218012
1.6911,0.4252,38.6500,66,96,218016
1.7204,0.4545,38.5500,66,96,218019
1.6813,0.4008,38.6500,66,96,218022
1.6667,0.3324,38.4600,66,96,218025
1.6813,0.3030,38.6500,66,96,218030
1.6716,0.3666,38.6500,66,96,218033
1.7204,0.4399,38.8700,66,96,218036
1.6911,0.4497,38.6800,66,96,218040
1.6667,0.4057,38.4900,66,96,218043
1.6813,0.3275,38.5500,66,96,218046
1.6667,0.3128,38.6800,66,96,218050
1.7253,0.3812,38.6800,66,96,218053
1.7302,0.4497,38.6800,66,96,218056
1.6911,0.4545,38.3300,66,96,218060
1.6862,0.3910,38.5200,66,96,218063
1.6960,0.3128,38.6500,66,96,218066
1.7351,0.3177,38.6200,66,96,218070
1.7155,0.3763,38.6800,66,96,218074
1.7351,0.4545,38.5500,66,96,218077
1.7204,0.4399,38.5800,66,96,218080
1.7302,0.3812,38.5500,66,96,218084
1.7546,0.3079,38.6500,66,96,218087
1.7351,0.3128,38.6500,66,96,218090
1.7693,0.4008,38.5500,66,96,218094
1.7400,0.4448,38.7700,66,96,218097
1.7449,0.4399,38.4900,66,96,218100
1.7644,0.3763,38.6500,66,96,218104
1.7498,0.3030,38.6200,66,96,218107
1.7742,0.3617,38.4900,66,96,218110
1.7498,0.3959,38.6500,66,96,218114
1.7546,0.4545,38.5200,66,96,218118
1.7791,0.4203,38.5800,66,96,218121
1.7449,0.3666,38.6500,66,96,218124
1.7937,0.3324,38.5200,66,96,218128
1.7693,0.3177,38.6500,66,96,218131
1.7498,0.4106,38.4600,66,96,218134
1.7595,0.4448,38.5500,66,96,218138
1.7546,0.4203,38.6500,66,96,218141
1.8182,0.3666,38.5500,66,96,218144
1.7644,0.3324,38.6200,66,96,218147
1.7840,0.3519,38.4300,66,96,218151
1.7546,0.4106,38.5800,66,96,218155
1.7546,0.4497,38.6800,66,96,218158
1.8035,0.4203,38.6800,66,96,218162
1.7644,0.3421,38.6800,66,96,218165
1.7644,0.3177,38.3600,66,96,218168
1.7595,0.3470,38.5500,66,96,218172
1.7498,0.4203,38.6200,66,96,218175
1.8035,0.4448,38.8400,66,96,218178
1.7595,0.4448,38.6500,66,96,218182
1.7693,0.3519,38.4600,66,96,218185
1.7546,0.3079,38.4600,66,96,218188
1.7546,0.3812,38.5200,66,96,218191
1.7840,0.4252,38.6500,66,96,218195
1.7498,0.4448,38.6500,66,96,218199
1.7840,0.4154,38.4900,66,96,218202
1.7595,0.3421,38.6200,66,96,218206
1.7644,0.3128,38.6200,66,96,218209
1.7840,0.3763,38.6500,66,96,218212
1.7644,0.4252,38.6800,66,96,218216
1.7840,0.4448,38.5500,66,96,218219
1.7595,0.3959,38.6800,66,96,218222
1.7595,0.3275,38.5200,66,96,218226
1.7742,0.3030,38.6800,66,96,218229
1.7644,0.3568,38.6500,66,96,218232
1.7986,0.4350,38.5500,66,96,218235
1.7644,0.4497,38.6500,66,96,218240
1.7644,0.4057,38.4300,66,96,218243
1.7840,0.3275,38.5200,66,96,218246
1.7644,0.3030,38.5800,66,96,218250
1.8133,0.3812,38.5800,66,96,218253
1.7840,0.4301,38.7100,66,96,218256
1.7693,0.4545,38.4000,66,96,218260
1.7742,0.3910,38.5500,66,96,218263
1.7693,0.3177,38.6800,66,96,218266
1.8328,0.3079,38.5800,66,96,218269
1.7840,0.3812,38.6500,66,96,218273
1.7937,0.4545,38.3600,66,96,218276
1.7840,0.4399,38.5200,66,96,218279
1.7791,0.3812,38.6800,66,96,218284
1.8231,0.3128,38.6200,66,96,218287
1.7937,0.3128,38.6500,66,96,218290
1.8133,0.4008,38.5200,66,96,218294
1.7986,0.4448,38.6200,66,96,218297
1.8035,0.4350,38.6500,66,96,218300
1.8182,0.3812,38.6500,66,96,218304
1.8182,0.3079,38.6500,66,96,218307
1.8475,0.3226,38.4600,66,96,218310
1.8280,0.4008,38.6200,66,96,218313
1.8377,0.4497,38.4900,66,96,218317
1.8768,0.4301,38.6500,66,96,218320
1.9550,0.3666,38.6800,66,96,218323
1.9355,0.3128,38.6500,66,96,218328
1.9941,0.3324,38.6200,66,96,218331
1.9550,0.4008,38.5200,66,96,218334
1.9355,0.4399,38.9000,66,96,218338
1.9208,0.4399,38.6500,66,96,218341
1.8866,0.3715,38.5500,66,96,218344
1.9208,0.3030,38.6500,66,96,218347
1.8524,0.3372,38.4300,66,96,218351
1.8280,0.4106,38.6800,66,96,218354
1.8231,0.4448,38.6500,66,96,218357
1.8035,0.4203,38.6200,66,96,218361
1.8475,0.3519,38.6200,66,96,218364
1.8084,0.3079,38.3600,66,96,218368
1.7986,0.3372,38.5800,66,96,218372
1.7693,0.4154,38.7100,66,96,218375
1.7498,0.4448,38.6800,66,96,218378
1.7546,0.3861,38.6800,66,96,218382
1.7058,0.3666,38.4000,66,96,218385
1.7107,0.3079,38.5800,66,96,218388
1.6813,0.3421,38.6200,66,96,218391
1.6813,0.4203,38.6800,66,96,218395
1.6960,0.4497,38.6800,66,96,218398
1.6764,0.4203,38.4600,66,96,218401
1.7107,0.3421,38.5800,66,96,218405
1.6813,0.3079,38.5500,66,96,218408
1.6911,0.3519,38.6500,66,96,218412
1.7058,0.4497,38.6500,66,96,218416
1.6960,0.4545,38.5800,66,96,218419
1.7253,0.4057,38.6200,66,96,218422
1.7058,0.3715,38.4600,66,96,218426
1.7155,0.3030,38.7400,66,96,218429
1.7400,0.3568,38.6800,66,96,218432
1.7204,0.4350,38.4900,66,96,218435
1.7644,0.4448,38.5200,66,96,218439
1.7449,0.4106,38.4900,66,96,218442
1.7253,0.3275,38.5800,66,96,218445
1.7107,0.3030,38.6500,66,96,218449
1.6618,0.3715,38.5500,66,96,218452
1.6716,0.4252,38.7700,66,96,218456
1.6129,0.4497,38.4300,66,96,218460
1.6227,0.4594,38.4600,66,96,218464
1.6960,0.4741,38.5500,66,96,218468
1.8280,0.3763,38.5800,66,96,218471
2.1017,0.3177,38.6500,66,96,218474
2.3803,0.3128,38.6500,66,96,218478
2.7419,0.4008,38.5200,66,96,218481
3.1036,0.4448,38.6200,66,96,218484
3.4311,0.4301,38.5500,66,96,218487
3.6413,0.3812,38.7100,66,96,218491
3.4848,0.3079,38.6500,66,96,218494
3.1867,0.3275,38.4900,66,96,218498
2.7126,0.3959,38.0200,66,96,218502
2.2678,0.4497,38.4900,66,96,218505
1.9159,0.4252,38.6500,66,96,218508
1.5640,0.3470,38.6500,66,96,218512
1.3783,0.3128,38.5800,66,96,218515
1.2170,0.3226,38.6200,66,96,218518
1.1535,0.4057,38.5200,66,96,218521
1.1535,0.4399,38.6800,66,96,218525
1.1584,0.4252,38.6500,66,96,218528
1.2268,0.3666,38.5500,66,96,218531
1.2708,0.3079,38.7100,66,96,218535
1.3343,0.3421,38.4000,66,96,218539
1.4223,0.4106,38.6500,66,96,218542
1.4663,0.4545,38.6500,66,96,218546
1.5591,0.4252,38.5800,66,96,218549
1.5445,0.3470,38.6500,66,96,218552
1.5738,0.3177,38.3600,66,96,218556
1.6080,0.3421,38.5800,66,96,218559
1.6129,0.4154,38.7400,66,96,218562
1.7058,0.4497,38.5800,66,96,218565
1.6618,0.4106,38.6500,66,96,218569
1.6618,0.3666,38.4000,66,96,218572
1.6764,0.3079,38.5500,66,96,218575
1.6813,0.3470,38.5800,66,96,218579
1.7449,0.4203,38.6500,66,96,218583
1.7107,0.4448,38.6800,66,96,218586
1.7204,0.4203,38.4900,66,96,218590
1.7204,0.3421,38.6200,66,96,218593
1.7253,0.3030,38.5200,66,96,218596
1.7644,0.3519,38.6800,66,96,218599
1.7449,0.4252,38.6500,66,96,218603
1.7644,0.4497,38.6200,66,96,218606
1.7546,0.4057,38.6500,66,96,218609
1.7644,0.3372,38.4900,66,96,218613
1.7937,0.3030,38.6500,66,96,218616
1.7840,0.3568,38.6800,66,96,218619
1.8133,0.4448,38.5200,66,96,218624
1.7986,0.4448,38.6500,66,96,218627
1.8133,0.4057,38.7100,66,96,218630
1.8475,0.3324,38.5500,66,96,218634
1.8231,0.3030,38.6800,66,96,218637
1.8524,0.3763,38.5200,66,96,218640
1.8524,0.4301,38.6500,66,96,218643
1.8524,0.4545,38.4300,66,96,218647
1.8719,0.4008,38.5800,66,96,218650
1.8671,0.3177,38.6500,66,96,218653
1.9110,0.3128,38.6200,66,96,218657
1.8915,0.3715,38.6200,66,96,218660
1.8964,0.4594,38.3600,66,96,218663
1.9208,0.4497,38.5500,66,96,218668
1.9159,0.3861,38.6500,66,96,218671
1.9795,0.3177,38.6800,66,96,218674
1.9453,0.3128,38.6500,66,96,218678
1.9550,0.4057,38.4900,66,96,218681
2.0039,0.4350,38.5800,66,96,218684
1.9795,0.4350,38.5500,66,96,218687
2.0479,0.3812,38.6200,66,96,218691
2.0186,0.3128,38.6500,66,96,218694
2.0186,0.3275,38.4900,66,96,218697
2.0283,0.4154,38.5800,66,96,218701
2.0381,0.4252,38.5200,66,96,218704
2.0968,0.4301,38.6800,66,96,218707
2.0674,0.3666,38.6500,66,96,218712
2.0821,0.3177,38.5800,66,96,218715
2.0723,0.3226,38.7100,66,96,218718
2.0870,0.4057,38.5200,66,96,218722
2.1261,0.4399,38.6500,66,96,218725
2.1065,0.4252,38.6800,66,96,218728
2.1359,0.3666,38.5200,66,96,218731
2.1114,0.3128,38.6500,66,96,218735
2.1114,0.3324,38.4600,66,96,218738
2.1310,0.4057,38.6500,66,96,218741
2.1163,0.4448,38.6800,66,96,218745
2.1359,0.4399,38.5800,66,96,218748
2.1261,0.3519,38.6500,66,96,218752
2.0870,0.3079,38.3300,66,96,218756
2.1017,0.3421,38.5500,66,96,218759
2.0577,0.4154,38.6800,66,96,218762
2.0674,0.4545,38.6200,66,96,218766
2.0186,0.4154,38.6500,66,96,218769
1.9844,0.3617,38.3600,66,96,218772
1.9746,0.2884,38.4900,66,96,218775
1.9306,0.3421,38.6800,66,96,218779
1.9795,0.4203,38.6800,66,96,218782
1.8915,0.4252,38.6800,66,96,218785
1.8573,0.4252,38.4900,66,96,218789
1.8475,0.3372,38.5800,66,96,218792
1.8084,0.3030,38.5200,66,96,218796
1.8328,0.3568,38.6500,66,96,218800
1.7742,0.4448,38.6800,66,96,218803
1.7498,0.4252,38.5800,66,96,218806
1.7400,0.4057,37.8000,66,96,218810
1.7204,0.3372,38.6200,66,96,218813
1.7644,0.3030,38.6800,66,96,218816
1.7253,0.3568,38.6500,66,96,218819
1.7155,0.4350,38.5200,66,96,218823
1.7107,0.4448,38.6800,66,96,218826
1.7058,0.4057,38.4900,66,96,218829
1.7351,0.3275,38.5800,66,96,218833
1.7107,0.3030,38.6500,66,96,218836
1.7302,0.3715,38.5500,66,96,218840
1.7107,0.4252,38.6200,66,96,218844
1.7204,0.4497,38.4600,66,96,218847
1.7449,0.4008,38.5800,66,96,218850
1.7302,0.3226,38.6500,66,96,218854
1.7546,0.3079,38.6500,66,96,218857
1.7351,0.3666,38.6800,66,96,218860
1.7449,0.4252,38.3600,66,96,218863
1.7546,0.4399,38.5800,66,96,218867
1.7546,0.3910,38.6500,66,96,218870
1.7840,0.3177,38.6200,66,96,218873
1.7644,0.3079,38.6800,66,96,218877
1.7693,0.4057,38.4000,66,96,218881
1.7937,0.4448,38.5800,66,96,218884
1.7693,0.4350,38.5800,66,96,218888
1.8084,0.3812,38.6500,66,96,218891
1.7889,0.3177,38.6500,66,96,218894
1.7742,0.3226,38.4600,66,96,218897
1.7889,0.3861,38.6800,66,96,218901
1.7889,0.4448,38.5500,66,96,218904
1.8328,0.4350,38.6500,66,96,218907
1.8133,0.3763,38.6800,66,96,218911
1.7889,0.3128,38.4900,66,96,218914
1.7986,0.3079,38.7700,66,96,218917
1.7937,0.4252,38.5500,66,96,218921
1.8475,0.4448,38.6500,66,96,218925
1.8084,0.4252,38.6500,66,96,218928
1.8084,0.3666,38.5500,66,96,218932
1.8035,0.3030,38.7100,66,96,218935
1.7889,0.3275,38.5500,66,96,218938
1.7937,0.4057,38.6500,66,96,218941
1.8328,0.4448,38.6800,66,96,218945
1.7937,0.4497,38.5200,66,96,218948
1.8182,0.3568,38.6200,66,96,218951
1.7986,0.3128,38.4000,66,96,218955
1.7986,0.3421,38.6800,66,96,218958
1.8084,0.3861,38.6800,66,96,218961
1.7937,0.4497,38.6800,66,96,218966
1.8280,0.4057,38.6500,66,96,218969
1.7986,0.3617,38.3600,66,96,218972
1.7986,0.3030,38.5500,66,96,218976
1.8231,0.3372,38.6500,66,96,218979
1.7937,0.4203,38.6200,66,96,218982
1.8426,0.4350,38.6800,66,96,218985
1.7986,0.4252,38.4300,66,96,218989
1.7937,0.3568,38.5500,66,96,218992
1.8084,0.2981,38.5500,66,96,218995
1.7986,0.3519,38.6200,66,96,218999
1.8475,0.4252,38.6800,66,96,219002
1.8475,0.4545,38.5200,66,96,219005
1.8035,0.4106,38.6200,66,96,219010
1.8377,0.3421,38.5500,66,96,219013
1.8035,0.3030,38.6500,66,96,219016
1.8524,0.3568,38.6500,66,96,219020
1.8133,0.4350,38.5500,66,96,219023
1.8231,0.4497,38.6200,66,96,219026
1.8182,0.4057,38.5500,66,96,219029
1.8084,0.3275,38.6200,66,96,219033
1.8328,0.3030,38.6500,66,96,219036
1.8182,0.3666,38.5200,66,96,219039
1.8377,0.4301,38.5800,66,96,219043
1.8133,0.4545,38.5500,66,96,219046
1.8182,0.3959,38.5800,66,96,219049
1.8280,0.3226,38.6500,66,96,219054
1.8182,0.3128,38.5500,66,96,219057
1.8475,0.3715,38.7100,66,96,219060
1.8231,0.4692,38.3600,66,96,219064
1.8280,0.4350,38.6200,66,96,219067
1.8622,0.3910,38.6200,66,96,219070
1.8377,0.3226,38.6200,66,96,219073
1.8719,0.3812,38.6500,66,96,219078
1.8622,0.3079,38.7100,66,96,219081
1.8622,0.3275,38.5200,66,96,219085
1.8866,0.3959,38.6800,66,96,219088
1.8817,0.4448,38.5500,66,96,219091
1.9404,0.4301,38.6500,66,96,219096
1.9159,0.3715,38.6500,66,96,219099
1.9208,0.3079,38.5200,66,96,219102
1.9697,0.3226,38.6500,66,96,219106
1.9355,0.4106,38.5200,66,96,219109
2.0088,0.4448,38.5200,66,96,219112
2.0137,0.4643,38.6500,66,96,219115
1.9795,0.3715,38.5500,66,96,219119
1.9844,0.3030,38.7100,66,96,219122
1.9648,0.3324,38.4900,66,96,219125
1.9990,0.4057,38.6500,66,96,219129
1.9306,0.4448,38.6800,66,96,219132
1.9062,0.4301,38.6200,66,96,219136
1.8768,0.3568,38.7100,66,96,219140
1.8622,0.3128,38.4000,66,96,219143
1.8817,0.3470,38.5500,66,96,219146
1.8475,0.4154,38.6500,66,96,219150
1.8622,0.4497,38.5800,66,96,219153
1.8328,0.4154,38.6800,66,96,219156
1.8280,0.3617,38.3300,66,96,219159
1.8475,0.3030,38.5200,66,96,219163
1.8084,0.3421,38.6800,66,96,219166
1.8231,0.4203,38.6800,66,96,219169
1.7791,0.4448,38.6500,66,96,219173
1.7742,0.4252,38.4300,66,96,219176
1.7840,0.3421,38.6200,66,96,219180
1.7693,0.3030,38.5500,66,96,219184
1.7986,0.3519,38.6500,66,96,219187
1.7742,0.4252,38.6500,66,96,219190
1.8084,0.4497,38.5800,66,96,219194
1.7986,0.4057,38.6500,66,96,219197
1.7840,0.3324,38.4900,66,96,219200
1.8280,0.3030,38.5500,66,96,219203
1.8084,0.3568,38.6500,66,96,219207
1.7889,0.4252,38.5500,66,96,219210
1.8035,0.4448,38.6500,66,96,219213
1.7937,0.4008,38.4900,66,96,219217
1.8426,0.3324,38.6200,66,96,219220
1.8035,0.3030,38.6500,66,96,219224
1.8035,0.3812,38.5200,66,96,219228
1.8231,0.4301,38.6800,66,96,219231
1.8084,0.4497,38.4600,66,96,219234
1.8426,0.4008,38.5500,66,96,219238
1.7693,0.3177,38.6500,66,96,219241
1.7351,0.3128,38.5500,66,96,219244
1.7204,0.3715,38.7400,66,96,219247
1.7498,0.4497,38.4000,66,96,219251
1.8719,0.4399,38.6200,66,96,219254
1.9892,0.3910,38.6500,66,96,219257
2.2190,0.3226,38.6500,66,96,219261
2.4976,0.3128,38.6500,66,96,219265
2.8397,0.3959,38.3300,66,96,219268
3.2502,0.4399,38.5500,66,96,219272
3.4848,0.4350,38.5800,66,96,219275
3.6119,0.4008,38.6200,66,96,219278
3.3969,0.3128,38.6500,66,96,219281
3.0499,0.3275,38.4300,66,96,219285
2.6393,0.3910,38.6500,66,96,219288
2.1945,0.4350,38.5500,66,96,219291
1.8573,0.4350,38.6200,66,96,219295
1.5494,0.3763,38.6800,66,96,219298
1.3685,0.3177,38.4900,66,96,219301
1.2757,0.3226,38.6500,66,96,219305
1.2121,0.4106,38.5200,66,96,219309
1.2366,0.4497,38.6500,66,96,219312
1.2561,0.4252,38.6500,66,96,219316
1.3196,0.3666,38.5500,66,96,219319
1.3978,0.3030,38.6500,66,96,219322
1.4565,0.3275,38.5500,66,96,219325
1.5396,0.4008,38.6500,66,96,219329
1.5787,0.4448,38.6800,66,96,219332
1.6080,0.4301,38.5500,66,96,219335
1.6422,0.3617,38.6200,66,96,219339
1.6569,0.3079,38.5200,66,96,219342
1.7351,0.3372,38.5500,66,96,219345
1.6960,0.4106,38.6500,66,96,219350
1.7009,0.4545,38.5500,66,96,219353
1.7155,0.4203,38.6800,66,96,219356
1.7204,0.3617,38.4000,66,96,219359
1.7791,0.3030,38.6200,66,96,219363
1.7449,0.3372,38.6800,66,96,219366
1.7644,0.4203,38.6200,66,96,219369
1.7595,0.4448,38.7400,66,96,219373
1.7644,0.4350,38.4000,66,96,219376
1.8035,0.3470,38.5500,66,96,219379
1.7840,0.2981,38.5800,66,96,219383
1.8035,0.3470,38.6500,66,96,219386
1.7840,0.4154,38.6800,66,96,219389
1.7986,0.4594,38.5200,66,96,219394
1.8426,0.4154,38.5800,66,96,219397
1.8182,0.3372,38.5200,66,96,219400
1.8524,0.3030,38.6500,66,96,219403
1.8280,0.3519,38.6800,66,96,219407
1.8328,0.4350,38.4900,66,96,219410
1.8622,0.4448,38.6500,66,96,219413
1.8475,0.4106,38.5200,66,96,219417
1.9013,0.3324,38.7700,66,96,219420
1.8671,0.3177,38.6500,66,96,219423
1.8768,0.3666,38.5500,66,96,219427
1.8964,0.4252,38.6200,66,96,219430
1.8866,0.4545,38.5200,66,96,219433
1.9355,0.3959,38.6500,66,96,219437
1.9355,0.3079,38.7100,66,96,219441
1.9208,0.3079,38.5500,66,96,219444
1.9453,0.3568,38.6800,66,96,219447
1.9355,0.4350,38.4600,66,96,219451
1.9941,0.4399,38.6500,66,96,219454
1.9697,0.3959,38.6500,66,96,219457
1.9648,0.3324,38.4600,66,96,219461
1.9844,0.3079,38.6800,66,96,219464
1.9892,0.3861,38.4000,66,96,219467
2.0577,0.4399,38.5200,66,96,219470
2.0235,0.4643,38.6800,66,96,219474
2.0235,0.3959,38.6200,66,96,219478
2.0381,0.3177,38.8400,66,96,219481
2.0626,0.3324,38.4300,66,96,219485
2.1114,0.3861,38.5800,66,96,219488
2.0821,0.4252,38.6200,66,96,219491
2.0968,0.4399,38.6200,66,96,219495
2.1017,0.3812,38.7100,66,96,219498
2.1065,0.3324,38.4900,66,96,219501
2.1408,0.3177,38.6200,66,96,219505
2.1310,0.3910,38.5800,66,96,219508
2.1505,0.4448,38.6200,66,96,219511
2.1261,0.4301,38.6500,66,96,219514
2.1310,0.3861,38.5800,66,96,219518
2.1652,0.3177,38.6800,66,96,219522
2.1310,0.3226,38.4900,66,96,219525
2.1652,0.4057,38.6500,66,96,219529
2.1212,0.4448,38.6800,66,96,219532
2.1163,0.4399,38.5500,66,96,219535
2.1261,0.3763,38.6500,66,96,219539
2.0968,0.2981,38.5200,66,96,219542
2.1114,0.3226,38.6500,66,96,219545
2.0137,0.4008,38.7700,66,96,219548
1.9404,0.4545,38.5500,66,96,219552
1.9159,0.4252,38.6500,66,96,219555
1.8964,0.3666,38.4600,66,96,219558
1.8622,0.2981,38.5500,66,96,219563
1.8915,0.3275,38.6500,66,96,219566
1.8280,0.4203,38.5500,66,96,219569
1.7986,0.4399,38.6500,66,96,219573
1.7693,0.4252,38.4000,66,96,219576
1.7595,0.3617,38.5500,66,96,219579
1.7742,0.2884,38.6800,66,96,219583
1.7644,0.3470,38.6200,66,96,219586
1.7449,0.4057,38.6500,66,96,219589
1.7155,0.4643,38.4300,66,96,219592
1.7155,0.4203,38.5800,66,96,219596
1.7351,0.3372,38.6200,66,96,219599
1.7155,0.3030,38.6200,66,96,219602
1.7400,0.3470,38.6500,66,96,219607
1.7155,0.4350,38.4600,66,96,219610
1.7155,0.4497,38.6200,66,96,219613
1.7302,0.4301,38.5500,66,96,219617
1.7253,0.3421,38.6500,66,96,219620
1.7498,0.3030,38.6800,66,96,219623
1.7302,0.3617,38.3600,66,96,219626
1.7351,0.4301,38.6500,66,96,219630
1.7595,0.4497,38.4900,66,96,219633
1.7351,0.4057,38.6500,66,96,219636
1.7791,0.3275,38.6500,66,96,219640
1.7644,0.3030,38.5800,66,96,219643
1.7546,0.3617,38.7700,66,96,219646
1.7840,0.4301,38.5200,66,96,219651
1.7742,0.4399,38.8100,66,96,219654
1.8084,0.4399,38.6500,66,96,219657
1.7693,0.3372,38.5500,66,96,219661
1.8035,0.3030,38.6500,66,96,219664
1.7742,0.3763,38.4900,66,96,219667
1.7693,0.4350,38.5500,66,96,219670
1.8524,0.4399,38.6200,66,96,219674
1.7889,0.4008,38.5800,66,96,219677
1.7889,0.3226,38.6500,66,96,219680
1.7937,0.3079,38.4000,66,96,219684
1.7889,0.3275,38.5500,66,96,219688
1.8231,0.3177,38.6200,66,96,219693
1.8035,0.3910,38.5200,66,96,219696
1.8084,0.4399,38.7100,66,96,219699
1.8035,0.4301,38.6800,66,96,219703
1.7889,0.3910,38.5500,66,96,219706
1.8182,0.3079,38.7100,66,96,219709
1.7889,0.3275,38.4600,66,96,219713
1.8133,0.3861,38.6800,66,96,219716
1.7840,0.4399,38.6800,66,96,219719
1.7937,0.4448,38.4900,66,96,219722
1.8035,0.3666,38.7100,66,96,219726
1.7889,0.3128,38.5200,66,96,219729
1.8280,0.3324,38.5800,66,96,219732
1.7889,0.4008,38.6500,66,96,219737
1.7889,0.4497,38.4600,66,96,219740
1.8084,0.4350,38.6800,66,96,219743
1.7889,0.3666,38.4600,66,96,219747
1.8231,0.3030,38.8100,66,96,219750
1.7937,0.3324,38.6800,66,96,219753
1.7986,0.4203,38.5800,66,96,219756
1.8084,0.4448,38.6800,66,96,219760
1.7889,0.4301,38.4000,66,96,219763
1.8377,0.3519,38.6800,66,96,219766
1.8084,0.2981,38.6500,66,96,219770
1.7937,0.3470,38.6200,66,96,219773
1.7937,0.4154,38.6800,66,96,219777
1.7937,0.4643,38.4900,66,96,219781
1.8524,0.4203,38.5500,66,96,219784
1.8035,0.3372,38.6200,66,96,219787
1.7986,0.3275,38.6500,66,96,219791
1.8035,0.3519,38.6800,66,96,219794
1.7937,0.4350,38.4900,66,96,219797
1.8426,0.4448,38.6200,66,96,219800
1.8084,0.4106,38.5200,66,96,219804
1.8133,0.3372,38.6500,66,96,219807
1.8035,0.3030,38.6500,66,96,219810
1.8035,0.3617,38.4900,66,96,219814
1.8328,0.4301,38.6800,66,96,219817
1.8133,0.4497,38.5200,66,96,219821
1.8622,0.4057,38.6800,66,96,219825
1.8133,0.3324,38.6800,66,96,219828
1.8133,0.3030,38.5500,66,96,219831
1.8475,0.3617,38.6500,66,96,219835
1.8133,0.4399,38.4900,66,96,219838
1.8426,0.4448,38.6800,66,96,219841
1.8133,0.3959,38.6800,66,96,219844
1.8182,0.3324,38.5500,66,96,219848
1.8377,0.3275,38.6500,66,96,219851
1.8231,0.3763,38.4300,66,96,219854
1.8573,0.4399,38.4900,66,96,219858
1.8426,0.4399,38.6800,66,96,219862
1.8426,0.4008,38.5800,66,96,219865
1.8671,0.3226,38.6500,66,96,219869
1.8622,0.3128,38.3600,66,96,219872
1.9159,0.3812,38.6200,66,96,219875
1.8719,0.4301,38.6500,66,96,219879
1.8915,0.4350,38.6200,66,96,219882
1.9208,0.3861,38.6800,66,96,219885
1.9159,0.3372,38.5200,66,96,219888
1.9795,0.3177,38.5800,66,96,219892
1.9453,0.3812,38.5800,66,96,219895
1.9648,0.4448,38.6200,66,96,219898
1.9648,0.4350,38.6800,66,96,219902
1.9746,0.3910,38.6500,66,96,219906
2.0381,0.3030,38.5800,66,96,219909
1.9892,0.3324,38.5500,66,96,219913
1.9697,0.3910,38.6500,66,96,219916
1.9404,0.4448,38.6500,66,96,219919
1.9110,0.4399,38.4900,66,96,219923
1.9257,0.3812,38.6200,66,96,219926
1.8817,0.3128,38.5200,66,96,219929
1.8817,0.3177,38.6500,66,96,219932
1.8573,0.3959,38.6500,66,96,219936
1.8524,0.4497,38.5200,66,96,219939
1.8622,0.4252,38.7400,66,96,219942
1.8475,0.3715,38.4600,66,96,219947
1.8622,0.3030,38.5500,66,96,219950
1.8182,0.3324,38.6200,66,96,219953
1.7937,0.4057,38.5500,66,96,219957
1.8133,0.4448,38.6800,66,96,219960
1.7742,0.4301,38.8100,66,96,219963
1.7889,0.3519,38.6200,66,96,219966
1.7693,0.2981,38.6500,66,96,219970
1.7742,0.3421,38.5500,66,96,219973
1.7791,0.4154,38.6800,66,96,219976
1.7693,0.4594,38.3600,66,96,219980
1.8084,0.4203,38.5500,66,96,219983
1.7840,0.3421,38.6800,66,96,219986
1.7791,0.3030,38.6800,66,96,219991
1.7986,0.3372,38.6800,66,96,219994
1.7840,0.4399,38.4600,66,96,219997
1.8328,0.4497,38.5800,66,96,220001
1.7937,0.4057,38.5500,66,96,220004
1.7937,0.3421,38.7400,66,96,220007
1.7986,0.3030,38.6500,66,96,220010
1.7986,0.3617,38.4900,66,96,220014
1.8524,0.4252,38.6200,66,96,220017
1.8182,0.4497,38.5500,66,96,220020
1.8035,0.4057,38.7100,66,96,220024
1.7742,0.3324,38.6500,66,96,220027
1.7400,0.2884,38.6200,66,96,220030
1.7498,0.3617,38.6800,66,96,220035
1.7155,0.4350,38.5500,66,96,220038
1.7693,0.4497,38.6500,66,96,220041
1.8426,0.3861,38.6500,66,96,220045
1.9941,0.3372,38.4600,66,96,220048
2.2874,0.3030,38.6800,66,96,220051
2.5318,0.3715,38.4600,66,96,220054
2.9081,0.4301,38.5500,66,96,220058
3.2063,0.4497,38.6500,66,96,220061
3.4555,0.4057,38.6200,66,96,220064
3.5044,0.3226,38.6200,66,96,220068
3.2747,0.3177,38.4300,66,96,220071
2.9472,0.3715,38.6800,66,96,220075
2.4780,0.4301,38.6500,66,96,220079
2.0821,0.4252,38.6200,66,96,220082
1.7742,0.3861,38.9000,66,96,220085
1.4956,0.3372,38.3600,66,96,220089
1.3783,0.3128,38.5200,66,96,220092
1.2610,0.3959,38.5800,66,96,220095
1.2268,0.4399,38.6200,66,96,220098
1.2463,0.4350,38.9000,66,96,220102
1.2757,0.4057,38.4900,66,96,220105
1.3734,0.3177,38.6200,66,96,220108
1.4174,0.3128,38.5500,66,96,220112
1.4761,0.3959,38.6500,66,96,220115
1.5640,0.4399,38.6500,66,96,220119
1.5738,0.4448,38.4600,66,96,220123
1.6520,0.3763,38.6200,66,96,220126
1.6471,0.3079,38.6200,66,96,220129
1.6618,0.3226,38.8400,66,96,220132
1.6862,0.3959,38.6800,66,96,220136
1.6911,0.4497,38.5500,66,96,220139
1.7449,0.4252,38.6500,66,96,220142
1.7204,0.3666,38.5200,66,96,220146
1.7400,0.3030,38.6500,66,96,220149
1.7400,0.3275,38.5800,66,96,220152
1.7449,0.4008,38.5800,66,96,220156
1.7840,0.4448,38.6500,66,96,220160
1.8328,0.4301,37.9300,66,96,220163
1.7937,0.3568,38.6500,66,96,220167
1.8328,0.2981,38.6800,66,96,220170
1.8231,0.3421,38.5800,66,96,220173
1.8182,0.4154,38.6800,66,96,220176
1.8426,0.4594,38.4000,66,96,220180
1.8475,0.4252,38.5800,66,96,220183
1.8768,0.3519,38.6800,66,96,220186
1.8377,0.3177,38.6500,66,96,220190
1.8524,0.3372,38.6500,66,96,220193
1.8622,0.4252,38.4300,66,96,220196
1.8573,0.4448,38.5800,66,96,220200
1.9208,0.4057,38.5800,66,96,220204
1.8866,0.3470,38.6500,66,96,220207
1.8817,0.3030,38.6500,66,96,220210
1.8964,0.3666,38.4600,66,96,220214
1.8964,0.4301,38.6200,66,96,220217
1.9599,0.4448,38.5500,66,96,220220
1.9257,0.4106,38.6200,66,96,220224
1.9355,0.3324,38.6500,66,96,220227
1.9404,0.3079,38.5800,66,96,220230
1.9355,0.3568,38.6800,66,96,220234
1.9795,0.4301,38.4600,66,96,220237
1.9648,0.4399,38.6500,66,96,220240
1.9941,0.4057,38.6500,66,96,220244
1.9844,0.3324,38.5200,66,96,220248
1.9990,0.3030,38.6500,66,96,220251
2.0235,0.3617,38.5200,66,96,220254
2.0235,0.4301,38.6200,66,96,220258
2.0674,0.4399,38.6800,66,96,220261
2.0430,0.4008,38.5200,66,96,220264
2.0626,0.3372,38.6500,66,96,220268
2.0919,0.3128,38.4300,66,96,220271
2.0821,0.3715,38.5800,66,96,220274
2.1212,0.4301,38.6500,66,96,220278
2.0919,0.4497,38.5800,66,96,220281
2.0870,0.3959,38.6500,66,96,220284
2.1065,0.3226,38.4000,66,96,220288
2.1017,0.3030,38.6200,66,96,220292
2.1408,0.3715,38.7700,66,96,220295
2.1114,0.4399,38.6200,66,96,220298
2.1114,0.3910,38.6800,66,96,220303
2.1310,0.4252,38.6500,66,96,220306
2.1017,0.4448,38.4900,66,96,220310
2.1457,0.4057,38.5800,66,96,220313
2.0919,0.3226,38.5500,66,96,220316
2.0723,0.3226,38.6800,66,96,220320
2.0674,0.3910,38.6500,66,96,220323
2.0381,0.4448,38.5500,66,96,220326
2.0723,0.4301,38.6800,66,96,220331
2.0088,0.3812,38.5800,66,96,220334
1.9892,0.3079,38.6500,66,96,220337
1.9453,0.3226,38.6800,66,96,220340
1.9208,0.4057,38.6200,66,96,220344
1.9453,0.4497,38.6500,66,96,220347
1.8768,0.4301,38.4600,66,96,220350
1.8573,0.3617,38.6500,66,96,220354
1.8231,0.2933,38.6800,66,96,220357
1.8035,0.3421,38.5800,66,96,220360
1.8035,0.4106,38.6200,66,96,220364
1.7644,0.4545,38.4300,66,96,220367
1.7595,0.4301,38.5500,66,96,220370
1.7253,0.3519,38.7400,66,96,220374
1.7155,0.2884,38.5800,66,96,220378
1.7351,0.3372,38.6800,66,96,220381
1.7107,0.4350,38.4000,66,96,220384
1.7302,0.4497,38.5500,66,96,220388
1.6960,0.4106,38.6500,66,96,220391
1.7009,0.3861,38.6200,66,96,220394
1.7302,0.2884,38.6500,66,96,220398
1.7107,0.3666,38.4900,66,96,220401
1.7302,0.4301,38.6200,66,96,220404
1.7155,0.4448,38.5800,66,96,220408
1.7155,0.4106,37.9000,66,96,220411
1.7302,0.3372,38.6500,66,96,220414
1.7204,0.3128,38.5500,66,96,220418
1.7742,0.3568,38.6500,66,96,220422
1.7400,0.4301,38.6200,66,96,220425
1.7400,0.4252,38.6500,66,96,220428
1.7595,0.4057,38.7400,66,96,220432
1.7546,0.3617,38.5200,66,96,220435
1.7937,0.3030,38.6500,66,96,220438
1.7693,0.3666,38.5200,66,96,220442
1.7693,0.4301,38.6200,66,96,220445
1.7791,0.4252,38.6800,66,96,220448
1.7742,0.4106,38.5200,66,96,220451
1.8328,0.3324,38.6500,66,96,220455
1.8084,0.3128,38.4600,66,96,220459
1.7889,0.3666,38.5800,66,96,220462
1.7840,0.4252,38.6800,66,96,220466
1.7889,0.4497,38.6800,66,96,220469
1.8231,0.3959,38.5800,66,96,220472
1.8280,0.3324,38.4000,66,96,220476
1.8084,0.3030,38.6200,66,96,220479
1.7889,0.3715,38.7400,66,96,220482
1.7889,0.4350,38.6200,66,96,220486
1.8133,0.4399,38.7100,66,96,220489
1.7937,0.4154,38.4000,66,96,220492
1.8182,0.3226,38.5500,66,96,220495
1.7840,0.3030,38.6200,66,96,220499
1.7889,0.3812,38.6500,66,96,220503
1.7986,0.4399,38.6500,66,96,220506
1.7840,0.4545,38.4600,66,96,220510
1.8035,0.4106,38.6200,66,96,220513
1.7840,0.3128,38.5500,66,96,220516
1.7840,0.3079,38.6800,66,96,220520
1.8377,0.3861,38.6500,66,96,220523
1.7889,0.4497,38.5500,66,96,220526
1.8377,0.4350,38.8400,66,96,220529
1.8035,0.3812,38.4900,66,96,220533
1.7840,0.3079,38.6500,66,96,220536
1.7937,0.3177,38.6200,66,96,220539
1.7791,0.3959,38.5800,66,96,220544
1.8328,0.4448,38.5200,66,96,220547
1.7889,0.4448,38.4900,66,96,220550
1.7840,0.3666,38.6500,66,96,220554
1.8231,0.3030,38.5800,66,96,220557
1.7742,0.3324,38.5200,66,96,220560
1.8328,0.4057,38.6800,66,96,220564
1.7986,0.4545,38.4600,66,96,220567
1.7889,0.4301,38.5500,66,96,220570
1.7986,0.3568,38.6800,66,96,220573
1.7840,0.3275,38.6200,66,96,220577
1.8328,0.3372,38.6500,66,96,220580
1.7986,0.4252,38.4000,66,96,220583
1.8084,0.4497,38.5800,66,96,220588
1.7937,0.4154,38.6800,66,96,220591
1.7889,0.3519,38.5800,66,96,220594
1.8280,0.2981,38.6500,66,96,220598
1.8035,0.3666,38.4300,66,96,220601
1.8328,0.4301,38.5800,66,96,220604
1.7986,0.4448,38.5800,66,96,220608
1.8035,0.4154,38.6800,66,96,220611
1.8182,0.3372,38.6500,66,96,220614
1.8035,0.3177,38.5200,66,96,220617
1.8280,0.3519,38.8100,66,96,220621
1.7986,0.4301,38.5500,66,96,220624
1.8133,0.4448,38.6500,66,96,220627
1.8133,0.3959,38.6800,66,96,220632
1.8035,0.3470,38.4600,66,96,220635
1.8328,0.3128,38.6500,66,96,220638
1.8035,0.3715,38.5200,66,96,220642
1.8035,0.4252,37.8300,66,96,220645
1.8231,0.4399,38.6800,66,96,220648
1.8035,0.4057,38.5500,66,96,220652
1.8475,0.3275,38.6500,66,96,220655
1.8231,0.3128,38.4900,66,96,220658
1.8084,0.3617,38.6200,66,96,220661
1.8231,0.4350,38.6800,66,96,220665
1.8182,0.4252,38.5500,66,96,220668
1.8768,0.3959,38.5500,66,96,220672
1.8377,0.3324,38.4000,66,96,220676
1.8377,0.2981,38.6200,66,96,220679
1.8524,0.3715,38.6500,66,96,220682
1.8719,0.4399,38.6200,66,96,220686
1.9159,0.4399,38.6500,66,96,220689
1.8866,0.4057,38.3600,66,96,220692
1.8915,0.3226,38.5500,66,96,220696
1.8964,0.3226,38.5800,66,96,220699
1.9062,0.3812,38.6500,66,96,220702
1.9550,0.4350,38.7100,66,96,220706
1.9746,0.4497,38.4600,66,96,220709
1.9795,0.3861,38.8100,66,96,220712
1.9697,0.3128,38.5800,66,96,220716
1.9697,0.3128,38.6800,66,96,220720
1.9892,0.3861,38.5500,66,96,220723
1.9355,0.4448,38.5500,66,96,220726
1.9404,0.4350,38.6500,66,96,220730
1.8866,0.3812,38.5200,66,96,220733
1.8671,0.3030,38.6800,66,96,220736
1.8622,0.3177,38.6800,66,96,220740
1.8377,0.3910,38.5500,66,96,220743
1.8573,0.4399,38.6800,66,96,220746
1.8280,0.4301,38.5200,66,96,220750
1.8231,0.3715,38.6500,66,96,220753
1.8328,0.3030,38.7100,66,96,220756
1.8035,0.3421,38.5500,66,96,220760
1.8280,0.4057,38.6500,66,96,220764
1.7742,0.4545,38.4900,66,96,220767
1.7693,0.4301,38.5500,66,96,220770
1.7742,0.3568,38.6800,66,96,220774
1.7498,0.3030,38.5800,66,96,220777
1.7595,0.3421,38.6800,66,96,220780
1.7986,0.4252,38.4300,66,96,220784
1.7889,0.4448,38.6200,66,96,220787
1.7840,0.4154,38.6800,66,96,220790
1.7742,0.3519,38.6200,66,96,220794
1.7840,0.3079,38.6500,66,96,220797
1.8231,0.3666,38.4300,66,96,220801
1.7986,0.4301,38.5500,66,96,220804
1.8182,0.4448,38.5800,66,96,220808
1.7986,0.4154,38.7100,66,96,220811
1.7986,0.3324,38.6800,66,96,220814
1.7986,0.3177,38.5500,66,96,220818
1.7595,0.3519,38.6500,66,96,220821
1.7449,0.4497,38.5200,66,96,220824
1.6911,0.4448,38.7100,66,96,220828
1.6813,0.4057,38.6500,66,96,220831
1.7253,0.3470,38.4900,66,96,220834
1.7889,0.3030,38.5200,66,96,220838
1.9795,0.3666,38.5500,66,96,220841
2.1896,0.4203,38.6500,66,96,220845
2.4780,0.4399,38.6800,66,96,220848
2.8543,0.4057,38.5500,66,96,220852
3.1867,0.3324,38.6800,66,96,220855
3.5484,0.3030,38.5200,66,96,220858
3.5435,0.3617,38.6500,66,96,220862
3.3529,0.4301,38.7100,66,96,220865
3.0010,0.4497,38.5200,66,96,220868
2.5562,0.3959,38.6500,66,96,220872
2.2092,0.3324,38.4300,66,96,220875
1.8035,0.2981,38.6200,66,96,220878
1.5249,0.3715,38.6500,66,96,220881
1.3539,0.4399,38.6500,66,96,220886
1.2463,0.4350,38.6500,66,96,220889
1.2414,0.4057,38.3600,66,96,220892
1.2121,0.3079,38.6500,66,96,220896
1.2659,0.3030,38.6500,66,96,220899
1.2952,0.3812,38.6200,66,96,220902
1.3587,0.4350,37.8700,66,96,220906
1.4516,0.4594,38.4300,67,96,220909
1.4858,0.4497,38.5500,67,96,220913
1.5543,0.4301,38.6500,67,96,220916
1.5591,0.3812,38.5200,67,96,220919
1.6031,0.3079,38.6500,67,96,220923
1.6471,0.3226,38.7100,67,96,220926
1.6471,0.4008,38.5800,67,96,220930
1.6862,0.4448,38.6500,67,96,220933
1.6716,0.4301,38.5200,67,96,220937
1.6813,0.3666,38.6800,67,96,220940
1.7009,0.3030,38.6800,67,96,220943
1.7058,0.3372,38.5500,67,96,220947
1.7400,0.3861,38.6800,67,96,220950
1.7204,0.4545,38.5500,67,96,220953
1.7400,0.4301,38.5500,67,96,220957
1.7595,0.3568,38.6500,67,96,220960
1.7449,0.3470,38.6200,67,96,220963
1.8280,0.3372,38.6800,67,96,220967
1.7742,0.4301,38.4000,67,96,220971
1.7693,0.4448,38.5500,67,96,220974
1.7840,0.4203,38.6800,67,96,220977
1.7742,0.3470,38.6500,67,96,220981
1.8426,0.3030,38.6800,67,96,220984
1.8035,0.3617,38.4000,67,96,220987
1.8035,0.4252,38.5800,67,96,220991
1.8133,0.4448,38.5800,67,96,220994
1.8133,0.4154,38.2100,67,96,220997
1.8768,0.3372,38.6500,67,96,221001
1.8622,0.3079,38.5500,67,96,221004
1.8475,0.3519,38.6500,67,96,221007
1.8475,0.4154,38.5800,67,96,221010
1.8524,0.4448,38.6800,67,96,221015
1.8964,0.4106,38.6500,67,96,221018
1.8719,0.3470,38.4600,67,96,221021
1.8915,0.3030,38.8400,67,96,221025
1.8817,0.3617,38.5200,67,96,221028
1.8915,0.4252,38.5200,67,96,221031
1.9355,0.4399,38.7400,67,96,221035
1.9159,0.4106,38.5500,67,96,221038
1.9501,0.3324,38.6800,67,96,221041
1.9355,0.3030,38.5200,67,96,221044
1.9453,0.3617,38.7100,67,96,221048
1.9990,0.4203,38.6500,67,96,221051
1.9746,0.4448,38.5200,67,96,221054
2.0088,0.4008,38.6800,67,96,221059
1.9941,0.3324,38.4300,67,96,221062
2.0088,0.3030,38.6800,67,96,221065
2.0381,0.3666,38.7100,67,96,221069
2.0332,0.4399,38.6200,67,96,221072
2.0772,0.4399,38.4900,67,96,221075
2.0528,0.4008,38.3600,67,96,221079
2.0674,0.3275,38.5800,67,96,221082
2.0919,0.3079,38.6800,67,96,221085
2.1017,0.3861,38.6500,67,96,221088
2.1603,0.4350,38.6800,67,96,221092
2.1163,0.4643,38.4600,67,96,221095
2.1017,0.4008,38.5800,67,96,221099
2.1163,0.3177,38.6200,67,96,221103
2.1065,0.3128,38.6500,67,96,221106
2.1652,0.3812,38.9000,67,96,221109
2.1212,0.4545,38.4900,67,96,221113
2.1017,0.4399,38.6200,67,96,221116
2.0968,0.3812,38.4900,67,96,221119
2.0821,0.3128,38.6800,67,96,221122
2.1163,0.3177,38.6800,67,96,221126
2.0528,0.4252,38.6200,67,96,221129
2.0332,0.4448,38.6500,67,96,221132
1.9990,0.4399,38.5800,67,96,221136
1.9746,0.3763,38.6800,67,96,221139
1.9844,0.3079,38.6800,67,96,221143
1.9453,0.3275,38.4900,67,96,221147
1.9257,0.3861,38.6800,67,96,221150
1.8964,0.4497,38.4900,67,96,221153
1.8524,0.4301,38.5500,67,96,221157
1.8622,0.3470,38.6500,67,96,221160
1.8035,0.3079,38.4600,67,96,221163
1.8035,0.3275,38.5500,67,96,221166
1.7546,0.4203,38.4000,67,96,221170
1.7351,0.4448,38.6500,67,96,221173
1.7351,0.4203,38.6800,67,96,221176
1.7058,0.3568,38.6200,67,96,221180
1.7155,0.3030,38.6500,67,96,221184
1.6862,0.3470,38.4600,67,96,221187
1.6764,0.4154,38.5500,67,96,221191
1.6862,0.4399,38.6500,67,96,221194
1.6716,0.4203,38.6200,67,96,221197
1.7058,0.3470,38.6500,67,96,221201
1.6667,0.3226,38.4300,67,96,221204
1.6764,0.3617,38.5800,67,96,221207
1.6960,0.4154,38.5800,67,96,221210
1.6813,0.4790,38.6800,67,96,221214
1.7302,0.4106,38.6500,67,96,221217
1.7058,0.3519,38.5800,67,96,221220
1.7009,0.2981,38.6500,67,96,221224
1.7107,0.3470,38.5200,67,96,221228
1.7107,0.4252,38.6800,67,96,221231
1.7791,0.4448,38.6800,67,96,221235
1.7302,0.4154,38.5800,67,96,221238
1.7351,0.3372,38.6500,67,96,221241
1.7400,0.3079,38.4600,67,96,221244
1.7351,0.3617,38.6500,67,96,221248
1.7840,0.4252,38.6800,67,96,221251
1.7546,0.4448,37.8700,67,96,221254
1.7644,0.4106,38.6800,67,96,221258
1.7546,0.3421,38.4900,67,96,221261
1.7546,0.3030,38.6500,67,96,221264
1.7742,0.3715,38.6800,67,96,221268
1.7595,0.4350,38.5500,67,96,221272
1.7840,0.4350,38.6500,67,96,221275
1.7546,0.4106,38.4300,67,96,221279
1.7693,0.3324,38.5200,67,96,221282
1.7840,0.3030,38.6800,67,96,221285
1.7595,0.3763,38.5800,67,96,221288
1.7791,0.4350,38.6500,67,96,221292
1.7644,0.4594,38.3600,67,96,221295
1.7644,0.4106,38.6200,67,96,221298
1.7840,0.3128,38.6500,67,96,221302
1.7595,0.3128,38.6500,67,96,221305
1.7937,0.3763,38.6500,67,96,221308
1.7644,0.4594,38.4600,67,96,221313
1.7546,0.4448,38.6200,67,96,221316
1.7791,0.3861,38.5800,67,96,221319
1.7595,0.3128,38.5800,67,96,221322
1.8084,0.3128,38.6800,67,96,221326
1.7595,0.3959,38.6200,67,96,221329
1.7595,0.4448,38.6200,67,96,221332
1.7644,0.4399,38.5200,67,96,221336
1.7595,0.3861,38.6800,67,96,221339
1.8084,0.3079,38.6500,67,96,221342
1.7791,0.3275,38.5200,67,96,221346
1.7595,0.4008,38.6500,67,96,221349
1.7937,0.4545,38.5500,67,96,221352
1.7644,0.4497,38.6200,67,96,221357
1.8133,0.3715,38.6500,67,96,221360
1.7693,0.3079,38.5200,67,96,221363
1.7742,0.3275,38.6800,67,96,221366
1.7595,0.4106,38.4600,67,96,221370
1.7546,0.4448,38.8700,67,96,221373
1.7889,0.4252,38.6800,67,96,221376
1.7644,0.3715,38.5800,67,96,221380
1.7840,0.3030,38.6200,67,96,221383
1.7644,0.3470,38.4000,67,96,221386
1.7644,0.4057,38.6200,67,96,221390
1.7693,0.4448,38.6500,67,96,221393
1.7986,0.4154,38.6500,67,96,221396
1.7742,0.3519,38.6200,67,96,221401
1.8133,0.3324,38.4000,67,96,221404
1.7840,0.3519,38.5500,67,96,221407
1.7742,0.4106,38.6800,67,96,221410
1.7840,0.4497,38.6800,67,96,221414
1.7742,0.4154,38.6500,67,96,221417
1.8231,0.3568,38.4600,67,96,221420
1.7791,0.2981,38.5800,67,96,221424
1.7742,0.3470,38.5500,67,96,221427
1.7791,0.4203,38.0800,67,96,221430
1.7693,0.4545,38.6200,67,96,221434
1.8377,0.4154,38.5500,67,96,221437
1.7937,0.3421,38.7100,67,96,221441
1.7889,0.3079,38.5200,67,96,221445
1.7937,0.3519,38.6800,67,96,221448
1.7889,0.4203,38.6800,67,96,221451
1.8328,0.4448,38.5800,67,96,221454
1.8035,0.4008,38.6500,67,96,221458
1.8231,0.3275,38.5500,67,96,221461
1.8182,0.3030,38.6500,67,96,221464
1.8231,0.3617,38.6800,67,96,221468
1.8573,0.4350,38.5500,67,96,221471
1.8328,0.4350,38.6500,67,96,221474
1.8719,0.3861,38.4600,67,96,221478
1.8573,0.3324,38.6500,67,96,221481
1.8622,0.2981,38.6500,67,96,221485
1.8866,0.3763,38.5800,67,96,221488
1.8671,0.4301,38.7700,67,96,221492
1.9110,0.4497,38.4000,67,96,221495
1.9013,0.3861,38.6200,67,96,221498
1.9013,0.3226,38.7400,67,96,221502
1.9257,0.3177,38.6200,67,96,221505
1.8964,0.3715,38.6800,67,96,221508
1.9110,0.4594,38.4000,67,96,221512
1.8524,0.4252,38.5500,67,96,221515
1.8426,0.3861,38.6200,67,96,221518
1.8328,0.3177,38.6500,67,96,221522
1.7986,0.4057,38.6500,67,96,221526
1.8377,0.3079,38.6500,67,96,221530
1.7986,0.3275,38.5200,67,96,221533
1.7791,0.3910,38.6500,67,96,221536
1.7840,0.4497,38.5800,67,96,221539
1.7742,0.4252,38.7400,67,96,221543
1.8182,0.3715,38.6500,67,96,221546
1.7644,0.3079,38.5500,67,96,221549
1.7449,0.3275,38.6800,67,96,221553
1.7253,0.4057,38.4600,67,96,221556
1.7107,0.4448,38.8100,67,96,221559
1.7742,0.4203,38.6500,67,96,221563
1.7107,0.3666,38.5800,67,96,221566
1.7155,0.3030,38.6500,67,96,221570
1.7009,0.3519,38.4000,67,96,221574
1.7009,0.4057,38.5800,67,96,221577
1.7253,0.4448,38.7100,67,96,221580
1.7253,0.4252,38.6500,67,96,221583
1.7449,0.3519,38.6500,67,96,221587
1.7204,0.3226,38.4000,67,96,221590
1.7253,0.3275,38.5800,67,96,221593
1.7546,0.4106,38.6800,67,96,221597
1.7302,0.4497,38.6500,67,96,221600
1.7595,0.4154,38.7400,67,96,221603
1.7449,0.3568,38.4900,67,96,221607
1.7498,0.3079,38.5800,67,96,221611
1.7644,0.3470,38.5500,67,96,221614
1.7546,0.4497,38.6500,67,96,221618
1.7595,0.4497,38.6800,67,96,221621
1.6911,0.4154,38.5800,67,96,221624
1.6569,0.3421,38.6200,67,96,221627
1.6569,0.3079,38.5200,67,96,221631
1.6764,0.3519,38.6800,67,96,221634
1.7693,0.4252,38.6500,67,96,221637
1.8719,0.4448,38.5800,67,96,221641
2.0870,0.4057,38.6500,67,96,221644
2.4096,0.3372,38.4600,67,96,221647
2.7664,0.2884,38.6800,67,96,221651
3.2356,0.3617,38.6800,67,96,221655
3.4995,0.4350,38.5500,67,96,221658
3.6119,0.4448,38.9000,67,96,221662
3.4751,0.4106,38.3600,67,96,221665
3.1281,0.3324,38.5500,67,96,221668
2.7517,0.3030,38.7700,67,96,221671
2.2581,0.3763,38.6200,67,96,221675
1.8817,0.4252,38.6500,67,96,221678
1.5640,0.4545,38.4000,67,96,221681
1.3636,0.3959,38.5500,67,96,221685
1.2463,0.3177,38.6800,67,96,221688
1.1681,0.3079,38.6500,67,96,221691
1.1975,0.3910,38.7100,67,96,221696
1.1681,0.4545,38.4300,67,96,221699
1.2268,0.4545,38.6800,67,96,221702
1.3148,0.3910,38.5800,67,96,221706
1.3636,0.3177,38.7100,67,96,221709
1.4516,0.3128,38.6800,67,96,221712
1.4858,0.3959,38.5200,67,96,221715
1.5347,0.4741,38.6200,67,96,221719
1.5885,0.4399,38.5200,67,96,221722
1.6031,0.3812,38.7100,67,96,221725
1.6422,0.3275,38.6500,67,96,221729
1.6422,0.3275,38.4900,67,96,221732
1.6471,0.3959,38.6500,67,96,221735
1.6716,0.4545,38.5500,67,96,221740
1.6716,0.4252,37.8300,67,96,221743
1.7204,0.3666,38.6500,67,96,221746
1.7009,0.3128,38.5500,67,96,221750
1.7058,0.3226,38.6500,67,96,221753
1.7253,0.4057,38.4900,67,96,221756
1.7204,0.4448,37.8300,67,96,221759
1.7742,0.4154,38.6800,67,96,221763
1.7400,0.3763,38.5500,67,96,221766
1.7449,0.3030,38.6800,67,96,221769
1.7595,0.3372,38.5800,67,96,221773
1.7595,0.4057,38.6200,67,96,221776
1.8280,0.4448,38.6800,67,96,221779
1.7937,0.4252,38.6500,67,96,221784
1.8182,0.3617,38.6500,67,96,221787
1.8035,0.3128,38.7100,67,96,221790
1.8133,0.3519,38.5500,67,96,221794
1.8573,0.4106,38.6200,67,96,221797
1.8377,0.4497,38.6800,67,96,221800
1.8622,0.4154,38.6800,67,96,221803
1.8475,0.3617,38.4600,67,96,221807
1.8573,0.3079,38.6200,67,96,221810
1.8915,0.3470,38.5500,67,96,221813
1.8768,0.4203,38.6200,67,96,221817
1.9110,0.4545,38.6500,67,96,221820
1.8866,0.4203,38.5500,67,96,221824
1.8964,0.3421,38.5200,67,96,221828
1.9159,0.3079,38.5500,67,96,221831
1.9208,0.3519,38.6800,67,96,221834
1.9550,0.4203,38.2100,67,96,221837
1.9404,0.4643,38.5800,67,96,221841
1.9550,0.4106,38.6500,67,96,221844
1.9844,0.3421,38.5800,67,96,221847
1.9844,0.2981,38.6800,67,96,221851
2.0332,0.3470,38.6500,67,96,221854
2.0186,0.4350,38.7100,67,96,221857
2.0137,0.4497,38.6800,67,96,221861
2.0381,0.4106,38.4600,67,96,221864
2.0381,0.3324,38.5500,67,96,221868
2.1065,0.2981,38.6800,67,96,221872
2.0723,0.3763,38.7700,67,96,221875
2.0772,0.4203,38.6500,67,96,221878
2.0919,0.4448,38.4300,67,96,221881
2.0968,0.3959,38.9000,67,96,221885
2.1554,0.3226,38.4900,67,96,221888
2.1163,0.3128,38.6200,67,96,221891
2.1163,0.3715,38.6800,67,96,221895
2.1163,0.4545,38.3600,67,96,221898
2.1212,0.4448,38.5500,67,96,221901
2.1652,0.3910,39.0300,67,96,221905
2.1310,0.3226,38.6500,67,96,221908
2.1408,0.3079,38.6800,67,96,221912
2.1212,0.3959,38.5200,67,96,221916
2.1114,0.4301,38.6200,67,96,221919
2.1408,0.4399,38.5500,67,96,221922
2.0968,0.3861,38.6500,67,96,221925
2.1065,0.3226,38.6500,67,96,221929
2.0577,0.3226,38.5200,67,96,221932
2.0430,0.4203,38.5800,67,96,221935
2.0430,0.4497,38.5500,67,96,221939
1.9990,0.4350,38.6500,67,96,221942
2.0039,0.3763,38.6500,67,96,221945
1.9844,0.3128,38.5800,67,96,221949
1.9257,0.3177,38.7400,67,96,221953
1.9159,0.4057,38.4900,67,96,221956
1.8817,0.4350,38.6500,67,96,221959
1.8768,0.4252,38.7700,67,96,221963
1.8328,0.3763,38.5500,67,96,221966
1.8035,0.3030,38.6800,67,96,221969
1.8133,0.3324,38.4300,67,96,221973
1.7742,0.4008,38.6500,67,96,221976
1.8035,0.4448,38.6500,67,96,221979
1.7595,0.4301,38.4900,67,96,221983
1.7351,0.3568,38.6500,67,96,221986
1.7351,0.3128,38.3600,67,96,221989
1.7155,0.3372,38.5800,67,96,221993
1.7693,0.4106,38.6800,67,96,221997
1.7546,0.4497,38.1100,67,96,222000
1.7351,0.4252,38.6800,67,96,222003
1.7595,0.3470,38.4300,67,96,222007
1.7351,0.3079,38.8100,67,96,222010
1.7400,0.3372,38.6200,67,96,222013
1.7595,0.4057,38.6800,67,96,222017
1.7595,0.4448,38.6800,67,96,222020
1.7840,0.4301,38.5200,67,96,222023
1.7644,0.3470,38.6200,67,96,222027
1.7693,0.3030,38.5500,67,96,222030
1.8328,0.3470,38.7400,67,96,222033
1.7791,0.4203,38.6800,67,96,222038
1.8084,0.4545,38.5800,67,96,222041
1.7986,0.4154,38.6500,67,96,222044
1.7986,0.3470,38.5200,67,96,222047
1.8133,0.3030,38.6500,67,96,222051
1.8182,0.3470,38.6500,67,96,222054
1.8426,0.4252,38.5500,67,96,222057
1.8133,0.4497,38.6800,67,96,222061
1.8377,0.4057,38.5200,67,96,222064
1.8280,0.3079,38.5800,67,96,222067
1.8133,0.3030,38.6500,67,96,222071
1.8622,0.3666,38.5500,67,96,222074
1.8231,0.4252,38.8100,67,96,222077
1.8231,0.4497,38.4000,67,96,222081
1.8475,0.4008,38.6500,67,96,222085
1.8280,0.3324,38.6800,67,96,222088
1.8866,0.3079,38.5200,67,96,222091
1.8475,0.3666,38.6500,67,96,222095
1.8426,0.4448,38.4000,67,96,222098
1.8377,0.4399,38.5500,67,96,222101
1.8328,0.3861,38.6500,67,96,222105
1.8719,0.3275,38.6500,67,96,222108
1.8426,0.3079,38.7100,67,96,222111
1.8524,0.3959,38.4300,67,96,222115
1.8328,0.4448,38.1800,67,96,222118
1.8328,0.4399,38.6200,67,96,222121
1.8622,0.3861,38.6500,67,96,222125
1.8377,0.3177,38.8700,67,96,222129
1.8622,0.3128,38.4600,67,96,222132
1.8328,0.3128,38.5800,67,96,222136
1.8328,0.3177,38.6500,67,96,222139
1.8475,0.3959,38.5200,67,96,222142
1.8328,0.4643,38.6500,67,96,222146
1.8622,0.4252,38.6800,67,96,222149
1.8377,0.3763,38.5800,67,96,222152
1.8328,0.3030,38.6200,67,96,222156
1.8622,0.3324,38.4900,67,96,222159
1.8426,0.4008,38.6800,67,96,222162
1.8817,0.4448,38.5200,67,96,222166
1.8573,0.4301,38.6800,67,96,222170
1.8426,0.3617,38.5500,67,96,222173
1.8573,0.3128,38.4600,67,96,222176
1.8426,0.3372,38.5500,67,96,222180
1.8915,0.4106,38.7400,67,96,222183
1.8475,0.4497,38.6200,67,96,222186
1.8426,0.4203,38.7100,67,96,222190
1.8475,0.3812,38.4600,67,96,222193
1.8426,0.3079,38.6200,67,96,222196
1.8964,0.3372,38.5800,67,96,222200
1.8671,0.4154,38.6500,67,96,222203
1.8475,0.4448,38.6800,67,96,222206
1.8426,0.4252,38.4300,67,96,222210
1.8475,0.3470,38.6800,67,96,222214
1.8866,0.3030,38.5500,67,96,222217
1.8524,0.3421,38.5800,67,96,222220
1.8671,0.4203,38.6500,67,96,222224
1.8817,0.4545,38.6200,67,96,222227
1.8524,0.4106,38.6200,67,96,222230
1.8866,0.3519,38.4900,67,96,222234
1.8573,0.3030,38.6800,67,96,222237
1.8768,0.3519,38.6500,67,96,222240
1.8475,0.4301,38.5500,67,96,222244
1.8475,0.4448,38.5800,67,96,222247
1.8719,0.4154,38.4600,67,96,222251
1.8475,0.3324,38.5800,67,96,222254
1.8719,0.3030,38.6800,67,96,222258
1.8671,0.3910,38.5500,67,96,222261
1.8671,0.4252,38.6800,67,96,222264
1.8866,0.4545,38.5200,67,96,222268
1.8768,0.3959,38.6800,67,96,222271
1.9208,0.3275,38.6800,67,96,222274
1.8915,0.3079,38.5800,67,96,222278
1.8964,0.3568,38.7400,67,96,222281
1.9306,0.4252,38.3600,67,96,222284
1.9550,0.4936,38.5500,67,96,222288
1.9844,0.4008,38.6500,67,96,222291
1.9599,0.3177,38.6500,67,96,222295
1.9697,0.3079,38.6500,67,96,222298
1.9795,0.4008,38.4600,67,96,222302
1.9892,0.4399,38.6200,67,96,222305
2.0674,0.4350,38.5800,67,96,222308
2.0186,0.3910,38.6800,67,96,222312
2.0088,0.3177,38.6800,67,96,222315
2.0235,0.3079,38.5500,67,96,222318
1.9648,0.3861,38.6200,67,96,222322
1.9941,0.4399,38.5800,67,96,222325
1.9648,0.4399,38.6500,67,96,222328
1.9208,0.3666,38.6800,67,96,222331
1.8915,0.3177,38.6500,67,96,222336
1.8768,0.3177,38.6800,67,96,222339
1.9013,0.3959,38.5500,67,96,222342
1.8768,0.4399,38.7100,67,96,222346
1.8915,0.4301,38.6800,67,96,222349
1.8573,0.3763,38.5500,67,96,222352
1.8426,0.3079,38.7100,67,96,222356
1.8524,0.3275,38.4900,67,96,222359
1.8035,0.3959,38.5500,67,96,222362
1.8328,0.4399,38.6500,67,96,222366
1.7791,0.4350,38.6200,67,96,222369
1.7840,0.3715,38.6800,67,96,222372
1.7986,0.3128,38.4300,67,96,222376
1.7840,0.3324,38.5200,67,96,222380
1.8182,0.4008,38.6800,67,96,222383
1.7986,0.4497,38.6500,67,96,222386
1.7986,0.4203,38.6800,67,96,222390
1.8182,0.3666,38.4000,67,96,222393
1.8377,0.3030,38.5800,67,96,222396
1.8524,0.3079,38.6200,67,96,222400
1.8182,0.4545,38.6500,67,96,222403
1.8182,0.4545,38.7100,67,96,222406
1.8280,0.4350,38.4900,67,96,222410
1.8524,0.3568,38.5800,67,96,222413
1.8768,0.3030,38.5800,67,96,222416
1.8426,0.3421,38.6800,67,96,222419
1.8280,0.4203,38.6500,67,96,222424
1.8231,0.4594,38.5500,67,96,222427
1.7889,0.4154,38.6500,67,96,222430
1.7986,0.3470,38.5800,67,96,222434
1.7400,0.2981,38.6500,67,96,222437
1.7546,0.3470,38.8700,67,96,222440
1.7889,0.4301,38.5200,67,96,222444
1.8964,0.4448,38.6800,67,96,222447
2.1065,0.4203,38.5200,67,96,222450
2.3265,0.3372,38.6200,67,96,222453
2.6637,0.2884,38.6500,67,96,222457
2.9814,0.3617,38.9000,67,96,222460
3.3138,0.4252,38.6500,67,96,222464
3.5386,0.4252,38.4600,67,96,222468
3.4946,0.4008,38.6500,67,96,222471
3.2893,0.3372,38.6500,67,96,222474
2.8397,0.3128,38.5500,67,96,222478
2.4145,0.3617,38.6500,67,96,222481
2.0479,0.4399,38.4300,67,96,222484
1.6960,0.4399,38.6200,67,96,222488
1.4956,0.4008,38.6500,67,96,222491
1.3294,0.3421,38.6500,67,96,222494
1.2512,0.3030,38.6800,67,96,222497
1.2414,0.3861,38.4000,67,96,222501
1.2463,0.4399,38.5500,67,96,222504
1.3294,0.4252,38.6500,67,96,222508
1.3734,0.3959,38.7100,67,96,222512
1.4370,0.3226,38.6500,67,96,222515
1.5103,0.3177,38.4900,67,96,222518
1.5543,0.3812,38.8400,67,96,222522
1.6422,0.4399,38.5500,67,96,222525
1.6422,0.4399,38.6500,67,96,222528
1.6618,0.3861,38.8100,67,96,222531
1.6862,0.3128,38.5200,67,96,222535
1.6960,0.3128,38.6500,67,96,222538
1.7546,0.3861,38.7400,67,96,222541
1.7351,0.4399,38.6500,67,96,222545
1.7498,0.4350,38.7400,67,96,222548
1.7498,0.4057,38.5800,67,96,222552
1.7546,0.3128,38.6800,67,96,222556
1.7937,0.3226,38.5500,67,96,222559
1.7742,0.3959,38.6800,67,96,222562
1.7986,0.4399,38.6800,67,96,222566
1.7791,0.4399,38.5500,67,96,222569
1.7889,0.3715,38.6500,67,96,222572
1.8475,0.3128,38.4900,67,96,222575
1.8084,0.3226,38.5200,67,96,222579
1.8426,0.4008,38.6800,67,96,222582
1.8182,0.4545,38.6500,67,96,222585
1.8182,0.4301,38.7400,67,96,222589
1.8426,0.3666,38.4300,67,96,222593
1.8377,0.3030,38.6200,67,96,222596
1.8817,0.3275,38.7100,67,96,222600
1.8524,0.4154,38.6200,67,96,222603
1.8622,0.4448,38.8400,67,96,222606
1.8817,0.4399,38.4300,67,96,222610
1.9062,0.3568,38.5500,67,96,222613
1.9062,0.2981,38.6500,67,96,222616
1.9697,0.3275,38.6800,67,96,222619
1.9355,0.4154,38.6500,67,96,222623
1.9453,0.4545,38.4900,67,96,222626
1.9453,0.4203,38.6500,67,96,222629
1.9550,0.3470,38.5200,67,96,222633
2.0039,0.2884,38.6500,67,96,222637
1.9892,0.3421,38.7100,67,96,222640
2.0137,0.4301,38.4900,67,96,222644
2.0039,0.4448,38.5800,67,96,222647
2.0137,0.4497,38.5200,67,96,222650
2.0479,0.3275,38.6500,67,96,222654
2.0626,0.2981,38.6800,67,96,222657
2.0772,0.3519,38.5800,67,96,222660
2.0626,0.4203,38.6800,67,96,222663
2.0723,0.4545,38.5200,67,96,222667
2.1212,0.3861,38.6500,67,96,222670
2.0968,0.3324,38.7400,67,96,222673
2.1359,0.2981,38.5200,67,96,222678
2.1163,0.3568,38.6800,67,96,222681
2.1212,0.4350,38.4600,67,96,222684
2.1603,0.4448,38.6500,67,96,222688
2.1310,0.4008,38.6800,67,96,222691
2.1603,0.3372,38.7700,67,96,222694
2.1310,0.2884,38.6800,67,96,222697
2.1261,0.3666,38.4000,67,96,222701
2.1505,0.4350,38.6200,67,96,222704
2.1310,0.4399,38.6800,67,96,222707
2.1750,0.4008,38.6500,67,96,222711
2.1163,0.3226,38.7100,67,96,222714
2.1065,0.3226,38.3600,67,96,222717
2.1017,0.3763,38.5500,67,96,222722
2.0723,0.4301,38.6800,67,96,222725
2.1065,0.4497,38.6800,67,96,222728
2.0430,0.3910,38.6500,67,96,222731
2.0039,0.3372,38.5200,67,96,222735
1.9844,0.3128,38.6500,67,96,222738
1.9501,0.3763,38.5500,67,96,222741
1.9892,0.4350,38.6500,67,96,222745
1.9159,0.3861,38.6800,67,96,222748
1.8866,0.4399,38.6500,67,96,222752
1.8622,0.4350,38.5800,67,96,222755
1.8231,0.3715,38.7100,67,96,222758
1.8328,0.3128,38.4300,67,96,222763
1.7937,0.3226,38.5500,67,96,222766
1.7840,0.4008,38.6500,67,96,222769
1.7449,0.4545,38.5800,67,96,222773
1.7253,0.4252,38.7400,67,96,222776
1.7400,0.3959,38.3600,67,96,222779
1.7204,0.3030,38.6500,67,96,222783
1.7302,0.3275,38.5800,67,96,222786
1.7107,0.4154,38.6500,67,96,222789
1.7058,0.4252,38.6800,67,96,222792
1.7302,0.4448,38.4000,67,96,222796
1.7009,0.3617,38.5500,67,96,222799
1.7351,0.2981,38.6200,67,96,222802
1.7204,0.3372,38.7400,67,96,222807
1.7155,0.4203,38.7400,67,96,222810
1.7351,0.4594,38.5200,67,96,222813
1.7253,0.4252,38.6800,67,96,222817
1.7595,0.3470,38.5500,67,96,222820
1.7351,0.3079,38.6800,67,96,222823
1.7351,0.3275,38.6800,67,96,222827
1.7644,0.4301,38.4300,67,96,222830
1.7449,0.4252,38.6500,67,96,222833
1.7986,0.4203,38.6200,67,96,222836
1.7644,0.3324,38.6500,67,96,222840
1.7693,0.3030,38.6500,67,96,222843
1.7791,0.3519,38.6500,67,96,222846
1.7742,0.4252,38.6500,67,96,222851
1.8280,0.4448,38.4900,67,96,222854
1.7986,0.4057,38.4000,67,96,222857
1.7840,0.3421,38.6500,67,96,222861
1.7840,0.3079,38.5500,67,96,222864
1.7791,0.3568,38.6800,67,96,222867
1.8231,0.4350,38.3600,67,96,222870
1.7937,0.4399,38.6500,67,96,222874
1.7986,0.4008,38.8400,67,96,222877
1.7889,0.3372,38.6200,67,96,222880
1.7889,0.3030,38.6800,67,96,222884
1.8182,0.3812,38.3600,67,96,222887
1.7937,0.4350,38.5800,67,96,222891
1.8182,0.4350,38.6800,67,96,222895
1.7986,0.4008,38.6800,67,96,222898
1.7937,0.3226,38.6800,67,96,222901
1.8035,0.3177,38.4900,67,96,222905
1.7986,0.3763,38.5800,67,96,222908
1.8133,0.4301,38.5800,67,96,222911
1.7889,0.4399,38.6800,67,96,222914
1.7840,0.3861,38.6800,67,96,222918
1.8084,0.3324,38.5200,67,96,222921
1.7840,0.3128,38.6200,67,96,222924
1.8133,0.3812,38.5800,67,96,222928
1.7937,0.4399,38.6500,67,96,222931
1.7889,0.4350,38.6800,67,96,222935
1.8035,0.3910,38.6800,67,96,222939
1.7889,0.3128,38.6500,67,96,222942
1.8328,0.3177,38.5200,67,96,222945
1.7986,0.3861,38.6500,67,96,222949
1.7937,0.4350,38.6800,67,96,222952
1.8084,0.4448,38.5500,67,96,222955
1.7986,0.3763,38.6500,67,96,222958
1.8426,0.3030,38.5200,67,96,222962
1.8328,0.3226,38.6200,67,96,222965
1.8035,0.3910,38.2400,67,96,222968
1.8035,0.4545,38.5500,67,96,222972
1.7986,0.4301,38.0800,67,96,222976
1.8524,0.3763,38.4000,67,96,222979
1.8133,0.3079,38.6800,67,96,222983
1.8133,0.3275,38.6800,67,96,222986
1.7986,0.4106,38.5800,67,96,222989
1.7986,0.4497,38.6800,67,96,222992
1.8280,0.4399,38.4000,67,96,222996
1.7986,0.3617,38.5500,67,96,222999
1.8182,0.2981,38.6500,67,96,223002
1.7986,0.3079,37.9600,67,96,223006
1.7937,0.4057,38.6800,67,96,223009
1.8328,0.4643,38.4900,67,96,223012
1.8182,0.4252,38.5800,67,96,223016
1.8475,0.3519,38.5500,67,96,223020
1.8133,0.3030,38.5200,67,96,223023
1.8231,0.3470,38.6500,67,96,223027
1.8328,0.4252,38.5200,67,96,223030
1.8231,0.4497,38.6800,67,96,223033
1.8524,0.4203,38.5200,67,96,223036
1.8182,0.3470,38.6800,67,96,223040
1.8231,0.3030,38.6500,67,96,223043
1.8377,0.3617,38.5800,67,96,223046
1.8182,0.4203,38.6200,67,96,223050
1.8671,0.4545,38.6200,67,96,223053
1.8377,0.4203,38.6500,67,96,223056
1.8231,0.3372,38.6800,67,96,223060
1.8280,0.3030,38.5500,67,96,223064
1.8280,0.3470,38.7100,67,96,223067
1.8817,0.4350,38.4900,67,96,223070
1.8475,0.4448,38.6800,67,96,223074
1.8475,0.4057,38.6500,67,96,223077
1.8573,0.3275,38.5800,67,96,223080
1.8622,0.3030,38.6800,67,96,223084
1.9257,0.3666,38.4300,67,96,223087
1.8964,0.4350,38.5800,67,96,223090
1.9013,0.4399,38.8100,67,96,223094
1.9062,0.4057,38.6200,67,96,223097
1.9159,0.3275,38.7700,67,96,223100
1.9599,0.3177,38.3600,67,96,223105
1.9355,0.3715,38.0800,67,96,223108
1.9648,0.4350,38.6200,67,96,223111
1.9599,0.4448,38.6500,67,96,223114
1.9746,0.3959,38.6800,67,96,223118
2.0283,0.3421,38.4600,67,96,223121
1.9844,0.3128,38.6200,67,96,223124
1.9941,0.3763,38.5800,67,96,223128
1.9453,0.4399,38.6500,67,96,223131
1.9208,0.4399,38.6800,67,96,223134
1.9159,0.4008,38.7400,67,96,223138
1.8964,0.3177,38.6500,67,96,223141
1.8964,0.3128,38.5200,67,96,223144
1.8866,0.3812,38.6500,67,96,223149
1.8524,0.4399,38.6800,67,96,223152
1.8622,0.4448,38.5200,67,96,223155
1.8426,0.3666,38.6800,67,96,223158
1.8671,0.3128,38.5200,67,96,223162
1.8182,0.3128,38.5800,67,96,223165
1.8035,0.3910,38.6800,67,96,223168
1.7986,0.4448,38.5200,67,96,223172
1.7986,0.4399,38.6500,67,96,223175
1.8182,0.3812,38.4300,67,96,223178
1.7840,0.3079,38.7100,67,96,223182
1.7693,0.3226,38.7700,67,96,223185
1.7791,0.4106,38.5800,67,96,223188
1.7742,0.4448,38.6500,67,96,223193
1.8280,0.4399,38.5500,67,96,223196
1.7840,0.3470,38.5800,67,96,223199
1.7840,0.3030,38.6800,67,96,223202
1.7840,0.3324,38.7100,67,96,223206
1.7840,0.4106,38.6800,67,96,223209
1.8231,0.4643,38.4000,67,96,223212
1.7986,0.4252,38.7100,67,96,223216
1.8133,0.3861,38.6200,67,96,223219
1.7937,0.3030,38.7400,67,96,223222
1.7546,0.3421,38.6800,67,96,223226
1.7204,0.4252,38.4900,67,96,223229
1.7253,0.4545,38.6200,67,96,223233
1.7204,0.4057,38.5500,67,96,223237
1.7986,0.3470,38.6800,67,96,223240
1.8915,0.3030,38.6800,67,96,223243
2.0577,0.3519,38.5800,67,96,223246
2.3314,0.4057,38.6800,67,96,223250
2.6344,0.4252,38.5200,67,96,223253
3.0547,0.4106,38.6200,67,96,223256
3.3187,0.3421,38.6800,67,96,223260
3.4897,0.3030,38.5800,67,96,223263
3.4506,0.3519,38.7100,67,96,223266
3.1574,0.4301,38.5200,67,96,223270
2.8397,0.4448,38.7400,67,96,223273
2.3607,0.4594,38.6500,67,96,223277
1.9599,0.3470,38.5800,67,96,223280
1.6520,0.3030,38.6800,67,96,223284
1.4321,0.3617,38.4900,67,96,223287
1.3343,0.4301,38.5500,67,96,223290
1.2414,0.4448,38.6800,67,96,223294
1.2219,0.4106,38.5800,67,96,223297
1.2366,0.3275,38.6500,67,96,223300
1.2952,0.3128,38.3600,67,96,223304
1.3832,0.3617,38.6500,67,96,223307
1.4272,0.4301,38.6500,67,96,223310
1.5298,0.4497,38.6500,67,96,223314
1.5494,0.4008,38.7100,67,96,223318
1.5885,0.3470,38.4300,67,96,223321
1.6373,0.3128,38.5800,67,96,223324
1.6471,0.3666,38.6500,67,96,223328
1.6911,0.4301,38.6500,67,96,223331
1.6764,0.4399,38.6800,67,96,223334
1.7009,0.4057,38.6200,67,96,223338
1.7204,0.3226,38.6800,67,96,223341
1.7155,0.3128,38.5200,67,96,223344
1.7449,0.3763,38.6500,67,96,223348
1.7204,0.4350,38.6800,67,96,223351
1.7449,0.4497,38.4600,67,96,223354
1.7693,0.4448,38.5200,67,96,223358
1.7840,0.4448,38.7100,67,96,223362
1.8084,0.3812,38.4300,67,96,223366
1.7889,0.2981,38.6500,67,96,223369
1.7840,0.3177,38.6500,67,96,223372
1.8182,0.4057,38.5800,67,96,223375
1.7986,0.4448,38.7700,67,96,223379
1.8524,0.4350,38.4000,67,96,223382
1.8182,0.3568,38.5800,67,96,223385
1.8182,0.3030,38.6800,67,96,223389
1.8280,0.3324,38.7100,67,96,223392
1.8231,0.4106,38.6800,67,96,223395
1.8866,0.4643,37.6500,67,96,223399
1.8426,0.4350,38.5800,67,96,223403
1.8426,0.3519,38.5800,67,96,223406
1.8475,0.3079,38.6500,67,96,223410
1.8524,0.3324,38.6800,67,96,223413
1.9062,0.4252,38.5200,67,96,223416
1.8768,0.4448,38.6500,67,96,223419
1.8964,0.4203,38.5500,67,96,223423
1.8964,0.3470,38.6500,67,96,223426
1.9062,0.3030,38.6500,67,96,223429
1.9501,0.3519,38.5800,67,96,223433
1.9355,0.4203,38.6500,67,96,223436
1.9648,0.4545,38.4900,67,96,223439
1.9501,0.4154,38.6500,67,96,223443
1.9599,0.3421,38.6800,67,96,223447
1.9941,0.3030,38.5800,67,96,223450
1.9844,0.3421,38.6500,67,96,223453
2.0235,0.4301,38.5200,67,96,223457
1.9990,0.4448,38.6500,67,96,223460
2.0137,0.4057,38.6500,67,96,223463
2.0430,0.3421,38.5800,67,96,223467
2.0381,0.3030,38.7400,67,96,223470
2.0772,0.3812,38.4300,67,96,223473
2.0577,0.4301,38.5500,67,96,223477
2.0723,0.4399,38.6200,67,96,223480
2.0968,0.4106,38.5800,67,96,223483
2.0870,0.3275,38.6800,67,96,223486
2.1408,0.3128,38.4000,67,96,223491
2.1163,0.3666,38.6200,67,96,223494
2.1017,0.4252,38.6800,67,96,223497
2.1163,0.4448,38.6200,67,96,223501
2.1065,0.3959,38.6800,67,96,223504
2.1701,0.3470,38.4900,67,96,223507
2.1261,0.3177,38.5800,67,96,223511
2.1163,0.3666,38.6200,67,96,223514
2.1212,0.4301,38.6200,67,96,223517
2.1114,0.4399,38.6800,67,96,223521
2.1652,0.4057,38.5800,67,96,223524
2.1114,0.3226,38.6500,67,96,223527
2.0870,0.3128,38.5500,67,96,223531
2.0626,0.3812,38.6500,67,96,223535
2.0381,0.4399,38.6800,67,96,223538
2.0626,0.4448,38.4600,67,96,223541
2.0088,0.3959,38.7400,67,96,223545
1.9892,0.3177,38.5500,67,96,223548
1.9453,0.3079,38.6800,67,96,223551
1.9208,0.3861,38.7100,67,96,223555
1.9306,0.4448,38.6500,67,96,223558
1.8719,0.4301,38.6500,67,96,223561
1.8719,0.3763,38.4900,67,96,223565
1.8182,0.3079,38.6800,67,96,223568
1.8035,0.3470,38.6800,67,96,223571
1.7986,0.4057,38.5800,67,96,223576
1.7595,0.4399,38.7700,67,96,223579
1.7889,0.4497,38.4000,67,96,223582
1.7253,0.3666,38.6200,67,96,223585
1.7204,0.3030,38.6500,67,96,223589
1.7204,0.3275,38.6200,67,96,223592
1.7009,0.4008,38.6800,67,96,223595
1.7204,0.4594,38.4000,67,96,223599
1.6862,0.4301,38.6200,67,96,223602
1.6862,0.3568,38.6500,67,96,223605
1.7058,0.3030,38.6500,67,96,223609
1.6862,0.3324,38.6800,67,96,223612
1.7302,0.4252,38.4900,67,96,223616
1.7107,0.4448,38.6200,67,96,223619
1.7107,0.4203,38.6500,67,96,223623
