ecg,gsr,temp,hr,spo2,timest
1.8231,0.0538,39.4100,71,96,578676
1.7595,0.0489,39.8000,71,96,578679
1.7449,0.0489,39.8800,71,96,578682
1.7449,0.0538,39.7700,71,96,578685
1.7204,0.0538,39.8500,71,96,578690
1.7498,0.0587,39.5100,71,96,578693
1.7058,0.0587,39.7200,71,96,578696
1.6667,0.0489,39.8300,71,96,578700
1.6764,0.0538,39.8300,71,96,578703
1.6716,0.0538,39.9100,71,96,578706
1.7204,0.0684,39.5900,71,96,578710
1.6911,0.0489,39.8000,71,96,578713
1.7009,0.0342,39.7200,71,96,578716
1.6862,0.0538,39.8800,71,96,578720
1.6862,0.0587,39.8800,71,96,578723
1.7009,0.0635,39.6900,71,96,578726
1.6813,0.0587,39.8500,71,96,578731
1.7058,0.0538,39.6700,71,96,578734
1.7009,0.0538,39.8500,71,96,578737
1.7155,0.0538,39.8500,71,96,578740
1.7253,0.0538,39.7700,71,96,578744
1.6960,0.0489,39.8300,71,96,578747
1.7107,0.0587,39.6700,71,96,578750
1.6862,0.0440,39.8800,71,96,578754
1.7155,0.0489,39.8300,71,96,578757
1.7742,0.0587,39.6700,71,96,578760
1.7302,0.0782,39.8500,71,96,578764
1.7644,0.0538,39.5600,71,96,578767
1.7546,0.0538,39.7200,71,96,578770
1.7449,0.0489,39.8800,71,96,578775
1.7595,0.0538,39.8300,71,96,578778
1.7498,0.0538,39.8500,71,96,578781
1.7986,0.0587,39.4800,71,96,578785
1.7546,0.0538,39.7700,71,96,578788
1.7693,0.0440,39.8500,71,96,578791
1.7742,0.0538,39.9100,71,96,578794
1.7742,0.0538,39.8500,71,96,578798
1.8231,0.0684,39.5400,71,96,578801
1.7937,0.0587,39.7500,71,96,578804
1.7986,0.0587,39.7200,71,96,578808
1.7840,0.0538,39.8500,71,96,578811
1.7595,0.0342,39.8500,71,96,578817
1.7693,0.0489,39.8500,71,96,578820
1.8035,0.0587,39.6700,71,96,578823
1.8035,0.0538,39.8500,71,96,578827
1.8084,0.0489,39.6400,71,96,578830
1.7840,0.0831,39.7200,71,96,578833
1.7644,0.0489,39.8500,71,96,578837
1.7693,0.0587,39.7700,71,96,578840
1.7546,0.0538,39.8800,71,96,578843
1.7889,0.0635,39.5100,71,96,578847
1.7498,0.0489,39.8800,71,96,578850
1.7546,0.0489,39.8500,71,96,578853
1.7742,0.0587,39.7700,71,96,578856
1.7693,0.0538,39.8800,71,96,578861
1.8280,0.0587,39.4800,71,96,578864
1.8084,0.0538,39.7200,71,96,578867
1.8133,0.0489,39.7700,71,96,578871
1.8133,0.0538,39.8300,71,96,578874
1.8280,0.0538,39.8500,71,96,578877
1.8475,0.0635,39.6400,71,96,578881
1.8182,0.0587,39.8000,71,96,578884
1.8133,0.0489,39.6900,71,96,578887
1.7986,0.0538,39.8500,71,96,578891
1.7986,0.0831,39.8500,71,96,578894
1.8377,0.0587,39.6400,71,96,578897
1.7986,0.0342,39.8500,71,96,578902
1.8377,0.0538,39.6900,71,96,578905
1.8182,0.0342,39.8300,71,96,578908
1.8084,0.0538,39.8800,71,96,578912
1.8133,0.0538,39.7700,71,96,578915
1.7937,0.0587,39.8500,71,96,578918
1.8133,0.0489,39.6200,71,96,578921
1.7840,0.0489,39.8300,71,96,578925
1.7889,0.0538,39.8500,71,96,578928
1.7986,0.0635,39.6900,71,96,578931
1.7791,0.0538,39.8500,71,96,578935
1.8182,0.0831,39.5400,71,96,578938
1.7840,0.0489,39.9100,71,96,578941
1.7937,0.0538,39.8800,71,96,578946
1.8084,0.0587,39.8000,71,96,578949
1.7986,0.0538,39.8500,71,96,578952
1.8573,0.0587,39.4600,71,96,578956
1.8328,0.0538,39.6900,71,96,578959
1.8231,0.0440,39.8000,71,96,578962
1.8328,0.0538,39.6700,71,96,578966
1.8328,0.0440,39.8500,71,96,578969
1.8719,0.0587,39.4300,71,96,578972
1.8182,0.0538,39.8300,71,96,578975
1.8231,0.0489,39.6900,71,96,578979
1.8084,0.0538,39.8500,71,96,578982
1.8133,0.0440,39.8500,71,96,578985
1.8426,0.0587,39.7200,71,96,578990
1.8231,0.0684,39.8300,71,96,578993
1.8426,0.0538,39.6900,71,96,578996
1.8133,0.0538,39.8300,71,96,579000
1.8133,0.0538,39.8300,71,96,579003
1.8133,0.0440,39.7200,71,96,579006
1.8035,0.0538,39.6200,71,96,579010
1.8231,0.0538,39.6400,71,96,579013
1.7937,0.0538,39.8500,71,96,579016
1.7986,0.0489,39.8500,71,96,579020
1.8231,0.0635,39.6900,71,96,579023
1.8084,0.0538,39.8500,71,96,579026
1.8573,0.0538,39.5100,71,96,579030
1.8328,0.0538,39.6900,71,96,579034
1.8280,0.0489,39.8500,71,96,579037
1.8426,0.0587,39.8000,71,96,579040
1.8426,0.0538,39.8800,71,96,579044
1.9013,0.0587,39.4600,71,96,579047
1.8622,0.0538,39.6400,71,96,579050
1.8719,0.0489,39.8000,71,96,579054
1.8915,0.0538,39.8300,71,96,579057
1.8964,0.0635,39.8800,71,96,579060
1.9550,0.0635,39.4600,71,96,579064
1.9208,0.0587,39.8000,71,96,579067
1.9306,0.0489,39.7200,71,96,579070
1.9257,0.0587,39.8300,71,96,579075
1.9355,0.0538,39.8800,71,96,579078
1.9550,0.0587,39.7500,71,96,579081
1.9208,0.0733,39.8300,71,96,579084
1.9355,0.0489,39.6700,71,96,579088
1.8964,0.0587,39.8800,71,96,579091
1.8866,0.0489,39.8800,71,96,579094
1.9013,0.0733,39.6700,71,96,579098
1.8671,0.0538,39.9300,71,96,579101
1.9110,0.0538,39.6400,71,96,579104
1.8671,0.0489,39.7700,71,96,579108
1.8719,0.0440,39.8500,71,96,579111
1.8622,0.0538,39.7700,71,96,579115
1.8524,0.0440,39.8500,71,96,579119
1.8817,0.0538,39.5100,71,96,579122
1.8426,0.0538,39.8300,71,96,579125
1.8475,0.0538,39.8500,71,96,579129
1.8573,0.0587,39.7700,71,96,579132
1.8231,0.0782,39.8300,71,96,579135
1.8622,0.0538,39.4800,71,96,579138
1.8133,0.0538,39.7200,71,96,579142
1.7937,0.0489,39.8500,71,96,579145
1.7791,0.0538,39.8300,71,96,579148
1.7498,0.0489,39.8500,71,96,579152
1.7840,0.0635,39.7500,71,96,579155
1.7595,0.0684,39.8000,71,96,579159
1.7449,0.0489,39.7200,71,96,579163
1.7595,0.0538,39.8500,71,96,579166
1.7449,0.0489,39.8500,71,96,579169
1.7693,0.0587,39.6200,71,96,579173
1.7449,0.0489,39.8300,71,96,579176
1.7498,0.0538,39.5900,71,96,579179
1.7204,0.0538,39.8800,71,96,579183
1.7253,0.0489,39.9600,71,96,579186
1.7498,0.0538,39.8000,71,96,579189
1.7449,0.0538,39.9100,71,96,579193
1.7742,0.0489,39.6400,71,96,579196
1.7498,0.0538,39.8300,71,96,579200
1.7595,0.0342,39.8800,71,96,579203
1.7693,0.0489,39.6900,71,96,579207
1.7400,0.0538,39.8800,71,96,579210
1.7644,0.0538,39.5100,71,96,579213
1.7351,0.0489,39.8000,71,96,579217
1.7742,0.0587,39.8300,71,96,579220
1.8475,0.0538,39.8000,71,96,579223
1.9355,0.0440,39.8800,71,96,579227
2.1310,0.0587,39.5100,71,96,579230
2.2727,0.0587,39.7500,71,96,579233
2.4585,0.0489,39.8300,71,96,579237
2.6442,0.0587,39.8300,71,96,579240
2.7566,0.0538,39.8500,71,96,579244
2.7468,0.0587,39.5900,71,96,579247
2.3851,0.0538,39.8300,71,96,579251
2.0235,0.0440,39.7200,71,96,579254
1.6960,0.0538,39.8300,71,96,579257
1.4614,0.0391,39.8300,71,96,579261
1.3148,0.0587,39.7200,71,96,579264
1.1779,0.0538,39.8300,71,96,579267
1.1437,0.0538,39.6400,71,96,579271
1.1584,0.0587,39.8500,71,96,579274
1.2659,0.0587,39.8500,71,96,579277
1.3978,0.0489,39.7700,71,96,579281
1.5005,0.0489,39.8300,71,96,579284
1.6227,0.0489,39.6900,71,96,579288
1.6667,0.0489,39.8300,71,96,579292
1.7253,0.0538,39.8500,71,96,579295
1.7742,0.0587,39.7200,71,96,579298
1.7742,0.0538,39.8800,71,96,579301
1.8475,0.0587,39.5600,71,96,579305
1.8084,0.0538,39.7200,71,96,579308
1.8426,0.0489,39.8500,71,96,579311
1.8426,0.0587,39.8000,71,96,579315
1.8377,0.0538,39.8500,71,96,579318
1.8817,0.0831,39.4800,71,96,579321
1.8426,0.0538,39.8300,71,96,579325
1.8622,0.0440,39.8500,71,96,579329
1.8573,0.0538,39.8300,71,96,579332
1.8964,0.0489,39.8500,71,96,579336
1.9257,0.0635,39.6900,71,96,579339
1.8915,0.0587,39.7700,71,96,579342
1.8915,0.0489,39.7200,71,96,579346
1.8817,0.0342,39.8500,71,96,579349
1.8817,0.0489,39.8500,71,96,579352
1.9110,0.0635,39.7200,71,96,579355
1.8817,0.0538,39.8000,71,96,579359
1.9013,0.0587,39.6700,71,96,579362
1.8768,0.0635,39.8300,71,96,579365
1.8866,0.0342,39.8500,71,96,579369
1.9159,0.0635,39.6400,71,96,579373
1.8866,0.0538,39.8500,71,96,579376
1.9159,0.0635,39.6900,71,96,579380
1.8915,0.0489,39.7700,71,96,579383
1.9062,0.0538,39.8500,71,96,579386
1.9208,0.0489,39.7700,71,96,579390
1.9159,0.0342,39.8500,71,96,579393
1.9501,0.0489,39.5600,71,96,579396
1.9062,0.0489,39.8300,71,96,579399
1.9110,0.0538,39.8500,71,96,579403
1.9306,0.0587,39.7500,71,96,579406
1.9159,0.0538,39.8300,71,96,579409
1.9648,0.0538,39.5100,71,96,579414
1.9257,0.0489,39.7500,71,96,579417
1.9355,0.0489,39.8800,71,96,579420
1.9501,0.0635,39.8500,71,96,579424
1.9892,0.0538,39.8800,71,96,579428
2.0137,0.0440,39.8500,71,96,579432
2.0674,0.0587,39.6200,71,96,579435
2.0381,0.0538,39.8300,71,96,579438
2.0723,0.0489,39.6700,71,96,579442
2.0430,0.0684,39.8500,71,96,579445
2.0528,0.0489,39.8800,71,96,579448
2.0674,0.0587,39.7500,71,96,579452
2.0674,0.0342,39.8300,71,96,579456
2.0968,0.0489,39.6700,71,96,579459
2.0626,0.0782,39.8500,71,96,579462
2.0772,0.0538,39.8500,71,96,579466
2.1017,0.0635,39.6900,71,96,579469
2.0919,0.0587,39.8500,71,96,579472
2.1261,0.0489,39.5900,71,96,579476
2.0968,0.0538,39.8800,71,96,579479
2.1065,0.0538,39.8500,71,96,579482
2.1261,0.0587,39.7200,71,96,579486
2.1114,0.0538,39.8800,71,96,579489
2.1505,0.0635,39.4800,71,96,579492
2.1017,0.0538,39.7200,71,96,579496
2.0528,0.0489,39.8300,71,96,579500
2.0235,0.0538,39.8300,71,96,579503
1.9990,0.0538,39.8000,71,96,579506
2.0283,0.0538,39.5100,71,96,579510
1.9501,0.0538,39.8000,71,96,579513
1.9306,0.0684,39.7500,71,96,579516
1.9013,0.0538,39.8300,71,96,579520
1.8671,0.0538,39.8500,71,96,579523
1.8817,0.0635,39.4600,71,96,579526
1.8328,0.0587,39.8000,71,96,579530
1.8231,0.0489,39.6900,71,96,579533
1.7937,0.0587,39.8500,71,96,579536
1.7644,0.0684,39.8800,71,96,579540
1.7595,0.0587,39.7700,71,96,579544
1.7058,0.0733,39.8300,71,96,579547
1.7058,0.0587,39.6900,71,96,579550
1.6667,0.0635,39.8500,71,96,579554
1.6667,0.0489,39.8300,71,96,579557
1.7155,0.0587,39.6900,71,96,579560
1.6667,0.0587,39.8500,71,96,579564
1.6911,0.0489,39.5900,71,96,579567
1.6716,0.0635,39.6900,71,96,579570
1.6569,0.0538,39.8800,71,96,579574
1.6813,0.0538,39.8000,71,96,579577
1.6813,0.0538,39.9300,71,96,579580
1.7351,0.0538,39.5100,71,96,579585
1.7058,0.0538,39.8300,71,96,579588
1.7204,0.0538,39.8500,71,96,579591
1.7302,0.0587,39.7700,71,96,579595
1.7253,0.0538,39.8500,71,96,579598
1.7742,0.0587,39.4800,71,96,579601
1.7400,0.0538,39.7500,71,96,579605
1.7449,0.0440,39.7500,71,96,579608
1.7351,0.0538,39.9100,71,96,579611
1.7253,0.0489,39.8800,71,96,579614
1.7644,0.0684,39.6900,71,96,579618
1.7351,0.0587,39.8000,71,96,579621
1.7449,0.0538,39.6900,71,96,579624
1.7400,0.0538,39.9100,71,96,579629
1.7498,0.0489,39.8500,71,96,579632
1.7791,0.0587,39.6200,71,96,579635
1.7546,0.0538,39.8500,71,96,579639
1.7889,0.0635,39.6900,71,96,579642
1.7742,0.0440,39.8000,71,96,579645
1.7742,0.0538,39.8500,71,96,579649
1.7791,0.0538,39.8000,71,96,579652
1.7546,0.0733,39.8500,71,96,579655
1.7595,0.0489,39.6200,71,96,579659
1.7302,0.0538,39.8300,71,96,579662
1.7351,0.0489,39.8500,71,96,579665
1.7546,0.0587,39.7500,71,96,579668
1.7498,0.0538,39.9100,71,96,579673
1.8084,0.0587,39.5100,71,96,579676
1.7742,0.0489,39.7700,71,96,579679
1.7889,0.0489,39.8800,71,96,579683
1.7937,0.0587,39.7700,71,96,579686
1.7742,0.0538,39.8500,71,96,579689
1.8231,0.0733,39.5100,71,96,579693
1.7937,0.0538,39.7200,71,96,579696
1.7889,0.0440,39.7700,71,96,579699
1.7986,0.0684,39.8300,71,96,579703
1.8182,0.0538,39.8500,71,96,579706
1.8622,0.0733,39.6700,71,96,579709
1.8182,0.0538,39.8500,71,96,579714
1.8182,0.0587,39.6900,71,96,579717
1.7986,0.0538,39.8500,71,96,579720
1.7937,0.0587,39.8300,71,96,579723
1.8133,0.0587,39.7200,71,96,579727
1.7986,0.0538,39.8500,71,96,579730
1.8182,0.0587,39.6700,71,96,579733
1.7986,0.0342,39.8500,71,96,579737
1.8035,0.0831,39.8500,71,96,579740
1.8182,0.0538,39.7200,71,96,579743
1.7986,0.0538,39.8500,71,96,579747
1.8231,0.0489,39.5900,71,96,579750
1.7889,0.0342,39.8500,71,96,579753
1.7937,0.0489,39.8500,71,96,579758
1.8133,0.0635,39.7500,71,96,579761
1.8084,0.0538,39.8500,71,96,579764
1.8426,0.0538,39.5100,71,96,579768
1.8377,0.0440,39.7200,71,96,579771
1.8133,0.0489,39.8500,71,96,579774
1.8231,0.0538,39.8300,71,96,579778
1.8133,0.0587,39.8500,71,96,579781
1.8573,0.0635,39.5100,71,96,579784
1.8035,0.0538,39.8000,71,96,579787
1.8035,0.0489,39.7500,71,96,579791
1.8084,0.0538,39.8300,71,96,579794
1.8084,0.0489,39.8800,71,96,579798
1.8524,0.0587,39.6700,71,96,579802
1.8182,0.0538,39.8300,71,96,579805
1.8182,0.0538,39.6900,71,96,579808
1.7986,0.0538,39.8300,71,96,579812
1.8035,0.0538,39.8500,71,96,579815
1.8231,0.0635,39.7700,71,96,579818
1.8231,0.0538,39.8500,71,96,579822
1.8622,0.0538,39.6900,71,96,579825
1.8377,0.0587,39.8800,71,96,579828
1.8426,0.0489,39.8500,71,96,579832
1.8475,0.0587,39.6900,71,96,579835
1.8084,0.0538,39.8300,71,96,579838
1.8280,0.0440,39.5900,71,96,579842
1.7986,0.0538,39.8300,71,96,579846
1.7889,0.0489,39.8800,71,96,579849
1.8084,0.0538,39.7700,71,96,579852
1.8133,0.0342,39.8800,71,96,579856
1.8573,0.0538,39.5100,71,96,579859
1.8182,0.0489,39.7700,71,96,579862
1.8524,0.0440,39.8800,71,96,579866
1.8377,0.0587,39.7500,71,96,579869
1.8280,0.0538,39.8500,71,96,579872
1.8768,0.0635,39.5100,71,96,579876
1.8426,0.0538,39.7500,71,96,579879
1.8377,0.0391,39.7700,71,96,579883
1.8426,0.0538,39.8300,71,96,579887
1.8426,0.0489,39.8500,71,96,579890
1.8719,0.0733,39.6900,71,96,579893
1.8475,0.0538,39.8000,71,96,579897
1.8524,0.0635,39.6700,71,96,579900
1.8280,0.0538,39.8500,71,96,579903
1.8328,0.0538,39.8500,71,96,579906
1.8671,0.0587,39.6700,71,96,579910
1.8377,0.0538,39.8500,71,96,579913
1.8573,0.0684,39.6700,71,96,579916
1.8182,0.0489,39.8000,71,96,579920
1.8133,0.0489,39.8500,71,96,579923
1.8182,0.0538,39.7700,71,96,579927
1.8133,0.0587,39.8300,71,96,579931
1.8475,0.0489,39.6400,71,96,579934
1.8182,0.0538,39.8500,71,96,579937
1.8377,0.0489,39.8800,71,96,579941
1.8866,0.0587,39.7500,71,96,579944
1.8573,0.0538,39.9300,71,96,579947
1.9159,0.0538,39.5100,71,96,579951
1.8768,0.0538,39.7500,71,96,579954
1.9013,0.0538,39.8500,71,96,579957
1.9306,0.0684,39.8000,71,96,579960
1.9501,0.0538,39.8500,71,96,579964
2.0137,0.0782,39.5100,71,96,579968
1.9648,0.0538,39.8000,71,96,579971
1.9453,0.0489,39.8800,71,96,579975
1.9404,0.0538,39.8800,71,96,579978
1.9404,0.0587,39.8500,71,96,579981
1.9892,0.0587,39.5900,71,96,579985
1.9501,0.0538,39.8500,71,96,579988
1.9599,0.0489,39.6700,71,96,579991
1.9306,0.0342,39.8500,71,96,579995
1.9159,0.0538,39.8300,71,96,579998
1.9306,0.0587,39.7500,71,96,580001
1.9062,0.0538,39.8000,71,96,580004
1.9159,0.0587,39.6700,71,96,580008
1.8768,0.0538,39.8800,71,96,580012
1.8817,0.0489,39.8800,71,96,580015
1.8671,0.0538,39.8500,71,96,580019
1.8475,0.0538,39.8500,71,96,580022
1.8622,0.0489,39.5900,71,96,580025
1.8280,0.0538,39.8800,71,96,580029
1.8133,0.0587,39.8500,71,96,580032
1.8133,0.0538,39.7500,71,96,580035
1.7351,0.0538,39.8500,71,96,580040
1.7302,0.0538,39.8800,71,96,580043
1.7840,0.0684,39.5600,71,96,580047
1.7498,0.0538,39.8000,71,96,580050
1.7595,0.0782,39.7200,71,96,580054
1.7546,0.0538,39.8300,71,96,580058
1.7498,0.0489,39.8300,71,96,580061
1.7889,0.0635,39.6900,71,96,580064
1.7644,0.0635,39.8000,71,96,580067
1.7791,0.0538,39.6900,71,96,580071
1.7546,0.0587,39.8500,71,96,580074
1.7644,0.0538,39.9300,71,96,580077
1.7937,0.0538,39.7500,71,96,580081
1.7742,0.0538,39.8500,71,96,580084
1.7986,0.0342,39.6900,71,96,580087
1.7644,0.0538,39.8800,71,96,580091
1.7546,0.0489,39.8800,71,96,580094
1.7693,0.0635,39.6400,71,96,580098
1.7498,0.0538,39.9100,71,96,580102
1.8035,0.0440,39.5600,71,96,580105
1.8328,0.0538,39.7200,71,96,580108
1.8964,0.0538,39.8500,71,96,580112
2.0332,0.0635,39.8000,71,96,580115
2.1848,0.0440,39.8300,71,96,580118
2.4242,0.0538,39.4800,71,96,580121
2.5562,0.0489,39.8000,71,96,580125
2.7077,0.0489,39.8800,71,96,580128
2.7077,0.0538,39.7700,71,96,580131
2.4682,0.0489,39.8500,71,96,580135
2.1701,0.0635,39.5900,71,96,580139
1.7840,0.0342,39.7500,71,96,580142
1.5347,0.0440,39.7700,71,96,580146
1.3539,0.0587,39.8500,71,96,580149
1.2072,0.0489,39.8800,71,96,580152
1.1779,0.0635,39.6700,71,96,580156
1.1681,0.0831,39.8000,71,96,580159
1.2610,0.0489,39.7200,71,96,580162
1.3587,0.0880,39.8500,71,96,580165
1.4761,0.0538,39.8800,71,96,580169
1.6031,0.0587,39.6200,71,96,580172
1.6618,0.0538,39.8500,71,96,580175
1.7400,0.0587,39.6700,71,96,580179
1.7595,0.0538,39.8300,71,96,580183
1.7889,0.0440,39.8500,71,96,580186
1.8231,0.0538,39.8300,71,96,580190
1.8231,0.0440,39.8500,71,96,580193
1.8622,0.0489,39.7200,71,96,580196
1.8426,0.0538,39.8300,71,96,580200
1.8426,0.0587,39.8500,71,96,580203
1.8622,0.0587,39.7200,71,96,580206
1.8622,0.0538,39.8500,71,96,580210
1.9257,0.0538,39.5400,71,96,580213
1.9062,0.0489,39.7700,71,96,580216
1.9110,0.0489,39.8500,71,96,580219
1.9355,0.0587,39.8000,71,96,580224
1.8719,0.0538,39.8500,71,96,580227
1.9013,0.0587,39.4800,71,96,580230
1.8524,0.0538,39.6700,71,96,580234
1.8622,0.0489,39.8000,71,96,580237
1.8573,0.0538,39.8300,71,96,580240
1.8719,0.0587,39.8800,71,96,580244
1.9306,0.0587,39.5900,71,96,580247
1.8964,0.0538,39.8300,71,96,580250
1.9013,0.0684,39.6900,71,96,580254
1.8768,0.0538,39.8500,71,96,580257
1.8719,0.0489,39.8500,71,96,580260
1.9013,0.0587,39.7700,71,96,580263
1.8817,0.0538,39.8300,71,96,580268
1.9110,0.0538,39.7200,71,96,580271
1.8915,0.0538,39.8800,71,96,580274
1.9062,0.0538,39.8800,71,96,580278
1.9257,0.0489,39.7500,71,96,580281
1.9306,0.0538,39.8800,71,96,580284
1.9697,0.0587,39.6200,71,96,580288
1.9453,0.0538,39.8500,71,96,580291
1.9453,0.0538,39.8800,71,96,580294
1.9501,0.0733,39.7200,71,96,580298
1.9355,0.0538,39.8800,71,96,580301
1.9892,0.0587,39.5400,71,96,580304
1.9746,0.0538,39.7200,71,96,580308
1.9746,0.0391,39.8800,71,96,580312
1.9990,0.0587,39.8000,71,96,580315
1.9892,0.0538,39.8800,71,96,580318
2.0235,0.0587,39.5600,71,96,580322
1.9697,0.0538,39.7700,71,96,580325
1.9697,0.0489,39.8000,71,96,580328
1.9941,0.0342,39.8300,71,96,580332
2.0088,0.0538,39.8500,71,96,580335
2.0919,0.0684,39.6200,71,96,580338
2.0772,0.0587,39.8000,71,96,580342
2.0968,0.0489,39.7500,71,96,580345
2.0674,0.0538,39.8500,71,96,580348
2.0821,0.0440,39.8800,71,96,580353
2.0968,0.0635,39.7200,71,96,580356
2.0674,0.0635,39.8300,71,96,580359
2.0968,0.0489,39.6700,71,96,580362
2.0772,0.0489,39.8500,71,96,580366
2.0870,0.0538,39.8500,71,96,580369
2.1261,0.0831,39.6400,71,96,580372
2.0968,0.0538,39.8500,71,96,580376
2.1310,0.0538,39.6900,71,96,580379
2.0968,0.0489,39.7700,71,96,580382
2.1017,0.0489,39.9300,71,96,580386
2.1065,0.0538,39.7700,71,96,580389
2.0870,0.0538,39.8500,71,96,580392
2.1017,0.0538,39.5600,71,96,580397
2.0430,0.0538,39.9100,71,96,580400
2.0235,0.0489,39.8500,71,96,580403
2.0137,0.0587,39.7500,71,96,580406
1.9697,0.0538,39.8500,71,96,580410
1.9892,0.0538,39.5100,71,96,580413
1.9404,0.0489,39.7500,71,96,580416
1.8964,0.0538,39.9600,71,96,580420
1.8866,0.0587,39.8000,71,96,580423
1.8622,0.0538,39.8500,71,96,580426
1.8915,0.0635,39.5400,71,96,580430
1.8280,0.0635,39.7200,71,96,580433
1.7986,0.0489,39.8000,71,96,580436
1.7498,0.0733,39.8500,71,96,580441
1.7253,0.0342,39.8500,71,96,580444
1.7546,0.0538,39.5600,71,96,580447
1.7107,0.0538,39.8500,71,96,580450
1.7204,0.0684,39.7200,71,96,580454
1.7107,0.0538,39.8500,71,96,580457
1.7204,0.0587,39.8500,71,96,580460
1.7449,0.0587,39.5900,71,96,580464
1.7546,0.0587,39.8500,71,96,580467
1.7204,0.0538,39.6900,71,96,580470
1.6764,0.0538,39.8500,71,96,580474
1.6618,0.0489,39.8800,71,96,580477
1.6618,0.0440,39.7200,71,96,580481
1.6569,0.0538,39.6700,71,96,580485
1.6813,0.0489,39.6200,71,96,580488
1.6716,0.0489,39.8500,71,96,580491
1.6813,0.0342,39.8500,71,96,580495
1.7204,0.0684,39.6900,71,96,580498
1.7204,0.0538,39.9100,71,96,580501
1.7693,0.0587,39.5100,71,96,580504
1.7546,0.0538,39.8800,71,96,580508
1.7400,0.0489,39.8500,71,96,580511
1.7449,0.0587,39.8000,71,96,580514
1.7644,0.0538,39.8500,71,96,580518
1.7889,0.0587,39.5100,71,96,580521
1.7498,0.0538,39.7700,71,96,580525
1.7595,0.0440,39.7700,71,96,580529
1.7742,0.0342,39.8500,71,96,580532
1.7791,0.0587,39.8800,71,96,580535
1.8328,0.0635,39.6400,71,96,580539
1.7937,0.0538,39.8000,71,96,580542
1.7937,0.0489,39.7200,71,96,580545
1.7791,0.0489,39.8300,71,96,580549
1.7840,0.0489,39.9100,71,96,580552
1.8133,0.0538,39.7500,71,96,580555
1.7937,0.0538,39.9100,71,96,580558
1.8035,0.0440,39.6700,71,96,580562
1.7791,0.0538,39.8500,71,96,580566
1.7986,0.0538,39.8800,71,96,580569
1.8182,0.0587,39.6400,71,96,580573
1.7840,0.0538,39.7200,71,96,580576
1.7986,0.0587,39.6200,71,96,580579
1.7742,0.0489,39.7200,71,96,580583
1.7693,0.0489,39.8500,71,96,580586
1.7791,0.0538,39.9100,71,96,580589
1.7791,0.0587,39.8800,71,96,580593
1.8231,0.0538,39.5400,71,96,580596
1.7840,0.0538,39.8300,71,96,580599
1.7840,0.0538,39.8500,71,96,580603
1.7937,0.0587,39.8000,71,96,580606
1.7791,0.0538,39.8300,71,96,580610
1.8377,0.0587,39.4800,71,96,580613
1.8035,0.0587,39.6900,71,96,580617
1.8035,0.0440,39.8300,71,96,580620
1.8084,0.0538,39.8300,71,96,580623
1.8084,0.0538,39.8000,71,96,580627
1.8573,0.0782,39.6400,71,96,580630
1.8328,0.0587,39.7700,71,96,580633
1.8328,0.0635,39.6900,71,96,580637
1.8280,0.0538,39.8800,71,96,580640
1.8328,0.0440,39.8800,71,96,580643
1.8671,0.0587,39.7200,71,96,580647
1.8182,0.0538,39.6200,71,96,580652
1.8084,0.0587,39.8300,71,96,580656
1.8377,0.0489,39.5600,71,96,580659
1.8084,0.0538,39.8500,71,96,580662
1.8182,0.0489,39.9100,71,96,580666
1.8328,0.0587,39.7500,71,96,580669
1.8182,0.0538,39.9100,71,96,580672
1.8622,0.0440,39.5100,71,96,580675
1.8280,0.0489,39.7500,71,96,580679
1.8328,0.0440,39.8500,71,96,580682
1.8377,0.0538,39.8500,71,96,580685
1.8231,0.0538,39.8800,71,96,580689
1.8719,0.0929,39.5100,71,96,580692
1.8231,0.0587,39.7500,71,96,580696
1.8133,0.0733,39.7700,71,96,580700
1.8084,0.0538,39.8300,71,96,580703
1.8182,0.0538,39.8500,71,96,580706
1.8573,0.0587,39.6200,71,96,580710
1.8328,0.0538,39.8300,71,96,580713
1.8524,0.0538,39.6700,71,96,580716
1.8328,0.0538,39.8500,71,96,580720
1.8328,0.0587,39.8800,71,96,580723
1.8475,0.0587,39.7500,71,96,580726
1.8475,0.0538,39.8500,71,96,580730
1.8622,0.0587,39.6400,71,96,580733
1.8328,0.0538,39.8500,71,96,580737
1.8475,0.0440,39.8500,71,96,580740
1.8671,0.0538,39.6900,71,96,580744
1.8573,0.0538,39.8300,71,96,580747
1.8915,0.0489,39.5900,71,96,580750
1.8573,0.0538,39.8500,71,96,580754
1.8573,0.0489,39.9100,71,96,580757
1.8573,0.0538,39.7700,71,96,580760
1.8328,0.0440,39.8800,71,96,580764
1.8719,0.0538,39.5100,71,96,580767
1.8328,0.0587,39.7500,71,96,580770
1.8182,0.0489,39.8800,71,96,580774
1.8377,0.0538,39.8500,71,96,580777
1.8377,0.0489,39.8500,71,96,580781
1.9013,0.0684,39.5600,71,96,580785
1.8475,0.0587,39.8000,71,96,580788
1.8475,0.0489,39.7500,71,96,580791
1.8377,0.0538,39.8300,71,96,580794
1.8622,0.0538,39.8500,71,96,580798
1.8768,0.0635,39.6700,71,96,580801
1.8573,0.0538,39.8500,71,96,580804
1.8622,0.0538,39.6700,71,96,580808
1.8377,0.0342,39.8800,71,96,580811
1.8524,0.0489,39.8500,71,96,580814
1.8719,0.0587,39.8300,71,96,580818
1.8671,0.0342,39.8300,71,96,580822
1.9159,0.0587,39.6900,71,96,580825
1.8915,0.0538,39.8500,71,96,580829
1.8964,0.0440,39.8500,71,96,580832
1.9159,0.0587,39.7200,71,96,580835
1.8964,0.0489,39.8500,71,96,580839
1.9404,0.0489,39.5600,71,96,580842
1.9404,0.0538,39.7200,71,96,580845
1.9501,0.0440,39.8800,71,96,580848
1.9795,0.0538,39.8000,71,96,580852
1.9697,0.0538,39.8500,71,96,580855
2.0235,0.0538,39.5100,71,96,580858
1.9697,0.0489,39.8300,71,96,580862
1.9746,0.0538,39.8500,71,96,580866
1.9795,0.0587,39.8000,71,96,580869
1.9648,0.0538,39.8800,71,96,580873
2.0039,0.0684,39.5100,71,96,580876
1.9599,0.0538,39.7200,71,96,580879
1.9404,0.0929,39.7500,71,96,580883
1.9355,0.0538,39.8300,71,96,580886
1.9208,0.0587,39.8500,71,96,580889
1.9599,0.0635,39.6700,71,96,580893
1.9013,0.0587,39.8300,71,96,580896
1.8817,0.0489,39.7200,71,96,580899
1.8475,0.0538,39.8500,71,96,580902
1.8426,0.0684,39.8500,71,96,580907
1.8719,0.0587,39.6400,71,96,580910
1.8231,0.0342,39.8500,71,96,580913
1.8426,0.0538,39.5600,71,96,580917
1.8182,0.0489,39.8300,71,96,580920
1.7791,0.0538,39.8800,71,96,580923
1.7791,0.0538,39.7700,71,96,580927
1.7595,0.0635,39.8300,71,96,580930
1.7791,0.0489,39.5900,71,96,580933
1.7693,0.0538,39.8300,71,96,580937
1.7498,0.0489,39.8000,71,96,580940
1.7693,0.0587,39.7200,71,96,580943
1.7498,0.0538,39.8800,71,96,580947
1.7937,0.0635,39.5100,71,96,580951
1.7644,0.0489,39.7500,71,96,580954
1.7791,0.0440,39.8800,71,96,580957
1.7937,0.0587,39.8000,71,96,580961
1.8035,0.0342,39.8500,71,96,580964
1.8475,0.0587,39.4800,71,96,580967
1.8328,0.0587,39.7700,71,96,580971
1.7791,0.0440,39.8300,71,96,580974
1.7693,0.0538,39.8800,71,96,580977
1.7693,0.0831,39.8300,71,96,580981
1.8133,0.0587,39.6200,71,96,580984
1.7791,0.0538,39.8300,71,96,580987
1.8133,0.0489,39.7700,71,96,580992
1.8280,0.0538,39.8300,71,96,580995
1.8671,0.0538,39.8300,71,96,580998
1.9404,0.0587,39.7500,71,96,581002
1.9990,0.0538,39.8500,71,96,581005
2.1457,0.0342,39.6900,71,96,581008
2.2825,0.0538,39.8300,71,96,581011
2.4780,0.0538,39.8500,71,96,581015
2.6686,0.0538,39.7500,71,96,581018
2.7322,0.0342,39.8500,71,96,581021
2.6344,0.0489,39.5900,71,96,581025
2.2972,0.0538,39.8800,71,96,581028
1.9648,0.0489,39.8500,71,96,581031
1.7107,0.0538,39.6900,71,96,581036
1.4907,0.0538,39.8500,71,96,581039
1.3636,0.0489,39.5100,71,96,581042
1.2317,0.0538,39.7700,71,96,581046
1.1730,0.0538,39.8800,71,96,581049
1.2170,0.0587,39.8000,71,96,581052
1.3001,0.0587,39.8800,71,96,581056
1.4663,0.0587,39.5100,71,96,581059
1.5347,0.0538,39.8000,71,96,581062
1.6227,0.0489,39.8000,71,96,581065
1.7009,0.0587,39.8300,71,96,581069
1.7351,0.0489,39.8800,71,96,581072
1.8280,0.0733,39.6200,71,96,581075
1.8280,0.0538,39.8800,71,96,581080
1.8768,0.0538,39.7200,71,96,581083
1.8328,0.0538,39.8300,71,96,581086
1.8426,0.0538,39.8800,71,96,581090
1.9062,0.0587,39.7500,71,96,581093
1.8671,0.0538,39.9100,71,96,581096
1.9062,0.0538,39.6700,71,96,581100
1.8866,0.0587,39.8500,71,96,581103
1.8915,0.0489,39.8500,71,96,581106
1.9159,0.0635,39.6700,71,96,581110
1.8915,0.0538,39.8500,71,96,581113
1.9355,0.0440,39.5900,71,96,581116
1.8866,0.0489,39.7200,71,96,581120
1.8768,0.0440,39.8800,71,96,581124
1.8719,0.0538,39.7700,71,96,581127
1.8768,0.0538,39.8800,71,96,581130
1.9110,0.0635,39.5100,71,96,581134
1.8719,0.0489,39.8000,71,96,581137
1.8768,0.0489,39.8300,71,96,581140
1.8915,0.0538,39.7700,71,96,581144
1.8719,0.0538,39.8800,71,96,581147
1.9208,0.0342,39.4800,71,96,581150
1.8915,0.0587,39.6900,71,96,581154
1.8915,0.0440,39.8000,71,96,581157
1.9013,0.0587,39.8300,71,96,581160
1.9110,0.0538,39.9100,71,96,581165
1.9844,0.0538,39.6700,71,96,581168
1.9404,0.0538,39.8000,71,96,581171
1.9599,0.0440,39.6900,71,96,581174
1.9453,0.0489,39.8500,71,96,581178
1.9550,0.0538,39.8500,71,96,581181
1.9892,0.0684,39.6200,71,96,581184
1.9599,0.0538,39.8500,71,96,581188
1.9892,0.0587,39.6900,71,96,581191
1.9697,0.0538,39.8300,71,96,581194
1.9795,0.0538,39.8500,71,96,581198
1.9892,0.0587,39.7700,71,96,581201
1.9844,0.0538,39.8500,71,96,581204
2.0137,0.0587,39.5900,71,96,581209
1.9892,0.0538,39.8300,71,96,581212
1.9990,0.0831,39.8800,71,96,581215
2.0235,0.0538,39.7200,71,96,581219
2.0039,0.0538,39.8500,71,96,581222
2.0772,0.0587,39.5400,71,96,581225
2.0088,0.0440,39.8000,71,96,581228
2.0235,0.0489,39.8500,71,96,581232
2.0479,0.0587,39.8000,71,96,581235
2.0479,0.0587,39.8800,71,96,581238
2.1163,0.0587,39.4800,71,96,581242
2.0870,0.0440,39.7700,71,96,581245
2.0821,0.0342,39.8300,71,96,581249
2.1017,0.0538,39.8500,71,96,581253
2.1114,0.0538,39.8800,71,96,581256
2.1896,0.0635,39.5600,71,96,581259
2.1750,0.0587,39.7500,71,96,581264
2.1505,0.0489,39.8300,71,96,581267
2.1701,0.0538,39.6900,71,96,581271
2.1261,0.0635,39.8500,71,96,581274
2.1163,0.0538,39.8800,71,96,581277
2.1261,0.0587,39.7200,71,96,581280
2.0626,0.0538,39.8300,71,96,581284
2.0577,0.0489,39.6200,71,96,581287
2.0088,0.0538,39.8500,71,96,581291
1.9892,0.0538,39.8800,71,96,581295
1.9795,0.0587,39.6900,71,96,581298
1.9159,0.0538,39.8800,71,96,581301
1.9110,0.0880,39.5400,71,96,581305
1.8524,0.0538,39.7700,71,96,581308
1.7986,0.0587,39.8500,71,96,581311
1.7742,0.0538,39.9100,71,96,581315
1.7498,0.0440,39.8500,71,96,581318
1.7742,0.0587,39.5600,71,96,581321
1.7253,0.0538,39.8000,71,96,581325
1.7253,0.0489,39.7700,71,96,581328
1.7302,0.0538,39.8500,71,96,581331
1.7155,0.0782,39.8300,71,96,581335
1.7546,0.0635,39.6400,71,96,581339
1.7155,0.0587,39.7700,71,96,581342
1.7107,0.0489,39.7200,71,96,581345
1.6960,0.0587,39.8300,71,96,581349
1.7058,0.0538,39.8500,71,96,581352
1.7302,0.0587,39.7500,71,96,581355
1.7155,0.0538,39.8800,71,96,581359
1.7449,0.0342,39.6700,71,96,581362
1.7302,0.0733,39.8500,71,96,581365
1.7498,0.0538,39.8500,71,96,581369
1.7791,0.0587,39.6700,71,96,581372
1.7498,0.0538,39.8300,71,96,581376
1.7693,0.0587,39.6400,71,96,581380
1.7449,0.0489,39.7500,71,96,581383
1.7400,0.0538,39.8500,71,96,581386
1.7498,0.0538,39.7500,71,96,581389
1.7351,0.0538,39.8500,71,96,581393
1.7840,0.0635,39.5100,71,96,581396
1.7546,0.0538,39.8500,71,96,581399
1.7595,0.0538,39.8500,71,96,581403
1.7840,0.0587,39.8000,71,96,581406
1.7742,0.0440,39.8500,71,96,581409
1.8328,0.0587,39.4800,71,96,581413
1.7937,0.0538,39.7200,71,96,581416
1.7742,0.0489,39.8000,71,96,581420
1.7742,0.0538,39.8500,71,96,581424
1.7742,0.0440,39.8500,71,96,581427
1.8328,0.0635,39.6400,71,96,581430
1.8084,0.0635,39.8000,71,96,581434
1.8035,0.0342,39.7200,71,96,581437
1.7937,0.0440,39.8300,71,96,581440
1.7889,0.0538,39.8800,71,96,581443
1.8231,0.0587,39.6200,71,96,581447
1.7937,0.0538,39.8500,71,96,581450
1.8377,0.0342,39.6700,71,96,581453
1.8084,0.0538,39.8300,71,96,581457
1.8084,0.0489,39.8800,71,96,581460
1.8084,0.0587,39.7500,71,96,581464
1.7937,0.0440,39.8500,71,96,581468
1.8231,0.0489,39.6400,71,96,581471
1.7937,0.0440,39.7700,71,96,581474
1.7986,0.0538,39.9100,71,96,581478
1.8182,0.0538,39.6900,71,96,581481
1.8133,0.0538,39.8500,71,96,581484
1.8573,0.0538,39.5400,71,96,581487
1.8133,0.0684,39.8300,71,96,581491
1.8133,0.0538,39.8500,71,96,581494
1.8328,0.0587,39.7700,71,96,581497
1.8084,0.0538,39.8500,71,96,581501
1.8622,0.0538,39.4800,71,96,581505
1.8328,0.0538,39.7700,71,96,581508
1.8377,0.0342,39.8300,71,96,581512
1.8377,0.0635,39.8500,71,96,581515
1.8426,0.0538,39.8500,71,96,581518
1.8915,0.0635,39.5900,71,96,581522
1.8328,0.0538,39.8000,71,96,581525
1.8280,0.0587,39.7500,71,96,581528
1.8231,0.0538,39.8500,71,96,581532
1.8328,0.0538,39.8500,71,96,581535
1.8573,0.0587,39.8000,71,96,581538
1.8377,0.0538,39.8500,71,96,581542
1.8377,0.0538,39.6700,71,96,581545
1.8035,0.0342,39.8500,71,96,581549
1.7986,0.0684,39.8800,71,96,581552
1.8133,0.0538,39.7700,71,96,581556
1.8084,0.0538,39.8500,71,96,581559
1.8377,0.0440,39.6700,71,96,581562
1.8084,0.0538,39.8500,71,96,581566
1.8182,0.0489,39.8800,71,96,581569
1.8328,0.0587,39.6900,71,96,581572
1.8182,0.0538,39.8500,71,96,581576
1.8622,0.0538,39.5600,71,96,581579
1.8524,0.0538,39.7500,71,96,581582
1.8475,0.0489,39.8500,71,96,581586
1.8622,0.0587,39.8300,71,96,581590
1.8377,0.0538,39.8500,71,96,581593
1.8719,0.0733,39.4800,71,96,581596
1.8280,0.0538,39.7700,71,96,581600
1.8231,0.0538,39.8300,71,96,581603
1.8328,0.0538,39.8000,71,96,581606
1.8475,0.0538,39.8500,71,96,581610
1.8768,0.0684,39.5600,71,96,581613
1.8377,0.0587,39.7700,71,96,581616
1.8280,0.0684,39.7200,71,96,581620
1.8231,0.0538,39.8500,71,96,581623
1.8328,0.0538,39.8500,71,96,581626
1.8768,0.0635,39.7200,71,96,581630
1.8622,0.0538,39.8300,71,96,581634
1.8719,0.0538,39.6900,71,96,581637
1.8328,0.0538,39.8800,71,96,581641
1.8231,0.0489,39.8500,71,96,581644
1.8377,0.0587,39.6700,71,96,581647
1.8035,0.0538,39.8500,71,96,581651
1.8377,0.0587,39.6400,71,96,581654
1.8280,0.0342,39.7700,71,96,581657
1.8475,0.0635,39.8800,71,96,581660
1.8817,0.0587,39.7200,71,96,581664
1.8719,0.0587,39.8800,71,96,581667
1.9110,0.0538,39.5600,71,96,581670
1.8964,0.0538,39.8000,71,96,581675
1.8915,0.0538,39.8800,71,96,581678
1.9306,0.0587,39.8000,71,96,581681
1.8915,0.0538,39.8500,71,96,581685
1.9453,0.0587,39.4800,71,96,581688
1.9110,0.0538,39.7200,71,96,581691
1.9159,0.0342,39.8300,71,96,581695
1.9306,0.0587,39.8500,71,96,581698
1.9355,0.0538,39.8300,71,96,581701
2.0283,0.0684,39.6400,71,96,581705
1.9697,0.0587,39.7700,71,96,581708
1.9746,0.0489,39.7500,71,96,581711
1.9648,0.0587,39.8300,71,96,581714
1.9648,0.0538,39.8500,71,96,581719
1.9844,0.0587,39.6200,71,96,581722
1.9453,0.0538,39.9100,71,96,581725
1.9648,0.0538,39.6700,71,96,581729
1.9257,0.0538,39.8300,71,96,581732
1.9159,0.0342,39.8500,71,96,581735
1.9110,0.0635,39.7200,71,96,581739
1.8671,0.0538,39.8500,71,96,581742
1.8719,0.0587,39.6400,71,96,581745
1.8328,0.0489,39.8800,71,96,581749
1.8426,0.0538,39.8500,71,96,581752
1.8573,0.0538,39.6700,71,96,581755
1.8280,0.0538,39.8500,71,96,581760
1.8475,0.0538,39.5100,71,96,581763
1.7889,0.0489,39.8300,71,96,581766
1.7693,0.0538,39.8500,71,96,581770
1.7693,0.0587,39.7700,71,96,581773
1.7498,0.0587,39.9100,71,96,581776
1.8182,0.0587,39.4600,71,96,581780
1.7498,0.0538,39.7200,71,96,581783
1.7351,0.0440,39.8000,71,96,581786
1.7351,0.0587,39.8300,71,96,581789
1.7351,0.0538,39.8500,71,96,581793
1.7937,0.0587,39.5900,71,96,581796
1.7595,0.0538,39.8000,71,96,581799
1.7986,0.0489,39.7200,71,96,581804
1.7693,0.0538,39.8500,71,96,581807
1.7693,0.0587,39.8800,71,96,581810
1.8035,0.0538,39.6700,71,96,581814
1.7889,0.0538,39.8300,71,96,581817
1.8084,0.0635,39.6700,71,96,581820
1.7791,0.0538,39.8500,71,96,581824
1.7791,0.0489,39.8500,71,96,581827
1.7742,0.0538,39.7200,71,96,581830
1.7644,0.0538,39.8800,71,96,581834
1.8035,0.0538,39.6200,71,96,581837
1.8035,0.0538,39.8300,71,96,581840
1.8475,0.0489,39.8500,71,96,581843
1.9306,0.0587,39.6200,71,96,581848
2.0235,0.0538,39.8800,71,96,581851
2.2239,0.0587,39.6200,71,96,581854
2.3900,0.0538,39.7200,71,96,581858
2.5806,0.0538,39.8500,71,96,581861
2.7664,0.0587,39.8000,71,96,581864
2.7566,0.0538,39.8500,71,96,581868
2.6051,0.0684,39.4800,71,96,581871
1.2757,0.0587,39.6400,70,96,581876
1.1828,0.0538,39.8300,70,96,581879
1.1828,0.0684,39.6700,70,96,581882
1.2170,0.0538,39.8500,70,96,581886
1.3245,0.0587,39.8500,70,96,581890
1.4418,0.0587,39.7700,70,96,581893
1.5494,0.0587,39.8300,70,96,581897
1.6520,0.0587,39.6900,70,96,581900
1.6911,0.0538,39.8500,70,96,581903
1.7400,0.0880,39.8500,70,96,581907
1.7889,0.0587,39.7200,70,96,581910
1.8084,0.0587,39.8500,70,96,581913
1.8182,0.0538,39.5600,70,96,581916
1.8084,0.0538,39.7500,70,96,581920
1.8182,0.0538,39.8800,70,96,581923
1.8573,0.0587,39.7700,70,96,581926
1.8573,0.0538,39.8800,70,96,581931
1.9355,0.0587,39.5100,70,96,581934
1.8817,0.0538,39.7700,70,96,581937
1.8768,0.0538,39.8800,70,96,581941
1.8719,0.0733,39.8000,70,96,581944
1.8719,0.0538,39.8500,70,96,581947
1.9257,0.0733,39.5400,70,96,581951
1.8768,0.0587,39.7700,70,96,581954
1.8573,0.0489,39.7700,70,96,581957
1.8475,0.0538,39.8300,70,96,581961
1.8573,0.0538,39.8500,70,96,581964
1.9062,0.0929,39.6900,70,96,581967
1.8915,0.0538,39.8500,70,96,581970
1.9062,0.0538,39.6900,70,96,581975
1.8915,0.0538,39.8500,70,96,581978
1.8964,0.0538,39.8500,70,96,581981
1.9306,0.0587,39.6700,70,96,581985
1.9062,0.0342,39.8500,70,96,581988
1.9355,0.0587,39.7700,70,96,581991
1.9013,0.0489,39.8000,70,96,581995
1.9110,0.0538,39.8300,70,96,581998
1.9257,0.0587,39.6900,70,96,582001
1.9013,0.0587,39.8500,70,96,582005
1.9404,0.0538,39.6200,70,96,582008
1.9355,0.0538,39.7500,70,96,582011
1.9501,0.0538,39.8500,70,96,582016
1.9746,0.0587,39.7500,70,96,582019
1.9453,0.0538,39.8500,70,96,582022
1.9892,0.0587,39.5100,70,96,582025
1.9355,0.0342,39.7500,70,96,582029
1.9355,0.0489,39.8300,70,96,582032
1.9453,0.0587,39.8500,70,96,582035
1.9599,0.0538,39.8800,70,96,582039
2.0332,0.0684,39.5600,70,96,582042
2.0039,0.0587,39.8000,70,96,582045
1.9941,0.0489,39.7700,70,96,582049
2.0039,0.0587,39.8500,70,96,582052
1.9941,0.0538,39.8800,70,96,582055
2.0381,0.0684,39.6200,70,96,582060
2.0186,0.0538,39.8300,70,96,582063
2.0430,0.0587,39.6900,70,96,582066
2.0283,0.0538,39.8500,70,96,582070
2.0332,0.0538,39.8500,70,96,582073
2.0723,0.0587,39.6700,70,96,582076
2.0626,0.0587,39.8300,70,96,582079
2.1065,0.0587,39.6900,70,96,582083
2.0870,0.0538,39.8500,70,96,582086
2.1017,0.0538,39.8800,70,96,582089
2.1212,0.0538,39.7200,70,96,582093
2.1163,0.0538,39.8800,70,96,582096
2.1457,0.0538,39.6200,70,96,582099
2.1212,0.0538,39.8500,70,96,582104
2.1554,0.0538,39.8500,70,96,582107
2.1359,0.0635,39.7500,70,96,582110
2.1017,0.0538,39.8800,70,96,582114
2.1359,0.0538,39.5100,70,96,582117
2.0919,0.0587,39.7500,70,96,582120
2.0479,0.0538,39.8500,70,96,582123
2.0332,0.0587,39.8300,70,96,582127
1.9941,0.0538,39.8500,70,96,582130
2.0137,0.0538,39.4800,70,96,582133
1.9257,0.0587,39.7700,70,96,582137
1.8768,0.0489,39.8000,70,96,582140
1.8475,0.1075,39.8500,70,96,582144
1.8133,0.0538,39.8500,70,96,582148
1.8671,0.0635,39.6200,70,96,582151
1.7791,0.0782,39.8000,70,96,582154
1.7693,0.0538,39.6900,70,96,582158
1.7351,0.0538,39.8300,70,96,582161
1.7155,0.0538,39.8500,70,96,582164
1.7253,0.0635,39.7500,70,96,582168
1.6960,0.0538,39.8000,70,96,582171
1.7058,0.0635,39.6900,70,96,582174
1.6764,0.0538,39.8300,70,96,582177
1.6960,0.0587,39.8800,70,96,582181
1.7155,0.0635,39.6400,70,96,582184
1.6911,0.0538,39.8500,70,96,582188
1.7107,0.0538,39.5900,70,96,582192
1.6862,0.0538,39.7200,70,96,582195
1.6764,0.0880,39.8800,70,96,582198
1.6862,0.0587,39.6200,70,96,582202
1.6764,0.0587,39.8500,70,96,582205
1.7155,0.0538,39.5100,70,96,582208
1.6911,0.0538,39.7700,70,96,582212
1.6911,0.0635,39.8500,70,96,582215
1.7204,0.0342,39.7700,70,96,582218
1.7204,0.0538,39.7500,70,96,582222
1.7791,0.0635,39.5100,70,96,582225
1.7449,0.0635,39.7200,70,96,582228
1.7400,0.0489,39.8000,70,96,582232
1.7302,0.0587,39.8300,70,96,582236
1.7155,0.0538,39.8300,70,96,582239
1.7595,0.0733,39.6400,70,96,582242
1.7253,0.0587,39.8300,70,96,582246
1.7253,0.0587,39.7200,70,96,582249
1.7204,0.0587,39.8300,70,96,582252
1.7400,0.0538,39.8500,70,96,582256
1.7840,0.0635,39.8000,70,96,582259
1.7595,0.0587,39.8300,70,96,582262
1.7840,0.0538,39.6700,70,96,582266
1.7595,0.0342,39.8500,70,96,582269
1.7595,0.0538,39.8500,70,96,582273
1.7889,0.0587,39.7200,70,96,582277
1.7644,0.0831,39.8300,70,96,582280
1.7742,0.0538,39.6400,70,96,582283
1.7449,0.0587,39.8000,70,96,582286
1.7546,0.0538,39.8500,70,96,582290
1.7595,0.0489,39.7200,70,96,582293
1.7644,0.0538,39.8500,70,96,582296
1.8035,0.0538,39.5400,70,96,582300
1.7791,0.0489,39.7500,70,96,582303
1.7986,0.0342,39.8800,70,96,582306
1.8133,0.0635,39.7700,70,96,582310
1.7986,0.0538,39.6700,70,96,582313
1.8426,0.0587,39.4600,70,96,582317
1.7986,0.0587,39.7200,70,96,582321
1.7889,0.0489,39.8300,70,96,582324
1.8084,0.0587,39.8300,70,96,582327
1.7937,0.0538,39.8800,70,96,582331
1.8426,0.0587,39.6200,70,96,582334
1.7937,0.0635,39.8000,70,96,582337
1.7937,0.0538,39.7200,70,96,582341
1.7644,0.0587,39.8500,70,96,582344
1.7644,0.0538,39.8800,70,96,582347
1.7937,0.0684,39.6700,70,96,582350
1.7791,0.0538,39.7200,70,96,582354
1.8231,0.0587,39.6700,70,96,582358
1.7742,0.0587,39.9600,70,96,582361
1.7791,0.0538,39.8500,70,96,582365
1.7840,0.0635,39.6900,70,96,582368
1.7791,0.0587,39.8500,70,96,582371
1.7986,0.0538,39.6200,70,96,582375
1.7791,0.0538,39.8500,70,96,582378
1.7937,0.0489,39.8500,70,96,582381
1.8231,0.0587,39.6700,70,96,582385
1.8035,0.0538,39.8500,70,96,582388
1.8475,0.0587,39.5100,70,96,582391
1.8182,0.0538,39.7500,70,96,582395
1.8280,0.0538,39.8500,70,96,582398
1.8035,0.0587,39.7700,70,96,582402
1.7986,0.0587,39.8500,70,96,582405
1.8573,0.0587,39.5600,70,96,582409
1.8133,0.0538,39.7700,70,96,582412
1.8084,0.0538,39.7700,70,96,582415
1.8182,0.0538,39.8300,70,96,582419
1.8035,0.0538,39.8500,70,96,582422
1.8377,0.0684,39.6200,70,96,582425
1.8084,0.0587,39.8000,70,96,582429
1.8182,0.0489,39.6900,70,96,582432
1.8084,0.0538,39.8500,70,96,582435
1.8231,0.0538,39.8500,70,96,582439
1.8328,0.0635,39.7500,70,96,582443
1.8084,0.0587,39.8500,70,96,582446
1.8182,0.0538,39.7500,70,96,582449
1.7889,0.0538,39.8800,70,96,582453
1.7889,0.0587,39.8800,70,96,582456
1.8182,0.0635,39.6900,70,96,582459
1.7937,0.0587,39.8300,70,96,582463
1.8231,0.0538,39.6400,70,96,582466
1.8328,0.0342,39.7500,70,96,582469
1.8035,0.0538,39.8300,70,96,582473
1.8280,0.0587,39.7500,70,96,582476
1.8182,0.0538,39.8500,70,96,582479
1.8524,0.0587,39.5400,70,96,582483
1.8573,0.0684,39.5400,70,96,582488
1.8182,0.0635,39.7700,70,96,582492
1.8182,0.0538,39.7500,70,96,582495
1.8182,0.0587,39.8500,70,96,582498
1.8280,0.0538,39.8800,70,96,582502
1.8671,0.0733,39.6900,70,96,582505
1.8328,0.0587,39.8000,70,96,582508
1.8377,0.0587,39.6700,70,96,582512
1.8133,0.0538,39.8500,70,96,582515
1.8133,0.0440,39.8500,70,96,582518
1.8524,0.0635,39.6700,70,96,582521
1.8328,0.0538,39.8300,70,96,582525
1.8719,0.0635,39.6900,70,96,582529
1.8573,0.0489,39.8000,70,96,582532
1.8622,0.0538,39.8300,70,96,582536
1.8866,0.0587,39.7200,70,96,582539
1.8719,0.0635,39.8300,70,96,582542
1.9013,0.0538,39.4800,70,96,582546
1.8671,0.0587,39.7500,70,96,582549
1.8817,0.0538,39.8300,70,96,582552
1.9110,0.0538,39.7700,70,96,582556
1.9062,0.0538,39.8500,70,96,582559
1.9697,0.0587,39.5100,70,96,582562
1.9550,0.0489,39.7500,70,96,582566
1.9257,0.0538,39.8000,70,96,582569
1.9599,0.0587,39.8000,70,96,582573
1.9355,0.0538,39.8800,70,96,582577
2.0283,0.0635,39.5400,70,96,582580
1.9453,0.0635,39.7500,70,96,582583
1.9159,0.0587,39.7500,70,96,582586
1.9013,0.0587,39.8300,70,96,582590
1.8915,0.0587,39.8500,70,96,582593
1.9110,0.0635,39.6200,70,96,582596
1.8622,0.0587,39.8500,70,96,582600
1.8671,0.0587,39.6900,70,96,582603
1.8426,0.0538,39.8500,70,96,582606
1.8328,0.0538,39.8500,70,96,582610
1.8475,0.0587,39.6700,70,96,582614
1.8280,0.0635,39.8300,70,96,582617
1.8133,0.0635,39.8500,70,96,582621
1.7937,0.0587,39.8500,70,96,582624
1.7595,0.0538,39.9300,70,96,582627
1.7791,0.0635,39.6900,70,96,582630
1.7449,0.0538,39.8500,70,96,582634
1.7595,0.0587,39.5900,70,96,582637
1.7204,0.0587,39.8300,70,96,582640
1.7204,0.0342,39.8800,70,96,582644
1.7302,0.0635,39.7500,70,96,582647
1.7204,0.0538,39.8500,70,96,582650
1.7595,0.0635,39.5100,70,96,582654
1.7351,0.0587,39.7500,70,96,582658
1.7253,0.0489,39.8500,70,96,582661
1.7400,0.0831,39.8000,70,96,582665
1.7449,0.0587,39.8500,70,96,582668
1.7986,0.0635,39.5400,70,96,582671
1.7546,0.0587,39.7700,70,96,582675
1.7449,0.0489,39.7700,70,96,582678
1.7498,0.0587,39.8500,70,96,582681
1.7449,0.0538,39.8300,70,96,582684
1.7986,0.0538,39.6400,70,96,582688
1.7644,0.0587,39.8300,70,96,582691
1.7546,0.0538,39.7200,70,96,582694
1.7253,0.0684,39.8500,70,96,582699
1.7302,0.0538,39.8500,70,96,582702
1.7889,0.0635,39.7700,70,96,582705
1.8328,0.0782,39.8300,70,96,582709
1.9648,0.0635,39.7200,70,96,582712
2.0870,0.0538,39.8500,70,96,582715
2.2727,0.0538,39.8800,70,96,582719
2.5415,0.0684,39.6900,70,96,582722
2.6784,0.0635,39.8500,70,96,582725
2.8299,0.0538,39.5900,70,96,582729
2.7028,0.0538,39.7200,70,96,582732
2.3851,0.0587,39.8500,70,96,582735
2.0186,0.0635,39.7700,70,96,582739
1.6569,0.0538,39.8500,70,96,582743
1.4565,0.0635,39.5400,70,96,582746
1.2610,0.0538,39.8500,70,96,582749
1.1388,0.0440,39.8500,70,96,582753
1.1144,0.0587,39.8000,70,96,582756
1.1535,0.0538,39.8500,70,96,582759
1.2952,0.0587,39.5100,70,96,582763
1.3978,0.0538,39.7500,70,96,582766
1.4956,0.0489,39.8000,70,96,582769
1.5934,0.0538,39.8300,70,96,582773
1.6569,0.0538,39.8500,70,96,582776
1.7449,0.0684,39.6700,70,96,582779
1.7595,0.0635,39.8000,70,96,582784
1.7791,0.0538,39.6900,70,96,582787
1.7986,0.0587,39.8500,70,96,582790
1.8084,0.0538,39.8500,70,96,582793
1.8524,0.0684,39.6200,70,96,582797
1.8328,0.0538,39.9100,70,96,582800
1.8573,0.0587,39.6900,70,96,582803
1.8328,0.0538,39.8000,70,96,582807
1.8426,0.0587,39.8500,70,96,582810
1.8573,0.0587,39.7200,70,96,582813
1.8328,0.0342,39.8500,70,96,582817
1.8573,0.0538,39.6200,70,96,582820
1.8377,0.0538,39.7700,70,96,582823
1.8622,0.0587,39.8800,70,96,582828
1.8866,0.0587,39.7200,70,96,582831
1.8719,0.0635,39.8500,70,96,582834
1.9062,0.0587,39.5600,70,96,582838
1.8524,0.0489,39.7700,70,96,582841
1.8475,0.0538,39.8500,70,96,582844
1.8475,0.0587,39.8300,70,96,582847
1.8426,0.0587,39.8800,70,96,582851
1.9013,0.0587,39.3800,70,96,582854
1.8768,0.0635,39.7700,70,96,582857
1.8768,0.0489,39.8000,70,96,582861
1.8915,0.0587,39.8500,70,96,582864
1.8866,0.0538,39.8500,70,96,582867
1.9355,0.0635,39.6200,70,96,582872
1.9062,0.0587,39.8300,70,96,582875
1.9013,0.0538,39.6900,70,96,582878
1.8866,0.0587,39.8500,70,96,582882
1.8915,0.0538,39.9100,70,96,582885
1.9355,0.0635,39.6700,70,96,582888
1.9208,0.0587,39.8300,70,96,582892
1.9550,0.0587,39.6900,70,96,582895
1.9257,0.0538,39.8800,70,96,582898
1.9355,0.0538,39.8500,70,96,582901
1.9453,0.0538,39.7200,70,96,582905
1.9404,0.0342,39.8500,70,96,582908
1.9697,0.0538,39.5100,70,96,582912
1.9453,0.0538,39.8500,70,96,582916
1.9550,0.0587,39.8500,70,96,582919
1.9795,0.0635,39.8800,70,96,582922
1.9697,0.0587,39.8800,70,96,582926
2.0332,0.0587,39.5400,70,96,582929
2.0283,0.0587,39.7500,70,96,582932
2.0235,0.0489,39.8500,70,96,582936
2.0332,0.0587,39.8300,70,96,582939
2.0186,0.0538,39.8500,70,96,582942
2.0772,0.0587,39.4800,70,96,582946
2.0430,0.0635,39.7700,70,96,582949
2.0381,0.0489,39.8300,70,96,582952
2.0528,0.0587,39.8300,70,96,582956
2.0528,0.0538,39.8500,70,96,582960
2.1261,0.0684,39.6200,70,96,582963
2.1017,0.0538,39.8000,70,96,582966
2.1114,0.0538,39.6900,70,96,582970
2.1114,0.0587,39.8500,70,96,582973
2.1554,0.0538,39.8800,70,96,582976
2.1554,0.0635,39.7700,70,96,582980
2.1212,0.0587,39.8500,70,96,582983
2.1359,0.0587,39.6700,70,96,582986
2.0968,0.0587,39.8800,70,96,582990
2.0772,0.0489,39.8500,70,96,582993
2.0870,0.0635,39.6700,70,96,582996
2.0626,0.0587,39.8500,70,96,583001
2.0381,0.0538,39.6400,70,96,583004
1.9941,0.0587,39.7700,70,96,583007
1.9453,0.0538,39.8500,70,96,583010
1.9208,0.0587,39.7200,70,96,583014
1.8719,0.0538,39.8800,70,96,583017
1.8817,0.0538,39.5400,70,96,583020
1.8280,0.0831,39.7500,70,96,583024
1.7937,0.0538,39.8800,70,96,583027
1.7840,0.0831,39.8000,70,96,583030
1.7400,0.0538,39.8500,70,96,583034
1.7644,0.0587,39.4800,70,96,583037
1.7107,0.0538,39.6900,70,96,583041
1.6960,0.0489,39.8300,70,96,583045
1.6960,0.0587,39.7500,70,96,583048
1.6862,0.0538,39.8800,70,96,583051
1.7351,0.0684,39.5900,70,96,583055
1.7009,0.0635,39.7700,70,96,583058
1.6862,0.0538,39.7200,70,96,583061
1.6716,0.0538,39.8800,70,96,583064
1.7058,0.0538,39.8800,70,96,583068
1.7107,0.0635,39.6400,70,96,583071
1.6911,0.0587,39.8800,70,96,583074
1.7155,0.0538,39.6400,70,96,583078
1.7009,0.0538,39.8500,70,96,583081
1.7107,0.0538,39.8500,70,96,583085
1.7302,0.0635,39.7500,70,96,583089
1.6960,0.0538,39.8300,70,96,583092
1.7107,0.0489,39.6700,70,96,583095
1.6667,0.0538,39.5600,70,96,583099
1.6960,0.0489,39.8000,70,96,583103
1.7058,0.0538,39.8500,70,96,583106
1.7595,0.0684,39.7700,70,96,583110
1.7155,0.0831,39.8800,70,96,583113
1.7693,0.0587,39.4800,70,96,583116
1.7351,0.0782,39.6900,70,96,583120
1.7253,0.0489,39.8300,70,96,583123
1.7449,0.0587,39.8500,70,96,583127
1.7400,0.0538,39.8800,70,96,583131
1.8280,0.0538,39.6200,70,96,583134
1.7644,0.0587,39.8000,70,96,583137
1.7742,0.0538,39.7200,70,96,583141
1.7546,0.0831,39.8500,70,96,583144
1.7498,0.0538,39.8500,70,96,583147
1.7889,0.0538,39.6700,70,96,583151
1.7546,0.0587,39.8300,70,96,583154
1.8035,0.0587,39.6700,70,96,583157
1.7546,0.0538,39.8800,70,96,583161
1.7693,0.0538,39.8800,70,96,583164
1.7840,0.0684,39.7500,70,96,583168
1.7840,0.0538,39.8500,70,96,583171
1.8133,0.0538,39.6200,70,96,583175
1.7937,0.0538,39.8800,70,96,583178
1.8328,0.0587,39.8800,70,96,583181
1.8133,0.0587,39.6700,70,96,583185
1.7889,0.0538,39.8500,70,96,583188
1.8035,0.0587,39.5100,70,96,583191
1.7693,0.0587,39.5600,70,96,583195
1.7498,0.0538,39.8500,70,96,583198
1.7595,0.0684,39.8000,70,96,583201
1.7546,0.0587,39.8800,70,96,583205
1.8084,0.0587,39.4800,70,96,583208
1.7791,0.0587,39.7700,70,96,583212
1.7791,0.0489,39.8300,70,96,583216
1.7937,0.0587,39.8500,70,96,583219
1.7937,0.0587,39.8500,70,96,583222
1.8524,0.0684,39.6200,70,96,583225
1.8182,0.0684,39.7700,70,96,583229
1.8231,0.0538,39.7200,70,96,583232
1.8084,0.0538,39.8300,70,96,583235
1.8035,0.0587,39.8500,70,96,583239
1.8280,0.0635,39.7500,70,96,583242
1.8035,0.0635,39.8300,70,96,583245
1.8182,0.0538,39.6700,70,96,583249
1.8182,0.0342,39.8800,70,96,583252
1.8133,0.0538,39.8500,70,96,583256
1.8426,0.0635,39.6900,70,96,583260
1.8133,0.0635,39.8300,70,96,583263
1.8328,0.0538,39.6700,70,96,583266
1.8231,0.0587,39.7500,70,96,583270
1.7986,0.0538,39.8300,70,96,583273
1.8182,0.0587,39.7500,70,96,583276
1.8133,0.0635,39.8500,70,96,583280
1.8622,0.0538,39.5600,70,96,583283
1.8475,0.0587,39.7700,70,96,583286
1.8280,0.0538,39.8800,70,96,583289
1.8475,0.0684,39.8300,70,96,583293
1.8280,0.0587,39.9600,70,96,583297
1.9062,0.0587,39.4800,70,96,583300
1.8426,0.0538,39.7200,70,96,583304
1.8231,0.0489,39.8300,70,96,583307
1.8084,0.0733,39.8300,70,96,583310
1.7937,0.0635,39.7700,70,96,583314
1.8671,0.0538,39.6400,70,96,583317
1.7986,0.0587,39.8000,70,96,583320
1.8035,0.0587,39.7200,70,96,583324
1.7937,0.0587,39.8500,70,96,583327
1.8084,0.0538,39.8500,70,96,583330
1.8524,0.0635,39.5900,70,96,583334
1.8280,0.0587,39.8300,70,96,583337
1.8475,0.0587,39.6700,70,96,583341
1.8133,0.0587,39.8500,70,96,583344
1.8133,0.0635,39.8500,70,96,583348
1.8328,0.0635,39.5600,70,96,583351
1.8377,0.0538,39.8500,70,96,583354
1.8426,0.0538,39.6700,70,96,583358
1.8524,0.0538,39.7700,70,96,583361
1.8328,0.0538,39.8500,70,96,583364
1.8475,0.0587,39.6900,70,96,583368
1.8280,0.0587,39.8300,70,96,583371
1.8671,0.0587,39.5400,70,96,583374
1.8280,0.0489,39.8000,70,96,583378
1.8133,0.0538,39.8800,70,96,583382
1.8377,0.0684,39.7700,70,96,583385
1.8182,0.0538,39.8300,70,96,583389
1.8671,0.0538,39.4800,70,96,583392
1.8524,0.0587,39.7500,70,96,583395
1.8524,0.0440,39.8300,70,96,583398
1.8671,0.0587,39.8500,70,96,583402
1.8622,0.0635,39.8500,70,96,583405
1.9062,0.0635,39.5900,70,96,583408
1.8524,0.0587,39.8000,70,96,583412
1.8573,0.0440,39.7200,70,96,583415
1.8573,0.0587,39.8500,70,96,583418
1.8768,0.0587,39.8500,70,96,583422
1.9257,0.0635,39.6700,70,96,583426
1.9208,0.0538,39.8300,70,96,583429
1.9257,0.0587,39.6700,70,96,583433
1.8915,0.0587,39.8800,70,96,583436
1.8866,0.0587,39.8500,70,96,583439
1.9062,0.0538,39.7700,70,96,583443
1.9110,0.0538,39.8300,70,96,583446
1.9355,0.0538,39.6200,70,96,583449
1.9159,0.0587,39.8300,70,96,583453
1.9208,0.0635,39.8500,70,96,583456
1.9404,0.0635,39.7500,70,96,583459
1.9208,0.0587,39.8500,70,96,583462
1.9648,0.0587,39.5400,70,96,583467
1.9404,0.0538,39.7200,70,96,583470
1.9306,0.0538,39.8500,70,96,583473
1.9404,0.0635,39.8300,70,96,583477
1.9159,0.0635,39.8500,70,96,583480
1.9453,0.0635,39.4800,70,96,583483
1.8768,0.0538,39.7500,70,96,583487
1.8524,0.0489,39.9100,70,96,583490
1.8328,0.0587,39.8300,70,96,583493
1.8231,0.0538,39.8500,70,96,583497
1.8719,0.0733,39.6400,70,96,583500
1.8280,0.0587,39.8000,70,96,583503
1.8182,0.0538,39.7200,70,96,583507
1.8035,0.0587,39.8500,70,96,583511
1.7986,0.0538,39.7700,70,96,583514
1.8182,0.0684,39.7500,70,96,583517
1.7742,0.0587,39.8800,70,96,583521
1.7791,0.0538,39.6700,70,96,583524
1.7595,0.0587,39.8500,70,96,583527
1.7253,0.0538,39.7200,70,96,583531
1.7449,0.0635,39.6700,70,96,583534
1.7107,0.0489,39.8300,70,96,583537
1.7302,0.0538,39.6400,70,96,583541
1.7107,0.0684,39.7500,70,96,583544
1.7058,0.0538,39.8500,70,96,583547
1.7742,0.0587,39.7500,70,96,583552
1.7400,0.0538,39.9300,70,96,583555
1.7840,0.0587,39.5400,70,96,583558
1.7644,0.0635,39.8800,70,96,583562
1.7693,0.0440,39.8800,70,96,583565
1.7937,0.0635,39.8000,70,96,583568
1.7791,0.0587,39.8800,70,96,583571
1.8231,0.0587,39.5100,70,96,583575
1.7693,0.0538,39.7200,70,96,583578
1.7498,0.0782,39.8000,70,96,583581
1.7498,0.0587,39.8500,70,96,583585
1.7644,0.0587,39.8800,70,96,583588
1.8622,0.0684,39.6200,70,96,583591
1.8817,0.0635,39.8000,70,96,583596
1.9892,0.0538,39.7200,70,96,583599
2.1310,0.0587,39.8500,70,96,583602
2.3069,0.0538,39.8500,70,96,583606
2.5806,0.0587,39.6400,70,96,583609
2.6931,0.0684,39.8300,70,96,583612
2.7566,0.0342,39.6700,70,96,583616
2.5415,0.0635,39.8500,70,96,583619
2.2287,0.0538,39.8800,70,96,583622
1.8768,0.0684,39.6900,70,96,583625
1.5836,0.0587,39.8300,70,96,583629
1.3978,0.0782,39.6400,70,96,583632
1.2121,0.0538,39.8000,70,96,583635
1.1290,0.0587,39.8800,70,96,583640
1.1388,0.0587,39.7500,70,96,583643
1.2072,0.0587,39.8300,70,96,583646
1.3441,0.0538,39.5600,70,96,583650
1.4467,0.0538,39.8300,70,96,583653
1.5591,0.0538,39.8500,70,96,583656
1.6667,0.0635,39.8000,70,96,583660
1.7204,0.0587,39.8300,70,96,583663
1.8084,0.0635,39.5600,70,96,583666
1.7937,0.0782,39.7500,70,96,583669
1.7986,0.0342,39.8300,70,96,583673
1.8426,0.0587,39.8300,70,96,583676
1.8231,0.0538,39.8500,70,96,583680
1.8866,0.0733,39.6200,70,96,583684
1.8573,0.0587,39.8300,70,96,583687
1.8622,0.0538,39.7200,70,96,583690
1.8475,0.0538,39.8500,70,96,583694
1.8524,0.0538,39.8500,70,96,583697
1.8964,0.0342,39.6400,70,96,583700
1.8817,0.0684,39.8300,70,96,583704
1.9159,0.0587,39.6700,70,96,583707
1.8915,0.0538,39.8500,70,96,583710
1.8475,0.0538,39.9300,70,96,583715
1.8671,0.0587,39.8800,70,96,583718
1.8817,0.0733,39.7700,70,96,583723
1.8768,0.0538,39.8500,70,96,583726
1.9159,0.0587,39.5100,70,96,583729
1.8964,0.0635,39.7700,70,96,583733
1.8866,0.0538,39.8800,70,96,583736
1.8964,0.0587,39.8300,70,96,583739
1.9013,0.0538,39.8800,70,96,583743
1.9550,0.0684,39.5600,70,96,583746
1.9110,0.0929,39.7700,70,96,583749
1.9062,0.0538,39.7500,70,96,583753
1.9013,0.0587,39.8500,70,96,583756
1.9062,0.0538,39.8500,70,96,583759
1.9453,0.0684,39.6400,70,96,583762
1.9257,0.0587,39.8800,70,96,583767
1.9648,0.0587,39.6700,70,96,583770
1.9306,0.0587,39.8500,70,96,583773
1.9404,0.0538,39.8800,70,96,583777
1.9697,0.0635,39.7500,70,96,583780
1.9599,0.0538,39.8500,70,96,583783
1.9941,0.0635,39.6900,70,96,583787
1.9746,0.0587,39.8800,70,96,583790
1.9844,0.0587,39.8800,70,96,583793
2.0137,0.0635,39.8300,70,96,583797
1.9990,0.0342,39.8500,70,96,583800
2.0381,0.0538,39.5900,70,96,583803
2.0283,0.0587,39.6900,70,96,583806
2.0283,0.0538,39.8800,70,96,583811
2.0479,0.0538,39.7500,70,96,583814
2.0235,0.0587,39.8500,70,96,583817
2.0772,0.0587,39.5100,70,96,583821
2.0528,0.0587,39.7500,70,96,583824
2.0528,0.0733,39.8500,70,96,583827
2.0821,0.0635,39.8300,70,96,583831
2.0821,0.0538,39.8500,70,96,583834
2.1603,0.0684,39.4800,70,96,583837
2.1212,0.0782,39.7200,70,96,583841
2.1163,0.0538,39.8000,70,96,583844
2.1212,0.0782,39.8300,70,96,583847
2.1261,0.0538,39.8800,70,96,583851
2.1750,0.0635,39.6700,70,96,583855
2.1408,0.0587,39.9300,70,96,583858
2.1457,0.0587,39.6900,70,96,583861
2.1212,0.0538,39.8800,70,96,583865
2.1017,0.0538,39.8500,70,96,583868
2.1017,0.0635,39.6200,70,96,583871
2.0381,0.0587,39.8300,70,96,583875
2.0381,0.0684,39.6900,70,96,583878
1.9795,0.0538,39.8300,70,96,583881
1.9453,0.0538,39.8500,70,96,583885
1.9355,0.0635,39.7200,70,96,583888
1.8768,0.0538,39.8300,70,96,583891
1.8671,0.0538,39.6200,70,96,583896
1.8133,0.0538,39.7500,70,96,583899
1.7937,0.0489,39.8500,70,96,583902
1.7937,0.0635,39.6900,70,96,583906
1.7937,0.0538,39.8500,70,96,583909
1.8035,0.0587,39.5600,70,96,583912
1.7400,0.0538,39.7700,70,96,583915
1.7155,0.0538,39.8500,70,96,583919
1.7058,0.0635,39.8000,70,96,583922
1.6764,0.0587,39.8500,70,96,583925
1.7155,0.0635,39.5600,70,96,583929
1.6862,0.0587,39.7200,70,96,583932
1.6764,0.0489,39.7700,70,96,583936
1.6764,0.0587,39.8800,70,96,583940
1.6764,0.0635,39.8500,70,96,583943
1.7253,0.0587,39.6200,70,96,583946
1.7009,0.0587,39.8000,70,96,583950
1.7107,0.0538,39.6900,70,96,583953
1.6960,0.0635,39.8300,70,96,583956
1.6960,0.0538,39.8800,70,96,583960
1.7351,0.0538,39.6700,70,96,583963
1.7204,0.0587,39.8800,70,96,583966
1.7498,0.0538,39.6700,70,96,583969
1.7302,0.0587,39.8500,70,96,583973
1.7351,0.0587,39.8500,70,96,583976
1.7498,0.0587,39.7200,70,96,583980
1.7351,0.0587,39.8000,70,96,583984
1.7546,0.0782,39.6200,70,96,583987
1.7253,0.0587,39.8800,70,96,583990
1.7302,0.0342,39.9100,70,96,583994
1.7498,0.0635,39.7200,70,96,583997
1.7400,0.0587,39.9300,70,96,584000
1.7986,0.0587,39.5100,70,96,584004
1.7937,0.0587,39.8000,70,96,584007
1.8035,0.0489,39.8500,70,96,584010
1.7889,0.0587,39.8000,70,96,584014
1.7791,0.0587,39.8500,70,96,584017
1.8084,0.0635,39.4800,70,96,584020
1.7595,0.0587,39.7500,70,96,584024
1.7546,0.0489,39.8800,70,96,584028
1.7693,0.0635,39.8300,70,96,584031
1.7742,0.0538,39.8800,70,96,584034
1.8622,0.0635,39.6400,70,96,584038
1.7937,0.0635,39.8000,70,96,584041
1.8133,0.0587,39.6900,70,96,584044
1.7644,0.0587,39.8300,70,96,584048
1.7693,0.0538,39.8500,70,96,584051
1.7986,0.0635,39.7500,70,96,584054
1.7742,0.0587,39.8300,70,96,584058
1.8133,0.0684,39.6700,70,96,584061
1.7937,0.0587,39.8800,70,96,584065
1.8035,0.0587,39.8800,70,96,584069
1.8280,0.0635,39.6700,70,96,584072
1.8035,0.0587,39.8500,70,96,584075
1.8280,0.0587,39.6200,70,96,584078
1.8133,0.0587,39.7500,70,96,584082
1.8182,0.0538,39.8500,70,96,584085
1.8426,0.0635,39.8500,70,96,584088
1.8280,0.0587,39.8800,70,96,584092
1.8573,0.0587,39.5400,70,96,584095
1.8182,0.0635,39.8000,70,96,584098
1.7986,0.0538,39.9100,70,96,584102
1.8084,0.0587,39.7700,70,96,584105
1.8182,0.0538,39.8800,70,96,584109
1.9062,0.0587,39.4800,70,96,584113
1.8573,0.0538,39.6900,70,96,584116
1.8377,0.0538,39.8300,70,96,584119
1.8280,0.0587,39.8000,70,96,584122
1.8084,0.0587,39.8500,70,96,584126
1.8573,0.0733,39.6200,70,96,584129
1.8231,0.0635,39.8000,70,96,584132
1.8280,0.0538,39.6900,70,96,584136
1.8231,0.0538,39.8500,70,96,584139
1.8231,0.0587,39.8800,70,96,584142
1.8622,0.0635,39.4600,70,96,584146
1.8377,0.0587,39.8300,70,96,584150
1.8524,0.0538,39.6400,70,96,584153
1.8231,0.0587,39.8300,70,96,584157
1.8231,0.0587,39.8500,70,96,584160
1.8377,0.0635,39.7500,70,96,584163
1.8182,0.0587,39.8500,70,96,584167
1.8377,0.0538,39.6400,70,96,584170
1.7986,0.0538,39.7700,70,96,584173
1.8035,0.0538,39.9100,70,96,584177
1.8231,0.0587,39.7200,70,96,584180
1.8133,0.0587,39.8800,70,96,584183
1.8671,0.0587,39.5600,70,96,584186
1.8426,0.0489,39.8300,70,96,584190
1.8524,0.0538,39.8800,70,96,584194
1.8964,0.0538,39.8000,70,96,584197
1.8524,0.0831,39.8800,70,96,584201
1.9013,0.0587,39.4800,70,96,584204
1.8671,0.0587,39.7500,70,96,584207
1.8573,0.0538,39.8300,70,96,584211
1.8524,0.0538,39.8300,70,96,584214
1.8377,0.0538,39.8800,70,96,584217
1.8866,0.0684,39.6200,70,96,584221
1.8377,0.0489,39.8000,70,96,584224
1.8475,0.0342,39.7200,70,96,584227
1.8426,0.0538,39.8300,70,96,584231
1.8573,0.0587,39.8500,70,96,584235
1.9062,0.0684,39.6400,70,96,584238
1.8719,0.0587,39.8500,70,96,584241
1.8817,0.0929,39.6400,70,96,584245
1.8475,0.0587,39.8800,70,96,584248
1.8475,0.0342,39.8500,70,96,584251
1.8475,0.0440,39.7200,70,96,584255
1.8377,0.0587,39.8500,70,96,584258
1.8573,0.0538,39.6200,70,96,584261
1.8328,0.0587,39.9100,70,96,584265
1.8377,0.0538,39.8500,70,96,584268
1.8622,0.0635,39.7200,70,96,584271
1.8377,0.0587,39.8500,70,96,584275
1.8719,0.0538,39.5100,70,96,584279
1.8573,0.0587,39.7200,70,96,584282
1.8573,0.0733,39.8500,70,96,584286
1.8817,0.0635,39.8000,70,96,584289
1.9110,0.0538,39.8800,70,96,584292
1.9501,0.0587,39.4800,70,96,584295
1.9208,0.0587,39.7700,70,96,584299
1.9110,0.0489,39.8300,70,96,584302
1.9208,0.0684,39.8300,70,96,584305
1.9306,0.0538,39.8500,70,96,584309
1.9941,0.0733,39.5900,70,96,584312
1.9697,0.0635,39.8500,70,96,584315
1.9746,0.0587,39.7200,70,96,584320
1.9795,0.0587,39.9100,70,96,584323
1.9501,0.0538,39.8800,70,96,584328
1.9453,0.0587,39.8500,70,96,584331
1.9697,0.0635,39.6900,70,96,584334
1.9453,0.0538,39.8500,70,96,584338
1.9453,0.0538,39.6700,70,96,584341
1.9257,0.0587,39.6900,70,96,584344
1.8671,0.0538,39.8800,70,96,584348
1.8671,0.0635,39.7700,70,96,584351
1.8426,0.0635,39.8500,70,96,584354
1.8817,0.0587,39.5100,70,96,584358
1.8475,0.0342,39.7700,70,96,584361
1.8280,0.0538,39.8500,70,96,584365
1.8280,0.0538,39.8000,70,96,584368
1.8035,0.0538,39.8800,70,96,584372
1.8475,0.0684,39.4800,70,96,584375
1.8035,0.0587,39.5600,70,96,584378
1.7937,0.0489,39.7700,70,96,584382
1.7889,0.0587,39.6400,70,96,584385
1.7791,0.0538,39.8800,70,96,584388
1.8035,0.1173,39.6700,70,96,584392
1.7595,0.0587,39.8300,70,96,584395
1.7693,0.0538,39.6900,70,96,584398
1.7546,0.0587,39.8500,70,96,584402
1.7742,0.0342,39.8500,70,96,584406
1.8084,0.0684,39.6200,70,96,584409
1.7840,0.0587,39.8300,70,96,584413
1.8377,0.0538,39.6900,70,96,584416
1.7889,0.0489,39.8000,70,96,584419
1.7840,0.0587,39.8500,70,96,584422
1.7937,0.0635,39.7200,70,96,584426
1.7742,0.0587,39.8300,70,96,584429
1.8084,0.0538,39.5900,70,96,584432
1.7986,0.0538,39.7500,70,96,584436
1.7986,0.0538,39.8800,70,96,584439
1.8133,0.0635,39.7200,70,96,584442
1.7937,0.0538,39.9100,70,96,584446
1.8622,0.0538,39.5100,70,96,584450
1.8671,0.0782,39.7700,70,96,584453
1.9648,0.0538,39.8800,70,96,584457
2.1261,0.0587,39.8000,70,96,584460
2.2776,0.0684,39.8300,70,96,584463
2.5415,0.0538,39.5400,70,96,584467
2.6784,0.0684,39.7500,70,96,584470
2.7517,0.0587,39.7700,70,96,584473
2.6393,0.0684,39.8300,70,96,584476
2.3460,0.0587,39.8500,70,96,584480
2.0528,0.0635,39.5900,70,96,584483
1.7302,0.0587,39.8300,70,96,584486
1.5347,0.0538,39.6700,70,96,584491
1.3636,0.0587,39.8500,70,96,584494
1.2463,0.0489,39.8500,70,96,584497
1.2170,0.0635,39.6900,70,96,584501
1.2268,0.0880,39.8300,70,96,584504
1.3294,0.0587,39.6900,70,96,584507
1.4174,0.0831,39.8300,70,96,584511
1.5298,0.0538,39.9100,70,96,584514
1.6422,0.0587,39.7500,70,96,584517
1.7058,0.0538,39.8500,70,96,584521
1.7791,0.0587,39.6200,70,96,584524
1.7840,0.0587,39.8500,70,96,584527
1.7986,0.0538,39.8500,70,96,584530
1.8231,0.0635,39.7700,70,96,584535
1.8182,0.0587,39.8800,70,96,584538
1.8719,0.0587,39.5100,70,96,584541
1.8573,0.0929,39.7500,70,96,584545
1.8475,0.0538,39.8500,70,96,584548
1.8622,0.0587,39.8300,70,96,584551
1.8622,0.0587,39.8500,70,96,584555
1.9208,0.0684,39.5400,70,96,584558
1.9062,0.0342,39.8000,70,96,584561
1.8768,0.0489,39.8000,70,96,584565
1.8719,0.0635,39.8300,70,96,584568
1.8719,0.0587,39.8500,70,96,584571
1.9208,0.0635,39.6200,70,96,584576
1.8915,0.0635,39.8000,70,96,584579
1.8964,0.0587,39.6700,70,96,584582
1.8768,0.0587,39.8500,70,96,584585
1.8817,0.0587,39.8500,70,96,584589
1.9062,0.0635,39.7500,70,96,584592
1.9110,0.0538,39.8300,70,96,584595
1.9159,0.0635,39.6900,70,96,584599
1.8964,0.0587,39.8800,70,96,584602
1.9062,0.0538,39.8500,70,96,584605
1.9355,0.0635,39.7500,70,96,584609
1.9062,0.0538,39.8500,70,96,584612
1.9404,0.0538,39.6200,70,96,584615
1.9355,0.0587,39.7200,70,96,584620
1.9404,0.0538,39.8800,70,96,584623
1.9648,0.0635,39.7700,70,96,584626
1.9648,0.0587,39.8300,70,96,584630
2.0137,0.0587,39.5100,70,96,584633
1.9599,0.0587,39.7700,70,96,584636
1.9355,0.0342,39.8500,70,96,584639
1.9306,0.0635,39.7700,70,96,584643
1.9159,0.0587,39.8800,70,96,584646
1.9795,0.0635,39.4600,70,96,584649
1.9648,0.0587,39.7500,70,96,584653
1.9795,0.0538,39.7700,70,96,584656
2.0039,0.0587,39.9300,70,96,584659
2.0332,0.0587,39.8800,70,96,584664
2.0479,0.0684,39.6700,70,96,584667
1.9892,0.0880,39.8000,70,96,584670
1.9941,0.0587,39.7200,70,96,584674
1.9746,0.0635,39.8500,70,96,584677
1.9844,0.0538,39.7500,70,96,584680
2.0332,0.0538,39.6400,70,96,584684
2.0137,0.0587,39.8800,70,96,584687
2.0821,0.0587,39.6900,70,96,584690
2.0430,0.0587,39.9100,70,96,584693
2.0626,0.0587,39.8500,70,96,584697
2.1163,0.0635,39.8800,70,96,584700
2.1261,0.0635,39.8500,70,96,584704
2.1554,0.0538,39.6200,70,96,584708
2.1603,0.0538,39.7700,70,96,584711
2.1505,0.0684,39.8500,70,96,584714
2.1652,0.0587,39.7200,70,96,584718
2.1310,0.0538,39.8300,70,96,584721
2.1701,0.0587,39.5400,70,96,584724
2.1163,0.0587,39.8000,70,96,584728
2.1212,0.0587,39.8800,70,96,584731
2.1310,0.1075,39.8000,70,96,584734
2.1114,0.0587,39.8500,70,96,584737
2.1554,0.0635,39.4800,70,96,584741
2.0968,0.0587,39.7500,70,96,584744
2.0479,0.0782,39.8000,70,96,584748
2.0088,0.0587,39.8300,70,96,584752
1.9648,0.0538,39.8500,70,96,584755
1.9844,0.0733,39.5900,70,96,584758
1.9159,0.0635,39.8000,70,96,584762
1.9013,0.0538,39.7200,70,96,584765
1.8768,0.0684,39.8300,70,96,584768
1.8426,0.0538,39.8800,70,96,584772
1.8377,0.0684,39.6400,70,96,584775
1.7840,0.0587,39.8300,70,96,584778
1.7742,0.0587,39.6700,70,96,584781
1.7302,0.0587,39.8800,70,96,584785
1.7204,0.0538,39.8800,70,96,584788
1.7155,0.0635,39.7700,70,96,584792
1.6911,0.0587,39.8300,70,96,584796
1.7107,0.0587,39.6700,70,96,584799
1.6862,0.0538,39.8500,70,96,584802
1.7009,0.0342,39.8800,70,96,584806
1.7204,0.0635,39.6700,70,96,584809
1.6862,0.0587,39.8500,70,96,584812
1.7155,0.0831,39.5400,70,96,584816
1.6960,0.0587,39.6200,70,96,584819
1.6911,0.0635,39.8500,70,96,584822
1.7107,0.0684,39.8300,70,96,584826
1.7155,0.0538,39.8500,70,96,584829
1.7595,0.0831,39.4800,70,96,584833
1.7155,0.0587,39.7700,70,96,584837
1.7107,0.0587,39.8300,70,96,584840
1.7253,0.0587,39.8300,70,96,584843
1.7302,0.0587,39.8500,70,96,584846
1.7889,0.0733,39.5600,70,96,584850
1.7498,0.0538,39.8000,70,96,584853
1.7498,0.0538,39.7200,70,96,584856
1.7400,0.0587,39.8500,70,96,584860
1.7449,0.0587,39.8500,70,96,584863
1.7791,0.0635,39.7200,70,96,584866
1.7644,0.0635,39.8300,70,96,584870
1.7937,0.0587,39.7500,70,96,584873
1.7742,0.0587,39.8800,70,96,584877
1.7693,0.0538,39.8500,70,96,584881
1.7889,0.0635,39.6700,70,96,584884
1.7693,0.0587,39.8500,70,96,584887
1.7595,0.0538,39.6400,70,96,584891
1.7400,0.0538,39.7500,70,96,584894
1.7449,0.0538,39.8800,70,96,584897
1.7742,0.0587,39.7200,70,96,584901
1.7693,0.0538,39.8300,70,96,584904
1.8035,0.0587,39.5600,70,96,584907
1.8084,0.0538,39.7500,70,96,584910
1.7693,0.0538,39.8500,70,96,584914
1.7986,0.0684,39.7700,70,96,584918
1.7840,0.0538,39.8500,70,96,584921
1.8524,0.0684,39.4800,70,96,584925
1.8280,0.0538,39.6200,70,96,584928
1.8328,0.0440,39.8300,70,96,584931
1.8231,0.0587,39.7700,70,96,584935
1.7889,0.0587,39.8500,70,96,584939
1.7840,0.0684,39.8500,70,96,584943
1.8133,0.0635,39.6200,70,96,584946
1.7791,0.0587,39.8300,70,96,584949
1.8035,0.0635,39.6700,70,96,584953
1.7791,0.0489,39.8000,70,96,584956
1.8035,0.0587,39.8500,70,96,584960
1.8328,0.0538,39.7500,70,96,584964
1.8133,0.0587,39.8500,70,96,584967
1.8231,0.0538,39.5900,70,96,584970
1.7986,0.0538,39.7700,70,96,584973
1.7986,0.0538,39.8500,70,96,584977
1.8133,0.0684,39.7200,70,96,584980
1.7986,0.0538,39.8500,70,96,584983
1.8475,0.0684,39.5100,70,96,584987
1.8084,0.0538,39.7700,70,96,584990
1.8231,0.0489,39.8800,70,96,584993
1.8182,0.0635,39.8000,70,96,584997
1.7937,0.0587,39.8500,70,96,585000
1.8377,0.0587,39.5100,70,96,585004
1.8035,0.0587,39.7500,70,96,585008
1.7937,0.0489,39.7700,70,96,585011
1.8035,0.0587,39.8300,70,96,585014
1.8133,0.0587,39.8800,70,96,585018
1.8622,0.0635,39.5900,70,96,585021
1.8133,0.0587,39.8300,70,96,585024
1.8328,0.0538,39.7700,70,96,585027
1.8084,0.0538,39.8500,70,96,585031
1.8035,0.0635,39.8500,70,96,585034
1.8377,0.0538,39.6400,70,96,585037
1.8133,0.0587,39.8300,70,96,585041
1.8426,0.0342,39.6900,70,96,585044
1.8231,0.0587,39.8500,70,96,585048
1.8328,0.0538,39.8800,70,96,585052
1.8280,0.0635,39.7500,70,96,585055
1.8084,0.0587,39.8300,70,96,585058
1.8280,0.0587,39.6200,70,96,585062
1.8035,0.0587,39.8300,70,96,585065
1.8084,0.0538,39.8500,70,96,585068
1.8377,0.0635,39.6700,70,96,585072
1.8182,0.0587,39.8500,70,96,585075
1.8573,0.0587,39.4800,70,96,585078
1.8280,0.0635,39.7200,70,96,585081
1.8133,0.0538,39.8500,70,96,585085
1.8231,0.0635,39.8300,70,96,585089
1.8280,0.0880,39.8500,70,96,585092
1.8964,0.0635,39.4800,70,96,585096
1.8671,0.0587,39.7700,70,96,585099
1.8768,0.0538,39.7700,70,96,585102
1.9306,0.0587,39.8500,70,96,585106
1.9013,0.0538,39.8500,70,96,585109
1.9648,0.0538,39.6900,70,96,585112
1.9257,0.0684,39.8000,70,96,585116
1.9306,0.0538,39.7200,70,96,585119
1.9159,0.0587,39.8500,70,96,585122
1.9208,0.0538,39.8300,70,96,585126
1.9453,0.0538,39.7500,70,96,585129
1.9257,0.0587,39.7200,70,96,585133
1.9550,0.0635,39.6700,70,96,585136
1.9355,0.0587,39.8800,70,96,585140
1.9550,0.0587,39.8500,70,96,585143
1.9892,0.0635,39.6700,70,96,585146
1.9501,0.0587,39.8500,70,96,585150
1.9501,0.0587,39.6200,70,96,585153
1.9110,0.0538,39.7500,70,96,585156
1.8817,0.0538,39.8500,70,96,585160
1.8866,0.0587,39.7500,70,96,585163
1.8573,0.0587,39.8800,70,96,585166
1.8866,0.0587,39.5400,70,96,585170
1.8573,0.0635,39.8000,70,96,585174
1.8573,0.0538,39.8800,70,96,585177
1.8719,0.0635,39.8000,70,96,585181
1.8377,0.0587,39.8800,70,96,585184
1.8622,0.0587,39.5100,70,96,585187
1.8035,0.0831,39.6900,70,96,585190
1.7791,0.0489,39.8300,70,96,585194
1.7595,0.0635,39.8300,70,96,585197
1.7449,0.0538,39.8500,70,96,585200
1.7889,0.0635,39.6400,70,96,585204
1.7595,0.0635,39.8000,70,96,585207
1.7742,0.0880,39.7200,70,96,585210
1.7791,0.0587,39.8300,70,96,585214
1.7693,0.0587,39.8500,70,96,585218
1.7937,0.0635,39.5900,70,96,585221
1.7400,0.0587,39.8500,70,96,585225
1.7449,0.0587,39.6400,70,96,585228
1.7155,0.0538,39.8500,70,96,585231
1.7253,0.0587,39.8500,70,96,585235
1.7644,0.0635,39.8500,70,96,585238
1.7449,0.0587,39.8300,70,96,585241
1.7742,0.0538,39.5400,70,96,585244
1.7644,0.0587,39.7700,70,96,585248
1.7595,0.0587,39.8800,70,96,585251
1.7791,0.0587,39.6900,70,96,585254
1.7595,0.0587,39.8500,70,96,585259
1.7840,0.0342,39.5400,70,96,585262
1.7449,0.0489,39.8000,70,96,585265
1.7546,0.0538,39.8500,70,96,585269
1.7937,0.0684,39.8000,70,96,585272
1.8084,0.0587,39.8300,70,96,585275
1.9355,0.0635,39.4800,70,96,585279
2.0235,0.0733,39.7700,70,96,585282
2.1896,0.0538,39.8500,70,96,585285
2.3900,0.0733,39.8300,70,96,585289
2.6295,0.0587,39.8800,70,96,585292
2.8495,0.0733,39.5600,70,96,585295
2.7810,0.0635,39.8300,70,96,585298
2.5415,0.0538,39.6900,70,96,585303
2.1603,0.0587,39.8000,70,96,585306
1.8084,0.0538,39.8500,70,96,585309
1.6031,0.0587,39.6400,70,96,585313
1.3539,0.0587,39.8000,70,96,585316
1.2463,0.0538,39.6700,70,96,585319
1.1339,0.0587,39.8300,70,96,585323
1.1437,0.0538,39.8500,70,96,585326
1.2366,0.0587,39.7500,70,96,585329
1.3392,0.0587,39.8800,70,96,585333
1.4809,0.0587,39.6700,70,96,585336
1.5543,0.0587,39.8500,70,96,585339
1.6422,0.0587,39.8800,70,96,585342
1.7253,0.0635,39.7500,70,96,585347
1.7546,0.0587,39.8800,70,96,585350
1.8133,0.0635,39.5400,70,96,585353
1.8084,0.0635,39.5600,70,96,585357
1.8084,0.0538,39.8800,70,96,585360
1.8328,0.0635,39.8000,70,96,585363
1.8280,0.0587,39.8500,70,96,585367
1.8719,0.0587,39.5100,70,96,585370
1.8328,0.0587,39.7700,70,96,585373
1.8377,0.0538,39.8300,70,96,585377
1.8573,0.0635,39.8000,70,96,585380
1.8573,0.0587,39.8300,70,96,585383
1.9208,0.0733,39.5900,70,96,585388
1.8964,0.0587,39.7700,70,96,585391
1.9062,0.0538,39.7500,70,96,585394
1.9159,0.0684,39.8300,70,96,585397
1.8915,0.0587,39.8300,70,96,585401
1.9062,0.0684,39.7200,70,96,585404
1.8719,0.0587,39.8300,70,96,585407
1.9159,0.0538,39.6700,70,96,585411
1.8671,0.0635,39.8500,70,96,585414
1.8719,0.0587,39.9600,70,96,585417
1.9355,0.0684,39.6700,70,96,585421
1.8915,0.0587,39.8300,70,96,585424
1.9355,0.0538,39.6700,70,96,585427
1.9110,0.0635,39.7500,70,96,585432
1.9110,0.0538,39.8800,70,96,585435
1.9257,0.0342,39.7200,70,96,585438
1.9013,0.0587,39.8300,70,96,585442
1.9355,0.0587,39.5400,70,96,585445
1.9110,0.0733,39.7500,70,96,585448
1.9159,0.0342,39.8800,70,96,585452
1.9453,0.0635,39.7700,70,96,585455
1.9257,0.0538,39.8500,70,96,585458
1.9697,0.0929,39.4800,70,96,585461
1.9257,0.0587,39.8500,70,96,585465
1.9599,0.0440,39.8500,70,96,585468
1.9453,0.0587,39.9100,70,96,585472
1.9599,0.0587,39.8500,70,96,585476
2.0283,0.0733,39.5900,70,96,585479
1.9844,0.0635,39.8300,70,96,585482
1.9697,0.0880,39.7200,70,96,585486
1.9501,0.0587,39.8000,70,96,585489
1.9501,0.0587,39.8500,70,96,585492
1.9844,0.0635,39.6200,70,96,585496
1.9599,0.0587,39.8300,70,96,585499
1.9990,0.0587,39.6700,70,96,585502
1.9941,0.0587,39.8500,70,96,585506
2.0088,0.0538,39.8800,70,96,585509
2.0381,0.0684,39.7500,70,96,585512
2.0283,0.0587,39.8300,70,96,585516
2.0772,0.0587,39.6900,70,96,585520
2.0674,0.0538,39.8000,70,96,585523
2.0968,0.0489,39.8500,70,96,585526
2.1261,0.0635,39.7200,70,96,585530
2.1163,0.0831,39.8300,70,96,585533
2.1457,0.0538,39.5900,70,96,585536
2.0919,0.0342,39.8800,70,96,585540
2.0919,0.0587,39.8300,70,96,585543
2.1359,0.0635,39.7700,70,96,585546
2.1065,0.0684,39.8300,70,96,585551
2.0870,0.0538,39.8500,70,96,585554
2.1114,0.0733,39.6200,70,96,585559
2.0186,0.0538,39.8000,70,96,585562
1.9795,0.0538,39.7200,70,96,585565
1.9208,0.0880,39.8300,70,96,585568
1.8768,0.0538,39.8500,70,96,585572
1.8671,0.0635,39.6400,70,96,585575
1.8084,0.0635,39.8000,70,96,585578
1.7937,0.0587,39.5400,70,96,585582
1.7693,0.0538,39.8500,70,96,585585
1.7302,0.0489,39.8500,70,96,585588
1.7302,0.0587,39.7700,70,96,585592
1.7107,0.0538,39.8300,70,96,585595
1.7351,0.0538,39.6700,70,96,585598
1.7058,0.0587,39.8800,70,96,585603
1.7107,0.0489,39.8800,70,96,585606
1.7204,0.0635,39.6700,70,96,585609
1.6813,0.0538,39.8300,70,96,585613
1.7058,0.0342,39.5600,70,96,585616
1.6813,0.0587,39.6900,70,96,585619
1.6764,0.0538,39.8500,70,96,585622
1.6960,0.0684,39.7700,70,96,585626
1.6960,0.0587,39.8800,70,96,585629
1.7546,0.0880,39.4800,70,96,585632
1.7253,0.0587,39.7700,70,96,585636
1.7204,0.0782,39.8300,70,96,585639
1.7253,0.0587,39.8000,70,96,585643
1.7253,0.0587,39.8300,70,96,585647
1.7986,0.0733,39.5600,70,96,585650
1.7742,0.0831,39.7500,70,96,585653
1.7644,0.0538,39.7500,70,96,585657
1.7449,0.0684,39.8300,70,96,585660
1.7155,0.0587,39.9300,70,96,585663
1.7400,0.0684,39.6900,70,96,585666
1.7058,0.0635,39.8300,70,96,585670
1.7155,0.0831,39.6700,70,96,585673
1.7058,0.0587,39.8500,70,96,585676
1.7204,0.0587,39.8800,70,96,585680
1.7546,0.0635,39.6400,70,96,585683
1.7351,0.0587,39.8500,70,96,585687
1.7693,0.0782,39.6900,70,96,585691
1.7449,0.0538,39.8000,70,96,585694
1.7449,0.0587,39.8300,70,96,585697
1.7644,0.0635,39.7500,70,96,585701
1.7546,0.0587,39.8500,70,96,585704
1.7937,0.0538,39.5900,70,96,585707
1.7986,0.0587,39.7200,70,96,585711
1.7742,0.0538,39.8800,70,96,585714
1.7986,0.0635,39.6900,70,96,585717
1.7644,0.0587,39.8500,70,96,585720
1.8035,0.0782,39.5100,70,96,585724
1.7644,0.0538,39.7700,70,96,585728
1.7791,0.0587,39.8800,70,96,585731
1.7937,0.0635,39.8300,70,96,585735
1.7889,0.0538,39.8500,70,96,585738
1.8622,0.0733,39.5400,70,96,585741
1.8182,0.0635,39.7500,70,96,585745
1.8035,0.0538,39.7700,70,96,585748
1.8133,0.0587,39.8300,70,96,585751
1.8133,0.0587,39.8500,70,96,585755
1.8280,0.0538,39.6400,70,96,585758
1.7840,0.0831,39.8300,70,96,585761
1.7840,0.0587,39.6900,70,96,585765
1.7546,0.0587,39.8800,70,96,585768
1.7693,0.0538,39.8500,70,96,585772
1.7937,0.0684,39.6900,70,96,585775
1.7791,0.0587,39.8300,70,96,585779
1.7986,0.0684,39.6900,70,96,585782
1.7595,0.0342,39.8300,70,96,585785
1.7644,0.0587,39.8800,70,96,585789
1.7742,0.0587,39.7500,70,96,585792
1.7986,0.0538,39.8800,70,96,585795
1.7986,0.0538,39.5600,70,96,585799
1.7791,0.0587,39.8500,70,96,585802
1.7840,0.0733,39.8500,70,96,585805
1.8035,0.0684,39.7700,70,96,585809
1.7889,0.0831,39.8500,70,96,585812
1.8377,0.0587,39.5100,70,96,585816
1.8133,0.0880,39.7500,70,96,585820
1.7937,0.0538,39.8500,70,96,585823
1.7986,0.0538,39.8300,70,96,585826
1.7986,0.0587,39.8800,70,96,585829
1.8573,0.0635,39.5100,70,96,585833
1.8231,0.0635,39.7700,70,96,585836
1.8231,0.0489,39.7500,70,96,585839
1.8231,0.0587,39.8300,70,96,585843
1.8182,0.0587,39.8500,70,96,585846
1.8866,0.0684,39.6400,70,96,585849
1.8182,0.0635,39.8000,70,96,585853
1.8231,0.0587,39.6900,70,96,585857
1.7889,0.0587,39.8800,70,96,585860
1.7791,0.0587,39.8500,70,96,585864
1.7937,0.1026,39.7700,70,96,585867
1.7791,0.0587,39.8500,70,96,585870
1.8084,0.0831,39.7200,70,96,585874
1.7840,0.0587,39.6700,70,96,585877
1.7986,0.0587,39.8500,70,96,585880
1.8328,0.0635,39.6900,70,96,585883
1.8084,0.0587,39.8800,70,96,585887
1.8280,0.0538,39.5900,70,96,585890
1.8035,0.0684,39.7200,70,96,585893
1.7986,0.0587,39.8500,70,96,585897
1.8084,0.0635,39.7700,70,96,585901
1.7937,0.0587,39.8800,70,96,585904
1.8377,0.0635,39.4800,70,96,585908
1.8133,0.0587,39.7500,70,96,585911
1.8133,0.0587,39.8800,70,96,585914
1.8231,0.0635,39.9100,70,96,585918
1.8084,0.0538,39.8500,70,96,585921
1.8622,0.0635,39.5100,70,96,585924
1.8377,0.0342,39.7500,70,96,585928
1.8475,0.0538,39.7700,70,96,585931
1.8622,0.0587,39.8300,70,96,585934
1.8622,0.0538,39.8800,70,96,585937
1.8768,0.0684,39.6900,70,96,585942
1.8182,0.0635,39.8000,70,96,585945
1.8182,0.0538,39.7200,70,96,585948
1.8084,0.0587,39.8800,70,96,585952
1.8231,0.0538,39.8800,70,96,585955
1.8622,0.0635,39.6200,70,96,585958
1.8426,0.0684,39.8500,70,96,585962
1.8671,0.0635,39.7200,70,96,585965
1.8426,0.0489,39.8000,70,96,585968
1.8524,0.0538,39.8500,70,96,585972
1.8964,0.0538,39.7200,70,96,585975
1.8964,0.0587,39.8500,70,96,585978
1.9746,0.0538,39.6200,70,96,585982
1.9306,0.0880,39.7500,70,96,585986
1.9404,0.0587,39.8800,70,96,585989
1.9550,0.0978,39.7200,70,96,585992
1.9355,0.0538,39.8500,70,96,585996
1.9746,0.0587,39.5100,70,96,585999
1.9355,0.0538,39.7700,70,96,586002
1.9453,0.0587,39.8500,70,96,586006
1.9599,0.0635,39.8500,70,96,586009
1.9404,0.0538,39.8800,70,96,586012
1.9844,0.0635,39.4800,70,96,586016
1.9355,0.0587,39.7500,70,96,586019
1.9062,0.0782,39.7700,70,96,586022
1.8964,0.0587,39.8800,70,96,586027
1.8671,0.0684,39.8500,70,96,586030
1.8817,0.0635,39.7500,70,96,586033
1.8182,0.0635,39.8300,70,96,586037
1.8133,0.0538,39.6900,70,96,586040
1.7986,0.0342,39.8800,70,96,586043
1.7937,0.0587,39.8500,70,96,586046
1.8182,0.0635,39.6700,70,96,586050
1.7889,0.0538,39.8300,70,96,586053
1.7937,0.0587,39.7200,70,96,586056
1.7498,0.0684,39.8800,70,96,586060
1.7400,0.0538,39.8800,70,96,586063
1.7498,0.0538,39.7200,70,96,586066
1.7155,0.0587,39.8500,70,96,586071
1.7546,0.0342,39.6200,70,96,586074
1.7302,0.0587,39.8300,70,96,586077
1.7400,0.0538,39.8800,70,96,586081
1.7546,0.0733,39.7700,70,96,586084
1.7400,0.0538,39.8800,70,96,586087
1.8084,0.0587,39.5100,70,96,586091
1.7644,0.0635,39.7200,70,96,586094
1.7449,0.0587,39.8500,70,96,586097
1.7546,0.0635,39.8300,70,96,586101
1.7498,0.0587,39.8500,70,96,586104
1.7986,0.0635,39.5100,70,96,586107
1.7498,0.0587,39.7700,70,96,586110
1.7449,0.0538,39.7700,70,96,586115
1.7546,0.0587,39.8300,70,96,586118
1.7449,0.0538,39.8800,70,96,586121
1.7791,0.0684,39.6400,70,96,586125
1.7449,0.0635,39.8500,70,96,586128
1.7693,0.0587,39.6900,70,96,586131
1.7742,0.0587,39.8500,70,96,586135
1.8524,0.0538,39.8500,70,96,586138
2.0235,0.0684,39.7700,70,96,586141
2.1505,0.0587,39.8500,70,96,586145
2.3851,0.0635,39.6900,70,96,586148
2.5709,0.0587,39.8500,70,96,586151
2.7517,0.0782,39.8500,70,96,586156
2.8055,0.0635,39.7200,70,96,586159
1.3685,0.0635,39.8300,70,96,586164
1.1926,0.0538,39.8500,70,96,586167
1.1828,0.0684,39.4800,70,96,586170
1.1681,0.0831,39.7700,70,96,586174
1.2512,0.0587,39.8300,70,96,586177
1.3587,0.0684,39.8300,70,96,586180
1.4663,0.0587,39.8500,70,96,586183
1.6520,0.0733,39.6200,70,96,586187
1.6716,0.0635,39.7700,70,96,586190
1.7546,0.0538,39.7200,70,96,586193
1.7546,0.0587,39.8300,70,96,586198
1.7840,0.0538,39.8500,70,96,586201
1.8280,0.0538,39.7200,70,96,586204
1.8084,0.0587,39.8500,70,96,586208
1.8377,0.0587,39.6700,70,96,586211
1.8280,0.0587,39.8500,70,96,586214
1.8524,0.0587,39.8500,70,96,586218
1.9013,0.0684,39.6700,70,96,586221
1.8768,0.0587,39.8300,70,96,586224
1.9062,0.0538,39.6400,70,96,586228
1.8719,0.0538,39.7500,70,96,586231
1.8573,0.0635,39.8800,70,96,586234
1.8573,0.0587,39.7500,70,96,586237
1.8524,0.0587,39.8800,70,96,586242
1.8719,0.0587,39.5400,70,96,586245
1.8524,0.0635,39.7700,70,96,586248
1.8524,0.0587,39.8500,70,96,586252
1.8768,0.0635,39.7700,70,96,586255
1.8475,0.0684,39.8800,70,96,586258
1.8964,0.0587,39.4800,70,96,586262
1.8622,0.0587,39.7200,70,96,586265
1.8622,0.0538,39.6700,70,96,586268
1.9013,0.0635,39.8500,70,96,586272
1.8817,0.0733,39.8500,70,96,586275
1.9550,0.0733,39.5900,70,96,586278
1.9110,0.0635,39.8000,70,96,586283
1.9062,0.0342,39.7200,70,96,586286
1.8964,0.0587,39.8500,70,96,586289
1.8915,0.0587,39.8800,70,96,586292
1.9404,0.0782,39.6400,70,96,586296
1.9110,0.0587,39.8300,70,96,586299
1.9355,0.0587,39.6700,70,96,586302
1.9110,0.0587,39.9100,70,96,586306
1.9306,0.0587,39.9100,70,96,586309
1.9453,0.0635,39.7200,70,96,586312
1.9208,0.0538,39.8500,70,96,586316
1.9648,0.0831,39.6400,70,96,586319
1.9501,0.0538,39.8000,70,96,586322
1.9697,0.0587,39.8500,70,96,586327
1.9892,0.0587,39.7200,70,96,586330
1.9599,0.0684,39.8800,70,96,586333
1.9844,0.0587,39.5600,70,96,586337
1.9453,0.0635,39.8300,70,96,586340
1.9501,0.0538,39.8300,70,96,586343
2.0283,0.0538,39.7700,70,96,586346
1.9892,0.0587,39.8800,70,96,586350
2.0626,0.0635,39.5100,70,96,586353
2.0430,0.0587,39.7500,70,96,586356
2.0674,0.0587,39.8300,70,96,586360
2.0528,0.0733,39.8300,70,96,586363
2.0626,0.0538,39.8500,70,96,586366
2.1261,0.0733,39.5600,70,96,586371
2.0870,0.0587,39.8000,70,96,586374
2.0870,0.0538,39.7500,70,96,586377
2.0772,0.0635,39.8500,70,96,586381
2.0772,0.0538,39.7200,70,96,586384
2.1310,0.0587,39.6400,70,96,586387
2.1114,0.0635,39.8300,70,96,586390
2.1310,0.0489,39.6700,70,96,586394
2.1114,0.0587,39.8500,70,96,586397
2.1114,0.0342,39.8800,70,96,586400
2.1212,0.0929,39.7700,70,96,586404
2.0870,0.0587,39.8300,70,96,586407
2.1017,0.0635,39.6900,70,96,586411
2.0528,0.0587,39.6700,70,96,586415
2.0381,0.0587,39.8500,70,96,586418
2.0479,0.0635,39.6200,70,96,586421
1.9990,0.0635,39.8300,70,96,586425
2.0088,0.0538,39.5900,70,96,586428
1.9550,0.0880,39.7200,70,96,586431
1.9159,0.0587,39.8800,70,96,586434
1.8768,0.0587,39.7500,70,96,586438
1.8231,0.0587,39.8800,70,96,586441
1.8182,0.0684,39.5100,70,96,586444
1.7546,0.0587,39.7700,70,96,586448
1.7302,0.0831,39.8500,70,96,586451
1.7204,0.0635,39.7200,70,96,586455
1.6862,0.0684,39.8800,70,96,586459
1.7253,0.0635,39.5100,70,96,586462
1.6911,0.0538,39.7500,70,96,586465
1.6911,0.0587,39.7700,70,96,586469
1.6960,0.0587,39.8300,70,96,586472
1.7155,0.0635,39.8500,70,96,586475
1.7204,0.0684,39.7700,70,96,586479
1.6813,0.0587,39.8000,70,96,586482
1.6764,0.0538,39.7200,70,96,586485
1.6716,0.0587,39.8500,70,96,586489
1.6862,0.0880,39.8800,70,96,586492
1.7204,0.0635,39.6400,70,96,586496
1.7009,0.0587,39.8300,70,96,586499
1.7302,0.0635,39.6900,70,96,586503
1.7107,0.0587,39.8300,70,96,586506
1.7204,0.0587,39.8500,70,96,586509
1.7498,0.0538,39.7200,70,96,586513
1.7351,0.0587,39.7700,70,96,586516
1.7644,0.0342,39.5900,70,96,586519
1.7400,0.0880,39.7700,70,96,586523
1.7644,0.0538,39.8500,70,96,586526
1.7693,0.0635,39.7200,70,96,586529
1.7498,0.0538,39.8500,70,96,586533
1.7791,0.0587,39.5100,70,96,586536
1.7351,0.0538,39.8800,70,96,586540
1.7644,0.0538,39.8800,70,96,586544
1.7449,0.0635,39.8300,70,96,586547
1.7302,0.0587,39.8500,70,96,586550
1.7791,0.0587,39.4800,70,96,586553
1.7546,0.0587,39.7500,70,96,586557
1.7498,0.0489,39.8000,70,96,586560
1.7595,0.0587,39.8300,70,96,586563
1.7742,0.0538,39.8500,70,96,586567
1.8133,0.0635,39.5900,70,96,586570
1.7644,0.0635,39.8300,70,96,586573
1.7742,0.0587,39.6900,70,96,586577
1.7546,0.0587,39.8500,70,96,586580
1.7595,0.0587,39.8800,70,96,586584
1.7937,0.0635,39.6700,70,96,586588
1.8133,0.0538,39.8500,70,96,586591
1.8035,0.0635,39.6900,70,96,586594
1.7791,0.0587,39.8500,70,96,586598
1.7693,0.0587,39.8500,70,96,586601
1.7693,0.0538,39.7500,70,96,586604
1.7693,0.0587,39.8300,70,96,586607
1.8084,0.0538,39.6200,70,96,586611
1.7889,0.0538,39.8500,70,96,586614
1.8084,0.0538,39.8500,70,96,586617
1.8377,0.0342,39.7200,70,96,586621
1.8035,0.0635,39.8800,70,96,586625
1.8231,0.0587,39.5400,70,96,586628
1.7937,0.0587,39.7200,70,96,586632
1.7742,0.0538,39.8500,70,96,586635
1.7889,0.0587,39.8300,70,96,586638
1.7937,0.0587,39.8500,70,96,586642
1.8426,0.0635,39.5100,70,96,586645
1.7889,0.0538,39.8000,70,96,586648
1.7742,0.0538,39.8000,70,96,586652
1.7693,0.0782,39.8300,70,96,586655
1.7595,0.0587,39.8800,70,96,586658
1.8084,0.0733,39.6200,70,96,586661
1.7840,0.0635,39.8300,70,96,586665
1.7986,0.0538,39.6900,70,96,586669
1.7840,0.0587,39.8500,70,96,586672
1.8084,0.0587,39.8500,70,96,586676
1.8328,0.0635,39.7700,70,96,586679
1.8084,0.0831,39.8300,70,96,586682
1.8231,0.0587,39.6700,70,96,586686
1.8035,0.0538,39.8800,70,96,586689
1.7937,0.0538,39.8500,70,96,586692
1.8280,0.0635,39.7200,70,96,586696
1.8035,0.0587,39.8300,70,96,586699
1.8280,0.0538,39.6200,70,96,586702
1.8133,0.0587,39.7200,70,96,586706
1.8231,0.0342,39.8500,70,96,586710
1.8671,0.0635,39.7500,70,96,586713
1.8622,0.0538,39.8500,70,96,586716
1.9208,0.0635,39.5100,70,96,586720
1.8671,0.0587,39.8000,70,96,586723
1.8426,0.0587,39.8500,70,96,586726
1.8426,0.0635,39.7700,70,96,586730
1.8426,0.0538,39.8500,70,96,586733
1.8426,0.0635,39.5100,70,96,586736
1.7889,0.0587,39.6700,70,96,586740
1.7791,0.0489,39.7700,70,96,586743
1.7791,0.0587,39.8500,70,96,586746
1.7742,0.0587,39.8500,70,96,586750
1.8377,0.0587,39.6700,70,96,586754
1.8084,0.0635,39.8300,70,96,586757
1.8182,0.0587,39.6900,70,96,586761
1.8084,0.0587,39.8300,70,96,586764
1.8182,0.0342,39.8500,70,96,586767
1.8573,0.0635,39.7200,70,96,586770
1.8328,0.0635,39.7700,70,96,586775
1.8182,0.0587,39.8300,70,96,586779
1.8622,0.0587,39.5600,70,96,586782
1.8524,0.0587,39.7500,70,96,586785
1.8573,0.0538,39.9100,70,96,586788
1.8964,0.0684,39.7500,70,96,586792
1.8866,0.0587,39.8300,70,96,586796
1.9355,0.0587,39.4800,70,96,586799
1.8866,0.0538,39.7200,70,96,586803
1.8817,0.0538,39.8500,70,96,586806
1.8866,0.0684,39.8300,70,96,586809
1.8964,0.0587,39.8300,70,96,586813
1.9746,0.0538,39.5900,70,96,586816
1.9453,0.0684,39.8000,70,96,586819
1.9550,0.0587,39.7200,70,96,586823
1.9306,0.0587,39.8300,70,96,586826
1.9257,0.0587,39.8800,70,96,586829
1.9501,0.0684,39.6200,70,96,586833
1.9110,0.0587,39.9100,70,96,586836
1.9501,0.0635,39.6900,70,96,586840
1.9306,0.0587,39.8800,70,96,586843
1.9306,0.0587,39.8500,70,96,586847
1.9501,0.0684,39.7200,70,96,586850
1.9257,0.0635,39.8300,70,96,586853
1.9404,0.0587,39.6900,70,96,586857
1.8817,0.0684,39.8300,70,96,586860
1.8671,0.0538,39.8500,70,96,586863
1.8573,0.0538,39.6900,70,96,586867
1.8377,0.0587,39.8500,70,96,586870
1.8573,0.0538,39.5600,70,96,586873
1.8475,0.0587,39.8300,70,96,586877
1.8231,0.0538,39.8500,70,96,586881
1.8280,0.0635,39.7700,70,96,586884
1.7986,0.0635,39.8800,70,96,586888
1.8426,0.0635,39.5100,70,96,586891
1.8328,0.0635,39.7200,70,96,586894
1.7742,0.0538,39.8300,70,96,586898
1.7498,0.0587,39.8500,70,96,586901
1.7302,0.0587,39.8800,70,96,586904
1.7742,0.0733,39.6200,70,96,586907
1.7400,0.0635,39.8300,70,96,586911
1.7400,0.0538,39.6900,70,96,586914
1.7351,0.0538,39.8800,70,96,586917
1.7204,0.0587,39.8800,70,96,586921
1.7449,0.0684,39.6700,70,96,586925
1.7302,0.0587,39.8000,70,96,586928
1.7595,0.0587,39.6900,70,96,586932
1.7449,0.0587,39.8300,70,96,586935
1.7546,0.0538,39.8000,70,96,586938
1.7742,0.0635,39.7500,70,96,586942
1.7595,0.0587,39.8500,70,96,586945
1.7889,0.0684,39.6700,70,96,586948
1.7546,0.0538,39.8800,70,96,586952
1.7595,0.0538,39.8800,70,96,586955
1.7644,0.0635,39.7200,70,96,586958
1.7498,0.0587,39.8800,70,96,586961
1.7986,0.0587,39.5400,70,96,586966
1.8231,0.0635,39.7200,70,96,586969
1.8866,0.0538,39.8500,70,96,586972
1.9990,0.0635,39.8000,70,96,586976
2.1408,0.0587,39.8500,70,96,586979
2.3803,0.0635,39.3500,70,96,586982
2.5318,0.0587,39.7700,70,96,586986
2.6784,0.0538,39.8300,70,96,586989
2.7028,0.0635,39.8300,70,96,586992
2.4927,0.0587,39.8500,70,96,586996
2.2190,0.0733,39.6200,70,96,586999
1.8328,0.0684,39.7700,70,96,587002
1.5640,0.0538,39.7200,70,96,587006
1.3636,0.0635,39.8300,70,96,587010
1.2219,0.0587,39.8800,70,96,587013
1.1779,0.0684,39.7200,70,96,587016
1.1828,0.0587,39.8300,70,96,587020
1.2757,0.0538,39.6700,70,96,587023
1.3539,0.0587,39.8500,70,96,587026
1.4565,0.0538,39.9300,70,96,587030
1.5836,0.0684,39.6900,70,96,587033
1.6373,0.0587,39.8500,70,96,587036
1.7204,0.0538,39.6700,70,96,587040
1.7351,0.0782,39.7700,70,96,587043
1.7693,0.0587,39.8500,70,96,587046
1.8133,0.0538,39.7500,70,96,587051
1.8133,0.0587,39.8300,70,96,587054
1.8622,0.0538,39.5600,70,96,587057
1.8524,0.0538,39.7500,70,96,587061
1.8524,0.0538,39.8500,70,96,587064
1.8671,0.0929,39.7500,70,96,587067
1.8475,0.0538,39.8800,70,96,587071
1.9013,0.0587,39.4800,70,96,587074
1.8671,0.0587,39.7200,70,96,587077
1.8768,0.0342,39.8300,70,96,587080
1.8915,0.0538,39.8500,70,96,587084
1.8964,0.0587,39.8300,70,96,587087
1.9501,0.0733,39.6200,70,96,587090
1.9110,0.0635,39.8800,70,96,587095
1.9159,0.0587,39.7200,70,96,587098
1.9062,0.0587,39.8300,70,96,587101
1.9110,0.0342,39.8500,70,96,587105
1.9453,0.0733,39.6400,70,96,587108
1.9062,0.0587,39.9100,70,96,587111
1.9257,0.0587,39.6700,70,96,587115
1.8915,0.0587,39.8300,70,96,587118
1.9062,0.0587,39.8800,70,96,587121
1.9453,0.0587,39.6900,70,96,587125
1.9355,0.0587,39.8500,70,96,587128
1.9648,0.0880,39.6700,70,96,587131
1.9355,0.0342,39.7700,70,96,587134
1.9306,0.0635,39.8500,70,96,587139
1.9404,0.0587,39.6900,70,96,587142
1.9208,0.0587,39.8500,70,96,587145
1.9648,0.0587,39.5600,70,96,587149
1.9208,0.0587,39.8300,70,96,587152
1.9208,0.0538,39.8500,70,96,587155
1.9306,0.0684,39.7700,70,96,587159
1.9159,0.0587,39.7200,70,96,587162
2.0088,0.0587,39.4800,70,96,587165
1.9599,0.0587,39.8500,70,96,587169
1.9746,0.0538,39.8300,70,96,587172
1.9697,0.0587,39.8300,70,96,587175
1.9648,0.0587,39.8800,70,96,587180
2.0283,0.0684,39.5900,70,96,587183
1.9892,0.0635,39.5900,70,96,587186
1.9990,0.0587,39.7200,70,96,587189
2.0088,0.0587,39.8800,70,96,587193
2.0186,0.0538,39.8500,70,96,587196
2.0723,0.0635,39.6700,70,96,587199
2.0674,0.0635,39.8300,70,96,587203
2.1065,0.0587,39.6900,70,96,587206
2.0968,0.0587,39.8500,70,96,587209
2.1114,0.0538,39.8800,70,96,587213
2.1359,0.0684,39.7700,70,96,587216
2.1114,0.0538,39.8300,70,96,587219
2.1310,0.0635,39.6900,70,96,587224
2.0968,0.0587,39.9300,70,96,587227
2.1065,0.0684,39.8500,70,96,587230
2.1359,0.0635,39.7200,70,96,587233
2.1114,0.0684,39.8800,70,96,587237
2.1408,0.0587,39.5900,70,96,587240
2.1212,0.0635,39.7500,70,96,587243
2.1065,0.0587,39.8800,70,96,587247
2.1212,0.0635,39.7700,70,96,587250
2.0968,0.0538,39.8300,70,96,587253
2.1652,0.0587,39.4800,70,96,587257
2.0674,0.1075,39.7500,70,96,587260
2.0283,0.0538,39.8500,70,96,587264
2.0186,0.0635,39.8000,70,96,587268
1.9795,0.0587,39.8800,70,96,587271
2.0137,0.0635,39.5400,70,96,587274
1.9453,0.0342,39.7500,70,96,587278
1.9013,0.0538,39.8800,70,96,587281
1.8719,0.0587,39.8300,70,96,587284
1.8377,0.0587,39.8500,70,96,587287
1.8622,0.0684,39.6700,70,96,587291
1.8182,0.0587,39.8300,70,96,587294
1.8133,0.0538,39.7200,70,96,587297
1.7742,0.0587,39.8500,70,96,587301
1.7595,0.0831,39.8300,70,96,587304
1.7546,0.0635,39.6700,70,96,587308
1.7155,0.0538,39.8300,70,96,587312
1.7253,0.0635,39.8500,70,96,587315
1.7107,0.0440,39.8000,70,96,587318
1.7058,0.0587,39.8500,70,96,587322
1.7351,0.0538,39.7500,70,96,587325
1.7253,0.0587,39.8800,70,96,587328
1.7840,0.0587,39.6200,70,96,587332
1.7351,0.0538,39.7200,70,96,587335
1.7302,0.0342,39.8500,70,96,587338
1.7253,0.0733,39.7200,70,96,587341
1.6960,0.0538,39.8500,70,96,587345
1.7155,0.0587,39.5900,70,96,587348
1.6764,0.0538,39.7700,70,96,587352
1.6911,0.0587,39.8800,70,96,587356
1.7058,0.0635,39.6900,70,96,587359
1.6960,0.0538,39.8500,70,96,587362
1.7498,0.0635,39.5100,70,96,587366
1.7204,0.0587,39.7200,70,96,587369
1.7253,0.0538,39.7700,70,96,587372
1.7302,0.0587,39.8300,70,96,587376
1.7351,0.0684,39.8500,70,96,587379
1.7889,0.0635,39.4800,70,96,587382
1.8377,0.0635,39.7200,70,96,587387
1.7889,0.0587,39.9100,70,96,587390
1.8280,0.0538,39.6700,70,96,587395
1.7693,0.0538,39.9100,70,96,587398
1.7693,0.0587,39.8800,70,96,587401
1.7840,0.0587,39.6700,70,96,587404
1.7791,0.0587,39.8500,70,96,587408
1.8280,0.0587,39.5600,70,96,587411
1.8084,0.0587,39.8300,70,96,587414
1.8182,0.0538,39.9100,70,96,587418
1.8377,0.0635,39.7700,70,96,587421
1.8084,0.0587,39.8800,70,96,587424
1.8524,0.0635,39.5100,70,96,587428
1.8084,0.0587,39.7200,70,96,587431
1.7937,0.0538,39.8500,70,96,587435
1.7986,0.0587,39.8500,70,96,587439
1.8084,0.0587,39.8800,70,96,587442
1.8719,0.0733,39.5600,70,96,587445
1.8133,0.0538,39.8000,70,96,587449
1.7986,0.0538,39.7700,70,96,587452
1.7840,0.0587,39.8300,70,96,587455
1.7791,0.0587,39.8500,70,96,587458
1.8084,0.0635,39.6700,70,96,587462
1.7889,0.0635,39.8500,70,96,587465
1.8035,0.0587,39.6700,70,96,587468
1.7889,0.0587,39.8800,70,96,587472
1.7986,0.0587,39.8500,70,96,587475
1.8133,0.0587,39.7500,70,96,587479
1.8035,0.0587,39.8500,70,96,587483
1.8328,0.0587,39.6700,70,96,587486
1.8035,0.0880,39.8500,70,96,587489
1.8182,0.0587,39.8500,70,96,587493
1.8328,0.0733,39.7200,70,96,587496
1.8182,0.0587,39.8500,70,96,587499
1.8573,0.0538,39.5400,70,96,587503
1.8475,0.0587,39.6900,70,96,587506
1.8377,0.0587,39.8500,70,96,587509
1.8622,0.0635,39.8300,70,96,587513
1.8475,0.0587,39.7500,70,96,587516
1.8866,0.0635,39.4800,70,96,587520
1.8377,0.0587,39.7500,70,96,587523
1.8622,0.0440,39.8300,70,96,587527
1.8280,0.0635,39.8800,70,96,587530
1.8133,0.0587,39.8500,70,96,587533
1.8671,0.0733,39.6900,70,96,587537
1.8133,0.0635,39.8000,70,96,587540
1.8084,0.0782,39.7200,70,96,587543
1.7986,0.0587,39.8300,70,96,587547
1.8182,0.0587,39.8500,70,96,587550
1.8524,0.0684,39.6200,70,96,587553
1.8328,0.0635,39.8500,70,96,587557
1.8622,0.0587,39.6400,70,96,587560
1.8377,0.0587,39.8500,70,96,587564
1.8328,0.0635,39.8500,70,96,587568
1.8524,0.0684,39.6700,70,96,587571
1.8133,0.0587,39.8800,70,96,587574
1.8426,0.0538,39.6400,70,96,587578
1.8182,0.0538,39.7500,70,96,587581
1.8231,0.0587,39.8500,70,96,587584
1.8524,0.0635,39.8500,70,96,587587
1.8719,0.0587,39.8500,70,96,587591
1.9013,0.0587,39.5400,70,96,587594
1.8866,0.0635,39.7500,70,96,587597
1.8964,0.0587,39.9300,70,96,587601
1.9404,0.0635,39.8000,70,96,587604
1.9159,0.0587,39.8500,70,96,587608
1.9697,0.0684,39.4800,70,96,587612
1.9257,0.0538,39.7200,70,96,587615
1.9306,0.0538,39.8300,70,96,587618
1.9453,0.0635,39.8300,70,96,587622
1.9550,0.0587,39.8800,70,96,587625
2.0088,0.0733,39.5900,70,96,587628
1.9795,0.0538,39.8000,70,96,587631
1.9306,0.0538,39.7500,70,96,587635
1.9208,0.0587,39.8800,70,96,587638
1.9355,0.0587,39.8800,70,96,587641
2.0186,0.0538,39.6400,70,96,587645
1.9550,0.0587,39.8300,70,96,587649
1.9648,0.0342,39.6700,70,96,587652
1.9257,0.0587,39.8500,70,96,587656
1.9062,0.0587,39.8500,70,96,587659
1.9159,0.0831,39.6700,70,96,587662
1.8768,0.0587,39.8300,70,96,587666
1.8866,0.0635,39.6900,70,96,587669
1.8475,0.0538,39.8300,70,96,587672
1.8426,0.0587,39.8800,70,96,587675
1.8475,0.0587,39.7500,70,96,587679
1.8231,0.0587,39.8800,70,96,587682
1.8475,0.0587,39.5900,70,96,587685
1.8231,0.0538,39.8500,70,96,587689
1.8231,0.0538,39.8500,70,96,587693
1.8182,0.0635,39.8500,70,96,587696
1.7742,0.0587,39.8500,70,96,587700
1.7889,0.0635,39.4800,70,96,587703
1.7400,0.0635,39.7500,70,96,587706
1.7155,0.0587,39.8300,70,96,587710
1.7155,0.0635,39.6700,70,96,587713
1.7107,0.0587,39.8500,70,96,587716
1.7693,0.0733,39.5900,70,96,587720
1.7400,0.0635,39.8000,70,96,587723
1.7449,0.0538,39.7500,70,96,587726
1.7351,0.0538,39.8300,70,96,587730
1.7449,0.0831,39.8500,70,96,587734
1.7840,0.0635,39.6400,70,96,587737
1.7693,0.0880,39.8000,70,96,587740
1.7889,0.0587,39.6700,70,96,587744
1.7742,0.0587,39.8300,70,96,587747
1.7693,0.0587,39.8500,70,96,587750
1.7840,0.0880,39.7700,70,96,587754
1.7644,0.0587,39.8500,70,96,587757
1.7840,0.0684,39.6900,70,96,587760
1.7595,0.0587,39.9100,70,96,587764
1.7986,0.0587,39.8800,70,96,587767
1.8573,0.0635,39.7200,70,96,587770
1.9013,0.0587,39.9100,70,96,587774
2.0528,0.0684,39.5600,70,96,587778
2.1896,0.0587,39.7500,70,96,587781
2.3607,0.0587,39.8500,70,96,587785
2.5758,0.0635,39.7700,70,96,587788
2.7126,0.0587,39.8500,70,96,587791
2.7859,0.0587,39.5100,70,96,587794
2.5171,0.0587,39.7700,70,96,587798
2.1603,0.0587,39.8800,70,96,587801
1.8377,0.0635,39.8000,70,96,587804
1.5885,0.0587,39.8800,70,96,587808
1.4516,0.0684,39.5100,70,96,587811
1.2903,0.0635,39.6700,70,96,587814
1.1926,0.0733,39.7700,70,96,587819
1.1632,0.0587,39.8300,70,96,587822
1.2219,0.0538,39.8800,70,96,587825
1.3539,0.0880,39.6700,70,96,587829
1.4467,0.0587,39.8500,70,96,587832
1.5738,0.0489,39.6700,70,96,587835
1.6569,0.0587,39.8800,70,96,587839
1.7253,0.0635,39.8500,70,96,587842
1.7937,0.0635,39.4600,70,96,587845
1.7889,0.0587,39.8300,70,96,587848
1.8328,0.0684,39.6900,70,96,587852
1.8182,0.0489,39.8000,70,96,587855
1.8280,0.0538,39.9100,70,96,587858
1.8426,0.0635,39.7200,70,96,587863
1.8182,0.0587,39.8500,70,96,587866
1.8377,0.0538,39.6200,70,96,587869
1.8133,0.0635,39.7500,70,96,587873
1.8182,0.0538,39.8500,70,96,587876
1.8475,0.0684,39.7200,70,96,587879
1.8426,0.0587,39.8500,70,96,587883
1.8915,0.0587,39.5100,70,96,587886
1.8524,0.0538,39.7700,70,96,587889
1.8622,0.0538,39.8500,70,96,587893
1.8817,0.0635,39.8300,70,96,587896
1.8866,0.0587,39.8500,70,96,587899
1.9404,0.0635,39.5400,70,96,587902
1.9062,0.0635,39.8000,70,96,587907
1.8964,0.0538,39.7700,70,96,587910
1.9013,0.0635,39.6700,70,96,587913
1.9013,0.0538,39.8800,70,96,587917
1.9404,0.0635,39.6400,70,96,587920
1.8915,0.0587,39.8300,70,96,587923
1.8964,0.0587,39.6700,70,96,587927
1.8768,0.0587,39.8800,70,96,587930
1.8719,0.0831,39.8500,70,96,587933
1.9062,0.0635,39.6900,70,96,587937
1.8964,0.0684,39.8300,70,96,587940
1.9257,0.0635,39.6900,70,96,587943
1.9110,0.0635,39.8300,70,96,587947
1.9306,0.0587,39.8500,70,96,587951
1.9453,0.0635,39.7200,70,96,587954
1.9257,0.0587,39.8500,70,96,587957
1.9550,0.0587,39.5900,70,96,587961
1.9404,0.0587,39.8300,70,96,587964
1.9599,0.0587,39.8500,70,96,587967
1.9746,0.0635,39.7700,70,96,587971
1.9599,0.0587,39.8500,70,96,587974
1.9990,0.0587,39.5100,70,96,587977
1.9697,0.0635,39.7500,70,96,587981
1.9453,0.0635,39.8500,70,96,587984
1.9550,0.0880,39.8000,70,96,587987
1.9550,0.0587,39.8800,70,96,587992
2.0235,0.0684,39.4800,70,96,587995
2.0674,0.0538,39.6900,70,96,588000
2.0479,0.0635,39.8300,70,96,588003
2.0723,0.0587,39.6700,70,96,588006
2.0870,0.0587,39.8500,70,96,588009
2.0919,0.0587,39.9300,70,96,588013
2.1359,0.0538,39.7700,70,96,588016
2.1212,0.0587,39.8300,70,96,588019
2.1554,0.0538,39.6900,70,96,588023
2.1163,0.0587,39.8500,70,96,588026
2.1261,0.0587,39.8800,70,96,588029
2.1457,0.0635,39.7200,70,96,588034
2.1163,0.0587,39.8300,70,96,588037
2.1554,0.0489,39.5600,70,96,588040
2.1163,0.0587,39.6900,70,96,588044
2.0772,0.0538,39.8800,70,96,588047
2.0723,0.0538,39.7700,70,96,588050
2.0235,0.0587,39.8800,70,96,588054
2.0430,0.0635,39.4800,70,96,588057
1.9795,0.0635,39.7200,70,96,588060
1.9404,0.0880,39.8500,70,96,588063
1.9208,0.0635,39.8300,70,96,588067
1.8817,0.0635,39.8300,70,96,588070
1.9257,0.0733,39.5100,70,96,588073
1.8524,0.0587,39.7700,70,96,588078
1.8182,0.0538,39.7200,70,96,588081
1.7840,0.0635,39.8500,70,96,588084
1.7498,0.0635,39.8800,70,96,588088
1.7644,0.0684,39.7700,70,96,588091
1.7302,0.0684,39.8300,70,96,588094
1.7204,0.0587,39.6900,70,96,588098
1.6911,0.0342,39.8500,70,96,588101
1.6911,0.0587,39.8300,70,96,588104
1.7253,0.0635,39.6400,70,96,588108
1.7302,0.0587,39.8500,70,96,588111
1.7253,0.0635,39.6400,70,96,588114
1.7009,0.0587,39.7700,70,96,588118
1.7058,0.0587,39.8800,70,96,588122
1.7302,0.0538,39.7200,70,96,588125
1.7204,0.0587,39.8500,70,96,588128
1.7449,0.0587,39.5900,70,96,588132
1.7204,0.0684,39.7500,70,96,588135
1.7253,0.0538,39.8500,70,96,588138
1.7302,0.0684,39.7200,70,96,588142
1.7204,0.0587,39.8500,70,96,588145
1.7693,0.0684,39.5100,70,96,588148
1.7302,0.0538,39.8300,70,96,588152
1.7449,0.0635,39.8800,70,96,588155
1.7155,0.0635,39.8000,70,96,588158
1.7058,0.0587,39.8500,70,96,588163
1.7644,0.0733,39.5100,70,96,588166
1.7498,0.0635,39.7500,70,96,588169
1.7546,0.0880,39.7500,70,96,588173
1.7644,0.0635,39.6700,70,96,588176
1.7595,0.0538,39.8500,70,96,588179
1.7937,0.0635,39.5400,70,96,588182
1.7449,0.0587,39.8300,70,96,588186
1.7546,0.0587,39.6900,70,96,588189
1.7351,0.0587,39.8500,70,96,588192
1.7400,0.0538,39.8500,70,96,588196
1.7791,0.0635,39.8000,70,96,588199
1.7644,0.0587,39.8300,70,96,588203
1.7937,0.0635,39.6900,70,96,588207
1.7693,0.0635,39.8000,70,96,588210
1.7791,0.0587,39.8800,70,96,588213
1.7840,0.0635,39.7200,70,96,588217
1.7644,0.0587,39.8300,70,96,588220
1.7889,0.0538,39.5900,70,96,588223
1.7644,0.0587,39.8300,70,96,588227
1.7791,0.0538,39.8500,70,96,588230
1.8084,0.0684,39.7200,70,96,588233
1.7986,0.0587,39.8800,70,96,588236
1.8524,0.0684,39.5100,70,96,588240
1.8280,0.0635,39.7200,70,96,588243
1.8084,0.0587,39.8800,70,96,588247
1.8035,0.0635,39.8300,70,96,588251
1.7986,0.0587,39.8500,70,96,588254
1.8328,0.0733,39.4100,70,96,588257
1.7889,0.0635,39.7700,70,96,588261
1.7791,0.0782,39.7500,70,96,588264
1.7791,0.0635,39.8500,70,96,588267
1.7742,0.0929,39.8800,70,96,588271
1.8084,0.0684,39.6400,70,96,588274
1.7742,0.0587,39.8000,70,96,588277
1.7791,0.0587,39.7200,70,96,588281
1.7644,0.0538,39.8500,70,96,588284
1.7742,0.0880,39.8800,70,96,588288
1.8035,0.0342,39.7700,70,96,588291
1.7840,0.0587,39.8300,70,96,588295
1.8133,0.0635,39.6900,70,96,588298
1.7742,0.0635,39.8800,70,96,588301
1.7791,0.0587,39.6900,70,96,588305
1.8328,0.0635,39.6900,70,96,588308
1.7889,0.0635,39.8500,70,96,588311
1.8231,0.0587,39.5900,70,96,588315
1.8035,0.0538,39.6900,70,96,588318
1.7986,0.0342,39.8500,70,96,588321
1.8084,0.0635,39.8000,70,96,588325
1.7986,0.0587,39.8500,70,96,588328
1.8377,0.0635,39.5100,70,96,588332
1.8182,0.0587,39.7500,70,96,588336
1.8182,0.0587,39.8500,70,96,588339
1.8328,0.0635,39.9100,70,96,588342
1.8182,0.0635,39.8500,70,96,588345
1.8671,0.0684,39.5100,70,96,588349
1.8280,0.0635,39.7700,70,96,588352
1.8182,0.0587,39.7700,70,96,588355
1.8133,0.0635,39.8300,70,96,588359
1.8133,0.0587,39.8500,70,96,588362
1.8573,0.0684,39.6900,70,96,588365
1.8280,0.0635,39.8000,70,96,588369
1.8328,0.0880,39.6900,70,96,588372
1.7937,0.0587,39.8300,70,96,588376
1.7889,0.0342,39.8800,70,96,588380
1.8035,0.0587,39.6700,70,96,588383
1.7742,0.0587,39.8300,70,96,588386
1.8182,0.0684,39.6900,70,96,588390
1.8035,0.0538,39.8800,70,96,588393
1.8133,0.0587,39.8800,70,96,588396
1.8377,0.0635,39.7200,70,96,588400
1.8573,0.0538,39.8500,70,96,588403
1.8622,0.0587,39.5600,70,96,588406
1.8377,0.0587,39.7500,70,96,588409
1.8377,0.0635,39.8800,70,96,588413
1.8671,0.0684,39.7700,70,96,588417
1.8671,0.0587,39.8500,70,96,588420
1.9306,0.0635,39.5900,70,96,588424
1.9110,0.0538,39.7700,70,96,588427
1.9306,0.0831,39.8500,70,96,588430
1.9501,0.0635,39.8300,70,96,588434
1.9355,0.0342,39.8500,70,96,588437
1.9941,0.0733,39.5400,70,96,588440
1.9453,0.0635,39.7700,70,96,588444
1.9355,0.0538,39.7500,70,96,588447
1.9306,0.0587,39.8500,70,96,588450
1.9599,0.0538,39.8800,70,96,588454
1.9648,0.0684,39.6200,70,96,588457
1.9257,0.0587,39.7200,70,96,588461
1.9257,0.0587,39.6700,70,96,588465
1.8866,0.0587,39.9100,70,96,588468
1.8622,0.0538,39.8500,70,96,588471
1.8719,0.0880,39.7200,70,96,588474
1.8328,0.0587,39.8500,70,96,588478
1.8426,0.0587,39.6700,70,96,588481
1.8035,0.0538,39.8000,70,96,588484
1.7986,0.0587,39.8500,70,96,588488
1.7986,0.0587,39.7200,70,96,588491
1.7791,0.0635,39.8500,70,96,588494
1.7986,0.0587,39.5600,70,96,588498
1.7644,0.0538,39.8500,70,96,588502
1.7449,0.0587,39.9100,70,96,588505
1.7546,0.0684,39.8000,70,96,588509
1.7302,0.0929,39.8500,70,96,588512
1.7693,0.0635,39.4800,70,96,588515
1.7302,0.0587,39.7500,70,96,588519
1.7204,0.0587,39.8800,70,96,588522
1.7107,0.0587,39.8300,70,96,588525
1.7155,0.0587,39.9100,70,96,588528
1.7742,0.0538,39.5600,70,96,588532
1.7449,0.0635,39.8000,70,96,588535
1.7546,0.0538,39.7700,70,96,588538
1.7546,0.0587,39.8500,70,96,588542
1.7644,0.0587,39.8500,70,96,588546
1.7986,0.0684,39.6700,70,96,588549
1.7693,0.0635,39.8000,70,96,588553
1.7791,0.0538,39.6700,70,96,588556
1.7595,0.0587,39.8300,70,96,588559
1.7644,0.0538,39.8500,70,96,588563
1.7742,0.0635,39.7500,70,96,588566
1.7400,0.0635,39.8500,70,96,588569
1.7400,0.0635,39.6700,70,96,588573
1.7058,0.0587,39.8500,70,96,588576
1.7302,0.0489,39.8800,70,96,588579
1.8035,0.0684,39.7200,70,96,588582
1.8719,0.0587,39.8500,70,96,588587
2.0479,0.0587,39.5900,70,96,588590
2.2190,0.0635,39.6900,70,96,588593
2.4145,0.0587,39.8500,70,96,588597
2.6393,0.0538,39.7700,70,96,588600
2.7419,0.0587,39.9100,70,96,588603
2.7322,0.0342,39.4800,70,96,588607
1.3099,0.0978,39.6400,70,96,588611
1.1584,0.0342,39.8000,70,96,588615
1.1241,0.0538,39.6900,70,96,588618
1.1584,0.0538,39.8500,70,96,588621
1.2659,0.0587,39.8800,70,96,588625
1.4125,0.0684,39.8500,70,96,588628
1.5054,0.0635,39.8500,70,96,588632
1.6276,0.0587,39.6900,70,96,588636
1.6862,0.0587,39.8500,70,96,588639
1.7400,0.0929,39.8800,70,96,588642
1.8084,0.0635,39.6900,70,96,588645
1.7937,0.0587,39.8500,70,96,588649
1.8377,0.0587,39.6700,70,96,588652
1.8231,0.0538,39.7500,70,96,588655
1.8133,0.0538,39.8500,70,96,588659
1.8426,0.0635,39.7500,70,96,588662
1.8328,0.0587,39.8500,70,96,588665
1.8866,0.0587,39.5400,70,96,588669
1.8573,0.0635,39.7500,70,96,588673
1.8524,0.0342,39.8800,70,96,588676
1.8573,0.0831,39.7700,70,96,588680
1.8377,0.0587,39.8500,70,96,588683
1.8817,0.0684,39.4800,70,96,588686
1.8475,0.0587,39.5400,70,96,588690
1.8426,0.0587,39.8000,70,96,588693
1.8524,0.0635,39.9100,70,96,588696
1.8573,0.0538,39.8500,70,96,588700
1.9110,0.0684,39.6400,70,96,588703
1.8719,0.0635,39.8300,70,96,588706
1.8768,0.0538,39.6900,70,96,588709
1.8719,0.0635,39.8500,70,96,588713
1.8768,0.0538,39.8800,70,96,588717
1.9159,0.0635,39.6200,70,96,588720
1.8817,0.0587,39.8500,70,96,588724
1.9110,0.0635,39.6700,70,96,588727
1.8866,0.0587,39.8500,70,96,588730
1.8866,0.0538,39.8800,70,96,588734
1.9159,0.0635,39.7700,70,96,588737
1.8964,0.0635,39.8300,70,96,588740
1.9306,0.0587,39.6700,70,96,588744
1.9062,0.0538,39.7700,70,96,588747
1.9110,0.0684,39.8300,70,96,588750
1.9355,0.0635,39.7200,70,96,588754
1.9208,0.0587,39.8300,70,96,588758
1.9648,0.0635,39.5400,70,96,588761
1.9306,0.0587,39.8000,70,96,588764
1.9453,0.0587,39.8500,70,96,588768
1.9599,0.0635,39.8300,70,96,588771
1.9697,0.0587,39.8500,70,96,588774
2.0381,0.0635,39.4800,70,96,588778
2.0039,0.0635,39.7700,70,96,588781
1.9990,0.0587,39.8000,70,96,588784
1.9844,0.0587,39.8500,70,96,588788
1.9795,0.0587,39.8500,70,96,588791
2.0430,0.0684,39.5900,70,96,588794
2.0088,0.0635,39.8500,70,96,588798
2.0186,0.0684,39.6900,70,96,588802
2.0088,0.0635,39.8500,70,96,588805
2.0186,0.0587,39.8800,70,96,588808
2.0577,0.0733,39.6400,70,96,588812
2.0430,0.0587,39.8300,70,96,588815
2.0674,0.0635,39.6700,70,96,588818
2.0626,0.0587,39.8500,70,96,588822
2.0772,0.0587,39.8500,70,96,588825
2.1114,0.0635,39.7700,70,96,588828
2.0919,0.0587,39.8300,70,96,588832
2.1603,0.0635,39.6900,70,96,588835
2.1065,0.0733,39.8800,70,96,588838
2.1457,0.0538,39.8800,70,96,588843
2.1359,0.0635,39.8300,70,96,588846
2.1017,0.0587,39.8800,70,96,588849
2.1261,0.0587,39.6400,70,96,588852
2.0968,0.0587,39.7200,70,96,588856
2.0723,0.0587,39.9300,70,96,588859
2.0626,0.0684,39.8000,70,96,588862
2.0137,0.0635,39.8800,70,96,588866
2.0235,0.0538,39.5100,70,96,588869
1.9501,0.0635,39.7700,70,96,588872
1.9257,0.0587,39.8500,70,96,588876
1.8866,0.0635,39.8300,70,96,588879
1.8524,0.0587,39.8500,70,96,588882
1.8915,0.0635,39.4300,70,96,588887
1.8573,0.0587,39.7200,70,96,588890
1.7986,0.0538,39.7700,70,96,588893
1.7693,0.0635,39.8500,70,96,588896
1.7302,0.0587,39.8500,70,96,588900
1.7302,0.0733,39.6400,70,96,588903
1.6716,0.0587,39.8000,70,96,588906
1.6716,0.0587,39.6900,70,96,588910
1.6618,0.0587,39.8800,70,96,588913
1.6667,0.0587,39.8300,70,96,588916
1.7204,0.0635,39.6200,70,96,588920
1.6667,0.0635,39.8300,70,96,588923
1.6862,0.0635,39.6900,70,96,588926
1.6716,0.0635,39.8300,70,96,588931
1.6813,0.0587,39.8500,70,96,588934
1.7058,0.0342,39.7200,70,96,588937
1.6813,0.0587,39.8800,70,96,588941
1.7204,0.0587,39.6200,70,96,588944
1.6911,0.0587,39.8800,70,96,588947
1.6862,0.0587,39.8500,70,96,588950
1.7058,0.0635,39.6900,70,96,588954
1.6862,0.0342,39.8500,70,96,588957
1.7302,0.0635,39.5100,70,96,588960
1.6960,0.0538,39.8000,70,96,588964
1.7058,0.0587,39.8300,70,96,588967
1.7204,0.0635,39.8000,70,96,588971
1.7107,0.0684,39.8800,70,96,588975
1.7693,0.0635,39.4800,70,96,588978
1.7400,0.0635,39.6900,70,96,588981
1.7400,0.0587,39.8000,70,96,588985
1.7351,0.0635,39.9100,70,96,588988
1.7449,0.0587,39.8500,70,96,588991
1.7986,0.0733,39.5900,70,96,588994
1.7644,0.0342,39.8000,70,96,588998
1.7693,0.0587,39.7200,70,96,589001
1.7546,0.0538,39.8500,70,96,589004
1.7498,0.0587,39.8500,70,96,589008
1.7791,0.0635,39.6400,70,96,589011
1.7546,0.0635,39.8300,70,96,589015
1.7693,0.0587,39.6900,70,96,589019
1.7449,0.0831,39.8500,70,96,589022
1.7449,0.0587,39.8500,70,96,589025
1.7449,0.0538,39.7500,70,96,589029
1.7400,0.0587,39.8500,70,96,589032
1.7791,0.0587,39.6400,70,96,589035
1.7498,0.0635,39.8500,70,96,589039
1.7644,0.0587,39.8500,70,96,589042
1.7840,0.0538,39.6900,70,96,589045
1.7644,0.0587,39.8800,70,96,589048
1.7986,0.0587,39.5400,70,96,589052
1.7791,0.0635,39.6900,70,96,589056
1.7693,0.0342,39.8500,70,96,589059
1.8133,0.0635,39.8000,70,96,589063
1.7840,0.0587,39.8500,70,96,589066
1.8377,0.0684,39.4800,70,96,589069
1.7937,0.0587,39.8000,70,96,589073
1.7986,0.0587,39.8000,70,96,589076
1.8084,0.0635,39.8300,70,96,589079
1.7986,0.0538,39.8500,70,96,589083
1.8475,0.0733,39.5900,70,96,589086
1.8035,0.0538,39.7700,70,96,589089
1.7889,0.0538,39.7200,70,96,589093
1.7742,0.0587,39.8300,70,96,589096
1.7791,0.0587,39.8800,70,96,589100
1.8133,0.0684,39.7500,70,96,589103
1.7889,0.0635,39.8300,70,96,589107
1.8182,0.0587,39.6700,70,96,589110
1.8133,0.0538,39.8500,70,96,589113
1.8035,0.0587,39.8500,70,96,589117
1.8328,0.0538,39.6700,70,96,589120
1.7937,0.0880,39.8500,70,96,589123
1.8133,0.0538,39.6400,70,96,589127
1.7742,0.0831,39.7200,70,96,589130
1.7742,0.0587,39.8500,70,96,589133
1.7742,0.0635,39.8000,70,96,589137
1.7791,0.0587,39.8800,70,96,589140
1.8524,0.0538,39.5400,70,96,589144
1.7937,0.0587,39.8000,70,96,589148
1.7937,0.0587,39.8500,70,96,589151
1.8133,0.0684,39.7700,70,96,589154
1.7937,0.0440,39.8800,70,96,589157
1.8377,0.0635,39.5100,70,96,589161
1.7937,0.0587,39.7200,70,96,589164
1.7937,0.0538,39.8000,70,96,589167
1.8035,0.0538,39.8300,70,96,589171
1.8084,0.0587,39.8500,70,96,589174
1.8817,0.0733,39.5600,70,96,589177
1.8377,0.0635,39.8000,70,96,589181
1.8622,0.0587,39.7200,70,96,589185
1.8182,0.0684,39.8500,70,96,589188
1.8133,0.0587,39.8800,70,96,589192
1.8328,0.0684,39.5900,70,96,589195
1.7986,0.0587,39.8500,70,96,589198
1.8475,0.0538,39.6700,70,96,589202
1.8280,0.0587,39.8300,70,96,589205
1.8426,0.0538,39.8500,70,96,589208
1.8866,0.0684,39.7700,70,96,589211
1.8768,0.0342,39.8500,70,96,589215
1.8964,0.0587,39.6700,70,96,589218
1.8426,0.0587,39.5600,71,96,589221
1.9355,0.0440,39.8000,71,96,589227
1.9306,0.0587,39.8800,71,96,589230
1.9550,0.0733,39.7700,71,96,589234
1.9404,0.0587,39.8300,71,96,589237
1.9941,0.0635,39.4800,71,96,589240
1.9404,0.0635,39.7200,71,96,589244
1.9306,0.0538,39.8000,71,96,589247
1.9110,0.0635,39.8300,71,96,589250
1.9159,0.0587,39.8800,71,96,589254
1.9795,0.0733,39.5900,71,96,589257
1.9355,0.0587,39.8500,71,96,589260
1.9501,0.0587,39.7200,71,96,589263
1.9159,0.0635,39.8300,71,96,589267
1.8915,0.0684,39.8800,71,96,589271
1.9013,0.0684,39.6900,71,96,589274
1.8622,0.0635,39.8300,71,96,589278
1.8671,0.0587,39.5600,71,96,589281
1.8328,0.0587,39.8500,71,96,589284
1.8377,0.0538,39.8500,71,96,589288
1.8524,0.0538,39.6200,71,96,589291
1.8231,0.0635,39.8500,71,96,589294
1.8328,0.0587,39.6700,71,96,589298
1.7791,0.0587,39.8500,71,96,589301
1.7546,0.0635,39.8800,71,96,589304
1.7546,0.0635,39.7200,71,96,589308
1.7204,0.0684,39.8500,71,96,589312
1.7449,0.0684,39.5400,71,96,589315
1.7155,0.0587,39.7200,71,96,589318
1.7058,0.0587,39.8800,71,96,589322
1.7155,0.0684,39.8300,71,96,589325
1.7204,0.0587,39.8500,71,96,589328
1.7986,0.0635,39.4800,71,96,589332
1.7253,0.0831,39.7700,71,96,589335
1.7253,0.0538,39.8300,71,96,589338
1.7351,0.0587,39.8500,71,96,589342
1.7351,0.0587,39.8500,71,96,589345
1.8035,0.0635,39.6200,71,96,589348
1.7840,0.0635,39.7700,71,96,589352
1.7889,0.0587,39.7200,71,96,589356
1.7791,0.0587,39.8500,71,96,589359
1.7693,0.0587,39.8800,71,96,589363
1.7937,0.0538,39.7500,71,96,589366
1.7351,0.0635,39.8300,71,96,589369
1.7693,0.0538,39.6900,71,96,589373
1.7351,0.0587,39.8500,71,96,589376
1.7742,0.0635,39.7500,71,96,589379
1.8622,0.0684,39.6900,71,96,589382
1.9208,0.0587,39.8300,71,96,589386
2.0772,0.0587,39.6400,71,96,589389
2.2239,0.0587,39.7200,71,96,589392
2.4585,0.0587,39.8500,71,96,589396
2.6393,0.0489,39.8000,71,96,589400
2.7322,0.0587,39.8500,71,96,589403
2.6735,0.0587,39.5600,71,96,589407
2.3216,0.0587,39.8500,71,96,589410
1.9550,0.0587,39.9600,71,96,589413
1.6667,0.0684,39.8000,71,96,589417
1.4174,0.0587,39.8500,71,96,589420
1.2757,0.0587,39.4800,71,96,589423
1.1437,0.0587,39.7200,71,96,589427
1.1193,0.0538,39.8000,71,96,589430
1.1877,0.0684,39.8300,71,96,589433
1.2854,0.0587,39.8500,71,96,589436
1.4809,0.0733,39.6200,71,96,589441
1.5347,0.0635,39.8000,71,96,589444
1.6178,0.0587,39.7200,71,96,589447
1.6716,0.0587,39.8300,71,96,589451
1.7107,0.0538,39.8800,71,96,589454
1.7644,0.0978,39.6200,71,96,589457
1.7595,0.0587,39.9300,71,96,589461
1.8280,0.0587,39.6900,71,96,589464
1.8035,0.0587,39.8800,71,96,589467
1.8231,0.0831,39.8500,71,96,589471
1.8524,0.0635,39.7200,71,96,589474
1.8622,0.0587,39.8500,71,96,589477
1.8671,0.0587,39.6400,71,96,589481
1.8573,0.0587,39.8300,71,96,589485
1.8573,0.0587,39.8300,71,96,589488
1.8817,0.0587,39.6900,71,96,589491
1.8671,0.0587,39.8800,71,96,589495
1.8866,0.0342,39.5400,71,96,589498
1.8426,0.0635,39.8300,71,96,589501
1.8426,0.0538,39.8500,71,96,589505
1.8524,0.0635,39.8000,71,96,589508
1.8524,0.0587,39.8800,71,96,589511
1.9062,0.0587,39.4800,71,96,589515
1.8768,0.0635,39.7500,71,96,589518
1.8915,0.0587,39.8300,71,96,589521
1.8671,0.0880,39.8300,71,96,589526
1.8768,0.0587,39.8500,71,96,589529
1.9355,0.0880,39.5900,71,96,589532
1.8915,0.0635,39.8300,71,96,589536
1.8964,0.0587,39.7500,71,96,589539
1.8964,0.0635,39.8800,71,96,589542
1.9013,0.0538,39.8500,71,96,589545
1.9453,0.0684,39.7500,71,96,589549
1.9404,0.0684,39.8300,71,96,589552
1.9404,0.0587,39.5100,71,96,589555
1.9159,0.0538,39.8800,71,96,589559
1.9062,0.0489,39.8800,71,96,589562
1.9208,0.0587,39.7700,71,96,589565
1.9159,0.0635,39.8500,71,96,589570
1.9648,0.0342,39.6900,71,96,589573
1.9355,0.0684,39.8800,71,96,589576
1.9453,0.0587,39.8500,71,96,589580
1.9648,0.0684,39.7200,71,96,589583
1.9453,0.1075,39.8500,71,96,589586
1.9844,0.0538,39.5600,71,96,589590
1.9648,0.0635,39.7200,71,96,589593
1.9648,0.0587,39.9800,71,96,589596
1.9892,0.0635,39.8000,71,96,589599
1.9892,0.0635,39.8300,71,96,589603
2.0528,0.0635,39.5100,71,96,589606
2.0186,0.0587,39.8000,71,96,589609
2.0332,0.0538,39.8500,71,96,589614
2.0479,0.0635,39.8000,71,96,589617
2.0381,0.0587,39.8500,71,96,589620
2.1065,0.0733,39.5600,71,96,589624
2.0674,0.0635,39.7500,71,96,589627
2.0674,0.0635,39.7700,71,96,589630
2.0723,0.0684,39.8500,71,96,589634
2.0870,0.0587,39.8500,71,96,589637
2.1408,0.0684,39.6900,71,96,589640
2.1114,0.0684,39.8300,71,96,589643
2.1310,0.0587,39.6900,71,96,589647
2.1065,0.0684,39.8500,71,96,589650
2.1212,0.0587,39.9100,71,96,589654
2.1652,0.0684,39.6700,71,96,589658
2.1261,0.0782,39.8300,71,96,589661
2.1554,0.0342,39.6900,71,96,589664
2.0919,0.0538,39.9300,71,96,589668
2.0626,0.0635,39.8500,71,96,589671
2.0430,0.0635,39.7700,71,96,589674
2.0039,0.0587,39.8500,71,96,589678
1.9990,0.0538,39.6200,71,96,589681
1.9355,0.0635,39.8300,71,96,589684
1.9062,0.0587,39.9100,71,96,589687
1.8866,0.0684,39.6900,71,96,589691
1.8328,0.0587,39.8500,71,96,589694
1.8377,0.0587,39.5100,71,96,589698
1.7742,0.0538,39.7700,71,96,589702
1.7595,0.0538,39.8800,71,96,589705
1.7644,0.0635,39.7700,71,96,589708
1.7449,0.0587,39.8800,71,96,589712
1.7791,0.0733,39.4600,71,96,589715
1.7253,0.0635,39.6900,71,96,589718
1.6960,0.0440,39.7700,71,96,589722
1.6813,0.0587,39.8300,71,96,589725
1.6667,0.0538,39.8500,71,96,589728
1.7155,0.0684,39.5900,71,96,589732
1.6813,0.0587,39.8300,71,96,589735
1.6960,0.0684,39.6900,71,96,589739
1.6862,0.0587,39.8500,71,96,589742
1.6764,0.0635,39.8500,71,96,589746
1.6960,0.0635,39.7500,71,96,589749
1.6911,0.0782,39.8300,71,96,589752
1.7204,0.0587,39.6700,71,96,589756
1.7009,0.0635,39.8800,71,96,589759
1.7155,0.0538,39.8800,71,96,589762
1.7351,0.0880,39.7200,71,96,589766
1.7351,0.0587,39.8500,71,96,589769
1.7644,0.0538,39.6400,71,96,589772
1.7302,0.0587,39.8500,71,96,589776
1.7351,0.0587,39.8800,71,96,589779
1.7449,0.0635,39.6700,71,96,589783
1.7253,0.0587,39.8500,71,96,589786
1.7693,0.0587,39.5400,71,96,589790
1.7595,0.0587,39.8800,71,96,589793
1.7595,0.0587,39.8800,71,96,589796
1.7791,0.0782,39.8300,71,96,589800
1.7742,0.0587,39.8500,71,96,589803
1.8133,0.0684,39.4600,71,96,589806
1.7595,0.0587,39.7500,71,96,589810
1.7498,0.0342,39.8000,71,96,589813
1.7498,0.0635,39.8800,71,96,589816
1.7742,0.0538,39.8800,71,96,589820
1.7937,0.0733,39.6200,71,96,589824
1.7742,0.0635,39.8000,71,96,589827
1.7840,0.0733,39.6900,71,96,589831
1.7644,0.0587,39.8800,71,96,589834
1.7693,0.0587,39.8500,71,96,589839
1.7840,0.0587,39.9300,71,96,589842
1.8182,0.0538,39.6900,71,96,589845
1.7889,0.0635,39.8500,71,96,589849
1.8182,0.0587,39.5600,71,96,589852
1.7937,0.0587,39.7500,71,96,589855
1.7889,0.0587,39.8800,71,96,589859
1.8035,0.0635,39.8300,71,96,589862
1.7840,0.0587,39.8300,71,96,589865
1.8280,0.0538,39.5100,71,96,589869
1.7840,0.0587,39.8000,71,96,589873
1.7986,0.0538,39.9300,71,96,589876
1.8280,0.0538,39.8000,71,96,589879
1.8133,0.0587,39.8800,71,96,589883
1.8719,0.0684,39.5600,71,96,589886
1.8377,0.0733,39.7700,71,96,589889
1.8280,0.0587,39.7500,71,96,589893
1.8084,0.0635,39.8500,71,96,589896
1.8084,0.0587,39.8500,71,96,589899
1.8377,0.0929,39.6900,71,96,589903
1.8084,0.0635,39.8500,71,96,589906
1.8133,0.0587,39.6700,71,96,589910
1.7840,0.0587,39.8300,71,96,589914
1.8035,0.0538,39.8500,71,96,589917
1.8182,0.0684,39.6700,71,96,589920
1.7986,0.0587,39.8500,71,96,589923
1.8280,0.0587,39.6700,71,96,589927
1.7986,0.0538,39.7700,71,96,589930
1.7986,0.0587,39.8800,71,96,589933
1.8084,0.0587,39.8500,71,96,589937
1.8035,0.0635,39.8500,71,96,589940
1.8377,0.0587,39.5600,71,96,589943
1.8084,0.0684,39.8300,71,96,589947
1.8182,0.0538,39.8500,71,96,589950
1.8426,0.0684,39.7500,71,96,589954
1.8377,0.0587,39.8800,71,96,589958
1.8866,0.0733,39.5100,71,96,589961
1.8475,0.0538,39.7500,71,96,589964
1.8426,0.0538,39.8500,71,96,589968
1.8377,0.0635,39.8000,71,96,589971
1.8231,0.0587,39.8500,71,96,589974
1.8719,0.0831,39.5600,71,96,589977
1.8280,0.0635,39.7700,71,96,589981
1.8231,0.0538,39.7500,71,96,589984
1.8231,0.0587,39.8800,71,96,589987
1.8328,0.0538,39.8300,71,96,589991
1.8622,0.0635,39.6200,71,96,589995
1.8280,0.0587,39.8500,71,96,589998
1.8377,0.0635,39.6700,71,96,590002
