ecg,gsr,temp,hr,spo2,timest
1.5494,0.3128,36.6700,55,97,130434
1.5445,0.3079,36.7900,55,97,130437
1.5982,0.3177,36.5200,55,97,130440
1.5934,0.3128,36.6700,55,97,130444
1.5934,0.3128,36.7900,55,97,130447
1.6178,0.3079,36.7600,55,97,130450
1.6227,0.2981,36.7900,55,97,130454
1.6813,0.3177,36.4900,55,97,130457
1.6373,0.3128,36.6400,55,97,130460
1.6422,0.3030,36.8200,55,97,130464
1.6422,0.3079,36.7600,55,97,130467
1.6618,0.3079,36.7900,55,97,130470
1.7204,0.3275,36.6100,55,97,130475
1.6960,0.3079,36.8200,55,97,130478
1.7058,0.3079,36.6700,55,97,130481
1.6813,0.2884,36.8200,55,97,130485
1.6764,0.3030,36.7900,55,97,130488
1.7009,0.3128,36.7000,55,97,130491
1.6960,0.3079,36.7900,55,97,130494
1.7204,0.3079,36.6400,55,97,130498
1.6911,0.3030,36.7900,55,97,130501
1.7009,0.3226,36.7900,55,97,130504
1.7351,0.3128,36.7000,55,97,130508
1.7107,0.3079,36.7900,55,97,130511
1.7400,0.3128,36.6100,55,97,130514
1.7204,0.3079,36.7300,55,97,130519
1.7155,0.3128,36.7600,55,97,130522
1.7204,0.3079,36.4000,55,97,130525
1.7058,0.3079,36.8200,55,97,130529
1.7498,0.3128,36.4900,55,97,130532
1.7155,0.3128,36.7600,55,97,130535
1.7204,0.3079,36.7900,55,97,130539
1.7302,0.3226,36.7600,55,97,130542
1.7302,0.3079,36.8500,55,97,130545
1.7742,0.3177,36.4900,55,97,130548
1.7253,0.3079,36.7300,55,97,130552
1.7253,0.3030,36.7600,55,97,130555
1.7155,0.3177,36.7600,55,97,130558
1.7107,0.3079,36.7900,55,97,130563
1.7644,0.3226,36.6100,55,97,130566
1.7449,0.3079,36.9100,55,97,130569
1.7595,0.3470,36.6400,55,97,130573
1.7449,0.3079,36.7900,55,97,130576
1.7449,0.3030,36.7900,55,97,130579
1.7644,0.3177,36.6100,55,97,130583
1.7498,0.3079,36.7300,55,97,130586
1.7351,0.3128,36.6400,55,97,130589
1.7058,0.3177,36.8200,55,97,130593
1.7058,0.3030,36.7900,55,97,130596
1.7351,0.3372,36.6700,55,97,130599
1.7498,0.3079,36.7900,55,97,130603
1.7498,0.3128,36.3400,55,97,130607
1.7204,0.3079,36.7000,55,97,130610
1.7351,0.3030,36.9100,55,97,130613
1.7595,0.3079,36.7300,55,97,130617
1.7791,0.2981,36.7900,55,97,130620
1.8035,0.3128,36.5500,55,97,130623
1.7644,0.3128,36.7600,55,97,130627
1.7742,0.3030,36.8200,55,97,130630
1.7791,0.3079,36.7300,55,97,130633
1.7644,0.3079,36.7900,55,97,130637
1.8182,0.3177,36.5500,55,97,130640
1.8231,0.3128,36.7000,55,97,130643
1.7840,0.2981,36.7600,55,97,130648
1.7889,0.2981,36.7600,55,97,130651
1.7889,0.3030,36.5500,55,97,130654
1.8377,0.3226,36.5800,55,97,130657
1.8035,0.3079,36.6700,55,97,130661
1.8035,0.3079,36.6700,55,97,130664
1.7986,0.3079,36.8200,55,97,130667
1.8035,0.3030,36.7900,55,97,130671
1.8328,0.3226,36.6100,55,97,130674
1.8035,0.3079,36.7600,55,97,130677
1.8231,0.3079,36.6100,55,97,130681
1.7840,0.3079,36.7900,55,97,130684
1.7840,0.3030,36.7900,55,97,130688
1.7937,0.3079,36.7300,55,97,130692
1.7937,0.3079,36.7900,55,97,130695
1.8280,0.3128,36.1000,55,97,130698
1.7937,0.3079,36.8200,55,97,130701
1.8035,0.3030,36.7900,55,97,130705
1.8280,0.3128,36.9100,55,97,130708
1.8035,0.3079,36.7900,55,97,130711
1.8377,0.3079,36.5200,55,97,130715
1.8426,0.2981,36.6700,55,97,130718
1.8084,0.3030,36.7900,55,97,130721
1.8133,0.3177,36.7000,55,97,130725
1.7937,0.3030,36.7900,55,97,130728
1.8377,0.3079,36.4900,55,97,130732
1.8084,0.3079,36.7000,55,97,130736
1.8035,0.3030,36.8200,55,97,130739
1.8084,0.3079,36.8800,55,97,130742
1.8035,0.3030,36.7900,55,97,130745
1.8475,0.3226,36.4900,55,97,130749
1.8035,0.3324,36.7600,55,97,130752
1.7986,0.2981,36.7300,55,97,130755
1.7937,0.3079,36.7900,55,97,130759
1.7889,0.3079,36.7900,55,97,130762
1.8328,0.3226,36.7300,55,97,130765
1.8084,0.3030,36.7300,55,97,130769
1.8622,0.2981,36.6700,55,97,130772
1.8280,0.3079,36.8200,55,97,130776
1.8377,0.3079,36.7900,55,97,130779
1.8671,0.3177,36.6100,55,97,130783
1.8280,0.3079,36.7600,55,97,130786
1.8475,0.3128,36.6400,55,97,130789
1.8182,0.3030,36.7600,55,97,130793
1.8426,0.2884,36.7900,55,97,130796
1.8377,0.3030,36.6700,55,97,130799
1.8133,0.3079,36.7600,55,97,130803
1.8377,0.3128,35.9200,55,97,130806
1.8084,0.2981,36.7300,55,97,130809
1.8182,0.3030,36.7000,55,97,130813
1.8328,0.3128,36.7000,55,97,130817
1.8231,0.3079,36.7900,55,97,130820
1.8671,0.3128,36.5200,55,97,130824
1.8280,0.3030,36.7600,55,97,130827
1.8426,0.3275,36.7900,55,97,130830
1.8475,0.3128,36.7600,55,97,130833
1.8377,0.3079,36.8200,55,97,130837
1.8915,0.3226,36.5500,55,97,130840
1.8475,0.3226,36.7300,55,97,130843
1.8377,0.3030,36.7300,55,97,130847
1.8280,0.3470,36.7900,55,97,130850
1.8426,0.2884,36.7900,55,97,130853
1.8817,0.3079,36.5800,55,97,130857
1.8426,0.3128,36.7300,55,97,130861
1.8426,0.3079,36.6700,55,97,130864
1.8231,0.3079,36.7900,55,97,130868
1.8182,0.3030,36.8200,55,97,130871
1.8475,0.3079,36.6400,55,97,130874
1.8280,0.3128,36.7900,55,97,130878
1.8524,0.3079,36.6100,55,97,130881
1.8280,0.2884,36.7900,55,97,130884
1.8231,0.3030,36.7900,55,97,130887
1.8377,0.3128,36.7000,55,97,130891
1.8377,0.3079,36.8200,55,97,130894
1.8768,0.3079,36.6100,55,97,130897
1.8328,0.3079,36.7900,55,97,130902
1.8328,0.3030,36.7300,55,97,130905
1.8328,0.3177,36.7000,55,97,130908
1.8133,0.3079,36.8200,55,97,130912
1.8573,0.3128,36.5200,55,97,130915
1.8426,0.3079,36.5800,55,97,130918
1.8426,0.2981,36.7900,55,97,130922
1.8622,0.3324,36.7300,55,97,130925
1.8671,0.3030,36.7900,55,97,130928
1.9404,0.3079,36.5200,55,97,130932
1.9110,0.3128,36.6700,55,97,130935
1.9208,0.3030,36.3400,55,97,130938
1.9257,0.3079,36.7600,55,97,130941
1.9208,0.3079,36.7900,55,97,130946
1.9892,0.3079,36.6400,55,97,130949
1.9599,0.3079,36.7600,55,97,130952
1.9844,0.3030,36.7300,55,97,130956
1.9550,0.3079,36.7900,55,97,130959
1.8719,0.3030,36.7900,55,97,130964
1.8768,0.3030,36.7900,55,97,130967
1.8866,0.3177,36.6400,55,97,130970
1.8524,0.3079,36.7900,55,97,130974
1.8768,0.3128,36.5500,55,97,130977
1.8475,0.3079,36.6700,55,97,130980
1.8231,0.3030,36.7900,55,97,130984
1.8182,0.3128,36.7000,55,97,130988
1.7840,0.3079,36.7900,55,97,130991
1.8182,0.3177,36.4900,55,97,130995
1.7693,0.3079,36.7000,55,97,130998
1.7595,0.3372,36.8200,55,97,131001
1.7546,0.3079,36.7600,55,97,131004
1.7449,0.3030,36.8200,55,97,131008
1.7840,0.3372,36.4300,55,97,131011
1.7302,0.3079,36.7600,55,97,131014
1.7351,0.3030,36.7000,55,97,131018
1.7400,0.3079,36.7600,55,97,131021
1.7449,0.3079,36.7900,55,97,131024
1.7937,0.3226,36.6100,55,97,131028
1.7546,0.3079,36.7600,55,97,131032
1.7742,0.3079,36.6400,55,97,131035
1.7595,0.3079,36.8200,55,97,131039
1.7693,0.2981,36.8200,55,97,131042
1.7986,0.3177,36.5800,55,97,131045
1.7644,0.3128,36.7600,55,97,131049
1.7937,0.3128,36.6400,55,97,131052
1.7742,0.3177,36.7300,55,97,131055
1.7889,0.3030,36.7900,55,97,131058
1.8133,0.3128,36.7000,55,97,131062
1.8084,0.3079,36.7900,55,97,131065
1.8182,0.3128,36.6400,55,97,131068
1.7546,0.3030,36.7300,55,97,131073
1.7107,0.3030,36.9100,55,97,131076
1.6764,0.3177,36.7300,55,97,131079
1.6618,0.3079,36.8200,55,97,131083
1.8035,0.3128,36.5200,55,97,131086
2.0332,0.3030,36.7300,55,97,131089
2.5171,0.3128,36.7900,55,97,131093
3.2160,0.3128,36.7600,55,97,131096
3.9296,0.3079,36.7600,55,97,131099
4.5308,0.3177,36.4900,55,97,131103
4.7019,0.3079,36.7600,55,97,131106
4.8045,0.3030,36.7600,55,97,131109
4.7067,0.3079,36.7900,55,97,131112
4.2375,0.2981,36.7600,55,97,131117
3.5679,0.3177,36.5800,55,97,131120
2.7273,0.2981,36.7300,55,97,131123
2.0968,0.3079,36.6700,55,97,131127
1.6471,0.3079,36.7900,55,97,131130
1.3783,0.2981,36.7900,55,97,131133
1.2414,0.3128,36.6100,55,97,131137
1.1926,0.2981,36.7900,55,97,131140
1.1584,0.3128,36.6400,55,97,131143
1.1290,0.3128,36.7900,55,97,131147
1.1339,0.3030,36.7900,55,97,131150
1.1339,0.3372,36.7000,55,97,131153
1.1388,0.3079,36.7600,55,97,131156
1.1828,0.3079,36.6400,55,97,131161
1.1975,0.3079,36.7900,55,97,131164
1.2121,0.3030,36.8500,55,97,131167
1.2463,0.3128,36.6400,55,97,131171
1.2561,0.3079,36.7900,55,97,131174
1.3148,0.3128,36.5200,55,97,131177
1.3294,0.3128,36.6700,55,97,131181
1.3539,0.3030,36.7900,55,97,131184
1.3881,0.3128,36.7300,55,97,131187
1.3978,0.3079,36.7900,55,97,131191
1.4565,0.3177,36.4600,55,97,131194
1.4467,0.3079,36.6700,55,97,131197
1.4663,0.2981,36.7900,55,97,131202
1.4956,0.3128,36.8200,55,97,131205
1.5152,0.3128,36.7900,55,97,131208
1.5689,0.3226,36.6100,55,97,131211
1.5543,0.3128,36.7600,55,97,131215
1.5836,0.3079,36.7000,55,97,131218
1.5885,0.3079,36.7900,55,97,131221
1.6080,0.3079,36.7900,55,97,131225
1.6569,0.3177,36.7900,55,97,131228
1.6569,0.3128,36.7900,55,97,131231
1.6911,0.3128,36.6400,55,97,131235
1.6813,0.3128,36.7600,55,97,131238
1.7155,0.3030,36.8200,55,97,131241
1.7595,0.3177,36.6100,55,97,131246
1.7449,0.3079,36.7900,55,97,131249
1.7986,0.3079,36.5800,55,97,131252
1.7791,0.2981,36.7000,55,97,131256
1.8084,0.3030,36.7900,55,97,131259
1.8328,0.3177,36.6700,55,97,131262
1.8328,0.3079,36.7600,55,97,131265
1.8768,0.3128,36.5200,55,97,131269
1.8573,0.3079,36.7300,55,97,131272
1.8719,0.3079,36.7900,55,97,131275
1.9110,0.3128,36.7600,55,97,131279
1.9208,0.3079,36.7600,55,97,131282
1.9892,0.3177,36.4600,55,97,131286
1.9550,0.3079,36.6700,55,97,131290
1.9697,0.3030,36.7900,55,97,131293
1.9795,0.3079,36.7900,55,97,131296
2.0235,0.2981,36.8200,55,97,131300
2.0772,0.3275,36.5800,55,97,131303
2.0479,0.3079,36.7000,55,97,131306
2.0626,0.3324,36.7000,55,97,131309
2.0626,0.3079,36.7600,55,97,131313
2.0870,0.3079,36.7900,55,97,131316
2.1457,0.3128,36.5800,55,97,131319
2.1408,0.3079,36.6700,55,97,131323
2.1896,0.3177,36.7000,55,97,131326
2.1945,0.3079,36.7900,55,97,131330
2.2336,0.3030,36.0700,55,97,131334
2.3021,0.3177,36.6700,55,97,131337
2.3021,0.3079,36.7900,55,97,131340
2.3803,0.3421,36.6400,55,97,131344
2.3754,0.3079,36.7900,55,97,131347
2.4096,0.3324,36.7900,55,97,131350
2.4829,0.3128,36.7300,55,97,131353
2.4731,0.3079,36.7900,55,97,131357
2.5318,0.3128,36.5500,55,97,131360
2.5171,0.3079,36.8500,55,97,131363
2.5367,0.3030,36.7600,55,97,131367
2.5709,0.3128,36.7300,55,97,131371
2.5464,0.3177,36.7900,55,97,131374
2.6002,0.3177,36.4900,55,97,131378
2.5513,0.3079,36.5800,55,97,131381
2.5464,0.2981,36.7900,55,97,131384
2.4780,0.3128,36.6700,55,97,131388
2.4096,0.3030,36.7900,55,97,131391
2.4096,0.3226,36.4900,55,97,131394
2.2678,0.3226,36.6700,55,97,131398
2.1750,0.3030,36.7300,55,97,131401
2.0821,0.3128,36.7900,55,97,131404
1.9795,0.3079,36.7900,55,97,131407
1.9159,0.3226,36.6100,55,97,131411
1.7693,0.3324,36.7900,55,97,131415
1.6862,0.3079,36.6700,55,97,131418
1.5738,0.3177,36.7900,55,97,131422
1.4809,0.3030,36.9800,55,97,131425
1.4321,0.3372,36.7000,55,97,131428
1.3490,0.3079,36.7900,55,97,131432
1.3050,0.3079,36.3100,55,97,131435
1.2317,0.3079,36.7900,55,97,131438
1.2072,0.3030,36.7900,55,97,131442
1.1926,0.3372,36.6100,55,97,131445
1.1535,0.3079,36.7600,55,97,131448
1.1584,0.3128,36.5800,55,97,131451
1.1388,0.3079,36.7000,55,97,131456
1.1486,0.3030,36.7900,55,97,131459
1.1681,0.3128,36.6700,55,97,131462
1.1730,0.3079,36.8200,55,97,131466
1.2170,0.3128,36.5200,55,97,131469
1.1975,0.3079,36.7300,55,97,131472
1.2219,0.3030,36.9500,55,97,131476
1.2463,0.2981,36.7600,55,97,131479
1.2659,0.3079,36.9100,55,97,131482
1.3294,0.3226,36.4600,55,97,131486
1.3050,0.3079,36.7300,55,97,131489
1.3539,0.3030,36.7900,55,97,131492
1.3734,0.3177,36.7600,55,97,131495
1.3832,0.3030,36.7600,55,97,131500
1.4370,0.3128,36.5800,55,97,131503
1.4174,0.3079,36.7300,55,97,131506
1.4223,0.3372,36.6700,55,97,131510
1.4321,0.3079,36.7900,55,97,131513
1.4516,0.3030,36.7900,55,97,131516
1.5054,0.3079,36.6100,55,97,131520
1.5152,0.3128,36.7600,55,97,131523
1.5200,0.3079,36.2200,55,97,131526
1.5200,0.3079,36.8200,55,97,131530
1.5347,0.3079,36.7900,55,97,131533
1.5640,0.3128,36.6100,55,97,131536
1.5543,0.3079,36.7600,55,97,131540
1.5982,0.3128,36.9800,55,97,131544
1.5689,0.3030,36.7300,55,97,131547
1.5885,0.3079,36.7600,55,97,131550
1.6178,0.3079,36.7000,55,97,131554
1.6276,0.3030,36.7900,55,97,131557
1.6667,0.3128,36.5500,55,97,131560
1.6373,0.3128,36.9800,55,97,131564
1.6422,0.2981,36.7900,55,97,131567
1.6569,0.3128,36.7300,55,97,131570
1.6813,0.3079,36.7900,55,97,131575
1.7009,0.3079,36.7900,55,97,131578
1.7204,0.3177,36.5800,55,97,131582
1.6911,0.3030,36.7300,55,97,131586
1.7155,0.2884,36.6700,55,97,131589
1.7058,0.3079,36.7900,55,97,131593
1.7155,0.3079,36.7900,55,97,131596
1.7449,0.3079,36.7300,55,97,131599
1.7302,0.3030,36.7600,55,97,131603
1.7546,0.3128,36.6400,55,97,131606
1.7253,0.3079,36.7900,55,97,131609
1.7351,0.3030,36.7900,55,97,131612
1.7449,0.3079,36.8800,55,97,131616
1.7400,0.3079,36.7600,55,97,131619
1.7644,0.3128,36.6100,55,97,131622
1.7351,0.3079,36.8200,55,97,131627
1.7595,0.3030,36.7900,55,97,131630
1.7742,0.3128,36.6700,55,97,131633
1.7644,0.3079,36.7900,55,97,131637
1.8133,0.3079,36.7600,55,97,131640
1.7986,0.3226,36.7000,55,97,131643
1.7937,0.3030,36.7900,55,97,131647
1.7986,0.3128,36.7300,55,97,131650
1.7840,0.3079,36.7900,55,97,131653
1.8280,0.3177,36.4300,55,97,131656
1.7791,0.3128,36.6700,55,97,131660
1.7693,0.3030,36.7600,55,97,131663
1.7742,0.3079,36.7900,55,97,131666
1.7742,0.3079,36.7600,55,97,131671
1.8231,0.3177,36.6100,55,97,131674
1.7840,0.3079,36.7300,55,97,131677
1.8084,0.2981,36.7300,55,97,131681
1.7742,0.3079,36.7900,55,97,131684
1.7889,0.3128,36.7600,55,97,131687
1.8182,0.3177,36.7000,55,97,131691
1.8035,0.3079,36.7600,55,97,131694
1.8182,0.3128,36.6100,55,97,131697
1.7840,0.3372,36.7900,55,97,131701
1.7840,0.3030,36.7900,55,97,131704
1.8084,0.3177,36.2800,55,97,131707
1.7791,0.3079,36.7900,55,97,131710
1.8084,0.3128,36.6700,55,97,131715
1.7840,0.2884,36.7000,55,97,131718
1.7889,0.3030,36.7900,55,97,131721
1.8035,0.3128,36.6100,55,97,131725
1.7937,0.3079,36.8200,55,97,131728
1.8328,0.3128,36.6100,55,97,131731
1.7986,0.3128,36.7300,55,97,131735
1.7986,0.3079,36.6700,55,97,131738
1.8084,0.3128,36.7300,55,97,131741
1.8084,0.3079,36.7900,55,97,131745
1.8671,0.3177,36.4300,55,97,131748
1.8231,0.3079,36.8800,55,97,131751
1.8231,0.3324,36.7600,55,97,131756
1.8084,0.3079,36.7600,55,97,131759
1.7986,0.3079,36.8200,55,97,131762
1.8524,0.3226,36.5800,55,97,131765
1.8231,0.3177,36.7000,55,97,131769
1.8182,0.3030,36.6700,55,97,131772
1.7986,0.3030,36.7600,55,97,131775
1.7986,0.3030,36.7900,55,97,131779
1.8231,0.3177,36.6100,55,97,131782
1.7937,0.3079,36.7600,55,97,131785
1.8231,0.3079,36.6400,55,97,131789
1.8035,0.3079,36.7900,55,97,131792
1.8182,0.3079,36.6400,55,97,131795
1.8426,0.3128,36.6700,55,97,131800
1.8328,0.3079,36.8800,55,97,131803
1.8719,0.3324,36.6400,55,97,131806
1.8377,0.3030,36.8200,55,97,131810
1.8328,0.3079,36.7900,55,97,131813
1.8328,0.3128,36.7000,55,97,131816
1.8133,0.3079,36.8800,55,97,131819
1.8377,0.3177,36.5200,55,97,131823
1.7937,0.3226,36.7600,55,97,131826
1.8035,0.3030,36.7900,55,97,131829
1.8133,0.3079,36.7000,55,97,131833
1.7937,0.3079,36.7900,55,97,131836
1.8426,0.3079,36.4900,55,97,131840
1.8084,0.3177,36.7000,55,97,131844
1.8035,0.3030,36.7900,55,97,131847
1.8133,0.3128,36.8200,55,97,131850
1.8182,0.3079,36.7900,55,97,131854
1.8719,0.3275,36.5500,55,97,131857
1.8328,0.3128,36.7300,55,97,131860
1.8280,0.3030,36.6700,55,97,131864
1.8475,0.2981,36.9500,55,97,131867
1.8328,0.3030,36.7900,55,97,131870
1.8573,0.3421,36.6700,55,97,131873
1.8280,0.3079,36.8500,55,97,131877
1.8426,0.3079,36.6100,55,97,131880
1.8133,0.3079,36.7600,55,97,131884
1.8182,0.3079,36.8800,55,97,131888
1.8377,0.3079,36.7300,55,97,131891
1.8280,0.3030,36.7900,55,97,131894
1.8573,0.3128,36.6400,55,97,131898
1.8084,0.3324,36.7900,55,97,131901
1.8280,0.3030,36.7900,55,97,131904
1.8377,0.3128,36.6700,55,97,131908
1.8280,0.3079,36.8200,55,97,131911
1.8622,0.3128,36.7300,55,97,131914
1.8328,0.3128,36.6700,55,97,131918
1.8231,0.3030,36.8500,55,97,131921
1.8280,0.3128,36.7600,55,97,131924
1.8084,0.3079,36.7900,55,97,131928
1.8573,0.3177,36.4600,55,97,131932
1.8084,0.3128,36.7000,55,97,131935
1.8084,0.3030,36.7900,55,97,131938
1.8084,0.3030,36.7600,55,97,131942
1.8231,0.3079,36.7900,55,97,131945
1.8768,0.3079,36.5800,55,97,131948
1.8524,0.3128,36.7300,55,97,131952
1.8426,0.3030,36.7300,55,97,131955
1.8328,0.3079,36.7900,55,97,131958
1.8280,0.3030,36.7900,55,97,131962
1.8622,0.3177,36.5500,55,97,131965
1.8377,0.2981,36.7900,55,97,131969
1.8573,0.3079,36.6400,55,97,131972
1.8328,0.3079,36.7900,55,97,131976
1.8328,0.3030,36.8800,55,97,131979
1.8622,0.3079,36.6700,55,97,131982
1.8377,0.3372,36.8200,55,97,131986
1.8866,0.3128,36.6400,55,97,131989
1.8475,0.3030,36.7300,55,97,131992
1.8524,0.3030,36.7900,55,97,131996
1.8573,0.3128,36.6400,55,97,131999
1.8328,0.3030,36.8200,55,97,132002
1.8671,0.3128,36.5500,55,97,132006
1.8426,0.3275,36.7000,55,97,132009
1.8573,0.3079,36.7600,55,97,132013
1.8719,0.3079,36.7000,55,97,132017
1.8524,0.3079,36.7600,55,97,132020
1.8817,0.3128,36.4900,55,97,132023
1.8328,0.2884,36.7900,55,97,132027
1.8280,0.3030,37.1600,55,97,132030
1.8231,0.3128,36.7900,55,97,132033
1.8231,0.3079,36.7900,55,97,132036
1.8915,0.3177,36.5500,55,97,132040
1.8768,0.3079,36.8200,55,97,132043
1.8964,0.3226,36.6700,55,97,132046
1.9110,0.3079,36.8800,55,97,132050
1.9306,0.3226,36.7600,55,97,132054
1.9648,0.3177,36.6100,55,97,132057
1.9257,0.3177,36.7600,55,97,132061
1.9404,0.3128,36.6400,55,97,132064
1.9257,0.3030,36.7600,55,97,132067
1.9501,0.3030,36.8200,55,97,132071
1.9795,0.3177,36.6700,55,97,132074
1.9453,0.2981,36.7600,55,97,132077
1.9599,0.3128,36.6100,55,97,132081
1.8964,0.3030,36.7600,55,97,132084
1.8866,0.3079,36.9100,55,97,132087
1.8866,0.3128,36.7000,55,97,132090
1.8768,0.3079,36.7900,55,97,132094
1.9062,0.3079,36.5500,55,97,132098
1.9013,0.3079,36.7900,55,97,132101
1.8719,0.3030,36.7900,55,97,132105
1.8622,0.3128,36.7300,55,97,132108
1.8231,0.3079,36.7900,55,97,132111
1.8377,0.3177,36.5200,55,97,132115
1.7937,0.3128,36.7300,55,97,132118
1.7595,0.3030,36.9800,55,97,132121
1.7449,0.3128,36.7600,55,97,132125
1.7204,0.3030,36.7000,55,97,132128
1.7693,0.3226,36.4900,55,97,132131
1.7302,0.3079,36.7000,55,97,132134
1.7204,0.3030,36.7300,55,97,132139
1.7351,0.3079,36.7600,55,97,132142
1.7107,0.3030,36.8200,55,97,132145
1.7546,0.3226,36.6100,55,97,132149
1.7253,0.3079,36.7900,55,97,132152
1.7449,0.3177,36.6400,55,97,132155
1.7302,0.3079,36.7900,55,97,132159
1.7351,0.3079,36.7900,55,97,132162
1.7595,0.3079,36.7000,55,97,132165
1.7546,0.3030,36.7600,55,97,132169
1.8182,0.3128,36.7000,55,97,132172
1.7595,0.3372,36.7900,55,97,132175
1.7693,0.2884,36.7900,55,97,132179
1.7937,0.3177,36.5500,55,97,132183
1.7889,0.3128,36.7600,55,97,132188
1.7253,0.3030,36.7900,55,97,132191
1.7107,0.3177,36.4900,55,97,132194
1.6227,0.3128,36.7300,55,97,132198
1.6373,0.3030,36.7300,55,97,132201
1.8133,0.2981,36.7600,55,97,132204
2.1359,0.3079,36.7900,55,97,132207
2.7713,0.3275,36.5500,55,97,132211
3.4653,0.3079,36.7600,55,97,132214
4.1398,0.3030,36.6100,55,97,132217
4.5064,0.3079,36.8200,55,97,132221
4.7312,0.3079,36.8200,55,97,132225
4.8729,0.3177,36.6700,55,97,132228
4.6090,0.3079,36.8200,55,97,132232
4.0616,0.3128,36.6400,55,97,132235
3.2014,0.2884,36.7600,55,97,132238
2.4633,0.3030,36.7900,55,97,132242
1.9208,0.3177,36.6400,55,97,132245
1.5103,0.3079,36.7600,55,97,132248
1.3148,0.3128,36.5800,55,97,132251
1.1779,0.3030,36.7600,55,97,132255
1.1437,0.3030,36.7900,55,97,132258
1.1388,0.3128,36.6700,55,97,132261
1.1388,0.3030,36.7900,55,97,132265
1.1632,0.3128,36.5200,55,97,132269
1.1437,0.3128,36.0100,55,97,132272
1.1584,0.3079,36.7900,55,97,132276
1.1828,0.3128,36.7300,55,97,132279
1.1926,0.3128,36.6700,55,97,132282
1.2414,0.3128,36.4900,55,97,132286
1.2268,0.3030,36.7600,55,97,132289
1.2805,0.2981,36.7900,55,97,132292
1.2805,0.3079,36.7600,55,97,132296
1.3343,0.3079,36.7900,55,97,132299
1.3734,0.3275,36.5200,55,97,132302
1.3783,0.3128,36.7300,55,97,132305
1.3930,0.3030,36.7000,55,97,132310
1.4174,0.3079,36.7600,55,97,132313
1.4565,0.3030,36.7900,55,97,132316
1.5152,0.3177,36.9500,55,97,132320
1.5200,0.3128,36.7600,55,97,132323
1.5591,0.3079,36.6100,55,97,132326
1.5640,0.2981,36.8200,55,97,132330
1.5934,0.3079,36.7900,55,97,132333
1.6373,0.3177,36.6400,55,97,132336
1.6325,0.3079,36.7600,55,97,132340
1.6716,0.3128,36.6400,55,97,132343
1.6471,0.3030,36.7600,55,97,132346
1.6618,0.3177,36.7900,55,97,132350
1.6911,0.3079,36.6400,55,97,132354
1.7058,0.3128,36.7900,55,97,132357
1.7546,0.3128,36.5500,55,97,132360
1.7351,0.3079,36.7900,55,97,132364
1.7644,0.3030,36.7900,55,97,132367
1.7840,0.3421,36.7300,55,97,132370
1.7840,0.3079,36.7900,55,97,132374
1.8426,0.3128,36.4900,55,97,132377
1.8280,0.3128,36.6700,55,97,132380
1.8280,0.3030,36.8200,55,97,132384
1.8426,0.3128,36.7600,55,97,132387
1.8475,0.3030,36.9500,55,97,132390
1.9159,0.3275,36.5200,55,97,132395
1.8866,0.3079,36.6400,55,97,132398
1.9062,0.3030,36.7000,55,97,132401
1.9110,0.3079,36.7600,55,97,132405
1.9355,0.3030,36.7600,55,97,132408
1.9892,0.3128,36.6100,55,97,132411
1.9697,0.3079,36.6100,55,97,132414
2.0088,0.3079,36.6400,55,97,132418
2.0039,0.3079,36.7900,55,97,132421
2.0235,0.3030,36.7600,55,97,132424
2.0674,0.3128,36.7300,55,97,132428
2.0772,0.3079,36.7900,55,97,132431
2.1310,0.3128,36.6400,55,97,132434
2.1359,0.3079,36.7900,55,97,132439
2.1457,0.3030,36.7900,55,97,132442
2.1896,0.3177,36.6400,55,97,132445
2.1896,0.3079,36.7600,55,97,132449
2.2483,0.3079,36.5500,55,97,132452
2.2874,0.2981,36.6700,55,97,132455
2.3021,0.3030,36.7900,55,97,132458
2.3607,0.3128,36.6700,55,97,132462
2.3607,0.3079,36.7900,55,97,132465
2.4340,0.3128,36.5200,55,97,132468
2.4194,0.3128,36.7000,55,97,132472
2.4291,0.3030,36.7900,55,97,132475
2.4585,0.3128,36.7600,55,97,132478
2.4780,0.3079,36.7900,55,97,132483
2.5611,0.3079,36.4600,55,97,132486
2.5122,0.3079,36.7900,55,97,132489
2.5171,0.2981,36.7600,55,97,132492
2.5122,0.3079,36.7900,55,97,132496
2.4976,0.3079,36.7900,55,97,132499
2.5269,0.3275,36.6400,55,97,132502
2.4438,0.3177,36.7300,55,97,132506
2.3949,0.3030,36.6700,55,97,132509
2.3118,0.3030,36.8200,55,97,132512
2.2630,0.2884,36.7900,55,97,132516
2.1945,0.3177,36.5500,55,97,132519
2.0577,0.3079,36.7300,55,97,132523
1.9746,0.3079,36.6100,55,97,132527
1.8622,0.3030,36.7900,55,97,132530
1.7498,0.3030,36.7900,55,97,132533
1.6716,0.3128,36.7000,55,97,132537
1.5591,0.3079,36.7900,55,97,132540
1.5005,0.3079,36.5800,55,97,132543
1.3881,0.3079,36.7600,55,97,132546
1.3294,0.3079,36.7900,55,97,132550
1.2854,0.3324,36.7000,55,97,132553
1.2463,0.3079,36.7900,55,97,132556
1.2317,0.3128,36.3100,55,97,132560
1.1779,0.3079,36.7900,55,97,132563
1.1584,0.3030,36.9500,55,97,132567
1.1584,0.3470,36.7000,55,97,132571
1.1388,0.3030,36.7900,55,97,132574
1.1681,0.3177,36.4600,55,97,132577
1.1535,0.3128,36.6700,55,97,132581
1.1632,0.3030,36.7900,55,97,132584
1.1877,0.3128,36.7600,55,97,132587
1.1926,0.3030,36.7900,55,97,132590
1.2512,0.3275,36.5200,55,97,132594
1.2414,0.3079,36.7600,55,97,132597
1.2561,0.2981,36.7000,55,97,132600
1.2659,0.3079,36.7600,55,97,132604
1.2952,0.3079,36.1300,55,97,132608
1.3636,0.3177,36.6100,55,97,132611
1.3343,0.3079,36.8200,55,97,132615
1.3685,0.3128,36.6400,55,97,132618
1.3587,0.3079,36.8200,55,97,132621
1.3734,0.2884,36.7900,55,97,132625
1.4027,0.3128,36.7300,55,97,132628
1.4076,0.3030,36.7600,55,97,132631
1.4467,0.3128,36.7000,55,97,132634
1.4370,0.3079,36.7900,55,97,132638
1.4956,0.3079,36.7900,55,97,132641
1.5005,0.3177,36.7300,55,97,132644
1.4907,0.3079,36.7600,55,97,132648
1.5347,0.3079,36.6100,55,97,132652
1.5347,0.3128,36.6700,55,97,132655
1.5347,0.3030,36.7900,55,97,132659
1.5494,0.3177,36.7000,55,97,132662
1.5396,0.3079,36.7900,55,97,132665
1.5982,0.3177,36.4600,55,97,132669
1.5738,0.3079,36.7000,55,97,132672
1.5787,0.3030,36.8500,55,97,132675
1.5982,0.3079,36.7600,55,97,132679
1.6373,0.3079,36.7900,55,97,132682
1.6569,0.3079,36.5200,55,97,132685
1.6129,0.3079,36.7300,55,97,132688
1.6276,0.3030,36.7300,55,97,132692
1.6276,0.3030,36.7600,55,97,132696
1.6325,0.3079,36.9500,55,97,132699
1.6764,0.3226,36.6400,55,97,132703
1.6569,0.3079,36.7900,55,97,132706
1.6716,0.3079,36.6700,55,97,132709
1.6667,0.3079,36.8800,55,97,132713
1.6813,0.3519,36.7600,55,97,132716
1.7204,0.3079,36.6100,55,97,132719
1.6911,0.2884,36.7600,55,97,132723
1.7204,0.3079,36.7000,55,97,132726
1.6960,0.3128,36.7300,55,97,132729
1.7058,0.3030,36.8200,55,97,132733
1.7107,0.3372,36.6700,55,97,132737
1.6960,0.3079,36.7900,55,97,132740
1.7155,0.3079,36.6400,55,97,132743
1.6716,0.2884,36.6700,55,97,132747
1.6813,0.3030,36.7900,55,97,132750
1.7009,0.3128,36.7300,55,97,132753
1.7058,0.3079,36.7900,55,97,132757
1.7400,0.3177,36.4900,55,97,132760
1.6960,0.3030,36.7600,55,97,132763
1.7009,0.3030,36.7900,55,97,132767
1.7009,0.3079,36.7900,55,97,132770
1.6960,0.3079,36.7900,55,97,132773
1.7498,0.3177,36.5500,55,97,132777
1.7302,0.3128,36.7000,55,97,132781
1.7204,0.3030,36.8500,55,97,132784
1.7155,0.3079,36.7600,55,97,132788
1.7253,0.3030,36.8200,55,97,132791
1.7742,0.3470,36.5800,54,97,132794
1.7498,0.3128,36.6700,54,97,132799
1.7253,0.3128,36.7600,54,97,132802
1.7498,0.3128,36.6400,54,97,132805
1.7107,0.3177,36.7300,54,97,132809
1.7204,0.3079,36.7900,54,97,132812
1.7400,0.3128,36.7000,54,97,132815
1.7742,0.2981,36.7900,54,97,132819
1.7986,0.3128,36.5500,54,97,132823
1.7889,0.3079,36.8200,54,97,132826
1.7742,0.3030,36.7900,54,97,132830
1.7889,0.3421,36.7000,54,97,132833
1.7742,0.3079,36.1300,54,97,132836
1.8280,0.3519,36.4600,54,97,132840
1.7986,0.3128,36.7000,54,97,132843
1.7937,0.3030,36.7300,54,97,132846
1.7937,0.3128,36.7600,54,97,132850
1.7840,0.3030,36.7900,54,97,132853
1.8328,0.3617,36.5200,54,97,132856
1.7889,0.3079,36.7000,54,97,132860
1.7937,0.3079,36.6700,54,97,132864
1.7889,0.3079,36.8200,54,97,132867
1.8035,0.3030,36.7900,54,97,132870
1.8426,0.3568,36.6100,54,97,132874
1.8133,0.3079,36.7900,54,97,132877
1.8328,0.3079,36.6400,54,97,132880
1.8035,0.3079,36.7600,54,97,132884
1.8133,0.3226,36.7300,54,97,132887
1.8377,0.3128,36.7000,54,97,132890
1.8280,0.3079,36.7600,54,97,132894
1.8671,0.3128,36.6700,54,97,132897
1.8231,0.3128,36.7900,54,97,132900
1.8426,0.3030,36.7600,54,97,132904
1.8622,0.3177,36.6400,54,97,132908
1.8280,0.3079,36.8200,54,97,132911
1.8573,0.3128,36.5200,54,97,132915
1.8280,0.3079,36.6400,54,97,132918
1.8133,0.3470,36.7600,54,97,132921
1.8133,0.3079,36.7000,54,97,132924
1.7937,0.3275,36.7900,54,97,132928
1.8377,0.3226,36.4600,54,97,132931
1.7889,0.3372,36.6700,54,97,132934
1.8084,0.3030,36.7600,54,97,132938
1.8231,0.3079,36.8800,54,97,132941
1.8280,0.3079,36.7900,54,97,132944
1.8817,0.3275,36.5500,54,97,132948
1.8231,0.3079,36.7300,54,97,132952
1.8133,0.3030,36.7900,54,97,132955
1.7937,0.3128,36.7600,54,97,132959
1.7986,0.3079,36.7900,54,97,132962
1.8377,0.3470,36.7000,54,97,132965
1.8231,0.3177,36.7300,54,97,132968
1.8377,0.3128,36.6400,54,97,132972
1.8182,0.3079,36.7900,54,97,132975
1.8182,0.3030,36.8200,54,97,132978
1.8475,0.3275,36.6100,54,97,132982
1.8182,0.3079,36.7300,54,97,132985
1.8475,0.3128,36.6400,54,97,132988
1.8182,0.3030,36.8200,54,97,132993
1.8182,0.3079,36.7600,54,97,132996
1.8328,0.3128,36.6700,54,97,132999
1.8231,0.3079,36.8200,54,97,133003
1.8622,0.3128,36.5800,54,97,133006
1.8182,0.3128,36.7000,54,97,133009
1.8133,0.3030,36.7600,54,97,133013
1.8084,0.3079,36.7600,54,97,133016
1.7937,0.3030,36.7600,54,97,133019
1.8719,0.3177,36.4900,54,97,133022
1.7937,0.3079,36.7600,54,97,133026
1.8133,0.3079,36.7900,54,97,133029
1.8133,0.3079,36.7900,54,97,133032
1.8182,0.3079,36.7900,54,97,133037
1.8817,0.3275,36.5500,54,97,133040
1.8475,0.3128,36.7000,54,97,133043
1.8328,0.3030,36.7600,54,97,133047
1.8133,0.3079,36.7900,54,97,133050
1.8035,0.3030,36.7900,54,97,133053
1.8719,0.3177,36.5800,54,97,133057
1.7986,0.3079,36.7300,54,97,133060
1.8231,0.3030,36.6400,54,97,133063
1.8035,0.3079,36.7900,54,97,133067
1.8133,0.3030,36.7900,54,97,133070
1.8328,0.3177,36.6700,54,97,133073
1.8084,0.3079,36.7900,54,97,133078
1.8622,0.3128,36.6400,54,97,133081
1.8084,0.3030,36.6700,54,97,133084
1.8231,0.2981,36.7900,54,97,133087
1.8328,0.3128,36.8500,54,97,133091
1.8280,0.3030,36.7600,54,97,133094
1.8573,0.3128,36.5500,54,97,133097
1.8231,0.3030,36.7900,54,97,133101
1.8280,0.3030,36.7900,54,97,133104
1.8328,0.3128,36.5500,54,97,133107
1.8231,0.3079,36.8200,54,97,133111
1.8768,0.3177,36.5200,54,97,133114
1.8573,0.3128,36.6400,54,97,133117
1.8524,0.3030,36.7900,54,97,133122
1.8573,0.3128,36.7600,54,97,133125
1.8475,0.3030,36.6700,54,97,133128
1.8915,0.3177,36.5500,54,97,133132
1.8328,0.3128,36.7300,54,97,133135
1.8475,0.3079,36.7000,54,97,133138
1.8377,0.3079,36.7900,54,97,133141
1.8475,0.3030,36.7600,54,97,133145
1.8964,0.3177,36.6100,54,97,133148
1.8768,0.3421,36.7900,54,97,133151
1.9062,0.3128,36.6400,54,97,133155
1.8866,0.3079,36.7600,54,97,133158
1.8964,0.3079,36.7900,54,97,133161
1.9355,0.3226,36.9500,54,97,133166
1.9599,0.3079,36.7600,54,97,133169
1.9795,0.3177,36.7000,54,97,133172
1.9648,0.3030,36.7600,54,97,133176
1.9599,0.3030,36.7900,54,97,133179
1.9795,0.3177,36.6700,54,97,133182
1.9599,0.3079,36.7600,54,97,133186
2.0088,0.3177,36.5800,54,97,133189
2.0039,0.3079,36.6400,54,97,133192
1.9892,0.3030,36.7600,54,97,133195
1.9844,0.3177,36.7000,54,97,133199
1.9550,0.3079,36.7900,54,97,133202
1.9795,0.3128,36.5200,54,97,133206
1.9208,0.2884,36.7000,54,97,133210
1.9013,0.3030,36.7600,54,97,133213
1.8915,0.3177,36.7300,54,97,133216
1.8964,0.3079,36.7600,54,97,133220
1.9404,0.3226,36.4900,54,97,133223
1.8719,0.3079,36.7000,54,97,133226
1.8573,0.3030,36.7300,54,97,133230
1.8280,0.3030,36.7600,54,97,133233
1.7986,0.3030,36.7900,54,97,133236
1.8328,0.3226,36.2500,54,97,133239
1.7937,0.3128,36.7000,54,97,133243
1.7937,0.3079,36.6400,54,97,133246
1.7742,0.3079,36.7300,54,97,133250
1.7742,0.3030,36.8200,54,97,133254
1.7986,0.3177,36.5800,54,97,133257
1.7644,0.3079,36.8200,54,97,133260
1.7840,0.3079,36.6700,54,97,133264
1.7693,0.2981,36.7900,54,97,133267
1.7546,0.3030,36.7900,54,97,133270
1.7595,0.3030,36.6400,54,97,133274
1.7449,0.3079,36.7900,54,97,133277
1.7693,0.3079,36.6100,54,97,133280
1.7595,0.2884,36.7300,54,97,133283
1.7449,0.3030,36.7900,54,97,133287
1.7595,0.3030,36.7600,54,97,133291
1.7595,0.3079,36.8200,54,97,133294
1.7986,0.3128,36.5200,54,97,133298
1.7693,0.3030,36.7900,54,97,133301
1.7840,0.3030,36.6700,54,97,133304
1.7937,0.3030,36.7600,54,97,133308
1.7937,0.3079,36.8200,54,97,133311
1.8426,0.3128,36.5200,54,97,133314
1.7840,0.3128,36.7000,54,97,133318
1.7351,0.3030,36.7000,54,97,133321
1.6813,0.3079,36.7600,54,97,133324
1.6373,0.3030,36.7900,54,97,133327
1.7155,0.3372,36.5500,54,97,133331
1.8426,0.3079,36.8200,54,97,133335
2.1945,0.3275,36.6700,54,97,133338
2.7517,0.3079,36.7900,54,97,133342
3.4995,0.3030,36.7300,54,97,133345
4.2082,0.3226,36.6400,54,97,133348
4.5357,0.3079,36.8800,54,97,133352
4.7947,0.3275,36.6400,54,97,133355
4.8045,0.3079,36.7900,54,97,133358
4.5894,0.3030,36.6700,54,97,133362
4.0274,0.3128,36.7300,54,97,133365
3.2160,0.3079,36.7900,54,97,133368
2.4927,0.3079,36.6700,54,97,133371
1.8866,0.3079,36.7900,54,97,133376
1.5103,0.3079,36.7900,54,97,133379
1.3148,0.3128,36.6400,54,97,133382
1.1926,0.3079,36.7600,54,97,133386
1.1632,0.3079,36.6400,54,97,133389
1.1339,0.3177,36.6400,54,97,133392
1.1290,0.3030,36.7900,54,97,133396
1.1388,0.3226,36.7300,54,97,133399
1.1339,0.3079,36.8200,54,97,133402
1.1681,0.3079,36.4300,54,97,133406
1.2757,0.3226,36.6400,54,97,133409
1.2757,0.3079,36.7300,54,97,133413
1.3050,0.3030,36.6400,54,97,133416
1.3196,0.3128,36.7600,54,97,133420
1.3539,0.3030,36.7600,54,97,133424
1.4321,0.3128,36.6700,54,97,133427
1.4321,0.3079,36.8200,54,97,133430
1.4858,0.3324,36.6400,54,97,133433
1.4907,0.3079,36.7900,54,97,133437
1.5152,0.3079,36.7600,54,97,133440
1.5591,0.3079,36.6700,54,97,133443
1.5591,0.2981,36.7600,54,97,133447
1.6178,0.3128,36.6100,54,97,133450
1.6178,0.3177,36.6700,54,97,133453
1.6422,0.3030,36.7900,54,97,133457
1.6813,0.3128,36.6400,54,97,133460
1.6569,0.3079,36.4300,54,97,133464
1.7107,0.3128,36.5200,54,97,133468
1.7009,0.3079,36.7300,54,97,133471
1.7302,0.3030,36.7900,54,97,133474
1.7742,0.3128,36.7300,54,97,133478
1.7742,0.3079,36.8200,54,97,133481
1.8377,0.3128,36.4600,54,97,133484
1.8133,0.3079,36.8500,54,97,133487
1.8377,0.3226,36.7600,54,97,133491
1.8426,0.3128,36.9500,54,97,133494
1.8475,0.3079,36.7900,54,97,133497
1.9062,0.3226,36.6700,54,97,133501
1.8817,0.3128,36.7300,54,97,133505
1.8964,0.3079,36.7000,54,97,133508
1.8866,0.3128,36.7600,54,97,133512
1.9062,0.3030,36.7900,54,97,133515
1.9501,0.3128,36.5500,54,97,133518
1.9306,0.3079,36.7300,54,97,133522
1.9697,0.3079,36.6100,54,97,133525
1.9648,0.2981,36.7900,54,97,133528
1.9795,0.3030,36.7900,54,97,133532
2.0235,0.3128,36.6700,54,97,133535
2.0186,0.3079,36.7900,54,97,133538
2.0626,0.3079,36.5800,54,97,133541
2.0723,0.3030,36.7300,54,97,133545
2.0674,0.3030,36.7900,54,97,133549
2.1065,0.3079,36.6700,54,97,133552
2.1310,0.3177,36.7600,54,97,133556
2.2043,0.3128,36.5200,54,97,133559
2.2141,0.2981,36.8800,54,97,133562
2.2239,0.3030,36.7900,54,97,133566
2.2581,0.3177,36.7300,54,97,133569
2.2678,0.3079,36.8800,54,97,133572
2.3558,0.3519,36.4900,54,97,133576
2.3558,0.3128,36.7000,54,97,133579
2.3705,0.3030,36.6400,54,97,133582
2.4096,0.3128,36.8200,54,97,133585
2.4291,0.3030,36.7900,54,97,133590
2.5269,0.3275,36.5500,54,97,133593
2.4927,0.3079,36.7000,54,97,133596
2.5024,0.3030,36.6700,54,97,133600
2.5073,0.3079,36.7600,54,97,133603
2.5269,0.3079,36.7900,54,97,133606
2.5758,0.3177,36.6400,54,97,133610
2.5367,0.3079,36.7600,54,97,133613
2.5562,0.3079,36.5800,54,97,133616
2.5122,0.3079,36.7900,54,97,133620
2.4633,0.3030,36.8800,54,97,133623
2.4340,0.3226,36.7300,54,97,133626
2.3558,0.3079,36.7600,54,97,133629
2.2972,0.3079,36.2200,54,97,133634
2.1652,0.3079,36.7900,54,97,133637
2.0528,0.3030,36.7900,54,97,133640
1.9599,0.3079,36.7000,54,97,133644
1.8280,0.3079,36.7900,54,97,133647
1.7546,0.3079,36.5500,54,97,133650
1.6422,0.2981,36.6700,54,97,133654
1.5543,0.3030,36.7900,54,97,133657
1.5103,0.3177,36.6700,54,97,133660
1.3881,0.3030,36.7900,54,97,133664
1.3539,0.3128,36.5200,54,97,133667
1.2805,0.2884,36.7000,54,97,133670
1.2317,0.3030,36.7900,54,97,133673
1.1975,0.3079,36.6700,54,97,133678
1.1681,0.2981,36.7600,54,97,133681
1.1926,0.3177,35.8400,54,97,133684
1.1584,0.3079,36.7000,54,97,133688
1.1681,0.3030,36.0700,54,97,133691
1.1681,0.3079,36.7600,54,97,133694
1.1632,0.3030,36.9100,54,97,133698
1.2023,0.3275,36.6100,54,97,133701
1.1926,0.3128,36.7300,54,97,133704
1.2072,0.3030,36.6700,54,97,133708
1.2219,0.3079,36.7900,54,97,133711
1.2512,0.3030,36.7300,54,97,133714
1.2903,0.3079,36.5800,54,97,133718
1.2805,0.3079,36.7300,54,97,133722
1.3196,0.3079,36.6400,54,97,133725
1.3294,0.3030,36.8200,54,97,133728
1.3587,0.3079,36.8500,54,97,133732
1.3881,0.3128,36.6700,54,97,133735
1.3881,0.3079,36.7900,54,97,133738
1.4467,0.3128,36.5800,54,97,133742
1.3930,0.3030,36.7300,54,97,133745
1.4125,0.2981,36.7900,54,97,133748
1.4418,0.3079,36.7300,54,97,133752
1.4565,0.3030,36.7600,54,97,133755
1.5054,0.3128,36.5500,54,97,133758
1.4907,0.2981,36.8200,54,97,133763
1.5200,0.3030,36.7900,54,97,133766
1.5445,0.3128,36.7000,54,97,133769
1.5396,0.2884,36.7600,54,97,133772
1.5982,0.3177,35.9800,54,97,133776
1.6031,0.3128,36.6700,54,97,133779
1.5836,0.3030,36.7600,54,97,133782
1.5836,0.2981,36.7600,54,97,133786
1.6031,0.3030,36.7900,54,97,133789
1.6569,0.3226,36.5500,54,97,133792
1.6227,0.3128,36.7000,54,97,133796
1.6276,0.3079,36.6700,54,97,133799
1.6422,0.2884,36.7600,54,97,133803
1.6422,0.3030,36.7300,54,97,133807
1.6764,0.3275,36.6100,54,97,133810
1.6667,0.3079,36.8800,54,97,133813
1.7009,0.3128,36.6100,54,97,133817
1.6813,0.3079,36.7600,54,97,133820
1.6911,0.3128,36.7600,54,97,133823
1.7107,0.3128,36.7000,54,97,133826
1.7009,0.3079,36.7300,54,97,133830
1.7302,0.3079,36.6100,54,97,133833
1.7009,0.3079,36.7300,54,97,133836
1.7058,0.3030,36.0700,54,97,133840
1.7302,0.3470,36.6100,54,97,133843
1.7155,0.3079,36.7900,54,97,133847
1.7498,0.3128,36.5500,54,97,133851
1.7253,0.3128,36.6700,54,97,133854
1.7107,0.3079,36.7600,54,97,133857
1.7155,0.3128,36.5500,54,97,133861
1.6911,0.3030,36.8200,54,97,133864
1.7302,0.3177,36.4600,54,97,133867
1.6813,0.3128,36.6700,54,97,133871
1.6862,0.3030,36.7900,54,97,133874
1.6911,0.3275,36.8200,54,97,133877
1.6862,0.3079,36.8500,54,97,133880
1.7498,0.3226,36.5200,54,97,133884
1.7155,0.3079,36.6700,54,97,133888
1.7351,0.3128,36.6700,54,97,133891
1.7253,0.3079,36.9500,54,97,133895
1.7302,0.3079,36.7900,54,97,133898
1.7595,0.3177,36.7600,54,97,133901
1.7449,0.3079,36.7300,54,97,133905
1.7595,0.3128,36.6400,54,97,133908
1.7351,0.3079,36.7900,54,97,133911
1.7302,0.3030,36.7900,54,97,133915
1.7498,0.3128,36.5800,54,97,133918
1.7155,0.3079,36.7900,54,97,133921
1.7644,0.3128,36.6100,54,97,133925
1.7498,0.3030,36.6700,54,97,133928
1.7644,0.3128,36.7600,54,97,133932
1.7889,0.3128,36.6700,54,97,133936
1.7742,0.3079,36.7600,54,97,133939
1.8084,0.3128,36.5200,54,97,133942
1.7644,0.3128,36.7600,54,97,133945
1.7644,0.3030,36.7900,54,97,133949
1.7742,0.3079,36.9800,54,97,133952
1.7889,0.3079,36.7600,54,97,133955
1.8133,0.3079,36.4900,54,97,133959
1.7693,0.3079,36.7000,54,97,133962
1.7742,0.2981,36.7900,54,97,133965
1.7693,0.3079,36.7600,54,97,133969
1.7644,0.3030,36.7600,54,97,133972
1.8182,0.3372,36.5800,54,97,133976
1.7889,0.3128,36.7300,54,97,133980
1.7889,0.3079,36.6700,54,97,133983
1.7889,0.3079,36.7900,54,97,133986
1.8035,0.3030,36.7000,54,97,133990
1.8328,0.3226,36.5800,54,97,133993
1.7937,0.3079,36.7300,54,97,133996
1.8035,0.3421,36.6100,54,97,133999
1.7742,0.3079,36.7600,54,97,134003
1.7742,0.3079,36.7900,54,97,134006
1.7986,0.3079,36.6400,54,97,134009
1.7791,0.3079,36.8500,54,97,134013
1.8231,0.3128,36.6100,54,97,134017
1.7840,0.3030,36.5500,54,97,134020
1.7644,0.3030,36.7000,54,97,134024
1.7644,0.3030,36.7900,54,97,134027
1.7742,0.3128,36.7600,54,97,134031
1.7742,0.2884,36.7600,54,97,134034
1.8280,0.3177,36.4900,54,97,134037
1.8035,0.3079,36.7000,54,97,134041
1.7986,0.2981,36.7300,54,97,134044
1.8280,0.3030,36.7600,54,97,134047
1.7986,0.3030,36.7900,54,97,134050
1.8524,0.3226,36.7300,54,97,134054
1.8182,0.3128,36.7300,54,97,134057
1.8231,0.3079,36.6700,54,97,134061
1.8280,0.3079,36.7600,54,97,134065
1.8231,0.3030,36.7900,54,97,134068
1.8524,0.3177,36.6100,54,97,134071
1.8328,0.3079,36.7000,54,97,134075
1.8622,0.3079,36.6100,54,97,134078
1.8231,0.3079,36.7900,54,97,134081
1.8377,0.3030,36.8500,54,97,134085
1.8328,0.3128,36.7000,54,97,134088
1.8328,0.3177,36.8200,54,97,134091
1.8768,0.3128,36.5800,54,97,134095
1.8377,0.3079,36.7600,54,97,134098
1.8475,0.3030,36.7600,54,97,134102
1.8573,0.3128,36.7600,54,97,134105
1.8377,0.2884,36.7900,54,97,134109
1.8768,0.3128,36.7900,54,97,134112
1.8573,0.3128,36.7000,54,97,134115
1.8524,0.3030,36.8200,54,97,134119
1.8622,0.3128,36.7300,54,97,134122
1.8524,0.3079,36.7900,54,97,134125
1.9013,0.3177,36.4600,54,97,134129
1.8524,0.3079,36.7300,54,97,134132
1.8524,0.2981,36.7300,54,97,134135
1.8524,0.3079,36.7600,54,97,134139
1.8524,0.3177,36.7300,54,97,134142
1.9013,0.3226,36.6100,54,97,134146
1.8524,0.3128,36.7600,54,97,134150
1.8622,0.3079,36.6400,54,97,134153
1.8377,0.3079,36.7600,54,97,134156
1.8377,0.3079,36.7900,54,97,134159
1.8622,0.3372,36.7000,54,97,134163
1.8377,0.3079,36.7600,54,97,134166
1.8622,0.3079,36.1300,54,97,134169
1.8377,0.3079,36.7900,54,97,134173
1.8475,0.3030,36.7900,54,97,134176
1.8768,0.3177,36.6400,54,97,134179
1.8377,0.3030,36.7300,54,97,134183
1.8866,0.3128,36.6100,54,97,134187
1.8475,0.3324,36.6700,54,97,134190
1.8524,0.3030,36.7900,54,97,134194
1.8671,0.3177,36.6700,54,97,134197
1.8573,0.3079,36.7900,54,97,134200
1.9013,0.3128,36.5200,54,97,134204
1.8573,0.3079,36.7300,54,97,134207
1.8475,0.3030,36.7600,54,97,134210
1.8475,0.2981,36.7600,54,97,134214
1.8426,0.3079,36.9800,54,97,134217
1.8915,0.3226,36.4600,54,97,134220
1.8426,0.3128,36.7600,54,97,134224
1.8573,0.2981,36.7300,54,97,134227
1.8573,0.3079,36.8800,54,97,134231
1.8719,0.3079,36.7600,54,97,134234
1.9501,0.3226,36.6100,54,97,134238
1.9355,0.3128,36.7300,54,97,134241
1.9501,0.3079,36.6700,54,97,134244
1.9257,0.3079,36.7600,54,97,134248
1.9159,0.3030,36.7600,54,97,134251
1.9550,0.3226,36.5800,54,97,134254
1.9453,0.3079,36.9800,54,97,134258
1.9941,0.3128,36.6100,54,97,134261
1.9697,0.3030,36.6700,54,97,134264
1.9550,0.3128,36.7600,54,97,134268
1.9453,0.3079,36.6100,54,97,134272
1.9110,0.3030,36.7600,54,97,134275
1.9355,0.3128,36.5800,54,97,134279
1.8915,0.3079,36.7600,54,97,134282
1.8964,0.3079,36.7600,54,97,134285
1.9013,0.3079,36.6100,54,97,134288
1.9257,0.3079,36.7900,54,97,134292
1.9355,0.3128,36.5500,54,97,134295
1.8671,0.3030,36.7600,54,97,134298
1.8524,0.3030,36.7300,54,97,134302
1.8182,0.3226,36.7300,54,97,134305
1.7791,0.3079,36.8800,54,97,134308
1.8133,0.3275,36.5200,54,97,134312
1.7693,0.3079,36.6700,54,97,134316
1.7546,0.3030,36.7300,54,97,134319
1.7498,0.3079,36.7900,54,97,134323
1.7595,0.2884,36.7600,54,97,134326
1.7889,0.3079,36.5500,54,97,134329
1.7644,0.3128,36.7300,54,97,134333
1.7889,0.3079,36.6700,54,97,134336
1.7986,0.3079,36.7600,54,97,134339
1.7693,0.3030,36.7900,54,97,134343
1.7889,0.3128,36.6400,54,97,134346
1.7693,0.3079,36.7600,54,97,134349
1.7986,0.3177,36.6400,54,97,134352
1.7595,0.3079,36.7900,54,97,134356
1.7644,0.3079,36.8200,54,97,134360
1.7644,0.3079,36.7000,54,97,134363
1.7644,0.3079,36.9800,54,97,134367
1.7986,0.3128,36.5800,54,97,134370
1.7791,0.3079,36.7900,54,97,134373
1.8084,0.3030,36.7900,54,97,134377
1.8182,0.3177,36.7300,54,97,134380
1.7986,0.3030,36.7900,54,97,134383
1.8328,0.3128,36.8200,54,97,134387
1.7791,0.3128,36.7000,54,97,134390
1.7204,0.3030,36.7900,54,97,134393
1.6862,0.3030,36.7900,54,97,134397
1.6569,0.3079,36.8200,54,97,134401
1.7840,0.3079,36.4900,54,97,134404
1.9892,0.3128,36.6400,54,97,134407
2.4389,0.3030,36.7000,54,97,134411
3.1036,0.3079,36.7600,54,97,134414
3.8514,0.2981,36.8200,54,97,134417
4.4624,0.3226,36.6100,54,97,134421
4.6628,0.2981,36.7300,54,97,134424
4.8387,0.3079,36.2800,54,97,134427
4.7410,0.3079,36.7600,54,97,134431
4.3597,0.3079,36.7600,54,97,134434
3.6804,0.3177,36.7300,54,97,134437
2.8690,0.3079,36.7900,54,97,134441
2.2239,0.3128,36.6100,54,97,134445
1.7009,0.3079,36.7600,54,97,134448
1.3978,0.3030,36.7900,54,97,134451
1.2463,0.3177,36.6700,54,97,134455
1.1388,0.3079,36.7600,54,97,134458
1.1339,0.3079,36.6100,54,97,134461
1.1046,0.3079,36.6700,54,97,134465
1.1193,0.3030,36.7000,54,97,134468
1.1632,0.3128,36.6700,54,97,134471
1.1290,0.3030,36.7900,54,97,134475
1.1632,0.3128,36.4300,54,97,134478
1.1486,0.3128,36.7000,54,97,134481
1.1681,0.3030,36.9100,54,97,134486
1.1926,0.3177,36.7600,54,97,134489
1.2170,0.3079,36.7900,54,97,134492
1.2805,0.3177,36.4600,54,97,134495
1.2757,0.3079,36.7300,54,97,134499
1.3148,0.3030,36.7300,54,97,134502
1.3343,0.2981,36.7600,54,97,134505
1.3636,0.3079,36.8200,54,97,134509
1.4370,0.3275,36.6400,54,97,134512
1.4370,0.3079,36.7900,54,97,134515
1.4761,0.3079,36.6400,54,97,134519
1.4809,0.3421,36.7600,54,97,134522
1.5054,0.3030,36.8500,54,97,134525
1.5543,0.3177,36.3100,54,97,134530
1.5445,0.3128,36.7300,54,97,134533
1.5885,0.3079,36.5800,54,97,134536
1.5934,0.3079,36.7900,54,97,134540
1.6129,0.3030,36.7900,54,97,134543
1.6862,0.3128,36.6400,54,97,134546
1.6520,0.3030,36.7600,54,97,134549
1.6960,0.3030,36.6400,54,97,134553
1.6813,0.3372,36.7600,54,97,134556
1.7009,0.3079,36.8500,54,97,134559
1.7253,0.3079,36.6700,54,97,134563
1.7302,0.2884,36.7600,54,97,134566
1.7791,0.3128,36.5500,54,97,134569
1.7644,0.3079,36.7900,54,97,134574
1.7889,0.3030,36.7900,54,97,134577
1.8035,0.3324,36.7300,54,97,134580
1.7986,0.3079,36.8200,54,97,134584
1.8524,0.3226,36.4600,54,97,134587
1.8328,0.3128,36.6700,54,97,134590
1.8328,0.3079,36.8200,54,97,134594
1.8524,0.3128,36.7900,54,97,134597
1.8719,0.3079,36.7900,54,97,134600
1.9453,0.3226,36.5800,54,97,134603
1.9501,0.3177,36.7000,54,97,134607
1.9404,0.3030,36.6700,54,97,134610
1.9501,0.3079,36.7900,54,97,134614
1.9795,0.3079,36.7600,54,97,134618
2.0381,0.3226,36.6400,54,97,134621
2.0479,0.3128,36.7300,54,97,134624
2.0723,0.3128,36.6100,54,97,134628
2.0577,0.3324,36.8200,54,97,134631
2.1799,0.3079,36.7600,54,97,134635
2.1945,0.3030,36.7900,54,97,134638
2.2385,0.3128,36.7600,54,97,134641
2.2581,0.3030,36.7900,54,97,134645
2.3460,0.3177,36.5200,54,97,134648
2.3509,0.3128,36.6700,54,97,134651
2.3705,0.3030,36.9500,54,97,134656
2.4145,0.3128,36.7000,54,97,134659
2.4389,0.3030,36.7600,54,97,134662
2.5269,0.3177,36.5200,54,97,134665
2.4829,0.3128,36.6700,54,97,134669
2.4829,0.3030,36.6700,54,97,134672
2.5122,0.3079,36.7600,54,97,134675
2.5024,0.3079,36.7900,54,97,134679
2.5758,0.3226,36.5500,54,97,134682
2.5171,0.2981,36.7300,54,97,134685
2.5220,0.3079,36.6700,54,97,134689
2.4536,0.3079,36.7600,54,97,134692
2.3998,0.3079,36.7900,54,97,134695
2.3754,0.3177,36.7000,54,97,134700
2.2825,0.3079,36.7300,54,97,134703
2.2190,0.3079,36.6700,54,97,134706
2.0919,0.2884,36.7600,54,97,134709
1.9844,0.3079,36.8500,54,97,134713
1.9013,0.3226,36.6100,54,97,134716
1.7595,0.3079,36.7300,54,97,134719
1.6862,0.3030,36.6100,54,97,134723
1.5689,0.3030,36.7000,54,97,134726
1.4809,0.3030,36.7900,54,97,134729
1.4223,0.3128,36.6400,54,97,134733
1.3196,0.3079,36.7900,54,97,134736
1.2757,0.3128,36.5200,54,97,134739
1.1975,0.3079,36.7900,54,97,134744
1.1632,0.3030,36.8200,54,97,134747
1.1486,0.3128,36.7300,54,97,134750
1.1241,0.3079,36.7900,54,97,134753
1.1437,0.3177,36.4600,54,97,134757
1.1144,0.3079,36.7300,54,97,134760
1.1339,0.3030,36.7300,54,97,134763
1.1290,0.3128,36.7600,54,97,134767
1.1877,0.3079,36.7900,54,97,134770
1.2121,0.3275,36.5800,54,97,134773
1.2072,0.3177,36.6400,54,97,134777
1.2170,0.3030,36.7000,54,97,134780
1.2366,0.3128,36.7600,54,97,134784
1.2610,0.3079,36.7900,54,97,134788
1.2952,0.3177,36.5800,54,97,134791
1.2903,0.3079,36.7600,54,97,134794
1.3294,0.3079,36.5800,54,97,134798
1.3441,0.2981,36.7300,54,97,134801
1.3441,0.3030,36.7600,54,97,134804
1.3881,0.3177,36.6700,54,97,134807
1.3930,0.3079,36.7600,54,97,134811
1.4418,0.3128,36.6700,54,97,134814
1.4467,0.3030,36.7600,54,97,134817
1.4418,0.3030,36.7900,54,97,134821
1.4761,0.3079,36.7600,54,97,134824
1.5005,0.3079,36.7600,54,97,134828
1.5347,0.3128,36.5500,54,97,134832
1.5152,0.2884,36.7600,54,97,134835
1.5396,0.3030,36.7900,54,97,134838
1.5591,0.3226,36.7000,54,97,134842
1.5543,0.3079,36.7900,54,97,134845
1.6129,0.3226,36.4900,54,97,134848
1.6031,0.3128,36.6700,54,97,134852
1.6129,0.2981,36.7600,54,97,134855
1.6129,0.3372,36.7300,54,97,134858
1.6276,0.2884,36.7900,54,97,134861
1.6862,0.3275,36.5800,54,97,134865
1.6618,0.3128,36.7300,54,97,134868
1.6569,0.3030,36.7300,54,97,134872
1.6520,0.3128,36.7600,54,97,134876
1.6520,0.3079,36.8500,54,97,134879
1.7009,0.3226,36.6400,54,97,134882
1.6764,0.3079,36.7900,54,97,134886
1.7058,0.3128,36.0100,54,97,134889
1.6764,0.2981,36.7900,54,97,134892
1.6862,0.3030,36.6700,54,97,134896
1.7058,0.3128,36.7000,54,97,134899
1.7009,0.3079,36.7600,54,97,134902
1.7302,0.3079,36.6400,54,97,134905
1.7107,0.3030,36.7600,54,97,134909
1.6960,0.3030,36.7600,54,97,134913
1.7107,0.3128,36.6700,54,97,134916
1.6813,0.3079,36.7900,54,97,134920
1.7204,0.3128,36.5500,54,97,134923
1.7155,0.3079,36.6700,54,97,134926
1.7155,0.3030,36.6700,54,97,134930
1.7351,0.3177,36.7000,54,97,134933
1.7155,0.3079,36.8500,54,97,134936
1.7498,0.3128,36.4600,54,97,134940
1.7107,0.3030,36.6400,54,97,134943
1.7107,0.3079,36.7900,54,97,134946
1.7107,0.3079,36.7600,54,97,134950
1.7058,0.3079,36.7600,54,97,134953
1.7595,0.3177,36.4900,54,97,134957
1.7155,0.3128,36.7000,54,97,134961
1.7204,0.3030,36.7300,54,97,134964
1.7107,0.3079,36.6700,54,97,134967
1.7155,0.3079,36.7600,54,97,134970
1.7449,0.3226,36.6100,54,97,134974
1.7302,0.3128,36.7000,54,97,134977
1.7400,0.3079,36.6100,54,97,134980
1.7204,0.3079,36.7900,54,97,134984
1.7400,0.3030,36.8200,54,97,134987
1.7644,0.3226,36.5800,54,97,134990
1.7302,0.3079,36.7900,54,97,134994
1.7595,0.3226,36.6100,54,97,134998
1.7351,0.3030,36.7300,54,97,135001
1.7449,0.3030,36.8500,54,97,135005
1.7498,0.3128,36.6700,54,97,135008
1.7351,0.3372,36.7600,54,97,135011
1.7595,0.3128,36.5500,54,97,135015
1.7302,0.3030,36.7000,54,97,135018
1.7302,0.2884,36.7600,54,97,135021
1.7644,0.3079,36.7300,54,97,135024
1.7986,0.2981,36.7600,54,97,135028
1.8084,0.3177,36.4900,54,97,135031
1.7595,0.3030,36.7600,54,97,135034
1.7644,0.3030,36.7600,54,97,135038
1.7644,0.3177,36.7300,54,97,135042
1.7546,0.3079,36.9100,54,97,135045
1.8133,0.3324,36.5200,54,97,135049
1.7742,0.3128,36.6700,54,97,135052
1.7791,0.3030,36.7000,54,97,135055
1.7840,0.3079,36.7600,54,97,135059
1.7986,0.3030,36.7300,54,97,135062
1.8475,0.3177,36.5800,54,97,135065
1.7986,0.3128,36.7600,54,97,135069
1.8084,0.3128,36.6400,54,97,135072
1.7840,0.3079,36.7300,54,97,135075
1.7937,0.3079,36.7600,54,97,135078
1.8328,0.3079,36.6400,54,97,135083
1.8182,0.3079,36.7600,54,97,135086
1.8524,0.3128,36.6700,54,97,135089
1.8084,0.3324,36.8200,54,97,135093
1.8133,0.2884,36.7900,54,97,135096
1.8182,0.3079,36.7900,54,97,135099
1.8328,0.2884,36.7600,54,97,135103
1.8328,0.3128,36.2800,54,97,135106
1.7986,0.3079,36.7600,54,97,135109
1.8035,0.3030,36.7900,54,97,135113
1.8133,0.3177,36.6700,54,97,135116
1.7937,0.3079,36.8200,54,97,135119
1.8426,0.3226,36.4600,54,97,135122
1.8231,0.3079,36.5200,54,97,135127
1.8084,0.3030,36.7600,54,97,135130
1.8084,0.3079,36.7900,54,97,135133
1.7986,0.3079,36.8200,54,97,135137
1.8573,0.3275,36.5200,54,97,135140
1.8133,0.3128,36.6400,54,97,135143
1.8182,0.3030,36.7300,54,97,135147
1.8084,0.3079,36.7600,54,97,135150
1.8182,0.3079,36.7900,54,97,135153
1.8377,0.3177,36.6100,54,97,135157
1.8035,0.3079,36.7300,54,97,135160
1.8231,0.3079,36.6400,54,97,135163
1.8182,0.2981,36.7900,54,97,135168
1.7937,0.3079,36.7600,54,97,135171
1.8084,0.3128,36.7000,54,97,135174
1.7937,0.3079,36.6700,54,97,135178
1.8182,0.3177,36.6700,54,97,135181
1.7889,0.3324,36.7600,54,97,135184
1.7986,0.3030,36.7900,54,97,135188
1.8182,0.3421,36.6100,54,97,135191
1.7986,0.3079,36.8500,54,97,135194
1.8377,0.3128,36.5800,54,97,135197
1.8280,0.3079,36.6700,54,97,135201
1.8231,0.3030,36.8200,54,97,135204
1.8426,0.3128,36.7000,54,97,135207
1.8231,0.3079,36.7600,54,97,135212
1.8671,0.3128,36.4600,54,97,135215
1.8133,0.3177,36.7000,54,97,135218
1.8182,0.3030,36.8200,54,97,135222
1.8231,0.3079,36.7900,54,97,135225
1.8182,0.2981,36.7600,54,97,135228
1.8719,0.3275,36.6100,54,97,135232
1.8182,0.3128,36.7600,54,97,135235
1.8231,0.3030,36.6700,54,97,135238
1.8133,0.2981,36.7600,54,97,135242
1.8084,0.3079,36.7900,54,97,135245
1.8133,0.3030,36.7900,54,97,135249
1.8475,0.3177,36.6400,54,97,135252
1.8133,0.3079,36.7900,54,97,135256
1.8719,0.3128,36.5800,54,97,135260
1.8377,0.3128,36.6700,54,97,135263
1.8622,0.2884,36.7600,54,97,135266
1.8768,0.3470,36.6700,54,97,135269
1.8817,0.2981,36.7900,54,97,135273
1.9453,0.3128,36.5200,54,97,135276
1.9355,0.3128,36.7300,54,97,135279
1.9306,0.3030,36.8200,54,97,135283
1.9501,0.3177,36.7300,54,97,135286
1.9550,0.3079,36.7600,54,97,135289
2.0137,0.3177,36.4300,54,97,135293
1.9697,0.3079,36.7600,54,97,135297
1.9795,0.3030,36.7300,54,97,135300
1.9697,0.3079,36.7600,54,97,135304
1.9550,0.3128,36.8200,54,97,135307
1.9941,0.3226,36.6100,54,97,135310
1.9355,0.3324,36.7000,54,97,135314
1.9208,0.3079,36.6400,54,97,135317
1.8866,0.3079,36.7600,54,97,135320
1.8866,0.3079,36.7900,54,97,135324
1.9110,0.3128,36.5200,54,97,135327
1.8768,0.3079,36.7300,54,97,135330
1.9062,0.3079,36.2800,54,97,135333
1.8671,0.3079,36.6400,54,97,135337
1.8475,0.3030,36.7900,54,97,135341
1.8377,0.3128,36.6700,54,97,135344
1.7889,0.3079,36.7900,54,97,135348
1.7986,0.3079,36.5800,54,97,135351
1.7693,0.3030,36.7300,54,97,135354
1.7498,0.3030,36.7900,54,97,135358
1.7498,0.3030,36.7000,54,97,135361
1.7595,0.3079,36.7600,54,97,135364
1.7889,0.3128,36.5200,54,97,135367
1.7595,0.2981,36.7600,54,97,135371
1.7742,0.3030,36.9500,54,97,135374
1.7791,0.3128,36.7300,54,97,135377
1.7595,0.3079,36.9100,54,97,135382
1.8133,0.3177,36.4300,54,97,135385
1.7840,0.3079,36.7000,54,97,135388
1.7742,0.2981,36.7000,54,97,135392
1.7644,0.3128,36.7300,54,97,135395
1.7644,0.3030,36.7900,54,97,135398
1.8084,0.3177,36.5500,54,97,135402
1.7693,0.3079,36.0700,54,97,135405
1.7693,0.2981,36.6700,54,97,135408
1.7693,0.3079,36.8200,54,97,135412
1.8084,0.3128,36.8200,54,97,135415
1.8133,0.3079,36.5500,54,97,135418
1.7937,0.3030,36.7600,54,97,135422
1.8133,0.3128,36.6400,54,97,135426
1.7693,0.3079,36.7600,54,97,135429
1.7400,0.3030,36.7900,54,97,135432
1.6960,0.3079,36.7300,54,97,135436
1.6373,0.3030,36.7600,54,97,135439
1.6667,0.3079,36.6400,54,97,135442
1.7644,0.3030,36.7600,54,97,135446
2.0919,0.3030,36.8200,54,97,135449
2.6491,0.3128,36.6400,54,97,135452
3.3578,0.3079,36.7600,54,97,135456
4.1300,0.3128,36.5200,54,97,135459
4.5064,0.3177,36.7000,54,97,135462
4.7067,0.3030,36.7900,54,97,135467
4.8485,0.3177,36.7000,54,97,135470
4.6774,0.3079,36.8200,54,97,135473
4.2522,0.3177,36.1600,54,97,135476
3.3627,0.3079,36.7000,54,97,135480
2.5758,0.3030,36.7900,54,97,135483
1.9746,0.3177,36.7600,54,97,135486
1.5640,0.2981,36.7900,54,97,135490
1.3636,0.3275,36.5200,54,97,135493
1.1975,0.3128,36.8200,54,97,135496
1.1437,0.3177,36.7000,54,97,135500
1.1193,0.3079,36.7900,54,97,135503
1.1193,0.3226,36.7600,54,97,135506
1.1486,0.3177,36.7000,54,97,135511
1.1437,0.3128,36.7300,54,97,135514
1.1584,0.3128,36.6400,54,97,135517
1.1535,0.3079,36.7600,54,97,135521
1.1730,0.3030,36.8200,54,97,135524
1.2121,0.3177,36.6400,54,97,135527
1.2219,0.3079,36.4300,54,97,135531
1.2708,0.3128,36.6100,54,97,135534
1.2659,0.3030,36.6700,54,97,135537
1.3050,0.3030,36.7600,54,97,135540
1.3392,0.3128,36.6400,54,97,135544
1.3587,0.3030,36.7900,54,97,135547
1.4174,0.3128,36.5200,54,97,135550
1.4125,0.3079,36.6700,54,97,135555
1.4370,0.3324,36.7600,54,97,135558
1.4663,0.3079,36.3100,54,97,135561
1.4858,0.2981,36.7600,54,97,135565
1.5494,0.3177,36.4600,54,97,135568
1.5347,0.3079,36.7300,54,97,135571
1.5689,0.3030,36.6700,54,97,135575
1.5885,0.3030,36.7300,54,97,135578
1.6031,0.3079,36.9500,54,97,135581
1.6716,0.3275,36.5800,54,97,135585
1.6667,0.3128,36.7300,54,97,135588
1.6960,0.3079,36.6700,54,97,135591
1.7058,0.3079,36.7600,54,97,135595
1.7253,0.3079,36.7900,54,97,135599
1.7595,0.3177,36.5500,54,97,135602
1.7400,0.3128,36.7300,54,97,135605
1.7791,0.3128,36.6100,54,97,135609
1.7693,0.3079,36.7600,54,97,135612
1.7889,0.3030,36.7300,54,97,135615
1.8133,0.3128,36.6400,54,97,135619
1.8035,0.2884,36.7600,54,97,135622
1.8426,0.3079,36.6700,54,97,135625
1.8182,0.3079,36.7300,54,97,135629
1.8426,0.3030,36.7900,54,97,135632
1.8671,0.3128,36.7000,54,97,135635
1.8719,0.3079,36.7600,54,97,135640
1.9208,0.3519,36.5200,54,97,135643
1.9013,0.3030,36.8200,54,97,135646
1.9355,0.3030,36.7900,54,97,135649
1.9648,0.3128,36.7300,54,97,135653
1.9648,0.3079,36.7600,54,97,135656
2.0430,0.3177,36.4600,54,97,135659
2.0186,0.3128,36.7600,54,97,135663
2.0332,0.3324,36.7300,54,97,135666
2.0528,0.3079,36.7600,54,97,135669
2.0723,0.3275,36.7600,54,97,135673
2.1505,0.3275,36.5800,54,97,135676
2.1212,0.3177,36.7000,54,97,135680
2.1554,0.3030,36.7000,54,97,135684
2.1701,0.3079,36.7300,54,97,135687
2.2092,0.3030,36.7900,54,97,135690
2.2825,0.3226,36.6100,54,97,135693
2.2874,0.3079,36.7600,54,97,135697
2.3558,0.3079,36.6100,54,97,135700
2.3607,0.3079,36.7900,54,97,135703
2.4047,0.3030,36.7600,54,97,135707
2.4633,0.3177,36.7300,54,97,135710
2.4780,0.3079,36.7600,54,97,135713
2.5318,0.3079,36.7900,54,97,135717
2.4976,0.3079,36.7600,54,97,135720
2.5171,0.3030,36.7900,54,97,135724
2.5611,0.3177,36.6100,54,97,135728
2.5367,0.3079,36.7600,54,97,135731
2.6002,0.3128,36.5500,54,97,135734
2.5660,0.3079,36.6700,54,97,135737
2.5367,0.3030,36.7000,54,97,135741
2.5269,0.3177,36.6700,54,97,135744
2.4585,0.3079,36.8200,54,97,135747
2.4633,0.3128,36.5200,54,97,135751
2.3412,0.3079,36.7000,54,97,135754
2.2483,0.3030,36.8200,54,97,135757
2.1554,0.3030,36.7600,54,97,135761
2.0430,0.3030,36.7900,54,97,135764
1.9795,0.3177,36.4600,54,97,135768
1.8182,0.2981,36.7300,54,97,135772
1.7204,0.3030,36.7300,54,97,135775
1.6129,0.3079,36.7600,54,97,135778
1.5152,0.3030,36.7900,54,97,135781
1.4712,0.3226,36.5800,54,97,135785
1.3783,0.3128,36.7000,54,97,135788
1.3196,0.3030,36.6400,54,97,135791
1.2659,0.3079,36.7600,54,97,135795
1.2268,0.3030,36.7900,54,97,135798
1.2121,0.3568,36.5500,54,97,135801
1.1584,0.3079,36.7600,54,97,135805
1.1584,0.3079,36.6400,54,97,135809
1.1584,0.3079,36.7600,54,97,135812
1.1339,0.3030,36.7900,54,97,135816
1.1388,0.3275,36.6700,54,97,135819
1.1339,0.2884,36.7600,54,97,135822
1.1730,0.3128,36.6400,54,97,135825
1.1632,0.3372,36.7300,54,97,135829
1.1877,0.3030,36.8500,54,97,135832
1.2219,0.3275,36.6700,54,97,135835
1.2414,0.3079,36.7600,54,97,135839
1.2854,0.3128,36.4900,54,97,135842
1.2805,0.3030,36.7900,54,97,135845
1.3050,0.3030,36.7900,54,97,135849
1.3245,0.3226,36.7000,54,97,135853
1.3734,0.3079,36.7900,54,97,135857
1.3930,0.3030,36.7600,54,97,135860
1.4321,0.3128,36.5800,54,97,135863
1.4076,0.3079,36.7000,54,97,135867
1.4321,0.2981,36.6100,54,97,135870
1.4418,0.3079,36.7600,54,97,135873
1.4712,0.3030,36.7600,54,97,135877
1.5152,0.3079,36.6400,54,97,135880
1.5152,0.3128,36.7600,54,97,135883
1.5591,0.3128,36.6100,54,97,135886
1.5445,0.3079,36.7900,54,97,135890
1.5640,0.3030,36.7600,54,97,135894
1.5982,0.3079,36.7000,54,97,135897
1.6227,0.3324,36.7600,54,97,135901
1.6471,0.3128,36.5800,54,97,135904
1.6325,0.2981,36.7300,54,97,135907
1.6422,0.3030,36.8200,54,97,135911
1.6569,0.3226,36.6700,54,97,135914
1.6373,0.3079,36.8200,54,97,135917
1.6862,0.3128,36.4900,54,97,135921
1.6716,0.3079,36.6700,54,97,135924
1.6667,0.3275,36.7900,54,97,135927
1.6764,0.3079,36.7900,54,97,135931
1.6813,0.2981,36.7600,54,97,135934
1.7449,0.3177,36.4600,54,97,135938
1.7009,0.3079,36.6700,54,97,135942
1.7058,0.2981,36.7600,54,97,135945
1.7107,0.3128,36.6400,54,97,135948
1.7155,0.3128,36.7600,54,97,135951
1.7644,0.3226,36.5800,54,97,135955
1.7253,0.3079,36.7300,54,97,135958
1.7449,0.3079,36.6700,54,97,135961
1.7107,0.3177,36.7900,54,97,135965
1.7107,0.3030,36.8800,54,97,135968
1.7351,0.3226,36.7000,54,97,135971
1.7253,0.3079,36.7000,54,97,135975
1.7595,0.3177,36.6100,54,97,135979
1.7302,0.3079,36.8200,54,97,135982
1.7400,0.3128,36.7600,54,97,135986
1.7595,0.3177,36.6100,54,97,135989
1.7253,0.3079,36.7600,54,97,135992
1.7546,0.3079,36.5800,54,97,135996
1.7449,0.3226,36.6700,54,97,135999
1.7351,0.3030,36.1000,54,97,136002
1.7546,0.3177,36.7000,54,97,136005
1.7400,0.3030,36.7900,54,97,136009
1.7937,0.3079,36.2800,54,97,136012
1.7595,0.2981,36.7300,54,97,136015
1.7693,0.3030,36.7900,54,97,136019
1.7693,0.3275,36.7600,54,97,136023
1.7595,0.3079,36.7900,54,97,136026
1.8084,0.3226,36.5800,54,97,136030
1.7644,0.3079,36.7000,54,97,136033
1.7693,0.3030,36.7300,54,97,136036
1.7546,0.3079,36.7900,54,97,136040
1.7498,0.3079,36.7900,54,97,136043
1.7889,0.3324,36.6100,54,97,136046
1.7644,0.3128,36.7000,54,97,136049
1.7693,0.3079,36.7300,54,97,136053
1.7644,0.3079,36.7600,54,97,136056
1.7742,0.3030,36.7900,54,97,136059
1.8035,0.3177,36.5200,54,97,136064
1.7693,0.3079,36.7300,54,97,136067
1.7986,0.3079,36.5800,54,97,136070
1.7840,0.3079,36.7600,54,97,136074
1.7840,0.3030,36.7900,54,97,136077
1.8133,0.3177,36.6700,54,97,136080
1.7840,0.3079,36.7600,54,97,136084
1.8133,0.3079,36.6100,54,97,136087
1.7693,0.3030,36.7300,54,97,136090
1.7742,0.3030,36.7900,54,97,136093
1.7889,0.3079,36.6700,54,97,136097
1.7889,0.3079,36.7600,54,97,136100
1.8182,0.3128,36.4900,54,97,136103
1.7742,0.3030,36.7600,54,97,136108
1.7986,0.3030,36.7900,54,97,136111
1.8133,0.3128,36.7000,54,97,136114
1.7937,0.3079,36.9100,54,97,136118
1.8475,0.3226,36.4300,54,97,136121
1.8182,0.3128,36.6400,54,97,136124
1.8035,0.2933,36.7300,54,97,136128
1.8133,0.3079,36.7300,54,97,136131
1.8231,0.3030,36.7600,54,97,136134
1.8817,0.3226,36.5800,54,97,136138
1.8328,0.3128,36.6700,54,97,136141
1.8182,0.3030,36.6700,54,97,136144
1.7937,0.3079,36.8500,54,97,136147
1.7889,0.2981,36.7600,54,97,136152
1.8182,0.3079,36.6400,54,97,136155
1.8084,0.3128,36.7300,54,97,136158
1.8182,0.3128,36.6100,54,97,136162
1.7840,0.3079,36.7600,54,97,136165
1.7889,0.3030,36.3400,54,97,136168
1.8084,0.3128,36.7000,54,97,136172
1.8035,0.3079,36.7600,54,97,136175
1.8328,0.3128,36.6100,54,97,136178
1.7986,0.3079,36.7600,54,97,136182
1.8035,0.3030,36.7900,54,97,136185
1.8182,0.3128,36.6100,54,97,136188
1.7937,0.3079,36.7300,54,97,136193
1.8328,0.3128,36.5200,54,97,136196
1.8133,0.3128,36.6700,54,97,136199
1.8084,0.3030,36.7600,54,97,136202
1.8280,0.3128,36.7000,54,97,136206
1.8035,0.3079,36.7600,54,97,136209
1.8524,0.3177,36.4600,54,97,136212
1.8084,0.3079,36.6700,54,97,136216
1.8133,0.3030,36.7600,54,97,136219
1.8133,0.3079,36.7600,54,97,136222
1.8133,0.3030,36.8500,54,97,136226
1.8573,0.3128,36.5200,54,97,136229
1.7937,0.3079,36.7300,54,97,136232
1.8084,0.3324,36.7000,54,97,136237
1.8035,0.3079,36.8200,54,97,136240
1.8035,0.3226,36.7600,54,97,136243
1.8475,0.3177,36.6400,54,97,136246
1.8133,0.3079,36.7300,54,97,136250
1.8622,0.3079,36.6400,54,97,136253
1.8035,0.3128,36.7600,54,97,136256
1.8231,0.3030,36.7900,54,97,136260
1.8475,0.3177,35.9200,54,97,136263
1.8084,0.3079,36.7600,54,97,136266
1.8377,0.3128,36.6100,54,97,136270
1.8084,0.2981,36.7000,54,97,136273
1.8084,0.3030,36.7900,54,97,136276
1.8328,0.3128,36.6400,54,97,136281
1.8084,0.3079,36.7600,54,97,136284
1.8377,0.3128,36.5200,54,97,136287
1.8035,0.3079,36.7000,54,97,136291
1.8035,0.3030,36.7600,54,97,136294
1.8133,0.3128,36.7300,54,97,136297
1.8133,0.3079,36.7600,54,97,136300
1.8573,0.3324,36.4600,54,97,136304
1.8084,0.3030,36.7600,54,97,136307
1.8182,0.3372,36.7900,54,97,136310
1.8231,0.3079,36.7600,54,97,136314
1.8377,0.2884,36.7900,54,97,136317
1.8719,0.3079,36.5200,54,97,136321
1.8328,0.3128,36.7000,54,97,136325
1.8280,0.3030,36.7000,54,97,136328
1.8182,0.3128,36.7600,54,97,136331
1.8280,0.3030,36.7600,54,97,136335
1.8573,0.3079,35.9500,54,97,136338
1.8182,0.3079,36.7300,54,97,136341
1.8231,0.3079,36.2500,54,97,136345
1.8182,0.3079,36.7600,54,97,136348
1.8231,0.3030,36.7900,54,97,136351
1.8817,0.3177,36.6400,54,97,136354
1.8671,0.3079,36.7600,54,97,136358
1.9159,0.3421,36.6400,54,97,136361
1.8866,0.3079,36.7600,54,97,136365
1.8866,0.3030,36.7600,54,97,136369
1.8915,0.3128,36.7000,54,97,136372
1.8915,0.3030,36.7300,54,97,136375
1.9550,0.3128,36.5500,54,97,136379
1.9208,0.3079,36.7900,54,97,136382
1.9355,0.3030,36.7900,54,97,136385
1.9306,0.3128,36.7000,54,97,136389
1.9013,0.3079,36.7600,54,97,136392
1.9599,0.3128,36.4600,54,97,136395
1.9013,0.3128,36.7900,54,97,136399
1.8768,0.3177,36.7600,54,97,136402
1.8768,0.3079,36.7000,54,97,136406
1.8719,0.3079,36.7600,54,97,136409
1.9306,0.3079,36.4900,54,97,136413
1.8817,0.3128,36.6700,54,97,136416
1.8622,0.3030,36.7300,54,97,136419
1.8280,0.3079,36.7900,54,97,136423
1.7986,0.3030,36.7900,54,97,136426
1.8133,0.3226,36.6100,54,97,136429
1.7644,0.3030,36.7900,54,97,136433
1.7498,0.2884,36.6400,54,97,136436
1.7155,0.3177,36.7600,54,97,136439
1.7058,0.3030,36.7600,54,97,136443
1.7204,0.3128,36.7000,54,97,136446
1.7204,0.3079,36.7600,54,97,136450
1.7351,0.3128,36.6100,54,97,136453
1.7546,0.3079,36.7600,54,97,136457
1.7400,0.3030,36.7600,54,97,136460
1.7644,0.3177,36.6400,54,97,136463
1.7644,0.3128,36.7000,54,97,136467
1.7546,0.3030,36.7600,54,97,136470
1.7986,0.3177,36.4300,54,97,136474
1.7546,0.3079,36.6700,54,97,136477
1.7644,0.3030,36.8200,54,97,136480
1.7791,0.2884,36.7600,54,97,136484
1.7937,0.3030,36.8200,54,97,136487
1.8524,0.3226,36.5500,54,97,136491
1.7937,0.3128,36.7600,54,97,136495
1.7791,0.3030,36.7000,54,97,136498
1.7253,0.3079,36.7600,54,97,136501
1.6764,0.3275,36.7600,54,97,136505
1.6569,0.3177,36.6400,54,97,136508
1.6471,0.3079,36.7300,54,97,136511
1.8035,0.3030,36.6400,54,97,136514
2.1163,0.3079,36.7600,54,97,136518
2.6735,0.3030,36.8200,54,97,136521
3.5142,0.3177,36.6400,54,97,136524
4.1007,0.3128,36.8200,54,97,136528
4.5601,0.3128,36.6400,54,97,136531
4.7165,0.2981,36.5200,54,97,136535
4.8436,0.2981,36.7900,54,97,136539
4.6823,0.3275,36.6400,54,97,136542
4.1007,0.3079,36.7600,54,97,136545
3.3724,0.3128,36.5500,54,97,136549
2.5415,0.2933,36.7000,54,97,136552
1.9404,0.3030,36.7600,54,97,136555
1.5543,0.3079,36.7900,54,97,136559
1.3099,0.3030,36.7600,54,97,136562
1.2268,0.3128,36.4900,54,97,136565
1.1290,0.3324,36.7300,54,97,136568
1.1095,0.3030,36.7600,54,97,136572
1.1095,0.3079,36.7600,54,97,136576
1.1144,0.3079,36.7600,54,97,136579
1.1486,0.3275,36.5500,54,97,136583
1.1388,0.3128,36.6700,54,97,136586
1.1388,0.3030,36.7000,54,97,136589
1.1535,0.3128,36.7600,54,97,136593
1.1730,0.3030,36.7600,54,97,136596
1.2268,0.3177,36.5800,54,97,136599
1.2219,0.3079,36.7300,54,97,136603
1.2561,0.3079,36.6400,54,97,136606
1.2757,0.3079,36.7600,54,97,136609
1.3099,0.2884,36.7900,54,97,136612
1.3539,0.3128,36.6700,54,97,136616
1.3832,0.2981,36.7600,54,97,136620
1.4076,0.3128,36.6100,54,97,136623
1.4174,0.3079,36.7900,54,97,136627
1.4370,0.3030,36.9800,54,97,136630
1.4712,0.3030,36.7000,54,97,136633
1.4907,0.3079,36.7600,54,97,136637
1.5396,0.3079,36.7600,54,97,136640
1.5298,0.3079,36.7600,54,97,136643
1.5640,0.3030,36.7600,54,97,136647
1.5885,0.3079,36.6400,54,97,136650
1.5885,0.3079,36.7600,54,97,136653
1.6373,0.3128,36.4900,54,97,136656
1.6373,0.3079,36.6700,54,97,136660
1.6520,0.3030,36.8200,54,97,136664
1.6764,0.3079,36.7000,54,97,136667
1.6764,0.3030,36.7600,54,97,136671
1.7400,0.3177,36.4600,54,97,136674
1.7058,0.3128,36.6700,54,97,136677
1.7204,0.3030,36.7600,54,97,136681
1.7351,0.3079,36.7300,54,97,136684
1.7840,0.3079,36.7600,54,97,136687
1.8182,0.3275,36.5500,54,97,136691
1.7889,0.2884,36.7900,54,97,136694
1.8084,0.3030,36.6700,54,97,136697
1.8133,0.3421,36.7600,54,97,136700
1.8377,0.3030,36.7900,54,97,136705
1.8915,0.3128,36.6700,54,97,136708
1.8866,0.3079,36.7600,54,97,136711
1.9208,0.3079,36.6700,54,97,136715
1.9208,0.3079,36.7600,54,97,136718
1.9306,0.3030,36.7900,54,97,136721
1.9844,0.3177,36.6400,54,97,136725
1.9648,0.3079,36.1900,54,97,136728
2.0137,0.3128,36.6100,54,97,136731
2.0039,0.3030,36.7000,54,97,136735
2.0283,0.3030,36.7900,54,97,136738
2.0674,0.3128,36.6400,54,97,136741
2.0772,0.3030,36.7600,54,97,136744
2.1408,0.3079,35.8400,54,97,136749
2.1701,0.3030,36.7000,54,97,136752
2.1652,0.2981,36.7600,54,97,136755
2.2092,0.3079,36.7300,54,97,136759
2.2385,0.3079,36.7600,54,97,136762
2.3314,0.3128,36.4600,54,97,136765
2.3069,0.3030,36.7300,54,97,136769
2.3460,0.3030,36.7900,54,97,136772
2.3754,0.3079,36.7300,54,97,136775
2.4047,0.3030,36.7900,54,97,136779
2.5073,0.3275,36.4300,54,97,136782
2.4927,0.2981,36.7000,54,97,136785
2.5073,0.3030,36.7000,54,97,136788
2.5220,0.3421,36.7900,54,97,136793
2.5415,0.2981,36.7600,54,97,136796
2.6051,0.3177,36.6100,54,97,136799
2.5709,0.3079,36.7300,54,97,136803
2.5806,0.3079,36.6400,54,97,136806
2.5464,0.3177,36.7300,54,97,136809
2.5269,0.3030,36.7600,54,97,136813
2.5122,0.3275,36.6400,54,97,136816
2.4291,0.3079,36.7600,54,97,136819
2.3851,0.3079,36.6100,54,97,136823
2.2581,0.3030,36.7600,54,97,136826
2.1652,0.3030,36.8500,54,97,136829
2.0674,0.3079,36.5800,54,97,136833
1.9550,0.3079,36.7600,54,97,136837
1.8768,0.3079,36.5800,54,97,136840
1.7400,0.3079,36.8200,54,97,136843
1.6520,0.3030,36.7600,54,97,136847
1.5640,0.3128,36.7300,54,97,136850
1.4516,0.3128,36.7600,54,97,136853
1.4027,0.3079,35.9200,54,97,136857
1.3196,0.3128,36.7000,54,97,136860
1.2561,0.3030,36.7600,54,97,136863
1.2219,0.3177,36.7000,54,97,136867
1.1779,0.3030,36.7600,54,97,136870
1.1681,0.3177,36.4600,54,97,136873
1.1193,0.3128,36.6700,54,97,136878
1.1095,0.3030,36.7300,54,97,136881
1.1095,0.3128,36.7600,54,97,136884
1.1095,0.3030,36.7900,54,97,136887
1.1632,0.3226,36.5500,54,97,136891
1.1437,0.3079,36.7300,54,97,136894
1.1730,0.3030,36.7300,54,97,136897
1.1828,0.3079,36.7600,54,97,136901
1.2023,0.3030,36.7600,54,97,136904
1.2463,0.3079,36.8500,54,97,136907
1.2561,0.3079,36.5200,54,97,136911
1.2757,0.3079,36.6100,54,97,136914
1.2854,0.3079,36.7600,54,97,136918
1.3148,0.3030,36.7600,54,97,136921
1.3490,0.3177,36.3400,54,97,136925
1.3441,0.3079,36.7600,54,97,136928
1.3881,0.3079,36.6400,54,97,136931
1.3832,0.2884,36.7000,54,97,136935
1.4027,0.3030,36.7600,54,97,136938
1.4321,0.3128,36.7000,54,97,136941
1.4321,0.3030,36.7600,54,97,136945
1.4761,0.3128,36.5200,54,97,136948
1.4565,0.3079,36.7000,54,97,136951
1.4712,0.3030,36.7900,54,97,136955
1.4956,0.3128,36.7000,54,97,136958
1.5054,0.3030,36.7600,54,97,136962
1.5640,0.3177,36.4600,54,97,136966
1.5298,0.3030,36.7300,54,97,136969
1.5543,0.3030,36.7600,54,97,136972
1.5689,0.3030,36.7300,54,97,136975
1.5689,0.3079,36.4300,54,97,136979
1.6373,0.3226,36.5200,54,97,136982
1.6276,0.3079,36.6700,54,97,136985
1.6276,0.3128,36.7300,54,97,136989
1.6325,0.3079,36.7900,54,97,136992
1.6618,0.2884,36.7900,54,97,136995
1.6764,0.3079,36.1000,54,97,136999
1.6618,0.3079,36.7300,54,97,137003
1.6813,0.3079,36.6100,54,97,137006
1.6764,0.3030,36.7600,54,97,137010
1.6960,0.3030,36.7900,54,97,137013
1.7204,0.3128,36.6700,54,97,137016
1.7107,0.2981,36.7600,54,97,137020
1.7449,0.3128,36.6400,54,97,137023
1.7107,0.3079,36.7300,54,97,137026
1.7155,0.3079,36.6700,54,97,137029
1.7204,0.3128,36.7000,54,97,137033
1.7204,0.3079,36.7600,54,97,137036
1.7498,0.3079,36.5500,54,97,137039
1.7253,0.3079,36.7600,54,97,137043
1.7302,0.3372,36.7600,54,97,137047
1.7400,0.3128,36.6700,54,97,137050
1.7155,0.3030,36.7600,54,97,137054
1.7595,0.3177,36.4900,54,97,137057
1.7351,0.3079,36.6100,54,97,137060
1.7644,0.3079,36.8200,54,97,137064
1.7351,0.3079,36.7900,54,97,137067
1.7644,0.2981,36.7600,54,97,137070
1.7742,0.3275,36.7000,54,97,137074
1.7644,0.3128,36.6700,54,97,137077
1.7302,0.3079,36.7600,54,97,137081
1.7449,0.3079,36.7000,54,97,137084
1.7058,0.3177,36.7900,54,97,137088
1.7204,0.3030,36.7900,54,97,137092
1.7400,0.3079,36.7600,54,97,137095
1.7400,0.2981,36.7600,54,97,137098
1.7693,0.3079,36.6100,54,97,137101
1.7693,0.3079,36.7600,54,97,137105
1.7595,0.3030,36.1300,54,97,137108
1.7986,0.3226,36.6100,54,97,137111
1.7595,0.3226,36.7300,54,97,137115
1.8035,0.3128,36.4900,54,97,137118
1.7791,0.3079,36.8500,54,97,137121
1.7742,0.2981,36.7600,54,97,137125
1.7889,0.3275,36.7000,54,97,137128
1.7889,0.3079,36.7600,54,97,137132
1.8280,0.3177,36.0400,54,97,137136
1.7742,0.3079,36.6400,54,97,137139
1.7644,0.2981,36.7300,54,97,137142
1.7693,0.2884,36.7600,54,97,137146
1.7693,0.3030,36.7900,54,97,137149
1.8280,0.3226,36.5800,54,97,137152
1.7791,0.3079,36.7600,54,97,137155
1.7889,0.3079,36.7000,54,97,137159
1.7742,0.3079,36.7600,54,97,137162
1.7742,0.3030,36.7300,54,97,137165
1.8084,0.3128,36.7000,54,97,137169
1.7937,0.3128,36.7600,54,97,137172
1.8035,0.3470,36.6400,54,97,137176
1.7742,0.3079,36.8800,54,97,137180
1.7791,0.3079,36.8200,54,97,137183
1.7986,0.3128,36.6100,54,97,137186
1.7840,0.3030,36.7600,54,97,137190
1.8035,0.3128,36.6100,54,97,137193
1.7791,0.3030,36.6700,54,97,137196
1.7986,0.2981,36.7600,54,97,137200
1.8035,0.3079,36.5800,54,97,137203
1.7937,0.3030,36.7600,54,97,137206
1.8328,0.3128,36.5200,54,97,137209
1.7986,0.3324,36.7000,54,97,137213
1.7986,0.3030,36.7600,54,97,137217
1.7986,0.3128,36.8500,54,97,137220
1.8035,0.3128,36.7600,54,97,137224
1.8377,0.3177,36.4600,54,97,137227
1.7986,0.2981,36.7000,54,97,137230
1.8084,0.3030,36.7900,54,97,137234
1.8035,0.3079,36.7300,54,97,137237
1.7889,0.3079,36.7900,54,97,137240
1.8475,0.3275,36.5200,54,97,137244
1.8133,0.3128,36.7000,54,97,137247
1.8133,0.3030,36.7900,54,97,137250
1.8133,0.2884,36.7600,54,97,137253
1.8084,0.3030,36.7600,54,97,137257
1.8426,0.3226,36.5500,54,97,137261
1.8133,0.3079,36.7300,54,97,137264
1.8377,0.3079,36.6400,54,97,137268
1.8182,0.3079,36.7600,54,97,137271
1.8231,0.3030,36.7600,54,97,137274
1.8328,0.3177,36.6700,54,97,137278
1.8084,0.3030,36.7900,54,97,137281
1.8377,0.3079,36.6100,54,97,137284
1.8035,0.3030,36.7300,54,97,137288
1.8084,0.3030,36.7900,54,97,137291
1.8133,0.3128,36.7000,54,97,137294
1.7986,0.3079,36.7300,54,97,137298
1.8231,0.3128,36.5500,54,97,137302
1.7889,0.3030,36.7900,54,97,137305
1.7986,0.3128,36.7900,54,97,137308
1.8231,0.3128,36.7000,54,97,137312
1.7937,0.3128,36.7600,54,97,137315
1.8475,0.3177,36.4600,54,97,137318
1.8328,0.3079,36.6700,54,97,137322
1.8377,0.3030,36.7600,54,97,137325
1.8622,0.3128,36.7300,54,97,137328
1.8768,0.3030,36.9100,54,97,137332
1.9453,0.3275,36.5800,54,97,137335
1.8964,0.3079,36.7300,54,97,137338
1.8915,0.2933,36.6700,54,97,137342
1.8817,0.3079,36.7600,54,97,137346
1.8964,0.3324,36.7600,54,97,137349
1.9550,0.3079,36.7000,54,97,137353
1.9404,0.3030,36.7600,54,97,137356
1.9795,0.3128,36.6100,54,97,137359
1.9208,0.3079,36.6700,54,97,137362
1.9110,0.3030,36.7600,54,97,137366
1.9159,0.3079,36.5800,54,97,137369
1.8964,0.3030,36.7600,54,97,137372
1.9159,0.3128,36.6400,54,97,137376
1.8817,0.2981,36.7600,54,97,137379
1.8719,0.3030,36.7900,54,97,137382
1.8866,0.3470,36.6700,54,97,137387
1.8524,0.3079,36.7900,54,97,137390
1.8671,0.3128,36.5200,54,97,137393
1.8231,0.3128,36.6400,54,97,137397
1.7889,0.3030,36.7600,54,97,137400
1.7742,0.3128,36.0400,54,97,137403
1.7400,0.3030,36.8200,54,97,137407
1.7791,0.3128,36.4600,54,97,137410
1.7204,0.3177,36.7300,54,97,137413
1.7253,0.3030,36.7600,54,97,137417
1.7253,0.3079,36.7300,54,97,137420
1.7253,0.3030,36.7600,54,97,137423
1.7840,0.3275,36.5200,54,97,137426
1.7400,0.3128,36.7000,54,97,137431
1.7546,0.3030,36.6700,54,97,137434
1.7351,0.3079,36.7600,54,97,137437
1.7400,0.3030,36.7600,54,97,137441
1.7742,0.3177,36.6400,54,97,137444
1.7595,0.3079,36.7600,54,97,137447
1.7644,0.3079,36.6400,54,97,137451
1.7400,0.3079,36.7600,54,97,137454
1.7498,0.3079,36.8800,54,97,137457
1.7742,0.3079,36.5800,54,97,137461
1.7498,0.3079,36.7600,54,97,137464
1.8035,0.3128,36.6400,54,97,137467
1.7693,0.3030,36.7600,54,97,137472
1.7840,0.3030,36.7600,54,97,137475
1.7937,0.3079,36.6400,54,97,137478
1.7644,0.2981,36.7300,54,97,137481
1.7693,0.3128,36.5200,54,97,137485
1.6813,0.3079,36.6700,54,97,137488
1.6325,0.3030,36.7600,54,97,137491
1.6129,0.3128,36.7300,54,97,137495
1.6813,0.3079,36.8200,54,97,137498
1.9697,0.3177,36.4900,54,97,137501
2.3803,0.3030,36.7000,54,97,137505
3.0596,0.3030,36.7900,54,97,137508
3.8221,0.3177,36.7600,54,97,137511
4.3402,0.3079,36.7600,54,97,137516
4.7654,0.3275,36.5200,54,97,137519
4.8240,0.3128,36.7000,54,97,137522
4.7507,0.3030,36.7000,54,97,137525
4.3206,0.3372,36.7600,54,97,137529
3.6315,0.2884,36.7600,54,97,137532
2.8592,0.3177,36.5500,54,97,137535
2.1408,0.3079,36.7300,54,97,137539
1.6716,0.3079,36.6700,54,97,137542
1.3539,0.2981,36.7600,54,97,137545
1.2072,0.3030,36.7900,54,97,137549
1.1535,0.3128,36.6400,54,97,137552
1.1241,0.3079,36.7600,54,97,137555
1.1486,0.3079,36.6400,54,97,137560
1.1388,0.3030,36.7600,54,97,137563
1.1486,0.3030,36.7900,54,97,137566
1.1632,0.2981,36.7000,54,97,137570
1.1681,0.3079,36.7600,54,97,137573
1.1975,0.3079,36.4600,54,97,137576
1.1975,0.3079,36.8200,54,97,137579
1.2366,0.3030,36.8200,54,97,137583
1.2708,0.3226,36.6700,54,97,137586
1.2854,0.3030,36.4000,54,97,137589
1.3441,0.3128,36.4300,54,97,137593
1.3490,0.3128,36.6700,54,97,137596
1.3587,0.3030,36.6700,54,97,137600
1.3832,0.3079,36.7600,54,97,137604
1.4027,0.3079,36.7300,54,97,137607
1.4858,0.3177,36.4600,54,97,137610
1.4565,0.3079,36.6400,54,97,137614
1.4858,0.3030,36.7300,54,97,137617
1.4956,0.3079,36.7900,54,97,137620
1.5152,0.3030,36.7600,54,97,137623
1.5787,0.3226,36.5800,54,97,137627
1.5640,0.3128,36.7300,54,97,137630
1.6031,0.3079,36.6400,54,97,137633
1.5982,0.3079,36.7600,54,97,137637
1.6276,0.3030,36.7600,54,97,137640
1.6618,0.3079,36.7000,54,97,137644
1.6716,0.3030,36.7300,54,97,137648
1.7204,0.3128,36.6100,54,97,137651
1.7204,0.3079,36.7600,54,97,137654
1.7351,0.3030,36.7300,54,97,137658
1.7791,0.3128,36.6400,54,97,137661
1.7693,0.3079,36.8500,54,97,137664
1.8084,0.3128,36.5500,54,97,137668
1.8035,0.3030,36.6700,54,97,137671
1.8182,0.3030,36.8200,54,97,137674
1.8426,0.3177,36.6700,54,97,137677
1.8377,0.3177,36.7900,54,97,137681
1.8866,0.3128,36.4600,54,97,137684
1.9697,0.3226,36.5500,54,97,137689
1.9501,0.2981,36.7300,54,97,137692
1.9550,0.3030,36.6700,54,97,137695
1.9599,0.3079,36.7900,54,97,137699
1.9795,0.3079,36.7600,54,97,137702
2.0430,0.3177,36.6700,54,97,137705
2.0430,0.3079,36.7600,54,97,137709
2.0968,0.3079,36.6100,54,97,137712
2.1017,0.3079,36.7600,54,97,137715
2.1359,0.3030,36.7600,54,97,137719
2.1945,0.3324,36.6100,54,97,137722
2.1945,0.3030,36.8500,54,97,137725
2.2630,0.3079,36.6400,54,97,137730
2.2678,0.3030,36.7000,54,97,137733
2.3069,0.3030,36.7900,54,97,137736
2.3656,0.3079,36.6400,54,97,137739
2.3851,0.3079,36.7600,54,97,137743
2.4585,0.3128,36.5500,54,97,137746
2.4633,0.3079,36.7000,54,97,137749
2.4927,0.3030,36.7300,54,97,137753
2.5269,0.3079,36.7000,54,97,137756
2.5367,0.3079,36.7600,54,97,137759
2.6149,0.3128,36.4600,54,97,137763
2.5562,0.3177,36.7300,54,97,137766
2.5709,0.3030,36.7600,54,97,137769
2.5709,0.3079,36.6400,54,97,137774
2.5562,0.2981,36.7600,54,97,137777
2.6197,0.3079,36.7900,54,97,137780
2.5318,0.3324,36.6700,54,97,137783
2.4682,0.3030,36.7300,54,97,137787
2.3998,0.2933,36.7600,54,97,137790
2.3265,0.3079,36.7600,54,97,137793
2.2923,0.3177,36.4900,54,97,137797
2.1554,0.3079,36.7000,54,97,137800
2.0528,0.3079,36.6400,54,97,137803
1.9208,0.3030,36.7600,54,97,137807
1.8182,0.2981,36.7600,54,97,137810
1.7302,0.3128,36.5800,54,97,137814
1.6129,0.3030,36.7300,54,97,137818
1.5347,0.3128,36.6100,54,97,137821
1.4174,0.3421,36.8200,54,97,137824
1.3441,0.3030,36.7600,54,97,137828
1.2903,0.3128,36.7000,54,97,137831
1.2317,0.3079,36.7600,54,97,137834
1.2170,0.3079,36.6100,54,97,137837
1.1730,0.3030,36.7600,54,97,137841
1.1584,0.3030,36.7600,54,97,137844
1.1584,0.3128,36.6400,54,97,137847
1.1339,0.3030,36.7900,54,97,137851
1.1632,0.3128,36.5200,54,97,137854
1.1681,0.3128,36.6400,54,97,137858
1.1681,0.3030,36.7600,54,97,137862
1.1828,0.3128,36.7000,54,97,137865
1.1926,0.3030,36.7900,54,97,137868
1.2414,0.3226,36.4000,54,97,137872
1.2268,0.3079,36.5200,54,97,137875
1.2463,0.3030,36.7600,54,97,137878
1.2757,0.2884,36.6100,54,97,137881
1.2903,0.3030,36.7900,54,97,137885
1.3441,0.3324,36.5800,54,97,137888
1.3343,0.3079,36.7300,54,97,137891
1.3636,0.3079,36.6700,54,97,137895
1.3734,0.3079,36.7600,54,97,137899
1.3930,0.3079,36.7600,54,97,137902
1.4321,0.3177,36.6700,54,97,137906
1.4370,0.3128,36.7300,54,97,137909
1.4614,0.3128,36.6100,54,97,137912
1.4663,0.3079,36.7600,54,97,137916
1.4907,0.3030,36.7900,54,97,137919
1.5249,0.3128,36.5800,54,97,137922
1.5054,0.3079,36.7300,54,97,137926
1.5396,0.3079,36.5800,54,97,137929
1.5298,0.3030,36.6700,54,97,137932
1.5543,0.3030,36.7600,54,97,137935
1.5738,0.3128,36.6400,54,97,137939
1.5787,0.3079,36.7600,54,97,137943
1.6178,0.3128,36.4900,54,97,137946
1.5934,0.3128,36.6400,54,97,137950
1.6080,0.3030,36.7600,54,97,137953
1.6178,0.3079,36.7300,54,97,137956
1.6325,0.3030,36.7600,54,97,137960
1.6813,0.3177,36.4300,54,97,137963
1.6373,0.3030,36.7000,54,97,137966
1.6520,0.2981,36.7600,54,97,137970
1.6569,0.3079,36.7000,54,97,137973
1.6569,0.3030,36.7600,54,97,137976
1.7155,0.3226,36.5800,54,97,137980
1.7009,0.3128,36.7000,54,97,137984
1.7058,0.3030,36.6700,54,97,137987
1.7058,0.3079,36.7900,54,97,137990
1.7155,0.3030,36.7600,54,97,137994
1.7498,0.3128,36.5200,54,97,137997
1.7253,0.3128,36.7600,54,97,138000
1.7449,0.3177,36.6100,54,97,138004
1.7302,0.3030,36.7900,54,97,138007
1.7351,0.3079,36.7600,54,97,138010
1.7595,0.3128,36.6700,54,97,138014
1.7449,0.3030,36.7300,54,97,138017
1.7742,0.3079,36.5800,54,97,138020
1.7351,0.3030,36.6100,54,97,138024
1.7400,0.3030,36.7600,54,97,138028
1.7498,0.3079,36.7000,54,97,138031
1.7400,0.3079,36.7600,54,97,138035
1.7693,0.3177,36.5200,54,97,138038
1.7351,0.3030,36.8800,54,97,138041
1.7400,0.3030,36.7600,54,97,138044
1.7498,0.3128,36.7000,54,97,138048
1.7253,0.2981,36.8200,54,97,138051
1.7791,0.3128,36.4600,54,97,138054
1.7644,0.3079,36.6700,54,97,138058
1.7693,0.3030,36.7600,54,97,138061
1.7546,0.3079,36.7600,54,97,138064
1.7498,0.3030,36.7600,54,97,138068
1.8035,0.3226,36.5500,54,97,138072
1.7742,0.3128,36.6700,54,97,138075
1.7595,0.3030,36.6700,54,97,138079
1.7546,0.3079,36.7600,54,97,138082
1.7693,0.3030,36.7600,54,97,138085
1.7937,0.3177,36.6100,54,97,138088
1.7791,0.3128,36.7300,54,97,138092
1.7986,0.3128,36.5200,54,97,138095
1.7693,0.3079,36.7300,54,97,138098
1.7595,0.3030,36.8200,54,97,138102
1.7644,0.3128,36.7000,54,97,138105
1.7498,0.3079,36.7900,54,97,138108
1.7742,0.3079,36.6700,54,97,138113
1.7400,0.3079,36.2800,54,97,138116
1.7546,0.3030,36.7300,54,97,138119
1.7791,0.3128,36.6400,54,97,138123
1.7546,0.3079,36.7600,54,97,138126
1.7889,0.3128,36.5200,54,97,138129
1.7693,0.3324,36.6400,54,97,138133
1.7644,0.3030,36.7600,54,97,138136
1.7693,0.3128,36.7000,54,97,138139
1.7498,0.3030,36.7600,54,97,138143
1.7840,0.3177,35.8100,54,97,138146
1.7400,0.3079,36.6400,54,97,138149
1.7400,0.3030,36.7300,54,97,138152
1.7498,0.3030,36.7300,54,97,138157
1.7595,0.3030,36.7600,54,97,138160
1.8084,0.3275,36.4600,54,97,138163
1.7595,0.3079,36.7000,54,97,138167
1.7595,0.3030,36.6700,54,97,138170
1.7449,0.3177,36.7300,54,97,138173
1.7449,0.3030,36.8500,54,97,138177
1.7840,0.3226,36.6400,54,97,138180
1.7595,0.3079,36.7300,54,97,138183
1.7693,0.3079,36.6100,54,97,138187
1.7498,0.3079,36.7600,54,97,138190
1.7644,0.3079,36.7600,54,97,138193
1.8035,0.3177,36.6100,54,97,138196
1.7742,0.3030,36.7600,54,97,138201
1.7986,0.3128,36.6400,54,97,138204
1.7742,0.2981,36.7900,54,97,138207
1.7840,0.3030,36.7600,54,97,138211
1.8084,0.3128,36.6700,54,97,138214
1.8035,0.3226,36.7600,54,97,138217
1.8426,0.3128,36.5500,54,97,138221
1.8084,0.3128,36.6700,54,97,138224
1.8182,0.3030,36.7600,54,97,138227
1.8280,0.3079,36.6700,54,97,138231
1.8280,0.2981,36.7600,54,97,138234
1.8768,0.3128,36.4900,54,97,138237
1.8280,0.2884,36.7000,54,97,138242
1.8426,0.3030,36.7900,54,97,138245
1.8426,0.3617,36.7600,54,97,138248
1.8524,0.3030,36.7600,54,97,138251
1.9257,0.3275,36.4900,54,97,138255
1.9062,0.3128,36.7000,54,97,138258
1.9013,0.3030,36.6400,54,97,138261
1.9013,0.3079,36.7300,54,97,138265
1.9110,0.3030,36.8800,54,97,138268
1.9648,0.3177,36.5800,54,97,138271
1.9501,0.3079,36.7300,54,97,138275
1.9697,0.3128,36.6100,54,97,138278
1.9550,0.3079,36.7600,54,97,138281
1.9648,0.3030,36.7900,54,97,138286
2.0235,0.3128,36.6400,54,97,138289
2.0088,0.3030,36.7900,54,97,138292
2.0577,0.3079,36.6100,54,97,138295
2.0088,0.3128,36.7600,54,97,138299
1.8866,0.3030,36.9800,54,97,138303
1.8866,0.2981,36.7600,54,97,138307
1.8866,0.3079,36.7600,54,97,138310
1.8768,0.3079,36.7600,54,97,138313
1.9013,0.3128,36.4900,54,97,138317
1.8622,0.3128,36.6400,54,97,138320
1.8328,0.3030,36.7600,54,97,138323
1.8622,0.2884,36.7300,54,97,138328
1.8133,0.3030,36.7600,54,97,138331
1.8426,0.3226,36.4900,54,97,138334
1.7791,0.3128,36.7000,54,97,138338
1.7644,0.3030,36.6700,54,97,138341
1.7595,0.3128,36.7600,54,97,138344
1.7644,0.3030,36.7600,54,97,138347
1.8035,0.3079,36.7300,54,97,138351
1.7742,0.2981,36.7300,54,97,138354
1.7791,0.3079,36.6100,54,97,138357
1.7546,0.3030,36.7600,54,97,138361
1.7644,0.3030,36.6700,54,97,138364
1.7889,0.3079,36.7000,54,97,138368
1.7791,0.3079,36.7600,54,97,138372
1.8035,0.3128,36.7000,54,97,138375
1.7693,0.3030,36.7600,54,97,138378
1.7889,0.3030,36.6700,54,97,138382
1.8133,0.3030,36.7000,54,97,138385
1.7937,0.3030,36.7600,54,97,138388
1.8280,0.3079,36.5500,54,97,138392
1.8475,0.2884,36.6400,54,97,138395
1.8328,0.3030,36.8200,54,97,138398
1.8719,0.3177,36.6700,54,97,138401
1.8475,0.3030,36.1300,54,97,138405
1.8719,0.3177,36.4900,54,97,138408
1.7840,0.3030,36.6700,54,97,138412
1.7204,0.3079,36.7600,54,97,138416
1.6911,0.2981,36.7600,54,97,138419
1.7058,0.3030,36.8500,54,97,138422
1.9306,0.3568,36.4600,54,97,138426
2.2483,0.3079,36.7000,54,97,138429
2.8348,0.2981,36.7600,54,97,138432
3.6070,0.3079,36.7600,54,97,138436
4.2033,0.3226,36.8200,54,97,138439
4.6579,0.3226,36.5800,54,97,138442
4.7752,0.3079,36.7300,54,97,138445
4.8631,0.3030,36.6100,54,97,138449
4.6237,0.3079,36.7600,54,97,138452
4.0371,0.3030,36.7600,54,97,138456
3.2942,0.3128,36.5800,54,97,138460
2.4976,0.3079,36.8200,54,97,138463
1.9599,0.3177,36.5800,54,97,138466
1.5738,0.3030,36.7600,54,97,138470
1.3734,0.3030,36.6700,54,97,138473
1.3099,0.3128,36.6400,54,97,138476
1.2414,0.3030,36.8500,54,97,138480
1.2659,0.3079,36.6400,54,97,138483
1.2414,0.3030,36.7000,54,97,138486
1.2512,0.3030,36.7000,54,97,138489
1.2708,0.3128,36.6700,54,97,138493
1.2854,0.3030,36.7300,54,97,138497
1.3294,0.3128,36.6100,54,97,138500
1.3343,0.3030,36.7600,54,97,138504
1.3734,0.3030,36.7600,54,97,138507
1.4125,0.3079,36.7000,54,97,138510
1.4174,0.3030,36.7600,54,97,138514
1.4858,0.3079,36.4300,54,97,138517
1.4907,0.3079,36.6700,54,97,138520
1.5103,0.3030,37.1600,54,97,138524
1.5543,0.3079,36.7300,54,97,138527
1.5689,0.3030,36.6400,54,97,138530
1.6471,0.3763,36.5500,54,97,138533
1.6373,0.3128,36.7000,54,97,138537
1.6667,0.3030,36.6400,54,97,138541
1.6862,0.3079,36.7600,54,97,138544
1.6960,0.3030,36.7600,54,97,138548
1.7351,0.3275,36.6100,54,97,138551
1.7155,0.3079,36.7600,54,97,138554
1.7498,0.3079,36.6100,54,97,138558
1.7351,0.3079,36.7600,54,97,138561
1.7693,0.3030,36.7600,54,97,138564
1.8084,0.3079,36.7000,54,97,138568
1.8182,0.3079,36.7600,54,97,138571
1.8622,0.3128,36.6100,54,97,138574
1.8475,0.3079,36.7300,54,97,138578
1.8768,0.3030,36.7600,54,97,138582
1.9110,0.3079,36.7600,54,97,138585
1.9013,0.3079,36.7600,54,97,138588
1.9599,0.3128,36.5200,54,97,138592
1.9599,0.3128,36.7000,54,97,138595
1.9746,0.3030,36.7900,54,97,138598
2.0088,0.2981,36.6700,54,97,138602
2.0137,0.3030,36.7600,54,97,138605
2.0772,0.3128,36.4600,54,97,138608
2.0332,0.3079,36.6700,54,97,138612
2.0430,0.3030,36.7900,54,97,138615
2.0626,0.3079,36.7600,54,97,138618
2.0821,0.3030,36.7600,54,97,138622
2.1603,0.3226,36.4600,54,97,138626
2.1212,0.3030,36.6100,54,97,138629
2.1408,0.2981,36.6700,54,97,138632
2.1505,0.3079,36.7600,54,97,138636
2.1603,0.2981,36.7600,54,97,138639
2.2287,0.3177,36.5800,54,97,138642
2.2141,0.3079,36.7300,54,97,138646
2.2532,0.3372,36.7000,54,97,138649
2.2630,0.3079,36.7900,54,97,138652
2.3021,0.3079,36.7600,54,97,138656
2.3803,0.3177,36.5800,54,97,138659
2.4047,0.3079,36.7900,54,97,138662
2.4487,0.3128,36.6100,54,97,138667
2.4536,0.3079,36.7300,54,97,138670
2.5024,0.3030,36.7600,54,97,138673
2.5709,0.3079,36.6100,54,97,138676
2.5953,0.2981,36.7600,54,97,138680
2.6833,0.3079,36.5800,54,97,138683
2.6833,0.3030,36.7300,54,97,138686
2.7322,0.3030,36.7600,54,97,138690
2.7810,0.3079,36.7000,54,97,138693
2.8055,0.3128,36.8200,54,97,138696
2.8886,0.3128,36.4900,54,97,138700
2.8641,0.3177,36.7600,54,97,138703
2.9081,0.3030,36.7900,54,97,138706
2.9228,0.3079,36.7000,54,97,138711
2.8983,0.2981,36.7600,54,97,138714
2.9570,0.3177,36.4900,54,97,138717
2.8690,0.3030,36.6400,54,97,138720
2.8152,0.3030,36.7600,54,97,138724
2.7664,0.3079,36.7300,54,97,138727
2.6833,0.2981,36.7900,54,97,138730
2.6686,0.3226,36.5500,54,97,138734
2.5073,0.3128,36.6700,54,97,138737
2.3949,0.3030,36.6700,54,97,138740
2.2727,0.3079,36.8200,54,97,138744
2.1652,0.3079,36.7600,54,97,138747
2.0919,0.3177,36.6400,54,97,138750
1.9453,0.3030,36.7600,54,97,138755
1.8573,0.3128,36.6100,54,97,138758
1.7351,0.3275,36.7600,54,97,138761
1.6618,0.3030,36.9500,54,97,138765
1.6373,0.3079,36.7000,54,97,138768
1.5396,0.3079,36.7600,54,97,138771
1.5200,0.3421,36.6100,54,97,138774
1.4467,0.3079,36.7600,54,97,138778
1.4321,0.3030,36.8200,54,97,138781
1.4370,0.3079,36.6100,54,97,138784
1.4321,0.3079,36.7600,54,97,138788
1.4418,0.3079,36.4900,54,97,138791
1.4370,0.3128,36.6400,54,97,138795
1.4272,0.3030,36.4300,54,97,138799
1.4467,0.3128,36.7000,54,97,138802
1.4516,0.3030,36.8800,54,97,138805
1.5054,0.3177,36.4300,54,97,138809
1.4858,0.3079,36.2800,54,97,138812
1.5054,0.3030,36.7300,54,97,138815
1.5298,0.3079,36.7600,54,97,138819
1.5494,0.3030,36.7600,54,97,138822
1.6129,0.3177,36.5200,54,97,138825
1.5885,0.3079,36.7900,54,97,138828
1.6080,0.3128,36.6700,54,97,138832
1.6031,0.3079,36.7300,54,97,138835
1.6080,0.3030,36.8200,54,97,138839
1.6471,0.3177,36.6400,54,97,138843
1.6471,0.3079,36.7600,54,97,138846
1.6618,0.3128,36.6400,54,97,138849
1.6520,0.3079,36.7600,54,97,138853
1.6716,0.3030,36.7600,54,97,138856
1.6960,0.3128,36.5500,54,97,138859
1.6862,0.3079,36.7600,54,97,138863
1.7253,0.3079,36.9100,54,97,138866
1.7058,0.2884,36.7000,54,97,138869
1.7058,0.3030,36.7600,54,97,138873
1.7107,0.3177,36.7000,54,97,138876
1.7009,0.3030,36.7600,54,97,138880
1.7351,0.3079,36.5800,54,97,138883
1.7107,0.2884,36.7000,54,97,138887
1.7155,0.3030,36.7600,54,97,138890
1.7253,0.3128,36.7600,54,97,138893
1.7155,0.3030,36.7600,54,97,138897
1.7595,0.3128,36.4900,54,97,138900
1.7204,0.3030,36.7000,54,97,138903
1.7351,0.3030,36.7600,54,97,138907
1.7302,0.3128,36.7000,54,97,138910
1.7302,0.3079,36.7600,54,97,138915
1.7351,0.3030,36.7600,54,97,138918
1.7546,0.3226,36.5800,54,97,138921
1.7155,0.3079,36.7900,54,97,138926
1.7400,0.3128,36.5800,54,97,138929
1.7155,0.3030,36.7600,54,97,138932
1.7155,0.3030,36.8500,54,97,138935
1.7449,0.3128,36.6400,54,97,138939
1.7302,0.3030,36.8500,54,97,138942
1.7644,0.3128,36.5800,54,97,138945
1.7253,0.3030,36.7300,54,97,138949
1.7302,0.3030,36.7600,54,97,138952
1.7302,0.3079,36.7000,54,97,138955
1.7253,0.3079,36.0700,54,97,138959
1.7546,0.3177,36.5200,54,97,138962
1.7204,0.3030,36.7300,54,97,138966
1.7351,0.3030,36.7600,54,97,138970
1.7498,0.3079,36.7600,54,97,138973
1.7351,0.2884,36.7600,54,97,138976
1.7791,0.3177,36.4000,54,97,138980
1.7498,0.3128,36.6400,54,97,138983
1.7253,0.2981,36.9800,54,97,138986
1.7253,0.3079,36.7300,54,97,138990
1.7302,0.3030,36.7600,54,97,138993
1.7889,0.3226,36.5500,54,97,138996
1.7351,0.3128,36.7600,54,97,138999
1.7498,0.2981,36.6400,54,97,139003
1.7400,0.3079,36.7600,54,97,139006
1.7498,0.2981,36.7600,54,97,139010
1.7693,0.3519,36.6100,54,97,139014
1.7449,0.3079,36.7600,54,97,139017
1.7644,0.3079,36.5500,54,97,139020
1.7302,0.2884,36.7600,54,97,139024
1.7302,0.3030,36.7300,54,97,139027
1.7449,0.3079,36.7000,54,97,139030
1.7449,0.3079,36.7600,54,97,139034
1.7742,0.3128,36.5800,54,97,139037
1.7449,0.3030,36.7600,54,97,139040
1.7546,0.3030,36.7600,54,97,139044
1.7840,0.3128,36.6400,54,97,139047
1.7546,0.3128,36.7600,54,97,139051
1.7986,0.3128,36.4900,54,97,139054
1.7742,0.3079,36.6400,54,97,139058
1.7889,0.3079,36.7600,54,97,139061
1.7742,0.3421,36.6700,54,97,139064
1.7644,0.3030,36.7600,54,97,139068
1.8133,0.3177,36.5800,54,97,139071
1.7644,0.3079,36.6700,54,97,139074
1.7595,0.2981,36.7000,54,97,139078
1.7595,0.3079,36.7600,54,97,139081
1.7595,0.2981,36.7900,54,97,139084
1.8084,0.3226,36.5800,54,97,139088
1.7742,0.3079,36.0100,54,97,139091
1.7937,0.3030,36.6100,54,97,139095
1.7644,0.3079,36.7600,54,97,139099
1.7693,0.3030,36.7600,54,97,139102
1.8035,0.3128,36.6700,54,97,139105
1.7840,0.3079,36.7300,54,97,139108
1.8035,0.3079,36.5800,54,97,139112
1.7693,0.3079,36.7600,54,97,139115
1.7644,0.2981,36.8200,54,97,139118
1.7791,0.3177,36.6100,54,97,139122
1.7351,0.2884,36.7600,54,97,139125
1.7693,0.3079,36.5500,54,97,139128
1.7693,0.3079,36.6700,54,97,139132
1.7498,0.3030,36.7900,54,97,139136
1.7644,0.3128,36.6400,54,97,139139
1.7449,0.3030,36.8500,54,97,139143
1.7742,0.3128,36.4600,54,97,139146
1.7253,0.3079,36.5800,54,97,139149
1.7253,0.3079,36.7600,54,97,139153
1.7302,0.3128,36.7300,54,97,139156
1.7253,0.3226,36.7600,54,97,139159
1.7742,0.3177,36.4600,54,97,139163
1.7302,0.2884,36.7000,54,97,139166
1.7351,0.2981,36.7300,54,97,139169
1.7253,0.3177,36.7300,54,97,139172
1.7204,0.3030,36.8500,54,97,139176
1.7644,0.3226,36.5800,54,97,139180
1.7351,0.3079,36.8200,54,97,139183
1.7400,0.2981,36.6400,54,97,139187
1.7155,0.3079,36.7300,54,97,139190
1.7351,0.3030,36.7600,54,97,139193
1.7693,0.3079,36.6100,54,97,139197
1.7302,0.2884,36.7300,54,97,139200
1.7644,0.3079,36.7300,54,97,139203
1.7351,0.3030,36.7300,54,97,139207
1.7449,0.3030,36.7900,54,97,139210
1.7840,0.3128,36.6400,54,97,139213
1.7351,0.3030,36.7600,54,97,139217
1.7644,0.3177,36.6100,54,97,139220
1.7253,0.3079,36.7000,54,97,139224
1.7253,0.3030,36.7600,54,97,139228
1.7595,0.3128,36.7000,54,97,139231
1.7253,0.3030,36.7600,54,97,139234
1.7742,0.3128,36.5200,54,97,139237
1.7302,0.3030,36.7300,54,97,139241
1.7351,0.3030,36.9100,54,97,139244
1.7400,0.3079,36.7000,54,97,139247
1.7302,0.3030,36.7600,54,97,139251
1.7840,0.3177,36.4000,54,97,139254
1.7693,0.3128,36.6700,54,97,139257
1.7351,0.2981,36.7300,54,97,139261
1.7302,0.3079,36.7300,54,97,139265
1.7400,0.3030,36.7900,54,97,139268
1.7889,0.3177,36.5500,54,97,139272
1.7449,0.3079,36.7000,54,97,139275
1.7400,0.3079,36.6100,54,97,139278
1.7253,0.3030,36.7600,54,97,139281
1.7253,0.3030,36.7600,54,97,139285
1.7644,0.3128,36.6100,54,97,139288
1.7351,0.3079,36.7300,54,97,139291
1.7791,0.3079,36.5800,54,97,139295
1.7644,0.3079,36.7600,54,97,139298
1.7937,0.3030,36.7300,54,97,139301
1.8280,0.2884,36.7000,54,97,139305
1.8475,0.3079,36.7300,54,97,139309
1.8964,0.3079,36.6100,54,97,139312
1.8671,0.3079,36.8200,54,97,139316
1.8719,0.3079,36.7600,54,97,139319
1.8866,0.3079,36.6700,54,97,139322
1.9062,0.2884,36.7600,54,97,139326
1.9306,0.3128,36.5200,54,97,139329
1.9062,0.3226,36.6400,54,97,139332
1.8866,0.3030,36.7300,54,97,139335
1.8622,0.3128,36.7000,54,97,139339
1.8231,0.3030,36.7600,54,97,139342
1.8622,0.3177,36.4900,54,97,139345
1.8035,0.3079,36.6700,54,97,139350
1.8035,0.2981,36.7000,54,97,139353
1.8035,0.3079,36.7600,54,97,139356
1.8084,0.3030,36.7600,54,97,139360
1.8671,0.3226,36.6700,54,97,139363
1.8084,0.3079,36.7300,54,97,139366
1.7986,0.3030,36.6700,54,97,139370
1.7546,0.3324,36.8200,54,97,139373
1.7351,0.3030,36.7900,54,97,139376
1.7449,0.3372,36.6400,54,97,139379
1.7107,0.3079,36.7300,54,97,139383
1.7155,0.3079,36.5800,54,97,139386
1.6911,0.3079,36.7900,54,97,139389
1.6960,0.3226,36.7600,54,97,139394
1.7204,0.3177,36.6100,54,97,139397
1.6911,0.3079,36.7300,54,97,139400
1.7253,0.3079,36.6400,54,97,139404
1.7058,0.3079,36.6700,54,97,139407
1.7204,0.3030,36.7900,54,97,139410
1.7400,0.3177,36.6400,54,97,139414
1.7302,0.3030,36.7600,54,97,139417
1.7742,0.3128,36.7600,54,97,139420
1.7400,0.3079,36.7000,54,97,139424
1.7449,0.3030,36.7600,54,97,139427
1.7546,0.3079,36.7000,54,97,139430
1.7693,0.3079,36.7600,54,97,139433
1.7986,0.3177,36.4300,54,97,139438
1.7742,0.2884,36.7300,54,97,139441
1.7693,0.3030,36.1900,54,97,139444
1.7693,0.3079,36.7300,54,97,139448
1.7742,0.3079,36.7900,54,97,139451
1.8280,0.3275,36.5500,54,97,139454
1.7644,0.3079,36.5800,54,97,139458
1.7253,0.3030,36.6400,54,97,139461
1.6667,0.3079,36.6400,54,97,139464
1.6178,0.3079,36.7600,54,97,139468
1.6422,0.3177,36.5800,54,97,139471
1.7204,0.3079,36.7300,54,97,139474
2.0186,0.3128,36.6100,54,97,139479
2.5073,0.3079,36.7600,54,97,139482
3.2111,0.3030,36.7600,54,97,139485
3.9883,0.3128,36.7000,54,97,139489
4.4233,0.3079,36.7600,54,97,139492
4.7458,0.3079,36.6100,54,97,139495
4.8045,0.3030,36.7300,54,97,139498
4.7312,0.3030,36.7600,54,97,139502
4.3255,0.3128,36.7000,54,97,139505
3.5435,0.3079,36.7900,54,97,139508
2.7908,0.3128,36.6400,54,97,139512
2.0870,0.3079,36.7600,54,97,139515
1.6325,0.3030,36.9100,54,97,139518
1.3881,0.3128,36.7000,54,97,139523
1.0802,0.3079,36.7600,54,97,139527
1.0704,0.3030,36.7900,54,97,139531
1.0899,0.3079,35.8400,54,97,139534
1.0850,0.3128,36.7300,54,97,139537
1.1046,0.3079,36.6400,54,97,139541
1.1193,0.3079,36.8200,54,97,139544
1.1535,0.3030,36.7600,54,97,139547
1.1877,0.3226,36.6100,54,97,139550
1.2121,0.3079,36.7600,54,97,139554
1.2610,0.3226,36.5800,54,97,139557
1.2708,0.3079,36.8200,54,97,139560
1.3001,0.3275,36.8200,54,97,139565
1.3392,0.3128,36.6700,54,97,139568
1.3587,0.3324,36.7600,54,97,139571
1.4125,0.3128,36.5500,54,97,139575
1.4174,0.3079,36.7600,54,97,139578
1.4467,0.3030,36.7600,54,97,139581
1.4712,0.3128,36.6700,54,97,139585
1.4761,0.3030,36.7600,54,97,139588
1.5738,0.3128,36.4600,54,97,139591
1.5445,0.3128,36.1600,54,97,139595
1.5591,0.3030,36.7600,54,97,139598
1.5836,0.3079,36.6100,54,97,139601
1.5885,0.3030,36.7900,54,97,139606
1.6422,0.3226,36.4900,54,97,139609
1.6031,0.3128,36.7300,54,97,139612
1.6178,0.3030,36.7600,54,97,139615
1.6422,0.3079,36.7000,54,97,139619
1.6716,0.2933,36.7600,54,97,139622
1.7351,0.3226,36.5800,54,97,139625
1.7204,0.3079,36.7300,54,97,139629
1.7400,0.3079,36.6400,54,97,139632
1.7351,0.3079,36.7600,54,97,139635
1.7595,0.3079,36.7600,54,97,139639
1.8035,0.3079,36.6700,54,97,139642
1.8133,0.3079,36.7600,54,97,139645
1.8426,0.3128,36.6400,54,97,139650
1.8231,0.3079,36.7600,54,97,139653
1.8426,0.3030,36.8800,54,97,139656
1.8817,0.3226,36.6400,54,97,139660
1.8622,0.3079,36.8500,54,97,139663
1.9306,0.3128,36.5800,54,97,139666
1.9013,0.3079,36.6700,54,97,139669
1.9208,0.3030,36.7600,54,97,139673
1.9599,0.3128,36.6400,54,97,139676
1.9599,0.3079,36.7600,54,97,139679
2.0283,0.3324,36.4900,54,97,139683
2.0088,0.3128,36.7300,54,97,139686
2.0332,0.3030,36.9500,54,97,139689
2.0772,0.3128,36.7300,54,97,139694
2.0772,0.3030,36.7600,54,97,139697
2.1603,0.3079,36.5800,54,97,139700
2.1359,0.3079,36.7000,54,97,139704
2.1652,0.3030,36.7600,54,97,139707
2.1848,0.3568,36.7600,54,97,139710
2.2092,0.3128,36.7600,54,97,139713
2.3021,0.3421,36.5200,54,97,139717
2.2874,0.3128,36.7000,54,97,139720
2.3167,0.3030,36.6700,54,97,139723
2.3705,0.3079,36.7300,54,97,139727
2.3705,0.3030,36.7600,54,97,139730
2.4389,0.3177,36.5200,54,97,139734
2.4291,0.3079,36.7300,54,97,139738
2.4731,0.3079,36.4000,54,97,139741
2.4585,0.3177,36.8200,54,97,139744
2.4731,0.3079,36.7600,54,97,139747
2.5024,0.3226,36.6700,54,97,139751
2.4780,0.3079,36.7600,54,97,139754
2.5073,0.3079,36.6400,54,97,139757
2.4389,0.3079,36.7300,54,97,139761
2.4047,0.3079,36.7600,54,97,139764
2.3607,0.3275,36.6700,54,97,139767
2.3021,0.3079,36.7600,54,97,139771
2.2239,0.3079,35.9500,54,97,139774
2.0870,0.3079,36.7600,54,97,139778
1.9844,0.3128,36.7600,54,97,139782
1.8866,0.3226,36.6700,54,97,139785
1.7498,0.3177,36.7600,54,97,139788
1.6911,0.3177,36.4600,54,97,139792
1.5738,0.3226,36.7000,54,97,139795
1.4858,0.3030,36.7600,54,97,139798
1.4125,0.3372,36.7000,54,97,139802
1.3392,0.3030,36.8200,54,97,139805
1.3148,0.3275,36.4900,54,97,139808
1.2268,0.3128,36.6700,54,97,139811
1.1828,0.3030,36.1300,54,97,139815
1.1584,0.2981,36.7600,54,97,139819
1.1290,0.3079,36.8500,54,97,139822
1.1535,0.3177,36.6100,54,97,139826
1.1241,0.3079,36.7300,54,97,139829
1.1388,0.3079,36.6100,54,97,139832
1.1241,0.3079,36.7600,54,97,139836
1.1388,0.3079,36.7300,54,97,139839
1.1632,0.3128,36.7000,54,97,139842
1.1681,0.3079,36.7600,54,97,139846
1.2072,0.3226,36.6100,54,97,139849
1.1926,0.3079,36.9100,54,97,139852
1.2512,0.3030,36.7600,54,97,139856
1.2561,0.3128,36.6100,54,97,139859
1.2610,0.2981,36.7600,54,97,139863
1.3099,0.3128,36.5200,54,97,139866
1.3099,0.3177,36.6100,54,97,139870
1.3196,0.3030,36.7600,54,97,139873
1.3539,0.3128,36.7000,54,97,139876
1.3539,0.3030,36.7600,54,97,139880
1.3978,0.3177,36.4900,54,97,139883
1.3685,0.3079,36.6700,54,97,139886
1.3832,0.3030,36.8200,54,97,139890
1.3978,0.3079,36.7300,54,97,139893
1.4223,0.3079,36.7600,54,97,139896
1.4858,0.3275,36.4600,54,97,139900
1.4712,0.3079,36.7000,54,97,139904
1.4907,0.3177,36.6700,54,97,139907
1.4907,0.3079,36.7300,54,97,139911
1.5005,0.3079,36.7600,54,97,139914
1.5543,0.3177,36.6100,54,97,139917
1.5494,0.3177,36.7000,54,97,139920
1.5738,0.3128,36.6100,54,97,139924
1.5591,0.3030,36.7300,54,97,139927
1.5787,0.2884,36.7600,54,97,139930
1.6080,0.3177,36.5800,54,97,139934
1.5934,0.3079,36.7600,54,97,139937
1.6227,0.3177,36.5800,54,97,139940
1.6080,0.3030,36.7000,54,97,139944
1.6178,0.3030,36.7600,54,97,139948
1.6373,0.3128,36.6400,54,97,139951
1.6373,0.3030,36.8200,54,97,139955
1.6764,0.3275,36.5200,54,97,139958
1.6471,0.3079,36.7000,54,97,139961
1.6520,0.3079,36.7900,54,97,139965
1.6618,0.3177,36.7000,54,97,139968
1.6520,0.3128,36.7900,54,97,139971
1.6911,0.3128,36.4600,54,97,139974
1.6520,0.3177,36.7300,54,97,139978
1.6618,0.2981,36.8200,54,97,139981
1.6667,0.3128,36.8500,54,97,139984
1.6764,0.3079,36.7600,54,97,139988
1.7107,0.3275,36.6700,54,97,139992
1.7204,0.3177,36.6400,54,97,139995
1.6862,0.3030,36.9100,54,97,139999
1.6813,0.3079,36.7300,54,97,140002
1.6813,0.3030,36.7300,54,97,140005
1.7400,0.3177,36.5500,54,97,140009
1.6716,0.3079,36.8800,54,97,140012
1.6862,0.3128,36.6100,54,97,140015
1.6716,0.3079,36.9800,54,97,140019
1.6813,0.3177,36.7600,54,97,140022
1.7009,0.3177,36.9100,54,97,140025
1.6911,0.3470,36.7600,54,97,140029
1.7253,0.3128,36.6100,54,97,140033
1.6862,0.3128,36.7900,54,97,140036
1.6960,0.3030,36.8500,54,97,140039
1.7107,0.3079,36.6700,54,97,140043
1.7107,0.3079,36.7300,54,97,140046
1.7400,0.3226,36.5500,54,97,140049
1.7204,0.3079,36.7600,54,97,140053
1.7351,0.3079,36.7300,54,97,140056
1.7498,0.3177,36.7000,54,97,140059
1.7351,0.3324,36.8200,54,97,140063
1.7840,0.3177,36.4600,54,97,140066
1.7498,0.3079,36.6100,54,97,140069
1.7400,0.3030,36.7600,54,97,140073
1.7351,0.3079,36.7300,54,97,140077
1.7253,0.3079,36.7600,54,97,140080
1.7791,0.3275,36.5500,54,97,140084
1.7302,0.3079,36.6700,54,97,140087
1.7253,0.3030,36.6700,54,97,140090
1.7204,0.2981,36.7300,54,97,140093
1.7253,0.3030,36.7600,54,97,140097
1.7595,0.3177,36.5800,54,97,140100
1.7302,0.3079,36.7300,54,97,140103
1.7498,0.3128,36.9100,54,97,140107
1.7302,0.2981,36.7600,54,97,140110
1.7155,0.3030,36.7900,54,97,140113
1.7302,0.3128,36.7000,54,97,140118
1.7204,0.3079,36.7000,54,97,140121
1.7449,0.3128,36.6100,54,97,140124
1.7107,0.3079,36.8800,54,97,140128
1.7155,0.3079,36.7600,54,97,140131
1.7351,0.3128,36.6700,54,97,140134
1.7351,0.3177,36.7000,54,97,140139
1.7302,0.2884,36.7600,54,97,140142
1.7742,0.3226,36.6400,54,97,140146
1.7302,0.3079,36.6400,54,97,140149
1.7253,0.3030,36.7300,54,97,140152
1.7253,0.3079,36.7600,54,97,140156
1.7351,0.3128,36.9800,54,97,140160
1.7791,0.3226,36.5800,54,97,140163
1.7449,0.3079,36.7300,54,97,140167
1.7644,0.3128,36.6100,54,97,140170
1.7400,0.3226,36.8200,54,97,140173
1.7400,0.3079,36.7900,54,97,140176
1.7595,0.3079,36.7000,54,97,140180
1.7449,0.3079,36.7600,54,97,140183
1.7840,0.3128,36.6100,54,97,140186
1.7498,0.3079,36.7600,54,97,140190
1.7595,0.3030,36.7600,54,97,140193
1.7840,0.3177,36.6400,54,97,140196
1.7546,0.3079,36.7900,54,97,140200
1.7889,0.3617,36.5800,54,97,140204
1.7693,0.3079,36.6400,54,97,140207
1.7595,0.3030,36.7600,54,97,140211
1.7693,0.3177,36.6700,54,97,140214
1.7449,0.3128,36.7600,54,97,140217
1.7840,0.3177,36.4600,54,97,140221
1.7498,0.3226,36.6400,54,97,140224
1.7595,0.3030,36.7600,54,97,140227
1.7644,0.3079,36.7900,54,97,140230
1.7644,0.3030,36.7600,54,97,140234
1.8182,0.3275,36.4600,54,97,140237
1.7693,0.3079,36.7000,54,97,140240
1.7840,0.3030,36.6700,54,97,140244
1.7791,0.3177,36.7300,54,97,140248
1.7742,0.3079,36.7600,54,97,140251
1.8084,0.3226,36.6100,54,97,140255
1.7742,0.3128,36.7300,54,97,140258
1.7937,0.3177,36.6100,54,97,140261
1.7742,0.3079,36.1000,54,97,140265
1.7840,0.3226,36.7600,54,97,140268
1.8084,0.3177,36.5800,54,97,140271
1.8084,0.2884,36.7900,54,97,140275
1.8231,0.3128,36.6400,54,97,140278
1.8084,0.3372,36.6700,54,97,140281
1.8377,0.3079,36.7900,54,97,140285
1.8719,0.3128,36.6700,54,97,140289
1.8719,0.3079,36.7600,54,97,140292
1.9062,0.3079,36.5500,54,97,140295
1.8768,0.3079,36.7300,54,97,140299
1.8866,0.3030,36.7600,54,97,140302
1.9208,0.3079,36.6700,54,97,140305
1.9355,0.3079,36.7900,54,97,140309
1.9795,0.3177,36.4600,54,97,140312
1.9257,0.3030,36.7300,54,97,140315
1.9208,0.3079,36.7900,54,97,140319
1.9159,0.3128,36.7300,54,97,140322
1.9013,0.3128,36.7600,54,97,140325
1.9550,0.3275,36.4900,54,97,140329
1.9110,0.3079,36.7000,54,97,140333
1.8964,0.3030,36.7000,54,97,140336
1.8866,0.3079,36.7300,54,97,140339
1.8866,0.3470,36.7600,54,97,140343
1.9208,0.3177,36.5500,54,97,140346
1.8622,0.3128,36.7000,54,97,140349
1.8475,0.3128,36.6100,54,97,140353
1.7937,0.3079,36.7300,54,97,140356
1.7595,0.3079,36.7600,54,97,140359
1.7693,0.3275,36.5500,54,97,140363
1.7449,0.3079,36.7600,54,97,140366
1.7595,0.3177,36.6700,54,97,140369
1.7204,0.3079,36.7600,54,97,140374
1.7204,0.3030,36.7900,54,97,140377
1.7302,0.3030,36.6700,54,97,140380
1.7253,0.3079,36.7900,54,97,140384
1.7546,0.3128,36.5500,54,97,140387
1.7302,0.3079,36.7600,54,97,140390
1.7400,0.3079,36.7600,54,97,140393
1.7400,0.3226,36.7300,54,97,140397
1.7302,0.3079,36.6700,54,97,140400
1.7742,0.3128,36.4600,54,97,140403
1.7644,0.3128,36.6400,54,97,140407
1.7546,0.3030,36.7300,54,97,140410
1.7644,0.3128,36.7300,54,97,140413
1.7595,0.3030,36.7600,54,97,140418
1.8133,0.3275,36.4300,54,97,140421
1.7742,0.3079,36.6100,54,97,140424
1.7742,0.3030,36.6700,54,97,140428
1.7889,0.3079,36.7900,54,97,140431
1.7937,0.3372,36.7300,54,97,140434
1.8280,0.3226,36.5800,54,97,140438
1.7546,0.3128,36.7000,54,97,140441
1.7204,0.3079,36.6400,54,97,140444
1.6471,0.3079,36.7900,54,97,140447
1.6471,0.3079,36.7600,54,97,140451
1.7742,0.3128,36.5500,54,97,140454
2.0479,0.3079,36.7300,54,97,140457
2.5855,0.3128,36.5800,54,97,140462
3.2600,0.3128,36.7300,54,97,140465
3.9980,0.3030,36.7600,54,97,140468
4.4966,0.3177,36.6400,54,97,140472
4.7019,0.3030,36.7300,54,97,140475
4.8631,0.3079,36.6400,54,97,140478
4.6823,0.3030,36.6700,54,97,140482
4.1740,0.3030,36.7600,54,97,140485
3.4262,0.3128,36.6700,54,97,140488
2.6149,0.3079,36.7600,54,97,140492
2.0186,0.3128,36.5200,54,97,140495
1.5298,0.3128,36.7000,54,97,140498
1.2659,0.3079,36.8200,54,97,140502
1.1290,0.3128,36.7300,54,97,140506
1.0850,0.2981,36.7600,54,97,140509
1.0948,0.3177,36.4600,54,97,140512
1.0753,0.2884,36.7000,54,97,140516
1.0948,0.3030,36.7300,54,97,140519
1.1046,0.3128,36.7000,54,97,140522
1.1193,0.3079,36.7600,54,97,140526
1.1779,0.3079,36.6700,54,97,140529
1.1730,0.3128,36.7000,54,97,140532
1.2170,0.3079,36.6400,54,97,140535
1.2072,0.3079,36.7300,54,97,140539
1.2366,0.2981,36.7600,54,97,140542
1.2854,0.3079,36.0700,54,97,140546
1.2952,0.2884,36.7300,54,97,140550
1.3343,0.3128,36.6100,54,97,140553
1.3441,0.3128,36.7600,54,97,140556
1.3783,0.3030,36.6700,54,97,140560
1.4174,0.3128,36.6400,54,97,140563
1.4223,0.3079,36.7300,54,97,140566
1.4761,0.3030,36.6100,54,97,140570
1.4614,0.3030,36.7300,54,97,140573
1.4858,0.3128,36.7600,54,97,140576
1.5005,0.3079,36.6700,54,97,140580
1.5347,0.3079,36.8200,54,97,140583
1.5836,0.3177,36.4900,54,97,140587
1.5738,0.3275,36.7300,54,97,140591
1.6031,0.3030,36.7600,54,97,140594
1.6276,0.3079,36.7000,54,97,140597
1.6422,0.3079,36.7600,54,97,140600
1.7107,0.3177,36.4000,54,97,140604
1.7204,0.3128,36.6700,54,97,140607
1.7155,0.3030,36.7600,54,97,140610
1.7400,0.3128,36.7300,54,97,140614
1.7449,0.3030,36.7600,54,97,140617
1.8133,0.3275,36.5200,54,97,140620
1.7889,0.3079,36.6100,54,97,140624
1.8035,0.3030,36.6700,54,97,140627
1.8133,0.3079,36.7300,54,97,140631
1.8280,0.3030,36.7300,54,97,140635
1.8622,0.3128,36.5800,54,97,140638
1.8573,0.3079,36.7600,54,97,140641
1.9110,0.3128,36.6100,54,97,140645
1.8866,0.3079,36.7600,54,97,140648
1.9110,0.3030,36.7600,54,97,140651
1.9355,0.3079,36.7000,54,97,140654
1.9355,0.3079,36.7600,54,97,140658
1.9941,0.3128,36.6100,54,97,140661
1.9648,0.3128,36.7600,54,97,140664
1.9990,0.3030,36.7600,54,97,140668
2.0381,0.3177,36.6700,54,97,140672
2.0430,0.3079,36.7300,54,97,140675
2.1017,0.3079,36.4900,54,97,140679
2.1017,0.3372,36.6100,54,97,140682
2.1212,0.3030,36.7600,54,97,140685
2.1603,0.3177,36.7000,54,97,140689
2.1799,0.3079,36.7900,54,97,140692
2.2630,0.3177,36.4600,54,97,140695
2.2532,0.3079,36.6700,54,97,140698
2.2923,0.3030,36.8200,54,97,140702
2.3363,0.3030,36.7300,54,97,140705
2.3754,0.3030,36.7300,54,97,140708
2.4829,0.3275,36.4600,54,97,140712
2.4536,0.3079,36.7300,54,97,140716
2.4829,0.3128,36.6700,54,97,140719
2.4976,0.3079,36.7600,54,97,140723
2.5220,0.3226,36.7600,54,97,140726
2.5953,0.3177,36.6400,54,97,140729
2.5855,0.3079,36.7300,54,97,140733
2.6197,0.3128,36.6100,54,97,140736
2.6002,0.3079,36.7300,54,97,140739
2.6442,0.3030,36.7600,54,97,140743
2.6491,0.3177,36.5200,54,97,140746
2.3509,0.3128,36.6400,54,97,140751
2.2336,0.3079,36.7600,54,97,140754
2.1750,0.3128,36.4300,54,97,140758
2.0186,0.3128,36.7000,54,97,140762
1.9062,0.3030,36.7600,54,97,140765
1.8084,0.3421,36.7600,54,97,140768
1.7058,0.3079,36.7600,54,97,140771
1.6618,0.3177,36.4000,54,97,140775
1.5298,0.3079,36.7000,54,97,140778
1.4663,0.2981,36.7900,54,97,140781
1.3881,0.2981,36.7300,54,97,140785
1.3148,0.3079,36.7900,54,97,140788
1.3294,0.3226,36.5800,54,97,140791
1.2366,0.3079,36.6700,54,97,140795
1.2268,0.2981,36.6400,54,97,140798
1.1681,0.3079,36.7600,54,97,140802
1.1632,0.2884,36.7600,54,97,140806
1.1681,0.3079,36.5500,54,97,140809
1.1437,0.3079,36.7300,54,97,140812
1.1779,0.3079,36.5800,54,97,140816
1.1779,0.3079,36.7600,54,97,140819
1.2072,0.3030,36.7600,54,97,140822
1.2366,0.3128,36.6400,54,97,140825
1.2414,0.3079,36.7600,54,97,140829
1.2805,0.3128,36.6100,54,97,140832
1.2708,0.3030,36.7000,54,97,140835
1.2854,0.3030,36.7900,54,97,140839
1.3099,0.3128,36.7300,54,97,140843
1.3196,0.3079,36.7600,54,97,140846
1.3636,0.3079,36.4900,54,97,140850
1.3587,0.3079,36.9800,54,97,140853
1.3832,0.3030,36.7600,54,97,140856
1.4125,0.3177,36.6700,54,97,140860
1.4076,0.3079,36.7600,54,97,140863
1.4663,0.3079,36.5500,54,97,140866
1.4614,0.3128,36.6100,54,97,140869
1.4712,0.3030,36.7300,54,97,140873
1.4956,0.3079,36.7300,54,97,140876
1.5005,0.3030,36.7600,54,97,140879
1.5591,0.3275,36.5200,54,97,140883
1.5298,0.3079,36.7600,54,97,140887
1.5445,0.3030,36.6700,54,97,140890
1.5640,0.2981,36.7600,54,97,140894
1.5640,0.3030,36.7600,54,97,140897
1.6031,0.3177,36.5200,54,97,140900
1.5934,0.3079,36.7600,54,97,140904
1.6276,0.3079,36.5800,54,97,140907
1.6178,0.3079,36.7300,54,97,140910
1.6325,0.3030,36.7900,54,97,140914
1.6667,0.3128,36.7300,54,97,140917
1.6520,0.3079,36.7300,54,97,140920
1.6764,0.3128,36.5800,54,97,140923
1.6471,0.3079,36.7300,54,97,140928
1.6618,0.3030,36.7900,54,97,140931
1.6911,0.3128,36.6100,54,97,140934
1.6716,0.2981,36.7600,54,97,140938
1.7155,0.3128,36.4900,54,97,140941
1.7009,0.3128,36.7000,54,97,140944
1.7058,0.3030,36.7600,54,97,140948
1.7302,0.3177,36.6700,54,97,140951
1.7302,0.3030,36.7600,54,97,140954
1.7791,0.3177,36.4300,54,97,140958
1.7351,0.3079,36.6700,54,97,140961
1.7449,0.3030,36.7600,54,97,140964
1.7693,0.3128,36.7300,54,97,140968
1.7595,0.3030,36.7600,54,97,140972
1.8084,0.3275,36.4900,54,97,140975
1.7546,0.3128,36.7000,54,97,140978
1.7498,0.3030,36.6700,54,97,140982
1.7302,0.3177,36.7300,54,97,140985
1.7351,0.3030,36.0700,54,97,140988
1.7742,0.3226,36.6100,54,97,140992
1.7595,0.3128,36.7000,54,97,140995
1.7693,0.3079,36.6100,54,97,140998
1.7400,0.3079,36.8200,54,97,141002
1.7449,0.3079,36.7300,54,97,141005
1.7595,0.3177,36.4600,54,97,141008
1.7351,0.3128,36.7000,54,97,141012
1.7693,0.3128,36.6100,54,97,141016
1.7351,0.3030,36.7300,54,97,141019
1.7400,0.3079,36.7600,54,97,141022
1.7546,0.3079,36.7600,54,97,141026
1.7498,0.3275,36.7600,54,97,141029
1.7840,0.3128,36.5200,54,97,141032
1.7498,0.3128,36.6700,54,97,141036
1.7595,0.3030,36.7600,54,97,141039
1.7644,0.3128,36.7300,54,97,141042
1.7644,0.2884,36.7600,54,97,141046
1.8084,0.3128,36.4300,54,97,141049
1.7693,0.3030,36.7000,54,97,141052
1.7791,0.3030,36.7600,54,97,141057
1.7791,0.3128,36.7000,54,97,141060
1.7693,0.3128,36.7600,54,97,141063
1.8182,0.3372,36.4600,54,97,141067
1.7742,0.3128,36.6700,54,97,141070
1.7693,0.3030,36.6700,54,97,141073
1.7595,0.3079,36.7300,54,97,141076
1.7595,0.3079,36.7900,54,97,141080
1.8035,0.3226,36.5500,54,97,141083
1.7595,0.3079,36.8200,54,97,141086
1.7742,0.3079,36.5800,54,97,141090
1.7595,0.3079,36.7600,54,97,141093
1.7595,0.3030,36.7300,54,97,141096
1.8035,0.3128,36.6100,54,97,141101
1.7546,0.3079,36.7600,54,97,141104
1.7791,0.3226,36.5800,54,97,141107
1.7400,0.3079,36.7600,54,97,141111
1.7449,0.3030,36.7300,54,97,141114
1.7498,0.3128,36.7000,54,97,141117
1.7498,0.3079,36.7600,54,97,141120
1.7742,0.3030,36.5800,54,97,141124
1.7449,0.3079,36.7900,54,97,141127
1.7595,0.3128,36.7600,54,97,141130
1.7742,0.3079,36.6700,54,97,141134
1.7840,0.2933,36.7300,54,97,141137
1.8084,0.3128,36.4600,54,97,141140
1.7840,0.3079,36.7000,54,97,141145
1.8084,0.2884,36.7600,54,97,141148
1.7840,0.3079,36.6100,54,97,141151
1.7742,0.3030,36.7600,54,97,141155
1.8231,0.3177,36.4600,54,97,141158
1.7840,0.3128,36.6400,54,97,141161
1.7693,0.3030,36.7000,54,97,141165
1.7693,0.3079,36.7300,54,97,141168
1.7791,0.3128,36.7600,54,97,141171
1.8231,0.3372,36.5500,54,97,141174
1.7791,0.3079,36.7300,54,97,141178
1.7889,0.3079,36.6100,54,97,141181
1.7595,0.3079,36.7600,54,97,141185
1.7595,0.3128,36.7600,54,97,141189
1.7840,0.3128,36.7000,54,97,141192
1.7693,0.3079,36.6400,54,97,141195
1.7840,0.3128,36.6100,54,97,141199
1.7498,0.3079,36.7600,54,97,141202
1.7595,0.3030,36.7600,54,97,141205
1.7840,0.3079,36.6100,54,97,141209
1.7644,0.2884,36.7600,54,97,141212
1.8084,0.3079,36.5500,54,97,141215
1.7937,0.3030,36.6400,54,97,141219
1.8035,0.3030,36.7600,54,97,141222
1.8231,0.3275,36.6400,54,97,141225
1.8231,0.2981,36.7900,54,97,141229
1.8817,0.3079,36.7300,54,97,141233
1.8671,0.3079,36.7000,54,97,141236
1.8719,0.3030,36.7600,54,97,141239
1.8719,0.3030,36.7000,54,97,141243
1.8622,0.3079,36.7300,54,97,141246
1.9110,0.3177,36.3700,54,97,141249
1.8768,0.3079,36.7000,54,97,141253
1.9013,0.3030,36.7000,54,97,141256
1.9110,0.3177,36.6700,54,97,141259
1.9062,0.3030,36.6700,54,97,141263
1.9501,0.3324,36.5800,54,97,141266
1.8915,0.3128,36.7000,54,97,141270
1.8866,0.3079,36.6400,54,97,141274
1.8524,0.3079,36.7600,54,97,141277
1.8426,0.3030,36.7900,54,97,141280
1.8671,0.3177,36.5800,54,97,141283
1.8328,0.3226,36.7300,54,97,141287
1.8866,0.3128,36.5800,54,97,141290
1.8328,0.3079,36.7600,54,97,141293
1.8231,0.3324,36.7600,54,97,141297
1.8133,0.3079,36.7000,54,97,141300
1.7693,0.3275,36.7300,54,97,141303
1.7644,0.3128,36.5800,54,97,141307
1.7204,0.3128,36.7300,54,97,141310
1.7107,0.2884,36.7300,54,97,141314
1.7107,0.3079,36.6700,54,97,141318
1.7302,0.2884,36.7600,54,97,141321
1.7302,0.3079,36.5200,54,97,141324
1.6911,0.3030,36.7300,54,97,141328
1.7009,0.3030,36.7600,54,97,141331
1.7107,0.3177,36.7300,54,97,141334
1.7107,0.3079,36.7900,54,97,141337
1.7546,0.3128,36.4300,54,97,141341
1.7253,0.3128,36.6700,54,97,141344
1.7155,0.2981,36.7000,54,97,141347
1.7204,0.3079,36.7300,54,97,141351
1.7155,0.3030,36.7300,54,97,141355
1.7742,0.3226,36.5500,54,97,141358
1.7840,0.3177,36.6700,54,97,141363
1.7644,0.3079,36.7300,54,97,141366
1.7937,0.3128,36.6100,54,97,141370
1.7351,0.3030,36.7300,54,97,141373
1.7107,0.3030,36.7600,54,97,141376
1.6716,0.3128,36.6700,54,97,141380
1.6129,0.3079,36.7600,54,97,141383
1.6129,0.3128,36.5200,54,97,141386
1.6569,0.3079,36.7600,54,97,141390
1.9110,0.3128,36.7300,54,97,141393
2.3851,0.3128,36.7300,54,97,141396
3.0596,0.3030,36.7600,54,97,141401
3.9198,0.3128,36.4600,54,97,141404
4.3842,0.3079,36.6700,54,97,141407
4.6432,0.3030,36.7600,54,97,141410
4.8094,0.3079,36.7300,54,97,141414
4.7556,0.3030,36.7600,54,97,141417
4.5064,0.3275,36.5200,54,97,141420
3.6315,0.3226,36.6700,54,97,141424
2.7908,0.2981,36.6700,54,97,141427
2.0968,0.3079,36.6100,54,97,141430
1.6178,0.3030,36.7600,54,97,141434
1.3539,0.3177,36.6100,54,97,141437
1.1828,0.2981,36.7300,54,97,141441
1.1339,0.3128,36.6400,54,97,141445
1.0899,0.3372,36.7600,54,97,141448
1.0899,0.3030,36.7600,54,97,141451
1.0997,0.3079,36.6700,54,97,141455
1.0997,0.3030,36.7000,54,97,141458
1.1339,0.3030,36.7000,54,97,141461
1.1290,0.3079,36.7600,54,97,141464
1.1584,0.3030,36.7600,54,97,141468
1.2219,0.3128,36.6400,54,97,141471
1.2023,0.3079,36.7600,54,97,141474
1.2512,0.3128,36.5800,54,97,141478
1.2708,0.3079,36.6400,54,97,141481
1.3148,0.2981,36.7600,54,97,141485
1.3392,0.3372,36.6700,54,97,141489
1.3539,0.3079,36.7600,54,97,141492
1.4076,0.3128,36.4300,54,97,141495
1.4027,0.3030,36.6400,54,97,141499
1.4272,0.3030,36.7900,54,97,141502
1.4858,0.2981,36.7300,54,97,141505
1.4614,0.3030,36.7600,54,97,141508
1.5396,0.3275,36.4600,54,97,141512
1.5249,0.3079,36.7000,54,97,141515
1.5543,0.2981,36.6700,54,97,141518
1.5689,0.2981,36.7300,54,97,141522
1.5885,0.3030,36.6700,54,97,141526
1.6764,0.3177,36.6100,54,97,141529
1.6276,0.3079,36.7600,54,97,141533
1.6569,0.2981,36.6100,54,97,141536
1.6569,0.3079,36.7300,54,97,141539
1.6813,0.3030,36.7600,54,97,141543
1.7253,0.3177,36.5800,54,97,141546
1.7155,0.3079,36.7600,54,97,141549
1.7595,0.3079,36.7600,54,97,141553
1.7546,0.2933,36.7000,54,97,141556
1.7840,0.3030,36.7600,54,97,141559
1.8133,0.3079,36.5800,54,97,141562
1.8280,0.3079,36.7300,54,97,141566
1.8524,0.3128,36.5500,54,97,141570
1.8328,0.2981,36.7000,54,97,141573
1.8524,0.3030,36.7600,54,97,141577
1.8768,0.3275,36.7000,54,97,141580
1.8768,0.3030,36.7600,54,97,141583
1.9355,0.3079,36.5200,54,97,141587
1.9013,0.3030,36.7300,54,97,141590
1.9257,0.3030,36.8800,54,97,141593
1.9501,0.3079,36.7300,54,97,141597
1.9697,0.3030,36.6700,54,97,141600
2.0479,0.3519,36.4600,54,97,141603
2.0332,0.3128,36.6700,54,97,141607
2.0430,0.3030,36.7000,54,97,141611
2.0626,0.3128,36.7300,54,97,141614
2.0821,0.3030,36.7300,54,97,141617
2.1652,0.3177,36.5800,54,97,141621
2.1848,0.3128,36.7000,54,97,141624
2.1896,0.3079,36.6400,54,97,141627
2.1994,0.3079,36.7600,54,97,141631
2.2434,0.2884,36.7300,54,97,141634
2.3118,0.3079,36.6100,54,97,141637
2.3314,0.2884,36.7300,54,97,141641
2.3949,0.3128,35.9000,54,97,141644
2.3754,0.2981,36.7300,54,97,141647
2.4194,0.3030,36.7300,54,97,141651
2.4633,0.3128,36.7000,54,97,141655
2.4829,0.2981,36.8200,54,97,141658
2.5464,0.3177,36.5800,54,97,141661
2.5367,0.3079,36.6700,54,97,141665
2.5660,0.2981,36.7600,54,97,141668
2.6002,0.3128,36.6700,54,97,141671
2.5904,0.3030,36.7300,54,97,141675
2.6540,0.3128,36.4600,54,97,141678
2.6149,0.3079,36.6700,54,97,141681
2.5709,0.3030,36.7600,54,97,141685
2.5415,0.3079,36.7600,54,97,141688
2.4633,0.3128,36.7300,54,97,141691
2.4536,0.3177,36.4300,54,97,141696
2.3167,0.3128,36.6400,54,97,141699
2.2190,0.2981,36.7300,54,97,141702
2.1114,0.3079,36.7300,54,97,141706
1.9941,0.3079,36.7600,54,97,141709
1.9257,0.3079,36.5800,54,97,141712
1.7937,0.3079,36.7000,54,97,141715
1.6716,0.3030,36.6700,54,97,141719
1.5591,0.3079,36.7600,54,97,141722
1.4712,0.3030,36.7600,54,97,141725
1.4174,0.3177,36.6400,54,97,141729
1.3392,0.3079,36.7000,54,97,141732
1.2805,0.3128,36.5800,54,97,141735
1.2121,0.3079,36.7600,54,97,141740
1.1730,0.3030,36.7900,54,97,141743
1.1584,0.3128,36.5800,54,97,141746
