ecg,gsr,temp,hr,spo2,timest
1.9306,0.2297,39.3200,86,97,309236
2.1896,0.2297,39.4400,86,97,309239
2.2385,0.3030,39.3800,86,97,309243
1.9892,0.3324,39.5100,86,97,309246
1.7546,0.3128,39.4800,86,97,309250
1.7840,0.2688,39.4800,86,97,309254
1.9990,0.2102,39.4800,86,97,309257
2.2972,0.2493,39.4100,86,97,309260
2.2776,0.3030,39.4800,86,97,309264
2.0283,0.3324,39.6000,86,97,309267
1.8475,0.3128,39.4400,86,97,309270
1.8182,0.2542,39.5400,86,97,309273
2.1017,0.2102,39.3200,86,97,309277
2.3069,0.2444,39.4800,86,97,309280
2.2776,0.3079,39.4800,86,97,309283
2.0332,0.3421,39.4400,86,97,309287
1.7937,0.3030,39.4800,86,97,309291
1.8671,0.2590,39.2500,86,97,309294
2.1310,0.2199,39.4100,86,97,309298
2.2972,0.2590,39.5100,86,97,309301
2.2287,0.3226,39.4100,86,97,309304
1.9306,0.3275,39.5100,86,97,309308
1.7644,0.3079,39.2800,86,97,309311
1.7791,0.2639,39.3200,86,97,309314
2.0039,0.2151,39.4400,86,97,309318
2.1994,0.2590,39.4800,86,97,309321
2.0626,0.3177,39.5100,86,97,309324
1.8035,0.3470,39.3500,86,97,309327
1.5787,0.2884,39.4800,86,97,309331
1.6471,0.2395,39.4100,86,97,309335
1.8817,0.2102,39.5100,86,97,309338
2.0381,0.2639,39.5100,86,97,309342
1.9257,0.3275,39.4100,86,97,309345
1.6227,0.3275,39.4800,86,97,309348
1.5005,0.2981,39.3800,86,97,309352
1.5689,0.2297,39.0000,86,97,309355
1.8377,0.2151,39.5100,86,97,309358
2.0186,0.2884,39.3800,86,97,309362
1.8328,0.3226,39.5100,86,97,309365
1.5738,0.3275,39.3800,86,97,309368
1.4321,0.2786,39.4400,86,97,309371
1.5982,0.2199,39.5100,86,97,309376
1.8768,0.2248,39.3500,86,97,309379
1.9795,0.2786,39.5100,86,97,309382
1.8426,0.3324,39.2800,86,97,309386
1.5494,0.3324,39.4100,86,97,309389
1.4516,0.2835,39.4800,86,97,309392
1.6325,0.2248,39.4400,86,97,309396
1.9013,0.2199,39.4800,86,97,309399
2.0528,0.2981,39.1600,86,97,309402
1.8035,0.3275,39.4400,86,97,309406
1.5494,0.3177,39.4100,86,97,309409
1.5152,0.2737,39.5100,86,97,309412
1.6813,0.2151,39.5100,86,97,309416
2.0039,0.2444,39.3200,86,97,309420
2.0332,0.3128,39.4800,86,97,309423
1.8084,0.3324,39.4100,86,97,309426
1.5494,0.3275,39.4800,86,97,309430
1.5445,0.2639,39.5100,86,97,309433
1.7595,0.2199,39.3200,86,97,309436
2.0039,0.2395,39.5700,86,97,309440
2.0479,0.3079,39.3500,86,97,309443
1.7840,0.3324,39.5100,86,97,309446
1.5543,0.3128,39.4800,86,97,309450
1.5738,0.2884,39.3500,86,97,309453
1.7889,0.2053,39.5700,86,97,309456
2.0723,0.2395,39.3800,86,97,309460
2.0430,0.3079,39.4800,86,97,309464
1.7889,0.3324,39.4800,86,97,309467
1.5738,0.3128,39.4400,86,97,309470
1.5934,0.2493,39.4800,86,97,309474
1.8768,0.2151,39.3800,86,97,309477
2.0870,0.2542,39.4800,86,97,309480
2.0528,0.3128,39.5100,86,97,309484
1.8084,0.3421,39.4100,86,97,309487
1.5836,0.3030,39.5100,86,97,309490
1.6813,0.2542,39.2200,86,97,309494
1.9159,0.2151,39.4100,86,97,309497
2.1163,0.2542,39.4800,86,97,309500
2.0577,0.3226,39.4400,86,97,309505
1.7644,0.3372,39.5100,86,97,309508
1.6276,0.3177,39.3500,86,97,309511
1.6911,0.2444,39.3800,86,97,309515
1.9453,0.2346,39.4100,86,97,309518
2.1261,0.2688,39.4800,86,97,309521
2.0186,0.3079,39.5400,86,97,309524
1.7742,0.3372,39.3800,86,97,309528
1.5885,0.2884,39.4800,86,97,309531
1.7155,0.2395,39.3800,86,97,309534
1.9648,0.2151,39.5100,86,97,309538
2.1359,0.2737,39.4800,86,97,309541
1.9990,0.3226,38.8700,86,97,309544
1.7107,0.3372,39.4800,86,97,309549
1.6031,0.2884,39.3800,86,97,309552
1.7107,0.2346,39.5100,86,97,309555
1.9892,0.2248,39.4800,86,97,309559
2.1505,0.2835,39.3800,86,97,309562
1.9648,0.3275,39.5100,86,97,309565
1.6960,0.3324,39.3800,86,97,309569
1.5836,0.2884,39.7300,86,97,309572
1.7351,0.2297,39.5100,86,97,309575
2.0381,0.2297,39.4400,86,97,309579
2.1114,0.2835,39.5100,86,97,309582
1.9648,0.3470,39.2200,86,97,309585
1.6667,0.3226,39.4800,86,97,309588
1.5934,0.2688,39.8600,86,97,309593
1.7937,0.2248,39.4800,86,97,309596
2.0772,0.2248,39.5100,86,97,309599
2.2239,0.3079,39.3200,86,97,309603
1.9550,0.3226,39.4400,86,97,309606
1.7107,0.3177,39.4100,86,97,309609
1.6764,0.2688,39.6000,86,97,309613
1.9013,0.2151,39.5100,86,97,309616
2.2239,0.2444,39.3800,86,97,309619
2.2483,0.3030,39.4800,86,97,309623
2.0381,0.3470,39.3500,86,97,309626
1.7840,0.3128,39.5100,86,97,309629
1.7742,0.2590,39.5100,86,97,309633
2.0332,0.2199,38.4900,86,97,309637
1.7693,0.2639,39.3800,86,97,309642
1.9795,0.2102,39.4800,86,97,309645
2.2287,0.2590,39.2200,86,97,309648
2.1114,0.3177,39.4400,86,97,309651
1.7986,0.3275,39.3500,86,97,309655
1.5934,0.2884,39.4800,86,97,309658
1.6178,0.2444,39.5400,86,97,309661
1.8768,0.2248,39.2200,86,97,309665
2.0283,0.2590,39.5100,86,97,309668
1.9355,0.3128,39.4800,86,97,309671
1.6569,0.3324,39.5100,86,97,309676
1.4712,0.2933,39.5100,86,97,309679
1.5836,0.2493,39.3500,86,97,309682
1.8231,0.2199,39.4400,86,97,309686
2.0088,0.2639,39.4100,86,97,309689
1.8817,0.3226,39.4400,86,97,309692
1.6080,0.3324,39.5700,86,97,309696
1.4858,0.3030,39.3200,86,97,309699
1.5836,0.2346,39.4800,86,97,309702
1.8817,0.2199,39.4400,86,97,309705
2.0137,0.2786,39.5100,86,97,309709
1.8768,0.3226,39.4800,86,97,309712
1.6227,0.3324,39.4100,86,97,309715
1.5005,0.2884,39.5100,86,97,309720
1.7204,0.2297,39.3500,86,97,309723
2.0723,0.1906,39.4100,86,97,309726
2.3460,0.2786,39.4100,86,97,309730
2.3558,0.3324,39.3800,86,97,309733
2.2287,0.3275,39.4800,86,97,309736
2.3069,0.2933,39.2500,86,97,309740
2.4731,0.2102,39.4800,86,97,309743
2.7028,0.2199,39.5100,86,97,309746
2.6833,0.2884,39.4400,86,97,309749
2.3216,0.3324,39.4800,86,97,309753
1.8915,0.3372,39.2200,86,97,309756
1.6129,0.2786,39.3800,86,97,309760
1.6325,0.2248,39.4800,86,97,309764
1.7986,0.2297,39.4800,86,97,309767
1.8133,0.2884,39.5700,86,97,309770
1.6520,0.3519,39.3200,86,97,309774
1.3881,0.3275,39.3800,86,97,309777
1.3441,0.2737,39.3800,86,97,309780
1.5347,0.2102,39.4800,86,97,309784
1.8133,0.2297,39.5100,86,97,309787
1.8915,0.3128,39.3200,86,97,309790
1.6373,0.3324,39.4800,86,97,309794
1.4370,0.3128,39.3500,86,97,309797
1.4223,0.2590,39.5100,86,97,309800
1.6520,0.2102,39.4800,86,97,309805
1.9208,0.2444,39.4800,86,97,309808
1.9355,0.3079,39.4800,86,97,309811
1.7009,0.3372,39.4400,86,97,309814
1.4761,0.2981,39.4800,86,97,309818
1.4907,0.2444,39.5100,86,97,309821
1.7546,0.2151,39.4400,86,97,309824
1.9746,0.2493,39.4800,86,97,309828
1.9795,0.3226,39.2800,86,97,309831
1.6911,0.3568,39.4100,86,97,309834
1.4858,0.3030,39.4800,86,97,309838
1.5591,0.2493,39.3200,86,97,309841
1.8035,0.2102,39.5100,86,97,309844
2.0772,0.2688,39.1900,86,97,309849
1.9648,0.3226,39.3500,86,97,309852
1.6813,0.3226,39.4800,86,97,309855
1.5103,0.3030,39.5100,86,97,309859
1.5885,0.2297,39.4800,86,97,309862
1.9159,0.2297,39.3200,86,97,309865
2.0723,0.2639,39.5100,86,97,309868
1.9795,0.3177,39.4100,86,97,309872
1.6960,0.3275,39.5100,86,97,309875
1.5445,0.2884,39.4800,86,97,309878
1.6862,0.2297,39.4400,86,97,309882
1.9453,0.2199,39.4800,86,97,309885
2.1408,0.2786,39.3800,86,97,309889
1.9746,0.3079,39.5100,86,97,309893
1.7058,0.3275,39.4800,86,97,309896
1.6080,0.2688,39.3800,86,97,309899
1.7302,0.2297,39.4800,86,97,309903
2.0381,0.2151,39.3200,86,97,309906
2.1554,0.2786,39.4100,86,97,309909
1.9892,0.3226,39.5100,86,97,309912
1.7595,0.3421,39.3500,86,97,309916
1.6227,0.2688,39.4800,86,97,309919
1.8280,0.2346,39.2800,86,97,309922
2.0968,0.2248,39.4800,86,97,309926
2.1945,0.2786,39.5400,86,97,309929
2.0283,0.3324,39.4400,86,97,309933
1.7644,0.3226,39.5100,86,97,309937
1.7449,0.2981,39.2200,86,97,309940
1.9062,0.2199,39.4800,86,97,309943
2.1896,0.2199,39.5100,86,97,309947
2.2678,0.2933,39.5100,86,97,309950
2.0528,0.3275,39.5100,86,97,309953
1.8573,0.3519,39.3200,86,97,309957
1.7840,0.2737,39.4800,86,97,309960
1.9941,0.2151,39.4100,86,97,309963
2.2581,0.2297,39.3800,86,97,309967
2.2874,0.2884,39.5700,86,97,309970
2.0919,0.3519,39.3200,86,97,309974
1.8182,0.3128,39.4400,86,97,309977
1.8280,0.2590,39.3500,86,97,309981
2.0283,0.2151,39.4800,86,97,309984
2.2776,0.2395,39.4800,86,97,309987
2.2972,0.3177,39.4100,86,97,309991
2.0039,0.3275,39.4800,86,97,309994
1.7937,0.3128,39.3800,86,97,309997
1.7644,0.2493,39.4100,86,97,310001
1.9892,0.2199,39.5100,86,97,310004
2.2190,0.2542,39.4400,86,97,310007
2.1505,0.3128,39.5100,86,97,310010
1.8964,0.3372,39.4100,86,97,310014
1.6373,0.3030,39.4800,86,97,310018
1.6520,0.2444,39.5100,86,97,310021
1.8964,0.2248,39.4400,86,97,310025
2.0772,0.2542,39.6000,86,97,310028
2.0430,0.3568,39.3200,86,97,310031
1.7302,0.3372,39.4100,86,97,310035
1.5005,0.2981,39.5100,86,97,310038
1.5591,0.2395,39.4400,86,97,310041
1.7937,0.2102,39.4800,86,97,310045
2.0577,0.2786,39.2200,86,97,310048
1.9159,0.3568,39.4100,86,97,310051
1.6373,0.3275,39.4400,86,97,310054
1.4565,0.2981,38.8400,86,97,310059
1.5445,0.2346,39.5400,86,97,310062
1.8524,0.2248,39.3500,86,97,310065
1.9990,0.2737,39.4800,86,97,310069
1.8915,0.3226,39.3800,86,97,310072
1.5982,0.3372,39.5400,86,97,310075
1.4516,0.2884,39.6000,86,97,310079
1.5885,0.2395,39.4100,86,97,310082
1.8524,0.2444,39.4400,86,97,310085
2.0332,0.2835,39.3800,86,97,310089
1.8573,0.3226,39.5700,86,97,310092
1.5934,0.3275,39.4400,86,97,310095
1.4956,0.2981,39.3200,86,97,310099
1.6227,0.2199,39.4800,86,97,310103
1.9208,0.2199,39.3200,86,97,310106
2.0332,0.2786,39.4100,86,97,310109
1.8475,0.3275,39.5100,86,97,310113
1.6031,0.3372,39.3800,86,97,310116
1.4956,0.2786,39.4800,86,97,310119
1.7058,0.2346,39.2500,86,97,310123
1.9599,0.2248,39.4100,86,97,310126
2.0430,0.2835,39.5100,86,97,310129
1.8475,0.3324,39.4800,86,97,310133
1.5934,0.3177,39.4800,86,97,310136
1.5640,0.2884,39.2500,86,97,310139
1.7204,0.2444,39.4400,86,97,310144
1.9941,0.2151,39.5100,86,97,310147
2.0577,0.2688,39.4800,86,97,310150
1.8280,0.3715,39.5100,86,97,310154
1.6276,0.3324,39.3500,86,97,310157
1.5689,0.2688,39.4800,86,97,310160
1.7840,0.2151,39.3800,86,97,310163
2.0723,0.2346,39.5100,86,97,310167
2.0626,0.2981,39.5100,86,97,310170
1.8573,0.3470,39.3200,86,97,310173
1.5885,0.3079,39.5400,86,97,310177
1.5982,0.2639,39.3200,86,97,310180
1.8084,0.2102,39.4400,86,97,310183
2.0626,0.2688,39.4800,86,97,310188
2.0772,0.3079,39.3800,86,97,310191
1.8035,0.3324,39.5100,86,97,310194
1.6129,0.3128,39.3500,86,97,310198
1.6129,0.2493,39.5400,86,97,310201
1.8573,0.2102,39.4400,86,97,310204
2.0968,0.2542,39.4100,86,97,310208
2.0332,0.3128,39.5100,86,97,310211
1.8035,0.3421,39.2800,86,97,310214
1.5640,0.2981,39.4800,86,97,310217
1.6178,0.2444,39.5100,86,97,310221
1.8915,0.2199,39.4400,86,97,310224
2.0919,0.2639,39.5700,86,97,310227
2.0626,0.3275,39.1900,86,97,310232
1.7546,0.3372,39.2200,86,97,310235
1.5591,0.3226,39.4800,86,97,310238
1.6471,0.2395,39.4800,86,97,310242
1.9110,0.2102,39.5700,86,97,310245
2.1554,0.2786,39.3200,85,97,310248
1.9648,0.2248,39.5400,85,97,310253
2.0919,0.2737,39.5700,85,97,310256
1.9844,0.3324,39.4100,85,97,310260
1.6716,0.3275,39.4800,85,97,310263
1.5591,0.2835,39.5100,85,97,310266
1.7107,0.2297,39.4400,85,97,310270
1.9990,0.2199,39.5100,85,97,310274
2.1603,0.2835,39.3200,85,97,310277
1.9550,0.3275,39.5100,85,97,310280
1.6960,0.3226,39.5100,85,97,310284
1.6471,0.2884,39.4100,85,97,310287
1.8084,0.2199,39.4800,85,97,310290
2.1457,0.2346,39.2500,85,97,310294
2.2287,0.2981,39.3800,85,97,310297
2.0235,0.3324,39.5100,85,97,310300
1.7889,0.3275,39.4800,85,97,310304
1.7253,0.2737,39.4800,85,97,310307
1.9844,0.2346,39.2200,85,97,310310
2.2336,0.2395,39.3800,85,97,310315
2.2630,0.2933,39.4100,85,97,310318
2.0283,0.3324,39.4800,85,97,310321
1.7693,0.3177,38.7400,85,97,310325
1.7693,0.2835,39.3800,85,97,310328
1.9355,0.2102,39.5100,85,97,310331
2.1896,0.2346,39.4400,85,97,310334
2.1554,0.3030,39.6000,85,97,310338
1.8768,0.3275,39.5400,85,97,310341
1.6325,0.3079,39.5400,85,97,310344
1.5787,0.2590,39.4400,85,97,310348
1.8035,0.2151,39.3500,85,97,310351
2.0039,0.2444,39.5100,85,97,310354
1.9746,0.3079,39.5100,85,97,310359
1.7351,0.3470,39.3500,85,97,310362
1.4858,0.3079,39.5100,85,97,310365
1.5200,0.2493,39.3200,85,97,310369
1.7449,0.2102,39.4100,85,97,310372
1.9697,0.2493,38.6500,85,97,310375
1.9453,0.3275,39.3800,85,97,310378
1.6569,0.3324,39.4800,85,97,310382
1.5005,0.3128,39.2800,85,97,310385
1.5200,0.2444,39.4400,85,97,310388
1.7693,0.2102,39.4800,85,97,310392
1.9892,0.2639,39.6400,85,97,310395
1.9404,0.3177,39.4800,85,97,310398
1.6764,0.3470,39.1200,85,97,310403
1.4663,0.2884,39.4400,85,97,310406
1.5543,0.2297,39.4800,85,97,310409
1.8622,0.2151,39.5100,85,97,310413
2.1310,0.2835,39.4800,85,97,310416
2.1945,0.3372,39.3500,85,97,310419
2.0283,0.3324,39.4800,85,97,310423
2.0479,0.2933,39.5700,85,97,310426
2.2923,0.2297,39.4800,85,97,310429
2.6246,0.2151,39.5400,85,97,310432
2.8055,0.2835,39.3800,85,97,310436
2.5220,0.3275,39.4800,85,97,310439
2.1114,0.3324,39.4800,85,97,310443
1.7791,0.2933,39.4800,85,97,310447
1.7546,0.2199,39.5100,85,97,310450
1.9013,0.2199,39.3800,85,97,310453
1.8915,0.2786,39.5100,85,97,310457
1.6813,0.3372,39.3500,85,97,310460
1.3636,0.3226,39.5400,85,97,310463
1.2463,0.2835,39.5100,85,97,310467
1.4370,0.2102,39.4100,85,97,310470
1.7253,0.1906,39.4800,85,97,310473
1.8817,0.2933,39.2800,85,97,310476
1.6813,0.3226,39.4800,85,97,310480
1.4370,0.3275,39.6000,85,97,310483
1.3881,0.2835,39.4800,85,97,310487
1.5738,0.2199,39.4800,85,97,310491
1.9013,0.2346,39.1900,85,97,310494
1.9501,0.3324,39.4100,85,97,310497
1.7400,0.3226,39.4800,85,97,310501
1.5005,0.3324,39.4400,85,97,310504
1.4565,0.2786,39.5100,85,97,310507
1.7107,0.2102,39.3200,85,97,310511
1.9550,0.2395,39.4400,85,97,310514
1.9892,0.2981,39.3800,85,97,310517
1.7546,0.3275,39.4800,85,97,310521
1.5200,0.3128,39.4800,85,97,310524
1.5347,0.3128,39.3500,85,97,310528
1.7693,0.2102,39.4800,85,97,310531
2.0186,0.2395,39.3500,85,97,310535
1.9990,0.3079,39.4800,85,97,310538
1.7498,0.3324,39.4800,85,97,310541
1.5445,0.3079,39.5400,85,97,310545
1.5543,0.2542,39.5700,85,97,310548
1.8280,0.2102,39.3500,85,97,310551
2.0430,0.2395,39.4800,85,97,310555
2.0283,0.3177,39.5100,85,97,310558
1.7889,0.3421,39.4100,85,97,310561
1.5689,0.3030,39.4800,85,97,310565
1.6471,0.2493,39.7000,85,97,310568
1.8915,0.2151,39.3800,85,97,310572
2.1065,0.2590,39.5400,85,97,310576
2.0772,0.3275,39.4100,85,97,310579
1.7791,0.3324,39.5100,85,97,310582
1.6422,0.3128,39.2500,85,97,310585
1.6764,0.2395,39.3800,85,97,310589
1.9404,0.2151,39.4100,85,97,310592
2.1505,0.2688,39.4800,85,97,310595
2.0528,0.3177,39.4800,85,97,310599
1.8328,0.3617,39.2500,85,97,310602
1.6325,0.2981,39.4400,85,97,310605
1.7400,0.2346,39.3800,85,97,310609
2.0186,0.2151,38.6800,85,97,310612
2.1994,0.2737,39.4800,85,97,310616
2.1114,0.3324,39.4100,85,97,310620
1.8182,0.3324,39.4400,85,97,310623
1.7058,0.2688,39.4400,85,97,310626
1.8231,0.2297,39.4800,85,97,310630
2.1114,0.2199,39.4800,85,97,310633
2.3021,0.2786,39.3800,85,97,310636
2.1114,0.3275,39.4800,85,97,310639
1.8719,0.3324,39.3800,85,97,310643
1.7302,0.2835,39.5100,85,97,310646
1.8915,0.2248,39.5400,85,97,310649
2.1945,0.2248,39.3800,85,97,310653
2.3069,0.2786,39.5100,85,97,310657
2.1212,0.3324,39.3800,85,97,310660
1.8231,0.3275,39.4100,85,97,310664
1.7351,0.2786,39.5100,85,97,310667
1.9306,0.2248,39.5100,85,97,310670
2.1945,0.2248,39.5100,85,97,310674
2.3656,0.2981,39.2500,85,97,310677
2.0626,0.3275,39.4800,85,97,310680
1.8231,0.3177,39.5100,85,97,310684
1.7351,0.2737,39.5700,85,97,310687
1.9208,0.2248,39.4800,85,97,310690
2.2336,0.2590,39.2500,85,97,310693
2.2190,0.3030,39.4400,85,97,310697
1.9550,0.3275,39.7000,85,97,310701
1.6862,0.3177,39.4800,85,97,310704
1.6276,0.2639,39.5100,85,97,310708
1.8671,0.2199,39.3500,85,97,310711
2.0870,0.2444,39.5100,85,97,310714
2.0870,0.3030,39.3800,85,97,310718
1.8084,0.3324,39.5100,85,97,310721
1.5591,0.3079,39.5400,85,97,310724
1.5640,0.2639,39.4100,85,97,310728
1.7595,0.2151,39.4800,85,97,310731
2.0235,0.2493,39.3800,85,97,310734
1.9648,0.3079,39.4800,85,97,310737
1.6960,0.3324,39.5100,85,97,310742
1.4858,0.3079,39.6400,85,97,310745
1.5054,0.2493,39.5100,85,97,310748
1.7742,0.2151,39.3500,85,97,310752
1.9844,0.2542,39.5100,85,97,310755
1.9306,0.3079,39.6700,85,97,310758
1.6862,0.3519,39.4400,85,97,310762
1.4663,0.2981,39.5400,85,97,310765
1.5591,0.2639,39.2500,85,97,310768
1.8328,0.2248,39.4400,85,97,310772
2.0039,0.2590,39.5100,85,97,310775
1.9355,0.3226,39.4400,85,97,310778
1.6618,0.3324,39.5100,85,97,310782
1.5249,0.3177,39.2500,85,97,310786
1.5934,0.2395,39.4100,85,97,310789
1.8475,0.2102,39.4400,85,97,310792
2.0332,0.2688,39.5100,85,97,310796
1.9257,0.3226,39.4800,85,97,310799
1.6862,0.3470,39.3500,85,97,310802
1.5152,0.2933,39.5700,85,97,310806
1.6422,0.2346,39.3500,85,97,310809
1.9062,0.2151,39.4100,85,97,310812
2.0723,0.2737,39.5400,85,97,310816
1.9501,0.3324,39.6700,85,97,310819
1.6618,0.3275,39.4800,85,97,310822
1.5543,0.2981,39.3800,85,97,310827
1.6764,0.2199,39.4800,85,97,310830
1.9453,0.2102,39.4800,85,97,310833
2.1017,0.2884,38.8700,85,97,310837
1.8964,0.3275,39.4800,85,97,310840
1.6471,0.3324,39.3500,85,97,310843
1.5445,0.2835,39.3800,85,97,310846
1.7009,0.2151,39.5100,85,97,310850
2.0039,0.2248,39.3500,85,97,310853
2.0772,0.2884,39.0600,85,97,310856
1.9159,0.3324,39.2800,85,97,310860
2.1359,0.3128,39.3200,85,98,310864
1.8671,0.3568,39.3800,85,98,310868
1.6227,0.3128,39.4100,85,98,310872
1.5885,0.2639,39.4400,85,98,310875
1.8280,0.2151,39.5100,85,98,310879
2.1017,0.2542,39.4400,85,98,310882
2.0870,0.3079,39.4800,85,98,310885
1.8475,0.3372,39.3800,85,98,310889
1.5982,0.3128,39.5100,85,98,310892
1.5982,0.2542,39.4800,85,98,310895
1.8573,0.2248,39.3800,85,98,310899
2.0772,0.2444,39.5100,85,98,310902
2.0821,0.3177,39.3800,85,98,310905
1.7889,0.3324,39.3800,85,98,310908
1.5738,0.3079,39.5100,85,98,310913
1.6227,0.2493,39.3800,85,98,310916
1.8573,0.2102,39.4100,85,98,310919
2.1114,0.2590,39.2500,85,98,310923
2.0235,0.3177,39.4800,85,98,310926
1.7498,0.3324,39.5700,85,98,310929
1.5787,0.3030,39.4100,85,98,310933
1.6227,0.2493,39.5400,85,98,310936
1.9306,0.2297,39.2500,85,98,310939
2.1065,0.2590,39.4100,85,98,310943
2.0283,0.3177,39.5100,85,98,310946
1.7693,0.3372,39.4800,85,98,310949
1.5982,0.3030,39.5100,85,98,310952
1.7449,0.2493,39.2500,85,98,310957
2.0235,0.2151,39.4400,85,98,310960
2.1799,0.2590,39.4400,85,98,310963
2.0870,0.3177,39.4800,85,98,310967
1.8280,0.3275,39.5100,85,98,310970
1.7302,0.3030,39.6400,85,98,310973
1.8475,0.2444,39.4400,85,98,310977
2.1408,0.2297,39.3800,85,98,310980
2.2727,0.2737,39.4800,85,98,310983
2.1261,0.3226,39.5100,85,98,310987
1.8622,0.3372,39.3800,85,98,310990
1.7155,0.2884,39.3200,85,98,310993
1.8719,0.2639,39.3800,85,98,310998
2.1114,0.2199,39.5100,85,98,311001
2.2336,0.2786,39.5100,85,98,311004
2.0430,0.3372,39.3800,85,98,311007
1.7644,0.3324,39.5100,85,98,311011
1.6178,0.2835,39.4100,85,98,311014
1.7204,0.2199,39.4800,85,98,311017
1.9599,0.2151,39.4800,85,98,311021
2.0479,0.2981,39.4100,85,98,311024
1.8133,0.3275,39.4800,85,98,311027
1.5689,0.3079,39.2500,85,98,311031
1.4712,0.2786,39.6700,85,98,311034
1.6325,0.2199,39.4800,85,98,311037
1.9062,0.2346,39.4400,85,98,311042
1.9501,0.2933,39.5100,85,98,311045
1.7791,0.3470,39.2200,85,98,311048
1.4907,0.3226,39.3500,85,98,311052
1.4370,0.2639,39.5400,85,98,311055
1.6520,0.2199,39.5100,85,98,311058
1.9110,0.2444,39.4800,85,98,311061
1.9990,0.3177,39.3500,85,98,311065
1.7302,0.3324,39.4100,85,98,311068
1.4907,0.3128,39.3800,85,98,311071
1.4663,0.2590,39.5400,85,98,311075
1.6960,0.2053,39.4800,85,98,311078
1.9941,0.2542,39.4400,85,98,311081
2.0332,0.3128,39.5100,85,98,311086
1.9013,0.3372,39.3800,85,98,311089
1.7937,0.3079,39.4800,85,98,311092
1.9892,0.2493,39.7000,85,98,311096
2.4291,0.2199,39.5100,85,98,311099
2.7419,0.2737,39.4800,85,98,311102
2.7713,0.3177,39.3200,85,98,311105
2.4096,0.3372,39.3500,85,98,311109
2.0723,0.3030,39.5100,85,98,311112
1.9599,0.2493,39.3200,85,98,311115
2.0186,0.2102,39.5100,85,98,311119
2.1261,0.2639,39.2800,85,98,311122
1.8866,0.3177,39.4800,85,98,311126
1.5445,0.3275,39.4100,85,98,311130
1.3196,0.3030,39.4400,85,98,311133
1.3343,0.2346,39.4800,85,98,311136
1.6618,0.2248,39.2200,85,98,311140
1.8133,0.2688,39.3500,85,98,311143
1.7351,0.3128,39.4800,85,98,311146
1.4761,0.3324,39.7000,85,98,311150
1.3294,0.2884,39.4800,85,98,311153
1.4858,0.2493,39.3500,85,98,311156
1.7351,0.2199,39.4400,85,98,311159
1.9257,0.2688,39.3500,85,98,311163
1.7986,0.3226,39.4800,85,98,311166
1.5347,0.3666,39.5100,85,98,311170
1.4370,0.2981,39.3500,85,98,311174
1.5494,0.2395,39.5100,85,98,311177
1.8475,0.2248,39.3800,85,98,311180
1.9746,0.2688,39.5100,85,98,311184
1.8231,0.3226,38.9600,85,98,311187
1.5738,0.3275,39.4100,85,98,311190
1.4614,0.2835,39.5400,85,98,311194
1.6422,0.2248,39.8000,85,98,311197
1.8964,0.2199,39.4400,85,98,311200
2.0186,0.2835,39.5100,85,98,311204
1.8573,0.3324,39.3800,85,98,311207
1.5787,0.3226,39.5100,85,98,311211
1.5591,0.2786,39.2500,85,98,311214
1.6911,0.2151,39.5100,85,98,311218
1.9697,0.2444,39.5100,85,98,311221
2.0626,0.2981,39.4800,85,98,311224
1.8377,0.3324,39.4800,85,98,311228
1.6325,0.3324,39.2200,85,98,311231
1.5591,0.2981,39.4100,85,98,311234
1.7644,0.2199,39.4800,85,98,311238
2.0430,0.2346,39.4800,85,98,311241
2.0772,0.2981,39.4800,85,98,311244
1.8964,0.3519,39.2800,85,98,311248
1.6276,0.3226,39.4100,85,98,311251
1.6080,0.2639,39.5100,85,98,311255
1.8280,0.2151,39.5100,85,98,311259
2.0870,0.2395,39.4400,85,98,311262
2.1310,0.3128,39.3500,85,98,311265
1.8671,0.3372,39.4400,85,98,311268
1.6618,0.3226,39.3500,85,98,311272
1.6569,0.2542,39.5400,85,98,311275
1.9013,0.2102,39.5400,85,98,311278
2.1652,0.2542,39.4100,85,98,311282
2.1261,0.3128,39.4800,85,98,311285
1.9013,0.3372,39.3800,85,98,311288
1.6716,0.3030,39.6000,85,98,311292
1.7253,0.2444,39.5100,85,98,311296
2.0137,0.2199,38.5500,85,98,311299
2.2239,0.2688,39.5100,85,98,311303
2.2043,0.3275,39.3200,85,98,311306
1.9159,0.3519,39.3800,85,98,311309
1.7253,0.3030,39.5100,85,98,311313
1.8280,0.2493,38.6200,85,98,311316
2.0772,0.2151,39.4100,85,98,311319
2.3363,0.2737,39.2200,85,98,311322
2.1945,0.3226,39.4100,85,98,311326
1.9062,0.3324,39.4800,85,98,311329
1.7449,0.2981,39.4800,85,98,311332
1.8328,0.2297,39.6000,85,98,311336
2.1701,0.2297,39.3500,85,98,311340
2.3021,0.2786,39.4100,85,98,311343
2.1603,0.3226,39.4100,85,98,311347
1.8671,0.3324,39.4100,85,98,311350
1.7204,0.2884,39.5100,85,98,311353
1.8719,0.2395,39.4800,85,98,311357
2.1114,0.2199,39.3200,85,98,311360
2.2727,0.3030,39.3800,85,98,311363
2.0674,0.3079,39.4800,85,98,311367
1.7791,0.3275,39.4800,85,98,311370
1.6716,0.2981,39.3800,85,98,311373
1.7791,0.2297,39.6000,85,98,311376
2.0674,0.2199,39.3800,85,98,311380
2.1310,0.2737,39.4100,85,98,311384
1.9404,0.3275,39.5100,85,98,311387
1.6569,0.3324,39.3800,85,98,311391
1.5543,0.2786,39.4800,85,98,311394
1.7204,0.2297,39.2800,85,98,311397
1.9501,0.2248,39.5100,85,98,311401
2.0235,0.2884,39.5100,85,98,311404
1.8377,0.3372,39.4100,85,98,311407
1.5396,0.3177,39.4800,85,98,311411
1.5103,0.2786,39.2200,85,98,311414
1.6667,0.2151,39.4400,85,98,311417
1.9306,0.2248,39.5400,85,98,311420
1.9941,0.2933,39.4800,85,98,311425
1.7546,0.3324,39.5100,85,98,311428
1.5591,0.3275,39.2800,85,98,311431
1.4956,0.2688,39.4400,85,98,311435
1.7009,0.2102,39.5700,85,98,311438
1.9599,0.2395,39.4800,85,98,311441
1.9746,0.3030,39.4400,85,98,311445
1.7693,0.3470,39.3800,85,98,311448
1.5152,0.3128,39.4800,85,98,311451
1.5249,0.2590,39.6700,85,98,311455
1.7449,0.2151,39.4800,85,98,311458
1.9941,0.2444,39.4800,85,98,311461
2.0039,0.3275,39.4100,85,98,311465
1.7302,0.3324,39.4800,85,98,311469
1.5445,0.3128,39.4100,85,98,311472
1.5543,0.2590,39.2800,85,98,311476
1.5249,0.2933,39.5100,85,98,311480
1.5934,0.2395,39.3500,85,98,311483
1.8768,0.2248,39.4400,85,98,311487
2.0723,0.2493,39.5100,85,98,311490
2.0332,0.3324,39.2800,85,98,311493
1.7302,0.3372,39.4400,85,98,311497
1.5543,0.2884,39.4800,85,98,311500
1.6764,0.2395,39.4800,85,98,311503
1.9355,0.2151,39.5100,85,98,311507
2.1701,0.2884,39.3200,85,98,311511
2.0088,0.3275,39.4400,85,98,311514
1.7204,0.3324,39.4100,85,98,311518
1.5738,0.2933,39.4800,85,98,311521
1.6960,0.2297,39.4800,85,98,311524
2.0088,0.2346,39.3500,85,98,311528
2.1359,0.2737,39.4400,85,98,311531
1.9892,0.3275,39.4400,85,98,311534
1.7302,0.3324,39.5100,85,98,311537
1.5787,0.2884,39.6000,85,98,311541
1.7400,0.2248,39.3800,85,98,311544
2.0088,0.2199,39.4800,85,98,311547
2.1554,0.2835,39.3800,85,98,311552
1.9404,0.3275,39.5100,85,98,311555
1.6667,0.3324,39.5700,85,98,311558
1.5982,0.2884,39.3800,85,98,311562
1.7449,0.2248,39.5400,85,98,311565
2.0577,0.2346,39.2200,85,98,311568
2.1212,0.2933,39.3800,85,98,311572
1.9062,0.3275,39.5100,85,98,311575
1.6618,0.3324,39.4100,85,98,311578
1.5787,0.2737,39.5400,85,98,311581
1.8133,0.2297,39.3200,85,98,311585
2.0479,0.2346,39.3500,85,98,311588
2.0919,0.2933,39.4800,85,98,311591
1.8768,0.3372,39.5700,85,98,311596
1.6129,0.3030,39.4800,85,98,311599
1.6325,0.2884,39.2500,85,98,311602
1.8231,0.2199,39.6400,85,98,311606
2.0919,0.2346,39.3800,85,98,311609
2.1212,0.2981,39.5100,85,98,311612
1.8866,0.3324,39.4800,85,98,311616
1.6911,0.3226,39.3800,85,98,311619
1.6764,0.2590,39.4800,85,98,311622
1.9404,0.2151,39.3800,85,98,311626
2.1799,0.2639,39.5700,85,98,311629
2.1848,0.3128,39.5100,85,98,311632
1.9746,0.3470,39.2500,85,98,311635
1.7449,0.3079,39.4800,85,98,311640
1.8133,0.2542,39.3800,85,98,311643
2.0381,0.2053,39.5100,85,98,311646
2.2678,0.2542,39.5100,85,98,311650
2.2434,0.3226,39.4100,85,98,311653
1.9453,0.3324,39.4800,85,98,311656
1.7791,0.3128,39.2800,85,98,311660
1.7937,0.2444,39.4100,85,98,311663
2.0381,0.2102,39.5400,85,98,311666
2.2581,0.2688,39.4400,85,98,311670
2.1212,0.3226,39.5100,85,98,311673
1.8671,0.3421,39.3500,85,98,311676
1.6422,0.2981,39.4100,85,98,311681
1.6569,0.2346,39.4800,85,98,311684
1.8964,0.2199,39.4400,85,98,311687
2.0479,0.2639,39.4400,85,98,311690
1.9746,0.3470,39.2800,85,98,311694
1.6471,0.3372,39.4400,85,98,311697
1.4761,0.2884,39.4100,85,98,311700
1.5738,0.2346,39.4800,85,98,311704
1.8328,0.2151,39.5100,85,98,311707
2.0235,0.3079,39.3200,85,98,311710
1.8573,0.3275,39.3800,85,98,311714
1.5836,0.3324,39.3800,85,98,311717
1.4467,0.2688,39.5100,85,98,311720
1.5836,0.2297,39.5100,85,98,311725
1.8817,0.2297,39.4100,85,98,311728
1.9941,0.2786,39.4800,85,98,311731
1.8573,0.3372,39.3800,85,98,311735
1.5591,0.3372,39.4800,85,98,311738
1.4663,0.2688,39.5100,85,98,311741
1.6520,0.2297,39.3800,85,98,311744
1.9599,0.2199,39.4800,85,98,311748
2.1799,0.2884,39.2800,85,98,311751
2.0772,0.3079,39.5400,85,98,311754
1.9697,0.3226,39.4400,85,98,311758
2.0919,0.2786,39.4400,85,98,311761
2.4145,0.2199,39.4100,85,98,311764
2.8152,0.2346,39.2500,85,98,311769
2.8104,0.3030,39.4100,85,98,311772
2.4682,0.3324,39.5100,85,98,311775
2.0919,0.3177,39.4400,85,98,311779
1.8231,0.2688,39.4800,85,98,311782
1.9062,0.2346,39.2800,85,98,311785
1.9746,0.2444,39.4100,85,98,311789
1.8719,0.2981,39.4100,85,98,311792
1.5934,0.3372,39.5700,85,98,311795
1.3343,0.3079,39.5100,85,98,311798
1.3832,0.2737,39.4400,85,98,311802
1.5591,0.2199,39.4400,85,98,311805
1.8231,0.2444,39.3800,85,98,311809
1.8182,0.3079,39.5100,85,98,311813
1.5787,0.3324,38.6500,85,98,311816
1.3930,0.3177,39.4800,85,98,311819
1.4370,0.2542,39.4800,85,98,311823
1.6862,0.2199,39.3800,85,98,311826
1.9062,0.2493,39.4100,85,98,311829
1.8866,0.3226,39.4800,85,98,311833
1.6569,0.3421,39.4800,85,98,311836
1.4418,0.3030,39.4800,85,98,311839
1.5054,0.2444,39.2800,85,98,311843
1.7546,0.2151,39.3800,85,98,311846
1.9697,0.2590,39.4800,85,98,311849
1.9306,0.3275,39.3800,85,98,311853
1.6422,0.3324,39.5100,85,98,311857
1.5054,0.3128,39.2500,85,98,311860
1.5591,0.2395,39.8600,85,98,311863
1.8231,0.2151,39.5400,85,98,311867
2.0528,0.2737,39.4800,85,98,311870
1.9208,0.3177,39.4800,85,98,311873
1.7009,0.3470,39.3200,85,98,311877
1.5152,0.2981,39.3800,85,98,311880
1.6129,0.2346,39.4400,85,98,311883
1.8915,0.2151,39.4800,85,98,311887
2.0870,0.2737,39.5100,85,98,311890
1.9795,0.3372,39.3500,85,98,311894
1.6716,0.3324,39.4800,85,98,311898
1.5543,0.2933,39.3800,85,98,311901
1.6764,0.2248,39.4800,85,98,311904
1.9599,0.2151,39.4800,85,98,311907
2.1457,0.2688,39.3500,85,98,311911
1.9550,0.3324,39.4400,85,98,311914
1.6960,0.3372,39.3800,85,98,311917
1.5836,0.2786,39.4800,85,98,311921
1.7498,0.2248,39.5100,85,98,311924
2.0528,0.2248,39.3500,85,98,311927
2.1505,0.2933,39.5100,85,98,311931
1.9844,0.3666,39.3200,85,98,311934
1.6960,0.3226,39.4400,85,98,311938
1.6227,0.2737,39.4400,85,98,311942
1.8377,0.2493,39.3800,85,98,311945
2.1017,0.2248,39.5100,85,98,311948
2.2385,0.3030,39.2500,85,98,311952
1.9795,0.3324,39.4100,85,98,311955
1.7351,0.3177,39.5100,85,98,311958
1.7058,0.2884,39.4400,85,98,311961
1.9110,0.2151,39.4800,85,98,311965
2.2532,0.2493,39.2500,85,98,311968
2.2532,0.3079,39.4100,85,98,311971
2.0137,0.3324,39.4100,85,98,311975
1.7791,0.3177,39.4800,85,98,311979
1.7742,0.2542,39.5100,85,98,311982
2.0528,0.2199,39.3200,85,98,311986
2.2825,0.2444,39.4400,85,98,311989
2.2923,0.3079,39.3500,85,98,311992
2.0137,0.3275,39.4800,85,98,311996
1.7889,0.3079,39.6000,85,98,311999
1.8280,0.2542,39.3200,85,98,312002
2.0577,0.2199,39.5700,85,98,312006
2.3216,0.2590,39.3800,85,98,312009
2.2581,0.3128,39.5100,85,98,312012
1.9892,0.3617,39.5100,85,98,312015
1.7791,0.3079,39.3800,85,98,312019
1.7986,0.2444,39.5400,85,98,312023
2.0577,0.2151,39.3500,85,98,312026
2.2434,0.2542,39.4400,85,98,312030
2.1701,0.3177,39.4800,85,98,312033
1.8915,0.3470,39.3800,85,98,312036
1.6618,0.2981,39.4800,85,98,312040
1.7351,0.2493,39.2800,85,98,312043
1.9501,0.2199,39.3500,85,98,312046
2.1114,0.2590,39.5100,85,98,312050
2.0088,0.3275,39.4400,85,98,312053
1.7009,0.3324,39.5400,85,98,312056
1.5591,0.3079,39.3200,85,98,312059
1.6031,0.2297,39.3500,85,98,312064
1.8475,0.2102,39.5100,85,98,312067
2.0283,0.2688,39.5400,85,98,312070
1.8915,0.3226,39.4800,85,98,312074
1.6618,0.3470,39.3500,85,98,312077
1.4761,0.3030,39.4800,85,98,312080
1.5836,0.2346,39.4100,85,98,312084
1.8426,0.2346,39.5100,85,98,312087
1.6129,0.2248,39.5100,85,98,312092
1.8964,0.2346,39.5100,85,98,312095
2.0479,0.2933,39.3800,85,98,312098
1.8328,0.3324,39.5100,85,98,312102
1.5934,0.3275,39.3200,85,98,312105
1.5005,0.2786,39.4400,85,98,312109
1.6716,0.2151,39.3200,85,98,312113
1.9892,0.2395,39.4400,85,98,312116
2.0332,0.2933,39.5100,85,98,312119
1.8671,0.3421,39.2800,85,98,312122
1.5738,0.3226,39.4100,85,98,312126
1.5249,0.2688,39.5100,85,98,312129
1.7351,0.2199,39.4400,85,98,312132
1.9941,0.2395,39.4800,85,98,312136
2.1017,0.3177,39.3800,85,98,312139
1.8231,0.3421,39.4400,85,98,312142
1.5738,0.3128,39.4100,85,98,312146
1.5543,0.2590,39.4800,85,98,312150
1.7791,0.2102,39.5400,85,98,312153
2.0772,0.2542,39.4100,85,98,312157
2.0577,0.3079,39.4400,85,98,312160
1.8231,0.3324,39.3800,85,98,312163
1.5738,0.3372,39.4800,85,98,312167
1.5836,0.2542,39.5100,85,98,312170
1.8573,0.2199,39.3500,85,98,312173
2.0772,0.2493,39.3500,85,98,312177
2.0772,0.3226,39.3800,85,98,312180
1.7840,0.3275,39.4400,85,98,312183
1.5738,0.3128,39.5100,85,98,312186
1.6422,0.2493,39.4100,85,98,312190
1.8768,0.2102,39.4800,85,98,312194
2.1310,0.2590,39.3200,85,98,312197
2.0430,0.3177,39.4100,85,98,312201
1.7889,0.3275,39.5100,85,98,312204
1.5982,0.3079,39.2500,85,98,312207
1.6520,0.2395,39.5700,85,98,312211
1.9550,0.2199,39.2500,85,98,312214
2.1114,0.2590,39.4100,85,98,312217
2.0235,0.3177,39.0900,85,98,312221
1.7595,0.3421,39.4400,85,98,312224
1.5787,0.2933,39.4800,85,98,312227
1.7204,0.2590,39.2200,85,98,312230
1.9648,0.2199,39.3800,85,98,312235
2.1261,0.2737,39.4800,85,98,312238
2.0039,0.3275,39.4800,85,98,312241
1.7204,0.3324,39.4800,85,98,312245
1.6129,0.3030,39.3500,85,98,312248
1.7107,0.2346,39.4100,85,98,312251
1.9941,0.2395,39.4100,85,98,312255
2.1603,0.2835,39.5100,85,98,312258
1.9844,0.3226,39.6400,85,98,312261
1.7400,0.3372,39.3800,85,98,312265
1.6178,0.2884,39.4800,85,98,312268
1.7937,0.2346,39.3800,85,98,312271
2.0577,0.2199,39.4800,85,98,312275
2.1896,0.2737,39.5100,85,98,312279
2.0332,0.3275,39.4400,85,98,312282
1.7595,0.3568,39.4800,85,98,312285
1.7107,0.2786,39.3200,85,98,312289
1.8768,0.2248,39.4400,85,98,312292
2.1701,0.2395,39.4800,85,98,312295
2.2923,0.2981,39.4400,85,98,312299
2.0821,0.3275,39.4800,85,98,312302
1.8622,0.3275,39.2500,85,98,312305
1.7742,0.2786,39.3800,85,98,312309
1.9501,0.2151,39.6000,85,98,312312
2.2336,0.2444,39.4400,85,98,312315
2.2581,0.2933,39.4800,85,98,312320
2.0772,0.3861,39.2500,85,98,312323
1.7742,0.3226,39.1900,85,98,312326
1.7058,0.2639,39.5400,85,98,312330
1.9013,0.2199,39.4400,85,98,312333
2.1212,0.2346,39.4800,85,98,312336
2.1701,0.3177,39.3500,85,98,312339
1.8426,0.3324,39.4400,85,98,312343
1.5689,0.3128,39.3800,85,98,312346
1.5249,0.2590,39.4800,85,98,312349
1.7302,0.2102,39.5100,85,98,312353
1.9941,0.2542,39.4100,85,98,312356
1.9550,0.3128,39.5700,85,98,312359
1.7107,0.3372,39.3200,85,98,312364
1.4614,0.3079,39.5100,85,98,312367
1.4809,0.2493,39.5400,85,98,312370
1.7449,0.2199,39.3200,85,98,312374
1.9599,0.2639,39.4800,85,98,312377
1.9404,0.3177,39.3500,85,98,312380
1.6569,0.3421,39.4100,85,98,312384
1.4565,0.2981,39.4800,85,98,312387
1.5298,0.2542,39.3200,85,98,312390
1.7693,0.2151,39.5100,85,98,312393
2.0235,0.2737,39.2500,85,98,312397
1.9110,0.3226,39.4100,85,98,312400
1.6471,0.3372,39.5700,85,98,312403
1.5298,0.3030,39.4400,85,98,312408
1.6813,0.2395,39.5400,85,98,312411
2.1310,0.2248,39.3200,85,98,312414
2.4438,0.2737,39.3800,85,98,312418
2.4976,0.3177,39.4800,85,98,312421
2.3705,0.3372,39.4800,85,98,312424
2.3021,0.2933,39.4800,85,98,312428
2.4780,0.2493,39.3500,85,98,312431
2.6246,0.2199,39.5400,85,98,312434
2.6100,0.2688,39.4100,85,98,312437
2.2678,0.3177,39.4800,85,98,312441
1.8182,0.3275,39.6000,85,98,312444
1.5543,0.2884,39.3200,85,98,312448
1.5396,0.2297,39.5400,85,98,312452
1.7449,0.2199,39.3500,85,98,312455
1.8377,0.2786,39.7300,85,98,312458
1.6764,0.3275,39.5400,85,98,312462
1.4370,0.3324,39.4400,85,98,312465
1.3245,0.2981,39.4800,85,98,312468
1.4956,0.2199,39.3800,85,98,312472
1.7449,0.2151,39.4800,85,98,312475
1.8671,0.2884,39.4800,85,98,312478
1.7107,0.3324,39.3500,85,98,312482
1.4418,0.3226,39.4800,85,98,312485
1.4027,0.2786,39.2800,85,98,312488
1.5640,0.2151,39.4800,85,98,312492
1.8426,0.2248,39.5700,85,98,312496
1.9355,0.3030,39.4400,85,98,312499
1.7204,0.3324,39.5100,85,98,312502
1.5152,0.3421,39.2200,85,98,312506
1.4516,0.2737,39.4400,85,98,312509
1.6520,0.2102,39.4800,85,98,312512
1.9257,0.2395,39.5100,85,98,312516
1.9599,0.2981,39.4800,85,98,312519
1.7840,0.3519,38.4300,85,98,312522
1.5249,0.3226,39.3800,85,98,312526
1.5103,0.2590,39.4100,85,98,312529
1.7400,0.2151,39.4400,85,98,312532
1.9990,0.2395,39.5100,85,98,312537
2.0430,0.3177,39.3500,85,98,312540
1.7791,0.3372,39.4800,85,98,312543
1.5689,0.3128,39.3500,85,98,312546
1.5738,0.2542,39.5100,85,98,312550
1.8084,0.2102,39.5100,85,98,312553
2.0674,0.2493,39.5400,85,98,312556
2.0283,0.3226,39.4800,85,98,312560
1.7986,0.3372,39.3800,85,98,312563
1.5836,0.2981,39.4800,85,98,312566
1.6080,0.2444,39.4800,85,98,312570
1.8915,0.2199,39.4400,85,98,312573
2.1017,0.2590,39.5100,85,98,312577
2.0772,0.3226,39.2800,85,98,312581
1.7937,0.3275,39.3800,85,98,312584
1.5982,0.2981,39.4800,85,98,312587
1.7058,0.2493,39.4400,85,98,312591
1.9550,0.2102,39.4800,85,98,312594
2.2092,0.2737,39.2500,85,98,312597
2.0723,0.3324,39.4100,85,98,312600
1.7986,0.3275,39.5100,85,98,312604
1.6520,0.2981,39.3800,85,98,312607
1.7498,0.2346,39.5400,85,98,312610
2.0968,0.2297,39.2500,85,98,312614
2.2483,0.2688,39.4100,85,98,312617
2.1163,0.3226,39.4100,85,98,312621
1.8377,0.3275,39.4800,85,98,312625
1.7155,0.3372,39.5100,85,98,312628
1.8915,0.2395,39.4400,85,98,312631
2.1603,0.2199,39.4400,85,98,312635
2.3216,0.2688,39.3500,85,98,312638
2.1457,0.3177,39.4800,85,98,312641
1.8671,0.3275,39.4100,85,98,312645
1.7937,0.2933,39.3500,85,98,312648
1.9257,0.2297,39.4800,85,98,312651
2.2336,0.2248,39.3800,85,98,312654
2.3118,0.2835,39.5700,85,98,312658
2.1212,0.3421,39.5700,85,98,312662
1.8719,0.3324,39.3500,85,98,312665
1.7693,0.2835,39.5100,85,98,312669
1.9844,0.2248,39.2800,85,98,312672
2.2190,0.2248,39.4100,85,98,312675
2.2825,0.2884,39.5100,85,98,312679
2.0870,0.3470,39.4100,85,98,312682
1.7937,0.3226,39.4800,85,98,312685
1.7498,0.2835,39.2800,85,98,312689
1.8915,0.2053,39.4100,85,98,312692
2.1408,0.2395,39.5700,85,98,312695
2.1701,0.2981,39.4400,85,98,312698
2.0186,0.2444,39.6000,85,98,312704
1.9990,0.3275,39.5100,85,98,312708
1.7693,0.3470,39.3200,85,98,312711
1.5054,0.3079,39.5100,85,98,312714
1.5152,0.2542,39.3800,85,98,312717
1.7498,0.2102,39.5100,85,98,312721
1.9697,0.2542,39.5100,85,98,312724
1.9501,0.3177,39.3800,85,98,312727
1.6716,0.3372,39.4800,85,98,312731
1.4809,0.3079,39.3800,85,98,312734
1.4956,0.2444,39.4800,85,98,312737
1.7595,0.1906,39.5100,85,98,312741
1.9990,0.2639,39.3200,85,98,312744
1.9159,0.3177,39.4800,85,98,312748
1.6813,0.3421,39.2500,85,98,312752
1.4663,0.3275,39.4800,85,98,312755
1.5445,0.2395,39.5100,85,98,312758
1.8280,0.2102,39.4400,85,98,312761
2.0088,0.2639,39.4800,85,98,312765
1.9648,0.3617,39.3200,85,98,312768
1.6618,0.3372,39.3800,85,98,312771
1.4809,0.2933,39.5100,85,98,312775
1.5934,0.2395,39.4400,85,98,312778
1.8475,0.2151,39.4800,85,98,312781
2.0821,0.2884,39.0900,85,98,312785
1.9453,0.3324,39.4400,85,98,312788
1.6325,0.3275,39.4100,85,98,312792
1.4858,0.2884,39.4800,85,98,312796
1.6227,0.2346,39.4800,85,98,312799
1.9355,0.2297,39.4100,85,98,312802
2.0626,0.3079,39.4800,85,98,312806
1.9257,0.3275,39.3800,85,98,312809
1.6325,0.3275,39.4800,85,98,312812
1.5249,0.2835,39.5100,85,98,312816
1.6960,0.2248,39.4100,85,98,312819
1.9648,0.2199,39.4800,85,98,312822
2.1114,0.2835,39.3200,85,98,312825
1.8915,0.3275,38.6500,85,98,312829
1.6276,0.3226,39.4800,85,98,312833
1.5738,0.2884,39.3500,85,98,312836
1.7302,0.2199,39.5400,85,98,312840
2.0430,0.2297,39.2800,85,98,312843
2.0968,0.3030,39.3800,85,98,312846
1.8671,0.3275,39.5100,85,98,312850
1.6325,0.3372,39.4400,85,98,312853
1.5591,0.2688,39.4800,85,98,312856
1.8084,0.2248,39.1900,85,98,312860
2.0479,0.2346,38.6200,85,98,312863
2.0821,0.2933,39.4800,85,98,312866
1.8622,0.3372,39.4800,85,98,312869
1.6080,0.3177,39.4400,85,98,312873
1.6325,0.2835,39.3200,85,98,312877
1.8182,0.2199,39.4400,85,98,312880
2.0674,0.2395,39.4100,85,98,312884
2.0674,0.3030,39.4800,85,98,312887
1.8133,0.3324,39.4800,85,98,312890
1.6178,0.3177,39.3800,85,98,312894
1.6129,0.2590,39.4800,85,98,312897
1.8475,0.2102,39.3500,85,98,312900
2.0723,0.2493,39.4800,85,98,312904
2.0479,0.3128,39.5100,85,98,312907
1.8280,0.3275,39.3500,85,98,312910
1.5836,0.3079,39.5700,85,98,312914
1.6422,0.2542,39.3500,85,98,312918
1.8719,0.2151,39.4400,85,98,312921
2.1114,0.2297,39.4800,85,98,312924
2.0919,0.3177,39.4400,85,98,312928
1.8133,0.3324,39.4800,85,98,312931
1.6520,0.3177,39.2800,85,98,312934
1.7058,0.2444,39.4400,85,98,312938
1.9697,0.2151,39.5100,85,98,312941
2.2141,0.2688,38.6500,85,98,312944
2.1065,0.3275,39.5100,85,98,312948
1.8964,0.3470,39.2500,85,98,312951
1.7009,0.2981,39.4100,85,98,312954
1.8133,0.2444,39.5100,85,98,312958
2.1065,0.2151,39.4800,85,98,312962
2.2776,0.2688,39.5100,85,98,312965
2.2141,0.3421,39.2800,85,98,312969
1.8817,0.3372,39.4400,85,98,312972
1.7253,0.2933,39.4100,85,98,312975
1.8475,0.2346,39.5100,85,98,312978
2.1163,0.2151,39.5100,85,98,312982
2.2972,0.2835,39.5100,85,98,312985
2.0968,0.3275,39.4400,85,98,312988
1.7986,0.3324,39.4100,85,98,312992
1.6520,0.2884,39.4800,85,98,312995
1.7693,0.2102,39.5100,85,98,312998
2.0088,0.2297,39.4100,85,98,313003
2.0772,0.2835,39.4800,85,98,313006
1.8915,0.3079,39.4100,85,98,313009
1.5738,0.3177,39.4800,85,98,313013
1.4663,0.2835,39.5100,85,98,313016
1.6276,0.2297,39.4100,85,98,313019
1.8817,0.2248,39.4800,85,98,313022
1.9990,0.2933,39.3200,85,98,313026
1.7693,0.3568,39.5100,85,98,313029
1.5103,0.3226,39.5100,85,98,313032
1.4614,0.2835,39.5100,85,98,313036
1.6276,0.2199,39.4800,85,98,313039
1.9501,0.2395,39.2800,85,98,313042
1.9844,0.2981,39.4100,85,98,313047
1.7595,0.3324,39.5100,85,98,313050
1.5103,0.3226,39.4400,85,98,313053
1.4614,0.2493,39.5100,85,98,313057
1.7204,0.2297,39.2800,85,98,313060
1.9550,0.2493,39.3800,85,98,313063
1.9892,0.2981,39.4100,85,98,313067
1.8231,0.3372,39.4800,85,98,313070
1.6911,0.3079,39.4800,85,98,313073
1.9208,0.2590,39.3200,85,98,313077
2.2678,0.1906,39.4400,85,98,313080
2.6735,0.2395,39.3800,85,98,313083
2.7273,0.3128,39.5100,85,98,313086
2.4633,0.3275,39.5100,85,98,313091
2.1945,0.3128,39.0000,85,98,313094
2.0479,0.2493,39.5100,85,98,313097
2.1408,0.2199,39.4100,85,98,313101
2.1652,0.2493,39.4800,85,98,313104
1.9746,0.3128,39.5400,85,98,313107
1.6276,0.3617,39.3800,85,98,313111
1.3245,0.3030,38.6200,85,98,313114
1.3392,0.2444,39.7300,85,98,313117
1.5591,0.2151,39.4100,85,98,313121
1.7937,0.2639,39.4800,85,98,313124
1.7644,0.3324,39.3800,85,98,313127
1.5103,0.3324,39.4800,85,98,313131
1.3587,0.3079,39.2500,85,98,313135
1.4321,0.2493,39.4100,85,98,313138
1.7009,0.2493,39.5700,85,98,313141
1.9599,0.2786,39.4400,85,98,313145
1.8231,0.3177,39.5700,85,98,313148
1.6031,0.3666,39.2200,85,98,313151
1.4223,0.2981,39.4800,85,98,313155
1.5200,0.2297,39.4800,85,98,313158
1.7986,0.2199,39.5100,85,98,313161
1.9844,0.2737,39.5100,85,98,313165
1.8866,0.3372,39.3500,85,98,313168
1.5885,0.3324,39.4400,85,98,313171
1.4614,0.2884,38.9000,85,98,313176
1.5885,0.2248,39.4800,85,98,313179
1.8671,0.2151,39.5100,85,98,313182
2.0430,0.2884,39.4400,85,98,313186
1.8524,0.3275,39.4800,85,98,313189
1.6080,0.3372,39.3800,85,98,313192
1.4858,0.2786,39.3800,85,98,313195
1.6520,0.2493,39.5100,85,98,313199
1.9501,0.2248,39.3800,85,98,313202
2.0479,0.2835,39.4800,85,98,313205
1.8866,0.3324,39.3500,85,98,313209
1.6031,0.3226,39.4100,85,98,313212
1.5347,0.2737,39.4800,85,98,313216
1.7449,0.2688,39.4100,85,98,313220
2.0039,0.2199,39.4800,85,98,313223
2.1603,0.3030,39.2200,85,98,313226
1.8768,0.3275,39.4100,85,98,313230
1.6325,0.3128,39.5400,85,98,313233
1.5982,0.2737,39.7000,85,98,313236
1.7986,0.2248,39.4800,85,98,313239
2.1505,0.2493,39.1900,85,98,313243
2.1212,0.3030,39.4400,85,98,313246
1.8817,0.3275,39.6700,85,98,313249
1.6520,0.3177,39.4800,85,98,313253
1.6373,0.2590,39.5700,85,98,313256
1.9208,0.2199,39.2800,85,98,313260
2.1603,0.2395,39.4100,85,98,313264
2.1603,0.2884,39.4100,85,98,313267
1.9062,0.3324,39.4800,85,98,313270
1.6813,0.2884,39.4800,85,98,313274
1.7351,0.2590,39.4100,85,98,313277
1.9648,0.2151,39.6700,85,98,313280
2.2385,0.2542,39.3500,85,98,313284
2.2190,0.3128,39.4800,85,98,313287
1.9355,0.3324,39.3500,85,98,313290
1.7498,0.2884,39.3800,85,98,313293
1.7889,0.2444,39.4800,85,98,313297
2.0772,0.2102,39.3500,85,98,313300
2.2727,0.2542,39.4400,85,98,313304
2.1994,0.3177,39.4800,85,98,313308
1.9501,0.3372,39.4100,86,98,313311
2.1750,0.3226,39.4800,86,98,313316
1.8817,0.3275,39.3500,86,98,313319
1.7742,0.3128,39.3200,86,98,313322
1.8573,0.2395,39.3800,86,98,313326
2.1114,0.2151,39.4100,86,98,313329
2.2532,0.2737,39.4800,86,98,313332
2.0919,0.3226,39.4800,86,98,313336
1.8280,0.3421,39.3500,86,98,313339
1.6569,0.2933,39.4800,86,98,313342
1.7840,0.2297,39.4400,86,98,313347
2.0137,0.2151,39.6000,86,98,313350
2.1212,0.2884,39.4800,86,98,313353
1.9501,0.3275,39.4800,86,98,313357
1.6471,0.3177,39.4800,86,98,313360
1.5445,0.2884,39.3800,86,98,313363
1.6667,0.2248,39.4400,86,98,313366
1.9306,0.2199,39.4800,86,98,313370
2.0479,0.2981,39.4400,86,98,313373
1.8182,0.3275,39.5100,86,98,313376
1.5738,0.3324,39.2800,86,98,313380
1.4858,0.2688,39.4100,86,98,313383
1.6520,0.2248,39.5100,86,98,313387
1.9501,0.2297,39.3200,86,98,313391
1.9892,0.2933,39.4800,86,98,313394
1.8182,0.3421,39.2800,86,98,313397
1.5347,0.3177,39.3500,86,98,313401
1.4614,0.2639,39.5100,86,98,313404
1.6911,0.2199,38.5800,86,98,313407
1.9453,0.2297,39.4800,86,98,313410
2.0430,0.3226,39.2500,86,98,313414
1.7693,0.3421,39.3800,86,98,313417
1.5200,0.3128,39.4100,86,98,313420
1.5152,0.2493,39.4800,86,98,313424
1.7400,0.2102,39.6000,86,98,313427
2.0332,0.2493,39.7300,86,98,313431
2.0137,0.3079,39.4400,86,98,313435
1.7742,0.3372,39.3800,86,98,313438
1.5347,0.3128,39.4800,86,98,313441
1.5494,0.2493,39.4800,86,98,313445
1.8231,0.2199,39.3800,86,98,313448
2.0381,0.2493,39.4800,86,98,313451
2.0332,0.3177,39.4400,86,98,313455
1.7449,0.3226,39.4800,86,98,313458
1.5445,0.3030,39.4800,86,98,313461
1.6080,0.2493,39.3500,86,98,313464
1.8475,0.2102,39.5100,86,98,313468
2.0870,0.2542,39.3200,86,98,313472
1.9990,0.3079,39.4100,86,98,313475
1.7302,0.3324,39.4800,86,98,313479
1.5640,0.3079,39.4800,86,98,313482
1.6178,0.2395,39.5100,86,98,313485
1.9208,0.2151,39.2500,86,98,313489
2.0870,0.2590,39.4100,86,98,313492
1.9892,0.3177,39.5100,86,98,313495
1.7302,0.3275,39.4100,86,98,313499
1.5543,0.2933,39.5100,86,98,313502
1.7009,0.2444,39.3200,86,98,313505
1.9404,0.2248,39.3800,86,98,313508
2.1017,0.2786,39.4800,86,98,313512
1.9795,0.3079,39.2200,86,98,313516
1.7009,0.3324,39.5400,86,98,313519
1.5982,0.2981,39.3200,86,98,313523
1.7009,0.2444,39.4400,86,98,313526
1.9746,0.2151,39.4100,86,98,313529
2.1114,0.2688,39.5100,86,98,313533
1.9550,0.3177,39.5700,86,98,313536
1.7107,0.3275,39.4400,86,98,313539
1.5738,0.2884,39.4800,86,98,313543
1.7351,0.2297,39.3500,86,98,313546
1.9892,0.2151,39.4400,86,98,313549
2.1017,0.2688,39.5100,86,98,313553
1.9306,0.3226,39.3500,86,98,313556
1.6569,0.3226,39.5100,86,98,313560
1.5934,0.2786,39.3500,86,98,313563
1.7449,0.2199,39.4800,86,98,313567
2.0283,0.2248,39.5100,86,98,313570
2.1457,0.2884,39.4400,86,98,313573
1.9159,0.3275,39.4800,86,98,313577
1.6960,0.3275,39.3500,86,98,313580
1.6276,0.2737,39.4100,86,98,313583
1.8182,0.2102,39.4800,86,98,313587
2.1163,0.2297,39.4400,86,98,313590
2.1554,0.2884,39.7300,86,98,313593
1.9844,0.3275,39.2500,86,98,313597
1.7155,0.3177,39.3500,86,98,313601
1.7107,0.2493,39.4800,86,98,313604
1.9550,0.2151,39.4800,86,98,313608
2.2287,0.2297,39.5100,86,98,313611
2.3069,0.3079,39.3500,86,98,313614
2.0626,0.3275,39.4800,86,98,313617
1.7937,0.3128,39.3800,86,98,313621
1.7840,0.2688,39.5100,86,98,313624
2.0186,0.2102,39.5100,86,98,313627
2.2874,0.2493,39.4400,86,98,313631
2.2336,0.3079,39.4800,86,98,313634
1.9795,0.3324,39.3500,86,98,313637
1.7204,0.3030,39.4800,86,98,313641
1.7204,0.2444,39.4800,86,98,313645
1.9697,0.2151,39.3500,86,98,313648
2.1212,0.2493,39.4800,86,98,313652
2.0626,0.3128,39.3200,86,98,313655
1.7498,0.3275,39.4100,86,98,313658
1.5200,0.2933,39.5400,86,98,313662
1.5738,0.2395,39.3800,86,98,313665
1.8035,0.2102,39.5100,86,98,313668
2.0332,0.2639,39.2500,86,98,313671
1.8964,0.3079,39.5100,86,98,313675
1.6129,0.3275,39.4800,86,98,313678
1.4467,0.2981,39.4400,86,98,313681
1.5103,0.2297,39.6000,86,98,313686
1.8231,0.2199,39.2200,86,98,313689
1.9746,0.2639,39.3800,86,98,313692
1.8622,0.3079,39.4800,86,98,313696
1.5934,0.3275,39.4800,86,98,313699
1.4467,0.2884,39.4100,86,98,313702
1.6031,0.2444,39.3800,86,98,313706
1.8426,0.2199,39.4400,86,98,313709
1.9892,0.2639,39.3800,86,98,313712
1.8377,0.3226,39.4100,86,98,313716
1.5885,0.3226,39.5100,86,98,313719
1.5738,0.2933,39.4800,86,98,313722
1.8524,0.2346,39.4400,86,98,313725
2.2727,0.2199,39.3200,86,98,313730
2.5367,0.2737,39.5100,86,98,313733
2.5122,0.3324,39.5100,86,98,313736
2.3460,0.3226,39.4800,86,98,313740
2.2336,0.2737,39.5700,86,98,313743
2.3460,0.2395,39.3500,86,98,313746
2.4291,0.2151,39.4400,86,98,313750
2.3363,0.2737,39.5100,86,98,313753
2.0039,0.3275,39.3800,86,98,313756
1.5934,0.3177,39.5100,86,98,313760
1.4272,0.2737,39.2500,86,98,313763
1.4956,0.2199,39.4800,86,98,313766
1.7204,0.2248,39.5100,86,98,313771
1.7840,0.2933,39.4400,86,98,313774
1.5787,0.3177,39.5100,86,98,313777
1.3832,0.3275,39.2200,86,98,313780
1.3392,0.2688,39.3500,86,98,313784
1.5445,0.2053,39.7300,86,98,313787
1.8524,0.2346,39.4400,86,98,313790
1.8671,0.2933,39.5100,86,98,313794
1.6911,0.3421,39.3200,86,98,313797
1.4370,0.3177,39.3500,86,98,313800
1.4272,0.2639,39.4100,86,98,313804
1.6667,0.2102,39.4800,86,98,313807
1.9159,0.2395,39.5400,86,98,313810
1.9404,0.3128,39.4100,86,98,313815
1.6667,0.3324,39.4800,86,98,313818
1.4761,0.3030,39.3500,86,98,313821
1.4858,0.2542,39.5100,86,98,313825
1.7400,0.2053,39.5100,86,98,313828
1.9941,0.2297,39.4100,86,98,313831
1.9453,0.3177,39.4800,86,98,313834
1.7107,0.3275,39.3800,86,98,313838
1.4858,0.3079,39.5100,86,98,313841
1.5640,0.2346,39.4800,86,98,313844
1.8280,0.2102,39.4100,86,98,313848
2.0283,0.2542,39.5100,86,98,313851
1.9941,0.3128,39.2800,86,98,313854
1.7107,0.3324,39.3800,86,98,313859
1.5249,0.2933,39.5100,86,98,313862
1.6373,0.2395,39.4100,86,98,313865
1.8915,0.2102,39.5700,86,98,313869
2.1408,0.2688,39.2200,86,98,313872
1.9941,0.3177,39.3800,86,98,313875
1.7107,0.3226,39.6000,86,98,313879
1.5738,0.2981,39.4400,86,98,313882
1.6764,0.2248,39.4800,86,98,313885
2.0088,0.2297,39.3200,86,98,313888
2.1457,0.2688,39.4400,86,98,313892
1.9941,0.3568,39.3800,86,98,313895
1.7155,0.3226,39.5100,86,98,313899
1.6178,0.2835,39.4800,86,98,313903
1.7693,0.2346,39.4400,86,98,313906
2.0332,0.2151,39.4800,86,98,313909
2.1945,0.2786,39.3200,86,98,313913
2.0039,0.3226,39.4800,86,98,313916
1.7400,0.3177,39.7700,86,98,313919
1.6764,0.2835,39.3500,87,98,313923
1.7889,0.3275,39.4100,87,98,313927
1.7253,0.2639,39.4800,87,98,313931
2.0088,0.2151,39.2500,87,98,313934
2.2190,0.2199,39.4100,87,98,313937
2.2678,0.2884,39.5100,87,98,313942
2.0577,0.3568,39.4400,87,98,313945
1.7986,0.3128,39.5100,87,98,313948
1.8231,0.2786,39.2200,87,98,313952
2.0088,0.2199,39.4100,87,98,313955
2.2532,0.2297,39.5700,87,98,313958
2.2678,0.2884,39.4800,87,98,313961
2.0088,0.3470,39.4800,87,98,313965
1.8328,0.3177,39.3500,87,98,313968
1.7791,0.2590,39.4800,87,98,313971
2.0039,0.1906,39.4400,87,98,313975
2.2239,0.2395,39.5100,87,98,313978
2.1945,0.3030,39.4800,87,98,313981
1.9648,0.3421,39.3200,87,98,313986
1.6960,0.2981,39.4800,87,98,313989
1.7204,0.2444,39.3500,87,98,313992
1.9648,0.2102,39.5100,87,98,313996
2.1457,0.2444,39.4800,87,98,313999
2.0919,0.3128,39.4100,87,98,314002
1.7889,0.3275,39.4800,87,98,314005
1.5982,0.2981,39.3500,87,98,314009
1.6080,0.2395,39.4800,87,98,314012
1.8475,0.2053,39.5100,87,98,314015
2.0674,0.2542,39.3500,87,98,314019
1.9648,0.3128,39.5100,87,98,314022
1.7107,0.3324,39.2500,87,98,314025
1.4907,0.2884,39.4800,87,98,314030
1.5591,0.2297,39.5100,87,98,314033
1.8328,0.2151,39.4800,87,98,314036
2.0283,0.2542,39.5100,87,98,314040
1.9453,0.3275,39.2500,87,98,314043
1.6373,0.3372,39.4100,87,98,314046
1.4663,0.2835,39.5100,87,98,314049
1.5836,0.2297,39.3200,87,98,314053
1.8524,0.2102,39.6400,87,98,314056
2.0723,0.2884,39.3200,87,98,314059
1.9013,0.3372,39.4100,87,98,314063
1.6227,0.3226,39.4100,87,98,314066
1.4712,0.2835,39.4400,87,98,314070
1.6031,0.2248,39.5100,87,98,314074
1.9062,0.2151,39.4100,87,98,314077
2.0235,0.2688,39.4400,87,98,314080
1.8817,0.3226,39.3500,87,98,314084
1.5934,0.3226,39.4800,87,98,314087
1.4907,0.2786,39.4800,87,98,314090
1.6618,0.2199,39.4100,87,98,314094
1.9355,0.2199,39.4400,87,98,314097
2.0674,0.2786,39.3800,87,98,314100
1.8524,0.3226,39.4800,87,98,314103
1.6227,0.3177,39.5100,87,98,314107
1.5445,0.2786,39.2200,87,98,314110
1.7107,0.2151,39.4800,87,98,314114
2.0332,0.2297,39.2500,87,98,314118
2.0772,0.2884,39.3500,87,98,314121
1.8524,0.3324,39.5100,87,98,314124
1.6178,0.3226,39.4400,87,98,314128
1.5640,0.2639,39.4100,87,98,314131
1.8182,0.2199,39.2500,87,98,314134
2.0528,0.2297,39.3800,87,98,314138
2.0821,0.2884,39.4800,87,98,314141
1.8573,0.3324,39.4800,87,98,314144
1.6031,0.3079,39.4400,87,98,314148
1.6373,0.2688,39.2800,87,98,314151
1.8328,0.2297,39.3800,87,98,314155
2.0772,0.2395,39.3800,87,98,314158
2.0674,0.3030,39.4800,87,98,314162
1.8133,0.3275,39.4800,87,98,314165
1.6080,0.3128,39.3800,87,98,314168
1.6129,0.2493,39.4400,87,98,314172
1.8622,0.2102,39.3800,87,98,314175
2.0821,0.2444,39.6000,87,98,314178
2.0528,0.3128,39.4800,87,98,314182
1.8280,0.3421,39.3500,87,98,314185
1.5885,0.3421,39.5100,87,98,314188
1.6471,0.2542,39.4400,87,98,314192
1.8768,0.1955,39.4400,87,98,314195
2.1017,0.2297,39.5100,87,98,314199
2.0577,0.3226,39.3500,87,98,314203
1.7644,0.3275,39.4400,87,98,314206
1.5934,0.2981,39.2800,87,98,314209
1.6422,0.2346,39.3800,87,98,314212
1.8915,0.2004,39.4800,87,98,314216
2.1408,0.2639,39.4100,87,98,314219
2.0137,0.3128,39.4800,87,98,314222
1.7986,0.3372,39.2500,87,98,314226
1.5836,0.2884,39.4100,87,98,314229
1.6911,0.2248,39.5100,87,98,314232
1.9795,0.2297,39.4800,87,98,314236
2.1554,0.2590,39.5100,87,98,314240
2.0919,0.3470,39.1900,87,98,314243
1.7840,0.3324,39.4100,87,98,314247
1.6373,0.2786,39.4400,87,98,314250
1.8035,0.2297,39.4800,87,98,314253
2.0674,0.2102,39.4800,87,98,314256
2.2874,0.2688,39.3200,87,98,314260
2.1163,0.3226,39.4800,87,98,314263
1.8622,0.3226,39.3800,87,98,314266
1.7351,0.2786,39.4800,87,98,314270
1.8866,0.2151,39.4800,87,98,314273
2.1896,0.2151,39.3500,87,98,314276
2.2825,0.2737,39.4800,87,98,314280
2.1163,0.3275,39.3800,87,98,314284
1.8035,0.3177,39.5100,87,98,314287
1.7155,0.2835,39.5100,87,98,314291
1.8866,0.2199,39.3500,87,98,314294
2.1261,0.2151,39.4800,87,98,314297
2.2092,0.2884,39.2800,87,98,314301
1.9355,0.3226,39.5400,87,98,314304
1.6422,0.3177,39.4800,87,98,314307
1.5640,0.2737,39.4100,87,98,314310
1.7107,0.2102,39.4800,87,98,314314
2.0039,0.2297,39.3200,87,98,314317
2.0186,0.2933,39.3800,87,98,314320
1.7742,0.3226,39.5100,87,98,314324
1.5200,0.3226,39.4800,87,98,314328
1.4663,0.2737,39.4400,87,98,314331
1.7155,0.2102,39.2500,87,98,314335
1.9501,0.2395,39.4100,87,98,314338
1.9501,0.2933,39.4800,87,98,314341
1.7155,0.3275,39.5100,87,98,314345
1.4761,0.3275,39.5400,87,98,314348
1.5103,0.2493,39.3200,87,98,314351
1.7204,0.2102,39.4400,87,98,314355
1.9697,0.2395,39.3800,87,98,314358
1.9404,0.3030,39.4800,87,98,314361
1.6764,0.3275,39.4800,87,98,314364
1.4809,0.2981,39.5100,87,98,314369
1.5200,0.2395,39.5100,87,98,314372
1.8524,0.2199,39.3800,87,98,314375
2.1701,0.2444,39.5100,87,98,314379
2.2678,0.3079,39.4800,87,98,314382
2.1994,0.3372,39.4100,87,98,314385
2.1310,0.2933,39.5700,87,98,314389
2.3460,0.2444,39.3200,87,98,314392
2.6002,0.2151,39.3800,87,98,314395
2.7322,0.2542,39.4800,87,98,314399
2.5171,0.3275,39.3800,87,98,314402
2.0381,0.3226,39.4800,87,98,314405
1.7204,0.2981,39.2200,87,98,314409
1.6227,0.2199,39.4400,87,98,314413
1.7351,0.2004,39.4800,87,98,314416
1.8475,0.2639,39.4400,87,98,314419
1.6764,0.3128,39.5100,87,98,314423
1.4467,0.3421,39.2200,87,98,314426
1.2854,0.2884,39.4100,87,98,314429
1.4027,0.2199,39.4400,87,98,314433
1.6813,0.2102,39.4800,87,98,314436
1.8524,0.2639,39.5100,87,98,314439
1.7693,0.3177,39.4100,87,98,314443
1.4858,0.3226,39.5400,87,98,314446
1.3832,0.2835,39.4100,87,98,314449
1.5249,0.2248,39.4800,87,98,314454
1.8035,0.2102,39.5100,87,98,314457
1.9746,0.2786,39.2800,87,98,314460
1.7889,0.3226,39.4800,87,98,314464
1.5445,0.3275,39.3800,87,98,314467
1.4321,0.2737,39.4100,87,98,314470
1.6080,0.2199,39.5100,87,98,314473
1.9062,0.2199,39.3800,87,98,314477
1.9892,0.2786,39.4800,87,98,314480
1.8231,0.3275,39.3200,87,98,314483
1.5445,0.3226,39.4100,87,98,314487
1.4712,0.2688,39.5100,87,98,314490
1.6911,0.2248,39.4100,87,98,314493
1.9453,0.2199,39.6400,87,98,314498
2.0626,0.3128,39.2500,87,98,314501
1.7986,0.3226,39.7000,87,98,314504
1.5640,0.3177,39.5700,87,98,314508
1.5298,0.2639,39.4400,87,98,314511
1.7498,0.2053,39.4800,87,98,314514
2.0723,0.2444,39.2800,87,98,314518
2.0674,0.2981,39.4100,87,98,314521
1.8328,0.3226,39.4400,87,98,314524
1.6031,0.3030,39.4800,87,98,314527
1.5982,0.2542,39.5100,87,98,314531
1.8719,0.2248,39.2800,88,98,314534
1.6813,0.2493,39.3800,88,98,314539
1.9110,0.1906,39.4800,88,98,314542
2.1750,0.2493,39.3800,88,98,314545
2.0870,0.3079,39.5100,88,98,314549
1.8280,0.3275,39.4800,88,98,314552
1.6569,0.2981,39.3800,88,98,314555
1.7155,0.2346,39.6000,88,98,314559
2.0186,0.2102,39.2500,88,98,314562
2.2239,0.2590,39.5100,88,98,314565
2.1212,0.3128,39.5100,88,98,314569
1.8671,0.3372,39.4800,88,98,314572
1.6960,0.2933,39.4800,88,98,314575
1.8426,0.2346,39.2200,88,98,314579
2.1261,0.2151,39.4400,88,98,314583
2.2776,0.2590,39.4800,88,98,314586
2.1701,0.3226,39.4400,88,98,314589
1.8915,0.3226,39.4800,88,98,314593
1.7937,0.3079,39.2800,88,98,314596
1.8964,0.2346,39.4400,88,98,314599
2.1945,0.2004,39.4100,88,98,314603
2.3167,0.2688,39.4800,88,98,314606
2.1603,0.3177,39.7300,88,98,314609
1.9257,0.3324,39.3500,88,98,314613
1.7791,0.2884,39.2200,88,98,314616
1.9306,0.2248,39.3800,88,98,314619
2.1848,0.2102,39.4400,88,98,314624
2.3314,0.2737,39.4800,88,98,314627
2.1359,0.3275,39.3800,88,98,314630
1.8328,0.3177,39.5100,88,98,314634
1.7595,0.2835,39.4400,88,98,314637
1.8866,0.2199,39.5100,88,98,314640
2.1359,0.2248,39.4800,88,98,314643
2.2385,0.2884,39.3800,88,98,314647
1.9795,0.3226,39.4800,88,98,314650
1.7204,0.3079,39.3200,88,98,314653
1.6178,0.2688,39.4100,88,98,314657
1.7693,0.2102,39.4800,88,98,314660
2.0479,0.2346,39.4400,88,98,314663
2.0528,0.2688,39.4800,88,98,314668
1.8524,0.3372,39.1600,88,98,314671
1.5591,0.3128,39.3800,88,98,314674
1.5005,0.2590,39.5400,88,98,314678
1.7058,0.2151,39.5100,88,98,314681
1.9501,0.2248,39.5100,88,98,314684
2.0332,0.3128,39.2200,88,98,314687
1.7498,0.3372,39.4100,88,98,314691
1.5005,0.3030,39.4100,88,98,314694
1.4907,0.2542,39.4400,88,98,314697
1.7009,0.2053,39.5700,88,98,314701
1.9990,0.2493,39.3500,88,98,314704
1.9697,0.3079,39.4800,88,98,314707
1.7253,0.3275,39.3800,88,98,314712
1.4907,0.2981,39.4400,88,98,314715
1.5054,0.2444,39.5400,88,98,314718
1.7791,0.2102,39.3800,88,98,314722
1.9941,0.2493,39.4400,88,98,314725
1.9795,0.3275,39.3800,88,98,314728
1.6960,0.3226,39.4400,88,98,314732
1.5005,0.2981,39.4800,88,98,314735
1.5689,0.2444,39.3500,88,98,314738
1.8084,0.2004,39.4800,88,98,314741
2.0528,0.2542,39.3500,88,98,314745
1.9599,0.3079,39.3800,88,98,314748
1.6960,0.3226,39.5100,88,98,314752
1.5298,0.2981,39.3800,88,98,314756
1.5885,0.2346,39.5700,88,98,314759
1.8866,0.2151,38.4900,88,98,314762
2.0577,0.2542,39.4100,88,98,314766
1.9599,0.3079,39.5100,88,98,314769
1.7009,0.3324,39.4400,88,98,314772
1.5200,0.2884,39.5100,88,98,314776
1.6667,0.2395,39.2500,88,98,314779
1.9159,0.2151,39.4100,88,98,314782
2.0723,0.2835,39.4100,88,98,314785
1.9550,0.3177,39.4800,88,98,314789
1.6862,0.3226,39.4800,88,98,314792
1.5836,0.2981,39.3800,88,98,314796
1.7204,0.2297,39.4400,88,98,314800
1.9697,0.2151,39.4100,88,98,314803
2.1065,0.2688,39.5100,88,98,314806
1.9453,0.3128,39.5700,88,98,314810
1.7009,0.3275,39.3800,88,98,314813
1.5689,0.2786,39.4400,88,98,314816
1.7400,0.2297,39.3800,88,98,314820
1.9941,0.2542,39.4800,88,98,314823
2.1114,0.2786,39.4800,88,98,314826
1.9355,0.3519,39.4400,88,98,314830
1.6618,0.3177,39.5100,88,98,314833
1.5982,0.2737,39.3500,88,98,314836
1.7546,0.2199,39.4800,88,98,314840
2.0332,0.2102,39.5100,88,98,314844
2.1359,0.2933,39.4400,88,98,314847
1.8964,0.3226,39.4800,88,98,314850
1.6716,0.3226,39.2800,88,98,314854
1.6031,0.2737,39.3800,88,98,314857
1.8182,0.2004,39.5100,88,98,314860
2.0772,0.2297,39.4400,88,98,314864
2.0968,0.2884,39.5100,88,98,314867
1.9159,0.3421,39.2200,88,98,314870
1.6325,0.3128,39.3500,88,98,314874
1.5934,0.2493,39.4400,88,98,314877
1.8182,0.1906,39.4800,88,98,314881
2.0626,0.2346,39.5100,88,98,314885
2.1310,0.3177,39.2800,88,98,314888
1.8328,0.3324,39.4400,88,98,314891
1.6080,0.3030,39.3800,88,98,314894
1.6080,0.2542,39.4800,88,98,314898
1.8426,0.2053,39.4800,88,98,314901
2.1261,0.2542,39.4400,88,98,314904
2.0968,0.3079,39.4800,88,98,314908
1.8622,0.3324,39.3500,88,98,314911
1.6373,0.2981,39.5100,88,98,314914
1.6862,0.2395,39.5700,88,98,314918
1.9746,0.2151,39.3500,88,98,314921
2.2043,0.2590,39.4800,88,98,314925
2.1701,0.3128,39.3500,88,98,314929
1.8866,0.3519,39.4100,88,98,314932
1.7107,0.2981,39.4800,88,98,314935
1.8133,0.2981,39.2800,88,98,314939
2.0674,0.2053,39.5100,88,98,314942
2.3118,0.2688,39.2800,88,98,314945
2.1945,0.3177,39.4100,88,98,314948
1.9013,0.3275,39.5700,88,98,314952
1.7351,0.2981,39.4400,88,98,314955
1.8084,0.2297,39.5700,88,98,314958
2.1212,0.2199,39.2200,88,98,314962
2.2385,0.2590,39.4400,88,98,314966
2.0968,0.3128,39.4800,88,98,314969
1.8035,0.3372,39.4400,88,98,314973
1.6227,0.2884,39.5100,88,98,314976
1.7546,0.2493,39.3200,88,98,314979
1.9501,0.2199,39.4800,88,98,314983
2.0821,0.2737,39.4100,88,98,314986
1.9062,0.3079,39.5400,88,98,314989
1.6080,0.3226,39.5400,88,98,314992
1.5005,0.2933,39.3200,88,98,314996
1.6080,0.2297,39.4400,88,98,314999
1.8817,0.2151,39.3800,88,98,315002
1.9844,0.2737,38.8100,88,98,315006
1.8084,0.3177,39.4800,88,98,315010
1.5640,0.3275,38.6800,88,98,315013
1.4418,0.2786,39.4400,88,98,315017
1.6276,0.2590,39.3800,88,98,315020
1.8817,0.2102,39.5100,88,98,315023
1.9844,0.2786,39.4800,88,98,315027
1.8084,0.3226,39.4100,88,98,315030
1.5445,0.3177,39.5100,88,98,315033
1.4907,0.2737,39.1900,88,98,315036
1.6569,0.2151,39.5100,88,98,315040
1.9892,0.2151,39.5100,88,98,315043
2.1017,0.2933,39.6700,88,98,315046
1.9648,0.3275,39.5100,88,98,315051
1.9013,0.3470,39.1900,88,98,315054
2.0186,0.2737,39.4400,88,98,315057
2.3705,0.2102,39.4800,88,98,315061
2.7664,0.2346,39.4400,88,98,315064
2.8152,0.2933,38.6200,88,98,315067
2.6002,0.3519,39.2500,88,98,315071
2.1994,0.3079,39.4400,88,98,315074
1.9844,0.2542,39.3500,88,98,315077
2.0137,0.2151,39.4800,88,98,315081
2.1065,0.2346,39.5100,88,98,315084
1.9697,0.3128,39.3500,88,98,315087
1.6031,0.3617,39.5100,88,98,315090
1.3441,0.3079,39.3800,88,98,315095
1.3343,0.2493,39.5100,88,98,315098
1.5689,0.2053,39.4800,88,98,315101
1.8280,0.2590,39.4800,88,98,315105
1.7889,0.3128,39.5100,88,98,315108
1.5543,0.3372,39.3800,88,98,315111
1.3392,0.2981,39.3500,88,98,315115
1.3930,0.2395,39.5100,88,98,315118
1.6716,0.2199,39.4100,88,98,315121
1.8817,0.2493,39.4800,88,98,315125
1.8475,0.3226,39.2800,88,98,315128
1.5738,0.3275,39.3800,88,98,315131
1.3978,0.2933,39.4800,88,98,315136
1.4956,0.2444,39.3800,88,98,315139
1.7449,0.1906,39.5400,88,98,315142
1.9892,0.2688,39.2200,88,98,315146
1.8768,0.2395,39.3200,88,97,315149
2.0088,0.2737,39.4400,88,97,315153
1.8768,0.3177,39.4100,88,97,315156
1.5982,0.3226,39.5100,88,97,315159
1.4858,0.2786,39.5700,88,97,315163
1.6569,0.2297,39.4100,88,97,315166
1.9208,0.2151,39.3500,88,97,315169
2.0772,0.3128,39.3500,88,97,315172
1.8817,0.3226,39.4800,88,97,315176
1.6227,0.3275,39.4800,88,97,315180
1.5640,0.2884,39.6000,88,97,315183
1.7155,0.2199,39.4100,88,97,315187
2.0235,0.2199,39.3800,88,97,315190
2.0968,0.2786,39.4400,88,97,315193
1.9013,0.3226,39.5100,88,97,315197
1.6667,0.3079,39.3200,88,97,315200
1.5787,0.2688,39.4800,88,97,315203
1.8084,0.2199,39.2800,88,97,315207
2.0626,0.2297,39.3500,88,97,315210
2.1212,0.3079,39.5100,88,97,315213
1.9208,0.3275,39.4400,88,97,315216
1.6667,0.3079,39.5400,88,97,315220
1.6764,0.2737,39.1900,88,97,315224
1.8622,0.2102,39.4400,88,97,315227
2.1310,0.2297,39.5100,88,97,315231
2.1701,0.2981,39.4400,88,97,315234
1.9306,0.3275,39.4800,88,97,315237
1.7498,0.3372,39.3200,88,97,315241
1.7107,0.2493,39.4800,88,97,315244
1.9501,0.2004,39.4100,88,97,315247
2.2190,0.2395,39.5700,88,97,315251
2.2190,0.3030,39.4800,88,97,315254
2.0186,0.3372,39.3200,88,97,315257
1.7791,0.3079,39.4800,88,97,315260
1.8182,0.2493,39.3800,88,97,315265
2.0870,0.2004,39.4800,88,97,315268
2.2874,0.2395,39.5100,88,97,315271
2.2923,0.3079,39.3800,88,97,315275
1.9990,0.3421,39.4800,88,97,315278
1.8280,0.3079,39.3800,88,97,315281
1.8475,0.2395,39.4800,88,97,315285
2.1065,0.2053,39.4800,88,97,315288
2.3314,0.2542,39.4400,88,97,315291
2.2483,0.3128,39.5100,88,97,315295
1.9990,0.3372,39.2800,88,97,315298
1.7791,0.2884,39.5100,88,97,315301
1.8524,0.2346,39.4800,88,97,315304
2.1163,0.2151,39.4100,88,97,315309
2.2727,0.2590,39.5700,88,97,315312
2.1896,0.3275,39.2200,88,97,315315
1.8671,0.3324,39.7300,88,97,315319
1.6667,0.2933,39.5100,88,97,315322
1.7400,0.2346,39.4400,88,97,315325
1.9746,0.2102,39.4800,88,97,315329
2.1750,0.2835,39.2500,88,97,315332
1.9795,0.3275,39.3500,88,97,315335
1.6667,0.3226,39.4400,88,97,315339
1.5152,0.2933,39.4800,88,97,315342
1.6178,0.2248,39.5400,88,97,315345
1.9159,0.2199,39.3200,88,97,315350
2.0137,0.2639,39.4800,88,97,315353
1.8573,0.3226,39.3500,88,97,315356
1.5591,0.3226,39.4400,88,97,315359
1.4516,0.2688,39.4800,88,97,315363
1.6129,0.2297,38.8100,88,97,315366
1.8768,0.2199,39.4800,88,97,315369
2.0137,0.2981,39.3500,88,97,315373
1.8035,0.3226,39.5400,88,97,315376
1.5494,0.3372,39.4800,88,97,315379
1.4858,0.2835,39.3500,88,97,315383
1.6373,0.2199,39.4800,88,97,315386
1.9355,0.2248,39.2800,88,97,315389
2.0283,0.2835,39.4100,88,97,315394
1.7889,0.3079,39.5100,88,97,315397
1.5543,0.3275,39.3500,88,97,315400
1.4858,0.2639,39.5100,88,97,315404
1.7204,0.2199,39.2500,88,97,315407
1.9648,0.2248,39.0900,88,97,315410
1.9990,0.2884,39.4400,88,97,315413
1.7840,0.3324,39.4800,88,97,315417
1.5347,0.3079,39.5100,88,97,315420
1.5494,0.2688,39.1900,88,97,315423
1.7253,0.1906,39.4800,88,97,315427
1.9941,0.2297,39.4400,88,97,315430
2.0186,0.3030,39.4100,88,97,315433
1.7742,0.3275,39.5400,88,97,315438
1.5885,0.3715,39.3800,88,97,315441
1.5689,0.2542,39.4400,88,97,315444
1.8328,0.2053,39.4400,88,97,315448
2.0332,0.2444,39.7300,88,97,315451
2.0137,0.2981,39.4800,88,97,315454
1.7937,0.3372,39.3200,88,97,315458
1.5885,0.2981,39.4400,88,97,315461
1.6129,0.2493,39.3500,88,97,315464
1.8328,0.2102,39.4800,88,97,315467
2.0723,0.2493,39.5100,88,97,315471
2.0479,0.3128,39.3800,88,97,315474
1.7546,0.3275,39.5400,88,97,315478
1.5836,0.2981,39.3500,88,97,315482
1.6227,0.2346,39.4100,88,97,315485
1.8768,0.2004,39.5100,88,97,315488
2.0968,0.2590,39.4400,88,97,315492
2.0039,0.3128,39.4800,88,97,315495
1.7693,0.3226,39.2500,88,97,315498
1.5640,0.2884,39.4400,88,97,315502
1.6569,0.2297,39.4800,88,97,315505
1.9404,0.2151,39.4400,88,97,315508
2.1114,0.2297,39.4800,88,97,315512
2.0479,0.3421,39.2200,88,97,315515
1.7400,0.3275,39.3800,88,97,315518
1.5738,0.2835,38.6500,88,97,315522
1.7058,0.2346,39.4400,88,97,315526
1.9599,0.2151,39.4800,88,97,315529
2.1750,0.2835,39.3200,88,97,315532
1.9892,0.3275,39.4100,88,97,315536
1.7058,0.3226,39.4100,88,97,315539
1.5738,0.2835,39.3500,88,97,315542
1.7107,0.2248,39.5100,88,97,315546
2.0137,0.2248,39.3500,88,97,315549
2.1212,0.2835,39.4800,88,97,315552
1.9648,0.3275,39.3800,88,97,315556
1.6813,0.3226,39.5100,88,97,315559
1.5738,0.2737,39.5100,88,97,315563
1.7498,0.2493,39.3800,88,97,315566
2.0137,0.2248,39.5100,88,97,315570
2.1408,0.2835,39.3200,88,97,315573
1.9110,0.3275,39.4800,88,97,315576
1.6569,0.3177,39.4800,88,97,315580
1.6031,0.2737,39.3200,88,97,315583
1.7791,0.2151,39.4800,88,97,315586
2.0919,0.2346,39.3200,88,97,315590
2.1310,0.2981,39.4800,88,97,315593
1.9013,0.3617,39.5100,88,97,315596
1.6764,0.3226,39.3500,88,97,315600
1.6373,0.2639,39.5100,88,97,315603
1.9062,0.2199,39.1900,88,97,315607
2.1408,0.2346,39.3500,88,97,315611
2.1603,0.2933,39.5100,88,97,315614
1.9306,0.3324,39.5100,88,97,315617
1.7058,0.3128,39.5100,88,97,315620
1.7742,0.2688,39.2800,88,97,315624
1.9844,0.2102,39.4400,88,97,315627
2.2532,0.2542,39.4100,88,97,315630
2.2434,0.3079,39.4800,88,97,315634
1.9941,0.3226,39.5100,88,97,315637
1.7937,0.3079,39.4100,88,97,315640
1.7937,0.2493,39.3800,88,97,315644
2.0479,0.2102,39.3500,88,97,315648
2.2434,0.2542,39.5100,88,97,315651
2.1896,0.3128,39.5100,88,97,315655
1.9355,0.3470,39.3500,88,97,315658
1.6862,0.2981,38.7700,88,97,315661
1.7302,0.2395,39.7300,88,97,315665
1.9257,0.2053,39.2200,88,97,315668
2.1065,0.2493,39.3800,88,97,315671
2.0283,0.3226,39.3200,88,97,315674
1.7107,0.3275,39.4800,88,97,315678
1.5543,0.2884,39.2800,88,97,315681
1.5787,0.2346,39.4100,88,97,315684
1.8231,0.2102,39.5400,88,97,315688
2.0137,0.2639,39.4400,88,97,315692
1.8915,0.3177,39.4800,88,97,315695
1.6569,0.3372,39.2200,88,97,315699
1.4516,0.2884,39.4400,88,97,315702
1.5591,0.2297,39.5400,88,97,315705
1.8280,0.2151,39.4400,88,97,315709
2.0235,0.2590,39.5100,88,97,315712
1.9159,0.3372,39.3500,88,97,315715
1.6031,0.3372,39.4400,88,97,315719
1.4712,0.2835,39.4400,88,97,315722
1.5982,0.2297,39.4800,88,97,315725
1.8719,0.2199,39.4800,88,97,315728
2.0430,0.2835,39.3200,88,97,315732
1.8719,0.3519,39.5100,88,97,315736
1.6716,0.3177,39.3800,88,97,315739
1.6618,0.2786,39.5700,88,97,315743
1.9746,0.2199,39.6700,88,97,315746
2.4487,0.2248,39.3500,88,97,315749
2.7126,0.2737,39.5100,88,97,315753
2.6344,0.3275,39.4400,88,97,315756
2.3851,0.3128,39.3200,89,97,315759
1.8622,0.3275,39.5100,89,97,315763
1.4858,0.3128,39.5100,89,97,315766
1.3539,0.2688,39.4400,89,97,315770
1.4956,0.2151,39.4400,89,97,315773
1.8035,0.2444,39.2200,89,97,315777
1.8182,0.2981,39.5400,89,97,315781
1.5885,0.3275,39.4400,89,97,315784
1.3685,0.3177,39.4400,89,97,315787
1.3636,0.2542,39.5100,89,97,315790
1.6373,0.2248,39.3200,89,97,315794
1.8719,0.2493,39.4400,89,97,315797
1.8768,0.3177,39.3200,89,97,315800
1.6276,0.3275,39.5100,89,97,315804
1.4174,0.3177,39.5100,89,97,315807
1.4663,0.2542,39.3500,89,97,315810
1.6911,0.2102,39.4400,89,97,315814
1.9599,0.2493,39.3500,89,97,315817
1.9159,0.3128,39.5100,89,97,315821
1.6422,0.3275,39.5100,89,97,315825
1.4516,0.2981,39.4400,89,97,315828
1.5152,0.2395,39.4800,89,97,315831
1.7986,0.2102,39.3500,89,97,315835
2.0235,0.2542,39.5100,89,97,315838
1.9257,0.3079,39.5100,89,97,315841
1.6764,0.3324,39.4400,89,97,315844
1.4809,0.2884,39.5100,89,97,315848
1.6080,0.2395,39.2500,89,97,315851
1.8622,0.2151,39.3800,89,97,315854
2.0479,0.2639,39.5100,89,97,315858
1.9453,0.3226,39.4100,89,97,315862
1.6667,0.3275,39.5100,89,97,315865
1.5591,0.3030,39.2800,89,97,315869
1.6471,0.2248,39.3200,89,97,315872
1.9110,0.2151,39.4100,89,97,315875
2.0919,0.2688,39.5100,89,97,315879
1.9404,0.3177,39.5700,89,97,315882
1.7155,0.3421,39.3500,89,97,315885
1.5640,0.2884,39.4800,89,97,315889
1.7107,0.2248,39.4800,89,97,315892
1.9844,0.2151,39.7000,89,97,315895
2.1310,0.2737,39.5100,89,97,315899
1.9844,0.3275,39.5100,89,97,315902
1.7058,0.3177,39.4800,89,97,315906
1.6227,0.2688,39.3200,89,97,315909
1.7742,0.2248,39.5100,89,97,315913
2.0577,0.2248,39.5100,89,97,315916
2.1994,0.2933,39.3800,89,97,315919
1.9795,0.3421,39.4800,89,97,315923
1.7449,0.3226,38.7100,89,97,315926
1.6667,0.2688,39.3200,89,97,315929
1.8622,0.2199,39.4800,89,97,315933
2.1750,0.2346,39.3800,89,97,315936
2.2190,0.2884,39.5100,89,97,315939
2.0479,0.3421,39.2800,89,97,315943
1.7791,0.3177,39.4400,89,97,315947
1.7449,0.2639,39.5700,89,97,315950
1.9697,0.2151,39.3800,89,97,315953
2.2336,0.2297,39.5100,89,97,315957
2.3363,0.3128,39.1900,89,97,315960
2.0381,0.3324,39.4400,89,97,315963
1.7986,0.2884,39.4800,89,97,315967
1.7986,0.2590,39.3200,89,97,315970
2.0235,0.2444,39.5100,89,97,315973
2.3314,0.2542,39.3800,89,97,315977
2.2825,0.3079,39.4800,89,97,315980
2.0283,0.3275,39.4100,89,97,315983
1.7937,0.3079,39.4800,89,97,315987
1.8084,0.2493,39.5100,89,97,315991
2.0821,0.2151,39.4400,89,97,315994
2.2776,0.2688,39.5100,89,97,315998
2.2581,0.3128,39.3500,89,97,316001
1.9306,0.3275,39.4100,89,97,316004
1.7058,0.3030,39.5100,89,97,316007
1.7498,0.2542,39.3800,89,97,316011
1.9599,0.2102,39.4800,89,97,316014
2.1896,0.2542,39.3800,89,97,316017
2.0577,0.3128,39.4400,89,97,316021
1.7644,0.3275,39.1900,89,97,316024
1.5640,0.3030,39.4400,89,97,316027
1.6031,0.2346,39.4800,89,97,316032
1.8964,0.2151,39.2800,89,97,316035
2.0283,0.2590,38.6500,89,97,316038
1.9159,0.3177,39.4800,89,97,316042
1.6471,0.3324,39.4400,89,97,316045
1.4712,0.2933,39.5100,89,97,316048
1.5836,0.2395,39.2200,89,97,316052
1.8280,0.2199,39.4100,89,97,316055
1.9844,0.2590,39.5100,89,97,316058
1.8671,0.3226,39.4800,89,97,316061
1.5787,0.3226,39.4800,89,97,316065
1.4956,0.3030,39.3200,89,97,316068
1.5934,0.2297,39.4400,89,97,316071
1.8573,0.2102,39.2800,89,97,316076
1.9941,0.2786,39.5700,89,97,316079
1.8426,0.3177,39.5100,89,97,316082
1.6031,0.3421,39.4100,89,97,316086
1.4761,0.2688,39.4800,89,97,316089
1.6373,0.2248,39.3500,89,97,316092
1.8964,0.2151,39.6000,89,97,316096
2.0137,0.2737,39.5100,89,97,316099
1.8377,0.3226,39.4100,89,97,316102
1.5738,0.3177,39.4800,89,97,316106
1.5103,0.2737,39.3800,89,97,316109
1.6667,0.2199,39.5100,89,97,316112
1.9404,0.2395,39.5100,89,97,316115
2.0528,0.2884,39.3800,89,97,316120
1.8133,0.3226,39.5100,89,97,316123
1.5885,0.3226,39.2800,89,97,316126
1.5249,0.2688,39.3800,89,97,316130
1.7155,0.2102,39.5100,89,97,316133
2.0088,0.2493,39.4100,89,97,316136
2.0381,0.2933,39.4800,89,97,316140
1.8573,0.3372,39.3200,89,97,316143
1.5836,0.3128,39.3800,89,97,316146
1.5494,0.2542,38.7100,89,97,316150
1.7742,0.2102,39.5100,89,97,316153
2.0283,0.2590,39.5100,89,97,316156
2.1310,0.3128,39.3200,89,97,316161
1.7986,0.3324,39.4800,89,97,316164
1.5787,0.3030,39.4100,89,97,316167
1.5787,0.2493,39.4800,89,97,316170
1.8182,0.2053,39.4800,89,97,316174
2.1017,0.2493,39.3500,89,97,316177
2.0430,0.3128,39.4400,89,97,316180
1.8084,0.3324,39.3800,89,97,316184
1.6080,0.2981,39.4800,89,97,316187
1.6227,0.2444,39.4800,89,97,316190
1.9013,0.2151,39.3500,89,97,316194
2.1017,0.2493,39.5100,89,97,316197
2.0626,0.3177,39.4100,89,97,316200
1.7644,0.3226,39.6400,89,97,316205
1.5934,0.2933,39.4800,89,97,316208
1.6667,0.2444,39.2500,89,97,316211
1.9062,0.2102,39.5100,89,97,316215
2.1457,0.2737,39.2800,89,97,316218
2.0283,0.3079,39.4100,89,97,316221
1.7449,0.3226,39.4800,89,97,316224
1.6080,0.2933,39.4400,89,97,316228
1.6911,0.2346,39.4800,89,97,316231
1.9892,0.2199,39.2200,89,97,316234
2.1212,0.2590,38.5800,89,97,316238
1.9990,0.3128,39.5100,89,97,316241
1.7253,0.3275,39.4800,89,97,316244
1.5787,0.2933,39.5700,89,97,316249
1.7595,0.2493,39.2800,89,97,316252
1.9844,0.2199,39.4400,89,97,316255
2.1261,0.2639,38.5500,89,97,316259
1.9648,0.3177,39.4800,89,97,316262
1.6813,0.3226,39.5100,89,97,316265
1.6031,0.2884,39.3200,89,97,316269
1.7155,0.2248,39.4400,89,97,316272
2.0039,0.2151,39.3500,89,97,316275
2.0968,0.2835,39.5100,89,97,316278
1.9355,0.3177,39.5100,89,97,316282
1.6764,0.3617,39.3500,89,97,316285
1.5640,0.2786,39.4800,89,97,316289
1.7498,0.2199,39.3800,89,97,316293
2.0332,0.2102,39.4800,89,97,316296
2.0919,0.2786,39.5100,89,97,316299
1.9013,0.3324,39.4100,89,97,316303
1.6373,0.3177,39.4800,89,97,316306
1.6031,0.2737,39.3200,89,97,316309
1.7644,0.1906,39.5100,89,97,316313
2.0870,0.2248,39.4800,89,97,316316
2.1408,0.2981,39.4100,89,97,316319
1.9208,0.3275,39.4800,89,97,316322
1.7009,0.3226,39.1900,89,97,316326
1.6569,0.2639,39.3800,89,97,316329
1.8719,0.2102,39.5700,89,97,316333
2.1603,0.2346,39.4400,89,97,316337
2.1848,0.2933,39.5100,89,97,316340
2.0186,0.3568,39.2500,89,97,316343
1.7644,0.3079,39.5100,89,97,316347
1.7595,0.2493,39.3800,89,97,316350
1.9941,0.2199,39.4800,89,97,316353
2.2385,0.2444,39.4800,89,97,316357
2.2727,0.3128,39.4100,89,97,316360
1.9844,0.3324,39.4800,89,97,316363
1.7644,0.3030,38.8400,89,97,316367
1.7693,0.2639,39.5100,88,97,316370
1.5982,0.2933,39.4800,88,97,316375
1.6325,0.2346,39.4800,88,97,316378
1.8817,0.2199,39.3500,88,97,316381
2.0430,0.2590,39.4800,88,97,316385
1.9697,0.3079,39.2800,88,97,316388
1.6618,0.3372,39.4400,88,97,316391
1.4712,0.2884,39.5100,88,97,316394
1.5836,0.2444,39.3800,88,97,316398
1.8280,0.2102,39.4400,88,97,316401
2.0528,0.2786,39.1900,88,97,316404
1.8866,0.3226,39.3500,88,97,316408
1.6325,0.3128,39.4800,88,97,316411
1.4565,0.2884,39.4800,88,97,316414
1.5738,0.2248,39.3800,88,97,316419
1.9013,0.2297,38.6500,88,97,316422
2.0088,0.2786,39.4800,88,97,316425
1.8671,0.3177,39.4100,88,97,316429
1.5836,0.3372,39.4800,88,97,316432
1.4712,0.2786,39.5100,88,97,316435
1.6667,0.2297,39.6000,88,97,316439
1.9697,0.2151,39.5100,88,97,316442
2.2092,0.2835,39.3500,88,97,316445
2.1359,0.3275,39.4400,88,97,316448
2.0577,0.3177,39.5100,88,97,316452
2.1359,0.2835,39.4400,88,97,316455
2.3949,0.2151,39.5700,88,97,316459
2.7175,0.2248,39.3800,88,97,316463
2.7077,0.2835,39.4100,88,97,316466
2.3656,0.3079,39.6400,88,97,316469
1.9648,0.3226,39.3200,88,97,316473
1.7058,0.2639,39.4800,88,97,316476
1.7742,0.2151,39.3800,88,97,316479
1.8866,0.2346,39.3800,88,97,316483
1.8280,0.2981,39.5100,88,97,316486
1.5689,0.3275,39.4400,88,97,316489
1.3050,0.3079,39.4100,88,97,316492
1.3050,0.2688,39.2200,88,97,316496
1.4956,0.2102,39.4400,88,97,316499
1.7693,0.2297,39.5100,88,97,316503
1.8231,0.2981,39.5100,88,97,316507
1.6031,0.3275,39.6000,88,97,316510
1.4370,0.3128,39.2800,88,97,316513
1.4174,0.2590,39.4400,88,97,316517
1.6520,0.2053,39.4100,88,97,316520
1.9110,0.2297,39.5100,88,97,316523
1.9110,0.3030,39.4800,88,97,316527
1.7302,0.3421,39.3200,88,97,316530
1.4809,0.3079,39.4800,88,97,316533
1.5103,0.2493,39.4100,88,97,316537
1.7449,0.2053,39.4800,88,97,316540
1.9795,0.2444,39.4800,88,97,316544
1.9795,0.3226,39.4400,88,97,316547
1.6911,0.3519,39.4800,88,97,316551
1.5249,0.3079,39.3800,88,97,316554
1.5543,0.2395,39.5100,88,97,316557
1.8182,0.2053,39.5100,88,97,316561
2.0870,0.2542,39.4400,88,97,316564
1.9746,0.3128,39.4800,88,97,316567
1.7253,0.3421,39.3200,88,97,316571
1.5298,0.2933,39.4800,88,97,316574
1.6178,0.2297,39.5100,88,97,316577
1.9013,0.2151,39.4100,88,97,316581
2.0772,0.2590,39.4800,88,97,316584
2.0186,0.3275,39.2500,88,97,316588
1.7204,0.3324,39.4100,88,97,316591
1.5591,0.2933,39.5100,88,97,316595
1.6862,0.2835,39.4400,88,97,316598
1.9501,0.2493,39.4800,88,97,316601
2.1799,0.2884,39.2500,88,97,316605
2.0039,0.3324,39.3800,88,97,316608
1.7107,0.3177,39.4400,88,97,316611
1.5885,0.2884,39.6000,88,97,316615
1.7302,0.2248,39.4100,88,97,316618
2.0528,0.2199,39.0000,88,97,316621
2.1554,0.2737,39.4800,88,97,316625
2.0186,0.3226,39.3800,88,97,316628
1.7155,0.3226,39.5700,88,97,316632
1.6325,0.2737,39.4800,88,97,316636
1.8182,0.2297,39.4400,88,97,316639
2.0870,0.2151,39.4100,88,97,316642
2.2287,0.2884,39.3500,88,97,316645
2.0088,0.3226,39.4100,88,97,316649
1.7546,0.3177,39.4800,88,97,316652
1.7107,0.2688,39.3800,88,97,316655
1.8915,0.2151,39.5700,88,97,316659
2.2043,0.2248,39.3800,88,97,316662
2.2630,0.2933,39.4400,88,97,316665
2.0479,0.3226,39.5700,88,97,316669
1.8133,0.3275,39.3800,88,97,316673
1.7595,0.2639,39.5100,88,97,316676
2.0088,0.2199,39.2200,88,97,316680
2.2532,0.2297,39.4100,88,97,316683
2.2727,0.2884,39.6400,88,97,316686
2.0479,0.3324,39.4400,88,97,316689
1.7986,0.3079,39.5100,88,97,316693
1.8280,0.2688,39.2500,88,97,316696
2.0039,0.1955,39.4100,88,97,316699
2.2532,0.2542,39.4400,88,97,316703
2.2630,0.2981,39.4800,88,97,316706
2.0137,0.3324,39.5100,88,97,316709
1.8133,0.3226,39.3200,88,97,316713
1.7791,0.2542,39.4100,88,97,316717
2.0039,0.2053,39.4100,88,97,316720
2.2141,0.2444,39.4800,88,97,316724
2.1652,0.3079,39.5400,88,97,316727
1.9159,0.3421,39.3200,88,97,316730
1.6520,0.3079,39.4100,88,97,316734
1.6813,0.2444,39.2800,88,97,316737
1.8866,0.2053,39.4800,88,97,316740
2.0919,0.2639,39.5100,88,97,316743
2.0479,0.3177,39.4100,88,97,316747
1.7302,0.3275,39.7000,88,97,316750
1.5494,0.3128,39.3500,88,97,316753
1.5689,0.2346,39.4400,88,97,316758
1.8182,0.2053,39.5100,88,97,316761
2.0235,0.2590,39.4400,88,97,316764
1.9159,0.3128,39.5100,88,97,316768
1.6716,0.3275,39.2800,88,97,316771
1.4663,0.2884,39.4800,88,97,316774
1.5738,0.2297,39.5100,88,97,316778
1.8328,0.2102,39.4400,88,97,316781
1.9892,0.2590,39.4800,88,97,316784
1.9208,0.3372,39.2200,88,97,316787
1.6178,0.3275,39.3800,88,97,316791
1.4614,0.2835,39.5100,88,97,316794
1.5885,0.2297,39.4100,88,97,316797
1.8573,0.2102,39.4800,88,97,316802
2.0674,0.2835,39.3800,88,97,316805
1.8866,0.3275,39.4100,88,97,316808
1.6080,0.3079,39.4800,88,97,316812
1.4809,0.2835,39.5100,88,97,316815
1.6227,0.2395,39.5100,88,97,316818
1.9355,0.2248,39.3200,88,97,316822
2.0332,0.2737,39.4800,88,97,316825
1.8817,0.3226,39.3800,88,97,316828
1.5885,0.3226,39.4800,88,97,316832
1.5005,0.3079,39.4800,88,97,316835
1.6862,0.2151,39.4400,88,97,316838
1.9746,0.2102,39.4800,88,97,316841
2.0870,0.2835,39.3800,88,97,316846
1.8915,0.3177,39.4800,88,97,316849
1.5982,0.3177,39.4800,88,97,316852
1.5591,0.3079,39.4400,88,97,316856
1.7351,0.2151,39.4800,88,97,316859
2.0381,0.2297,39.3200,88,97,316862
2.0772,0.2933,39.3800,88,97,316866
1.8426,0.3226,39.5100,88,97,316869
1.6276,0.3372,39.4100,88,97,316872
1.5640,0.2639,39.5100,88,97,316876
1.8231,0.2199,39.2200,88,97,316879
2.0626,0.2346,39.3500,88,97,316882
2.0723,0.2884,39.4800,88,97,316887
1.8328,0.3275,39.4400,88,97,316890
1.6031,0.3079,39.4400,88,97,316893
1.6422,0.2688,39.2800,88,97,316896
1.8475,0.2102,39.4400,88,97,316900
2.0821,0.2346,39.4100,88,97,316903
2.0674,0.3079,39.3800,88,97,316906
1.8133,0.3275,39.4800,88,97,316910
1.6227,0.3079,39.4800,88,97,316913
1.6276,0.2542,39.4400,88,97,316916
1.8719,0.2297,39.3800,88,97,316920
2.0968,0.2493,39.4800,88,97,316923
2.0479,0.3128,39.6000,88,97,316926
1.8133,0.3421,39.3800,88,97,316931
1.5836,0.2981,39.3800,88,97,316934
1.6520,0.2933,39.3800,88,97,316937
1.8817,0.2004,39.4400,88,97,316941
2.0870,0.2542,39.5100,88,97,316944
2.0332,0.3079,38.5200,88,97,316947
1.7400,0.3275,39.4400,88,97,316950
1.5787,0.2981,39.2800,88,97,316954
1.6422,0.2297,39.3800,88,97,316957
1.9013,0.2053,39.4800,88,97,316960
2.1017,0.2639,39.4400,88,97,316964
1.9941,0.3128,39.4800,88,97,316967
1.7498,0.3324,39.2500,88,97,316971
1.5445,0.2933,39.4800,88,97,316975
1.6569,0.2297,39.5100,88,97,316978
1.9306,0.2151,39.4800,88,97,316981
1.6813,0.2248,39.4800,88,97,316985
1.9599,0.2102,39.5100,88,97,316988
2.1261,0.2835,39.3500,88,97,316992
1.9208,0.3226,39.5100,88,97,316995
1.6667,0.3324,39.3500,88,97,316998
1.5885,0.2737,39.5100,88,97,317002
1.7253,0.2199,39.4800,88,97,317005
2.0479,0.2199,39.4100,88,97,317008
2.1065,0.2786,39.4100,88,97,317011
1.9453,0.3275,39.3800,88,97,317016
1.6618,0.3079,38.5800,88,97,317019
1.6129,0.2737,39.4800,88,97,317022
1.8328,0.2151,39.4100,88,97,317026
2.1017,0.2199,39.4800,88,97,317029
2.2043,0.2933,39.2800,88,97,317032
1.9550,0.3275,39.4800,88,97,317036
1.7302,0.3079,39.6000,88,97,317039
1.7302,0.2639,39.4800,88,97,317042
1.9550,0.2102,39.4800,88,97,317046
2.2825,0.2395,39.2200,88,97,317049
2.2678,0.2981,39.3800,88,97,317052
2.0137,0.3275,39.4800,88,97,317056
1.7840,0.3128,39.4400,88,97,317060
1.7693,0.2542,39.4100,88,97,317063
2.0479,0.2248,39.2800,88,97,317066
2.2532,0.2444,39.3800,88,97,317070
2.2092,0.3030,39.4100,88,97,317073
1.9257,0.3275,39.5700,88,97,317076
1.6764,0.3079,39.4800,88,97,317080
1.7058,0.2493,39.3200,88,97,317083
1.8768,0.2102,39.4800,88,97,317086
2.0968,0.2444,39.4100,88,97,317090
2.0186,0.3324,39.5100,88,97,317093
1.7253,0.3275,39.5100,88,97,317096
1.5249,0.3030,39.4400,88,97,317100
1.5445,0.2395,39.5100,88,97,317104
1.8084,0.2151,39.4100,88,97,317107
1.9941,0.2493,39.4400,88,97,317110
1.9062,0.3128,39.4800,88,97,317114
1.6667,0.3324,39.3800,88,97,317117
1.4614,0.2933,39.4800,88,97,317120
1.5640,0.2346,39.2500,88,97,317124
1.8084,0.2102,39.3200,88,97,317127
1.9990,0.2590,39.4800,88,97,317130
1.9257,0.3226,39.4100,88,97,317134
1.6227,0.3226,39.4800,88,97,317137
1.5054,0.2981,39.2500,88,97,317140
1.5836,0.2297,39.4100,88,97,317145
1.8573,0.2102,39.4400,88,97,317148
2.0626,0.2639,39.4800,88,97,317151
1.9941,0.3177,39.5100,88,97,317154
1.8719,0.3421,39.2500,88,97,317158
1.8426,0.2884,39.4400,88,97,317161
2.1505,0.2199,39.4100,88,97,317164
2.5611,0.2102,39.4800,88,97,317168
2.7810,0.3177,39.4800,88,97,317171
2.6588,0.3324,39.3800,88,97,317174
2.2630,0.3226,39.4800,88,97,317178
2.0186,0.2835,39.3500,88,97,317181
1.9697,0.2199,39.5100,88,97,317185
2.0626,0.2102,39.5100,88,97,317189
2.0479,0.2835,39.3200,88,97,317192
1.7204,0.3226,39.4400,88,97,317195
1.4027,0.3275,39.3800,88,97,317199
1.2610,0.2590,39.4400,88,97,317202
1.4321,0.2151,39.5100,88,97,317205
1.7107,0.2248,39.3500,88,97,317208
1.7986,0.2835,39.4100,88,97,317212
1.6471,0.3275,39.3200,88,97,317215
1.3930,0.3128,39.4100,88,97,317218
1.3587,0.2542,39.4800,88,97,317222
1.5982,0.2151,39.4100,88,97,317225
1.8524,0.2102,39.5100,88,97,317229
1.9599,0.2981,39.3500,88,97,317233
1.7058,0.3226,39.4800,88,97,317236
1.4761,0.3079,39.5400,88,97,317239
1.5054,0.2639,39.4800,88,97,317243
1.6862,0.2053,39.4800,88,97,317246
1.9990,0.2493,39.2200,88,97,317249
1.9697,0.2933,39.4100,88,97,317253
1.7204,0.3226,39.4800,88,97,317256
1.4956,0.2884,39.4800,88,97,317259
1.5152,0.2444,39.5100,88,97,317262
1.7937,0.2151,39.3200,88,97,317266
2.0137,0.2444,39.4800,88,97,317270
1.9941,0.3128,39.3800,88,97,317273
1.7204,0.3275,38.6200,88,97,317277
1.5200,0.2933,39.5700,88,97,317280
1.5934,0.2395,39.3500,88,97,317283
1.8084,0.2053,39.4800,88,97,317287
2.0772,0.2590,39.3800,88,97,317290
1.9990,0.3079,39.7700,88,97,317293
1.7546,0.3177,39.4800,88,97,317297
1.5640,0.2933,39.5400,88,97,317300
1.6325,0.2346,39.3500,88,97,317303
1.9208,0.2053,39.4800,88,97,317306
2.1163,0.2639,39.4800,88,97,317310
2.0235,0.3128,39.4800,88,97,317314
1.7693,0.3617,39.4100,88,97,317317
1.5934,0.2884,39.5100,88,97,317321
1.7253,0.2346,39.2500,88,97,317324
1.9892,0.2102,39.3800,88,97,317327
2.1554,0.2590,39.4800,88,97,317331
2.0528,0.3226,39.4400,88,97,317334
1.7644,0.3226,39.4800,88,97,317337
1.6764,0.2981,39.1900,88,97,317341
1.7742,0.2248,39.2500,88,97,317344
2.0479,0.2053,39.4400,88,97,317347
2.1945,0.2493,39.4800,88,97,317351
2.0577,0.3128,39.5400,88,97,317355
1.8377,0.3372,39.3200,88,97,317358
1.6911,0.2835,39.4400,88,97,317361
1.8573,0.2199,38.8400,88,97,317365
2.1359,0.2102,39.4800,88,97,317368
2.2630,0.2737,39.5100,88,97,317371
2.1163,0.3275,39.4100,88,97,317375
1.8426,0.3226,39.4800,88,97,317378
1.7742,0.2786,39.3800,88,97,317381
1.9355,0.2151,39.4800,88,97,317385
2.2141,0.2151,39.5100,88,97,317388
2.3363,0.2884,39.4400,88,97,317391
2.1017,0.3226,39.4800,88,97,317395
1.8573,0.3177,39.3500,88,97,317399
1.7791,0.2737,39.4400,88,97,317402
1.9697,0.2004,39.4800,88,97,317406
2.2776,0.2346,39.3800,88,97,317409
2.2923,0.2884,39.4400,88,97,317412
2.1114,0.3275,39.2500,88,97,317416
1.8182,0.3128,39.4100,88,97,317419
1.7693,0.2639,39.4800,88,97,317422
1.9892,0.2004,39.4800,88,97,317425
2.2190,0.2297,39.4800,88,97,317429
2.2825,0.3079,39.1900,88,97,317432
1.9648,0.3275,39.4800,88,97,317435
1.7058,0.2981,39.5400,88,97,317440
1.6911,0.2688,39.4800,88,97,317443
1.8964,0.2053,39.5100,88,97,317446
2.1652,0.2297,39.3500,88,97,317450
2.0919,0.3079,39.5100,88,97,317453
1.8377,0.3324,39.3800,88,97,317456
1.5591,0.2981,39.5100,88,97,317460
1.5689,0.2493,39.5100,88,97,317463
1.8231,0.2102,39.3200,88,97,317466
2.0235,0.2493,39.4400,88,97,317470
1.9795,0.3079,39.3500,88,97,317473
1.6813,0.3226,39.4800,88,97,317476
1.4809,0.3275,39.5100,88,97,317479
1.5543,0.2297,39.3500,88,97,317484
1.7840,0.2053,39.4800,88,97,317487
2.0137,0.2542,39.3200,88,97,317490
1.9013,0.3128,39.4100,88,97,317494
1.6325,0.3226,39.5100,88,97,317497
1.4663,0.3030,39.4400,88,97,317500
1.5494,0.2395,39.5100,88,97,317504
1.8768,0.2102,39.2500,88,97,317507
1.9990,0.2542,39.4400,88,97,317510
1.8964,0.3128,39.5100,88,97,317514
1.6325,0.3275,39.4400,88,97,317517
1.4663,0.2835,39.4800,88,97,317520
1.6276,0.2444,39.2200,88,97,317524
1.8768,0.2102,39.3800,88,97,317528
2.0186,0.2590,39.4100,88,97,317531
1.8768,0.3177,39.4800,88,97,317534
1.6031,0.3079,39.4800,88,97,317538
1.5249,0.3030,39.3200,88,97,317541
1.6471,0.2297,39.4100,88,97,317544
1.9208,0.2102,39.4100,88,97,317548
2.0430,0.2737,39.4800,88,97,317551
1.8719,0.3226,39.5100,88,97,317554
1.6325,0.3275,39.4400,88,97,317558
1.5152,0.2737,39.4800,88,97,317561
1.7058,0.2199,39.3200,88,97,317564
1.9648,0.2151,39.4800,88,97,317569
2.0626,0.3128,39.4100,88,97,317572
1.8817,0.3275,39.4100,88,97,317575
1.6178,0.3275,39.5100,88,97,317579
1.5934,0.2688,39.3500,88,97,317582
1.7498,0.2102,39.4800,88,97,317585
2.0235,0.2199,39.5400,88,97,317588
2.1163,0.2933,39.3500,88,97,317592
2.0821,0.2297,39.4400,88,97,317596
2.0821,0.2933,39.6000,88,97,317599
1.9159,0.3372,39.2500,88,97,317602
1.6276,0.3079,39.4100,88,97,317605
1.6227,0.2737,39.4100,88,97,317609
1.8573,0.2053,39.4800,88,97,317613
2.1065,0.2395,39.5100,88,97,317616
2.1212,0.3079,39.3800,88,97,317620
1.8231,0.3372,39.4400,88,97,317623
1.6227,0.3030,39.3800,88,97,317626
1.6373,0.2395,39.4100,88,97,317630
1.8866,0.2004,39.4800,88,97,317633
2.1310,0.2493,39.4400,88,97,317636
2.0577,0.3128,39.4800,88,97,317640
1.8084,0.3372,39.4100,88,97,317643
1.5836,0.2933,39.4800,88,97,317646
1.6422,0.2297,39.5100,88,97,317649
1.9257,0.2151,39.3200,88,97,317654
2.1114,0.2493,39.4800,88,97,317657
2.0430,0.3177,39.3500,88,97,317660
1.7498,0.3275,39.3800,88,97,317664
1.5689,0.2884,39.5100,88,97,317667
1.6764,0.2493,39.4100,88,97,317670
1.9257,0.2053,39.5100,88,97,317674
2.1554,0.2639,39.2500,88,97,317677
1.9892,0.3128,39.6400,88,97,317680
1.7107,0.3177,39.4800,88,97,317684
1.5640,0.2884,39.4800,88,97,317687
1.6813,0.2248,39.5700,88,97,317690
2.0088,0.2297,39.2200,88,97,317694
2.1212,0.2737,39.4100,88,97,317698
1.9648,0.3128,39.5400,88,97,317701
1.6911,0.3470,39.4800,88,97,317704
1.5640,0.2786,39.4800,88,97,317708
1.7449,0.2297,39.3500,88,97,317711
1.9941,0.2151,39.5100,88,97,317714
2.1261,0.2786,39.3800,88,97,317718
1.9355,0.3275,39.7300,88,97,317721
1.6716,0.3226,39.5100,88,97,317724
1.6129,0.2835,39.3500,88,97,317728
1.7693,0.2151,39.5700,88,97,317731
2.0821,0.2248,39.3800,88,97,317734
2.1652,0.2737,39.4800,88,97,317739
1.9746,0.3226,39.5400,88,97,317742
1.7302,0.3177,39.3800,88,97,317745
1.6667,0.2688,39.5400,88,97,317749
1.8964,0.2151,39.3200,88,97,317752
2.1603,0.2395,39.5100,88,97,317755
2.2385,0.2786,39.5100,88,97,317758
2.0479,0.3275,39.4800,88,97,317762
1.7889,0.3079,39.4800,88,97,317765
1.8182,0.2590,39.2500,88,97,317768
1.9746,0.2053,39.5700,88,97,317772
2.2385,0.2297,39.5100,88,97,317775
2.2678,0.3030,39.4400,88,97,317778
2.0039,0.3079,39.6000,88,97,317783
1.7986,0.3177,38.4300,88,97,317786
1.7400,0.2639,39.3800,88,97,317789
1.9306,0.2004,39.5100,88,97,317793
2.1652,0.2395,39.4800,88,97,317796
2.1212,0.2981,39.5100,88,97,317799
1.8817,0.3666,39.3200,88,97,317802
1.5934,0.3079,39.3800,88,97,317806
1.5738,0.2444,39.7700,88,97,317809
1.7840,0.2053,39.5100,88,97,317812
2.0088,0.2395,39.5100,88,97,317816
2.0039,0.3177,39.3800,88,97,317819
1.6960,0.3275,39.4800,88,97,317822
1.5054,0.2933,39.3200,88,97,317827
1.5200,0.2444,39.5100,88,97,317830
1.7644,0.2053,39.4800,88,97,317833
1.9941,0.2493,39.4400,88,97,317837
1.9208,0.3275,39.4800,88,97,317840
1.6813,0.3275,39.3800,88,97,317843
1.4761,0.2933,39.5100,88,97,317846
1.5445,0.2297,39.4800,88,97,317850
1.8328,0.2102,39.3800,88,97,317853
2.0137,0.2542,39.5100,88,97,317856
1.9453,0.3177,39.2800,88,97,317860
1.6618,0.3275,39.3800,88,97,317863
1.5494,0.2884,39.4800,88,97,317867
1.7155,0.2346,39.3800,88,97,317871
2.0968,0.2053,39.4100,88,97,317874
2.4829,0.2737,39.1900,88,97,317877
2.4731,0.3079,39.4100,88,97,317881
2.3314,0.3177,39.5100,88,97,317884
2.2923,0.2835,39.4800,88,97,317887
2.4340,0.2248,39.4800,88,97,317891
2.6979,0.2297,39.3200,88,97,317894
2.6100,0.2688,39.5100,88,97,317897
2.2678,0.3226,39.3800,88,97,317900
1.8035,0.3226,39.4800,88,97,317904
1.5152,0.2933,39.4800,88,97,317907
1.5494,0.2199,39.3800,88,97,317911
1.7204,0.2102,39.4800,88,97,317915
1.8280,0.2688,39.3500,88,97,317918
1.6422,0.3177,39.4800,88,97,317921
1.4027,0.3177,39.5100,88,97,317925
1.3490,0.2835,39.3800,88,97,317928
1.4956,0.2199,39.4800,88,97,317931
1.8084,0.2102,39.4100,88,97,317935
1.8768,0.2786,39.4400,88,97,317938
1.6960,0.3226,39.4800,88,97,317941
1.4663,0.3177,39.3200,88,97,317945
1.4027,0.2542,39.5700,88,97,317948
1.6276,0.2151,39.2500,88,97,317952
1.8768,0.2102,39.4800,88,97,317955
1.9404,0.2884,39.5100,88,97,317959
1.7351,0.3275,39.4400,88,97,317962
1.4858,0.3079,39.5100,88,97,317965
1.4956,0.2688,39.4100,88,97,317969
1.6813,0.2053,39.4400,88,97,317972
1.9697,0.2297,39.5100,88,97,317975
1.9697,0.2981,39.4800,88,97,317979
1.7351,0.3275,39.4800,88,97,317982
1.5494,0.3275,39.2500,88,97,317985
1.5249,0.2542,39.4400,88,97,317989
1.7595,0.2004,39.4100,88,97,317992
1.9990,0.2395,39.5700,88,97,317996
1.9795,0.3079,39.5100,88,97,318000
1.7693,0.3372,39.3200,88,97,318003
1.5347,0.3030,39.4100,88,97,318006
1.5934,0.2444,39.4400,88,97,318009
1.8280,0.2004,39.4800,88,97,318013
2.0577,0.2444,39.4800,88,97,318016
2.0283,0.3177,39.3200,88,97,318019
1.7546,0.3177,39.4800,88,97,318023
1.5885,0.3030,39.5100,88,97,318026
1.6325,0.2346,39.5100,88,97,318029
1.9013,0.2004,39.5100,88,97,318033
2.1261,0.2639,39.4100,88,97,318036
2.0430,0.3128,39.4800,88,97,318040
1.7986,0.3275,39.3500,88,97,318044
1.6031,0.2933,39.4800,88,97,318047
1.6862,0.2297,39.4800,88,97,318050
1.9844,0.2151,39.4400,88,97,318053
2.1652,0.2493,39.4800,88,97,318057
2.1017,0.3275,39.2800,88,97,318060
1.8035,0.3568,39.4100,88,97,318063
1.6764,0.2884,39.5100,88,97,318067
1.7791,0.2297,39.5400,88,97,318070
2.0479,0.2102,39.4800,88,97,318073
2.2776,0.2981,39.2200,88,97,318077
2.1017,0.3226,39.3800,88,97,318081
1.8182,0.3275,39.4100,88,97,318084
1.7009,0.2835,39.4800,88,97,318088
1.8573,0.2199,39.5100,88,97,318091
2.1896,0.2248,39.3500,88,97,318094
2.2874,0.2688,39.4800,88,97,318098
2.1359,0.3177,39.3800,88,97,318101
1.8524,0.3226,39.4800,88,97,318104
1.7644,0.2688,39.4800,88,97,318107
1.9550,0.2248,39.4400,88,97,318111
2.2239,0.2151,39.4800,88,97,318114
2.3509,0.2981,39.3800,88,97,318117
2.1212,0.3226,39.5700,88,97,318121
1.8573,0.3177,39.5100,88,97,318125
1.8133,0.2786,39.3800,88,97,318128
1.9795,0.2102,39.5100,88,97,318132
2.2776,0.2493,39.3200,88,97,318135
2.3167,0.2688,39.4100,88,97,318138
2.0674,0.3226,39.7300,88,97,318142
1.8182,0.3226,39.3800,88,97,318145
1.7400,0.2590,39.5100,88,97,318148
1.9648,0.2151,39.2800,88,97,318152
2.1701,0.2199,39.8300,88,97,318155
2.1652,0.2981,39.5700,88,97,318158
1.9110,0.3275,39.4400,88,97,318161
1.6373,0.3030,39.4800,88,97,318166
1.6373,0.2639,39.2200,88,97,318169
1.7986,0.2053,39.4400,88,97,318172
2.0235,0.2297,39.5400,88,97,318176
2.0088,0.3030,39.4400,88,97,318179
1.7351,0.3275,39.5100,88,97,318182
1.5396,0.3275,39.3500,88,97,318186
1.5103,0.2542,39.4400,88,97,318189
1.7351,0.2004,39.4400,88,97,318192
1.9648,0.2444,39.4800,88,97,318196
1.9257,0.3030,39.5100,88,97,318199
1.6862,0.3372,39.3200,87,97,318202
1.9062,0.3421,39.3500,87,97,318206
1.6227,0.3226,39.5100,87,97,318210
1.4761,0.2981,39.2800,87,97,318214
1.5445,0.2297,39.4400,87,97,318217
1.8084,0.1906,39.5100,87,97,318220
2.0088,0.2639,39.4400,87,97,318223
1.8915,0.3079,39.7300,87,97,318227
1.6618,0.3324,39.2500,87,97,318230
1.4712,0.2835,39.4400,87,97,318233
1.5885,0.2346,39.5100,87,97,318237
1.8719,0.2102,39.4400,87,97,318240
2.0332,0.2639,39.5100,87,97,318243
1.9453,0.3372,39.2200,87,97,318247
1.6325,0.3324,39.3800,87,97,318251
1.4956,0.2786,39.4100,87,97,318254
1.6471,0.2248,39.4800,87,97,318258
1.9159,0.2102,39.5100,87,97,318261
2.0919,0.2835,39.3200,87,97,318264
1.9306,0.3177,39.4400,87,97,318268
1.6373,0.3226,39.4100,87,97,318271
1.5200,0.2786,39.5100,87,97,318274
1.6862,0.2199,39.5100,87,97,318277
2.0186,0.2102,39.4100,87,97,318281
2.0723,0.2688,39.4800,87,97,318284
1.9062,0.3275,39.6000,87,97,318287
1.6422,0.3177,39.4800,87,97,318291
1.5494,0.2688,39.4800,87,97,318295
1.7449,0.2151,39.3800,87,97,318298
2.0137,0.2151,39.5100,87,97,318302
2.1114,0.2884,39.3200,87,97,318305
1.8671,0.3470,39.4800,87,97,318308
1.6227,0.3128,39.5100,87,97,318312
1.5982,0.2688,39.4100,87,97,318315
1.7889,0.2102,39.4800,87,97,318318
2.1310,0.2395,39.2500,87,97,318322
2.1114,0.2981,39.4400,87,97,318325
1.8622,0.3324,39.5100,87,97,318328
1.6276,0.3421,39.4400,87,97,318331
1.6129,0.2542,39.5700,87,97,318336
1.8915,0.2199,39.2800,87,97,318339
2.1114,0.2297,39.3800,87,97,318342
2.0919,0.2981,39.4800,87,97,318346
1.8426,0.3275,39.4800,87,97,318349
1.6080,0.3030,39.4400,87,97,318352
1.6569,0.2590,38.5500,87,97,318356
1.8622,0.2053,39.4400,87,97,318359
2.1163,0.2444,39.3500,87,97,318362
2.0577,0.3079,39.4800,87,97,318366
1.7937,0.3275,39.4800,87,97,318369
1.6080,0.3030,39.4400,87,97,318372
1.6227,0.2395,39.5100,87,97,318375
1.8964,0.2102,39.3500,87,97,318380
2.1017,0.2493,39.7300,87,97,318383
2.0332,0.3324,39.5700,87,97,318386
1.7937,0.3372,39.3500,87,97,318390
1.5689,0.2933,39.4800,87,97,318393
1.6618,0.2346,39.3500,87,97,318396
1.9110,0.2004,39.4100,87,97,318400
2.1065,0.2542,39.4800,87,97,318403
2.0332,0.3226,39.3800,87,97,318406
1.7253,0.3226,39.5100,87,97,318410
1.5982,0.3030,39.3200,87,97,318413
1.6667,0.2346,39.4400,87,97,318416
1.9355,0.2053,39.5100,87,97,318419
2.1212,0.2639,39.4400,87,97,318424
1.9892,0.3128,38.6500,87,97,318427
1.7644,0.3324,39.1900,87,97,318430
1.5689,0.2835,39.0900,87,97,318434
1.6862,0.2199,39.4100,87,97,318437
1.9648,0.2395,39.4400,87,97,318440
2.1114,0.2688,39.4800,87,97,318444
2.0039,0.3617,39.3500,87,97,318447
1.7009,0.3275,39.4400,87,97,318450
1.5885,0.2786,39.4100,87,97,318454
1.7351,0.2297,39.4800,87,97,318457
2.0430,0.2199,39.4800,87,97,318460
2.1896,0.2786,39.3200,87,97,318465
1.9941,0.3372,39.4800,87,97,318468
1.7449,0.3226,39.3800,87,97,318471
1.6471,0.2737,39.5400,87,97,318474
1.8328,0.2151,38.7400,87,97,318478
2.1457,0.2102,39.4100,87,97,318481
2.2532,0.2786,39.5100,87,97,318484
2.0870,0.3275,39.2800,87,97,318488
1.8084,0.3079,39.4800,87,97,318491
1.7595,0.2688,39.4800,87,97,318494
1.9599,0.2151,39.4100,87,97,318498
2.2190,0.2199,39.4800,87,97,318501
2.3118,0.2933,39.2500,87,97,318504
2.0332,0.3226,39.3500,87,97,318509
1.7742,0.3128,39.5100,87,97,318512
1.7449,0.2639,39.4400,87,97,318515
1.9257,0.2199,39.5700,87,97,318519
2.2141,0.2395,39.1900,87,97,318522
2.1701,0.3030,39.4100,87,97,318525
1.8768,0.3226,39.6000,87,97,318528
1.6080,0.3128,39.4800,87,97,318532
1.5689,0.2542,39.4800,87,97,318535
1.8231,0.2199,39.3200,87,97,318538
2.0283,0.2688,39.4100,87,97,318542
2.0186,0.2981,39.4400,87,97,318545
1.7253,0.3324,39.4800,87,97,318548
1.4956,0.3030,39.4800,87,97,318553
1.5347,0.2542,39.3800,87,97,318556
1.7546,0.2053,39.4800,87,97,318559
2.0088,0.2493,39.4800,87,97,318563
1.9453,0.3324,39.5700,87,97,318566
1.6813,0.3275,39.5100,87,97,318569
1.4956,0.2981,39.4100,87,97,318572
1.5445,0.2395,39.4800,87,97,318576
1.8231,0.2053,39.3500,87,97,318579
2.0039,0.2542,39.4800,87,97,318582
1.9355,0.3128,39.5100,87,97,318586
1.6764,0.3324,39.3500,87,97,318589
1.4907,0.2884,39.4800,87,97,318593
1.6520,0.2297,39.3200,87,97,318597
1.9892,0.2102,39.4100,87,97,318600
2.2923,0.2542,39.5100,87,97,318603
2.3705,0.3226,39.4100,87,97,318607
2.2239,0.3226,39.5400,87,97,318610
2.2776,0.2933,39.1900,87,97,318613
2.4145,0.2248,39.3500,87,97,318617
2.6540,0.2053,39.4800,87,97,318620
2.7126,0.2590,39.5100,87,97,318623
2.4194,0.3128,39.4800,87,97,318626
2.0039,0.3421,38.4600,87,97,318630
1.6422,0.2933,39.4400,87,97,318633
1.6422,0.2248,39.4100,87,97,318637
1.7595,0.2151,39.4800,87,97,318641
1.8231,0.2688,39.4800,87,97,318644
1.6764,0.3275,39.4100,87,97,318647
1.4027,0.3226,39.4800,87,97,318651
1.3245,0.2835,39.3500,87,97,318654
1.4809,0.2199,39.4100,87,97,318657
1.7546,0.2151,39.4800,87,97,318661
1.9404,0.2981,39.3500,87,97,318664
1.7009,0.3226,39.5100,87,97,318667
1.4809,0.3226,39.3800,87,97,318671
1.3930,0.2737,39.4400,87,97,318674
1.5836,0.2102,39.4800,87,97,318678
1.8817,0.2590,39.3500,87,97,318682
1.9501,0.2884,39.4800,87,97,318685
1.7595,0.3324,39.4400,87,97,318688
1.4907,0.3128,39.4800,87,97,318691
1.4565,0.2590,39.5100,87,97,318695
1.6716,0.2102,39.4400,87,97,318698
1.9306,0.2248,39.6700,87,97,318701
2.0235,0.3030,39.2500,87,97,318705
1.7498,0.3275,39.4400,87,97,318708
1.5200,0.3030,39.4800,87,97,318711
1.5152,0.2542,39.4800,87,97,318715
1.7351,0.2053,39.4100,87,97,318718
2.0528,0.2542,39.7300,87,97,318722
2.0088,0.3079,39.4800,87,97,318726
1.7595,0.3324,39.4100,87,97,318729
1.5640,0.2933,39.4800,87,97,318732
1.5591,0.2395,39.5100,87,97,318735
1.8671,0.2199,39.3200,87,97,318739
2.0674,0.2493,39.4800,87,97,318742
2.0528,0.3079,39.3500,87,97,318745
1.7742,0.3275,39.4800,87,97,318749
1.5591,0.2981,39.5700,87,97,318752
1.6325,0.2444,39.4400,87,97,318755
1.8768,0.2004,39.4800,87,97,318759
2.1310,0.2590,39.3800,87,97,318763
2.0430,0.3128,39.4800,87,97,318766
1.7791,0.3275,39.5700,87,97,318770
1.6031,0.2981,39.4800,87,97,318773
1.6716,0.2346,39.5400,87,97,318776
1.9648,0.2102,39.3200,87,97,318779
2.1457,0.2542,39.5700,87,97,318783
2.0626,0.3128,39.5100,87,97,318786
1.8035,0.3324,39.4100,87,97,318789
1.6276,0.2884,39.4800,87,97,318793
1.7742,0.2395,39.0000,87,97,318796
2.0381,0.2151,39.4400,87,97,318799
2.2092,0.2542,39.4800,87,97,318803
2.1114,0.3226,39.4400,87,97,318807
1.8231,0.3226,39.4800,87,97,318810
1.7400,0.3079,39.2200,87,97,318814
1.8719,0.3324,39.5100,87,97,318817
1.7498,0.2933,39.5700,87,97,318821
1.9355,0.2248,39.3500,87,97,318824
2.1994,0.2248,39.4800,87,97,318827
2.3069,0.2786,39.4800,87,97,318831
2.1261,0.3275,39.4400,87,97,318834
1.8524,0.3079,39.6000,87,97,318837
1.8035,0.2737,39.3500,87,97,318840
1.9599,0.2151,39.5100,87,97,318844
2.2434,0.2199,39.5100,87,97,318848
2.3314,0.2933,39.5100,87,97,318851
2.0821,0.3226,39.4800,87,97,318855
1.8426,0.3226,39.2800,87,97,318858
1.7644,0.2688,39.3800,87,97,318861
1.9404,0.2102,39.5100,87,97,318865
2.2141,0.2346,39.4400,87,97,318868
2.1994,0.2884,39.4800,87,97,318871
2.0235,0.3421,39.2500,87,97,318875
1.6716,0.3079,39.4100,87,97,318878
1.6227,0.2590,39.4800,87,97,318881
1.8426,0.2004,39.4400,87,97,318885
2.0528,0.2346,39.4800,87,97,318888
2.1017,0.3079,39.2800,87,97,318892
1.7840,0.3324,39.4400,87,97,318895
1.5298,0.3030,39.4100,87,97,318899
1.5200,0.2493,39.5700,87,97,318902
1.7400,0.2053,39.4800,87,97,318905
2.0088,0.2493,39.3800,87,97,318909
1.9501,0.3128,39.4400,87,97,318912
1.6960,0.3079,39.5400,87,97,318915
1.4614,0.2981,39.5100,87,97,318919
1.4956,0.2395,39.5100,87,97,318922
1.7693,0.2151,39.3500,87,97,318925
1.9697,0.2542,39.5700,87,97,318929
1.9355,0.3226,39.4100,87,97,318932
1.6422,0.3275,39.4100,87,97,318936
1.4516,0.2688,39.4800,87,97,318940
1.5298,0.2346,39.3500,87,97,318943
1.7840,0.2102,39.5100,87,97,318946
2.0186,0.2542,39.3200,87,97,318949
1.9013,0.3128,39.4400,87,97,318953
1.6276,0.3226,39.5100,87,97,318956
1.4761,0.2884,39.4400,87,97,318959
1.5543,0.2297,39.4800,87,97,318963
1.8671,0.2199,39.2500,87,97,318966
2.0430,0.2639,39.4400,87,97,318969
1.8915,0.3177,39.5100,87,97,318973
1.6618,0.3324,39.4100,87,97,318977
1.4809,0.2884,39.5100,87,97,318980
1.6471,0.2444,39.2500,87,97,318984
1.8964,0.2297,39.4100,87,97,318987
2.0381,0.2590,39.4100,87,97,318990
1.8915,0.3324,39.4400,87,97,318994
1.6227,0.3226,39.5100,87,97,318997
1.5347,0.2933,39.3800,87,97,319000
1.6667,0.2346,39.4400,87,97,319003
1.9550,0.2053,39.3800,87,97,319007
2.0626,0.2688,39.4800,87,97,319010
1.8866,0.3079,39.5700,87,97,319013
1.6422,0.3275,39.4100,87,97,319017
1.5347,0.2688,39.5100,87,97,319021
1.7302,0.2248,39.4100,87,97,319024
1.9795,0.2151,39.5700,87,97,319028
2.0821,0.2835,39.4800,87,97,319031
1.8915,0.3275,39.4100,87,97,319034
1.6178,0.3275,39.4800,87,97,319038
1.5689,0.2737,39.3200,87,97,319041
1.7449,0.2102,39.3800,87,97,319044
2.0186,0.2199,39.5400,87,97,319047
2.1065,0.3079,39.4100,87,97,319051
1.8622,0.3275,39.4800,87,97,319054
1.6471,0.3226,39.2200,87,97,319057
1.5885,0.2639,39.3800,87,97,319062
1.7889,0.2102,39.5100,87,97,319065
2.0674,0.2297,39.4400,87,97,319068
2.0772,0.2933,39.6000,87,97,319072
1.8964,0.3275,39.2200,87,97,319075
1.6080,0.3177,39.3800,87,97,319078
1.5836,0.2542,39.4400,87,97,319082
1.8133,0.2004,39.4400,87,97,319085
2.0626,0.2346,39.5100,87,97,319088
2.1017,0.3177,39.8000,87,97,319092
1.8035,0.3324,39.4800,87,97,319095
1.5934,0.3030,39.3800,87,97,319098
1.6031,0.2688,39.5700,87,97,319101
1.8768,0.2053,39.5100,87,97,319106
2.0968,0.2493,39.4400,87,97,319109
2.0479,0.3079,39.3500,87,97,319112
1.7937,0.3421,39.3800,87,97,319116
1.5640,0.2981,39.7300,87,97,319119
1.6080,0.2395,39.4100,87,97,319122
1.8915,0.2151,39.3500,87,97,319126
2.0772,0.2542,39.5100,87,97,319129
2.0332,0.3128,39.3800,87,97,319132
1.7351,0.3324,39.4100,87,97,319136
1.5445,0.2884,39.4800,87,97,319139
1.6373,0.2590,39.3200,87,97,319142
1.8719,0.2053,39.4800,87,97,319145
2.1212,0.2639,39.2500,87,97,319150
1.9844,0.3226,39.3500,87,97,319153
1.6862,0.3226,39.4800,87,97,319156
1.5396,0.2933,39.5400,87,97,319160
1.6325,0.2297,39.5100,87,97,319163
1.9599,0.2297,39.1900,87,97,319166
2.0870,0.2639,39.4400,87,97,319170
1.9453,0.3079,39.5400,87,97,319173
1.7058,0.3275,39.4800,87,97,319176
1.5347,0.2835,39.6700,87,97,319180
1.7155,0.2395,39.3200,87,97,319183
1.9648,0.2151,39.4400,87,97,319186
2.1212,0.2688,39.3800,87,97,319191
1.9648,0.3177,39.4800,87,97,319194
1.6862,0.3226,39.4800,87,97,319197
1.6422,0.2981,39.3200,87,97,319201
1.7644,0.2248,39.4400,87,97,319204
2.0772,0.2102,39.3500,87,97,319207
2.1701,0.2786,39.5100,87,97,319210
2.0039,0.3275,39.4800,87,97,319214
1.7840,0.3226,39.3800,87,97,319217
1.7009,0.2737,39.6700,87,97,319220
1.9208,0.2199,39.2800,87,97,319224
2.1701,0.2151,39.4100,87,97,319227
2.2532,0.2786,39.5100,87,97,319230
2.0528,0.3275,39.4400,87,97,319235
1.7742,0.3226,39.4800,87,97,319238
1.7449,0.2688,39.2500,87,97,319241
1.9062,0.2102,39.4800,87,97,319245
2.1603,0.2297,39.4400,87,97,319248
2.2043,0.2933,39.4400,87,97,319251
1.9159,0.3275,39.5100,87,97,319254
1.6960,0.3177,39.2200,87,97,319258
1.5885,0.2639,39.3800,87,97,319261
1.7546,0.2004,39.5400,87,97,319264
2.0039,0.2346,39.4400,87,97,319268
1.9941,0.2981,39.4800,87,97,319271
1.7937,0.3470,39.3200,87,97,319275
1.5298,0.3128,39.4100,87,97,319279
1.4907,0.2493,39.4100,87,97,319282
1.7155,0.2053,39.4800,87,97,319285
1.9550,0.2395,38.6500,87,97,319289
1.9697,0.3030,39.3500,87,97,319292
1.6813,0.3275,39.4800,87,97,319295
1.4809,0.3030,39.3500,87,97,319298
1.4956,0.2542,39.4800,87,97,319302
1.7449,0.2053,39.5100,87,97,319305
1.9892,0.2493,39.4400,87,97,319308
1.9257,0.3079,39.4800,87,97,319312
1.6862,0.3275,39.3800,87,97,319315
1.4565,0.3030,39.5100,87,97,319319
1.5347,0.2444,39.4800,87,97,319323
1.8377,0.2199,39.3800,87,97,319326
2.1017,0.2542,39.5700,87,97,319329
2.1603,0.3226,39.3200,87,97,319333
2.0039,0.3079,39.3200,87,97,319336
1.9795,0.2884,39.4800,87,97,319339
2.2727,0.2444,39.4100,87,97,319343
2.5758,0.2102,39.4800,87,97,319346
2.8201,0.2688,39.2200,87,97,319349
2.5562,0.3226,39.3800,87,97,319352
2.1163,0.3226,39.5100,87,97,319356
1.7937,0.2884,39.4400,87,97,319360
1.7253,0.2151,39.4400,87,97,319363
1.8964,0.2199,39.2500,87,97,319367
1.8866,0.2688,39.5700,87,97,319370
1.6618,0.3421,39.4100,87,97,319373
1.3636,0.3226,39.5400,87,97,319377
1.2366,0.2835,39.4800,87,97,319380
1.4125,0.2346,39.3800,87,97,319383
1.6862,0.2151,39.4800,87,97,319387
1.8475,0.2933,39.3800,87,97,319390
1.6764,0.3226,39.4800,87,97,319393
1.4663,0.3226,39.5100,87,97,319397
1.3783,0.2884,39.4100,87,97,319400
1.5396,0.2248,39.4800,87,97,319404
1.8622,0.2151,39.3500,87,97,319408
1.9306,0.2835,39.4100,87,97,319411
1.7449,0.3226,39.4800,87,97,319414
1.5152,0.3226,39.2800,87,97,319417
1.4418,0.2590,39.4800,87,97,319421
1.6618,0.2102,39.2500,87,97,319424
1.5249,0.2737,39.3200,86,97,319428
1.7155,0.2199,39.4400,86,97,319431
1.9795,0.2395,39.4400,86,97,319434
1.9941,0.2981,39.5100,86,97,319438
1.7449,0.3324,39.5100,86,97,319441
1.5689,0.3079,39.2500,86,97,319444
1.5543,0.2542,39.4100,86,97,319449
1.8084,0.2395,39.3500,86,97,319452
2.0430,0.2444,39.4800,86,97,319455
2.0186,0.3079,39.5100,86,97,319459
1.7937,0.3372,39.3800,86,97,319462
1.5640,0.3030,39.4400,86,97,319465
1.6178,0.2297,39.3800,86,97,319469
1.8524,0.2053,39.5400,86,97,319472
2.0870,0.2493,39.4100,86,97,319475
2.0577,0.3226,39.3500,86,97,319478
1.7742,0.3079,39.4800,86,97,319482
1.5982,0.2884,39.3500,86,97,319485
1.6373,0.2346,39.4100,86,97,319489
1.9110,0.2053,39.5100,86,97,319493
2.1408,0.2542,39.4800,86,97,319496
2.0479,0.3372,39.4800,86,97,319499
1.8231,0.3372,39.2500,86,97,319503
1.6129,0.2884,39.4800,86,97,319506
1.7107,0.2346,39.5100,86,97,319509
2.0039,0.2151,39.4400,86,97,319513
2.1848,0.2639,39.5100,86,97,319516
2.1212,0.3226,39.1900,86,97,319519
1.8133,0.3275,39.5100,86,97,319523
1.6618,0.2737,39.4400,86,97,319526
1.7986,0.2297,39.4400,86,97,319529
2.0772,0.2102,39.4800,86,97,319533
2.2972,0.2786,39.3200,86,97,319537
2.1212,0.3324,39.4100,86,97,319540
1.8475,0.3226,39.3500,86,97,319543
1.7204,0.2933,39.4800,86,97,319547
1.8915,0.2199,39.4800,86,97,319550
2.1945,0.2199,39.3500,86,97,319553
2.2874,0.2737,39.5100,86,97,319557
2.1652,0.3324,39.4400,86,97,319560
1.8377,0.3226,38.7400,86,97,319563
1.7449,0.2737,39.5100,86,97,319567
1.9355,0.2199,39.4100,86,97,319570
2.1945,0.2199,39.4800,86,97,319574
2.3069,0.2835,39.3500,86,97,319578
2.0674,0.3226,39.4800,86,97,319581
1.7937,0.3177,39.6000,86,97,319584
1.7400,0.2835,39.4100,86,97,319587
1.9062,0.2151,39.4800,86,97,319591
2.2092,0.2297,39.2500,86,97,319594
2.2239,0.2933,39.3800,86,97,319597
1.9648,0.3275,39.4800,86,97,319601
1.7058,0.3177,39.4100,86,97,319604
1.6276,0.2639,39.4800,86,97,319607
1.8768,0.2199,39.1900,86,97,319611
2.0821,0.2346,39.4400,86,97,319614
2.0626,0.2884,39.4100,86,97,319618
1.8377,0.3324,39.4800,86,97,319622
1.5494,0.3079,39.5400,86,97,319625
1.5689,0.2786,39.3800,86,97,319628
1.7449,0.2151,39.4400,86,97,319632
1.9941,0.2395,39.4100,86,97,319635
1.9648,0.3079,39.4800,86,97,319638
1.7058,0.3079,39.5400,86,97,319641
1.5005,0.3079,39.4100,86,97,319645
1.5005,0.2542,39.5100,86,97,319648
1.7546,0.2102,39.3500,86,97,319651
1.9648,0.2493,39.5100,86,97,319655
1.9306,0.3079,39.5700,86,97,319659
1.6960,0.3617,39.3800,86,97,319662
1.4614,0.3030,39.5100,86,97,319666
1.5298,0.2395,39.3500,86,97,319669
1.7595,0.2053,39.4100,86,97,319672
1.9795,0.2542,39.5100,86,97,319676
1.9355,0.3177,39.3200,86,97,319679
1.6764,0.3275,39.4800,86,97,319682
1.4956,0.3030,39.2800,86,97,319685
1.5543,0.2395,39.4100,86,97,319689
1.8133,0.2053,39.5100,86,97,319692
2.0332,0.2590,39.4400,86,97,319695
1.9062,0.3128,39.5100,86,97,319699
1.6813,0.3372,39.2200,86,97,319703
1.4858,0.2884,39.4400,86,97,319706
1.5934,0.2248,39.5700,86,97,319710
1.8719,0.2151,39.6000,86,97,319713
2.0723,0.2639,39.4800,86,97,319716
1.9697,0.3372,39.2800,86,97,319720
1.6569,0.3324,39.4400,86,97,319723
1.5200,0.2835,39.4100,86,97,319726
1.6471,0.2297,39.4400,86,97,319730
1.9257,0.2199,39.5700,86,97,319733
2.1212,0.2786,39.3500,86,97,319736
1.9257,0.3763,39.4100,86,97,319740
1.6716,0.3275,39.3800,86,97,319744
1.5494,0.2786,39.4800,86,97,319747
1.7107,0.2199,39.5700,86,97,319750
2.0186,0.2199,39.4100,86,97,319754
2.1065,0.2786,39.4800,86,97,319757
1.9501,0.3275,39.4800,86,97,319760
1.6618,0.3128,39.4400,86,97,319764
1.5738,0.2688,39.5100,86,97,319767
1.7546,0.2151,39.5100,86,97,319770
2.0283,0.2248,39.4800,86,97,319774
2.1408,0.2981,39.3200,86,97,319777
1.8915,0.3226,39.4400,86,97,319780
1.6325,0.3226,39.4800,86,97,319784
1.5982,0.2737,39.6700,86,97,319788
1.7791,0.2102,39.4800,86,97,319791
2.0968,0.2444,39.3200,86,97,319794
2.1163,0.2688,39.3800,86,97,319798
1.8622,0.3275,39.7000,86,97,319801
1.6276,0.3128,39.4400,86,97,319804
1.5934,0.2590,39.5400,86,97,319808
1.8573,0.2297,39.3500,86,97,319811
2.0821,0.2444,39.3800,86,97,319814
2.0723,0.2981,39.4100,86,97,319818
1.8231,0.3324,39.3500,86,97,319821
1.5836,0.2981,39.4800,86,97,319824
1.6227,0.2590,39.3500,86,97,319828
1.8426,0.2102,39.4800,86,97,319832
2.0919,0.2444,39.3500,86,97,319835
2.0479,0.3079,39.5100,86,97,319839
1.7840,0.3275,39.5400,86,97,319842
1.5982,0.3030,39.4100,86,97,319845
1.5982,0.2493,39.4800,86,97,319848
1.8817,0.2102,39.3800,86,97,319852
2.0723,0.2493,39.3800,86,97,319855
2.0186,0.3324,39.4800,86,97,319858
1.7693,0.3372,39.3800,86,97,319862
1.5738,0.2981,39.4800,86,97,319865
1.6422,0.2395,39.2800,86,97,319868
1.8866,0.2102,39.4800,86,97,319873
2.0821,0.2542,39.3800,86,97,319876
2.0235,0.3275,39.4400,86,97,319879
1.7204,0.3470,39.5700,86,97,319883
1.5934,0.2884,39.2200,86,97,319886
1.6569,0.2297,39.5100,86,97,319889
1.9257,0.2102,39.6000,86,97,319893
2.1261,0.2786,39.4100,86,97,319896
2.0039,0.3177,39.4800,86,97,319899
1.7840,0.3470,39.2200,86,97,319902
1.6227,0.2884,39.3800,86,97,319906
1.7595,0.2102,39.4400,86,97,319909
2.0235,0.2151,39.4800,86,97,319912
2.1848,0.2688,39.5100,86,97,319917
2.1114,0.3275,39.3800,86,97,319920
1.8133,0.3275,39.4400,86,97,319923
1.7351,0.2884,39.4400,86,97,319927
1.8671,0.2248,39.6700,86,97,319930
2.1554,0.2102,39.4400,86,97,319933
2.3167,0.2835,39.3500,86,97,319937
2.1017,0.3226,39.5100,86,97,319940
1.8524,0.3324,39.4400,86,97,319943
1.7204,0.2688,39.4400,86,97,319947
1.8768,0.2248,39.5700,86,97,319950
2.1652,0.2199,39.3500,86,97,319953
2.2190,0.2835,39.4400,86,97,319956
2.0186,0.3275,39.3200,86,97,319961
1.7009,0.3226,39.3800,86,97,319964
1.6031,0.2786,39.4800,86,97,319967
1.7693,0.2297,39.3800,86,97,319971
1.9892,0.2248,39.5100,86,97,319974
2.0723,0.2981,39.2200,86,97,319977
1.7937,0.3226,39.4400,86,97,319981
1.5298,0.3128,39.4800,86,97,319984
1.4858,0.2493,39.4800,86,97,319987
1.6716,0.2102,39.5400,86,97,319991
1.9844,0.2493,39.2500,86,97,319994
1.9795,0.2688,39.4100,86,97,319997
1.7253,0.3226,39.4400,86,97,320001
1.4907,0.3128,39.5100,86,97,320005
1.4761,0.2542,39.5400,86,97,320008
1.7351,0.2199,39.3200,86,97,320011
1.9697,0.2346,39.4400,86,97,320015
1.9599,0.3079,39.3800,86,97,320018
1.7009,0.3275,39.7000,86,97,320021
1.4809,0.3275,39.4800,86,97,320025
1.5249,0.2542,39.3500,86,97,320028
1.7498,0.2053,39.4400,86,97,320031
2.0626,0.2493,39.3500,86,97,320035
2.0723,0.3128,39.5100,86,98,320038
2.7615,0.2639,39.5400,86,98,320043
2.6637,0.3177,39.4800,86,98,320046
2.3021,0.3079,39.6700,86,98,320049
1.9746,0.2933,39.4800,86,98,320053
1.8817,0.2444,39.2500,86,98,320056
1.9746,0.2151,39.4400,86,98,320059
2.0039,0.2590,39.4800,86,98,320062
1.7986,0.3324,39.4100,86,98,320066
1.4565,0.3275,39.4800,86,98,320069
1.3001,0.3079,39.2200,86,98,320072
1.3636,0.2395,39.4400,86,98,320076
1.6325,0.2004,39.4100,86,98,320079
1.8328,0.2688,39.5100,86,98,320082
1.7204,0.3177,39.5100,86,98,320087
1.5005,0.3372,39.3200,86,98,320090
1.3587,0.2933,39.4400,86,98,320093
1.4956,0.2248,39.3800,86,98,320096
1.7742,0.2151,39.4800,86,98,320100
1.9306,0.2835,39.5100,86,98,320103
1.8084,0.3275,39.4100,86,98,320106
1.5298,0.3226,39.5100,86,98,320110
1.4418,0.2933,39.3500,86,98,320113
1.5787,0.2199,39.5100,86,98,320116
1.8671,0.2151,39.5400,86,98,320120
2.0186,0.2981,39.4100,86,98,320123
1.8133,0.3226,39.4800,86,98,320126
1.5689,0.3324,39.2800,86,98,320131
1.4761,0.2737,39.4400,86,98,320134
1.6569,0.2151,39.5100,86,98,320137
1.9648,0.2297,39.3500,86,98,320141
2.0235,0.3177,39.4400,86,98,320144
1.8671,0.3372,39.2500,86,98,320147
1.5787,0.3128,39.4100,86,98,320150
1.5200,0.2639,39.4800,86,98,320154
1.7742,0.2151,39.4400,86,98,320157
1.9990,0.2248,39.4800,86,98,320160
2.1065,0.3030,39.1900,86,98,320164
1.8280,0.3275,39.3800,86,98,320167
1.5836,0.3079,39.4800,86,98,320171
1.5689,0.2639,39.4800,86,98,320175
1.7889,0.2053,39.4800,86,98,320178
2.1114,0.2590,39.3200,86,98,320181
2.0919,0.3030,39.4400,86,98,320185
1.8524,0.3275,39.4100,86,98,320188
1.6227,0.2884,39.4800,86,98,320191
1.6178,0.2493,39.4800,86,98,320194
1.8866,0.2151,39.3200,86,98,320198
2.1212,0.2688,39.4400,86,98,320201
2.1163,0.3177,39.3500,86,98,320204
1.8328,0.3275,39.7000,86,98,320208
1.6325,0.3079,39.4800,86,98,320211
1.6911,0.2542,39.3800,86,98,320215
1.9355,0.1906,39.4800,86,98,320219
2.1994,0.2297,39.3800,86,98,320222
2.1261,0.3079,39.5100,86,98,320225
1.8671,0.3324,39.4800,86,98,320229
1.6911,0.3324,39.3800,86,98,320232
1.7400,0.2444,39.5700,86,98,320235
2.0430,0.2102,39.2800,86,98,320238
2.2287,0.2542,39.5100,86,98,320242
2.1652,0.3128,39.4800,86,98,320245
1.9110,0.3470,39.4100,86,98,320248
1.7253,0.2688,39.4800,86,98,320252
1.8573,0.2444,39.2500,86,98,320256
2.1065,0.2151,39.5100,86,98,320259
2.2874,0.2590,39.4400,86,98,320263
2.1945,0.3226,39.4400,86,98,320266
1.9013,0.3226,39.4800,86,98,320269
1.7791,0.3079,39.2500,86,98,320273
1.8671,0.2395,39.3800,86,98,320276
2.1261,0.2053,39.4100,86,98,320279
2.2923,0.2688,39.6700,86,98,320282
2.1457,0.3226,39.4800,86,98,320286
1.9062,0.3372,39.3200,86,98,320289
1.7351,0.3177,39.4100,86,98,320292
1.8964,0.2248,39.3800,86,98,320296
2.1114,0.2102,39.4800,86,98,320300
2.2385,0.2688,39.5100,86,98,320303
2.0821,0.3372,39.4100,86,98,320307
1.7644,0.3226,39.4800,86,98,320310
1.6618,0.2884,39.7700,86,98,320313
1.7644,0.2199,39.4800,86,98,320317
2.0332,0.2102,39.5100,86,98,320320
2.1457,0.2884,39.4400,86,98,320323
1.9062,0.3226,39.4800,86,98,320327
1.6422,0.3226,39.3200,86,98,320330
1.5298,0.2737,39.3800,86,98,320333
1.7155,0.2151,39.4800,86,98,320336
1.9746,0.2297,39.4800,86,98,320340
2.0137,0.2884,39.4800,86,98,320344
1.8377,0.3372,39.2500,86,98,320347
1.5494,0.3470,39.3800,86,98,320351
1.4761,0.2590,39.4800,86,98,320354
1.6911,0.2199,39.4400,86,98,320357
1.9355,0.2248,39.5100,86,98,320361
2.0332,0.3079,39.2500,86,98,320364
1.7644,0.3324,39.3800,86,98,320367
1.5054,0.3275,39.4400,86,98,320371
1.4907,0.2493,39.4400,86,98,320374
1.7009,0.2102,39.4800,86,98,320377
2.0039,0.2493,39.3500,86,98,320381
1.9941,0.3030,39.4100,86,98,320385
1.7498,0.3324,39.3800,86,98,320388
1.5103,0.3079,39.5100,86,98,320391
1.5103,0.2884,39.4800,86,98,320395
1.7791,0.2102,39.3200,86,98,320398
2.0088,0.2444,39.4800,86,98,320401
2.0088,0.3079,39.3500,86,98,320405
1.7302,0.3324,39.4800,86,98,320408
1.5103,0.3030,39.4800,86,98,320411
1.5738,0.2493,39.2800,86,98,320415
1.8035,0.2102,39.5100,86,98,320418
2.0674,0.2493,39.3500,86,98,320421
1.9892,0.3128,39.4400,86,98,320425
1.7253,0.3275,39.5100,86,98,320429
1.5445,0.3030,39.3500,86,98,320432
1.5982,0.2395,39.4800,86,98,320435
1.8964,0.2102,39.2800,86,98,320439
2.0772,0.2493,39.4400,86,98,320442
2.0186,0.3128,39.5100,86,98,320445
1.7449,0.3324,39.4800,86,98,320449
1.5591,0.2688,39.4800,86,98,320452
1.6862,0.2444,39.2200,86,98,320455
1.9355,0.2151,39.3200,86,98,320459
2.1065,0.2542,39.5700,86,98,320462
2.0088,0.3226,39.4400,86,98,320465
1.7155,0.3275,39.4800,86,98,320470
1.6129,0.3079,39.2800,86,98,320473
1.7009,0.2346,39.4100,86,98,320476
1.9648,0.2102,39.4100,86,98,320479
2.1261,0.2688,39.5100,86,98,320483
1.9746,0.3177,39.5100,86,98,320486
1.7302,0.3324,39.3500,86,98,320489
1.5934,0.2786,39.4400,86,98,320493
1.7400,0.2297,39.4400,86,98,320496
1.9941,0.2151,39.4800,86,98,320499
2.1261,0.2737,39.5100,86,98,320503
1.9648,0.3226,39.4100,86,98,320506
1.6813,0.3226,39.5100,86,98,320509
1.5982,0.2786,39.3500,86,98,320514
1.7302,0.2199,39.5100,86,98,320517
2.0137,0.2151,39.6000,86,98,320520
2.1408,0.3030,39.3800,86,98,320524
1.9208,0.3226,39.4800,86,98,320527
1.6764,0.3275,39.2500,86,98,320530
1.5787,0.2981,39.3800,86,98,320533
1.7498,0.2102,39.5100,86,98,320537
2.0528,0.2297,39.4100,86,98,320540
2.0919,0.2884,39.5400,86,98,320543
1.9257,0.3372,39.3500,86,98,320547
