ecg,gsr,temp,hr,spo2,timest
1.7986,0.4643,39.2800,77,94,20320
1.7986,0.4643,39.3500,77,94,20324
1.8084,0.4692,39.3200,77,94,20327
1.8035,0.4545,39.3500,77,94,20330
1.8524,0.4790,39.0300,77,94,20333
1.8328,0.4643,39.2500,77,94,20337
1.8280,0.4643,39.3500,77,94,20340
1.8426,0.4643,39.3200,77,94,20343
1.8475,0.4790,39.3500,77,94,20346
1.9062,0.4692,39.1200,77,94,20350
1.8768,0.4643,39.3200,77,94,20354
1.8768,0.4643,39.3500,77,94,20357
1.8964,0.4692,39.3500,77,94,20360
1.8817,0.4936,39.3500,77,94,20364
1.9257,0.4741,39.0600,77,94,20367
1.8768,0.4643,39.2800,77,94,20370
1.8915,0.4545,39.3800,77,94,20373
1.8817,0.4741,39.3200,77,94,20377
1.8719,0.4985,39.3800,77,94,20380
1.9208,0.4741,39.0600,77,94,20383
1.8866,0.4692,39.2500,77,94,20386
1.8524,0.4643,39.3800,77,94,20390
1.8426,0.4936,39.3200,77,94,20393
1.8231,0.4643,39.3500,77,94,20397
1.8622,0.4741,39.0900,77,94,20400
1.8182,0.4692,39.3200,77,94,20404
1.8133,0.4594,39.3500,77,94,20407
1.8231,0.4643,39.2800,77,94,20410
1.8084,0.4692,39.3500,77,94,20413
1.8524,0.4790,39.0900,77,94,20417
1.8035,0.4643,39.2800,77,94,20420
1.7986,0.4643,39.3500,77,94,20423
1.8084,0.4692,39.2800,77,94,20426
1.7889,0.4448,39.3500,77,94,20430
1.8182,0.4888,39.1200,77,94,20433
1.7889,0.4643,39.3200,77,94,20436
1.7742,0.4643,39.3500,77,94,20440
1.7889,0.4643,39.2800,77,94,20444
1.7840,0.4594,39.3500,77,94,20447
1.8328,0.4790,39.1200,77,94,20450
1.7889,0.4643,39.3200,77,94,20453
1.7889,0.4643,39.3500,77,94,20457
1.8035,0.4692,39.3200,77,94,20460
1.7889,0.4643,39.3800,77,94,20463
1.8426,0.4643,39.1200,77,94,20466
1.8035,0.4643,39.3200,77,94,20470
1.8084,0.4643,39.3500,77,94,20473
1.8035,0.4643,39.3200,77,94,20476
1.7791,0.4643,39.4400,77,94,20480
1.8231,0.4741,39.1600,77,94,20484
1.7937,0.4692,39.2500,77,94,20487
1.7791,0.4643,39.3500,77,94,20490
1.7986,0.4692,39.3200,77,94,20493
1.7937,0.4985,39.3500,77,94,20497
1.8475,0.4643,39.1200,77,94,20500
1.8133,0.4643,39.2800,77,94,20503
1.8182,0.4545,39.3500,77,94,20506
1.8328,0.4741,39.2800,77,94,20510
1.8231,0.4643,39.3500,77,94,20513
1.8573,0.4741,39.0900,77,94,20516
1.8133,0.4643,39.2800,77,94,20520
1.8133,0.4594,39.3500,77,94,20524
1.8328,0.4741,39.3500,77,94,20527
1.8328,0.4643,39.3200,77,94,20530
1.8915,0.4741,39.1900,77,94,20534
1.8524,0.4692,39.2500,77,94,20537
1.8231,0.4545,39.3500,77,94,20540
1.8084,0.4643,39.2800,77,94,20543
1.7937,0.4643,39.3500,77,94,20547
1.8328,0.4741,39.0900,77,94,20550
1.7889,0.4594,39.3200,77,94,20553
1.8035,0.4448,39.3500,77,94,20556
1.7889,0.4643,39.3800,77,94,20560
1.7791,0.4643,39.3500,77,94,20563
1.8328,0.4790,39.0600,77,94,20567
1.7889,0.4643,39.2800,77,94,20570
1.7889,0.4643,39.3500,77,94,20574
1.7937,0.4643,39.3800,77,94,20577
1.7889,0.4692,39.3500,77,94,20580
1.8377,0.4741,39.0900,77,94,20583
1.8182,0.4692,39.2200,77,94,20587
1.8084,0.4643,39.3500,77,94,20590
1.8133,0.4643,39.3200,77,94,20593
1.8084,0.4643,39.3500,77,94,20596
1.8475,0.4888,39.0900,77,94,20600
1.7937,0.4643,39.3200,77,94,20603
1.7889,0.4643,39.3500,77,94,20606
1.8182,0.4692,39.3200,77,94,20610
1.7889,0.4692,39.3500,77,94,20614
1.8328,0.4741,39.0300,77,94,20617
1.7937,0.4643,39.2800,77,94,20620
1.7986,0.4643,39.3500,77,94,20623
1.8231,0.4643,39.3200,77,94,20627
1.8231,0.4545,39.3500,77,94,20630
1.8866,0.4741,39.0900,77,94,20633
1.8817,0.4643,39.2500,77,94,20636
1.8964,0.4448,39.3200,77,94,20640
1.9159,0.4448,39.3200,77,94,20643
1.9013,0.4888,39.3500,77,94,20646
1.9501,0.4741,38.9600,77,94,20649
1.9062,0.4692,39.3200,77,94,20654
1.9110,0.4545,39.3500,77,94,20657
1.9501,0.4741,39.3200,77,94,20660
1.9599,0.4594,38.6800,77,94,20663
2.0235,0.4741,39.0900,77,94,20667
1.9746,0.4448,39.3200,77,94,20670
1.9648,0.4594,39.3500,77,94,20673
1.9795,0.4643,39.3800,77,94,20676
1.9501,0.4643,39.3500,77,94,20680
2.0088,0.4741,39.0600,77,94,20683
1.9453,0.4643,39.2800,77,94,20686
1.9159,0.4692,39.3500,77,94,20689
1.9062,0.4643,39.3200,77,94,20694
1.8817,0.4643,39.3500,77,94,20697
1.9257,0.4790,39.0600,77,94,20700
1.8817,0.4643,39.3200,77,94,20703
1.8768,0.4692,39.3500,77,94,20707
1.8817,0.4692,39.3200,77,94,20710
1.8475,0.4594,39.3500,77,94,20713
1.8817,0.4741,39.0900,77,94,20716
1.8231,0.4594,39.2800,77,94,20720
1.8231,0.4643,39.3500,77,94,20723
1.8182,0.4692,39.3200,77,94,20726
1.8084,0.4448,39.4400,77,94,20729
1.8377,0.4741,39.0900,77,94,20733
1.7986,0.4643,39.3500,77,94,20737
1.7791,0.4643,39.3500,77,94,20740
1.7840,0.4643,39.3200,77,94,20743
1.7742,0.4643,39.3500,77,94,20747
1.8182,0.4741,39.1600,77,94,20750
1.7791,0.4741,39.3200,77,94,20753
1.7840,0.4643,39.3500,77,94,20756
1.7986,0.4692,39.3200,77,94,20760
1.7889,0.4741,39.2500,77,94,20763
1.8426,0.4741,39.0900,77,94,20766
1.7986,0.4594,39.3200,77,94,20769
1.8084,0.4594,39.3500,77,94,20773
1.8084,0.4692,39.2800,77,94,20776
1.8035,0.4643,39.3200,77,94,20780
1.8524,0.4643,39.0900,77,94,20783
1.8524,0.4692,39.2800,77,94,20787
1.8231,0.4643,39.2200,77,94,20790
1.8377,0.4643,39.2800,77,94,20793
1.8377,0.4643,39.3500,77,94,20796
1.9013,0.4741,39.0900,77,94,20800
1.8573,0.4790,39.2200,77,94,20804
1.8231,0.4692,39.2800,77,94,20808
1.8475,0.4643,39.3200,77,94,20811
1.9110,0.4936,39.2800,77,94,20814
1.9844,0.4643,39.5100,77,94,20817
2.1261,0.4790,39.1900,77,94,20822
2.1994,0.4692,39.2800,77,94,20825
2.3265,0.4790,39.2800,77,94,20828
2.4633,0.4643,39.3500,77,94,20831
2.5855,0.4643,39.3800,77,94,20835
2.7566,0.4790,39.1600,77,94,20838
2.7126,0.4692,39.2800,77,94,20841
2.5758,0.4643,39.2800,77,94,20844
2.3460,0.4692,39.3500,77,94,20848
2.0674,0.4545,39.3800,77,94,20851
1.8524,0.4839,39.1600,77,94,20854
1.5885,0.4692,39.3200,77,94,20857
1.4614,0.4594,39.2800,77,94,20861
1.4370,0.4448,39.3500,77,94,20865
1.4565,0.4643,39.3500,77,94,20868
1.5591,0.5132,39.1600,77,94,20871
1.5836,0.4643,39.2800,77,94,20875
1.6227,0.4594,39.2800,77,94,20878
1.6471,0.4643,39.3500,77,94,20881
1.6716,0.4545,39.2500,77,94,20884
1.7155,0.4790,39.1600,77,94,20888
1.6813,0.4790,39.2800,77,94,20891
1.6862,0.4643,39.2800,77,94,20894
1.6960,0.4643,39.3500,77,94,20897
1.7009,0.4888,39.3800,77,94,20901
1.7546,0.4839,39.1900,77,94,20904
1.7302,0.4692,39.2800,77,94,20908
1.7204,0.4839,39.3200,77,94,20911
1.7204,0.4643,39.2200,77,94,20915
1.7204,0.4643,39.2800,77,94,20918
1.7644,0.4643,39.1600,77,94,20921
1.7204,0.4692,39.3200,77,94,20924
1.7107,0.4888,39.2800,77,94,20928
1.7107,0.4643,39.2500,77,94,20931
1.7204,0.4692,39.3500,77,94,20934
1.7791,0.4790,39.1900,77,94,20937
1.7498,0.4936,39.2800,77,94,20941
1.7644,0.4594,39.2800,77,94,20944
1.7791,0.4643,39.3500,77,94,20947
1.7791,0.4545,39.4400,77,94,20951
1.8280,0.4936,39.1600,77,94,20955
1.7840,0.4936,39.2800,77,94,20958
1.7742,0.4594,39.2800,77,94,20961
1.7840,0.4448,39.3200,77,94,20964
1.7840,0.4643,39.4400,77,94,20968
1.8475,0.4839,39.1200,77,94,20971
1.8133,0.4643,39.2800,77,94,20974
1.7986,0.4545,39.2800,77,94,20977
1.8084,0.4545,39.3200,77,94,20981
1.8035,0.4643,39.2800,77,94,20984
1.8524,0.4839,39.1600,77,94,20987
1.8133,0.4643,39.2800,77,94,20990
1.8035,0.4594,39.3200,77,94,20995
1.8133,0.4643,39.2200,77,94,20998
1.8084,0.4643,39.3200,77,94,21001
1.8573,0.4839,39.1200,77,94,21004
1.8280,0.4741,39.2800,77,94,21008
1.8231,0.4692,39.2800,77,94,21011
1.8280,0.4643,39.4800,77,94,21014
1.8328,0.4594,39.3500,77,94,21018
1.8964,0.4839,39.1600,77,94,21021
1.8573,0.4643,39.3200,77,94,21024
1.8573,0.4594,39.3200,77,94,21027
1.8768,0.4643,39.3800,77,94,21031
1.8915,0.4643,39.3500,77,94,21035
1.9892,0.4839,39.1600,77,94,21038
1.9159,0.4692,39.2800,77,94,21041
1.9062,0.4545,39.2800,77,94,21045
1.9110,0.4741,39.2800,77,94,21048
1.9208,0.4643,39.4100,77,94,21051
1.9892,0.4839,39.1200,77,94,21054
1.9599,0.4741,39.3200,77,94,21058
1.9648,0.4594,39.4800,77,94,21061
1.9892,0.4643,39.3200,77,94,21064
2.0039,0.4643,39.3500,77,94,21067
2.0919,0.4839,39.1900,77,94,21071
2.0479,0.4643,39.2500,77,94,21074
2.0332,0.4594,39.2800,77,94,21078
2.0332,0.4643,39.3500,77,94,21081
2.0283,0.4790,39.3800,77,94,21085
2.0772,0.4839,39.1200,77,94,21088
2.0088,0.4643,39.2800,77,94,21091
1.9795,0.4741,39.3200,77,94,21094
1.9648,0.4643,39.2500,77,94,21098
1.9404,0.4643,39.3500,77,94,21101
1.9990,0.4741,39.0900,77,94,21104
1.9306,0.4643,39.3200,77,94,21107
1.9159,0.4594,39.3200,77,94,21111
1.9208,0.4643,39.3500,77,94,21114
1.9062,0.4643,39.3500,77,94,21117
1.9648,0.4839,39.1200,77,94,21121
1.9306,0.4692,39.4100,77,94,21125
1.9062,0.4594,39.3200,77,94,21128
1.8964,0.4643,39.3200,77,94,21131
1.8866,0.4545,39.3200,77,94,21134
1.9355,0.4839,39.0900,77,94,21138
1.8915,0.4643,39.2800,77,94,21141
1.8817,0.4594,39.3200,77,94,21144
1.8866,0.4448,39.3200,77,94,21147
1.8768,0.4497,39.3500,77,94,21151
1.9404,0.4839,39.0900,77,94,21154
1.9110,0.4643,39.2200,77,94,21157
1.9550,0.4545,39.3200,77,94,21160
1.9892,0.4839,39.3500,77,94,21165
2.0039,0.4643,39.3500,77,94,21168
2.0723,0.4839,39.0900,77,94,21171
2.0381,0.4741,39.3200,77,94,21174
2.0186,0.4594,39.3500,77,94,21178
2.0235,0.4643,39.3200,77,94,21181
2.0039,0.4692,39.3200,77,94,21184
2.0528,0.4790,39.0900,77,94,21187
1.9941,0.4643,39.2800,77,94,21191
1.9892,0.4594,39.3500,77,94,21194
1.9844,0.4643,39.3200,77,94,21197
1.9746,0.4643,39.3500,77,94,21200
2.0235,0.4790,39.0900,77,94,21204
1.9648,0.4692,39.2800,77,94,21208
1.9453,0.4594,39.3800,77,94,21211
1.9453,0.4643,39.3200,77,94,21214
1.9208,0.4643,39.3500,77,94,21218
1.9746,0.4790,38.9300,77,94,21221
1.9355,0.4643,39.2500,77,94,21224
1.9110,0.4594,39.4100,77,94,21227
1.9013,0.4643,39.2800,77,94,21231
1.8817,0.4643,39.3500,77,94,21234
1.9159,0.4741,39.0900,77,94,21237
1.8622,0.4594,39.3200,77,94,21240
1.8524,0.4594,39.2800,77,94,21244
1.8377,0.4643,39.3200,77,94,21248
1.8084,0.4594,39.3500,77,94,21251
1.8426,0.4741,39.0900,77,94,21254
1.7889,0.4643,39.2200,77,94,21258
1.7791,0.4594,39.3500,77,94,21261
1.8084,0.4692,39.2800,77,94,21264
1.7498,0.4741,39.3500,77,94,21267
1.7791,0.4790,39.0600,77,94,21271
1.7302,0.4692,39.2500,77,94,21274
1.6911,0.4594,39.3500,77,94,21277
1.6813,0.4936,39.3200,77,94,21280
1.6764,0.4643,39.4100,77,94,21284
1.7204,0.4790,39.0900,77,94,21287
1.6813,0.4545,39.3200,77,94,21291
1.6862,0.4888,39.3800,77,94,21294
1.6911,0.4643,39.2500,77,94,21298
1.6813,0.4643,39.4100,77,94,21301
1.7351,0.4790,39.0600,77,94,21304
1.7009,0.4545,39.2800,77,94,21307
1.7107,0.4594,39.4100,77,94,21311
1.7302,0.4692,39.3200,77,94,21314
1.7107,0.4448,39.3500,77,94,21317
1.7546,0.4839,39.0600,77,94,21320
1.7204,0.4643,39.3200,77,94,21324
1.7107,0.4643,39.3500,77,94,21327
1.7204,0.4643,39.3200,77,94,21330
1.7155,0.4692,39.3200,77,94,21334
1.7644,0.4741,39.0900,77,94,21338
1.7302,0.4643,39.3500,77,94,21341
1.7351,0.4643,39.3500,77,94,21344
1.7449,0.4692,39.3200,77,94,21347
1.7449,0.4643,39.3500,77,94,21351
1.7986,0.4741,39.1200,77,94,21354
1.7546,0.4643,39.2800,77,94,21357
1.7693,0.4643,39.3800,77,94,21360
1.7693,0.4545,39.3200,77,94,21364
1.7595,0.4545,39.3500,77,94,21367
1.8084,0.4741,39.0900,77,94,21370
1.7742,0.4643,39.2500,77,94,21373
1.7693,0.4643,39.3500,77,94,21378
1.7889,0.4692,39.3200,77,94,21381
1.7693,0.4643,39.3200,77,94,21384
1.8133,0.4790,39.1200,77,94,21387
1.7644,0.4643,39.3200,77,94,21391
1.7693,0.4643,39.3500,77,94,21394
1.7742,0.4692,39.3500,77,94,21397
1.7742,0.4839,39.3500,77,94,21400
1.8426,0.4790,39.0900,77,94,21404
1.8231,0.4643,39.2800,77,94,21407
1.8524,0.4448,39.3500,77,94,21410
1.8671,0.4594,39.3200,77,94,21413
1.9453,0.4643,39.4400,77,94,21419
1.9550,0.4643,39.3500,77,94,21422
1.9990,0.4790,39.1900,77,94,21426
1.9550,0.4888,39.3200,77,94,21429
1.9501,0.4643,39.2500,77,94,21432
1.9355,0.4643,39.3500,77,94,21435
1.9257,0.4594,39.3800,77,94,21439
1.9599,0.4741,39.0900,77,94,21442
1.9062,0.4643,39.2800,77,94,21445
1.8768,0.4692,39.2800,77,94,21448
1.8622,0.4888,39.3200,77,94,21452
1.8524,0.4594,39.3800,77,94,21455
1.8964,0.4790,39.2200,77,94,21458
1.8719,0.4692,39.2800,77,94,21462
1.8475,0.4643,39.2800,77,94,21466
1.8182,0.4643,39.2200,77,94,21469
1.7986,0.4643,39.3800,77,94,21472
1.8280,0.4790,39.1600,77,94,21475
1.7644,0.4692,39.3200,77,94,21479
1.7400,0.4643,39.2800,77,94,21482
1.7204,0.4643,39.3500,77,94,21485
1.7058,0.4643,39.3500,77,94,21488
1.7546,0.4790,39.1600,77,94,21492
1.7204,0.4692,39.3200,77,94,21495
1.7351,0.4545,39.2800,77,94,21498
1.7204,0.4888,39.3500,77,94,21501
1.7204,0.4643,39.3500,77,94,21506
1.7693,0.4790,39.1900,77,94,21509
1.7351,0.4692,39.2800,77,94,21512
1.7351,0.4692,39.2500,77,94,21515
1.7449,0.4594,39.3500,77,94,21519
1.7546,0.4643,39.4100,77,94,21522
1.8035,0.4643,39.1900,77,94,21525
1.7644,0.4643,39.3500,77,94,21528
1.7498,0.4448,39.2800,77,94,21532
1.7449,0.4888,39.3800,77,94,21535
1.7449,0.4643,39.4100,77,94,21538
1.7937,0.4790,39.2200,77,94,21541
1.7742,0.4692,39.3200,77,94,21545
1.7742,0.4888,39.2800,77,94,21549
1.7840,0.4643,39.3500,77,94,21552
1.7889,0.4594,39.3800,77,94,21555
1.8377,0.4790,39.1900,77,94,21559
1.7986,0.4692,39.2800,77,94,21562
1.7840,0.4594,38.7700,77,94,21565
1.7693,0.4643,39.3500,77,94,21568
1.7595,0.4643,39.3200,77,94,21572
1.8035,0.4790,39.1600,77,94,21575
1.8035,0.4790,39.2800,77,94,21578
1.8622,0.4643,39.2800,77,94,21581
1.9306,0.4643,39.3500,77,94,21585
2.0039,0.4692,39.3500,77,94,21588
2.1652,0.4790,39.1900,77,94,21592
2.2825,0.4692,39.2800,77,94,21595
2.3754,0.4888,39.2800,77,94,21599
2.4976,0.4643,39.4400,77,94,21602
2.5806,0.4643,39.3500,77,94,21605
2.6686,0.4741,39.1600,77,94,21608
2.4682,0.4936,39.3200,77,94,21612
2.2434,0.4594,39.3200,77,94,21615
1.9892,0.4643,39.3200,77,94,21618
1.7400,0.4545,39.3200,77,94,21621
1.5934,0.4741,39.1900,77,94,21625
1.4370,0.4692,39.2800,77,94,21628
1.4076,0.4643,39.2800,77,94,21632
1.4272,0.4643,39.3200,77,94,21635
1.4761,0.4643,39.3500,77,94,21639
1.5836,0.4839,39.1900,77,94,21642
1.5982,0.4692,39.3200,77,94,21645
1.6276,0.4594,39.4400,77,94,21648
1.6471,0.4692,39.3500,77,94,21652
1.6471,0.4643,39.3500,77,94,21655
1.7009,0.4790,39.1900,77,94,21658
1.6716,0.4643,39.2200,77,94,21661
1.6569,0.4594,39.2800,77,94,21665
1.6618,0.4643,39.3200,77,94,21668
1.6667,0.4643,39.2200,77,94,21671
1.7155,0.4790,39.1600,77,94,21675
1.6911,0.4643,39.2800,77,94,21679
1.7058,0.4643,39.3200,77,94,21682
1.7204,0.4643,39.3500,77,94,21685
1.7302,0.4594,39.3800,77,94,21688
1.7791,0.4839,39.2800,77,94,21692
1.7351,0.4643,39.2800,77,94,21695
1.7204,0.4594,39.2800,77,94,21698
1.7204,0.4594,39.3200,77,94,21701
1.7204,0.4643,39.3500,77,94,21705
1.7840,0.4790,39.1600,77,94,21708
1.7595,0.4692,39.2800,77,94,21711
1.7644,0.4594,39.3200,77,94,21714
1.7791,0.4643,39.3200,77,94,21719
1.7791,0.4643,39.3500,77,94,21722
1.8280,0.4888,39.1900,77,94,21725
1.7693,0.4692,39.2800,77,94,21728
1.7546,0.4594,39.2500,77,94,21732
1.7546,0.4643,39.3200,77,94,21735
1.7595,0.4545,39.3500,77,94,21738
1.8133,0.4839,39.1600,77,94,21741
1.7889,0.4643,39.2800,77,94,21745
1.7742,0.4594,39.0300,77,94,21748
1.7693,0.4643,39.3200,77,94,21751
1.7644,0.4643,39.3500,77,94,21755
1.8182,0.4790,39.1900,77,94,21758
1.7937,0.4643,39.2800,77,94,21762
1.7937,0.4594,39.2800,77,94,21765
1.7986,0.4643,39.3200,77,94,21769
1.7889,0.4448,39.4400,77,94,21772
1.8524,0.4839,39.1900,77,94,21775
1.8231,0.4692,39.1900,77,94,21778
1.8328,0.4594,39.2800,77,94,21782
1.8524,0.4643,39.3200,77,94,21785
1.8671,0.4643,39.3500,77,94,21788
1.9306,0.4741,39.1600,77,94,21791
1.8964,0.4643,39.3200,77,94,21795
1.9013,0.4594,39.1600,77,94,21798
1.9013,0.4643,39.3500,77,94,21801
1.8964,0.4594,39.3500,77,94,21805
1.9550,0.4741,39.1600,77,94,21809
1.9159,0.4741,39.2500,77,94,21812
1.9208,0.4594,39.3200,77,94,21815
1.9257,0.4643,39.3200,77,94,21818
1.9355,0.4643,39.3500,77,94,21822
1.9892,0.4741,39.1900,77,94,21825
1.9746,0.4692,39.2500,77,94,21828
1.9599,0.4594,39.2500,77,94,21831
1.9697,0.4643,39.3500,77,94,21835
1.9795,0.4448,39.3500,77,94,21838
2.0283,0.4839,39.1900,77,94,21841
1.9892,0.4643,39.2800,77,94,21844
1.9844,0.4594,39.2800,77,94,21849
1.9844,0.4545,39.3500,77,94,21852
1.9844,0.4692,39.3800,77,94,21855
2.0479,0.4790,39.1600,77,94,21858
1.9990,0.4692,39.2800,77,94,21862
1.9746,0.4594,39.2800,77,94,21865
1.9599,0.4545,39.3500,77,94,21868
1.9404,0.4643,39.3500,77,94,21871
1.9892,0.4839,39.1600,77,94,21875
1.9208,0.4692,39.3200,77,94,21878
1.9062,0.4594,39.2800,77,94,21881
1.8964,0.4643,39.2500,77,94,21884
1.8866,0.4643,39.2500,77,94,21889
1.9355,0.4790,39.1600,77,94,21892
1.8768,0.4692,39.3200,77,94,21895
1.8719,0.4643,39.2800,77,94,21898
1.8719,0.4839,39.3200,77,94,21902
1.8573,0.4643,39.3800,77,94,21905
1.8915,0.4790,39.1600,77,94,21908
1.8377,0.4692,39.2500,77,94,21911
1.8035,0.4692,39.3200,77,94,21915
1.7937,0.4692,39.3200,77,94,21918
1.7889,0.4643,39.3500,77,94,21921
1.8426,0.4790,39.1200,77,94,21924
1.8035,0.4692,39.2800,77,94,21928
1.7937,0.4692,39.2800,77,94,21932
1.7840,0.4643,39.1900,77,94,21935
1.7644,0.4643,39.3500,77,94,21938
1.8231,0.4741,39.1600,77,94,21942
1.7791,0.4692,39.2800,77,94,21945
1.7693,0.4692,39.2500,77,94,21948
1.7791,0.4643,39.3200,77,94,21951
1.7742,0.4643,39.3200,77,94,21955
1.8182,0.4839,39.1600,77,94,21958
1.8084,0.4692,39.2800,77,94,21961
1.7595,0.4594,39.2200,77,94,21964
1.7595,0.4643,39.4800,77,94,21968
1.7546,0.4643,39.3200,77,94,21971
1.8035,0.4790,39.1900,77,94,21975
1.7742,0.4643,39.3200,77,94,21979
1.7595,0.4594,39.2800,77,94,21982
1.7644,0.4643,39.4400,77,94,21985
1.7693,0.4643,39.3500,77,94,21988
1.8231,0.4790,39.1600,77,94,21992
1.8182,0.4741,39.2800,77,94,21995
1.7791,0.4643,39.2800,77,94,21998
1.7791,0.4643,39.2500,77,94,22001
1.7791,0.4643,39.2500,77,94,22005
1.8475,0.4643,39.1900,77,94,22008
1.8377,0.4692,39.2800,77,94,22011
1.8377,0.4692,39.2800,77,94,22014
1.8328,0.4985,39.3800,77,94,22019
1.8133,0.4643,39.3500,77,94,22022
1.8377,0.4790,39.1900,77,94,22025
1.8035,0.4692,39.2800,77,94,22030
1.7937,0.4643,39.3200,77,94,22033
1.8280,0.4692,39.2200,77,94,22036
1.8084,0.4545,39.3200,77,94,22040
1.8084,0.4692,39.3500,77,94,22043
1.8231,0.4643,39.2800,77,94,22046
1.8035,0.4643,39.3800,77,94,22049
1.8182,0.4692,39.1900,77,94,22053
1.7840,0.4643,39.3500,77,94,22056
1.7840,0.4594,39.3500,77,94,22060
1.8084,0.4741,39.5400,77,94,22063
1.7693,0.4643,39.4400,77,94,22067
1.7742,0.4692,39.2200,77,94,22070
1.7595,0.4643,39.3500,77,94,22073
1.7400,0.4692,39.3500,77,94,22076
1.7595,0.4692,39.2200,77,94,22080
1.7498,0.4692,39.3500,77,94,22083
1.7693,0.4692,39.2200,77,94,22086
1.7351,0.4643,39.3500,77,94,22089
1.7302,0.4594,39.3500,77,94,22093
1.7400,0.4643,39.2200,77,94,22096
1.7253,0.4643,39.3500,77,94,22099
1.7400,0.4790,39.1900,77,94,22103
1.7253,0.4692,39.3800,77,94,22107
1.7351,0.4643,39.3500,77,94,22110
1.7742,0.4741,39.2200,77,94,22113
1.7449,0.4643,39.3500,77,94,22116
1.7644,0.4692,39.2200,77,94,22120
1.7400,0.4643,39.3200,77,94,22123
1.7449,0.4643,39.3500,77,94,22126
1.7742,0.4692,39.2800,77,94,22129
1.7595,0.4594,39.3200,77,94,22133
1.7693,0.4692,39.1600,77,94,22136
1.7351,0.4643,39.3500,77,94,22139
1.7302,0.4643,39.3500,77,94,22142
1.7400,0.4692,39.2800,77,94,22147
1.7400,0.4594,39.3500,77,94,22150
1.7791,0.4692,39.1900,77,94,22153
1.7937,0.4643,39.4100,77,94,22156
1.8231,0.4594,39.3500,77,94,22160
1.8964,0.4741,39.1900,77,94,22163
1.8573,0.4594,39.3500,77,94,22166
1.8573,0.4741,39.2200,77,94,22169
1.8328,0.4643,39.4100,77,94,22173
1.8328,0.4643,39.3500,77,94,22176
1.8573,0.4692,39.2500,77,94,22179
1.8475,0.4643,39.3500,77,94,22182
1.8768,0.4692,39.2200,77,94,22187
1.8524,0.4643,39.3800,77,94,22190
1.8573,0.4643,39.3500,77,94,22193
1.8671,0.4692,39.3200,77,94,22196
1.8475,0.4643,39.3800,77,94,22200
1.8573,0.4643,39.2800,77,94,22203
1.8182,0.4643,39.3500,77,94,22206
1.7986,0.4643,39.3500,77,94,22209
1.8182,0.4692,39.1900,77,94,22213
1.7840,0.4692,39.3200,77,94,22216
1.8035,0.4692,39.2200,77,94,22219
1.7986,0.4448,39.3500,77,94,22222
1.7546,0.4643,39.2800,77,94,22226
1.7546,0.4692,39.1900,77,94,22230
1.7204,0.4643,39.3200,77,94,22233
1.7204,0.4692,39.1900,77,94,22236
1.6764,0.4643,39.3500,77,94,22240
1.6618,0.4643,39.3500,77,94,22243
1.6667,0.4643,39.3200,77,94,22246
1.6373,0.4643,39.3200,77,94,22249
1.6325,0.4790,39.1900,77,94,22253
1.5934,0.4643,39.3800,77,94,22256
1.5836,0.4594,39.3500,77,94,22259
1.6080,0.4741,39.1900,77,94,22262
1.6031,0.4643,39.3500,77,94,22266
1.6178,0.4936,39.2200,77,94,22269
1.5982,0.4643,39.2800,77,94,22273
1.5982,0.4643,39.3500,77,94,22276
1.6227,0.4692,39.2500,77,94,22280
1.6031,0.4741,39.3200,77,94,22283
1.6227,0.4692,39.2200,77,94,22286
1.6031,0.4643,39.3500,77,94,22289
1.6227,0.4643,39.3500,77,94,22293
1.6422,0.4692,39.3200,77,94,22296
1.6373,0.4643,39.2800,77,94,22299
1.6471,0.4692,39.2200,77,94,22302
1.6325,0.4643,39.3500,77,94,22306
1.6422,0.4448,39.3500,77,94,22309
1.6667,0.4692,39.1900,77,94,22312
1.6373,0.4643,39.3200,77,94,22317
1.6520,0.4692,39.2800,77,94,22320
1.6276,0.4643,39.3500,77,94,22323
1.6520,0.4594,39.3500,77,94,22326
1.6618,0.4692,39.2500,77,94,22330
1.6080,0.4643,39.4400,77,94,22333
1.6325,0.4692,39.2200,77,94,22336
1.6325,0.4643,39.3200,77,94,22339
1.6911,0.4643,39.3500,77,94,22343
1.7791,0.4692,39.3200,77,94,22346
1.8573,0.4643,39.4800,77,94,22349
2.0088,0.4692,39.3200,77,94,22352
2.1652,0.4643,39.3500,77,94,22356
2.3754,0.4643,39.3500,77,94,22360
2.6002,0.4741,39.1900,77,94,22363
2.6686,0.4643,39.3800,77,94,22366
2.6979,0.4692,39.2200,77,94,22370
2.5220,0.4643,39.3500,77,94,22373
2.2923,0.4643,39.4100,77,94,22376
2.0479,0.4643,39.2500,77,94,22379
1.7498,0.4643,39.3200,77,94,22383
1.5298,0.4741,39.1900,77,94,22386
1.3587,0.4643,39.2500,77,94,22389
1.2952,0.4643,39.4400,77,94,22392
1.3148,0.4643,39.2800,77,94,22396
1.3392,0.4643,39.3500,77,94,22400
1.4272,0.4692,39.1900,77,94,22403
1.4907,0.4545,39.3500,77,94,22406
1.4907,0.4643,39.3800,77,94,22410
1.5347,0.4741,39.2200,77,94,22413
1.5200,0.4643,39.3500,77,94,22416
1.5591,0.4692,39.2200,77,94,22419
1.5543,0.4643,39.3800,77,94,22423
1.5689,0.4643,39.3800,77,94,22426
1.5934,0.4692,39.2500,77,94,22429
1.5836,0.4643,39.3500,77,94,22432
1.6031,0.4692,39.2200,77,94,22436
1.5885,0.4643,39.3800,77,94,22439
1.5982,0.4643,39.3800,77,94,22443
1.6080,0.4692,39.3200,77,94,22446
1.6129,0.4692,39.3500,77,94,22450
1.6373,0.4692,39.2800,77,94,22453
1.6178,0.4643,39.3800,77,94,22456
1.6276,0.4643,39.3500,77,94,22459
1.6813,0.4741,39.1900,77,94,22463
1.6569,0.4643,39.2500,77,94,22466
1.6764,0.4692,39.1200,77,94,22469
1.6618,0.4643,39.3500,77,94,22472
1.6716,0.4448,39.3500,77,94,22476
1.6960,0.4692,39.2800,77,94,22479
1.6764,0.4692,39.3800,77,94,22482
1.7009,0.4643,39.2200,77,94,22486
1.7009,0.4643,39.3500,77,94,22490
1.6764,0.4545,39.4400,77,94,22493
1.6911,0.4692,39.2800,77,94,22496
1.6764,0.4643,39.3200,77,94,22499
1.7107,0.4692,39.1900,77,94,22503
1.6960,0.4643,39.3500,77,94,22506
1.7204,0.4985,39.3800,77,94,22509
1.7595,0.4643,39.1900,77,94,22512
1.7400,0.4643,39.3200,77,94,22516
1.7546,0.4692,39.2200,77,94,22519
1.7302,0.4741,39.3500,77,94,22522
1.7351,0.4643,39.3800,77,94,22525
1.7742,0.4643,39.2500,77,94,22530
1.7595,0.4448,39.3200,77,94,22533
1.7889,0.4692,39.1900,77,94,22536
1.7791,0.4643,39.3500,77,94,22539
1.7937,0.4643,39.3500,77,94,22543
1.8182,0.4692,39.2800,77,94,22546
1.7986,0.4692,39.3200,77,94,22549
1.8084,0.4692,39.1600,77,94,22552
1.7840,0.4643,39.3500,77,94,22556
1.7791,0.4643,39.3500,77,94,22559
1.8231,0.4692,39.1900,77,94,22562
1.7986,0.4594,39.3500,77,94,22565
1.8231,0.4643,39.2200,77,94,22569
1.8084,0.4643,39.3800,77,94,22573
1.8231,0.4594,39.3500,77,94,22576
1.8231,0.4790,39.3200,77,94,22579
1.8084,0.4643,39.3800,77,94,22583
1.8426,0.4692,39.2200,77,94,22586
1.8475,0.4692,39.3500,77,94,22589
1.8622,0.4839,39.3500,77,94,22592
1.8768,0.4643,39.2500,77,94,22596
1.8573,0.4643,39.3500,77,94,22599
1.9013,0.4692,39.2200,77,94,22602
1.8817,0.4643,39.3500,77,94,22606
1.8524,0.4643,39.3500,77,94,22609
1.8866,0.4741,39.1900,77,94,22612
1.8622,0.4692,39.2200,77,94,22616
1.8817,0.4692,39.1900,77,94,22620
1.8964,0.4643,39.3500,77,94,22623
1.8671,0.4643,39.3800,77,94,22626
1.8866,0.4692,39.1900,77,94,22629
1.8671,0.4692,39.3200,77,94,22633
1.8671,0.4692,39.1900,77,94,22636
1.8377,0.4594,39.3200,77,94,22639
1.8475,0.4594,39.2500,77,94,22644
1.8182,0.4594,39.3200,77,94,22647
1.8084,0.4692,39.2200,77,94,22650
1.7693,0.4985,39.3200,77,94,22653
1.7840,0.4643,39.2200,77,94,22658
1.7644,0.4643,39.2800,77,94,22661
1.7840,0.4545,39.3500,77,94,22664
1.7693,0.4692,39.2500,77,94,22667
1.7644,0.4643,39.3800,77,94,22671
1.7889,0.4692,39.1900,77,94,22674
1.7595,0.4643,39.3500,77,94,22677
1.7449,0.4448,39.3500,77,94,22681
1.7546,0.4692,39.3200,77,94,22684
1.7400,0.4643,39.2500,77,94,22687
1.7546,0.4692,39.2200,77,94,22690
1.7253,0.4594,39.3500,77,94,22694
1.7498,0.4643,39.3500,77,94,22697
1.7498,0.4790,39.2200,77,94,22701
1.7204,0.4643,39.3500,77,94,22704
1.7302,0.4643,39.1900,77,94,22708
1.6960,0.4643,39.2800,77,94,22711
1.6911,0.4643,39.3200,77,94,22714
1.7058,0.4741,39.2800,77,94,22717
1.7009,0.4643,39.3500,77,94,22721
1.7302,0.4692,39.1900,77,94,22724
1.7107,0.4643,39.3200,77,94,22727
1.7204,0.4545,39.3200,77,94,22730
1.7400,0.4643,39.1200,77,94,22734
1.7400,0.4643,39.3500,77,94,22737
1.7693,0.4692,39.1900,77,94,22740
1.7546,0.4594,39.3500,77,94,22744
1.7644,0.4594,38.8700,77,94,22748
1.7986,0.4643,39.2500,77,94,22751
1.7791,0.4643,39.3500,77,94,22754
1.8133,0.4594,39.1600,77,94,22757
1.8035,0.4643,39.2800,77,94,22761
1.8084,0.4643,39.3500,77,94,22764
1.8133,0.4643,39.2800,77,94,22767
1.8084,0.4643,39.3500,77,94,22770
1.8231,0.4692,39.1600,77,94,22774
1.8035,0.4643,39.2500,77,94,22777
1.8133,0.4643,39.3200,77,94,22780
1.8377,0.4692,39.2500,77,94,22784
1.8280,0.4643,39.3800,77,94,22788
1.8426,0.4692,39.2500,77,94,22791
1.8182,0.4692,39.3500,77,94,22794
1.8182,0.4594,39.3500,77,94,22797
1.8426,0.4692,39.2500,77,94,22801
1.8133,0.4692,39.3500,77,94,22804
1.8328,0.4692,39.1600,77,94,22807
1.8133,0.4643,39.2800,77,94,22810
1.8231,0.4643,39.3500,77,94,22814
1.8573,0.4692,39.2800,77,94,22817
1.8475,0.4692,39.3800,77,94,22820
1.8768,0.4643,39.2200,77,94,22823
1.8573,0.4643,39.3200,77,94,22828
1.8622,0.4643,39.3500,77,94,22831
1.8964,0.4692,39.2800,77,94,22834
1.8573,0.4643,39.3200,77,94,22837
1.8768,0.4643,39.1900,77,94,22841
1.8524,0.4643,39.3800,77,94,22844
1.8475,0.4643,39.3500,77,94,22847
1.8768,0.4692,39.2200,77,94,22850
1.8524,0.4643,39.3200,77,94,22854
1.8768,0.4692,39.2200,77,94,22857
1.8426,0.4643,39.2500,77,94,22860
1.8573,0.4545,39.3500,77,94,22863
1.8426,0.4692,39.2500,77,94,22867
1.8280,0.4741,39.3200,77,94,22871
1.8524,0.4643,39.1900,77,94,22874
1.8280,0.4643,39.3200,77,94,22877
1.8524,0.4692,39.3500,77,94,22881
1.8524,0.4643,39.2200,77,94,22884
1.8475,0.4643,39.3500,77,94,22887
1.8866,0.4692,39.1900,77,94,22890
1.8524,0.4594,39.3500,77,94,22894
1.8524,0.4643,39.3500,77,94,22897
1.8768,0.4643,39.2500,77,94,22900
1.8573,0.4643,39.3200,77,94,22903
1.8866,0.4692,39.1900,77,94,22907
1.8719,0.4692,39.2500,77,94,22910
1.8817,0.4643,39.3200,77,94,22914
1.9159,0.4741,39.3200,77,94,22918
1.9257,0.4643,38.7100,77,94,22921
1.9697,0.4692,39.1900,77,94,22924
1.9746,0.4643,39.3200,77,94,22927
1.9648,0.4643,39.3500,77,94,22931
1.9844,0.4643,39.2800,77,94,22934
1.9795,0.4643,39.3500,77,94,22937
2.0137,0.4692,39.1900,77,94,22940
2.0039,0.4643,39.3500,77,94,22944
2.0283,0.4692,39.3500,77,94,22947
2.0772,0.4692,39.2200,77,94,22950
2.0626,0.4594,39.3500,77,94,22953
2.0870,0.4692,39.1600,77,94,22958
2.0430,0.4643,39.2500,77,94,22961
2.0088,0.4643,39.3500,77,94,22964
2.0088,0.4692,39.2500,77,94,22967
1.9648,0.4643,39.3500,77,94,22970
1.9795,0.4692,39.1900,77,94,22974
1.9404,0.4448,39.3200,77,94,22977
1.9404,0.4497,39.3500,77,94,22980
1.9453,0.4643,39.2800,77,94,22983
1.9257,0.4643,39.3500,77,94,22987
1.9355,0.4692,39.2200,77,94,22990
1.8915,0.4545,39.3500,77,94,22993
1.8866,0.4643,39.3800,77,94,22998
1.8964,0.4692,39.1200,77,94,23001
1.8426,0.4643,39.3500,77,94,23004
1.8475,0.4692,39.2200,77,94,23007
1.7986,0.4692,39.2800,77,94,23011
1.7791,0.4594,39.3500,77,94,23014
1.7595,0.4643,39.2800,77,94,23017
1.7351,0.4692,39.3500,77,94,23020
1.7449,0.4692,39.2200,77,94,23024
1.7204,0.4594,39.3500,77,94,23027
1.7253,0.4692,39.3200,77,94,23030
1.7449,0.4643,39.2800,77,94,23033
1.7400,0.4643,39.3500,77,94,23037
1.7644,0.4692,39.1600,77,94,23041
1.7449,0.4594,39.3200,77,94,23044
1.7546,0.4643,39.3200,77,94,23047
1.7840,0.4643,39.2500,77,94,23051
1.7693,0.4643,39.3200,77,94,23054
1.7986,0.4692,39.2200,77,94,23057
1.7791,0.4594,39.2800,77,94,23060
1.7791,0.4643,39.4100,77,94,23064
1.7889,0.4643,39.1600,77,94,23067
1.7791,0.4643,39.3500,77,94,23070
1.7986,0.4594,39.1900,77,94,23073
1.7742,0.4594,39.3500,77,94,23077
1.7742,0.4643,39.2800,77,94,23080
1.7742,0.4692,39.2500,77,94,23084
1.7889,0.4545,39.4400,77,94,23087
1.7937,0.4692,39.1900,77,94,23091
1.7644,0.4643,39.3500,77,94,23094
1.7546,0.4643,39.3500,77,94,23097
1.7693,0.4692,39.2500,77,94,23100
1.7595,0.4448,39.3800,77,94,23104
1.8280,0.4839,39.1600,77,94,23107
1.8915,0.4594,39.1600,77,94,23110
1.9941,0.4643,39.3500,77,94,23113
2.1310,0.4692,39.2800,77,94,23117
2.2776,0.4545,39.3500,77,94,23120
2.4976,0.4692,39.2200,77,94,23123
2.6344,0.4594,39.3500,77,94,23127
2.7908,0.4643,39.3500,77,94,23131
2.8299,0.4643,39.2500,77,94,23134
2.7273,0.4692,39.3500,77,94,23137
2.5562,0.4692,39.1900,77,94,23140
2.2239,0.4643,39.3500,77,94,23144
1.9110,0.4545,39.3500,77,94,23147
1.6618,0.4692,39.1200,77,94,23150
1.4565,0.4643,39.2800,77,94,23153
1.3832,0.4643,39.1900,77,94,23157
1.3685,0.4643,39.2800,77,94,23160
1.3978,0.4594,39.3500,77,94,23163
1.4663,0.4839,39.2800,77,94,23166
1.5200,0.4692,39.3500,77,94,23171
1.6178,0.4692,39.1900,77,94,23174
1.6080,0.4692,39.3500,77,94,23177
1.6373,0.4643,39.4100,77,94,23180
1.6667,0.4643,39.2800,77,94,23184
1.6813,0.4594,39.3500,77,94,23187
1.7302,0.4643,39.2200,77,94,23190
1.7155,0.4643,39.3500,77,94,23193
1.7302,0.4643,39.3500,77,94,23197
1.7889,0.4692,39.2500,77,94,23200
1.7449,0.4545,39.3500,77,94,23203
1.7742,0.4643,39.2800,77,94,23206
1.7498,0.4692,39.2800,77,94,23211
1.7889,0.4643,39.3500,77,94,23214
1.7791,0.4692,39.2800,77,94,23217
1.7791,0.4643,39.4800,77,94,23220
1.8182,0.4692,39.2500,77,94,23224
1.8084,0.4448,39.3500,77,94,23227
1.8231,0.4594,39.3800,77,94,23230
1.8573,0.4643,39.2500,77,94,23233
1.8622,0.4643,39.3200,77,94,23237
1.9110,0.4692,39.2200,77,94,23240
1.9159,0.4545,39.3200,77,94,23243
1.9355,0.4643,39.3500,77,94,23246
1.9892,0.4741,39.2500,77,94,23250
2.0528,0.4692,39.3200,77,94,23254
2.0528,0.4643,39.3200,77,94,23258
2.1065,0.4741,39.1200,77,94,23261
2.1114,0.4545,39.3200,77,94,23264
2.0968,0.4545,39.3500,77,94,23267
2.1261,0.4643,39.2800,77,94,23271
2.1114,0.4643,39.3500,77,94,23274
2.1652,0.4692,39.1200,77,94,23277
2.1163,0.4643,39.3500,77,94,23280
2.1163,0.4643,39.4800,77,94,23284
2.1310,0.4692,39.3200,77,94,23287
2.1163,0.4643,39.3500,77,94,23290
2.1848,0.4692,39.1200,77,94,23293
2.1457,0.4790,39.2500,77,94,23298
2.1310,0.4643,39.3500,77,94,23301
2.1457,0.4643,39.3200,77,94,23304
2.1408,0.4643,39.3200,77,94,23307
2.1799,0.4692,39.1900,77,94,23311
2.1261,0.4643,39.3200,77,94,23314
2.1163,0.4643,39.2800,77,94,23317
2.1310,0.4692,39.2800,77,94,23320
2.1065,0.4643,39.3500,77,94,23324
2.1457,0.4741,39.1900,77,94,23327
2.0870,0.4594,39.2800,77,94,23330
2.0870,0.4448,39.3500,77,94,23333
2.0968,0.4741,39.2500,77,94,23337
2.0723,0.4643,39.3800,77,94,23341
2.1163,0.4741,39.1200,77,94,23344
2.0772,0.4692,39.2500,77,94,23347
2.0626,0.4594,39.3800,77,94,23351
2.0723,0.4741,39.3200,77,94,23354
2.0528,0.4643,39.3200,77,94,23357
2.0870,0.4790,39.1900,77,94,23360
2.0381,0.4643,39.2800,77,94,23364
2.0186,0.4643,39.3500,77,94,23367
2.0479,0.4692,39.2800,77,94,23370
1.9795,0.4643,39.3800,77,94,23373
1.9990,0.4643,39.1600,77,94,23377
1.9404,0.4643,39.3800,77,94,23380
1.9306,0.4448,39.3500,77,94,23384
1.9306,0.4692,39.3200,77,94,23387
1.8964,0.4692,39.3800,77,94,23391
1.9208,0.4692,39.1600,77,94,23394
1.8964,0.4692,39.2500,77,94,23397
1.8768,0.4741,39.3500,77,94,23400
1.8915,0.4741,39.3200,77,94,23404
1.8915,0.4643,39.2800,77,94,23407
1.9306,0.4692,39.1200,77,94,23410
1.9062,0.4643,39.3200,77,94,23413
1.8915,0.4643,39.3500,77,94,23417
1.8964,0.4643,39.2800,77,94,23420
1.8671,0.4643,39.3500,77,94,23424
1.8866,0.4692,39.1600,77,94,23427
1.8524,0.4643,39.3800,77,94,23431
1.8573,0.4594,39.3200,77,94,23434
1.8866,0.4741,39.3500,77,94,23437
1.8719,0.4643,39.4100,77,94,23440
1.9110,0.4692,39.1200,77,94,23444
1.8866,0.4692,39.2500,77,94,23447
1.8524,0.4643,39.4800,77,94,23450
1.8475,0.4643,39.2200,77,94,23453
1.8328,0.4643,39.3200,77,94,23457
1.8719,0.4692,39.1200,77,94,23460
1.8426,0.4545,39.3200,77,94,23463
1.8377,0.4643,39.2800,77,94,23467
1.8524,0.4692,39.2800,77,94,23471
1.8426,0.4643,39.3200,77,94,23474
1.8768,0.5181,39.1600,77,94,23477
1.8426,0.4643,39.3200,77,94,23480
1.8524,0.4643,39.3500,77,94,23484
1.8817,0.4741,39.2500,77,94,23487
1.8622,0.4643,39.3500,77,94,23490
1.8964,0.4741,39.1600,77,94,23493
1.8768,0.4643,39.2800,77,94,23497
1.8622,0.4643,39.3500,77,94,23500
1.8622,0.4643,39.2800,77,94,23503
1.8817,0.4643,39.3500,77,94,23507
1.8768,0.4741,39.1200,77,94,23511
1.8475,0.4594,39.4100,77,94,23514
1.8524,0.4643,39.3500,77,94,23517
1.8768,0.4692,39.2500,77,94,23521
1.8622,0.4692,39.3800,77,94,23524
1.8915,0.4692,39.2200,77,94,23527
1.8524,0.4692,39.3800,77,94,23530
1.8524,0.4643,39.3500,77,94,23534
1.8768,0.4741,39.2500,77,94,23537
1.8817,0.4643,39.3200,77,94,23540
1.8964,0.4741,39.1200,77,94,23543
1.8866,0.4692,39.2500,77,94,23547
1.8915,0.4448,39.3500,77,94,23550
1.9013,0.4692,39.2800,77,94,23554
1.8866,0.4643,39.3500,77,94,23557
1.9159,0.4692,39.1200,77,94,23561
1.8768,0.4643,39.0300,77,94,23564
1.8768,0.4448,39.3200,77,94,23567
1.9013,0.4692,39.2500,77,94,23570
1.9013,0.4643,39.2800,77,94,23574
1.9404,0.4692,39.1600,77,94,23577
1.9013,0.4643,39.3500,77,94,23580
1.8964,0.4545,39.3500,77,94,23583
1.9013,0.4741,39.1900,77,94,23587
1.8719,0.4643,39.3500,77,94,23590
1.8915,0.4692,39.1600,77,94,23593
1.8719,0.4692,39.2500,77,94,23597
1.8671,0.4643,39.3500,77,94,23601
1.9208,0.4692,39.2800,77,94,23604
1.8866,0.4643,39.4800,77,94,23607
1.9208,0.4692,39.1600,77,94,23610
1.8866,0.4643,39.3200,77,94,23614
1.8768,0.4643,39.3500,77,94,23617
1.8817,0.4741,39.3200,77,94,23620
1.8622,0.4643,39.3800,77,94,23623
1.8915,0.4741,39.1200,77,94,23627
1.8475,0.4643,39.3800,77,94,23630
1.8524,0.4643,39.3500,77,94,23633
1.8817,0.4741,39.2800,77,94,23636
1.8671,0.4594,39.3500,77,94,23641
1.9159,0.4741,39.0900,77,94,23644
1.8964,0.4643,39.2500,77,94,23647
1.9110,0.4545,39.3500,77,94,23650
1.8915,0.4741,39.2800,77,94,23654
1.8817,0.4545,39.3200,77,94,23657
1.9208,0.4692,39.2200,77,94,23660
1.8866,0.4643,39.3200,77,94,23663
1.8866,0.4545,39.3500,77,94,23667
1.9062,0.4643,39.2800,77,94,23670
1.9013,0.4643,39.3500,77,94,23673
1.9550,0.4741,39.1900,77,94,23676
1.9404,0.4594,39.3500,77,94,23681
1.9550,0.4643,38.7100,77,94,23684
1.9892,0.4741,39.2800,77,94,23687
1.9795,0.4643,39.3500,77,94,23690
2.0283,0.4692,39.1900,77,94,23694
2.0235,0.4643,39.2800,77,94,23697
2.0430,0.4643,39.3500,77,94,23700
2.0674,0.4741,39.3200,77,94,23703
2.0723,0.4643,39.4400,77,94,23707
2.1114,0.4692,39.1600,77,94,23710
2.0577,0.4643,39.3200,77,94,23713
2.0332,0.4643,39.3500,77,94,23716
2.0235,0.4643,39.2500,77,94,23720
1.9795,0.4643,39.3200,77,94,23724
1.9844,0.4692,39.1900,77,94,23727
1.9550,0.4643,39.3500,77,94,23730
1.9062,0.4692,39.3500,77,94,23734
1.9208,0.4692,39.2500,77,94,23737
1.8964,0.4643,39.3500,77,94,23740
1.9257,0.4692,39.1200,77,94,23743
1.8817,0.4643,39.2500,77,94,23747
1.8671,0.4643,38.6800,77,94,23750
1.8671,0.4643,39.2800,77,94,23753
1.8475,0.4643,39.3500,77,94,23756
1.8573,0.4888,39.1600,77,94,23760
1.7937,0.4643,39.2800,77,94,23763
1.7693,0.4643,39.3500,77,94,23767
1.7595,0.4692,39.2500,77,94,23770
1.7204,0.4692,39.3500,77,94,23774
1.7351,0.4643,39.1600,77,94,23777
1.7009,0.4643,39.4400,77,94,23780
1.7009,0.4594,39.3500,77,94,23783
1.7204,0.4643,39.2200,77,94,23787
1.7058,0.4643,39.3800,77,94,23790
1.7400,0.4692,39.1600,77,94,23793
1.7253,0.4692,39.2500,77,94,23796
1.7204,0.4839,39.3500,77,94,23800
1.7351,0.4741,39.2800,77,94,23803
1.7302,0.4643,39.3800,77,94,23806
1.7595,0.4692,39.1900,77,94,23810
1.7253,0.4643,39.3500,77,94,23814
1.7302,0.4936,39.3200,77,94,23817
1.7449,0.4643,38.8400,77,94,23820
1.7351,0.4643,39.3500,77,94,23823
1.7595,0.4692,39.1900,77,94,23827
1.7302,0.4643,39.3500,77,94,23830
1.7302,0.4643,39.3800,77,94,23833
1.7400,0.4692,39.2500,77,94,23836
1.7253,0.4643,39.3500,77,94,23840
1.7449,0.4643,39.1200,77,94,23843
1.7253,0.4643,39.1200,77,94,23846
1.7253,0.4643,39.3500,77,94,23849
1.7302,0.4692,39.2500,77,94,23854
1.7155,0.4545,39.3500,77,94,23857
1.7351,0.4692,39.1600,77,94,23860
2.1212,0.4741,39.0900,77,94,23864
2.2092,0.4692,39.3200,77,94,23867
2.3607,0.4643,39.5100,77,94,23870
2.5073,0.4692,39.3200,77,94,23874
2.6100,0.4643,39.3500,77,94,23877
2.7028,0.5034,39.0600,77,94,23880
2.5611,0.4692,39.2800,77,94,23883
2.3363,0.4643,39.3500,77,94,23887
2.0870,0.4790,39.3200,77,94,23890
1.8182,0.4692,39.3500,77,94,23894
1.6373,0.4741,39.0900,77,94,23897
1.4663,0.4545,39.3200,77,94,23901
1.4076,0.4643,39.3800,77,94,23904
1.4223,0.4643,39.3200,77,94,23907
1.4565,0.4643,39.3500,77,94,23910
1.5543,0.4741,39.1200,77,94,23914
1.5738,0.4448,39.3200,77,94,23917
1.6227,0.4741,39.3500,77,94,23920
1.6471,0.4643,39.3500,77,94,23923
1.6569,0.4643,39.3500,77,94,23927
1.7058,0.4741,39.0900,77,94,23930
1.6862,0.4692,39.2500,77,94,23933
1.6716,0.4643,39.2500,77,94,23937
1.6813,0.4643,39.4800,77,94,23941
1.6862,0.4594,39.3500,77,94,23944
1.7302,0.4741,39.0900,77,94,23947
1.7009,0.4643,39.3200,77,94,23950
1.6960,0.4643,39.3500,77,94,23954
1.7107,0.4643,39.3200,77,94,23957
1.7253,0.4643,39.3500,77,94,23960
1.7498,0.4936,39.1200,77,94,23963
1.7107,0.4643,39.3200,77,94,23967
1.7155,0.4643,39.3500,77,94,23970
1.7155,0.4643,39.3200,77,94,23973
1.7058,0.4643,39.3500,77,94,23976
1.7400,0.4790,39.1200,77,94,23981
1.7253,0.4692,39.3200,77,94,23984
1.7204,0.4643,39.3500,77,94,23987
1.7546,0.4692,39.3200,77,94,23990
1.7253,0.4741,39.3800,77,94,23994
1.7742,0.4741,39.3500,77,94,23997
1.7351,0.4643,39.2800,77,94,24000
1.7253,0.4643,39.4100,77,94,24003
1.7644,0.4692,39.3200,77,94,24007
1.7155,0.4692,39.3200,77,94,24010
1.7644,0.4741,39.1600,77,94,24013
1.7351,0.4643,39.3200,77,94,24017
1.7498,0.4643,39.3500,77,94,24020
1.7840,0.4692,39.3200,77,94,24024
1.7742,0.4545,39.3500,77,94,24027
1.8133,0.4839,39.0600,77,94,24031
1.7889,0.4643,39.2800,77,94,24034
1.8084,0.4643,39.3500,77,94,24037
1.7840,0.4545,39.2800,77,94,24040
1.7791,0.4643,39.3500,77,94,24044
1.8231,0.4643,39.0900,77,94,24047
1.7889,0.4643,39.3200,77,94,24050
1.7986,0.4545,39.3800,77,94,24053
1.8231,0.4741,39.2800,77,94,24057
1.8328,0.4643,39.3200,77,94,24060
1.8915,0.4741,39.1200,77,94,24064
1.8622,0.4643,39.2800,77,94,24067
1.8671,0.4643,39.3500,77,94,24071
1.9208,0.4692,39.3200,77,94,24074
1.8915,0.4692,39.3500,77,94,24077
1.9453,0.4741,39.1200,77,94,24080
1.9110,0.4692,39.2500,77,94,24084
1.9062,0.4643,39.3500,77,94,24087
1.9208,0.4545,39.3200,77,94,24090
1.9110,0.4643,39.3500,77,94,24093
1.9697,0.4741,39.1200,77,94,24097
1.9306,0.4643,39.2800,77,94,24100
1.9404,0.4643,39.3500,77,94,24103
1.9599,0.4936,39.3800,77,94,24107
1.9501,0.4594,39.4800,77,94,24111
1.9990,0.4741,39.1200,77,94,24114
1.9550,0.4448,39.2800,77,94,24117
1.9501,0.4692,39.3500,77,94,24120
1.9501,0.4643,39.3200,77,94,24124
1.9355,0.4643,39.3500,77,94,24127
1.9844,0.4741,39.0900,77,94,24130
1.9453,0.4692,39.3200,77,94,24133
1.9208,0.4643,38.8100,77,94,24137
1.9159,0.4643,39.2200,77,94,24140
1.9013,0.4643,39.3500,77,94,24143
1.9404,0.4790,39.0900,77,94,24146
1.9013,0.4643,39.2800,77,94,24151
1.8964,0.4643,39.3500,77,94,24154
1.9062,0.4692,39.3500,77,94,24157
1.8768,0.4594,39.3500,77,94,24160
1.9062,0.4741,39.0600,77,94,24164
1.8573,0.4594,39.3200,77,94,24167
1.8573,0.4643,39.3200,77,94,24170
1.8671,0.4692,39.2800,77,94,24173
1.8328,0.4545,39.3500,77,94,24177
1.8768,0.4790,39.0900,77,94,24180
1.8426,0.4692,39.2500,77,94,24183
1.8377,0.4643,39.3800,77,94,24186
1.8377,0.4692,39.3200,77,94,24190
1.8377,0.4936,39.3800,77,94,24194
1.8768,0.4741,39.1900,77,94,24197
1.8231,0.4643,39.3200,77,94,24200
1.8133,0.4643,39.3500,77,94,24204
1.7986,0.4692,39.2800,77,94,24207
1.7791,0.4643,39.3200,77,94,24210
1.8133,0.4741,39.0900,77,94,24213
1.7644,0.4594,39.3200,77,94,24217
1.7742,0.4594,39.3200,77,94,24220
1.7937,0.4692,39.3200,77,94,24223
1.7791,0.4692,39.3500,77,94,24226
1.8280,0.4741,39.0600,77,94,24230
1.8035,0.4692,39.2500,77,94,24233
1.7840,0.4545,39.4400,77,94,24237
1.7937,0.4643,39.3200,77,94,24240
1.7889,0.4643,39.3500,77,94,24244
1.8328,0.4741,39.0900,77,94,24247
1.8035,0.4643,39.3200,77,94,24250
1.8035,0.4448,39.3800,77,94,24253
1.8133,0.4741,39.3500,77,94,24257
1.8133,0.4643,38.7400,77,94,24260
1.8622,0.4741,39.1200,77,94,24263
1.8133,0.4594,39.2800,77,94,24267
1.8182,0.4643,39.3500,77,94,24270
1.8182,0.4692,39.3200,77,94,24273
1.8084,0.4692,39.3500,77,94,24276
1.8671,0.4741,39.1200,77,94,24281
1.8475,0.4643,39.3200,77,94,24284
1.8475,0.4448,39.3500,77,94,24287
1.8426,0.4643,39.3200,77,94,24290
1.8328,0.4594,39.3200,77,94,24294
1.8768,0.4741,39.1600,77,94,24297
1.8231,0.4643,39.2800,77,94,24300
1.8182,0.4643,39.3500,77,94,24303
1.8280,0.4692,39.3200,77,94,24307
1.8182,0.4692,39.3500,77,94,24310
1.8671,0.4741,39.0000,77,94,24313
1.8182,0.4643,39.2800,77,94,24316
1.8084,0.4643,39.3500,77,94,24321
1.8231,0.4741,39.3200,77,94,24324
1.8328,0.4643,39.3500,77,94,24327
1.8817,0.4741,39.0300,77,94,24330
1.8524,0.4692,39.2500,77,94,24334
1.8475,0.4643,39.3500,77,94,24337
1.8328,0.4643,39.3200,77,94,24340
1.8280,0.4888,39.3800,77,94,24343
1.8622,0.4741,39.0900,77,94,24347
1.7986,0.4643,39.2800,77,94,24350
1.7889,0.4594,39.3500,77,94,24353
1.7840,0.4839,39.3200,77,94,24356
1.7693,0.4643,39.3800,77,94,24360
1.8084,0.4741,39.0900,77,94,24364
1.7840,0.4643,39.3200,77,94,24367
1.7546,0.4643,39.3500,77,94,24370
1.7595,0.4839,39.3800,77,94,24374
1.7400,0.4643,39.2800,77,94,24377
1.7840,0.4741,39.0900,77,94,24380
1.7644,0.4936,39.2500,77,94,24383
1.7546,0.4643,39.4100,77,94,24387
1.7644,0.4643,39.3500,77,94,24390
1.7498,0.4643,39.3500,77,94,24393
1.8231,0.4790,39.0900,77,94,24396
1.7498,0.4594,39.2800,77,94,24400
1.7498,0.4594,39.4100,77,94,24403
1.7546,0.4643,39.3200,77,94,24407
1.7400,0.4643,39.3500,77,94,24410
1.7791,0.4790,39.0900,77,94,24414
1.7302,0.4888,39.2500,77,94,24417
1.7302,0.4643,39.4100,77,94,24420
1.7351,0.4692,39.3200,77,94,24423
1.7204,0.4643,39.3500,77,94,24427
1.7693,0.4692,39.1900,77,94,24430
1.7546,0.4692,39.2200,77,94,24433
1.7449,0.4643,39.3500,77,94,24436
1.7742,0.4643,39.3200,77,94,24440
1.7937,0.4448,39.3500,77,94,24443
1.8573,0.4741,39.0900,77,94,24446
1.8280,0.4643,39.2800,77,94,24450
1.8426,0.4643,39.3500,77,94,24454
1.8671,0.4692,39.3200,77,94,24457
1.8817,0.4692,39.3500,77,94,24460
1.9501,0.4741,39.1200,77,94,24463
1.9257,0.4643,39.2800,77,94,24467
1.9306,0.4643,39.3500,77,94,24470
1.9795,0.4692,39.3200,77,94,24473
1.8671,0.4643,39.4800,77,94,24477
1.8524,0.4643,39.3500,77,94,24480
1.8768,0.4741,39.1900,77,94,24483
1.8475,0.4545,39.3200,77,94,24487
1.8475,0.4741,39.2800,77,94,24491
1.8426,0.4643,39.4100,77,94,24494
1.8231,0.4643,39.3500,77,94,24497
1.8622,0.4741,39.1900,77,94,24501
1.8426,0.4692,39.3200,77,94,24504
1.8084,0.4643,39.2500,77,94,24507
1.7889,0.4643,39.3500,77,94,24510
1.7644,0.4643,39.3500,77,94,24514
1.7937,0.4790,39.1900,77,94,24517
1.7546,0.4936,39.2800,77,94,24520
1.7400,0.4643,39.2500,77,94,24523
1.7351,0.4643,39.3200,77,94,24527
1.7498,0.4545,39.3500,77,94,24530
1.7693,0.4741,39.1600,77,94,24534
1.7204,0.4741,39.3200,77,94,24537
1.7107,0.4643,39.3500,77,94,24541
1.6960,0.4643,39.3200,77,94,24544
1.7107,0.4643,39.3500,77,94,24547
1.7449,0.4790,39.1900,77,94,24550
1.7155,0.4643,39.3200,77,94,24554
1.7107,0.4692,39.2800,77,94,24557
1.7107,0.4643,39.3200,77,94,24560
1.7155,0.4643,39.3500,77,94,24564
1.7595,0.4741,39.2200,77,94,24567
1.7302,0.4643,39.2800,77,94,24570
1.7302,0.4643,39.2800,77,94,24573
1.7204,0.4643,39.3500,77,94,24578
1.7253,0.4545,39.3200,77,94,24581
1.7693,0.4741,39.1600,77,94,24584
1.7351,0.4692,39.3200,77,94,24587
1.7351,0.4643,39.3200,77,94,24591
1.7302,0.4643,39.3500,77,94,24594
1.7449,0.4448,39.3500,77,94,24597
1.7742,0.4839,39.2500,77,94,24600
1.7400,0.4643,39.4100,77,94,24604
1.7351,0.4643,39.2500,77,94,24607
1.7498,0.4643,39.3500,77,94,24610
1.8084,0.4643,39.3500,77,94,24613
1.9110,0.4790,39.1900,77,94,24617
1.9599,0.4643,39.3200,77,94,24621
2.0479,0.4692,39.2800,77,94,24624
2.1652,0.4448,39.3500,77,94,24627
2.3069,0.4643,39.3200,77,94,24631
2.4976,0.4643,39.1900,77,94,24634
2.5806,0.4643,39.3200,77,94,24637
2.6784,0.4692,39.2800,77,94,24640
2.6686,0.4692,39.2800,77,94,24644
2.5269,0.4643,39.3500,77,94,24647
2.3509,0.4790,39.2200,77,94,24650
2.0235,0.4839,39.2800,77,94,24653
1.7449,0.4643,39.2800,77,94,24657
1.5445,0.4643,39.3500,77,94,24660
1.4272,0.4643,39.3500,77,94,24664
1.4418,0.4888,39.1900,77,94,24667
1.4467,0.4643,39.2800,77,94,24671
1.5054,0.4643,39.2800,77,94,24674
1.5689,0.4692,39.3500,77,94,24677
1.6129,0.4643,39.3500,77,94,24680
1.6862,0.4692,39.1600,77,94,24684
1.6618,0.4741,39.3200,77,94,24687
1.6716,0.4643,39.2500,77,94,24690
1.6716,0.4643,39.4400,77,94,24693
1.6667,0.4594,39.3500,77,94,24697
1.7400,0.4790,39.1900,77,94,24700
1.6960,0.4643,39.2800,77,94,24704
1.6960,0.4643,39.2800,77,94,24707
1.6911,0.4643,39.3500,77,94,24711
1.6960,0.4643,39.3500,77,94,24714
1.7351,0.4741,39.1900,77,94,24717
1.6960,0.4888,39.2800,77,94,24720
1.6911,0.4643,39.2800,77,94,24724
1.6813,0.4643,39.4800,77,94,24727
1.6813,0.4643,39.3500,77,94,24730
1.7155,0.4692,39.1900,77,94,24733
1.6764,0.4692,39.2800,77,94,24737
1.6813,0.4643,39.2800,77,94,24740
1.6813,0.4643,39.3500,77,94,24743
1.7107,0.4545,39.3200,77,94,24747
1.7449,0.4692,39.1900,77,94,24751
1.7400,0.4643,39.3200,77,94,24754
1.7449,0.4643,39.2800,77,94,24757
1.7595,0.4545,39.3500,77,94,24760
1.7693,0.4692,39.3500,77,94,24764
1.8280,0.4790,39.2200,77,94,24767
1.8035,0.4692,39.3200,77,94,24770
1.7986,0.4594,39.2800,77,94,24773
1.7840,0.4545,39.3500,77,94,24777
1.7742,0.4643,39.4800,77,94,24780
1.8133,0.4741,39.1900,77,94,24783
1.7742,0.4643,39.3200,77,94,24786
1.8182,0.4448,39.2500,77,94,24791
1.7986,0.4692,39.3500,77,94,24794
1.8133,0.4643,39.2800,77,94,24797
1.8719,0.4790,39.1900,77,94,24800
1.8475,0.4692,39.2500,77,94,24804
1.8475,0.4545,39.2800,77,94,24807
1.8573,0.4692,39.3200,77,94,24810
1.8719,0.4643,39.3500,77,94,24813
1.9257,0.4741,39.1900,77,94,24817
1.8964,0.4790,39.2800,77,94,24820
1.8915,0.4692,39.2800,77,94,24823
1.8915,0.4643,39.3200,77,94,24826
1.9159,0.4594,39.3500,77,94,24830
1.9599,0.4839,39.1600,77,94,24834
1.9404,0.4888,39.3200,77,94,24837
1.9453,0.4643,39.2800,77,94,24840
1.9453,0.4643,39.3200,77,94,24844
1.9746,0.4643,39.3500,77,94,24847
1.9990,0.4839,39.1900,77,94,24850
1.9746,0.4643,39.3200,77,94,24853
1.9697,0.4643,39.2500,77,94,24857
1.9746,0.4692,39.3500,77,94,24860
1.9746,0.4692,39.3200,77,94,24863
2.0381,0.4790,39.1600,77,94,24866
2.0137,0.4692,39.2800,77,94,24870
2.0088,0.4692,39.3200,77,94,24873
2.0039,0.4888,39.3200,77,94,24877
1.9990,0.4643,39.3200,77,94,24880
2.0626,0.4790,39.1900,77,94,24884
1.9892,0.4643,39.3800,77,94,24887
1.9746,0.4594,39.3200,77,94,24890
1.9648,0.4643,39.3500,77,94,24893
1.9404,0.4594,39.3500,77,94,24897
1.9795,0.4839,39.1900,77,94,24900
1.9208,0.4643,39.3200,77,94,24903
1.9062,0.4594,39.2800,77,94,24906
1.9110,0.4643,39.3200,77,94,24910
1.9110,0.4692,39.3500,77,94,24913
1.9599,0.4839,39.1600,77,94,24916
1.9159,0.4741,39.2800,77,94,24920
1.9257,0.4545,39.3200,77,94,24924
1.8866,0.4448,39.3200,77,94,24927
1.8915,0.4790,39.3500,77,94,24930
1.9599,0.4839,39.1900,77,94,24933
1.9013,0.4643,39.3200,77,94,24937
1.9062,0.4545,39.3200,77,94,24940
1.8719,0.4790,39.3200,77,94,24943
1.8524,0.4643,39.4400,77,94,24946
1.8866,0.4839,39.1600,77,94,24950
1.8231,0.4692,39.2800,77,94,24953
1.8035,0.4545,39.3200,77,94,24956
1.7986,0.4643,39.3800,77,94,24961
1.8035,0.4643,39.3800,77,94,24964
1.8719,0.4790,39.1200,77,94,24967
1.8573,0.4741,39.2800,77,94,24970
1.8377,0.4692,39.3200,77,94,24974
1.8426,0.4692,39.3200,77,94,24977
1.8328,0.4643,39.3500,77,94,24980
1.8768,0.4790,39.1600,77,94,24983
1.8133,0.4643,39.3200,77,94,24987
1.8084,0.4643,39.2800,77,94,24990
1.7986,0.4692,39.3200,77,94,24993
1.7889,0.4643,39.3800,77,94,24996
1.8475,0.4839,39.1600,77,94,25000
1.8182,0.4692,39.2800,77,94,25004
1.8035,0.4692,39.2800,77,94,25007
1.7937,0.4643,39.5100,77,94,25010
1.7840,0.4643,39.3500,77,94,25014
1.8328,0.4839,39.1900,77,94,25017
1.8084,0.4692,39.2800,77,94,25020
1.7840,0.4594,39.2800,77,94,25023
1.7889,0.4692,39.2500,77,94,25027
1.7937,0.4643,39.3500,77,94,25030
1.8671,0.4790,39.1900,77,94,25033
1.8035,0.4741,39.3200,77,94,25036
1.7986,0.4594,39.2800,77,94,25040
1.8035,0.4643,39.3500,77,94,25043
1.8328,0.4545,39.4400,77,94,25047
1.8524,0.4888,39.1600,77,94,25050
1.8035,0.4888,39.2800,77,94,25054
1.7937,0.4594,39.2800,77,94,25057
1.7986,0.4545,39.3200,77,94,25060
1.7889,0.4643,39.4400,77,94,25063
1.8524,0.4790,39.1900,77,94,25067
1.8231,0.4692,39.2800,77,94,25070
1.8035,0.4594,39.2800,77,94,25073
1.7986,0.4643,39.3200,77,94,25076
1.7937,0.4594,39.3500,77,94,25080
1.8622,0.4839,39.1600,77,94,25083
1.8524,0.4643,39.2500,77,94,25088
1.8671,0.4692,39.3500,77,94,25091
1.8573,0.4692,39.2500,77,94,25094
1.8377,0.4643,39.3500,77,94,25097
1.8426,0.4643,39.3800,77,94,25101
1.8671,0.4643,39.3200,77,94,25104
1.8573,0.4545,39.3200,77,94,25107
1.8768,0.4985,39.2200,77,94,25110
1.8524,0.4594,39.3500,77,94,25114
1.8524,0.4643,39.2800,77,94,25117
1.8817,0.4741,39.1900,77,94,25120
1.8475,0.4692,39.3500,77,94,25123
1.8671,0.4692,39.1900,77,94,25127
1.8475,0.4741,39.3500,77,94,25131
1.8475,0.4594,39.4800,77,94,25134
1.8671,0.4643,39.2500,77,94,25137
1.8524,0.4643,39.3200,77,94,25141
1.8768,0.4692,39.1900,77,94,25144
1.8475,0.4643,39.3800,77,94,25147
1.8524,0.4594,39.2200,77,94,25150
1.8671,0.4692,39.3200,77,94,25154
1.8377,0.4643,39.3500,77,94,25157
1.8573,0.4692,39.1900,77,94,25160
1.8084,0.4643,39.3200,77,94,25163
1.8133,0.4643,39.4800,77,94,25167
1.8475,0.4741,39.2200,77,94,25170
1.8231,0.4643,39.3200,77,94,25174
1.8768,0.4692,39.1900,77,94,25177
1.8280,0.4888,39.3500,77,94,25181
1.8328,0.4643,39.3500,77,94,25184
1.8573,0.4643,39.2500,77,94,25187
1.8524,0.4545,39.3200,77,94,25190
1.8671,0.4692,39.2200,77,94,25194
1.8377,0.4643,39.3500,77,94,25197
1.8328,0.4643,39.3500,77,94,25200
1.8622,0.4692,39.3200,77,94,25203
1.8573,0.4692,39.3200,77,94,25207
1.9013,0.4692,39.2200,77,94,25210
1.9013,0.4643,39.3500,77,94,25213
1.9208,0.4643,39.3500,77,94,25217
1.9746,0.4790,39.1900,77,94,25221
1.9453,0.4741,39.3200,77,94,25224
1.9648,0.4692,39.0900,77,94,25227
1.9257,0.4594,39.3500,77,94,25230
1.9013,0.4594,39.3500,77,94,25234
1.9062,0.4985,39.3200,77,94,25237
1.8719,0.4643,39.3200,77,94,25240
1.8768,0.4692,39.2200,77,94,25243
1.8426,0.4692,39.3500,77,94,25247
1.8280,0.4643,39.3500,77,94,25250
1.8328,0.4692,39.2800,77,94,25253
1.7986,0.4643,39.3200,77,94,25257
1.7986,0.4692,39.2200,77,94,25261
1.7498,0.4643,39.3500,77,94,25264
1.7302,0.4888,39.3500,77,94,25267
1.7449,0.4741,39.1200,77,94,25271
1.7058,0.4643,39.3500,77,94,25274
1.7155,0.4643,39.2200,77,94,25277
1.6862,0.4643,39.3500,77,94,25280
1.6520,0.4692,39.3800,77,94,25284
1.6618,0.4741,39.2800,77,94,25287
1.6471,0.4643,39.3200,77,94,25290
1.6813,0.4692,39.2200,77,94,25293
1.6667,0.4643,39.3500,77,94,25297
1.6764,0.4594,39.3200,77,94,25300
1.7009,0.4643,39.2800,77,94,25304
1.6911,0.4643,39.3200,77,94,25307
1.7107,0.4692,39.2200,77,94,25311
1.6764,0.4448,39.3500,77,94,25314
1.6862,0.4594,39.3500,77,94,25317
1.7253,0.4692,39.2500,77,94,25320
1.7107,0.4643,39.5100,77,94,25324
1.7449,0.4692,39.2200,77,94,25327
1.7302,0.4643,39.3500,77,94,25330
1.7449,0.4594,39.3500,77,94,25333
1.7742,0.4839,39.2200,77,94,25337
1.7693,0.4643,39.3500,77,94,25340
1.7937,0.4692,39.2200,77,94,25344
1.7791,0.4692,39.3500,77,94,25347
1.7840,0.4545,39.3500,77,94,25351
1.8084,0.4643,39.2200,77,94,25354
1.7937,0.4643,39.3200,77,94,25357
1.8280,0.4692,39.1900,77,94,25360
1.7889,0.4545,39.3500,77,94,25364
1.7889,0.4643,39.3200,77,94,25367
1.8133,0.4741,39.1900,77,94,25370
1.8084,0.4643,39.3500,77,94,25373
1.8915,0.4692,39.2200,77,94,25377
1.9208,0.4888,39.3500,77,94,25380
1.9990,0.4643,39.4100,77,94,25383
2.1212,0.4643,39.2800,77,94,25387
2.2336,0.4643,39.3200,77,94,25391
2.3754,0.4643,39.2500,77,94,25394
2.4780,0.4643,39.4100,77,94,25397
2.5904,0.4643,39.3800,77,94,25400
2.6637,0.4692,39.3200,77,94,25404
2.5220,0.4594,39.3500,77,94,25407
2.3314,0.4692,39.2200,77,94,25410
2.0283,0.4643,39.3800,77,94,25413
1.7840,0.4643,39.3200,77,94,25417
1.5738,0.4790,39.1900,77,94,25420
1.4223,0.4643,39.3200,77,94,25423
1.4027,0.4643,39.2200,77,94,25426
1.4076,0.4643,39.3500,77,94,25431
1.4761,0.4643,39.3500,77,94,25434
1.5640,0.4594,39.3200,77,94,25437
1.6080,0.4643,39.2500,77,94,25440
1.6618,0.4692,39.2200,77,94,25444
1.6911,0.4594,39.3500,77,94,25447
1.6911,0.4545,39.3500,77,94,25450
1.7302,0.4692,39.1600,77,94,25453
1.7204,0.4643,39.3200,77,94,25457
1.7400,0.4692,39.1900,77,94,25460
1.7204,0.4545,39.3500,77,94,25463
1.7155,0.4643,39.3500,77,94,25466
1.7546,0.4643,39.1900,77,94,25470
1.7302,0.4643,39.3200,77,94,25474
1.7546,0.4692,39.2200,77,94,25477
1.7302,0.4594,39.3500,77,94,25480
1.7351,0.4594,39.3500,77,94,25484
1.7546,0.4692,39.2500,77,94,25487
1.7400,0.4643,39.3200,77,94,25490
1.7546,0.4692,39.1900,77,94,25493
1.7302,0.4643,39.3800,77,94,25497
1.7351,0.4643,39.3500,77,94,25500
1.7693,0.4692,39.3200,77,94,25503
1.7595,0.4643,39.3800,77,94,25506
1.7840,0.4692,39.2200,77,94,25510
1.7546,0.4692,39.3500,77,94,25513
1.7595,0.4643,39.3500,77,94,25517
1.7889,0.4985,39.2200,77,94,25520
1.7546,0.4741,39.3200,77,94,25524
1.7791,0.4692,38.6200,77,94,25527
1.7644,0.4643,39.3500,77,94,25530
1.7742,0.4643,39.3500,77,94,25534
1.7937,0.4643,39.3200,77,94,25537
1.7791,0.4643,39.2200,77,94,25540
1.7986,0.4643,39.2200,77,94,25543
1.7693,0.4643,39.3500,77,94,25547
1.7693,0.4594,39.3800,77,94,25550
1.7840,0.4692,39.2800,77,94,25553
1.7742,0.4643,39.3500,77,94,25556
1.7986,0.4692,39.2200,77,94,25561
1.7889,0.4643,39.3500,77,94,25564
1.8231,0.4545,39.3500,77,94,25567
1.8475,0.4741,39.1900,77,94,25570
1.8328,0.4545,39.3200,77,94,25574
1.8622,0.4692,39.2200,77,94,25577
1.8426,0.4643,39.3500,77,94,25580
1.8475,0.4545,39.3500,77,94,25583
1.8866,0.4692,39.2800,77,94,25587
1.8817,0.4643,39.2500,77,94,25590
1.9013,0.4692,39.2200,77,94,25593
1.9110,0.4594,39.3500,77,94,25596
1.8817,0.4643,39.3500,77,94,25601
1.8964,0.4643,39.3500,77,94,25604
1.8866,0.4643,39.3200,77,94,25607
1.9159,0.4692,39.2200,77,94,25610
1.9159,0.4643,39.3500,77,94,25614
1.9257,0.4643,39.3800,77,94,25617
1.9746,0.4741,39.0300,77,94,25620
1.9453,0.4643,39.3500,77,94,25623
1.9697,0.4692,39.1900,77,94,25627
1.9404,0.4643,39.3500,77,94,25630
1.9355,0.4692,39.4400,77,94,25633
1.9599,0.4692,39.2500,77,94,25636
1.9453,0.4643,39.3200,77,94,25640
1.9599,0.4594,39.1900,77,94,25644
1.9355,0.4643,39.3500,77,94,25647
1.9355,0.4643,39.2800,77,94,25650
1.9501,0.4692,39.3200,77,94,25654
1.9404,0.4643,39.3200,77,94,25657
1.9501,0.4692,39.2500,77,94,25660
1.9257,0.4643,39.4800,77,94,25663
1.9257,0.4692,39.3500,77,94,25667
1.9550,0.4741,39.1900,77,94,25670
1.9062,0.4545,39.3200,77,94,25673
1.9159,0.4692,39.2200,77,94,25676
1.8817,0.4643,39.3500,77,94,25680
1.8671,0.4643,39.3500,77,94,25683
1.8915,0.4692,39.2500,77,94,25687
1.8622,0.4790,39.3200,77,94,25690
1.8719,0.4692,39.2800,77,94,25694
1.8426,0.4643,39.3500,77,94,25697
1.8035,0.5034,39.3800,77,94,25701
1.7840,0.4594,39.3500,77,94,25704
1.8182,0.4692,39.2500,77,94,25707
1.7693,0.4545,39.4400,77,94,25710
1.7791,0.4692,39.1600,77,94,25714
1.7400,0.4643,39.2800,77,94,25717
1.7595,0.4545,39.3500,77,94,25720
1.7498,0.4692,39.2800,77,94,25723
1.7449,0.4643,39.3800,77,94,25728
1.7791,0.4692,39.1900,77,94,25731
1.7546,0.4643,39.3500,77,94,25734
1.7546,0.4643,39.3200,77,94,25737
1.7595,0.4790,39.2200,77,94,25741
1.7546,0.4643,39.3500,77,94,25744
1.7937,0.4692,39.2200,77,94,25747
1.7889,0.4643,39.3500,77,94,25750
1.8231,0.4643,39.3500,77,94,25754
1.7937,0.4888,39.2200,77,94,25757
1.7546,0.4643,39.3800,77,94,25760
1.7644,0.4643,39.1900,77,94,25763
1.7498,0.4594,39.2800,77,94,25767
1.7449,0.4594,39.3500,77,94,25771
1.7595,0.4643,39.3200,77,94,25774
1.7498,0.4643,39.4800,77,94,25777
1.7742,0.4643,39.2200,77,94,25781
1.7644,0.4643,39.3500,77,94,25784
1.7889,0.4594,39.4400,77,94,25787
1.7791,0.4643,39.2500,77,94,25790
1.7693,0.4643,39.3500,77,94,25794
1.7889,0.4692,39.2200,77,94,25797
1.7595,0.4545,39.3200,77,94,25800
1.7644,0.4594,39.3500,77,94,25803
1.7937,0.4692,39.2200,77,94,25807
1.7840,0.4643,39.2800,77,94,25810
1.8231,0.4692,39.1900,77,94,25814
1.8133,0.4594,39.2800,77,94,25817
1.8133,0.4643,39.4800,77,94,25821
1.8231,0.4741,39.2500,77,94,25824
1.7986,0.4643,39.4800,77,94,25827
1.8133,0.4692,39.1900,77,94,25830
1.7986,0.4692,39.2800,77,94,25834
1.8133,0.4643,39.3500,77,94,25837
1.8377,0.4643,39.2500,77,94,25840
1.8768,0.4643,39.3500,77,94,25843
1.8817,0.4643,39.1900,77,94,25847
1.8719,0.4741,39.3500,77,94,25850
1.8915,0.4643,39.4100,77,94,25853
1.9159,0.4692,39.2200,77,94,25857
1.9013,0.4643,39.3500,77,94,25861
1.9208,0.4643,39.2500,77,94,25864
1.9062,0.4594,39.3500,77,94,25867
1.9110,0.4643,39.3500,77,94,25870
1.9599,0.4692,39.2500,77,94,25874
1.9062,0.4643,38.8100,77,94,25877
1.9257,0.4643,39.2200,77,94,25880
1.8964,0.4594,39.2800,77,94,25883
1.9013,0.4643,39.3500,77,94,25887
1.9159,0.4643,39.3200,77,94,25890
1.9110,0.4643,39.3500,77,94,25893
1.9404,0.4643,39.2800,77,94,25896
1.9208,0.4643,39.3500,77,94,25901
1.9355,0.4643,39.3500,77,94,25904
1.9697,0.4741,39.2200,77,94,25907
1.9306,0.4643,39.3500,77,94,25910
1.9550,0.4692,39.2200,77,94,25914
1.9159,0.4594,39.2800,77,94,25917
1.9159,0.4643,39.3500,77,94,25920
1.9404,0.4692,39.2500,77,94,25923
1.9306,0.4643,39.3200,77,94,25927
1.9648,0.4643,39.2200,77,94,25930
1.9404,0.4594,39.3200,77,94,25933
1.9355,0.4692,39.3200,77,94,25936
1.9453,0.4692,39.3200,77,94,25940
1.9501,0.4643,39.3800,77,94,25944
1.9941,0.4692,39.2500,77,94,25947
1.9795,0.4643,39.3200,77,94,25950
1.9941,0.4643,39.3500,77,94,25954
2.0332,0.4741,39.2200,77,94,25957
2.0137,0.4643,39.4800,77,94,25960
2.0577,0.4692,39.2200,77,94,25963
2.0430,0.4545,39.3500,77,94,25967
2.0674,0.4643,39.3500,77,94,25970
2.1163,0.4692,39.2500,77,94,25973
2.1017,0.4643,39.3500,77,94,25976
2.1505,0.4692,39.3500,77,94,25980
2.1359,0.4643,39.3800,77,94,25984
2.1554,0.4594,39.3500,77,94,25987
2.1652,0.4643,39.2200,77,94,25990
2.1457,0.4643,39.3200,77,94,25994
2.1554,0.4692,39.2500,77,94,25997
2.1114,0.4643,39.3800,77,94,26000
2.1114,0.4643,39.3200,77,94,26003
2.1261,0.4741,39.2200,77,94,26007
2.0821,0.4643,39.3200,77,94,26010
2.1114,0.4741,39.2500,77,94,26013
2.0772,0.4594,39.3200,77,94,26016
2.0723,0.4643,39.3200,77,94,26020
2.0968,0.4643,39.2200,77,94,26023
2.0821,0.4692,39.3500,77,94,26027
2.0674,0.4741,39.3500,77,94,26030
2.0186,0.4643,39.3500,77,94,26034
2.0332,0.4643,39.3500,77,94,26037
1.9941,0.4643,39.2500,77,94,26040
1.9599,0.4643,39.4100,77,94,26043
1.9844,0.4643,39.2200,77,94,26047
1.9404,0.4643,39.3500,77,94,26050
1.9355,0.4692,39.3500,77,94,26053
1.9648,0.4888,39.2200,77,94,26056
1.9208,0.4643,39.3200,77,94,26060
1.9501,0.4741,39.2500,77,94,26063
1.9257,0.4643,39.3500,77,94,26066
1.9257,0.4643,39.3500,77,94,26070
1.9599,0.4741,39.2200,77,94,26074
1.9404,0.4643,39.3500,77,94,26077
1.9746,0.4692,39.2200,77,94,26080
1.9599,0.4643,39.3500,77,94,26083
1.9697,0.4594,39.3500,77,94,26087
1.9990,0.4643,39.2800,77,94,26090
2.0039,0.4545,39.3200,77,94,26093
2.0186,0.4692,39.1900,77,94,26096
1.9697,0.4643,39.3500,77,94,26100
1.9941,0.4692,39.3500,77,94,26103
1.9795,0.4936,39.1900,77,94,26106
1.9404,0.4643,39.3800,77,94,26109
1.9550,0.4692,39.2200,77,94,26114
1.9306,0.4643,39.3500,77,94,26117
1.9306,0.4594,39.3500,77,94,26120
1.9550,0.4985,39.2500,77,94,26123
1.9306,0.4692,39.3500,77,94,26127
1.9795,0.4692,39.1900,77,94,26130
1.9941,0.4692,39.3500,77,94,26133
2.0577,0.4936,39.2800,77,94,26136
2.1652,0.4643,39.2800,77,94,26140
2.2923,0.4545,39.3500,77,94,26143
2.5024,0.4692,39.1600,77,94,26146
2.6540,0.4643,39.4400,77,94,26149
2.7908,0.4643,39.3500,77,94,26153
2.8886,0.4692,39.2200,77,94,26157
2.7761,0.4643,39.3800,77,94,26160
2.6149,0.4643,39.1900,77,94,26163
2.3412,0.4643,39.3200,77,94,26167
2.0723,0.4594,39.3500,77,94,26170
1.8573,0.4741,39.2200,77,94,26173
1.6569,0.4643,39.3200,77,94,26176
1.5787,0.4692,39.2200,77,94,26180
1.5347,0.4643,39.3500,77,94,26183
1.5640,0.4545,39.3500,77,94,26186
1.6422,0.4643,39.3200,77,94,26189
1.6960,0.4643,39.3200,77,94,26193
1.7791,0.4692,39.2200,77,94,26196
1.7742,0.4545,39.3500,77,94,26200
1.7791,0.4643,39.3200,77,94,26203
1.8084,0.4741,39.1900,77,94,26207
1.7742,0.4643,39.3200,77,94,26210
1.7791,0.4692,39.1900,77,94,26213
1.7351,0.4594,39.3500,77,94,26216
1.7302,0.4643,39.3500,77,94,26220
1.7595,0.4692,39.2500,77,94,26223
1.7302,0.4643,39.3200,77,94,26226
1.7498,0.4692,39.1600,77,94,26229
1.7302,0.4643,39.3500,77,94,26233
1.7253,0.4692,39.3500,77,94,26236
1.7400,0.4692,39.2800,77,94,26240
1.7155,0.4643,39.2500,77,94,26243
1.7253,0.4643,39.2200,77,94,26247
1.7107,0.4643,38.8100,77,94,26250
1.7253,0.4643,39.3800,77,94,26253
1.7693,0.4741,39.1900,77,94,26256
1.7498,0.4643,39.3500,77,94,26260
1.7791,0.4888,39.2800,77,94,26263
1.7693,0.4643,39.3800,77,94,26266
1.7840,0.4545,39.3500,77,94,26269
1.8280,0.5034,39.1900,77,94,26273
1.8231,0.4643,39.3500,77,94,26276
1.8573,0.4692,39.2200,77,94,26279
1.8524,0.4594,39.3200,77,94,26283
1.8719,0.4692,39.3500,77,94,26287
1.9159,0.4692,39.2800,77,94,26290
1.9159,0.4643,39.3200,77,94,26293
1.9404,0.4692,39.2200,77,94,26296
1.9257,0.4643,39.3500,77,94,26300
1.9208,0.4643,39.4400,77,94,26303
1.9599,0.4741,39.2200,78,94,26306
1.9941,0.4692,39.2500,78,94,26310
1.9844,0.4643,39.4400,78,94,26313
2.0283,0.4692,39.2200,78,94,26316
2.0088,0.4594,39.3200,78,94,26320
2.0088,0.4643,39.2800,78,94,26323
2.0088,0.4692,39.2500,78,94,26327
1.9990,0.4643,39.3800,78,94,26330
2.0186,0.4692,39.2200,78,94,26334
1.9844,0.4643,39.3500,78,94,26337
1.9941,0.4448,39.3500,78,94,26340
2.0137,0.4741,39.2500,78,94,26343
1.9795,0.4545,39.3200,78,94,26347
1.9892,0.4643,39.2200,78,94,26350
1.9453,0.4594,39.3200,78,94,26353
1.9501,0.4643,39.3500,78,94,26356
1.9746,0.4692,39.2500,78,94,26360
1.9208,0.4643,39.3800,78,94,26363
1.9648,0.4643,39.2500,78,94,26366
1.9404,0.4448,39.3200,78,94,26370
1.9355,0.4643,39.3500,78,94,26374
1.9453,0.4643,39.2500,78,94,26377
1.9306,0.4643,39.3500,78,94,26380
1.9550,0.4692,39.2500,78,94,26383
1.9208,0.4643,39.3200,78,94,26387
1.9257,0.4594,39.3500,78,94,26390
1.9746,0.4692,39.2200,78,94,26393
1.9648,0.4643,39.3500,78,94,26396
1.9990,0.4643,39.2500,78,94,26400
1.9550,0.4594,39.2800,78,94,26403
1.9453,0.4643,39.3200,78,94,26406
1.9599,0.4692,39.2500,78,94,26409
1.9355,0.4643,39.3500,78,94,26414
1.9648,0.4692,39.2500,78,94,26417
1.9453,0.4643,39.2800,78,94,26420
1.9550,0.4643,39.2200,78,94,26423
1.9648,0.4643,39.2800,78,94,26427
1.9501,0.4448,39.3500,78,94,26430
1.9795,0.4692,39.2200,78,94,26433
1.9501,0.4839,39.3800,78,94,26436
1.9550,0.4643,38.9300,78,94,26440
1.9844,0.4692,39.2200,78,94,26443
1.9599,0.4643,39.3200,78,94,26446
1.9990,0.4594,39.2500,78,94,26449
1.9844,0.4594,39.3800,78,94,26454
1.9941,0.4643,39.3500,78,94,26457
2.0283,0.4692,39.2500,78,94,26460
1.9941,0.4594,39.3500,78,94,26463
2.0186,0.4692,39.2200,78,94,26467
1.9746,0.4643,39.3500,78,94,26470
2.0088,0.4643,39.3500,78,94,26473
1.9844,0.4643,39.2800,78,94,26476
1.9599,0.4643,39.3500,78,94,26480
1.9746,0.4545,39.2500,78,94,26483
1.9453,0.4643,39.3200,78,94,26486
1.9453,0.4643,39.3800,78,94,26489
1.9746,0.4692,39.0900,78,94,26493
1.9404,0.4643,39.3200,78,94,26497
1.9844,0.4692,39.2500,78,94,26500
1.9306,0.4839,39.2800,78,94,26503
1.9159,0.4594,39.3500,78,94,26507
1.9257,0.4643,39.2500,78,94,26510
1.8915,0.4643,39.3200,78,94,26513
1.9110,0.4985,39.2500,78,94,26516
1.8866,0.4692,39.3800,78,94,26520
1.8915,0.4643,39.3500,78,94,26523
1.9355,0.4643,39.2800,78,94,26526
1.9062,0.4643,39.3500,78,94,26529
1.9355,0.4643,39.2500,78,94,26533
1.9062,0.4643,39.3500,78,94,26536
1.9062,0.4643,39.3500,78,94,26540
1.9599,0.4741,39.2200,78,94,26543
1.9501,0.4692,39.3500,78,94,26547
1.9892,0.4741,39.2500,78,94,26550
1.9599,0.4594,39.3200,78,94,26553
1.9404,0.4594,39.3500,78,94,26556
1.9501,0.4790,39.2200,78,94,26560
1.9013,0.4643,39.3500,78,94,26563
1.9257,0.4741,39.2500,78,94,26566
1.8817,0.4594,39.3800,78,94,26569
1.8817,0.4643,39.5100,78,94,26573
1.8866,0.4643,39.2800,78,94,26576
1.8671,0.4545,39.3200,78,94,26579
1.8866,0.4936,39.2200,78,94,26583
1.8573,0.4741,39.3500,78,94,26587
1.8573,0.4643,39.3500,78,94,26590
1.8817,0.4741,39.2200,78,94,26593
1.8426,0.4643,39.3500,78,94,26596
1.8915,0.4790,39.2500,78,94,26600
1.8231,0.4643,39.3500,78,94,26603
1.8133,0.4643,39.3500,78,94,26606
1.8426,0.4741,39.2500,78,94,26609
1.8475,0.4545,39.3200,78,94,26613
1.8426,0.4839,39.2500,78,94,26616
1.8084,0.4643,38.9000,78,94,26619
1.8133,0.4448,39.3500,78,94,26622
1.8231,0.4594,39.2800,78,94,26627
1.8182,0.4643,39.2500,78,94,26630
1.8475,0.4643,39.2500,78,94,26633
1.8280,0.4643,39.3500,78,94,26636
1.8622,0.4545,39.3200,78,94,26640
1.8719,0.4741,39.2200,78,94,26643
1.8573,0.4692,39.3200,78,94,26646
1.8866,0.4741,39.1200,78,94,26650
1.8524,0.4643,39.3500,78,94,26653
1.8671,0.4545,39.3500,78,94,26656
1.9013,0.4692,39.2500,78,94,26659
1.8866,0.4643,39.3500,78,94,26663
1.9306,0.4741,39.2500,78,94,26667
1.9159,0.4545,39.3500,78,94,26670
1.9208,0.4692,39.3500,78,94,26673
1.9355,0.4643,39.3200,78,94,26677
1.9306,0.4643,39.3200,78,94,26680
1.9599,0.4790,39.2200,78,94,26683
1.9453,0.4643,39.3500,78,94,26686
1.9648,0.4643,39.3200,78,94,26690
2.0137,0.4741,39.2500,78,94,26693
1.9990,0.4643,39.3800,78,94,26696
2.0430,0.4741,39.2500,78,94,26699
2.0186,0.4643,39.3500,78,94,26703
2.0283,0.4643,39.3500,78,94,26706
2.0577,0.4741,39.2500,78,94,26710
2.0332,0.4545,39.3500,78,94,26713
2.0723,0.4692,39.2200,78,94,26717
2.0674,0.4643,39.3500,78,94,26720
2.1163,0.4643,39.3500,78,94,26723
2.1310,0.4692,39.2800,78,94,26726
2.1359,0.4643,39.4800,78,94,26730
2.1750,0.4692,39.2500,78,94,26733
2.1505,0.4643,39.3500,78,94,26736
2.1457,0.4839,39.3800,78,94,26739
2.1701,0.4741,39.3500,78,94,26743
2.1261,0.4643,39.3500,78,94,26746
2.1359,0.4692,39.1900,78,94,26749
2.0870,0.4545,39.3800,78,94,26753
2.0772,0.4643,39.3500,78,94,26757
2.0968,0.4692,39.1900,78,94,26760
2.0626,0.4594,39.3800,78,94,26763
2.0870,0.4643,39.1900,78,94,26766
2.0577,0.4643,39.3500,78,94,26769
2.0430,0.4594,39.3200,78,94,26773
2.0528,0.4643,39.2800,78,94,26776
2.0235,0.4448,39.3200,78,94,26779
2.0137,0.4643,39.2800,78,94,26782
1.9697,0.4643,39.3500,78,94,26786
1.9550,0.4643,39.3200,78,94,26789
1.9990,0.4741,39.1900,78,94,26792
1.9159,0.4936,39.2800,78,94,26796
1.9110,0.4692,39.0000,78,94,26800
1.8768,0.4643,39.3200,78,94,26803
1.8671,0.4594,39.3500,78,94,26806
1.8964,0.4790,39.1900,78,94,26809
1.8671,0.4643,39.4800,78,94,26813
1.8719,0.4692,39.2200,78,94,26816
1.8475,0.4643,39.3500,78,94,26819
1.8573,0.4594,39.4400,78,94,26822
1.8622,0.4839,39.2800,78,94,26826
1.8426,0.4643,39.4800,78,94,26829
1.8573,0.4692,39.2200,78,94,26832
1.8231,0.4643,39.3500,78,94,26835
1.8377,0.4643,39.3500,78,94,26840
1.8719,0.4692,39.2500,78,94,26843
1.8573,0.4643,39.3500,78,94,26846
1.8866,0.4692,39.2200,78,94,26850
1.8671,0.4594,39.3500,78,94,26853
1.8622,0.4643,39.3500,78,94,26856
1.8915,0.4741,39.1900,78,94,26859
1.8719,0.4643,39.3200,78,94,26863
1.8866,0.4692,39.2200,78,94,26866
1.8768,0.4692,39.3500,78,94,26869
1.8719,0.4594,39.3800,78,94,26872
1.9013,0.4692,39.2800,78,94,26876
1.8964,0.4643,39.3500,78,94,26880
1.9306,0.4692,39.2200,78,94,26883
1.9501,0.4692,39.3500,78,94,26886
2.0186,0.4643,39.3500,78,94,26890
2.1408,0.4741,39.1900,78,94,26893
2.2239,0.4643,39.3500,78,94,26896
2.3949,0.4692,39.2200,78,94,26899
2.5855,0.4741,39.2800,78,94,26903
2.7957,0.4594,39.3500,78,94,26906
3.0059,0.4692,39.1900,78,94,26909
3.0499,0.4594,39.3200,78,94,26912
3.0205,0.4643,39.2200,78,94,26916
2.8104,0.4643,39.3500,78,94,26919
1.5885,0.4643,39.3500,78,94,26923
1.5591,0.4594,39.3500,78,94,26927
1.5982,0.4692,39.2500,78,94,26930
1.6276,0.4643,39.3200,78,94,26933
1.7058,0.4643,39.1900,78,94,26936
1.7204,0.4594,39.3200,78,94,26940
1.7693,0.4643,39.3500,78,94,26943
1.8084,0.4692,39.2500,78,94,26946
1.7889,0.4643,39.3500,78,94,26949
1.8133,0.4692,39.2500,78,94,26953
1.7840,0.4594,39.3200,78,94,26956
1.7937,0.4545,39.3500,78,94,26959
1.7742,0.4936,39.2500,78,94,26962
1.7693,0.4643,39.3800,78,94,26967
1.8133,0.4692,39.2500,78,94,26970
1.7840,0.4643,39.3500,78,94,26973
1.7937,0.4741,39.3500,78,94,26976
1.8280,0.4741,39.2800,78,94,26980
1.8084,0.4643,39.3500,78,94,26983
1.8475,0.4692,39.2200,78,94,26986
1.8328,0.4594,39.3200,78,94,26989
1.8426,0.4643,39.4800,78,94,26993
1.8817,0.4692,39.1900,78,94,26996
1.8622,0.4643,39.3500,78,94,26999
1.8964,0.4692,39.2200,78,94,27002
1.8671,0.4643,39.2800,78,94,27006
1.8719,0.4594,39.3800,78,94,27010
1.8817,0.4643,39.2800,78,94,27013
1.9062,0.4594,39.3500,78,94,27016
1.9062,0.4692,39.2500,78,94,27020
1.8817,0.4692,38.6800,78,94,27023
1.8964,0.4643,39.3200,78,94,27026
1.9306,0.4741,39.3200,78,94,27029
1.9013,0.4888,39.3200,78,94,27033
1.9306,0.4692,39.4100,78,94,27036
1.8964,0.4594,39.3200,78,94,27039
1.8915,0.4643,39.3800,78,94,27042
1.9159,0.4692,39.2200,78,94,27046
1.8915,0.4643,39.3500,78,94,27049
1.9208,0.4741,39.2500,78,94,27053
1.9062,0.4545,39.3500,78,94,27056
1.9110,0.4790,39.3500,78,94,27060
1.9257,0.4643,39.2800,78,94,27063
1.9257,0.4448,39.3500,78,94,27066
1.9404,0.4741,39.2500,78,94,27069
1.9257,0.4692,39.3200,78,94,27073
1.9306,0.4594,39.3500,78,94,27076
1.9648,0.4741,39.2200,78,94,27079
1.9404,0.4643,39.3500,78,94,27082
1.9795,0.4985,39.2500,78,94,27086
1.9599,0.4594,39.3500,78,94,27089
1.9599,0.4643,39.3500,78,94,27092
1.9941,0.4741,39.2200,78,94,27096
1.9599,0.4888,39.3200,78,94,27100
1.9892,0.4741,39.1600,78,94,27103
1.9648,0.4643,39.3800,78,94,27106
1.9746,0.4643,39.4400,78,94,27109
1.9892,0.4692,39.3200,78,94,27113
1.9892,0.4643,39.3200,78,94,27116
2.0283,0.4643,39.2500,78,94,27119
1.9990,0.4594,39.3500,78,94,27122
2.0088,0.4545,39.3500,78,94,27126
2.0430,0.4741,39.2500,78,94,27129
2.0039,0.4692,39.3200,78,94,27132
2.0235,0.4985,39.2200,78,94,27136
1.9941,0.4643,39.3800,78,94,27140
2.0088,0.4643,39.3500,78,94,27143
2.0283,0.4839,39.2500,78,94,27146
1.9795,0.4643,39.3200,78,94,27149
2.0283,0.4692,39.2200,78,94,27153
1.9599,0.4790,39.3800,78,94,27156
1.9550,0.4594,39.3500,78,94,27159
1.9697,0.4692,39.3200,78,94,27162
1.9795,0.4643,39.3500,78,94,27166
1.9648,0.4790,39.1900,78,94,27169
1.9306,0.4839,39.3800,78,94,27172
1.9257,0.4643,39.3500,78,94,27175
1.9501,0.4741,39.1900,78,94,27180
1.9355,0.4643,39.3200,78,94,27183
1.9453,0.4888,39.2200,78,94,27186
1.9306,0.4643,39.4100,78,94,27189
1.9355,0.4643,39.3500,78,94,27193
1.9648,0.4692,39.2200,78,94,27196
1.9648,0.4790,39.3500,78,94,27199
1.9697,0.4643,39.1900,78,94,27202
1.9355,0.4643,39.3500,78,94,27206
1.9257,0.4643,39.3800,78,94,27209
1.9355,0.4741,39.3200,78,94,27212
1.9013,0.4643,39.2800,78,94,27215
1.9062,0.4692,39.2200,78,94,27219
1.8719,0.4643,39.3500,78,94,27223
1.8768,0.4643,39.3500,78,94,27226
1.8964,0.4790,39.2200,78,94,27229
1.8719,0.4594,39.3500,78,94,27233
1.8915,0.4643,39.2200,78,94,27236
1.8622,0.4643,39.3500,78,94,27239
1.8524,0.4594,39.3500,78,94,27242
1.8768,0.5034,39.2200,78,94,27246
1.8475,0.4643,39.3200,78,94,27249
1.8622,0.4692,39.2200,78,94,27252
1.8280,0.4888,39.3500,78,94,27255
1.8280,0.4643,39.3500,78,94,27259
1.8524,0.4643,39.3200,78,94,27262
1.8377,0.4643,39.3200,78,94,27266
1.8573,0.4692,39.1900,78,94,27269
1.8426,0.4643,39.3500,78,94,27273
1.8426,0.4643,39.3800,78,94,27276
1.8866,0.4741,39.0900,78,94,27279
1.8622,0.4643,39.3500,78,94,27282
1.8866,0.4692,39.1900,78,94,27286
1.8426,0.4839,39.3500,78,94,27289
1.8231,0.4643,39.3500,78,94,27292
1.8328,0.4692,39.2500,78,94,27295
1.8084,0.4643,39.3200,78,94,27299
1.8280,0.4936,39.3200,78,94,27302
1.8035,0.4643,39.3500,78,94,27305
1.7937,0.4643,38.7700,78,94,27310
1.8035,0.4692,39.2800,78,94,27313
1.7742,0.4594,39.3200,78,94,27316
1.7791,0.4692,39.2200,78,94,27319
1.7498,0.4643,39.3500,78,94,27323
1.7449,0.4643,39.3500,78,94,27326
1.7693,0.4741,39.1900,78,94,27329
1.7400,0.4448,39.3500,78,94,27332
1.7498,0.4985,39.2500,78,94,27336
1.7253,0.4643,38.7400,78,94,27339
1.7204,0.4643,39.3500,78,94,27342
1.7498,0.4692,39.1600,78,94,27345
1.7351,0.4643,39.3200,78,94,27350
1.7644,0.4790,39.2200,78,94,27353
1.7595,0.4643,39.4100,78,94,27356
1.7742,0.4643,38.7100,78,94,27359
1.8035,0.4643,39.3200,78,94,27363
1.7986,0.4643,39.3200,78,94,27366
1.8182,0.4936,39.3200,78,94,27369
1.7986,0.4594,39.3500,78,94,27372
1.8084,0.4594,39.4100,78,94,27376
1.8524,0.4741,39.1900,78,94,27379
1.8377,0.4643,39.3200,78,94,27382
1.8573,0.4741,39.1900,78,94,27385
1.8328,0.4888,39.3200,78,94,27389
1.8328,0.4643,39.3500,78,94,27393
1.8622,0.4643,39.1900,78,94,27396
1.8426,0.4643,39.3200,78,94,27399
1.8671,0.4790,39.2200,78,94,27403
1.8524,0.4643,39.3500,78,94,27406
1.8573,0.4643,39.3500,78,94,27409
1.8768,0.4643,39.3200,78,94,27412
1.8719,0.4643,39.3200,78,94,27416
1.8915,0.4790,39.1900,78,94,27419
1.8719,0.4692,39.3200,78,94,27422
1.8768,0.4594,39.3500,78,94,27425
1.9062,0.4643,39.1900,78,94,27429
1.8671,0.4643,39.3200,78,94,27432
1.8866,0.4692,39.2200,78,94,27436
1.8573,0.4545,39.3500,78,94,27439
1.8524,0.4643,39.3500,78,94,27443
1.8817,0.4741,39.2200,78,94,27446
1.8524,0.4643,39.3500,78,94,27449
1.8866,0.4692,39.2200,78,94,27452
1.8622,0.4643,39.3500,78,94,27456
1.8719,0.4643,39.2500,78,94,27459
1.9013,0.4643,39.3200,78,94,27462
1.9013,0.4643,39.3200,78,94,27465
1.9208,0.4790,39.2500,78,94,27469
1.8964,0.4790,39.3500,78,94,27472
1.9110,0.4643,39.3500,78,94,27475
1.9550,0.4741,39.2200,78,94,27479
1.9550,0.4448,39.3200,78,94,27483
1.9990,0.4692,39.1900,78,94,27486
2.0039,0.4643,39.3500,78,94,27489
2.0332,0.4545,39.3500,78,94,27492
2.0821,0.4643,39.1900,78,94,27496
2.0626,0.4643,39.3500,78,94,27499
2.1017,0.4692,39.2200,78,94,27502
2.0626,0.4643,39.2800,78,94,27505
2.0626,0.4594,38.7100,78,94,27509
2.0968,0.4692,39.2500,78,94,27512
2.0626,0.4594,39.3200,78,94,27515
2.0772,0.4692,39.2800,78,94,27518
2.0430,0.4643,39.3200,78,94,27523
2.0381,0.4692,39.3800,78,94,27526
2.0626,0.4741,39.1900,78,94,27529
1.9844,0.4692,39.2500,78,94,27533
1.9501,0.4643,39.3500,78,94,27536
1.9599,0.4643,38.6500,78,94,27539
1.9159,0.4545,39.3200,78,94,27543
1.9013,0.4643,39.3500,78,94,27546
1.9062,0.4594,39.3200,78,94,27549
1.9013,0.4643,39.2800,78,94,27552
1.9453,0.4692,39.2500,78,94,27556
1.9208,0.4643,39.3500,78,94,27559
1.9257,0.4790,39.3500,78,94,27563
1.9501,0.4741,39.2200,78,94,27566
1.9257,0.4643,39.2800,78,94,27570
1.9501,0.4643,39.2200,78,94,27573
1.9404,0.4545,39.3200,78,94,27576
1.9257,0.4643,39.3500,78,94,27579
1.9599,0.5034,39.2500,78,94,27583
1.9501,0.4643,39.3500,78,94,27586
1.9795,0.4692,39.2200,78,94,27589
1.9453,0.4790,39.3200,78,94,27592
1.9453,0.4643,39.3500,78,94,27596
1.9599,0.4643,39.2800,78,94,27599
1.9453,0.4643,39.3500,78,94,27602
1.9550,0.4643,39.2200,78,94,27606
1.9062,0.4643,39.2800,78,94,27610
1.9013,0.4643,39.3500,78,94,27613
1.9306,0.4692,39.2500,78,94,27616
1.8866,0.4545,39.3200,78,94,27619
1.8719,0.4643,39.2200,78,94,27623
1.8084,0.4594,39.3200,78,94,27626
1.7840,0.4643,39.3500,78,94,27629
1.7889,0.4692,39.2500,78,94,27632
1.7937,0.4692,39.3500,78,94,27636
1.8622,0.4643,39.2800,78,94,27639
1.8915,0.4594,39.3800,78,94,27642
2.0235,0.4594,39.3500,78,94,27645
2.1408,0.4888,39.2500,78,94,27650
2.2874,0.4643,39.3500,78,94,27653
2.4536,0.4692,39.2200,78,94,27656
2.5562,0.4643,39.3500,78,94,27659
2.6197,0.4692,39.3500,78,94,27663
2.6051,0.4741,39.2500,78,94,27666
2.3656,0.4643,39.3200,78,94,27669
2.1065,0.4692,39.2500,78,94,27672
1.7546,0.4692,39.3200,78,94,27676
1.4809,0.4643,39.5100,78,94,27679
1.3148,0.4692,39.3200,78,94,27682
1.2072,0.4643,39.3500,78,94,27685
1.1975,0.4936,39.2800,78,94,27689
1.2072,0.4643,39.3800,78,94,27693
1.2659,0.4643,39.4100,78,94,27696
1.3294,0.4643,39.2500,78,94,27699
1.3636,0.4643,39.3200,78,94,27703
1.4321,0.4692,39.2500,78,94,27706
1.4370,0.4741,39.3500,78,94,27709
1.4663,0.4643,39.3500,78,94,27712
1.5200,0.4643,39.2200,78,94,27716
1.5200,0.4448,39.3200,78,94,27719
1.5640,0.4692,39.2200,78,94,27722
1.5640,0.4545,39.3500,78,94,27725
1.5982,0.4545,39.3500,78,94,27729
1.6569,0.4692,39.2200,78,94,27732
1.6471,0.4643,39.3500,78,94,27736
1.6960,0.4643,39.2500,78,94,27739
1.6960,0.4448,39.3500,78,94,27743
1.7155,0.4643,39.3500,78,94,27746
1.7400,0.4643,39.2800,78,94,27749
1.7351,0.4643,39.3500,78,94,27752
1.7986,0.4692,39.2500,78,94,27756
1.7546,0.4594,39.3500,78,94,27759
1.7644,0.4692,39.3500,78,94,27762
1.7937,0.4741,39.2200,78,94,27765
1.7595,0.4643,39.3200,78,94,27769
1.7840,0.4692,39.2500,78,94,27772
1.7742,0.4545,39.3200,78,94,27776
1.7546,0.4643,39.3200,78,94,27779
1.7840,0.4692,39.1900,78,94,27783
1.7644,0.4643,39.3200,78,94,27786
1.7840,0.4692,39.2500,78,94,27789
1.7498,0.4643,39.4100,78,94,27792
1.7449,0.4594,39.3500,78,94,27796
1.7546,0.4643,39.3200,78,94,27799
1.7644,0.4643,39.3500,78,94,27802
1.7791,0.4741,39.1900,78,94,27805
1.7498,0.4643,39.3500,78,94,27809
1.7449,0.4643,39.3500,78,94,27812
1.7595,0.4741,39.2500,78,94,27815
1.7204,0.4643,39.3200,78,94,27819
1.7253,0.4985,39.2500,78,94,27823
1.6813,0.4594,39.2800,78,94,27826
1.6764,0.4643,39.3500,78,94,27829
1.7155,0.4692,39.2500,78,94,27832
1.6862,0.4741,39.3200,78,94,27836
1.7155,0.4741,39.2200,78,94,27839
1.6911,0.4643,39.4100,78,94,27842
1.6960,0.4594,39.3500,78,94,27845
1.7107,0.4643,39.2800,78,94,27849
1.7058,0.4692,39.3500,78,94,27852
1.7400,0.4741,39.2500,78,94,27855
1.7204,0.4545,39.3500,78,94,27858
1.7253,0.4692,39.3500,78,94,27863
1.7644,0.4741,39.2800,78,94,27866
1.7498,0.4643,39.4100,78,94,27869
1.7986,0.4741,39.2500,78,94,27872
1.7840,0.4643,39.3500,78,94,27876
1.7889,0.4643,39.4800,78,94,27879
1.8182,0.4741,39.2500,78,94,27882
1.8035,0.4643,39.3200,78,94,27885
1.8328,0.4790,39.2500,78,94,27889
1.8133,0.4643,39.3200,78,94,27892
1.8084,0.4643,39.3200,78,94,27895
1.8133,0.4643,39.2800,78,94,27898
1.7937,0.4643,39.3500,78,94,27902
1.8182,0.4594,39.2500,78,94,27906
1.7937,0.4448,39.3500,78,94,27909
1.8084,0.4594,39.2200,78,94,27913
1.8524,0.4741,39.2200,78,94,27916
1.8475,0.4643,39.3200,78,94,27919
1.8768,0.4741,39.2500,78,94,27922
1.8426,0.4643,39.3500,78,94,27926
1.8231,0.4643,39.4100,78,94,27929
1.8280,0.4741,39.3200,78,94,27932
1.7986,0.4643,39.3500,78,94,27935
1.8280,0.4692,39.2500,78,94,27939
1.8035,0.4643,39.2800,78,94,27942
1.8133,0.4643,39.3500,78,94,27945
1.8280,0.4643,39.3200,78,94,27949
1.8133,0.4594,39.3200,78,94,27953
1.8182,0.4790,39.2800,78,94,27956
1.7693,0.4643,39.3500,78,94,27959
1.7546,0.4594,39.3500,78,94,27962
1.7791,0.4692,39.1900,78,94,27966
1.7498,0.4448,39.3500,78,94,27969
1.7791,0.4985,39.2200,78,94,27972
1.7546,0.4594,39.3200,78,94,27975
1.7498,0.4594,39.3500,78,94,27979
1.7644,0.4741,39.2500,78,94,27982
1.7302,0.4594,39.3200,78,94,27985
1.7498,0.4741,39.2200,78,94,27988
1.7204,0.4643,39.4100,78,94,27993
1.7204,0.4643,39.3200,78,94,27996
1.7302,0.4643,39.2800,78,94,27999
1.7302,0.4594,39.3800,78,94,28002
1.7449,0.4741,39.2500,78,94,28006
1.7058,0.4643,39.3500,78,94,28009
1.6960,0.4643,39.3500,78,94,28012
1.7253,0.4985,39.1900,78,94,28015
1.7009,0.4839,39.3800,78,94,28019
1.7351,0.4643,39.2500,78,94,28022
1.7204,0.4448,39.3500,78,94,28025
1.7302,0.4545,39.3800,78,94,28028
1.7693,0.4741,39.2200,78,94,28033
1.7595,0.4643,39.3500,78,94,28036
1.8182,0.4692,39.2200,78,94,28039
1.7840,0.4692,39.3500,78,94,28042
1.8035,0.4643,39.3500,78,94,28046
1.8622,0.4643,39.3200,78,94,28049
1.9159,0.4643,39.3500,78,94,28052
2.0186,0.4692,39.2200,78,94,28055
2.0723,0.4594,39.3800,78,94,28059
2.1457,0.4594,39.3500,78,94,28062
2.2532,0.4741,39.2200,78,94,28065
2.2727,0.4643,39.3200,78,94,28068
2.3363,0.4790,39.2200,78,94,28072
2.3363,0.4643,39.3200,78,94,28076
2.3558,0.4643,39.3500,78,94,28079
2.4047,0.4790,39.2200,78,94,28082
2.3754,0.4643,39.3200,78,94,28086
2.4047,0.4692,39.2800,78,94,28089
2.3754,0.4643,39.3500,78,94,28092
2.3705,0.4545,39.3500,78,94,28095
2.3803,0.4643,39.2800,78,94,28099
2.3460,0.4643,39.3200,78,94,28102
2.3314,0.4692,39.2200,78,94,28105
2.2972,0.4643,39.3500,78,94,28108
2.2727,0.4985,39.3500,78,94,28112
2.3021,0.4741,39.1900,78,94,28115
2.2581,0.4643,39.2200,78,94,28119
2.2776,0.4692,39.2200,78,94,28122
2.2727,0.4545,39.3500,78,94,28126
2.2336,0.4643,39.3800,78,94,28129
2.2581,0.4741,38.5500,78,94,28132
2.2190,0.4643,39.3500,78,94,28135
2.2336,0.4594,39.1900,78,94,28139
2.1994,0.4643,39.3500,78,94,28142
2.1603,0.4643,39.3500,78,94,28146
2.1554,0.4888,39.3200,78,94,28149
2.1848,0.4692,39.1200,78,94,28152
2.1554,0.4643,39.3500,78,94,28155
2.1848,0.4692,39.1900,78,94,28160
2.1603,0.4643,39.3200,78,94,28163
2.1359,0.4643,39.2500,78,94,28166
2.1408,0.4692,39.5700,78,94,28169
2.1017,0.4643,39.3200,78,94,28173
2.1163,0.4692,39.1900,78,94,28176
2.0772,0.4594,39.2800,78,94,28179
2.0772,0.4643,39.3800,78,94,28182
2.0870,0.4692,39.2500,78,94,28186
2.0674,0.4643,39.3500,78,94,28189
2.0919,0.4692,39.2200,78,94,28192
2.0626,0.4643,39.3500,78,94,28195
2.0723,0.4643,39.3500,78,94,28199
2.1065,0.4692,39.2500,78,94,28203
2.0821,0.4692,39.3500,78,94,28206
2.1017,0.4692,39.2200,78,94,28209
2.0626,0.4594,39.4100,78,94,28212
2.0577,0.4643,39.3500,78,94,28216
2.0723,0.4692,39.2800,78,94,28219
2.0479,0.4643,39.2800,78,94,28222
2.0968,0.4692,39.2200,78,94,28225
2.0870,0.4497,39.3200,78,94,28229
2.1017,0.4594,39.3500,78,94,28232
2.1163,0.4643,39.2800,78,94,28235
2.1212,0.4643,39.3200,78,94,28238
2.1261,0.4692,39.3500,78,94,28242
2.0772,0.4643,39.3500,78,94,28246
2.0479,0.4643,39.3500,78,94,28249
2.0626,0.4741,39.2200,78,94,28252
2.0137,0.4692,39.2800,78,94,28256
2.0332,0.4643,39.2500,78,94,28259
1.9844,0.4545,39.3200,78,94,28262
1.9648,0.4594,39.3500,78,94,28265
1.9795,0.4741,39.1900,78,94,28269
1.9306,0.4643,39.4100,78,94,28272
1.9453,0.4692,39.2800,78,94,28275
1.9013,0.4594,39.3500,78,94,28278
1.8817,0.4643,39.3500,78,94,28282
1.8768,0.4643,39.2800,78,94,28285
1.8671,0.4643,39.4400,78,94,28289
1.8671,0.4790,39.2500,78,94,28292
1.8182,0.4839,39.3500,78,94,28296
1.8035,0.4643,39.3500,78,94,28299
1.8182,0.4741,39.2200,78,94,28302
1.7644,0.4643,39.3500,78,94,28305
1.7937,0.4790,39.2500,78,94,28309
1.7693,0.4594,39.2500,78,94,28312
1.7742,0.4594,39.3500,78,94,28315
1.8426,0.4741,39.2500,78,94,28318
1.7889,0.4839,39.3500,78,94,28322
1.8182,0.4741,39.2500,78,94,28325
1.7840,0.4643,39.3800,78,94,28328
1.7791,0.4594,39.4400,78,94,28332
1.7889,0.4643,39.3200,78,94,28336
1.7791,0.4643,39.5100,78,94,28339
1.8035,0.4741,39.2500,78,94,28342
1.7693,0.4643,39.3500,78,94,28345
1.7742,0.4692,39.3500,78,94,28349
1.8035,0.4936,39.2500,78,94,28352
1.7791,0.4643,39.3500,78,94,28355
1.8035,0.4741,39.2500,78,94,28358
1.7840,0.4692,39.3500,78,94,28362
1.7840,0.4643,39.4100,78,94,28365
1.8084,0.4741,39.2500,78,94,28368
1.7840,0.4643,39.3500,78,94,28371
1.8035,0.4741,39.2200,78,94,28376
1.7742,0.4643,39.3500,78,94,28379
1.7742,0.4643,39.3500,78,94,28382
1.7742,0.4594,39.2800,78,94,28385
1.7693,0.4643,39.3500,78,94,28389
1.8280,0.4692,39.2200,78,94,28392
1.8719,0.4643,39.3500,78,94,28395
1.9208,0.4839,39.3800,78,94,28398
2.0283,0.4741,39.1900,78,94,28402
2.0968,0.4643,39.3500,78,94,28405
2.2483,0.4692,39.2200,78,94,28408
2.3363,0.4643,39.3800,78,94,28411
2.4633,0.4643,39.3500,78,94,28416
2.6246,0.4643,39.2200,78,94,28419
2.6393,0.4448,39.3500,78,94,28422
2.5562,0.4790,39.2200,78,94,28425
2.2923,0.4643,39.3800,78,94,28429
1.9892,0.4643,39.3500,78,94,28432
1.7058,0.4692,39.2800,78,94,28435
1.4614,0.4643,39.3800,78,94,28438
1.3392,0.4643,39.2200,78,94,28442
1.2708,0.4643,39.3500,78,94,28445
1.2952,0.4545,39.3500,78,94,28448
1.3783,0.4692,39.1900,78,94,28451
1.4272,0.4643,39.3200,78,94,28455
1.5005,0.4741,39.1900,78,94,28459
1.5249,0.4643,39.3500,78,94,28462
1.5494,0.4545,39.3500,78,94,28465
1.5836,0.4741,39.2200,78,94,28469
1.5738,0.4643,39.3200,78,94,28472
1.6031,0.4692,39.2200,78,94,28475
1.5836,0.4643,39.3500,78,94,28478
1.5836,0.4594,39.3500,78,94,28482
1.6031,0.4790,39.3200,78,94,28485
1.5982,0.4643,39.3800,78,94,28488
1.6422,0.4692,39.2200,78,94,28491
1.6325,0.4643,39.3500,78,94,28495
1.6373,0.4790,39.3800,78,94,28498
1.6716,0.4692,39.2200,78,94,28502
1.6471,0.4643,39.3200,78,94,28505
1.6813,0.4692,39.2200,78,94,28509
1.6520,0.4790,39.3500,78,94,28512
1.6569,0.4643,39.4400,78,94,28515
1.6862,0.4692,39.2200,78,94,28518
1.6618,0.4643,39.3500,78,94,28522
1.6764,0.5034,39.1900,78,94,28525
1.6471,0.4643,39.3200,78,94,28528
1.6373,0.4643,39.2800,78,94,28532
1.6520,0.4692,39.3200,78,94,28535
1.6716,0.4643,39.3200,78,94,28538
1.6618,0.5132,39.1900,78,94,28541
1.6422,0.4497,39.3500,78,94,28546
1.6520,0.4643,39.3500,78,94,28549
1.6862,0.4741,39.1900,78,94,28552
1.6667,0.4643,39.3500,78,94,28555
1.6960,0.4692,39.1900,78,94,28559
1.6716,0.4594,39.3200,78,94,28562
1.6716,0.4643,39.3500,78,94,28565
1.6911,0.4741,39.1600,78,94,28568
1.6618,0.4643,39.3500,78,94,28572
1.6911,0.4692,39.2200,78,94,28575
1.6667,0.4643,39.3500,78,94,28578
1.6911,0.4545,39.3800,78,94,28581
1.6813,0.4643,39.2800,78,94,28585
1.6716,0.4643,39.3500,78,94,28589
1.7302,0.4692,39.2200,78,94,28592
1.6716,0.4643,39.3500,78,94,28595
1.6716,0.4643,39.3500,78,94,28599
1.7009,0.4790,39.2200,78,94,28602
1.6813,0.4643,39.3800,78,94,28605
1.7155,0.4643,39.2500,78,94,28608
1.7009,0.4643,39.3800,78,94,28612
1.7058,0.4643,39.3500,78,94,28615
1.7400,0.4741,39.2200,78,94,28618
1.7253,0.4643,39.3500,78,94,28621
1.7595,0.4741,39.2500,78,94,28625
1.7742,0.4643,39.3800,78,94,28628
1.7595,0.4594,39.3500,78,94,28632
1.7791,0.4643,39.4100,78,94,28635
1.7742,0.4643,39.3500,78,94,28639
1.8035,0.4692,39.2200,78,94,28642
1.7840,0.4594,39.3500,78,94,28645
1.7937,0.4594,39.4400,78,94,28648
1.8280,0.4643,39.2200,78,94,28652
1.7986,0.4643,39.3500,78,94,28655
1.8475,0.4692,39.2500,78,94,28658
1.7937,0.4643,39.3500,78,94,28661
1.7889,0.4643,39.3500,78,94,28665
1.8133,0.4741,39.2500,78,94,28668
1.7986,0.4643,39.4400,78,94,28672
1.8182,0.4692,39.1900,78,94,28675
1.7889,0.4643,39.3800,78,94,28679
1.7791,0.4643,39.3500,78,94,28682
1.7840,0.4692,39.3200,78,94,28685
1.7644,0.4594,39.3500,78,94,28688
1.7840,0.4692,39.2200,78,94,28692
1.7595,0.4643,39.3500,78,94,28695
1.7595,0.4594,39.3500,78,94,28698
1.7840,0.4741,39.1900,78,94,28701
1.7449,0.4594,39.3200,78,94,28705
1.7498,0.4692,39.2200,78,94,28708
1.7107,0.4643,39.3500,78,94,28711
1.6960,0.4643,39.3500,78,94,28715
1.7449,0.4741,39.2200,78,94,28719
1.6960,0.4936,39.3800,78,94,28722
1.7107,0.4643,39.2200,78,94,28725
1.6813,0.4448,39.3500,78,94,28728
1.6716,0.4643,39.3500,78,94,28732
1.6764,0.4692,39.2800,78,94,28735
1.6520,0.4643,39.4400,78,94,28738
1.6618,0.4692,39.2200,78,94,28741
1.6276,0.4643,39.3500,78,94,28745
1.6276,0.4692,39.3500,78,94,28748
1.6569,0.4741,39.2200,78,94,28751
1.5934,0.4692,39.2500,78,94,28755
1.5689,0.4448,39.3500,78,94,28759
1.6178,0.4692,39.1600,78,94,28762
1.6080,0.4643,39.5400,78,94,28766
1.6080,0.4643,39.3800,78,94,28769
1.6325,0.4741,39.2500,78,94,28772
1.6178,0.4643,39.3500,78,94,28775
1.6422,0.4692,39.1900,78,94,28779
1.6129,0.4692,39.3500,78,94,28782
1.6080,0.4643,39.3500,78,94,28785
1.6325,0.4985,39.2500,78,94,28788
1.6129,0.4643,39.3500,78,94,28792
1.6373,0.4692,39.2500,78,94,28795
1.6325,0.4643,39.2500,78,94,28798
1.6276,0.4448,39.3500,78,94,28802
1.6716,0.4741,39.2500,78,94,28806
1.6422,0.4643,39.3500,78,94,28809
1.6667,0.4692,39.1900,78,94,28812
1.6276,0.4643,39.2800,78,94,28815
1.6373,0.4643,39.3500,78,94,28819
1.6325,0.4692,39.2500,78,94,28822
1.6178,0.4643,39.2800,78,94,28825
1.6471,0.4643,39.1600,78,94,28828
1.6373,0.4692,39.3500,78,94,28832
1.6813,0.4643,39.3500,78,94,28835
1.6764,0.4790,39.2200,78,94,28838
1.6569,0.4643,39.2500,78,94,28841
1.6960,0.4643,39.1900,78,94,28846
1.6960,0.4643,39.2500,78,94,28849
1.6911,0.4643,39.3500,78,94,28852
1.7058,0.4741,39.2500,78,94,28855
1.6862,0.4643,39.3200,78,94,28859
1.7058,0.4692,39.1900,78,94,28862
1.7107,0.4448,39.2500,78,94,28865
1.6813,0.4594,39.3800,78,94,28868
1.6960,0.4643,39.2500,78,94,28872
1.6911,0.4643,39.3500,78,94,28875
1.7498,0.4692,39.1600,78,94,28878
1.7009,0.4643,39.3500,78,94,28882
1.7058,0.4643,39.3500,78,94,28886
1.7302,0.4643,39.2200,78,94,28889
1.7009,0.4643,39.3800,78,94,28892
1.7253,0.4839,39.1900,78,94,28895
1.7155,0.4643,39.2800,78,94,28899
1.7155,0.4594,39.3500,78,94,28902
1.7302,0.4643,39.3200,78,94,28905
1.7155,0.4643,39.3500,78,94,28909
1.7400,0.4741,39.2200,78,94,28912
1.7155,0.4643,39.2200,78,94,28915
1.7058,0.4643,39.3800,78,94,28918
1.7204,0.4692,39.2500,78,94,28922
1.7058,0.4643,39.3500,78,94,28925
1.7253,0.4692,39.2500,78,94,28929
1.6960,0.4643,39.1200,78,94,28932
1.6862,0.4643,39.3500,78,94,28936
1.7155,0.4692,39.2500,78,94,28939
1.6862,0.4448,39.3500,78,94,28942
1.7058,0.4643,39.1600,78,94,28945
1.6911,0.4643,39.2500,78,94,28949
1.6911,0.4594,39.3500,78,94,28952
1.7155,0.4692,39.2500,78,94,28955
1.7058,0.4448,39.3200,78,94,28958
1.7400,0.4936,39.1600,78,94,28962
1.7253,0.4643,39.3200,78,94,28965
1.7400,0.4643,39.3200,78,94,28968
1.7693,0.4692,39.2500,78,94,28972
1.7937,0.4545,39.3500,78,94,28976
1.8182,0.4692,39.1600,78,94,28979
1.7986,0.4643,39.3200,78,94,28982
1.8084,0.4643,39.3500,78,94,28985
1.8524,0.4692,39.2500,78,94,28989
1.8573,0.4545,39.3500,78,94,28992
1.8719,0.4692,39.1600,78,94,28995
1.8671,0.4643,39.2500,78,94,28998
1.8622,0.4594,39.3500,78,94,29002
1.8768,0.4643,39.2500,78,94,29005
1.8573,0.4448,39.3500,78,94,29008
1.8719,0.4888,39.1600,78,94,29011
1.8377,0.4741,39.3200,78,94,29016
1.8231,0.4643,38.9600,78,94,29019
1.8231,0.4643,39.2200,78,94,29022
1.8084,0.4643,39.3500,78,94,29025
1.8280,0.5083,39.1900,78,94,29029
1.7889,0.4643,39.3500,78,94,29032
1.7889,0.4643,39.2500,78,94,29035
1.8035,0.4643,39.2500,78,94,29038
1.7791,0.4643,39.3500,78,94,29042
1.7840,0.4692,39.1900,78,94,29045
1.7449,0.4643,39.2800,78,94,29048
1.7155,0.4594,39.3500,78,94,29051
1.7155,0.4643,39.2800,78,94,29056
1.6862,0.4448,39.3500,78,94,29059
1.7058,0.4692,39.1200,78,94,29062
1.6716,0.4643,39.2200,78,94,29065
1.6520,0.4643,39.3500,78,94,29069
1.6569,0.4692,39.2500,78,94,29072
1.6227,0.4643,39.3500,78,94,29075
1.6422,0.4643,39.1600,78,94,29078
1.6129,0.4643,39.3500,78,94,29082
1.6227,0.4594,39.3500,78,94,29085
1.6373,0.4741,39.2500,78,94,29088
1.6276,0.4545,39.3200,78,94,29092
1.6569,0.4692,39.1600,78,94,29095
1.6422,0.4643,39.2800,78,94,29099
1.6325,0.4643,39.3500,78,94,29102
1.6569,0.4692,39.2500,78,94,29106
1.6422,0.4448,39.3500,78,94,29109
1.6716,0.4741,39.1600,78,94,29112
1.6520,0.4692,39.3200,78,94,29115
1.6569,0.4643,39.4800,78,94,29119
1.6911,0.4643,39.3200,78,94,29122
1.6911,0.4643,39.3500,78,94,29125
1.7204,0.4692,39.1900,78,94,29128
1.6862,0.4643,39.3500,78,94,29132
1.6911,0.4643,39.3500,78,94,29135
1.7155,0.4692,39.3500,78,94,29138
1.6960,0.4643,39.3500,78,94,29142
1.7351,0.4741,39.1900,78,94,29146
1.6862,0.4692,39.2500,78,94,29149
1.6667,0.4594,39.3500,78,94,29152
1.6764,0.4643,39.2800,78,94,29155
1.7302,0.4643,39.3500,78,94,29159
1.8084,0.4985,39.1600,78,94,29162
1.8622,0.4643,39.2800,78,94,29165
1.9404,0.4643,39.3500,78,94,29168
2.0674,0.4692,39.2500,78,94,29172
2.2043,0.4643,39.3200,78,94,29175
2.3900,0.4643,39.1600,78,94,29178
2.4731,0.4643,39.3500,78,94,29181
2.5415,0.4643,39.3500,78,94,29186
2.5318,0.4839,39.2800,78,94,29189
2.3460,0.4741,39.3500,78,94,29192
2.1505,0.4643,39.1600,78,94,29195
1.8671,0.4692,39.2800,78,94,29199
1.6227,0.4692,39.3500,78,94,29202
1.4712,0.4692,39.3200,78,94,29205
1.3783,0.4643,39.3800,78,94,29208
1.3832,0.4643,39.1600,78,94,29212
1.3978,0.4643,39.2500,78,94,29215
1.4467,0.4643,39.3500,78,94,29218
1.5152,0.4741,39.2500,78,94,29221
1.5494,0.4936,39.3800,78,94,29225
1.6129,0.4692,39.2200,78,94,29229
1.6129,0.4643,39.4400,78,94,29232
1.6276,0.4643,39.3800,78,94,29235
1.6569,0.4741,39.2800,78,94,29239
1.6471,0.4594,39.3500,78,94,29242
1.6813,0.4692,39.1600,78,94,29245
1.6569,0.4692,39.2500,78,94,29248
1.6520,0.4545,39.3500,78,94,29252
1.6618,0.4692,39.2500,78,94,29255
1.6618,0.4643,39.3500,78,94,29258
1.7058,0.4692,39.1600,78,94,29261
1.7204,0.4692,39.2500,78,94,29265
1.6911,0.4692,39.3500,78,94,29268
1.7155,0.4643,39.2200,78,94,29272
1.7058,0.4643,39.3200,78,94,29275
1.7595,0.4692,39.1600,78,94,29279
1.7204,0.4643,39.4400,78,94,29282
1.7351,0.4643,39.4800,78,94,29285
1.7644,0.4692,39.3200,78,94,29288
1.7546,0.4643,39.4100,78,94,29292
1.7791,0.4692,39.1600,78,94,29295
1.7400,0.4692,39.2200,78,94,29298
1.7204,0.4594,39.3500,78,94,29301
1.7253,0.4643,39.3200,78,94,29305
1.6960,0.4643,39.3500,78,94,29308
1.7351,0.4692,39.1600,78,94,29312
1.7253,0.4692,39.2500,78,94,29316
1.7302,0.4643,39.3200,78,94,29319
1.7546,0.4643,39.2800,78,94,29322
1.7400,0.4643,39.3500,78,94,29325
1.7742,0.4692,39.1200,78,94,29329
1.7400,0.4545,39.3800,78,94,29332
1.7498,0.4643,39.3500,78,94,29335
1.7840,0.4692,39.2800,78,94,29338
1.7937,0.4594,39.4400,78,94,29342
1.7986,0.4692,39.1600,78,94,29345
1.7840,0.4643,39.3500,78,94,29348
1.7840,0.4594,39.3500,78,94,29351
1.8084,0.4741,39.2500,78,94,29356
1.7986,0.4643,39.3800,78,94,29359
1.8475,0.4692,39.2200,78,94,29362
1.8866,0.4790,39.0900,78,94,29366
1.8524,0.4643,39.4400,78,94,29369
1.8573,0.4594,39.3500,78,94,29372
1.8866,0.4692,39.3200,78,94,29375
1.8524,0.4692,39.3500,78,94,29379
1.9062,0.4790,39.0600,78,94,29382
1.8817,0.4643,39.2800,78,94,29385
1.8622,0.4545,39.3500,78,94,29388
1.9110,0.4643,39.3200,78,94,29392
1.8768,0.4741,39.3200,78,94,29395
1.9404,0.4741,39.1200,78,94,29399
1.9159,0.4692,39.2500,78,94,29402
1.9013,0.4448,39.3500,78,94,29406
1.9159,0.4692,39.2800,78,94,29409
1.9062,0.4594,39.3500,78,94,29412
1.9550,0.4741,39.1200,78,94,29415
1.8964,0.4545,39.3200,78,94,29419
1.9013,0.4643,39.3500,78,94,29422
1.9062,0.4643,39.4800,78,94,29425
1.8915,0.4643,39.3800,78,94,29428
1.9257,0.4790,39.0900,78,94,29432
1.8915,0.4985,39.2200,78,94,29435
1.8768,0.4643,39.4400,78,94,29438
1.8866,0.4643,39.3800,78,94,29442
1.8768,0.4594,39.3500,78,94,29446
1.9257,0.4790,39.0900,78,94,29449
1.8817,0.4643,39.2800,78,94,29452
1.8622,0.4643,39.3800,78,94,29455
1.8622,0.4692,39.3200,78,94,29459
1.8377,0.4497,39.3500,78,94,29462
1.8817,0.4936,39.1200,78,94,29465
1.8377,0.4643,39.2800,78,94,29468
1.8377,0.4643,39.3800,78,94,29472
1.8524,0.4692,39.3200,78,94,29475
1.8231,0.4643,39.3500,78,94,29478
1.8622,0.4741,39.0900,78,94,29483
1.8035,0.4692,39.2200,78,94,29486
1.7742,0.4643,39.3500,78,94,29489
1.7693,0.4643,39.3200,78,94,29492
1.7546,0.4643,39.3500,78,94,29496
1.7937,0.4888,39.1200,78,94,29499
1.7498,0.4741,39.2500,78,94,29502
1.7400,0.4692,39.4400,78,94,29505
1.7449,0.4692,39.3200,78,94,29509
1.7400,0.4643,39.3800,78,94,29512
1.7889,0.4839,39.0600,78,94,29515
1.7449,0.4839,39.2500,78,94,29518
1.7546,0.4643,39.3800,78,94,29522
1.7791,0.4692,39.3200,78,94,29526
1.7644,0.4643,39.3500,78,94,29529
1.7986,0.4790,39.0900,78,94,29532
1.7546,0.4643,39.3200,78,94,29536
1.7302,0.4643,39.3500,78,94,29539
1.7302,0.4692,39.3200,78,94,29542
1.7498,0.4643,39.3500,78,94,29545
1.7693,0.4790,39.0600,78,94,29549
1.7351,0.4643,39.3200,78,94,29552
1.7204,0.4643,39.3500,78,94,29555
1.7302,0.4692,39.3200,78,94,29558
1.7107,0.4643,39.3500,78,94,29562
1.7546,0.4741,39.0900,78,94,29565
1.7155,0.4643,39.3200,78,94,29569
1.7302,0.4643,39.3800,78,94,29572
1.7498,0.4692,39.3200,78,94,29576
1.7351,0.4545,39.3500,78,94,29579
1.7937,0.4985,39.0600,78,94,29582
1.7742,0.4692,38.6200,78,94,29585
1.7791,0.4643,39.3500,78,94,29589
1.7791,0.4643,39.3200,78,94,29592
1.7742,0.4643,39.3200,78,94,29595
1.8133,0.4741,39.0900,78,94,29598
1.7644,0.4643,39.2200,78,94,29602
1.7351,0.4643,39.3500,78,94,29605
1.7302,0.4692,39.3200,78,94,29608
1.7204,0.4594,39.3800,78,94,29612
1.7693,0.4741,39.0900,78,94,29616
1.7253,0.4643,39.2800,78,94,29619
1.7204,0.4643,39.3500,78,94,29622
1.7302,0.4790,39.3200,78,94,29625
1.7155,0.4643,39.3800,78,94,29629
1.7644,0.4741,39.0900,78,94,29632
1.7449,0.4692,39.2500,78,94,29635
1.7351,0.4545,39.3500,78,94,29638
1.7595,0.4692,39.3500,78,94,29642
1.7302,0.4594,39.3500,78,94,29645
1.7742,0.4790,39.0600,78,94,29648
1.7400,0.4692,39.2800,78,94,29651
1.7302,0.4643,39.3800,78,94,29656
1.7351,0.4643,39.3500,78,94,29659
1.7107,0.4594,39.3500,78,94,29662
1.7498,0.4839,39.0900,78,94,29665
1.7058,0.4594,39.3200,78,94,29669
1.7107,0.4692,39.3500,78,94,29672
1.7302,0.4692,39.3200,78,94,29675
1.7253,0.4643,39.3500,78,94,29678
1.7693,0.4790,39.0900,78,94,29682
1.7400,0.4643,39.2500,78,94,29685
1.7400,0.4643,39.3500,78,94,29688
1.7351,0.4692,39.3200,78,94,29691
1.7253,0.4790,39.3800,78,94,29696
1.7644,0.4741,39.1200,78,94,29699
1.7400,0.4643,39.2800,78,94,29702
1.7351,0.4643,39.3500,78,94,29705
1.7595,0.4594,39.3200,78,94,29709
1.7595,0.4643,39.3500,78,94,29712
1.8133,0.4643,39.1900,78,94,29715
1.7693,0.4594,39.3200,78,94,29718
1.7693,0.4545,39.3500,78,94,29722
1.7986,0.4936,39.2800,78,94,29725
1.7986,0.4839,39.3500,78,94,29728
1.8524,0.4741,39.1600,78,94,29731
1.8231,0.4643,39.2800,78,94,29735
1.8133,0.4643,39.3500,78,94,29739
1.8231,0.4643,39.3500,78,94,29742
1.8182,0.4643,39.3200,78,94,29746
1.8671,0.4741,39.0600,78,94,29749
1.8328,0.4643,39.2800,78,94,29752
1.8280,0.4643,39.3500,78,94,29755
1.8573,0.4692,39.2800,78,94,29759
1.8328,0.4594,39.3200,78,94,29762
1.8768,0.4936,39.0900,78,94,29765
1.8328,0.4643,39.2200,78,94,29768
1.8328,0.4643,39.3800,78,94,29772
1.8280,0.4692,39.3200,78,94,29775
1.8426,0.4545,39.3800,78,94,29778
1.8426,0.4692,39.1200,78,94,29782
1.7986,0.4692,39.3200,78,94,29786
1.7595,0.4643,39.3500,78,94,29789
1.7449,0.4692,39.3200,78,94,29792
1.7253,0.4741,39.3500,78,94,29795
1.7742,0.4741,39.0900,78,94,29799
1.7449,0.4643,39.2800,78,94,29802
1.7400,0.4643,39.3800,78,94,29805
1.7400,0.4692,39.3200,78,94,29808
1.7009,0.4643,39.3200,78,94,29812
1.7253,0.4643,39.1200,78,94,29815
1.6618,0.4643,39.2800,78,94,29818
1.6471,0.4545,39.3800,78,94,29821
1.6373,0.4692,39.2800,78,94,29826
1.6178,0.4692,39.3500,78,94,29829
1.6569,0.4741,39.0900,78,94,29832
1.6325,0.4692,39.2800,78,94,29835
1.6276,0.4692,39.3500,78,94,29839
1.6471,0.4741,39.3500,78,94,29842
1.6520,0.4643,39.5100,78,94,29845
1.7009,0.4741,39.0900,78,94,29848
1.6813,0.4692,39.2500,78,94,29852
1.6764,0.4643,39.3800,78,94,29855
1.6911,0.4643,39.2500,78,94,29858
1.6862,0.4643,39.3200,78,94,29861
1.7595,0.4741,39.0900,78,94,29865
1.7253,0.4643,39.3200,78,94,29869
1.7009,0.4692,39.3500,78,94,29872
1.7009,0.4643,39.2500,78,94,29875
1.6911,0.4643,39.3800,78,94,29879
1.7449,0.4741,39.0900,78,94,29882
1.7302,0.4545,39.2800,78,94,29885
1.7253,0.4643,39.3500,78,94,29888
1.7302,0.4643,39.3200,78,94,29892
1.7204,0.4692,39.3500,78,94,29895
1.7986,0.4741,39.0900,78,94,29898
1.7400,0.4594,39.2500,78,94,29901
1.7155,0.4594,39.3800,78,94,29905
1.7302,0.4643,39.3200,78,94,29908
1.7302,0.4643,39.3200,78,94,29912
1.8475,0.4790,39.0900,78,94,29915
1.8866,0.4936,39.2800,78,94,29919
1.9844,0.4643,39.3200,78,94,29922
2.1163,0.4692,39.3200,78,94,29925
2.2776,0.4643,39.3500,78,94,29928
2.5513,0.4790,39.0900,78,94,29932
2.7028,0.4643,39.2500,78,94,29935
2.8201,0.4643,39.3500,78,94,29938
2.8641,0.4692,39.3200,78,94,29941
2.7370,0.4594,39.3500,78,94,29945
2.5904,0.4741,39.1600,78,94,29948
2.2630,0.4643,39.2500,78,94,29952
1.9453,0.4643,39.3500,78,94,29955
1.6716,0.4741,39.3200,78,94,29959
1.4663,0.4643,39.3800,78,94,29962
1.4027,0.4741,39.0600,78,94,29965
1.3441,0.4594,39.3200,78,94,29968
1.4076,0.4545,39.3500,78,94,29972
1.4467,0.4936,39.3200,78,94,29975
1.6471,0.4692,39.3500,78,94,29979
1.6716,0.4643,39.3500,78,94,29982
1.7253,0.4741,39.1900,78,94,29985
1.7155,0.4692,39.3200,78,94,29988
1.7204,0.4839,39.2800,78,94,29992
1.7204,0.4643,39.3800,78,94,29996
1.7253,0.4643,39.3500,78,94,29999
1.7791,0.4741,39.2200,78,94,30002
1.7546,0.4594,39.2800,78,94,30006
1.7595,0.4643,39.3500,78,94,30009
1.7644,0.4643,39.3500,78,94,30012
1.7742,0.4643,39.3500,78,94,30015
1.8231,0.4790,39.1900,78,94,30019
1.7986,0.4643,39.3200,78,94,30022
1.8084,0.4643,39.2500,78,94,30025
1.8280,0.4643,39.2800,78,94,30028
1.8377,0.4643,39.3800,78,94,30032
1.8817,0.4741,39.1900,78,94,30035
1.8280,0.4692,39.3200,78,94,30039
1.8133,0.4643,39.2500,78,94,30042
1.7937,0.4643,39.3500,78,94,30046
1.8035,0.4643,39.3500,78,94,30049
1.8719,0.4741,39.1900,78,94,30052
1.8328,0.4692,39.3200,78,94,30055
1.8231,0.4692,39.2800,78,94,30059
1.8182,0.4643,39.3500,78,94,30062
1.8280,0.4643,39.4400,78,94,30065
1.8817,0.4741,39.2200,78,94,30069
1.8573,0.4448,39.3200,78,94,30072
1.8573,0.4594,39.2500,78,94,30075
1.8524,0.4545,39.3200,78,94,30078
1.8573,0.4643,39.3800,78,94,30083
1.9013,0.4741,39.1900,78,94,30086
1.8817,0.4643,39.3200,78,94,30089
1.8964,0.4692,39.2500,78,94,30092
1.8866,0.4643,39.3200,78,94,30096
1.8866,0.4643,39.5100,78,94,30099
1.9404,0.4741,39.1900,78,94,30102
1.9257,0.4692,39.3200,78,94,30105
1.9257,0.4594,39.2500,78,94,30109
1.9110,0.4643,39.3500,78,94,30112
1.8964,0.4594,39.3500,78,94,30115
1.9306,0.4741,39.2200,78,94,30118
1.8964,0.4692,39.3200,78,94,30123
1.8964,0.4643,39.2200,78,94,30126
1.8915,0.4888,39.3200,78,94,30129
1.8964,0.4643,39.4100,78,94,30132
1.9453,0.4643,39.2200,78,94,30136
1.9257,0.4643,39.3200,78,94,30139
1.9355,0.4692,39.2500,78,94,30142
1.9306,0.4643,39.3200,78,94,30145
1.9306,0.4643,39.3500,78,94,30149
1.9795,0.4741,39.2200,78,94,30152
1.9550,0.4692,39.3200,78,94,30155
1.9550,0.4643,39.2500,78,94,30158
1.9501,0.4643,39.2500,78,94,30162
1.9550,0.4594,39.3500,78,94,30166
2.0186,0.4741,39.2200,78,94,30169
1.9648,0.4839,39.2800,78,94,30172
1.9453,0.4643,39.2800,78,94,30176
1.9208,0.4643,39.3500,78,94,30179
1.9110,0.4643,39.3500,78,94,30182
1.9501,0.4741,39.2500,78,94,30185
1.9110,0.4692,39.2800,78,94,30189
1.9159,0.4643,39.2500,78,94,30192
1.9062,0.4643,39.3500,78,94,30195
1.8964,0.4594,39.3800,78,94,30198
1.9355,0.4741,39.2200,78,94,30202
1.9013,0.4643,39.3500,78,94,30205
1.9013,0.4643,39.2500,78,94,30209
1.8866,0.4643,39.3500,78,94,30212
1.8817,0.4594,39.3500,78,94,30216
1.9355,0.4790,39.2200,78,94,30219
1.8964,0.4643,39.2800,78,94,30222
1.8817,0.4643,39.2800,78,94,30225
1.8622,0.4643,39.3500,78,94,30229
1.8719,0.4594,39.3200,78,94,30232
1.8915,0.4790,39.1600,78,94,30235
1.8622,0.4692,39.2800,78,94,30238
1.8573,0.4643,39.2500,78,94,30242
1.8377,0.4643,39.3500,78,94,30245
1.8328,0.4594,39.3500,78,94,30248
1.8671,0.4888,39.1600,78,94,30252
1.8280,0.4643,39.4100,78,94,30256
1.8231,0.4692,39.2800,78,94,30259
1.8182,0.4594,39.2200,78,94,30262
1.7889,0.4545,39.3500,78,94,30265
1.8182,0.4985,39.2500,78,94,30269
1.7937,0.4692,39.3200,78,94,30272
1.7889,0.4692,39.2500,78,94,30275
1.7791,0.4643,39.3500,78,94,30278
1.7791,0.4545,39.4400,78,94,30282
1.8133,0.4790,39.1900,78,94,30285
1.7791,0.4643,39.3200,78,94,30288
1.7791,0.4643,39.2500,78,94,30292
1.7644,0.4643,39.3500,78,94,30296
1.7595,0.4594,39.3500,78,94,30299
1.8035,0.4692,39.2500,78,94,30302
1.7791,0.4643,39.1200,78,94,30306
1.7889,0.4643,39.2500,78,94,30309
1.7840,0.4545,39.3200,78,94,30312
1.7889,0.4692,39.3500,78,94,30315
1.8182,0.4741,39.2200,78,94,30319
1.7889,0.4643,39.3200,78,94,30322
1.7889,0.4692,39.2500,78,94,30325
1.7791,0.4643,39.3500,78,94,30328
1.7840,0.4643,39.3500,78,94,30332
1.8231,0.4741,39.1900,78,94,30336
1.8084,0.4936,39.3800,78,94,30339
1.8231,0.4643,39.2800,78,94,30342
1.8280,0.4643,39.3500,78,94,30346
1.8231,0.4545,39.3800,78,94,30349
1.8622,0.4741,39.2200,78,94,30352
1.8377,0.4643,38.9300,78,94,30355
1.8475,0.4692,39.2500,78,94,30359
1.8426,0.4643,39.3500,78,94,30362
1.8328,0.4545,39.3500,78,94,30365
1.8719,0.4985,39.2200,78,94,30368
1.8475,0.4643,39.4800,78,94,30372
1.8524,0.4643,39.2500,78,94,30375
1.8475,0.4643,39.3500,78,94,30379
1.8475,0.4545,39.3800,78,94,30382
1.8817,0.4790,39.1900,78,94,30386
1.8377,0.4741,39.2800,78,94,30389
1.8328,0.4643,39.3200,78,94,30392
1.8084,0.4643,39.3500,78,94,30395
1.8084,0.4643,39.3500,78,94,30399
1.8524,0.4692,39.2200,78,94,30402
1.8280,0.4643,39.3200,78,94,30405
1.8426,0.4692,39.2500,78,94,30408
1.8377,0.4643,39.3200,78,94,30412
1.8280,0.4594,39.3500,78,94,30415
1.8622,0.4741,39.1200,78,94,30418
1.8231,0.4692,39.3200,78,94,30422
1.8133,0.4692,39.2500,78,94,30426
1.8035,0.4643,39.3500,78,94,30429
1.7889,0.4741,39.3500,78,94,30432
1.8133,0.4741,39.1900,78,94,30435
1.7840,0.4643,39.3200,78,94,30439
1.7840,0.4692,39.2500,78,94,30442
1.7644,0.4692,39.3200,78,94,30445
1.7644,0.4643,39.0600,78,94,30448
1.8035,0.4692,39.2200,78,94,30452
1.8084,0.4692,39.3200,78,94,30455
1.7791,0.4643,39.2500,78,94,30458
1.7693,0.4643,39.3500,78,94,30461
1.7693,0.4594,39.3500,78,94,30466
1.8328,0.4741,39.2200,78,94,30469
1.7889,0.4545,39.2800,78,94,30472
1.7986,0.4643,39.2500,78,94,30475
1.7937,0.4643,39.2800,78,94,30479
1.7986,0.4643,39.3500,78,94,30482
1.8524,0.4790,39.1900,78,94,30485
1.8231,0.4985,39.3200,78,94,30488
1.8328,0.4643,39.2800,78,94,30492
1.8328,0.4643,39.3200,78,94,30495
1.8671,0.4545,39.3500,78,94,30498
1.8866,0.4692,39.2500,78,94,30501
1.8768,0.4643,39.3800,78,94,30505
1.9013,0.4692,39.2500,78,94,30509
1.9110,0.4448,39.3500,78,94,30512
1.9110,0.4790,39.3200,78,94,30515
1.9501,0.4741,39.2200,78,94,30519
1.9257,0.4692,39.2800,78,94,30522
1.9013,0.4741,39.3200,78,94,30525
1.8768,0.4839,39.3500,78,94,30528
1.8573,0.4643,39.4400,78,94,30532
1.8866,0.4643,39.1900,78,94,30535
1.8475,0.4692,39.3200,78,94,30538
1.8475,0.4692,39.2500,78,94,30542
1.8280,0.4594,39.3500,78,94,30545
1.8231,0.4643,39.4100,78,94,30548
1.8622,0.4741,39.2200,78,94,30552
1.8231,0.4692,39.3200,78,94,30556
1.8084,0.4692,39.2500,78,94,30559
1.7889,0.4643,39.3500,78,94,30562
1.7693,0.4643,39.3500,78,94,30565
1.7937,0.4741,39.2500,78,94,30569
1.7546,0.4692,39.3200,78,94,30572
1.7449,0.4741,39.2500,78,94,30575
1.7253,0.4643,39.3500,78,94,30578
1.7155,0.4643,39.3800,78,94,30582
1.7449,0.4741,39.1900,78,93,30585
1.7253,0.4692,39.2500,78,93,30588
1.7009,0.4643,39.3200,78,93,30593
1.7155,0.4741,39.2500,78,93,30596
1.6813,0.4643,39.3500,78,93,30599
1.6862,0.4545,39.3500,78,93,30602
1.7058,0.4643,39.2500,78,93,30606
1.7058,0.4643,39.3800,78,93,30609
1.7400,0.4741,39.2200,78,93,30612
1.7107,0.4545,39.3500,78,93,30615
1.7107,0.4594,39.3500,78,93,30619
1.7498,0.4790,39.2800,78,93,30622
1.7253,0.4643,39.3500,78,93,30625
1.7449,0.4741,39.2200,78,93,30629
1.7546,0.4643,39.3800,78,93,30632
1.7449,0.4643,39.3800,78,93,30636
1.7889,0.4741,39.2500,78,93,30639
1.7742,0.4643,39.3200,78,93,30643
1.7937,0.4741,39.2200,78,93,30646
1.7644,0.4643,39.3800,78,93,30649
1.7595,0.4643,39.3800,78,93,30652
1.7693,0.4643,38.8400,78,93,30656
1.7693,0.4643,39.3500,78,93,30659
1.8573,0.4692,39.2200,78,93,30662
1.8866,0.4643,39.3500,78,93,30665
1.9599,0.4888,39.3800,78,93,30669
2.0870,0.4643,39.3200,78,93,30672
2.1994,0.4643,39.3200,78,93,30675
2.4194,0.4741,39.2200,78,93,30679
2.5269,0.4888,39.3800,78,93,30683
2.6735,0.4643,39.2200,78,93,30686
2.8055,0.4790,39.2500,78,93,30689
2.7664,0.4594,39.3200,78,93,30692
2.6002,0.4692,39.2200,78,93,30696
2.3021,0.4643,39.3500,78,93,30699
1.9941,0.4643,39.3500,78,93,30702
1.7155,0.4692,39.2800,78,93,30705
1.4858,0.4643,39.3800,78,93,30709
1.3832,0.4643,39.2500,78,93,30712
1.3392,0.4643,39.3500,78,93,30715
1.3734,0.4594,39.3500,78,93,30718
1.4614,0.4790,39.2200,78,93,30723
1.5054,0.4545,39.4400,78,93,30726
1.5787,0.4741,39.1600,78,93,30729
1.5934,0.4643,39.3800,78,93,30732
1.6178,0.4643,39.3500,78,93,30736
1.6667,0.4741,39.2500,78,93,30739
1.6422,0.4692,39.3500,78,93,30742
1.6667,0.4741,39.2200,78,93,30745
1.6520,0.4643,39.3800,78,93,30749
1.6618,0.4643,39.3500,78,93,30752
1.6911,0.4594,39.2800,78,93,30755
1.6862,0.4643,39.3500,78,93,30758
1.7155,0.4643,39.3200,78,93,30763
1.6960,0.4643,39.3500,78,93,30766
1.7107,0.4594,39.3500,78,93,30769
1.7449,0.4741,39.2200,78,93,30772
1.7155,0.4741,39.3500,78,93,30776
1.7302,0.4741,39.3200,78,93,30779
1.7058,0.4643,39.3500,78,93,30782
1.7253,0.4643,39.3500,78,93,30785
1.7742,0.4692,39.2200,78,93,30789
1.7400,0.4643,39.3800,78,93,30792
1.7742,0.4643,39.2200,78,93,30795
1.7595,0.4643,39.3500,78,93,30798
1.7644,0.4594,39.3500,78,93,30802
1.7791,0.4594,39.3200,78,93,30806
1.7742,0.4643,39.3500,78,93,30809
1.8035,0.4692,39.2500,78,93,30812
1.7937,0.4643,39.3200,78,93,30816
1.7840,0.4790,39.3800,78,93,30819
1.8035,0.4741,39.2800,78,93,30822
1.7644,0.4643,39.3200,78,93,30825
1.7840,0.4741,39.2200,78,93,30829
1.7546,0.4692,39.3800,78,93,30832
1.7644,0.4643,39.3500,78,93,30835
1.7986,0.4741,39.2200,78,93,30838
1.8035,0.4643,39.3200,78,93,30842
1.8231,0.4692,39.2500,78,93,30845
1.7937,0.4643,39.4100,78,93,30849
1.8084,0.4643,39.3500,78,93,30852
1.8280,0.4692,39.2800,78,93,30856
1.8035,0.4692,39.3500,78,93,30859
1.8280,0.4692,39.3200,78,93,30862
1.8182,0.4643,39.3500,78,93,30865
1.8377,0.4643,39.3200,78,93,30869
1.8915,0.4741,39.1900,78,93,30872
1.8622,0.4643,39.3200,78,93,30875
1.8768,0.4741,39.2500,78,93,30878
1.8426,0.4643,39.3500,78,93,30882
1.8426,0.4643,39.3500,78,93,30885
1.8768,0.4741,39.2500,78,93,30888
1.8671,0.4643,39.3800,78,93,30892
1.9013,0.4692,39.2200,78,93,30896
1.8768,0.4643,39.3500,78,93,30899
1.8768,0.4643,39.3500,78,93,30902
1.8915,0.4692,39.3200,78,93,30905
1.8817,0.4643,39.4100,78,93,30909
1.9110,0.4692,39.2200,78,93,30912
1.8866,0.4643,39.3500,78,93,30915
1.9208,0.4643,39.4400,78,93,30918
1.9257,0.4839,39.2200,78,93,30922
1.8964,0.4888,39.3200,78,93,30925
1.9110,0.4741,39.2200,78,93,30928
1.8866,0.4643,39.3800,78,93,30932
1.9159,0.4643,39.3500,78,93,30936
1.8964,0.5034,39.2500,78,93,30939
1.8671,0.4643,39.3500,78,93,30942
1.8915,0.4692,39.2200,78,93,30946
1.8622,0.4643,39.3500,78,93,30949
1.8671,0.4741,39.3500,78,93,30952
1.8817,0.4594,39.2800,78,93,30955
1.8719,0.4643,39.3500,78,93,30959
1.8817,0.4692,39.2200,78,93,30962
1.8768,0.4643,39.3500,78,93,30965
1.8573,0.4643,39.4800,78,93,30968
1.8915,0.4741,39.2200,78,93,30972
1.8573,0.4643,39.2800,78,93,30976
1.8768,0.4741,39.2200,78,93,30979
1.8377,0.4448,39.3800,78,93,30982
1.8280,0.4888,39.3800,78,93,30986
1.8573,0.4790,39.2800,78,93,30989
1.8377,0.4643,39.3500,78,93,30992
1.8573,0.4741,39.2200,78,93,30995
1.8182,0.4692,39.3200,78,93,30999
1.8035,0.4692,39.3800,78,93,31002
1.8035,0.4643,39.2500,78,93,31005
1.8231,0.4643,39.3500,78,93,31008
1.8084,0.4692,39.2200,78,93,31012
1.7791,0.4545,39.3500,78,93,31015
1.7742,0.4594,39.3200,78,93,31019
1.8035,0.4643,39.2200,78,93,31022
1.7742,0.4692,39.3500,78,93,31026
1.8133,0.4741,39.2200,78,93,31029
1.7693,0.4545,39.3500,78,93,31032
1.7693,0.4741,39.3800,78,93,31035
1.7937,0.4741,39.2200,78,93,31039
1.7791,0.4643,39.3200,78,93,31042
1.8133,0.4741,39.2500,78,93,31045
1.8035,0.4594,39.3500,78,93,31048
1.7937,0.4594,39.3500,78,93,31052
1.8133,0.4643,39.1900,78,93,31055
1.8084,0.4643,39.3500,78,93,31058
1.8328,0.4692,39.2200,78,93,31062
1.8084,0.4643,39.3500,78,93,31066
1.8182,0.4643,39.3800,78,93,31069
1.8524,0.4643,39.2200,78,93,31072
1.8280,0.4643,39.3500,78,93,31075
1.8475,0.4741,39.2500,78,93,31079
1.8182,0.4936,39.3800,78,93,31082
1.8133,0.4643,38.8700,78,93,31085
1.8475,0.4741,39.2500,78,93,31088
1.8328,0.4643,39.3500,78,93,31092
1.8475,0.4790,39.2200,78,93,31095
1.8231,0.4643,39.3800,78,93,31098
1.8182,0.4643,39.3200,78,93,31101
1.8231,0.4643,39.2800,78,93,31106
1.8084,0.4643,39.3500,78,93,31109
1.8328,0.4839,39.2500,78,93,31112
1.8133,0.4790,39.3800,78,93,31115
1.8182,0.4594,39.2200,78,93,31119
1.8524,0.4790,39.2200,78,93,31122
1.8182,0.4643,39.3200,78,93,31125
1.8426,0.4741,39.2200,78,93,31128
1.8084,0.4741,39.3200,78,93,31132
1.8035,0.4643,39.3500,78,93,31135
1.8280,0.4741,39.2200,78,93,31138
1.8035,0.4643,39.3200,78,93,31142
1.8280,0.4839,39.2200,78,93,31145
1.8035,0.4839,39.3800,78,93,31149
1.8133,0.4594,39.3800,78,93,31152
1.8182,0.4643,39.2800,78,93,31156
1.8133,0.4594,39.3500,78,93,31159
1.8475,0.4741,39.4800,78,93,31162
1.8377,0.4643,39.2800,78,93,31165
1.8475,0.4594,39.3500,78,93,31169
1.8866,0.4741,39.2200,78,93,31172
1.8573,0.4643,39.3500,78,93,31175
1.8671,0.4888,39.2500,78,93,31178
1.8280,0.4643,39.4800,78,93,31182
1.8133,0.4643,39.3500,78,93,31185
1.8328,0.4643,39.2500,78,93,31188
1.8084,0.4448,39.3200,78,93,31192
1.8426,0.4692,39.2500,78,93,31196
1.8133,0.4643,39.3500,78,93,31199
1.8182,0.4594,39.4800,78,93,31202
1.8182,0.4643,39.3500,78,93,31206
1.8328,0.4692,39.2500,78,93,31209
1.8182,0.4643,39.3500,78,93,31212
1.8426,0.4692,39.1200,78,93,31215
1.8328,0.4643,39.2500,78,93,31219
1.8426,0.4643,39.3500,78,93,31222
1.8719,0.4692,39.2800,78,93,31225
1.8573,0.4643,39.3500,78,93,31228
1.9013,0.4692,39.1900,78,93,31233
1.8817,0.4643,39.2800,78,93,31236
1.8817,0.4643,39.3500,78,93,31239
1.8964,0.4692,39.2500,78,93,31242
1.8817,0.4643,39.2200,78,93,31246
1.9159,0.4692,39.1600,78,93,31249
1.8915,0.4643,39.3500,78,93,31252
1.9013,0.4643,39.3500,78,93,31255
1.9306,0.4741,39.2500,78,93,31259
1.9208,0.4643,39.3500,78,93,31262
1.9599,0.4643,39.1900,78,93,31265
1.9453,0.4692,39.2500,78,93,31268
1.9404,0.4790,39.3200,78,93,31272
1.9501,0.4643,39.2200,78,93,31276
1.9110,0.4643,39.3500,78,93,31279
1.9501,0.4692,39.1900,78,93,31282
1.8719,0.4839,39.3200,78,93,31286
1.8573,0.4692,39.3500,78,93,31289
1.8622,0.4643,39.2200,78,93,31292
1.8377,0.4692,39.3500,78,93,31296
1.8573,0.4692,39.1900,78,93,31299
1.8035,0.4643,39.3500,78,93,31302
1.7937,0.4692,39.3500,78,93,31305
1.7937,0.4692,39.2200,78,93,31309
1.7546,0.4643,39.3500,78,93,31312
1.7644,0.4643,39.1600,78,93,31315
1.7351,0.4692,39.2500,78,93,31319
1.7204,0.4692,39.3500,78,93,31323
1.7155,0.4692,39.2500,78,93,31326
1.6813,0.4643,39.2200,78,93,31329
1.6813,0.4643,39.1600,78,93,31332
1.6422,0.4643,39.2500,78,93,31336
1.6276,0.4545,39.4400,78,93,31339
1.6422,0.4692,39.2500,78,93,31342
1.6373,0.4643,39.3500,78,93,31345
1.6716,0.4692,39.1600,78,93,31349
1.6618,0.4643,38.8400,78,93,31352
1.6862,0.4643,39.3500,78,93,31355
1.7302,0.4692,39.2800,78,93,31358
1.7204,0.4643,39.3500,78,93,31363
1.7400,0.4692,39.1600,78,93,31366
1.7107,0.4692,39.2500,78,93,31369
1.6911,0.4643,39.3500,78,93,31372
1.7058,0.4692,39.3200,78,93,31376
1.6960,0.4692,39.3500,78,93,31379
1.7351,0.4692,39.1600,78,93,31382
1.7107,0.4692,39.2500,78,93,31385
1.7155,0.4448,39.3200,78,93,31389
1.7400,0.4888,39.2500,78,93,31392
1.7351,0.4643,39.3500,78,93,31395
1.7693,0.4692,39.1600,78,93,31398
1.7400,0.4643,39.3500,78,93,31403
1.7449,0.4888,39.3800,78,93,31406
1.7546,0.4643,39.5100,78,93,31409
1.7302,0.4643,39.3500,78,93,31412
1.7595,0.4692,39.1600,78,93,31416
1.7498,0.4692,39.2500,78,93,31419
1.7889,0.4594,39.4800,78,93,31422
1.8671,0.4741,39.2200,78,93,31425
1.9208,0.4643,39.3500,78,93,31429
2.0577,0.4692,39.1600,78,93,31432
2.1603,0.4692,39.2500,78,93,31435
2.2776,0.4643,39.4400,78,93,31438
2.4194,0.4643,39.2500,78,93,31442
2.5122,0.4545,39.3500,78,93,31446
2.6051,0.4741,39.1200,78,93,31449
2.4976,0.4643,39.3500,78,93,31452
2.3069,0.4643,39.3500,78,93,31456
2.0772,0.4692,39.2800,78,93,31459
1.7791,0.4741,39.3800,78,93,31462
1.5738,0.4692,39.2200,78,93,31465
1.4076,0.4643,39.2500,78,93,31469
1.3343,0.4594,39.3200,78,93,31472
1.3392,0.4692,39.2800,78,93,31475
1.3783,0.4643,39.3200,78,93,31478
1.4712,0.4692,39.1600,78,93,31482
1.5103,0.4643,39.2800,78,93,31485
1.5836,0.4594,39.3500,78,93,31489
1.5934,0.4643,39.2200,78,93,31492
1.5982,0.4643,39.3500,78,93,31496
1.6422,0.4692,39.1900,78,93,31499
1.6325,0.4643,39.3500,78,93,31502
1.6520,0.4643,39.3500,78,93,31505
1.6764,0.4643,39.2800,78,93,31509
1.6618,0.4643,39.3200,78,93,31512
1.6911,0.4643,39.1600,78,93,31515
1.6569,0.4643,39.2500,78,93,31519
1.6716,0.4448,39.3500,78,93,31522
1.6667,0.4692,39.2800,78,93,31525
1.6667,0.4643,39.3500,78,93,31528
1.7155,0.4692,39.1900,78,93,31533
1.7058,0.4643,39.5400,78,93,31536
1.7107,0.4643,39.3500,78,93,31539
1.7253,0.4692,39.2500,78,93,31542
1.7107,0.4936,39.3500,78,93,31546
1.7400,0.4692,39.1600,78,93,31549
1.7058,0.4643,39.3800,78,93,31552
1.7009,0.4643,39.3500,78,93,31555
1.7302,0.4741,39.3200,78,93,31559
1.7253,0.4692,39.3500,78,93,31562
1.7742,0.4692,39.0900,78,93,31565
1.7644,0.4643,39.2200,78,93,31568
1.7693,0.4545,39.4400,78,93,31572
1.8084,0.4692,39.2500,78,93,31576
1.7791,0.4643,39.3500,78,93,31579
1.8084,0.4692,39.1600,78,93,31582
1.7889,0.4643,39.2500,78,93,31586
1.7840,0.4545,39.3500,78,93,31589
1.8035,0.4741,39.2500,78,93,31592
1.7840,0.4643,39.3500,78,93,31595
1.8231,0.4692,39.1600,78,93,31599
1.7840,0.4643,39.3500,78,93,31602
1.7937,0.4643,39.3500,78,93,31605
1.8133,0.4643,39.2800,78,93,31608
1.8084,0.4936,39.3800,78,93,31612
1.8475,0.4692,39.1600,78,93,31616
1.8328,0.4692,39.1600,78,93,31619
1.8280,0.4497,39.3200,78,93,31622
1.8524,0.4741,39.3200,78,93,31626
1.8475,0.4643,39.3500,78,93,31629
1.8915,0.4643,39.1600,78,93,31632
1.8768,0.4643,39.2500,78,93,31635
1.9062,0.4643,39.3500,78,93,31639
1.8915,0.4790,39.3200,78,93,31642
1.8817,0.4643,39.2500,78,93,31645
1.9159,0.4692,39.1600,78,93,31648
1.8964,0.4643,39.3500,78,93,31652
1.9013,0.4594,39.4400,78,93,31655
1.9208,0.4643,39.2200,78,93,31659
1.9013,0.4643,39.2500,78,93,31662
1.9404,0.4692,39.1200,78,93,31666
1.9159,0.4594,39.2200,78,93,31669
1.9208,0.4594,39.2200,78,93,31672
1.9501,0.4643,39.1900,78,93,31675
1.9355,0.4643,39.3500,78,93,31679
1.9599,0.4692,39.1600,78,93,31682
1.9306,0.4692,39.2500,78,93,31685
1.9208,0.4643,39.3500,78,93,31688
1.9453,0.4692,39.2500,78,93,31692
1.9306,0.4545,39.3500,78,93,31695
1.9550,0.4692,39.2200,78,93,31698
1.9208,0.4643,39.3500,78,93,31702
1.9404,0.4545,39.3500,78,93,31706
1.9257,0.4790,39.2500,78,93,31709
1.9013,0.4643,39.2800,78,93,31712
1.9208,0.4692,39.1600,78,93,31715
1.9159,0.4692,39.2500,78,93,31719
1.8915,0.4790,39.3500,78,93,31722
1.9062,0.4741,39.2500,78,93,31725
1.8915,0.4594,39.3500,78,93,31728
1.9208,0.4692,39.1600,78,93,31732
1.8915,0.4692,39.2800,78,93,31735
1.8866,0.4692,39.3500,78,93,31738
1.8964,0.4643,39.2200,78,93,31741
