ecg,gsr,temp,hr,spo2,timest
2.6833,0.4106,38.9300,75,94,11228
2.7273,0.4203,38.8400,75,94,11231
2.7028,0.4154,38.8700,75,94,11234
2.7175,0.4154,38.9300,75,94,11238
2.7810,0.4057,38.8100,75,94,11241
2.7468,0.4154,38.9300,75,94,11244
2.7859,0.4252,38.9000,75,94,11247
2.7517,0.4106,38.9300,75,94,11251
2.7810,0.4154,38.9600,75,94,11254
2.8348,0.4203,38.8700,75,94,11257
2.8299,0.4057,38.9300,75,94,11260
2.8837,0.4252,38.8100,75,94,11265
2.8739,0.4154,39.0300,75,94,11268
2.9032,0.4057,38.9600,75,94,11271
2.9472,0.4154,38.9000,75,94,11274
2.9765,0.4154,38.9600,75,94,11278
3.0547,0.4154,38.8100,75,94,11281
3.0499,0.4203,38.9600,75,94,11284
3.0841,0.4154,38.9600,75,94,11287
3.1720,0.4057,38.8400,75,94,11291
3.1623,0.4203,38.9600,75,94,11294
3.2454,0.4203,38.9300,75,94,11297
3.2454,0.4154,38.9600,75,94,11300
3.2796,0.4154,38.9600,75,94,11304
3.3578,0.4154,38.8400,75,94,11308
3.3724,0.4203,38.9000,75,94,11311
3.4360,0.4203,38.8400,75,94,11314
3.4311,0.4154,38.9600,75,94,11318
3.4653,0.4154,38.9600,75,94,11321
3.5288,0.4203,38.9300,75,94,11324
3.5924,0.4154,38.9300,75,94,11327
3.6559,0.4203,38.9000,75,94,11331
3.6852,0.4154,38.4600,75,94,11334
3.7537,0.4106,38.9600,75,94,11337
3.8661,0.4301,38.7700,75,94,11340
3.8612,0.4106,39.0000,75,94,11344
3.9443,0.4203,38.8400,75,94,11347
3.9443,0.4154,38.9300,75,94,11351
3.9687,0.4252,38.9300,75,94,11354
4.0518,0.4203,38.8100,75,94,11358
4.0420,0.4057,39.0300,75,94,11361
4.1007,0.4154,38.8700,75,94,11364
4.0811,0.4154,38.9600,75,94,11367
4.1007,0.4106,38.9600,75,94,11370
4.1447,0.4203,38.8700,75,94,11374
4.1251,0.4154,38.9300,75,94,11377
4.1447,0.4154,38.8400,75,94,11380
4.1398,0.4106,38.9600,75,94,11383
4.1153,0.4154,39.0000,75,94,11387
4.1935,0.4252,38.8100,75,94,11390
4.1544,0.4057,38.9300,75,94,11394
4.1691,0.4154,38.8400,75,94,11397
4.1349,0.4154,38.9300,75,94,11401
4.1202,0.4106,38.9300,75,94,11404
4.1691,0.4252,38.9000,75,94,11407
4.1153,0.4154,38.9300,75,94,11410
4.1105,0.4203,38.9000,75,94,11414
4.0665,0.4154,38.9600,75,94,11417
4.0567,0.4106,38.9600,75,94,11420
4.1056,0.4301,38.8700,75,94,11423
4.0567,0.4203,39.0600,75,94,11427
4.0420,0.4154,38.8700,75,94,11430
4.0029,0.4057,38.9300,75,94,11433
3.9834,0.4106,38.9300,75,94,11437
4.0469,0.4252,38.7700,75,94,11441
3.9687,0.4203,38.9000,75,94,11444
3.9492,0.3861,38.8700,75,94,11447
3.9247,0.4154,38.9300,75,94,11450
3.8807,0.4106,38.8400,75,94,11454
3.9589,0.4252,38.8100,75,94,11457
3.8612,0.4203,38.9000,75,94,11460
3.8319,0.4154,38.8400,75,94,11463
3.8025,0.4154,39.0900,75,94,11467
3.7879,0.4106,38.9600,75,94,11470
3.8612,0.4350,38.8100,75,94,11473
3.7537,0.4203,38.9000,75,94,11476
3.7048,0.4154,38.9300,75,94,11481
3.6510,0.4203,38.9300,75,94,11484
3.6217,0.4106,39.0300,75,94,11487
3.6852,0.4252,38.8100,75,94,11490
3.5924,0.4154,38.9000,75,94,11494
3.5630,0.4350,38.9000,75,94,11497
3.5386,0.4106,38.9300,75,94,11500
3.4995,0.4057,38.9600,75,94,11503
3.5679,0.4350,38.7700,75,94,11506
3.4751,0.4203,38.8700,75,94,11510
3.4311,0.4106,38.9000,75,94,11513
3.4066,0.4154,38.9300,75,94,11516
3.3675,0.4106,39.1200,75,94,11520
3.4457,0.4252,38.7400,75,94,11524
3.3675,0.4545,38.8700,75,94,11527
3.3284,0.4106,38.9000,75,94,11530
3.3138,0.4154,38.9600,75,94,11533
3.2747,0.4106,38.9300,75,94,11537
3.3431,0.4350,38.7700,75,94,11540
3.2454,0.4154,38.9000,75,94,11543
3.2160,0.4106,38.9000,75,94,11546
3.1916,0.4154,38.9600,75,94,11550
3.1574,0.4154,38.9600,75,94,11553
3.1916,0.4399,38.7400,75,94,11556
3.0890,0.4301,38.8100,75,94,11559
3.0450,0.4106,38.9600,75,94,11564
3.0499,0.4057,38.9300,75,94,11567
3.0059,0.4154,39.0000,75,94,11570
3.0743,0.4252,38.7400,75,94,11573
2.9765,0.4203,38.9000,75,94,11577
2.9081,0.4106,38.9600,75,94,11580
2.8739,0.4154,38.9300,75,94,11583
2.8250,0.4106,38.9300,75,94,11586
2.8641,0.4252,38.4900,75,94,11590
2.7664,0.4154,38.9300,75,94,11593
2.7175,0.4154,38.9300,75,94,11596
2.6882,0.4203,38.9300,75,94,11599
2.6393,0.4154,38.9300,75,94,11603
2.6784,0.4252,38.6800,75,94,11607
2.5953,0.4057,38.9300,75,94,11610
2.5709,0.4203,38.9600,75,94,11613
2.5611,0.4154,38.9300,75,94,11617
2.5415,0.4106,38.9300,75,94,11620
2.5953,0.4301,38.6800,75,94,11623
2.5367,0.4154,38.8100,75,94,11626
2.4927,0.4106,38.9600,75,94,11630
2.4780,0.4154,38.9300,75,94,11633
2.4536,0.4203,39.0000,75,94,11636
2.5024,0.4252,38.6800,75,94,11639
2.4682,0.4252,38.8400,75,95,11643
2.4242,0.4203,38.9000,75,95,11646
2.4047,0.4106,38.8700,75,95,11650
2.3998,0.4154,38.9600,75,95,11654
2.4047,0.4106,38.9600,75,95,11657
2.4682,0.4301,38.8100,75,95,11660
2.4242,0.4203,38.9000,75,95,11663
2.4096,0.4106,38.9000,75,95,11667
2.4047,0.4399,39.0000,75,95,11670
2.3900,0.4106,38.9300,75,95,11673
2.4487,0.4350,38.7700,75,95,11676
2.4096,0.4203,38.8700,75,95,11680
2.4487,0.4106,38.9300,75,95,11683
2.5171,0.4203,38.9300,75,95,11686
2.6100,0.4106,39.0000,75,95,11689
2.8250,0.4350,38.7400,75,95,11694
2.9570,0.4154,38.8700,75,95,11697
3.1378,0.4106,38.9300,75,95,11700
3.2991,0.4154,38.9600,75,95,11703
3.3920,0.4106,38.9600,75,95,11707
3.4555,0.4594,38.7400,75,95,11710
3.2307,0.4154,38.9000,75,95,11713
2.9619,0.4154,38.9300,75,95,11716
2.6393,0.4106,38.9300,75,95,11720
2.3167,0.4154,38.8700,75,95,11723
2.1163,0.4350,38.7400,75,95,11726
1.8915,0.4154,38.9000,75,95,11729
1.7937,0.4057,38.9300,75,95,11734
1.7742,0.4154,38.9600,75,95,11737
1.7742,0.4106,38.9600,75,95,11740
1.8475,0.4399,38.7100,75,95,11743
1.8231,0.4154,38.8700,75,95,11747
1.8133,0.4106,38.9600,75,95,11750
1.8133,0.4154,38.9300,75,95,11753
1.8035,0.4106,38.9600,75,95,11756
1.8573,0.4350,38.7100,75,95,11760
1.8133,0.4154,38.8700,75,95,11763
1.7840,0.4106,38.9300,75,95,11766
1.7840,0.4057,38.9300,75,95,11769
1.7693,0.4057,38.9300,75,95,11773
1.8035,0.4301,38.7100,75,95,11777
1.7498,0.4154,38.9000,75,95,11780
1.7351,0.4154,39.0600,75,95,11783
1.7449,0.4154,38.9300,75,95,11787
1.7351,0.4106,39.0000,75,95,11790
1.7742,0.4301,38.6800,75,95,11793
1.7253,0.4203,38.8700,75,95,11796
1.7204,0.4106,39.0000,75,95,11800
1.7302,0.4057,38.9300,75,95,11803
1.7400,0.4106,38.9600,75,95,11806
1.7742,0.4252,38.6500,75,95,11809
1.7302,0.4154,38.8700,75,95,11813
1.6960,0.4106,39.0000,75,95,11816
1.6862,0.4106,38.9000,75,95,11820
1.6716,0.4106,38.9600,75,95,11823
1.7449,0.4301,38.6200,75,95,11827
1.6813,0.4154,38.9000,75,95,11830
1.6667,0.4106,38.9000,75,95,11833
1.6862,0.4154,38.9300,75,95,11836
1.7107,0.4057,38.9600,75,95,11840
1.7253,0.4252,38.7100,75,95,11843
1.6862,0.4154,38.8400,75,95,11846
1.6764,0.4106,38.9600,75,95,11849
1.6813,0.4154,38.9600,75,95,11853
1.6960,0.4106,38.9600,75,95,11856
1.7107,0.4252,38.7700,75,95,11859
1.6862,0.4203,38.9000,75,95,11863
1.6813,0.4057,38.9600,75,95,11867
1.6911,0.4545,38.9000,75,95,11870
1.6813,0.4154,38.9600,75,95,11873
1.7107,0.4252,38.6800,75,95,11876
1.6618,0.4057,38.9000,75,95,11880
1.6373,0.4106,38.9000,75,95,11883
1.6471,0.4154,38.9300,75,95,11886
1.6422,0.4057,38.9300,75,95,11889
1.6716,0.4448,38.7100,75,95,11893
1.6276,0.4057,38.9000,75,95,11896
1.6325,0.4106,38.9600,75,95,11899
1.6520,0.4154,38.9000,75,95,11902
1.6325,0.4154,38.9600,75,95,11907
1.6569,0.4350,38.6800,75,95,11910
1.6227,0.4203,38.9000,75,95,11913
1.5885,0.4057,38.9600,75,95,11916
1.6080,0.4154,38.9300,75,95,11920
1.5640,0.4106,38.9600,75,95,11923
1.6031,0.4252,38.6800,75,95,11926
1.5494,0.4203,38.9000,75,95,11929
1.5347,0.4106,38.9600,75,95,11933
1.5494,0.4154,38.9000,75,95,11936
1.5445,0.4154,38.9600,75,95,11939
1.5836,0.4252,38.7400,75,95,11942
1.5445,0.4106,38.9300,75,95,11947
1.5543,0.3861,38.9300,75,95,11950
1.5640,0.4154,38.9000,75,95,11953
1.5396,0.4399,38.9300,75,95,11956
1.5689,0.4252,38.7400,75,95,11960
1.5445,0.4154,38.9300,75,95,11963
1.5152,0.4106,38.9300,75,95,11966
1.5152,0.4203,38.9300,75,95,11969
1.5005,0.4154,38.9600,75,95,11973
1.5249,0.4301,38.7100,75,95,11976
1.4858,0.4154,38.9300,75,95,11979
1.4858,0.4154,39.0000,75,95,11982
1.5005,0.4203,38.9000,75,95,11986
1.4858,0.4106,38.9300,75,95,11990
1.5103,0.4252,38.7100,75,95,11993
1.4712,0.4106,38.8700,75,95,11996
1.4663,0.3861,38.9600,75,95,12000
1.4907,0.4203,38.9000,75,95,12003
1.4663,0.4252,38.9600,75,95,12006
1.5103,0.4252,38.6200,75,95,12009
1.5005,0.4203,38.8700,75,95,12013
1.4907,0.4350,38.9300,75,95,12016
1.5054,0.4203,38.9600,75,95,12019
1.4907,0.4057,38.9600,75,95,12022
1.5200,0.4448,38.7400,75,95,12025
1.5054,0.4154,38.9000,75,95,12029
1.5005,0.4106,38.9300,75,95,12033
1.5200,0.4203,38.8700,75,95,12036
1.5249,0.4154,38.9600,75,95,12039
1.5494,0.4203,38.7400,75,95,12043
1.5249,0.4154,38.9600,75,95,12046
1.5347,0.3861,38.9600,75,95,12049
1.5689,0.4154,38.8400,75,95,12052
1.5543,0.4008,38.9000,75,95,12056
1.5738,0.4203,38.7700,75,95,12059
1.5494,0.4057,38.8700,75,95,12062
1.5396,0.4154,38.8400,75,95,12065
1.5591,0.4203,38.9300,75,95,12069
1.5543,0.4057,39.0000,75,95,12072
1.5738,0.4154,38.8100,75,95,12076
1.5494,0.4057,38.8700,75,95,12079
1.5396,0.4106,38.9600,75,95,12083
1.5494,0.4203,38.8700,75,95,12086
1.5396,0.4203,38.9300,75,95,12089
1.5689,0.4203,38.7100,75,95,12092
1.5494,0.4106,39.0300,75,95,12096
1.5591,0.4106,38.9600,75,95,12099
1.6080,0.4203,38.8400,75,95,12102
1.5787,0.4154,38.9300,75,95,12105
1.6129,0.4203,38.7700,75,95,12109
1.6178,0.4154,38.9300,75,95,12112
1.6031,0.4350,38.9600,75,95,12115
1.6178,0.4448,38.8700,75,95,12119
1.5982,0.4154,38.9600,75,95,12123
1.6178,0.4154,38.7700,75,95,12126
1.5934,0.4203,38.9000,75,95,12129
1.5738,0.4106,38.8400,75,95,12132
1.5934,0.4154,38.8400,75,95,12136
1.5885,0.4154,38.9300,75,95,12139
1.6031,0.4301,38.7700,75,95,12142
1.5787,0.4154,38.9000,75,95,12145
1.5787,0.4106,38.9600,75,95,12149
1.6276,0.4203,38.9300,75,95,12152
1.5885,0.4154,38.9600,75,95,12155
1.6080,0.4203,38.7700,75,95,12158
1.5885,0.4057,38.9000,75,95,12163
1.5836,0.4106,38.9300,75,95,12166
1.5982,0.4203,38.9000,75,95,12169
1.5885,0.4154,38.9600,75,95,12172
1.6080,0.4057,38.7700,75,95,12176
1.5934,0.4106,38.9000,75,95,12179
1.6031,0.4106,38.9600,75,95,12182
1.6178,0.4203,38.8700,75,95,12185
1.5934,0.4203,38.9300,75,95,12189
1.6080,0.4154,38.8100,75,95,12192
1.5934,0.4154,38.9600,75,95,12195
1.6031,0.4106,38.9600,75,95,12198
1.6325,0.4203,38.8700,75,95,12203
1.6227,0.4154,38.9300,75,95,12206
1.6569,0.4154,38.8400,75,95,12209
1.6569,0.4106,38.9000,75,95,12212
1.6618,0.4154,38.9300,75,95,12216
1.6862,0.4106,38.9000,75,95,12219
1.6911,0.4154,38.9600,75,95,12222
1.7595,0.4203,38.8100,75,95,12225
1.7351,0.4106,38.9000,75,95,12229
1.7595,0.4154,38.9600,75,95,12232
1.7937,0.4154,38.8700,75,95,12235
1.7986,0.4106,39.0000,75,95,12238
1.8475,0.4154,38.8400,75,95,12242
1.8524,0.4154,38.9300,75,95,12246
1.9013,0.4057,38.9600,75,95,12249
1.9257,0.4301,38.8700,75,95,12252
1.9404,0.4154,38.9300,75,95,12256
1.9404,0.4106,39.0000,75,95,12259
1.9990,0.4252,38.7400,75,95,12263
1.9795,0.4057,38.9000,75,95,12266
1.9795,0.4106,38.8700,75,95,12269
2.0137,0.4203,38.9000,75,95,12272
2.0088,0.4154,38.9300,75,95,12275
2.0626,0.4252,38.7400,75,95,12279
2.0381,0.4057,38.9300,75,95,12282
2.0528,0.4154,38.9300,75,95,12285
2.0821,0.4252,38.8700,75,95,12289
2.0528,0.4154,38.9300,75,95,12293
2.0772,0.4203,38.7400,75,95,12296
2.0626,0.4154,38.8400,75,95,12299
2.0870,0.4154,38.9600,75,95,12302
2.0723,0.4252,38.9000,75,95,12306
2.0626,0.4154,38.9600,75,95,12309
2.1017,0.4154,38.7400,75,95,12312
2.0772,0.4350,38.8700,75,95,12315
2.0674,0.4106,39.0300,75,95,12319
2.0723,0.4154,38.8400,75,95,12322
2.0186,0.4154,38.9300,75,95,12325
2.0235,0.4203,38.7700,75,95,12328
1.9648,0.4154,38.9300,75,95,12333
1.9599,0.4399,38.9300,75,95,12336
1.9795,0.4203,38.8700,75,95,12339
1.9550,0.4154,38.9300,75,95,12342
1.9697,0.4203,38.7700,75,95,12346
1.9453,0.4154,39.0600,75,95,12349
1.9257,0.4154,38.9600,75,95,12352
1.9257,0.4203,38.8700,75,95,12355
1.9013,0.4154,38.9600,75,95,12359
1.9062,0.4203,38.7400,75,95,12362
1.8768,0.4106,38.9000,75,95,12365
1.8671,0.4106,38.9600,75,95,12368
1.8719,0.4252,38.9000,75,95,12372
1.8475,0.4154,38.9300,75,95,12376
1.8768,0.4203,38.8100,75,95,12379
1.8084,0.4106,38.9600,75,95,12382
1.7889,0.4106,38.9600,75,95,12386
1.7840,0.4203,38.9000,75,95,12389
1.7595,0.4154,38.9300,75,95,12392
1.7791,0.4154,38.8100,75,95,12395
1.7546,0.4154,38.9000,75,95,12399
1.7791,0.4203,38.9600,75,95,12402
1.8182,0.4154,38.9000,75,95,12405
1.7937,0.4154,38.9600,75,95,12408
1.8231,0.4154,38.8400,75,95,12412
1.8182,0.4106,38.9300,75,95,12416
1.8573,0.4106,38.9600,75,95,12419
1.8573,0.4154,38.8400,75,95,12422
1.8573,0.4106,39.0300,75,95,12426
1.9062,0.4057,38.8100,75,95,12429
1.9062,0.4154,38.9300,75,95,12432
1.8915,0.4106,38.9300,75,95,12435
1.9306,0.4203,38.9000,75,95,12439
1.9159,0.4203,38.9600,75,95,12442
1.9453,0.4154,38.8700,75,95,12445
1.9208,0.4106,38.9600,75,95,12448
1.9599,0.4203,38.9300,75,95,12452
1.9648,0.4203,38.8700,75,95,12455
1.9599,0.4154,38.7100,75,95,12459
1.9941,0.4154,38.8400,75,95,12462
1.9844,0.4106,38.9300,75,95,12466
2.0332,0.4203,38.9600,75,95,12469
2.1212,0.4154,38.8700,75,95,12472
2.1994,0.4154,38.9600,75,95,12475
2.3509,0.4252,38.8400,75,95,12479
2.4878,0.4203,38.9600,75,95,12482
2.6882,0.4154,39.0000,75,95,12485
2.9326,0.4252,38.8400,75,95,12488
3.1134,0.4106,38.9300,75,95,12492
3.2698,0.4008,38.8400,75,95,12495
3.2502,0.4106,39.0000,75,95,12498
3.0987,0.4154,38.9300,75,95,12502
2.8495,0.4203,38.8400,75,95,12506
2.4927,0.4154,38.9300,75,95,12509
2.2287,0.4203,38.8400,75,95,12512
1.9208,0.4301,38.9600,75,95,12515
1.7742,0.4203,39.0000,75,95,12519
1.7351,0.4154,38.9000,75,95,12522
1.7742,0.4154,38.9300,75,95,12525
1.8328,0.4203,38.8400,75,95,12528
1.8671,0.4203,38.9600,75,95,12532
1.9013,0.4106,38.9600,75,95,12535
1.9599,0.4252,38.8400,75,95,12538
1.9355,0.4154,38.9600,75,95,12541
1.9648,0.4154,38.8700,75,95,12546
1.9355,0.4057,38.9000,75,95,12549
1.9404,0.4106,38.9600,75,95,12552
1.9648,0.4203,38.8700,75,95,12555
1.9501,0.4399,38.9000,75,95,12559
1.9746,0.4252,38.8700,75,95,12562
1.9306,0.4057,38.9600,75,95,12565
1.9257,0.4057,39.0000,75,95,12568
1.9306,0.4154,38.9000,75,95,12572
1.9159,0.4203,38.9300,75,95,12575
1.9306,0.4252,39.0000,75,95,12578
1.8964,0.4154,38.9600,75,95,12581
1.8866,0.4154,38.9600,75,95,12584
1.9159,0.4252,38.8400,75,95,12589
1.8915,0.4203,38.9300,75,95,12592
1.9208,0.4252,38.8700,75,95,12595
1.8964,0.4154,39.0300,75,95,12599
1.8866,0.4057,38.9600,75,95,12602
1.8866,0.4154,38.8700,75,95,12605
1.8524,0.4154,39.0000,75,95,12608
1.8671,0.4301,38.8700,75,95,12612
1.8475,0.4106,38.9600,75,95,12615
1.8328,0.4203,38.9300,75,95,12618
1.8475,0.4154,39.0000,75,95,12621
1.8328,0.4203,38.9300,75,95,12625
1.8573,0.4154,38.8400,75,95,12628
1.8328,0.4203,38.9300,75,95,12632
1.8280,0.4154,38.9600,75,95,12635
1.8573,0.4301,38.8400,75,95,12639
1.8280,0.4154,38.9300,75,95,12642
1.8573,0.4154,38.8400,75,95,12645
1.8377,0.4106,39.0000,75,95,12648
1.8426,0.4106,38.9600,75,95,12652
1.8671,0.4252,38.9000,75,95,12655
1.8524,0.4203,38.9300,75,95,12658
1.8768,0.4203,38.8400,75,95,12661
1.8573,0.4154,38.9600,75,95,12665
1.8524,0.4106,38.9600,75,95,12668
1.8671,0.4106,38.8700,75,95,12672
1.8475,0.4203,38.9600,75,95,12675
1.8768,0.4203,38.8400,75,95,12679
1.8524,0.4154,38.9300,75,95,12682
1.8475,0.4154,38.9600,75,95,12685
1.8719,0.4203,38.8400,75,95,12688
1.8426,0.4448,39.0000,75,95,12692
1.8671,0.4252,38.8700,75,95,12695
1.8377,0.4106,38.9600,75,95,12698
1.8328,0.4008,38.9300,75,95,12701
1.8524,0.4252,38.8400,75,95,12705
1.8328,0.4154,38.9300,75,95,12708
1.8719,0.4203,38.8100,75,95,12711
1.8328,0.4497,38.9300,75,95,12715
1.8377,0.4154,38.9600,75,95,12719
1.8671,0.4154,38.9000,75,95,12722
1.8817,0.4154,38.9300,75,95,12725
1.9013,0.4252,38.8400,75,95,12728
1.8768,0.4154,38.9300,75,95,12732
1.8719,0.4154,38.9300,75,95,12735
1.9013,0.4301,38.8100,75,95,12738
1.8719,0.4154,38.9000,75,95,12741
1.8964,0.4497,38.8400,75,95,12745
1.8719,0.4154,38.9600,75,95,12748
1.8622,0.4106,38.9600,75,95,12751
1.8866,0.4252,38.8700,75,95,12754
1.8622,0.4203,38.9300,75,95,12759
1.8817,0.4203,38.8400,75,95,12762
1.8622,0.4154,39.0000,75,95,12765
1.8573,0.4154,38.9600,75,95,12768
1.8573,0.4350,38.9000,75,95,12772
1.8377,0.4154,38.9600,75,95,12775
1.8475,0.4203,38.8100,75,95,12778
1.8182,0.4057,38.9600,75,95,12781
1.8035,0.4301,38.9300,75,95,12785
1.8231,0.4252,38.8100,75,95,12788
1.7840,0.4154,38.9600,75,95,12791
1.7840,0.4057,38.8400,75,95,12794
1.7546,0.4448,38.9300,75,95,12798
1.7449,0.4154,38.9600,75,95,12802
1.7546,0.4252,38.8400,75,95,12805
1.7351,0.4154,38.9300,75,95,12808
1.7155,0.4252,38.8700,75,95,12812
1.6862,0.4154,39.0000,75,95,12815
1.6813,0.4106,38.9300,75,95,12818
1.6862,0.4203,38.9300,75,95,12821
1.6764,0.4203,38.9300,75,95,12825
1.6813,0.4203,38.7700,75,95,12828
1.6569,0.4106,38.9300,75,95,12831
1.6569,0.4106,38.9600,75,95,12834
1.6813,0.4252,38.8100,75,95,12838
1.6520,0.4106,38.9000,75,95,12841
1.6667,0.4203,38.8400,75,95,12845
1.6471,0.4154,38.9600,75,95,12848
1.6471,0.4106,38.9600,75,95,12852
1.6716,0.4203,38.8700,75,95,12855
1.6520,0.4154,38.9300,75,95,12858
1.6716,0.4203,38.8400,75,95,12861
1.6520,0.4106,38.9300,75,95,12865
1.6422,0.4154,38.9300,75,95,12869
1.6422,0.4154,38.9600,75,95,12873
1.6716,0.4301,38.7700,75,95,12876
1.6520,0.4154,38.9300,75,95,12879
1.6813,0.4154,38.8100,75,95,12882
1.6764,0.4154,38.8700,75,95,12887
1.6813,0.4399,38.9300,75,95,12890
1.7107,0.4301,38.9000,75,95,12893
1.7058,0.4154,38.9600,75,95,12896
1.7400,0.4154,38.7700,75,95,12900
1.7302,0.4106,38.9000,75,95,12903
1.7351,0.4154,38.9600,75,95,12906
1.7498,0.4057,38.8700,75,95,12909
1.7253,0.4203,38.9300,75,95,12913
1.7302,0.4154,38.8100,75,95,12916
1.7009,0.4154,38.9600,75,95,12919
1.7009,0.4106,38.9600,75,95,12922
1.7253,0.4203,38.8700,75,95,12926
1.7009,0.4154,38.9300,75,95,12930
1.7449,0.4106,38.8100,75,95,12933
1.6764,0.4203,38.9000,75,95,12936
1.6716,0.4154,38.9600,75,95,12940
1.6862,0.4203,38.8700,75,95,12943
1.6716,0.4057,38.9300,75,95,12946
1.6911,0.4203,38.8100,75,95,12949
1.6618,0.4106,38.9300,75,95,12953
1.6569,0.4106,38.9300,75,95,12956
1.6667,0.4106,38.8700,75,95,12959
1.6667,0.4154,38.9000,75,95,12962
1.6911,0.4154,38.8400,75,95,12966
1.6569,0.4154,38.9600,75,95,12969
1.6569,0.4203,38.9600,75,95,12973
1.6813,0.4252,38.7400,75,95,12976
1.6569,0.4154,38.9600,75,95,12980
1.6716,0.4057,38.8400,75,95,12983
1.6520,0.4154,38.9000,75,95,12986
1.6520,0.4154,38.9600,75,95,12989
1.6667,0.4203,38.9000,75,95,12993
1.6471,0.4154,38.9300,75,95,12996
1.6667,0.4203,38.9000,75,95,12999
1.6373,0.4057,38.9300,75,95,13002
1.6325,0.4154,38.9300,75,95,13005
1.6373,0.4154,38.9000,75,95,13009
1.6276,0.4154,38.9300,75,95,13012
1.6520,0.4203,38.8700,75,95,13016
1.6325,0.4203,38.9600,75,95,13019
1.6373,0.4154,38.9300,75,95,13023
1.6618,0.4252,38.8400,75,95,13026
1.6276,0.4154,38.9300,75,95,13029
1.6325,0.4203,38.8400,75,95,13033
1.6031,0.4106,38.9000,75,95,13036
1.6031,0.4154,38.9600,75,95,13039
1.6520,0.4057,38.8400,75,95,13042
1.6031,0.4154,39.0600,75,95,13045
1.6031,0.4252,38.8400,75,95,13049
1.5934,0.4203,38.9600,75,95,13052
1.5934,0.4154,38.9600,75,95,13056
1.6129,0.4154,38.9000,75,95,13059
1.6325,0.4057,38.9300,75,95,13063
1.6569,0.4497,38.8400,75,95,13066
1.6569,0.4350,38.9600,75,95,13069
1.6667,0.4106,38.9300,75,95,13072
1.6960,0.4252,38.8100,75,95,13076
1.6813,0.4106,38.9300,75,95,13079
1.7155,0.4252,38.9000,75,95,13082
1.7009,0.4154,38.9600,75,95,13085
1.7155,0.4154,38.8700,75,95,13089
1.7546,0.4252,38.9300,75,95,13092
1.7498,0.4154,38.9300,75,95,13095
1.7742,0.4203,38.8100,75,95,13099
1.7498,0.4154,38.9600,75,95,13103
1.7449,0.4106,38.9600,75,95,13106
1.7498,0.4203,38.9000,75,95,13109
1.7155,0.4154,38.9300,75,95,13112
1.7155,0.4203,38.9600,75,95,13116
1.6764,0.4154,38.4900,75,95,13119
1.6667,0.4154,38.9600,75,95,13122
1.6960,0.4252,38.8100,75,95,13125
1.6618,0.4399,38.9300,75,95,13129
1.6764,0.4203,38.8100,75,95,13132
1.6422,0.4154,38.9600,75,95,13135
1.6178,0.4154,38.9600,75,95,13138
1.6178,0.4203,38.8100,75,95,13143
1.5787,0.4154,38.9300,75,95,13146
1.5836,0.4203,38.8100,75,95,13149
1.5494,0.4154,38.9000,75,95,13152
1.5347,0.4154,38.9600,75,95,13156
1.5347,0.4203,38.9300,75,95,13159
1.5005,0.4203,38.9300,75,95,13162
1.4956,0.4203,38.8400,75,95,13165
1.4712,0.4154,39.0000,75,95,13169
1.4858,0.4106,38.9600,75,95,13172
1.4956,0.4252,38.8100,75,95,13175
1.4761,0.4203,38.9300,75,95,13178
1.4956,0.4203,38.9000,75,95,13182
1.4761,0.4106,38.9600,75,95,13186
1.4809,0.4008,38.9300,75,95,13189
1.5005,0.4203,38.8400,75,95,13192
1.4809,0.4154,38.9000,75,95,13196
1.4858,0.4252,38.8400,75,95,13199
1.4761,0.4154,38.9600,75,95,13202
1.4761,0.4154,38.9600,75,95,13205
1.4956,0.4057,38.9000,75,95,13209
1.4809,0.4154,38.9600,75,95,13212
1.5054,0.4203,38.8400,75,95,13215
1.5152,0.4154,38.9300,75,95,13218
1.5200,0.4154,38.9300,75,95,13222
1.5494,0.4252,38.8100,75,95,13225
1.5200,0.4154,39.0000,75,95,13229
1.5249,0.4203,38.8400,75,95,13232
1.5054,0.4154,38.9600,75,95,13236
1.5054,0.4154,38.9600,75,95,13239
1.5396,0.4057,38.8400,75,95,13242
1.5103,0.4203,38.9000,75,95,13245
1.5249,0.4154,38.8100,75,95,13249
1.5543,0.4106,38.9300,75,95,13252
1.6325,0.4154,38.9600,75,95,13255
1.7302,0.4203,38.8700,75,95,13258
1.7889,0.4154,38.9300,75,95,13262
1.9159,0.4154,38.8400,75,95,13265
2.0577,0.4154,38.9300,75,95,13268
2.2043,0.4106,38.9300,75,95,13272
2.4047,0.4252,39.0900,75,95,13276
2.5318,0.4154,38.9300,75,95,13279
2.6442,0.4203,38.8400,75,95,13282
2.5220,0.4154,38.9300,75,95,13285
2.3069,0.4154,38.9600,75,95,13289
2.0528,0.4203,38.8100,75,95,13292
1.7253,0.4154,38.4900,75,95,13295
1.4663,0.4154,38.8700,75,95,13298
1.2952,0.4057,38.9300,75,95,13302
1.2121,0.4154,38.9600,75,95,13305
1.2366,0.4545,38.8700,75,95,13308
1.2659,0.4154,38.9300,75,95,13312
1.3392,0.4154,38.8700,75,95,13316
1.3832,0.4154,38.9600,75,95,13319
1.4076,0.4399,38.9600,75,95,13322
1.4565,0.4252,38.9600,75,95,13325
1.4418,0.4154,38.9300,75,95,13329
1.4467,0.4154,38.8700,75,95,13332
1.4663,0.4057,38.9600,75,95,13335
1.4321,0.4154,38.8400,75,95,13338
1.4663,0.4252,38.8400,75,95,13342
1.4418,0.4154,38.9300,75,95,13345
1.4418,0.4154,38.8400,75,95,13348
1.4370,0.4203,38.9300,75,95,13351
1.4418,0.4154,39.0300,75,95,13356
1.4761,0.4252,38.7400,75,95,13359
1.4565,0.4154,38.9300,75,95,13362
1.4663,0.4154,38.8700,75,95,13365
1.4663,0.4154,38.9300,75,95,13369
1.4663,0.4154,39.1600,75,95,13372
1.4907,0.4252,38.7700,75,95,13375
1.4614,0.4154,38.9300,75,95,13378
1.4663,0.4154,38.8400,75,95,13382
1.4907,0.4203,38.9600,75,95,13385
1.4663,0.4154,38.9600,75,95,13388
1.5103,0.4252,38.8100,75,95,13391
1.4858,0.4203,38.9300,75,95,13395
1.5054,0.4252,38.8700,75,95,13399
1.5005,0.4154,38.9600,75,95,13402
1.5152,0.4154,38.9600,75,95,13405
1.5494,0.4350,38.8400,75,95,13409
1.5347,0.4154,38.8700,75,95,13412
1.5494,0.4154,38.8700,75,95,13415
1.5347,0.4057,38.9300,75,95,13418
1.5396,0.4350,39.0000,75,95,13422
1.5787,0.4252,38.8100,75,95,13425
1.5591,0.4154,38.9300,75,95,13428
1.5787,0.4203,38.8400,75,95,13431
1.5640,0.4154,38.9600,75,95,13435
1.5689,0.4154,38.9300,75,95,13438
1.6080,0.4203,38.8100,75,95,13442
1.5934,0.4203,38.9000,75,95,13445
1.6031,0.4154,38.8700,75,95,13449
1.6080,0.4106,39.0600,75,95,13452
1.6080,0.4154,38.9600,75,95,13455
1.6520,0.4252,38.8100,75,95,13458
1.6227,0.4203,38.9000,75,95,13462
1.6325,0.4106,38.8700,75,95,13465
1.6373,0.4154,38.9600,75,95,13468
1.6373,0.4106,38.9300,75,95,13471
1.6862,0.4301,38.7400,75,95,13475
1.6960,0.4252,38.8700,75,95,13479
1.6960,0.4203,38.9300,75,95,13484
1.7302,0.4203,38.8400,75,95,13487
1.7302,0.4154,38.9300,75,95,13490
1.7302,0.4154,38.9300,75,95,13493
1.7595,0.4448,38.9000,75,95,13497
1.7546,0.4154,38.9300,75,95,13500
1.7693,0.4057,38.8400,75,95,13503
1.7498,0.4154,38.9300,75,95,13506
1.7449,0.4154,38.9600,75,95,13510
1.7742,0.4252,38.7400,75,95,13513
1.7498,0.4154,38.9600,75,95,13516
1.7693,0.4203,38.8100,75,95,13519
1.7400,0.4106,38.9300,75,95,13523
1.7302,0.4154,38.9600,75,95,13527
1.7449,0.4203,38.8400,75,95,13530
1.7253,0.4154,38.9000,75,95,13533
1.7155,0.4203,38.7700,75,95,13537
1.6960,0.4154,38.9300,75,95,13540
1.7009,0.4154,38.9600,75,95,13543
1.7155,0.4497,38.8700,75,95,13546
1.7058,0.4154,38.9600,75,95,13550
1.7058,0.4154,38.8700,75,95,13553
1.6911,0.4154,38.9600,75,95,13556
1.6862,0.4154,38.9300,75,95,13559
1.7155,0.4301,38.8100,75,95,13563
1.6862,0.4350,39.0000,75,95,13566
1.6960,0.4203,38.8400,75,95,13570
1.6667,0.4106,38.9300,75,95,13573
1.6618,0.4154,38.9300,75,95,13577
1.6862,0.4203,38.9000,75,95,13580
1.6618,0.4057,38.9300,75,95,13583
1.6911,0.4203,38.8700,75,95,13586
1.6862,0.4154,38.4300,75,95,13590
1.6813,0.4154,38.9600,75,95,13593
1.6862,0.4203,38.9000,75,95,13596
1.6471,0.4203,38.9300,75,95,13599
1.6471,0.4154,39.0600,75,95,13603
1.6227,0.4154,38.5500,75,95,13606
1.6325,0.4154,38.9600,75,95,13609
1.6618,0.4252,38.8100,75,95,13613
1.6520,0.4154,38.9300,75,95,13617
1.6716,0.4399,38.8400,75,95,13620
1.6618,0.4154,38.8400,75,95,13623
1.6569,0.4154,38.9600,75,95,13626
1.6862,0.4203,38.8400,75,95,13630
1.6716,0.4154,38.9300,75,95,13633
1.6862,0.4203,38.7700,75,95,13636
1.6667,0.4154,38.9600,75,95,13639
1.6618,0.4154,38.9600,75,95,13643
1.6716,0.4203,38.9000,75,95,13646
1.6471,0.4154,38.8100,75,95,13649
1.6471,0.4203,38.8700,75,95,13652
1.6373,0.4154,38.9600,75,95,13657
1.6471,0.4154,38.9300,75,95,13660
1.6911,0.4106,38.8100,75,95,13663
1.6813,0.4252,38.9000,75,95,13666
1.7058,0.4203,38.8400,75,95,13670
1.7107,0.4203,38.9300,75,95,13673
1.6764,0.4154,38.9600,75,95,13676
1.7058,0.4252,39.0300,75,95,13679
1.6960,0.4154,38.9300,75,95,13683
1.7107,0.4252,38.8400,75,95,13686
1.7058,0.4203,38.9300,75,95,13689
1.7009,0.4154,38.8700,75,95,13692
1.7155,0.4252,38.9000,75,95,13697
1.6911,0.4252,38.9300,75,95,13700
1.6862,0.4203,38.9000,75,95,13703
1.6716,0.4154,38.9600,75,95,13706
1.6813,0.4106,38.9600,75,95,13710
1.7204,0.4154,38.8100,75,95,13713
1.7107,0.4545,38.9600,75,95,13716
1.7253,0.4203,38.8400,75,95,13719
1.7155,0.4154,39.0000,75,95,13723
1.7009,0.4106,38.9600,75,95,13726
1.7204,0.4252,38.8700,75,95,13729
1.7009,0.4154,38.9300,75,95,13732
1.7058,0.4252,38.8400,75,95,13736
1.7009,0.4154,39.0600,75,95,13740
1.7107,0.4154,38.9300,75,95,13743
1.7351,0.4154,38.8700,75,95,13746
1.7107,0.4203,38.9000,75,95,13750
1.7009,0.4154,38.8400,75,95,13753
1.7107,0.4057,38.9300,75,95,13756
1.6813,0.4106,39.0000,75,95,13759
1.7204,0.4252,38.8100,75,95,13763
1.7009,0.4154,38.9300,75,95,13766
1.7058,0.4154,38.8400,75,95,13769
1.6960,0.4154,39.0000,75,95,13772
1.6862,0.4154,38.9600,75,95,13776
1.7204,0.4350,38.8100,75,95,13779
1.6960,0.4203,38.9300,75,95,13783
1.7009,0.4203,38.8700,75,95,13786
1.6911,0.4154,38.9600,75,95,13789
1.6911,0.4154,39.0900,75,95,13793
1.7302,0.4301,38.8400,75,95,13796
1.7058,0.4057,38.9300,75,95,13799
1.7009,0.4154,38.9300,75,95,13802
1.7009,0.4154,38.9300,75,95,13806
1.7107,0.4106,38.9600,75,95,13809
1.7595,0.4252,38.7400,75,95,13812
1.7302,0.4203,38.9300,75,95,13815
1.7546,0.4057,38.9000,75,95,13819
1.7204,0.4154,38.9600,75,95,13822
1.7204,0.4106,38.9600,75,95,13826
1.7644,0.4301,38.8100,75,95,13829
1.7351,0.4203,38.8700,75,95,13833
1.7351,0.4106,38.9000,75,95,13836
1.7742,0.4154,38.9300,75,95,13839
1.7546,0.4203,38.9300,75,95,13842
1.8035,0.4643,38.7700,75,95,13846
1.7840,0.4203,38.8700,75,95,13849
1.7791,0.4106,38.9000,75,95,13852
1.7840,0.4154,38.9600,75,95,13855
1.7791,0.4154,38.9600,75,95,13859
1.8280,0.4350,38.7700,75,95,13862
1.8035,0.4252,38.9000,75,95,13865
1.7986,0.4106,38.8700,75,95,13869
1.8231,0.4154,38.9300,75,95,13873
1.8622,0.4106,38.9600,75,95,13876
1.9062,0.4350,38.7400,75,95,13879
1.8768,0.4203,38.7700,75,95,13882
1.8671,0.4057,38.9300,75,95,13886
1.8768,0.4154,38.9300,75,95,13889
1.8622,0.4594,39.0000,75,95,13892
1.9013,0.4350,38.7100,75,95,13895
1.8573,0.4203,38.9000,75,95,13899
1.8182,0.4106,38.9000,75,95,13902
1.8035,0.4154,38.8100,75,95,13905
1.7986,0.4154,38.9300,75,95,13908
1.8475,0.4399,38.7400,75,95,13913
1.8084,0.4106,38.8700,75,95,13916
1.7986,0.4106,38.9300,75,95,13919
1.7986,0.4154,38.9300,75,95,13922
1.7840,0.4154,38.9600,75,95,13926
1.8133,0.4350,38.8100,75,95,13929
1.7449,0.4154,38.8100,75,95,13932
1.7204,0.4106,38.9300,75,95,13935
1.7107,0.4154,38.9300,75,95,13939
1.6813,0.4106,38.9600,75,95,13942
1.7204,0.4350,38.8400,75,95,13945
1.6764,0.4203,38.9300,75,95,13948
1.6813,0.4057,38.9000,75,95,13953
1.6960,0.4154,38.9300,75,95,13956
1.6764,0.4154,38.9300,75,95,13959
1.7351,0.4350,38.7100,75,95,13962
1.7009,0.4154,38.9000,75,95,13966
1.7009,0.4106,38.9600,75,95,13969
1.6764,0.4154,38.3000,75,95,13972
1.6569,0.4154,38.9300,75,95,13975
1.7107,0.4252,38.7100,75,95,13979
1.7058,0.4106,38.9000,75,95,13982
1.6667,0.4106,38.9300,75,95,13985
1.6764,0.4154,38.9300,75,95,13988
1.6667,0.4154,38.9300,75,95,13992
1.7302,0.4399,38.7400,75,95,13996
1.6813,0.4203,38.8700,75,95,13999
1.6764,0.4106,38.9300,75,95,14002
1.6862,0.4154,38.9300,75,95,14006
1.6960,0.4106,38.9600,75,95,14009
1.7498,0.4350,38.8100,75,95,14012
1.7058,0.4154,38.8700,75,95,14015
1.7107,0.4106,38.9300,75,95,14019
1.6960,0.4106,38.9300,75,95,14022
1.6813,0.4154,38.9600,75,95,14025
1.7204,0.4252,38.6800,75,95,14028
1.6813,0.4154,38.9300,75,95,14032
1.7107,0.4154,38.9000,75,95,14035
1.7791,0.4154,39.0900,75,95,14039
1.8475,0.4154,38.9600,75,95,14042
1.9990,0.4252,38.6800,75,95,14046
2.0968,0.4106,38.8700,75,95,14049
2.2532,0.4106,38.9600,75,95,14052
2.4291,0.4154,38.9300,75,95,14055
2.5660,0.4154,38.9600,75,95,14059
2.7273,0.4301,38.6500,75,95,14062
2.6540,0.4154,38.9000,75,95,14065
2.4927,0.4106,38.9600,75,95,14068
2.2678,0.4154,38.9600,75,95,14072
1.9941,0.4154,38.9300,75,95,14075
1.7840,0.4301,38.6800,75,95,14078
1.5591,0.4154,38.8700,75,95,14082
1.4467,0.4106,38.9600,75,95,14086
1.4174,0.4154,38.8400,75,95,14089
1.5640,0.4154,38.9600,75,95,14094
1.5689,0.4106,38.9300,75,95,14097
1.6129,0.4252,38.8400,75,95,14100
1.6031,0.4154,38.9000,75,95,14103
1.6129,0.4106,38.8700,75,95,14107
1.6080,0.4203,38.9300,75,95,14110
1.6031,0.4154,38.9600,75,95,14113
1.6520,0.4301,38.8400,75,95,14116
1.6031,0.4203,38.9000,75,95,14120
1.5934,0.4154,38.8700,75,95,14124
1.5836,0.4154,38.9300,75,95,14127
1.5787,0.4106,38.9600,75,95,14130
1.5982,0.4301,38.8100,75,95,14134
1.5640,0.4203,38.9300,75,95,14137
1.5885,0.4106,38.8400,75,95,14140
1.5738,0.4154,38.9300,75,95,14143
1.5591,0.4154,38.9300,75,95,14147
1.6129,0.4252,38.7700,75,95,14150
1.5982,0.4203,38.9300,75,95,14153
1.6276,0.4154,38.8700,75,95,14156
1.5982,0.4203,38.9300,75,95,14160
1.6080,0.4154,39.0600,75,95,14163
1.6618,0.4301,38.8100,75,95,14167
1.6520,0.4203,38.9000,75,95,14170
1.6471,0.4203,38.8700,75,95,14174
1.6520,0.4154,38.9300,75,95,14177
1.6618,0.4154,38.9600,75,95,14180
1.7107,0.4252,38.8100,75,95,14183
1.6911,0.4154,38.9000,75,95,14187
1.7009,0.4106,38.9000,75,95,14190
1.7107,0.4154,38.9300,75,95,14193
1.7058,0.4106,38.9600,75,95,14196
1.7644,0.4399,38.7700,75,95,14200
1.7253,0.4203,38.8100,75,95,14203
1.7204,0.4154,38.9000,75,95,14206
1.7107,0.4106,38.9300,75,95,14210
1.6960,0.4154,39.0300,75,95,14214
1.7400,0.4252,38.8100,75,95,14217
1.6911,0.4252,38.8700,75,95,14220
1.6813,0.4106,38.8700,75,95,14223
1.6764,0.4154,38.9600,75,95,14227
1.6862,0.4154,38.9600,75,95,14230
1.7546,0.4350,38.7700,75,95,14233
1.7009,0.4154,38.8400,75,95,14236
1.7058,0.4057,38.9300,75,95,14240
1.7204,0.4057,38.9300,75,95,14243
1.7302,0.4154,38.9000,75,95,14246
1.7986,0.4252,38.7400,75,95,14249
1.7840,0.4252,38.9300,75,95,14254
1.7791,0.4106,38.9000,75,95,14257
1.7937,0.4154,38.9300,75,95,14260
1.7937,0.4154,38.9600,75,95,14263
1.8622,0.4350,38.7400,75,95,14267
1.8182,0.4252,38.8700,75,95,14270
1.8133,0.4106,38.9000,75,95,14273
1.8133,0.4154,38.9300,75,95,14276
1.8133,0.4154,38.9600,75,95,14280
1.8915,0.4350,38.7700,75,95,14283
1.8280,0.4154,38.8700,75,95,14286
1.8133,0.4106,38.9600,75,95,14289
1.8035,0.4154,38.9300,75,95,14294
1.7937,0.4154,38.9600,75,95,14297
1.8328,0.4350,38.8100,75,95,14300
1.7693,0.4106,38.9000,75,95,14303
1.7498,0.4106,38.9000,75,95,14307
1.7595,0.4057,38.9300,75,95,14310
1.7595,0.4057,39.0000,75,95,14313
1.8231,0.4350,38.7400,75,95,14316
1.7889,0.4203,38.8700,75,95,14320
1.8231,0.4106,38.9300,75,95,14323
1.8182,0.4203,38.9300,75,95,14326
1.8328,0.4154,38.9600,75,95,14329
1.9013,0.4350,38.7400,75,95,14333
1.8719,0.4252,38.8700,75,95,14337
1.8915,0.4154,38.9000,75,95,14340
1.8719,0.4203,38.9300,75,95,14343
1.8817,0.4154,39.1200,75,95,14347
1.9453,0.4350,38.7700,75,95,14350
1.9013,0.4154,38.9000,75,95,14353
1.8866,0.4106,38.9000,75,95,14356
1.8915,0.4154,38.3300,75,95,14360
1.8817,0.4154,38.9600,75,95,14363
1.9208,0.4350,38.7400,75,95,14366
1.8573,0.4057,38.8700,75,95,14369
1.8182,0.4106,38.7100,75,95,14373
1.8035,0.4154,38.9300,75,95,14376
1.7986,0.4154,38.9600,75,95,14380
1.8328,0.4350,38.7400,75,95,14383
1.7937,0.4203,38.8400,75,95,14387
1.7742,0.4106,38.9600,75,95,14390
1.7889,0.4154,38.9300,75,95,14393
1.7937,0.4106,38.9600,75,95,14396
1.8328,0.4399,38.7400,75,95,14400
1.7889,0.4154,39.0300,75,95,14403
1.7791,0.4106,38.9300,75,95,14406
1.7937,0.4106,38.9000,75,95,14409
1.7840,0.4154,39.0600,75,95,14413
1.8426,0.4350,38.7100,75,95,14416
1.8182,0.4203,38.8700,75,95,14419
1.8035,0.4106,38.9000,75,95,14423
1.8035,0.4154,38.9300,75,95,14427
1.7986,0.4057,38.9600,75,95,14430
1.8426,0.4448,38.7100,75,95,14433
1.8133,0.4203,38.7100,75,95,14436
1.8035,0.4106,38.9300,75,95,14440
1.8133,0.4154,38.9300,75,95,14443
1.8133,0.4106,38.9600,75,95,14446
1.8768,0.4350,38.7100,75,95,14449
1.8377,0.4203,38.9000,75,95,14453
1.8328,0.4106,38.9300,75,95,14456
1.8426,0.4154,38.9300,75,95,14459
1.8328,0.4154,39.0300,75,95,14462
1.9062,0.4350,38.5800,75,95,14467
1.8328,0.4203,38.8700,75,95,14470
1.8280,0.4106,39.0300,75,95,14473
1.8426,0.4203,38.9300,75,95,14476
1.8328,0.3861,38.9300,75,95,14480
1.8964,0.4350,38.6800,75,95,14483
1.8426,0.4203,38.8700,75,95,14486
1.8133,0.4106,38.9600,75,95,14489
1.8035,0.4154,38.9300,75,95,14493
1.7937,0.4154,38.9600,75,95,14496
1.8426,0.4448,38.7100,75,95,14499
1.8035,0.4154,38.8700,75,95,14502
1.7986,0.4106,38.9300,75,95,14507
1.8133,0.4154,38.9300,75,95,14510
1.7937,0.4203,38.9600,75,95,14513
1.8377,0.4301,38.6800,75,95,14516
1.7937,0.4154,38.8100,75,95,14520
1.7840,0.4106,38.9300,75,95,14523
1.8133,0.4154,38.9000,75,95,14526
1.7937,0.4203,38.9600,75,95,14529
1.8426,0.4301,38.7100,75,95,14533
1.8231,0.4203,38.8700,75,95,14536
1.7937,0.4106,38.9600,75,95,14539
1.8035,0.4203,38.9300,75,95,14542
1.7986,0.4154,38.9600,75,95,14546
1.8426,0.4301,38.6800,75,95,14550
1.8280,0.4057,38.9000,75,95,14553
1.8182,0.4154,38.9600,75,95,14556
1.8328,0.4203,38.9600,75,95,14560
1.8377,0.4154,38.9600,75,95,14563
1.9306,0.4301,38.6500,75,95,14566
1.8475,0.4106,38.9000,75,95,14569
1.8328,0.4154,38.9600,75,95,14573
1.8377,0.4154,38.9300,75,95,14576
1.8280,0.4106,38.9600,75,95,14579
1.8671,0.4545,38.6500,75,95,14582
1.8280,0.4203,38.4600,75,95,14586
1.8084,0.4057,38.9600,75,95,14589
1.8035,0.4203,38.9300,75,95,14593
1.7840,0.4154,38.8400,75,95,14596
1.8280,0.4252,38.6800,75,95,14600
1.7840,0.4154,38.8700,75,95,14603
1.7595,0.4203,38.9600,75,95,14606
1.7546,0.4203,38.9300,75,95,14609
1.7253,0.4154,38.9600,75,95,14613
1.7595,0.4301,38.6800,75,95,14616
1.7204,0.4154,38.9000,75,95,14619
1.7449,0.4154,38.9600,75,95,14622
1.7937,0.4203,38.9300,75,95,14626
1.8133,0.4154,38.9300,75,95,14629
1.8817,0.4301,38.6800,75,95,14632
1.8719,0.4106,38.8700,75,95,14636
1.8866,0.4154,38.6200,75,95,14640
1.9257,0.4154,38.9600,75,95,14643
1.9404,0.4154,38.9300,75,95,14646
2.0137,0.4545,38.6800,75,95,14649
1.9892,0.4154,38.9000,75,95,14653
1.9844,0.4154,38.9600,75,95,14656
1.9892,0.4203,38.9000,75,95,14659
1.9697,0.4154,39.0900,75,95,14662
1.9990,0.4301,38.6800,75,95,14666
1.9404,0.4057,38.9300,75,95,14669
1.9110,0.4399,38.9600,75,95,14672
1.8915,0.4203,38.8700,75,95,14675
1.8573,0.4154,38.9600,75,95,14680
1.8768,0.4252,38.7100,75,95,14683
1.8280,0.4154,38.8700,75,95,14686
1.7937,0.4154,38.8100,75,95,14689
1.7791,0.4203,38.9000,75,95,14693
1.7498,0.4154,38.9300,75,95,14696
1.7546,0.4301,38.6800,75,95,14699
1.7107,0.4301,38.8100,75,95,14704
1.6862,0.4203,38.9300,75,95,14707
1.6911,0.4399,38.8700,75,95,14710
1.7107,0.4154,39.0000,75,95,14714
1.7253,0.4154,38.9600,75,95,14717
1.8084,0.4252,38.7700,75,95,14721
1.7693,0.4203,38.9000,75,95,14724
1.7644,0.4154,38.9000,75,95,14728
1.7791,0.4154,38.9300,75,95,14731
1.7693,0.4106,38.9600,75,95,14734
1.8133,0.4350,38.7700,75,95,14737
1.7693,0.4203,38.9000,75,95,14741
1.7449,0.4057,38.9000,75,95,14744
1.7302,0.4203,38.9300,75,95,14747
1.7107,0.4154,38.8700,75,95,14750
1.7498,0.4252,38.7700,75,95,14754
1.7253,0.4252,38.9000,75,95,14757
1.6764,0.4106,38.9000,75,95,14760
1.6764,0.4154,38.9300,75,95,14764
1.6667,0.4154,38.9600,75,95,14768
1.7253,0.4448,38.7700,75,95,14771
1.6764,0.4203,38.8700,75,95,14774
1.6716,0.4106,38.9300,75,95,14777
1.6764,0.4154,38.9300,75,95,14781
1.6716,0.4154,38.9600,75,95,14784
1.7155,0.4252,38.7700,75,95,14787
1.6862,0.4203,38.8700,75,95,14790
1.6764,0.4106,38.9000,75,95,14794
1.7107,0.4154,38.9600,75,95,14797
1.7693,0.4154,38.9300,75,95,14800
1.9159,0.4350,38.7400,75,95,14803
1.9941,0.4203,38.8700,75,95,14808
2.1310,0.4106,38.9000,75,95,14811
2.3314,0.4154,38.9000,75,95,14814
2.5269,0.4154,38.9300,75,95,14817
2.7810,0.4350,38.7400,75,95,14821
2.8592,0.4154,38.8700,75,95,14824
2.8788,0.4106,38.9600,75,95,14827
2.7761,0.4154,38.9300,75,95,14830
2.5415,0.4203,38.9300,75,95,14834
2.2972,0.4350,38.7100,75,95,14837
1.9306,0.4203,38.9000,75,95,14840
1.6520,0.4106,38.9300,75,95,14843
1.4907,0.4203,38.9600,75,95,14846
1.4076,0.4154,38.9600,75,95,14851
1.4321,0.4448,38.6800,75,95,14854
1.4370,0.4203,38.8700,75,95,14857
1.4809,0.4106,38.9300,75,95,14860
1.5200,0.4203,38.9300,75,95,14864
1.5445,0.4203,38.9300,75,95,14867
1.6080,0.4301,38.6800,75,95,14870
1.5934,0.4154,38.9300,75,95,14873
1.5836,0.4154,38.9300,75,95,14877
1.5787,0.4203,38.9300,75,95,14880
1.5689,0.4154,38.9000,75,95,14883
1.6080,0.4301,38.6800,75,95,14886
1.5787,0.4252,38.8700,75,95,14891
1.5738,0.4154,38.3300,75,95,14894
1.5836,0.4203,38.9300,75,95,14897
1.5738,0.4252,38.9600,75,95,14900
1.6178,0.4301,38.6500,75,95,14904
1.5885,0.4154,39.0900,75,95,14907
1.5982,0.4154,38.9600,75,95,14910
1.6178,0.4252,38.9000,75,95,14913
1.6227,0.4106,38.9300,75,95,14917
1.6716,0.4301,38.6800,75,95,14920
1.6422,0.4203,38.9000,75,95,14923
1.6178,0.4203,38.9600,75,95,14926
1.6178,0.4301,38.9300,75,95,14930
1.6031,0.4154,38.9600,75,95,14934
1.6422,0.4301,38.6800,75,95,14937
1.6178,0.4154,38.9000,75,95,14940
1.6178,0.4154,38.9600,75,95,14944
1.6422,0.4203,38.9000,75,95,14947
1.6422,0.4154,38.9600,75,95,14950
1.6862,0.4301,38.7400,75,95,14953
1.6569,0.4154,39.1900,75,95,14957
1.6569,0.4154,38.9600,75,95,14960
1.6716,0.4203,38.9000,75,95,14963
1.6618,0.4203,38.9600,75,95,14966
1.7107,0.4301,38.7400,75,95,14970
1.6911,0.4203,38.9000,75,95,14973
1.6764,0.4203,39.0000,75,95,14977
1.6862,0.4154,38.9000,75,95,14980
1.6764,0.4154,38.9600,75,95,14984
1.7449,0.4301,38.6800,75,95,14987
1.6862,0.4106,38.9300,75,95,14990
1.6911,0.4154,39.0300,75,95,14993
1.7107,0.4203,38.9300,75,95,14997
1.7058,0.4057,38.9600,75,95,15000
1.7449,0.4252,38.7100,75,95,15003
1.6911,0.4154,38.8700,75,95,15006
1.6813,0.4154,38.9300,75,95,15010
1.6862,0.4203,38.9300,75,95,15013
1.6960,0.4154,38.9300,75,95,15016
1.7400,0.4301,38.7100,75,95,15020
1.7302,0.4203,38.8700,75,95,15024
1.7351,0.4106,38.9300,75,95,15027
1.7302,0.4154,38.9300,75,95,15030
1.7253,0.4154,38.9300,75,95,15033
1.7693,0.4252,38.7100,75,95,15037
1.7449,0.4154,38.9000,75,95,15040
1.7351,0.4203,38.9600,75,95,15043
1.7498,0.4203,39.0000,75,95,15046
1.7351,0.4203,38.9300,75,95,15050
1.7693,0.4643,38.7100,75,95,15053
1.7302,0.4106,38.9000,75,95,15056
1.7253,0.4154,38.9600,75,95,15059
1.7644,0.4154,38.9000,75,95,15064
1.7400,0.4154,38.9300,75,95,15067
1.7889,0.4252,38.7100,75,95,15070
1.7644,0.4203,38.8700,75,95,15073
1.7449,0.4154,38.9300,75,95,15077
1.7498,0.4203,38.9000,75,95,15080
1.7302,0.4154,38.9000,75,95,15083
1.7693,0.4301,38.7100,75,95,15086
1.7400,0.4154,38.9300,75,95,15090
1.7204,0.4154,39.0000,75,95,15093
1.7302,0.4203,38.9000,75,95,15096
1.7058,0.4106,38.9300,75,95,15099
1.7351,0.4252,38.7100,75,95,15104
1.6960,0.4106,38.8400,75,95,15107
1.6862,0.4154,38.9600,75,95,15110
1.7155,0.4203,38.8700,75,95,15113
1.7058,0.4057,38.9600,75,95,15117
1.7302,0.4252,38.6500,75,95,15120
1.7058,0.4203,38.8700,75,95,15123
1.6911,0.4154,38.9600,75,95,15126
1.7009,0.4252,38.9000,75,95,15130
1.6911,0.4154,38.8400,75,95,15133
1.7253,0.4252,38.7100,75,95,15136
1.7107,0.4203,38.9000,75,95,15139
1.7253,0.4154,38.9600,75,95,15143
1.7498,0.4252,38.9000,75,95,15147
1.7498,0.4154,38.9300,75,95,15150
1.8035,0.4301,38.7400,75,95,15153
1.7644,0.4106,38.9300,75,95,15157
1.7742,0.4399,38.9300,75,95,15160
1.8035,0.4252,38.8700,75,95,15163
1.7889,0.4154,38.9600,75,95,15166
1.8377,0.4057,38.7100,75,95,15170
1.8035,0.4545,38.8400,75,95,15173
1.7889,0.4154,38.9600,75,95,15176
1.7937,0.4203,38.9000,75,95,15179
1.8084,0.4154,38.9600,75,95,15183
1.8084,0.4252,38.7100,75,95,15186
1.7742,0.4203,38.9300,75,95,15190
1.7644,0.4154,38.9600,75,95,15193
1.7595,0.4301,38.9000,75,95,15197
1.7253,0.4154,38.9600,75,95,15200
1.7302,0.4057,38.7400,75,95,15203
1.6813,0.4106,38.9300,75,95,15206
1.6716,0.4154,39.0000,75,95,15210
1.6764,0.4252,38.9000,75,95,15213
1.6520,0.4154,38.9300,75,95,15216
1.6911,0.4301,38.7100,75,95,15219
1.6764,0.4154,39.0000,75,95,15223
1.6716,0.4154,38.9300,75,95,15226
1.6862,0.4203,38.9000,75,95,15229
1.6813,0.4154,39.0000,75,95,15233
1.7253,0.4252,38.7700,75,95,15237
1.7204,0.4154,38.8400,75,95,15240
1.7351,0.4399,39.0000,75,95,15243
1.7742,0.4252,38.9300,75,95,15246
1.7742,0.4154,38.9600,75,95,15250
1.8524,0.4154,38.7700,75,95,15253
1.8035,0.4154,38.9600,75,95,15256
1.8182,0.4154,38.9300,75,95,15259
1.8426,0.4203,38.8400,75,95,15263
1.8231,0.4154,39.0000,75,95,15266
1.8915,0.4057,38.7400,75,95,15269
1.8328,0.4203,38.8100,75,95,15272
1.8133,0.4154,38.9600,75,95,15277
1.8182,0.4203,38.9000,75,95,15280
1.7937,0.4203,38.9600,75,95,15283
1.8084,0.4203,38.8100,75,95,15286
1.7742,0.4154,38.8700,75,95,15290
1.7498,0.4057,38.9600,75,95,15293
1.7449,0.4252,38.8400,75,95,15296
1.7155,0.4154,38.9600,75,95,15299
1.7204,0.4301,38.7700,75,95,15303
1.6862,0.4154,38.9600,75,95,15306
1.6813,0.4203,38.9600,75,95,15309
1.6960,0.4203,38.8100,76,95,15312
1.6911,0.4057,38.9300,76,95,15318
1.6911,0.4399,39.0000,76,95,15321
1.7693,0.4301,38.6800,76,95,15325
1.7693,0.4154,38.9300,76,95,15328
1.7937,0.4154,38.9600,76,95,15331
1.8133,0.4154,38.9000,76,95,15334
1.8133,0.4106,39.0300,76,95,15338
1.8573,0.4301,38.6800,76,95,15341
1.8328,0.4154,38.9000,76,95,15344
1.8182,0.4203,38.9300,76,95,15347
1.8280,0.4203,38.9300,76,95,15351
1.8133,0.4154,38.9300,76,95,15354
1.8622,0.4301,38.6800,76,95,15357
1.8231,0.4203,38.8400,76,95,15361
1.7986,0.4154,39.0300,76,95,15365
1.7937,0.4203,39.0000,76,95,15368
1.7742,0.4106,38.9300,76,95,15371
1.8035,0.4301,38.7100,76,95,15374
1.7595,0.4203,38.9000,76,95,15378
1.7351,0.4106,38.9600,76,95,15381
1.7351,0.4203,38.9000,76,95,15384
1.7155,0.4154,38.9300,76,95,15387
1.7546,0.4301,38.7100,76,95,15391
1.7204,0.4154,38.9300,76,95,15394
1.7351,0.4203,38.9600,76,95,15397
1.7644,0.4203,38.9000,76,95,15400
1.7742,0.4154,38.9600,76,95,15405
1.8328,0.4301,38.7100,76,95,15408
1.8182,0.4203,38.8700,76,95,15411
1.8231,0.4154,39.0900,76,95,15414
1.8524,0.4203,38.7700,76,95,15418
1.8671,0.4154,38.9600,76,95,15421
1.9355,0.4301,38.7100,76,95,15424
1.9257,0.4252,38.8700,76,95,15427
1.9306,0.4154,38.9000,76,95,15431
1.9550,0.4203,38.9000,76,95,15434
1.9404,0.4106,38.9300,76,95,15437
1.9795,0.4301,38.7100,76,95,15440
1.9110,0.4106,38.9600,76,95,15444
1.8817,0.4154,38.9600,76,95,15448
1.8768,0.4203,38.9000,76,95,15451
1.8475,0.4203,38.9300,76,95,15454
1.8817,0.4252,38.7100,76,95,15458
1.8524,0.4203,38.8700,76,95,15461
1.8133,0.4448,38.9600,76,95,15464
1.7937,0.4203,38.9000,76,95,15467
1.7546,0.4154,38.9300,76,95,15471
1.7693,0.4252,38.7100,76,95,15474
1.7253,0.4154,38.8700,76,95,15477
1.6911,0.4154,38.9300,76,95,15480
1.6911,0.4203,38.9600,76,95,15484
1.6716,0.4154,38.9600,76,95,15488
1.6960,0.4154,38.7100,76,95,15491
1.6471,0.4154,38.9000,76,95,15494
1.6471,0.4154,38.9300,76,95,15498
1.6471,0.4154,38.9000,76,95,15501
1.6471,0.4154,38.9300,76,95,15504
1.6960,0.4350,38.7100,76,95,15507
1.6813,0.4203,38.9300,76,95,15511
1.6716,0.4154,38.9600,76,95,15514
1.6862,0.4203,38.9300,76,95,15517
1.6911,0.4106,38.9300,76,95,15520
1.7400,0.4252,38.7400,76,95,15524
1.7204,0.4203,38.9000,76,95,15527
1.7107,0.4154,38.9600,76,95,15531
1.7253,0.4203,38.8400,76,95,15534
1.7058,0.4154,38.9600,76,95,15538
1.7644,0.4301,38.7400,76,95,15541
1.7155,0.4106,38.9000,76,95,15544
1.7155,0.4154,38.9300,76,95,15547
1.7253,0.4203,38.9300,76,95,15551
1.7155,0.4154,38.9600,76,95,15554
1.7644,0.4252,38.7100,76,95,15557
1.7449,0.4301,38.8700,76,95,15560
1.7302,0.4154,38.9600,76,95,15564
1.7449,0.4203,38.7700,76,95,15567
1.7351,0.4154,38.9600,76,95,15570
1.7595,0.4350,38.7100,76,95,15574
1.7253,0.4252,38.9000,76,95,15578
1.7253,0.4154,38.9600,76,95,15581
1.8035,0.4203,38.9000,76,95,15584
1.8573,0.4154,38.9600,76,95,15587
1.9795,0.4252,38.7100,76,95,15591
2.0528,0.4106,38.9000,76,95,15594
2.2043,0.4154,38.9300,76,95,15597
2.3851,0.4203,38.7700,76,95,15600
2.5318,0.4154,39.0300,76,95,15604
2.7615,0.4252,38.7100,76,95,15607
2.8299,0.4252,38.8400,76,95,15610
2.7761,0.4154,38.8400,76,95,15613
2.6197,0.4203,38.9000,76,95,15618
2.3314,0.4203,38.9300,76,95,15621
2.0626,0.4350,38.7400,76,95,15624
1.7595,0.4203,38.9000,76,95,15627
1.5543,0.4057,38.9300,76,95,15631
1.4516,0.4252,38.8400,76,95,15634
1.4125,0.4154,38.9000,76,95,15637
1.4712,0.4252,38.7400,76,95,15640
1.5005,0.4154,38.9300,76,95,15644
1.5494,0.4203,38.9300,76,95,15647
1.5982,0.4203,38.9000,76,95,15650
1.5982,0.4154,38.9600,76,95,15653
1.6422,0.4057,38.7100,76,95,15657
1.6276,0.4203,38.8700,76,95,15661
1.6325,0.4154,39.0000,76,95,15664
1.6520,0.4203,38.9000,76,95,15667
1.6422,0.4154,38.9000,76,95,15671
1.6471,0.4203,38.7100,76,95,15674
1.6129,0.4154,38.8700,76,95,15677
1.6080,0.4154,38.9300,76,95,15680
1.6325,0.4252,38.8700,76,95,15684
1.6276,0.4154,39.0900,76,95,15687
1.6618,0.4252,38.7400,76,95,15690
1.6422,0.4154,38.9600,76,95,15693
1.6520,0.4154,38.9600,76,95,15697
1.6813,0.4203,38.9000,76,95,15700
1.6813,0.4154,38.9600,76,95,15704
1.7107,0.4252,38.7400,76,95,15707
1.7009,0.4154,38.8400,76,95,15711
1.6960,0.4154,39.0900,76,95,15714
1.7107,0.4203,38.8700,76,95,15717
1.6960,0.4203,38.9300,76,95,15720
1.7155,0.4203,38.7100,76,95,15724
1.6960,0.4154,38.8700,76,95,15727
1.6911,0.4154,38.9600,76,95,15730
1.7155,0.4057,38.8700,76,95,15733
1.7009,0.4154,39.0000,76,95,15737
1.7302,0.4203,38.7700,76,95,15740
1.7155,0.4154,38.9300,76,95,15744
1.7253,0.4106,38.9600,76,95,15747
1.7449,0.4203,38.9000,76,95,15751
1.7302,0.4154,38.9600,76,95,15754
1.7693,0.4203,38.7700,76,95,15757
1.7449,0.4203,38.8400,76,95,15760
1.7400,0.4154,38.9300,76,95,15764
1.7546,0.4203,38.8700,76,95,15767
1.7449,0.4203,38.9300,76,95,15770
1.7742,0.4203,38.6500,76,95,15773
1.7644,0.4154,38.9300,76,95,15777
1.7742,0.4154,38.9300,76,95,15780
1.7986,0.4154,38.8400,76,95,15783
1.7840,0.4350,38.9300,76,95,15787
1.8182,0.4203,38.7700,76,95,15791
1.8084,0.4154,38.9300,76,95,15794
1.8231,0.4154,38.9300,76,95,15797
1.8573,0.4545,38.8400,76,95,15800
1.8475,0.4154,38.9600,76,95,15804
1.8719,0.4203,38.7700,76,95,15807
1.8426,0.4154,38.8700,76,95,15810
1.8475,0.4106,38.9600,76,95,15813
1.8573,0.4545,38.8400,76,95,15817
1.8377,0.4154,38.9600,76,95,15820
1.8573,0.4203,38.7700,76,95,15823
1.8280,0.4154,38.9300,76,95,15826
1.8280,0.4154,38.9600,76,95,15831
1.8426,0.4203,38.8400,76,95,15834
1.8377,0.4154,38.9300,76,95,15837
1.8622,0.4252,38.7700,76,95,15840
1.8328,0.4154,38.9600,76,95,15844
1.8280,0.4154,38.8400,76,95,15847
1.8475,0.4252,38.8400,76,95,15850
1.8328,0.4154,38.9600,76,95,15853
1.8622,0.4203,38.7700,76,95,15857
1.8524,0.4399,38.8700,76,95,15860
1.8524,0.4154,38.9600,76,95,15863
1.8719,0.4203,38.9300,76,95,15866
1.8475,0.4154,38.9600,76,95,15870
1.8622,0.4203,38.7700,76,95,15874
1.8280,0.4154,38.8700,76,95,15877
1.8231,0.4154,38.9600,76,95,15880
1.8377,0.4203,38.8700,76,95,15884
1.8231,0.4203,38.9600,76,95,15887
1.8280,0.4154,38.7400,76,95,15890
1.7889,0.4154,38.9300,76,95,15893
1.7791,0.4154,38.9600,76,95,15897
1.7986,0.4252,38.8400,76,95,15900
1.7644,0.4154,38.9600,76,95,15903
1.7791,0.4154,38.7700,76,95,15906
1.7400,0.4154,38.8400,76,95,15910
1.7204,0.4154,38.9600,76,95,15913
1.7302,0.4203,38.8700,76,95,15917
1.7107,0.4448,38.9300,76,95,15920
1.7351,0.4203,38.7700,76,95,15924
1.7498,0.4252,38.7100,76,95,15928
1.7107,0.4154,38.9000,76,95,15932
1.7155,0.4154,38.9600,76,95,15935
1.7302,0.4203,38.9000,76,95,15938
1.7644,0.4106,38.9600,76,95,15941
1.7791,0.4301,38.6800,76,95,15945
1.7546,0.4203,38.8700,76,95,15948
1.7595,0.4057,38.9300,76,95,15951
1.7693,0.4203,38.9300,76,95,15954
1.7498,0.4154,38.9300,76,95,15959
1.7986,0.4301,38.6500,76,95,15962
1.7644,0.4203,38.9000,76,95,15965
1.7693,0.4154,38.9300,76,95,15968
1.7693,0.4203,38.9000,76,95,15972
1.7644,0.4154,38.9600,76,95,15975
1.8035,0.4301,38.7100,76,95,15978
1.7498,0.4106,38.9000,76,95,15981
1.7449,0.4154,38.9600,76,95,15985
1.7595,0.4203,38.9000,76,95,15988
1.7253,0.4154,38.9600,76,95,15991
1.7644,0.4301,38.7100,76,95,15994
1.7449,0.4448,38.8700,76,95,15998
1.7400,0.4154,38.9000,76,95,16002
1.7595,0.4203,38.9300,76,95,16005
1.7546,0.4057,38.9300,76,95,16008
1.7986,0.4252,38.6500,76,95,16012
1.7742,0.4154,39.1200,76,95,16015
1.7644,0.4154,38.9600,76,95,16018
1.8133,0.4154,38.9000,76,95,16021
1.7840,0.4154,38.8700,76,95,16025
1.8377,0.4252,38.7100,76,95,16028
1.7986,0.4106,38.9000,76,95,16031
1.8084,0.4203,38.9300,76,95,16034
1.8231,0.4252,38.8700,76,95,16038
1.7937,0.4154,38.9300,76,95,16041
1.8573,0.4301,38.7100,76,95,16045
1.8084,0.4301,38.8700,76,95,16048
1.7986,0.4154,38.9600,76,95,16052
1.8133,0.4203,38.9000,76,95,16055
1.8035,0.4106,38.9300,76,95,16058
1.8328,0.4252,38.7100,76,95,16061
1.7986,0.4203,38.9000,76,95,16065
1.8084,0.4106,38.9600,76,95,16068
1.7937,0.4203,38.8700,76,95,16071
1.7840,0.4154,38.9300,76,95,16074
1.8280,0.4301,38.7100,76,95,16078
1.7986,0.4106,38.9300,76,95,16081
1.7889,0.4154,38.9000,76,95,16084
1.8133,0.4252,38.8700,76,95,16088
1.7986,0.4154,38.9300,76,95,16092
1.8475,0.4203,38.7100,76,95,16095
1.8426,0.4203,38.8400,76,95,16098
1.8426,0.4154,38.9600,76,95,16101
1.8622,0.4203,38.9000,76,95,16105
1.8377,0.4203,38.9300,76,95,16108
1.8719,0.4203,38.7400,76,95,16111
1.8475,0.4154,38.9300,76,95,16114
1.8475,0.4154,38.9600,76,95,16118
1.8768,0.4252,38.8400,76,95,16121
1.8622,0.4154,38.9300,76,95,16124
1.9013,0.4252,38.7100,76,95,16128
1.8573,0.4057,38.9600,76,95,16132
1.8426,0.4448,38.9300,76,95,16135
1.8573,0.4252,38.8700,76,95,16138
1.8328,0.4154,38.4000,76,95,16141
1.8719,0.4252,38.7100,76,95,16145
1.8426,0.4057,38.8700,76,95,16148
1.8280,0.4154,38.9600,76,95,16151
1.8426,0.4203,38.9600,76,95,16154
1.8231,0.4154,38.9600,76,95,16158
1.8622,0.4301,38.7400,76,95,16161
1.8280,0.4252,38.9000,76,95,16164
1.8231,0.4154,38.9600,76,95,16167
1.8573,0.4252,38.9000,76,95,16172
1.8475,0.4106,38.9600,76,95,16175
1.8915,0.4252,38.7700,76,95,16178
1.8719,0.4154,38.9600,76,95,16181
1.8817,0.4154,38.9300,76,95,16185
1.9453,0.4252,38.8400,76,95,16188
1.9404,0.4154,38.9300,76,95,16191
1.9550,0.4203,38.7400,76,95,16194
1.9404,0.4203,38.2400,76,95,16198
1.9550,0.4106,38.9600,76,95,16201
2.0039,0.4154,38.9000,76,95,16204
1.9844,0.4154,38.9300,76,95,16207
2.0528,0.4252,38.7100,76,95,16211
2.0186,0.4154,38.8700,76,95,16215
2.0088,0.4154,38.9300,76,95,16218
2.0235,0.4203,38.9300,76,95,16221
2.0088,0.4154,39.1600,76,95,16225
2.0332,0.4203,38.7400,76,95,16228
1.9844,0.4154,38.9300,76,95,16231
1.9697,0.4154,38.9600,76,95,16234
1.9795,0.4203,38.8700,76,95,16238
1.9501,0.4154,38.9600,76,95,16241
1.9648,0.4350,38.7700,76,95,16244
1.9306,0.4154,38.7100,76,95,16247
1.9013,0.4154,38.9300,76,95,16251
1.8915,0.4203,38.8700,76,95,16254
1.8573,0.4106,38.9300,76,95,16258
1.8573,0.4203,38.7700,76,95,16261
1.8133,0.4154,38.9000,76,95,16265
1.7986,0.4154,38.9600,76,95,16268
1.8084,0.4301,38.8700,76,95,16271
1.7937,0.4154,38.9600,76,95,16274
1.8182,0.4057,38.7700,76,95,16278
1.7840,0.4154,38.9300,76,95,16281
1.7791,0.4154,38.8700,76,95,16284
1.7937,0.4203,38.8700,76,95,16287
1.7742,0.4154,38.9600,76,95,16291
1.7889,0.4203,38.8700,76,95,16294
1.7742,0.4203,38.8700,76,95,16297
1.7693,0.4154,38.9600,76,95,16301
1.7889,0.4203,38.8400,76,95,16305
1.8084,0.4154,38.9600,76,95,16308
1.8084,0.4203,38.7700,76,95,16311
1.7791,0.4154,38.9300,76,95,16314
1.7644,0.4154,38.9600,76,95,16318
1.7742,0.4203,38.8700,76,95,16321
1.7693,0.4252,39.0000,76,95,16324
1.7986,0.4203,38.7700,76,95,16327
1.7889,0.4154,38.9600,76,95,16331
1.7937,0.4106,38.9300,76,95,16334
1.8328,0.4252,38.9000,76,95,16337
1.8280,0.4154,38.8700,76,95,16340
1.8671,0.4203,38.8100,76,95,16345
1.8475,0.4154,38.8700,76,95,16348
1.8377,0.4154,38.6500,76,95,16351
1.8426,0.4203,38.9300,76,95,16354
1.8280,0.4154,38.9300,76,95,16358
1.8475,0.4203,38.7700,76,95,16361
1.8328,0.4154,38.9300,76,95,16364
1.8622,0.3861,38.9600,76,95,16367
1.9208,0.4203,38.8700,76,95,16371
1.9697,0.4399,38.9000,76,95,16374
2.0870,0.4154,38.8100,76,95,16377
2.1994,0.4154,38.9600,76,95,16380
2.3998,0.4399,38.9300,76,95,16385
2.6540,0.4252,38.8700,76,95,16388
2.8104,0.4154,39.0300,76,95,16391
2.9912,0.4057,38.8100,76,95,16394
2.9472,0.4448,38.9000,76,95,16398
2.8104,0.4154,38.9600,76,95,16401
2.6002,0.4203,38.9000,76,95,16404
2.2972,0.4154,39.0000,76,95,16407
2.0577,0.4154,38.8400,76,95,16410
1.7986,0.4203,38.9300,76,95,16414
1.6569,0.4154,38.9600,76,95,16417
1.6080,0.4154,38.9000,76,95,16420
1.6031,0.4448,39.0000,76,95,16423
1.6667,0.4252,38.8400,76,95,16428
1.6911,0.4154,38.9300,76,95,16431
1.7351,0.4057,38.9600,76,95,16434
1.7840,0.4350,38.8100,76,95,16437
1.7644,0.4154,38.9000,76,95,16441
1.7986,0.4252,38.8400,76,95,16444
1.7937,0.4106,38.9000,76,95,16447
1.7840,0.4154,38.9600,76,95,16450
1.8035,0.4252,38.8700,76,95,16454
1.7791,0.4203,38.9300,76,95,16457
1.8035,0.4252,38.8700,76,95,16460
1.7889,0.4154,38.9600,76,95,16463
1.8280,0.4154,38.9600,76,95,16467
1.8035,0.4106,38.8700,76,95,16471
1.7986,0.4154,38.9000,76,95,16474
1.8231,0.4154,38.8100,76,95,16477
1.7986,0.4154,38.9600,76,95,16481
1.7986,0.4350,39.0000,76,95,16484
1.8133,0.4252,38.8100,76,95,16487
1.7889,0.4154,38.9300,76,95,16490
1.8377,0.4252,38.8400,76,95,16494
1.7840,0.4106,38.9600,76,95,16497
1.7840,0.4154,38.9600,76,95,16500
1.8084,0.4252,38.8700,76,95,16503
1.7937,0.4252,39.0000,76,95,16507
1.8133,0.4252,38.8100,76,95,16510
1.8035,0.4154,38.9600,76,95,16514
1.8280,0.4154,38.9600,76,95,16517
1.8377,0.4301,38.9000,76,95,16521
1.8328,0.4154,38.9600,76,95,16524
1.8719,0.4252,38.8100,76,95,16527
1.8524,0.4154,38.9300,76,95,16530
1.8573,0.4057,38.9300,76,95,16534
1.8964,0.4252,38.9600,75,95,16537
1.9453,0.4057,38.9300,75,95,16542
1.9062,0.4154,38.9000,75,95,16545
1.9355,0.4203,38.8100,75,95,16548
1.9110,0.4057,38.9300,75,95,16551
1.9062,0.4106,39.0600,75,95,16556
1.9110,0.4203,38.8700,75,95,16559
1.9062,0.4106,38.9300,75,95,16562
1.9257,0.4350,38.8100,75,95,16565
1.9062,0.4203,38.9600,75,95,16569
1.9159,0.4154,38.9600,75,95,16572
1.9404,0.4301,38.8700,75,95,16575
1.9501,0.4203,38.9600,75,95,16578
1.9453,0.4203,38.8400,75,95,16582
1.9257,0.4154,38.9000,75,95,16585
1.9208,0.4154,38.9600,75,95,16588
1.9746,0.4154,38.8700,75,95,16591
1.9404,0.4154,38.9000,75,95,16595
1.9746,0.4203,38.7700,75,95,16599
1.9599,0.4106,38.9000,75,95,16602
1.9697,0.4154,39.1200,75,95,16605
1.9892,0.4203,38.8700,75,95,16609
1.9795,0.4106,38.9300,75,95,16612
1.9941,0.4203,38.7700,75,95,16615
1.9599,0.4154,38.9300,75,95,16618
1.9550,0.4154,38.9600,75,95,16622
1.9746,0.4057,38.8400,75,95,16625
1.9550,0.4154,38.9600,75,95,16628
1.9697,0.4203,38.8400,75,95,16631
1.9404,0.4154,38.9300,75,95,16635
1.9355,0.4154,38.9300,75,95,16638
1.9550,0.4057,38.8700,75,95,16642
1.9208,0.4154,39.0600,75,95,16645
1.9453,0.4203,38.8400,75,95,16649
1.9257,0.4057,38.9300,75,95,16652
1.9159,0.4154,38.9300,75,95,16655
1.9355,0.4154,38.9300,75,95,16658
1.9159,0.4154,38.9300,75,95,16662
1.9257,0.4203,38.8100,75,95,16665
1.9013,0.4057,38.9600,75,95,16668
1.8964,0.4350,39.0000,75,95,16671
1.9110,0.4252,38.8400,75,95,16675
1.8768,0.4154,38.9300,75,95,16678
1.9355,0.4203,38.7700,75,95,16681
1.8719,0.4106,38.8400,75,95,16685
1.8719,0.4154,38.9300,75,95,16689
1.8915,0.4203,38.8400,75,95,16692
1.8768,0.4252,38.9300,75,95,16695
1.9013,0.4203,38.8700,75,95,16698
1.8719,0.4106,38.9300,75,95,16702
1.8671,0.4106,38.9600,75,95,16705
1.8622,0.4203,38.8700,75,95,16708
1.8475,0.4154,39.0300,75,95,16711
1.8671,0.4203,38.8400,75,95,16715
1.8377,0.4154,38.9600,75,95,16718
1.8426,0.4106,38.9300,75,95,16721
1.8671,0.4252,38.2700,75,95,16724
1.8328,0.4154,39.0000,75,95,16729
1.8573,0.4057,38.8400,75,95,16732
1.8231,0.4106,38.9000,75,95,16735
1.8280,0.4154,38.9600,75,95,16738
1.8426,0.4203,38.9300,75,95,16742
1.8328,0.4154,39.0000,75,95,16745
1.8524,0.4203,38.8400,75,95,16748
1.8328,0.4154,38.9600,75,95,16751
1.8231,0.4154,38.9300,75,95,16755
1.8475,0.4203,38.8700,75,95,16758
1.8328,0.4154,38.9300,75,95,16761
1.8671,0.4203,38.8400,75,95,16764
1.8377,0.4154,38.9600,75,95,16769
1.8426,0.4154,38.9600,75,95,16772
1.8719,0.4203,38.8100,75,95,16775
1.8524,0.4203,38.9600,75,95,16778
1.8768,0.4203,38.8700,75,95,16782
1.8328,0.4057,38.9300,75,95,16785
1.8328,0.4106,38.9600,75,95,16788
1.8475,0.4203,38.8700,75,95,16791
1.8182,0.4154,38.9300,75,95,16795
1.8671,0.4203,38.9300,75,95,16798
1.7937,0.4106,38.9300,75,95,16801
1.7986,0.4154,38.9000,75,95,16804
1.8133,0.4154,38.8700,75,95,16808
1.8182,0.4154,38.9300,75,95,16812
1.8377,0.4252,38.8700,75,95,16815
1.8231,0.4399,38.9600,75,95,16818
1.8328,0.4154,39.0600,75,95,16822
1.8622,0.4252,38.8400,75,95,16825
1.8377,0.4154,39.0000,75,95,16828
1.8622,0.4252,38.8700,75,95,16831
1.8328,0.4106,38.8700,75,95,16835
1.8328,0.4154,38.9300,75,95,16838
1.8622,0.4252,38.8700,75,95,16841
1.8426,0.4203,38.9300,75,95,16844
1.8768,0.4203,38.8700,75,95,16848
1.8524,0.4154,38.9600,75,95,16851
1.8475,0.4057,38.9300,75,95,16855
1.8426,0.4203,38.8700,75,95,16858
1.8182,0.4154,38.9300,75,95,16862
1.8328,0.4252,38.8400,75,95,16865
1.8035,0.4154,38.9600,75,95,16868
1.7986,0.4154,38.9300,75,95,16871
1.8280,0.4252,38.8400,75,95,16875
1.7937,0.4154,39.0900,75,95,16878
1.8231,0.4301,38.8400,75,95,16881
1.7937,0.4154,38.9300,75,95,16884
1.7937,0.4154,38.9000,75,95,16888
1.8182,0.4252,38.8700,75,95,16891
1.7986,0.4154,38.9300,75,95,16894
1.8133,0.4350,38.8700,75,95,16898
1.7889,0.4154,38.9600,75,95,16902
1.7937,0.4154,38.9600,75,95,16905
1.8133,0.4057,38.9000,75,95,16908
1.7986,0.4203,38.9600,75,95,16911
1.8133,0.4252,38.8400,75,95,16915
1.7742,0.4154,38.9300,75,95,16918
1.7791,0.4154,38.9600,75,95,16921
1.8133,0.4301,38.8100,75,95,16924
1.7889,0.4154,38.9000,75,95,16928
1.8133,0.4252,38.6200,75,95,16931
1.7986,0.4106,38.9300,75,95,16934
1.8231,0.4057,38.9600,75,95,16937
1.8280,0.4252,38.8400,75,95,16942
1.8084,0.4154,38.9600,75,95,16945
1.8377,0.4252,38.8400,75,95,16948
1.8035,0.4057,38.9600,75,95,16951
1.8084,0.4399,38.9300,75,95,16955
1.8133,0.4154,38.9000,75,95,16958
1.8084,0.4154,38.9600,75,95,16961
1.8328,0.4399,38.8700,75,95,16964
1.8133,0.4154,38.9600,75,95,16968
1.8182,0.4399,38.9300,75,95,16971
1.8524,0.4252,38.7700,75,95,16974
1.8377,0.4154,38.9000,75,95,16977
1.8768,0.4252,38.8400,75,95,16982
1.8671,0.4154,38.9300,75,95,16985
1.8866,0.4154,38.9600,75,95,16988
1.9355,0.4252,38.8400,75,95,16991
1.9257,0.4154,38.9300,75,95,16995
1.9599,0.4252,38.8700,75,95,16998
1.9306,0.4154,38.8700,75,95,17001
1.9306,0.4154,38.9300,75,95,17004
1.9355,0.4057,38.9000,75,95,17008
1.9208,0.4154,39.0000,75,95,17011
1.9453,0.4057,38.8400,75,95,17014
1.8964,0.4154,38.9600,75,95,17017
1.9062,0.4350,39.0000,75,95,17021
1.9404,0.4252,38.8100,75,95,17025
1.8964,0.4154,38.9300,75,95,17028
1.9062,0.4154,38.8100,75,95,17031
1.8573,0.4154,38.9600,75,95,17035
1.8426,0.4154,38.9300,75,95,17038
1.8475,0.4252,38.8400,75,95,17041
1.7937,0.4106,38.9300,75,95,17044
1.7693,0.4252,38.8100,75,95,17048
1.7204,0.4154,39.0000,75,95,17051
1.6960,0.4154,38.9600,75,95,17054
1.6960,0.4203,38.9000,75,95,17057
1.6813,0.4154,38.9300,75,95,17061
1.6911,0.4057,38.8100,75,95,17064
1.6813,0.4154,38.9600,75,95,17068
1.6618,0.4203,38.9600,75,95,17071
1.6960,0.4252,38.8400,75,95,17075
1.6764,0.4154,38.9300,75,95,17078
1.7009,0.4203,38.8400,75,95,17081
1.6911,0.4154,38.9300,75,95,17084
1.7155,0.4154,39.1200,75,95,17088
1.7595,0.4252,38.8400,75,95,17091
1.7595,0.4154,38.9300,75,95,17094
1.7986,0.4154,38.8400,75,95,17097
1.7937,0.4252,38.9600,75,95,17101
1.7986,0.4154,38.9300,75,95,17104
1.8182,0.4203,38.9000,75,95,17107
1.8035,0.4057,38.9600,75,95,17111
1.8182,0.4203,38.8400,75,95,17115
1.7937,0.4154,38.9600,75,95,17118
1.7889,0.4154,38.9300,75,95,17121
1.8426,0.4301,38.8100,75,95,17124
1.7889,0.4203,38.9300,75,95,17128
1.8133,0.4203,38.7700,75,95,17131
1.7986,0.4154,38.9600,75,95,17134
1.8035,0.4154,38.9000,75,95,17137
1.8133,0.4154,38.8100,75,95,17141
1.7840,0.4154,39.0300,75,95,17144
1.8377,0.4203,38.8100,75,95,17147
1.8622,0.4106,38.9300,76,95,17150
2.6002,0.4154,38.9600,76,95,17156
2.7908,0.4203,38.9300,76,95,17159
2.9765,0.4252,38.9000,76,95,17163
2.9668,0.4154,38.9300,76,95,17166
2.8886,0.4057,38.8100,76,95,17169
2.5660,0.4154,38.9000,76,95,17172
2.2581,0.4154,38.9300,76,95,17176
1.9697,0.4057,38.8700,76,95,17179
1.7155,0.4154,38.9300,76,95,17182
1.5934,0.4203,38.9600,76,95,17185
1.5249,0.4106,38.9300,76,95,17189
1.5347,0.4154,38.9600,76,95,17192
1.5836,0.4203,38.8700,76,95,17196
1.6276,0.4154,39.0000,76,95,17199
1.6862,0.4203,38.8400,76,95,17203
1.6862,0.4106,38.9300,76,95,17206
1.6911,0.4106,38.9600,76,95,17209
1.7058,0.4252,38.8400,76,95,17212
1.6764,0.4154,38.8700,76,95,17216
1.6911,0.4154,38.8100,76,95,17219
1.6618,0.4106,38.9000,76,95,17222
1.6716,0.4154,39.0000,76,95,17225
1.6862,0.4203,38.8700,76,95,17229
1.6862,0.4154,38.9300,76,95,17232
1.7058,0.4545,38.8100,76,95,17235
1.6862,0.4106,39.0000,76,95,17239
1.6960,0.4154,38.9600,76,95,17243
1.7107,0.4203,38.8700,76,95,17246
1.7107,0.4154,38.9300,76,95,17249
1.7400,0.4154,38.8400,76,95,17252
1.7107,0.4154,38.9300,76,95,17256
1.7449,0.4154,38.9300,76,95,17259
1.7400,0.4497,38.8700,76,95,17262
1.7253,0.4154,38.9600,76,95,17265
1.7546,0.4154,38.8400,76,95,17269
1.7253,0.4106,38.8700,76,95,17272
1.7204,0.4203,38.9300,76,95,17275
1.7351,0.4252,38.8700,76,95,17278
1.7204,0.4154,38.9300,76,95,17283
1.7400,0.4203,38.8400,76,95,17286
1.7253,0.4106,38.9000,76,95,17289
1.7351,0.4154,38.9300,76,95,17292
1.7449,0.4154,38.9000,76,95,17296
1.7546,0.4106,38.9300,76,95,17299
1.7693,0.4203,38.8400,76,95,17302
1.7449,0.4154,38.9300,76,95,17305
1.7546,0.4154,38.9600,76,95,17309
1.7889,0.4252,38.8700,76,95,17312
1.7791,0.4154,38.9300,76,95,17315
1.8231,0.4106,38.8700,76,95,17318
1.8035,0.4106,38.9300,76,95,17323
1.8475,0.4154,38.9300,76,95,17326
1.8475,0.4154,38.8700,76,95,17329
1.8328,0.4154,39.0000,76,95,17332
1.8671,0.4203,38.8400,76,95,17336
1.8426,0.4057,38.9300,76,95,17339
1.8377,0.4252,38.9600,76,95,17342
1.8426,0.4154,38.8700,76,95,17345
1.8377,0.4154,38.9300,76,95,17349
1.8768,0.4154,38.8400,76,95,17352
1.8377,0.4106,38.9300,76,95,17355
1.8377,0.4154,39.0000,76,95,17358
1.8719,0.4252,38.8400,76,95,17362
1.8475,0.4154,38.9300,76,95,17366
1.9062,0.4154,38.8400,76,95,17369
1.8524,0.4008,38.9000,76,95,17372
1.8671,0.4057,38.9600,76,95,17376
1.9062,0.4154,38.8400,76,95,17379
1.8964,0.4106,38.9300,76,95,17382
1.9208,0.4252,38.5200,76,95,17385
1.8915,0.4154,38.9600,76,95,17389
1.8719,0.4057,38.9300,76,95,17392
1.8719,0.4252,38.8700,76,95,17395
1.8573,0.4154,38.9000,76,95,17398
1.8768,0.4252,38.8400,76,95,17402
1.8524,0.4154,38.9600,76,95,17405
1.8622,0.4057,38.9300,76,95,17409
1.9062,0.4350,38.8400,76,95,17412
1.8866,0.4203,39.0000,76,95,17416
1.9062,0.4252,38.8400,76,95,17419
1.9013,0.4106,38.9000,76,95,17422
1.8671,0.4154,38.9000,76,95,17425
1.8915,0.4252,38.8700,76,95,17429
1.8671,0.4154,38.9300,76,95,17432
1.8866,0.4301,38.8400,76,95,17435
1.8622,0.4301,39.1600,76,95,17438
1.8622,0.4154,38.4300,76,95,17442
1.8719,0.4154,38.9000,76,95,17445
1.8573,0.4106,38.9300,76,95,17448
1.8671,0.4252,38.7700,76,95,17452
1.8328,0.4154,39.0300,76,95,17456
1.8280,0.4154,38.9600,76,95,17459
1.8524,0.4301,38.8100,76,95,17462
1.8182,0.4106,38.9000,76,95,17465
1.8280,0.4252,38.8700,76,95,17469
1.8182,0.4106,39.0000,76,95,17472
1.7937,0.4154,38.9300,76,95,17475
1.8133,0.4252,38.8700,76,95,17478
1.7937,0.4154,38.9300,76,95,17482
1.8377,0.4203,38.8100,76,95,17485
1.7791,0.4154,38.8400,76,95,17488
1.7742,0.4154,38.9000,76,95,17491
1.7889,0.4154,38.8700,76,95,17496
1.7840,0.4203,38.9300,76,95,17499
1.8035,0.4203,38.8400,76,95,17502
1.7840,0.4154,38.9600,76,95,17505
1.8035,0.4154,38.9300,76,95,17509
1.8280,0.4301,38.7700,76,95,17512
1.8035,0.4154,38.9000,76,95,17515
1.8377,0.4203,38.8400,76,95,17518
1.8524,0.4203,38.9300,76,95,17522
1.8426,0.4154,38.9600,76,95,17525
1.8671,0.4252,38.8400,76,95,17528
1.8426,0.4154,38.9300,76,95,17531
1.8671,0.4154,38.8100,76,95,17536
1.8280,0.4203,38.9300,76,95,17539
1.8231,0.4154,39.0600,76,95,17542
1.8426,0.4203,38.9000,76,95,17545
1.8182,0.4203,38.9600,76,95,17549
1.8231,0.4203,38.8400,76,95,17552
1.7889,0.4154,38.9600,76,95,17555
1.7840,0.4154,38.9300,76,95,17558
1.8084,0.4203,38.8100,76,95,17562
1.7791,0.4203,38.9300,76,95,17565
1.7986,0.4203,38.8400,76,95,17568
1.7742,0.4154,38.9600,76,95,17571
1.7693,0.4106,38.9300,76,95,17575
1.7986,0.4301,38.8400,76,95,17579
1.7889,0.4154,38.9300,76,95,17582
1.8133,0.4203,38.8100,76,95,17585
1.8084,0.4106,38.9600,76,95,17589
1.8035,0.4203,38.9300,76,95,17592
1.8328,0.4203,38.9600,76,95,17595
1.8328,0.4154,38.9000,76,95,17598
1.8475,0.4203,38.8100,76,95,17602
1.8280,0.4154,38.9300,76,95,17605
1.8231,0.4154,39.0000,76,95,17608
1.8817,0.4252,38.8100,76,95,17611
1.8524,0.4154,38.9300,76,95,17615
1.8377,0.4203,38.8400,76,95,17618
1.8133,0.4154,39.0000,76,95,17622
1.8084,0.4203,38.9300,76,95,17625
1.8280,0.4301,38.8100,76,95,17629
1.8084,0.4154,39.0000,76,95,17632
1.8231,0.4203,38.9300,76,95,17635
1.7889,0.4203,38.9600,76,95,17638
1.7742,0.4106,38.9600,76,95,17642
1.7840,0.4203,38.7700,76,95,17645
1.7693,0.4154,38.9300,76,95,17648
1.7840,0.4203,38.8400,76,95,17651
1.7742,0.4154,38.9000,76,95,17655
1.7742,0.4203,38.9600,76,95,17658
1.8035,0.4154,38.8100,76,95,17661
1.7840,0.4154,38.9000,76,95,17665
1.7986,0.4203,38.8400,76,95,17669
1.7791,0.4106,38.9300,76,95,17672
1.7889,0.4154,39.0000,76,95,17675
1.8231,0.4252,38.9600,76,95,17678
1.8035,0.4203,38.9300,76,95,17682
1.8133,0.4301,38.8400,76,95,17685
1.7937,0.4154,38.9600,76,95,17688
1.7889,0.4154,38.3300,76,95,17691
1.8084,0.4252,38.8700,76,95,17695
1.7889,0.4399,38.9000,76,95,17698
1.7889,0.4203,38.9000,76,95,17701
1.7693,0.4154,38.9300,76,95,17704
1.7546,0.4057,38.9600,76,95,17709
1.7791,0.4301,38.7700,76,95,17712
1.7400,0.4203,38.9000,76,95,17715
1.7400,0.4203,38.8400,76,95,17718
1.7204,0.4106,38.9600,76,95,17722
1.7155,0.4154,38.9000,76,95,17725
1.7449,0.4252,38.8400,76,95,17728
1.7204,0.4203,38.9300,76,95,17731
1.7204,0.4252,38.8400,76,95,17735
1.7107,0.4154,38.8400,76,95,17738
1.7155,0.4154,38.3600,76,95,17741
1.7644,0.4252,38.8400,76,95,17744
1.7693,0.4203,38.9000,76,95,17748
1.7840,0.4154,38.8100,76,95,17752
1.7791,0.4154,38.9300,76,95,17755
1.7889,0.4154,38.9600,76,95,17758
1.8475,0.4252,38.7700,76,95,17762
1.9110,0.4252,38.8700,76,95,17766
1.8964,0.4154,38.9300,76,95,17769
1.9306,0.4203,38.8400,76,95,17773
1.8964,0.4154,39.0000,76,95,17776
1.8915,0.4154,38.9600,76,95,17779
1.8866,0.4203,38.9000,76,95,17782
1.8622,0.4154,38.9600,76,95,17786
1.8671,0.4252,38.7700,76,95,17789
1.8182,0.4154,38.9600,76,95,17793
1.7986,0.4203,38.9000,76,95,17796
1.8133,0.4252,38.8100,76,95,17800
1.7546,0.4154,38.9300,76,95,17803
1.7546,0.4252,38.8400,76,95,17806
1.7155,0.4106,39.0000,76,95,17809
1.7009,0.4154,38.9600,76,95,17813
1.7107,0.4252,38.8400,76,95,17816
1.6764,0.4203,38.9300,76,95,17819
1.6764,0.4252,38.7700,76,95,17822
1.6422,0.4154,38.9300,76,95,17826
1.6227,0.4154,38.9600,76,95,17829
1.6373,0.4057,38.9000,76,95,17832
1.6080,0.4301,38.9600,76,95,17836
1.6325,0.4154,38.8400,76,95,17840
1.6129,0.4154,38.9600,76,95,17843
1.6178,0.4154,38.9300,76,95,17846
1.6569,0.4301,38.8100,76,95,17849
1.6422,0.4203,38.9300,76,95,17853
1.6618,0.4252,38.8400,76,95,17856
1.6520,0.4154,38.9600,76,95,17859
1.6618,0.4399,38.9600,76,95,17862
1.7058,0.4399,38.8100,76,95,17866
1.6960,0.4154,38.9300,76,95,17869
1.7204,0.4203,38.8100,76,95,17872
1.6960,0.4154,39.0900,76,95,17875
1.6960,0.4154,38.9600,76,95,17880
1.7107,0.4203,38.8700,76,95,17883
1.6960,0.4252,38.9000,76,95,17886
1.7107,0.4203,38.8100,76,95,17889
1.6911,0.4154,38.9300,76,95,17893
1.6813,0.4106,38.9300,76,95,17896
1.7107,0.4497,38.7700,76,95,17899
1.6813,0.4154,39.0900,76,95,17902
1.7009,0.4203,38.8400,76,95,17906
1.6764,0.4106,38.9300,76,95,17909
1.6618,0.4252,38.9000,76,95,17912
1.6764,0.4252,38.7700,76,95,17915
1.6813,0.4154,38.9300,76,95,17920
1.7693,0.4203,38.8100,76,95,17923
1.8035,0.4252,38.9300,76,95,17926
1.9013,0.4154,39.0900,76,95,17929
2.0528,0.4203,38.9000,76,95,17933
2.2043,0.4301,38.9000,76,95,17936
2.3900,0.4203,38.8400,76,95,17939
2.5562,0.4203,38.9600,76,95,17942
2.6882,0.4154,39.0600,76,95,17946
2.7957,0.4252,38.8400,76,95,17949
2.6637,0.4057,38.9600,76,95,17952
2.4585,0.4203,38.7700,76,95,17955
2.1505,0.4154,38.9600,76,95,17959
1.8573,0.4203,38.9300,76,95,17963
1.6422,0.4154,38.8100,76,95,17966
1.4761,0.4203,38.9000,76,95,17969
1.4272,0.4203,38.8400,76,95,17973
1.4223,0.4057,38.9300,76,95,17976
1.4516,0.4154,38.9300,76,95,17979
1.5347,0.4203,38.8400,76,95,17982
1.5591,0.4154,38.8400,76,95,17986
1.5885,0.4203,38.8400,76,95,17989
1.5787,0.4154,38.9300,76,95,17992
1.5787,0.4154,38.9600,76,95,17995
1.6031,0.4301,38.8100,76,95,17999
1.5689,0.4448,38.8700,76,95,18002
1.5787,0.4203,38.9000,76,95,18006
1.5689,0.4154,38.9300,76,95,18009
1.5591,0.4301,38.9600,76,95,18013
1.5836,0.4252,38.8400,76,95,18016
1.5689,0.4154,38.9300,76,95,18019
1.5982,0.4154,38.9300,76,95,18022
1.5640,0.4154,39.0000,76,95,18026
1.5591,0.4154,38.9600,76,95,18029
1.5787,0.4252,38.8700,76,95,18032
1.6031,0.4203,38.9300,76,95,18035
1.5836,0.4203,38.9000,76,95,18039
1.5787,0.4154,38.9300,76,95,18042
1.5982,0.4154,38.9300,76,95,18045
1.6373,0.4301,38.8100,76,95,18049
1.6227,0.4203,38.9000,76,95,18053
1.6325,0.4203,38.8700,76,95,18056
1.6227,0.4154,38.9600,76,95,18059
1.6276,0.4399,38.9300,76,95,18062
1.6569,0.4252,38.8700,76,95,18066
1.6422,0.4203,38.9000,76,95,18069
1.6520,0.4154,38.8700,76,95,18072
1.6422,0.4203,38.9300,76,95,18075
1.6471,0.4399,38.9000,76,95,18079
1.6764,0.4252,38.8700,76,95,18082
1.6618,0.4203,38.9300,76,95,18085
1.6764,0.4203,38.8700,76,95,18088
1.6716,0.4154,38.9600,76,95,18093
1.6716,0.4154,38.9300,76,95,18096
1.7058,0.4301,38.7700,76,95,18099
1.7009,0.4203,38.9300,76,95,18102
1.7107,0.4203,38.8400,76,95,18106
1.6960,0.4154,38.9600,76,95,18109
1.7155,0.4154,38.9300,76,95,18112
1.7351,0.4301,38.8100,76,95,18115
1.7155,0.4203,38.9000,76,95,18119
1.7204,0.4154,38.8400,76,95,18122
1.6960,0.4203,38.9600,76,95,18125
1.6960,0.4154,38.9300,76,95,18128
1.7351,0.4252,38.8400,76,95,18132
1.7107,0.4203,38.9300,76,95,18136
1.7204,0.4203,38.8700,76,95,18139
1.7204,0.4154,38.9300,76,95,18142
1.7204,0.4154,38.9600,76,95,18146
1.7595,0.4301,38.7700,76,95,18149
1.7400,0.4203,38.9000,76,95,18152
1.7498,0.4203,38.8400,76,95,18155
1.7595,0.4057,38.9300,76,95,18159
1.7693,0.4350,38.9300,76,95,18162
1.8133,0.4252,38.8100,76,95,18165
1.7889,0.4203,38.9300,76,95,18168
1.7986,0.4203,38.8400,76,95,18172
1.7742,0.4203,38.9300,76,95,18176
1.7742,0.4203,38.9300,76,95,18179
1.8133,0.4252,38.7700,76,95,18182
1.7889,0.4203,38.9300,76,95,18186
1.7840,0.4154,38.8400,76,95,18189
1.7791,0.4203,38.9300,76,95,18192
1.7791,0.4154,39.0600,76,95,18195
1.8133,0.4252,38.8100,76,95,18199
1.7644,0.4203,38.9300,76,95,18202
1.7644,0.4203,38.8700,76,95,18205
1.7498,0.4154,38.8400,76,95,18208
1.7449,0.4154,38.9600,76,95,18212
1.7791,0.4252,38.8100,76,95,18215
1.7791,0.4154,38.9300,76,95,18219
1.7449,0.4203,38.8400,76,95,18222
1.7302,0.4154,38.9300,76,95,18226
1.7204,0.4154,38.9300,76,95,18229
1.7742,0.4301,38.8400,76,95,18232
1.7253,0.4448,38.9000,76,95,18235
1.7107,0.4154,38.8700,76,95,18239
1.6911,0.4154,38.9300,76,95,18242
1.6813,0.4203,38.9300,76,95,18245
1.7058,0.4252,38.7400,76,95,18248
1.6716,0.4203,38.9300,76,95,18252
1.6716,0.4154,38.8700,76,95,18255
1.6618,0.4154,38.9300,76,95,18258
1.6471,0.4252,38.9300,76,95,18262
1.6862,0.4252,38.8700,76,95,18266
1.6569,0.4203,38.8400,76,95,18269
1.6569,0.4154,38.8700,76,95,18272
1.6716,0.4203,38.9300,76,95,18275
1.6618,0.4301,38.9600,76,95,18279
1.7107,0.4301,38.8400,76,95,18282
1.6911,0.4203,38.9300,76,95,18285
1.6813,0.4203,38.9000,76,95,18288
1.6667,0.4154,38.9000,76,95,18292
1.6569,0.4154,39.0300,76,95,18295
1.7009,0.4252,38.7400,76,95,18298
1.6667,0.4545,38.9000,76,95,18301
1.6618,0.4154,38.8700,76,95,18306
1.6618,0.4154,38.9300,76,95,18309
1.6569,0.4203,38.9300,76,95,18312
1.7107,0.4350,38.8100,76,95,18315
1.6862,0.4203,38.9000,76,95,18319
1.6764,0.4350,38.8700,76,95,18322
1.6716,0.4154,38.9000,76,95,18325
1.6667,0.4154,38.9600,76,95,18328
1.7155,0.4252,38.8100,76,95,18332
1.6911,0.4154,38.8700,76,95,18335
1.6813,0.4154,38.2700,76,95,18338
1.6862,0.4154,38.9300,76,95,18341
1.6911,0.4154,38.9600,76,95,18345
1.7498,0.4252,38.7700,76,95,18349
1.7107,0.4154,38.9000,76,95,18352
1.6911,0.4154,38.8400,76,95,18355
1.6862,0.4154,38.9300,76,95,18359
1.6911,0.4154,39.0000,76,95,18362
1.7351,0.4448,38.7700,76,95,18365
1.7107,0.4203,38.9300,76,95,18368
1.7058,0.4154,38.9000,76,95,18372
1.7058,0.4106,38.9300,76,95,18375
1.6862,0.4154,38.9600,76,95,18380
1.6764,0.4203,38.9600,76,95,18383
1.7107,0.4350,38.7700,76,95,18386
1.6911,0.4203,38.9300,76,95,18390
1.7107,0.4203,38.8400,76,95,18394
1.6960,0.4154,38.9600,76,95,18397
1.6862,0.4399,39.0000,76,95,18400
1.7107,0.4252,38.3000,76,95,18403
1.6911,0.4154,38.9300,76,95,18407
1.7058,0.4301,38.8100,76,95,18410
1.6862,0.4154,38.9300,76,95,18413
1.6911,0.4154,38.9600,76,95,18416
1.7204,0.4203,38.9000,76,95,18420
1.7107,0.4057,38.9000,76,95,18423
1.7155,0.4203,38.8100,76,95,18426
1.7009,0.4154,39.0000,76,95,18429
1.7058,0.4203,38.9000,76,95,18434
1.7546,0.4252,38.5800,76,95,18437
1.7449,0.4203,38.9300,76,95,18440
1.7986,0.4203,38.8400,76,95,18443
1.7693,0.4203,38.9300,76,95,18447
1.7742,0.4154,38.9600,76,95,18450
1.8084,0.4252,38.8100,76,95,18453
1.7840,0.4154,38.9300,76,95,18456
1.8035,0.4203,38.8100,76,95,18460
1.7937,0.4154,38.9600,76,95,18463
1.8035,0.4203,38.9300,76,95,18466
1.8671,0.4301,38.8700,76,95,18469
1.8231,0.4154,38.9300,76,95,18473
1.8328,0.4203,38.8700,76,95,18477
1.8231,0.4154,38.9600,76,95,18480
1.8280,0.4154,38.9300,76,95,18483
1.8524,0.4350,38.8100,76,95,18487
1.8280,0.4448,39.0000,76,95,18490
1.8426,0.4203,38.8400,76,95,18493
1.8328,0.4203,38.9300,76,95,18496
1.8280,0.4594,38.8400,76,95,18500
1.8573,0.4252,38.7700,76,95,18503
1.8377,0.4203,38.9300,76,95,18506
1.8377,0.4203,38.8400,76,95,18509
1.8133,0.4154,39.0900,76,95,18513
1.7937,0.4154,38.9600,76,95,18516
1.8280,0.4252,38.8700,76,95,18520
1.8084,0.4154,38.9300,76,95,18523
1.7791,0.4154,38.8100,76,95,18527
1.7351,0.4154,38.9000,76,95,18530
1.6960,0.4154,38.9300,76,95,18533
1.6862,0.4154,38.7700,76,95,18536
1.6422,0.4154,38.9300,76,95,18540
1.5885,0.4203,38.9300,76,95,18543
1.5347,0.4154,38.9600,76,95,18546
1.4858,0.4154,38.9300,76,95,18549
1.4516,0.4301,38.8100,76,95,18553
1.3734,0.4203,38.9000,76,95,18556
1.3099,0.4154,38.8400,76,95,18560
1.2414,0.4106,38.9300,76,95,18563
1.1388,0.4154,38.9600,76,95,18567
1.0850,0.4252,38.8400,76,95,18570
0.9922,0.4154,38.9300,76,95,18573
0.9286,0.4154,38.8400,76,95,18576
0.8651,0.4154,38.9000,76,95,18580
0.8260,0.4057,38.9300,76,95,18583
0.7967,0.4252,38.7700,76,95,18586
0.7478,0.4203,38.9300,76,95,18589
0.7283,0.4154,38.8400,76,95,18593
0.6940,0.4203,38.9300,76,95,18596
0.6745,0.4154,38.9600,76,95,18599
0.6891,0.4301,38.8100,76,95,18603
0.6745,0.4203,38.7700,76,95,18606
0.6794,0.4154,38.9300,76,95,18610
0.6794,0.4252,39.0000,76,95,18613
0.6940,0.4154,38.9600,76,95,18616
0.7380,0.4350,38.8100,76,95,18619
0.7478,0.4203,39.0000,76,95,18623
0.7820,0.4106,38.9300,76,95,18626
0.8260,0.4301,38.9300,76,95,18629
0.8700,0.4154,38.9600,76,95,18632
0.9531,0.4301,38.8100,76,95,18636
0.9873,0.4154,38.8700,76,95,18639
1.0362,0.4106,38.9000,76,95,18642
1.1046,0.4106,38.9000,76,95,18646
1.1632,0.4154,38.9300,76,95,18650
1.2610,0.4448,38.7100,76,95,18653
1.2952,0.4203,38.8400,76,95,18656
1.3441,0.4106,38.9600,76,95,18659
1.4076,0.4154,38.9300,76,95,18663
1.4663,0.4203,38.9600,76,95,18666
1.5591,0.4448,38.7100,76,95,18669
1.5836,0.4203,38.8700,76,95,18672
1.6325,0.4106,38.9300,76,95,18676
1.6667,0.4154,38.9300,76,95,18679
1.7155,0.4203,38.9300,76,95,18682
1.8035,0.4399,38.7400,76,95,18685
1.8035,0.4203,38.8700,76,95,18690
1.8426,0.4106,38.9300,76,95,18693
1.8671,0.4203,38.9000,76,95,18696
1.8768,0.4154,39.0000,76,95,18699
1.9501,0.4399,38.6800,76,95,18703
1.9453,0.4154,38.8700,76,95,18706
2.0088,0.4106,38.9300,76,95,18709
2.0968,0.4057,38.9300,76,95,18712
2.1799,0.4106,38.9300,76,95,18716
2.3509,0.4350,38.6200,76,95,18719
2.4633,0.4203,38.9300,76,95,18722
2.6002,0.4106,38.9600,76,95,18725
2.7615,0.4203,38.9000,76,95,18729
2.8983,0.4154,38.9600,76,95,18733
3.0547,0.4252,38.6500,76,95,18736
2.9374,0.4203,38.8700,76,95,18739
2.7224,0.4154,38.9600,76,95,18742
2.4633,0.4203,38.9000,76,95,18746
2.1848,0.4154,38.9300,76,95,18749
2.0137,0.4301,38.6800,76,95,18752
1.8182,0.4154,38.9000,76,95,18755
1.7742,0.4154,39.1200,76,95,18759
1.7937,0.4203,39.0000,76,95,18762
1.8377,0.4154,38.9300,76,95,18765
1.9404,0.4301,38.6800,76,95,18768
1.9648,0.4203,38.8700,76,95,18772
1.9746,0.4154,38.9600,76,95,18776
2.0039,0.4057,38.9000,76,95,18779
1.9892,0.4154,39.0900,76,95,18782
2.0528,0.4301,38.6800,76,95,18786
2.0283,0.4203,38.8700,76,95,18789
2.0186,0.4154,38.9600,76,95,18792
2.0332,0.4203,38.9300,76,95,18795
2.0088,0.4448,38.9300,76,95,18799
2.0479,0.4252,38.7100,76,95,18802
1.9990,0.4106,38.9300,76,95,18805
1.9941,0.4350,39.0000,76,95,18808
2.0186,0.4203,38.9300,76,95,18812
2.0088,0.4154,38.9300,76,95,18816
2.0381,0.4643,38.7400,76,95,18819
2.0039,0.4252,38.8700,76,95,18822
1.9697,0.4203,38.9300,76,95,18826
1.9648,0.4203,38.9000,76,95,18829
1.9306,0.4154,38.9300,76,95,18832
1.9599,0.4154,38.7400,76,95,18835
1.9208,0.4154,38.9000,76,95,18839
1.9013,0.4154,39.0000,76,95,18842
1.9355,0.4252,38.9000,76,95,18845
1.8866,0.4154,38.9600,76,95,18848
1.9110,0.4252,38.7400,76,95,18852
1.8671,0.4154,38.9600,76,95,18855
1.8719,0.4154,38.9600,76,95,18859
1.8915,0.4203,38.9000,76,95,18862
1.8622,0.4448,39.0000,76,95,18866
1.8964,0.4252,38.7100,76,95,18869
1.8671,0.4203,38.8400,76,95,18872
1.8475,0.4203,38.9600,76,95,18875
1.8622,0.4203,38.8700,76,95,18879
1.8524,0.4154,38.9000,76,95,18882
1.8866,0.4252,38.7100,76,95,18885
1.8573,0.4154,38.8700,76,95,18888
1.8426,0.4154,38.9600,76,95,18892
1.8524,0.4252,38.8700,76,95,18895
1.8475,0.4154,38.9300,76,95,18898
1.8915,0.4203,38.7400,76,95,18902
1.8817,0.4448,38.9600,76,95,18906
1.8915,0.4154,38.8400,76,95,18909
1.9110,0.4203,38.9000,76,95,18912
1.8964,0.4154,38.9000,76,95,18915
1.9355,0.4301,38.7100,76,95,18919
1.9110,0.4203,38.7700,76,95,18922
1.9257,0.4057,38.9300,76,95,18925
1.9599,0.4252,38.9000,76,95,18928
1.9648,0.4252,38.9300,76,95,18932
2.0235,0.4252,38.7400,76,95,18935
2.0137,0.4154,38.8700,76,95,18938
2.0186,0.4203,38.9300,76,95,18941
2.0479,0.4203,38.8700,76,95,18946
2.0577,0.4203,38.9300,76,95,18949
2.0968,0.4203,38.7700,76,95,18952
2.0870,0.4154,39.0300,76,95,18955
2.1212,0.4057,38.9300,76,95,18959
2.1750,0.4252,38.8400,76,95,18962
2.1848,0.4154,38.9300,76,95,18965
2.2532,0.4203,38.7700,76,95,18968
2.2874,0.4154,38.9300,76,95,18972
2.2776,0.4497,39.0000,76,95,18975
2.3216,0.4203,38.8400,76,95,18978
2.3265,0.4154,38.9300,76,95,18981
2.3851,0.4203,38.7700,76,95,18985
2.4389,0.4301,38.8100,76,95,18990
2.3949,0.4154,38.9000,76,95,18993
2.3949,0.4203,38.9000,76,95,18997
2.4340,0.4203,38.9300,76,95,19000
2.4291,0.4154,38.9300,76,95,19003
2.4682,0.4301,38.7100,76,95,19006
2.3998,0.4203,38.7100,76,95,19010
2.3363,0.4154,38.9300,76,95,19013
2.3118,0.4203,38.9000,76,95,19016
2.2630,0.4448,38.9600,76,95,19019
2.2825,0.4301,38.7100,76,95,19023
2.2092,0.4203,38.8700,76,95,19026
2.1554,0.4301,39.0000,76,95,19030
2.1408,0.4252,38.8700,76,95,19033
2.0870,0.4154,38.9300,76,95,19037
2.1017,0.4252,38.7400,76,95,19040
2.0186,0.4106,38.9000,76,95,19043
1.9941,0.4203,38.9000,76,95,19046
1.9648,0.4252,38.8400,76,95,19050
1.9062,0.4154,38.4000,76,95,19053
1.9159,0.4252,38.7100,76,95,19056
1.8671,0.4252,38.8400,76,95,19059
1.8280,0.4154,38.9600,76,95,19063
1.8182,0.4203,38.9000,76,95,19066
1.7693,0.4154,38.9300,76,95,19069
1.7742,0.4301,38.7100,76,95,19073
1.7253,0.4399,38.8700,76,95,19077
1.6960,0.4154,38.3300,76,95,19080
1.7009,0.4301,38.8700,76,95,19083
1.6667,0.4203,38.9300,76,95,19086
1.6911,0.4252,38.7700,76,95,19090
1.6471,0.4106,38.9600,76,95,19093
1.6422,0.4057,38.9600,76,95,19096
1.6373,0.4350,38.8700,76,95,19099
1.6080,0.4154,38.9000,76,95,19103
1.6276,0.4301,38.7100,76,95,19106
1.6227,0.4203,38.8400,76,95,19109
1.6129,0.4106,38.9600,76,95,19112
1.6227,0.4350,38.7400,76,95,19117
1.5934,0.4154,38.9300,76,95,19120
1.6129,0.4301,38.7100,76,95,19123
1.5836,0.4203,38.9000,76,95,19126
1.5738,0.4154,38.9600,76,95,19130
1.5934,0.4252,38.8700,76,95,19133
1.5836,0.4154,38.9600,76,95,19136
1.6471,0.4301,38.7400,76,95,19139
1.5885,0.4203,38.9600,76,95,19143
1.5982,0.4154,38.9600,76,95,19146
1.6276,0.4252,38.8700,76,95,19149
1.6276,0.4154,38.9300,76,95,19152
1.6667,0.4301,38.7100,76,95,19156
1.6618,0.4154,38.8700,76,95,19160
1.6569,0.4154,38.9600,76,95,19163
1.6764,0.4203,38.9000,76,95,19166
1.6813,0.4154,38.9300,76,95,19170
1.7351,0.4301,38.8100,76,95,19173
1.7302,0.4203,38.9000,76,95,19176
1.7302,0.4154,38.9600,76,95,19179
1.7351,0.4252,38.9000,76,95,19183
1.7351,0.4301,38.9600,76,95,19186
1.7791,0.4252,38.7400,76,95,19189
1.7546,0.4154,38.8100,76,95,19192
1.7644,0.4154,38.9300,76,95,19196
1.7889,0.4057,38.8700,76,95,19200
1.7693,0.4203,38.9300,76,95,19203
1.8084,0.4252,38.7100,76,95,19206
1.7986,0.4203,38.8400,76,95,19210
1.7937,0.4203,38.9300,76,95,19213
1.8231,0.4301,38.9000,76,95,19216
1.8182,0.4154,39.0000,76,95,19219
1.8573,0.4301,38.7400,76,95,19223
1.8524,0.4154,38.8700,76,95,19226
1.8622,0.4154,38.9600,76,95,19229
1.8915,0.4252,38.8700,76,95,19232
1.9110,0.4203,38.9300,76,95,19236
1.9013,0.4252,38.7400,76,95,19239
1.8719,0.4154,38.9300,76,95,19243
1.8817,0.4154,38.9600,76,95,19246
1.9110,0.4252,38.9300,76,95,19250
1.8622,0.4203,38.9300,76,95,19253
1.8817,0.4252,38.7400,76,95,19256
1.8573,0.4154,38.8700,76,95,19259
1.8475,0.4106,38.9300,76,95,19263
1.8573,0.4252,38.8700,76,95,19266
1.8426,0.4154,38.8400,76,95,19269
1.8768,0.4252,38.7400,76,95,19272
1.8524,0.4154,38.9000,76,95,19276
1.8426,0.4203,38.9300,76,95,19279
1.8622,0.4203,38.3600,76,95,19282
1.8475,0.4154,38.9300,76,95,19286
1.8768,0.4203,38.7400,76,95,19290
1.8475,0.4448,38.9600,76,95,19293
1.8524,0.4154,38.8100,76,95,19296
1.8866,0.4252,38.8700,76,95,19299
1.8768,0.4154,38.9600,76,95,19303
1.9062,0.4301,38.7400,76,95,19306
1.8817,0.4203,38.8100,76,95,19309
1.8768,0.4154,38.9300,76,95,19312
1.9110,0.4203,38.8700,76,95,19316
1.9013,0.4643,38.9300,76,95,19319
1.9404,0.4203,38.7400,76,95,19322
1.9355,0.4154,38.8700,76,95,19325
1.9697,0.4203,38.9300,76,95,19330
1.9697,0.4252,38.8100,76,95,19333
1.9746,0.4154,38.9300,76,95,19336
2.0137,0.4203,38.7700,76,95,19339
2.0088,0.4203,38.9300,76,95,19343
2.0186,0.4154,39.0000,76,95,19346
2.0381,0.4252,38.8400,76,95,19349
2.0186,0.4106,38.9300,76,95,19352
2.0186,0.4203,38.5200,76,95,19356
1.9746,0.4154,38.8700,76,95,19359
1.9648,0.4203,38.9300,76,95,19362
1.9795,0.4154,38.8400,76,95,19365
1.9501,0.4106,38.9300,76,95,19369
1.9648,0.4203,38.7700,76,95,19373
1.9648,0.4154,38.9000,76,95,19376
1.9208,0.4203,39.0000,76,95,19379
1.9208,0.4203,38.8700,76,95,19383
1.9110,0.4448,38.9300,76,95,19386
1.9306,0.4203,38.8100,76,95,19389
1.9013,0.4154,38.9300,76,95,19392
1.8964,0.4203,38.9300,76,95,19396
1.9013,0.4350,38.8700,76,95,19399
1.8719,0.4154,39.0900,76,95,19402
1.8768,0.4203,38.8100,76,95,19405
1.8426,0.4350,38.8700,76,95,19409
1.8280,0.4154,38.8700,76,95,19412
1.8475,0.4252,38.8700,76,95,19416
1.8280,0.4057,38.9300,76,95,19419
1.8524,0.4252,38.7700,76,95,19423
1.8231,0.4154,38.9000,76,95,19426
1.8182,0.4154,38.9300,76,95,19429
1.8328,0.4203,38.8700,76,95,19432
1.8182,0.4154,38.9300,76,95,19436
1.8328,0.4203,38.7700,76,95,19439
1.7937,0.4154,38.8100,76,95,19442
1.7937,0.4154,38.9600,76,95,19445
1.8133,0.4154,38.8400,76,95,19449
1.8328,0.4057,38.9000,76,95,19452
1.8280,0.4203,38.7700,76,95,19456
1.8084,0.4154,38.9000,76,95,19459
1.8231,0.4203,38.9300,76,95,19463
1.8573,0.4301,38.8700,76,95,19466
1.8524,0.4154,38.9600,76,95,19469
1.8866,0.4154,38.8100,76,95,19472
1.8719,0.4106,38.9000,76,95,19476
1.8817,0.4154,38.9600,76,95,19479
1.9110,0.4203,38.8700,76,95,19482
1.9208,0.4057,38.9600,76,95,19485
1.9453,0.4203,38.8400,76,95,19489
1.9110,0.4154,38.9600,76,95,19492
1.9062,0.4154,38.9300,76,95,19495
1.9501,0.4106,38.8400,76,95,19499
1.9892,0.4203,39.0000,76,95,19503
2.1017,0.4203,38.8400,76,95,19506
2.1994,0.4057,38.9300,76,95,19509
2.3167,0.4154,39.0900,76,95,19512
2.5415,0.4252,38.8700,76,95,19516
2.7322,0.4154,38.9300,76,95,19519
2.9521,0.4448,38.8100,76,95,19522
3.0254,0.4154,38.9000,76,95,19525
3.0254,0.4154,38.9300,76,95,19529
2.9326,0.4057,38.8700,76,95,19532
2.6588,0.4154,38.9300,76,95,19535
2.4194,0.4252,38.8400,76,95,19538
2.0968,0.4154,38.9300,76,95,19543
1.8622,0.4203,38.9300,76,95,19546
1.7498,0.4252,38.7700,76,95,19549
1.6667,0.4154,38.8400,76,95,19552
1.7009,0.4252,38.8400,76,95,19556
1.7155,0.4154,38.9000,76,95,19559
1.7693,0.4154,38.9300,76,95,19562
1.8280,0.4252,38.8400,76,95,19565
1.8280,0.4154,38.9300,76,95,19569
1.8622,0.4301,38.8100,76,95,19572
1.8426,0.4448,38.9600,76,95,19575
1.8475,0.4154,39.0300,76,95,19578
1.8719,0.4154,38.8700,76,95,19582
1.9062,0.4203,38.9300,76,95,19586
1.9013,0.4252,38.8700,76,95,19589
1.8768,0.4154,38.7100,76,95,19592
1.8817,0.4154,38.9600,76,95,19596
1.9110,0.4301,38.8400,76,94,19599
1.8524,0.4252,38.8700,76,94,19603
1.8426,0.4154,38.9300,76,94,19607
1.8719,0.4203,38.7400,76,94,19610
1.8573,0.4154,38.9000,76,94,19613
1.8573,0.4154,38.9300,76,94,19616
1.9062,0.4203,38.8700,76,94,19620
1.8964,0.4154,39.0600,76,94,19623
1.9453,0.4301,38.7400,76,94,19627
1.9355,0.4154,38.9300,76,94,19630
1.9453,0.4203,38.9300,76,94,19634
1.9697,0.4203,38.9300,76,94,19637
1.9697,0.4154,38.9600,76,94,19640
2.0039,0.4252,38.7400,76,94,19643
1.9892,0.4154,38.9000,76,94,19647
1.9892,0.4154,38.9600,76,94,19650
2.0137,0.4203,38.8700,76,94,19653
2.0039,0.4154,38.9300,76,94,19656
2.0381,0.4203,38.7700,76,94,19660
2.0235,0.4154,38.9000,76,94,19663
2.0332,0.4154,38.9600,76,94,19666
2.0528,0.4203,38.8700,76,94,19670
2.0283,0.4154,39.0300,76,94,19674
2.0430,0.4203,38.8100,76,94,19677
2.0186,0.4154,38.9300,76,94,19680
2.0137,0.4154,38.9600,76,94,19683
2.0381,0.4252,38.8700,76,94,19687
2.0137,0.4106,38.9300,76,94,19690
2.0235,0.4203,38.7700,76,94,19693
1.9941,0.4154,38.9000,76,94,19696
1.9892,0.4106,38.9300,76,94,19700
2.0088,0.4301,38.8700,76,94,19703
1.9844,0.4154,38.9300,76,94,19706
2.0283,0.4154,38.8400,76,94,19709
2.0088,0.4203,38.9300,76,94,19714
2.0186,0.4154,38.9600,76,94,19717
2.0772,0.4154,38.8700,76,94,19720
2.0626,0.4154,38.9300,76,94,19723
2.1017,0.4252,38.8700,76,94,19726
2.1017,0.4203,38.9600,76,94,19730
2.0968,0.4154,39.0000,76,94,19733
2.1310,0.4252,38.8400,76,94,19736
2.1065,0.4203,38.9300,76,94,19739
2.1261,0.4252,38.2100,76,94,19743
2.0968,0.4154,38.9300,76,94,19746
2.1017,0.4252,38.9300,76,94,19749
2.1359,0.4252,38.8400,76,94,19752
2.1114,0.4154,38.9300,76,94,19757
2.1359,0.4301,38.8400,76,94,19760
2.0968,0.4106,38.9300,76,94,19763
2.0821,0.4154,38.9600,76,94,19766
2.0870,0.4203,38.9000,76,94,19770
2.0577,0.4154,38.8400,76,94,19773
2.0723,0.4203,38.8100,76,94,19776
2.0430,0.4154,38.9300,76,94,19779
2.0381,0.4154,38.9300,76,94,19783
2.0723,0.4252,38.7700,76,94,19786
2.0479,0.4203,38.9300,76,94,19789
2.0674,0.4350,38.7700,76,94,19792
2.0528,0.4154,38.9300,76,94,19796
2.0528,0.4252,38.9600,76,94,19800
2.0870,0.4252,38.8400,76,94,19803
2.0626,0.4154,38.9300,76,94,19806
2.0968,0.4203,38.8100,76,94,19810
2.0919,0.4154,38.8700,76,94,19813
2.1114,0.4154,38.9600,76,94,19816
2.1505,0.4252,38.8700,76,94,19819
2.1457,0.4203,38.9000,76,94,19823
2.1652,0.4203,38.8400,76,94,19826
2.1359,0.4154,38.9600,76,94,19829
2.1408,0.4154,38.9300,76,94,19832
2.1799,0.4252,38.7700,76,94,19836
2.1505,0.4154,39.0600,76,94,19840
2.1750,0.4203,38.8400,76,94,19843
2.1554,0.4154,39.0600,76,94,19846
2.1701,0.4154,38.9300,76,94,19850
2.2141,0.4301,38.8100,76,94,19853
2.1848,0.4203,38.9600,76,94,19856
2.1945,0.4203,38.5800,76,94,19859
2.1652,0.4154,38.9300,76,94,19863
2.1603,0.4154,38.9300,76,94,19866
2.1896,0.4497,38.8400,76,94,19869
2.1750,0.4203,38.8100,76,94,19872
2.2239,0.4057,38.8400,76,94,19876
2.1799,0.4154,38.9300,76,94,19879
2.1799,0.4154,38.9600,76,94,19883
2.2239,0.4252,38.8400,76,94,19886
2.1994,0.4203,38.9300,76,94,19890
2.2287,0.4057,38.8400,76,94,19893
2.2092,0.4203,38.9300,76,94,19896
2.2141,0.4203,38.9300,76,94,19899
2.2532,0.4252,38.8100,76,94,19903
2.2190,0.4057,38.9000,76,94,19906
2.2239,0.4203,38.8400,76,94,19909
2.2092,0.4154,38.9300,76,94,19912
2.2141,0.4154,38.9600,76,94,19916
2.2483,0.4252,38.8700,76,94,19919
2.2336,0.4203,39.0000,76,94,19922
2.2434,0.4203,38.8400,76,94,19926
2.2630,0.4106,38.9300,76,94,19930
2.2434,0.4154,38.9600,76,94,19933
2.2825,0.4252,38.8100,76,94,19936
2.2581,0.4203,38.9300,76,94,19939
2.2581,0.4252,38.8400,76,94,19943
2.2336,0.4154,38.9300,76,94,19946
2.2239,0.4154,38.9600,76,94,19949
2.2630,0.4252,38.8100,76,94,19952
2.2190,0.4203,38.9000,76,94,19956
2.2141,0.4154,38.5800,76,94,19959
2.1994,0.4154,38.9300,76,94,19962
2.1994,0.4154,38.9600,76,94,19965
2.2825,0.4301,38.8400,76,94,19970
2.2385,0.4399,38.9000,76,94,19973
2.2385,0.4154,38.8700,76,94,19976
2.2239,0.4154,38.9300,76,94,19979
2.2434,0.4203,38.9300,76,94,19983
2.2630,0.4545,38.7400,76,94,19986
2.2385,0.4203,38.8700,76,94,19989
2.2385,0.4057,38.8400,76,94,19992
2.2190,0.4106,38.9300,76,94,19996
2.2190,0.4154,39.0300,76,94,19999
2.2727,0.4301,38.8100,76,94,20002
2.2239,0.4154,38.9300,76,94,20005
2.2190,0.4154,38.9000,76,94,20009
2.2092,0.4203,38.9300,76,94,20013
2.2239,0.4057,38.9300,76,94,20016
2.2336,0.4301,38.8400,76,94,20019
2.2043,0.4203,38.9300,76,94,20022
2.1896,0.4106,38.8700,76,94,20026
2.1799,0.4154,38.9300,76,94,20029
2.1750,0.4154,38.9300,76,94,20032
2.2287,0.4301,38.7400,76,94,20035
2.1945,0.4301,38.9000,76,94,20039
2.1945,0.4154,38.8700,76,94,20042
2.2239,0.4154,38.9300,76,94,20045
2.1896,0.4301,38.9300,76,94,20048
2.2483,0.4350,38.8100,76,94,20052
2.1945,0.4203,38.9000,76,94,20056
2.1799,0.4154,38.9000,76,94,20059
2.1750,0.4154,38.9300,76,94,20062
2.1652,0.4154,38.9300,76,94,20066
2.2336,0.4350,38.7400,76,94,20069
2.1799,0.4252,38.8700,76,94,20072
2.1652,0.4106,38.9000,76,94,20075
2.1701,0.4154,38.9300,76,94,20079
2.1603,0.4106,38.9300,76,94,20082
2.2239,0.4350,38.6500,76,94,20085
2.1848,0.4252,38.9000,76,94,20088
2.1896,0.4106,38.9300,76,94,20092
2.1848,0.4497,38.9300,76,94,20096
2.1750,0.4154,38.8700,76,94,20099
2.2483,0.4252,38.7100,76,94,20102
2.2043,0.4203,38.8700,76,94,20106
2.1945,0.4301,38.9000,76,94,20109
2.2092,0.4203,38.9300,76,94,20112
2.2092,0.4154,38.9600,76,94,20115
2.2776,0.4594,38.7100,76,94,20119
2.2434,0.4203,38.8700,76,94,20122
2.2630,0.4057,38.9300,76,94,20125
2.2434,0.4203,38.9300,76,94,20128
2.2385,0.4154,38.8100,76,94,20132
2.3167,0.4399,38.6800,76,94,20135
2.2825,0.4203,38.8700,76,94,20139
2.2874,0.4057,38.9000,76,94,20142
2.3069,0.4203,38.9300,76,94,20146
2.2972,0.4057,38.9300,76,94,20149
2.3558,0.4350,38.6800,76,94,20152
2.2825,0.4154,38.8100,76,94,20155
2.2581,0.4106,38.9300,76,94,20159
2.2287,0.4203,38.9000,76,94,20162
2.1994,0.4203,39.0000,76,94,20165
2.2532,0.4252,38.6800,76,94,20168
2.2385,0.4203,38.8700,76,94,20172
2.2043,0.4154,38.9600,76,94,20175
2.1994,0.4203,38.9300,76,94,20178
2.1799,0.4154,38.9300,76,94,20182
2.2141,0.4301,38.6500,76,94,20186
2.1505,0.4203,38.9000,76,94,20189
2.1114,0.4154,38.9300,76,94,20192
2.1017,0.4203,38.9000,76,94,20195
2.0723,0.4154,38.9300,76,94,20199
2.1114,0.4252,38.6800,76,94,20202
2.0528,0.4154,38.9000,76,94,20205
2.0430,0.4154,38.9000,76,94,20208
2.0577,0.4203,38.9300,76,94,20211
2.0577,0.4154,38.9600,76,94,20216
2.0723,0.4154,38.9300,76,94,20219
2.1457,0.4301,38.7400,76,94,20224
2.0968,0.4350,38.9000,76,94,20227
2.0870,0.4154,38.9000,76,94,20230
2.0821,0.4203,38.9300,76,94,20233
2.0772,0.4154,38.8700,76,94,20237
2.1408,0.4350,38.7700,76,94,20240
2.0968,0.4301,38.8700,76,94,20243
2.0919,0.4154,38.9000,76,94,20246
2.1065,0.4203,38.9300,76,94,20250
2.1065,0.4350,38.9000,76,94,20253
2.1750,0.4350,38.7400,76,94,20256
2.1261,0.4252,38.8700,76,94,20259
2.1114,0.4106,38.9000,76,94,20263
2.1114,0.4154,38.8700,76,94,20267
2.1065,0.4154,38.9300,76,94,20270
2.1750,0.4448,38.7100,76,94,20273
2.1310,0.4203,38.9000,76,94,20277
2.1212,0.4106,38.9000,76,94,20280
2.1652,0.4203,38.9300,76,94,20283
2.1994,0.4154,39.0000,76,94,20286
2.3314,0.4350,38.6800,76,94,20290
2.3705,0.4154,38.8700,76,94,20293
2.4976,0.4154,38.9000,76,94,20296
2.6882,0.4154,38.9300,76,94,20299
2.8592,0.4154,38.9600,76,94,20303
3.1183,0.4252,38.6800,76,94,20306
3.1965,0.4350,38.8700,76,94,20310
3.2111,0.4106,38.9600,76,94,20313
3.1085,0.4203,38.9300,76,94,20317
2.8592,0.4057,38.9600,76,94,20320
2.6442,0.4350,38.4900,76,94,20323
2.3069,0.4203,38.9000,76,94,20326
2.0577,0.4106,38.9300,76,94,20329
1.9159,0.4203,38.9300,76,94,20333
1.8524,0.4203,38.9600,76,94,20336
1.9013,0.4350,38.6500,76,94,20339
1.8964,0.4154,38.7700,76,94,20342
1.9550,0.4154,38.9600,76,94,20346
1.9941,0.4154,38.9300,76,94,20349
2.0235,0.4057,38.9300,76,94,20353
2.0528,0.4301,38.7100,76,94,20356
2.0186,0.4203,38.9300,76,94,20360
1.9990,0.4350,38.9600,76,94,20363
2.0088,0.4203,38.9600,76,94,20366
1.9990,0.4154,38.9600,76,94,20369
2.0577,0.4301,38.6500,76,94,20373
2.0332,0.4203,38.9300,76,94,20376
2.0332,0.4154,38.9600,76,94,20379
2.0577,0.4203,38.9000,76,94,20382
2.0528,0.4106,38.9300,76,94,20386
2.1017,0.4301,38.6800,76,94,20389
2.0528,0.4203,38.9000,76,94,20392
2.0577,0.4154,38.9600,76,94,20396
2.0674,0.4252,38.9300,76,94,20400
2.0528,0.4106,38.9300,76,94,20403
2.1017,0.4252,38.6800,76,94,20406
2.0919,0.4252,38.9300,76,94,20409
2.0723,0.4154,39.0000,76,94,20413
2.1017,0.4203,38.6500,76,94,20416
2.1114,0.4154,38.9300,76,94,20419
2.1457,0.4448,38.6800,76,94,20422
2.1212,0.4301,38.8700,76,94,20426
2.1163,0.4154,38.9600,76,94,20429
2.1505,0.4252,38.9300,76,94,20432
2.1408,0.4350,38.9600,76,94,20435
2.1994,0.4252,38.7400,76,94,20440
2.1652,0.4106,38.9300,76,94,20443
2.1701,0.4106,38.9300,76,94,20446
2.1848,0.4203,38.8700,76,94,20449
2.1750,0.4154,38.9600,76,94,20453
2.2336,0.4301,38.7100,76,94,20456
2.2092,0.4350,38.8700,76,94,20459
2.1994,0.4154,38.9300,76,94,20462
2.2287,0.4203,38.8700,76,94,20466
2.2239,0.4154,38.9600,76,94,20469
2.2727,0.4252,38.7100,76,94,20472
2.2483,0.4203,38.9300,76,94,20475
2.2385,0.4154,38.9300,76,94,20480
2.2630,0.4252,38.8700,76,94,20483
2.2630,0.4154,39.0300,76,94,20486
2.3314,0.4252,38.7100,76,94,20489
2.3069,0.4154,38.9600,76,94,20493
2.3265,0.4252,38.9300,76,94,20496
2.3607,0.4301,38.8400,76,94,20499
2.3558,0.4154,38.9300,76,94,20502
2.4291,0.4252,38.7400,76,94,20506
2.4047,0.4448,38.8700,76,94,20509
2.3949,0.4154,38.9600,76,94,20512
2.4194,0.4203,38.9000,76,94,20515
2.4047,0.4106,38.9300,76,94,20519
2.4536,0.4252,38.7400,76,94,20523
2.4340,0.4154,38.9000,76,94,20526
2.4291,0.4154,38.9300,76,94,20529
2.4585,0.4203,38.9300,76,94,20532
2.4487,0.4057,38.9300,76,94,20536
2.5024,0.4252,38.7100,76,94,20539
2.4682,0.4301,38.9300,76,94,20542
2.4829,0.4154,38.9300,76,94,20545
2.5220,0.4350,38.8400,76,94,20549
2.4927,0.4203,38.9300,76,94,20552
2.5367,0.4203,38.7400,76,94,20555
2.5171,0.4203,38.9000,76,94,20558
2.4976,0.4154,39.0000,76,94,20562
2.5269,0.4203,38.8700,76,94,20566
2.5122,0.4106,38.9600,76,94,20569
2.5367,0.4203,38.7400,76,94,20572
2.5024,0.4154,38.9000,76,94,20576
2.5122,0.4057,38.9300,76,94,20579
2.5122,0.4252,38.8400,76,94,20582
2.5024,0.4154,39.0000,76,94,20585
2.5367,0.4301,38.7700,76,94,20589
2.5122,0.4448,39.0000,76,94,20592
2.5220,0.4154,38.9300,76,94,20595
2.5709,0.4154,38.8400,76,94,20598
2.5415,0.4448,38.9300,76,94,20602
2.5806,0.4203,38.7700,76,94,20605
2.5513,0.4154,38.9000,76,94,20609
2.5611,0.4154,38.9600,76,94,20612
2.6051,0.4203,38.8700,76,94,20616
2.6002,0.4154,38.9300,76,94,20619
2.6442,0.4203,38.8100,76,94,20622
2.6197,0.4106,38.9300,76,94,20625
2.6393,0.4154,38.9600,76,94,20629
2.6735,0.4203,38.7100,76,94,20632
2.6833,0.4106,38.9300,76,94,20635
2.7419,0.4203,38.8400,76,94,20638
2.7322,0.4154,38.9300,76,94,20642
2.7615,0.4106,38.9300,76,94,20645
2.8299,0.4252,38.8400,76,94,20648
2.8299,0.4154,38.9300,76,94,20652
2.8983,0.4203,38.8100,76,94,20656
2.8837,0.4106,38.9000,76,94,20659
2.9179,0.4154,38.9600,76,94,20662
2.9863,0.4203,39.0600,76,94,20665
2.9912,0.4154,38.9300,76,94,20669
3.0645,0.4448,38.8700,76,94,20672
3.0547,0.4154,38.9300,76,94,20675
3.1036,0.4154,38.9300,76,94,20678
3.1623,0.4203,38.8700,76,94,20682
3.2014,0.4154,38.8700,76,94,20685
3.2845,0.4252,38.8400,76,94,20688
3.2845,0.4154,38.9300,76,94,20691
3.3382,0.4350,38.9300,76,94,20696
3.4262,0.4252,38.7700,76,94,20699
3.3920,0.4154,38.9300,76,94,20702
3.4457,0.4301,38.8400,76,94,20705
3.3871,0.4154,38.9600,76,94,20709
3.3822,0.4154,38.9300,76,94,20712
3.4066,0.4252,38.8700,76,94,20715
3.3431,0.4203,38.9300,76,94,20718
3.3529,0.4252,38.8700,76,94,20722
3.2747,0.4154,38.9600,76,94,20725
3.2649,0.4057,38.9300,76,94,20728
3.2258,0.4154,38.8700,76,94,20731
3.1867,0.4154,38.9300,76,94,20736
3.1965,0.4252,38.8400,76,94,20739
3.1134,0.4057,38.9300,76,94,20742
3.0890,0.4448,39.0000,76,94,20745
3.1134,0.4252,38.8400,76,94,20749
3.0596,0.4154,38.9600,76,94,20752
3.0694,0.4203,38.8400,76,94,20755
3.0108,0.4154,38.9000,76,94,20758
3.0010,0.4106,38.9300,76,94,20761
2.9912,0.4252,38.8100,76,94,20765
2.9228,0.4154,38.9300,76,94,20768
2.9179,0.4154,38.8100,76,94,20771
2.8543,0.4154,39.0000,76,94,20774
2.8201,0.4154,38.9600,76,94,20779
2.8152,0.4203,38.9000,76,94,20782
2.7713,0.4154,38.9300,76,94,20785
2.7615,0.4203,38.8100,76,94,20788
2.6979,0.4154,38.9300,76,94,20792
2.6833,0.4203,38.9300,76,94,20795
2.6931,0.4252,38.8100,76,94,20798
2.6295,0.4301,38.9000,76,94,20801
2.6344,0.4203,38.8100,76,94,20805
2.5904,0.4154,38.9300,76,94,20808
2.5709,0.4154,38.9600,76,94,20811
2.5806,0.4252,38.8100,76,94,20814
2.5171,0.4301,38.9300,76,94,20818
2.5024,0.4203,38.8400,76,94,20822
2.4340,0.4154,38.9300,76,94,20825
2.3607,0.4154,38.8700,76,94,20830
2.3509,0.4154,38.9300,76,94,20833
2.3607,0.4497,38.8400,76,94,20836
2.3021,0.4154,38.9600,76,94,20840
2.3167,0.4154,38.8400,76,94,20843
2.2678,0.4106,38.9000,76,94,20846
2.2483,0.4154,38.9300,76,94,20849
2.2483,0.4203,38.8400,76,94,20853
2.2092,0.4154,38.9300,76,94,20856
2.2092,0.4301,38.8400,76,94,20859
2.1652,0.4106,39.0000,76,94,20862
2.1505,0.4057,38.9300,76,94,20867
2.1505,0.4154,38.8700,76,94,20870
2.1310,0.4154,38.9300,76,94,20873
2.1408,0.4057,38.8400,76,94,20876
2.0919,0.4154,38.9300,76,94,20880
2.0723,0.4154,38.8700,76,94,20883
2.0919,0.4252,38.8400,76,94,20886
2.0577,0.4154,38.9300,76,94,20889
2.0723,0.4301,38.8100,76,94,20892
2.0577,0.4106,38.9000,76,94,20896
2.0723,0.4301,39.0000,76,94,20899
2.1065,0.4252,38.8400,76,94,20902
2.0870,0.4154,38.9300,76,94,20905
2.1065,0.4252,38.8100,76,94,20910
2.0772,0.4154,38.9600,76,94,20913
2.0723,0.4154,38.9300,76,94,20916
2.0821,0.4545,38.8700,76,94,20919
2.0723,0.4154,39.0000,76,94,20923
2.0870,0.4301,38.8100,76,94,20926
2.0577,0.4154,38.9000,76,94,20929
2.0577,0.4154,38.9300,76,94,20932
2.0723,0.4350,38.8100,76,94,20936
2.0235,0.4252,38.9000,76,94,20939
2.0137,0.4203,38.8100,76,94,20942
1.9648,0.4350,38.9300,76,94,20945
1.9453,0.4154,38.9600,76,94,20950
1.9648,0.4252,38.8100,76,94,20953
1.9550,0.4203,38.9000,76,94,20956
1.9404,0.4203,38.8400,76,94,20959
1.9110,0.4154,38.9600,76,94,20963
1.8964,0.4154,38.9600,76,94,20966
1.8964,0.4203,38.8700,76,94,20969
1.8573,0.4154,38.9600,76,94,20972
1.8524,0.4203,38.8400,76,94,20976
1.8182,0.4154,38.9300,76,94,20979
1.8035,0.4057,38.9300,76,94,20982
1.8133,0.4252,38.8400,76,94,20985
1.7693,0.4154,38.8400,76,94,20989
1.7595,0.4203,38.8400,76,94,20993
1.7204,0.4057,38.9300,76,94,20996
1.7058,0.4154,38.9600,76,94,20999
1.7253,0.4252,38.8400,76,94,21003
1.7058,0.4154,38.9000,76,94,21006
1.7204,0.4448,38.8400,76,94,21009
1.7009,0.4154,38.8700,76,94,21012
1.7155,0.4154,38.8700,76,94,21016
1.7302,0.4252,38.8700,76,94,21019
1.7155,0.4203,38.9000,76,94,21022
1.7302,0.4203,38.8400,76,94,21025
1.7058,0.4154,38.9300,76,94,21029
1.7058,0.4154,38.9300,76,94,21032
1.7449,0.4252,38.7700,76,94,21036
1.7351,0.4154,38.9300,76,94,21039
1.7498,0.4203,38.8400,76,94,21043
1.7253,0.4154,38.9600,76,94,21046
1.7302,0.4154,38.9600,76,94,21049
1.7498,0.4252,38.8100,76,94,21052
1.7351,0.4154,38.9300,76,94,21056
1.7498,0.4203,38.8700,76,94,21059
1.7302,0.4154,38.9600,76,94,21062
1.7302,0.4154,38.9300,76,94,21065
1.7546,0.4203,38.8400,76,94,21069
1.7400,0.4154,38.9000,76,94,21072
1.7595,0.4203,38.8400,76,94,21075
1.7595,0.4154,38.9300,76,94,21079
1.8035,0.4154,38.9300,76,94,21083
1.9110,0.4252,38.7700,76,94,21086
1.9599,0.4154,39.0000,76,94,21089
2.0821,0.4154,38.8400,76,94,21092
2.1994,0.4154,38.9000,76,94,21096
2.3851,0.4154,38.9300,76,94,21099
2.6002,0.4252,38.8100,76,94,21102
2.7370,0.4154,38.9300,76,94,21105
2.8055,0.4203,38.8400,76,94,21109
2.7322,0.4154,38.9300,76,94,21112
2.5660,0.4154,38.9600,76,94,21115
2.3705,0.4252,38.8700,76,94,21118
2.0968,0.4203,39.0300,76,94,21123
1.8817,0.4203,38.8700,76,94,21126
1.7155,0.4154,38.9300,76,94,21129
1.5934,0.4154,38.9000,76,94,21132
1.6031,0.4252,38.6800,76,94,21136
1.5982,0.4154,38.9300,76,94,21139
1.6569,0.4203,38.8400,76,94,21142
1.6960,0.4301,39.0000,76,94,21145
1.7302,0.4154,38.9600,76,94,21149
1.7840,0.4350,38.8100,76,94,21152
1.7546,0.4203,38.2700,76,94,21155
1.7546,0.4154,38.8700,76,94,21158
1.7351,0.4203,38.9300,76,94,21163
1.7253,0.4106,38.9300,76,94,21166
1.7595,0.4252,38.8400,76,94,21169
1.7400,0.4154,38.9300,76,94,21172
1.7449,0.4203,38.8400,76,94,21176
1.7400,0.4106,38.9000,76,94,21179
1.7400,0.4154,38.9300,76,94,21182
1.7791,0.4301,38.7700,76,94,21185
1.7644,0.4203,38.9000,76,94,21189
1.7840,0.4154,38.8400,76,94,21192
1.7889,0.4154,38.9300,76,94,21195
1.7986,0.4154,38.9300,76,94,21198
1.8475,0.4252,38.7700,76,94,21202
1.8231,0.4203,38.9000,76,94,21206
1.8280,0.4106,38.8700,76,94,21209
1.8377,0.4154,38.8700,76,94,21212
1.8475,0.4154,38.9300,76,94,21216
1.8964,0.4301,38.8100,76,94,21219
1.8866,0.4203,38.9000,76,94,21222
1.8768,0.4154,38.9600,76,94,21225
1.8817,0.4154,39.0000,76,94,21229
1.8915,0.4057,38.9300,76,94,21232
1.9355,0.4350,38.7700,76,94,21235
1.9062,0.4203,38.9000,76,94,21238
1.9159,0.4154,38.8400,76,94,21242
1.9208,0.4057,38.9300,76,94,21245
1.9110,0.4154,38.9300,76,94,21249
1.9648,0.4350,38.8100,76,94,21252
1.9355,0.4203,38.9000,76,94,21256
1.9404,0.4154,38.8700,76,94,21259
1.9599,0.4154,38.9300,76,94,21262
1.9795,0.4154,38.9300,76,94,21265
2.0528,0.4350,38.7700,76,94,21269
2.0283,0.4203,39.0300,76,94,21272
2.0283,0.4154,38.8700,76,94,21275
2.0381,0.4154,38.9300,76,94,21278
2.0381,0.4154,38.9600,76,94,21281
2.1065,0.4350,38.8100,76,94,21285
2.0723,0.4203,38.9000,76,94,21288
2.0723,0.4106,38.9000,76,94,21292
2.1017,0.4154,38.9300,76,94,21295
2.1163,0.4106,38.9600,76,94,21299
2.1945,0.4350,38.8100,76,94,21302
2.1603,0.4203,38.9000,76,94,21305
2.1554,0.4154,38.9000,76,94,21308
2.1799,0.4154,39.0300,76,94,21312
2.1896,0.4154,39.0000,76,94,21315
2.2727,0.4399,38.7100,76,94,21318
2.2336,0.4203,38.9000,76,94,21321
2.2336,0.4106,38.9000,76,94,21325
2.2630,0.4057,38.9300,76,94,21328
2.2727,0.4203,38.9600,76,94,21331
2.3509,0.4350,38.7100,76,94,21335
2.3167,0.4203,38.8700,76,94,21339
2.3069,0.4106,38.9000,76,94,21342
2.3167,0.4154,38.9300,76,94,21345
2.3021,0.4057,38.9300,76,94,21348
2.3607,0.4301,38.6200,76,94,21352
2.3069,0.4154,38.8700,76,94,21355
2.3069,0.4057,38.9300,76,94,21358
2.3265,0.4106,38.9000,76,94,21361
2.3314,0.4154,39.0000,76,94,21365
2.3998,0.4252,38.6500,76,94,21368
2.3558,0.4203,38.8700,76,94,21371
2.3363,0.4154,39.0300,76,94,21374
2.3460,0.4154,38.9300,76,94,21379
2.3509,0.4154,38.9600,76,94,21382
2.3998,0.4301,38.6200,76,94,21385
2.3558,0.4154,38.8700,76,94,21388
2.3460,0.4154,38.9600,76,94,21392
2.3558,0.4203,38.9000,76,94,21395
2.3460,0.4154,38.6200,76,94,21398
2.4047,0.4301,38.6800,76,94,21401
2.3558,0.4057,38.9000,76,94,21405
2.3509,0.4203,38.9000,76,94,21408
2.3705,0.4203,38.9000,76,94,21411
2.3412,0.4106,38.9300,76,94,21414
2.3900,0.4252,38.8100,76,94,21417
2.3558,0.4203,38.8400,76,94,21422
2.3265,0.4497,39.0000,76,94,21425
2.3363,0.4203,38.9000,76,94,21428
2.3265,0.4154,38.9000,76,94,21431
2.3900,0.4448,38.7400,76,94,21435
2.4145,0.4350,38.7700,76,94,21439
2.3656,0.4399,38.9000,76,94,21443
2.3558,0.4106,38.9000,76,94,21446
2.3949,0.4203,38.9300,76,94,21449
2.3656,0.4106,38.9600,76,94,21452
2.4487,0.4350,38.7400,76,94,21456
2.4096,0.4057,38.8400,76,94,21459
2.3900,0.4106,39.0900,76,94,21463
2.3949,0.4154,38.9300,76,94,21466
2.3998,0.4106,38.9300,76,94,21470
2.4682,0.4350,38.2100,76,94,21473
2.4242,0.4154,38.8700,76,94,21476
2.4145,0.4106,38.9000,76,94,21479
2.4047,0.4203,38.9000,76,94,21483
2.3851,0.4106,38.9600,76,94,21486
2.4585,0.4301,38.6800,76,94,21489
2.3803,0.4203,38.8700,76,94,21492
2.3705,0.4154,38.9300,76,94,21495
2.3851,0.4203,38.9300,76,94,21499
2.3705,0.4154,38.9300,76,94,21502
2.4389,0.4301,38.6500,76,94,21506
2.3998,0.4203,38.8700,76,94,21509
2.3754,0.4154,38.9000,76,94,21513
2.3851,0.4154,38.9600,76,94,21516
2.3803,0.4154,38.9300,76,94,21519
2.4291,0.4301,38.7400,76,94,21522
2.3803,0.4203,38.8700,76,94,21526
2.3607,0.4154,38.9600,76,94,21529
2.3705,0.4203,38.9000,76,94,21532
2.3558,0.4154,38.9300,76,94,21535
2.4340,0.4301,38.6800,76,94,21539
2.3656,0.4154,38.8700,76,94,21542
2.3460,0.4154,38.9300,76,94,21545
2.3705,0.4203,38.9000,76,94,21549
2.3656,0.4106,38.9300,76,94,21553
2.4145,0.4301,38.7400,76,94,21556
2.3754,0.4203,38.8400,76,94,21559
2.3558,0.4154,38.9300,76,94,21562
2.3558,0.4203,38.9300,76,94,21566
2.3460,0.4154,39.0000,76,94,21569
2.4145,0.4252,38.6800,76,94,21572
2.3754,0.4154,38.8700,76,94,21575
2.3607,0.4106,38.9600,76,94,21579
2.3803,0.4203,38.9300,76,94,21582
2.3754,0.4106,38.9300,76,94,21585
2.4096,0.4301,38.6800,76,94,21588
2.3607,0.4106,39.0900,76,94,21593
2.3900,0.4057,38.9300,76,94,21596
2.3949,0.4252,38.9000,76,94,21599
2.3607,0.4154,38.9600,76,94,21602
2.4145,0.4301,38.7100,76,94,21606
2.3705,0.4106,38.8700,76,94,21609
2.3460,0.4106,38.9300,76,94,21612
2.3607,0.4203,38.8700,76,94,21615
2.3460,0.4106,38.9300,76,94,21619
2.3949,0.4252,38.7100,76,94,21622
2.3656,0.4203,38.9000,76,94,21625
2.3607,0.4106,38.9300,76,94,21628
2.3705,0.4203,38.8700,76,94,21633
2.3900,0.4154,38.9300,76,94,21636
2.4096,0.4203,38.7400,76,94,21639
2.3656,0.4154,38.9600,76,94,21642
2.3656,0.4057,38.9300,76,94,21645
2.3900,0.4154,38.8700,76,94,21649
2.3705,0.4350,38.9600,76,94,21652
2.4194,0.4203,38.7100,76,94,21655
2.3851,0.4154,38.8700,76,94,21658
2.3705,0.4154,39.0300,76,94,21662
2.3851,0.4203,38.8700,76,94,21665
2.3851,0.4057,38.9300,76,94,21668
2.4096,0.4203,38.8400,76,94,21671
2.3803,0.4154,38.9000,76,94,21676
2.3851,0.4203,38.9300,76,94,21679
2.4194,0.4154,39.0600,76,94,21682
2.4194,0.4154,38.9300,76,94,21685
2.4585,0.4301,38.7700,76,94,21689
2.4291,0.4057,38.9300,76,94,21692
2.4340,0.4154,38.9000,76,94,21695
2.4682,0.4203,38.8400,76,94,21698
2.4585,0.4057,38.9300,76,94,21702
2.4878,0.4203,38.8100,76,94,21705
2.4780,0.4154,38.8700,76,94,21708
2.4878,0.4106,38.9600,76,94,21711
2.5171,0.4203,38.8700,76,94,21715
2.4976,0.4154,39.0900,76,94,21719
2.5367,0.4203,38.7400,76,94,21722
2.4927,0.4106,38.9000,76,94,21725
2.4829,0.4154,38.7100,76,94,21729
2.4829,0.4154,38.8400,76,94,21732
2.4389,0.4252,38.9600,76,94,21735
2.4487,0.4154,38.7700,76,94,21738
2.4047,0.4154,38.9600,76,94,21742
2.4047,0.4154,38.9300,76,94,21745
2.4291,0.4350,38.8700,76,94,21748
2.3998,0.4203,38.9300,76,94,21751
2.4291,0.4154,38.8100,76,94,21755
2.3900,0.4057,38.8700,76,94,21758
2.3705,0.4106,38.9300,76,94,21762
2.3754,0.4203,38.8700,76,94,21765
2.3509,0.4057,38.9600,76,94,21769
2.3558,0.4203,38.7700,76,94,21772
2.3069,0.4106,38.9300,76,94,21775
2.2972,0.4154,38.9300,76,94,21778
2.2972,0.4350,38.8400,76,94,21782
2.2825,0.4154,38.9300,76,94,21785
2.3069,0.4106,38.8400,76,94,21788
2.2630,0.4106,38.9300,76,94,21791
2.2630,0.4154,38.6200,76,94,21795
2.2923,0.4154,38.8400,76,94,21798
2.2630,0.4057,38.9000,76,94,21801
2.2923,0.4203,38.8100,76,94,21805
2.2678,0.4057,38.9000,76,94,21809
2.2825,0.4203,38.9300,76,94,21812
2.3265,0.4203,38.8400,76,94,21815
2.3118,0.4154,38.9300,76,94,21818
2.3558,0.4252,38.8400,76,94,21822
2.3167,0.4203,38.9600,76,94,21825
2.3167,0.4106,38.9300,76,94,21828
2.3363,0.4154,38.8700,76,94,21831
2.3363,0.4154,38.9300,76,94,21835
2.3705,0.4301,38.8400,76,94,21838
2.3412,0.4106,38.9000,76,94,21841
2.3509,0.4057,38.9600,76,94,21844
2.3949,0.4594,38.8100,76,94,21848
2.3656,0.4154,38.9600,76,94,21852
2.3998,0.4252,38.8400,76,94,21855
2.3656,0.4106,38.9300,76,94,21858
2.3656,0.4106,38.9300,76,94,21861
2.3900,0.4252,38.8400,76,94,21865
2.3607,0.4154,38.9000,76,94,21868
2.4047,0.4203,38.8100,76,94,21871
2.4585,0.4154,38.9300,76,94,21874
2.5073,0.4057,38.9300,76,94,21878
2.6197,0.4203,38.8700,76,94,21881
2.7175,0.4057,38.9300,76,94,21884
2.9081,0.4252,38.7700,76,94,21888
3.0694,0.4399,38.9300,76,94,21892
3.2502,0.4106,38.9600,76,94,21895
3.4848,0.4203,38.8100,76,94,21898
3.5533,0.4203,38.9300,76,94,21901
3.5679,0.4203,38.7400,76,94,21905
3.3529,0.4106,38.9300,76,94,21908
3.0645,0.4154,38.9300,76,94,21911
2.7957,0.4448,38.8400,76,94,21914
2.4878,0.4154,38.9300,76,94,21918
2.2972,0.4203,38.6500,76,94,21921
2.1603,0.4106,38.9000,76,94,21924
2.1163,0.4106,38.9600,76,94,21927
2.1505,0.4057,38.8400,76,94,21932
2.1701,0.4154,38.9000,76,94,21935
2.2190,0.4203,38.8400,76,94,21938
2.2190,0.4057,38.9300,76,94,21941
2.2385,0.4203,38.9600,76,94,21945
2.2874,0.4252,38.7700,76,94,21948
2.2630,0.4154,38.9300,76,94,21951
2.2727,0.4154,38.8400,76,94,21954
2.2434,0.4154,38.9600,76,94,21958
2.2336,0.4106,38.9300,76,94,21961
2.2532,0.4203,38.8400,76,94,21964
2.2190,0.4154,38.9600,76,94,21967
2.2287,0.4154,38.8400,76,94,21971
2.2239,0.4154,38.9300,76,94,21975
2.2190,0.4057,38.9600,76,94,21978
2.2532,0.4203,38.8700,76,94,21981
2.2287,0.4154,38.9300,76,94,21985
2.2483,0.4154,38.8100,76,94,21988
2.2336,0.4154,38.9300,76,94,21991
2.2385,0.4106,38.9600,76,94,21994
2.2874,0.4252,38.7700,76,94,21998
2.2581,0.4154,38.9300,76,94,22001
2.2630,0.4154,38.8400,76,94,22004
2.2434,0.4106,39.0000,76,94,22007
2.2581,0.4106,38.9300,76,94,22011
2.2776,0.4301,38.8100,76,94,22014
2.2483,0.4154,39.0900,76,94,22018
2.2532,0.4154,38.8400,76,94,22021
2.2825,0.4154,38.9300,76,94,22025
2.2581,0.4106,38.9300,76,94,22028
2.3069,0.4252,38.8400,76,94,22031
2.2825,0.4154,38.9300,76,94,22034
2.3021,0.4106,38.8400,76,94,22038
2.3021,0.4203,38.9300,76,94,22041
2.2923,0.4106,39.0900,76,94,22044
2.3412,0.4252,38.7700,75,94,22047
2.3167,0.4203,38.8700,75,94,22052
2.3069,0.4106,38.9300,75,94,22055
2.3460,0.4252,38.8700,75,94,22059
2.3265,0.4106,39.0300,75,94,22063
2.3363,0.4106,38.9600,75,94,22066
2.3607,0.4057,38.9000,75,94,22069
2.3509,0.4154,39.0000,75,94,22072
2.3851,0.4203,38.8100,75,94,22076
2.3607,0.4057,38.9600,75,94,22079
2.3754,0.4106,38.9600,75,94,22082
2.4242,0.4252,38.8100,75,94,22085
2.3998,0.4154,38.9300,75,94,22089
2.4340,0.4203,38.8100,75,94,22092
2.3998,0.4106,38.9000,75,94,22095
2.4047,0.4106,38.9000,75,94,22098
2.4389,0.4203,38.8700,75,94,22103
2.4096,0.4154,38.9300,75,94,22106
2.4242,0.4057,38.8100,75,94,22109
2.3705,0.4350,38.9000,75,94,22112
2.3656,0.4106,38.9600,75,94,22116
2.3900,0.4203,38.8700,75,94,22119
2.3656,0.4154,38.9300,75,94,22122
2.3754,0.4154,38.8400,75,94,22125
2.3460,0.3861,38.9600,75,94,22129
2.3363,0.4106,38.9300,75,94,22132
2.3705,0.4497,38.7700,75,94,22135
2.3412,0.4154,38.9000,75,94,22138
2.3851,0.4154,38.8400,75,94,22142
2.3314,0.4154,38.9300,75,94,22146
2.3216,0.4106,38.9000,75,94,22149
2.3412,0.4203,38.8400,75,94,22152
2.3069,0.4154,38.9300,75,94,22156
2.3167,0.4106,38.8400,75,94,22159
2.2923,0.4252,38.8700,75,94,22162
2.2972,0.4106,38.9300,75,94,22165
2.3314,0.4203,38.8700,75,94,22169
2.3069,0.4154,38.9000,75,94,22172
2.3069,0.4154,38.9300,75,94,22175
2.2825,0.4106,38.9300,75,94,22178
2.2874,0.4106,38.9600,75,94,22182
2.3216,0.4203,38.7700,75,94,22185
2.2825,0.4154,38.6200,75,94,22189
2.2923,0.4057,38.8400,75,94,22192
2.2727,0.4154,38.9000,75,94,22196
2.2678,0.4106,38.8400,75,94,22199
2.3021,0.4203,38.8400,75,94,22202
2.2678,0.4154,38.9000,75,94,22205
2.2727,0.4399,38.8400,75,94,22209
2.2483,0.4106,38.9300,75,94,22212
2.2434,0.4106,38.9300,75,94,22215
2.2776,0.4252,38.8400,75,94,22218
2.2581,0.4203,38.9000,75,94,22222
2.2727,0.4154,38.9000,75,94,22225
2.2630,0.4106,38.9300,75,94,22228
2.2874,0.4106,38.9300,75,94,22232
2.3118,0.4252,38.7700,75,94,22236
2.2727,0.4154,38.8700,75,94,22239
2.2727,0.4154,38.8400,75,94,22242
2.2678,0.4154,38.9300,75,94,22245
2.2532,0.4106,38.9300,75,94,22249
2.2972,0.4203,38.8700,75,94,22252
2.2776,0.4154,38.9300,75,94,22255
2.2972,0.4399,38.8400,75,94,22258
2.2923,0.4106,38.9000,75,94,22262
2.2874,0.4106,38.9300,75,94,22265
2.3265,0.4057,38.8400,75,94,22268
2.2874,0.4203,38.9000,75,94,22272
2.2776,0.4106,38.8700,75,94,22275
2.2678,0.4106,38.9300,75,94,22279
2.2678,0.4106,39.0000,75,94,22282
2.3167,0.4252,38.7700,75,94,22285
2.2972,0.4154,38.9300,75,94,22288
2.2923,0.4154,38.8400,75,94,22292
2.2825,0.4106,38.8700,75,94,22295
2.2776,0.4106,38.9600,75,94,22298
2.3265,0.4350,38.8100,75,94,22301
2.2972,0.4154,38.8700,75,94,22305
2.3021,0.4106,38.8700,75,94,22308
2.3118,0.4106,38.9300,75,94,22311
2.2923,0.4203,38.9300,75,94,22315
2.3412,0.4252,38.8700,75,94,22319
2.3021,0.4203,38.8700,75,94,22322
2.2776,0.4301,38.8700,75,94,22325
2.2776,0.4106,38.9000,75,94,22328
2.2825,0.4106,38.9600,75,94,22332
2.3412,0.4252,38.8100,75,94,22335
2.2972,0.4057,38.9000,75,94,22338
2.2923,0.4106,38.9000,75,94,22341
2.2972,0.4106,38.9000,75,94,22345
2.2972,0.4106,39.0900,75,94,22348
2.3705,0.4252,38.7400,75,94,22351
2.3265,0.4154,38.8700,75,94,22354
2.3118,0.4057,38.8700,75,94,22359
2.3167,0.4154,38.9300,75,94,22362
2.3069,0.4106,38.9300,75,94,22365
2.3754,0.4350,38.7400,75,94,22368
2.3314,0.4203,38.9300,75,94,22372
2.3069,0.4057,38.9000,75,94,22375
2.3069,0.4203,38.9300,75,94,22378
2.3021,0.4106,38.9300,75,94,22381
2.3656,0.4350,38.7400,75,94,22385
2.3167,0.4154,38.9300,75,94,22388
2.2874,0.4008,38.9000,75,94,22391
2.2874,0.4154,38.9300,75,94,22394
2.2874,0.4106,38.9300,75,94,22398
2.3412,0.4350,38.7400,75,94,22402
2.2874,0.4154,38.8400,75,94,22405
2.2825,0.4057,38.9000,75,94,22408
2.3021,0.4252,38.9000,75,94,22412
2.3069,0.4154,38.9600,75,94,22415
2.3754,0.4252,38.6800,75,94,22418
2.3265,0.4106,38.8400,75,94,22421
2.2972,0.4057,38.9000,75,94,22425
2.2972,0.4154,39.0000,75,94,22428
2.3069,0.4106,38.9300,75,94,22431
2.3460,0.4252,38.6200,75,94,22434
2.3069,0.4154,38.7400,75,94,22438
2.2923,0.4106,38.9300,75,94,22441
2.3021,0.4399,38.8700,75,94,22445
2.2972,0.4106,38.9300,75,94,22448
2.3460,0.4301,38.6800,75,94,22451
2.2874,0.4106,38.8700,75,94,22455
2.2825,0.4106,38.9600,75,94,22458
2.3216,0.4106,38.9000,75,94,22461
2.2874,0.4154,38.9600,75,94,22464
2.3460,0.4252,38.6800,75,94,22468
2.3069,0.4106,38.8400,75,94,22471
2.2923,0.4106,38.9600,75,94,22474
2.3118,0.4154,38.9300,75,94,22477
2.3021,0.4106,38.9300,75,94,22481
2.3754,0.4497,38.7400,75,94,22484
2.3363,0.4106,38.8400,75,94,22488
2.3412,0.3861,38.9600,75,94,22491
2.3803,0.4203,38.9300,75,94,22495
2.3558,0.4106,38.9300,75,94,22498
2.4145,0.4252,38.7100,75,94,22501
2.3607,0.4106,38.9000,75,94,22504
2.3705,0.4106,38.9000,75,94,22508
2.4096,0.4154,38.9300,75,94,22511
2.3998,0.4106,38.9300,75,94,22514
2.4633,0.4252,38.7400,75,94,22517
2.4340,0.4154,38.8700,75,94,22521
2.4096,0.4106,38.9300,75,94,22524
2.4242,0.4106,38.9000,75,94,22528
2.3998,0.4106,38.9600,75,94,22531
2.4242,0.4057,38.7100,75,94,22535
2.3607,0.4399,38.9000,75,94,22538
2.3412,0.4106,38.9300,75,94,22541
2.3754,0.4154,38.9000,75,94,22544
2.3314,0.4106,38.8400,75,94,22548
2.3705,0.4203,38.7100,75,94,22551
2.3069,0.4057,38.9300,75,94,22554
2.2874,0.4106,38.9600,75,94,22557
2.2923,0.4203,38.8700,75,94,22561
2.2532,0.4057,38.9300,75,94,22564
2.2874,0.4350,38.7100,75,94,22567
2.2532,0.4154,38.9000,75,94,22571
2.2190,0.4106,38.9300,75,94,22575
2.2581,0.4154,38.9000,75,94,22578
2.1994,0.4106,38.9300,75,94,22581
2.2385,0.4203,38.7400,75,94,22584
2.1896,0.4203,38.8700,75,94,22588
2.1750,0.4057,38.9300,75,94,22591
2.1799,0.4203,38.8400,75,94,22594
2.1603,0.4106,38.9600,75,94,22597
2.1945,0.4154,38.7400,75,94,22600
2.1603,0.4057,38.9300,75,94,22604
2.1652,0.4106,39.0000,75,94,22607
2.1994,0.4154,38.8700,75,94,22610
2.1994,0.4106,38.9300,75,94,22614
2.2239,0.4154,38.7700,75,94,22618
2.1994,0.4057,38.7700,75,94,22621
2.1945,0.4106,38.9300,75,94,22624
2.1994,0.4154,38.8700,75,94,22627
2.1848,0.4057,38.9000,75,94,22631
2.2190,0.4154,38.7700,75,94,22634
2.2141,0.4350,38.9000,75,94,22637
2.1994,0.4106,38.8400,75,94,22640
2.2239,0.4154,38.8700,75,94,22644
2.2190,0.4106,38.9300,75,94,22647
