ecg,gsr,temp,hr,spo2,timest
1.4272,0.2835,39.3200,67,96,181514
1.4321,0.2835,39.2500,67,96,181517
1.4516,0.2835,39.0900,67,96,181521
1.4321,0.2933,39.2200,67,96,181524
1.4516,0.2884,39.1200,67,96,181527
1.4223,0.2884,39.2200,67,96,181531
1.4272,0.2786,39.2800,67,96,181534
1.4467,0.2884,39.1200,67,96,181537
1.4418,0.2835,39.2500,67,96,181541
1.4614,0.2884,39.0300,67,96,181544
1.4321,0.2835,39.2200,67,96,181548
1.4418,0.2786,39.2800,67,96,181551
1.4663,0.2884,39.2200,67,96,181555
1.4663,0.2884,39.2200,67,96,181558
1.5249,0.2933,38.9600,67,96,181561
1.5103,0.3324,39.1900,67,96,181565
1.5103,0.2786,39.2500,67,96,181568
1.5396,0.2786,39.2200,67,96,181571
1.5249,0.2786,39.2500,67,96,181575
1.5836,0.2981,39.0600,67,96,181578
1.5591,0.2884,39.1900,67,96,181581
1.5591,0.2786,39.1600,67,96,181585
1.5640,0.2835,39.2500,67,96,181588
1.5738,0.2786,39.2200,67,96,181592
1.6325,0.2884,39.1200,67,96,181596
1.6276,0.2835,39.2200,67,96,181599
1.6520,0.2786,39.1200,67,96,181602
1.6227,0.2835,39.2800,67,96,181605
1.6129,0.2835,39.2500,67,96,181609
1.6373,0.2835,39.1600,67,96,181612
1.6325,0.2688,39.2500,67,96,181615
1.6618,0.2884,38.7100,67,96,181619
1.6227,0.2835,39.2500,67,96,181622
1.5982,0.2835,39.2500,67,96,181625
1.5836,0.2688,39.1900,67,96,181629
1.5494,0.2835,39.2200,67,96,181633
1.5787,0.2884,39.0300,67,96,181636
1.5152,0.2835,39.1200,67,96,181640
1.4907,0.2884,39.3200,67,96,181643
1.4907,0.2884,39.1900,67,96,181646
1.4663,0.2835,39.3200,67,96,181650
1.5054,0.2933,38.9600,67,96,181653
1.4614,0.2835,39.1900,67,96,181656
1.4761,0.2835,39.2800,67,96,181659
1.4761,0.2884,39.2500,67,96,181663
1.4516,0.2786,39.2500,67,96,181666
1.4761,0.3030,39.0300,67,96,181669
1.4370,0.3030,39.0900,67,96,181673
1.3685,0.2786,39.1900,67,96,181677
1.3099,0.2835,39.3200,67,96,181680
1.2659,0.2835,39.2500,67,96,181684
1.3050,0.3030,39.1600,67,96,181687
1.3832,0.2786,39.2500,67,96,181690
1.6325,0.2835,39.3200,67,96,181694
1.9648,0.2835,39.2500,67,96,181697
2.3656,0.2835,39.2500,67,96,181700
2.8055,0.2981,39.0900,67,96,181704
3.0987,0.2835,39.2200,67,96,181707
3.3871,0.2933,39.1600,67,96,181710
3.3578,0.2737,39.2200,67,96,181713
3.1378,0.2835,39.2500,67,96,181718
2.7810,0.2884,39.1600,67,96,181721
2.2923,0.2835,39.2500,67,96,181724
1.8719,0.2688,39.0600,67,96,181728
1.4809,0.2835,39.3200,67,96,181731
1.2757,0.2835,39.2500,67,96,181734
1.1975,0.2933,39.1600,67,96,181738
1.1584,0.2884,39.3200,67,96,181741
1.1975,0.2933,39.0000,67,96,181744
1.1926,0.2737,39.1900,67,96,181748
1.2366,0.2688,39.2500,67,96,181751
1.2757,0.3030,39.2500,67,96,181754
1.3441,0.2835,39.2500,67,96,181758
1.3587,0.2835,39.2500,67,96,181762
1.3978,0.3079,39.0900,67,96,181766
1.3881,0.2884,39.2200,67,96,181769
1.4076,0.2981,39.1200,67,96,181772
1.3930,0.2688,39.3200,67,96,181775
1.4076,0.2835,39.3200,67,96,181779
1.4370,0.2933,39.1900,67,96,181782
1.4370,0.2884,39.2200,67,96,181785
1.4761,0.2933,39.1200,67,96,181789
1.4516,0.2835,39.1900,67,96,181792
1.4565,0.2835,39.2500,67,96,181795
1.4809,0.2884,39.1200,67,96,181799
1.5152,0.2884,39.2500,67,96,181803
1.5249,0.2884,39.1600,67,96,181806
1.5054,0.2835,39.2500,67,96,181810
1.5152,0.2835,39.2500,67,96,181813
1.5249,0.2981,39.1900,67,96,181816
1.5396,0.2835,38.7400,67,96,181820
1.5934,0.3030,38.9600,67,96,181823
1.5689,0.2884,39.1900,67,96,181826
1.5787,0.2786,39.2500,67,96,181829
1.5885,0.2884,39.2200,67,96,181833
1.5934,0.3226,39.2500,67,96,181836
1.6618,0.3079,39.1200,67,96,181839
1.6520,0.3030,39.1600,67,96,181843
1.6667,0.2835,39.1900,67,96,181847
1.6716,0.2884,39.0300,67,96,181850
1.6764,0.2835,39.2500,67,96,181854
1.7155,0.2981,39.0600,67,96,181857
1.7155,0.2981,39.2200,67,96,181860
1.7400,0.2884,39.1200,67,96,181864
1.7302,0.3128,39.2500,67,96,181867
1.7449,0.2884,39.2500,67,96,181870
1.7693,0.2981,39.1600,67,96,181873
1.7595,0.2933,39.2500,67,96,181877
1.8084,0.2933,39.0900,67,96,181880
1.7889,0.2884,39.2500,67,96,181883
1.8133,0.2884,39.3800,67,96,181888
1.8768,0.2933,39.1900,67,96,181891
1.8377,0.3079,39.3200,67,96,181894
1.8964,0.2933,39.0300,67,96,181898
1.8964,0.2884,39.2200,67,96,181901
1.9110,0.2884,39.2500,67,96,181904
1.9550,0.2981,39.4100,67,96,181908
1.9453,0.2933,39.2500,67,96,181911
2.0088,0.2981,39.0000,67,96,181914
1.9746,0.2835,39.1200,67,96,181918
2.0088,0.2835,39.2500,67,96,181921
2.0332,0.2933,39.2200,67,96,181924
2.0430,0.2884,39.2500,67,96,181927
2.1212,0.2981,39.0000,67,96,181932
2.0723,0.2884,39.0900,67,96,181935
2.0626,0.2884,39.1900,67,96,181938
2.0626,0.2884,39.2500,67,96,181942
2.0626,0.2884,39.1200,67,96,181945
2.1457,0.3079,39.0900,67,96,181948
2.0479,0.2884,39.2200,67,96,181952
2.0332,0.2884,39.1600,67,96,181955
2.0088,0.2933,39.2500,67,96,181958
1.9501,0.2884,39.2500,67,96,181961
1.9355,0.2981,39.1600,67,96,181965
1.8524,0.2933,39.1900,67,96,181968
1.8084,0.2933,39.1200,67,96,181971
1.7253,0.2933,39.2500,67,96,181976
1.6618,0.2884,39.1900,67,96,181979
1.6227,0.2688,39.1900,67,96,181982
1.5543,0.2884,39.2800,67,96,181986
1.5200,0.2981,39.0900,67,96,181989
1.4467,0.2688,39.2200,67,96,181992
1.4125,0.2884,39.2800,67,96,181996
1.4076,0.2933,39.1200,67,96,181999
1.3685,0.2884,39.1900,67,96,182002
1.3832,0.2933,39.0300,67,96,182005
1.3441,0.2884,39.5100,67,96,182009
1.3343,0.2884,39.2500,67,96,182012
1.3245,0.2933,39.2500,67,96,182016
1.3294,0.2884,39.2800,67,96,182020
1.3636,0.3030,39.0600,67,96,182023
1.3441,0.3226,39.1600,67,96,182026
1.3441,0.2835,39.2500,67,96,182030
1.3441,0.2981,39.3200,67,96,182033
1.3441,0.2884,39.2500,67,96,182036
1.3930,0.3226,39.0300,67,96,182040
1.3636,0.2981,39.1900,67,96,182043
1.3832,0.2933,39.1600,67,96,182046
1.3930,0.2933,39.2500,67,96,182050
1.3978,0.3079,39.2500,67,96,182053
1.4321,0.2981,39.1200,67,96,182056
1.4272,0.2933,39.2500,67,96,182060
1.4614,0.2933,39.1200,67,96,182064
1.4614,0.2884,39.2200,67,96,182067
1.4809,0.2884,39.2500,67,96,182070
1.5005,0.3226,39.1600,67,96,182074
1.5054,0.2884,39.2500,67,96,182077
1.5396,0.2884,39.0900,67,96,182080
1.5298,0.2884,39.2500,67,96,182084
1.5445,0.2884,39.1900,67,96,182087
1.5836,0.3030,39.1200,67,96,182090
1.5494,0.2884,39.4400,67,96,182094
1.5836,0.2933,39.0300,67,96,182097
1.5738,0.2933,39.1200,67,96,182100
1.5738,0.2786,39.2800,67,96,182105
1.5982,0.2981,39.1600,67,96,182108
1.5982,0.2933,39.2500,67,96,182111
1.6178,0.3030,39.0600,67,96,182114
1.5787,0.2933,39.1600,67,96,182118
1.5934,0.2835,39.2800,67,96,182121
1.6080,0.2981,39.2200,67,96,182124
1.6178,0.2884,39.2500,67,96,182128
1.6716,0.3079,38.7700,67,96,182131
1.6422,0.2981,39.1600,67,96,182134
1.6373,0.2835,39.1200,67,96,182138
1.6373,0.2688,39.3200,67,96,182141
1.6373,0.2884,39.2500,67,96,182145
1.6667,0.3030,39.1600,67,96,182149
1.6373,0.2933,39.2200,67,96,182152
1.6520,0.2933,39.1200,67,96,182155
1.6373,0.3128,39.3200,67,96,182159
1.6520,0.2884,39.2500,67,96,182162
1.6862,0.3030,39.0300,67,96,182165
1.6667,0.2933,39.2500,67,96,182168
1.6911,0.2933,39.0900,67,96,182172
1.6569,0.2835,39.1900,67,96,182175
1.6618,0.2884,39.2500,67,96,182178
1.6813,0.2933,39.1600,67,96,182182
1.6716,0.2933,39.2500,67,96,182185
1.7058,0.2981,39.0600,67,96,182189
1.6813,0.2884,39.2200,67,96,182193
1.6911,0.2884,39.2200,67,96,182196
1.7204,0.2981,39.2200,67,96,182199
1.7155,0.2981,39.2800,67,96,182203
1.7791,0.3030,39.1200,67,96,182206
1.7546,0.2884,39.1600,67,96,182209
1.7546,0.2981,39.2200,67,96,182213
1.7742,0.3030,39.3200,67,96,182216
1.7840,0.2884,39.2800,67,96,182219
1.8573,0.3079,39.0300,67,96,182222
1.8182,0.2933,39.2200,67,96,182226
1.8133,0.2884,39.2800,67,96,182230
1.8035,0.2933,39.2500,67,96,182233
1.7937,0.2884,39.1900,67,96,182237
1.8426,0.2981,39.0600,67,96,182240
1.8182,0.2933,39.2500,67,96,182243
1.8328,0.2933,39.1200,67,96,182247
1.7986,0.2884,39.2500,67,96,182250
1.7742,0.2835,39.2500,67,96,182253
1.7693,0.2981,39.1900,67,96,182257
1.7351,0.3030,39.2200,67,96,182260
1.7498,0.2884,39.1200,67,96,182263
1.6960,0.2884,39.3200,67,96,182266
1.6911,0.2933,39.2500,67,96,182270
1.6911,0.2933,39.1600,67,96,182274
1.6667,0.3079,39.2500,67,96,182277
1.7009,0.2884,39.0600,67,96,182281
1.6716,0.2884,39.4800,67,96,182284
1.6813,0.2884,39.2500,67,96,182287
1.6764,0.2981,39.2800,67,96,182291
1.6618,0.2688,39.2500,67,96,182294
1.6960,0.2981,39.0000,67,96,182297
1.6569,0.2981,39.2200,67,96,182301
1.6080,0.2884,39.2800,67,96,182304
1.5543,0.2884,39.1900,67,96,182307
1.4956,0.2688,39.2500,67,96,182311
1.5445,0.3079,39.0000,67,96,182315
1.6178,0.2884,39.1200,67,96,182318
1.8377,0.2835,39.2200,67,96,182321
2.1945,0.2933,39.2200,67,96,182325
2.5904,0.2884,39.2200,67,96,182328
3.0499,0.3030,39.0900,67,96,182331
3.3675,0.2933,39.1900,67,96,182335
3.6510,0.2884,39.1200,67,96,182338
3.6852,0.2981,39.2500,67,96,182341
3.4995,0.2884,39.2200,67,96,182345
3.1720,0.2884,39.1900,67,96,182348
2.6491,0.2884,39.2800,67,96,182351
2.2092,0.2933,39.1200,67,96,182355
1.8084,0.2884,39.4800,67,96,182359
1.5738,0.2835,39.3200,67,96,182362
1.4761,0.2981,39.1600,67,96,182365
1.5005,0.3177,39.3800,67,96,182369
1.5103,0.2884,39.2200,67,96,182372
1.5640,0.3030,38.9600,67,96,182376
1.5200,0.2933,39.1600,67,96,182379
1.5249,0.2688,39.2500,67,96,182382
1.5347,0.2933,39.1900,67,96,182386
1.5396,0.2981,39.2500,67,96,182389
1.6178,0.3079,39.0000,67,96,182392
1.6031,0.3079,39.1900,67,96,182396
1.6129,0.2786,39.2200,67,96,182400
1.6227,0.2884,39.2500,67,96,182403
1.6422,0.2884,39.2500,67,96,182407
1.7009,0.3079,39.1900,67,96,182410
1.7107,0.2884,39.2200,67,96,182413
1.7204,0.2933,38.5800,67,96,182417
1.7155,0.2884,39.2200,67,96,182420
1.7204,0.2933,39.2500,67,96,182423
1.7791,0.2981,39.0900,67,96,182426
1.7595,0.2884,39.1600,67,96,182430
1.8231,0.3030,39.1900,67,96,182433
1.7840,0.2835,39.3200,67,96,182436
1.7937,0.2835,39.2500,67,96,182440
1.8182,0.2933,39.1900,67,96,182444
1.8231,0.3128,39.2200,67,96,182447
1.8768,0.2933,39.0900,67,96,182451
1.8622,0.3226,39.2200,67,96,182454
1.8768,0.2884,39.3500,67,96,182457
1.9013,0.2981,39.1600,67,96,182461
1.8866,0.2884,39.2500,67,96,182464
1.9550,0.2981,39.0900,67,96,182467
1.9306,0.2884,39.1900,67,96,182470
1.9550,0.2688,39.2500,67,96,182474
1.9599,0.2933,39.2500,67,96,182477
1.9599,0.2884,39.2500,67,96,182480
2.0283,0.3079,39.0000,67,96,182484
1.9990,0.2933,39.1900,67,96,182488
2.0137,0.2835,39.2500,67,96,182491
2.0283,0.3177,39.2500,67,96,182495
2.0479,0.2933,39.2500,67,96,182498
2.1017,0.3030,39.2200,67,96,182501
2.0772,0.3030,39.1600,67,96,182505
2.1261,0.2884,39.1600,67,96,182508
2.0968,0.2884,39.1200,67,96,182511
2.1114,0.3275,39.3200,67,96,182514
2.1652,0.2981,39.1600,67,96,182518
2.1652,0.2933,39.2200,67,96,182521
2.2190,0.2933,39.2200,67,96,182524
2.2141,0.2884,39.2500,67,96,182529
2.2434,0.2884,38.6200,67,96,182532
2.2972,0.2933,39.1200,67,96,182535
2.2825,0.2884,39.2500,67,96,182539
2.3314,0.2933,39.1200,67,96,182542
2.3118,0.2884,39.1600,67,96,182545
2.3314,0.2933,39.2500,67,96,182549
2.3705,0.2981,39.0900,67,96,182552
2.3656,0.2884,39.2500,67,96,182555
2.4291,0.2981,39.0300,67,96,182559
2.4096,0.2933,39.3800,67,96,182562
2.4047,0.2884,39.2200,67,96,182565
2.4340,0.2981,39.2200,67,96,182568
2.4145,0.2933,39.2500,67,96,182573
2.4731,0.3030,38.9300,67,96,182576
2.3900,0.2933,39.1600,67,96,182579
2.3656,0.2786,39.2500,67,96,182583
2.3363,0.2933,39.2200,67,96,182586
2.2874,0.2884,39.2500,67,96,182589
2.2972,0.3079,39.0300,67,96,182593
2.1896,0.2981,39.2200,67,96,182596
2.1065,0.2884,39.1900,67,96,182599
2.0283,0.2884,39.2200,67,96,182602
1.9599,0.3030,39.3200,67,96,182606
1.9355,0.2981,39.1200,67,96,182609
1.8524,0.2884,39.2500,67,96,182612
1.8231,0.2933,39.1200,67,96,182617
1.7595,0.2981,39.2200,67,96,182620
1.7253,0.2835,39.2500,67,96,182623
1.7302,0.3079,39.1600,67,96,182627
1.6813,0.2884,39.2200,67,96,182630
1.6960,0.2981,39.1600,67,96,182633
1.6569,0.2835,39.2200,67,96,182637
1.6422,0.2884,39.2800,67,96,182640
1.6422,0.2933,39.1200,67,96,182643
1.6325,0.2884,39.2200,67,96,182647
1.6911,0.2884,39.0600,67,96,182650
1.6325,0.2884,39.5400,67,96,182653
1.6325,0.2884,39.2500,67,96,182657
1.6520,0.2981,39.1600,67,96,182661
1.6422,0.2884,39.2500,67,96,182664
1.6911,0.2884,39.0000,67,96,182667
1.6667,0.2884,39.1600,67,96,182671
1.6813,0.2835,39.2500,67,96,182674
1.6911,0.2933,39.2200,67,96,182677
1.6813,0.2884,39.2500,67,96,182681
1.7351,0.3324,39.0600,67,96,182684
1.7058,0.2933,39.1900,67,96,182687
1.7009,0.2835,39.3800,67,96,182691
1.7107,0.2884,39.2800,67,96,182694
1.7058,0.2884,38.4000,67,96,182697
1.7449,0.3079,39.0600,67,96,182702
1.7253,0.2884,39.1900,67,96,182705
1.7449,0.2884,39.1600,67,96,182708
1.7449,0.2884,39.2500,67,96,182711
1.7498,0.2884,39.2500,67,96,182715
1.7742,0.2981,39.1600,67,96,182718
1.7595,0.2835,39.3200,67,96,182721
1.7937,0.2981,39.1200,67,96,182725
1.7693,0.2933,39.0900,67,96,182728
1.8084,0.2786,39.2500,67,96,182731
1.7937,0.2933,39.1200,67,96,182735
1.7791,0.3030,39.2500,67,96,182738
1.8133,0.2688,39.0900,67,96,182742
1.7889,0.2786,39.2500,67,96,182746
1.8035,0.2835,39.2500,67,96,182749
1.8280,0.2933,39.1200,67,96,182752
1.8084,0.2884,39.3200,67,96,182755
1.8426,0.2981,38.9600,67,96,182759
1.8035,0.2933,39.1600,67,96,182762
1.7937,0.2835,39.2800,67,96,182765
1.8035,0.2933,39.2200,67,96,182769
1.7937,0.2933,39.2200,67,96,182772
1.8768,0.3030,39.0000,67,96,182775
1.7937,0.2884,38.9600,67,96,182779
1.7889,0.2933,39.1900,67,96,182782
1.7986,0.2884,39.3500,67,96,182786
1.7986,0.3226,39.2500,67,96,182790
1.8573,0.3030,39.0900,67,96,182793
1.8280,0.2884,39.2200,67,96,182796
1.8231,0.2981,39.1600,67,96,182799
1.8084,0.2884,39.2500,67,96,182803
1.8035,0.2786,39.2800,67,96,182806
1.8328,0.2981,39.2200,67,96,182809
1.8084,0.2933,39.2500,67,96,182813
1.8622,0.2933,39.0900,67,96,182816
1.8035,0.2884,39.2200,67,96,182819
1.8231,0.2835,39.2800,67,96,182823
1.8622,0.2981,39.1200,67,96,182827
1.8573,0.2884,39.2800,67,96,182830
1.8915,0.2835,39.0600,67,96,182834
1.8866,0.2884,39.1900,67,96,182837
1.8719,0.2835,39.4100,67,96,182840
1.8964,0.2933,39.1200,67,96,182844
1.8817,0.2835,39.2500,67,96,182847
1.9501,0.2933,39.0300,67,96,182850
1.9159,0.2884,39.2200,67,96,182854
1.9355,0.2884,39.2200,67,96,182857
1.9257,0.2981,39.3500,67,96,182860
1.9013,0.2835,39.2500,67,96,182863
1.9404,0.2981,38.9300,67,96,182867
1.8964,0.2981,39.1600,67,96,182871
1.8915,0.2835,39.3200,67,96,182874
1.8915,0.2933,39.2500,67,96,182878
1.8768,0.2884,39.3800,67,96,182881
1.9110,0.3030,39.0600,67,96,182884
1.8377,0.2884,39.2200,67,96,182888
1.8328,0.2884,39.1600,67,96,182891
1.7986,0.2884,39.2500,67,96,182894
1.7791,0.2884,39.2500,67,96,182898
1.7937,0.2981,39.0600,67,96,182901
1.7498,0.2884,39.4400,67,96,182904
1.7546,0.2933,39.0900,67,96,182907
1.7253,0.2884,39.2200,67,96,182912
1.7253,0.2884,39.4100,67,96,182915
1.7498,0.2884,39.1600,67,96,182918
1.7253,0.2884,39.1600,67,96,182922
1.7449,0.2835,39.1600,67,96,182925
1.7204,0.2835,39.2800,67,96,182928
1.7107,0.2884,39.2500,67,96,182932
1.6911,0.2933,39.1200,67,96,182935
1.6178,0.2884,39.2500,67,96,182938
1.5885,0.2933,39.0300,67,96,182942
1.5543,0.2835,39.2500,67,96,182945
1.6276,0.2835,39.2500,67,96,182948
1.8133,0.2933,39.2200,67,96,182952
2.0968,0.2884,39.3200,67,96,182956
2.5367,0.2933,38.9600,67,96,182959
2.8935,0.2933,39.1900,67,96,182962
3.2405,0.2835,39.2200,67,96,182966
3.5630,0.2884,39.2200,67,96,182969
3.7146,0.2884,39.2500,67,96,182972
3.7243,0.2884,39.0600,67,96,182976
1.6716,0.2981,39.1200,67,96,182979
1.4663,0.2933,39.2500,67,96,182983
1.3832,0.2884,39.1200,67,96,182986
1.3245,0.2884,39.2200,67,96,182989
1.3196,0.2933,39.2500,67,96,182993
1.3587,0.2884,39.1200,67,96,182996
1.3881,0.2786,39.2500,67,96,183000
1.4418,0.2884,39.0300,67,96,183004
1.4663,0.2688,39.2500,67,96,183007
1.5005,0.2835,39.2200,67,96,183010
1.5738,0.2933,39.2500,67,96,183014
1.5494,0.2884,39.2200,67,96,183017
1.6129,0.2981,39.0000,67,96,183020
1.5982,0.2933,39.1600,67,96,183023
1.6080,0.2884,39.2500,67,96,183027
1.6373,0.2933,39.1900,67,96,183030
1.6471,0.2884,39.2500,67,96,183033
1.7204,0.2884,38.9600,67,96,183037
1.6960,0.2981,39.1200,67,96,183041
1.7302,0.2786,39.1900,67,96,183044
1.7155,0.2884,39.4400,67,96,183048
1.7253,0.2835,39.2500,67,96,183051
1.7840,0.3030,39.0900,67,96,183054
1.7644,0.3226,39.1900,67,96,183058
1.7644,0.2884,39.1200,67,96,183061
1.7546,0.2884,39.2500,67,96,183064
1.7644,0.2884,39.2500,67,96,183068
1.8035,0.2933,39.1600,67,96,183071
1.7986,0.2884,39.2800,67,96,183074
1.8377,0.2884,39.1900,67,96,183077
1.8328,0.2884,39.2800,67,96,183081
1.8426,0.2884,39.2500,67,96,183085
1.8768,0.2981,39.1200,67,96,183088
1.8573,0.2884,39.2200,67,96,183092
1.9013,0.2688,39.0600,67,96,183095
1.8866,0.2884,39.1900,67,96,183098
1.8915,0.2835,39.2500,67,96,183102
1.9159,0.3079,39.1600,67,96,183105
1.9208,0.2884,39.2500,67,96,183108
1.9599,0.2933,39.1600,67,96,183112
1.9501,0.2933,39.2200,67,96,183115
1.9697,0.2884,39.2500,67,96,183118
1.9990,0.3324,39.1900,67,96,183121
1.9844,0.2884,39.2500,67,96,183126
2.0479,0.2981,38.0800,67,96,183129
2.0137,0.2981,39.1600,67,96,183132
2.0235,0.2835,39.2800,67,96,183136
2.0430,0.2884,39.2200,67,96,183139
2.0528,0.2884,39.2500,67,96,183142
2.1261,0.3079,39.1200,67,96,183146
2.0723,0.3030,39.2200,67,96,183149
2.0821,0.2786,39.1900,67,96,183152
2.0968,0.3079,39.2500,67,96,183156
2.1114,0.2835,39.2500,67,96,183159
2.1750,0.2981,39.0600,67,96,183162
2.1457,0.2933,39.1900,67,96,183165
2.1848,0.2884,39.1600,67,96,183170
2.1848,0.2884,39.2500,67,96,183173
2.2043,0.2835,39.1600,67,96,183176
2.2532,0.3030,39.1900,67,96,183180
2.2434,0.2884,39.2200,67,96,183183
2.2825,0.2981,39.0900,67,96,183186
2.2532,0.2884,39.2500,67,96,183190
2.2678,0.2835,39.3500,67,96,183193
2.3314,0.2933,39.1200,67,96,183196
2.2874,0.2835,39.3500,67,96,183200
2.3216,0.2835,39.0600,67,96,183203
2.2776,0.2884,39.2500,67,96,183206
2.2630,0.2835,39.2200,67,96,183209
2.2581,0.2933,39.2200,67,96,183214
2.2092,0.2884,39.2500,67,96,183217
2.2190,0.2933,39.0000,67,96,183220
2.1310,0.2933,39.1600,67,96,183224
2.0479,0.2884,39.1600,67,96,183227
1.9941,0.2688,39.2200,67,96,183230
1.9159,0.2835,39.2500,67,96,183234
1.9355,0.3079,39.0000,67,96,183237
1.7937,0.2884,39.0900,67,96,183240
1.7155,0.2835,39.1900,67,96,183244
1.6520,0.2884,39.3500,67,96,183247
1.5836,0.2786,39.2800,67,96,183250
1.5836,0.3030,39.0900,67,96,183254
1.5200,0.2933,39.2500,67,96,183258
1.4907,0.2884,39.1200,67,96,183261
1.4516,0.2884,39.2500,67,96,183264
1.4321,0.2835,39.2500,67,96,183268
1.4418,0.2933,39.2800,67,96,183271
1.4174,0.2835,39.2500,67,96,183274
1.4370,0.2884,39.0600,67,96,183278
1.4516,0.2884,39.2200,67,96,183281
1.4321,0.2835,39.2500,67,96,183284
1.4614,0.2933,39.1200,67,96,183288
1.4565,0.2835,39.2500,67,96,183291
1.5152,0.2884,39.0600,67,96,183294
1.5054,0.2884,39.1600,67,96,183299
1.5249,0.3226,39.2800,67,96,183302
1.5494,0.2981,39.1200,67,96,183305
1.5494,0.3030,39.3200,67,96,183308
1.5934,0.2933,39.0000,67,96,183312
1.5787,0.3030,39.1600,67,96,183315
1.6129,0.2835,39.2500,67,96,183318
1.6178,0.2933,39.2200,67,96,183322
1.6031,0.2786,39.2500,67,96,183325
1.6471,0.2981,38.9600,67,96,183328
1.6373,0.2884,39.1600,67,96,183332
1.6618,0.2786,39.2200,67,96,183335
1.6862,0.2981,39.2200,67,96,183339
1.6911,0.2835,39.3500,67,96,183343
1.7302,0.3226,39.0600,67,96,183346
1.7058,0.2933,39.1900,67,96,183349
1.7107,0.2835,38.3300,67,96,183352
1.7204,0.2884,39.2200,67,96,183356
1.7351,0.2835,39.2800,67,96,183359
1.7791,0.2933,39.0600,67,96,183362
1.7498,0.2884,39.2200,67,96,183366
1.7693,0.2933,39.0900,67,96,183369
1.7498,0.2884,39.2800,67,96,183372
1.7498,0.2933,39.3200,67,96,183376
1.7644,0.2884,39.1900,67,96,183379
1.7498,0.2933,39.2200,67,96,183383
1.7742,0.2884,39.1600,67,96,183387
1.7400,0.2884,39.2200,67,96,183390
1.7546,0.2835,39.2500,67,96,183393
1.7889,0.3030,39.3500,67,96,183397
1.7644,0.2884,39.2800,67,96,183400
1.7889,0.2884,39.0300,67,96,183403
1.7302,0.2884,39.2200,67,96,183406
1.7253,0.2835,39.2500,67,96,183410
1.7253,0.2933,39.1900,67,96,183413
1.7107,0.2835,39.3500,67,96,183416
1.7644,0.2981,38.9600,67,96,183420
1.7155,0.2933,39.1600,67,96,183424
1.6911,0.2835,39.2200,67,96,183427
1.6862,0.2884,39.4400,67,96,183431
1.6764,0.2786,39.2500,67,96,183434
1.7253,0.3079,39.1900,67,96,183437
1.6911,0.2933,39.1900,67,96,183441
1.6862,0.2835,39.3500,67,96,183444
1.6813,0.2884,39.2200,67,96,183447
1.6764,0.2835,39.2500,67,96,183451
1.7253,0.2933,39.1900,67,96,183454
1.7107,0.2884,39.1600,67,96,183457
1.7253,0.2933,39.0900,67,96,183461
1.7009,0.2884,39.2500,67,96,183464
1.7107,0.3079,39.2500,67,96,183468
1.7449,0.2835,39.1600,67,96,183471
1.7644,0.2981,39.2200,67,96,183475
1.8280,0.2688,39.1200,67,96,183478
1.8035,0.2981,39.2200,67,96,183481
1.8084,0.2835,39.2800,67,96,183485
1.8280,0.2933,39.1600,67,96,183488
1.8084,0.2835,39.2200,67,96,183491
1.8524,0.2933,39.0000,67,96,183495
1.8573,0.2933,39.1900,67,96,183498
1.8573,0.2835,39.2800,67,96,183501
1.8817,0.2688,39.1600,67,96,183505
1.8671,0.2835,39.2500,67,96,183508
1.9159,0.3030,38.9300,67,96,183512
1.8768,0.2835,39.1600,67,96,183515
1.8866,0.2786,39.3200,67,96,183519
1.9110,0.2884,39.1900,67,96,183522
1.9013,0.2835,39.3500,67,96,183525
1.9501,0.2981,39.0600,67,96,183529
1.8964,0.2933,38.7700,67,96,183532
1.8866,0.3079,39.1600,67,96,183535
1.8671,0.2884,39.2500,67,96,183539
1.8426,0.2884,39.2200,67,96,183542
1.8475,0.2981,39.2500,67,96,183545
1.7937,0.2884,39.2200,67,96,183549
1.7986,0.2884,39.1200,67,96,183553
1.7889,0.2884,39.2800,67,96,183556
1.7644,0.2884,38.7100,67,96,183560
1.7937,0.3079,39.1600,67,96,183563
1.7595,0.2835,39.0900,67,96,183566
1.7889,0.2981,39.1900,67,96,183569
1.7644,0.2835,39.2200,67,96,183573
1.7693,0.2884,39.3200,67,96,183576
1.7742,0.2884,39.1900,67,96,183579
1.7351,0.2786,39.2200,67,96,183583
1.7009,0.2933,39.2200,67,96,183586
2.1994,0.2981,38.9300,67,96,183590
2.5464,0.2884,39.1200,67,96,183593
2.9326,0.2786,39.2500,67,96,183597
3.3236,0.2786,39.2200,67,96,183601
3.6461,0.2835,39.2800,67,96,183604
3.8661,0.3030,39.0900,67,96,183607
3.6510,0.2884,39.2200,67,96,183611
3.3236,0.2835,39.2800,67,96,183614
2.8299,0.2933,39.2200,67,96,183617
2.3509,0.2835,39.2500,67,96,183621
1.9941,0.3470,39.0600,67,96,183624
1.6862,0.2884,39.2200,67,96,183627
1.5445,0.2933,39.1200,67,96,183630
1.4858,0.2835,39.2800,67,96,183634
1.4614,0.2835,39.3200,67,96,183638
1.5005,0.2688,39.1600,67,96,183641
1.5103,0.2884,39.2500,67,96,183645
1.5591,0.2835,39.0900,67,96,183648
1.5836,0.2835,39.2200,67,96,183651
1.5738,0.2835,39.2200,67,96,183655
1.6031,0.2933,39.1200,67,96,183658
1.6080,0.2835,39.3200,67,96,183661
1.6569,0.2933,39.0600,67,96,183665
1.6422,0.2835,39.2500,67,96,183668
1.6618,0.2933,39.2200,67,96,183671
1.6862,0.2884,39.2500,67,96,183674
1.7058,0.2884,39.2500,67,96,183678
1.7791,0.2688,38.9600,67,96,183682
1.7791,0.2884,39.1600,67,96,183685
1.7889,0.2835,39.2500,67,96,183689
1.8133,0.2981,39.1900,67,96,183692
1.8231,0.2835,39.2200,67,96,183695
1.8964,0.3079,39.0900,67,96,183699
1.8768,0.2933,39.1900,67,96,183702
1.8915,0.2835,39.1600,67,96,183705
1.8964,0.2933,39.2500,67,96,183709
1.8964,0.2835,39.1900,67,96,183712
1.9453,0.2981,39.2200,67,96,183715
1.9306,0.2884,39.2500,67,96,183719
1.9648,0.2933,39.1200,67,96,183723
1.9453,0.2884,39.1900,67,96,183726
1.9550,0.2835,39.2500,67,96,183730
1.9648,0.2884,39.1900,67,96,183733
1.9550,0.2688,39.2500,67,96,183736
1.9941,0.2835,39.1200,67,96,183739
1.9795,0.2835,39.2500,67,96,183743
1.9892,0.2835,39.2800,67,96,183746
2.0039,0.2884,39.1600,67,96,183749
1.9746,0.2835,39.2200,67,96,183753
1.9941,0.2981,39.0300,67,96,183756
1.9746,0.2884,39.1200,67,96,183759
1.9697,0.3079,39.2500,67,96,183763
2.0039,0.2933,39.2500,67,96,183767
1.9892,0.2835,39.3200,67,96,183770
2.0381,0.2981,39.0000,67,96,183774
1.9990,0.2835,39.1900,67,96,183777
2.0088,0.2737,39.2800,67,96,183780
2.0381,0.2884,39.2200,67,96,183783
2.0381,0.2835,39.3200,67,96,183787
2.1114,0.3128,39.0600,67,96,183790
2.0870,0.2884,39.1600,67,96,183793
2.1017,0.2835,39.1600,67,96,183797
2.1163,0.2884,39.2500,67,96,183800
2.1408,0.2786,39.1900,67,96,183803
2.2092,0.2981,39.0900,67,96,183808
2.1896,0.2884,39.3500,67,96,183811
2.2190,0.3030,39.1200,67,96,183814
2.2190,0.2835,39.2500,67,96,183817
2.2385,0.2835,39.2200,67,96,183821
2.3069,0.2981,39.0600,67,96,183824
2.2776,0.2884,39.1600,67,96,183827
2.3314,0.2933,39.0900,67,96,183831
2.2972,0.2835,39.2500,67,96,183834
2.3167,0.2884,39.2200,67,96,183837
2.3558,0.2884,39.1600,67,96,183841
2.3558,0.3128,39.2500,67,96,183844
2.3998,0.2884,39.0900,67,96,183847
2.3754,0.2835,39.2500,67,96,183852
2.3754,0.2835,39.2500,67,96,183855
2.3998,0.2884,39.1200,67,96,183858
2.3607,0.2835,39.2500,67,96,183861
2.3900,0.2933,39.0600,67,96,183865
2.3021,0.2835,39.2200,67,96,183868
2.2483,0.2835,39.3500,67,96,183871
2.1945,0.2981,39.2200,67,96,183875
2.1212,0.2835,39.2200,67,96,183878
2.1505,0.2884,38.9600,67,96,183881
2.0137,0.2884,39.0600,67,96,183885
1.9355,0.3177,39.2200,67,96,183888
1.8768,0.2884,39.3200,67,96,183891
1.8035,0.2835,39.3200,67,96,183896
1.8182,0.3030,39.0000,67,96,183899
1.7400,0.2933,39.2200,67,96,183902
1.7058,0.2835,39.1600,67,96,183905
1.6667,0.2884,39.2200,67,96,183909
1.6422,0.2835,39.2200,67,96,183912
1.6618,0.2884,39.1200,67,96,183915
1.6276,0.3079,39.1900,67,96,183919
1.6373,0.2884,39.1200,67,96,183922
1.6031,0.2835,39.1900,67,96,183925
1.6080,0.2835,39.2500,67,96,183929
1.6178,0.2884,39.1200,67,96,183932
1.6129,0.2884,39.2200,67,96,183936
1.6373,0.2884,39.2200,67,96,183940
1.6178,0.2786,39.3200,67,96,183943
1.6373,0.2981,39.2200,67,96,183946
1.6667,0.2688,39.1200,67,96,183950
1.6422,0.3128,39.2500,67,96,183953
1.6813,0.2884,39.0000,67,96,183956
1.6716,0.2835,39.0900,67,96,183959
1.6764,0.2835,39.3200,67,96,183963
1.7107,0.2981,39.0900,67,96,183966
1.6911,0.2884,39.2500,67,96,183969
1.7449,0.2933,38.9600,67,96,183973
1.7058,0.2688,39.1900,67,96,183976
1.7155,0.2835,39.2800,67,96,183980
1.7400,0.2933,39.1900,67,96,183984
1.7351,0.2835,39.2500,67,96,183987
1.7937,0.3079,39.0000,67,96,183990
1.7546,0.2933,39.1900,67,96,183994
1.7498,0.2835,39.2200,67,96,183997
1.7546,0.2884,39.2500,67,96,184000
1.7546,0.2884,39.2500,67,96,184004
1.7937,0.2981,39.1200,67,96,184007
1.7693,0.3128,39.1900,67,96,184010
1.7791,0.2884,39.1200,67,96,184013
1.7595,0.2835,39.2500,67,96,184017
1.7742,0.2835,39.2200,67,96,184020
1.8182,0.3226,39.1200,67,96,184024
1.7986,0.2884,39.0600,67,96,184028
1.8328,0.2933,39.1200,67,96,184031
1.8035,0.2835,39.1600,67,96,184034
1.8133,0.2884,39.2500,67,96,184038
1.8377,0.2884,39.1200,67,96,184041
1.8182,0.2884,39.2500,67,96,184044
1.8524,0.2884,39.0900,67,96,184048
1.8133,0.2786,39.2200,67,96,184051
1.8182,0.2688,39.2200,67,96,184054
1.8377,0.2981,39.1600,67,96,184058
1.8084,0.2786,39.2800,67,96,184061
1.8524,0.2933,39.0000,67,96,184065
1.7986,0.2688,39.1600,67,96,184068
1.7986,0.2835,38.7700,67,96,184072
1.7937,0.2884,39.2500,67,96,184075
1.7889,0.2835,39.3500,67,96,184078
1.8524,0.3079,39.0600,67,96,184082
1.8182,0.2688,39.1900,67,96,184085
1.8182,0.2786,39.2200,67,96,184088
1.8182,0.2884,39.2500,67,96,184092
1.8182,0.2835,39.2800,67,96,184095
1.8964,0.2933,39.0600,67,96,184098
1.8573,0.2884,39.2500,67,96,184102
1.8866,0.2688,39.1200,67,96,184105
1.8719,0.2835,39.1200,67,96,184109
1.8719,0.2786,39.2200,67,96,184113
1.9062,0.2884,39.0300,67,96,184116
1.9013,0.2786,39.2200,67,96,184119
1.9404,0.2933,39.1600,67,96,184122
1.9159,0.2835,39.2200,67,96,184126
1.9257,0.2835,39.2200,67,96,184129
1.9453,0.2884,39.1200,67,96,184132
1.9453,0.2835,39.2800,67,96,184136
1.9941,0.2835,39.0300,67,96,184139
1.9746,0.2835,39.2200,67,96,184142
1.9795,0.2835,39.2500,67,96,184146
1.9892,0.2884,39.2200,67,96,184150
1.9746,0.2786,39.2500,67,96,184153
2.0332,0.2933,39.0300,67,96,184157
1.9941,0.2981,39.1900,67,96,184160
1.9746,0.2786,39.2800,67,96,184163
1.9648,0.2835,39.1900,67,96,184167
1.9306,0.2835,39.2200,67,96,184170
1.9550,0.3079,39.0000,67,96,184173
1.8866,0.2884,39.1600,67,96,184176
1.8573,0.2786,39.1900,67,96,184180
1.8426,0.2835,39.2500,67,96,184183
1.8280,0.2786,39.2500,67,96,184186
1.8524,0.2933,39.0900,67,96,184190
1.8231,0.2688,39.1900,67,96,184194
1.8280,0.2835,39.1200,67,96,184197
1.8280,0.2835,39.2500,67,96,184201
1.7546,0.2835,39.3200,67,96,184204
1.6960,0.2786,39.2500,67,96,184208
1.6667,0.2884,39.1600,67,96,184211
1.6276,0.2835,39.1900,67,96,184214
1.7400,0.2884,39.0300,67,96,184218
1.9110,0.2835,39.2200,67,96,184221
2.2092,0.3128,39.2500,67,96,184224
2.6344,0.2884,38.8700,67,96,184227
3.0205,0.2835,39.2200,67,96,184231
3.4897,0.2933,38.9600,67,96,184235
3.6950,0.2786,39.1600,67,96,184238
3.8025,0.2786,39.3200,67,96,184242
3.6510,0.2884,39.1600,67,96,184245
3.2845,0.2786,39.2500,67,96,184248
2.9228,0.3030,39.0300,67,96,184252
2.3998,0.2933,39.1900,67,96,184255
2.0039,0.2786,39.1600,67,96,184258
1.7253,0.2835,39.2500,67,96,184262
1.5787,0.2688,39.3200,67,96,184265
1.5591,0.2981,39.1200,67,96,184268
1.5298,0.2835,39.2500,67,96,184272
1.5640,0.2835,39.1200,67,96,184275
1.5640,0.2835,39.2800,67,96,184279
1.5934,0.2786,39.2500,67,96,184282
1.6716,0.2884,39.0900,67,96,184286
1.6716,0.2884,39.3800,67,96,184289
1.7302,0.2884,39.1600,67,96,184292
1.7155,0.2786,39.2200,67,96,184296
1.7302,0.2835,39.2500,67,96,184299
1.7791,0.3030,39.1900,67,96,184302
1.7742,0.2786,39.2500,67,96,184306
1.8231,0.2835,39.2200,67,96,184309
1.8035,0.2835,39.2200,67,96,184312
1.8133,0.2786,39.3500,67,96,184316
1.8426,0.2981,39.1600,67,96,184320
1.8328,0.2786,39.2800,67,96,184323
1.8915,0.3177,38.9600,67,96,184327
1.8622,0.2786,39.1900,67,96,184330
1.8768,0.2786,39.2500,67,96,184333
1.8866,0.2786,39.2500,67,96,184336
1.8866,0.2786,39.2200,67,96,184340
1.9892,0.3030,39.0000,67,96,184343
1.9159,0.2835,39.1900,67,96,184346
1.9159,0.2786,39.2800,67,96,184350
1.9257,0.2835,39.2500,67,96,184353
1.9257,0.2786,39.2200,67,96,184356
1.9648,0.2933,39.0600,67,96,184360
1.9453,0.2884,39.2200,67,96,184364
1.9697,0.2835,39.0300,67,96,184367
1.9648,0.2786,39.4100,67,96,184371
1.9746,0.2835,39.1900,67,96,184374
2.0088,0.2884,39.2800,67,96,184377
1.9892,0.2835,39.1600,67,96,184380
2.0235,0.2933,39.1200,67,96,184384
1.9892,0.2786,39.3200,67,96,184387
2.0137,0.2835,39.2500,67,96,184390
2.0332,0.2835,39.1900,67,96,184394
2.0283,0.3177,39.2500,67,96,184397
2.0723,0.2835,39.1200,67,96,184400
2.0479,0.2933,39.3200,67,96,184404
2.0577,0.2737,39.2500,67,96,184408
2.0968,0.2884,39.2200,67,96,184411
2.0870,0.2786,39.2200,67,96,184415
2.1408,0.2884,39.1600,67,96,184418
2.1163,0.2884,39.1600,67,96,184421
2.1065,0.2688,39.2500,67,96,184424
2.1408,0.3226,39.1600,67,96,184428
2.1603,0.2737,39.2500,67,96,184431
2.2190,0.2933,39.0300,67,96,184434
2.2043,0.2835,39.1600,67,96,184438
2.1945,0.2786,39.2800,67,96,184441
2.2190,0.2835,39.1900,67,96,184444
2.2287,0.2786,39.2500,67,96,184449
2.3167,0.3030,39.0900,67,96,184452
2.2825,0.2884,39.1600,67,96,184455
2.2825,0.2786,39.1600,67,96,184458
2.2825,0.2786,39.2500,67,96,184462
2.3216,0.2737,39.2200,67,96,184465
2.3460,0.2933,39.1200,67,96,184468
2.3265,0.2933,39.2800,67,96,184472
2.3558,0.2835,39.1200,67,96,184475
2.3314,0.2786,39.2800,67,96,184478
2.3363,0.2786,39.2500,67,96,184482
2.3705,0.2933,39.1200,67,96,184485
2.3314,0.2835,39.2500,67,96,184488
2.3509,0.2835,39.1200,67,96,184493
2.2874,0.2786,39.1900,67,96,184496
2.2532,0.2786,39.3200,67,96,184499
2.2287,0.2835,39.1200,67,96,184503
2.1603,0.2786,39.2500,67,96,184506
2.1457,0.2786,39.0600,67,96,184509
2.0626,0.2835,39.2200,67,96,184512
2.0039,0.2835,39.2200,67,96,184516
1.9648,0.2884,39.1200,67,96,184519
1.8817,0.2835,39.4100,67,96,184522
1.8915,0.2981,39.0300,67,96,184526
1.7937,0.2786,39.2800,67,96,184529
1.7595,0.2884,39.3200,67,96,184532
1.7400,0.2884,39.2200,67,96,184537
1.7009,0.2933,39.2200,67,96,184540
1.7400,0.3030,39.0000,67,96,184543
1.6862,0.2835,39.1600,67,96,184547
1.6618,0.2737,39.2200,67,96,184550
1.6520,0.2835,39.3200,67,96,184553
1.6373,0.3030,39.2200,67,96,184556
1.6716,0.2933,39.0600,67,96,184560
1.6325,0.3226,39.1900,67,96,184563
1.6422,0.2786,39.1200,67,96,184566
1.6276,0.2835,39.2500,67,96,184570
1.6569,0.2835,39.2800,67,96,184573
1.6667,0.2884,39.0900,67,96,184577
1.6862,0.2786,39.2200,67,96,184581
1.6911,0.2835,39.1900,67,96,184584
1.6716,0.3079,39.2500,67,96,184587
1.6813,0.2786,39.3800,67,96,184591
1.6911,0.2835,39.1900,67,96,184594
1.6813,0.2835,39.2500,67,96,184597
1.7009,0.2835,39.1200,67,96,184600
1.6813,0.2786,39.2500,67,96,184604
1.6911,0.2786,39.2200,67,96,184607
1.7204,0.2688,39.1200,67,96,184610
1.6960,0.2835,39.2500,67,96,184614
1.7253,0.2933,39.0000,67,96,184617
1.7058,0.2835,39.1200,67,96,184621
1.6960,0.2981,39.2200,67,96,184625
1.7253,0.2884,39.2800,67,96,184628
1.7253,0.2786,39.2800,67,96,184631
1.7791,0.2933,38.9600,67,96,184635
1.7302,0.2688,39.1200,67,96,184638
1.7058,0.2688,39.2200,67,96,184641
1.7009,0.2786,39.2200,67,96,184645
1.7009,0.2786,39.2500,67,96,184648
1.7498,0.2981,39.0600,67,96,184651
1.7155,0.2884,39.2200,67,96,184654
1.7058,0.2737,39.1900,67,96,184658
1.7009,0.2835,39.0900,67,96,184662
1.6960,0.2835,39.2500,67,96,184665
1.7302,0.2933,39.1900,67,96,184669
1.7107,0.3128,39.1900,67,96,184672
1.7155,0.2933,39.1200,67,96,184675
1.6813,0.2786,39.2500,67,96,184679
1.6764,0.2786,39.3200,67,96,184682
1.7009,0.2981,39.0900,67,96,184685
1.6716,0.2835,39.2500,67,96,184689
1.6911,0.2835,39.1200,67,96,184692
1.6520,0.2688,39.2200,67,96,184695
1.6520,0.2786,39.3800,67,96,184698
1.6569,0.2835,39.1200,67,96,184702
1.6422,0.2786,39.3200,67,96,184706
1.6667,0.2835,39.0300,67,96,184709
1.6325,0.2835,39.1200,67,96,184713
1.6276,0.2835,39.2200,67,96,184716
1.6422,0.2884,39.4100,67,96,184719
1.6227,0.2786,39.2200,67,96,184723
1.6716,0.2933,39.0000,67,96,184726
1.6520,0.2884,39.1600,67,96,184729
1.6520,0.2786,39.3800,67,96,184733
1.6520,0.2933,39.2200,67,96,184736
1.6373,0.2786,39.3500,67,96,184739
1.6862,0.3030,39.0300,67,96,184743
1.6471,0.2884,39.1600,67,96,184747
1.6520,0.2786,39.1600,67,96,184750
1.6618,0.2835,39.1200,67,96,184753
1.6667,0.2737,39.2200,67,96,184757
1.7107,0.2933,39.1600,67,96,184760
1.6960,0.2688,39.2200,67,96,184763
1.7253,0.2835,39.1200,67,96,184767
1.7155,0.2835,39.2500,67,96,184770
1.6960,0.2835,39.2800,67,96,184773
1.7107,0.2835,39.1600,67,96,184777
1.6862,0.2835,39.2200,67,96,184780
1.7155,0.2884,39.0900,67,96,184783
1.6813,0.2786,39.2200,67,96,184787
1.6716,0.2786,39.2200,67,96,184791
1.6716,0.2884,39.1200,67,96,184794
1.6129,0.2835,39.2200,67,96,184798
1.6178,0.2835,39.0600,67,96,184801
1.5543,0.2786,39.2500,67,96,184804
1.5347,0.2835,39.2500,67,96,184807
1.5298,0.2884,39.1600,67,96,184811
1.4370,0.2835,39.2200,67,96,184815
1.4272,0.2835,39.2200,67,96,184818
1.4565,0.3128,39.0600,67,96,184821
1.4174,0.2884,39.1900,67,96,184824
1.3978,0.2933,39.0900,67,96,184828
1.3587,0.2835,39.2200,67,96,184832
1.3099,0.2835,39.1600,67,96,184835
1.2854,0.2933,39.1600,67,96,184839
1.2463,0.2884,39.2200,67,96,184842
1.3099,0.2835,39.1200,67,96,184845
1.4370,0.2835,39.2200,67,96,184849
1.7204,0.2737,39.2500,67,96,184852
2.1017,0.2835,39.1600,67,96,184855
2.4829,0.2786,39.2200,67,96,184859
2.9032,0.2688,39.0900,67,96,184862
3.1232,0.2835,39.4800,67,96,184865
3.2845,0.2884,39.2500,67,96,184868
3.2258,0.2933,39.1200,67,96,184872
2.8837,0.2884,39.2500,67,96,184876
2.5073,0.2933,39.0300,67,96,184879
1.9990,0.2933,39.1200,67,96,184883
1.5787,0.2835,39.2500,67,96,184886
1.2757,0.3226,39.1900,67,96,184889
1.0948,0.2688,39.2500,67,96,184893
1.0411,0.2981,39.2800,67,96,184896
0.9873,0.2835,39.1600,67,96,184899
0.9922,0.2786,39.2500,67,96,184903
1.0117,0.2981,39.2200,67,96,184906
1.0313,0.2835,39.2500,67,96,184909
1.1095,0.3030,39.0600,67,96,184912
1.1095,0.2933,39.1600,67,96,184916
1.1339,0.2835,39.1600,67,96,184920
1.1241,0.2884,39.4400,67,96,184923
1.1290,0.2835,39.2200,67,96,184927
1.1535,0.2981,39.0900,67,96,184930
1.1730,0.2884,39.2200,67,96,184933
1.1584,0.2884,39.0900,67,96,184937
1.1535,0.2933,39.3200,67,96,184940
1.1730,0.2835,39.2200,67,96,184943
1.2023,0.2981,39.1600,67,96,184947
1.1975,0.2884,39.2200,67,96,184950
1.2268,0.2933,39.2200,67,96,184953
1.2170,0.2737,39.2500,67,96,184956
1.2219,0.2835,39.2500,67,96,184961
1.2366,0.2933,39.1200,67,96,184964
1.2317,0.2884,39.2800,67,96,184967
1.2512,0.2884,39.0300,67,96,184971
1.2366,0.2688,39.2200,67,96,184974
1.2463,0.2835,39.2500,67,96,184977
1.2659,0.3030,39.1600,67,96,184981
1.2854,0.2884,39.2200,67,96,184984
1.2708,0.2933,39.0000,67,96,184987
1.2512,0.2835,39.2200,67,96,184991
1.2512,0.2835,39.3500,67,96,184994
1.2561,0.3079,39.1900,67,96,184997
1.2561,0.2884,39.2500,67,96,185000
1.3001,0.3128,39.0600,67,96,185005
1.2805,0.2933,39.1600,67,96,185008
1.2854,0.2835,39.1600,67,96,185011
1.3050,0.2688,39.2200,67,96,185015
1.3148,0.2884,39.2500,67,96,185018
1.3587,0.3079,39.0600,67,96,185021
1.3245,0.2933,39.1900,67,96,185025
1.3441,0.3030,39.1200,67,96,185028
1.3441,0.2884,39.2500,67,96,185031
1.3587,0.2884,39.2200,67,96,185035
1.3930,0.2981,39.1200,67,96,185038
1.3832,0.2933,39.3200,67,96,185041
1.4370,0.2981,39.0900,67,96,185044
1.3881,0.2884,39.2200,67,96,185049
1.4076,0.2884,39.2500,67,96,185052
1.4272,0.2933,39.1900,67,96,185055
1.4321,0.2933,39.2500,67,96,185059
1.4614,0.2933,39.0900,67,96,185062
1.4418,0.2933,39.3200,67,96,185065
1.4614,0.2884,39.2500,67,96,185069
1.4858,0.2933,39.1600,67,96,185072
1.4956,0.2884,39.2800,67,96,185075
1.5396,0.2981,39.0600,67,96,185079
1.5396,0.2981,39.2500,67,96,185082
1.5445,0.2933,39.2500,67,96,185085
1.5689,0.2933,39.2800,67,96,185090
1.5738,0.3030,39.2500,67,96,185093
1.6422,0.3030,38.9300,67,96,185096
1.6129,0.3030,39.1200,67,96,185099
1.6129,0.2835,39.2800,67,96,185103
1.6276,0.2933,39.2200,67,96,185106
1.6618,0.2688,39.0000,67,96,185109
1.6813,0.3079,39.0900,67,96,185113
1.6471,0.3177,39.1600,67,96,185116
1.6373,0.2884,39.1600,67,96,185119
1.6031,0.2933,39.2500,67,96,185123
1.5738,0.2884,39.2500,67,96,185126
1.5591,0.3177,39.1600,67,96,185129
1.4907,0.2933,39.2500,67,96,185134
1.4565,0.2933,39.5700,67,96,185137
1.3832,0.2933,39.3200,67,96,185140
1.3343,0.3079,39.2500,67,96,185144
1.2952,0.3030,39.1200,67,96,185147
1.2219,0.2884,39.2500,67,96,185150
1.1926,0.2884,39.1600,67,96,185153
1.1241,0.2884,39.1600,67,96,185157
1.0899,0.2933,39.2800,67,96,185160
1.0459,0.2981,39.1200,67,96,185163
1.0166,0.2933,39.2500,67,96,185167
0.9873,0.2981,39.0000,67,96,185170
0.9482,0.3177,39.2200,67,96,185174
0.9726,0.2933,39.2500,67,96,185178
0.9335,0.2981,39.1900,67,96,185181
0.9091,0.2884,39.2200,67,96,185184
0.9433,0.3030,38.9600,67,96,185187
0.8944,0.2884,39.1900,67,96,185191
0.9189,0.2884,39.3200,67,96,185194
0.9433,0.2981,39.2200,67,96,185197
0.9335,0.2933,39.3200,67,96,185201
1.0020,0.3128,38.9600,67,96,185204
0.9433,0.2933,39.1200,67,96,185207
0.9482,0.2884,39.2200,67,96,185211
0.9873,0.3030,39.2200,67,96,185214
0.9677,0.2933,39.2800,67,96,185218
1.0020,0.3030,39.0600,67,96,185222
0.9824,0.2981,39.1900,67,96,185225
0.9971,0.2688,39.1200,67,96,185228
0.9971,0.2981,39.4800,67,96,185231
1.0117,0.3079,39.2500,67,96,185235
1.0411,0.3030,39.1600,67,96,185238
1.0362,0.2981,39.2800,67,96,185241
1.0508,0.2933,39.0600,67,96,185245
1.0459,0.2933,39.2200,67,96,185248
1.0459,0.2884,39.2500,67,96,185251
1.0948,0.2933,39.1900,67,96,185255
1.0606,0.2981,39.2800,67,96,185259
1.0899,0.2981,39.0900,67,96,185262
1.0948,0.2981,39.1900,67,96,185265
1.0802,0.2933,39.2500,67,96,185269
1.0997,0.3030,39.2500,67,96,185272
1.0948,0.2933,39.2500,67,96,185275
1.1241,0.2981,39.0300,67,96,185279
1.1144,0.2981,39.1200,67,96,185282
1.1095,0.2981,39.3200,67,96,185285
1.1290,0.3030,39.1900,67,96,185289
1.1290,0.2835,39.2500,67,96,185292
1.1632,0.2884,38.9600,67,96,185295
1.1437,0.2933,39.1600,67,96,185298
1.1388,0.2884,39.2200,67,96,185303
1.1535,0.2981,39.0900,67,96,185306
1.1535,0.2981,39.2500,67,96,185309
1.1975,0.3079,38.9300,67,96,185313
1.1730,0.2933,39.1200,67,96,185316
1.1779,0.2884,39.2200,67,96,185319
1.1779,0.3226,39.3200,67,96,185323
1.1730,0.2933,39.3500,67,96,185326
1.2121,0.3079,39.0900,67,96,185329
1.2072,0.2884,39.2200,67,96,185333
1.2072,0.2933,39.1200,67,96,185336
1.2121,0.2933,39.2200,67,96,185339
1.2121,0.2933,39.3500,67,96,185342
1.2268,0.3079,39.0300,67,96,185347
1.2121,0.2981,39.2800,67,96,185350
1.2317,0.3226,39.0900,67,96,185353
1.2317,0.2688,39.2800,67,96,185357
1.2366,0.2933,39.2500,67,96,185360
1.2561,0.2884,39.1900,67,96,185363
1.2561,0.2933,39.2500,67,96,185367
1.2854,0.2884,39.0900,67,96,185370
1.2708,0.2933,39.2200,67,96,185373
1.2903,0.2933,39.2500,67,96,185377
1.3196,0.3030,39.1200,67,96,185380
1.3050,0.2981,39.3200,67,96,185383
1.3539,0.3079,39.0600,67,96,185387
1.3490,0.2933,39.1600,67,96,185391
1.3587,0.2933,39.2500,67,96,185394
1.3685,0.3030,39.2200,67,96,185397
1.3539,0.3226,39.3200,67,96,185401
1.3881,0.3128,38.9600,67,96,185404
1.3539,0.2981,39.2500,67,96,185407
1.3587,0.2933,39.2200,67,96,185411
1.3539,0.3030,39.2200,67,96,185414
1.3490,0.2933,39.2500,67,96,185417
1.3734,0.3079,39.4800,67,96,185421
1.2610,0.3079,39.1600,67,96,185424
1.2268,0.2981,39.2200,67,96,185428
1.2268,0.3030,39.2200,67,96,185432
1.1926,0.3030,39.2500,67,96,185435
1.1877,0.2933,39.2500,67,96,185439
1.2023,0.3128,39.1900,67,96,185442
1.2072,0.2981,39.2500,67,96,185445
1.2414,0.2981,39.1900,67,96,185448
1.2170,0.2981,39.2500,67,96,185452
1.2121,0.2933,38.5200,67,96,185455
1.1877,0.2884,39.1200,67,96,185458
1.1290,0.2981,39.1900,67,96,185462
1.1632,0.3079,39.0000,67,96,185465
1.1535,0.3030,39.1900,67,96,185468
1.2805,0.2981,39.2500,67,96,185473
1.5494,0.3030,39.1900,67,96,185476
1.8915,0.2933,39.2500,67,96,185479
2.3607,0.3226,38.9300,67,96,185483
2.7028,0.2981,39.1200,67,96,185486
3.0205,0.2884,39.1900,67,96,185489
3.2747,0.3030,39.1900,67,96,185492
3.2454,0.2933,39.2500,67,96,185496
3.0890,0.3079,39.0300,67,96,185499
2.6393,0.2981,39.1900,67,96,185502
2.1554,0.2933,39.1600,67,96,185506
1.6960,0.2933,39.3200,67,96,185509
1.3490,0.2933,39.3500,67,96,185512
1.1632,0.3079,39.1200,67,96,185517
1.0508,0.2981,39.2500,67,96,185520
1.0215,0.2981,39.2200,67,96,185523
1.0068,0.3030,39.2200,67,96,185527
1.0215,0.2981,39.2500,67,96,185530
1.0753,0.3079,39.0900,67,96,185533
1.0899,0.2981,39.2200,67,96,185536
1.1584,0.3030,39.1200,67,96,185540
1.1681,0.2933,39.1900,67,96,185543
1.2219,0.2981,39.2500,67,96,185546
1.2268,0.3030,39.1200,67,96,185550
1.2317,0.3030,39.2200,67,96,185553
1.2561,0.2981,39.0600,67,96,185556
1.2610,0.3226,39.2500,67,96,185561
1.2659,0.2981,39.2500,67,96,185564
1.3001,0.3079,39.1600,67,96,185567
1.2854,0.2884,39.2500,67,96,185570
1.3245,0.3128,39.0900,67,96,185574
1.3001,0.2981,39.2500,67,96,185577
1.3148,0.2933,39.2200,67,96,185580
1.3294,0.3030,39.2200,67,96,185584
1.3343,0.2981,39.2200,67,96,185587
1.3832,0.3226,39.0600,67,96,185590
1.3734,0.2981,39.1900,67,96,185594
1.3783,0.2933,39.1900,67,96,185597
1.4027,0.2981,39.2500,67,96,185601
1.4174,0.3275,39.2200,67,96,185605
1.4712,0.3079,39.0600,67,96,185608
1.4565,0.3128,39.1900,67,96,185611
1.4858,0.2981,39.1600,67,96,185615
1.4809,0.2981,39.2200,67,96,185618
1.4858,0.2981,39.2500,67,96,185621
1.5347,0.3079,39.1600,67,96,185624
1.5249,0.2981,39.2200,67,96,185628
1.5543,0.3030,39.1200,67,96,185631
1.5249,0.3372,39.2800,67,96,185634
1.5445,0.2933,39.2200,67,96,185638
1.5591,0.3079,39.1200,67,96,185641
1.5591,0.2981,39.2500,67,96,185645
1.5836,0.2981,39.0300,67,96,185649
1.5591,0.2981,39.2500,67,96,185652
1.5640,0.2933,39.1600,67,96,185655
1.5836,0.3030,39.1900,67,96,185659
1.5738,0.2981,38.7700,67,96,185662
1.6129,0.3275,39.0000,67,96,185665
1.5836,0.3079,39.1900,67,96,185668
1.5738,0.2933,38.4000,67,96,185672
1.5934,0.3030,39.1900,67,96,185675
1.5689,0.2981,39.2200,67,96,185678
1.6031,0.3079,38.9300,67,96,185682
1.5396,0.2981,39.1600,67,96,185686
1.5005,0.2933,39.2200,67,96,185689
1.4467,0.2981,39.2500,67,96,185693
1.3636,0.2981,39.2500,67,96,185696
1.2903,0.3128,39.0600,67,96,185699
1.0899,0.3030,39.1600,67,96,185703
0.8700,0.2981,39.0900,67,96,185706
0.6403,0.2981,39.2200,67,96,185709
0.4301,0.2933,39.2500,67,96,185712
0.2884,0.3079,39.1600,67,96,185716
0.1760,0.2981,39.2500,67,96,185719
0.1075,0.2933,39.0900,67,96,185722
0.0733,0.2981,38.4000,67,96,185726
0.0489,0.2981,39.1600,67,96,185730
0.0342,0.3079,39.0600,67,96,185733
0.0391,0.2981,39.3200,67,96,185737
0.0440,0.3030,39.1200,67,96,185740
0.0342,0.2981,39.2500,67,96,185743
0.0538,0.2933,39.3500,67,96,185746
0.0587,0.3030,39.1900,67,96,185750
0.0587,0.2933,39.1900,67,96,185753
0.0635,0.2981,39.1200,67,96,185756
0.0635,0.2933,39.0900,67,96,185760
0.0733,0.2835,39.2800,67,96,185763
0.0782,0.2981,39.1900,67,96,185766
0.0978,0.2981,39.3200,67,96,185769
0.0538,0.2981,39.0600,67,96,185774
0.0587,0.2933,38.8400,67,96,185777
0.0635,0.2981,39.2200,67,96,185780
0.0978,0.3079,39.1900,67,96,185784
0.0587,0.2981,39.2500,67,96,185787
0.0684,0.3030,39.0300,67,96,185790
0.0733,0.3030,39.1600,67,96,185793
0.0978,0.2884,39.3200,67,96,185797
0.1320,0.3030,39.3200,67,96,185800
0.1564,0.2933,39.2200,67,96,185803
0.1955,0.3128,39.0000,67,96,185807
0.2102,0.2933,39.1900,67,96,185810
0.2444,0.2933,39.6400,67,96,185814
0.2835,0.2884,39.2200,67,96,185818
0.3177,0.2933,39.2200,67,96,185821
0.3763,0.3177,39.0000,67,96,185824
0.4154,0.2981,39.1600,67,96,185827
0.4448,0.2933,39.1600,67,96,185831
0.4790,0.2884,39.2500,67,96,185834
0.5083,0.2933,39.2500,67,96,185837
0.5718,0.3079,39.1200,67,96,185841
0.5914,0.3030,39.1900,67,96,185844
0.6256,0.2933,39.1200,67,96,185847
0.6500,0.2981,39.3200,67,96,185851
0.6843,0.2981,39.1900,67,96,185854
0.7331,0.2981,39.1200,67,96,185858
0.7527,0.2981,39.2200,67,96,185861
0.7869,0.2981,39.0900,67,96,185865
0.8016,0.2981,39.2500,67,96,185868
0.8211,0.2933,39.2500,67,96,185871
0.8651,0.3030,39.1900,67,96,185875
0.8651,0.2933,39.1900,67,96,185878
0.9042,0.2981,39.0900,67,96,185881
0.9091,0.2933,39.2500,67,96,185885
0.9286,0.2933,39.2500,67,96,185888
0.9580,0.2981,39.0900,67,96,185891
0.9726,0.2884,39.2500,67,96,185894
1.0166,0.2933,39.0300,67,96,185899
1.0215,0.2933,39.1200,67,96,185902
1.0459,0.3030,39.2200,67,96,185905
1.0753,0.3079,39.1600,67,96,185909
1.0655,0.3030,39.2200,67,96,185912
1.0997,0.2981,39.0900,67,96,185915
1.0948,0.2884,39.1600,67,96,185919
1.0997,0.2933,39.2500,67,96,185922
1.1486,0.2981,39.1900,67,96,185925
1.1144,0.2933,39.2500,67,96,185928
1.1486,0.3128,39.0000,67,96,185932
1.1193,0.2981,39.1200,67,96,185935
1.1241,0.2884,39.1600,67,96,185938
1.1290,0.2981,39.2500,67,96,185943
1.1339,0.2933,39.2800,67,96,185946
1.1730,0.3128,39.0900,67,96,185949
1.1486,0.3079,39.2200,67,96,185953
1.1681,0.2933,39.5700,67,96,185956
1.1730,0.2933,39.2200,67,96,185959
1.1828,0.2933,39.2800,67,96,185962
1.2072,0.3079,39.1600,67,96,185966
1.1926,0.2981,39.2200,67,96,185969
1.2072,0.2981,39.1200,67,96,185972
1.2121,0.2933,39.2500,67,96,185976
1.2414,0.2933,39.3200,67,96,185979
1.2903,0.3079,39.1200,67,96,185982
1.2805,0.2981,39.2500,67,96,185987
1.3148,0.2981,39.1200,67,96,185990
1.3050,0.2884,39.1900,67,96,185993
1.3294,0.2981,39.3200,67,96,185997
1.3685,0.2981,39.3800,67,96,186000
1.3783,0.2981,39.3200,67,96,186003
1.4223,0.3030,39.0300,67,96,186007
1.3978,0.2981,39.1900,67,96,186010
1.4125,0.2933,39.2500,67,96,186013
1.4321,0.3030,39.1200,67,96,186016
1.4272,0.2933,39.2500,67,96,186020
1.4614,0.3079,39.1900,67,96,186023
1.4272,0.2933,39.1600,67,96,186027
1.4272,0.2933,39.1900,67,96,186031
1.4272,0.2981,39.2200,67,96,186034
1.4223,0.2933,39.2200,67,96,186039
1.4223,0.2933,39.1900,67,96,186042
1.4321,0.3030,39.2800,67,96,186045
1.3930,0.2981,39.2200,67,96,186049
1.4076,0.3030,39.4800,67,96,186052
1.3685,0.3372,39.2200,67,96,186055
1.3539,0.2933,39.2500,67,96,186059
1.3832,0.2884,39.1600,67,96,186062
1.3587,0.2933,39.0900,67,96,186065
1.3832,0.2981,39.0600,67,96,186070
1.3441,0.2933,39.2200,67,96,186073
1.3587,0.3079,39.2200,67,96,186076
1.4125,0.2981,39.1200,67,96,186079
1.3636,0.2933,39.2800,67,96,186083
1.4027,0.2933,39.0000,67,96,186086
1.3832,0.2933,39.2200,67,96,186089
1.3930,0.3079,39.2500,67,96,186093
1.3734,0.2981,39.2200,67,96,186096
1.3294,0.2981,39.2500,67,96,186099
1.3148,0.3079,39.1200,67,96,186103
1.2463,0.3226,39.1600,67,96,186106
1.3099,0.2884,39.1900,67,96,186109
1.4956,0.3030,39.2200,67,96,186114
1.7058,0.2933,39.2500,67,96,186117
2.0137,0.3079,39.0300,67,96,186120
2.2385,0.2981,39.1900,67,96,186124
2.4731,0.2933,39.1200,67,96,186127
2.6784,0.2981,39.2200,67,96,186130
2.8104,0.2933,39.2200,67,96,186133
2.7517,0.3030,39.1600,67,96,186137
2.4145,0.2688,39.2200,67,96,186140
1.9892,0.2981,39.0900,67,96,186143
1.4663,0.2981,39.2200,67,96,186147
1.0362,0.2933,39.1600,67,96,186150
0.7234,0.2884,39.1600,67,96,186153
0.5279,0.2933,39.2500,67,96,186158
0.4350,0.2933,39.1200,67,96,186161
0.3910,0.2933,39.2500,67,96,186164
0.4057,0.2884,39.2200,67,96,186168
0.4497,0.3030,39.2200,67,96,186171
0.4888,0.2933,39.2500,67,96,186174
0.5474,0.2981,39.0000,67,96,186177
0.5865,0.2933,39.3200,67,96,186181
0.6256,0.2884,39.2500,67,96,186184
0.6843,0.3030,39.1600,67,96,186187
0.7185,0.2933,39.2500,67,96,186191
0.7722,0.3030,39.0000,67,96,186194
0.7918,0.2933,39.1600,67,96,186198
0.8211,0.2933,39.2800,67,96,186202
0.8358,0.2981,39.2200,67,96,186205
0.8749,0.2933,39.2200,67,96,186208
0.9335,0.3030,39.0000,67,96,186211
0.9433,0.2933,39.0900,67,96,186215
0.9775,0.2884,39.2200,67,96,186218
1.0068,0.3030,39.2800,67,96,186221
1.0264,0.2933,39.2200,67,96,186225
1.0899,0.3079,39.0300,67,96,186228
1.0899,0.2981,39.1900,67,96,186231
1.1144,0.2981,39.1600,67,96,186234
1.1339,0.2933,39.2200,67,96,186238
1.1535,0.2884,39.2200,67,96,186242
1.2023,0.3030,39.1200,67,96,186245
1.2170,0.3030,39.2200,67,96,186249
1.2512,0.2884,39.1200,67,96,186252
1.2561,0.2981,39.2500,67,96,186255
1.2903,0.2884,39.2500,67,96,186259
1.3245,0.2981,39.1600,67,96,186262
1.3441,0.3030,39.2200,67,96,186265
1.3930,0.2933,39.1200,67,96,186269
1.3685,0.3030,39.2200,67,96,186272
1.3539,0.2884,39.2500,67,96,186275
1.3392,0.3128,39.1900,67,96,186279
1.3148,0.2884,39.2500,67,96,186283
1.3343,0.2981,39.0300,67,96,186286
1.3148,0.2884,39.2800,67,96,186289
1.3294,0.3128,39.2500,67,96,186293
1.3490,0.2981,39.1900,67,96,186296
1.3490,0.3372,39.2500,67,96,186299
1.4125,0.3030,39.0000,67,96,186303
1.4027,0.2981,39.2800,67,96,186306
1.4467,0.3030,39.3200,67,96,186309
1.4858,0.2981,39.2200,67,96,186313
1.5054,0.3470,39.2200,67,96,186316
1.5787,0.3079,39.0300,67,96,186319
1.5738,0.2981,39.0000,67,96,186323
1.6031,0.2981,39.2200,67,96,186327
1.6471,0.2933,39.2200,67,96,186330
1.6764,0.2933,38.4000,67,96,186333
1.7449,0.3030,39.0600,67,96,186337
1.7498,0.2981,39.2200,67,96,186340
1.7840,0.2933,39.0900,67,96,186343
1.7937,0.3030,39.2500,67,96,186347
1.8280,0.2884,39.2500,67,96,186350
1.8719,0.3030,39.1600,67,96,186353
1.8768,0.2884,39.1900,67,96,186357
1.9159,0.2981,39.1600,67,96,186360
1.9013,0.2884,39.2200,67,96,186363
1.9306,0.2884,39.2500,67,96,186368
1.9844,0.3079,39.1900,67,96,186371
1.9746,0.2933,39.1200,67,96,186374
2.0235,0.2933,39.0900,67,96,186377
1.9746,0.2884,39.1900,67,96,186381
1.9697,0.2884,39.2500,67,96,186384
1.9892,0.2981,39.1200,67,96,186387
1.9599,0.2933,39.2500,67,96,186391
1.9746,0.2884,39.0000,67,96,186394
1.8915,0.2933,39.1600,67,96,186397
1.8475,0.2933,39.2500,67,96,186401
1.8084,0.2981,39.1200,67,96,186404
1.7351,0.2933,39.2200,67,96,186407
1.7155,0.3030,38.9300,67,96,186412
1.6178,0.2933,39.1600,67,96,186415
1.5640,0.2835,39.2200,67,96,186418
1.5200,0.3079,39.1900,67,96,186421
1.4712,0.2933,39.2500,67,96,186425
1.4907,0.3079,39.0900,67,96,186428
1.4418,0.2981,39.1600,67,96,186431
1.4223,0.2884,39.1600,67,96,186435
1.3685,0.2933,39.2500,67,96,186438
1.3441,0.2884,39.2500,67,96,186441
1.3832,0.3079,39.0600,67,96,186445
1.3930,0.2933,39.1900,67,96,186448
1.4223,0.3079,39.0900,67,96,186451
1.4125,0.2933,39.2200,67,96,186456
1.4076,0.2884,39.4100,67,96,186459
1.4614,0.2933,39.1900,67,96,186462
1.4223,0.2884,39.3200,67,96,186465
1.4712,0.2933,39.0900,67,96,186469
1.4565,0.2884,39.2200,67,96,186472
1.4712,0.2884,39.2500,67,96,186475
1.4907,0.2933,39.1200,67,96,186479
1.4858,0.2933,39.3200,67,96,186482
1.5494,0.2884,39.0300,67,96,186485
1.5103,0.2835,39.0900,67,96,186489
1.5249,0.2933,39.2500,67,96,186492
1.5494,0.2981,39.2800,67,96,186496
1.5347,0.2884,39.2500,67,96,186500
1.5787,0.2981,38.9600,67,96,186503
1.5640,0.3030,39.1200,67,96,186506
1.5738,0.2786,39.2500,67,96,186509
1.5836,0.2933,39.2200,67,96,186513
1.5934,0.2981,39.2500,67,96,186516
1.6471,0.3079,39.1200,67,96,186519
1.6227,0.2981,39.1900,67,96,186523
1.6325,0.2835,39.1600,67,96,186526
1.6422,0.2688,39.2500,67,96,186529
1.6373,0.2884,39.3200,67,96,186533
1.6667,0.3030,39.0900,67,96,186536
1.6422,0.2933,39.1900,67,96,186540
1.6618,0.2884,39.1200,67,96,186544
1.6569,0.2688,39.2200,67,96,186547
1.6569,0.3421,39.2500,67,96,186550
1.6764,0.2933,39.1600,67,96,186554
1.6618,0.2933,39.2200,67,96,186557
1.6960,0.2981,39.1600,67,96,186560
1.6716,0.2933,39.2200,67,96,186564
1.6862,0.2884,39.4800,67,96,186567
1.7155,0.3030,39.0900,67,96,186570
1.6911,0.2884,39.2500,67,96,186573
1.7155,0.2933,39.0300,67,96,186577
1.6960,0.2884,39.1900,67,96,186580
1.6960,0.2835,39.2200,67,96,186584
1.7253,0.2981,39.1600,67,96,186588
1.7155,0.2933,39.3200,67,96,186591
1.7693,0.2981,39.0000,67,96,186594
1.7204,0.2933,39.1900,67,96,186598
1.7253,0.2884,39.2500,67,96,186601
1.7595,0.2933,39.2500,67,96,186604
1.7791,0.2884,39.2200,67,96,186608
1.8524,0.3079,38.9600,67,96,186611
1.8182,0.2981,39.1600,67,96,186614
1.8133,0.2835,39.2500,67,96,186618
1.8231,0.2688,39.2200,67,96,186621
1.8328,0.2933,39.2500,67,96,186625
1.8915,0.3030,39.1200,67,96,186628
1.8866,0.2933,39.4100,67,96,186632
1.9110,0.2981,39.1200,67,96,186635
1.9062,0.2884,39.2200,67,96,186638
1.9208,0.2884,39.2500,67,96,186642
1.9648,0.2981,39.2200,67,96,186645
1.9697,0.2981,39.1900,67,96,186650
1.9550,0.2884,39.3200,67,96,186653
1.9844,0.2933,38.1800,67,96,186656
1.9355,0.2933,39.1900,67,96,186660
1.9110,0.2884,39.2500,67,96,186663
1.9110,0.2884,39.1600,67,96,186667
1.8817,0.2884,39.2500,67,96,186671
1.9159,0.2981,39.0000,67,96,186674
1.8622,0.2884,39.1600,67,96,186677
1.8475,0.2835,39.2200,67,96,186681
1.8280,0.2884,39.2200,67,96,186684
1.7937,0.2884,39.2200,67,96,186687
1.8377,0.3079,39.0600,67,96,186690
1.7937,0.2933,39.1900,67,96,186694
1.7840,0.2884,39.1600,67,96,186697
1.7742,0.2884,39.1900,67,96,186700
1.7693,0.2835,39.2200,67,96,186704
1.8084,0.2981,38.8700,67,96,186707
1.7742,0.2933,39.2200,67,96,186711
1.8035,0.2933,39.1600,67,96,186715
1.7840,0.2786,39.2200,67,96,186718
1.7742,0.2884,39.2500,67,96,186721
1.7742,0.2981,39.1200,67,96,186725
1.7155,0.2688,39.2200,67,96,186728
1.6862,0.2884,39.1200,67,96,186731
1.6227,0.2933,39.2200,67,96,186735
1.5982,0.2884,39.3500,67,96,186738
1.7009,0.2933,39.0900,67,96,186741
1.8622,0.2884,39.2500,67,96,186744
2.1994,0.2933,39.2200,67,96,186748
2.5367,0.2884,39.2500,67,96,186752
2.9277,0.2884,39.2800,67,96,186755
3.3089,0.2933,39.1900,67,96,186759
3.5582,0.2884,39.2200,67,96,186762
3.7586,0.2884,38.9600,67,96,186765
3.5386,0.2884,39.1900,67,96,186769
3.1720,0.2835,39.2500,67,96,186772
2.7566,0.2933,39.2200,67,96,186775
2.3069,0.2884,39.3200,67,96,186779
1.9941,0.3079,39.0300,67,96,186782
1.6813,0.2981,39.1200,67,96,186785
1.5298,0.2786,39.1600,67,96,186788
1.4809,0.2884,39.4400,67,96,186792
1.4809,0.2835,39.2200,67,96,186796
1.5494,0.2981,39.0900,67,96,186799
1.5494,0.3079,39.2500,67,96,186803
1.5885,0.2933,39.1200,67,96,186806
1.6031,0.2884,39.2500,67,96,186809
1.6227,0.2884,39.2500,67,96,186813
1.6667,0.2933,39.1600,67,96,186816
1.6569,0.2884,39.2800,67,96,186819
1.6960,0.2981,39.1900,67,96,186823
1.6667,0.2884,39.2200,67,96,186826
1.6764,0.2835,39.2200,67,96,186829
1.7449,0.2933,39.1600,67,96,186832
1.7009,0.2884,39.2800,67,96,186836
1.7302,0.2835,39.0300,67,96,186840
1.7107,0.2884,39.1600,67,96,186843
1.7058,0.2884,39.2800,67,96,186847
1.7253,0.2981,39.1600,67,96,186850
1.7107,0.2884,39.2500,67,96,186853
1.7742,0.2981,38.9600,67,96,186857
1.7253,0.2835,39.2200,67,96,186860
1.7546,0.2786,39.2500,67,96,186863
1.7498,0.2933,39.4400,67,96,186867
1.7546,0.2884,39.2200,67,96,186870
1.8377,0.3079,38.9300,67,96,186873
1.8133,0.2981,39.1900,67,96,186877
1.8133,0.2835,39.1900,67,96,186881
1.8280,0.2835,39.2800,67,96,186884
1.8328,0.2884,39.3500,67,96,186887
1.8866,0.3030,39.1200,67,96,186891
1.8719,0.2884,39.2200,67,96,186894
1.9013,0.2884,39.2500,67,96,186897
1.9013,0.2933,39.2200,67,96,186901
1.9062,0.2884,39.2500,67,96,186904
1.9404,0.2884,39.0300,67,96,186907
1.9306,0.2884,38.4300,67,96,186911
1.9795,0.2933,39.0600,67,96,186914
1.9697,0.2884,39.2200,67,96,186917
1.9844,0.2884,39.1900,67,96,186921
2.0088,0.2884,39.1200,67,96,186925
2.0088,0.2884,39.2200,67,96,186928
2.0528,0.2884,39.1600,67,96,186931
2.0723,0.2835,39.2200,67,96,186935
2.0674,0.2835,39.3200,67,96,186938
2.1065,0.2884,39.0900,67,96,186941
2.1359,0.2786,39.2500,67,96,186945
2.1554,0.2933,39.0000,67,96,186948
2.1359,0.2884,39.2800,67,96,186951
2.1652,0.2884,39.2500,67,96,186955
2.1945,0.2933,39.2200,67,96,186958
2.2043,0.2884,39.1600,67,96,186961
2.2776,0.2981,38.9600,67,96,186964
2.2581,0.3030,39.1600,67,96,186969
2.2678,0.2933,39.2500,67,96,186972
2.3021,0.2933,39.2500,67,96,186975
2.3412,0.2884,39.2200,67,96,186979
2.3949,0.3079,39.0000,67,96,186982
2.3656,0.3030,39.1600,67,96,186985
2.3607,0.2835,39.1900,67,96,186989
2.3754,0.2884,39.2200,67,96,186992
2.3900,0.2884,39.2200,67,96,186995
2.4585,0.2981,39.1200,67,96,186999
2.4291,0.2981,39.1900,67,96,187002
2.4389,0.2884,39.1200,67,96,187005
2.3998,0.2884,39.2200,67,96,187009
2.3949,0.2835,39.2200,67,96,187013
2.4047,0.2981,39.2500,67,96,187016
2.3607,0.2884,39.2200,67,96,187019
2.3607,0.2981,39.1900,67,96,187023
2.2776,0.2884,39.1900,67,96,187026
2.2336,0.2835,39.2500,67,96,187029
2.2141,0.2933,39.1900,67,96,187033
2.1359,0.2884,39.2200,67,96,187036
2.1163,0.2933,39.0900,67,96,187039
2.0332,0.2884,39.1200,67,96,187043
1.9648,0.2835,38.8100,67,96,187046
1.9306,0.2981,39.1200,67,96,187049
1.8622,0.2884,39.2200,67,96,187053
1.8671,0.2884,39.0300,67,96,187057
1.7937,0.2835,39.2200,67,96,187060
1.7595,0.2884,39.3200,67,96,187063
1.7498,0.2933,39.2500,67,96,187067
1.7155,0.2835,39.2200,67,96,187070
1.7498,0.2981,38.9300,67,96,187073
1.7107,0.2835,39.1900,67,96,187077
1.7009,0.2835,39.2200,67,96,187080
1.6960,0.2981,39.2200,67,96,187083
1.6764,0.2835,39.3200,67,96,187087
1.7302,0.3030,39.0600,67,96,187090
1.7351,0.2933,39.2200,67,96,187094
1.7155,0.2835,39.1200,67,96,187098
1.7155,0.2933,39.2200,67,96,187101
1.7155,0.2835,39.1600,67,96,187104
1.7498,0.2981,39.0600,67,96,187107
1.7253,0.2933,39.2200,67,96,187111
1.7595,0.2884,39.1200,67,96,187114
1.7498,0.2835,39.2800,67,96,187117
1.7742,0.2786,39.2500,67,96,187121
1.7840,0.3128,39.1600,67,96,187124
1.7791,0.2835,39.2500,67,96,187127
1.8133,0.2835,39.2800,67,96,187131
1.8035,0.2835,39.1900,67,96,187134
1.8133,0.2835,39.2800,67,96,187138
1.8426,0.2884,39.1200,67,96,187142
1.8182,0.2884,39.1600,67,96,187145
1.8915,0.2933,39.0000,67,96,187148
1.8231,0.2786,39.2200,67,96,187152
1.8377,0.2786,39.2200,67,96,187155
1.8524,0.2933,39.2800,67,96,187158
1.8328,0.2835,39.2500,67,96,187162
1.8866,0.3030,38.9300,67,96,187165
1.8671,0.2884,39.1200,67,96,187168
1.8524,0.2786,39.2800,67,96,187171
1.8866,0.2688,39.2200,67,96,187175
1.8622,0.2835,39.2500,67,96,187179
1.9159,0.3079,39.0600,67,96,187182
1.8719,0.2884,39.2200,67,96,187186
1.8768,0.2786,39.1600,67,96,187189
1.8671,0.2884,39.2500,67,96,187192
1.8768,0.2835,39.2200,67,96,187196
1.9110,0.2933,39.1200,67,96,187199
1.8915,0.2884,39.2200,67,96,187202
1.9159,0.2884,39.0900,67,96,187206
1.8768,0.2835,39.2800,67,96,187209
1.8719,0.2786,39.2200,67,96,187212
1.8866,0.2884,39.2200,67,96,187215
1.8719,0.2884,39.3200,67,96,187219
1.9013,0.2835,39.0900,67,96,187223
1.8622,0.2884,39.1900,67,96,187226
1.8671,0.2786,39.2500,67,96,187230
1.8866,0.2933,39.1900,67,96,187233
1.8622,0.2835,39.2200,67,96,187236
1.9159,0.2884,39.0000,67,96,187240
1.8866,0.2884,39.1600,67,96,187243
1.8719,0.2884,39.2200,67,96,187246
1.9062,0.2884,39.1900,67,96,187250
1.9013,0.2835,39.2500,67,96,187253
1.9844,0.2933,38.9600,67,96,187256
1.9941,0.2933,39.1200,67,96,187261
1.9844,0.2884,39.1900,67,96,187265
2.0039,0.2688,39.1200,67,96,187269
1.9795,0.2884,39.2500,67,96,187272
1.9697,0.2688,39.2500,67,96,187275
1.9844,0.2884,39.1900,67,96,187278
1.9697,0.2835,39.2200,67,96,187282
1.9990,0.2933,39.1200,67,96,187285
1.9746,0.2835,39.2200,67,96,187288
1.9648,0.2835,39.2800,67,96,187292
1.9697,0.3177,39.1200,67,96,187295
1.9208,0.2835,39.2500,67,96,187298
1.9208,0.3030,39.0600,67,96,187302
1.8964,0.2786,39.1600,67,96,187305
1.8475,0.2835,39.2500,67,96,187309
1.8475,0.2933,39.1600,67,96,187313
1.7986,0.2835,39.3200,67,96,187316
1.8280,0.2981,39.0000,67,96,187319
1.7889,0.2835,39.1900,67,96,187322
1.7791,0.2835,39.2500,67,96,187326
1.7840,0.2884,39.1900,67,96,187329
1.7693,0.2835,39.2800,67,96,187332
1.8231,0.2933,38.9600,67,96,187336
1.7791,0.2933,39.1200,67,96,187339
1.7693,0.2688,39.1900,67,96,187342
1.7351,0.3128,39.2500,67,96,187346
1.6764,0.2835,39.2800,67,96,187350
1.6716,0.3030,39.0900,67,96,187353
1.6129,0.2884,39.2500,67,96,187357
1.6813,0.2835,39.1900,67,96,187360
1.8328,0.2835,39.2500,67,96,187363
2.1114,0.2835,39.2200,67,96,187367
2.5269,0.2933,39.0600,67,96,187370
2.8641,0.2786,39.1900,67,96,187373
3.2600,0.2884,39.0900,67,96,187376
3.4995,0.2835,39.2500,67,96,187380
3.6510,0.2835,39.0600,67,96,187383
3.5826,0.2884,39.1600,67,96,187386
3.2551,0.2835,39.2200,67,96,187390
2.8592,0.2835,39.1200,67,96,187394
2.3656,0.2786,39.2500,67,96,187397
1.9501,0.2786,39.2500,67,96,187401
1.6618,0.2884,39.0900,67,96,187404
1.4614,0.2835,39.2500,67,96,187407
1.4272,0.2884,38.9600,67,96,187411
1.3930,0.2835,38.7700,67,96,187414
1.4223,0.2786,39.2200,67,96,187417
1.4663,0.2884,39.2200,67,96,187420
1.4956,0.2786,39.3200,67,96,187424
1.5836,0.2981,39.0300,67,96,187427
1.5885,0.2933,39.1900,67,96,187430
1.6031,0.2786,39.2500,67,96,187435
1.6422,0.2786,39.2200,67,96,187438
1.6325,0.2835,39.2500,67,96,187441
1.7009,0.3079,39.0600,67,96,187445
1.6764,0.2884,39.1900,67,96,187448
1.6764,0.2835,39.1600,67,96,187451
1.6764,0.2786,39.2200,67,96,187455
1.6813,0.2835,39.2200,67,96,187458
1.7204,0.2884,39.1200,67,96,187461
1.7155,0.2884,39.3200,67,96,187465
1.7498,0.2786,39.0900,67,96,187468
1.7155,0.2835,39.3200,67,96,187471
1.7400,0.2786,39.2500,67,96,187474
1.7449,0.2835,39.1600,67,96,187479
1.7400,0.2981,39.2200,67,96,187482
1.7889,0.2933,39.1200,67,96,187485
1.7644,0.2981,39.2200,67,96,187489
1.7742,0.2835,39.2500,67,96,187492
1.8035,0.2884,39.1600,67,96,187495
1.8035,0.2835,39.3800,67,96,187499
1.8524,0.2884,39.0600,67,96,187502
1.8426,0.2786,39.1200,67,96,187505
1.8377,0.2835,39.3200,67,96,187509
1.8622,0.2884,39.1900,67,96,187512
1.8426,0.2835,39.2500,67,96,187515
1.9013,0.2688,38.9600,67,96,187520
1.8573,0.2933,39.1200,67,96,187523
1.8671,0.2835,39.2800,67,96,187526
1.8768,0.3079,39.2200,67,96,187529
1.8671,0.2835,39.2500,67,96,187533
1.9306,0.3030,39.0300,67,96,187536
1.8964,0.2933,39.1900,67,96,187539
1.9062,0.2786,39.1600,67,96,187543
1.9062,0.2884,39.1900,67,96,187546
1.9110,0.2835,39.3200,67,96,187549
1.9550,0.2933,39.1200,67,96,187553
1.9306,0.2884,39.2200,67,96,187556
1.9550,0.2835,38.7400,67,96,187559
1.9404,0.2835,39.2200,67,96,187564
1.9550,0.2835,39.2200,67,96,187567
1.9990,0.2933,39.0900,67,96,187570
1.9746,0.2835,39.2200,67,96,187573
2.0088,0.3030,39.1900,67,96,187577
2.0283,0.2835,39.2200,67,96,187580
2.0088,0.2835,39.2200,67,96,187583
2.0332,0.2884,39.0900,67,96,187587
2.0430,0.2786,39.2200,67,96,187590
2.0723,0.2835,39.0600,67,96,187593
2.0479,0.2835,39.2800,67,96,187597
2.0674,0.2835,39.2200,67,96,187600
2.1017,0.2884,39.1200,67,96,187603
2.0870,0.2835,39.1600,67,96,187607
2.1359,0.2884,39.0000,67,96,187611
2.0919,0.2786,39.2200,67,96,187614
2.1017,0.2786,39.2200,67,96,187617
2.1359,0.2884,39.2200,67,96,187621
2.1065,0.2835,39.3200,67,96,187624
2.1603,0.2981,38.9300,67,96,187627
2.1114,0.2884,39.1900,67,96,187631
2.0870,0.2737,39.2200,67,96,187634
2.0626,0.2884,39.1600,67,96,187637
2.0235,0.2786,39.2200,67,96,187641
2.0479,0.3030,39.0300,67,96,187644
1.9550,0.2933,39.1600,67,96,187648
1.9062,0.2835,39.1600,67,96,187651
1.8231,0.2835,39.2500,67,96,187655
1.7595,0.2884,39.2200,67,96,187658
1.7351,0.2981,39.0900,67,96,187661
1.6569,0.2835,39.1600,67,96,187665
1.6227,0.2884,39.1200,67,96,187668
1.5494,0.3079,39.2200,67,96,187671
1.5005,0.2835,39.2500,67,96,187675
1.4761,0.2835,39.1600,67,96,187678
1.4370,0.2884,39.2200,67,96,187681
1.4272,0.2933,39.1600,67,96,187685
1.3783,0.2835,39.2500,67,96,187688
1.3587,0.2981,39.2500,67,96,187692
1.3587,0.2933,39.1600,67,96,187696
1.3148,0.2688,39.2800,67,96,187699
1.3245,0.2884,39.1900,67,96,187702
1.3245,0.2786,39.1200,67,96,187705
1.3050,0.2884,39.2200,67,96,187709
1.3196,0.2884,39.1900,67,96,187712
1.3050,0.2835,39.2500,67,96,187715
1.3441,0.2981,38.9600,67,96,187719
1.3148,0.2835,39.0000,67,96,187722
1.3196,0.2835,39.2500,67,96,187725
1.3196,0.2884,39.1900,67,96,187729
1.3050,0.2835,39.1900,67,96,187732
1.3490,0.2884,39.0600,67,96,187736
1.3196,0.2933,39.0900,67,96,187740
1.3196,0.2933,39.1600,67,96,187743
1.3245,0.2884,39.2200,67,96,187746
1.3294,0.2884,39.2200,67,96,187750
1.3587,0.2981,39.1900,67,96,187753
1.3343,0.2981,39.2200,67,96,187756
1.3441,0.2884,39.1900,67,96,187759
1.3343,0.2884,39.2200,67,96,187763
1.3343,0.2835,39.5700,67,96,187766
1.3539,0.2884,39.0900,67,96,187769
1.3245,0.2884,39.2200,67,96,187773
1.3441,0.2933,39.1600,67,96,187777
1.3196,0.2835,39.0900,67,96,187780
1.3245,0.2835,39.2500,67,96,187784
1.3343,0.2884,39.1600,67,96,187787
1.3245,0.2933,39.2800,67,96,187790
1.3490,0.2933,39.0600,67,96,187794
1.3196,0.2933,39.1900,67,96,187797
1.3392,0.2884,39.2500,67,96,187800
1.3392,0.2981,39.1600,67,96,187804
1.3196,0.2884,39.2500,67,96,187807
1.3490,0.2981,39.0300,67,96,187810
1.3294,0.2835,39.1600,67,96,187813
1.3148,0.2835,39.2500,67,96,187817
1.3294,0.3030,39.2200,67,96,187821
1.3050,0.2884,39.2200,67,96,187824
1.3490,0.3030,39.0000,67,96,187828
1.3245,0.2884,39.1600,67,96,187831
1.3001,0.2835,39.1900,67,96,187834
1.3001,0.2688,39.2200,67,96,187838
1.3001,0.2884,39.2200,67,96,187841
1.3245,0.3030,39.0600,67,96,187844
1.2952,0.2933,39.1900,67,96,187848
1.3001,0.2884,39.0900,67,96,187851
1.2952,0.2933,39.2200,67,96,187854
1.2854,0.2884,39.2800,67,96,187857
1.3245,0.2884,39.1200,67,96,187862
1.3148,0.2884,39.2200,67,96,187865
1.3343,0.2933,39.1200,67,96,187868
1.3050,0.2884,39.2500,67,96,187872
1.3294,0.2981,39.2500,67,96,187876
1.3294,0.2884,39.2500,67,96,187880
1.3343,0.2981,39.1600,67,96,187883
1.3050,0.2884,39.2200,67,96,187886
1.3245,0.3030,38.9600,67,96,187890
1.2952,0.2933,39.1600,67,96,187893
1.2854,0.2933,39.3200,67,96,187896
1.2854,0.2933,39.2200,67,96,187900
1.2757,0.2884,39.3200,67,96,187904
1.2952,0.3079,39.0600,67,96,187907
1.2414,0.2981,39.2200,67,96,187910
1.2121,0.2884,39.1600,67,96,187914
1.1779,0.2884,39.2500,67,96,187917
1.1437,0.2884,39.2200,67,96,187920
1.1535,0.3030,39.1900,67,96,187924
1.1144,0.3030,39.2500,67,96,187927
1.1095,0.2933,39.1200,67,96,187930
1.0899,0.2933,39.2200,67,96,187934
1.0704,0.2933,39.2500,67,96,187937
1.0899,0.2981,39.0600,67,96,187940
1.0753,0.3372,39.2200,67,96,187944
1.1193,0.2981,39.1200,67,96,187948
1.0655,0.2933,39.3200,67,96,187951
1.0606,0.2933,39.2200,67,96,187954
1.0411,0.3079,39.0900,67,96,187958
0.9726,0.2933,39.2500,67,96,187961
0.9384,0.2933,39.0600,67,96,187964
0.8993,0.2933,39.6000,67,96,187968
0.9384,0.2981,39.1900,67,96,187971
1.0948,0.2981,39.1600,67,96,187974
1.3343,0.2933,39.4800,67,96,187978
1.7302,0.3030,39.0600,67,96,187981
2.0870,0.2933,39.2500,67,96,187984
2.4585,0.2884,39.2200,67,96,187987
2.8006,0.3030,39.1600,67,96,187992
2.9765,0.2933,39.2500,67,96,187995
3.0205,0.3030,39.0000,67,96,187998
2.7028,0.2933,39.2200,67,96,188002
2.2874,0.2884,39.2500,67,96,188005
1.8182,0.2981,39.1900,67,96,188008
1.3734,0.2933,39.3500,67,96,188012
1.0899,0.3128,39.0300,67,96,188015
0.8700,0.3030,39.2800,67,96,188018
0.7722,0.2884,39.1900,67,96,188021
0.7478,0.3030,39.2500,67,96,188025
0.7722,0.2933,39.3200,67,96,188028
0.8113,0.3079,39.0600,67,96,188032
0.8309,0.3030,39.2200,67,96,188036
0.8651,0.3275,39.1200,67,96,188039
0.8847,0.2933,39.2500,67,96,188042
0.9140,0.2933,39.2200,67,96,188046
0.9531,0.2884,39.1600,67,96,188049
0.9482,0.2981,39.2200,67,96,188052
0.9775,0.3030,39.1200,67,96,188055
0.9629,0.2981,39.2500,67,96,188059
0.9726,0.2933,39.3800,67,96,188062
0.9922,0.2981,39.1600,67,96,188065
1.0068,0.2933,39.2200,67,96,188069
1.0411,0.2981,39.3500,67,96,188072
1.0411,0.2981,39.2500,67,96,188076
1.0459,0.2933,39.2500,67,96,188080
1.0704,0.2981,39.1600,67,96,188083
1.0704,0.2933,39.3200,67,96,188086
1.1046,0.3421,39.0000,67,96,188090
1.1095,0.3030,39.1200,67,96,188093
1.1095,0.2933,39.2500,67,96,188096
1.1290,0.2981,39.1900,67,96,188099
1.1290,0.2981,39.2200,67,96,188103
1.1730,0.3079,39.0600,67,96,188106
1.1486,0.2933,39.1200,67,96,188109
1.1681,0.2981,39.2500,67,96,188113
1.1779,0.2933,39.1900,67,96,188116
1.1730,0.2884,39.2500,67,96,188120
1.2170,0.3177,38.9300,67,96,188124
1.1926,0.3079,39.1600,67,96,188127
1.2023,0.2933,39.1200,67,96,188130
1.2072,0.2884,39.2200,67,96,188134
1.2072,0.2981,39.2500,67,96,188137
1.2561,0.3128,39.1200,67,96,188140
1.2268,0.2981,39.2200,67,96,188143
1.2561,0.2981,39.1600,67,96,188147
1.2561,0.2981,39.2800,67,96,188150
1.2659,0.2884,39.2200,67,96,188153
1.2952,0.3128,39.1900,67,96,188157
1.2708,0.3030,39.2200,67,96,188161
1.3099,0.3079,39.1200,67,96,188164
1.2952,0.2933,39.2500,67,96,188168
1.3148,0.2981,39.2500,67,96,188171
1.3343,0.3030,39.1600,67,96,188174
1.3392,0.2981,39.2500,67,96,188178
1.3636,0.3030,39.0600,67,96,188181
1.3685,0.2933,39.3200,67,96,188184
1.3978,0.2981,39.2500,67,96,188188
1.4370,0.3079,39.1600,67,96,188191
1.4418,0.2981,39.2200,67,96,188194
1.4907,0.3079,38.1100,67,96,188197
1.4565,0.3030,39.1900,67,96,188201
1.4761,0.2981,39.2500,67,96,188205
1.4858,0.3177,39.1900,67,96,188208
1.5005,0.3030,39.4400,67,96,188212
1.5689,0.3226,38.9600,67,96,188215
1.5543,0.3079,39.1900,67,96,188218
1.5543,0.2981,39.2200,67,96,188222
1.5689,0.3030,39.2500,67,96,188225
1.5836,0.2981,39.2200,67,96,188228
1.6422,0.3177,39.0600,67,96,188232
1.6178,0.3079,39.2200,67,96,188235
1.6227,0.2981,39.1200,67,96,188238
1.5982,0.3030,39.3200,67,96,188241
1.5836,0.3275,39.2500,67,96,188246
1.5934,0.3079,39.1200,67,96,188249
1.5494,0.3226,39.1900,67,96,188252
1.5298,0.2884,39.0900,67,96,188256
1.4663,0.3030,39.2200,67,96,188259
1.4125,0.2981,39.2200,67,96,188262
1.3734,0.3030,39.2200,67,96,188266
1.3099,0.2981,39.2200,67,96,188269
1.2708,0.3030,39.0900,67,96,188272
1.1975,0.3030,39.2200,67,96,188276
1.1486,0.2981,39.2500,67,96,188279
1.1193,0.3128,39.0900,67,96,188282
1.0606,0.2981,39.2500,67,96,188285
1.0557,0.3128,39.0300,67,96,188290
1.0166,0.3079,39.1200,67,96,188293
0.9873,0.3030,39.2800,67,96,188296
0.9775,0.3128,39.1900,67,96,188300
0.9433,0.3030,39.3500,67,96,188303
0.9580,0.3128,39.0000,67,96,188306
0.9384,0.2884,39.1900,67,96,188310
0.9286,0.3030,39.2500,67,96,188313
0.9335,0.3079,39.2200,67,96,188316
0.9238,0.3030,39.2500,67,96,188319
0.9580,0.3275,39.0000,67,96,188323
0.9433,0.3030,39.1200,67,96,188326
0.9531,0.2981,39.3500,67,96,188329
0.9726,0.3079,39.2200,67,96,188334
0.9677,0.3030,39.1200,67,96,188337
1.0117,0.3226,39.0600,67,96,188340
1.0068,0.3128,39.1600,67,96,188344
1.0068,0.3030,39.1600,67,96,188347
1.0117,0.3079,39.2200,67,96,188350
1.0264,0.3079,39.2200,67,96,188353
1.0557,0.3128,39.0600,67,96,188357
1.0411,0.3128,39.2200,67,96,188360
1.0606,0.3079,39.1200,67,96,188363
1.0508,0.3030,39.2200,67,96,188367
1.0704,0.3030,39.3200,67,96,188370
1.0948,0.3128,39.1900,67,96,188374
1.0948,0.2981,39.2200,67,96,188377
1.1095,0.3128,39.1200,67,96,188381
1.1046,0.3030,39.2500,67,96,188384
1.1144,0.2884,39.2200,67,96,188387
1.1290,0.3079,39.1200,67,96,188391
1.1241,0.3079,39.2500,67,96,188394
1.1437,0.3079,39.0600,67,96,188397
1.1290,0.3079,39.2200,67,96,188401
1.1388,0.2884,39.2200,67,96,188404
1.1632,0.3079,39.1600,67,96,188407
1.1632,0.3030,39.2500,67,96,188411
1.1926,0.3079,39.0600,67,96,188414
1.1730,0.3079,39.1600,67,96,188418
1.1632,0.2981,39.2200,67,96,188421
1.1730,0.3079,39.1900,67,96,188425
1.1681,0.3177,39.2200,67,96,188428
1.2170,0.3177,39.0000,67,96,188431
1.1877,0.3128,39.0900,67,96,188435
1.1877,0.2981,39.2200,67,96,188438
1.1975,0.3079,39.3800,67,96,188441
1.1975,0.3079,39.2500,67,96,188445
1.2463,0.3226,39.0600,67,96,188448
1.2366,0.3079,39.1600,67,96,188451
1.2414,0.3079,39.1900,67,96,188454
1.2414,0.3079,39.2200,67,96,188459
1.2512,0.2981,39.2500,67,96,188462
1.2903,0.3128,39.2500,67,96,188465
1.2903,0.3177,39.2200,67,96,188469
1.3050,0.3079,39.1200,67,96,188472
1.3099,0.3030,39.2500,67,96,188475
1.3245,0.3030,39.2200,67,96,188479
1.3539,0.3177,39.0900,67,96,188482
1.3930,0.3079,39.3200,67,96,188487
1.3636,0.3079,39.2200,67,96,188490
1.3636,0.3128,39.0000,67,96,188493
1.2414,0.3030,39.1900,67,96,188497
1.1046,0.3030,39.2200,67,96,188500
0.9629,0.3079,39.4400,67,96,188504
0.7771,0.3030,39.3500,67,96,188507
0.6647,0.3177,38.9300,67,96,188511
0.5034,0.3030,39.1600,67,96,188514
0.4106,0.3030,39.1900,67,96,188517
0.3226,0.3079,39.1900,67,96,188521
0.2542,0.3030,39.2200,67,96,188524
0.2199,0.3275,39.0900,67,96,188527
0.1808,0.3275,39.1600,67,96,188531
0.1760,0.2884,39.1900,67,96,188534
0.1857,0.3079,39.2200,67,96,188537
0.2053,0.3079,39.3200,67,96,188540
0.2444,0.3177,39.0600,67,96,188545
0.2493,0.3079,39.1200,67,96,188548
0.2737,0.3030,39.0900,67,96,188551
0.2981,0.3079,39.2200,67,96,188555
0.3128,0.2981,39.2500,67,96,188558
0.3177,0.3177,39.1200,67,96,188561
0.3079,0.3079,39.2200,67,96,188565
0.2639,0.3079,39.0900,67,96,188568
0.2493,0.3030,39.2500,67,96,188571
0.3079,0.3128,39.2200,67,96,188574
0.4741,0.2981,39.1600,67,96,188578
0.7283,0.3079,39.3200,67,96,188581
1.1095,0.3128,39.1200,67,96,188584
1.5103,0.3030,39.2200,67,96,188589
1.9208,0.3030,39.2200,67,96,188592
2.3363,0.3128,39.1200,67,96,188595
2.5464,0.3030,39.2200,67,96,188599
2.6344,0.3128,39.0300,67,96,188602
2.4194,0.3079,39.1200,67,96,188605
2.0528,0.3030,39.3200,67,96,188608
1.6325,0.3128,39.1600,67,96,188612
1.1975,0.3030,39.4100,67,96,188615
0.9042,0.3715,39.0000,67,96,188618
0.6843,0.3030,39.1600,67,96,188622
0.5718,0.3030,39.2200,67,96,188625
0.5376,0.3079,39.1200,67,96,188628
0.5376,0.3079,39.2200,67,96,188633
0.5963,0.3177,38.9600,67,96,188636
0.6256,0.3324,39.1200,67,96,188639
0.6891,0.3030,39.2200,67,96,188642
0.7331,0.3079,39.2200,67,96,188646
0.7771,0.3568,39.2200,67,96,188649
0.8504,0.3226,39.0600,67,96,188652
0.8553,0.3079,39.1900,67,96,188656
0.8847,0.3030,39.1200,67,96,188659
0.9238,0.3079,39.2500,67,96,188662
0.9482,0.3030,39.3200,67,96,188666
0.9971,0.3177,39.0600,67,96,188669
1.0068,0.3079,39.2200,67,96,188673
1.0411,0.3079,39.0900,67,96,188676
1.0606,0.3079,39.4400,67,96,188680
1.0802,0.3030,39.2800,67,96,188683
1.1193,0.3128,39.1200,67,96,188686
1.1193,0.3079,39.2200,67,96,188690
1.1632,0.3079,39.1200,67,96,188693
1.2023,0.3079,39.2500,67,96,188696
1.2023,0.3030,39.2500,67,96,188700
1.2317,0.3128,39.1200,67,96,188703
1.2512,0.3030,39.2200,67,96,188706
1.2903,0.3079,39.0300,67,96,188709
1.2903,0.3030,39.2200,67,96,188713
1.3294,0.3030,39.1900,67,96,188717
1.3636,0.3079,39.1600,67,96,188720
1.3734,0.3030,39.1600,67,96,188724
1.4467,0.3177,39.0300,67,96,188727
1.4174,0.3079,39.1900,67,96,188730
1.4321,0.3030,39.2200,67,96,188734
1.4663,0.3128,39.1900,67,96,188737
1.4761,0.2981,39.2200,67,96,188740
1.5396,0.3177,38.9300,67,96,188744
1.5347,0.2981,39.1200,67,96,188747
1.5347,0.2981,39.2200,67,96,188750
1.5591,0.3079,39.1900,67,96,188753
1.5738,0.3030,39.2500,67,96,188758
1.6373,0.3226,39.0600,67,96,188761
1.6178,0.3079,39.1600,67,96,188764
1.6178,0.3030,39.1600,67,96,188768
1.6276,0.3030,39.2200,67,96,188771
1.6471,0.3030,39.2500,67,96,188774
1.6911,0.3177,39.1600,67,96,188778
1.6960,0.3079,39.2200,67,96,188781
1.7400,0.3079,39.0900,67,96,188784
1.7351,0.2981,39.2200,67,96,188788
1.7498,0.3030,39.2500,67,96,188791
1.8035,0.3177,39.1200,67,96,188794
1.7986,0.3030,39.2200,67,96,188797
1.8524,0.3079,39.0900,67,96,188802
1.8426,0.3079,39.1900,67,96,188805
1.8622,0.3030,39.2500,67,96,188808
1.9062,0.3128,39.1900,67,96,188812
1.9159,0.3030,39.2500,67,96,188815
1.9844,0.3079,39.0000,67,96,188818
1.9795,0.3079,39.1900,67,96,188822
2.0039,0.3030,39.2800,67,96,188825
2.0332,0.3079,39.1600,67,96,188828
2.0186,0.2981,39.2500,67,96,188832
2.0968,0.3177,39.0000,67,96,188835
2.0381,0.3030,39.2200,67,96,188838
2.0528,0.3030,39.3500,67,96,188841
2.0577,0.3030,39.2200,67,96,188846
2.0332,0.3030,39.2500,67,96,188849
2.0723,0.3177,38.9600,67,96,188852
2.0137,0.3128,39.1600,67,96,188856
1.9599,0.2981,39.2500,67,96,188859
1.9306,0.3128,39.2200,67,96,188862
1.8671,0.3030,39.2500,67,96,188866
1.8622,0.3226,39.0600,67,96,188869
1.7644,0.3079,39.1600,67,96,188872
1.7058,0.3030,39.1600,67,96,188875
1.6520,0.3030,39.2200,67,96,188879
1.5982,0.3030,39.2200,67,96,188882
1.5738,0.3226,39.0900,67,96,188886
1.5152,0.3079,39.2500,67,96,188890
1.4956,0.3030,39.0900,67,96,188893
1.4565,0.3030,39.2200,67,96,188896
1.4223,0.3030,39.2500,67,96,188900
1.4174,0.3030,39.1900,67,96,188903
1.4076,0.3030,39.2200,67,96,188906
1.4076,0.3079,39.1200,67,96,188909
1.3832,0.3030,39.2500,67,96,188913
1.3881,0.3030,39.2200,67,96,188916
1.4027,0.3128,39.0600,67,96,188919
1.3930,0.2884,39.2200,67,96,188923
1.4125,0.3030,39.0300,67,96,188926
1.3978,0.3030,39.1200,67,96,188930
1.4027,0.3079,39.2200,67,96,188934
1.4467,0.3128,39.3800,67,96,188937
1.4370,0.2933,39.2500,67,96,188940
1.4809,0.3128,39.0000,67,96,188944
1.4467,0.2981,39.1600,67,96,188947
1.4614,0.3030,39.2500,67,96,188950
1.4761,0.3079,39.1600,67,96,188953
1.4761,0.3030,39.2200,67,96,188957
1.5347,0.3226,39.0600,67,96,188960
1.5103,0.3079,39.1200,67,96,188963
1.5152,0.2981,39.1900,67,96,188967
1.5200,0.3079,39.2200,67,96,188971
1.5249,0.3030,39.2500,67,96,188974
1.5787,0.3177,39.1900,67,96,188978
1.5591,0.2981,39.1900,67,96,188981
1.5689,0.3030,39.0600,67,96,188984
1.5640,0.3030,39.2200,67,96,188988
1.5738,0.3030,39.3200,67,96,188991
1.6080,0.3079,39.0600,67,96,188994
1.5885,0.3079,39.1900,67,96,188997
1.6080,0.3079,39.1900,67,96,189001
1.5885,0.3030,39.2200,67,96,189004
1.5934,0.3030,39.2500,67,96,189007
1.6129,0.3079,39.1600,67,96,189011
1.6080,0.3030,39.1900,67,96,189015
1.6471,0.3128,39.0900,67,96,189018
1.6080,0.2981,39.2800,67,96,189022
1.6129,0.2981,39.3500,67,96,189025
1.6227,0.3079,39.0900,67,96,189028
1.6080,0.3030,39.2200,67,96,189031
1.6471,0.3030,39.0600,67,96,189035
1.6276,0.3030,39.2200,67,96,189038
1.6373,0.3030,39.2800,67,96,189041
1.6520,0.3079,39.1600,67,96,189045
1.6325,0.2884,39.2200,67,96,189048
1.6813,0.3079,39.0900,67,96,189051
1.6764,0.3372,39.1600,67,96,189056
1.6862,0.2981,39.2200,67,96,189059
1.7107,0.3079,39.1900,67,96,189062
1.7009,0.2981,39.2500,67,96,189065
1.7449,0.3079,39.0600,67,96,189069
1.7058,0.3030,39.1900,67,96,189072
1.7204,0.2933,39.2500,67,96,189075
1.7449,0.3030,39.2200,67,96,189079
1.7498,0.3079,39.2200,67,96,189082
1.8084,0.3177,39.1900,67,96,189085
1.7840,0.3079,39.1600,67,96,189089
1.7791,0.2884,39.1600,67,96,189092
1.7595,0.3030,39.1600,67,96,189095
1.7449,0.3079,39.2500,67,96,189101
1.7400,0.2981,39.2500,67,96,189104
1.7351,0.3128,39.2500,67,96,189108
1.6862,0.3030,39.2200,67,96,189111
1.6813,0.3030,39.0300,67,96,189114
1.6422,0.3030,39.1900,67,96,189117
1.6325,0.2981,39.2200,67,96,189121
1.6373,0.3226,39.1900,67,96,189124
1.6178,0.3030,39.2200,67,96,189127
1.6618,0.3079,38.9600,67,96,189131
1.6276,0.2981,39.1600,67,96,189134
1.6325,0.2981,39.2500,67,96,189137
1.6569,0.3079,39.2200,67,96,189142
1.6569,0.2981,39.3500,67,96,189145
1.7107,0.3177,38.9600,67,96,189148
1.6667,0.3030,39.1200,67,96,189152
1.6276,0.2884,39.1900,67,96,189155
1.5738,0.3030,39.3200,67,96,189158
1.5249,0.2884,39.2800,67,96,189162
1.5494,0.3128,39.1200,67,96,189165
1.5738,0.3421,39.1900,67,96,189168
1.7351,0.3030,39.1200,67,96,189171
1.9795,0.3030,39.3200,67,96,189175
2.3314,0.2981,39.2500,67,96,189178
2.7761,0.3079,39.0300,67,96,189181
3.1232,0.3030,39.2200,67,96,189186
3.4800,0.3079,39.0900,67,96,189189
3.6510,0.2981,39.2500,67,96,189192
3.6510,0.3030,39.2200,67,96,189196
3.4506,0.3030,39.1600,67,96,189199
3.0352,0.2981,38.5800,67,96,189202
2.5904,0.3030,39.1200,67,96,189205
2.0919,0.2933,39.2200,67,96,189209
1.7351,0.2981,39.2200,67,96,189212
1.5152,0.3128,39.1200,67,96,189215
1.3930,0.2981,39.2500,67,96,189219
1.3930,0.3030,39.0300,67,96,189222
1.3685,0.3030,39.2500,67,96,189225
1.4076,0.2981,39.2500,67,96,189230
1.4614,0.3226,39.2500,67,96,189233
1.4907,0.2981,39.2200,67,96,189236
1.5787,0.3128,38.9600,67,96,189240
1.5934,0.3030,39.1600,67,96,189243
1.6178,0.2933,39.2200,67,96,189246
1.6520,0.3030,39.3200,67,96,189249
1.6667,0.3128,39.2200,67,96,189253
1.7400,0.3177,39.0300,67,96,189256
1.7058,0.3421,39.1600,67,96,189259
1.7107,0.2884,39.1600,67,96,189263
1.7204,0.3030,39.2200,67,96,189266
1.7302,0.3030,39.2500,67,96,189270
1.7693,0.3128,39.1200,67,96,189274
1.7546,0.3030,39.1900,67,96,189277
1.7693,0.2981,39.1900,67,96,189280
1.7644,0.2981,39.0900,67,96,189284
1.7791,0.2981,39.2200,67,96,189287
1.8133,0.3079,39.2500,67,96,189290
1.7986,0.2981,39.1900,67,96,189293
1.8377,0.2884,39.1200,67,96,189297
1.8182,0.3079,39.3200,67,96,189300
1.8377,0.2981,39.2500,67,96,189303
1.8768,0.3177,39.1200,67,96,189307
1.8622,0.2981,39.2200,67,96,189310
1.9013,0.3030,39.0600,67,96,189314
1.8915,0.3079,39.1900,67,96,189318
1.9013,0.2981,39.2500,67,96,189321
1.9453,0.3177,39.1900,67,96,189324
1.9355,0.2981,39.2200,67,96,189328
1.9844,0.3128,39.0300,67,96,189331
1.9501,0.2933,39.1900,67,96,189334
1.9550,0.2981,39.4400,67,96,189337
1.9844,0.3079,39.1900,67,96,189341
1.9844,0.2981,39.2200,67,96,189344
2.0577,0.3177,38.9300,67,96,189347
2.0283,0.3030,39.1200,67,96,189351
2.0283,0.2981,39.1200,67,96,189355
2.0430,0.3030,39.2200,67,96,189358
2.0430,0.2933,39.2500,67,96,189362
2.1163,0.3177,39.0300,67,96,189365
2.0821,0.2981,39.2200,67,96,189368
2.0968,0.2981,39.1600,67,96,189372
2.1261,0.2981,39.2800,67,96,189375
2.1017,0.2981,39.2500,67,96,189378
2.1603,0.3128,39.0600,67,96,189381
2.1408,0.3030,39.2200,67,96,189385
2.1799,0.3030,39.0900,67,96,189388
2.1603,0.2981,38.5200,67,96,189391
2.1750,0.2981,39.3200,67,96,189395
2.2190,0.3030,39.1900,67,96,189399
2.2190,0.3030,39.2200,67,96,189402
2.2630,0.3079,39.0900,67,96,189406
2.2776,0.2933,39.2200,67,96,189409
2.2581,0.2981,39.2200,67,96,189412
2.2825,0.2884,39.1200,67,96,189415
2.2776,0.2981,39.1200,67,96,189419
2.3265,0.3128,39.0600,67,96,189422
2.3118,0.2981,39.2200,67,96,189425
2.3265,0.2981,39.2500,67,96,189429
2.3509,0.3079,39.1900,67,96,189432
2.3265,0.3030,39.2200,67,96,189435
2.3803,0.3128,38.9600,67,96,189440
2.3363,0.3030,39.5100,67,96,189443
2.2972,0.2933,39.2200,67,96,189446
2.2776,0.3030,39.2800,67,96,189450
2.2141,0.3226,39.3200,67,96,189453
2.2190,0.3128,38.9600,67,96,189456
2.1065,0.3177,39.0900,67,96,189459
2.0381,0.2981,39.1900,67,96,189463
1.9892,0.3030,39.2200,67,96,189466
1.9208,0.2884,39.2200,67,96,189469
1.9110,0.3177,39.0900,67,96,189473
1.8280,0.3030,39.1900,67,96,189476
1.7791,0.2981,39.1200,67,96,189479
1.7302,0.2688,39.2200,67,96,189484
1.6960,0.3030,39.3200,67,96,189487
1.7058,0.3079,39.1600,67,96,189490
1.6471,0.3030,39.3200,67,96,189494
1.6325,0.3079,39.0300,67,96,189497
1.5934,0.2981,39.2500,67,96,189500
1.5836,0.2933,39.2200,67,96,189503
1.6080,0.3079,39.0900,67,96,189507
1.5738,0.2981,39.2200,67,96,189510
1.6325,0.2933,39.0900,67,96,189513
1.5640,0.2933,39.2800,67,96,189517
1.5689,0.3372,39.2200,67,96,189520
1.5982,0.3030,39.0900,67,96,189523
1.5934,0.3275,39.1900,67,96,189528
1.6276,0.3030,39.0300,67,96,189531
1.5982,0.2981,39.0600,67,96,189534
1.6178,0.2933,39.2200,67,96,189538
1.6227,0.3079,39.2800,67,96,189541
1.6080,0.2981,39.2200,67,96,189544
1.6618,0.3128,39.0000,67,96,189547
1.6227,0.2981,39.0600,67,96,189551
1.6276,0.2981,39.2500,67,96,189554
1.6471,0.3030,39.1900,67,96,189557
1.6422,0.2981,39.2200,67,96,189561
1.7155,0.3177,39.0000,67,96,189564
1.6911,0.3079,39.1200,67,96,189568
1.6862,0.2933,39.1900,67,96,189572
1.6911,0.3030,39.2200,67,96,189575
1.6764,0.2933,39.0600,67,96,189578
1.7155,0.3470,39.0600,67,96,189582
1.7009,0.3030,39.1900,67,96,189585
1.7155,0.2981,38.2700,67,96,189588
1.7204,0.3030,39.2200,67,96,189591
1.7009,0.2981,39.2500,67,96,189595
1.7253,0.3030,39.1900,67,96,189598
1.7204,0.2933,39.1900,67,96,189601
1.7351,0.3030,39.0900,67,96,189605
1.7058,0.3275,39.2500,67,96,189608
1.7107,0.2981,39.2200,67,96,189612
1.7204,0.3128,39.1600,67,96,189616
1.7204,0.2981,39.2200,67,96,189619
1.7400,0.2981,39.0900,67,96,189622
1.7253,0.2933,39.2500,67,96,189625
1.7253,0.2981,39.2500,67,96,189629
1.7498,0.3275,39.1200,67,96,189632
1.7204,0.2981,38.9300,67,96,189635
1.7595,0.3030,39.0000,67,96,189639
1.7742,0.2884,39.1200,67,96,189642
1.7400,0.2981,39.4800,67,96,189645
1.7595,0.3030,39.1900,67,96,189649
1.7449,0.2981,39.2800,67,96,189652
1.7889,0.3177,38.9300,67,96,189656
1.7498,0.2981,39.2800,67,96,189660
1.7595,0.2933,39.2200,67,96,189663
1.7791,0.3030,39.4100,67,96,189666
1.7840,0.2933,39.2200,67,96,189670
1.8475,0.3177,39.0600,67,96,189673
1.8182,0.3030,38.8100,67,96,189676
1.8231,0.3030,39.1900,67,96,189679
1.8231,0.2981,39.2200,67,96,189683
1.8280,0.2981,39.2500,67,96,189686
1.8719,0.3079,39.1600,67,96,189689
1.8573,0.2933,39.3200,67,96,189693
1.8817,0.3030,39.0900,67,96,189697
1.8524,0.2981,39.1600,67,96,189700
1.8671,0.2884,39.2500,67,96,189704
1.8768,0.3079,39.0300,67,96,189707
1.8035,0.3177,39.1600,67,96,189712
1.7644,0.2981,39.2500,67,96,189715
1.7693,0.3079,39.0300,67,96,189718
1.7009,0.2981,39.1900,67,96,189722
1.6667,0.2981,39.2200,67,96,189725
1.6618,0.3030,39.1900,67,96,189728
1.6520,0.2933,39.2500,67,96,189731
1.6862,0.3079,39.1200,67,96,189735
1.6569,0.2884,39.1200,67,96,189739
1.6471,0.2933,39.2800,67,96,189742
1.6471,0.2884,39.2200,67,96,189746
1.6520,0.2981,39.2800,67,96,189749
1.7107,0.3177,39.1200,67,96,189752
1.6764,0.3030,39.2500,67,96,189756
1.6569,0.3030,39.1600,67,96,189759
1.5982,0.2981,39.2500,67,96,189762
1.5396,0.3275,39.2500,67,96,189766
1.5298,0.3079,39.0600,67,96,189769
1.5249,0.3079,39.2200,67,96,189772
1.6520,0.2884,39.0900,67,96,189776
1.8573,0.2981,39.2800,67,96,189779
2.1896,0.2981,39.2200,67,96,189783
2.6149,0.2981,39.1600,67,96,189786
2.9961,0.3275,39.1900,67,96,189790
3.4115,0.2981,39.0900,67,96,189793
3.6559,0.2981,39.5700,67,96,189796
3.7537,0.2933,39.2500,67,96,189800
3.6364,0.3030,39.0900,67,96,189803
3.2307,0.2981,39.2200,67,96,189806
2.7859,0.2981,39.0300,67,96,189810
2.2385,0.2981,39.2500,67,96,189813
1.8280,0.2933,39.2200,67,96,189816
1.5640,0.3079,39.1900,67,96,189819
1.3930,0.2981,39.2200,67,96,189824
1.3685,0.3128,38.9600,67,96,189827
1.3490,0.3030,39.3500,67,96,189830
1.3685,0.3030,39.2200,67,96,189834
1.4125,0.3030,39.2800,67,96,189837
1.4467,0.2981,39.2200,67,96,189840
1.5445,0.3177,39.0600,67,96,189844
1.5347,0.3079,39.1600,67,96,189847
1.5543,0.2933,39.1900,67,96,189850
1.5591,0.3372,39.2500,67,96,189854
1.5836,0.2981,39.2800,67,96,189857
1.6276,0.3079,39.1200,67,96,189860
1.6129,0.3030,39.2200,67,96,189863
1.6325,0.2981,39.2200,67,96,189868
1.6325,0.2981,39.2500,67,96,189871
1.6569,0.3030,39.2200,67,96,189874
1.7107,0.3079,39.1900,67,96,189878
1.6862,0.2981,39.2800,67,96,189881
1.7253,0.3030,39.1200,67,96,189884
1.7107,0.2981,39.3200,67,96,189888
1.7302,0.3079,39.2500,67,96,189891
1.7644,0.3079,39.1200,67,96,189894
1.7498,0.3030,39.1900,67,96,189898
1.7840,0.3030,39.0300,67,96,189901
1.7791,0.2981,39.1200,67,96,189904
1.7791,0.2981,39.2200,67,96,189908
1.8133,0.3079,39.2200,67,96,189912
1.8084,0.2981,39.2500,67,96,189915
1.8719,0.3128,39.0000,67,96,189918
1.8328,0.2933,39.1600,67,96,189922
1.8426,0.2933,39.2500,67,96,189925
1.8719,0.3030,39.1600,67,96,189928
1.8866,0.2884,39.2200,67,96,189932
1.9453,0.3177,39.0300,67,96,189935
1.9208,0.3030,39.1200,67,96,189938
1.9110,0.2933,39.2500,67,96,189942
1.9306,0.2884,39.2200,67,96,189945
1.9355,0.2981,39.2500,67,96,189948
1.9990,0.3128,39.0900,67,96,189953
1.9795,0.3030,39.2200,67,96,189956
1.9990,0.2981,39.1200,67,96,189959
1.9892,0.2981,39.2200,67,96,189962
1.9892,0.2981,39.3500,67,96,189966
2.0430,0.3128,39.0600,67,96,189969
2.0088,0.3030,39.1900,67,96,189972
2.0430,0.3030,39.1600,67,96,189976
2.0235,0.3324,39.3200,67,96,189979
2.0430,0.2688,39.2500,67,96,189982
2.0821,0.3030,39.2500,67,96,189986
2.0870,0.3128,39.1900,67,96,189989
2.1408,0.3079,39.1200,67,96,189992
2.1212,0.2981,39.2200,67,96,189996
2.1457,0.2981,39.2500,67,96,190000
2.1799,0.3030,39.1200,67,96,190003
2.1750,0.2981,39.4400,67,96,190006
2.2385,0.3128,39.0300,67,96,190010
2.2239,0.2981,39.2800,67,96,190013
2.2678,0.3030,39.2500,67,96,190016
2.2727,0.3030,39.1900,67,96,190020
2.2727,0.2981,39.2200,67,96,190023
2.3509,0.3128,38.9600,67,96,190026
2.3265,0.3030,39.1900,67,96,190030
2.3216,0.2933,39.2200,67,96,190033
2.3363,0.3030,39.1600,67,96,190036
2.3216,0.3079,39.2200,67,96,190040
2.3803,0.3177,38.9600,67,96,190044
2.3118,0.3226,39.1200,67,96,190047
2.2923,0.2884,39.1900,67,96,190050
2.2581,0.3030,39.2200,67,96,190054
2.2092,0.3030,39.2200,67,96,190057
2.2092,0.3128,39.0900,67,96,190060
2.1163,0.3030,39.1900,67,96,190064
2.0626,0.2981,39.1200,67,96,190067
1.9892,0.3030,39.2200,67,96,190070
1.9257,0.2981,39.2500,67,96,190074
1.8866,0.2884,39.1600,67,96,190077
1.8084,0.3030,39.2200,67,96,190081
1.7693,0.2981,39.0900,67,96,190084
1.6960,0.2981,39.2200,67,96,190088
1.6569,0.3128,39.2500,67,96,190091
1.6520,0.3128,39.0900,67,96,190094
1.5982,0.3030,39.2200,67,96,190098
1.5982,0.2981,39.0900,67,96,190101
1.5591,0.2933,39.1600,67,96,190104
1.5543,0.2933,39.5100,67,96,190108
1.5689,0.2981,38.4900,67,96,190111
1.5591,0.3030,39.2200,67,96,190114
1.5885,0.3128,39.0300,67,96,190118
1.5494,0.3324,39.1900,67,96,190121
1.5445,0.2933,39.2500,67,96,190125
1.5591,0.3030,39.1200,67,96,190128
1.5591,0.2981,39.3200,67,96,190132
1.6080,0.3128,38.9600,67,96,190135
1.5787,0.3030,39.1600,67,96,190138
1.5885,0.2933,39.2200,67,96,190142
1.5982,0.3030,39.2200,67,96,190145
1.5934,0.2981,39.2500,67,96,190148
1.6618,0.3177,39.0300,67,96,190152
1.6422,0.2884,39.1900,67,96,190155
1.6325,0.3030,39.3500,67,96,190158
1.6373,0.2981,39.2200,67,96,190162
1.6422,0.2933,39.2500,67,96,190166
1.6911,0.3079,39.0600,67,96,190169
1.6764,0.3030,39.1900,67,96,190172
1.7058,0.3030,39.1200,67,96,190176
1.7009,0.2981,39.2200,67,96,190179
1.6960,0.2981,39.2500,67,96,190182
1.7058,0.3079,39.1600,67,96,190186
1.7009,0.2981,39.1900,67,96,190189
1.7302,0.3079,39.0900,67,96,190192
1.7009,0.3030,39.2200,67,96,190196
1.7009,0.2981,39.2500,67,96,190199
1.7155,0.3030,39.1200,67,96,190202
1.7253,0.3030,39.2200,67,96,190205
1.7302,0.2981,39.0600,67,96,190210
1.7155,0.3030,39.2200,67,96,190213
1.7351,0.2884,39.2500,67,96,190216
1.7449,0.3079,39.1200,67,96,190220
1.7253,0.2981,39.2200,67,96,190223
1.7693,0.3030,39.0000,67,96,190226
1.7498,0.2981,39.1200,67,96,190230
1.7498,0.2981,39.2500,67,96,190233
1.7498,0.3030,39.1900,67,96,190236
1.7498,0.2981,39.2500,67,96,190240
1.7986,0.3177,38.9600,67,96,190243
1.7546,0.2981,39.0900,67,96,190246
1.7595,0.2933,39.1600,67,96,190251
1.7742,0.2981,39.2200,67,96,190254
1.7644,0.2981,39.2500,67,96,190257
1.8182,0.3128,39.0900,67,96,190260
1.7791,0.3030,39.1900,67,96,190264
1.7889,0.2933,39.1600,67,96,190267
1.7840,0.2981,39.1600,67,96,190270
1.7937,0.2981,39.2500,67,96,190274
1.8231,0.3079,39.1600,67,96,190277
1.8280,0.2981,39.1900,67,96,190280
1.8524,0.2981,39.1200,67,96,190284
1.8426,0.2981,39.2500,67,96,190287
1.8622,0.2933,39.2500,67,96,190290
1.9110,0.3079,39.0900,67,96,190295
1.8915,0.2981,39.3200,67,96,190298
1.9208,0.2981,39.1200,67,96,190301
1.9208,0.2933,39.1900,67,96,190304
1.9110,0.2933,39.2500,67,96,190308
1.9404,0.2884,39.1200,67,96,190311
1.9306,0.2981,39.3200,67,96,190314
1.9697,0.3030,39.0000,67,96,190318
1.9648,0.3177,39.0000,67,96,190322
1.9110,0.2981,39.1200,67,96,190326
1.8768,0.2933,39.2500,67,96,190329
1.8475,0.3030,39.2200,67,96,190332
1.8133,0.2933,39.2200,67,96,190337
1.8377,0.3079,39.0900,67,96,190340
1.7889,0.3030,39.1900,67,96,190343
1.7742,0.2981,39.0900,67,96,190347
1.7449,0.2981,39.2200,67,96,190350
1.7400,0.2981,39.2500,67,96,190353
1.7742,0.3079,39.0600,67,96,190357
1.7449,0.2981,39.1900,67,96,190360
1.7742,0.3030,39.0900,67,96,190363
1.7498,0.2981,39.2200,67,96,190366
1.7498,0.2981,39.2200,67,96,190370
1.7546,0.2981,39.1600,67,96,190373
1.7302,0.3030,39.2200,67,96,190376
1.7400,0.2933,39.0600,67,96,190381
1.6276,0.2981,39.1900,67,96,190384
1.5787,0.2981,39.2500,67,96,190387
1.5982,0.3030,39.1200,67,96,190391
1.6716,0.2981,39.1600,67,96,190394
1.9159,0.2981,39.0000,67,96,190397
2.2092,0.2933,39.3200,67,96,190401
2.6100,0.2933,39.2200,67,96,190404
3.0352,0.3030,39.1900,67,96,190407
3.3920,0.2981,39.2800,67,96,190410
3.8172,0.3079,38.9300,67,96,190414
3.9052,0.3030,39.0000,67,96,190417
3.7537,0.2933,39.2800,67,96,190420
3.4213,0.3030,39.2200,67,96,190425
2.9179,0.2981,39.2200,67,96,190428
2.4731,0.3275,39.0600,67,96,190431
1.9892,0.3030,39.1600,67,96,190435
1.6911,0.2933,39.2500,67,96,190438
1.5298,0.2688,39.2200,67,96,190441
1.4712,0.2981,39.4100,67,96,190444
1.4956,0.3079,39.0900,67,96,190448
1.4956,0.2981,39.2200,67,96,190451
1.5445,0.2981,39.0600,67,96,190454
1.5640,0.2884,39.2200,67,96,190458
1.6080,0.2933,39.2200,67,96,190461
1.6716,0.2981,39.1900,67,96,190465
1.6471,0.2981,39.1600,67,96,190469
1.7155,0.2884,39.1200,67,96,190472
1.6618,0.2981,39.2200,67,96,190475
1.6862,0.2884,39.2200,67,96,190479
1.7204,0.3079,39.1600,67,96,190482
1.7155,0.2981,39.2200,67,96,190485
1.7595,0.2981,39.0300,67,96,190489
1.7595,0.2981,39.1600,67,96,190492
1.7693,0.2933,39.2500,67,96,190495
1.8084,0.3079,39.1600,67,96,190498
1.7986,0.2981,39.2500,67,96,190502
1.8524,0.3421,39.0000,67,96,190505
1.8084,0.2933,39.1600,67,96,190509
1.8182,0.2933,39.2800,67,96,190513
1.8524,0.3030,39.1900,67,96,190516
1.8328,0.2933,39.4400,67,96,190519
1.9306,0.3177,39.0000,67,96,190523
1.8671,0.2981,39.3200,67,96,190526
1.8671,0.3030,39.2200,67,96,190529
1.8719,0.2981,39.2500,67,96,190533
1.8719,0.2933,39.2200,67,96,190536
1.9306,0.3128,39.1900,67,96,190539
1.9013,0.3275,39.3200,67,96,190542
1.9208,0.2981,39.1200,67,96,190546
1.9110,0.2981,39.2200,67,96,190550
1.9257,0.2688,39.2200,67,96,190553
1.9844,0.3079,39.0000,67,96,190557
1.9746,0.2981,39.2200,67,96,190560
2.0235,0.3030,39.1200,67,96,190563
2.0039,0.2981,39.2200,67,96,190567
2.0137,0.2933,39.2200,67,96,190570
2.0479,0.3030,39.1200,67,96,190573
2.0528,0.2933,39.2200,67,96,190577
2.0968,0.2981,39.0600,67,96,190580
2.0821,0.2933,39.2200,67,96,190583
2.0919,0.2884,39.2200,67,96,190586
2.1261,0.3030,39.1200,67,96,190590
2.1163,0.2933,39.2800,67,96,190594
2.1701,0.2884,39.0000,67,96,190597
2.1457,0.2933,39.2200,67,96,190601
2.2043,0.2933,39.2500,67,96,190604
2.1994,0.3030,38.9600,67,96,190607
2.1994,0.2933,39.2200,67,96,190611
2.2727,0.3079,39.0300,67,96,190614
2.2532,0.2981,39.0900,67,96,190617
2.2776,0.2933,39.2800,67,96,190620
2.2727,0.3177,39.0900,67,96,190624
2.2874,0.2933,39.2200,67,96,190627
2.3558,0.3177,39.0300,67,96,190630
2.3167,0.2981,39.1600,67,96,190635
2.3216,0.2933,39.1600,67,96,190638
2.3216,0.3030,39.2200,67,96,190641
2.3216,0.2933,39.2200,67,96,190645
2.3656,0.3079,39.0900,67,96,190648
2.3314,0.3030,39.1600,67,96,190651
2.3460,0.2688,39.0900,67,96,190655
2.3118,0.2981,39.2200,67,96,190658
2.3265,0.2933,39.2200,67,96,190661
2.3021,0.3030,39.1600,67,96,190664
2.2336,0.2981,39.2200,67,96,190668
2.1896,0.3030,39.0900,67,96,190671
2.0528,0.2933,39.3200,67,96,190674
1.9208,0.3421,39.2200,67,96,190679
1.7791,0.3030,39.0900,67,96,190682
1.5591,0.2981,39.2200,67,96,190685
1.3783,0.2933,39.0600,67,96,190689
1.1584,0.2933,39.1600,67,96,190692
0.9580,0.2933,39.2200,67,96,190695
0.7771,0.3079,39.2200,67,96,190699
0.5963,0.2933,39.2200,67,96,190702
0.4790,0.3079,38.9600,67,96,190705
0.3177,0.2981,39.2800,67,96,190708
0.2199,0.2933,39.2200,67,96,190712
0.1515,0.2981,39.1900,67,96,190715
0.1222,0.2933,39.3800,67,96,190718
0.1124,0.3372,38.9600,67,96,190723
0.1075,0.2933,39.1600,67,96,190726
0.1320,0.2884,39.2200,67,96,190729
0.1613,0.3030,39.2200,67,96,190733
0.1711,0.2933,39.2200,67,96,190736
0.2395,0.3226,39.0600,67,96,190739
0.2688,0.2981,39.1600,67,96,190742
0.3128,0.2933,39.1600,67,96,190746
0.3568,0.3128,39.3200,67,96,190749
0.4008,0.2884,39.3200,67,96,190752
0.4545,0.3030,39.2500,67,96,190756
0.4888,0.3079,39.1900,67,96,190759
0.5425,0.2981,39.1200,67,96,190763
0.5767,0.2933,39.3200,67,96,190767
0.6207,0.3079,39.3200,67,96,190770
0.6745,0.2688,39.1600,67,96,190773
0.7136,0.2884,39.2200,67,96,190776
0.7722,0.2981,39.0900,67,96,190780
0.8162,0.2933,39.2500,67,96,190783
0.8407,0.2933,39.2500,67,96,190786
0.8798,0.2933,39.0900,67,96,190790
0.9140,0.2884,39.1900,67,96,190793
0.9726,0.2884,39.0900,67,96,190796
0.9824,0.2933,39.3500,67,96,190800
1.0215,0.2835,39.3200,67,96,190803
1.0655,0.3030,39.1200,67,96,190807
1.0753,0.3177,39.2500,67,96,190810
1.1437,0.3030,39.0300,67,96,190814
1.1535,0.2933,39.1600,67,96,190817
1.1779,0.2933,39.2200,67,96,190820
1.2268,0.3030,39.2200,67,96,190824
1.2366,0.2884,39.2500,67,96,190827
1.2903,0.3030,38.9600,67,96,190830
1.2708,0.2884,39.1900,67,96,190834
1.3050,0.2884,39.2200,67,96,190837
1.3245,0.2981,39.3200,67,96,190840
1.3539,0.2933,39.2500,67,96,190844
1.4125,0.3079,39.1200,67,96,190848
1.3978,0.3030,39.1600,67,96,190851
1.4125,0.2884,39.1600,67,96,190854
1.4321,0.2981,39.2200,67,96,190858
1.4516,0.2933,38.8700,67,96,190861
1.5005,0.2981,39.1600,67,96,190864
1.4956,0.2981,39.1900,67,96,190868
1.5152,0.2933,39.1200,67,96,190871
1.5152,0.2933,39.3500,67,96,190874
1.5445,0.2884,39.2500,67,96,190878
1.5640,0.3079,39.0900,67,96,190881
1.5445,0.2933,39.3200,67,96,190884
1.5738,0.2981,39.1200,67,96,190888
1.5543,0.3226,39.3200,67,96,190892
1.5689,0.2884,39.2500,67,96,190895
1.5934,0.3079,39.1600,67,96,190899
1.5982,0.2688,39.2200,67,96,190902
1.6276,0.2981,39.1600,67,96,190905
1.6031,0.2933,39.2200,67,96,190908
1.6080,0.2884,39.2200,67,96,190912
1.6373,0.3030,39.1900,67,96,190915
1.6276,0.2933,39.2500,67,96,190918
1.6813,0.3030,39.0300,67,96,190922
1.6471,0.2933,39.1900,67,96,190925
1.6667,0.2884,39.2200,67,96,190928
1.6813,0.2981,39.1900,67,96,190932
1.7155,0.2933,38.4600,67,96,190937
1.7400,0.2884,39.2200,67,96,190941
1.7840,0.3030,39.0600,67,96,190944
1.7693,0.3079,39.1900,67,96,190947
1.8035,0.2884,39.0600,67,96,190951
1.7937,0.2933,39.2200,67,96,190954
1.7986,0.2835,39.2200,67,96,190957
1.8328,0.2933,39.1600,67,96,190961
1.8328,0.2884,39.3200,67,96,190964
1.8817,0.2933,39.0900,67,96,190967
1.8719,0.2884,39.2500,67,96,190970
1.8915,0.2933,39.2200,67,96,190974
1.9159,0.2981,39.1600,67,96,190978
1.9062,0.2933,39.2500,67,96,190981
1.9404,0.2981,39.1600,67,96,190985
1.9159,0.2933,39.2200,67,96,190988
1.9355,0.2884,39.1600,67,96,190991
1.9550,0.2981,39.1900,67,96,190995
1.9257,0.2981,39.2200,67,96,190998
1.9697,0.3030,38.9300,67,96,191001
1.9208,0.2981,39.0900,67,96,191005
1.8915,0.2835,39.2200,67,96,191008
1.8817,0.2981,39.1200,67,96,191011
1.8524,0.2933,39.2800,67,96,191015
1.8964,0.3079,39.0600,67,96,191019
1.8377,0.3079,39.1600,67,96,191022
1.8231,0.2884,39.1600,67,96,191025
1.8084,0.3226,39.2500,67,96,191029
1.7986,0.2933,39.2800,67,96,191032
1.8328,0.3030,39.1200,67,96,191035
1.8182,0.2981,39.1900,67,96,191039
1.8231,0.2933,39.1900,67,96,191042
1.7986,0.2884,39.2200,67,96,191045
1.7889,0.2884,39.2200,67,96,191049
1.7840,0.2884,39.1600,67,96,191052
1.7058,0.2933,39.2200,67,96,191055
1.6667,0.3128,39.1200,67,96,191059
1.6031,0.2884,39.2500,67,96,191063
1.6520,0.2933,39.2200,67,96,191066
1.8182,0.2981,39.1200,67,96,191069
2.0381,0.3128,39.3200,67,96,191073
2.4145,0.2933,39.0300,67,96,191076
2.7810,0.2933,39.1200,67,96,191079
3.1916,0.2933,39.2500,67,96,191083
3.5630,0.3226,39.1600,67,96,191086
3.7977,0.2933,39.2200,67,96,191089
3.9198,0.3030,38.9600,67,96,191093
3.6070,0.2884,39.1900,67,96,191096
3.1818,0.2884,39.2500,67,96,191099
2.6784,0.2933,39.1900,67,96,191104
2.1994,0.2884,39.2500,67,96,191107
1.8964,0.3079,38.9600,67,96,191110
1.6325,0.2981,39.1600,67,96,191114
1.5249,0.3030,39.1900,67,96,191117
1.4956,0.2835,39.1900,67,96,191120
1.5103,0.2884,39.2500,67,96,191123
1.5934,0.3079,39.0900,67,96,191127
1.6129,0.2981,39.2500,67,96,191130
1.6667,0.3030,39.0900,67,96,191133
1.6813,0.2933,39.2500,67,96,191137
1.7058,0.2933,39.2200,67,96,191140
1.7546,0.3030,39.0600,67,96,191143
1.7400,0.2933,39.1900,67,96,191148
1.7840,0.3030,39.1200,67,96,191151
1.7498,0.2884,39.2200,67,96,191154
1.7498,0.2884,39.2200,67,96,191158
1.7644,0.2933,39.0900,67,96,191161
1.7595,0.2835,39.2200,67,96,191164
1.7986,0.2933,39.0600,67,96,191167
1.7791,0.2835,39.2500,67,96,191171
1.7937,0.2884,39.2200,67,96,191174
1.8182,0.3079,39.1200,67,96,191177
1.8084,0.2981,39.2200,67,96,191181
1.8671,0.2981,38.1100,67,96,191184
1.8475,0.2933,39.1900,67,96,191187
1.8573,0.2884,39.0600,67,96,191192
1.8671,0.2981,39.1600,67,96,191195
1.8671,0.2884,39.2200,67,96,191198
1.9697,0.3079,38.9300,67,96,191202
1.9110,0.2933,39.2200,67,96,191205
1.9208,0.2835,39.1900,67,96,191208
1.9355,0.2933,39.2200,67,96,191212
1.9404,0.2933,39.2200,67,96,191215
1.9892,0.3030,39.0600,67,96,191218
1.9648,0.3275,39.1600,67,96,191221
1.9795,0.2884,39.1200,67,96,191225
1.9746,0.2933,39.1900,67,96,191228
1.9795,0.2884,39.2200,67,96,191232
2.0137,0.2981,39.0900,67,96,191236
2.0039,0.2835,39.2200,67,96,191239
2.0430,0.2884,39.0900,67,96,191242
2.0283,0.2884,39.2200,67,96,191246
2.0430,0.2933,39.2200,67,96,191249
2.0772,0.2884,39.1200,67,96,191252
2.0674,0.2884,39.2200,67,96,191255
2.1114,0.2884,39.1200,67,96,191259
2.0968,0.2884,39.2200,67,96,191262
2.1163,0.2884,39.3200,67,96,191265
2.1848,0.2981,39.1600,67,96,191269
2.1457,0.2933,39.2800,67,96,191272
2.1994,0.2884,39.0000,67,96,191276
2.1848,0.2933,39.1600,67,96,191280
2.1896,0.2981,39.2500,67,96,191283
2.2336,0.2981,39.2800,67,96,191286
2.2287,0.2884,39.2800,67,96,191290
2.3314,0.3030,38.9600,67,96,191293
2.2483,0.2884,39.1600,67,96,191296
2.2874,0.2786,39.2500,67,96,191300
2.2825,0.2933,39.1900,67,96,191303
2.2874,0.3177,39.2200,67,96,191306
2.3803,0.3079,39.0000,67,96,191309
2.3412,0.2981,39.2500,67,96,191313
2.3705,0.2884,39.1900,67,96,191316
2.3460,0.2835,39.1600,67,96,191320
2.3509,0.2835,39.2200,67,96,191324
2.4242,0.3079,39.1200,67,96,191327
2.4047,0.2981,39.3200,67,96,191330
2.4242,0.2884,39.1200,67,96,191334
2.3949,0.2884,39.2200,67,96,191337
2.3949,0.2933,39.2500,67,96,191340
2.4194,0.2981,39.2200,67,96,191344
2.3607,0.2688,39.1900,67,96,191347
2.3607,0.2981,39.3500,67,96,191350
2.2825,0.3421,39.3200,67,96,191353
2.2385,0.2933,39.2200,67,96,191357
2.2043,0.3079,39.1900,67,96,191361
2.1505,0.2884,39.2500,67,96,191364
2.1065,0.2933,39.1600,67,96,191368
2.0137,0.2933,39.2200,67,96,191371
1.9501,0.2884,39.2500,67,96,191374
1.9013,0.3079,39.1200,67,96,191378
1.8182,0.2688,39.2200,67,96,191381
1.8133,0.2981,39.0000,67,96,191384
1.7400,0.2835,39.1900,67,96,191388
1.7058,0.2884,39.2500,67,96,191391
1.7058,0.2981,39.1900,67,96,191394
1.6325,0.2884,39.2200,67,96,191397
1.6520,0.2981,38.9600,67,96,191401
1.6129,0.2933,39.1900,67,96,191405
1.5934,0.2786,39.1900,67,96,191408
1.5934,0.3030,39.1900,67,96,191412
1.6178,0.2786,39.2500,67,96,191415
1.6276,0.2981,39.0300,67,96,191418
1.5934,0.2688,39.1900,67,96,191422
1.6031,0.2884,38.6800,67,96,191425
1.5982,0.2933,39.2200,67,96,191428
1.6031,0.2884,39.3500,67,96,191432
1.6276,0.2981,39.1900,67,96,191435
1.6129,0.2884,39.2200,67,96,191438
1.6325,0.3226,39.1900,67,96,191442
1.6129,0.2884,39.2200,67,96,191446
1.6178,0.2981,39.2200,67,96,191449
1.6422,0.2884,39.1900,67,96,191452
1.6373,0.3226,39.2200,67,96,191456
1.6667,0.2884,39.0600,67,96,191459
1.6569,0.2981,39.2500,67,96,191462
1.6813,0.2884,39.2500,67,96,191466
1.7107,0.3079,39.1200,67,96,191469
1.7009,0.2884,39.2500,67,96,191472
1.7449,0.3030,39.0000,67,96,191476
1.7595,0.2933,39.1900,67,96,191479
1.7253,0.2884,39.2500,67,96,191482
1.7546,0.2884,39.1600,67,96,191486
1.7400,0.2884,39.2500,67,96,191490
1.7889,0.3030,38.9300,67,96,191493
1.7400,0.2884,39.1200,67,96,191497
1.7302,0.2835,39.1900,67,96,191500
1.7400,0.2884,39.2200,67,96,191503
1.7449,0.2884,39.3200,67,96,191506
1.7986,0.3030,39.0600,67,96,191510
1.7742,0.2933,39.1600,67,96,191513
1.7693,0.3079,39.1600,67,96,191516
1.7595,0.2884,39.2200,67,96,191520
1.7546,0.3226,39.2200,67,96,191523
1.7840,0.3030,39.1600,67,96,191526
1.7644,0.3275,39.1600,67,96,191531
1.7791,0.2933,39.0900,67,96,191534
1.7449,0.2933,39.2500,67,96,191537
1.7449,0.2884,39.2200,67,96,191541
1.7840,0.2981,39.0600,67,96,191544
1.7595,0.3030,39.1600,67,96,191549
1.7449,0.2933,39.2200,67,96,191552
1.7791,0.2981,38.9600,67,96,191555
1.7302,0.2933,39.1600,67,96,191558
1.7155,0.2835,39.1900,67,96,191562
1.7253,0.2884,39.1900,67,96,191565
1.7155,0.2884,39.3500,67,96,191568
1.8084,0.3079,38.9600,67,96,191572
1.7449,0.2884,39.1200,67,96,191576
1.7498,0.2786,39.1900,67,96,191579
1.7400,0.2884,39.1200,67,96,191583
1.7351,0.2688,39.2800,67,96,191586
1.7791,0.3030,39.0900,67,96,191589
1.7840,0.2933,39.1900,67,96,191593
1.7644,0.2884,39.1200,67,96,191596
1.7986,0.2933,39.3200,67,96,191599
1.7644,0.2884,39.2500,67,96,191603
1.7937,0.2933,39.0600,67,96,191606
1.7742,0.2884,39.2200,67,96,191609
1.8084,0.2981,39.0900,67,96,191612
1.7937,0.2884,39.3200,67,96,191617
1.8035,0.2884,39.2500,67,96,191620
1.8182,0.2884,39.1600,67,96,191623
1.8035,0.2884,39.2200,67,96,191627
1.8280,0.2884,39.0600,67,96,191630
1.8084,0.2884,39.2200,67,96,191633
1.8084,0.2884,39.0900,67,96,191637
1.8328,0.2981,39.1200,67,96,191640
1.8133,0.2688,39.2500,67,96,191643
1.8524,0.2933,38.9300,67,96,191647
1.8133,0.2835,39.1900,67,96,191650
1.8182,0.2933,39.2200,67,96,191653
1.8328,0.2933,39.2800,67,96,191656
1.8231,0.2884,39.2500,67,96,191661
1.8719,0.3030,38.9600,67,96,191664
1.8426,0.2884,39.1200,67,96,191667
1.8475,0.2835,39.2800,67,96,191671
1.8671,0.2933,39.2500,67,96,191674
1.8719,0.2884,39.2800,67,96,191677
1.9599,0.3030,39.0300,67,96,191681
1.8866,0.2933,39.1900,67,96,191684
1.8915,0.3226,39.1900,67,96,191687
1.8915,0.2884,39.2200,67,96,191691
1.9013,0.3226,39.3200,67,96,191694
1.9404,0.3030,39.1900,67,96,191697
1.9208,0.3226,39.2200,67,96,191702
1.9453,0.2688,39.0900,67,96,191705
1.9110,0.2884,39.3800,67,96,191708
1.9062,0.2835,39.2200,67,96,191712
1.9159,0.2884,39.1200,67,96,191715
1.9110,0.2884,39.2500,67,96,191718
1.9257,0.2884,39.1600,67,96,191721
1.8915,0.2884,39.2200,67,96,191725
1.8719,0.2835,39.2800,67,96,191728
1.8768,0.2981,39.1600,67,96,191731
1.8426,0.2884,39.1900,67,96,191735
1.8915,0.2933,38.9300,67,96,191738
1.8377,0.2981,39.0900,67,96,191741
1.8084,0.2786,39.2200,67,96,191746
1.8084,0.2933,39.2800,67,96,191749
1.7889,0.2786,39.2200,67,96,191752
1.8231,0.2981,38.9600,67,96,191756
1.7840,0.2933,39.1200,67,96,191759
1.7644,0.2835,39.2800,67,96,191762
1.7546,0.3030,39.2200,67,96,191766
1.7498,0.2835,39.2500,67,96,191769
1.7986,0.3079,39.0300,67,96,191772
1.7595,0.2933,39.1900,67,96,191775
1.7302,0.2884,39.1200,67,96,191779
1.6716,0.2933,39.2200,67,96,191782
1.5934,0.2933,39.2200,67,96,191785
1.5689,0.2981,39.1200,67,96,191790
1.5591,0.2884,39.1900,67,96,191793
1.6911,0.2884,39.0900,67,96,191796
1.8915,0.2884,39.2500,67,96,191800
2.2287,0.2786,39.2200,67,96,191803
2.6491,0.2981,38.9600,67,96,191806
3.0059,0.2933,39.2200,67,96,191810
3.4213,0.2884,39.0900,67,96,191813
3.6901,0.2835,39.1200,67,96,191816
3.7977,0.2835,39.2500,67,96,191819
3.6804,0.2933,38.6200,67,96,191823
3.2796,0.2884,39.2200,67,96,191826
2.8446,0.2933,39.0900,67,96,191830
2.3021,0.2884,39.2500,67,96,191834
1.9062,0.2786,39.2200,67,96,191837
1.6618,0.2981,39.0600,67,96,191840
1.5054,0.2786,39.2200,67,96,191844
1.4858,0.2981,38.9600,67,96,191847
1.4565,0.2884,39.1600,67,96,191850
1.4809,0.2835,39.2200,67,96,191854
1.5152,0.2884,39.2500,67,96,191857
1.5396,0.2884,39.2800,67,96,191860
1.6129,0.3079,39.0000,67,96,191863
1.5982,0.2884,39.1600,67,96,191867
1.5982,0.2835,39.1600,67,96,191870
1.6129,0.2688,39.2200,67,96,191874
1.6227,0.2884,39.2200,67,96,191878
1.6764,0.3030,39.0600,67,96,191881
1.6471,0.2884,39.2800,67,96,191884
1.6667,0.2933,39.1900,67,96,191888
1.6618,0.2884,39.2200,67,96,191891
1.6764,0.2835,39.2200,67,96,191894
1.7107,0.2981,39.1600,67,96,191898
1.7058,0.3275,39.2200,67,96,191901
1.7351,0.2933,39.0900,67,96,191904
1.7253,0.2835,39.2500,67,96,191908
1.7449,0.2884,39.2200,67,96,191911
1.7791,0.2933,39.1200,67,96,191915
1.7840,0.2884,39.2500,67,96,191918
1.8133,0.2933,39.0300,67,96,191922
1.7840,0.2884,39.2500,67,96,191925
1.7937,0.2884,39.2500,67,96,191928
1.8182,0.2933,39.1900,67,96,191932
1.8426,0.2835,39.2800,67,96,191935
1.8671,0.2981,38.9600,67,96,191938
1.8426,0.2933,39.1600,67,96,191942
1.8426,0.2835,39.2200,67,96,191945
1.8671,0.2933,39.2200,67,96,191948
1.8768,0.2835,39.0000,67,96,191952
1.9501,0.3128,39.0300,67,96,191955
1.9208,0.2981,39.1600,67,96,191959
1.9208,0.2981,39.1600,67,96,191963
1.9257,0.2688,39.2200,67,96,191966
1.9355,0.2835,39.2200,67,96,191969
1.9892,0.3030,39.0900,67,96,191972
1.9844,0.2933,39.1900,67,96,191976
2.0137,0.2884,39.0600,67,96,191979
1.9990,0.2981,39.2200,67,96,191982
2.0137,0.2835,39.2800,67,96,191986
2.0479,0.3275,39.1900,67,96,191989
2.0430,0.2933,39.2200,67,96,191992
2.0870,0.2981,39.0900,67,96,191996
2.0626,0.2835,39.2200,67,96,192000
2.0723,0.2884,39.2500,67,96,192003
2.1114,0.2981,39.0900,67,96,192007
2.1017,0.2884,39.2200,67,96,192010
2.1505,0.2884,39.0900,67,96,192013
2.1408,0.2786,39.1600,67,96,192016
2.1554,0.2786,39.2200,67,96,192020
2.1848,0.2981,39.0900,67,96,192023
2.1701,0.2786,39.2200,67,96,192026
2.2434,0.2688,39.0000,67,96,192030
2.2043,0.2884,39.0600,67,96,192033
2.2190,0.2835,39.2500,67,96,192036
2.2532,0.2933,39.1600,67,96,192040
2.2434,0.2884,39.2500,67,96,192044
2.3118,0.2981,38.9300,67,96,192047
2.2727,0.2884,38.7400,67,96,192050
2.2874,0.2884,39.2200,67,96,192054
2.3021,0.2884,39.2200,67,96,192057
2.3021,0.2835,39.2200,67,96,192060
2.3705,0.3079,39.0300,67,96,192064
2.3216,0.2933,39.1600,67,96,192067
2.3460,0.2835,39.1900,67,96,192070
2.3021,0.2884,39.2200,67,96,192074
2.2874,0.2835,39.2500,67,96,192077
2.2972,0.2981,39.0600,67,96,192080
2.2141,0.2933,39.1900,67,96,192084
2.1799,0.2884,39.1200,67,96,192088
2.1017,0.2884,39.2200,67,96,192091
2.0772,0.2884,39.2500,67,96,192094
2.0039,0.2884,39.1600,67,96,192098
1.9159,0.2884,39.2500,67,96,192101
1.8915,0.2981,39.1200,67,96,192104
1.7889,0.2884,39.2800,67,96,192108
1.7400,0.2933,39.2200,67,96,192111
1.7155,0.2884,39.0600,67,96,192114
1.6667,0.2835,39.0600,67,96,192118
1.6520,0.2884,39.0300,67,96,192121
1.5885,0.2981,39.2200,67,96,192124
1.5543,0.2835,39.2500,67,96,192129
1.5591,0.2981,39.4100,67,96,192132
1.5249,0.2884,39.2200,67,96,192135
1.5494,0.2981,38.9600,67,96,192138
1.5103,0.2981,39.1900,67,96,192142
1.4907,0.2835,39.2200,67,96,192145
1.4956,0.2933,39.1900,67,96,192148
1.4956,0.2835,39.3500,67,96,192152
1.5494,0.3324,38.9300,67,96,192155
1.5543,0.2981,39.1200,67,96,192160
1.5445,0.2884,39.1900,67,96,192163
1.5738,0.2933,39.0900,67,96,192166
1.5445,0.2884,39.2200,67,96,192171
1.5494,0.2786,39.2200,67,96,192174
1.5738,0.2884,39.2500,67,96,192177
1.5689,0.2884,39.2200,67,96,192181
1.6129,0.2688,39.1200,67,96,192184
1.5885,0.2981,39.3200,67,96,192187
1.5934,0.2688,39.2200,67,96,192191
1.6129,0.2933,39.0900,67,96,192194
1.5787,0.2835,39.2200,67,96,192197
1.6325,0.2933,39.1200,67,96,192200
1.6178,0.2933,39.1200,67,96,192204
1.6276,0.2835,39.2800,67,96,192207
1.6569,0.2933,39.1200,67,96,192210
1.6373,0.2835,39.1900,67,96,192215
1.7155,0.2981,38.9300,67,96,192218
1.6618,0.2884,39.1200,67,96,192221
1.6764,0.2786,39.2500,67,96,192225
1.6813,0.2884,39.2200,67,96,192228
1.6667,0.2884,39.2200,67,96,192231
1.7302,0.3030,39.0300,67,96,192235
1.6911,0.2981,39.1900,67,96,192238
1.6911,0.2835,39.1900,67,96,192241
1.6862,0.3128,39.2200,67,96,192245
1.6813,0.2884,39.3200,67,96,192248
1.7155,0.2981,39.1600,67,96,192251
1.6862,0.2884,39.4100,67,96,192254
1.7009,0.3079,39.1200,67,96,192259
1.6764,0.2884,39.2500,67,96,192262
1.6862,0.2884,39.2200,67,96,192265
1.7155,0.2981,39.0900,67,96,192269
1.6764,0.2835,39.2200,67,96,192272
1.7058,0.2884,39.1600,67,96,192275
1.6764,0.2835,39.1900,67,96,192279
1.6813,0.2933,39.2200,67,96,192282
1.7058,0.2933,39.1900,67,96,192285
1.6960,0.2884,39.3200,67,96,192289
1.7253,0.2933,39.0000,67,96,192292
1.6911,0.2688,39.1900,67,96,192295
1.6960,0.2835,39.1900,67,96,192300
1.7155,0.2933,39.1900,67,96,192303
1.7009,0.2884,39.2200,67,96,192306
1.7400,0.3079,39.0000,67,96,192309
1.6862,0.2786,39.1900,67,96,192313
1.7009,0.2835,39.2800,67,96,192316
1.7107,0.2981,39.2500,67,96,192319
1.7058,0.2835,39.2500,67,96,192323
1.7595,0.3079,38.9600,67,96,192326
1.7302,0.2933,39.1200,67,96,192329
1.7107,0.2835,39.2500,67,96,192333
1.7107,0.2884,39.2200,67,96,192336
1.7155,0.2835,39.3200,67,96,192339
1.7546,0.2981,39.0600,67,96,192344
1.7302,0.2884,39.4100,67,96,192347
1.7302,0.3030,39.0900,67,96,192350
1.7155,0.2835,39.2200,67,96,192353
1.7107,0.2835,39.2800,67,96,192357
1.7644,0.2933,39.1200,67,96,192360
1.7302,0.2884,39.2200,67,96,192363
1.7595,0.2933,39.0600,67,96,192367
1.7302,0.2933,39.2500,67,96,192370
1.7351,0.2835,39.1900,67,96,192373
1.7498,0.2884,39.1200,67,96,192377
1.7644,0.2884,39.1600,67,96,192380
1.8084,0.2786,39.0600,67,96,192384
1.7840,0.2884,39.2500,67,96,192388
1.7937,0.2737,39.2500,67,96,192391
1.8182,0.2933,39.2200,67,96,192394
1.8084,0.2835,39.2200,67,96,192398
1.8622,0.2933,38.9600,67,96,192401
1.8426,0.2884,39.1200,67,96,192404
1.8475,0.2835,39.0600,67,96,192407
1.8866,0.2884,39.1900,67,96,192411
1.8622,0.2835,39.1900,67,96,192414
1.9208,0.2933,38.9600,67,96,192417
1.8768,0.2884,39.1600,67,96,192421
1.9062,0.2884,39.1900,67,96,192424
1.8817,0.2884,39.1900,67,96,192428
1.8671,0.2835,39.2200,67,96,192432
1.9110,0.3030,39.0600,67,96,192435
1.8622,0.2884,39.1200,67,96,192438
1.8573,0.3177,39.1200,67,96,192442
1.8231,0.2884,39.2500,67,96,192445
1.8035,0.2835,39.2200,67,96,192448
1.8182,0.2981,39.1600,67,96,192451
1.7889,0.2884,39.1900,67,96,192455
1.8035,0.2884,39.0900,67,96,192458
1.7742,0.2933,39.3200,67,96,192461
1.7742,0.2835,39.2200,67,96,192465
1.7937,0.2981,39.0900,67,96,192468
1.7449,0.2884,39.2200,67,96,192472
1.7791,0.2835,38.8400,67,96,192476
1.7546,0.2884,39.1600,67,96,192479
1.7498,0.2835,39.1600,67,96,192482
1.7546,0.2981,39.0900,67,96,192486
1.7058,0.2884,39.3200,67,96,192489
1.6813,0.3079,39.0300,67,96,192492
1.5982,0.2884,39.2200,67,96,192496
1.5934,0.2835,39.2200,67,96,192499
1.6862,0.2933,39.1900,67,96,192502
1.8426,0.2884,39.1200,67,96,192505
2.2336,0.2981,38.9300,67,96,192509
2.5220,0.2884,39.5700,67,96,192513
2.9081,0.2835,39.2200,67,96,192516
3.2747,0.2884,39.2500,67,96,192520
3.5288,0.3030,39.2500,67,96,192523
3.7634,0.3079,39.0600,67,96,192526
3.5728,0.2884,39.2500,67,96,192530
3.2405,0.2981,39.1600,67,96,192533
2.7908,0.2884,39.3200,67,96,192536
2.3216,0.3030,39.2800,67,96,192540
1.9941,0.3030,39.0600,67,96,192543
1.6373,0.2884,39.2200,67,96,192546
1.4712,0.2835,39.1200,67,96,192549
1.3783,0.2884,39.2500,67,96,192553
1.3587,0.2933,39.2200,67,96,192557
1.3930,0.2933,39.1900,67,96,192560
1.4027,0.2884,39.2200,67,96,192564
1.4614,0.2933,39.1600,67,96,192567
1.4663,0.2933,39.2200,67,96,192570
1.5054,0.2835,39.2200,67,96,192574
1.5445,0.2835,39.1200,67,96,192577
1.5494,0.2884,39.2200,67,96,192580
1.5934,0.3030,39.0000,67,96,192584
1.5885,0.2884,39.2500,67,96,192587
1.5982,0.2835,39.2800,67,96,192590
1.6178,0.2981,39.1600,67,96,192593
1.6080,0.2884,39.4800,67,96,192598
1.6618,0.3177,39.0300,67,96,192601
1.6471,0.2884,39.1900,67,96,192604
1.6422,0.3226,39.2200,67,96,192608
1.6520,0.2884,39.2800,67,96,192611
1.6520,0.2933,39.2200,67,96,192614
1.7204,0.3079,39.0000,67,96,192618
1.6911,0.2933,39.0900,67,96,192621
1.7155,0.2884,39.1600,67,96,192624
1.7009,0.2884,39.2500,67,96,192628
1.7009,0.2835,39.2500,67,96,192631
1.7595,0.2884,39.1600,67,96,192634
1.7351,0.2884,39.1900,67,96,192637
1.7546,0.2884,39.1200,67,96,192642
1.7449,0.2884,39.2200,67,96,192645
1.7498,0.2786,39.2200,67,96,192648
1.7791,0.2981,39.2800,67,96,192652
1.7595,0.2933,39.2200,67,96,192655
1.8035,0.2933,39.0900,67,96,192658
1.7986,0.2884,39.2200,67,96,192662
1.8035,0.2688,39.2500,67,96,192665
1.8328,0.2981,39.1200,67,96,192668
1.8084,0.2884,39.2200,67,96,192672
1.8426,0.2884,39.0300,67,96,192675
1.8280,0.2786,39.1200,67,96,192678
1.8426,0.2835,39.2200,67,96,192681
1.8768,0.2981,39.1200,67,96,192686
1.8719,0.2884,39.1900,67,96,192689
1.9257,0.2981,38.9600,67,96,192692
1.9013,0.2835,39.1900,67,96,192696
1.9208,0.3030,39.2500,67,96,192699
1.9697,0.2933,39.2200,67,96,192702
1.9453,0.2884,39.3500,67,96,192706
2.0137,0.2981,39.0000,67,96,192709
1.9746,0.2884,39.1200,67,96,192712
1.9844,0.2884,39.2200,67,96,192716
1.9990,0.2884,39.2500,67,96,192719
2.0137,0.2884,39.2500,67,96,192722
2.0870,0.3079,39.1200,67,96,192727
2.0577,0.2933,39.2800,67,96,192730
2.0772,0.2884,39.1900,67,96,192733
2.0870,0.2884,39.2500,67,96,192736
2.1114,0.2786,39.2200,67,96,192740
2.1750,0.2981,39.0600,67,96,192743
2.1848,0.2981,39.2500,67,96,192746
2.1945,0.2884,39.0900,67,96,192750
2.1701,0.2884,39.2200,67,96,192753
2.1848,0.2835,39.2500,67,96,192756
2.2092,0.2933,39.0900,67,96,192760
2.2043,0.2933,39.1900,67,96,192763
2.2776,0.2933,39.1600,67,96,192766
2.2043,0.2884,39.0300,67,96,192771
2.1114,0.2737,39.2200,67,96,192775
2.0674,0.2835,39.2200,67,96,192778
2.0186,0.2933,39.2200,67,96,192782
1.9453,0.2688,39.2500,67,96,192785
1.9355,0.2981,38.9300,67,96,192788
1.8524,0.2933,39.1600,67,96,192792
1.7840,0.2835,39.2200,67,96,192795
1.7351,0.2884,39.1900,67,96,192798
1.6813,0.2835,39.2200,67,96,192802
1.6862,0.3030,39.0300,67,96,192805
1.6129,0.2933,39.1200,67,96,192808
1.5738,0.2884,39.1200,67,96,192813
1.5298,0.2884,39.2200,67,96,192816
1.5249,0.2884,39.2200,67,96,192819
