ecg,gsr,temp,hr,spo2,timest
2.1065,0.2493,38.7700,67,97,140968
2.0821,0.2346,38.9600,67,97,140972
2.1408,0.2493,39.0300,67,97,140975
2.1310,0.2493,39.0000,67,97,140979
2.1457,0.2444,39.0300,67,97,140982
2.2287,0.2542,38.7100,67,97,140985
2.1945,0.2444,38.9600,67,97,140988
2.2287,0.2346,39.0000,67,97,140992
2.2532,0.2493,39.0000,67,97,140995
2.2678,0.2444,39.0300,67,97,140998
2.3509,0.2590,38.8400,67,97,141002
2.3167,0.2493,38.9600,67,97,141005
2.3509,0.2395,38.9300,67,97,141008
2.3851,0.2444,39.0300,67,97,141012
2.3803,0.2395,39.0300,67,97,141016
2.4340,0.2542,38.8700,67,97,141019
2.3998,0.2493,39.0600,67,97,141023
2.4291,0.2444,38.9000,67,97,141026
2.3949,0.2444,39.0600,67,97,141029
2.3949,0.2444,39.0300,67,97,141032
2.3998,0.2493,39.0000,67,97,141036
2.3363,0.2444,39.0300,67,97,141039
2.3216,0.2493,38.9600,67,97,141042
2.2287,0.2395,39.0000,67,97,141046
2.1457,0.2297,39.0300,67,97,141049
2.0870,0.2493,38.9600,67,97,141052
1.9990,0.2444,39.0000,67,97,141056
1.9404,0.2493,38.9000,67,97,141060
1.8231,0.2444,39.0300,67,97,141063
1.7400,0.2395,39.0000,67,97,141066
1.6813,0.2493,38.9300,67,97,141070
1.5885,0.2590,39.0600,67,97,141073
1.5591,0.2542,38.7700,67,97,141076
1.4614,0.2493,38.9300,67,97,141080
1.4125,0.2395,39.0600,67,97,141083
1.3783,0.2493,38.9600,67,97,141086
1.3343,0.2590,39.0300,67,97,141090
1.3539,0.2493,38.7400,67,97,141093
1.2903,0.2493,38.9300,67,97,141096
1.2805,0.2395,39.0300,67,97,141100
1.2610,0.2444,38.9600,67,97,141104
1.2463,0.2444,39.0000,67,97,141107
1.3001,0.2590,38.8400,67,97,141110
1.2708,0.2444,38.9600,67,97,141114
1.2854,0.2444,38.9300,67,97,141117
1.2757,0.2444,39.0900,67,97,141120
1.2708,0.2444,39.0000,67,97,141124
1.3050,0.2542,38.9300,67,97,141127
1.3196,0.2493,38.9600,67,97,141130
1.3490,0.2493,38.8700,67,97,141134
1.3441,0.2444,39.0600,67,97,141137
1.3490,0.2444,39.0300,67,97,141140
1.3832,0.2542,38.8700,67,97,141144
1.3685,0.2395,39.0300,67,97,141148
1.4125,0.2493,38.9000,67,97,141151
1.4076,0.2395,39.0600,67,97,141154
1.4272,0.2493,39.0300,67,97,141158
1.4467,0.2493,38.9000,67,97,141161
1.4467,0.2444,39.0300,67,97,141164
1.4907,0.2395,38.8700,67,97,141168
1.4663,0.2444,39.0000,67,97,141171
1.4809,0.2688,39.0000,67,97,141174
1.4956,0.2590,38.9600,67,97,141177
1.4907,0.2444,39.0300,67,97,141181
1.5396,0.2542,38.7100,67,97,141185
1.5054,0.2395,39.0000,67,97,141188
1.5298,0.2395,39.0600,67,97,141192
1.5494,0.2590,38.9600,67,97,141195
1.5347,0.2444,38.9300,67,97,141198
1.5836,0.2542,38.7100,67,97,141202
1.5591,0.2493,38.9000,67,97,141205
1.5591,0.2395,39.1200,67,97,141208
1.5689,0.2297,39.0600,67,97,141212
1.5787,0.2444,39.0600,67,97,141215
1.6276,0.2542,38.8700,67,97,141218
1.5836,0.2493,39.0000,67,97,141221
1.5787,0.2444,38.9000,67,97,141225
1.6080,0.2395,39.0000,67,97,141229
1.5934,0.2444,39.0300,67,97,141232
1.6227,0.2542,38.9300,67,97,141236
1.6080,0.2444,39.0300,67,97,141239
1.6178,0.2444,38.9000,67,97,141242
1.5885,0.2444,38.9300,67,97,141246
1.5836,0.2444,39.0300,67,97,141249
1.6227,0.2493,38.9600,67,97,141252
1.6129,0.2737,39.0000,67,97,141255
1.6373,0.2542,38.9300,67,97,141259
1.6031,0.2444,39.0000,67,97,141262
1.6129,0.2248,39.0300,67,97,141265
1.6373,0.2542,38.9000,67,97,141270
1.6129,0.2444,39.0000,67,97,141273
1.6471,0.2444,38.8700,67,97,141276
1.6325,0.2444,38.1800,67,97,141280
1.6325,0.2395,39.0300,67,97,141283
1.6471,0.2542,39.0000,67,97,141286
1.6373,0.2542,39.0300,67,97,141290
1.6862,0.2493,38.7700,67,97,141293
1.6422,0.2444,39.0000,67,97,141296
1.6422,0.2444,39.0600,67,97,141299
1.6520,0.2493,39.0000,67,97,141303
1.6471,0.2444,38.9600,67,97,141306
1.7400,0.2590,38.7400,67,97,141309
1.6716,0.2444,39.0000,67,97,141314
1.6764,0.2395,39.0000,67,97,141317
1.6764,0.2493,39.0000,67,97,141320
1.6569,0.2444,39.2200,67,97,141324
1.7058,0.2590,38.8700,67,97,141327
1.6813,0.2297,39.0300,67,97,141330
1.6960,0.2444,38.9600,67,97,141333
1.6862,0.2444,39.0000,67,97,141337
1.6813,0.2444,39.0600,67,97,141340
1.7058,0.2542,38.8400,67,97,141343
1.6667,0.2493,38.9300,67,97,141348
1.6471,0.2444,39.1900,67,97,141351
1.6764,0.2395,38.8400,67,97,141356
1.6373,0.2444,39.0600,67,97,141359
1.6520,0.2444,39.0300,67,97,141362
1.6667,0.2493,38.9600,67,97,141366
1.6569,0.2444,39.0300,67,97,141369
1.7351,0.2542,38.7700,67,97,141372
1.6716,0.2444,39.0000,67,97,141376
1.6960,0.2884,39.0300,67,97,141379
1.7155,0.2493,39.1900,67,97,141382
1.7155,0.2444,39.0300,67,97,141386
1.7498,0.2590,38.8100,67,97,141389
1.7155,0.2639,38.9000,67,97,141392
1.7058,0.2395,39.0000,67,97,141395
1.7253,0.2590,39.0300,67,97,141400
1.7595,0.2444,39.0300,67,97,141403
1.7840,0.2590,38.9300,67,97,141406
1.7351,0.2542,38.9600,67,97,141410
1.7400,0.2297,38.9300,67,97,141413
1.7302,0.2444,38.9600,67,97,141416
1.7449,0.2395,39.0600,67,97,141420
1.7742,0.2542,39.2200,67,97,141423
1.7546,0.2444,39.0000,67,97,141426
1.7693,0.2297,38.8700,67,97,141430
1.7351,0.2444,39.2200,67,97,141433
1.7400,0.2395,39.0300,67,97,141436
1.7693,0.2493,39.0900,67,97,141440
1.7595,0.2444,39.0600,67,97,141444
1.7889,0.2444,38.9000,67,97,141447
1.7546,0.2444,38.9600,67,97,141450
1.7889,0.2444,39.0300,67,97,141454
1.7840,0.2542,38.9000,67,97,141457
1.7595,0.2444,39.0000,67,97,141460
1.7986,0.2493,38.8100,67,97,141464
1.7693,0.2444,38.9300,67,97,141467
1.7595,0.2493,39.0300,67,97,141470
1.7791,0.2542,38.8100,67,97,141473
1.7595,0.2493,39.0600,67,97,141477
1.8084,0.2493,38.7700,67,97,141480
1.7595,0.2444,38.9600,67,97,141484
1.7595,0.2444,39.0300,67,97,141488
1.7644,0.2493,39.0000,67,97,141491
1.7595,0.2444,39.0300,67,97,141494
1.8231,0.2835,38.8100,67,97,141498
1.7791,0.2444,39.0600,67,97,141501
1.7840,0.2395,39.0000,67,97,141504
1.8035,0.2493,39.0300,67,97,141508
1.7644,0.2444,39.0900,67,97,141511
1.8475,0.2688,38.8700,67,97,141514
1.7986,0.2493,38.9600,67,97,141517
1.8133,0.2444,38.9300,67,97,141521
1.7986,0.2444,39.1600,67,97,141524
1.8328,0.2395,39.0000,67,97,141528
1.8280,0.2542,38.8400,67,97,141532
1.7840,0.2444,39.0000,67,97,141535
1.8084,0.2395,38.8700,67,97,141538
1.7889,0.2444,39.0900,67,97,141542
1.7937,0.2542,39.1200,67,97,141545
1.8084,0.2297,38.9300,67,97,141548
1.7889,0.2444,39.0300,67,97,141552
1.8231,0.2493,38.8700,67,97,141555
1.7986,0.2444,38.9600,67,97,141558
1.8133,0.2444,39.0300,67,97,141561
1.8328,0.2493,38.9600,67,97,141565
1.8280,0.2590,39.0000,67,97,141569
1.9013,0.2590,38.8100,67,97,141572
1.8377,0.2444,39.0900,67,97,141576
1.8524,0.2493,39.0600,67,97,141579
1.8671,0.2493,39.0000,67,97,141582
1.8622,0.2444,39.0300,67,97,141586
1.9257,0.2590,38.7400,67,97,141589
1.8915,0.2493,39.0300,67,97,141592
1.8915,0.2444,39.0300,67,97,141596
1.9062,0.2493,39.0000,67,97,141599
1.8866,0.2444,39.0600,67,97,141602
1.9159,0.2639,38.8100,67,97,141605
1.8328,0.2835,39.0000,67,97,141609
1.8035,0.2395,39.0000,67,97,141613
1.7937,0.2444,39.0000,67,97,141616
1.7889,0.2444,39.0300,67,97,141620
1.8280,0.2639,38.8700,67,97,141623
1.7791,0.2444,39.0000,67,97,141626
1.7840,0.2444,38.9000,67,97,141630
1.7498,0.2688,39.0000,67,97,141633
1.7449,0.2297,39.0300,67,97,141636
1.7742,0.2542,38.0800,67,97,141639
1.7546,0.2444,39.0000,67,97,141643
1.8035,0.2542,38.8700,67,97,141646
1.7351,0.2444,38.9600,67,97,141649
1.7302,0.2444,39.0300,67,97,141654
1.7155,0.2542,38.9600,67,97,141657
1.6520,0.2444,39.0300,67,97,141660
1.6276,0.2493,38.8400,67,97,141664
1.6080,0.2444,38.9300,67,97,141667
1.6569,0.2444,39.0300,67,97,141670
1.8573,0.2493,38.8700,67,97,141674
2.1359,0.2297,39.0300,67,97,141677
2.5904,0.2493,38.8400,67,97,141680
2.9619,0.2493,39.0000,67,97,141683
3.3529,0.2444,39.0300,67,97,141687
3.6559,0.2493,39.2200,67,97,141690
3.8025,0.2444,39.0300,67,97,141693
3.8172,0.2542,38.7700,67,97,141698
3.4115,0.2493,38.9600,67,97,141701
2.9521,0.2444,39.0300,67,97,141704
2.4389,0.2493,38.8700,67,97,141708
1.9795,0.2444,39.0300,67,97,141711
1.7107,0.2639,38.7700,67,97,141714
1.4858,0.2493,38.9300,67,97,141717
1.4125,0.2444,38.9300,67,97,141721
1.3978,0.2395,39.0000,67,97,141724
1.4174,0.2297,39.0000,67,97,141727
1.4614,0.2542,38.7700,67,97,141731
1.4663,0.2493,38.9600,67,97,141734
1.5200,0.2444,38.6800,67,97,141737
1.5396,0.2493,39.0000,67,97,141742
1.5689,0.2444,39.0600,67,97,141745
1.6080,0.2542,38.9300,67,97,141748
1.5934,0.2395,39.0000,67,97,141752
1.6325,0.2493,38.9000,67,97,141755
1.6080,0.2444,38.9300,67,97,141758
1.6471,0.2444,39.0300,67,97,141761
1.6471,0.2493,39.0000,67,97,141765
1.6471,0.2688,39.0600,67,97,141768
1.6813,0.2395,38.8700,67,97,141771
1.6667,0.2444,39.0000,67,97,141775
1.6911,0.2542,39.0600,67,97,141778
1.7204,0.2542,38.9300,67,97,141782
1.7009,0.2444,39.0300,67,97,141786
1.7400,0.2493,38.7700,67,97,141789
1.7253,0.2297,38.9000,67,97,141792
1.7400,0.2444,38.9600,67,97,141795
1.7693,0.2493,38.9600,67,97,141799
1.7742,0.2444,39.0000,67,97,141802
1.8328,0.2737,38.7400,67,97,141805
1.7889,0.2444,38.9300,67,97,141809
1.7986,0.2493,39.0000,67,97,141812
1.8133,0.2493,39.0300,67,97,141815
1.8328,0.2444,39.0000,67,97,141819
1.9110,0.2639,38.8100,67,97,141822
1.8671,0.2493,38.9600,67,97,141826
1.8866,0.2395,38.9300,67,97,141830
1.8719,0.2493,39.0600,67,97,141833
1.8817,0.2395,39.0300,67,97,141836
1.9355,0.2590,38.9300,67,97,141839
1.9208,0.2493,39.0900,67,97,141843
1.9501,0.2395,38.9000,67,97,141846
1.9208,0.2493,39.0300,67,97,141849
1.9453,0.2444,39.1600,67,97,141853
1.9990,0.2493,38.8700,67,97,141856
1.9795,0.2444,39.0900,67,97,141859
2.0430,0.2542,38.9000,67,97,141863
2.0039,0.2395,39.0000,67,97,141867
2.0088,0.2444,39.0600,67,97,141870
2.0283,0.2493,38.8700,67,97,141873
2.0235,0.2444,39.0300,67,97,141877
2.0772,0.2444,38.8400,67,97,141880
2.0479,0.2444,38.9600,67,97,141883
2.0626,0.2444,39.0300,67,97,141887
2.0870,0.2493,38.9600,67,97,141890
2.0870,0.2444,39.1600,67,97,141893
2.1554,0.2444,38.7700,67,97,141897
2.1310,0.2444,39.1200,67,97,141900
2.1603,0.2395,39.0000,67,97,141903
2.1896,0.2493,38.9600,67,97,141906
2.1945,0.2444,39.0300,67,97,141911
2.2776,0.2590,38.7400,67,97,141914
2.2678,0.2297,39.0300,67,97,141917
2.2923,0.2444,39.0300,67,97,141921
2.3216,0.2493,39.0000,67,97,141924
2.3314,0.2444,39.0300,67,97,141927
2.4096,0.2737,38.8100,67,97,141931
2.3705,0.2493,38.9300,67,97,141934
2.3851,0.2444,38.9000,67,97,141937
2.3998,0.2395,39.0000,67,97,141941
2.4194,0.2444,39.0300,67,97,141944
2.4731,0.2542,39.0000,67,97,141947
2.4242,0.2444,39.0000,67,97,141950
2.4438,0.2444,38.9300,67,97,141955
2.4047,0.2444,39.0600,67,97,141958
2.1261,0.2444,39.0300,67,97,141963
2.0577,0.2444,39.0000,67,97,141966
1.9795,0.2542,38.9300,67,97,141969
1.8524,0.2542,39.0600,67,97,141973
1.7986,0.2493,38.8100,67,97,141976
1.7009,0.2493,38.9000,67,97,141979
1.6325,0.2737,39.0000,67,97,141983
1.5982,0.2542,38.9300,67,97,141986
1.5298,0.2395,39.0300,67,97,141989
1.5543,0.2493,38.7400,67,97,141992
1.4272,0.2346,38.9000,67,97,141997
1.4272,0.2444,39.0000,67,97,142000
1.3636,0.2493,39.0000,67,97,142003
1.3587,0.2444,38.9300,67,97,142007
1.3881,0.2639,38.7400,67,97,142010
1.3441,0.2493,38.9600,67,97,142013
1.3343,0.2297,38.9300,67,97,142017
1.3294,0.2590,39.0000,67,97,142020
1.3392,0.2444,39.0300,67,97,142023
1.3832,0.2590,38.9000,67,97,142027
1.3734,0.2542,38.9600,67,97,142030
1.3930,0.2493,38.9000,67,97,142033
1.3832,0.2493,39.0000,67,97,142036
1.3978,0.2444,39.0300,67,97,142041
1.4321,0.2493,38.8400,67,97,142044
1.4223,0.2493,39.0000,67,97,142047
1.4614,0.2493,38.9000,67,97,142051
1.4467,0.2444,39.2200,67,97,142054
1.4712,0.2395,39.0300,67,97,142057
1.4809,0.2835,38.9000,67,97,142061
1.4858,0.2395,39.0600,67,97,142064
1.5249,0.2444,38.8700,67,97,142067
1.5054,0.2444,39.0000,67,97,142071
1.5103,0.2493,39.0300,67,97,142074
1.5347,0.2493,38.9300,67,97,142077
1.5249,0.2444,39.2800,67,97,142081
1.5689,0.2542,38.8100,67,97,142085
1.5543,0.2444,39.0300,67,97,142088
1.5738,0.2542,39.0000,67,97,142091
1.5885,0.2542,38.9300,67,97,142095
1.5738,0.2493,39.0300,67,97,142098
1.6227,0.2542,38.7400,67,97,142101
1.6129,0.2493,38.9000,67,97,142105
1.6178,0.2444,39.0300,67,97,142108
1.6276,0.2493,38.9600,67,97,142111
1.6276,0.2444,39.0300,67,97,142115
1.6813,0.2639,38.8400,67,97,142118
1.6325,0.2493,38.9300,67,97,142121
1.6422,0.2444,38.9300,67,97,142125
1.6422,0.2786,39.0000,67,97,142129
1.6422,0.2444,39.0000,67,97,142132
1.6764,0.2590,38.9000,67,97,142135
1.6471,0.2835,39.0600,67,97,142139
1.6911,0.2395,38.9000,67,97,142142
1.6520,0.2444,39.0300,67,97,142145
1.6569,0.2395,39.0300,67,97,142149
1.6862,0.2542,38.9300,67,97,142152
1.6667,0.2444,39.0900,67,97,142155
1.6911,0.2737,38.8700,67,97,142158
1.6618,0.2444,39.1600,67,97,142162
1.6716,0.2395,39.0600,67,97,142166
1.7009,0.2542,38.9300,67,97,142169
1.6667,0.2395,39.0000,67,97,142173
1.6911,0.2395,38.8400,67,97,142176
1.6618,0.2444,39.0300,67,97,142179
1.6667,0.2786,39.0300,67,97,142183
1.6862,0.2542,39.0000,67,97,142186
1.6764,0.2444,39.0000,67,97,142189
1.7155,0.2542,38.8400,67,97,142193
1.6716,0.2444,39.0300,67,97,142196
1.6667,0.2444,39.0300,67,97,142199
1.6813,0.2493,39.0300,67,97,142202
1.6911,0.2444,39.0300,67,97,142206
1.7498,0.2590,38.7400,67,97,142210
1.7009,0.2835,38.9300,67,97,142213
1.7253,0.2444,39.0000,67,97,142217
1.6960,0.2444,39.0000,67,97,142220
1.6862,0.2493,39.0300,67,97,142223
1.7546,0.2639,38.8400,67,97,142227
1.7204,0.2493,39.0000,67,97,142230
1.7400,0.2493,38.9000,67,97,142233
1.7058,0.2493,39.0600,67,97,142237
1.7058,0.2444,39.0600,67,97,142240
1.7546,0.2542,38.8400,67,97,142243
1.7107,0.2493,38.8700,67,97,142246
1.7644,0.2395,38.9000,67,97,142251
1.7058,0.2493,39.0300,67,97,142254
1.7058,0.2444,39.0600,67,97,142257
1.7253,0.2297,38.9600,67,97,142261
1.7107,0.2444,39.0300,67,97,142264
1.7498,0.2542,38.9000,67,97,142267
1.7204,0.2444,39.0000,67,97,142271
1.7155,0.2444,39.2200,67,97,142274
1.7302,0.2395,38.9600,67,97,142277
1.7107,0.2444,39.0000,67,97,142280
1.7449,0.2493,38.8400,67,97,142284
1.7204,0.2444,39.0300,67,97,142287
1.7253,0.2444,39.0000,67,97,142290
1.7498,0.2542,38.9300,67,97,142295
1.7009,0.2444,39.0300,67,97,142298
1.7498,0.2542,38.7700,67,97,142301
1.7253,0.2493,39.0000,67,97,142305
1.7204,0.2444,39.0000,67,97,142308
1.7253,0.2297,38.9600,67,97,142311
1.7155,0.2444,39.0300,67,97,142315
1.7889,0.2639,38.7700,67,97,142318
1.7107,0.2590,38.9000,67,97,142321
1.7351,0.2444,38.9600,67,97,142325
1.7058,0.2493,39.0900,67,97,142328
1.7058,0.2444,39.0300,67,97,142331
1.7791,0.2590,38.8700,67,97,142334
1.6960,0.2493,39.0600,67,97,142339
1.7107,0.2444,38.9000,67,97,142342
1.7009,0.2444,39.0600,67,97,142345
1.7009,0.2444,39.1600,67,97,142349
1.7302,0.2639,38.9300,67,97,142352
1.7107,0.2493,39.0600,67,97,142355
1.7253,0.2493,38.9000,67,97,142359
1.6960,0.2297,39.0600,67,97,142362
1.7009,0.2444,39.0300,67,97,142365
1.7302,0.2590,38.8700,67,97,142368
1.6911,0.2493,39.0300,67,97,142372
1.7204,0.2444,38.9000,67,97,142375
1.6813,0.2346,38.9600,67,97,142379
1.6862,0.2444,39.0300,67,97,142383
1.7058,0.2542,38.9000,67,97,142386
1.6911,0.2444,39.0300,67,97,142389
1.7302,0.2493,38.8400,67,97,142393
1.6862,0.2444,39.0300,67,97,142396
1.6764,0.2395,39.1200,67,97,142399
1.6911,0.2590,38.9600,67,97,142403
1.6862,0.2444,39.0600,67,97,142406
1.7351,0.2542,38.7700,67,97,142409
1.6911,0.2444,39.0000,67,97,142412
1.6911,0.2444,39.2800,67,97,142416
1.7058,0.2493,38.9300,67,97,142419
1.6716,0.2444,39.0000,67,97,142423
1.7595,0.2590,38.7700,67,97,142427
1.6960,0.2542,38.9600,67,97,142430
1.6862,0.2444,38.9600,67,97,142433
1.6667,0.2297,39.0000,67,97,142437
1.6667,0.2444,39.0900,67,97,142440
1.7058,0.2590,38.8400,67,97,142443
1.6716,0.2493,38.9600,67,97,142447
1.6813,0.2444,38.8400,67,97,142450
1.6618,0.2542,39.0000,67,97,142453
1.6667,0.2444,39.0300,67,97,142456
1.7204,0.2542,38.9300,67,97,142460
1.6667,0.2297,39.0300,67,97,142464
1.7058,0.2493,38.9600,67,97,142467
1.6716,0.2639,39.0300,67,97,142471
1.6764,0.2444,39.0300,67,97,142474
1.6764,0.2493,38.9300,67,97,142477
1.6716,0.2395,39.0000,67,97,142481
1.7009,0.2444,38.8700,67,97,142484
1.6813,0.2542,39.0300,67,97,142487
1.6960,0.2444,39.0300,67,97,142490
1.7107,0.2688,38.9300,67,97,142494
1.6862,0.2297,39.0300,67,97,142497
1.7253,0.2493,38.7700,67,97,142500
1.7107,0.2542,38.9300,67,97,142504
1.7253,0.2444,39.0300,67,97,142508
1.7595,0.2493,38.9600,67,97,142511
1.7351,0.2444,39.0600,67,97,142515
1.7889,0.2542,38.7100,67,97,142518
1.7449,0.2444,38.9300,67,97,142521
1.7498,0.2395,39.0600,67,97,142525
1.7449,0.2493,39.0000,67,97,142528
1.7204,0.2444,39.1200,67,97,142531
1.7449,0.2688,38.7700,67,97,142534
1.6667,0.2493,39.0000,67,97,142538
1.6569,0.2444,38.8700,67,97,142541
1.6325,0.2493,39.0000,67,97,142544
1.6276,0.2444,39.0000,67,97,142548
1.6569,0.2639,38.9000,67,97,142552
1.6227,0.2493,39.0000,67,97,142555
1.6276,0.2493,38.9000,67,97,142559
1.6031,0.2493,39.0300,67,97,142562
1.5982,0.2444,39.0300,67,97,142565
1.6276,0.2590,38.8400,67,97,142569
1.4858,0.2542,38.8700,67,97,142573
1.4076,0.2444,39.0300,67,97,142577
1.3930,0.2542,38.8100,67,97,142580
1.3881,0.2493,39.0300,67,97,142583
1.5396,0.2444,39.1200,67,97,142586
1.8377,0.2542,38.9600,67,97,142590
2.2336,0.2444,39.0300,67,97,142594
2.7468,0.2688,38.7100,67,97,142597
3.0938,0.2493,39.0300,67,97,142601
3.4360,0.2444,39.0300,67,97,142604
3.6608,0.2542,39.0900,67,97,142607
3.6070,0.2444,39.0300,67,97,142611
3.4409,0.2737,38.8100,67,97,142614
2.9228,0.2542,39.0000,67,97,142617
2.3949,0.2444,38.9300,67,97,142621
1.9110,0.2493,38.9600,67,97,142624
1.5445,0.2444,39.3200,67,97,142627
1.3587,0.2590,38.8400,67,97,142630
1.2463,0.2493,38.4600,67,97,142635
1.2317,0.2542,38.9000,67,97,142638
1.2170,0.2297,39.0000,67,97,142641
1.2463,0.2444,39.0900,67,97,142645
1.3001,0.2542,38.9000,67,97,142648
1.3099,0.2444,39.0000,67,97,142651
1.3636,0.2542,38.9000,67,97,142655
1.3539,0.2493,38.9300,67,97,142658
1.3685,0.2444,39.0300,67,97,142661
1.3832,0.2493,39.0300,67,97,142664
1.3832,0.2395,39.0600,67,97,142668
1.4174,0.2493,38.8700,67,97,142671
1.4027,0.2737,39.0600,67,97,142674
1.4272,0.2493,39.0300,67,97,142679
1.4516,0.2542,38.9600,67,97,142682
1.4370,0.2493,39.0600,67,97,142685
1.4858,0.2542,38.7700,67,97,142689
1.4809,0.2542,38.9300,67,97,142692
1.4956,0.2444,39.0300,67,97,142695
1.5543,0.2542,38.9600,67,97,142699
1.5152,0.2493,39.0300,67,97,142702
1.5591,0.2590,38.7700,67,97,142705
1.5249,0.2493,38.9000,67,97,142709
1.5445,0.2444,39.0000,67,97,142712
1.5591,0.2444,39.0000,67,97,142715
1.5591,0.2493,39.0300,67,97,142718
1.6227,0.2688,39.0900,67,97,142723
1.5885,0.2542,39.0000,67,97,142726
1.5982,0.2542,38.9300,67,97,142729
1.5885,0.2493,39.0000,67,97,142733
1.6031,0.2297,39.0300,67,97,142736
1.6422,0.2590,38.9600,67,97,142739
1.6227,0.2444,39.0300,67,97,142743
1.6520,0.2297,38.9000,67,97,142746
1.6373,0.2542,39.0600,67,97,142749
1.6618,0.2444,39.0000,67,97,142752
1.6960,0.2639,38.8700,67,97,142756
1.6764,0.2590,39.0000,67,97,142759
1.7155,0.2590,38.9300,67,97,142763
1.6960,0.2444,39.0300,67,97,142767
1.7155,0.2542,39.0600,67,97,142770
1.7449,0.2542,38.9300,67,97,142773
1.7400,0.2493,39.0600,67,97,142777
1.7791,0.2542,38.8100,67,97,142780
1.7546,0.2493,38.9600,67,97,142783
1.7791,0.2444,39.0000,67,97,142787
1.7889,0.2542,38.9600,67,97,142790
1.7986,0.2493,39.0000,67,97,142793
1.8768,0.2590,38.7400,67,97,142796
1.8377,0.2493,39.0000,67,97,142800
1.8622,0.2493,39.0300,67,97,142803
1.8817,0.2493,39.0600,67,97,142807
1.8866,0.2493,39.0000,67,97,142811
1.9892,0.2688,38.7400,67,97,142814
1.9795,0.2542,39.0600,67,97,142817
2.0039,0.2444,39.0300,67,97,142821
2.0235,0.2542,38.9300,67,97,142824
2.0430,0.2737,39.0000,67,97,142827
2.1261,0.2981,38.8400,67,97,142830
2.1114,0.2542,39.0300,67,97,142834
2.1457,0.2444,38.9000,67,97,142837
2.1603,0.2493,39.0000,67,97,142840
2.1848,0.2493,38.9600,67,97,142844
2.2532,0.2542,38.9300,67,97,142848
2.2239,0.2493,39.0900,67,97,142851
2.2727,0.2884,38.8700,67,97,142855
2.2483,0.2493,39.0000,67,97,142858
2.2483,0.2493,39.0600,67,97,142861
2.2678,0.2542,38.9600,67,97,142865
2.2385,0.2493,39.0000,67,97,142868
2.2678,0.2542,39.0000,67,97,142871
2.2141,0.2542,39.0600,67,97,142874
2.1799,0.2493,38.9600,67,97,142878
2.1457,0.2639,38.8700,67,97,142881
2.0430,0.2297,39.0600,67,97,142884
2.0039,0.2542,38.8400,67,97,142888
1.9062,0.2493,38.9000,67,97,142892
1.8524,0.2493,39.0300,67,97,142895
1.7546,0.2590,38.9000,67,97,142899
1.6471,0.2444,39.0000,67,97,142902
1.6080,0.2493,38.7700,67,97,142905
1.4712,0.2444,39.0000,67,97,142908
1.4027,0.2493,39.0000,67,97,142912
1.3490,0.2542,39.0000,67,97,142915
1.2903,0.2493,39.0300,67,97,142918
1.2708,0.2639,38.7700,67,97,142922
1.1926,0.2542,39.0000,67,97,142925
1.1632,0.2444,39.0000,67,97,142928
1.1290,0.2542,38.9600,67,97,142932
1.1095,0.2493,39.0300,67,97,142936
1.1290,0.2688,38.8400,67,97,142939
1.1290,0.2493,38.9300,67,97,142942
1.0899,0.2493,38.9000,67,97,142946
1.0850,0.2786,39.0300,67,97,142949
1.0948,0.2444,39.0600,67,97,142952
1.1339,0.2639,38.8700,67,97,142956
1.1095,0.2933,39.0000,67,97,142959
1.1290,0.2542,38.9000,67,97,142962
1.1193,0.2493,39.0300,67,97,142966
1.1339,0.2493,39.0300,67,97,142969
1.1730,0.2542,38.9300,67,97,142972
1.1730,0.2493,39.0300,67,97,142976
1.2121,0.2639,38.9000,67,97,142980
1.1975,0.2493,39.0300,67,97,142983
1.2072,0.2493,39.0300,67,97,142986
1.2366,0.2542,38.9600,67,97,142990
1.2512,0.2493,39.0600,67,97,142993
1.2903,0.2542,38.8700,67,97,142996
1.2805,0.2493,39.0600,67,97,143000
1.3001,0.2737,39.0300,67,97,143003
1.3148,0.2493,38.9300,67,97,143006
1.3099,0.2493,39.0300,67,97,143010
1.3783,0.2639,38.7700,67,97,143013
1.3587,0.2542,38.9300,67,97,143016
1.3636,0.2542,39.0600,67,97,143020
1.3783,0.2590,39.0300,67,97,143024
1.3734,0.2493,39.0300,67,97,143027
1.4272,0.2639,38.7100,67,97,143030
1.4027,0.2542,38.8400,67,97,143034
1.4076,0.2444,39.0000,67,97,143037
1.4174,0.2493,39.0000,67,97,143040
1.4174,0.2542,39.0300,67,97,143044
1.4663,0.2688,38.9000,67,97,143047
1.4321,0.2737,38.9600,67,97,143050
1.4663,0.2493,38.9300,67,97,143054
1.4467,0.2542,39.2200,67,97,143057
1.4467,0.2297,39.0300,67,97,143060
1.4712,0.2639,38.9300,67,97,143064
1.4712,0.2493,39.0000,67,97,143068
1.4858,0.2542,38.8700,67,97,143071
1.5005,0.2493,39.0300,67,97,143074
1.4858,0.2297,39.0000,67,97,143078
1.5152,0.2590,38.7400,67,97,143081
1.4858,0.2493,39.0300,67,97,143084
1.5054,0.2493,38.8400,67,97,143088
1.4809,0.2493,39.0000,67,97,143091
1.4956,0.2835,39.0300,67,97,143094
1.5152,0.2542,38.9000,67,97,143098
1.5005,0.2542,39.0600,67,97,143101
1.5543,0.2493,38.5800,67,97,143105
1.4956,0.2493,38.9000,67,97,143108
1.5005,0.2493,39.0300,67,97,143112
1.5249,0.2542,38.9600,67,97,143115
1.5200,0.2493,39.0600,67,97,143118
1.5591,0.2835,38.8100,67,97,143122
1.5152,0.2493,39.1200,67,97,143125
1.5249,0.2444,39.0300,67,97,143128
1.5298,0.2542,39.0000,67,97,143132
1.5249,0.2590,38.9600,67,97,143135
1.5836,0.2688,38.7400,67,97,143138
1.5494,0.2590,38.9300,67,97,143141
1.5347,0.2493,38.9600,67,97,143145
1.5347,0.2542,38.5200,67,97,143149
1.5445,0.2590,39.0300,67,97,143152
1.5934,0.2639,38.8100,67,97,143156
1.5836,0.2590,39.0000,67,97,143159
1.5591,0.2542,38.8700,67,97,143162
1.5396,0.2493,39.0300,67,97,143166
1.5445,0.2493,39.0000,67,97,143169
1.5738,0.2590,38.8700,67,97,143172
1.5543,0.2542,39.0000,67,97,143176
1.5836,0.2590,38.9000,67,97,143179
1.5494,0.2737,39.0300,67,97,143182
1.5445,0.2786,39.0600,67,97,143187
1.5445,0.2493,39.0000,67,97,143191
1.5347,0.2590,39.0300,67,97,143195
1.5298,0.2542,39.0300,67,97,143198
1.5543,0.2639,38.7400,67,97,143201
1.5396,0.2590,38.9000,67,97,143204
1.5396,0.2542,39.0000,67,97,143208
1.5494,0.2590,39.1900,67,97,143211
1.5445,0.2786,39.0000,67,97,143214
1.6080,0.2688,38.7700,67,97,143218
1.5738,0.2542,38.9000,67,97,143221
1.5787,0.2444,38.9600,67,97,143224
1.5836,0.2542,39.0000,67,97,143228
1.5836,0.2493,38.9600,67,97,143232
1.6276,0.2590,38.9000,67,97,143235
1.5885,0.2542,38.9600,67,97,143238
1.6031,0.2493,38.9000,67,97,143242
1.5836,0.2590,39.0000,67,97,143245
1.5836,0.2786,39.0300,67,97,143248
1.6080,0.2493,38.9300,67,97,143252
1.5934,0.2542,39.0000,67,97,143255
1.6178,0.2542,38.8700,67,97,143258
1.5982,0.2542,39.0300,67,97,143262
1.6129,0.2542,39.0000,67,97,143265
1.6422,0.2493,38.8700,67,97,143268
1.6031,0.2542,38.9600,67,97,143272
1.6373,0.2542,38.8700,67,97,143276
1.6080,0.2493,38.8700,67,97,143279
1.6227,0.2542,39.0000,67,97,143282
1.6373,0.2590,38.9600,67,97,143286
1.6129,0.2835,39.0600,67,97,143289
1.6471,0.2590,38.7700,67,97,143292
1.5982,0.2835,38.9600,67,97,143296
1.6031,0.2542,39.0300,67,97,143299
1.6178,0.2590,39.0900,67,97,143302
1.6178,0.2542,39.0300,67,97,143306
1.6667,0.2590,38.7400,67,97,143309
1.6178,0.2542,38.9300,67,97,143312
1.6276,0.2493,39.0900,67,97,143316
1.6325,0.2590,38.9300,67,97,143320
1.6520,0.2493,39.0300,67,97,143323
1.6764,0.2737,38.8400,67,97,143326
1.6471,0.2639,38.9300,67,97,143330
1.6373,0.2542,38.9300,67,97,143333
1.6276,0.2542,39.0000,67,97,143336
1.6325,0.2493,39.0600,67,97,143340
1.6667,0.2639,38.8700,67,97,143343
1.6325,0.2590,38.9000,67,97,143346
1.6422,0.2590,38.9000,67,97,143350
1.6373,0.2542,39.0000,67,97,143353
1.6325,0.2297,39.0300,67,97,143356
1.6618,0.2884,38.9000,67,97,143361
1.6813,0.2542,39.0000,67,97,143364
1.6813,0.2639,38.9300,67,97,143367
1.6422,0.2542,38.9000,67,97,143370
1.6471,0.2297,39.0300,67,97,143374
1.6569,0.2590,39.2200,67,97,143377
1.6520,0.2493,38.9600,67,97,143380
1.6862,0.2297,38.8400,67,97,143384
1.6618,0.2542,39.0300,67,97,143387
1.6667,0.2542,39.0600,67,97,143390
1.6716,0.2639,38.9600,67,97,143394
1.6471,0.2297,39.0600,67,97,143397
1.6911,0.2639,38.9300,67,97,143400
1.6716,0.2639,38.9300,67,97,143405
1.6667,0.2542,39.0300,67,97,143408
1.6862,0.2493,38.9600,67,97,143411
1.6520,0.2542,39.0000,67,97,143414
1.7009,0.2688,38.6800,67,97,143418
1.6667,0.2493,38.8400,67,97,143421
1.6569,0.2493,38.9600,67,97,143424
1.6569,0.2542,39.0000,67,97,143428
1.6618,0.2542,39.0600,67,97,143431
1.7107,0.2688,38.8700,67,97,143434
1.6862,0.2493,38.9600,67,97,143438
1.7009,0.2542,38.6500,67,97,143441
1.6960,0.2688,39.0000,67,97,143444
1.7009,0.2297,39.0300,67,97,143449
1.7351,0.2688,39.0000,67,97,143452
1.7155,0.2590,39.0300,67,97,143455
1.7498,0.2493,38.8700,67,97,143458
1.7400,0.2590,39.0000,67,97,143462
1.7546,0.2542,39.0000,67,97,143465
1.7889,0.2688,38.8700,67,97,143468
1.7595,0.2444,39.0300,67,97,143472
1.8035,0.2590,38.9000,67,97,143475
1.7742,0.2297,39.0000,67,97,143478
1.7791,0.2542,39.1900,67,97,143482
1.7791,0.2590,38.9000,67,97,143485
1.7302,0.2542,39.0600,67,97,143489
1.7302,0.2737,38.8700,67,97,143492
1.6764,0.2542,39.0000,67,97,143496
1.6716,0.2493,39.0900,67,97,143499
1.6813,0.2981,39.0000,67,97,143502
1.6716,0.2542,38.9600,67,97,143506
1.7009,0.2639,38.7700,67,97,143509
1.6471,0.2590,39.0000,67,97,143512
1.6471,0.2542,39.0300,67,97,143516
1.6569,0.2590,38.8700,67,97,143519
1.6422,0.2493,39.0300,67,97,143522
1.6960,0.2688,38.6200,67,97,143525
1.6520,0.2639,38.9300,67,97,143529
1.6325,0.2493,39.0000,67,97,143533
1.6031,0.2639,39.0000,67,97,143536
1.5543,0.2493,39.0000,67,97,143540
1.5494,0.2737,38.8400,67,97,143543
1.4956,0.2493,38.9300,67,97,143546
1.5005,0.2542,38.9600,67,97,143550
1.6325,0.2639,39.0000,67,97,143553
1.8964,0.2493,39.0600,67,97,143556
2.3021,0.2688,38.8700,67,97,143560
2.6979,0.2688,39.0600,67,97,143563
3.1525,0.2639,38.9000,67,97,143566
3.4702,0.2590,39.0300,67,97,143569
3.7048,0.2542,39.0000,67,97,143574
3.7537,0.2639,38.9300,67,97,143577
3.5044,0.2590,39.0000,67,97,143580
3.1378,0.2639,38.8700,67,97,143584
2.5660,0.2639,39.0000,67,97,143587
2.0870,0.2493,39.0300,67,97,143590
1.7253,0.2688,38.8700,67,97,143593
1.4565,0.2542,39.0000,67,97,143597
1.3685,0.2297,38.8700,67,97,143600
1.3148,0.2542,39.2200,67,97,143603
1.3245,0.2493,39.0300,67,97,143607
1.3587,0.2737,38.8400,67,97,143610
1.3783,0.2590,39.0600,67,97,143613
1.4418,0.2639,38.7700,67,97,143618
1.4516,0.2639,39.0300,67,97,143621
1.4858,0.2493,39.0300,67,97,143624
1.5054,0.2590,38.9300,67,97,143628
1.5103,0.2542,39.0900,67,97,143631
1.5640,0.2786,38.7400,67,97,143634
1.5347,0.2542,38.9600,67,97,143637
1.5640,0.2542,39.0300,67,97,143641
1.5787,0.2590,39.0000,67,97,143644
1.5836,0.2542,39.0300,67,97,143647
1.6471,0.2786,38.8100,67,97,143651
1.5982,0.2590,38.9600,67,97,143654
1.6227,0.2542,38.9000,67,97,143657
1.6276,0.2590,39.0000,67,97,143662
1.6471,0.2542,39.0300,67,97,143665
1.6911,0.2688,38.8700,67,97,143668
1.6667,0.2590,39.2200,67,97,143672
1.6862,0.2542,38.9000,67,97,143675
1.6764,0.2542,39.0000,67,97,143678
1.7009,0.2542,39.0000,67,97,143681
1.7400,0.2590,38.9300,67,97,143685
1.7351,0.2590,39.0000,67,97,143688
1.7644,0.2639,38.9000,67,97,143691
1.7400,0.2542,39.0300,67,97,143695
1.7595,0.2590,39.0300,67,97,143698
1.7889,0.2590,38.9300,67,97,143702
1.7937,0.2590,39.0900,67,97,143705
1.8377,0.2786,38.8700,67,97,143709
1.8084,0.2590,39.0300,67,97,143712
1.8231,0.2542,39.1600,67,97,143715
1.8426,0.2639,38.9300,67,97,143719
1.8426,0.2542,39.0000,67,97,143722
1.9013,0.2590,38.8100,67,97,143725
1.8866,0.2639,38.9000,67,97,143729
1.8866,0.2542,39.0600,67,97,143732
1.9159,0.2639,38.9300,67,97,143735
1.9110,0.2542,38.1800,67,97,143739
1.9795,0.3030,38.7100,67,97,143742
1.9453,0.2590,38.9300,67,97,143746
1.9599,0.2542,39.0900,67,97,143749
1.9941,0.2493,39.0000,67,97,143753
1.9795,0.2542,39.0000,67,97,143756
2.0626,0.2786,39.0000,67,97,143759
2.0430,0.2639,39.0000,67,97,143763
2.0674,0.2493,38.9300,67,97,143766
2.0674,0.2590,39.0600,67,97,143769
2.0772,0.2639,39.0300,67,97,143773
2.1554,0.2688,38.9000,67,97,143776
2.1408,0.2590,39.0000,67,97,143779
2.1896,0.2542,38.9000,67,97,143782
2.1945,0.2590,39.0300,67,97,143787
2.2092,0.2493,39.0000,67,97,143790
2.2727,0.2688,38.8400,67,97,143793
2.3803,0.2590,38.1800,67,97,143797
2.3705,0.2688,39.0000,67,97,143800
2.4194,0.2542,38.8400,67,97,143804
2.3949,0.2542,39.0300,67,97,143807
2.4145,0.2933,39.0300,67,97,143810
2.4487,0.2639,38.9600,67,97,143814
2.4340,0.2590,39.0300,67,97,143817
2.4878,0.2639,38.9000,67,97,143820
2.4242,0.2542,38.9600,67,97,143823
2.4242,0.2542,39.0900,67,97,143827
2.4096,0.2737,39.0600,67,97,143831
2.3460,0.2297,39.0000,67,97,143834
2.3558,0.2688,38.7700,67,97,143838
2.2483,0.2639,38.9000,67,97,143841
2.1652,0.2542,39.0300,67,97,143844
2.0968,0.2590,39.0900,67,97,143848
2.0137,0.2542,39.0900,67,97,143851
1.9892,0.2737,38.8100,67,97,143854
1.8475,0.2639,39.0000,67,97,143857
1.7595,0.2542,38.9600,67,97,143861
1.6862,0.2493,39.0000,67,97,143864
1.6227,0.2542,39.1900,67,97,143867
1.5982,0.2737,38.9000,67,97,143872
1.5152,0.2590,39.0000,67,97,143875
1.4858,0.2590,39.0000,67,97,143878
1.4174,0.2590,38.9600,67,97,143881
1.3832,0.2542,39.0300,67,97,143885
1.3881,0.3030,38.9600,67,97,143888
1.3685,0.2590,39.0000,67,97,143891
1.3832,0.2639,38.8400,67,97,143895
1.3490,0.2590,39.0300,67,97,143898
1.3587,0.2542,39.1600,67,97,143901
1.3783,0.2590,38.8700,67,97,143905
1.3685,0.2542,39.1900,67,97,143908
1.4027,0.2688,38.8400,67,97,143911
1.3978,0.2590,38.9300,67,97,143916
1.4027,0.2542,39.0000,67,97,143919
1.4223,0.2688,38.9000,67,97,143922
1.4321,0.2542,39.0900,67,97,143926
1.4858,0.2639,38.8100,67,97,143929
1.4663,0.2590,39.0300,67,97,143932
1.4761,0.2542,39.0000,67,97,143935
1.5103,0.2590,38.9600,67,97,143939
1.4956,0.2590,39.0000,67,97,143942
1.5494,0.2688,38.7100,67,97,143945
1.5396,0.2639,38.9600,67,97,143949
1.5494,0.2493,39.1200,67,97,143952
1.5494,0.2688,39.0000,67,97,143955
1.5494,0.2639,39.1200,67,97,143960
1.6080,0.2737,38.8400,67,97,143963
1.5982,0.2639,38.9300,67,97,143966
1.6129,0.2542,39.0300,67,97,143969
1.6227,0.2590,39.0000,67,97,143973
1.6276,0.2542,39.0000,67,97,143976
1.6618,0.2688,38.8400,67,97,143979
1.6373,0.2590,38.9600,67,97,143983
1.6618,0.2590,38.9300,67,97,143986
1.6813,0.2493,39.1900,67,97,143989
1.6569,0.2542,39.0600,67,97,143993
1.6960,0.2493,38.9600,67,97,143996
1.6618,0.2493,39.0000,67,97,144000
1.6960,0.2639,38.9600,67,97,144004
1.6667,0.2590,39.0000,67,97,144007
1.6862,0.2493,39.0300,67,97,144010
1.7058,0.2590,39.0300,67,97,144013
1.7058,0.2933,39.0300,67,97,144017
1.7253,0.2639,38.9000,67,97,144020
1.7058,0.2542,39.0900,67,97,144023
1.7204,0.2542,39.0300,67,97,144027
1.7449,0.2688,38.9300,67,97,144030
1.7253,0.2542,39.0000,67,97,144033
1.7693,0.2590,38.7700,67,97,144037
1.7498,0.2590,38.9000,67,97,144040
1.7449,0.2542,39.0600,67,97,144044
1.7693,0.2590,38.9300,67,97,144047
1.7595,0.2542,39.0600,67,97,144051
1.8084,0.2737,38.6800,67,97,144054
1.7449,0.2297,38.9000,67,97,144057
1.7498,0.2493,39.4100,67,97,144061
1.7498,0.2590,39.0000,67,97,144064
1.7595,0.2493,39.0300,67,97,144067
1.8133,0.2737,38.8400,67,97,144071
1.7644,0.2590,39.0000,67,97,144074
1.7693,0.2542,38.9300,67,97,144077
1.7498,0.2884,39.0600,67,97,144080
1.7498,0.2542,39.0300,67,97,144084
1.7889,0.2786,38.9000,67,97,144088
1.7791,0.2590,38.9600,67,97,144091
1.7986,0.2590,39.0000,67,97,144095
1.7742,0.2542,39.0300,67,97,144098
1.7840,0.2542,39.0300,67,97,144101
1.8182,0.2688,38.8100,67,97,144105
1.7840,0.2493,39.0000,67,97,144108
1.8231,0.2639,38.9000,67,97,144111
1.7889,0.2493,38.9300,67,97,144115
1.7986,0.2542,39.0900,67,97,144118
1.7986,0.2590,38.9000,67,97,144121
1.7889,0.2542,39.0000,67,97,144124
1.8231,0.2542,38.8400,67,97,144129
1.7986,0.2590,38.9600,67,97,144132
1.7986,0.2493,39.0000,67,97,144135
1.8035,0.2590,38.4900,67,97,144139
1.7937,0.2542,39.0300,67,97,144142
1.8524,0.2639,38.7700,67,97,144145
1.8035,0.2493,39.0300,67,97,144149
1.8426,0.2542,39.0000,67,97,144152
1.8231,0.2590,38.9600,67,97,144155
1.8328,0.2542,39.0000,67,97,144159
1.8524,0.2639,38.7700,67,97,144162
1.8280,0.2590,38.9000,67,97,144165
1.8328,0.2542,39.0000,67,97,144168
1.8426,0.2590,39.0900,67,97,144173
1.8377,0.2737,39.0000,67,97,144176
1.8915,0.2688,38.8100,67,97,144179
1.8426,0.2590,38.2400,67,97,144183
1.8475,0.2590,38.9000,67,97,144186
1.8475,0.2542,39.0300,67,97,144189
1.8622,0.2542,39.0300,67,97,144193
1.8964,0.2737,38.8700,67,97,144196
1.8573,0.2542,39.1200,67,97,144199
1.8817,0.2444,38.9000,67,97,144202
1.8573,0.2542,39.0000,67,97,144206
1.8622,0.2542,39.0300,67,97,144209
1.8817,0.2639,38.9300,67,97,144212
1.8671,0.2542,38.9300,67,97,144217
1.8964,0.2737,38.9000,67,97,144220
1.8622,0.2542,39.0300,67,97,144223
1.8768,0.2737,39.0600,67,97,144227
1.9110,0.2639,38.9300,67,97,144230
1.8719,0.2737,39.0000,67,97,144233
1.9013,0.2590,38.8100,67,97,144237
1.8768,0.2542,38.9600,67,97,144240
1.8719,0.2688,39.0000,67,97,144243
1.9013,0.2639,38.9300,67,97,144246
1.8866,0.2542,39.0900,67,97,144250
1.9306,0.2639,38.8100,67,97,144253
1.8768,0.2542,38.9300,67,97,144257
1.8768,0.2542,39.0600,67,97,144261
1.8817,0.2590,39.0000,67,97,144264
1.8866,0.2542,39.0300,67,97,144267
1.9501,0.2688,38.7100,67,97,144271
1.8964,0.2297,38.9600,67,97,144274
1.8915,0.2444,39.0000,67,97,144277
1.8817,0.2688,39.0600,67,97,144280
1.8768,0.2493,39.0300,67,97,144284
1.9453,0.2688,39.0300,67,97,144287
1.9062,0.2542,38.9300,67,97,144290
1.9013,0.2493,38.9300,67,97,144294
1.8915,0.2688,39.0000,67,97,144297
1.8866,0.2542,39.0000,67,97,144301
1.9159,0.2639,38.8100,67,97,144305
1.8915,0.2590,39.0000,67,97,144308
1.9159,0.2737,38.9000,67,97,144311
1.8964,0.2297,39.0300,67,97,144314
1.8964,0.2542,39.0900,67,97,144318
1.9404,0.2639,38.9600,67,97,144321
1.8964,0.2542,39.0000,67,97,144324
1.9404,0.2590,38.3300,67,97,144328
1.9062,0.2590,39.0000,67,97,144331
1.9062,0.2297,39.0300,67,97,144334
1.9110,0.2590,38.8400,67,97,144338
1.9110,0.2590,39.0300,67,97,144342
1.9257,0.2297,38.8700,67,97,144345
1.9159,0.2444,39.0000,67,97,144348
1.9306,0.2542,39.0300,67,97,144352
1.9501,0.2590,38.9600,67,97,144355
1.9208,0.2542,39.0000,67,97,144358
1.9599,0.2688,38.7700,67,97,144362
1.9404,0.2590,38.9000,67,97,144365
1.9404,0.2542,39.0300,67,97,144368
1.9697,0.2542,38.9300,67,97,144372
1.9501,0.2542,39.2200,67,97,144375
2.0088,0.2639,38.7100,67,97,144378
1.9550,0.2542,38.9300,67,97,144382
1.9697,0.2493,38.9600,67,97,144386
1.9795,0.2493,39.0000,67,97,144389
1.9990,0.2493,39.0600,67,97,144392
2.0723,0.2737,38.7400,67,97,144396
2.0186,0.2590,38.9600,67,97,144399
2.0088,0.2493,38.9600,67,97,144402
1.9746,0.2590,39.0000,67,97,144406
1.8768,0.2542,39.0600,67,97,144409
1.8768,0.2542,39.0300,67,97,144413
1.8964,0.2639,38.9000,67,97,144416
1.8475,0.2542,39.0000,67,97,144419
1.8719,0.2493,38.8700,67,97,144423
1.8280,0.2493,39.0000,67,97,144427
1.8377,0.2542,39.0000,67,97,144430
1.8622,0.2590,38.9000,67,97,144433
1.8524,0.2542,39.0000,67,97,144437
1.8719,0.2542,38.8100,67,97,144440
1.8035,0.2542,38.9600,67,97,144443
1.7498,0.2493,39.1200,67,97,144447
1.7107,0.2639,38.9600,67,97,144450
1.6911,0.2542,39.0300,67,97,144453
1.8084,0.2639,38.8100,67,97,144457
1.9404,0.2542,38.9600,67,97,144460
2.2336,0.2493,39.0000,67,97,144463
2.6540,0.2493,38.9600,67,97,144466
3.0547,0.2493,38.9300,67,97,144471
3.5728,0.2737,38.6800,67,97,144474
3.8270,0.2590,38.9600,67,97,144477
3.9736,0.2493,39.0900,67,97,144481
3.8759,0.2590,39.0000,67,97,144484
3.5484,0.2493,39.0300,67,97,144487
3.1525,0.2639,38.8100,67,97,144491
2.5904,0.2590,38.9600,67,97,144494
2.1457,0.2542,38.9000,67,97,144497
1.8084,0.2493,39.0300,67,97,144501
1.6178,0.2493,39.0000,67,97,144504
1.5591,0.2639,38.8700,67,97,144507
1.5249,0.2542,39.0300,67,97,144510
1.5640,0.2542,38.9300,67,97,144515
1.5591,0.2590,39.0000,67,97,144518
1.5982,0.2493,39.0300,67,97,144521
1.6373,0.2590,39.1900,67,97,144525
1.6569,0.2590,38.9600,67,97,144528
1.7155,0.2542,38.9000,67,97,144531
1.7107,0.2542,39.0300,67,97,144535
1.7253,0.2444,39.0000,67,97,144538
1.7498,0.2590,38.9000,67,97,144541
1.7302,0.2542,39.0000,67,97,144544
1.7644,0.2542,38.8100,67,97,144548
1.7644,0.2542,38.9600,67,97,144551
1.7791,0.2542,39.0000,67,97,144555
1.8133,0.2590,38.9300,67,97,144559
1.7986,0.2444,39.0000,67,97,144562
1.8524,0.2590,38.7400,67,97,144565
1.8084,0.2493,38.8700,67,97,144569
1.8280,0.2542,39.0000,67,97,144572
1.8524,0.2542,39.0000,67,97,144575
1.8622,0.2493,38.4000,67,97,144579
1.9306,0.2639,38.7400,67,97,144582
1.8866,0.2493,38.9600,67,97,144585
1.8964,0.2444,38.9300,67,97,144588
1.9062,0.2493,39.0000,67,97,144592
1.9159,0.2493,39.0000,67,97,144595
1.9697,0.2688,38.9300,67,97,144599
1.9404,0.2542,39.0000,67,97,144603
1.9501,0.2493,39.0000,67,97,144606
1.9648,0.2493,39.0000,67,97,144609
1.9599,0.2493,39.0000,67,97,144613
2.0137,0.2639,38.8700,67,97,144616
1.9844,0.2542,39.0000,67,97,144619
2.0186,0.2542,38.8700,67,97,144622
1.9990,0.2493,39.0300,67,97,144626
2.0381,0.2493,39.0300,67,97,144629
2.0577,0.2542,39.0300,67,97,144632
2.0577,0.2639,39.0300,67,97,144636
2.1114,0.2542,38.9000,67,97,144640
2.0723,0.2493,39.0600,67,97,144643
2.0821,0.2493,39.1200,67,97,144647
2.1017,0.2737,38.9600,67,97,144650
2.1114,0.2493,39.0300,67,97,144653
2.1652,0.2542,38.8100,67,97,144656
2.1408,0.2493,39.0000,67,97,144660
2.1554,0.2493,39.0000,67,97,144663
2.1701,0.2835,38.9300,67,97,144666
2.1652,0.2493,39.0300,67,97,144670
2.2385,0.2590,38.7400,67,97,144673
2.2287,0.2884,38.9300,67,97,144676
2.2385,0.2493,39.0600,67,97,144680
2.2581,0.2835,38.9600,67,97,144684
2.2874,0.2493,39.0000,67,97,144687
2.3460,0.2639,38.7100,67,97,144690
2.3167,0.2542,38.9000,67,97,144694
2.3460,0.2444,38.9600,67,97,144697
2.3754,0.2542,39.0300,67,97,144700
2.3949,0.2493,38.9000,67,97,144704
2.4878,0.2688,38.8100,67,97,144707
2.4487,0.2542,39.0000,67,97,144710
2.4829,0.2493,39.0000,67,97,144714
2.4878,0.2933,39.0600,67,97,144717
2.5073,0.2493,39.0000,67,97,144720
2.5709,0.2639,38.9300,67,97,144723
2.5464,0.2542,38.9600,67,97,144728
2.5855,0.2542,38.9000,67,97,144731
2.5660,0.2493,39.0000,67,97,144734
2.5758,0.2493,38.9000,67,97,144738
2.6100,0.2590,38.8400,67,97,144741
2.5415,0.2542,38.9600,67,97,144744
2.5415,0.2590,38.5800,67,97,144748
2.4682,0.2493,39.0300,67,97,144751
2.4340,0.2493,39.0000,67,97,144754
2.3900,0.2542,39.0600,67,97,144757
2.2923,0.2493,39.0300,67,97,144761
2.2483,0.2542,38.8700,67,97,144764
2.1163,0.2493,39.0000,67,97,144768
2.0381,0.2493,38.9600,67,97,144772
1.9746,0.2590,38.9000,67,97,144775
1.8964,0.2297,39.0300,67,97,144778
1.8573,0.2542,38.8700,67,97,144782
1.7498,0.2493,39.0300,67,97,144785
1.6911,0.2493,38.8700,67,97,144788
1.6471,0.2493,38.9600,67,97,144791
1.5787,0.2590,39.0300,67,97,144795
1.6227,0.2688,38.7400,67,97,144798
1.5200,0.2542,38.9000,67,97,144801
1.4907,0.2493,39.0300,67,97,144805
1.4809,0.2493,39.0000,67,97,144808
1.4614,0.2493,39.0300,67,97,144812
1.5054,0.2688,38.7700,67,97,144816
1.4663,0.2590,38.9300,67,97,144819
1.4614,0.2444,38.9000,67,97,144822
1.4614,0.2542,39.0000,67,97,144826
1.4663,0.2297,39.0300,67,97,144829
1.5152,0.2639,38.8400,67,97,144832
1.5054,0.2542,39.0300,67,97,144835
1.5347,0.2493,38.9600,67,97,144839
1.5152,0.2493,38.9600,67,97,144842
1.5249,0.2835,39.0300,67,97,144845
1.5640,0.2542,38.9600,67,97,144849
1.5640,0.2493,39.0000,67,97,144852
1.6031,0.2590,38.8100,67,97,144856
1.5836,0.2493,39.0300,67,97,144860
1.5982,0.2493,39.0000,67,97,144863
1.6276,0.2590,38.8400,67,97,144866
1.6080,0.2493,39.0000,67,97,144869
1.6422,0.2493,38.8400,67,97,144873
1.6422,0.2493,38.9300,67,97,144876
1.6716,0.2493,39.0000,67,97,144879
1.6911,0.2590,38.8700,67,97,144883
1.6862,0.2493,39.0000,67,97,144886
1.7204,0.2542,38.3600,67,97,144889
1.7204,0.2542,39.0000,67,97,144893
1.7204,0.2542,39.0300,67,97,144897
1.7253,0.2542,39.0600,67,97,144900
1.7155,0.2493,39.0600,67,97,144904
1.7644,0.2688,38.7700,67,97,144907
1.7302,0.2493,39.1200,67,97,144910
1.7498,0.2444,39.0600,67,97,144913
1.7693,0.2542,38.9600,67,97,144917
1.7546,0.2542,39.0000,67,97,144920
1.8280,0.2688,38.7700,67,97,144923
1.7742,0.2590,38.9300,67,97,144927
1.7693,0.2444,38.9300,67,97,144930
1.7791,0.2542,38.9600,67,97,144933
1.7840,0.2493,38.9600,67,97,144937
1.8133,0.2688,38.8400,67,97,144941
1.7840,0.2542,39.0000,67,97,144944
1.7937,0.2542,38.8400,67,97,144947
1.7840,0.2542,39.0000,67,97,144951
1.7986,0.2493,39.0300,67,97,144954
1.8524,0.2590,38.9300,67,97,144957
1.8035,0.2493,39.0900,67,97,144961
1.8377,0.2590,38.8400,67,97,144964
1.8035,0.2590,39.0300,67,97,144967
1.8084,0.2493,39.0000,67,97,144971
1.8280,0.2542,38.9000,67,97,144974
1.8280,0.2542,39.0300,67,97,144977
1.8768,0.2493,38.8700,67,97,144980
1.8231,0.2493,39.0300,67,97,144985
1.8182,0.2493,39.0000,67,97,144988
1.8524,0.2590,38.8700,67,97,144991
1.8231,0.2542,39.0000,67,97,144995
1.8622,0.2493,38.7700,67,97,144998
1.8426,0.2542,38.9000,67,97,145001
1.8280,0.2542,39.0000,67,97,145005
1.8475,0.2590,38.9300,67,97,145008
1.8328,0.2493,39.0600,67,97,145011
1.8866,0.2981,38.7100,67,97,145015
1.9159,0.2493,38.8400,67,97,145018
1.8377,0.2493,39.0300,67,97,145022
1.8426,0.2444,38.9000,67,97,145026
1.8084,0.2493,39.0000,67,97,145029
1.7986,0.2542,39.0300,67,97,145032
1.8377,0.2590,38.9300,67,97,145036
1.8182,0.2493,38.9600,67,97,145039
1.8573,0.2493,38.8700,67,97,145042
1.8426,0.2493,39.0300,67,97,145046
1.8573,0.2493,39.0600,67,97,145049
1.8817,0.2590,38.9000,67,97,145052
1.8426,0.2444,39.0600,67,97,145056
1.8964,0.2493,38.9300,67,97,145059
1.8622,0.2493,38.8400,67,97,145062
1.8719,0.2542,39.0300,67,97,145067
1.8817,0.2542,38.8700,67,97,145070
1.8573,0.2493,39.0000,67,97,145073
1.8964,0.2542,38.7700,67,97,145076
1.8573,0.2786,39.0000,67,97,145080
1.8622,0.2493,39.0000,67,97,145083
1.8768,0.2542,39.0000,67,97,145086
1.8622,0.2493,39.0000,67,97,145090
1.9062,0.2688,38.7100,67,97,145093
1.8573,0.2444,38.1800,67,97,145096
1.8719,0.2542,39.0300,67,97,145100
1.8768,0.2542,38.9600,67,97,145103
1.8622,0.2493,39.0000,67,97,145106
1.9208,0.2688,38.7700,67,97,145111
1.8719,0.2542,38.6800,67,97,145114
1.8671,0.2542,38.9000,67,97,145117
1.8719,0.2493,38.8400,67,97,145120
1.8768,0.2493,39.0300,67,97,145124
1.9208,0.2639,38.8400,67,97,145127
1.8719,0.2444,38.9300,67,97,145130
1.8866,0.2493,38.9000,67,97,145134
1.8671,0.2493,38.9300,67,97,145137
1.8768,0.2542,39.0000,67,97,145140
1.9013,0.2590,38.9300,67,97,145144
1.8719,0.2493,39.0000,67,97,145147
1.8915,0.2493,38.9000,67,97,145150
1.8524,0.2297,39.0000,67,97,145154
1.8573,0.2493,39.0000,67,97,145158
1.8915,0.2542,38.9300,67,97,145161
1.8719,0.2542,39.0300,67,97,145164
1.9013,0.2835,38.8400,67,97,145168
1.8719,0.2493,38.9600,67,97,145171
1.8768,0.2444,39.0000,67,97,145174
1.8964,0.2493,38.9300,67,97,145178
1.8866,0.2590,39.0600,67,97,145181
1.9697,0.2639,38.7700,67,97,145184
1.9306,0.2590,38.9000,67,97,145188
1.9355,0.2493,39.0000,67,97,145191
1.9599,0.2493,38.9600,67,97,145195
1.9599,0.2493,39.0300,67,97,145198
2.0332,0.2688,38.7100,67,97,145202
1.9892,0.2444,38.9300,67,97,145205
1.9941,0.2786,39.0000,67,97,145208
1.9990,0.2493,39.0300,67,97,145212
1.9697,0.2493,39.0300,67,97,145215
2.0088,0.2786,38.8100,67,97,145218
1.9355,0.2542,39.0000,67,97,145222
1.9208,0.2493,38.2100,67,97,145225
1.8915,0.2786,39.0000,67,97,145228
1.8719,0.2493,39.0900,67,97,145232
1.9013,0.2884,38.8700,67,97,145235
1.8719,0.2542,39.0000,67,97,145239
1.8817,0.2493,38.9300,67,97,145242
1.8964,0.2542,39.0600,67,97,145246
1.8573,0.2493,39.0000,67,97,145249
1.8719,0.3128,38.9000,67,97,145252
1.8280,0.2493,39.0000,67,97,145256
1.8573,0.2590,39.3500,67,97,145259
1.8280,0.2493,39.0000,67,97,145262
1.8231,0.2493,39.0000,67,97,145266
1.8084,0.2542,38.9000,67,97,145269
1.7400,0.2493,39.0600,67,97,145272
1.7204,0.2542,38.8700,67,97,145275
1.6911,0.2493,39.0000,67,97,145280
1.7840,0.2542,39.0000,67,97,145283
1.9892,0.2542,38.9300,67,97,145286
2.2727,0.2493,39.0900,67,97,145290
2.7175,0.2444,38.7700,67,97,145293
3.0890,0.2444,39.1600,67,97,145296
3.4751,0.2835,39.0000,67,97,145300
3.7830,0.2542,38.9600,67,97,145303
3.8807,0.2493,38.9000,67,97,145306
3.8661,0.2884,38.7100,67,97,145309
3.4555,0.2493,38.9300,67,97,145313
2.9619,0.2444,39.0300,67,97,145316
2.4585,0.2590,39.0000,67,97,145319
2.0137,0.2493,39.0300,67,97,145324
1.7546,0.2688,38.8100,67,97,145327
1.5249,0.2590,38.9600,67,97,145330
1.4418,0.2444,38.9300,67,97,145334
1.4370,0.2493,39.0600,67,97,145337
1.4565,0.2493,39.0300,67,97,145340
1.5249,0.2542,38.8700,67,97,145344
1.5347,0.2493,39.1200,67,97,145347
1.5934,0.2639,38.8700,67,97,145350
1.6080,0.2493,39.0600,67,97,145353
1.6325,0.2493,39.0000,67,97,145357
1.6716,0.2542,38.9600,67,97,145360
1.6911,0.2493,39.1900,67,97,145363
1.7351,0.2933,38.9000,67,97,145368
1.7155,0.2493,39.0600,67,97,145371
1.7302,0.2493,39.0000,67,97,145374
1.7644,0.2590,38.8700,67,97,145378
1.7498,0.2493,39.0000,67,97,145381
1.7937,0.2542,38.8400,67,97,145384
1.7791,0.2542,38.9000,67,97,145388
1.7937,0.2493,39.0000,67,97,145391
1.8182,0.2639,38.9300,67,97,145394
1.8133,0.2493,39.0300,67,97,145397
1.8768,0.2688,38.7700,67,97,145401
1.8475,0.2493,38.9300,67,97,145404
1.8573,0.2444,39.0300,67,97,145408
1.8768,0.2542,39.0000,67,97,145412
1.8768,0.2493,39.0300,67,97,145415
1.9404,0.2590,38.7700,67,97,145418
1.9013,0.2542,38.9600,67,97,145422
1.9208,0.2297,39.0000,67,97,145425
1.9208,0.2542,39.1200,67,97,145428
1.9159,0.2395,39.0000,67,97,145431
1.9795,0.2688,38.7700,67,97,145435
1.9404,0.2542,39.0000,67,97,145438
1.9599,0.2493,38.9300,67,97,145441
1.9697,0.2542,39.0900,67,97,145445
1.9844,0.2493,39.0000,67,97,145448
2.0381,0.2493,38.8100,67,97,145452
2.0137,0.2493,39.2200,67,97,145456
2.0479,0.2542,38.8700,67,97,145459
2.0430,0.2297,39.0000,67,97,145462
2.0626,0.2493,39.0000,67,97,145465
2.1017,0.2590,38.8700,67,97,145469
2.0821,0.2542,39.0000,67,97,145472
2.1310,0.2493,38.8700,67,97,145475
2.1017,0.2493,39.2500,67,97,145479
2.1310,0.2542,39.0300,67,97,145482
2.1603,0.2542,38.9300,67,97,145485
2.1652,0.2493,39.0600,67,97,145489
2.2434,0.2542,38.9300,67,97,145492
2.1945,0.2542,39.0300,67,97,145496
2.2239,0.2444,39.0000,67,97,145500
2.2630,0.2542,38.9000,67,97,145503
2.2532,0.2493,39.0000,67,97,145506
2.3265,0.2542,38.7100,67,97,145509
2.3069,0.2590,38.9000,67,97,145513
2.3216,0.2493,39.0300,67,97,145516
2.3705,0.2493,38.9000,67,97,145519
2.3803,0.2493,39.0300,67,97,145523
2.4682,0.2590,38.8100,67,97,145526
2.4242,0.2493,38.9300,67,97,145529
2.4389,0.2493,39.0300,67,97,145533
2.4927,0.2542,38.9600,67,97,145537
2.4976,0.2493,39.0900,67,97,145540
2.6051,0.2688,38.7700,67,97,145543
2.5562,0.2493,38.9600,67,97,145547
2.5758,0.2493,38.9000,67,97,145550
2.5758,0.2493,39.0000,67,97,145553
2.5709,0.2493,39.0300,67,97,145557
2.6197,0.2639,38.9000,67,97,145560
2.5709,0.2493,39.0000,67,97,145563
2.5758,0.2493,38.8700,67,97,145567
2.5073,0.2493,39.0600,67,97,145570
2.4633,0.2395,39.0000,67,97,145573
2.4536,0.2590,38.8400,67,97,145576
2.3412,0.2542,38.9600,67,97,145581
2.3021,0.2590,38.9000,67,97,145584
2.1848,0.2493,38.9600,67,97,145587
2.1212,0.2493,39.0300,67,97,145591
2.0332,0.2493,38.9000,67,97,145594
1.9404,0.2542,39.0000,67,97,145597
1.8915,0.2542,38.8400,67,97,145601
1.7889,0.2493,38.9600,67,97,145604
1.7155,0.2493,39.0000,67,97,145607
1.6569,0.2542,38.6500,67,97,145611
1.5885,0.2493,38.9300,67,97,145614
1.5689,0.2542,38.7700,67,97,145617
1.5005,0.2444,39.0000,67,97,145620
1.4761,0.2542,39.0300,67,97,145625
1.4614,0.2590,38.9300,67,97,145628
1.4223,0.2493,39.0600,67,97,145632
1.4223,0.2493,39.0000,67,97,145635
1.4565,0.2590,38.8400,67,97,145638
1.4272,0.2590,39.0000,67,97,145642
1.4516,0.2542,38.8700,67,97,145645
1.4565,0.2493,39.0000,67,97,145648
1.4809,0.2493,39.0900,67,97,145652
1.5152,0.2590,38.9000,67,97,145655
1.5103,0.2493,39.0000,67,97,145658
1.5494,0.2542,38.8400,67,97,145662
1.5347,0.2493,39.0000,67,97,145666
1.5543,0.2493,39.1200,67,97,145669
1.5787,0.2590,38.9300,67,97,145672
1.5885,0.2493,39.0000,67,97,145676
1.6276,0.2493,38.7700,67,97,145679
1.6080,0.2493,39.0000,67,97,145682
1.6373,0.2444,39.0000,67,97,145686
1.6716,0.2590,38.9000,67,97,145689
1.6471,0.2493,39.0300,67,97,145692
1.6960,0.2542,38.7700,67,97,145696
1.6764,0.2542,38.9000,67,97,145699
1.6911,0.2444,39.0300,67,97,145702
1.7107,0.2884,38.9600,67,97,145705
1.7253,0.2395,39.0000,67,97,145710
1.7644,0.2590,38.7700,67,97,145713
1.7107,0.2493,38.9000,67,97,145716
1.7204,0.2493,39.0000,67,97,145720
1.7253,0.2493,39.0000,67,97,145723
1.7400,0.2493,39.0300,67,97,145726
1.8280,0.2590,38.7400,67,97,145730
1.7644,0.2444,38.9600,67,97,145733
1.7693,0.2542,39.0000,67,97,145736
1.7644,0.2493,38.9600,67,97,145740
1.7595,0.2444,39.0000,67,97,145743
1.8133,0.2639,38.8700,67,97,145746
1.7986,0.2542,38.9600,67,97,145750
1.8133,0.2493,38.8700,67,97,145754
1.7889,0.2542,39.0000,67,97,145757
1.7986,0.2444,39.0300,67,97,145760
1.8328,0.2688,39.0000,67,97,145764
1.8084,0.2493,39.0000,67,97,145767
1.8426,0.2590,38.9300,67,97,145770
1.8084,0.2395,39.0600,67,97,145774
1.8133,0.2493,39.0300,67,97,145777
1.8133,0.2542,38.9000,67,97,145780
1.8084,0.2395,39.0300,67,97,145784
1.8426,0.2493,38.8100,67,97,145787
1.8084,0.2493,38.9600,67,97,145790
1.8035,0.2493,39.0000,67,97,145794
1.8133,0.2493,38.9300,67,97,145798
1.8035,0.2493,38.9600,67,97,145801
1.8524,0.2493,38.7700,67,97,145804
1.8182,0.2444,38.9600,67,97,145808
1.8622,0.2493,39.0000,67,97,145811
1.8328,0.2542,39.0000,67,97,145814
1.8133,0.2395,39.0300,67,97,145818
1.8573,0.2590,38.6800,67,97,145821
1.8182,0.2639,38.9000,67,97,145824
1.8524,0.2493,39.0300,67,97,145827
1.8231,0.2542,38.7100,67,97,145831
1.8475,0.2395,39.0000,67,97,145835
1.8768,0.2688,38.8400,67,97,145838
1.8231,0.2444,38.9300,67,97,145842
1.8280,0.2444,38.9300,67,97,145845
1.8231,0.2493,39.0900,67,97,145848
1.8377,0.2542,39.0000,67,97,145852
1.8622,0.2297,38.9000,67,97,145855
1.8280,0.2493,39.0000,67,97,145858
1.8524,0.2542,38.9600,67,97,145862
1.8280,0.2542,39.0000,67,97,145865
1.8377,0.2639,39.0000,67,97,145868
1.8671,0.2493,38.9600,67,97,145871
1.8573,0.2493,39.0000,67,97,145875
1.8817,0.2639,38.8400,67,97,145879
1.8475,0.2493,39.0000,67,97,145882
1.8622,0.2444,39.0000,67,97,145886
1.9208,0.2639,38.9000,67,97,145889
1.8719,0.2493,38.9300,67,97,145892
1.9013,0.2542,38.8100,67,97,145896
1.8768,0.2493,38.9000,67,97,145899
1.8768,0.2444,38.9000,67,97,145902
1.9013,0.2297,38.9000,67,97,145906
1.8866,0.2444,39.0000,67,97,145909
1.9355,0.2542,38.9600,67,97,145912
1.8817,0.2444,38.9600,67,97,145915
1.8768,0.2444,39.1900,67,97,145920
1.8964,0.2493,39.0000,67,97,145923
1.8866,0.2444,39.0300,67,97,145926
1.9501,0.2590,38.7700,67,97,145930
1.9257,0.2493,38.9600,67,97,145933
1.9062,0.2395,38.9600,67,97,145936
1.8964,0.2444,39.0600,67,97,145940
1.8964,0.2444,39.0000,67,97,145943
1.9599,0.2639,38.8700,67,97,145946
1.9257,0.2884,38.9300,67,97,145949
1.9208,0.2444,38.9300,67,97,145953
1.9306,0.2542,39.0300,67,97,145956
1.9062,0.2444,39.0000,67,97,145959
1.9404,0.2590,38.8400,67,97,145964
1.9062,0.2493,38.9600,67,97,145967
1.9257,0.2493,38.8700,67,97,145970
1.9062,0.2395,39.0000,67,97,145974
1.9159,0.2395,39.0300,67,97,145977
1.9257,0.2542,38.8400,67,97,145980
1.9062,0.2444,39.0000,67,97,145984
1.9501,0.2542,38.9000,67,97,145987
1.9110,0.2493,39.0900,67,97,145990
1.9110,0.2395,38.9600,67,97,145993
1.9159,0.2493,38.9300,67,97,145997
1.9062,0.2493,38.9000,67,97,146000
1.9404,0.2395,38.8400,67,97,146003
1.9159,0.2493,38.9000,67,97,146008
1.9306,0.2493,39.0000,67,97,146011
1.9453,0.2493,38.9300,67,97,146014
1.9110,0.2639,39.0600,67,97,146018
1.9697,0.2542,38.7700,67,97,146021
1.9453,0.2493,38.9300,67,97,146024
1.9550,0.2493,39.0000,67,97,146027
1.9892,0.2542,38.9600,67,97,146031
1.9892,0.2737,39.0000,67,97,146034
2.0821,0.2590,38.7700,67,97,146037
1.9941,0.2493,38.9300,67,97,146041
1.9892,0.2395,39.0000,67,97,146044
2.0039,0.2493,39.0000,67,97,146048
2.0137,0.2444,39.0000,67,97,146052
2.0870,0.2639,38.7400,67,97,146055
2.0577,0.2590,38.9600,67,97,146058
2.0430,0.2297,38.9300,67,97,146061
2.0235,0.2493,38.2400,67,97,146065
2.0381,0.2395,39.0600,67,97,146068
2.0235,0.2590,38.9000,67,97,146071
1.9599,0.2493,39.0000,67,97,146075
1.9501,0.2444,38.9000,67,97,146078
1.9110,0.2493,39.0300,67,97,146081
1.9013,0.2444,39.0000,67,97,146085
1.9257,0.2542,38.8100,67,97,146088
1.8817,0.2444,39.0000,67,97,146092
1.8915,0.2542,38.9300,67,97,146095
1.8475,0.2395,39.0600,67,97,146099
1.8475,0.2297,39.0300,67,97,146102
1.8573,0.2542,38.9000,67,97,146105
1.8426,0.2444,39.0000,67,97,146109
1.8719,0.2444,38.9300,67,97,146112
1.8182,0.2542,38.9600,67,97,146115
1.7986,0.2444,39.0300,67,97,146119
1.7693,0.2737,38.9300,67,97,146122
1.7009,0.2444,39.0000,67,97,146125
1.7009,0.2493,38.7700,67,97,146128
1.6667,0.2639,39.0000,67,97,146132
1.7644,0.2444,39.0000,67,97,146136
1.9844,0.2493,39.0900,67,97,146139
2.3265,0.2395,39.0000,67,97,146143
2.7859,0.2542,38.7400,67,97,146146
3.1623,0.2493,38.9000,67,97,146149
3.5386,0.2444,39.0600,67,97,146153
3.8270,0.2493,38.9300,67,97,146156
3.9198,0.2395,39.0000,67,97,146159
3.8856,0.2639,38.8100,67,97,146163
3.4360,0.2542,38.9300,67,97,146166
2.9228,0.2444,38.9300,67,97,146169
2.3998,0.2493,39.0000,67,97,146172
1.9697,0.2444,39.0900,67,97,146177
1.7058,0.2542,38.8700,67,97,146180
1.5103,0.2493,39.0000,67,97,146183
1.4712,0.2444,38.8700,67,97,146187
1.4516,0.2444,39.0000,67,97,146190
1.4761,0.2444,38.6800,67,97,146193
1.5591,0.2542,38.9300,67,97,146197
1.5591,0.2493,39.0000,67,97,146200
1.6227,0.2786,38.8700,67,97,146203
1.6276,0.2444,39.0000,67,97,146207
1.6569,0.2444,38.9600,67,97,146210
1.6911,0.2493,38.9000,67,97,146213
1.6667,0.2590,39.0000,67,97,146216
1.6960,0.2590,38.8400,67,97,146221
1.6960,0.2444,38.9000,67,97,146224
1.7155,0.2444,39.0300,67,97,146227
1.7498,0.2444,38.9000,67,97,146231
1.7400,0.2297,39.0000,67,97,146234
1.7889,0.2493,38.8100,67,97,146237
1.8719,0.2639,38.7400,67,97,146241
1.8182,0.2395,38.9300,67,97,146244
1.8182,0.2395,39.0000,67,97,146248
1.8133,0.2493,38.1500,67,97,146251
1.8231,0.2444,39.0300,67,97,146254
1.8866,0.2590,38.8400,67,97,146257
1.8719,0.2542,38.9600,67,97,146262
1.9013,0.2444,38.9000,67,97,146265
1.8964,0.2493,39.0000,67,97,146268
1.9257,0.2297,39.0300,67,97,146272
1.9844,0.2542,38.8100,67,97,146275
1.9697,0.2493,39.0000,67,97,146278
2.0088,0.2493,39.0000,67,97,146282
1.9892,0.2444,39.0300,67,97,146285
2.0039,0.2493,39.0000,67,97,146288
2.0430,0.2542,38.9300,67,97,146291
2.0332,0.2297,39.0000,67,97,146295
2.0821,0.2493,38.9000,67,97,146298
2.0430,0.2395,39.0000,67,97,146301
2.0528,0.2493,39.0300,67,97,146306
2.0821,0.2493,38.9600,67,97,146309
2.0919,0.2444,39.0900,67,97,146312
2.1457,0.2493,38.8100,67,97,146316
2.1261,0.2444,39.1200,67,97,146319
2.1457,0.2444,39.0600,67,97,146322
2.1750,0.2542,38.9300,67,97,146325
2.1652,0.2786,39.0000,67,97,146329
2.2483,0.2493,38.7400,67,97,146332
2.2287,0.2493,38.9300,67,97,146335
2.2336,0.2444,38.9300,67,97,146339
2.2581,0.2297,39.0000,67,97,146342
2.2581,0.2444,39.0900,67,97,146345
2.3412,0.2835,38.7400,67,97,146350
2.3118,0.2444,38.9300,67,97,146353
2.3314,0.2786,38.9600,67,97,146356
2.3558,0.2297,39.0000,67,97,146360
2.3754,0.2444,38.8400,67,97,146363
2.4585,0.2590,38.8100,67,97,146366
2.4291,0.2493,39.0000,67,97,146369
2.4731,0.2444,38.9000,67,97,146373
2.4780,0.2444,39.0000,67,97,146376
2.5024,0.2444,39.0000,67,97,146379
2.5562,0.2590,39.1600,67,97,146383
2.5367,0.2493,39.0000,67,97,146386
2.5904,0.2395,38.8700,67,97,146390
2.5660,0.2444,39.0000,67,97,146394
2.5806,0.2346,39.0600,67,97,146397
2.6246,0.2590,38.8700,67,97,146400
2.5611,0.2493,38.9000,67,97,146403
2.5904,0.2493,38.9000,67,97,146407
2.5073,0.2297,39.0000,67,97,146410
2.4731,0.2297,39.0600,67,97,146413
2.4340,0.2542,38.9000,67,97,146417
2.3509,0.2493,39.0000,67,97,146420
2.3069,0.2444,38.8700,67,97,146423
2.1799,0.2444,39.0000,67,97,146426
2.0968,0.2444,39.0300,67,97,146430
2.0577,0.2493,38.9000,67,97,146434
1.9355,0.2444,39.0000,67,97,146437
1.8817,0.2493,38.8400,67,97,146441
1.7595,0.2395,39.0000,67,97,146444
1.6862,0.2444,39.0300,67,97,146447
1.6325,0.2737,38.9300,67,97,146451
1.5591,0.2444,39.0000,67,97,146454
1.5543,0.2737,38.7400,67,97,146457
1.4956,0.2493,38.9000,67,97,146460
1.4467,0.2444,39.0300,67,97,146464
1.4418,0.2444,38.9600,67,97,146467
1.3930,0.2444,39.0000,67,97,146470
1.4321,0.2639,38.7700,67,97,146475
1.3881,0.2542,38.9300,67,97,146478
1.3685,0.2395,38.8700,67,97,146481
1.3636,0.2493,39.0000,67,97,146485
1.3685,0.2444,39.0000,67,97,146488
1.4027,0.2590,39.1200,67,97,146491
1.4027,0.2444,39.0000,67,97,146495
1.4370,0.2444,38.9000,67,97,146498
1.4272,0.2493,39.0900,67,97,146501
1.4418,0.2493,39.0000,67,97,146504
1.4614,0.2493,38.9600,67,97,146508
1.4712,0.2493,38.9300,67,97,146511
1.5103,0.2542,38.8700,67,97,146514
1.4956,0.2444,39.0000,67,97,146519
1.5445,0.2444,39.0000,67,97,146522
1.5396,0.2542,38.8400,67,97,146525
1.5396,0.2395,39.0000,67,97,146529
1.5640,0.2444,38.8400,67,97,146532
1.5640,0.2444,38.9000,67,97,146535
1.5836,0.2688,39.0000,67,97,146538
1.6080,0.2297,38.8700,67,97,146542
1.5982,0.2444,39.0900,67,97,146545
1.6422,0.2542,38.8100,67,97,146548
1.6129,0.2444,39.0000,67,97,146552
1.6276,0.2444,38.9600,67,97,146555
1.6520,0.2542,38.9600,67,97,146558
1.6520,0.2444,39.0900,67,97,146563
1.7009,0.2639,38.7100,67,97,146566
1.6667,0.2444,38.9600,67,97,146569
1.6862,0.2395,39.0000,67,97,146573
1.7107,0.2493,39.0000,67,97,146576
1.6960,0.2444,39.0600,67,97,146579
1.7546,0.3030,38.7700,67,97,146582
1.7253,0.2542,38.9000,67,97,146586
1.7302,0.2297,38.9300,67,97,146589
1.7400,0.2444,39.0000,67,97,146592
1.7449,0.2444,39.0000,67,97,146596
1.7937,0.2590,38.8400,67,97,146599
1.7498,0.2542,38.9600,67,97,146603
1.7595,0.2444,38.9000,67,97,146607
1.7498,0.2542,39.0000,67,97,146610
1.7693,0.2395,39.0000,67,97,146613
1.7937,0.2297,38.9300,67,97,146616
1.7693,0.2444,39.0600,67,97,146620
1.7986,0.2493,38.8700,67,97,146623
1.7595,0.2444,39.0300,67,97,146626
1.7644,0.2346,39.0000,67,97,146630
1.8035,0.2542,39.0000,67,97,146633
1.7986,0.2444,39.0000,67,97,146636
1.8377,0.2444,38.8700,67,97,146640
1.8328,0.2444,39.0000,67,97,146643
1.8084,0.2297,39.0300,67,97,146647
1.8328,0.2493,39.2500,67,97,146650
1.8133,0.2444,39.0000,67,97,146654
1.8622,0.2493,38.9000,67,97,146657
1.8426,0.2493,38.9000,67,97,146660
1.8328,0.2444,39.0000,67,97,146664
1.8524,0.2493,38.9300,67,97,146667
1.8671,0.2395,39.0300,67,97,146670
1.8964,0.2542,38.8400,67,97,146674
1.8573,0.2493,38.8700,67,97,146677
1.8475,0.2444,39.0000,67,97,146680
1.8768,0.2493,38.9600,67,97,146684
1.8426,0.2444,39.0900,67,97,146688
1.9013,0.2835,38.8100,67,97,146691
1.8475,0.2493,38.9600,67,97,146694
1.8573,0.2395,38.9300,67,97,146698
1.8426,0.2297,39.0000,67,97,146701
1.8231,0.2395,38.9600,67,97,146704
1.8622,0.2590,38.9000,67,97,146708
1.8377,0.2493,38.3600,67,97,146711
1.8573,0.2444,38.8700,67,97,146714
1.8328,0.2444,39.0300,67,97,146718
1.8328,0.2493,39.0000,67,97,146721
1.8524,0.2493,38.8700,67,97,146724
1.8231,0.2395,38.9600,67,97,146728
1.8622,0.2493,38.9300,67,97,146732
1.8426,0.2395,38.9300,67,97,146735
1.8573,0.2444,39.0000,67,97,146739
1.8768,0.2590,38.8400,67,97,146742
1.8475,0.2444,39.0300,67,97,146745
1.8817,0.2444,38.9000,67,97,146748
1.8524,0.2444,38.9600,67,97,146752
1.8524,0.2297,39.0000,67,97,146755
1.8768,0.2493,38.9600,67,97,146758
1.9062,0.2395,39.0000,67,97,146762
1.9208,0.2297,38.7400,67,97,146765
1.8671,0.2346,39.0600,67,97,146768
1.8768,0.2395,39.0300,67,97,146772
1.8866,0.2493,38.9300,67,97,146776
1.8719,0.2444,39.0000,67,97,146779
1.9257,0.2590,38.7400,67,97,146782
1.8817,0.2493,38.9000,67,97,146786
1.8964,0.2395,39.0000,67,97,146789
1.8817,0.2444,38.9000,67,97,146792
1.8768,0.2444,39.0000,67,97,146796
1.9453,0.2639,38.8100,67,97,146799
1.8866,0.2493,38.9000,67,97,146802
1.8768,0.2395,38.9300,67,97,146806
1.8671,0.2444,39.0000,67,97,146809
1.8719,0.2444,39.0300,67,97,146812
1.9062,0.2493,38.9300,67,97,146817
1.8719,0.2444,38.8700,67,97,146820
1.8915,0.2444,38.8700,67,97,146823
1.8524,0.2444,39.1200,67,97,146826
1.8524,0.2444,39.0000,67,97,146830
1.8768,0.2493,38.9300,67,97,146833
1.8768,0.2542,39.0300,67,97,146836
1.9110,0.2297,38.8700,67,97,146840
1.8671,0.2493,39.0000,67,97,146843
1.8768,0.2297,39.0000,67,97,146846
1.9013,0.2493,38.9000,68,97,146850
1.8915,0.2542,39.0000,68,97,146853
1.8915,0.2444,39.0300,68,97,146857
1.9257,0.2542,38.7400,68,97,146861
1.8768,0.2590,38.8400,68,97,146864
1.8768,0.2395,39.0000,68,97,146868
1.8719,0.2444,39.0000,68,97,146871
1.8719,0.2493,39.0000,68,97,146874
1.9404,0.2590,38.8100,68,97,146877
1.8964,0.2444,38.1100,68,97,146881
1.9110,0.2444,38.9000,68,97,146884
1.9062,0.2444,39.0000,68,97,146887
1.9062,0.2444,39.0900,68,97,146891
1.9550,0.2639,38.8700,68,97,146894
1.9501,0.2493,38.9600,68,97,146897
1.9795,0.2444,38.8700,68,97,146902
1.9697,0.2395,39.0000,68,97,146905
1.9648,0.2444,39.0000,68,97,146908
1.9990,0.2542,38.8700,68,97,146911
1.9697,0.2542,39.0000,68,97,146915
2.0137,0.2493,38.9000,68,97,146918
1.9941,0.2395,38.9600,68,97,146921
2.0137,0.2444,39.0300,68,97,146925
2.0332,0.2444,38.8400,68,97,146928
1.9941,0.2395,39.0000,68,97,146931
2.0088,0.2297,38.8400,68,97,146935
1.9453,0.2444,38.0800,68,97,146938
1.9453,0.2395,39.0000,68,97,146941
1.9110,0.2493,38.9300,68,97,146945
1.8866,0.2688,39.0000,68,97,146949
1.9110,0.2590,38.7700,68,97,146952
1.8524,0.2444,38.9600,68,97,146955
1.8573,0.2688,39.0000,68,97,146959
1.8524,0.2297,38.9300,68,97,146962
1.8231,0.2590,39.0000,68,97,146965
1.8622,0.2542,38.7100,68,97,146969
1.8182,0.2493,39.1900,68,97,146972
1.8035,0.2639,39.0000,68,97,146975
1.8084,0.2493,38.9600,68,97,146979
1.7986,0.2737,39.0300,68,97,146982
1.8377,0.2493,38.8100,68,97,146985
1.7644,0.2688,39.0000,68,97,146989
1.6960,0.2346,38.9300,68,97,146993
1.6373,0.2395,39.0000,68,97,146996
1.6373,0.2444,39.0600,68,97,146999
1.7449,0.2542,38.8400,68,97,147003
1.8964,0.2444,39.0000,68,97,147006
2.2239,0.2493,38.8400,68,97,147009
2.5904,0.2444,39.0000,68,97,147013
3.0156,0.2395,39.0300,68,97,147016
3.4409,0.3030,38.9300,68,97,147019
3.7195,0.2395,39.0000,68,97,147022
3.9198,0.2493,38.8700,68,97,147026
3.7390,0.2346,39.0300,68,97,147030
3.4164,0.2444,39.0000,68,97,147033
2.9814,0.2542,38.9000,68,97,147037
2.4291,0.2493,38.9600,68,97,147040
2.0283,0.2444,38.8400,68,97,147043
1.6960,0.2444,38.9300,68,97,147047
1.5200,0.2444,39.0000,68,97,147050
1.4614,0.2493,38.8700,68,97,147053
1.4272,0.2590,39.0300,68,97,147056
1.4858,0.2542,38.7700,68,97,147060
1.4858,0.2542,38.9000,68,97,147063
1.5103,0.2346,38.9600,68,97,147066
1.5494,0.2493,39.0300,68,97,147070
1.5787,0.2444,39.0300,68,97,147074
1.6471,0.2542,38.7100,68,97,147077
1.6227,0.2444,39.0300,68,97,147081
1.6569,0.2444,39.0000,68,97,147084
1.6618,0.2493,39.0000,68,97,147087
1.6569,0.2346,39.0600,68,97,147091
1.7204,0.2590,38.8100,68,97,147094
1.7009,0.2493,39.0300,68,97,147097
1.7204,0.2395,38.9000,68,97,147100
1.7302,0.2493,39.0000,68,97,147104
1.7400,0.2444,39.0600,68,97,147107
1.7791,0.2590,38.8100,68,97,147110
1.7595,0.2493,38.9600,68,97,147115
1.7889,0.2444,38.8700,68,97,147118
1.7889,0.2444,39.0300,68,97,147121
1.8133,0.2444,39.0900,68,97,147125
1.8524,0.2542,38.9000,68,97,147128
1.8231,0.2297,39.0000,68,97,147131
1.8622,0.2493,38.8700,68,97,147134
1.8328,0.2542,39.0000,68,97,147138
1.8524,0.2444,39.0000,68,97,147141
1.8768,0.2493,38.9000,68,97,147144
1.8768,0.2542,39.0000,68,97,147148
1.9159,0.2444,38.8400,68,97,147151
1.8866,0.2542,39.0000,68,97,147154
1.9159,0.2444,39.0000,68,97,147159
1.9453,0.2493,38.9000,68,97,147162
1.9355,0.2395,39.0000,68,97,147165
1.9892,0.2493,38.7400,68,97,147169
1.9697,0.2542,39.0000,68,97,147172
1.9990,0.2444,39.0000,68,97,147175
2.0088,0.2493,38.9000,68,97,147178
2.0039,0.2786,39.0000,68,97,147182
2.0723,0.2688,38.7100,68,97,147185
2.0381,0.2297,38.9000,68,97,147188
2.0332,0.2395,39.0300,68,97,147192
2.0479,0.2444,38.9300,68,97,147195
2.0821,0.2395,39.0000,68,97,147198
2.1408,0.2493,38.7400,68,97,147202
2.0870,0.2493,39.0000,68,97,147206
2.0968,0.2395,38.9300,68,97,147209
2.1114,0.2542,39.0000,68,97,147212
2.1163,0.2444,39.0600,68,97,147216
2.1945,0.2542,38.8700,68,97,147219
2.1799,0.2542,39.0000,68,97,147222
2.2092,0.2444,38.8700,68,97,147226
2.2043,0.2444,39.0000,68,97,147229
2.2239,0.2444,39.0000,68,97,147232
2.2874,0.2542,38.9300,68,97,147235
2.3021,0.2444,39.0000,68,97,147239
2.3314,0.2493,38.8700,68,97,147243
2.3216,0.2444,38.9300,68,97,147246
2.3460,0.2395,39.0000,68,97,147250
2.4096,0.2542,38.8700,68,97,147253
2.3900,0.2444,39.2500,68,97,147256
2.4633,0.2444,38.8700,68,97,147260
2.4389,0.2395,39.0000,68,97,147263
2.4585,0.2444,39.0000,68,97,147266
2.4829,0.2542,39.0000,68,97,147269
2.4780,0.2444,39.0000,68,97,147273
2.5562,0.2444,38.8400,68,97,147276
2.4829,0.2444,39.0000,68,97,147279
2.4976,0.2444,39.1200,68,97,147283
2.5073,0.2297,38.9300,68,97,147287
2.4487,0.2444,38.9600,68,97,147290
2.4682,0.2590,38.7400,68,97,147294
2.3949,0.2493,38.9300,68,97,147297
2.3265,0.2395,39.0600,68,97,147300
2.2776,0.2542,38.9300,68,97,147303
2.1848,0.2444,39.0000,68,97,147307
2.1554,0.2542,38.7400,68,97,147310
2.0186,0.2493,38.9300,68,97,147313
1.9257,0.2395,39.1200,68,97,147317
1.8524,0.2395,39.0000,68,97,147320
1.7742,0.2444,39.0300,68,97,147323
1.7546,0.2639,38.7700,68,97,147328
1.6373,0.2395,38.9600,68,97,147331
1.5787,0.2395,38.9000,68,97,147334
1.5200,0.2542,39.0600,68,97,147337
1.4761,0.2444,39.0000,68,97,147341
1.4712,0.2884,38.9000,68,97,147344
1.4370,0.2493,39.0000,68,97,147347
1.4076,0.2444,38.9000,68,97,147351
1.3734,0.2688,39.0000,68,97,147354
1.3587,0.2444,39.0000,68,97,147357
1.3881,0.2542,38.8400,68,97,147361
1.3685,0.2395,38.9600,68,97,147364
1.3832,0.2493,39.0000,68,97,147367
1.3783,0.2346,39.0000,68,97,147372
1.3881,0.2395,39.0000,68,97,147375
1.4223,0.2493,38.8700,68,97,147378
1.4272,0.2395,39.0300,68,97,147381
1.4663,0.2493,38.8400,68,97,147385
1.4516,0.2395,38.9300,68,97,147388
1.4565,0.2444,39.0000,68,97,147391
1.4761,0.2493,38.9300,68,97,147395
1.4858,0.2444,39.0000,68,97,147398
1.5445,0.2542,38.7700,68,97,147401
1.5152,0.2444,38.9600,68,97,147405
1.5298,0.2444,39.0900,68,97,147408
1.5396,0.2542,38.9600,68,97,147411
1.5347,0.2444,38.9000,68,97,147416
1.5982,0.2639,38.7400,68,97,147419
1.5836,0.2493,38.8700,68,97,147422
1.5934,0.2395,38.5800,68,97,147425
1.6031,0.2493,38.9600,68,97,147429
1.6080,0.2444,39.0900,68,97,147432
1.6618,0.2590,38.7400,68,97,147435
1.6471,0.2493,38.9300,68,97,147439
1.6373,0.2444,38.8400,68,97,147442
1.6373,0.2493,39.0600,68,97,147445
1.6373,0.2444,39.0300,68,97,147449
1.6618,0.2590,38.8400,68,97,147452
1.6373,0.2297,39.0000,68,97,147456
1.6667,0.2444,38.9300,68,97,147460
1.6422,0.2444,39.0300,68,97,147463
1.6764,0.2297,38.9600,68,97,147467
1.6862,0.2444,39.0300,68,97,147470
1.7058,0.2493,38.9000,68,97,147473
1.6716,0.2444,39.0300,68,97,147476
1.7155,0.2542,38.8100,68,97,147480
1.7058,0.2493,38.9000,68,97,147483
1.7058,0.2444,39.0300,68,97,147486
1.7302,0.2493,38.9600,68,97,147490
1.7107,0.2444,38.9600,68,97,147493
1.7986,0.2493,38.7400,68,97,147496
1.7204,0.2493,38.9000,68,97,147501
1.7155,0.2444,38.9300,68,97,147504
1.7302,0.2444,39.1900,68,97,147507
1.7400,0.2590,38.9600,68,97,147511
1.7937,0.2639,38.8400,68,97,147514
1.7400,0.2444,39.0600,68,97,147517
1.7498,0.2395,38.9000,68,97,147520
1.7351,0.2444,39.0000,68,97,147524
1.7400,0.2444,39.0000,68,97,147527
1.7791,0.2542,38.9300,68,97,147530
1.7644,0.2493,39.0000,68,97,147534
1.7840,0.2444,38.8100,68,97,147537
1.7546,0.2444,39.0000,68,97,147540
1.7595,0.2395,39.0000,68,97,147545
1.7889,0.2542,38.8700,68,97,147548
1.7546,0.2444,39.0000,68,97,147551
1.7791,0.2493,38.9300,68,97,147554
1.7498,0.2395,38.9000,68,97,147558
1.7595,0.2444,39.0000,68,97,147561
1.7840,0.2737,38.8700,68,97,147564
1.7644,0.2444,38.9600,68,97,147568
1.8084,0.2493,38.8700,68,97,147571
1.7791,0.2395,38.9000,68,97,147574
1.7644,0.2444,39.0000,68,97,147578
1.7840,0.2493,38.9600,68,97,147581
1.7840,0.2444,38.9600,68,97,147585
1.8377,0.2542,38.7400,68,97,147589
1.7840,0.2444,39.0000,68,97,147592
1.7986,0.2395,39.0600,68,97,147595
1.7889,0.2493,39.0000,68,97,147598
1.7693,0.2395,39.0000,68,97,147602
1.8328,0.2590,38.7100,68,97,147605
1.8035,0.2493,38.9000,68,97,147608
1.7986,0.2444,39.0000,68,97,147612
1.7889,0.2493,38.9600,68,97,147615
1.7742,0.2542,39.0000,68,97,147618
1.8231,0.2493,38.8400,68,97,147622
1.7889,0.2493,38.9300,68,97,147625
1.7986,0.2444,38.9000,68,97,147629
1.7889,0.2444,38.9300,68,97,147633
1.8133,0.2395,39.0000,68,97,147636
1.8182,0.2542,38.9600,68,97,147639
1.7937,0.2395,39.0000,68,97,147642
1.8182,0.2444,38.8700,68,97,147646
1.7937,0.2444,39.0000,68,97,147649
1.7986,0.2297,39.0000,68,97,147652
1.8084,0.2493,38.9300,68,97,147656
1.7986,0.2493,39.0000,68,97,147659
1.8328,0.2444,38.8700,68,97,147662
1.7937,0.2444,39.0300,68,97,147666
1.8231,0.2444,39.0000,68,97,147670
1.8231,0.2493,38.9300,68,97,147673
1.7986,0.2542,39.0300,68,97,147676
1.8377,0.2493,38.7700,68,97,147680
1.8377,0.2444,38.8100,68,97,147683
1.8524,0.2395,39.0600,68,97,147686
1.8915,0.2542,38.2100,68,97,147690
1.8768,0.2395,39.0000,68,97,147693
1.9306,0.2493,38.7400,68,97,147696
1.8817,0.2493,38.8400,68,97,147700
1.8817,0.2444,39.0000,68,97,147703
1.9110,0.2444,39.0300,68,97,147706
1.9257,0.2444,39.0000,68,97,147710
1.9941,0.2639,38.7100,68,97,147714
1.9355,0.2444,39.0000,68,97,147717
1.9404,0.2395,39.0000,68,97,147720
1.9257,0.2297,38.9600,68,97,147724
1.9110,0.2786,39.0600,68,97,147727
1.9599,0.2639,38.8400,68,97,147730
1.8915,0.2493,38.9600,68,97,147734
1.8719,0.2444,38.8700,68,97,147737
1.8280,0.2444,39.1200,68,97,147740
1.8182,0.2688,39.0000,68,97,147744
1.8524,0.2493,38.8100,68,97,147747
1.8133,0.2493,38.9300,68,97,147750
1.8377,0.2395,38.8400,68,97,147755
1.7889,0.2444,39.2200,68,97,147758
1.7889,0.2444,39.0300,68,97,147761
1.8035,0.2933,38.9000,68,97,147764
1.7693,0.2444,39.0600,68,97,147768
1.7986,0.2444,38.8400,68,97,147771
1.7644,0.2444,38.8700,68,97,147774
1.7546,0.2395,39.0300,68,97,147778
1.7595,0.2493,38.9300,68,97,147781
1.7253,0.2493,39.0000,68,97,147784
1.7204,0.2493,38.7400,68,97,147788
1.6373,0.2395,39.0000,68,97,147791
1.6325,0.2444,39.0000,68,97,147794
1.7107,0.2493,38.9300,68,97,147799
1.8671,0.2444,39.0300,68,97,147802
2.2190,0.2542,38.6800,68,97,147805
2.5806,0.2493,38.9300,68,97,147808
2.9961,0.2395,39.0000,68,97,147812
3.3724,0.2493,38.9600,68,97,147815
3.6413,0.2444,39.0000,68,97,147818
3.8807,0.2542,38.8400,68,97,147822
3.7292,0.2493,38.9000,68,97,147825
3.4066,0.2444,38.9300,68,97,147828
2.9423,0.2395,39.0000,68,97,147832
2.4487,0.2444,39.0000,68,97,147835
2.0332,0.2542,38.8400,68,97,147838
1.6569,0.2395,38.9600,68,97,147843
1.4858,0.2444,38.9300,68,97,147846
1.3881,0.2444,38.9600,68,97,147849
1.3734,0.2297,39.0000,68,97,147852
1.4027,0.2493,38.9000,68,97,147856
1.4174,0.2590,39.0600,68,97,147859
1.4809,0.2542,38.9000,68,97,147862
1.5005,0.2444,39.0000,68,97,147866
1.5543,0.2444,39.0900,68,97,147869
1.6129,0.2542,38.8700,68,97,147872
1.6031,0.2444,38.9000,68,97,147876
1.6422,0.2737,38.8400,68,97,147879
1.6422,0.2444,38.9000,68,97,147883
1.6618,0.2395,39.2200,68,97,147886
1.6862,0.2590,38.9000,68,97,147890
1.6813,0.2444,39.0300,68,97,147893
1.7253,0.2444,38.7700,68,97,147896
1.7009,0.2493,38.9000,68,97,147900
1.7058,0.2395,39.0000,68,97,147903
1.7351,0.2590,38.9300,68,97,147906
1.7546,0.2444,39.0000,68,97,147910
1.8182,0.2542,38.7100,68,97,147913
1.7791,0.2444,38.9600,68,97,147916
1.7889,0.2395,39.0000,68,97,147919
1.8035,0.2444,38.9600,68,97,147923
1.8084,0.2444,39.0000,68,97,147927
1.8866,0.2639,38.7700,68,97,147930
1.8524,0.2542,38.9300,68,97,147934
1.8622,0.2395,38.9300,68,97,147937
1.8524,0.2542,39.0000,68,97,147940
1.8622,0.2444,39.0900,68,97,147944
1.9159,0.2737,38.7700,68,97,147947
1.8915,0.2493,38.9600,68,97,147950
1.9159,0.2444,38.8700,68,97,147954
1.9013,0.2297,39.0000,68,97,147957
1.9159,0.2395,39.0300,68,97,147960
1.9648,0.2786,38.8700,68,97,147963
1.9404,0.2297,39.0000,68,97,147968
1.9990,0.2493,38.9000,68,97,147971
1.9697,0.2444,39.0600,68,97,147974
1.9795,0.2444,39.0000,68,97,147978
2.0088,0.2444,38.9000,68,97,147981
2.0137,0.2444,39.0000,68,97,147984
2.0626,0.2444,38.8700,68,97,147988
2.0430,0.2444,39.0000,68,97,147991
2.0577,0.2444,39.0000,68,97,147994
2.0821,0.2493,38.9300,68,97,147997
2.0723,0.2493,39.0000,68,97,148001
2.1359,0.2493,38.8400,68,97,148004
2.1359,0.2493,38.8700,68,97,148007
2.1408,0.2395,39.0000,68,97,148012
2.1799,0.2542,39.1900,68,97,148015
2.1652,0.2542,39.0600,68,97,148018
2.2385,0.2493,38.7400,68,97,148022
2.2190,0.2444,38.8700,68,97,148025
2.2336,0.2395,39.0000,68,97,148028
2.2678,0.2444,38.9600,68,97,148031
2.2825,0.2444,38.8400,68,97,148035
2.3656,0.2590,38.7400,68,97,148038
2.3265,0.2493,39.0000,68,97,148041
2.3558,0.2395,38.9600,68,97,148045
2.3949,0.2395,39.0000,68,97,148048
2.3900,0.2444,39.0900,68,97,148051
2.4633,0.2590,38.8700,68,97,148056
2.4389,0.2542,39.0600,68,97,148059
2.4976,0.2444,38.9000,68,97,148062
2.4633,0.2444,39.0000,68,97,148065
2.4780,0.2444,38.9600,68,97,148069
2.5318,0.2493,38.8100,68,97,148072
2.3998,0.2493,38.8700,68,97,148076
2.2972,0.2444,39.0600,68,97,148079
2.2483,0.2444,38.8100,68,97,148082
2.1359,0.2493,38.9000,68,97,148086
2.0577,0.2444,38.9600,68,97,148089
1.9844,0.2493,38.9600,68,97,148092
1.9013,0.2493,39.0000,68,97,148097
1.8671,0.2542,38.8100,68,97,148100
1.7400,0.2444,39.0000,68,97,148103
1.6764,0.2444,39.0300,68,97,148107
1.6227,0.2493,38.9600,68,97,148110
1.5543,0.2444,38.9600,68,97,148113
1.5591,0.2639,38.7400,68,97,148116
1.4809,0.2493,38.9600,68,97,148120
1.4370,0.2737,38.8700,68,97,148123
1.4027,0.2444,38.9600,68,97,148126
1.3832,0.2395,39.0000,68,97,148130
1.4174,0.2542,38.8400,68,97,148133
1.4027,0.2493,38.9300,68,97,148136
1.3832,0.2297,38.9000,68,97,148141
1.3685,0.2444,39.2200,68,97,148144
1.3783,0.2444,39.0000,68,97,148147
1.4125,0.2542,38.7700,68,97,148151
1.4027,0.2493,39.0600,68,97,148154
1.4418,0.2395,38.8400,68,97,148157
1.4223,0.2444,39.0300,68,97,148160
1.4272,0.2297,39.0000,68,97,148164
1.4565,0.2444,39.0000,68,97,148167
1.4712,0.2493,39.0000,68,97,148170
1.5103,0.2395,38.8400,68,97,148174
1.4956,0.2444,39.0000,68,97,148177
1.5152,0.2395,39.0000,68,97,148180
1.5347,0.2493,38.8700,68,97,148185
1.5103,0.2395,39.0000,68,97,148188
1.5640,0.2493,38.7700,68,97,148191
1.5640,0.2444,38.9000,68,97,148194
1.5787,0.2444,39.1900,68,97,148198
1.6080,0.2542,38.9000,68,97,148201
1.5885,0.2444,39.0000,68,97,148204
1.6422,0.2542,38.7400,68,97,148208
1.6178,0.2444,38.8700,68,97,148211
1.6227,0.2444,39.0300,68,97,148214
1.6471,0.2493,38.9600,68,97,148218
1.6373,0.2444,39.0300,68,97,148221
1.7302,0.2688,38.7400,68,97,148225
1.6569,0.2444,38.9600,68,97,148229
1.6716,0.2493,38.9000,68,97,148232
1.6764,0.2297,39.0000,68,97,148235
1.6764,0.2493,39.0600,68,97,148238
1.7253,0.2493,38.8700,68,97,148242
1.6960,0.2493,39.2500,68,97,148245
1.7107,0.2395,38.8700,68,97,148248
1.7009,0.2444,38.9600,68,97,148252
1.7107,0.2346,38.9600,68,97,148255
1.7449,0.2493,38.8700,68,97,148258
1.7155,0.2395,38.9600,68,97,148262
1.7351,0.2493,38.9000,68,97,148265
1.7155,0.2590,38.9600,68,97,148269
1.7644,0.2444,39.0000,68,97,148273
1.7595,0.2493,39.1600,68,97,148276
1.7644,0.2395,39.0000,68,97,148279
1.7595,0.2297,38.8100,68,97,148282
1.7204,0.2542,38.9000,68,97,148286
1.7204,0.2395,39.0000,68,97,148289
1.7351,0.2493,39.2500,68,97,148292
1.7351,0.2444,39.0000,68,97,148296
1.7791,0.2493,38.7400,68,97,148299
1.7302,0.2395,39.0000,68,97,148302
1.7351,0.2444,39.0000,68,97,148306
1.7498,0.2493,38.9600,68,97,148310
1.7351,0.2542,39.0000,68,97,148313
1.7937,0.2493,38.6800,68,97,148317
1.7644,0.2493,39.0000,68,97,148320
1.7498,0.2395,39.0000,68,97,148323
1.7498,0.2493,39.1900,68,97,148326
1.7400,0.2444,39.0000,68,97,148330
1.7986,0.2590,38.8100,68,97,148333
1.7595,0.2639,39.0000,68,97,148336
1.7693,0.2346,38.9000,68,97,148340
1.7351,0.2444,39.0000,68,97,148343
1.7400,0.2444,39.0000,68,97,148346
1.7791,0.2639,38.8400,68,97,148350
1.7449,0.2297,39.0000,68,97,148354
1.7840,0.2444,38.9000,68,97,148357
1.7546,0.2590,38.9600,68,97,148360
1.7498,0.2297,39.0300,68,97,148364
1.7644,0.2493,38.8400,68,97,148367
1.7595,0.2493,38.9600,68,97,148370
1.7986,0.2493,38.9000,68,97,148374
1.7693,0.2395,39.0000,68,97,148377
1.7791,0.2444,39.0300,68,97,148380
1.7937,0.2688,38.8700,68,97,148384
1.7546,0.2444,39.0900,68,97,148387
1.7986,0.2444,38.8100,68,97,148390
1.7937,0.2297,38.9000,68,97,148395
1.7937,0.2444,39.0000,68,97,148398
1.8182,0.2590,38.9000,68,97,148401
1.8231,0.2444,39.0000,68,97,148404
1.8231,0.2493,38.7700,68,97,148408
1.8035,0.2493,38.9000,68,97,148411
1.7937,0.2395,39.0000,68,97,148414
1.8084,0.2493,38.9600,68,97,148418
1.8035,0.2444,39.0300,68,97,148421
1.8622,0.2493,38.7100,68,97,148424
1.7986,0.2542,38.9600,68,97,148428
1.8084,0.2297,39.0000,68,97,148431
1.8084,0.2493,38.9300,68,97,148434
1.7986,0.2444,39.0000,68,97,148439
1.8524,0.2639,38.8100,68,97,148442
1.8133,0.2493,39.0300,68,97,148445
1.8084,0.2395,38.9000,68,97,148448
1.8035,0.2395,39.0600,68,97,148452
1.8133,0.2444,39.0000,68,97,148455
1.8573,0.2297,38.8400,68,97,148458
1.8182,0.2493,38.9600,68,97,148462
1.8280,0.2444,38.8400,68,97,148465
1.8084,0.2444,39.0300,68,97,148468
1.8328,0.2395,39.0000,68,97,148472
1.8524,0.2590,38.6800,68,97,148475
1.8182,0.2395,39.0000,68,97,148478
1.8475,0.2493,38.9300,68,97,148482
1.8035,0.2395,39.0900,68,97,148486
1.8035,0.2639,39.0000,68,97,148489
1.8280,0.2395,38.9300,68,97,148492
1.8377,0.2444,39.0000,68,97,148496
1.8817,0.2444,38.8400,68,97,148499
1.8524,0.2444,39.1200,68,97,148502
1.8719,0.2395,39.0000,68,97,148506
1.8964,0.2297,38.9300,68,97,148509
1.8866,0.2835,39.0000,68,97,148512
1.9648,0.2542,38.7100,68,97,148516
1.9306,0.2493,38.9000,68,97,148519
1.9257,0.2395,39.0900,68,97,148523
1.9404,0.2493,38.9300,68,97,148526
1.9404,0.2395,39.0300,68,97,148530
2.0088,0.2590,38.8100,68,97,148533
1.9746,0.2493,38.8700,68,97,148536
1.9648,0.2395,39.0000,68,97,148540
1.9941,0.2395,38.9600,68,97,148543
1.9550,0.2444,39.0000,68,97,148546
2.0088,0.2590,38.8700,68,97,148550
1.9501,0.2395,38.9600,68,97,148553
1.9550,0.2297,38.9300,68,97,148556
1.9159,0.2444,39.0300,68,97,148559
1.8915,0.2297,39.0000,68,97,148563
1.9062,0.2542,38.9300,68,97,148567
1.8671,0.2444,39.0300,68,97,148570
1.8768,0.2444,38.8700,68,97,148574
1.8377,0.2444,39.0300,68,97,148577
1.8377,0.2395,39.0000,68,97,148580
1.8328,0.2590,38.8400,68,97,148584
1.8133,0.2444,39.0000,68,97,148587
1.8182,0.2493,38.9000,68,97,148590
1.7937,0.2395,38.9600,68,97,148594
1.8280,0.2444,39.0000,68,97,148597
1.8133,0.2493,38.8100,68,97,148600
1.7889,0.2444,39.0000,68,97,148603
1.7840,0.2297,38.8400,68,97,148608
1.7302,0.2542,38.8700,68,97,148611
1.6667,0.2444,39.0000,68,97,148614
1.6276,0.2493,38.9300,68,97,148618
1.5885,0.2444,39.0000,68,97,148621
1.6667,0.2590,38.8100,68,97,148624
1.7791,0.2444,39.0600,68,97,148628
2.0674,0.2346,39.0600,68,97,148631
2.4633,0.2493,38.9600,68,97,148634
2.8837,0.2444,39.0000,68,97,148637
3.3822,0.2590,38.7100,68,97,148641
3.6657,0.2493,38.9300,68,97,148644
3.8759,0.2395,39.0600,68,97,148647
3.8710,0.2542,39.0000,68,97,148652
3.6070,0.2395,39.0000,68,97,148655
3.2600,0.2590,38.8700,68,97,148658
2.6686,0.2542,38.9600,68,97,148662
2.1750,0.2395,38.9000,68,97,148665
1.7889,0.2444,39.0000,68,97,148668
1.5640,0.2395,39.0000,68,97,148671
1.4858,0.2639,38.8400,68,97,148675
1.4223,0.2444,39.0000,68,97,148678
1.4516,0.2444,38.9000,68,97,148681
1.4516,0.2395,38.9600,68,97,148685
1.6031,0.2444,39.0000,68,97,148688
1.6031,0.2395,39.0300,68,97,148692
1.6178,0.2542,38.9000,68,97,148696
1.6080,0.2444,39.0000,68,97,148699
1.6618,0.2493,38.8100,68,97,148703
1.6569,0.2493,38.9000,68,97,148706
1.6618,0.2444,39.0000,68,97,148709
1.6960,0.2590,38.9600,68,97,148713
1.6911,0.2395,39.0000,68,97,148716
1.7546,0.2542,38.7400,68,97,148719
1.7351,0.2493,38.8700,68,97,148722
1.7449,0.2297,39.0300,68,97,148726
1.7546,0.2590,39.0000,68,97,148729
1.7693,0.2786,39.0300,68,97,148732
1.8475,0.2590,38.7700,68,97,148737
1.7986,0.2444,38.9300,68,97,148740
1.8133,0.2346,38.9300,68,97,148743
1.8133,0.2444,39.0300,68,97,148747
1.8280,0.2395,39.0000,68,97,148750
1.8671,0.2590,38.8700,68,97,148753
1.8573,0.2444,39.0900,68,97,148756
1.8915,0.2981,38.9000,68,97,148760
1.8817,0.2444,39.0000,68,97,148763
1.8915,0.2444,38.9600,68,97,148766
1.9550,0.2542,38.8400,68,97,148770
1.9062,0.2737,38.9600,68,97,148773
1.9453,0.2542,38.9000,68,97,148776
1.9306,0.2444,39.0000,68,97,148781
1.9501,0.2444,39.0300,68,97,148784
1.9844,0.2590,38.8700,68,97,148787
1.9697,0.2395,39.0300,68,97,148790
2.0039,0.2444,38.8100,68,97,148794
1.9844,0.2395,38.3300,68,97,148797
2.0039,0.2395,39.0000,68,97,148800
2.0332,0.2297,38.9300,68,97,148804
2.0430,0.2444,39.0600,68,97,148807
2.0870,0.2493,38.7700,68,97,148810
2.0772,0.2444,39.0300,68,97,148814
2.0821,0.2395,39.0000,68,97,148817
2.1114,0.2493,38.8700,68,97,148820
2.1065,0.2444,39.0000,68,97,148824
2.1750,0.2493,38.7400,68,97,148828
2.1554,0.2493,38.9000,68,97,148831
2.1652,0.2444,39.0000,68,97,148834
2.2043,0.2493,39.0000,68,97,148838
2.2141,0.2395,39.0000,68,97,148841
2.3216,0.2590,38.7100,68,97,148844
2.2874,0.2444,38.8400,68,97,148848
2.2923,0.2639,39.0000,68,97,148851
2.3167,0.2395,39.0000,68,97,148854
2.3607,0.2395,39.0000,68,97,148857
2.4585,0.2639,38.8100,68,97,148861
2.4194,0.2590,38.9300,68,97,148865
2.4487,0.2444,38.9300,68,97,148868
2.4487,0.2444,39.1200,68,97,148872
2.4633,0.2493,39.0000,68,97,148875
2.5367,0.2542,38.9000,68,97,148878
2.5269,0.2884,38.9600,68,97,148882
2.5660,0.2542,38.8700,68,97,148885
2.5318,0.2444,39.0000,68,97,148888
2.5220,0.2542,39.1600,68,97,148891
2.5513,0.2542,38.8400,68,97,148895
2.4829,0.2444,39.0000,68,97,148898
2.4878,0.2542,38.8700,68,97,148901
2.4047,0.2297,38.9600,68,97,148905
2.3412,0.2444,38.9600,68,97,148909
2.2874,0.2493,38.8400,68,97,148912
2.1750,0.2493,39.0000,68,97,148916
2.1652,0.2395,38.8100,68,97,148919
2.0137,0.2444,38.0500,68,97,148922
1.9208,0.2444,38.9600,68,97,148925
1.8719,0.2542,38.9300,68,97,148929
1.7498,0.2395,39.0000,68,97,148932
1.7155,0.2737,38.7400,68,97,148935
1.6031,0.2395,38.9600,68,97,148939
1.5543,0.2395,39.0000,68,97,148942
1.5103,0.2395,38.9600,68,97,148945
1.4418,0.2444,39.0300,68,97,148950
1.4467,0.2639,38.7400,68,97,148953
1.3881,0.2444,38.9300,68,97,148956
1.3685,0.2346,39.0000,68,97,148960
1.3539,0.2493,38.9600,68,97,148963
1.3441,0.2444,39.0000,68,97,148966
1.3832,0.2542,38.8100,68,97,148969
1.3441,0.2493,38.9600,68,97,148973
1.3490,0.2395,38.9000,68,97,148976
1.3587,0.2444,39.0000,68,97,148979
1.3734,0.2444,39.0900,68,97,148983
1.4125,0.2590,38.8400,68,97,148986
1.3930,0.2444,39.0000,68,97,148989
1.4272,0.2444,38.8400,68,97,148994
1.4272,0.2395,39.0000,68,97,148997
1.4370,0.2395,38.9600,68,97,149000
1.4663,0.2493,38.9300,68,97,149004
1.4809,0.2444,38.9600,68,97,149007
1.5200,0.2542,38.8700,68,97,149010
1.4956,0.2444,39.0300,68,97,149013
1.5152,0.2395,38.9600,68,97,149017
1.5543,0.2493,38.8700,68,97,149020
1.5249,0.2688,38.9600,68,97,149023
1.5591,0.2493,38.7700,68,97,149027
1.5543,0.2444,39.0300,68,97,149030
1.5591,0.2639,39.0000,68,97,149033
1.5982,0.2493,38.9000,68,97,149038
1.5885,0.2444,38.9600,68,97,149041
1.6373,0.2542,38.8100,68,97,149044
1.6080,0.2542,38.8700,68,97,149048
1.6080,0.2395,39.0300,68,97,149051
1.6080,0.2444,38.9600,68,97,149054
1.6276,0.2444,39.0600,68,97,149057
1.6911,0.3030,38.7700,68,97,149061
1.6471,0.2444,38.9300,68,97,149064
1.6569,0.2444,39.0000,68,97,149067
1.6520,0.2444,38.9600,68,97,149071
1.6422,0.2444,39.0300,68,97,149074
1.7204,0.2639,38.8100,68,97,149078
1.6813,0.2493,38.9300,68,97,149082
1.7009,0.2444,39.1200,68,97,149085
1.6764,0.2444,38.9600,68,97,149088
1.6911,0.2786,39.0000,68,97,149092
1.7204,0.2493,38.9000,68,97,149095
1.7009,0.2444,39.0000,68,97,149098
1.7351,0.2884,38.8700,68,97,149101
1.7204,0.2444,39.0000,68,97,149105
1.7253,0.2395,38.8700,68,97,149108
1.7449,0.2542,38.8700,68,97,149111
1.7204,0.2444,39.0600,68,97,149115
1.7546,0.2444,38.8700,68,97,149118
1.7107,0.2395,38.9300,68,97,149122
1.7253,0.2444,39.2500,68,97,149126
1.7449,0.2395,38.9300,68,97,149129
1.7302,0.2444,38.3600,68,97,149132
1.7742,0.2737,38.8100,68,97,149136
1.7400,0.2395,38.7400,68,97,149139
1.7546,0.2737,39.0600,68,97,149142
1.7693,0.2493,38.9300,68,97,149145
1.7351,0.2688,39.0000,68,97,149149
1.7840,0.2590,38.6800,68,97,149152
1.7546,0.2493,38.9300,68,97,149155
1.7546,0.2444,39.0000,68,97,149159
1.7595,0.2493,38.1800,68,97,149163
1.7498,0.2542,39.0000,68,97,149166
1.7986,0.2639,38.8400,68,97,149170
1.7449,0.2737,38.8700,68,97,149173
1.7449,0.2444,38.9000,68,97,149176
1.7449,0.2444,39.1900,68,97,149180
1.7546,0.2444,39.0000,68,97,149183
1.7937,0.2493,38.8400,68,97,149186
1.7546,0.2444,38.9600,68,97,149189
1.7840,0.2395,38.9300,68,97,149193
1.7546,0.2444,39.0900,68,97,149196
1.7644,0.2346,39.0000,68,97,149199
1.7937,0.2493,39.0000,68,97,149203
1.7840,0.2444,39.1200,68,97,149207
1.8084,0.2590,38.9000,68,97,149210
1.7742,0.2444,39.0000,68,97,149214
1.7840,0.2395,38.1500,68,97,149217
1.8133,0.2542,38.9000,68,97,149220
1.7889,0.2444,39.0000,68,97,149223
1.8133,0.2493,38.8700,68,97,149227
1.7986,0.2444,38.9300,68,97,149230
1.7889,0.2395,39.0600,68,97,149233
1.8182,0.2493,38.8700,68,97,149237
1.7937,0.2444,39.0900,68,97,149240
1.8475,0.2590,38.7100,68,97,149243
1.8035,0.2493,38.9000,68,97,149248
1.7937,0.2444,39.0000,68,97,149251
1.8035,0.2737,38.9600,68,97,149254
1.8084,0.2493,38.9600,68,97,149257
1.8671,0.2493,38.6800,68,97,149261
1.8280,0.2493,38.9300,68,97,149264
1.8182,0.2395,38.9600,68,97,149267
1.8084,0.2395,38.9600,68,97,149271
1.7986,0.2444,39.0000,68,97,149274
1.8622,0.2688,38.7400,68,97,149277
1.8475,0.2444,38.9300,68,97,149281
1.8328,0.2493,38.9300,68,97,149284
1.8231,0.2542,39.0000,68,97,149287
1.8133,0.2395,39.0000,68,97,149292
1.8524,0.2493,38.8400,68,97,149295
1.8377,0.2493,38.8700,68,97,149299
1.7986,0.2395,38.2100,68,97,149302
1.8182,0.2542,38.8100,68,97,149305
1.7791,0.2444,38.9000,68,97,149309
1.7742,0.2444,39.0000,68,97,149312
1.7840,0.2297,38.9300,68,97,149315
1.7840,0.2444,38.9600,68,97,149318
1.8328,0.2493,38.8100,68,97,149322
1.7937,0.2395,39.0000,68,97,149325
1.8133,0.2346,39.0000,68,97,149328
1.8328,0.2493,38.9300,68,97,149332
1.8133,0.2395,39.0000,68,97,149336
1.8817,0.2542,38.7100,68,97,149339
1.8524,0.2493,38.9600,68,97,149343
1.8524,0.2346,38.9600,68,97,149346
1.8622,0.2493,39.0900,68,97,149349
1.8524,0.2444,39.0600,68,97,149353
1.9062,0.2590,38.8100,68,97,149356
1.8622,0.2493,38.9000,68,97,149359
1.8671,0.2444,38.9000,68,97,149362
1.8622,0.2444,39.0000,68,97,149366
1.8719,0.2444,39.0000,68,97,149369
1.9013,0.2639,38.8400,68,97,149372
1.8622,0.2444,38.9600,68,97,149377
1.8817,0.2444,38.8700,68,97,149380
1.8573,0.2444,38.9600,68,97,149383
1.8622,0.2444,39.0000,68,97,149387
1.8964,0.2297,38.9300,68,97,149390
1.8964,0.2493,38.8700,68,97,149393
1.9648,0.2493,38.8700,68,97,149397
1.9013,0.2444,39.0000,68,97,149400
1.9208,0.2346,39.0600,68,97,149403
1.9550,0.2493,38.9300,68,97,149406
1.9355,0.2444,38.9600,68,97,149410
1.9648,0.2493,38.7700,68,97,149413
1.9501,0.2444,39.2500,68,97,149416
1.9550,0.2444,39.0300,68,97,149421
1.9892,0.2542,38.9000,68,97,149424
1.9746,0.2444,39.0000,68,97,149427
2.0332,0.2590,38.8100,68,97,149431
1.9892,0.2444,38.9000,68,97,149434
1.9648,0.2444,39.0000,68,97,149437
1.9648,0.2444,38.9600,68,97,149441
1.9599,0.2395,39.0000,68,97,149444
2.0137,0.2688,38.7400,68,97,149447
1.9404,0.2444,38.9300,68,97,149450
1.9159,0.2395,39.0000,68,97,149454
1.8915,0.2444,39.0000,68,97,149457
1.8622,0.2444,39.0600,68,97,149460
1.8964,0.2639,38.8400,68,97,149465
1.8671,0.2444,38.9600,68,97,149468
1.8671,0.2444,38.8700,68,97,149471
1.8280,0.2444,39.0600,68,97,149475
1.8133,0.2395,38.9600,68,97,149478
1.8328,0.2493,38.8400,68,97,149481
1.7889,0.2346,39.0600,68,97,149485
1.8133,0.2493,38.9300,68,97,149488
1.7840,0.2444,39.2200,68,97,149491
1.7889,0.2395,39.0000,68,97,149494
1.8084,0.2493,38.8700,68,97,149498
1.7595,0.2444,39.0000,68,97,149501
1.7693,0.2395,38.8400,68,97,149505
1.6764,0.2395,38.9600,68,97,149509
1.6276,0.2444,39.0000,68,97,149512
1.6080,0.2444,39.0000,68,97,149515
1.6569,0.2444,39.0900,68,97,149519
1.8671,0.2590,38.7400,68,97,149522
2.1310,0.2395,38.9600,68,97,149525
2.5318,0.2493,38.9600,68,97,149528
2.9717,0.2493,38.9600,68,97,149532
3.3382,0.2444,39.0300,68,97,149535
3.7732,0.2542,38.7100,68,97,149538
3.8856,0.2493,38.9000,68,97,149542
3.8025,0.2542,39.0600,68,97,149545
3.5191,0.2493,38.9600,68,97,149549
3.0303,0.2688,39.0000,68,97,149553
2.5855,0.2590,38.8100,68,97,149556
2.0674,0.2493,38.9300,68,97,149559
1.7253,0.2395,38.9000,68,97,149563
1.5396,0.2444,39.0000,68,97,149566
1.4663,0.2395,39.0000,68,97,149569
1.4809,0.2542,38.8400,68,97,149572
1.4614,0.2297,39.0000,68,97,149576
1.5054,0.2444,38.9600,68,97,149579
1.5200,0.2395,39.0600,68,97,149582
1.5591,0.2297,39.0300,68,97,149586
1.6129,0.2493,38.8100,68,97,149590
1.6373,0.2395,39.0000,68,97,149593
1.6520,0.2493,38.8700,68,97,149597
1.6276,0.2444,39.0000,68,97,149600
1.6422,0.2297,39.0000,68,97,149603
1.6764,0.2542,38.9600,68,97,149606
1.6911,0.2395,39.0000,68,97,149610
1.6960,0.2444,38.8400,68,97,149613
1.6862,0.2444,38.9000,68,97,149616
1.7009,0.2395,39.0000,68,97,149620
1.7351,0.2297,38.8700,68,97,149623
1.7302,0.2444,39.0000,68,97,149626
1.7791,0.2493,38.7700,68,97,149630
1.7595,0.2493,39.0300,68,97,149634
1.7595,0.2493,39.0600,68,97,149637
1.7791,0.2493,38.9300,68,97,149641
1.7889,0.2395,39.0000,68,97,149644
1.8524,0.2542,38.7400,68,97,149647
1.8084,0.2444,38.9600,68,97,149650
1.8231,0.2395,38.9600,68,97,149654
1.8280,0.2444,38.9600,68,97,149657
1.8280,0.2444,39.0300,68,97,149660
1.9013,0.2639,38.7700,68,97,149664
1.8768,0.2493,38.9300,68,97,149667
1.9013,0.2395,38.9300,68,97,149670
1.8915,0.2395,38.9600,68,97,149675
1.8964,0.2297,39.0300,68,97,149678
1.9501,0.2493,38.8400,68,97,149681
1.9208,0.2395,38.9600,68,97,149685
1.9648,0.2444,38.6800,68,97,149688
1.9550,0.2542,39.0000,68,97,149691
1.9746,0.2444,39.0000,68,97,149694
2.0088,0.2493,39.2200,68,97,149698
1.9795,0.2444,38.9600,68,97,149701
2.0332,0.2297,38.9000,68,97,149704
2.0137,0.2444,39.0600,68,97,149708
2.0283,0.2688,39.0000,68,97,149711
2.0577,0.2395,38.9300,68,97,149714
2.0577,0.2395,39.0000,68,97,149719
2.1017,0.2444,38.9000,68,97,149722
2.0968,0.2444,38.9600,68,97,149725
2.1163,0.2395,39.0000,68,97,149728
2.1505,0.2493,38.9300,68,97,149732
2.1359,0.2395,39.0000,68,97,149735
2.1994,0.2493,38.7700,68,97,149738
2.1896,0.2737,38.8700,68,97,149742
2.1994,0.2395,39.0000,68,97,149745
2.2532,0.2444,38.9000,68,97,149748
2.2483,0.2493,39.0000,68,97,149752
2.3363,0.2297,38.7100,68,97,149755
2.3021,0.2493,38.8700,68,97,149758
2.3265,0.2395,39.0000,68,97,149762
2.3509,0.2444,39.0000,68,97,149766
2.3754,0.2444,39.0000,68,97,149769
2.4682,0.2639,38.7700,68,97,149772
2.4194,0.2444,38.9000,68,97,149776
2.4389,0.2395,38.9300,68,97,149779
2.4487,0.2444,39.0000,68,97,149782
2.4682,0.2297,39.0300,68,97,149786
2.5415,0.2590,38.9600,68,97,149789
2.5122,0.2835,38.9600,68,97,149792
2.5562,0.2395,38.8700,68,97,149795
2.5024,0.2493,39.0300,68,97,149799
2.5220,0.2444,39.0000,68,97,149803
2.5367,0.2542,38.8400,68,97,149806
2.4633,0.2493,39.0600,68,97,149810
2.4731,0.2493,38.8700,68,97,149813
2.3607,0.2444,39.2800,68,97,149816
2.3021,0.2444,39.0000,68,97,149820
2.2678,0.2493,38.8700,68,97,149823
2.1505,0.2444,39.0000,68,97,149826
2.1065,0.2493,38.8700,68,97,149829
1.9795,0.2395,38.9300,68,97,149833
1.8915,0.2395,39.0000,68,97,149836
1.8231,0.2444,38.9300,68,97,149839
1.7400,0.2444,38.8400,68,97,149843
1.7107,0.2444,38.7700,68,97,149847
1.6129,0.2444,38.9000,68,97,149850
1.5591,0.2444,39.0300,68,97,149854
1.5103,0.2493,38.9600,68,97,149857
1.4467,0.2444,39.0600,68,97,149860
1.4663,0.2542,38.7400,68,97,149864
1.4076,0.2493,38.8400,68,97,149867
1.3832,0.2444,39.0000,68,97,149870
1.3636,0.2493,38.9600,68,97,149873
1.3441,0.2346,39.0600,68,97,149877
1.3881,0.2590,38.8100,68,97,149880
1.3587,0.2493,38.9000,68,97,149883
1.3587,0.2346,38.9300,68,97,149888
1.3636,0.2444,39.2200,68,97,149891
1.3881,0.2444,39.0000,68,97,149894
1.4223,0.2493,38.8400,68,97,149898
1.4076,0.2444,38.9600,68,97,149901
1.4516,0.2444,38.9000,68,97,149904
1.4418,0.2444,39.0300,68,97,149908
1.5103,0.2395,39.0000,68,97,149912
1.5298,0.2395,39.0000,68,97,149916
1.5543,0.2493,38.8400,68,97,149919
1.5249,0.2493,39.0000,68,97,149922
1.5689,0.2493,38.7400,68,97,149926
1.5640,0.2444,38.9600,68,97,149929
1.5787,0.2737,39.0600,68,97,149933
1.6178,0.2493,39.0000,68,97,149936
1.6080,0.2444,39.0000,68,97,149940
1.6618,0.2639,38.7400,68,97,149943
1.6325,0.2444,38.9000,68,97,149946
1.6422,0.2395,39.0300,68,97,149950
1.6716,0.2542,39.0000,68,97,149953
1.6813,0.2444,39.0000,68,97,149956
1.7351,0.2639,38.6800,68,97,149960
1.6911,0.2297,38.9600,68,97,149963
1.6960,0.2395,39.0300,68,97,149966
1.7155,0.2444,39.0000,68,97,149969
1.7009,0.2395,38.9600,68,97,149974
1.7546,0.2542,38.8400,68,97,149977
1.7253,0.2297,38.9600,68,97,149980
1.7449,0.2444,38.8700,68,97,149984
1.7253,0.2444,39.0600,68,97,149987
1.7302,0.2493,39.0000,68,97,149990
1.7693,0.2590,38.8100,68,97,149994
1.7351,0.2444,39.0300,68,97,149997
1.7595,0.2590,38.9000,68,97,150000
1.7302,0.2444,38.9600,68,97,150004
1.7498,0.2395,39.0000,68,97,150007
1.7791,0.2493,38.8400,68,97,150010
1.7546,0.2297,39.0000,68,97,150013
1.7840,0.2444,38.8400,68,97,150018
1.7449,0.2688,38.9000,68,97,150021
1.7449,0.2395,39.0000,68,97,150024
1.7546,0.2444,38.8700,68,97,150028
1.7498,0.2444,39.0000,68,97,150031
1.7889,0.2493,38.8100,68,97,150034
1.7546,0.2639,38.9600,68,97,150038
1.7693,0.2444,38.9600,68,97,150041
1.7742,0.2493,39.0600,68,97,150044
1.7449,0.2444,39.0000,68,97,150047
1.8084,0.2542,38.7700,68,97,150051
1.7889,0.2493,38.9000,68,97,150054
1.7840,0.2395,39.0000,68,97,150057
1.7840,0.2493,38.9600,68,97,150062
1.7644,0.2395,39.0600,68,97,150065
1.8524,0.2590,38.7400,68,97,150068
1.7791,0.2493,38.9000,68,97,150072
1.7791,0.2395,38.9000,68,97,150075
1.7840,0.2444,39.0000,68,97,150078
1.7840,0.2395,39.0300,68,97,150081
1.8231,0.2542,38.8100,68,97,150085
1.7840,0.2444,38.9600,68,97,150088
1.8084,0.2444,38.8700,68,97,150091
1.7840,0.2444,39.0600,68,97,150095
1.7889,0.2444,39.0600,68,97,150098
1.8182,0.2542,38.9000,68,97,150102
1.7986,0.2444,38.9600,68,97,150106
1.8231,0.2444,38.9000,68,97,150109
1.7986,0.2444,39.0000,68,97,150112
1.8084,0.2297,39.0000,68,97,150116
1.8377,0.2542,38.8700,68,97,150119
1.7986,0.2444,38.9600,68,97,150122
1.8182,0.2444,39.0300,68,97,150125
1.7986,0.2395,38.9000,68,97,150129
1.8035,0.2297,39.0000,68,97,150132
1.8377,0.2542,38.8400,68,97,150135
1.8182,0.2444,39.0000,68,97,150139
1.8573,0.2493,38.7100,68,97,150142
1.8182,0.2493,38.9300,68,97,150146
1.8133,0.2395,38.9600,68,97,150150
1.8280,0.2493,38.9600,68,97,150153
1.8280,0.2395,39.2500,68,97,150156
1.8817,0.2542,38.7100,68,97,150160
1.8280,0.2444,39.2200,68,97,150163
1.8328,0.2444,38.9600,68,97,150166
1.8328,0.2444,38.9600,68,97,150169
1.8231,0.2444,39.0000,68,97,150173
1.8866,0.2590,38.8100,68,97,150176
1.8475,0.2493,38.9300,68,97,150179
1.8426,0.2444,38.9000,68,97,150183
1.8280,0.2444,38.9000,68,97,150187
1.8328,0.2395,39.0300,68,97,150190
1.8866,0.2493,38.6800,68,97,150194
1.8475,0.2493,38.9300,68,97,150197
1.8622,0.2395,38.8700,68,97,150200
1.8328,0.2444,38.6800,68,97,150204
1.8426,0.2542,38.9600,68,97,150207
1.8719,0.2542,38.9000,68,97,150210
1.8426,0.2444,39.0000,68,97,150213
1.8817,0.2542,38.8700,68,97,150217
1.8426,0.2444,39.1200,68,97,150220
1.8377,0.2444,39.0000,68,97,150223
1.8475,0.2444,38.9300,68,97,150227
1.8475,0.2444,39.0300,68,97,150231
1.9062,0.2395,38.8100,68,97,150234
1.8573,0.2444,39.0000,68,97,150238
1.8671,0.2444,39.0000,68,97,150241
1.8719,0.2493,38.9000,68,97,150244
1.8377,0.2395,39.0000,68,97,150248
1.8964,0.2493,38.7400,68,97,150251
1.8817,0.2493,38.9000,68,97,150254
1.8817,0.2395,39.0600,68,97,150257
1.8915,0.2493,38.9600,68,97,150261
1.8768,0.2395,38.9600,68,97,150264
1.9404,0.2590,38.7100,68,97,150267
1.9062,0.2493,38.8700,68,97,150272
1.9110,0.2395,38.9600,68,97,150275
1.9208,0.2297,39.0000,68,97,150278
1.9257,0.2395,39.0000,68,97,150282
1.9844,0.2542,38.8100,68,97,150285
1.9306,0.2444,39.0000,68,97,150288
1.9599,0.2395,38.9000,68,97,150291
1.9550,0.2444,38.9600,68,97,150295
1.9599,0.2395,39.0000,68,97,150298
1.9990,0.2688,38.9000,68,97,150301
1.9795,0.2542,38.9300,68,97,150305
2.0039,0.2444,38.8700,68,97,150308
1.9746,0.2639,39.0000,68,97,150311
1.9892,0.2395,39.0000,68,97,150316
2.0137,0.2542,38.8400,68,97,150319
1.9501,0.2493,38.9600,68,97,150322
1.9501,0.2493,38.8700,68,97,150325
1.8915,0.2346,38.9000,68,97,150329
1.8768,0.2444,39.0600,68,97,150332
1.8866,0.2493,38.9300,68,97,150335
1.8426,0.2493,39.0000,68,97,150339
1.8622,0.2444,38.7700,68,97,150342
1.8084,0.2493,38.9000,68,97,150345
1.7986,0.2444,39.0600,68,97,150349
1.8035,0.2297,38.9300,68,97,150352
1.7937,0.2444,38.9000,68,97,150355
1.8377,0.2639,38.7400,68,97,150360
1.7742,0.2395,39.0300,68,97,150363
1.7791,0.2688,39.0000,68,97,150366
1.7791,0.2444,38.9600,68,97,150369
1.7644,0.2444,39.0600,68,97,150373
1.8035,0.2493,38.7100,68,97,150376
1.7351,0.2493,39.0300,68,97,150379
1.6911,0.2346,38.9300,68,97,150383
1.6373,0.2542,38.9600,68,97,150386
1.6422,0.2395,39.0000,68,97,150389
1.8280,0.2493,38.8400,68,97,150393
2.0430,0.2542,39.0000,68,97,150396
2.4047,0.2444,38.9000,68,97,150400
2.7957,0.2444,39.0000,68,97,150404
3.2063,0.2395,39.0300,68,97,150407
3.6022,0.2542,38.8400,68,97,150410
3.7879,0.2444,39.0600,68,97,150413
3.8661,0.2590,38.8700,68,97,150417
3.6217,0.2444,39.0000,68,97,150420
3.1916,0.2395,39.0000,68,97,150423
2.7224,0.2786,38.9000,68,97,150427
2.2336,0.2395,39.0000,68,97,150430
1.8719,0.2542,38.9000,68,97,150433
1.5836,0.2444,39.0000,68,97,150437
1.4614,0.2395,39.0000,68,97,150440
1.4321,0.2493,38.9000,68,97,150444
1.4076,0.2444,39.0300,68,97,150447
1.4565,0.2444,38.8100,68,97,150451
1.4809,0.2444,38.9000,68,97,150454
1.5249,0.2493,39.0600,68,97,150457
1.5787,0.2590,38.9000,68,97,150461
1.5836,0.2395,39.0300,68,97,150464
1.6422,0.2542,38.7400,68,97,150467
1.6325,0.2444,38.9000,68,97,150471
1.6422,0.2493,39.0300,68,97,150474
1.6618,0.2444,38.9600,68,97,150477
1.6764,0.2444,39.0300,68,97,150480
1.7351,0.2786,38.6800,68,97,150484
1.6960,0.2395,38.9300,68,97,150488
1.7155,0.2395,38.9600,68,97,150491
1.7351,0.2444,39.0000,68,97,150495
1.7400,0.2444,39.0000,68,97,150498
1.8035,0.2639,38.8100,68,97,150501
1.7742,0.2493,38.9300,68,97,150505
1.7937,0.2395,38.8700,68,97,150508
1.7937,0.2444,39.0000,68,97,150511
1.8084,0.2395,39.0000,68,97,150515
1.8622,0.2639,38.8100,68,97,150518
1.8915,0.2297,38.9000,68,97,150523
1.8622,0.2444,39.0000,68,97,150526
1.8866,0.2639,38.8100,68,97,150530
1.8475,0.2395,38.8100,68,97,150533
1.8573,0.2395,39.0000,68,97,150537
1.8964,0.2493,38.9300,68,97,150540
1.9110,0.2444,39.0300,68,97,150543
1.9795,0.2542,38.7400,68,97,150547
1.9404,0.2444,39.2800,68,97,150550
1.9599,0.2493,39.0000,68,97,150553
1.9844,0.2444,39.0300,68,97,150557
1.9941,0.2346,38.9600,68,97,150560
2.0723,0.2590,38.7100,68,97,150563
2.0479,0.2493,38.9300,68,97,150567
2.0528,0.2590,38.9600,68,97,150571
2.0626,0.2444,38.9600,68,97,150574
2.0674,0.2395,39.0000,68,97,150577
2.1505,0.2590,38.8100,68,97,150581
2.1261,0.2493,38.9300,68,97,150584
2.1310,0.2444,38.9000,68,97,150587
2.1261,0.2493,39.0000,68,97,150591
2.1457,0.2444,39.0000,68,97,150594
2.1994,0.2493,38.8400,68,97,150597
2.2043,0.2444,38.9600,68,97,150601
2.2385,0.2297,38.8400,68,97,150604
2.2239,0.2493,39.0000,68,97,150607
2.2385,0.2395,38.9600,68,97,150610
2.2776,0.2493,39.0600,68,97,150615
2.2874,0.2444,38.9600,68,97,150618
2.3558,0.2542,38.9600,68,97,150621
2.3412,0.2346,39.0000,68,97,150625
2.3705,0.2395,39.0000,68,97,150628
2.4145,0.2493,38.9000,68,97,150631
2.3998,0.2444,38.9600,68,97,150635
2.4633,0.2444,38.8100,68,97,150638
2.4536,0.2444,38.9000,68,97,150641
2.4682,0.2395,39.0000,68,97,150645
2.5073,0.2542,39.0000,68,97,150648
2.4780,0.2395,39.0300,68,97,150651
2.5367,0.2590,38.7400,68,97,150654
2.4927,0.2444,38.9000,68,97,150659
2.4682,0.2395,39.0000,68,97,150662
2.4633,0.2493,38.9300,68,97,150665
2.4242,0.2395,39.0000,68,97,150669
2.4389,0.2542,38.7100,68,97,150672
2.3118,0.2444,38.9600,68,97,150675
2.2532,0.2297,39.0000,68,97,150679
2.1848,0.2786,39.0000,68,97,150682
2.0919,0.2444,39.0000,68,97,150685
2.0821,0.2639,38.8100,68,97,150688
1.9550,0.2493,38.8400,68,97,150692
1.8573,0.2346,38.9000,68,97,150695
1.7840,0.2444,39.0300,68,97,150699
1.7155,0.2444,39.0000,68,97,150703
1.6862,0.2542,38.8400,68,97,150706
1.5934,0.2444,38.9600,68,97,150709
1.5396,0.2297,38.8700,68,97,150713
1.4809,0.2590,39.0000,68,97,150716
1.4614,0.2444,38.9600,68,97,150719
1.4614,0.2542,39.0000,68,97,150723
1.4125,0.2493,39.0300,68,97,150726
1.4174,0.2493,38.9300,68,97,150729
1.3734,0.2395,38.9300,68,97,150732
1.3734,0.2395,39.0000,68,97,150736
1.3832,0.2444,39.0000,68,97,150739
1.3881,0.2493,38.9600,68,97,150743
1.4125,0.2444,38.8100,68,97,150747
1.3978,0.2444,39.0000,68,97,150750
1.4174,0.2395,39.0000,68,97,150753
1.4370,0.2493,38.2100,68,97,150757
1.4272,0.2444,39.0000,68,97,150760
1.4858,0.2493,38.7400,68,97,150763
1.4858,0.2786,38.9000,68,97,150767
1.5005,0.2395,39.0000,68,97,150770
1.5054,0.2493,39.1900,68,97,150773
1.5054,0.2395,39.0600,68,97,150776
1.5787,0.2493,38.7100,68,97,150780
1.5543,0.2542,38.8700,68,97,150784
1.5543,0.2395,38.9300,68,97,150787
1.5591,0.2444,39.0000,68,97,150791
1.5689,0.2395,39.0000,68,97,150794
1.6227,0.2590,38.8700,68,97,150797
1.5934,0.2444,39.0600,68,97,150801
1.6129,0.2542,38.8700,68,97,150804
1.6080,0.2444,39.0000,68,97,150807
1.6080,0.2493,38.9600,68,97,150810
1.6422,0.2493,38.9300,68,97,150814
1.6325,0.2444,38.9600,68,97,150817
1.6667,0.2395,38.8700,68,97,150820
1.6471,0.2444,38.9600,68,97,150824
1.6716,0.2346,39.0000,68,97,150828
1.6764,0.2542,38.9300,68,97,150831
1.6422,0.2444,39.0000,68,97,150835
1.6813,0.2444,38.8400,68,97,150838
1.6716,0.2493,38.8100,68,97,150841
1.6911,0.2395,39.0000,68,97,150845
1.7058,0.2542,38.8400,68,97,150848
1.6813,0.2297,39.0000,68,97,150851
1.7204,0.2493,38.7700,68,97,150854
1.6960,0.2542,38.9000,68,97,150858
1.6960,0.2395,39.0000,68,97,150861
1.7155,0.2444,38.9300,68,97,150864
1.7107,0.2444,39.0000,68,97,150868
1.7595,0.2542,38.7100,68,97,150872
1.7107,0.2395,38.9300,68,97,150875
1.7595,0.2395,39.0000,68,97,150879
1.7400,0.2493,38.9600,68,97,150882
1.7302,0.2395,38.9600,68,97,150885
1.7889,0.2639,38.7400,68,97,150889
1.7498,0.2493,38.8700,68,97,150892
1.7693,0.2346,38.9300,68,97,150895
1.7400,0.2444,39.0000,68,97,150898
1.7742,0.2444,38.9600,68,97,150902
1.7840,0.2542,38.9000,68,97,150905
1.7498,0.2493,38.9300,68,97,150908
1.7449,0.2444,38.9300,68,97,150913
1.7302,0.2542,39.0000,68,97,150916
1.7400,0.2444,39.0000,68,97,150919
1.7791,0.2542,38.9000,68,97,150923
1.7498,0.2493,39.0000,68,97,150926
1.7791,0.2444,38.8700,68,97,150929
1.7351,0.2444,39.0300,68,97,150932
1.7351,0.2444,38.9600,68,97,150936
1.7595,0.2297,38.9300,68,97,150939
1.7595,0.2444,38.9600,68,97,150942
1.7840,0.2395,38.8400,68,97,150946
1.7449,0.2444,39.0000,68,97,150949
1.7546,0.2395,39.0000,68,97,150952
1.7644,0.2493,38.9000,68,97,150957
1.7449,0.2444,39.0000,68,97,150960
1.7840,0.2297,38.7700,68,97,150963
1.7742,0.2493,39.0300,68,97,150967
1.7693,0.2346,39.0000,68,97,150970
1.7791,0.2493,38.8400,68,97,150973
1.7595,0.2444,39.0000,68,97,150976
1.8231,0.2542,38.6800,68,97,150980
1.7889,0.2395,38.8700,68,97,150983
1.7840,0.2395,39.0000,68,97,150986
1.7840,0.2444,39.1900,68,97,150990
1.7791,0.2493,39.0000,68,97,150993
1.8475,0.2590,38.8100,68,97,150996
1.7937,0.2493,38.9300,68,97,151001
1.8084,0.2395,38.9300,68,97,151004
1.7937,0.2444,38.9600,68,97,151007
1.7840,0.2444,39.0000,68,97,151011
1.8182,0.2542,38.9300,68,97,151014
1.8328,0.2395,38.9600,68,97,151017
1.8328,0.2444,38.9000,68,97,151021
1.8084,0.2444,39.0000,68,97,151024
1.8133,0.2395,38.9600,68,97,151027
1.8475,0.2542,38.8400,68,97,151030
1.8084,0.2444,39.0000,68,97,151034
1.8426,0.2884,38.9000,68,97,151037
1.8182,0.2395,38.9300,68,97,151041
1.8328,0.2395,39.0300,68,97,151045
1.8573,0.2493,38.8700,68,97,151048
1.8231,0.2444,38.9600,68,97,151051
1.8573,0.2395,38.8100,68,97,151055
1.8231,0.2444,39.0000,68,97,151058
1.8231,0.2444,39.0000,68,97,151061
1.8475,0.2493,38.9300,68,97,151065
1.8426,0.2444,38.9000,68,97,151068
1.8817,0.2590,38.8100,68,97,151071
1.8280,0.2395,39.0600,68,97,151074
1.8426,0.2395,39.0900,68,97,151078
1.8524,0.2493,39.0000,68,97,151081
1.8426,0.2493,38.9000,68,97,151085
1.8964,0.2590,38.7100,68,97,151089
1.8622,0.2297,38.9000,68,97,151092
1.8524,0.2346,38.9600,68,97,151095
1.8768,0.2444,39.0000,68,97,151099
1.8622,0.2395,39.0000,68,97,151102
1.9257,0.2542,38.7100,68,97,151105
1.8964,0.2493,38.9300,68,97,151108
1.9013,0.2395,38.8400,68,97,151112
1.8964,0.2395,39.0000,68,97,151115
1.9208,0.2395,39.0000,68,97,151118
1.9648,0.2493,38.8700,68,97,151122
1.9453,0.2444,38.9600,68,97,151126
1.9746,0.2688,38.8400,68,97,151129
1.9453,0.2297,39.0000,68,97,151133
1.9795,0.2395,38.5800,68,97,151137
1.9697,0.2346,39.0000,68,97,151141
1.9697,0.2493,38.9000,68,97,151144
1.9453,0.2395,39.0000,68,97,151147
2.0186,0.2542,38.8100,68,97,151151
1.9599,0.2444,38.9000,68,97,151154
1.9257,0.2395,39.0600,68,97,151157
1.9159,0.2493,38.9300,68,97,151160
1.8866,0.2395,39.0900,68,97,151164
1.9404,0.2639,38.7100,68,97,151168
1.8915,0.2444,38.9600,68,97,151171
1.8719,0.2346,38.9600,68,97,151175
1.8573,0.2444,39.0000,68,97,151178
1.8426,0.2395,39.0300,68,97,151181
1.8817,0.2542,38.8100,68,97,151185
1.8280,0.2444,38.9000,68,97,151188
1.8377,0.2346,38.8700,68,97,151191
1.8182,0.2297,39.0000,68,97,151195
1.8133,0.2395,39.0300,68,97,151198
1.8328,0.2493,38.9300,68,97,151201
1.8133,0.2444,38.9600,68,97,151204
1.8231,0.2444,38.8400,68,97,151208
1.7498,0.2444,38.9600,68,97,151212
1.7155,0.2444,39.0000,68,97,151215
1.6618,0.2493,38.8700,68,97,151219
1.6422,0.2444,39.0300,68,97,151222
1.7937,0.2395,38.8100,68,97,151225
2.0137,0.2444,38.9000,68,97,151229
2.3900,0.2346,38.9600,68,97,151232
2.8152,0.2493,38.8700,68,97,151235
3.1720,0.2444,39.0000,68,97,151239
3.6022,0.2444,38.7700,68,97,151242
3.8074,0.2444,39.0000,68,97,151245
3.8514,0.2395,38.9600,68,97,151248
3.6901,0.2444,38.9600,68,97,151252
3.2845,0.2297,39.0000,68,97,151256
2.8495,0.2493,39.0900,68,97,151259
2.2727,0.2395,38.9300,68,97,151263
1.8866,0.2297,39.0000,68,97,151266
1.6276,0.2444,39.0600,68,97,151269
1.4712,0.2395,39.0000,68,97,151273
1.4809,0.2639,38.8100,68,97,151276
1.4467,0.2395,38.9000,68,97,151279
1.4761,0.2346,38.9600,68,97,151282
1.5054,0.2444,39.0600,68,97,151286
1.5494,0.2395,38.9600,68,97,151289
1.6373,0.2493,38.8100,68,97,151292
1.6227,0.2493,38.9600,68,97,151297
1.6520,0.2444,39.0600,68,97,151300
1.6471,0.2493,39.0000,68,97,151303
1.6764,0.2444,39.0300,68,97,151307
1.7155,0.2493,38.8400,68,97,151310
1.6960,0.2395,39.0000,68,97,151313
1.7302,0.2444,38.8400,68,97,151317
1.7058,0.2395,38.8400,68,97,151320
1.7351,0.2395,39.0300,68,97,151323
1.7546,0.2444,39.1600,68,97,151326
1.7693,0.2444,38.9600,68,97,151330
1.8084,0.2444,38.8400,68,97,151333
1.7937,0.2444,39.0000,68,97,151336
1.7937,0.2395,39.0000,68,97,151341
1.8084,0.2444,38.9000,68,97,151344
1.7889,0.2395,39.0000,68,97,151347
1.8573,0.2444,38.7700,68,97,151351
1.8426,0.2542,38.8700,68,97,151354
1.8426,0.2395,39.0000,68,97,151357
1.8622,0.2444,38.9000,68,97,151361
1.8573,0.2395,38.9600,68,97,151364
1.9208,0.2493,38.8100,68,97,151367
1.8866,0.2444,38.9300,68,97,151370
1.8964,0.2346,39.0300,68,97,151374
1.9062,0.2444,39.0600,68,97,151377
1.9159,0.2395,39.0000,68,97,151380
1.9844,0.2590,38.8100,68,97,151385
1.9404,0.2444,38.9300,68,97,151388
1.9599,0.2297,38.9300,68,97,151391
1.9599,0.2737,39.0600,68,97,151395
1.9648,0.2395,39.0600,68,97,151398
2.0137,0.2835,38.8700,68,97,151401
1.9990,0.2444,38.9600,68,97,151405
2.0479,0.2444,38.9000,68,97,151408
2.0332,0.2444,38.9600,68,97,151411
2.0528,0.2395,38.9600,68,97,151414
2.0870,0.2493,38.9000,68,97,151418
2.0626,0.2346,38.9600,68,97,151421
2.1065,0.2493,38.9000,68,97,151425
2.0968,0.2346,38.9000,68,97,151429
2.1261,0.2395,39.0300,68,97,151432
2.1701,0.2297,38.8700,68,97,151435
2.1457,0.2395,39.1600,68,97,151439
2.2043,0.2395,38.8100,68,97,151442
2.1848,0.2395,38.9300,68,97,151445
2.2092,0.2248,39.0300,68,97,151448
2.2825,0.2444,38.9300,68,97,151452
2.2630,0.2297,38.9600,68,97,151455
2.3314,0.2493,38.7700,68,97,151458
2.3021,0.2395,39.0300,68,97,151462
2.3363,0.2395,38.9600,68,97,151465
2.3900,0.2395,38.9600,68,97,151469
2.3949,0.2395,39.0000,68,97,151473
2.4878,0.2542,38.6800,68,97,151476
2.4633,0.2444,38.9600,68,97,151479
2.4682,0.2346,39.0000,68,97,151483
2.4927,0.2444,38.9300,68,97,151486
2.5073,0.2346,39.0000,68,97,151489
2.5953,0.2639,38.8100,68,97,151492
2.5513,0.2493,38.9300,68,97,151496
2.5415,0.2737,38.9000,68,97,151499
2.5269,0.2395,39.0000,68,97,151502
2.5269,0.2395,39.0600,68,97,151506
2.5513,0.2542,38.8400,68,97,151510
2.4829,0.2444,39.0000,68,97,151513
2.4633,0.2444,38.8400,68,97,151517
2.3705,0.2395,39.0000,68,97,151520
2.2923,0.2395,38.7400,68,97,151523
2.2581,0.2395,38.9000,68,97,151527
2.1554,0.2297,38.9600,68,97,151530
2.1065,0.2493,39.0000,68,97,151533
1.9844,0.2395,38.9600,68,97,151536
1.8817,0.2395,39.1200,68,97,151540
1.8182,0.2493,38.8700,68,97,151543
1.7155,0.2395,38.9600,68,97,151546
1.6813,0.2444,38.7700,68,97,151550
1.6031,0.2444,38.8400,68,97,151554
1.5494,0.2346,39.0000,68,97,151557
1.5200,0.2493,38.8100,68,97,151561
1.4565,0.2444,38.9600,68,97,151564
1.4663,0.2493,38.7400,68,97,151567
1.4174,0.2395,38.8700,68,97,151571
1.3930,0.2395,39.1600,68,97,151574
1.3832,0.2444,39.0000,68,97,151577
1.4027,0.2395,39.0000,68,97,151580
1.4125,0.2590,38.7400,68,97,151584
1.3734,0.2444,39.0600,68,97,151587
1.4174,0.2346,38.9300,68,97,151590
1.3832,0.2444,39.0300,68,97,151595
1.3881,0.2395,39.0300,68,97,151598
1.4321,0.2542,38.9000,68,97,151601
1.4321,0.2395,38.9600,68,97,151605
1.4516,0.2395,38.8400,68,97,151608
1.4467,0.2346,39.0000,68,97,151611
1.4614,0.2395,38.9600,68,97,151615
1.5054,0.2493,38.8100,68,97,151618
1.4809,0.2639,39.0000,68,97,151621
1.5152,0.2444,38.9000,68,97,151625
1.5152,0.2395,39.0000,68,97,151628
1.5445,0.2395,39.0300,68,97,151631
1.5787,0.2444,38.8700,68,97,151634
1.5591,0.2395,38.9600,68,97,151639
1.5885,0.2444,38.8400,68,97,151642
1.5738,0.2395,38.9000,68,97,151645
1.5982,0.2346,38.9600,68,97,151649
1.6129,0.2444,38.9300,68,97,151652
1.6129,0.2395,39.0000,68,97,151655
1.6520,0.2444,38.7100,68,97,151659
1.6178,0.2395,39.0000,68,97,151662
1.6325,0.2395,39.0000,68,97,151665
1.6569,0.2297,38.9600,68,97,151668
1.6471,0.2395,39.0300,68,97,151672
1.7058,0.2493,38.6800,68,97,151675
1.6764,0.2444,38.8700,68,97,151678
1.6716,0.2346,38.9600,68,97,151683
1.6862,0.2395,39.0000,68,97,151686
1.7009,0.2395,38.9600,68,97,151689
1.7595,0.2590,38.8100,68,97,151693
1.7253,0.2395,38.9000,68,97,151696
1.7058,0.2346,38.9300,68,97,151699
1.7107,0.2395,39.2200,68,97,151703
1.7204,0.2444,39.0000,68,97,151706
1.7644,0.2493,38.9000,68,97,151709
1.7351,0.2444,39.0600,68,97,151712
1.7546,0.2395,38.9000,68,97,151716
1.7253,0.2395,39.0900,68,97,151719
1.7302,0.2444,39.0000,68,97,151723
1.7546,0.2444,38.9300,68,97,151727
1.7546,0.2444,38.9600,68,97,151730
1.7937,0.2493,38.8700,68,97,151733
1.7449,0.2444,38.9600,68,97,151737
1.7498,0.2395,39.0000,68,97,151740
1.7644,0.2493,38.9300,68,97,151743
1.7644,0.2444,38.9300,68,97,151748
1.7351,0.2395,39.0000,68,97,151751
1.7840,0.2493,38.7400,68,97,151755
1.7351,0.2444,38.8700,68,97,151758
1.7302,0.2346,38.9600,68,97,151761
1.7302,0.2395,39.0000,68,97,151766
1.7302,0.2395,39.0000,68,97,151769
1.7889,0.2590,38.6500,68,97,151772
1.7498,0.2395,38.9300,68,97,151775
1.7791,0.2395,38.9300,68,97,151779
1.7693,0.2444,39.0600,68,97,151782
1.7693,0.2395,39.1200,68,97,151785
1.8035,0.2493,38.9000,68,97,151789
1.7889,0.2297,38.9300,68,97,151792
1.8182,0.2444,38.4900,68,97,151795
1.7986,0.2395,39.0000,68,97,151799
1.8035,0.2395,39.0000,68,97,151802
1.8280,0.2493,39.0900,68,97,151805
1.7840,0.2395,39.0000,68,97,151809
1.8280,0.2297,38.9300,68,97,151813
1.8035,0.2346,38.9300,68,97,151816
1.8133,0.2395,38.9600,68,97,151819
1.8377,0.2395,38.8700,68,97,151823
1.8035,0.2395,39.0000,68,97,151826
1.8377,0.2395,38.8700,68,97,151829
1.8133,0.2346,38.9000,68,97,151833
1.8182,0.2395,39.0000,68,97,151836
1.8328,0.2444,39.0600,68,97,151839
1.8231,0.2346,38.9600,68,97,151843
1.8671,0.2493,38.7400,68,97,151846
1.8133,0.2444,38.9300,68,97,151849
1.8280,0.2297,38.9600,68,97,151853
1.8328,0.2444,38.9300,68,97,151857
1.8182,0.2395,39.0000,68,97,151860
1.8719,0.2639,38.8100,68,97,151863
1.8328,0.2444,38.9300,68,97,151867
1.8182,0.2346,39.0900,68,97,151870
1.8231,0.2395,38.9600,68,97,151873
1.8280,0.2395,39.0300,68,97,151877
1.9013,0.2542,38.8100,68,97,151880
1.8377,0.2444,39.0000,68,97,151883
1.8426,0.2395,38.8700,68,97,151887
1.8280,0.2395,39.0600,68,97,151890
1.8377,0.2542,39.0600,68,97,151894
1.8768,0.2493,38.8100,68,97,151898
1.8475,0.2395,38.9000,68,97,151901
1.8768,0.2444,38.8100,68,97,151904
1.8328,0.2395,38.9600,68,97,151907
1.8328,0.2444,39.0600,68,97,151911
1.8524,0.2395,38.9300,68,97,151914
1.8475,0.2395,38.9600,68,97,151917
1.9110,0.2444,38.8400,68,97,151921
1.8377,0.2395,39.0000,68,97,151924
1.8328,0.2395,39.0000,68,97,151927
1.8573,0.2444,38.9000,68,97,151931
1.8280,0.2346,39.0600,68,97,151934
1.8768,0.2444,38.7400,68,97,151938
1.8573,0.2542,38.8400,68,97,151942
1.8573,0.2395,39.0000,68,97,151945
1.8622,0.2493,38.9000,68,97,151948
1.8768,0.2395,38.9600,68,97,151951
1.9208,0.2493,38.6800,68,97,151955
1.8817,0.2346,38.8400,68,97,151958
1.8915,0.2346,38.9600,68,97,151961
1.9013,0.2444,38.9600,68,97,151965
1.9110,0.2395,39.0000,68,97,151968
1.9795,0.2590,38.5500,68,97,151971
1.9355,0.2444,38.9600,68,97,151975
1.9599,0.2395,39.3800,68,97,151979
1.9697,0.2395,38.9600,68,97,151982
1.9599,0.2395,38.9600,68,97,151986
1.9990,0.2542,38.9000,68,97,151989
1.9892,0.2297,39.0000,68,97,151992
2.0186,0.2395,38.9300,68,97,151995
1.9941,0.2444,38.9600,68,97,151999
1.9844,0.2395,39.0600,68,97,152002
2.0039,0.2542,38.8700,68,97,152005
1.9550,0.2297,38.9600,68,97,152009
1.9648,0.2493,38.8100,68,97,152012
1.9110,0.2346,38.9300,68,97,152015
1.9062,0.2395,39.0000,68,97,152019
1.9110,0.2395,38.8400,68,97,152023
1.8622,0.2297,39.0000,68,97,152026
1.8768,0.2395,38.8100,68,97,152029
1.8328,0.2395,38.9000,68,97,152033
1.8280,0.2297,39.0000,68,97,152036
1.8328,0.2444,39.0900,68,97,152039
1.8133,0.2395,39.0600,68,97,152043
1.8475,0.2444,38.7700,68,97,152046
1.7889,0.2444,39.0000,68,97,152049
1.8084,0.2346,39.0000,68,97,152053
1.8035,0.2297,38.9600,68,97,152056
1.7840,0.2444,38.9600,68,97,152059
1.8231,0.2493,38.6800,68,97,152064
1.7498,0.2590,38.9300,68,97,152067
1.6813,0.2346,38.9600,68,97,152070
1.6471,0.2444,38.9600,68,97,152073
1.5787,0.2395,39.0300,68,97,152077
1.6716,0.2493,38.7700,68,97,152080
1.7840,0.2444,38.9300,68,97,152083
2.0674,0.2395,38.9000,68,97,152087
2.4291,0.2444,38.9600,68,97,152090
2.8592,0.2395,39.0000,68,97,152093
3.3187,0.2737,38.8400,68,97,152097
3.6168,0.2395,38.9600,68,97,152100
3.8759,0.2444,38.8100,68,97,152103
3.7879,0.2395,39.0300,68,97,152108
3.5191,0.2346,39.1900,68,97,152111
3.1085,0.2444,38.9000,68,97,152114
2.5855,0.2395,39.0000,68,97,152117
2.1505,0.2395,38.9600,68,97,152121
1.7742,0.2395,38.9600,68,97,152124
1.5396,0.2297,39.0000,68,97,152127
1.4516,0.2444,38.8700,68,97,152131
1.4076,0.2297,39.0000,68,97,152134
1.4516,0.2444,38.7400,68,97,152137
1.4663,0.2346,38.9300,68,97,152141
1.5005,0.2395,39.0600,68,97,152144
1.5494,0.2395,38.9000,68,97,152147
1.5494,0.2297,39.0000,68,97,152152
1.6227,0.2444,37.9300,68,97,152155
1.6031,0.2395,38.9000,68,97,152158
1.6129,0.2395,39.0000,68,97,152161
1.6178,0.2590,39.0000,68,97,152165
1.6227,0.2444,39.0000,68,97,152168
1.6862,0.2590,38.7100,68,97,152171
1.6471,0.2346,38.9300,68,97,152175
1.6618,0.2346,38.9300,68,97,152178
1.6764,0.2395,38.9600,68,97,152181
1.6813,0.2297,39.0000,68,97,152185
1.7351,0.2542,38.8400,68,97,152188
1.7204,0.2395,38.9600,68,97,152192
1.7546,0.2395,38.9300,68,97,152195
1.7498,0.2590,39.0000,68,97,152199
1.7644,0.2395,39.0000,68,97,152202
1.8084,0.2297,38.8100,68,97,152205
1.7791,0.2444,38.9600,68,97,152209
1.8182,0.2297,38.8700,68,97,152212
1.8084,0.2395,39.0300,68,97,152215
1.8328,0.2395,39.0000,68,97,152219
1.8768,0.2444,38.8400,68,97,152222
1.8573,0.2395,39.0000,68,97,152225
1.8866,0.2395,38.8400,68,97,152229
1.8671,0.2346,38.9000,68,97,152232
1.8866,0.2297,39.0000,68,97,152236
1.9159,0.2444,39.0900,68,97,152239
1.9208,0.2395,39.0600,68,97,152243
1.9746,0.2395,38.7700,68,97,152246
1.9257,0.2395,38.9600,68,97,152249
1.9501,0.2346,38.9600,68,97,152253
1.9795,0.2444,38.9600,68,97,152256
