ecg,gsr,temp,hr,spo2,timest
1.8671,0.1808,38.5200,74,96,206103
1.8377,0.1760,38.5500,74,96,206107
1.8377,0.1711,38.4900,74,96,206110
1.8231,0.1857,38.6200,74,96,206113
1.8182,0.1711,38.5800,74,96,206117
1.8475,0.1955,38.4300,74,96,206120
1.8133,0.1711,38.6800,74,96,206124
1.8426,0.1711,38.4900,74,96,206128
1.8231,0.1662,38.5800,74,96,206131
1.8328,0.1760,38.6800,74,96,206134
1.8524,0.1760,38.5200,74,96,206138
1.8426,0.1808,38.5800,74,96,206141
1.9013,0.1711,38.4300,74,96,206144
1.8426,0.1711,38.4900,74,96,206147
1.8426,0.1613,38.6200,74,96,206151
1.8671,0.1808,38.7400,74,96,206154
1.8524,0.1906,38.6200,74,96,206157
1.9110,0.1760,38.3600,74,96,206161
1.8671,0.1662,38.5200,74,96,206164
1.8671,0.1711,38.5800,74,96,206168
1.8671,0.1808,38.5500,74,96,206172
1.8475,0.1711,38.6200,74,96,206175
1.9062,0.1955,38.3300,74,96,206178
1.8768,0.1711,38.5200,74,96,206182
1.8573,0.1662,38.5200,74,96,206185
1.8524,0.1711,38.5800,74,96,206188
1.8475,0.1711,38.6200,74,96,206192
1.8866,0.1760,38.4300,74,96,206195
1.8573,0.1662,38.5800,74,96,206198
1.8768,0.1760,38.4900,74,96,206201
1.8524,0.1711,38.3300,74,96,206205
1.8475,0.1760,38.5800,74,96,206209
1.8768,0.1760,38.4600,74,96,206212
1.8524,0.1711,38.5500,74,96,206216
1.8671,0.1711,38.4600,74,96,206219
1.8426,0.1711,38.7100,74,96,206222
1.8573,0.1711,38.5800,74,96,206227
1.8426,0.1613,38.5800,74,96,206230
1.8426,0.1760,38.5500,74,96,206234
1.8182,0.1760,38.5800,74,96,206237
1.8622,0.1760,38.3300,74,96,206240
1.8524,0.1760,38.4900,74,96,206244
1.8915,0.1711,38.6200,74,96,206247
1.9795,0.1662,38.5800,74,96,206251
2.0821,0.1760,38.6200,74,96,206254
2.2678,0.1515,38.3600,74,96,206258
2.3509,0.1760,38.5500,74,96,206261
2.4536,0.1662,38.5200,74,96,206264
2.5415,0.1711,38.6200,74,96,206268
2.6491,0.1711,38.5800,74,96,206271
2.7810,0.1808,38.4300,74,96,206274
2.9081,0.1662,38.5500,74,96,206278
3.0743,0.1711,38.4600,74,96,206281
3.0645,0.1711,38.4600,74,96,206284
2.8886,0.1711,38.6200,74,96,206288
2.6197,0.1760,38.5200,74,96,206291
2.2874,0.1808,38.5800,74,96,206295
1.9599,0.1760,38.4900,74,96,206298
1.6862,0.1711,38.5800,74,96,206302
1.5445,0.1711,38.6800,74,96,206305
1.4956,0.1808,38.4900,74,96,206308
1.4614,0.1711,38.7100,74,96,206312
1.4956,0.1760,38.4300,74,96,206315
1.5249,0.1711,38.5200,74,96,206318
1.5836,0.1711,38.7700,74,96,206322
1.6471,0.1515,38.5200,74,96,206325
1.6569,0.1711,38.5800,74,96,206328
1.6911,0.1662,38.3300,74,96,206332
1.6471,0.1515,38.5500,74,96,206336
1.6178,0.1711,38.5800,74,96,206339
1.6129,0.1760,38.5500,74,96,206342
1.5787,0.1711,38.6500,74,96,206346
1.6080,0.1760,38.3000,74,96,206349
1.5689,0.1711,38.4900,74,96,206352
1.5591,0.1662,38.5800,74,96,206356
1.5543,0.1711,38.6200,74,96,206359
1.5543,0.1711,38.6800,74,96,206362
1.6031,0.1857,38.4300,74,96,206366
1.5787,0.1760,38.5500,74,96,206369
1.6178,0.1613,38.5200,74,96,206372
1.5982,0.1711,38.6200,74,96,206376
1.6129,0.1760,38.5800,74,96,206380
1.6618,0.1760,38.2700,74,96,206383
1.6520,0.1711,38.6200,74,96,206386
1.6764,0.1711,38.5800,74,96,206390
1.6813,0.1760,38.6200,74,96,206393
1.6911,0.1711,38.6200,74,96,206396
1.7498,0.1808,38.5500,74,96,206400
1.7204,0.1711,38.5800,74,96,206403
1.7400,0.1711,38.4900,74,96,206406
1.7107,0.1711,38.5800,74,96,206410
1.7155,0.1711,38.5800,74,96,206413
1.7302,0.1808,38.4600,74,96,206416
1.7302,0.1662,38.5800,74,96,206420
1.7693,0.1711,38.4000,74,96,206424
1.7498,0.1711,38.6200,74,96,206427
1.7644,0.1711,38.7100,74,96,206430
1.7840,0.1760,38.5800,74,96,206434
1.7791,0.1711,38.5200,74,96,206437
1.8280,0.1760,38.3300,74,96,206440
1.7986,0.1711,38.5200,74,96,206444
1.7791,0.1711,37.9900,74,96,206447
1.7840,0.1711,38.5800,74,96,206450
1.7937,0.1711,38.4900,74,96,206454
1.8817,0.1711,38.3600,74,96,206457
1.8377,0.1808,38.5500,74,96,206460
1.8719,0.1662,38.5200,74,96,206465
1.8328,0.1711,38.5800,74,96,206468
1.8182,0.1808,38.6200,74,96,206471
1.8573,0.1808,38.4600,74,96,206475
1.8426,0.1711,38.5500,74,96,206478
1.8475,0.1711,38.4600,74,96,206481
1.8280,0.1711,38.5800,74,96,206484
1.8280,0.1711,38.5800,74,96,206488
1.8426,0.1760,38.5200,74,96,206491
1.8133,0.1613,38.5800,74,96,206494
1.8280,0.1515,38.4900,74,96,206498
1.7889,0.1760,38.5800,74,96,206501
1.7986,0.1711,38.6200,74,96,206504
1.8231,0.1808,38.4900,74,96,206509
1.7937,0.1711,38.4000,74,96,206512
1.8133,0.1711,38.4900,74,96,206515
1.7986,0.1711,38.4900,74,96,206519
1.7986,0.1711,38.5800,74,96,206522
1.8280,0.1515,38.5500,74,96,206525
1.8328,0.1711,38.5800,74,96,206528
1.8915,0.2151,38.3600,74,96,206532
1.8671,0.1711,38.5500,74,96,206535
1.8671,0.1760,38.6200,74,96,206538
1.8964,0.1760,38.5500,74,96,206542
1.8915,0.1711,38.6200,74,96,206545
1.9648,0.1808,38.3300,74,96,206548
1.9355,0.1662,38.5500,74,96,206553
1.9404,0.1662,38.5200,74,96,206556
1.9599,0.1711,38.5800,74,96,206559
1.9697,0.1711,38.6200,74,96,206563
2.0186,0.1857,38.4300,74,96,206566
1.9795,0.1760,38.5500,74,96,206569
1.9697,0.1711,38.4900,74,96,206573
1.9501,0.1760,38.5800,74,96,206576
1.9550,0.1760,38.5800,74,96,206579
1.9746,0.1760,38.4300,74,96,206582
1.9257,0.1760,38.5800,74,96,206586
1.9404,0.1515,38.4600,74,96,206589
1.9110,0.1711,38.5800,74,96,206593
1.9110,0.1613,38.4300,74,96,206597
1.9306,0.1711,38.4900,74,96,206600
1.9062,0.1808,38.6200,74,96,206603
1.9208,0.1613,38.4600,74,96,206607
1.8817,0.1662,38.6800,74,96,206610
1.8964,0.1711,38.6200,74,96,206613
1.8866,0.1711,38.4900,74,96,206616
1.8524,0.1711,38.5800,74,96,206620
1.8719,0.1711,38.3600,74,96,206623
1.8231,0.1662,38.5800,74,96,206626
1.8328,0.1711,38.6500,74,96,206630
1.8866,0.1760,38.5200,74,96,206633
1.8426,0.1711,38.5800,74,96,206637
1.9062,0.1711,38.3000,74,96,206641
1.8573,0.1760,38.4900,74,96,206644
1.8280,0.1662,38.5800,74,96,206647
1.8328,0.1711,38.5800,74,96,206651
1.8328,0.1711,38.5800,74,96,206654
1.8915,0.1857,38.4300,74,96,206657
1.8524,0.1808,38.5500,74,96,206661
1.8524,0.1662,38.5200,74,96,206664
1.8377,0.1711,38.5800,74,96,206667
1.8622,0.1711,38.5800,74,96,206670
1.8524,0.1760,38.5200,74,96,206674
1.8231,0.1760,38.5500,74,96,206678
1.8377,0.1515,38.5200,74,96,206681
1.8133,0.1906,38.5500,74,96,206685
1.8133,0.1711,38.6200,74,96,206688
1.8280,0.1711,38.5200,74,96,206691
1.8231,0.1711,38.5800,74,96,206695
1.8622,0.1711,38.4600,74,96,206698
1.8475,0.1515,38.6500,74,96,206701
1.8622,0.1760,38.5800,74,96,206705
1.8915,0.1760,38.4900,74,96,206708
1.8622,0.1711,38.5800,74,96,206711
1.8964,0.1711,38.4000,74,96,206715
1.8768,0.1711,38.4600,74,96,206718
1.8719,0.1711,38.6200,74,96,206722
1.8671,0.2248,38.5500,74,96,206725
1.8573,0.1711,38.6200,74,96,206729
1.8964,0.1760,38.2700,74,96,206732
1.8524,0.1711,38.5500,74,96,206735
1.8524,0.1662,38.5500,74,96,206739
1.8671,0.1760,38.5800,74,96,206742
1.8573,0.1711,38.6500,74,96,206745
1.9110,0.1857,38.3600,74,96,206749
1.8719,0.1760,38.5200,74,96,206752
1.8671,0.1711,38.5200,74,96,206755
1.8622,0.1711,38.7100,74,96,206759
1.8622,0.1711,38.6200,74,96,206763
1.8866,0.1808,38.4900,74,96,206766
1.8671,0.1760,38.5500,74,96,206770
1.8817,0.1515,38.4900,74,96,206773
1.8622,0.1711,38.5800,74,96,206776
1.8622,0.1515,38.5800,74,96,206779
1.8768,0.1808,38.4600,74,96,206783
1.8377,0.1711,38.6200,74,96,206786
1.8524,0.1760,38.4600,74,96,206789
1.8231,0.1662,38.5500,74,96,206793
1.8182,0.1711,38.7100,74,96,206796
1.8377,0.1711,38.5200,74,96,206799
1.8280,0.1711,38.5200,74,96,206803
1.8475,0.1760,38.4300,74,96,206807
1.8133,0.1711,38.5500,74,96,206810
1.7937,0.1760,38.5800,74,96,206814
1.8133,0.1711,38.5200,74,96,206817
1.7986,0.1711,38.5200,74,96,206820
1.8475,0.1760,38.3600,74,96,206823
1.7986,0.1662,38.5200,74,96,206827
1.7937,0.1662,38.6200,74,96,206830
1.7986,0.1711,38.5500,74,96,206833
1.8280,0.1808,38.6200,74,96,206838
1.8182,0.1711,38.6200,74,96,206841
1.8622,0.1760,38.4300,74,96,206845
1.8182,0.1760,38.5800,74,96,206849
1.8133,0.1711,38.4300,74,96,206852
1.7791,0.1613,38.5800,74,96,206856
1.7840,0.1711,38.6500,74,96,206859
1.8280,0.1662,38.4900,74,96,206862
1.8182,0.1711,38.5800,74,96,206866
1.8573,0.1808,38.4300,74,96,206869
1.8573,0.1662,38.5800,74,96,206872
1.8280,0.1711,38.5800,74,96,206876
1.8328,0.1760,38.4600,74,96,206879
1.8133,0.1711,38.6800,74,96,206882
1.8475,0.1760,38.3600,74,96,206885
1.8231,0.1711,38.5800,74,96,206889
1.8280,0.1760,38.6800,74,96,206893
1.8524,0.1760,38.5500,74,96,206896
1.8280,0.1808,38.6200,74,96,206900
1.8964,0.1857,38.3300,74,96,206903
1.8524,0.1760,38.3600,74,96,206906
1.8426,0.1808,38.5800,74,96,206910
1.8524,0.1711,38.5800,74,96,206913
1.8426,0.1955,38.5800,74,96,206916
1.8866,0.1857,38.3600,74,96,206920
1.8328,0.1857,38.5500,74,96,206923
1.8280,0.1662,38.5200,74,96,206926
1.8133,0.1711,38.5800,74,96,206929
1.8084,0.1711,38.5800,74,96,206934
1.8475,0.1760,38.4600,74,96,206937
1.8182,0.1760,38.6200,74,96,206940
1.8328,0.1760,38.4900,74,96,206944
1.8231,0.1711,38.6200,74,96,206947
1.8280,0.1711,38.6200,74,96,206950
1.8426,0.1760,38.5800,74,96,206954
1.8280,0.1662,38.5800,74,96,206957
1.8524,0.1760,38.4900,74,96,206960
1.8231,0.1662,38.5800,74,96,206964
1.8280,0.1711,38.6200,74,96,206967
1.8524,0.1760,38.4900,74,96,206970
1.8328,0.1711,38.6200,74,96,206974
1.8671,0.1760,38.4000,74,96,206978
1.8524,0.1515,38.5500,74,96,206981
1.8524,0.1760,38.6200,74,96,206984
1.8719,0.1760,38.5500,74,96,206988
1.8573,0.1711,38.5800,74,96,206991
1.8964,0.1760,38.3300,74,96,206994
1.8719,0.1711,38.8700,74,96,206998
1.8719,0.1711,38.5800,74,96,207001
1.8817,0.1760,38.5500,74,96,207004
1.8719,0.1760,38.6200,74,96,207008
1.9159,0.1808,38.3300,74,96,207011
1.8671,0.1662,38.4900,74,96,207014
1.8573,0.1662,38.5500,74,96,207019
1.8524,0.1955,38.5800,74,96,207022
1.8426,0.1711,38.6500,74,96,207025
1.8768,0.1808,38.4600,74,96,207029
1.8377,0.1760,38.5500,74,96,207032
1.8426,0.1711,38.5200,74,96,207035
1.8280,0.1711,38.6200,74,96,207038
1.8280,0.1711,38.6500,74,96,207042
1.8866,0.1808,38.4300,74,96,207045
1.8280,0.1711,38.6200,74,96,207048
1.8524,0.1808,38.4600,74,96,207052
1.8280,0.1662,38.5800,74,96,207055
1.8280,0.1711,38.5500,74,96,207058
1.8426,0.1711,38.4900,74,96,207063
1.8328,0.1711,38.5800,74,96,207066
1.8622,0.1711,38.4300,74,96,207069
1.8280,0.1662,38.5200,74,96,207073
1.8182,0.1662,38.5800,74,96,207076
1.8328,0.1711,38.4300,74,96,207079
1.8231,0.1613,38.6200,74,96,207082
1.8915,0.1711,38.3600,74,96,207086
1.9501,0.1613,38.5500,74,96,207089
2.0039,0.1711,38.6800,74,96,207092
2.1261,0.1711,38.5500,74,96,207096
2.2532,0.1515,38.6200,74,96,207099
2.4438,0.1760,38.3000,74,96,207102
2.5220,0.1711,38.5200,74,96,207107
2.5953,0.1662,38.5500,74,96,207110
2.7077,0.1711,38.5800,74,96,207113
2.8641,0.1711,38.6500,74,96,207117
3.1281,0.1808,38.4000,74,96,207120
3.1134,0.1711,38.5800,74,96,207123
2.9521,0.1662,38.4600,74,96,207126
2.6393,0.1711,38.5800,74,96,207130
2.3069,0.1711,38.5800,74,96,207133
2.0235,0.1857,38.4600,74,96,207136
1.7302,0.1515,38.5500,74,96,207140
1.5445,0.1760,38.4600,74,96,207143
1.4418,0.1613,38.5800,74,96,207147
1.3587,0.1711,38.6500,74,96,207151
1.3587,0.1760,38.5200,74,96,207154
1.3783,0.1711,38.6800,74,96,207157
1.4418,0.1760,38.4600,74,96,207161
1.4712,0.1711,38.6200,74,96,207164
1.5298,0.1662,38.5800,74,96,207167
1.5787,0.1760,38.2700,74,96,207170
1.5689,0.1613,38.5800,74,96,207174
1.5787,0.1711,38.4000,74,96,207177
1.5591,0.1711,38.5200,74,96,207180
1.5689,0.1711,38.5800,74,96,207184
1.5298,0.1857,38.6200,74,96,207187
1.5005,0.1711,38.5800,74,96,207191
1.5396,0.1760,38.3300,74,96,207195
1.5103,0.1662,38.5200,74,96,207198
1.5200,0.1760,38.6200,74,96,207201
1.5445,0.1711,38.0200,74,96,207205
1.5543,0.1613,38.6200,74,96,207208
1.6129,0.1857,38.3600,74,96,207211
1.6129,0.1711,38.4900,74,96,207215
1.5934,0.1662,38.9000,74,96,207218
1.6325,0.1711,38.5500,74,96,207221
1.6129,0.1711,38.5200,74,96,207224
1.6618,0.1760,38.4600,74,96,207228
1.6471,0.1711,38.6200,74,96,207232
1.6618,0.1662,38.4600,74,96,207235
1.6520,0.1711,38.4900,74,96,207239
1.6618,0.1857,38.6200,74,96,207242
1.7107,0.1808,38.4600,74,96,207245
1.6911,0.1662,38.6200,74,96,207249
1.7302,0.1760,38.4600,74,96,207252
1.7107,0.1613,38.5800,74,96,207255
1.7155,0.1564,38.5800,74,96,207259
1.7400,0.1760,38.5200,74,96,207262
1.7302,0.1760,38.6200,74,96,207265
1.7644,0.1760,38.4300,74,96,207268
1.7400,0.1711,38.5200,74,96,207272
1.7400,0.1760,38.5800,74,96,207276
1.7595,0.1711,38.4600,74,96,207279
1.7449,0.1711,38.5800,74,96,207283
1.7889,0.1711,38.3300,74,96,207286
1.7889,0.1613,38.5500,74,96,207289
1.7742,0.1711,38.6200,74,96,207293
1.7937,0.1760,38.5500,74,96,207296
1.7791,0.1711,38.5200,74,96,207299
1.8377,0.1857,38.3300,74,96,207303
1.7889,0.1711,38.5200,74,96,207306
1.7742,0.1711,38.5200,74,96,207309
1.7693,0.1711,38.5500,74,96,207313
1.7644,0.1711,38.5800,74,96,207316
1.8084,0.1857,38.3600,74,96,207320
1.7693,0.1760,38.5800,74,96,207323
1.7742,0.1711,38.5500,74,96,207327
1.7595,0.1760,38.5800,74,96,207330
1.7546,0.1515,38.6200,74,96,207333
1.7644,0.1808,38.4600,74,96,207337
1.7400,0.1711,38.5800,74,96,207340
1.7595,0.1760,38.4300,74,96,207343
1.7302,0.1613,38.5800,74,96,207347
1.7302,0.1711,38.5800,74,96,207350
1.7351,0.1711,38.4900,74,96,207353
1.7204,0.1711,38.5800,74,96,207357
1.7595,0.1515,38.4300,74,96,207361
1.7693,0.1613,38.6200,74,96,207364
1.7546,0.1711,38.6500,74,96,207367
1.8084,0.1711,38.4900,74,96,207371
1.7693,0.1711,38.5800,74,96,207374
1.8231,0.1808,38.3600,74,96,207377
1.8133,0.1760,38.5200,74,96,207381
1.8133,0.1906,38.6200,74,96,207384
1.8475,0.1711,38.4300,74,96,207387
1.8573,0.1662,38.5800,74,96,207391
1.9306,0.1760,38.3000,74,96,207394
1.9062,0.2199,38.5200,74,96,207397
1.9062,0.1613,38.5500,74,96,207401
1.9257,0.1711,38.6200,74,96,207405
1.9159,0.1760,38.6800,74,96,207408
1.9746,0.1857,38.3600,74,96,207411
1.9355,0.1760,38.5200,74,96,207415
1.9257,0.1613,38.4900,74,96,207418
1.9208,0.1711,38.5800,74,96,207421
1.9159,0.1711,38.6200,74,96,207425
1.9453,0.1857,38.5500,74,96,207428
1.9159,0.1711,38.5800,74,96,207431
1.9257,0.1711,38.4600,74,96,207435
1.8964,0.1515,38.7100,74,96,207438
1.8866,0.1857,38.6200,74,96,207441
1.9159,0.1808,38.4600,74,96,207446
1.8719,0.1760,38.5500,74,96,207450
1.8524,0.1955,38.5800,74,96,207454
1.9110,0.1711,38.3300,74,96,207457
1.8475,0.1711,38.5200,74,96,207460
1.8280,0.1711,38.6200,74,96,207464
1.8475,0.1760,38.5500,74,96,207467
1.8475,0.1613,38.5800,74,96,207470
1.8915,0.1808,38.3000,74,96,207474
1.8573,0.1857,38.4900,74,96,207477
1.8524,0.1662,38.5500,74,96,207480
1.8475,0.1711,38.5500,74,96,207483
1.8328,0.1711,38.5800,74,96,207488
1.8719,0.1808,38.4600,74,96,207491
1.8426,0.1711,38.5500,74,96,207494
1.8524,0.1808,38.5500,74,96,207498
1.8231,0.1515,38.5800,74,96,207501
1.8182,0.1711,38.5800,74,96,207504
1.8426,0.1760,38.4600,74,96,207508
1.8231,0.1613,38.5800,74,96,207511
1.8426,0.1760,38.4900,74,96,207514
1.8231,0.1760,38.5800,74,96,207518
1.8182,0.1711,38.6200,74,96,207521
1.8328,0.1711,38.5200,74,96,207524
1.8182,0.1711,38.5800,74,96,207528
1.8377,0.1711,38.4000,74,96,207532
1.8182,0.1662,38.5500,74,96,207535
1.8280,0.1711,38.5800,74,96,207538
1.8475,0.1760,38.4900,74,96,207542
1.8377,0.1711,38.6200,74,96,207545
1.8719,0.1760,38.3600,74,96,207548
1.8426,0.1662,38.5500,74,96,207552
1.8426,0.1711,38.5800,74,96,207555
1.8475,0.1711,38.5800,74,96,207558
1.8280,0.1662,38.6200,74,96,207562
1.8719,0.1808,38.3000,74,96,207565
1.8328,0.1711,38.6200,74,96,207568
1.8182,0.1808,38.5500,74,96,207572
1.8231,0.1711,38.5200,74,96,207576
1.8133,0.1662,38.5800,74,96,207579
1.8573,0.1515,38.4300,74,96,207582
1.8182,0.1711,38.5500,74,96,207586
1.8328,0.1662,38.4900,74,96,207589
1.8328,0.1711,38.4900,74,96,207592
1.8719,0.1613,38.5800,74,96,207596
1.8768,0.1760,38.4600,74,96,207599
1.8524,0.1760,38.5500,74,96,207602
1.8622,0.1515,38.4600,74,96,207606
1.8475,0.1711,38.5800,74,96,207609
1.8426,0.1515,38.6200,74,96,207612
1.8475,0.2053,38.4900,74,96,207617
1.8182,0.1711,38.5800,74,96,207620
1.8475,0.1711,38.4000,74,96,207623
1.8182,0.1711,38.5800,74,96,207627
1.8182,0.1711,38.5800,74,96,207630
1.8475,0.1711,38.4900,74,96,207633
1.8280,0.1857,38.5800,74,96,207636
1.8768,0.1760,38.3600,74,96,207640
1.8426,0.1760,38.3600,74,96,207643
1.8475,0.1760,38.6800,74,96,207646
1.8182,0.1711,38.5500,74,96,207650
1.8035,0.1613,38.6200,74,96,207653
1.8426,0.1760,38.3600,74,96,207656
1.8231,0.1711,38.5200,74,96,207661
1.7937,0.1515,38.5800,74,96,207664
1.7986,0.1760,38.5500,74,96,207667
1.7986,0.1711,38.5800,74,96,207671
1.8524,0.1857,38.4300,74,96,207674
1.8182,0.1711,38.5500,74,96,207677
1.8133,0.1662,38.5200,74,96,207680
1.7986,0.1760,38.6200,74,96,207684
1.7937,0.1711,38.7100,74,96,207687
1.8426,0.1711,38.5200,74,96,207690
1.8084,0.1711,38.5500,74,96,207694
1.8182,0.1808,38.4600,74,96,207697
1.7937,0.1711,38.6500,74,96,207700
1.7889,0.1711,38.5800,74,96,207705
1.8231,0.1808,38.6500,74,96,207708
1.7986,0.1711,38.6200,74,96,207711
1.8231,0.1711,38.4600,74,96,207715
1.8133,0.1613,38.5200,74,96,207718
1.7840,0.1515,38.6500,74,96,207721
1.7889,0.1760,38.5200,74,96,207725
1.7986,0.1515,38.5800,74,96,207728
1.8328,0.1711,38.3600,74,96,207731
1.8084,0.1711,38.5200,74,96,207734
1.7986,0.1711,38.5800,74,96,207738
1.8084,0.1711,38.5200,74,96,207741
1.7937,0.1711,38.4000,74,96,207745
1.8377,0.1760,38.3000,74,96,207749
1.8084,0.1662,38.4900,74,96,207752
1.8084,0.1711,38.7100,74,96,207755
1.8133,0.1760,38.5500,74,96,207759
1.8035,0.1711,38.6500,74,96,207762
1.8622,0.1857,38.3600,74,96,207765
1.8328,0.1760,38.5500,74,96,207769
1.8328,0.1662,38.5200,74,96,207772
1.8426,0.1711,38.6800,74,96,207775
1.8475,0.1808,38.6200,74,96,207778
1.8866,0.1711,38.4300,74,96,207782
1.8475,0.1613,38.6200,74,96,207785
1.8573,0.1711,38.4900,74,96,207789
1.8377,0.1711,38.4900,74,96,207793
1.8719,0.1662,38.6200,74,96,207796
1.8622,0.1760,38.4900,74,96,207799
1.8671,0.1760,38.5800,74,96,207803
1.8524,0.1760,38.4600,74,96,207806
1.8328,0.1711,38.5800,74,96,207809
1.8328,0.1711,38.5800,74,96,207813
1.8475,0.1711,38.4900,74,96,207816
1.8377,0.1711,38.5800,74,96,207819
1.8524,0.1662,37.8700,74,96,207822
1.8280,0.1613,38.5800,74,96,207826
1.8328,0.1711,38.6500,74,96,207830
1.8573,0.1760,38.5200,74,96,207833
1.8182,0.1711,38.6200,74,96,207837
1.8866,0.1711,38.3300,74,96,207840
1.8231,0.1760,38.4900,74,96,207843
1.8084,0.1760,38.6200,74,96,207847
1.8231,0.1515,38.5800,74,96,207850
1.8182,0.1955,38.6200,74,96,207853
1.8719,0.1808,38.3300,74,96,207857
1.8328,0.1760,38.5200,74,96,207860
1.8182,0.1662,38.5500,74,96,207863
1.8231,0.1955,38.5800,74,96,207867
1.8231,0.1613,38.5800,74,96,207870
1.8671,0.1808,38.4300,74,96,207874
1.8328,0.1760,38.5500,74,96,207877
1.8377,0.1711,38.4900,74,96,207881
1.8231,0.1711,38.6200,74,96,207884
1.8280,0.1711,38.6200,74,96,207887
1.8622,0.1857,38.5200,74,96,207891
1.8475,0.1711,38.5800,74,96,207894
1.8622,0.1711,38.4300,74,96,207897
1.8231,0.1662,38.4000,74,96,207901
1.8084,0.1711,38.5500,74,96,207904
1.8280,0.1760,38.4600,74,96,207907
1.8084,0.1711,38.5800,74,96,207911
1.8426,0.1662,38.4300,74,96,207915
1.8768,0.1711,38.5500,74,96,207918
1.9648,0.1808,38.6200,74,96,207922
2.0968,0.1711,38.5200,74,96,207925
2.1994,0.1711,38.5800,74,96,207928
2.3558,0.1760,38.3600,74,96,207931
2.4047,0.1760,38.5500,74,96,207935
2.4585,0.1711,38.8400,74,96,207938
2.5758,0.1711,38.5500,74,96,207941
2.6295,0.1662,38.8100,74,96,207945
2.8397,0.1857,38.3300,74,96,207948
2.9130,0.1711,38.5200,74,96,207951
2.8983,0.1613,38.5800,74,96,207955
2.7322,0.1711,38.6500,74,96,207959
2.4194,0.1760,38.5800,74,96,207962
2.1359,0.1857,38.4000,74,96,207966
1.7840,0.1857,38.5500,74,96,207969
1.5738,0.1662,38.4900,74,96,207972
1.4614,0.1711,38.5500,74,96,207975
1.4076,0.1711,38.5800,74,96,207979
1.4370,0.1760,38.4300,74,96,207982
1.4467,0.1711,38.5800,74,96,207985
1.5152,0.1711,38.4600,74,96,207989
1.5689,0.1711,38.6200,74,96,207992
1.6373,0.1906,38.6200,74,96,207995
1.6960,0.1711,38.4900,74,96,208000
1.6911,0.1711,38.5800,74,96,208003
1.7058,0.1760,38.4600,74,96,208006
1.6667,0.1760,38.5800,74,96,208010
1.6373,0.1711,38.5800,74,96,208013
1.6276,0.1760,38.5500,74,96,208016
1.6031,0.1711,38.5800,74,96,208019
1.6227,0.1711,38.4000,74,96,208023
1.6080,0.1711,38.6200,74,96,208026
1.6080,0.1711,38.5800,74,96,208029
1.6227,0.1760,38.5200,74,96,208033
1.6129,0.1711,38.5800,74,96,208036
1.6520,0.1760,38.3000,74,96,208039
1.6471,0.1711,38.5200,74,96,208044
1.6080,0.1711,38.7100,74,96,208047
1.6178,0.1760,38.5500,74,96,208050
1.6276,0.1515,38.6200,74,96,208054
1.6813,0.1760,38.3300,74,96,208057
1.7058,0.1711,38.4300,73,96,208061
1.6862,0.1711,38.5500,73,96,208064
1.6960,0.1711,38.4900,73,96,208067
1.6764,0.1760,38.5800,73,96,208070
1.6911,0.1711,38.5800,73,96,208074
1.7449,0.1613,38.5200,73,96,208077
1.7155,0.1711,38.5800,73,96,208080
1.7498,0.1711,38.4300,73,96,208084
1.7400,0.1711,38.6500,73,96,208088
1.7546,0.1760,38.5800,73,96,208091
1.7889,0.1515,38.4900,73,96,208095
1.7791,0.1613,38.6200,73,96,208098
1.8182,0.1711,38.4000,73,96,208101
1.8084,0.1711,38.6500,73,96,208105
1.8084,0.1613,38.6200,73,96,208108
1.8182,0.1760,38.5200,73,96,208111
1.8133,0.1808,38.5800,73,96,208114
1.8622,0.1760,38.3300,73,96,208118
1.8377,0.1808,38.5500,73,96,208121
1.8328,0.1760,38.6200,73,96,208124
1.8426,0.1662,38.4900,73,96,208129
1.8328,0.1760,38.5800,73,96,208132
1.8817,0.1760,38.3000,73,96,208135
1.8475,0.1808,38.4900,73,96,208139
1.8328,0.1711,38.5500,73,96,208142
1.8328,0.1711,38.6200,73,96,208145
1.8280,0.1613,38.5800,73,96,208149
1.8671,0.1808,38.7700,73,96,208152
1.8328,0.2053,38.5500,73,96,208155
1.8426,0.1711,38.4900,73,96,208158
1.8133,0.1711,38.6200,73,96,208162
1.8035,0.1711,38.6200,73,96,208165
1.8182,0.1760,38.4000,73,96,208168
1.7840,0.1711,38.5800,73,96,208173
1.7937,0.1760,38.5500,73,96,208176
1.7742,0.1662,38.5800,73,96,208179
1.7791,0.1711,38.6200,73,96,208183
1.8084,0.1760,38.5200,73,96,208186
1.7889,0.1711,38.5800,73,96,208189
1.8280,0.1711,38.4300,73,96,208193
1.8182,0.1662,38.5500,73,96,208196
1.8377,0.1711,38.5500,73,96,208199
1.8817,0.1760,38.4900,73,96,208202
1.8768,0.1711,38.6200,73,96,208206
1.9208,0.1760,38.3300,73,96,208209
1.8964,0.1662,38.5800,73,96,208212
1.9013,0.1711,38.6500,73,96,208217
1.9257,0.1808,38.5500,73,96,208220
1.9110,0.1515,38.5800,73,96,208223
1.9648,0.1760,38.3000,73,96,208227
1.9257,0.1711,38.5200,73,96,208230
1.9110,0.1711,38.8400,73,96,208233
1.9159,0.1515,38.5500,73,96,208237
1.9110,0.1711,38.5800,73,96,208240
1.9990,0.1711,38.4300,73,96,208243
1.9208,0.1711,38.5500,73,96,208246
1.9208,0.1955,38.4900,73,96,208250
1.9110,0.1760,38.5800,73,96,208253
1.9062,0.1711,38.5800,73,96,208257
1.9453,0.1808,38.5200,73,96,208261
1.9062,0.1760,38.5500,73,96,208264
1.9159,0.1711,38.4600,73,96,208267
1.8915,0.1760,38.5800,73,96,208271
1.8817,0.1711,38.6500,73,96,208274
1.8964,0.1711,38.5500,73,96,208277
1.8719,0.1711,38.6500,73,96,208281
1.8866,0.1760,38.4900,73,96,208284
1.8475,0.1711,38.6200,73,96,208287
1.8377,0.1711,38.6200,73,96,208290
1.8671,0.1760,38.4600,73,96,208294
1.8426,0.1808,38.5800,73,96,208297
1.8866,0.1760,38.4300,73,96,208301
1.8573,0.1711,38.4900,73,96,208305
1.8426,0.1760,38.5800,73,96,208308
1.8573,0.1760,38.6200,73,96,208311
1.8426,0.1857,38.6200,73,96,208315
1.8866,0.1711,38.3300,73,96,208318
1.8475,0.1760,38.5200,73,96,208321
1.8377,0.1760,38.6200,73,96,208325
1.8377,0.1760,38.3600,73,96,208328
1.8182,0.1613,38.6200,73,96,208331
1.8768,0.1808,38.3000,73,96,208334
1.8426,0.1711,38.5200,73,96,208338
1.8475,0.1613,38.5500,73,96,208342
1.8377,0.1711,38.6200,73,96,208345
1.8280,0.1711,38.5800,73,96,208349
1.8622,0.1857,38.4900,73,96,208352
1.8671,0.1760,38.5500,73,96,208355
1.8231,0.1711,38.4900,73,96,208359
1.8084,0.1760,38.5800,73,96,208362
1.8133,0.1711,38.6200,73,96,208365
1.8475,0.1760,38.4300,73,96,208369
1.8231,0.1711,38.7100,73,96,208372
1.8524,0.1857,38.4600,73,96,208375
1.8426,0.1711,38.5800,73,96,208379
1.8475,0.1711,38.5800,73,96,208382
1.8719,0.1760,38.4900,73,96,208386
1.8524,0.1711,38.6500,73,96,208389
1.8671,0.1760,38.4000,73,96,208393
1.8524,0.1711,38.5500,73,96,208396
1.8622,0.1711,38.6200,73,96,208399
1.8719,0.1711,38.5800,73,96,208403
1.8475,0.1662,38.6200,73,96,208406
1.8817,0.1711,38.3600,73,96,208409
1.8475,0.1613,38.5800,73,96,208413
1.8426,0.1711,38.5800,73,96,208416
1.8671,0.1906,38.5500,73,96,208419
1.8524,0.1515,38.6500,73,96,208423
1.8915,0.1711,38.1800,73,96,208427
1.8475,0.1760,38.4900,73,96,208430
1.8231,0.1662,38.6500,73,96,208433
1.8280,0.1760,38.5800,73,96,208437
1.8280,0.1711,38.6200,73,96,208440
1.8817,0.1857,38.4000,73,96,208443
1.8377,0.1760,38.5500,73,96,208447
1.8328,0.1662,38.4900,73,96,208450
1.8231,0.1906,38.6200,73,96,208453
1.8280,0.1760,38.6200,73,96,208457
1.8573,0.1760,38.4900,73,96,208460
1.8377,0.1662,38.5500,73,96,208463
1.8475,0.1711,38.4600,73,96,208467
1.8231,0.1760,38.6200,73,96,208471
1.8231,0.1711,38.6200,73,96,208474
1.8377,0.1760,38.5500,73,96,208477
1.8280,0.1711,38.5800,73,96,208481
1.8573,0.1760,38.4900,73,96,208484
1.8280,0.1711,38.5800,73,96,208487
1.8280,0.1711,38.6200,73,96,208491
1.8573,0.1662,38.4900,73,96,208494
1.8328,0.1711,38.6200,73,96,208497
1.8719,0.1662,38.4000,73,96,208501
1.8573,0.1711,38.4900,73,96,208504
1.8475,0.1711,38.5800,73,96,208507
1.8573,0.1760,38.5500,73,96,208512
1.8426,0.1711,38.2100,73,96,208515
1.8866,0.1808,38.3300,73,96,208518
1.8475,0.1711,38.5500,73,96,208521
1.8377,0.1760,38.6200,73,96,208525
1.8524,0.1711,38.5500,73,96,208528
1.8377,0.1711,38.6200,73,96,208531
1.8866,0.1857,38.4000,73,96,208535
1.8524,0.1711,38.4900,73,96,208538
1.8475,0.1662,38.5200,73,96,208541
1.8426,0.1711,38.6800,73,96,208545
1.8231,0.1515,38.6200,73,96,208548
1.8671,0.1906,38.4600,73,96,208551
1.8377,0.1711,38.5500,73,96,208556
1.8475,0.1711,38.4600,73,96,208559
1.8280,0.1711,38.6800,73,96,208562
1.8231,0.1955,38.4000,73,96,208566
1.8573,0.1760,38.4300,73,96,208569
1.8084,0.1711,38.5500,73,96,208572
1.8280,0.1808,38.4900,73,96,208575
1.8084,0.1613,38.5800,73,96,208579
1.8035,0.1711,38.6200,73,96,208582
1.8426,0.1760,38.5200,73,96,208585
1.8133,0.1711,38.6200,73,96,208589
1.8328,0.1711,38.4000,73,96,208592
1.8133,0.1515,38.5500,73,96,208595
1.8231,0.1662,38.6200,73,96,208600
1.8426,0.1760,38.4900,73,96,208603
1.8231,0.1711,38.5500,73,96,208606
1.8719,0.1711,38.3600,73,96,208610
1.8377,0.1662,38.5200,73,96,208613
1.8377,0.1662,38.6200,73,96,208616
1.8573,0.1760,38.5800,73,96,208619
1.8475,0.1711,38.6200,73,96,208623
1.8964,0.1808,38.3600,73,96,208626
1.8915,0.1760,38.4900,73,96,208629
1.8524,0.1662,38.6200,73,96,208633
1.8671,0.1711,38.5800,73,96,208636
1.8671,0.1711,38.6500,73,96,208640
1.9110,0.1760,38.4300,73,96,208644
1.8671,0.1711,38.6200,73,96,208647
1.8671,0.2053,38.4900,73,96,208650
1.8524,0.1711,38.6200,73,96,208654
1.8426,0.1906,38.5800,73,96,208657
1.8768,0.1760,38.4600,73,96,208660
1.8524,0.1711,38.7100,73,96,208663
1.8671,0.1760,38.4600,73,96,208667
1.8426,0.1711,38.7400,73,96,208670
1.8328,0.1760,38.6200,73,96,208674
1.8328,0.1711,38.5800,73,96,208677
1.8426,0.1760,38.5200,73,96,208680
1.8328,0.1711,38.5800,73,96,208685
1.8817,0.1808,38.3300,73,96,208688
1.8622,0.1711,38.5200,73,96,208691
1.8377,0.1711,38.5200,73,96,208695
1.8377,0.1711,38.5800,73,96,208698
1.8231,0.1711,38.5800,73,96,208701
1.8817,0.1857,38.4000,73,96,208705
1.8475,0.1760,38.5800,73,96,208708
1.8671,0.1613,38.5200,73,96,208711
1.8524,0.1711,38.4900,73,96,208715
1.8426,0.1760,38.5800,73,96,208718
1.8866,0.1760,38.4600,73,96,208721
1.8719,0.2004,38.6200,73,96,208726
1.9110,0.1711,38.4900,73,96,208729
1.8719,0.1711,38.6800,73,96,208732
1.8719,0.1711,38.5800,73,96,208735
1.8817,0.1760,37.7700,73,96,208739
1.8573,0.1711,38.5800,73,96,208742
1.8817,0.1760,38.5500,73,96,208745
1.8573,0.1613,38.5800,73,96,208749
1.8524,0.1711,38.5800,73,96,208752
1.8866,0.2053,38.5500,73,96,208755
1.8768,0.1711,38.6200,73,96,208759
1.9110,0.1711,38.4000,73,96,208762
1.8866,0.1613,38.4900,73,96,208765
1.8622,0.1711,38.6200,73,96,208770
1.8671,0.1857,38.5200,73,96,208773
1.8622,0.1711,38.5800,73,96,208776
1.9501,0.1955,38.3600,73,96,208779
2.0039,0.1711,38.5200,73,96,208783
2.0919,0.1711,38.5800,73,96,208786
2.2336,0.1808,38.5500,73,96,208789
2.3412,0.1711,38.6200,73,96,208793
2.5122,0.2053,38.3000,73,96,208796
2.5611,0.1515,38.4900,73,96,208799
2.6344,0.1760,38.5500,73,96,208803
2.7615,0.1711,38.5800,73,96,208806
2.9130,0.1711,38.6200,73,96,208809
3.1329,0.1857,38.4300,73,96,208814
2.9863,0.1711,38.6500,73,96,208817
2.7517,0.1955,38.5200,73,96,208820
2.4389,0.1711,38.5800,73,96,208823
2.1065,0.1711,38.6500,73,96,208827
1.8719,0.1711,38.4300,73,96,208830
1.6276,0.1711,38.6200,73,96,208833
1.5494,0.1760,38.4600,73,96,208837
1.4907,0.1711,38.4600,73,96,208840
1.4858,0.1760,38.5800,73,96,208843
1.5200,0.1760,38.5200,73,96,208847
1.5396,0.1711,38.4600,73,96,208850
1.6178,0.1662,38.4600,73,96,208854
1.6373,0.1662,37.8300,73,96,208858
1.6667,0.1613,38.6200,73,96,208861
1.6813,0.1760,38.4900,73,96,208864
1.6471,0.1955,38.5800,73,96,208867
1.6618,0.1760,38.4000,73,96,208871
1.5934,0.1711,38.4900,73,96,208874
1.5982,0.1711,38.6200,73,96,208877
1.5836,0.1760,38.5500,73,96,208881
1.5640,0.1711,38.5800,73,96,208884
1.6031,0.1760,38.2400,73,96,208887
1.5689,0.1760,38.5200,73,96,208891
1.5640,0.1711,38.6200,73,96,208894
1.5787,0.1808,38.5800,73,96,208898
1.6031,0.1711,38.6200,73,96,208902
1.6764,0.1857,37.6200,73,96,208905
1.6520,0.1711,38.5200,73,96,208908
1.6422,0.1662,38.5200,73,96,208911
1.6276,0.1711,38.5800,73,96,208915
1.6227,0.1711,38.5800,73,96,208918
1.6813,0.1857,38.3600,73,96,208921
1.6618,0.1711,38.5500,73,96,208925
1.6667,0.1711,38.6500,73,96,208928
1.6764,0.1711,38.5800,73,96,208931
1.6618,0.1711,38.6500,73,96,208935
1.6862,0.1711,38.5800,73,96,208939
1.6911,0.1711,38.6200,73,96,208942
1.7693,0.1711,38.4900,73,96,208946
1.7253,0.1662,38.5800,73,96,208949
1.7351,0.1711,38.6200,73,96,208952
1.7644,0.2053,38.4900,73,96,208956
1.7351,0.1711,38.5800,73,96,208959
1.7693,0.1711,38.4000,73,96,208962
1.7498,0.1760,38.4900,73,96,208965
1.7546,0.1662,38.5800,73,96,208969
1.7889,0.1760,38.5200,73,96,208972
1.7889,0.1711,38.6200,73,96,208975
1.8328,0.1711,38.3300,73,96,208979
1.8035,0.1515,38.5200,73,96,208983
1.7986,0.1711,38.6200,73,96,208986
1.8182,0.1711,38.5500,73,96,208990
1.8035,0.1711,38.5500,73,96,208993
1.8524,0.1808,38.3000,73,96,208996
1.8133,0.1711,38.5200,73,96,209000
1.8035,0.1760,38.6200,73,96,209003
1.8182,0.1515,38.5800,73,96,209006
1.8133,0.1662,38.5500,73,96,209009
1.8524,0.1808,38.4600,73,96,209013
1.8328,0.1760,38.5500,73,96,209016
1.8280,0.1760,38.4900,73,96,209019
1.8231,0.1711,38.6200,73,96,209024
1.8182,0.1662,38.6200,73,96,209027
1.8426,0.1760,38.4300,73,96,209030
1.8084,0.1760,38.5800,73,96,209034
1.8133,0.1760,38.4900,73,96,209037
1.7840,0.1760,38.6500,73,96,209040
1.7889,0.1662,38.6200,73,96,209044
1.8133,0.1760,38.4900,73,96,209047
1.7986,0.1760,38.5800,73,96,209050
1.8280,0.1711,38.4300,73,96,209053
1.8133,0.1662,38.5500,73,96,209057
1.8280,0.1760,38.6200,73,96,209060
1.8622,0.1711,38.4900,73,96,209063
1.8671,0.1711,38.5800,73,96,209068
1.9062,0.1760,38.4000,73,96,209071
1.8817,0.1711,38.5200,73,96,209074
1.8964,0.1711,38.5800,73,96,209078
1.9355,0.1760,38.6500,73,96,209081
1.9453,0.1760,38.6200,73,96,209084
1.9990,0.1760,38.3300,73,96,209088
1.9697,0.1955,38.4900,73,96,209091
1.9746,0.1613,38.5800,73,96,209094
1.9599,0.1760,38.6200,73,96,209097
1.9501,0.1662,38.6200,73,96,209101
2.0039,0.1857,38.5200,73,96,209104
1.9550,0.1760,38.5500,73,96,209107
1.9306,0.1662,38.5200,73,96,209112
1.9208,0.1711,38.5500,73,96,209115
1.9062,0.1711,38.6200,73,96,209118
1.9404,0.1808,38.4300,73,96,209122
1.9159,0.1760,38.5500,73,96,209125
1.9208,0.1711,38.4900,73,96,209128
1.9013,0.1711,38.6800,73,96,209132
1.8866,0.1711,38.6200,73,96,209135
1.8964,0.1760,38.4300,73,96,209138
1.9062,0.1613,38.5800,73,96,209141
1.8915,0.1808,38.4900,73,96,209145
1.8915,0.1760,38.6800,73,96,209148
1.8475,0.1711,38.6200,73,96,209152
1.8671,0.1808,38.4600,73,96,209156
1.8328,0.1711,38.6500,73,96,209159
1.8719,0.1760,38.4000,73,96,209162
1.8671,0.1711,38.5500,73,96,209166
1.8622,0.1711,38.5200,73,96,209169
1.8719,0.1711,38.5500,73,96,209172
1.8475,0.1711,38.5800,73,96,209176
1.8719,0.1711,38.3300,73,96,209179
1.8475,0.1613,38.5200,73,96,209182
1.8719,0.1662,38.5800,73,96,209185
1.8524,0.1760,38.4900,73,96,209189
1.8328,0.1711,38.6200,73,96,209192
1.8768,0.1760,38.3000,73,96,209196
1.8377,0.1906,38.4600,73,96,209200
1.8377,0.1662,38.5500,73,96,209203
1.8524,0.1711,38.6500,73,96,209206
1.8573,0.1711,38.6200,73,96,209210
1.9013,0.2053,38.4300,73,96,209213
1.8671,0.1711,38.5500,73,96,209216
1.8573,0.1711,38.8700,73,96,209220
1.8426,0.1711,38.5800,73,96,209223
1.8377,0.1808,38.6200,73,96,209226
1.8817,0.1760,38.4300,73,96,209230
1.8475,0.1711,38.5800,73,96,209233
1.8768,0.1760,38.4600,73,96,209236
1.8328,0.1711,37.8300,73,96,209240
1.8280,0.1711,38.5800,73,96,209244
1.8524,0.1760,38.1800,73,96,209247
1.8328,0.1760,38.6800,73,96,209250
1.8524,0.1711,38.4300,73,96,209254
1.8377,0.1711,38.5200,73,96,209257
1.8426,0.1711,38.6200,73,96,209260
1.8573,0.1662,38.4900,73,96,209264
1.8377,0.1760,38.5800,73,96,209267
1.8671,0.1760,38.3600,73,96,209270
1.8231,0.1662,38.5500,73,96,209274
1.8182,0.1711,38.6200,73,96,209277
1.8328,0.1760,38.5500,73,96,209281
1.8231,0.1711,38.5800,73,96,209285
1.8280,0.1711,38.6200,73,96,209288
1.8866,0.1760,38.1100,73,96,209292
1.8671,0.1711,38.5800,73,96,209295
1.8524,0.1711,38.4600,73,96,209298
1.8231,0.1711,38.5500,73,96,209301
1.8084,0.1711,38.6200,73,96,209305
1.8377,0.1760,38.4600,73,96,209308
1.8231,0.1760,38.5800,73,96,209311
1.8426,0.1760,38.4900,73,96,209315
1.8133,0.1711,38.5800,73,96,209318
1.8084,0.1760,38.5800,73,96,209321
1.8280,0.1711,38.4000,73,96,209326
1.8182,0.1662,38.6200,73,96,209329
1.8426,0.1711,38.4300,73,96,209332
1.8182,0.1613,38.6200,73,96,209336
1.8182,0.1515,38.6200,73,96,209339
1.8377,0.1760,38.5500,73,96,209342
1.8133,0.1711,38.5800,73,96,209345
1.8573,0.1955,38.3300,73,96,209349
1.8377,0.1711,38.4900,73,96,209352
1.8231,0.1711,38.4900,73,96,209355
1.8328,0.1711,38.5800,73,96,209359
1.8280,0.1662,38.5800,73,96,209362
1.8866,0.1711,38.3000,73,96,209366
1.8475,0.2004,38.5200,73,96,209370
1.8377,0.1711,38.5800,73,96,209373
1.8475,0.1711,38.6200,73,96,209376
1.8328,0.1760,38.6500,73,96,209380
1.8719,0.1857,38.5200,73,96,209383
1.8524,0.1760,38.5500,73,96,209386
1.8426,0.1711,38.5500,73,96,209390
1.8328,0.1760,38.6200,73,96,209393
1.8426,0.1711,38.6500,73,96,209396
1.8915,0.1711,38.5500,73,96,209399
1.8426,0.1711,38.5800,73,96,209403
1.8524,0.1857,38.4600,73,96,209406
1.8231,0.1711,38.7100,73,96,209410
1.8231,0.1711,38.6200,73,96,209414
1.8524,0.1760,38.4000,73,96,209417
1.8524,0.1711,38.5800,73,96,209420
1.8524,0.1515,38.4300,73,96,209424
1.8377,0.1662,38.5500,73,96,209427
1.8328,0.1711,38.5800,73,96,209430
1.8475,0.1760,38.4900,73,96,209434
1.8328,0.1711,38.6200,73,96,209437
1.8719,0.1760,38.3300,73,96,209440
1.8426,0.1711,38.5500,73,96,209444
1.8377,0.1711,38.6200,73,96,209447
1.8573,0.1760,38.5500,73,96,209451
1.8328,0.1711,38.6200,73,96,209454
1.8768,0.1760,38.3300,73,96,209458
1.8328,0.1711,38.4600,73,96,209461
1.8231,0.1711,38.5500,73,96,209464
1.8280,0.1711,38.6200,73,96,209468
1.8231,0.1711,38.6200,73,96,209471
1.8817,0.1808,38.4000,73,96,209474
1.8426,0.1808,38.5200,73,96,209478
1.8377,0.1711,38.4900,73,96,209481
1.8231,0.1906,38.5800,73,96,209484
1.8231,0.1711,38.6200,73,96,209488
1.8622,0.1906,38.4300,73,96,209491
1.8328,0.1515,38.5800,73,96,209495
1.8524,0.1711,38.5200,73,96,209499
1.8231,0.1613,38.6200,73,96,209502
1.8231,0.1711,38.8100,73,96,209505
1.8475,0.1711,38.5200,73,96,209508
1.8280,0.1711,38.6200,73,96,209512
1.8573,0.1613,38.4600,73,96,209515
1.8280,0.1662,38.5800,73,96,209518
1.8280,0.1760,38.6800,73,96,209522
1.8426,0.1515,38.4900,73,96,209525
1.8280,0.1613,38.5800,73,96,209528
1.8671,0.1711,38.3600,73,96,209532
1.8671,0.1662,38.5800,73,96,209536
1.8328,0.1711,38.5800,73,96,209539
1.8475,0.1760,38.5500,73,96,209543
1.8328,0.1711,38.5500,73,96,209546
1.9013,0.1808,38.3000,73,96,209549
1.8524,0.1760,38.5200,73,96,209553
1.8377,0.1662,38.5500,73,96,209556
1.8377,0.1711,38.5800,73,96,209559
1.8328,0.1662,38.5800,73,96,209562
1.9110,0.1808,38.4300,73,96,209566
1.9159,0.1711,38.6200,73,96,209569
1.9941,0.1760,38.4900,73,96,209572
2.0968,0.1711,38.5800,73,96,209576
2.2190,0.1711,38.6200,73,96,209580
2.3754,0.1711,38.4600,73,96,209583
2.4682,0.1711,38.5200,73,96,209587
2.6002,0.1711,38.4600,73,96,209590
2.6833,0.1711,38.5800,73,96,209593
2.8299,0.1711,38.5800,73,96,209597
3.0401,0.1662,38.5200,73,96,209600
3.1281,0.1711,38.5800,73,96,209603
3.0596,0.1711,38.4600,73,96,209606
2.7517,0.1711,38.6200,73,96,209610
2.4242,0.1760,38.6200,73,96,209613
2.1261,0.1760,38.4600,73,96,209616
1.7986,0.1711,38.5800,73,96,209620
1.5934,0.1711,38.4300,73,96,209624
1.4370,0.1760,38.4900,73,96,209627
1.3685,0.1711,38.6200,73,96,209631
1.3685,0.1760,38.5800,73,96,209634
1.3783,0.1711,38.6200,73,96,209637
1.4418,0.1760,38.3300,73,96,209641
1.4516,0.1711,38.5500,73,96,209644
1.4907,0.1955,38.6200,73,96,209647
1.5494,0.1760,38.5500,73,96,209650
1.5494,0.1711,38.6200,73,96,209654
1.5982,0.2053,38.3600,73,96,209657
1.5591,0.1808,38.7400,73,96,209660
1.5396,0.1857,38.5200,73,96,209665
1.5298,0.1711,38.6200,73,96,209668
1.5298,0.1613,38.6200,73,96,209671
1.5591,0.1808,38.4900,73,96,209675
1.5347,0.2004,38.5800,73,96,209678
1.5494,0.1662,38.4600,73,96,209681
1.5445,0.1711,38.5800,73,96,209685
1.5738,0.1662,38.6200,73,96,209688
1.6031,0.1760,38.4300,73,96,209691
1.5885,0.1760,38.5800,73,96,209695
1.6227,0.1760,38.4600,73,96,209698
1.6129,0.1662,38.5200,73,96,209701
1.6569,0.1613,38.5800,73,96,209704
1.6618,0.1760,38.5800,73,96,209709
1.6471,0.1808,38.6800,73,96,209712
1.6667,0.1711,38.4300,73,96,209715
1.6618,0.1662,38.5500,73,96,209719
1.6716,0.1711,38.6200,73,96,209722
1.7058,0.1760,38.4600,73,96,209725
1.6911,0.1711,38.6200,73,96,209729
1.7351,0.1760,38.3300,73,96,209732
1.6960,0.1515,38.5200,73,96,209735
1.7155,0.1711,38.5800,73,96,209739
1.7351,0.1515,38.5800,73,96,209742
1.7302,0.1760,38.5800,73,96,209745
1.7791,0.1760,38.3000,73,96,209748
1.7546,0.1711,38.6500,73,96,209753
1.7449,0.1564,38.5500,73,96,209756
1.7498,0.1711,38.5500,73,96,209759
1.7449,0.1613,38.5500,73,96,209763
1.8035,0.1857,38.4600,73,96,209766
1.7693,0.1711,38.5800,73,96,209769
1.7742,0.1711,38.4900,73,96,209773
1.7644,0.1760,38.5800,73,96,209776
1.7693,0.1515,38.6200,73,96,209779
1.8035,0.1857,38.4600,73,96,209783
1.7937,0.1711,38.5800,73,96,209786
1.8133,0.1760,38.4900,73,96,209789
1.7937,0.1711,38.6200,73,96,209794
1.7937,0.1711,38.6500,73,96,209797
1.7986,0.1760,38.4900,73,96,209800
1.7840,0.1711,38.5800,73,96,209803
1.8035,0.2004,38.4600,73,96,209807
1.7742,0.1711,38.5800,73,96,209810
1.7693,0.1857,38.5800,73,96,209813
1.7791,0.1711,38.4900,73,96,209817
1.7449,0.1760,38.5800,73,96,209820
1.7693,0.1711,38.4000,73,96,209823
1.7498,0.1760,38.4600,73,96,209827
1.7351,0.1662,38.6800,73,96,209830
1.7498,0.1760,38.5800,73,96,209833
1.7400,0.1808,38.6200,73,96,209838
1.7937,0.1760,38.4300,73,96,209841
1.7644,0.1711,38.5500,73,96,209844
1.7791,0.1613,38.5800,73,96,209847
1.7937,0.1711,38.4900,73,96,209851
1.7986,0.1808,38.5800,73,96,209854
1.8622,0.1857,38.4300,73,96,209857
1.8573,0.1808,38.5200,73,96,209861
1.8768,0.1711,38.5200,73,96,209864
1.8866,0.1711,38.6200,73,96,209867
1.9013,0.1711,38.5800,73,96,209871
1.9404,0.1808,38.5200,73,96,209874
1.9110,0.1760,38.5500,73,96,209878
1.9257,0.1711,38.4600,73,96,209882
1.9013,0.1808,38.6200,73,96,209885
1.8866,0.1711,38.6200,73,96,209888
1.9159,0.1955,38.4300,73,96,209891
1.9208,0.1808,38.5200,73,96,209895
1.8768,0.1711,38.5800,73,96,209898
1.9062,0.1760,38.3600,73,96,209902
1.8671,0.1760,38.5500,73,96,209905
1.8426,0.1711,38.5800,73,96,209908
1.8573,0.2248,38.5200,73,96,209912
1.8280,0.1711,38.5800,73,96,209915
1.8719,0.1760,38.4300,73,96,209918
1.8426,0.1760,38.4900,73,96,209923
1.8231,0.1662,38.5800,73,96,209926
1.8328,0.1711,38.5800,73,96,209929
1.8280,0.1711,38.5800,73,96,209933
1.8866,0.1808,38.4000,73,96,209936
1.8573,0.1760,38.5200,73,96,209939
1.8475,0.1662,38.5200,73,96,209942
1.8426,0.1711,38.5800,73,96,209946
1.8377,0.1711,38.6200,73,96,209949
1.8866,0.1760,38.4300,73,96,209952
1.8475,0.1662,38.5800,73,96,209956
1.8768,0.1711,38.4300,73,96,209959
1.8524,0.1711,38.6200,73,96,209963
1.8524,0.1662,38.5800,73,96,209967
1.8719,0.1808,38.5500,73,96,209970
1.8524,0.1711,38.5800,73,96,209973
1.8817,0.1711,38.5200,73,96,209977
1.8573,0.1760,38.5500,73,96,209980
1.8622,0.1711,38.6200,73,96,209983
1.8768,0.1760,38.4600,73,96,209987
1.8573,0.1711,38.6200,73,96,209990
1.8817,0.1760,38.3600,73,96,209993
1.8475,0.1662,38.5800,73,96,209996
1.8426,0.1711,38.5800,73,96,210000
1.8671,0.1711,38.5500,73,96,210003
1.8377,0.1760,38.5500,73,96,210007
1.8915,0.1711,38.3300,73,96,210011
1.8622,0.1760,38.4900,73,96,210014
1.8475,0.1760,38.5800,73,96,210017
1.8524,0.1711,38.5800,73,96,210021
1.8426,0.1662,38.5800,73,96,210024
1.8915,0.1857,38.4000,73,96,210027
1.8377,0.1857,38.5500,73,96,210031
1.8671,0.1613,38.4900,73,96,210034
1.8328,0.1711,38.6200,73,96,210037
1.8231,0.1662,38.5800,73,96,210040
1.8622,0.1760,38.4900,73,96,210044
1.8280,0.1760,38.5800,73,96,210048
1.8328,0.1760,38.4600,73,96,210051
1.8035,0.1711,38.5500,73,96,210055
1.8035,0.1711,38.5800,73,96,210058
1.8231,0.1760,37.8300,73,96,210061
1.8084,0.1711,38.5800,73,96,210065
1.8328,0.1760,38.5200,73,96,210068
1.8035,0.1760,38.6200,73,96,210071
1.8035,0.1711,38.6200,73,96,210075
1.8377,0.1760,38.4600,73,96,210078
1.8133,0.1711,38.5800,73,96,210081
1.8328,0.1711,38.3600,73,96,210084
1.8377,0.1711,38.4900,73,96,210088
1.7986,0.1711,38.6800,73,96,210092
1.8182,0.1711,38.5200,73,96,210095
1.8035,0.1711,38.5800,73,96,210099
1.8524,0.1808,38.3300,73,96,210102
1.8231,0.1711,38.5500,73,96,210105
1.8084,0.2004,38.6200,73,96,210109
1.8231,0.1906,38.5500,73,96,210112
1.8182,0.1711,38.6200,73,96,210115
1.8719,0.1906,38.3000,73,96,210119
1.8377,0.1711,38.4900,73,96,210122
1.8231,0.1662,38.5500,73,96,210125
1.8280,0.1711,38.5800,73,96,210128
1.8182,0.1711,38.5800,73,96,210132
1.8671,0.1808,38.4300,73,96,210136
1.8231,0.1711,38.5500,73,96,210139
1.8280,0.1613,38.4900,73,96,210143
1.7986,0.1711,38.5800,73,96,210146
1.8084,0.1662,38.6800,73,96,210149
1.8182,0.1760,38.4300,73,96,210153
1.7889,0.1808,38.6200,73,96,210156
1.8035,0.1711,38.4300,73,96,210159
1.7889,0.1711,38.6200,73,96,210163
1.7889,0.1711,38.5800,73,96,210166
1.8133,0.1760,38.7700,73,96,210169
1.7986,0.1808,38.4300,73,96,210173
1.8328,0.1662,38.4600,73,96,210177
1.8084,0.1662,38.5200,73,96,210180
1.8133,0.1711,38.6200,73,96,210183
1.8328,0.1711,38.4300,73,96,210187
1.8182,0.1711,38.6200,73,96,210190
1.8377,0.1711,38.3300,73,96,210193
1.7986,0.1662,38.5500,73,96,210197
1.7986,0.1711,38.5800,73,96,210200
1.8231,0.1711,38.5500,73,96,210203
1.8035,0.1711,38.7100,73,96,210207
1.8475,0.1857,38.3600,73,96,210210
1.8182,0.1515,38.5200,73,96,210213
1.7986,0.1711,38.5800,73,96,210217
1.8035,0.1711,38.5800,73,96,210221
1.7937,0.1711,38.5200,73,96,210224
1.8719,0.1711,38.4300,73,96,210227
1.7889,0.1711,38.6200,73,96,210231
1.7986,0.1662,38.5200,73,96,210234
1.7937,0.1711,38.7100,73,96,210237
1.7986,0.1662,38.5800,73,96,210241
1.8377,0.1760,38.4300,73,96,210244
1.8182,0.1760,38.5800,73,96,210247
1.8280,0.1711,38.4600,73,96,210251
1.8084,0.1760,38.6200,73,96,210254
1.8133,0.1760,38.6200,73,96,210257
1.8328,0.1711,38.8700,73,96,210262
1.8622,0.1760,38.6200,73,96,210265
1.8573,0.1760,38.4900,73,96,210268
1.8328,0.1760,38.5800,73,96,210272
1.8377,0.1711,37.8300,73,96,210275
1.8622,0.1711,38.4900,73,96,210278
1.8280,0.1711,38.6500,73,96,210281
1.8573,0.1711,38.4000,73,96,210285
1.8328,0.1711,38.4600,73,96,210288
1.8182,0.1711,38.6200,73,96,210291
1.8280,0.1760,38.5800,73,96,210295
1.8133,0.1711,38.5800,73,96,210298
1.8719,0.1808,38.3300,73,96,210301
1.8084,0.1760,38.5500,73,96,210306
1.7986,0.1662,38.6500,73,96,210309
1.8133,0.1711,38.5500,73,96,210312
1.8133,0.1711,38.6200,73,96,210316
1.8866,0.1857,38.3600,73,96,210319
1.8377,0.1906,38.5500,73,96,210322
1.8377,0.1613,38.5200,73,96,210325
1.8084,0.1711,38.5800,73,96,210329
1.7937,0.1662,38.5800,73,96,210332
1.8377,0.1808,38.4600,73,96,210335
1.8133,0.1711,38.6200,73,96,210339
1.8231,0.1711,38.4900,73,96,210342
1.8035,0.1662,38.6200,73,96,210345
1.8035,0.1711,38.6200,73,96,210350
1.8328,0.1760,38.4300,73,96,210353
1.8084,0.1711,38.6200,73,96,210356
1.8377,0.1760,38.4900,73,96,210360
1.8182,0.1613,38.5200,73,96,210363
1.8231,0.1711,38.5500,73,96,210366
1.8426,0.1760,38.5200,73,96,210370
1.8280,0.1711,38.5800,73,96,210373
1.8573,0.1711,38.4000,73,96,210376
1.8231,0.1711,38.6200,73,96,210379
1.8182,0.1613,38.6800,73,96,210383
1.8328,0.1808,38.5200,73,96,210386
1.8084,0.1857,38.5800,73,96,210390
1.8426,0.1760,38.3600,73,96,210394
1.8035,0.1662,38.5200,73,96,210397
1.8231,0.1662,38.6200,73,96,210400
1.8768,0.1760,38.5500,73,96,210404
1.9599,0.1613,38.5800,73,96,210407
2.0919,0.1808,38.3300,73,96,210410
2.1652,0.1760,38.5200,73,96,210414
2.2630,0.1760,38.5500,73,96,210417
2.3656,0.1711,38.5800,73,96,210420
2.4291,0.1857,38.5800,73,96,210423
2.5758,0.1711,38.4300,73,96,210427
2.5953,0.1760,38.5500,73,96,210430
2.7322,0.1613,38.5200,73,96,210434
2.8495,0.1711,38.6200,73,96,210438
2.9032,0.1662,38.5800,73,96,210441
2.8104,0.1760,38.4600,73,96,210444
2.5073,0.1808,38.5500,73,96,210448
2.1848,0.1760,38.4300,73,96,210451
1.8377,0.1711,38.7400,73,96,210454
1.5836,0.1662,38.6200,73,96,210458
1.4565,0.1711,38.7400,73,96,210461
1.3832,0.1613,38.5800,73,96,210464
1.3832,0.1711,38.4900,73,96,210467
1.3930,0.1711,38.5800,73,96,210471
1.4418,0.1711,38.5800,73,96,210475
1.5298,0.1808,38.4900,73,96,210478
1.5787,0.1711,38.6200,73,96,210482
1.6520,0.1760,38.4300,73,96,210485
1.6618,0.1760,38.4900,73,96,210488
1.6471,0.1711,38.6500,73,96,210492
1.6471,0.1760,38.5200,73,96,210495
1.6276,0.1711,38.0800,73,96,210498
1.6520,0.1760,38.3300,73,96,210502
1.6422,0.1760,38.4900,73,96,210505
1.6276,0.1711,38.5500,73,96,210509
1.6325,0.1662,38.5200,73,96,210512
1.6325,0.1711,38.6200,73,96,210515
1.6325,0.1662,38.6200,73,96,210520
1.6618,0.1760,38.7400,73,96,210523
1.6520,0.1711,38.5800,73,96,210526
1.6764,0.1711,38.4900,73,96,210529
1.6618,0.1760,38.5800,73,96,210533
1.6716,0.1760,38.5800,73,96,210536
1.7058,0.1760,38.4600,73,96,210539
1.7009,0.1711,38.6200,73,96,210543
1.7204,0.1711,38.4900,73,96,210546
1.6960,0.1760,38.4900,73,96,210549
1.7253,0.1613,38.6200,73,96,210553
1.7009,0.1711,38.5800,73,96,210556
1.6911,0.1711,38.6800,73,96,210560
1.7204,0.1711,38.4900,73,96,210564
1.7253,0.1808,38.5500,73,96,210567
1.7155,0.1711,38.6200,73,96,210570
1.7302,0.1906,38.6200,73,96,210573
1.7155,0.1760,38.5800,73,96,210577
1.7546,0.1760,38.3300,73,96,210580
1.7546,0.1613,38.5200,73,96,210583
1.7351,0.1515,38.5800,73,96,210587
1.7498,0.1760,38.5200,73,96,210590
1.7449,0.1515,38.7100,73,96,210593
1.7986,0.1857,38.4300,73,96,210597
1.7742,0.1760,38.5500,73,96,210600
1.7791,0.1662,38.6800,73,96,210604
1.7840,0.1711,38.6200,73,96,210608
1.7889,0.1711,38.5200,73,96,210611
1.8328,0.1711,38.4300,73,96,210614
1.7986,0.2004,38.5800,73,96,210617
1.8182,0.1760,38.4900,73,96,210621
1.8035,0.1711,38.6500,73,96,210624
1.7986,0.1808,38.6800,73,96,210627
1.8133,0.1808,38.4900,73,96,210631
1.7986,0.1711,38.6200,73,96,210634
1.8328,0.1711,38.4600,73,96,210637
1.7840,0.1662,38.4600,73,96,210641
1.7840,0.1711,38.6200,73,96,210644
1.8035,0.1711,38.4900,73,96,210648
1.7889,0.1662,38.5800,73,96,210652
1.8182,0.1711,38.4300,73,96,210655
1.7889,0.1760,38.6800,73,96,210658
1.8182,0.1711,38.6200,73,96,210661
1.8182,0.1760,38.4600,73,96,210665
1.8084,0.1711,38.6200,73,96,210668
1.8573,0.1760,38.3300,73,96,210671
1.8328,0.1760,38.5200,73,96,210675
1.8182,0.1711,38.6500,73,96,210678
1.8426,0.1711,38.5500,73,96,210681
1.8426,0.1662,38.6800,73,96,210685
1.9110,0.1857,38.4300,73,96,210689
1.8866,0.1760,38.4300,73,96,210692
1.8964,0.1613,38.5200,73,96,210696
1.9159,0.1711,38.5800,73,96,210699
1.9257,0.1711,38.6200,73,96,210702
1.9746,0.1711,38.4600,73,96,210706
1.9501,0.1857,38.6200,73,96,210709
1.9550,0.1662,38.4600,73,96,210712
1.9355,0.1711,38.6500,73,96,210715
1.9355,0.1711,38.5800,73,96,210719
1.9453,0.1760,38.5200,73,96,210722
1.9208,0.1711,38.5800,73,96,210725
1.9306,0.1711,38.4900,73,96,210729
1.8915,0.1711,38.5800,73,96,210733
1.8817,0.1711,38.6500,73,96,210736
1.9110,0.1711,38.4600,73,96,210740
1.8719,0.1711,38.5800,73,96,210743
1.9013,0.1760,38.4000,73,96,210746
1.8719,0.1515,38.4900,73,96,210750
1.8573,0.1662,38.5800,73,96,210753
1.8768,0.1760,38.5500,73,96,210756
1.8622,0.1760,38.5800,73,96,210760
1.8964,0.1711,38.3300,73,96,210763
1.8719,0.1711,38.5200,73,96,210766
1.8573,0.1613,38.6200,73,96,210769
1.8671,0.1760,38.5500,73,96,210774
1.8524,0.1711,38.6200,73,96,210777
1.9110,0.1808,38.2700,73,96,210780
1.8866,0.1760,38.4900,73,96,210784
1.8622,0.1662,38.6500,73,96,210787
1.8915,0.1760,38.6800,73,96,210790
1.8426,0.1711,38.8400,73,96,210794
1.8817,0.1808,38.4600,73,96,210797
1.8426,0.1760,38.5800,73,96,210800
1.8524,0.1711,38.4600,73,96,210804
1.8377,0.1711,38.5500,73,96,210807
1.8377,0.1613,38.5800,73,96,210810
1.8671,0.1760,38.4300,73,96,210814
1.8377,0.1760,38.5800,73,96,210818
1.8622,0.1760,38.4600,73,96,210821
1.8426,0.1662,38.5800,73,96,210824
1.8524,0.1711,38.6200,73,96,210828
1.8719,0.1760,38.5800,73,96,210831
1.8573,0.1955,38.5800,73,96,210834
1.8768,0.1613,38.4300,73,96,210838
1.8524,0.1711,38.6200,73,96,210841
1.8573,0.1711,38.5800,73,96,210844
1.8622,0.1760,38.5200,73,96,210848
1.8719,0.1808,38.6200,73,96,210851
1.8719,0.1515,38.3600,73,96,210854
1.8328,0.1711,38.5500,73,96,210859
1.8377,0.1711,38.6800,73,96,210862
1.8622,0.1760,38.5500,73,96,210865
1.8475,0.1711,38.0500,73,96,210868
1.9013,0.1857,38.2700,73,96,210872
1.8671,0.1711,38.4900,73,96,210875
1.8573,0.1662,38.5200,73,96,210878
1.8622,0.1711,38.5800,73,96,210882
1.8475,0.1711,38.5800,73,96,210885
1.8964,0.1857,38.4300,73,96,210888
1.8328,0.1808,38.5800,73,96,210892
1.8622,0.1613,38.4900,73,96,210895
1.8133,0.1711,38.6200,73,96,210898
1.8084,0.1564,38.6200,73,96,210903
1.8377,0.1760,38.4600,73,96,210906
1.8133,0.1711,38.5800,73,96,210909
1.8280,0.1711,38.4600,73,96,210912
1.8084,0.1711,38.4600,73,96,210916
1.8182,0.1662,38.6200,73,96,210919
1.8377,0.1711,38.5200,73,96,210922
1.8280,0.1760,38.5800,73,96,210926
1.8622,0.1711,38.4600,73,96,210929
1.8328,0.1613,38.5800,73,96,210932
1.8231,0.1711,38.6200,73,96,210936
1.8426,0.1857,38.4600,73,96,210939
1.8133,0.1711,38.5800,73,96,210942
1.8475,0.1760,38.3600,73,96,210947
1.8280,0.1711,38.4900,73,96,210950
1.8084,0.1711,38.6200,73,96,210953
1.8231,0.1711,38.5500,73,96,210957
1.8133,0.1711,38.6200,73,96,210960
1.8768,0.1711,38.3300,73,96,210963
1.8426,0.1662,38.5500,73,96,210966
1.8377,0.1662,38.5800,73,96,210970
1.8328,0.1711,38.5800,73,96,210973
1.8524,0.1711,38.6200,73,96,210976
1.8719,0.1857,38.3300,73,96,210980
1.8377,0.1760,38.5200,73,96,210983
1.8280,0.1662,38.4600,73,96,210987
1.8182,0.1808,38.5800,73,96,210991
1.8133,0.1711,38.6200,73,96,210994
1.8426,0.1857,38.4900,73,96,210997
1.8182,0.1711,38.5800,73,96,211001
1.8280,0.1711,38.4600,73,96,211004
1.8133,0.1711,38.5800,73,96,211007
1.8084,0.1711,38.6200,73,96,211011
1.8426,0.1808,38.4600,73,96,211014
1.7986,0.1711,38.5800,73,96,211017
1.8231,0.1662,38.5200,73,96,211020
1.7986,0.1662,38.5200,73,96,211024
1.8182,0.1711,38.6200,73,96,211027
1.8084,0.1808,38.5200,73,96,211031
1.7986,0.1760,38.5800,73,96,211035
1.8328,0.1711,38.4000,73,96,211038
1.8084,0.1613,38.6200,73,96,211041
1.8182,0.1711,38.6200,73,96,211045
1.8377,0.1760,38.4900,73,96,211048
1.8084,0.1760,38.6200,73,96,211051
1.8377,0.1760,38.3600,73,96,211055
1.8035,0.1662,38.5200,73,96,211058
1.7889,0.1711,38.5800,73,96,211061
1.8035,0.1711,38.5200,73,96,211064
1.8182,0.1711,38.0200,73,96,211068
1.9355,0.1906,38.3600,73,96,211072
1.9941,0.1760,38.5200,73,96,211075
2.0919,0.1662,38.6200,73,96,211079
2.2190,0.1711,38.5800,73,96,211082
2.3118,0.1711,38.4600,73,96,211085
2.4438,0.1760,38.4300,73,96,211089
2.4731,0.1711,38.3600,73,96,211092
2.5709,0.1760,38.4900,73,96,211095
2.6735,0.1711,38.6200,73,96,211099
2.8152,0.1711,38.7700,73,96,211102
2.9374,0.1711,38.4600,73,96,211105
2.8104,0.1711,38.6800,73,96,211108
2.5904,0.1760,38.4900,73,96,211112
2.2385,0.1711,38.6200,73,96,211116
1.4174,0.1711,38.6200,73,96,211120
1.4467,0.1711,38.6800,73,96,211123
1.5152,0.1760,38.5200,73,96,211126
1.5738,0.1711,38.5800,73,96,211130
1.7009,0.1760,38.3000,73,96,211133
1.7107,0.1515,38.4900,73,96,211136
1.7155,0.1711,38.7100,73,96,211140
1.7107,0.1711,38.5800,73,96,211143
1.6813,0.1711,38.6200,73,96,211146
1.7107,0.1857,38.3600,73,96,211150
1.6520,0.1760,38.5800,73,96,211153
1.6325,0.1662,38.5200,73,96,211156
1.6178,0.1711,38.6200,73,96,211160
1.6080,0.1760,38.6200,73,96,211164
1.6471,0.1808,38.4600,73,96,211167
1.6276,0.1711,38.5800,73,96,211170
1.6325,0.1808,38.4600,73,96,211174
1.6227,0.1711,38.6200,73,96,211177
1.6276,0.1711,38.5800,73,96,211180
1.6569,0.1711,38.5200,73,96,211184
1.6862,0.1760,38.5800,73,96,211187
1.6911,0.1760,37.9900,73,96,211190
1.6716,0.1711,38.5800,73,96,211194
1.6764,0.1711,38.5200,73,96,211197
1.7058,0.1711,38.4900,73,96,211201
1.6764,0.1711,38.5800,73,96,211205
1.7009,0.1760,38.4000,73,96,211208
1.6960,0.1515,38.4900,73,96,211211
1.6911,0.1711,38.7700,73,96,211214
1.7155,0.1760,38.5200,73,96,211218
1.7107,0.1711,38.5800,73,96,211221
1.7595,0.1760,38.3300,73,96,211224
1.7449,0.1711,38.5800,73,96,211228
1.7546,0.1613,38.5800,73,96,211231
1.7791,0.1760,38.5500,73,96,211234
1.7595,0.1711,38.5800,73,96,211238
1.8035,0.1808,38.3000,73,96,211241
1.7693,0.1711,38.4900,73,96,211245
1.7693,0.1662,38.5500,73,96,211249
1.7840,0.1711,38.5800,73,96,211252
1.7889,0.1857,38.6200,73,96,211255
1.8426,0.1808,38.4600,73,96,211258
1.7986,0.1711,38.6500,73,96,211262
1.7937,0.1711,38.4900,73,96,211265
1.7791,0.1857,38.6200,73,96,211268
1.7840,0.1711,38.5800,73,96,211272
1.8035,0.1760,38.5200,73,96,211275
1.7693,0.1808,38.5800,73,96,211278
1.7986,0.1711,38.4600,73,96,211282
1.7742,0.1808,38.6500,73,96,211286
1.7742,0.1662,38.5800,73,96,211289
1.7889,0.1760,38.5200,73,96,211293
1.7595,0.1711,38.5800,73,96,211296
1.7693,0.1613,38.4900,73,96,211299
1.7449,0.1662,38.5800,73,96,211302
1.7400,0.1760,38.5800,73,96,211306
1.7449,0.1711,38.4900,73,96,211309
1.7400,0.1711,38.6200,73,96,211312
1.7644,0.1760,38.4000,73,96,211316
1.7351,0.1711,38.5800,73,96,211319
1.7595,0.1613,38.5800,73,96,211322
1.7742,0.1760,38.5500,73,96,211326
1.7840,0.1613,38.6200,73,96,211330
1.8475,0.1760,38.3300,73,96,211333
1.8377,0.1760,38.5500,73,96,211337
1.8475,0.1760,38.6500,73,96,211340
1.8622,0.1711,38.5800,73,96,211343
1.8768,0.1613,38.6200,73,96,211346
1.9404,0.1857,38.3600,73,96,211350
1.9159,0.1711,38.5800,73,96,211353
1.9208,0.1662,38.5200,73,96,211356
1.9257,0.1760,38.5800,73,96,211360
1.9355,0.1711,38.6500,73,96,211363
1.9892,0.1711,38.4300,73,96,211366
1.9746,0.1515,38.6200,73,96,211371
1.9844,0.2151,38.5500,73,96,211374
1.9648,0.1711,38.5800,73,96,211377
1.9550,0.2004,38.6200,73,96,211381
1.9746,0.1711,38.5200,73,96,211384
1.9501,0.1711,38.4300,73,96,211387
1.9795,0.2102,38.4600,73,96,211390
1.9550,0.1711,38.6500,73,96,211394
1.9501,0.1760,38.6200,73,96,211397
1.9648,0.1760,38.4900,73,96,211400
1.9159,0.1808,38.6200,73,96,211404
1.9257,0.1662,38.4300,73,96,211407
1.8915,0.1711,38.5800,73,96,211410
1.8671,0.1857,38.6800,73,96,211415
1.8719,0.1760,37.9300,73,96,211418
1.8524,0.2102,38.6800,73,96,211421
1.8964,0.1760,38.4000,73,96,211425
1.8671,0.1711,38.6200,73,96,211428
1.8573,0.1613,38.5800,73,96,211431
1.8671,0.1760,38.5200,73,96,211434
1.8426,0.1711,38.5800,73,96,211438
1.8915,0.1760,38.3000,73,96,211441
1.8475,0.1857,38.4600,73,96,211444
1.8377,0.1760,38.5800,73,96,211448
1.8475,0.1711,37.9300,73,96,211451
1.8426,0.1711,38.6200,73,96,211454
1.9013,0.1857,38.4000,73,96,211459
1.8622,0.1857,38.5500,73,96,211462
1.8573,0.1662,38.4900,73,96,211465
1.8426,0.1613,38.5800,73,96,211469
1.8426,0.1711,38.6200,73,96,211472
1.8915,0.1808,38.4000,73,96,211475
1.8573,0.1711,38.5500,73,96,211478
1.8671,0.1711,38.4600,73,96,211482
1.8573,0.1613,38.5800,73,96,211485
1.8377,0.1515,38.6500,73,96,211488
1.8768,0.1760,38.4900,73,96,211492
1.8328,0.1711,38.5800,73,96,211495
1.8524,0.1711,38.4600,73,96,211499
1.8231,0.1662,38.5500,73,96,211503
1.8231,0.1662,38.6200,73,96,211506
1.8377,0.1711,38.4600,73,96,211509
1.8182,0.1711,38.5800,73,96,211513
1.8524,0.1711,38.3600,73,96,211516
1.8328,0.1662,38.5800,73,96,211519
1.8328,0.1662,38.6200,73,96,211523
1.8475,0.2004,38.5500,73,96,211526
1.8328,0.1711,38.5800,73,96,211529
1.8817,0.1760,38.3300,73,96,211532
1.8817,0.1808,38.4900,73,96,211536
1.8475,0.1515,38.6200,73,96,211539
1.8475,0.1760,38.5800,73,96,211543
1.8377,0.1711,38.6200,73,96,211547
1.8817,0.1857,38.4000,73,96,211550
1.8328,0.1711,38.5500,73,96,211553
1.8280,0.1662,38.5200,73,96,211557
1.8231,0.1711,38.5800,73,96,211560
1.8328,0.1711,38.7100,73,96,211563
1.8915,0.1760,38.4600,73,96,211567
1.8719,0.1711,38.5500,73,96,211570
1.8866,0.1711,38.4900,73,96,211573
1.8671,0.1711,38.5800,73,96,211576
1.8573,0.1662,38.5800,73,96,211580
1.8622,0.1760,38.5200,73,96,211584
1.8377,0.1711,38.6500,73,96,211587
1.8768,0.1857,38.4900,73,96,211591
1.8328,0.1711,38.6200,73,96,211594
1.8377,0.1711,38.6200,73,96,211597
1.8622,0.1760,38.4600,73,96,211601
1.8426,0.1711,38.6200,73,96,211604
1.8866,0.1760,38.3600,73,96,211607
1.8817,0.1711,38.4300,73,96,211611
1.8768,0.1662,38.5500,73,96,211614
1.8964,0.1760,38.5500,73,96,211617
1.8768,0.1955,38.4900,73,96,211621
1.9110,0.1711,38.3300,73,96,211624
1.8671,0.1760,38.5200,73,96,211628
1.8426,0.1711,38.5800,73,96,211631
1.8475,0.1711,38.5200,73,96,211635
1.8231,0.1613,38.5800,73,96,211638
1.8719,0.1857,38.2400,73,96,211641
1.8328,0.1711,38.5200,73,96,211645
1.8377,0.1662,38.4900,73,96,211648
1.8426,0.1760,38.5800,73,96,211651
1.8377,0.1711,38.5500,73,96,211655
1.8719,0.1711,38.4900,73,96,211658
1.8231,0.1711,38.5500,73,96,211661
1.8573,0.1711,38.4600,73,96,211665
1.8035,0.1711,38.5800,73,96,211668
1.8035,0.1662,38.6200,73,96,211672
1.8377,0.1808,38.4900,73,96,211676
1.8084,0.1711,38.5800,73,96,211679
1.8328,0.1760,38.3300,73,96,211682
1.7986,0.1808,38.5500,73,96,211685
1.7986,0.1711,38.5800,73,96,211689
1.8231,0.1711,38.5200,73,96,211692
1.8084,0.1857,38.5800,73,96,211695
1.8328,0.1760,38.4300,73,96,211699
1.8133,0.1711,38.5200,73,96,211702
1.8182,0.1711,38.6200,73,96,211705
1.8475,0.1808,38.4900,73,96,211709
1.8377,0.1613,38.5800,73,96,211713
1.8817,0.1760,38.3300,73,96,211716
1.8280,0.1613,38.5500,73,96,211720
1.8280,0.1760,38.6200,73,96,211723
1.8280,0.1711,38.4600,73,96,211726
1.8426,0.1857,38.6200,73,96,211730
1.8573,0.1662,38.6200,73,96,211733
1.8915,0.1760,38.4900,73,96,211736
1.8719,0.1711,38.5800,73,96,211740
1.8768,0.1711,38.4600,73,96,211743
1.8524,0.1613,38.6200,73,96,211746
1.8328,0.1711,38.6200,73,96,211750
1.8622,0.1808,38.4900,73,96,211753
1.8426,0.1711,38.5800,73,96,211757
1.8768,0.1808,38.4900,73,96,211761
1.8426,0.1613,38.5500,73,96,211764
1.8377,0.1711,38.6200,73,96,211767
1.8573,0.1711,38.4900,73,96,211771
1.8524,0.1711,38.5800,73,96,211774
1.8915,0.1760,38.4000,73,96,211777
1.8426,0.1711,38.7700,73,96,211781
1.8328,0.1760,38.6200,73,96,211784
1.8280,0.1760,38.7100,73,96,211787
1.8035,0.1662,38.5800,73,96,211790
1.8328,0.1760,38.4000,73,96,211794
1.8084,0.1711,38.5500,73,96,211798
1.7937,0.1711,38.6200,73,96,211801
1.8035,0.1808,38.5500,73,96,211805
1.8035,0.1760,38.6800,73,96,211808
1.8622,0.1857,38.3300,73,96,211811
1.8475,0.1711,38.5200,73,96,211815
1.8280,0.1662,38.5200,73,96,211818
1.8280,0.1808,38.5800,73,96,211821
1.8084,0.1711,38.5800,73,96,211825
1.8524,0.1808,38.5200,73,96,211828
1.8328,0.1711,38.5800,73,96,211831
1.8328,0.1711,38.5800,73,96,211834
1.8328,0.1711,38.6200,73,96,211838
1.8475,0.1711,38.5200,73,96,211842
1.8671,0.1711,38.5500,73,96,211845
1.8524,0.1711,38.7100,73,96,211849
1.8768,0.1760,38.4300,73,96,211852
1.8426,0.1711,38.5500,73,96,211855
1.8622,0.1613,38.6200,73,96,211859
1.8719,0.1760,38.5500,73,96,211862
1.8475,0.1711,38.6200,73,96,211865
1.8768,0.1711,38.4000,73,96,211869
1.8719,0.1711,38.4900,73,96,211872
1.8622,0.1515,38.6200,73,96,211875
1.9013,0.1711,38.5200,73,96,211879
1.8524,0.1711,38.5200,73,96,211883
1.8866,0.1857,38.3300,73,96,211886
1.8573,0.1515,38.5500,73,96,211889
1.8426,0.1711,38.6200,73,96,211893
1.8622,0.1760,38.5500,73,96,211896
1.8524,0.1711,38.6200,73,96,211899
1.9013,0.1808,38.3300,73,96,211903
1.8719,0.1711,38.4900,73,96,211906
1.8622,0.1662,38.5500,73,96,211909
1.8573,0.1711,38.5800,73,96,211913
1.8622,0.1711,38.6500,73,96,211916
1.9110,0.1808,38.4000,73,96,211919
1.8622,0.1711,38.5500,73,96,211923
1.8475,0.1711,38.4300,73,96,211927
1.8231,0.1711,38.5800,73,96,211930
1.8182,0.1711,38.5800,73,96,211934
1.8475,0.1760,38.4300,73,96,211937
1.8182,0.1711,38.5800,73,96,211940
1.8377,0.1711,38.5200,73,96,211944
1.8035,0.1711,38.5500,73,96,211947
1.8035,0.1760,38.6200,73,96,211950
1.8280,0.1760,38.5800,73,96,211953
1.8182,0.1857,38.6200,73,96,211957
1.8573,0.1711,38.4300,73,96,211960
1.8280,0.1857,38.5200,73,96,211963
1.8182,0.1613,38.5800,73,96,211968
1.8231,0.1711,38.4300,73,96,211971
1.8231,0.1711,38.5800,73,96,211974
1.8622,0.1760,38.4000,73,96,211978
1.8377,0.1613,38.5500,73,96,211981
1.8035,0.1662,38.6200,73,96,211984
1.8231,0.2004,38.5500,73,96,211988
1.8133,0.1515,38.5800,73,96,211991
1.8671,0.2004,38.3000,73,96,211994
1.8377,0.1711,38.4900,73,96,211997
1.8280,0.1515,38.6800,73,96,212001
1.8377,0.1711,38.6200,73,96,212004
1.8328,0.1662,38.5200,73,96,212007
1.8866,0.1857,38.3600,73,96,212012
1.8475,0.1711,38.5800,73,96,212015
1.8622,0.1955,38.4900,73,96,212018
1.8622,0.1711,38.5800,73,96,212022
1.8719,0.1711,38.6200,73,96,212025
1.9062,0.1760,38.4300,73,96,212028
1.8768,0.1711,38.5200,73,96,212032
1.9208,0.1711,38.4600,73,96,212035
1.8573,0.1711,38.5800,73,96,212038
1.8768,0.1711,38.6200,73,96,212041
1.8524,0.1760,38.5800,73,96,212045
1.8280,0.1760,38.6200,73,96,212048
1.8573,0.1662,38.4300,73,96,212051
1.8328,0.1857,38.6200,73,96,212056
1.8426,0.1662,38.5800,73,96,212059
1.8622,0.1760,38.6200,73,96,212062
1.8475,0.1662,38.5800,73,96,212066
1.8768,0.1711,38.4300,73,96,212069
1.8573,0.1808,38.5200,73,96,212072
1.8426,0.1711,38.6200,73,96,212076
1.8719,0.1760,38.5200,73,96,212079
1.8475,0.1711,38.6500,73,96,212082
1.8866,0.1760,38.3300,73,96,212085
1.8426,0.1711,38.5200,73,96,212089
1.8328,0.1662,38.6500,73,96,212092
1.8524,0.1760,38.5500,73,96,212096
1.8377,0.1711,38.6200,73,96,212100
1.8866,0.1857,38.3300,73,96,212103
1.8426,0.1515,38.5500,73,96,212106
1.8280,0.2004,38.5500,73,96,212110
1.8328,0.1711,38.5500,73,96,212113
1.8280,0.2053,38.5800,73,96,212116
1.8671,0.1808,38.4900,73,96,212120
1.8328,0.1711,38.5200,73,96,212123
1.8328,0.1564,38.4900,73,96,212126
1.8231,0.1711,38.6500,73,96,212130
1.8328,0.1613,38.6200,73,96,212133
1.8622,0.1808,38.4000,73,96,212136
1.8377,0.1711,38.6200,73,96,212140
1.8524,0.1711,37.7700,73,96,212144
1.8231,0.1613,38.5200,73,96,212147
1.8280,0.1662,38.5800,73,96,212150
1.8377,0.1711,38.5200,73,96,212154
1.8280,0.1711,38.0800,73,96,212157
1.8426,0.1760,38.4300,73,96,212160
1.8231,0.1711,38.5800,73,96,212164
1.8133,0.1760,38.6200,73,96,212167
1.8426,0.1760,38.5200,73,96,212170
1.8280,0.1711,38.8400,73,96,212174
1.8719,0.1711,38.4000,73,96,212177
1.8377,0.1662,38.5200,73,96,212180
1.8328,0.1613,38.6200,73,96,212184
1.8328,0.1711,38.5800,73,96,212188
1.8231,0.1613,38.5800,73,96,212191
1.8768,0.1515,38.3300,73,96,212194
1.8475,0.2004,38.5200,73,96,212198
1.8475,0.1662,38.5200,73,96,212201
1.8524,0.1711,38.6500,73,96,212204
1.8475,0.1662,38.5800,73,96,212208
1.9013,0.1857,38.4600,73,96,212211
1.8573,0.1760,38.5800,73,96,212214
1.8768,0.1711,38.4900,73,96,212218
1.8573,0.1711,38.6200,73,96,212221
1.8475,0.1711,38.7100,73,96,212225
1.8622,0.1760,38.4600,73,96,212229
1.8377,0.1711,38.6200,73,96,212232
1.8573,0.1808,38.4900,73,96,212235
1.8377,0.1711,38.6200,73,96,212238
1.8426,0.1808,38.6200,73,96,212242
1.8573,0.1711,38.5200,73,96,212245
1.8328,0.1711,38.5800,73,96,212248
1.8622,0.1711,38.4300,73,96,212252
1.8182,0.1662,38.5800,73,96,212255
1.8182,0.1662,38.6200,73,96,212258
1.8280,0.1760,38.5200,73,96,212262
1.7986,0.1711,38.6200,73,96,212265
1.8475,0.1760,38.3000,73,96,212269
1.8182,0.1760,38.5200,73,96,212273
1.8035,0.1711,38.6500,73,96,212276
1.8035,0.1760,38.5800,73,96,212279
1.8035,0.1662,38.5800,73,96,212282
1.8377,0.1760,38.3000,73,96,212286
1.7889,0.1760,38.4900,73,96,212289
1.7742,0.1662,38.6200,73,96,212292
1.7693,0.1711,38.6800,73,96,212296
1.7742,0.1613,38.5800,73,96,212299
1.8328,0.1808,38.4300,73,96,212302
1.8426,0.1808,38.5500,73,96,212306
1.8866,0.1662,38.5200,73,96,212310
1.9941,0.1711,38.5800,73,96,212313
2.1212,0.1515,38.6200,73,96,212317
2.2874,0.2102,38.5200,73,96,212320
2.3949,0.1711,38.6200,73,96,212323
2.4976,0.1711,38.4600,73,96,212326
2.5953,0.1613,38.6200,73,96,212330
2.6931,0.1515,38.6800,73,96,212333
2.9130,0.2102,38.4300,73,96,212336
2.2190,0.1711,38.5200,73,96,212340
1.9159,0.1613,38.5500,73,96,212343
1.7058,0.1711,38.3300,73,96,212347
1.5152,0.1711,38.5500,73,96,212350
1.4174,0.1662,38.5800,73,96,212354
1.3978,0.1760,38.5500,73,96,212358
1.4027,0.1711,38.6500,73,96,212361
1.4712,0.2053,38.3300,73,96,212364
1.4907,0.1711,38.4600,73,96,212368
1.5200,0.1662,38.5200,73,96,212371
1.5640,0.1711,38.5800,73,96,212374
1.5738,0.1662,38.5800,73,96,212378
1.6325,0.1857,38.4000,73,96,212381
1.5787,0.1711,38.6200,73,96,212384
1.5591,0.1760,38.4900,73,96,212387
1.5249,0.1711,38.5500,73,96,212391
1.5249,0.1711,38.6200,73,96,212395
1.5347,0.1760,38.5200,73,96,212398
1.5152,0.1711,38.5800,73,96,212402
1.5445,0.1711,38.4300,73,96,212405
1.5347,0.1662,38.5500,73,96,212408
1.5445,0.1662,38.7400,73,96,212412
1.5787,0.1808,38.4900,73,96,212415
1.5738,0.1711,38.5800,73,96,212418
1.6080,0.1662,38.4600,73,96,212422
1.5934,0.1662,38.5800,73,96,212425
1.6129,0.1662,38.6800,73,96,212428
1.6325,0.1808,38.4900,73,96,212431
1.6227,0.1711,38.5800,73,96,212435
1.6520,0.1711,38.3600,73,96,212439
1.6227,0.1613,38.5500,73,96,212442
1.6325,0.1857,38.6200,73,96,212446
1.6569,0.1515,38.5500,73,96,212449
1.6520,0.1662,38.6200,73,96,212452
1.7107,0.1760,38.3000,73,96,212456
1.6960,0.1711,38.5800,73,96,212459
1.6960,0.1613,38.5800,73,96,212462
1.7107,0.1711,38.5200,73,96,212466
1.7107,0.1613,38.5800,73,96,212469
1.7693,0.1857,38.4300,73,96,212472
1.7351,0.2004,38.5200,73,96,212476
1.7400,0.1662,38.5500,73,96,212480
1.7498,0.1711,38.5800,73,96,212483
1.7498,0.1564,38.6800,73,96,212486
1.7791,0.1760,38.4600,73,96,212490
1.7546,0.2004,38.5800,73,96,212493
1.7644,0.1760,38.4600,73,96,212496
1.7595,0.1711,38.6500,73,96,212500
1.7693,0.1711,38.6200,73,96,212503
1.7937,0.1711,38.4300,73,96,212506
1.7840,0.1662,38.5800,73,96,212510
1.7986,0.1711,38.4600,73,96,212513
1.7791,0.1613,38.6200,73,96,212516
1.7693,0.1662,38.5800,73,96,212520
1.7986,0.1857,38.5200,73,96,212524
1.7840,0.1711,37.8000,73,96,212527
1.8084,0.1662,38.4300,73,96,212530
1.7986,0.1760,38.4900,73,96,212534
1.7742,0.1662,38.5800,73,96,212537
1.7937,0.1760,38.5500,73,96,212540
1.7840,0.1711,38.6200,73,96,212544
1.8231,0.1711,38.4000,73,96,212547
1.7986,0.1515,38.5500,73,96,212550
1.7840,0.1711,38.7400,73,96,212554
1.7889,0.1760,38.5500,73,96,212557
1.7693,0.1711,38.6200,73,96,212560
1.8133,0.1808,38.3300,73,96,212564
1.7644,0.1711,38.6200,73,96,212568
1.7449,0.1662,38.5800,73,96,212571
1.7449,0.1515,38.5800,73,96,212574
1.7351,0.1760,38.5800,73,96,212578
1.7742,0.1808,38.4900,73,96,212581
1.7546,0.1711,38.5800,73,96,212584
1.7644,0.1711,38.4900,73,96,212588
1.7595,0.1760,38.6200,73,96,212591
1.7791,0.1760,38.5800,73,96,212594
1.8328,0.1760,38.3300,73,96,212598
1.8280,0.1760,38.5800,73,96,212601
1.8719,0.1760,38.4900,73,96,212604
1.8622,0.1906,38.5800,73,96,212609
1.8768,0.1662,38.5800,73,96,212612
1.9110,0.2102,38.5500,73,96,212615
1.9110,0.1711,38.5800,73,96,212618
1.9453,0.1662,38.4600,73,96,212622
1.9306,0.1906,38.5500,73,96,212625
1.9404,0.1613,38.5800,73,96,212628
1.9648,0.1711,38.4900,73,96,212632
1.9501,0.1613,38.6500,73,96,212635
1.9844,0.1711,38.4000,73,96,212638
1.9501,0.1662,38.5800,73,96,212642
1.9404,0.1662,38.6500,73,96,212645
1.9501,0.1760,38.5500,73,96,212648
1.9208,0.1711,38.7100,73,96,212653
1.9599,0.2004,38.3000,73,96,212656
1.9208,0.1760,38.4900,73,96,212659
1.9110,0.1662,38.5800,73,96,212662
1.9062,0.1760,38.5500,73,96,212666
1.9257,0.1711,38.6500,73,96,212669
1.9599,0.1857,38.4600,73,96,212672
1.9062,0.1711,38.5500,73,96,212676
1.9013,0.1662,38.4300,73,96,212679
1.8915,0.1613,38.5800,73,96,212682
1.8817,0.1711,38.6200,73,96,212686
1.9062,0.1711,38.4900,73,96,212689
1.8768,0.1760,38.5500,73,96,212692
1.8768,0.1711,38.4600,73,96,212697
1.8573,0.1711,38.5800,73,96,212700
1.8622,0.2004,38.5800,73,96,212703
1.8866,0.1711,38.5200,73,96,212706
1.8768,0.1711,38.6800,73,96,212710
1.8964,0.1760,38.4900,73,96,212713
1.8622,0.1711,38.6200,73,96,212716
1.8622,0.1662,38.5800,73,96,212720
1.8866,0.1760,38.4300,73,96,212723
1.8524,0.1711,38.6200,73,96,212726
1.8866,0.1711,38.4000,73,96,212730
1.8719,0.1760,38.4900,73,96,212733
1.8426,0.1662,38.6200,73,96,212737
1.8671,0.1711,38.5500,73,96,212741
1.8524,0.1662,38.5500,73,96,212744
1.9404,0.1760,38.3000,73,96,212747
1.8719,0.1711,38.5200,73,96,212751
1.8671,0.1662,38.6200,73,96,212754
1.8866,0.1711,38.4900,73,96,212757
1.8915,0.1760,38.5800,73,96,212760
1.9306,0.1857,38.4000,73,96,212764
1.8817,0.1906,38.4900,73,96,212767
1.9013,0.1662,38.5200,73,96,212770
1.8671,0.1711,38.5200,73,96,212774
1.8622,0.1711,38.6200,73,96,212777
1.8915,0.1808,38.4900,73,96,212781
1.8671,0.1711,38.5500,73,96,212785
1.8719,0.1711,38.4600,73,96,212788
1.8475,0.1711,38.7400,73,96,212791
1.8475,0.1613,38.6800,73,96,212795
1.8817,0.1808,38.4600,73,96,212798
1.8622,0.1662,38.6800,73,96,212801
1.8719,0.1711,38.4600,73,96,212805
1.8328,0.1711,38.5500,73,96,212808
1.8280,0.1711,38.6200,73,96,212811
1.8426,0.1760,38.5200,73,96,212815
1.8231,0.1711,38.6500,73,96,212818
1.8622,0.1711,38.4000,73,96,212822
1.8280,0.1711,38.5200,73,96,212825
1.8182,0.1711,38.4600,73,96,212829
1.8377,0.1711,38.5200,73,96,212832
1.7937,0.1662,37.9000,73,96,212835
1.8426,0.1808,38.3600,73,96,212839
1.7986,0.1662,38.5800,73,96,212842
1.7986,0.1662,38.6200,73,96,212845
1.8035,0.1711,38.5800,73,96,212849
1.7840,0.1711,38.6500,73,96,212852
1.8328,0.1857,38.3600,73,96,212855
1.7986,0.1711,38.5500,73,96,212859
1.7937,0.1662,38.5200,73,96,212862
1.7986,0.1662,38.6200,73,96,212866
1.8035,0.1662,38.6200,73,96,212869
1.8426,0.1711,38.4300,73,96,212873
1.8133,0.1711,38.5800,73,96,212876
1.8280,0.1662,38.4600,73,96,212879
1.8035,0.1711,38.6200,73,96,212883
1.8133,0.1711,38.5800,73,96,212886
1.8426,0.1760,38.4900,73,96,212889
1.8182,0.1711,38.8100,73,96,212893
1.8671,0.1760,38.5200,73,96,212896
1.8133,0.1662,38.6200,73,96,212899
1.8182,0.1711,38.5800,73,96,212903
1.8426,0.1711,38.4900,73,96,212907
1.8475,0.1613,38.6500,73,96,212910
1.8475,0.1711,38.4000,73,96,212914
1.8328,0.1662,38.6200,73,96,212917
1.8182,0.1711,38.5800,73,96,212920
1.8280,0.1906,38.4900,73,96,212923
1.8035,0.1711,38.6200,73,96,212927
1.8377,0.1760,38.3300,73,96,212930
1.8280,0.1760,38.4900,73,96,212933
1.7742,0.1515,38.6200,73,96,212937
1.7889,0.1711,38.5800,73,96,212940
1.7840,0.1662,38.5500,73,96,212943
1.8377,0.1857,38.3600,73,96,212947
1.8133,0.1515,38.4900,73,96,212951
1.7986,0.2102,38.5200,73,96,212955
1.8231,0.1760,38.4600,73,96,212958
1.7986,0.1711,38.5200,73,96,212961
1.8035,0.1711,38.5800,73,96,212965
1.8182,0.1711,38.9000,73,96,212968
1.8084,0.1662,38.5800,73,96,212971
1.8426,0.1760,38.4600,73,96,212975
1.8035,0.1711,38.5800,73,96,212978
1.8133,0.1613,38.6200,73,96,212981
1.8328,0.1760,38.4600,73,96,212984
1.8084,0.1760,38.6800,73,96,212988
1.8475,0.1711,38.4300,73,96,212992
1.8328,0.1760,38.5200,73,96,212995
1.8182,0.1515,38.5500,73,96,212999
1.8280,0.1711,38.5500,73,96,213002
1.8182,0.1711,38.6500,73,96,213005
1.8915,0.1760,38.3600,73,96,213009
1.8231,0.1711,38.5200,73,96,213012
1.8133,0.1613,38.5800,73,96,213015
1.8231,0.1711,38.5500,73,96,213019
1.8084,0.1613,38.6200,73,96,213022
1.8622,0.1857,38.4900,73,96,213025
1.8328,0.1711,38.5200,73,96,213029
1.8133,0.1515,38.5800,73,96,213032
1.8231,0.1760,38.5800,73,96,213036
1.8182,0.1662,38.7700,73,96,213039
1.8573,0.1760,38.4900,73,96,213043
1.8328,0.1711,38.6200,73,96,213046
1.8377,0.1711,38.4600,73,96,213049
1.8133,0.1711,38.6200,73,96,213053
1.8035,0.1662,38.5800,73,96,213056
1.8377,0.1515,38.4600,73,96,213059
1.8328,0.1662,38.5800,73,96,213063
1.8573,0.1711,38.4900,73,96,213066
1.8231,0.1662,38.5200,73,96,213069
1.8377,0.1760,38.6200,73,96,213073
1.8231,0.1711,38.4900,73,96,213076
1.8084,0.1711,38.5800,73,96,213080
1.8377,0.1711,38.4300,73,96,213084
1.8231,0.1711,38.5200,73,96,213087
1.8280,0.1662,38.6800,73,96,213090
1.8573,0.1760,38.4900,73,96,213093
1.8426,0.1662,38.6200,73,96,213097
1.8817,0.1760,38.3600,73,96,213100
1.8377,0.1662,38.5200,73,96,213103
1.8328,0.1662,38.6200,73,96,213107
1.8377,0.1760,38.5500,73,96,213110
1.8280,0.1711,38.5800,73,96,213113
1.9013,0.1857,38.3600,73,96,213117
1.8475,0.1760,38.5200,73,96,213121
1.8280,0.1662,38.5200,73,96,213124
1.8328,0.1711,38.6200,73,96,213128
1.8328,0.1662,38.5800,73,96,213131
1.8671,0.1760,38.4600,73,96,213134
1.8280,0.1760,38.5500,73,96,213137
1.8377,0.1711,38.4600,73,96,213141
1.8182,0.1955,38.5800,73,96,213144
1.8182,0.1662,38.6200,73,96,213147
1.8426,0.1760,38.4300,73,96,213151
1.8133,0.1711,38.5500,73,96,213154
1.8328,0.1760,38.4900,73,96,213157
1.7986,0.2004,38.6200,73,96,213161
1.8084,0.1711,38.6200,73,96,213165
1.8133,0.1711,38.5200,73,96,213168
1.7889,0.1613,38.6200,73,96,213172
1.8280,0.1662,38.7400,73,96,213175
1.8084,0.1711,38.5800,73,96,213178
1.8084,0.1662,38.6200,73,96,213181
1.8280,0.1906,38.4600,73,96,213185
1.7986,0.1711,38.6500,73,96,213188
1.8377,0.1711,38.4900,73,96,213191
1.7986,0.1711,38.4900,73,96,213195
1.7840,0.1662,38.8100,73,96,213198
1.7986,0.1711,38.5800,73,96,213201
1.7889,0.1662,38.6200,73,96,213206
1.8475,0.1760,38.3300,73,96,213209
1.8182,0.1711,38.5800,73,96,213212
1.8182,0.1662,38.5800,73,96,213216
1.8328,0.1711,38.5800,73,96,213219
1.8231,0.1711,38.4300,73,96,213222
1.8719,0.1711,38.4300,73,96,213225
1.8475,0.1711,38.5200,73,96,213229
1.8622,0.1613,38.3300,73,96,213232
1.8475,0.1711,38.5200,73,96,213235
1.8426,0.1662,38.5800,73,96,213239
1.8817,0.1808,38.4000,73,96,213242
1.8524,0.2053,38.5800,73,96,213245
1.8768,0.1711,38.4600,73,96,213250
1.8573,0.1808,38.6200,73,96,213253
1.8573,0.1711,38.6200,73,96,213256
1.8768,0.1808,38.4600,73,96,213260
1.8426,0.1711,38.5800,73,96,213263
1.8622,0.1662,38.4300,73,96,213266
1.8377,0.1613,38.5200,73,96,213270
1.8377,0.1662,38.5800,73,96,213273
1.8573,0.1711,38.5200,73,96,213276
1.8328,0.1711,38.7100,73,96,213279
1.8719,0.1760,38.3600,73,96,213283
1.8475,0.1711,38.5800,73,96,213286
1.8475,0.1711,38.5800,73,96,213289
1.8768,0.1760,38.5200,73,96,213294
1.8475,0.1662,38.6200,73,96,213297
1.8964,0.1711,38.3000,73,96,213300
1.8524,0.1662,38.5200,73,96,213304
1.8426,0.1613,38.6200,73,96,213307
1.8524,0.1711,38.5800,73,96,213310
1.8573,0.1760,38.6200,73,96,213314
1.8768,0.1857,38.3300,73,96,213317
1.8328,0.1760,38.5500,73,96,213320
1.8182,0.1662,38.5500,73,96,213324
1.8573,0.1760,38.6200,73,96,213327
1.8328,0.1662,38.6200,73,96,213330
1.8719,0.1662,38.4300,73,96,213334
1.8426,0.1711,38.6200,73,96,213338
1.8573,0.1662,38.4600,73,96,213341
1.8377,0.1515,38.5800,73,96,213344
1.8328,0.1711,38.5800,73,96,213348
1.8524,0.1760,38.4900,73,96,213351
1.8280,0.1711,38.5800,73,96,213354
1.8475,0.1808,38.4600,73,96,213358
1.8182,0.1662,38.5800,73,96,213361
1.8231,0.1662,38.5800,73,96,213364
1.8475,0.1711,38.4600,73,96,213368
1.8377,0.1711,38.6200,73,96,213371
1.8573,0.1662,38.4000,73,96,213374
1.8280,0.2053,38.5800,73,96,213379
1.8182,0.1662,38.5800,73,96,213382
1.8475,0.1760,38.5800,73,96,213385
1.8328,0.1711,38.5800,73,96,213388
1.8768,0.1711,38.3300,73,96,213392
1.8573,0.1760,38.5200,73,96,213395
1.8377,0.1515,38.6500,73,96,213398
1.8573,0.1711,38.5800,73,96,213402
1.8475,0.1662,37.8300,73,96,213405
1.9013,0.2004,38.3000,73,96,213408
1.8524,0.1711,38.5500,73,96,213412
1.8426,0.1662,38.5200,73,96,213415
1.8377,0.1711,38.5800,73,96,213419
1.8280,0.1662,38.5800,73,96,213423
1.8671,0.1808,38.4900,73,96,213426
1.8328,0.1711,38.6200,73,96,213429
1.8377,0.1711,38.5500,73,96,213432
1.8133,0.1515,38.5800,73,96,213436
1.8133,0.1613,38.6200,73,96,213439
1.8426,0.1760,38.5200,73,96,213442
1.8280,0.1760,38.5800,73,96,213446
1.8573,0.1857,38.4900,73,96,213449
1.8280,0.1711,37.9000,73,96,213452
1.8280,0.1662,38.5800,73,96,213456
1.8573,0.1760,38.5200,73,96,213459
1.8182,0.1711,38.6200,73,96,213463
1.8426,0.1515,38.4000,73,96,213467
1.8231,0.1662,38.4900,73,96,213470
1.8084,0.1662,38.5800,73,96,213473
1.8133,0.2102,38.5200,73,96,213476
1.7937,0.1613,38.5800,73,96,213480
1.8133,0.1760,38.3600,73,96,213483
1.7889,0.1760,38.5200,73,96,213486
1.7791,0.1515,38.6200,73,96,213490
1.8084,0.1857,38.5200,73,96,213493
1.7889,0.1662,38.6200,73,96,213496
1.8475,0.1760,38.4000,73,96,213500
1.8133,0.1662,38.4900,73,96,213504
1.8182,0.1662,38.6200,73,96,213507
1.8328,0.1711,38.5500,73,96,213511
1.8280,0.1662,38.5800,73,96,213514
1.8671,0.1857,38.4900,73,96,213517
1.8231,0.1515,38.5800,73,96,213520
1.8280,0.1662,38.4900,73,96,213524
1.8524,0.1711,38.6500,73,96,213527
1.9257,0.1955,38.5800,73,96,213530
2.0674,0.1711,38.4300,73,96,213534
2.1457,0.1760,38.5800,73,96,213537
2.2825,0.1711,38.4600,73,96,213540
2.3509,0.1711,38.4600,73,96,213544
2.4194,0.1662,38.6500,73,96,213548
2.5122,0.1711,38.6200,73,96,213551
2.5611,0.1808,38.5800,73,96,213555
2.7175,0.1711,38.4900,73,96,213558
2.7957,0.1711,38.3600,73,96,213561
1.8915,0.1662,38.6800,73,96,213565
1.6520,0.1662,38.6500,73,96,213568
1.5152,0.1760,38.5500,73,96,213571
1.4418,0.1662,38.5200,73,96,213575
1.5005,0.1711,38.3300,73,96,213578
1.4516,0.1711,38.5200,73,96,213581
1.4761,0.1808,38.5800,73,96,213585
1.5396,0.1711,38.6200,73,96,213588
1.5982,0.1613,38.5800,73,96,213592
1.6862,0.1857,38.4300,73,96,213596
1.6716,0.1808,38.5800,73,96,213599
1.6813,0.1711,38.5200,73,96,213602
1.6471,0.1711,38.5800,73,96,213606
1.6325,0.1613,38.6200,73,96,213609
1.6422,0.1760,38.6800,73,96,213612
1.6471,0.1613,38.5800,73,96,213616
1.6178,0.1711,38.4600,73,96,213619
1.5885,0.1613,38.6200,73,96,213622
1.5836,0.1662,38.5800,73,96,213625
1.6031,0.1711,38.4900,73,96,213629
1.5934,0.1711,38.6200,73,96,213633
1.6373,0.1662,38.4000,73,96,213636
1.6080,0.1711,38.5800,73,96,213640
1.6227,0.1662,38.6800,73,96,213643
1.6520,0.1711,38.4900,73,96,213646
1.6471,0.1662,38.6800,73,96,213650
1.7253,0.1760,38.3600,73,96,213653
1.6813,0.1711,38.4900,73,96,213656
1.6764,0.1613,38.5800,73,96,213660
1.6960,0.1808,38.5200,73,96,213663
1.7058,0.1711,38.6200,73,96,213666
1.7449,0.1515,38.3300,73,96,213669
1.7107,0.1711,38.5200,73,96,213673
1.7155,0.1662,38.5800,73,96,213677
1.7351,0.1711,38.5800,73,96,213680
1.7302,0.1662,38.5800,73,96,213684
1.7791,0.2004,38.4300,73,96,213687
1.7498,0.1515,38.5500,73,96,213690
1.7449,0.1662,38.5200,73,96,213694
1.7498,0.1711,38.5800,73,96,213697
1.7546,0.1760,38.5800,73,96,213700
1.7840,0.1760,38.5500,73,96,213704
1.7644,0.1613,38.6200,73,96,213707
1.7840,0.1613,38.4600,73,96,213710
1.7742,0.1711,38.5800,73,96,213714
1.8084,0.1711,38.6200,73,96,213718
1.8280,0.1760,38.6200,73,96,213721
1.7986,0.1613,38.5800,73,96,213724
1.8133,0.1515,38.4900,73,96,213728
1.7840,0.1613,38.4900,73,96,213731
1.7889,0.1662,38.6500,73,96,213734
1.8035,0.1760,38.4900,73,96,213738
1.8035,0.1760,38.5800,73,96,213741
1.8231,0.1711,38.4300,73,96,213744
1.8133,0.1613,38.5500,73,96,213748
1.8035,0.1662,38.6200,73,96,213751
1.8280,0.1760,38.5200,73,96,213754
1.8231,0.1711,38.6200,73,96,213758
1.8524,0.1760,38.4000,73,96,213762
1.8328,0.1662,38.5200,73,96,213765
1.8182,0.1662,38.5800,73,96,213768
1.8231,0.1711,38.7100,73,96,213772
1.8231,0.1711,38.6200,73,96,213775
1.8719,0.1857,38.3300,73,96,213778
1.8280,0.1760,38.5200,73,96,213782
1.8084,0.1515,38.5200,73,96,213785
1.7986,0.1760,38.5800,73,96,213788
1.7889,0.1515,38.5800,73,96,213792
1.8182,0.1857,38.4000,73,96,213795
1.7840,0.1515,38.5500,73,96,213798
1.7889,0.1662,38.5200,73,96,213803
1.7937,0.1711,38.5800,73,96,213806
1.8084,0.1711,38.6800,73,96,213809
1.8573,0.1760,38.4600,73,96,213812
1.8573,0.1711,38.5800,73,96,213816
1.8964,0.1760,38.4600,73,96,213819
1.9062,0.1711,38.5800,73,96,213822
1.8915,0.1662,38.5800,73,96,213826
1.9208,0.1662,38.4900,73,96,213829
1.9306,0.1711,38.5800,73,96,213832
1.9648,0.1662,38.4600,73,96,213836
1.9550,0.1711,38.5800,73,96,213839
1.9648,0.1662,38.8100,73,96,213842
1.9990,0.1711,38.5200,73,96,213847
1.9746,0.1662,38.6200,73,96,213850
2.0332,0.1711,38.3600,73,96,213853
1.9990,0.1711,38.4900,73,96,213856
1.9746,0.1662,38.6200,73,96,213860
1.9697,0.1711,38.6200,73,96,213863
1.9501,0.1662,38.5800,73,96,213866
1.9990,0.1760,38.3000,73,96,213870
1.9501,0.1711,38.4900,73,96,213873
1.9257,0.1613,38.5500,73,96,213876
1.9355,0.1711,38.6200,73,96,213880
1.9159,0.1760,38.6800,73,96,213883
1.9599,0.1808,38.4300,73,96,213886
1.9208,0.2199,38.5200,73,96,213891
1.9208,0.1760,38.4900,73,96,213894
1.9110,0.1711,38.5800,73,96,213897
1.9062,0.2004,38.6200,73,96,213900
1.9404,0.1808,38.4900,73,96,213904
1.8915,0.1711,38.5800,73,96,213907
1.9013,0.1711,38.4300,73,96,213910
1.8719,0.1711,38.3600,73,96,213914
1.8671,0.1760,38.6200,73,96,213917
1.8915,0.1760,38.4300,73,96,213920
1.8426,0.1662,38.5800,73,96,213924
1.8524,0.1711,38.4600,73,96,213927
1.8182,0.1906,38.5200,73,96,213931
1.8622,0.1613,38.5800,73,96,213935
1.8524,0.1711,38.7100,73,96,213938
1.8524,0.1613,38.6200,73,96,213941
1.8573,0.1711,38.3300,73,96,213944
1.8280,0.1711,38.5500,73,96,213948
1.8182,0.1662,38.6200,73,96,213951
1.8426,0.1711,38.5500,73,96,213954
1.8231,0.1662,38.6200,73,96,213958
1.8719,0.1760,38.3000,73,96,213961
1.8377,0.1662,38.5500,73,96,213964
1.8328,0.1760,38.6200,73,96,213968
1.8573,0.1711,38.5800,73,96,213971
1.8622,0.1613,38.5800,73,96,213975
1.9257,0.1857,38.4300,73,96,213979
1.8866,0.1760,38.5200,73,96,213982
1.8622,0.1662,38.5200,73,96,213985
1.8524,0.1711,38.5800,73,96,213989
1.8475,0.1662,38.6200,73,96,213992
1.8768,0.2102,38.4900,73,96,213995
1.8475,0.1711,38.6200,73,96,213998
1.8573,0.1662,38.4600,73,96,214002
1.8377,0.1711,38.6200,73,96,214005
1.8280,0.1662,38.6200,73,96,214008
1.8671,0.1760,38.5200,73,96,214012
1.8524,0.1711,38.6500,73,96,214016
1.8866,0.1808,38.5200,73,96,214019
1.8671,0.1662,38.5800,73,96,214023
1.8671,0.1711,38.6200,73,96,214026
1.8817,0.1711,38.6200,73,96,214029
1.8622,0.1662,38.5800,73,96,214033
1.8817,0.1515,38.4000,73,96,214036
1.8377,0.1711,38.5800,73,96,214039
1.8377,0.1662,38.7100,73,96,214043
1.8524,0.1857,38.5500,73,96,214046
1.8328,0.1711,38.6500,73,96,214049
1.8866,0.1760,38.3300,73,96,214052
1.8719,0.1711,38.5200,73,96,214056
1.8573,0.2102,38.6500,73,96,214060
1.8622,0.1711,38.5800,73,96,214063
1.8475,0.1662,38.6200,73,96,214067
1.8817,0.1857,38.3600,73,96,214070
1.8231,0.1760,38.5500,73,96,214073
1.8133,0.1515,38.5200,73,96,214077
1.8084,0.1808,38.5500,73,96,214080
1.8035,0.1760,38.5500,73,96,214083
1.8426,0.1760,38.4000,73,96,214087
1.8328,0.1760,38.5500,73,96,214090
1.8426,0.1515,38.4900,73,96,214093
1.8280,0.1760,38.6200,73,96,214096
1.8280,0.1662,38.5800,73,96,214100
1.8426,0.1711,38.4900,73,96,214104
1.8231,0.1711,38.5800,73,96,214107
1.8377,0.1760,38.5200,73,96,214111
1.8084,0.1711,38.6200,73,96,214114
1.8182,0.1662,38.5500,73,96,214117
1.8426,0.1760,38.4600,73,96,214121
1.8133,0.1906,38.5800,73,96,214124
1.8426,0.1711,38.4000,73,96,214127
1.8280,0.1711,38.4900,73,96,214131
1.8328,0.1564,38.6200,73,96,214134
1.8524,0.1760,38.5500,73,96,214137
1.8328,0.1711,38.5800,73,96,214141
1.8573,0.1760,38.3600,73,96,214145
1.8231,0.1760,38.5500,73,96,214148
1.8133,0.1711,38.5800,73,96,214151
1.8280,0.1711,38.3000,73,96,214155
1.8182,0.1711,38.6800,73,96,214158
1.8768,0.1515,38.3000,73,96,214161
1.8426,0.1711,38.4900,73,96,214165
1.8328,0.1662,38.5500,73,96,214168
1.8377,0.1711,38.5800,73,96,214171
1.7889,0.1613,38.5800,73,96,214175
1.7986,0.1662,38.5800,73,96,214178
1.8377,0.2102,38.4600,73,96,214182
1.8182,0.1711,38.6800,73,96,214185
1.8475,0.1662,38.4600,73,96,214189
1.8133,0.1662,38.5500,73,96,214193
1.8231,0.1808,38.6200,73,96,214196
1.8426,0.1711,38.5200,73,96,214199
1.8280,0.1906,38.6200,73,96,214203
1.8671,0.1711,38.4000,73,96,214206
1.8231,0.1711,38.6500,73,96,214209
1.8426,0.1662,38.6200,73,96,214212
1.8328,0.1760,38.5800,73,96,214216
1.8231,0.1808,38.5800,73,96,214219
1.8915,0.1760,38.3600,73,96,214222
1.8524,0.1662,38.5200,73,96,214226
1.8475,0.1711,38.6200,73,96,214230
1.8524,0.1711,38.5500,73,96,214233
1.8426,0.1711,38.6500,73,96,214237
1.8964,0.2004,38.4000,73,96,214240
1.8524,0.1760,38.5500,73,96,214243
1.8475,0.1515,38.5200,73,96,214247
1.8524,0.1711,38.5800,73,96,214250
1.8622,0.1662,38.7100,73,96,214253
1.9110,0.1760,38.4300,73,96,214257
1.8866,0.1711,38.8400,73,96,214260
1.8964,0.1662,38.4900,73,96,214263
1.8817,0.1515,38.6200,73,96,214266
1.8622,0.1711,38.5800,73,96,214270
1.8768,0.1515,38.4900,73,96,214274
1.8426,0.1711,38.5800,73,96,214277
1.8817,0.1711,38.4900,73,96,214281
1.8133,0.1857,38.4600,73,96,214284
1.8084,0.1662,38.5800,73,96,214287
1.8035,0.1711,38.5200,73,96,214291
1.8035,0.1662,38.5800,73,96,214294
1.8328,0.1662,38.5200,73,96,214297
1.8133,0.1760,38.5800,73,96,214301
1.8182,0.1662,38.6200,73,96,214304
1.8328,0.1906,38.5500,73,96,214307
1.7986,0.1711,38.6500,73,96,214310
1.8377,0.1711,38.3600,73,96,214315
1.8328,0.1711,38.5200,73,96,214318
1.8524,0.1760,38.5800,73,96,214321
1.9404,0.1711,38.5500,73,96,214325
2.0283,0.1955,38.5800,73,96,214328
2.2483,0.1711,38.3300,73,96,214331
2.3118,0.1662,38.5500,73,96,214335
2.4389,0.1613,38.5200,73,96,214338
2.5513,0.1711,38.5800,73,96,214341
2.6393,0.1711,38.6200,73,96,214345
2.8348,0.1857,38.4300,73,96,214348
2.9717,0.1808,38.5500,73,96,214351
3.1427,0.1711,38.4600,73,96,214355
3.1672,0.1760,38.6200,73,96,214359
2.9912,0.1662,38.7400,73,96,214362
2.7322,0.1857,38.4900,73,96,214365
2.3607,0.1711,38.5800,73,96,214369
2.0528,0.1760,38.4600,73,96,214372
1.7498,0.1711,38.6200,73,96,214375
1.5543,0.1662,38.6200,73,96,214379
1.4663,0.1711,38.4900,73,96,214382
1.3930,0.1613,38.5500,73,96,214385
1.4076,0.1711,38.4300,73,96,214389
1.4076,0.1662,38.4900,73,96,214392
1.4370,0.1613,38.6200,73,96,214395
1.5054,0.1613,38.5200,73,96,214400
1.5445,0.1613,38.6200,73,96,214403
1.6031,0.1711,38.4600,73,96,214406
1.5885,0.1711,38.5500,73,96,214410
1.5738,0.1662,38.0200,73,96,214413
1.5885,0.1808,38.4900,73,96,214416
1.5591,0.1662,38.6200,73,96,214419
1.5934,0.1760,38.3000,73,96,214423
1.5934,0.1662,38.4900,73,96,214426
1.5543,0.1711,38.7400,73,96,214429
1.6031,0.1760,38.5800,73,96,214433
1.5738,0.1711,38.6500,73,96,214436
1.6325,0.1857,38.4300,73,96,214439
1.6129,0.1515,38.5500,73,96,214444
1.6129,0.1955,38.5500,73,96,214447
1.6178,0.1711,38.7100,73,96,214450
1.6227,0.1564,38.5800,73,96,214454
1.6618,0.1711,38.4300,73,96,214457
1.6422,0.1808,38.5200,73,96,214460
1.6716,0.1613,38.4600,73,96,214463
1.6422,0.1711,38.5800,73,96,214467
1.6422,0.1613,38.6200,73,96,214470
1.6764,0.1760,38.5200,73,96,214473
1.6667,0.2053,38.6200,73,96,214477
1.7009,0.1808,38.4900,73,96,214480
1.6960,0.1662,38.5800,73,96,214483
1.7351,0.1662,38.5800,73,96,214488
1.7400,0.1711,38.4900,73,96,214491
1.7302,0.1564,38.6200,73,96,214494
1.7595,0.1760,38.4300,73,96,214498
1.7351,0.1760,38.5500,73,96,214501
1.7449,0.1711,38.5800,73,96,214504
1.7595,0.1808,38.5200,73,96,214507
1.7498,0.1711,38.5800,73,96,214511
1.8035,0.1760,38.3600,73,96,214514
1.7986,0.1711,38.4900,73,96,214517
1.7986,0.1662,38.5800,73,96,214521
1.8231,0.1711,38.5800,73,96,214524
1.8328,0.1711,38.5800,73,96,214528
1.9306,0.1711,38.3300,73,96,214532
1.8524,0.1906,38.5200,73,96,214535
1.8475,0.1613,38.5200,73,96,214538
1.8475,0.1711,38.6200,73,96,214542
1.8524,0.1711,38.5800,73,96,214545
1.9013,0.1515,38.4900,73,96,214548
1.8719,0.1808,38.5500,73,96,214552
1.8964,0.1711,38.4900,73,96,214555
1.8671,0.1711,38.6200,73,96,214558
1.8524,0.1662,38.5800,73,96,214561
1.8719,0.1760,38.5200,73,96,214565
1.8719,0.1760,38.5500,73,96,214568
1.8573,0.1760,38.5200,73,96,214572
1.8377,0.1711,38.6200,73,96,214576
1.8133,0.1515,38.6200,73,96,214579
1.8524,0.1760,38.4300,73,96,214582
1.8182,0.1711,38.6800,73,96,214586
1.8328,0.1711,38.4000,73,96,214589
1.8084,0.1711,38.4900,73,96,214592
1.7937,0.1662,38.5800,73,96,214596
1.8133,0.1711,38.5500,73,96,214599
1.8035,0.1711,38.6200,73,96,214602
1.8524,0.1711,38.3300,73,96,214605
1.8231,0.1808,38.5500,73,96,214609
1.8280,0.1613,38.6200,73,96,214612
1.8475,0.1711,38.6800,73,96,214616
1.8426,0.1613,38.6200,73,96,214620
1.9013,0.1857,38.3600,73,96,214623
1.8719,0.1711,38.4900,73,96,214626
1.8671,0.1662,38.4000,73,96,214630
1.8719,0.1760,38.6200,73,96,214633
1.8671,0.1515,38.7100,73,96,214636
1.9208,0.1857,38.4600,73,96,214640
1.8817,0.1711,38.5800,73,96,214643
1.8866,0.1711,38.4900,73,96,214646
1.8671,0.1711,38.6200,73,96,214650
1.8671,0.1564,38.5800,73,96,214653
1.9062,0.1760,38.4300,73,96,214657
1.8768,0.1711,38.5800,73,96,214660
1.9013,0.1760,38.4900,73,96,214664
1.8671,0.1662,38.5800,73,96,214667
1.8573,0.1662,38.6200,73,96,214670
1.8671,0.1711,38.5500,73,96,214674
1.8524,0.1662,38.6200,73,96,214677
1.8671,0.1711,38.4900,73,96,214680
1.8622,0.1613,38.5200,73,96,214684
1.8328,0.1662,38.6500,73,96,214687
1.8377,0.1711,38.4900,73,96,214690
1.8133,0.1662,38.6200,73,96,214694
1.8622,0.1760,38.3300,73,96,214697
1.8231,0.1662,38.4900,73,96,214701
1.8231,0.1760,38.5800,73,96,214705
1.8231,0.1711,38.5500,73,96,214708
1.7937,0.1711,38.5800,73,96,214711
1.8377,0.1808,38.3300,73,96,214714
1.7986,0.1711,38.4900,73,96,214718
1.8084,0.1613,38.5500,73,96,214721
1.7742,0.1857,38.5800,73,96,214724
1.7791,0.1711,38.5800,73,96,214728
1.7986,0.1760,38.4600,73,96,214731
1.7889,0.1760,38.5500,73,96,214734
1.7546,0.1662,38.4900,73,96,214738
1.7546,0.1711,38.6200,73,96,214742
1.7546,0.1613,38.5500,73,96,214745
1.7840,0.1760,38.4600,73,96,214749
1.7644,0.1760,38.5800,73,96,214752
1.7889,0.1711,38.4600,73,96,214755
1.7742,0.1711,38.6200,73,96,214758
1.7791,0.1662,38.6200,73,96,214762
1.7986,0.1760,38.4900,73,96,214765
1.8035,0.1711,38.6200,73,96,214768
1.8280,0.1760,38.4000,73,96,214772
1.8182,0.1711,38.6200,73,96,214775
1.8377,0.1711,38.5800,73,96,214778
1.8768,0.1760,38.4900,73,96,214782
1.8573,0.1711,38.6200,73,96,214786
1.8524,0.1906,38.5500,73,96,214790
1.9013,0.1808,38.3600,73,96,214793
1.8475,0.1760,38.5500,73,96,214796
1.8377,0.1662,38.5200,73,96,214800
1.8231,0.1711,38.5800,73,96,214803
1.8524,0.1711,38.5800,73,96,214806
1.8573,0.1760,38.1500,73,96,214810
1.8328,0.1760,38.5500,73,96,214813
1.8328,0.1711,38.4900,73,96,214816
1.8084,0.1711,38.5800,73,96,214819
1.8035,0.1662,38.6500,73,96,214823
1.8231,0.1760,38.5500,73,96,214827
1.7986,0.1760,38.5800,73,96,214830
1.8182,0.1760,38.5200,73,96,214834
1.7986,0.1662,38.6200,73,96,214837
1.7889,0.1662,38.7100,73,96,214840
1.8133,0.1711,38.4600,73,96,214844
1.7937,0.2053,38.6800,73,96,214847
1.8182,0.1711,38.4000,73,96,214850
1.8035,0.1711,38.5200,73,96,214854
1.7889,0.1662,38.6800,73,96,214857
1.7937,0.1760,38.4600,73,96,214860
1.7742,0.1711,38.5800,73,96,214864
1.8133,0.1760,38.3000,73,96,214867
1.7840,0.1808,38.5500,73,96,214871
1.7742,0.1711,38.5800,73,96,214874
1.7840,0.1711,37.9000,73,96,214878
1.7644,0.1760,38.6800,73,96,214881
1.8182,0.1760,38.3000,73,96,214884
1.7840,0.1711,38.5500,73,96,214888
1.7986,0.1662,38.5500,73,96,214891
1.7937,0.1711,38.4900,73,96,214894
1.7937,0.1662,38.5800,73,96,214898
1.8328,0.1808,38.4600,73,96,214901
1.8035,0.1760,38.5500,73,96,214904
1.8084,0.1662,38.4900,73,96,214908
1.7986,0.2053,38.6200,73,96,214912
1.7986,0.1711,38.5800,73,96,214915
1.8328,0.1808,38.5200,73,96,214918
1.7986,0.1711,38.5800,73,96,214922
1.8231,0.1711,38.3600,73,96,214925
1.7986,0.1662,38.6500,73,96,214928
1.8084,0.1662,38.0200,73,96,214932
1.8328,0.1711,38.4900,73,96,214935
1.8084,0.1515,38.5800,73,96,214938
1.8280,0.1662,38.4600,73,96,214942
1.8280,0.1613,38.5500,73,96,214945
1.8035,0.1662,38.5800,73,96,214948
1.8328,0.1760,38.4600,73,96,214952
1.7986,0.1711,38.6200,73,96,214956
1.8231,0.1760,38.3600,73,96,214959
1.7840,0.1662,38.8100,73,96,214962
1.7889,0.1613,38.6200,73,96,214966
1.8084,0.1760,38.5500,73,96,214969
1.7937,0.1711,38.5800,73,96,214972
1.8426,0.1760,38.3600,73,96,214976
1.8133,0.1760,38.4900,73,96,214979
1.7986,0.1662,38.6200,73,96,214982
1.8084,0.1808,38.6200,73,96,214986
1.8035,0.1711,38.5500,73,96,214989
1.8622,0.1857,38.4300,73,96,214992
1.8133,0.1711,38.5500,73,96,214996
1.8084,0.1662,38.5500,73,96,215000
1.7986,0.1808,38.5800,73,96,215003
1.7937,0.1711,38.6200,73,96,215006
1.8328,0.1760,38.6200,73,96,215010
1.8280,0.1760,38.5500,73,96,215013
1.8280,0.1711,38.4900,73,96,215016
1.8084,0.1662,38.6200,73,96,215020
1.8133,0.1662,38.5800,73,96,215023
1.8328,0.1760,38.5200,73,96,215026
1.8182,0.1711,38.5500,73,96,215030
1.8475,0.1760,38.4900,73,96,215033
1.8182,0.1711,38.5800,73,96,215036
1.8133,0.1662,38.5500,73,96,215041
1.8377,0.1711,38.4900,73,96,215044
1.8133,0.1662,38.6200,73,96,215047
1.8475,0.1515,38.4000,73,96,215051
1.8328,0.1711,38.4900,73,96,215054
1.8231,0.1662,38.6200,73,96,215057
1.8328,0.1711,38.5800,73,96,215061
1.8035,0.1662,38.6800,73,96,215064
1.8377,0.1808,38.4000,73,96,215067
1.8035,0.1711,38.5200,73,96,215070
1.7986,0.1662,38.5800,73,96,215074
1.8133,0.1711,38.5500,73,96,215077
1.7937,0.1711,38.0800,73,96,215080
1.8475,0.1906,38.3300,73,96,215085
1.8182,0.1760,38.4900,73,96,215088
1.8133,0.1662,38.5200,73,96,215091
1.8231,0.1760,38.5500,73,96,215095
1.8182,0.1711,38.6200,73,96,215098
1.8622,0.1808,38.4600,73,96,215101
1.8426,0.1711,38.5200,73,96,215105
1.8719,0.1662,38.4900,73,96,215108
1.8328,0.1955,38.5800,73,96,215111
1.8231,0.1613,38.6200,73,96,215114
1.8573,0.1760,38.5200,73,96,215118
1.8328,0.1711,38.5800,73,96,215121
1.8573,0.1662,38.5200,73,96,215124
1.8377,0.1613,38.5500,73,96,215129
1.8426,0.1711,38.5500,73,96,215132
1.8426,0.1711,38.4900,73,96,215135
1.8280,0.1711,38.7100,73,96,215139
1.8768,0.1662,38.4600,73,96,215142
1.8231,0.1711,38.5800,73,96,215145
1.8182,0.1613,38.5800,73,96,215149
1.8426,0.1760,38.4900,73,96,215152
1.8231,0.2199,38.6200,73,96,215155
1.8671,0.1711,38.3600,73,96,215159
1.8377,0.1662,38.5500,73,96,215162
1.8377,0.1662,38.6500,73,96,215165
1.8426,0.1808,38.5500,73,96,215169
1.8328,0.1711,37.8300,73,96,215173
1.8915,0.1760,38.3000,73,96,215176
1.8426,0.1515,38.5500,73,96,215179
1.8280,0.1662,38.5200,73,96,215183
1.8328,0.1711,38.6200,73,96,215186
1.8280,0.1857,38.6800,73,96,215189
1.8817,0.1808,38.4300,73,96,215193
1.8280,0.1906,38.5800,73,96,215196
1.8328,0.1711,38.4900,73,96,215199
1.8133,0.1711,38.5200,73,96,215203
1.8133,0.1711,38.5800,73,96,215206
1.8426,0.1760,38.4000,73,96,215209
1.8182,0.1760,38.6200,73,96,215213
1.8573,0.1613,38.4300,73,96,215217
1.8084,0.1711,38.6200,73,96,215220
1.8133,0.1662,38.5800,73,96,215223
1.8377,0.1711,38.4600,73,96,215227
1.8328,0.1613,38.5800,73,96,215230
1.8524,0.1515,38.4600,73,96,215233
1.8182,0.1662,38.6200,73,96,215237
1.8182,0.1711,38.6200,73,96,215240
1.8377,0.1760,38.4900,73,96,215243
1.8231,0.1515,38.5800,73,96,215247
1.8475,0.1711,38.3600,73,96,215250
1.8280,0.1711,38.5200,73,96,215254
1.7937,0.1711,38.6500,73,96,215258
1.7889,0.1711,38.5800,73,96,215261
1.7742,0.1955,38.6200,73,96,215264
1.8573,0.1711,38.3300,73,96,215267
1.8035,0.2102,38.5500,73,96,215271
1.8084,0.1613,38.5500,73,96,215274
1.8084,0.1711,38.5800,73,96,215277
1.8035,0.1760,38.5800,73,96,215281
1.8475,0.1857,38.3600,73,96,215284
1.8328,0.1760,38.5200,73,96,215287
1.8377,0.1662,38.4900,73,96,215291
1.8328,0.1711,38.5800,73,96,215294
1.8573,0.1711,38.5800,73,96,215298
1.8671,0.1808,38.5500,73,96,215302
1.8377,0.1662,38.5800,73,96,215305
1.8573,0.1711,38.4900,73,96,215308
1.8280,0.1662,38.5800,73,96,215311
1.8328,0.1711,38.5800,73,96,215315
1.8573,0.2053,38.4600,73,96,215318
1.8280,0.1711,38.6200,73,96,215321
1.8573,0.1662,38.4600,73,96,215325
1.8426,0.1662,38.5500,73,96,215328
1.8475,0.1662,38.6200,73,96,215331
1.8622,0.1515,38.5200,73,96,215335
1.8377,0.1955,38.6200,73,96,215339
1.8622,0.1711,38.3600,73,96,215342
1.8377,0.1711,38.5200,73,96,215346
1.8377,0.1760,38.6200,73,96,215349
1.8524,0.1760,38.4900,73,96,215352
1.8475,0.1711,38.5800,73,96,215356
1.8768,0.1760,38.3300,73,96,215359
1.8475,0.1662,38.4900,73,96,215362
1.8328,0.1662,38.6200,73,96,215365
1.8426,0.1808,38.5500,73,96,215369
1.8280,0.1711,38.7100,73,96,215372
1.8768,0.1857,38.4000,73,96,215375
1.8377,0.1760,38.5500,73,96,215379
1.8182,0.1662,38.5800,73,96,215383
1.8084,0.1711,38.5800,73,96,215386
1.8084,0.1662,38.6200,73,96,215390
1.8426,0.2151,38.4300,73,96,215393
1.8377,0.1711,38.4900,73,96,215397
1.8328,0.1711,38.4900,73,96,215400
1.8573,0.1857,38.4300,73,96,215403
1.8280,0.1711,38.5800,73,96,215407
1.8231,0.1662,38.5800,73,96,215410
1.8475,0.1760,38.5200,73,96,215413
1.8328,0.1955,38.6200,73,96,215417
1.8719,0.1760,38.3600,73,96,215420
1.8280,0.1613,38.5200,73,96,215424
1.8280,0.1711,38.6200,73,96,215427
1.8426,0.1711,38.6800,73,96,215431
1.8231,0.1711,38.6200,73,96,215434
1.8817,0.1857,38.3600,73,96,215437
1.8524,0.1711,38.4900,73,96,215441
1.8426,0.1662,38.5200,73,96,215444
1.8426,0.1515,38.5800,73,96,215447
1.8377,0.1711,37.9600,73,96,215451
1.8866,0.1857,38.4300,73,96,215454
1.8475,0.1711,38.5800,73,96,215457
1.8475,0.1613,38.4900,73,96,215461
1.8328,0.1711,38.5800,73,96,215464
1.8377,0.1711,38.6200,73,96,215468
1.8719,0.1760,38.4000,73,96,215472
1.8573,0.1711,38.5800,73,96,215475
1.8622,0.1760,38.4600,73,96,215478
1.8280,0.1711,38.6200,73,96,215481
1.8182,0.1662,38.5800,73,96,215485
1.8231,0.1711,38.5200,73,96,215488
1.8084,0.1662,38.6200,73,96,215491
1.8426,0.1662,38.7400,73,96,215495
1.8475,0.1613,38.6200,73,96,215498
1.8915,0.1711,38.6500,73,96,215501
2.0088,0.2004,38.5200,73,96,215505
2.0968,0.1711,38.6200,73,96,215508
2.2630,0.1711,38.4000,73,96,215512
2.3412,0.1808,38.4900,73,96,215516
2.3949,0.1662,38.6200,73,96,215519
2.4731,0.1760,38.5500,73,96,215522
2.5269,0.1711,38.6200,73,96,215525
2.7077,0.1760,38.4000,73,96,215529
2.7957,0.1760,38.5500,73,96,215532
2.8788,0.1662,38.5800,73,96,215535
2.8348,0.1711,38.5500,73,96,215539
2.6002,0.1711,38.5800,73,96,215542
2.3558,0.1857,38.4000,73,96,215545
1.9795,0.1808,38.5500,73,96,215549
1.6862,0.1662,38.5800,73,96,215553
1.5103,0.1711,38.6800,73,96,215556
1.4174,0.1662,38.6200,73,96,215560
1.4174,0.1808,38.4900,73,96,215563
1.4223,0.1760,38.6200,73,96,215566
1.4516,0.1515,38.5500,73,96,215569
1.5152,0.1711,38.6200,73,96,215573
1.5885,0.1662,38.5800,73,96,215576
1.6813,0.1711,38.4600,73,96,215579
1.6862,0.1711,38.4900,73,96,215583
1.7155,0.1760,38.4600,73,96,215586
1.6862,0.1662,38.5500,73,96,215589
1.6667,0.1613,38.6200,73,96,215593
1.6618,0.1711,38.4900,73,96,215597
1.6373,0.1613,38.5800,73,96,215600
1.6276,0.1515,38.4600,73,96,215604
1.5982,0.1613,38.5500,73,96,215607
1.5934,0.1711,38.6200,73,96,215610
1.6178,0.1760,38.5200,73,96,215614
1.6031,0.1662,38.5500,73,96,215617
1.6422,0.1760,38.3600,73,96,215620
1.6227,0.1662,38.5500,73,96,215623
1.6325,0.1711,38.5800,73,96,215627
1.6471,0.1711,38.5800,73,96,215630
1.6373,0.1760,38.5800,73,96,215633
1.6813,0.1760,38.3000,73,96,215638
1.6520,0.1760,38.5200,73,96,215641
1.6471,0.1808,38.5200,73,96,215644
1.6569,0.1515,38.5800,73,96,215648
1.6667,0.1711,38.6200,73,96,215651
1.7204,0.1808,38.4000,73,96,215654
1.6862,0.1711,38.7100,73,96,215658
1.7302,0.1711,38.4600,73,96,215661
1.6911,0.1711,38.6800,73,96,215664
1.7204,0.1711,38.6200,73,96,215667
1.7302,0.1760,38.4600,73,96,215671
1.7155,0.1906,38.5500,73,96,215674
1.7595,0.1711,38.4600,73,96,215677
1.7107,0.1711,38.4600,73,96,215682
1.7058,0.1711,38.6200,73,96,215685
1.7302,0.1662,38.5200,73,96,215688
1.7253,0.1662,38.5500,73,96,215692
1.7595,0.1515,38.4600,73,96,215695
1.7449,0.1711,38.5800,73,96,215698
1.7644,0.1711,38.5200,73,96,215702
1.8328,0.1711,38.5200,73,96,215705
1.7840,0.1711,38.5800,73,96,215708
1.8377,0.1711,38.3600,73,96,215712
1.8280,0.1711,38.7400,73,96,215715
1.8475,0.1711,38.5800,73,96,215718
1.8231,0.1711,37.8700,73,96,215721
1.8084,0.1760,38.5800,73,96,215726
1.8622,0.1808,38.3300,73,96,215729
1.8182,0.1760,38.4900,73,96,215732
1.8182,0.1662,38.6200,73,96,215736
1.8231,0.1711,38.5200,73,96,215739
1.8035,0.1613,38.6200,73,96,215742
1.8475,0.1808,37.8300,73,96,215746
1.8328,0.1760,38.5500,73,96,215749
1.7986,0.1662,38.5200,73,96,215752
1.7937,0.1711,38.5500,73,96,215756
1.7889,0.1711,38.6500,73,96,215759
1.8084,0.1760,38.5200,73,96,215762
1.7791,0.1711,38.5800,73,96,215766
1.7889,0.1711,38.3300,73,96,215770
1.7644,0.1613,38.5800,73,96,215773
1.7498,0.1711,38.7100,73,96,215776
1.7889,0.1760,38.4900,73,96,215780
1.7498,0.1711,38.6200,73,96,215783
1.7889,0.1760,38.4900,73,96,215786
1.7644,0.1662,38.4300,73,96,215790
1.7937,0.1613,38.6200,73,96,215793
1.8133,0.1808,38.5500,73,96,215796
1.8377,0.1711,38.5800,73,96,215800
1.8719,0.1711,38.4000,73,96,215803
1.8573,0.1760,38.5500,73,96,215806
1.8671,0.1515,38.6200,73,96,215811
1.9013,0.1808,38.5500,73,96,215814
1.9013,0.1711,38.6200,73,96,215817
1.9550,0.1808,38.3300,73,96,215820
1.9306,0.1662,38.5200,73,96,215824
1.9306,0.1662,38.5800,73,96,215827
1.9404,0.1613,38.5500,73,96,215830
1.9306,0.1711,38.5800,73,96,215834
1.9844,0.1808,38.4300,73,96,215837
1.9404,0.1760,38.5200,73,96,215840
1.9208,0.1662,38.5800,73,96,215844
1.9208,0.1711,38.6200,73,96,215847
1.8964,0.1711,38.6800,73,96,215851
1.9257,0.1808,38.4300,73,96,215855
1.8915,0.1711,38.5500,73,96,215858
1.9062,0.1808,38.4600,73,96,215861
1.8915,0.1613,38.6200,73,96,215864
1.8817,0.1711,38.6800,73,96,215868
1.9062,0.1808,38.4900,73,96,215871
1.8866,0.1711,38.5800,73,96,215874
1.8964,0.1760,38.5500,73,96,215878
1.8622,0.1711,38.5800,73,96,215881
1.8524,0.1662,38.7400,73,96,215884
1.8573,0.1662,38.5200,73,96,215888
1.8475,0.1711,38.5800,73,96,215891
1.8719,0.1760,38.4000,73,96,215895
1.8524,0.1711,38.6200,73,96,215899
1.8475,0.1662,38.5800,73,96,215902
1.8671,0.1808,38.5200,73,96,215905
1.8377,0.1711,38.6200,73,96,215908
1.8768,0.1711,38.3600,73,96,215912
1.8426,0.1711,38.4600,73,96,215915
1.8280,0.1613,38.6200,73,96,215918
1.8328,0.1711,38.6200,73,96,215922
1.8328,0.1662,38.6200,73,96,215925
1.8915,0.1857,38.3000,73,96,215928
1.8524,0.1711,38.5500,73,96,215932
1.8573,0.1662,38.5200,73,96,215936
1.8768,0.1760,38.5800,73,96,215939
1.8426,0.1711,38.6200,73,96,215943
1.8866,0.1857,38.4600,73,96,215946
1.8524,0.1711,38.5500,73,96,215949
1.8622,0.1808,38.5500,73,96,215952
1.8524,0.1711,38.5500,73,96,215956
1.8426,0.1662,38.5800,73,96,215959
1.8524,0.1760,38.5500,73,96,215962
1.8280,0.1711,38.5800,73,96,215966
1.8426,0.1711,38.4600,73,96,215969
1.8133,0.1711,38.7700,73,96,215972
1.8231,0.1711,38.6200,73,96,215976
1.8426,0.1760,38.4600,73,96,215980
1.8133,0.1711,38.5800,73,96,215983
1.8328,0.1711,38.4000,73,96,215987
1.8524,0.1711,38.4900,73,96,215990
1.8280,0.1711,38.5800,73,96,215993
1.8719,0.1711,38.5200,73,96,215997
1.8328,0.1711,38.6200,73,96,216000
1.8671,0.1808,38.3600,73,96,216003
1.8964,0.1857,38.4000,73,96,216007
1.8573,0.1808,38.5800,73,96,216010
1.8524,0.1857,38.5500,73,96,216014
1.8524,0.1711,38.5800,73,96,216017
1.8573,0.1711,38.6200,73,96,216020
1.8915,0.1808,38.4900,73,96,216024
1.8622,0.1711,38.5800,73,96,216028
1.8719,0.1613,38.4600,73,96,216031
1.8524,0.1711,38.6500,73,96,216034
1.8671,0.1613,38.5800,73,96,216038
1.8915,0.1808,38.4600,73,96,216041
1.8573,0.1760,38.5800,73,96,216044
1.8768,0.1711,38.4900,73,96,216048
1.8426,0.1564,38.5500,73,96,216051
1.8377,0.1662,38.6200,73,96,216054
1.8475,0.1808,38.5500,73,96,216058
1.8280,0.1711,38.6200,73,96,216061
1.8573,0.1711,38.4000,73,96,216065
1.8328,0.1662,38.5200,73,96,216068
1.8182,0.1711,38.5800,73,96,216072
1.8328,0.1808,38.5200,73,96,216075
1.8035,0.1711,38.5800,73,96,216078
1.8426,0.1760,38.3300,73,96,216082
1.8035,0.1662,38.5200,73,96,216085
1.7986,0.1662,38.6500,73,96,216088
1.8280,0.1760,38.5800,73,96,216092
1.7840,0.1711,38.5800,73,96,216095
1.8328,0.1808,38.3300,73,96,216098
1.8084,0.1711,38.5200,73,96,216102
1.7986,0.1662,38.5500,73,96,216105
1.7937,0.1711,38.6800,73,96,216109
1.7889,0.1711,38.6800,73,96,216112
1.8231,0.1760,38.4300,73,96,216116
1.7986,0.1808,38.4600,73,96,216119
1.8035,0.1760,38.4900,73,96,216122
1.7986,0.1711,38.5800,73,96,216126
1.7937,0.1662,38.5800,73,96,216129
1.8231,0.1760,38.4600,73,96,216132
1.8133,0.1711,38.5800,73,96,216136
1.8426,0.1906,38.5500,73,96,216139
1.8280,0.1760,38.6200,73,96,216142
1.8280,0.1662,38.5800,73,96,216146
1.8328,0.1711,38.5200,73,96,216150
1.8182,0.1711,38.5500,73,96,216153
1.8328,0.1711,38.4600,73,96,216156
1.8035,0.1711,38.5800,73,96,216160
1.8475,0.1613,38.5800,73,96,216163
1.8524,0.1711,38.5800,73,96,216166
1.8377,0.1613,38.6200,73,96,216170
1.8817,0.1711,38.3600,73,96,216173
1.8524,0.2053,38.5200,73,96,216176
1.8280,0.1711,38.5800,73,96,216180
1.8182,0.1808,38.6500,73,96,216183
1.8084,0.1711,38.6200,73,96,216186
1.8475,0.1760,38.4300,73,96,216190
1.8084,0.1711,38.5200,73,96,216194
1.8182,0.1515,38.5800,73,96,216197
1.8328,0.1857,38.6200,73,96,216200
1.8377,0.1662,38.6200,73,96,216204
1.8915,0.1857,38.5200,73,96,216207
1.8475,0.1711,38.5200,73,96,216210
1.8328,0.1662,38.5200,73,96,216214
1.8426,0.1711,38.6800,73,96,216217
1.8084,0.1711,38.5800,73,96,216220
1.8377,0.1760,38.4900,73,96,216224
1.8133,0.1711,38.6500,73,96,216227
1.8328,0.1760,38.4600,73,96,216230
1.8133,0.1711,38.5800,73,96,216235
1.8133,0.1711,38.6200,73,96,216238
1.8524,0.1760,38.4600,73,96,216241
1.8182,0.1711,38.6200,73,96,216245
1.8328,0.1662,38.4600,73,96,216248
1.7889,0.1662,38.5200,73,96,216251
1.7742,0.1711,38.6200,73,96,216254
1.7986,0.1711,38.5200,73,96,216258
1.8035,0.1711,38.7100,73,96,216261
1.8817,0.1711,38.3600,73,96,216264
1.9257,0.1711,38.5200,73,96,216268
2.0430,0.1662,38.6200,73,96,216271
2.1408,0.1760,38.5500,73,96,216274
2.2434,0.1711,38.7700,73,96,216279
2.4145,0.1906,38.4300,73,96,216282
2.4585,0.1711,38.5200,73,96,216285
2.5367,0.1711,38.6200,73,96,216289
2.6393,0.1711,38.5800,73,96,216292
2.7713,0.1662,38.6800,73,96,216295
3.0205,0.1857,38.4000,73,96,216298
3.0401,0.1760,38.5200,73,96,216302
2.9130,0.1662,37.7700,73,96,216305
2.6491,0.1711,38.5800,73,96,216308
2.3069,0.1711,38.6200,73,96,216312
2.0674,0.1857,38.4300,73,96,216315
1.7155,0.1711,38.7700,73,96,216318
1.5543,0.1808,38.4600,73,96,216323
1.4565,0.1760,38.6200,73,96,216326
1.4223,0.2004,38.6200,73,96,216329
1.4516,0.1760,38.4600,73,96,216333
1.4663,0.1711,38.3000,73,96,216336
1.5396,0.1857,38.4900,73,96,216339
1.5787,0.1711,38.6200,73,96,216342
1.6276,0.2004,38.6200,73,96,216346
1.6569,0.1711,38.5200,73,96,216349
1.6520,0.1711,38.4600,73,96,216352
1.6667,0.1760,38.4300,73,96,216356
1.6080,0.1711,38.5800,73,96,216359
1.5885,0.1711,38.5800,73,96,216363
1.5934,0.1711,38.4900,73,96,216367
1.5982,0.1613,38.6200,73,96,216370
1.6080,0.1760,38.4000,73,96,216373
1.5982,0.1711,38.5200,73,96,216377
1.6227,0.1613,38.5800,73,96,216380
1.6178,0.1711,38.3300,73,96,216383
1.6129,0.1613,38.6800,73,96,216386
1.6667,0.1515,38.3000,73,96,216390
1.6422,0.1711,38.5200,73,96,216393
1.6569,0.1662,38.6200,73,96,216396
1.6813,0.1808,38.6800,73,96,216400
1.6911,0.1711,38.6200,73,96,216403
1.7351,0.1906,38.4300,73,96,216407
1.7058,0.1711,38.5500,73,96,216411
1.6911,0.1662,38.5200,73,96,216414
1.6960,0.1711,38.5800,73,96,216417
1.6813,0.1711,38.6200,73,96,216421
1.7058,0.1760,38.5500,73,96,216424
1.7009,0.1711,38.6200,73,96,216427
1.7253,0.1760,38.4900,73,96,216431
1.7155,0.1711,38.6200,73,96,216434
1.7400,0.1711,38.6200,73,96,216437
1.7791,0.1760,38.4900,73,96,216440
1.7595,0.1711,38.5800,73,96,216444
1.7840,0.1760,38.4300,73,96,216448
1.7546,0.1613,38.5200,73,96,216451
1.7498,0.1662,38.6200,73,96,216455
1.7644,0.1760,38.5200,73,96,216458
1.7644,0.1711,38.6200,73,96,216461
1.7986,0.1711,38.4000,73,96,216465
1.7840,0.1711,38.5800,73,96,216468
1.7840,0.1711,38.5800,73,96,216471
1.8035,0.1760,38.5800,73,96,216475
1.7937,0.1711,38.6200,73,96,216478
1.8377,0.1808,38.3600,73,96,216481
1.8084,0.1662,38.4900,73,96,216484
1.8133,0.1662,38.5500,73,96,216488
1.8280,0.1711,38.5500,73,96,216492
1.8328,0.1711,38.6200,73,96,216495
1.8964,0.1808,38.3300,73,96,216499
1.8573,0.1760,38.5800,73,96,216502
1.8377,0.1760,38.5200,73,96,216505
1.8231,0.1711,38.5500,73,96,216509
1.8231,0.1711,38.6200,73,96,216512
1.8671,0.1760,38.1100,73,96,216515
1.8377,0.1711,38.5800,73,96,216519
1.8524,0.1711,38.6500,73,96,216522
1.8426,0.1711,38.5800,73,96,216525
1.8280,0.1711,38.7100,73,96,216529
1.8426,0.1711,38.5200,73,96,216532
1.8231,0.1711,38.5800,73,96,216536
1.8475,0.1711,38.4600,73,96,216539
1.8182,0.1662,38.5800,73,96,216543
1.8231,0.2199,38.5800,73,96,216546
1.8475,0.1711,38.5200,73,96,216549
1.8328,0.1711,38.5500,73,96,216553
1.8719,0.1711,38.4000,73,96,216556
1.8622,0.1711,38.6200,73,96,216559
1.8817,0.1711,38.6200,73,96,216563
1.9062,0.1760,38.5200,73,96,216566
1.9013,0.1711,38.5800,73,96,216569
1.9550,0.1760,38.4600,73,96,216573
1.9404,0.1711,38.4900,73,96,216577
1.9257,0.1662,38.6200,73,96,216580
1.9306,0.1662,38.5800,73,96,216584
1.9159,0.1711,38.6200,73,96,216587
1.9599,0.1857,38.3300,73,96,216590
1.9062,0.1711,38.5500,73,96,216593
1.8964,0.1662,38.5200,73,96,216597
1.8866,0.1711,38.5800,73,96,216600
1.8866,0.1711,38.6200,73,96,216603
1.9208,0.1711,38.4600,73,96,216607
1.8817,0.1711,38.5500,73,96,216610
1.8964,0.1711,38.4900,73,96,216613
1.8719,0.1711,38.6800,73,96,216617
1.8866,0.1711,38.5800,73,96,216621
1.8475,0.1515,38.6500,73,96,216625
1.8671,0.1857,38.4600,73,96,216628
1.8377,0.1711,38.5800,73,96,216631
1.8768,0.1760,38.3600,73,96,216635
1.8622,0.1711,38.4900,73,96,216638
1.8475,0.1760,38.6200,73,96,216641
1.8573,0.1711,38.5200,73,96,216645
1.8426,0.1613,38.5800,73,96,216648
1.8964,0.1760,38.3000,73,96,216651
1.8524,0.1760,38.5200,73,96,216654
1.8475,0.1662,38.5800,73,96,216658
1.8426,0.1711,38.6200,73,96,216662
1.8231,0.1564,38.5800,73,96,216665
1.8719,0.1857,38.4300,73,96,216669
1.8280,0.1760,38.5500,73,96,216672
1.8231,0.1662,38.5200,73,96,216675
1.8133,0.1711,38.5800,73,96,216679
1.8133,0.1662,38.5800,73,96,216682
1.8377,0.1711,38.5200,73,96,216685
1.8133,0.1515,38.5800,73,96,216689
1.8377,0.1760,38.4300,73,96,216692
1.8182,0.1711,38.7100,73,96,216695
1.8182,0.1711,38.5800,73,96,216699
1.8524,0.1760,38.6200,73,96,216702
1.8280,0.1613,38.5800,73,96,216706
1.8622,0.1662,38.4600,73,96,216709
1.8377,0.1662,38.5200,73,96,216713
1.8426,0.1662,38.6200,73,96,216716
1.8524,0.1760,38.4900,73,96,216719
1.8377,0.1711,38.6200,73,96,216723
1.8768,0.1711,38.4000,73,96,216726
1.8524,0.1711,38.5500,73,96,216729
1.8475,0.1662,38.6500,73,96,216733
1.8719,0.1808,38.5200,73,96,216736
1.8573,0.1711,38.6200,73,96,216739
1.9062,0.1760,38.3000,73,96,216743
1.8524,0.1662,38.5200,73,96,216747
1.8475,0.1760,38.5800,73,96,216750
1.8768,0.1760,38.5500,73,96,216753
1.8573,0.1662,38.5800,73,96,216757
1.9159,0.1711,38.3600,73,96,216760
1.8671,0.1760,38.5800,73,96,216763
1.8573,0.1662,38.5200,73,96,216767
1.8524,0.1711,38.7100,73,96,216770
1.8524,0.1711,38.6200,73,96,216773
1.8817,0.1760,38.4300,73,96,216777
1.8377,0.1711,38.5800,73,96,216780
1.8426,0.1711,38.4900,73,96,216783
1.8182,0.1760,38.5800,73,96,216787
1.8182,0.1662,38.6200,73,96,216791
1.8524,0.1808,38.5500,73,96,216794
1.8280,0.1711,38.5800,73,96,216798
1.8524,0.1711,38.4900,73,96,216801
1.8182,0.1760,38.5800,73,96,216804
1.8182,0.1662,38.6200,73,96,216807
1.8280,0.2053,38.5200,73,96,216811
1.8182,0.1662,38.5800,73,96,216814
1.8280,0.1711,38.4300,73,96,216817
1.7986,0.1662,38.5800,73,96,216821
1.8035,0.1662,38.6200,73,96,216824
1.8231,0.1857,38.5200,73,96,216827
1.8035,0.1662,38.6200,73,96,216832
1.8426,0.1760,38.3000,73,96,216835
1.8426,0.1711,38.5200,73,96,216838
1.8084,0.1662,38.6200,73,96,216842
1.8182,0.1760,38.5800,73,96,216845
1.8133,0.1515,38.6200,73,96,216848
1.8573,0.1808,38.3000,73,96,216851
1.8133,0.1711,38.5500,73,96,216855
1.8084,0.1662,38.5200,73,96,216858
1.8084,0.1711,38.5800,73,96,216861
1.8035,0.1515,38.6200,73,96,216865
1.8524,0.1808,38.4300,73,96,216868
1.8328,0.1711,38.4900,73,96,216871
1.8475,0.1662,38.4600,73,96,216876
1.8426,0.1711,38.5800,73,96,216879
1.8328,0.1662,38.6200,73,96,216882
1.8377,0.1760,38.5800,73,96,216886
1.8035,0.1906,38.5800,73,96,216889
1.8573,0.1711,38.4600,73,96,216892
1.8035,0.1760,38.5800,73,96,216896
1.8035,0.1662,38.6200,73,96,216899
1.8524,0.1760,38.4600,73,96,216902
1.8280,0.1711,38.5800,73,96,216905
1.8671,0.1662,37.6800,73,96,216909
1.8622,0.1662,38.5500,73,96,216912
1.8573,0.1662,38.5800,73,96,216915
1.8573,0.1808,38.5200,73,96,216920
1.8328,0.1711,38.6200,73,96,216923
1.8524,0.1711,38.3600,73,96,216926
1.8231,0.1711,38.5500,73,96,216930
1.8133,0.1662,38.5800,73,96,216933
1.8377,0.1760,38.5500,73,96,216936
1.8280,0.1711,38.6800,73,96,216940
1.8817,0.2248,38.3600,73,96,216943
1.8573,0.1662,38.6200,73,96,216946
1.8671,0.1662,38.5800,73,96,216949
1.8817,0.1711,38.6800,73,96,216953
1.8817,0.1662,38.6200,73,96,216956
1.9208,0.1808,38.4300,73,96,216960
1.8622,0.1808,38.5500,73,96,216964
1.8426,0.1662,38.5200,73,96,216967
1.8328,0.1662,38.6800,73,96,216970
1.8377,0.1662,38.6200,73,96,216974
1.8671,0.1808,38.4000,73,96,216977
1.8475,0.1711,38.5800,73,96,216980
1.8622,0.1711,38.4600,73,96,216984
1.8377,0.1613,38.6200,73,96,216987
1.8328,0.1662,38.5800,73,96,216990
1.8524,0.1857,38.4900,73,96,216993
1.8231,0.1711,38.5800,73,96,216997
1.8426,0.1662,38.4600,73,96,217000
1.8377,0.1662,38.5800,73,96,217004
1.8035,0.1662,38.5800,73,96,217008
1.8426,0.1711,38.4600,73,96,217011
1.8035,0.1711,38.5800,73,96,217014
1.8328,0.1662,38.4000,73,96,217018
1.7937,0.1711,38.8400,73,96,217021
1.7986,0.1613,38.6200,73,96,217024
1.8133,0.1711,38.5500,73,96,217028
1.7986,0.1760,38.6200,73,96,217031
1.8524,0.1760,38.3300,73,96,217034
1.8328,0.1613,38.5200,73,96,217038
1.8231,0.1662,38.5800,73,96,217041
1.8475,0.1711,38.5800,73,96,217044
1.8377,0.1662,38.5800,73,96,217048
1.8964,0.1808,38.4000,73,96,217052
1.8573,0.1711,38.5500,73,96,217055
1.8475,0.1662,38.0500,73,96,217058
1.8475,0.2004,38.6200,73,96,217062
1.8475,0.1613,38.5800,73,96,217065
1.8964,0.1711,38.4600,73,96,217068
1.8719,0.1760,38.5800,73,96,217072
1.8866,0.1662,38.4900,73,96,217075
1.8719,0.1662,38.5200,73,96,217078
1.8817,0.1662,38.5800,73,96,217082
1.9062,0.1711,38.5200,73,96,217085
1.8817,0.1662,38.5800,73,96,217089
1.9110,0.1711,38.4900,73,96,217092
1.8719,0.1613,38.5800,73,96,217096
1.8622,0.1662,38.5800,73,96,217099
1.8817,0.1760,38.4900,73,96,217102
1.8475,0.1662,38.6200,73,96,217106
1.8719,0.1662,38.4300,73,96,217109
1.8475,0.1662,38.4900,73,96,217112
1.8280,0.1662,38.5800,73,96,217116
1.8377,0.1711,38.5200,73,96,217119
1.8231,0.1662,38.5800,73,96,217122
1.8719,0.1711,38.3600,73,96,217126
1.8426,0.1857,38.5200,73,96,217129
1.8231,0.1662,38.6200,73,96,217133
1.8377,0.1711,38.5800,73,96,217136
1.8328,0.1613,38.5800,73,96,217140
1.9062,0.1711,38.3300,73,96,217143
1.9159,0.1564,38.5500,73,96,217146
1.9844,0.1613,38.5500,73,96,217150
2.0919,0.1662,38.4900,73,96,217153
2.2239,0.1613,38.5800,73,96,217156
2.4194,0.1760,38.4900,73,96,217160
2.5024,0.1613,38.5800,73,96,217163
2.6344,0.1613,38.4900,73,96,217166
2.7273,0.1613,38.5800,73,96,217170
2.8739,0.1613,38.5800,73,96,217174
3.1183,0.1711,38.4000,73,96,217177
3.2063,0.1662,38.5800,73,96,217180
3.1672,0.1662,38.4900,73,96,217184
2.8837,0.1662,38.5800,73,96,217187
2.5464,0.1613,38.5800,73,96,217190
2.2336,0.1662,38.5200,73,96,217194
1.9159,0.1613,38.5800,73,96,217197
1.7009,0.1906,38.4900,73,96,217200
1.5249,0.1613,38.5500,73,96,217204
1.4370,0.1613,38.5800,73,96,217207
1.4223,0.1662,38.4600,73,96,217210
1.4125,0.1613,38.1500,73,96,217214
1.4663,0.1711,38.3600,73,96,217218
1.4761,0.1613,38.5800,73,96,217221
1.5347,0.1564,38.6200,73,96,217225
1.5738,0.1711,38.6800,73,96,217228
1.5249,0.1760,38.6200,73,96,217232
1.5200,0.1613,38.6200,73,96,217235
1.5591,0.1711,38.4000,73,96,217238
1.5396,0.1613,38.5800,73,96,217241
1.5543,0.1613,38.4600,73,96,217245
1.5836,0.1662,38.5800,73,96,217248
1.5591,0.1515,38.6200,73,96,217251
1.5982,0.1760,38.4600,73,96,217255
1.5836,0.1613,38.6200,73,96,217259
1.6031,0.1662,38.4900,73,96,217262
1.6178,0.1613,38.6200,73,96,217266
1.5885,0.1613,38.8100,73,96,217269
1.6178,0.1613,38.5200,73,96,217272
1.6080,0.1613,38.5500,73,96,217276
1.6325,0.1564,38.4300,73,96,217279
1.6178,0.1613,38.6800,73,96,217282
1.6276,0.1564,38.6200,73,96,217286
1.6569,0.1515,38.5200,73,96,217289
1.6716,0.1613,38.5800,73,96,217292
1.7009,0.1662,38.3300,73,96,217295
1.6911,0.1662,38.5500,73,96,217299
1.6813,0.1613,38.6200,73,96,217303
1.6960,0.1613,38.5800,73,96,217306
1.7009,0.1613,38.5800,73,96,217310
1.7498,0.1711,38.3300,73,96,217313
1.7155,0.1613,38.4900,73,96,217316
1.7107,0.1564,38.5500,73,96,217320
1.7204,0.1662,38.5800,73,96,217323
1.7302,0.1613,38.7400,73,96,217326
1.7889,0.1760,38.4300,73,96,217330
1.7644,0.1662,38.5500,73,96,217333
1.7791,0.1613,38.4900,73,96,217336
1.7693,0.1613,38.5800,73,96,217339
1.7693,0.1613,38.5800,73,96,217344
1.8133,0.1711,38.4900,73,96,217347
1.7889,0.1613,38.3600,73,96,217350
1.8084,0.1564,38.4600,73,96,217354
1.7937,0.1613,38.2700,73,96,217357
1.7986,0.1564,38.6800,73,96,217360
1.8328,0.1662,38.4900,73,96,217364
1.8133,0.1662,38.5800,73,96,217367
1.8231,0.1613,38.4600,73,96,217370
1.7937,0.1564,38.5500,73,96,217374
1.7840,0.1613,38.6200,73,96,217377
1.7937,0.1906,38.5200,73,96,217380
1.7644,0.1564,38.5800,73,96,217383
1.7840,0.1613,38.3600,73,96,217388
1.7498,0.1564,38.5200,73,96,217391
1.7400,0.1613,38.6200,73,96,217394
1.7595,0.1662,38.6200,73,96,217398
1.7400,0.1564,38.6800,73,96,217401
1.7889,0.1662,38.3000,73,96,217404
