ecg,gsr,temp,hr,spo2,timest
1.8768,0.4399,39.1600,72,99,397347
1.8866,0.4399,39.1600,72,99,397350
1.9110,0.4497,39.1200,72,99,397355
1.8817,0.4399,39.2200,72,99,397358
1.9062,0.4594,39.0900,72,99,397361
1.8768,0.4399,39.1600,72,99,397365
1.8964,0.4643,39.1600,72,99,397368
1.9208,0.4497,39.0900,72,99,397371
1.8964,0.4399,39.0900,72,99,397374
1.9306,0.4497,39.0000,72,99,397378
1.9062,0.4252,39.0600,72,99,397381
1.8915,0.4399,39.1900,72,99,397384
1.9159,0.4448,39.0900,72,99,397388
1.9208,0.4399,39.1600,72,99,397391
1.9697,0.4545,38.9000,72,99,397394
1.9110,0.4350,39.1600,72,99,397399
1.9159,0.4399,39.1900,72,99,397402
1.9257,0.4399,39.1900,72,99,397405
1.9159,0.4350,39.1600,72,99,397408
1.9844,0.4545,38.8400,72,99,397412
1.9404,0.4448,39.0600,72,99,397415
1.9355,0.4399,39.1600,72,99,397418
1.9257,0.4448,39.1600,72,99,397422
1.9208,0.4399,39.1600,72,99,397425
1.9844,0.4448,39.0300,72,99,397428
1.9453,0.4448,39.2200,72,99,397432
1.9453,0.4399,39.0600,72,99,397435
1.9257,0.4399,39.3800,72,99,397438
1.9257,0.4301,39.1600,72,99,397443
1.9599,0.4545,39.0300,72,99,397446
1.9257,0.4399,39.1600,72,99,397449
1.9599,0.4497,39.0600,72,99,397453
1.9257,0.4399,39.2200,72,99,397456
1.9208,0.4399,39.1900,72,99,397459
1.9355,0.4448,39.0000,72,99,397462
1.9306,0.4741,39.1600,72,99,397466
1.9746,0.4252,39.0300,72,99,397469
1.9306,0.4399,39.1900,72,99,397472
1.9355,0.4399,39.1600,72,99,397476
1.9404,0.4448,38.9600,72,99,397479
1.9110,0.4301,39.1600,72,99,397483
1.9550,0.4497,38.9300,72,99,397487
1.9208,0.4497,39.1600,72,99,397490
1.9355,0.4399,39.1900,72,99,397493
1.9355,0.4643,39.0900,72,99,397497
1.9208,0.4399,39.1900,72,99,397500
1.9892,0.4545,38.9000,72,99,397503
1.9697,0.4497,39.0900,72,99,397506
1.9941,0.4399,39.1600,72,99,397510
2.0137,0.4594,39.1600,72,99,397513
2.0186,0.4350,39.1900,72,99,397516
2.0870,0.4643,39.0000,72,99,397520
2.0235,0.4692,39.1200,72,99,397523
2.0528,0.4399,39.0900,72,99,397527
2.0430,0.4399,39.3800,72,99,397531
2.0479,0.4399,39.1600,72,99,397534
2.0870,0.4448,39.0300,72,99,397537
2.0577,0.4448,39.1200,72,99,397541
2.0674,0.4448,39.0300,72,99,397544
2.0528,0.4252,39.1600,72,99,397547
2.0430,0.4399,39.2200,72,99,397550
2.0577,0.4497,39.1900,72,99,397554
2.0186,0.4399,39.1600,72,99,397557
2.0186,0.4545,39.0300,72,99,397560
1.9550,0.4252,39.1600,72,99,397564
1.9404,0.4399,39.1600,72,99,397568
1.9355,0.4497,39.0600,72,99,397571
1.8768,0.4399,39.1600,72,99,397575
1.8817,0.4448,39.0300,72,99,397578
1.8426,0.4350,39.0300,72,99,397581
1.8328,0.4399,39.1600,72,99,397584
1.8426,0.4497,39.1200,72,99,397588
1.8426,0.4399,39.1900,72,99,397591
1.8866,0.4545,38.9000,72,99,397594
1.8915,0.4888,39.0000,71,99,397598
1.8475,0.4448,39.0900,71,99,397601
1.8231,0.4350,39.0900,71,99,397605
1.7889,0.4350,39.1600,71,99,397608
1.7791,0.4399,39.0600,71,99,397612
1.8133,0.4545,39.0600,71,99,397616
1.7889,0.4448,39.1600,71,99,397619
1.8084,0.4448,39.2200,71,99,397622
1.7889,0.4350,39.1600,71,99,397626
1.7986,0.4399,39.2800,71,99,397629
1.8377,0.4545,39.0600,71,99,397632
1.8182,0.4399,39.1600,71,99,397636
1.8719,0.4497,39.0600,71,99,397639
1.8377,0.4350,39.1600,71,99,397642
1.8377,0.4399,39.1600,71,99,397645
1.8524,0.4448,39.1200,71,99,397649
1.8524,0.4350,39.1900,71,99,397652
1.8964,0.4448,38.9600,71,99,397656
1.8475,0.4643,39.1200,71,99,397660
1.8328,0.4399,39.1600,71,99,397663
1.8084,0.4545,39.0600,71,99,397666
1.7791,0.4448,39.1600,71,99,397670
1.9013,0.4545,38.9000,71,99,397673
2.0528,0.4399,39.1200,71,99,397676
2.4047,0.4350,39.1600,71,99,397680
2.8592,0.4448,39.1600,71,99,397683
3.3724,0.4350,39.1900,71,99,397686
4.0176,0.4643,38.9300,71,99,397690
4.3597,0.4448,39.0300,71,99,397693
4.4575,0.4350,39.1600,71,99,397697
4.0958,0.4497,39.1200,71,99,397700
3.5142,0.4350,39.1600,71,99,397704
2.9228,0.4545,39.0000,71,99,397707
2.3021,0.4545,39.1200,71,99,397710
1.9062,0.4448,39.0300,71,99,397714
1.6276,0.4399,39.1600,71,99,397717
1.4712,0.4936,39.1900,71,99,397720
1.4174,0.4497,39.1600,71,99,397724
1.4076,0.4399,39.1600,71,99,397727
1.4125,0.4497,39.0300,71,99,397730
1.4272,0.4399,39.1600,71,99,397734
1.4761,0.4399,39.1900,71,99,397737
1.5103,0.4399,39.0600,71,99,397741
1.5152,0.4350,39.1600,71,99,397744
1.5543,0.4448,39.1200,71,99,397748
1.5543,0.4399,39.1600,71,99,397751
1.5787,0.4399,39.1600,71,99,397754
1.6129,0.4497,39.0900,71,99,397758
1.6129,0.4399,39.1900,71,99,397761
1.6618,0.4594,38.9600,71,99,397764
1.6422,0.4497,39.1900,71,99,397768
1.6471,0.4399,39.1600,71,99,397771
1.6764,0.4448,39.1200,71,99,397774
1.6960,0.4448,39.1600,71,99,397778
1.7546,0.4545,38.8700,71,99,397782
1.7204,0.4545,39.1200,71,99,397785
1.7302,0.4350,39.1200,71,99,397789
1.7351,0.4399,39.1200,71,99,397792
1.7742,0.4350,39.1900,71,99,397795
1.8084,0.4594,39.0000,71,99,397798
1.7889,0.4497,39.1200,71,99,397802
1.7986,0.4448,39.0600,71,99,397805
1.7742,0.4448,39.1600,71,99,397808
1.7889,0.4399,39.1900,71,99,397812
1.8231,0.4643,39.0900,71,99,397815
1.8133,0.4350,39.1900,71,99,397818
1.8475,0.4497,39.1200,71,99,397822
1.8133,0.4399,39.1900,71,99,397826
1.8280,0.4399,39.1900,71,99,397829
1.8573,0.4448,39.0900,71,99,397833
1.8377,0.4497,39.2800,71,99,397836
1.8866,0.4448,39.0000,71,99,397839
1.8671,0.4399,39.0900,71,99,397843
1.8671,0.4399,39.3500,71,99,397846
1.8768,0.4448,39.1200,71,99,397849
1.8866,0.4399,39.0300,71,99,397852
1.9453,0.4497,38.9300,71,99,397856
1.9110,0.4399,39.1600,71,99,397859
1.9306,0.4350,39.1900,71,99,397862
1.9453,0.4448,39.1200,71,99,397867
1.9306,0.4350,39.1600,71,99,397870
1.9941,0.4545,38.9300,71,99,397873
1.9648,0.4448,39.0600,71,99,397877
1.9746,0.4350,39.1600,71,99,397880
1.9795,0.4448,39.3800,71,99,397883
1.9844,0.4399,39.1900,71,99,397887
2.0528,0.4594,38.9300,71,99,397890
2.0186,0.4497,39.1900,71,99,397893
2.0528,0.4399,39.0600,71,99,397896
2.0528,0.4399,39.1200,71,99,397900
2.0723,0.4497,39.1900,71,99,397903
2.1261,0.4545,39.0000,71,99,397906
2.1017,0.4692,39.1600,71,99,397911
2.1652,0.4252,39.0300,71,99,397914
2.1652,0.4399,39.2500,71,99,397917
2.2092,0.4448,39.1900,71,99,397921
2.2483,0.4448,39.0900,71,99,397924
2.2630,0.4448,39.1900,71,99,397927
2.3314,0.4497,39.0600,71,99,397931
2.3167,0.4399,39.2800,71,99,397934
2.3656,0.4399,39.1900,71,99,397937
2.4194,0.4448,39.0600,71,99,397940
2.4194,0.4399,39.2800,71,99,397944
2.4780,0.4448,38.9600,71,99,397947
2.4536,0.4399,39.2800,71,99,397950
2.4829,0.4741,39.1600,71,99,397955
2.5171,0.4497,39.0900,71,99,397958
2.4927,0.4301,39.1900,71,99,397961
2.5513,0.4545,38.9000,71,99,397965
2.4829,0.4448,39.0300,71,99,397968
2.4438,0.4399,39.1900,71,99,397971
2.4194,0.4448,39.1900,71,99,397975
2.3754,0.4399,39.1900,71,99,397978
2.3803,0.4643,38.9300,71,99,397981
2.2336,0.4448,39.1200,71,99,397985
2.1505,0.4399,39.1200,71,99,397988
2.0674,0.4448,39.1600,71,99,397991
1.9892,0.4497,39.2200,71,99,397995
1.9697,0.4545,39.0300,71,99,397999
1.8719,0.4497,39.1200,71,99,398002
1.8182,0.4399,39.0600,71,99,398005
1.7302,0.4399,39.1600,71,99,398009
1.6911,0.4399,39.1600,71,99,398012
1.6716,0.4594,39.1600,71,99,398015
1.6276,0.4399,39.1200,71,99,398019
1.6325,0.4497,38.3300,71,99,398022
1.5836,0.4399,39.1900,71,99,398025
1.5787,0.4399,39.1600,71,99,398029
1.5885,0.4497,39.0300,71,99,398032
1.5591,0.4399,39.1900,71,99,398035
1.5934,0.4497,39.0600,71,99,398039
1.5787,0.4399,39.0900,71,99,398043
1.5738,0.4399,38.7700,71,99,398046
1.5885,0.4448,39.1200,71,99,398049
1.5982,0.4399,39.1900,71,99,398053
1.6471,0.4497,38.9300,71,99,398056
1.6178,0.4399,39.1200,71,99,398059
1.6325,0.4741,39.1600,71,99,398063
1.6471,0.4399,39.1200,71,99,398066
1.6325,0.4692,39.1600,71,99,398069
1.6960,0.4594,38.9000,71,99,398073
1.6813,0.4448,39.0300,71,99,398076
1.7204,0.4399,39.1200,71,99,398080
1.7058,0.4448,39.1600,71,99,398083
1.7009,0.4350,39.1600,71,99,398087
1.7595,0.4545,39.0300,71,99,398090
1.7449,0.4448,39.0900,71,99,398093
1.7595,0.4350,39.0900,71,99,398097
1.7546,0.4399,39.1600,71,99,398100
1.7791,0.4741,39.1600,71,99,398103
1.8133,0.4545,38.9600,71,99,398107
1.7791,0.4350,39.1900,71,99,398110
1.8231,0.4448,39.0600,71,99,398113
1.8084,0.4399,39.2200,71,99,398117
1.8231,0.4399,39.1900,71,99,398120
1.8475,0.4448,39.4100,71,99,398124
1.8377,0.4497,39.1600,71,99,398128
1.8768,0.4448,39.0300,71,99,398131
1.8426,0.4350,39.1900,71,99,398134
1.8719,0.4399,39.1600,71,99,398137
1.8866,0.4497,39.0300,71,99,398141
1.8719,0.4350,39.1900,71,99,398144
1.9062,0.4497,38.9600,71,99,398147
1.9013,0.4399,39.1600,71,99,398151
1.9013,0.4399,39.1900,71,99,398154
1.9306,0.4692,39.0900,71,99,398157
1.9159,0.4350,39.1900,71,99,398161
1.9746,0.4545,39.3200,71,99,398164
1.9306,0.4497,39.0600,71,99,398168
1.9159,0.4399,39.1600,71,99,398172
1.9159,0.4399,39.1200,71,99,398175
1.9355,0.4399,39.1900,71,99,398178
1.9941,0.4594,39.0000,71,99,398181
1.9257,0.4448,39.1200,71,99,398185
1.9257,0.4399,39.0900,71,99,398188
1.9355,0.4350,39.1600,71,99,398191
1.9110,0.4399,39.1900,71,99,398195
1.9599,0.4545,39.0300,71,99,398198
1.9404,0.4252,39.1200,71,99,398201
1.9501,0.4448,39.0600,71,99,398205
1.9062,0.4643,39.1600,71,99,398209
1.9062,0.4252,39.1600,71,99,398213
1.8964,0.4399,39.2200,71,99,398216
1.9013,0.4497,39.0600,71,99,398219
1.8719,0.4399,39.2500,71,99,398223
1.9159,0.4545,39.0000,71,99,398226
1.8817,0.4448,39.0900,71,99,398229
1.8622,0.4399,39.1900,71,99,398232
1.8622,0.4252,39.1200,71,99,398236
1.8622,0.4399,39.2800,71,99,398239
1.9306,0.4545,38.8700,71,99,398242
1.8817,0.4497,39.1200,71,99,398246
1.9013,0.4399,39.1600,71,99,398249
1.8964,0.4448,39.2800,71,99,398253
1.8817,0.4448,39.1600,71,99,398257
1.9404,0.4594,39.0000,71,99,398260
1.9110,0.4448,39.0300,71,99,398263
1.9159,0.4301,39.1200,71,99,398267
1.8964,0.4399,39.1600,71,99,398270
1.8915,0.4399,39.1900,71,99,398273
1.9257,0.4497,39.0900,71,99,398277
1.9013,0.4448,39.0900,71,99,398280
1.9501,0.4497,39.0300,71,99,398283
1.9062,0.4399,39.1600,71,99,398286
1.9110,0.4448,39.1600,71,99,398290
1.9355,0.4497,39.0300,71,99,398294
1.8915,0.4399,39.1600,71,99,398297
1.9404,0.4448,39.0300,71,99,398301
1.9110,0.4399,39.1200,71,99,398304
1.9550,0.4399,39.1900,71,99,398307
1.9306,0.4448,39.0900,71,99,398311
1.9159,0.4399,39.1600,71,99,398314
1.9501,0.4497,38.9600,71,99,398317
1.9062,0.4643,39.1600,71,99,398321
1.9404,0.4399,39.1600,71,99,398324
1.9404,0.4497,39.3200,71,99,398327
1.9062,0.4399,39.1600,71,99,398330
1.9550,0.4545,38.9000,71,99,398334
1.9062,0.4497,39.1200,71,99,398338
1.9257,0.4399,39.1900,71,99,398341
1.9306,0.4448,39.1200,71,99,398345
1.9306,0.4399,39.1900,71,99,398348
1.9795,0.4643,38.9600,71,99,398351
1.9257,0.4252,39.1200,71,99,398355
1.9159,0.4399,39.0600,71,99,398358
1.9159,0.4399,39.1600,71,99,398361
1.9306,0.4497,39.1600,71,99,398365
1.9697,0.4545,39.0000,71,99,398368
1.9110,0.4399,39.1600,71,99,398371
1.9257,0.4448,39.0600,71,99,398375
1.8964,0.4399,39.1900,71,99,398379
1.9062,0.4399,39.1600,71,99,398382
1.9355,0.4448,39.0900,71,99,398385
1.9257,0.4399,39.1600,71,99,398389
1.9453,0.4497,39.0300,71,99,398392
1.8915,0.4399,39.1600,71,99,398395
1.8964,0.4399,39.1900,71,99,398399
1.9110,0.4448,39.0600,71,99,398402
1.9013,0.4399,39.1600,71,99,398405
1.9404,0.4497,38.9600,71,99,398409
1.8915,0.4399,39.1600,71,99,398412
1.8964,0.4350,39.1600,71,99,398415
1.9062,0.4497,39.1900,71,99,398419
1.8964,0.4252,39.1900,71,99,398423
1.9501,0.4497,38.2100,71,99,398426
1.9159,0.4594,39.0600,71,99,398429
1.9013,0.4399,39.1600,71,99,398433
1.9013,0.4497,39.1200,71,99,398436
1.9062,0.4399,39.2200,71,99,398439
1.9746,0.4643,38.8100,71,99,398443
1.9257,0.4252,39.1200,71,99,398446
1.9208,0.4350,39.1600,71,99,398449
1.9062,0.4399,39.1900,71,99,398453
1.8964,0.4399,39.1900,71,99,398456
1.9453,0.4741,39.0300,71,99,398459
1.9257,0.4448,39.1900,71,99,398464
1.9404,0.4399,39.0300,71,99,398467
1.9062,0.4448,39.1600,71,99,398470
1.9062,0.4448,39.1600,71,99,398474
1.9355,0.4497,39.1900,71,99,398477
1.9159,0.4399,39.1600,71,99,398480
1.9648,0.4497,39.0300,71,99,398483
1.9550,0.4399,39.2500,71,99,398487
1.9795,0.4448,39.1600,71,99,398490
2.0088,0.4497,39.0300,71,99,398493
1.9746,0.4399,39.1600,71,99,398497
2.0137,0.4448,39.0000,71,99,398500
1.9990,0.4399,39.0900,71,99,398503
2.0039,0.4399,39.2200,71,99,398508
2.0430,0.4497,39.1200,71,99,398511
2.0088,0.4399,39.1600,71,99,398514
2.0577,0.4497,39.3200,71,99,398518
2.0088,0.4399,39.1600,71,99,398521
2.0186,0.4252,39.1900,71,99,398524
2.0332,0.4448,39.1200,71,99,398527
2.0186,0.4350,39.1600,71,99,398531
2.0430,0.4545,38.9000,71,99,398534
1.9697,0.4448,39.0900,71,99,398537
1.9648,0.4399,39.2200,71,99,398541
1.9257,0.4448,39.1600,71,99,398544
1.9110,0.4350,39.1600,71,99,398547
1.9159,0.4643,38.9600,71,99,398552
1.8328,0.4790,39.0900,71,99,398555
1.8133,0.4399,39.0900,71,99,398558
1.8035,0.4399,39.1600,71,99,398561
1.8182,0.4497,39.1900,71,99,398565
1.8573,0.4545,39.0000,71,99,398568
1.8084,0.4399,39.1600,71,99,398571
1.8280,0.4448,39.0600,71,99,398575
1.8035,0.4497,39.1900,71,99,398578
1.8133,0.4399,39.1600,71,99,398581
1.8475,0.4448,39.0600,71,99,398585
1.8377,0.4497,39.1600,71,99,398588
1.8671,0.4497,39.0600,71,99,398592
1.8182,0.4399,39.1600,71,99,398596
1.8377,0.4399,39.1900,71,99,398599
1.8622,0.4497,39.0600,71,99,398602
1.8573,0.4350,39.1900,71,99,398606
1.8817,0.4497,39.0000,71,99,398609
1.8328,0.4350,39.1900,71,99,398612
1.8377,0.4399,39.1600,71,99,398615
1.8475,0.4497,39.0900,71,99,398619
1.8475,0.4399,39.1600,71,99,398622
1.9062,0.4497,38.9000,71,99,398625
1.8719,0.4448,39.0900,71,99,398629
1.8622,0.4399,39.1900,71,99,398632
1.8768,0.4350,39.1600,71,99,398636
1.8622,0.4350,39.1900,71,99,398640
1.9257,0.4888,38.9000,71,99,398643
1.8768,0.4399,39.1200,71,99,398646
1.8719,0.4448,39.0900,71,99,398650
1.8475,0.4497,39.1600,71,99,398653
1.7937,0.4399,39.2500,71,99,398656
1.7986,0.4545,39.0300,71,99,398659
1.7644,0.4448,39.1200,71,99,398663
1.8231,0.4448,39.0300,71,99,398666
1.9746,0.4399,39.1900,71,99,398669
2.2483,0.4448,39.1600,71,99,398673
2.7028,0.4497,39.1600,71,99,398676
3.2063,0.4399,39.1600,71,99,398680
3.8074,0.4399,39.0600,71,99,398684
4.2375,0.4399,39.1600,71,99,398687
4.4233,0.4399,39.1600,71,99,398690
4.2522,0.4545,39.0600,71,99,398694
3.6461,0.4448,39.1600,71,99,398697
3.0450,0.4497,39.0000,71,99,398700
2.4194,0.4399,39.0900,71,99,398703
1.9697,0.4399,39.3500,71,99,398707
1.6716,0.4448,39.0900,71,99,398710
1.4614,0.4399,39.1900,71,99,398713
1.3783,0.4497,38.9300,71,99,398717
1.3050,0.4399,39.1600,71,99,398721
1.3245,0.4399,39.1600,71,99,398724
1.3636,0.4448,39.1200,71,99,398728
1.3930,0.4399,39.2200,71,99,398731
1.4614,0.4497,38.8700,71,99,398734
1.4565,0.4399,39.1200,71,99,398738
1.4907,0.4350,39.2200,71,99,398741
1.5054,0.4399,39.2200,71,99,398744
1.5298,0.4350,39.1600,71,99,398748
1.5738,0.4594,39.0300,71,99,398751
1.5396,0.4545,39.1200,71,99,398754
1.5494,0.4252,39.0900,71,99,398757
1.5591,0.4448,39.1200,71,99,398761
1.6031,0.4399,39.1900,71,99,398765
1.6373,0.4545,39.0900,71,99,398768
1.6031,0.4399,39.1200,71,99,398772
1.6422,0.4448,39.0300,71,99,398775
1.6276,0.4741,39.1900,71,99,398778
1.6520,0.4399,39.1600,71,99,398782
1.6813,0.4741,39.1200,71,99,398785
1.6960,0.4350,39.1600,71,99,398788
1.7253,0.4448,39.0300,71,99,398792
1.7009,0.4350,39.1900,71,99,398795
1.7107,0.4399,39.1900,71,99,398798
1.7400,0.4497,39.0600,71,99,398801
1.7351,0.4350,39.1600,71,99,398806
1.7791,0.4448,39.0900,71,99,398809
1.7498,0.4252,39.1600,71,99,398812
1.7644,0.4399,39.3800,71,99,398816
1.7986,0.4497,39.1200,71,99,398819
1.7937,0.4399,39.1900,71,99,398823
1.7986,0.4399,39.1600,71,99,398826
1.8524,0.4594,39.0000,71,99,398829
1.8035,0.4497,39.2800,71,99,398833
1.8133,0.4497,39.0600,71,99,398836
1.7986,0.4399,39.1600,71,99,398839
1.7986,0.4399,39.1200,71,99,398843
1.8377,0.4497,39.0900,71,99,398846
1.8524,0.4399,39.2200,71,99,398850
1.9013,0.4448,39.0000,71,99,398853
1.8817,0.4350,39.1900,71,99,398857
1.9013,0.4399,39.2800,71,99,398860
1.9257,0.4301,39.0600,71,99,398863
1.9355,0.4399,39.1600,71,99,398867
1.9844,0.4448,39.0000,71,99,398870
1.9746,0.4399,39.1600,71,99,398873
1.9990,0.4350,39.1600,71,99,398877
2.0332,0.4497,39.0600,71,99,398880
2.0283,0.4350,38.9600,71,99,398883
2.0968,0.4497,38.9300,71,99,398887
2.1017,0.4252,39.0600,71,99,398891
2.1261,0.4399,39.1900,71,99,398894
2.1799,0.4497,39.1200,71,99,398897
2.1799,0.4399,39.1600,71,99,398901
2.2678,0.4594,38.9000,71,99,398904
2.2483,0.4399,39.1600,71,99,398907
2.3021,0.4399,39.1200,71,99,398911
2.3363,0.4350,39.1200,71,99,398914
2.3558,0.4399,39.1600,71,99,398917
2.4487,0.4790,38.9300,71,99,398921
2.4291,0.4497,39.0900,71,99,398924
2.4536,0.4399,39.0900,71,99,398927
2.4682,0.4399,39.1600,71,99,398931
2.4927,0.4399,39.2200,71,99,398935
2.5806,0.4545,39.0600,71,99,398938
2.5171,0.4252,39.1200,71,99,398941
2.5269,0.4448,39.0300,71,99,398945
2.5024,0.4252,39.1900,71,99,398948
2.4927,0.4399,39.0900,71,99,398951
2.4878,0.4497,39.0000,71,99,398955
2.3851,0.4399,39.2200,71,99,398958
2.3558,0.4497,39.0600,71,99,398961
2.2483,0.4350,39.1600,71,99,398965
2.1799,0.4399,39.1600,71,99,398968
2.1163,0.4448,39.1200,71,99,398971
2.0283,0.4448,39.1600,71,99,398976
1.9697,0.4643,39.0000,71,99,398979
1.8573,0.4399,39.2500,71,99,398982
1.7937,0.4399,39.1900,71,99,398986
1.7595,0.4545,39.0000,71,99,398989
1.6960,0.4643,39.1600,71,99,398992
1.7009,0.4545,38.9600,71,99,398995
1.6227,0.4350,39.1200,71,99,398999
1.6080,0.4350,39.1600,71,99,399002
1.5934,0.4448,39.1200,71,99,399005
1.5738,0.4399,39.1900,71,99,399009
1.6276,0.4594,38.8700,71,99,399012
1.5885,0.4497,39.0600,71,99,399015
1.5689,0.4252,39.1200,71,99,399020
1.5689,0.4350,39.1200,71,99,399023
1.5836,0.4350,39.1600,71,99,399026
1.6373,0.4497,38.9600,71,99,399030
1.6080,0.4399,39.1600,71,99,399033
1.6276,0.4399,39.0900,71,99,399036
1.6129,0.4399,39.1600,71,99,399039
1.6227,0.4399,39.1900,71,99,399043
1.6618,0.4497,39.0600,71,99,399046
1.6716,0.4399,39.1600,71,99,399049
1.7107,0.4692,39.0300,71,99,399053
1.7155,0.4399,39.1600,71,99,399056
1.6960,0.4643,39.1600,71,99,399059
1.7107,0.4448,39.0600,71,99,399064
1.7155,0.4399,38.8100,71,99,399067
1.7644,0.4399,39.0600,71,99,399070
1.7595,0.4399,39.2500,71,99,399074
1.7791,0.4545,39.1200,71,99,399077
1.7986,0.4497,39.0600,71,99,399080
1.7693,0.4448,39.1600,71,99,399084
1.8280,0.4545,38.9300,71,99,399087
1.8133,0.4448,39.0600,71,99,399090
1.8084,0.4399,39.1900,71,99,399093
1.8280,0.4448,39.0900,71,99,399097
1.8231,0.4399,39.1600,71,99,399100
1.8768,0.4545,38.9300,71,99,399104
1.8475,0.4350,39.1200,71,99,399108
1.8524,0.4350,39.1600,71,99,399111
1.8671,0.4399,39.1200,71,99,399114
1.8622,0.4399,39.1600,71,99,399118
1.9208,0.4594,38.9600,71,99,399121
1.8964,0.4448,39.0900,71,99,399124
1.9110,0.4399,39.0600,71,99,399128
1.9062,0.4448,39.1200,71,99,399131
1.9110,0.4399,39.1600,71,99,399134
1.9501,0.4594,39.0900,71,99,399137
1.9453,0.4350,39.1600,71,99,399141
1.9453,0.4448,39.0600,71,99,399144
1.9599,0.4350,39.1600,71,99,399148
1.9501,0.4350,39.1600,71,99,399152
1.9746,0.4497,39.0300,71,99,399155
1.9404,0.4399,39.1600,71,99,399158
1.9746,0.4448,39.0300,71,99,399162
1.9355,0.4399,39.1200,71,99,399165
1.9501,0.4399,39.3500,71,99,399168
1.9697,0.4448,39.0900,71,99,399172
1.9648,0.4399,39.2500,71,99,399175
1.9990,0.4692,38.9600,71,99,399178
1.9501,0.4399,39.2500,71,99,399181
1.9599,0.4643,39.1600,71,99,399185
1.9892,0.4448,39.0900,71,99,399188
1.9697,0.4399,39.2500,71,99,399192
2.0283,0.4594,38.9000,71,99,399196
1.9697,0.4399,39.0900,71,99,399199
1.9746,0.4399,39.1600,71,99,399202
1.9697,0.4448,39.1200,71,99,399206
1.9697,0.4399,39.1600,71,99,399209
2.0430,0.4643,38.9600,71,99,399212
1.9941,0.4497,39.0900,71,99,399216
1.9746,0.4399,39.0900,71,99,399219
1.9648,0.4399,39.1200,71,99,399222
1.9697,0.4350,39.1900,71,99,399226
2.0137,0.4545,39.0000,71,99,399229
1.9697,0.4790,39.1600,71,99,399233
1.9892,0.4448,39.0600,71,99,399236
1.9501,0.4399,39.1600,71,99,399240
1.9795,0.4399,39.1900,71,99,399243
1.9746,0.4448,39.1200,71,99,399246
1.9795,0.4350,39.1600,71,99,399250
2.0137,0.4497,39.0600,71,99,399253
1.9697,0.4399,39.0900,71,99,399256
1.9697,0.4350,39.1600,71,99,399260
1.9795,0.4448,39.0600,71,99,399263
1.9648,0.4399,39.0900,71,99,399266
1.9990,0.4497,38.9600,71,99,399270
1.9746,0.4399,39.2200,71,99,399273
2.0039,0.4350,39.1600,71,99,399277
1.9844,0.4497,39.1200,71,99,399280
1.9501,0.4350,39.1900,71,99,399284
2.0088,0.4497,38.9300,71,99,399287
1.9795,0.4448,39.0600,71,99,399290
1.9648,0.4399,39.1900,71,99,399294
1.9648,0.4399,38.9000,71,99,399297
1.9550,0.4301,39.1600,71,99,399300
2.0088,0.4545,38.9000,71,99,399304
1.9453,0.4399,39.1600,71,99,399307
1.9550,0.4399,39.1200,71,99,399310
1.9599,0.4399,39.1900,71,99,399314
1.9453,0.4399,39.1600,71,99,399318
1.9892,0.4545,39.0000,71,99,399321
1.9599,0.4448,39.1200,71,99,399324
1.9648,0.4350,39.0600,71,99,399328
1.9501,0.4399,39.1900,71,99,399331
1.9648,0.4399,39.1600,71,99,399334
1.9990,0.4497,39.0900,71,99,399338
1.9795,0.4643,39.1600,71,99,399341
2.0235,0.4497,39.0600,71,99,399344
2.0186,0.4448,39.1600,71,99,399348
2.0528,0.4350,39.1900,71,99,399351
2.0870,0.4497,39.0600,71,99,399354
2.0479,0.4350,39.1900,71,99,399358
2.0821,0.4497,39.0600,71,99,399362
2.0430,0.4350,39.1200,71,99,399365
2.0479,0.4399,39.1900,71,99,399368
2.0723,0.4497,39.0900,71,99,399372
2.0968,0.4350,39.1600,71,99,399375
2.0821,0.4448,38.9600,71,99,399378
2.0235,0.4448,39.1200,71,99,399382
2.0137,0.4448,39.1900,71,99,399385
2.0381,0.4497,39.1900,71,99,399388
1.9941,0.4741,39.1900,71,99,399392
2.0283,0.4497,38.9300,71,99,399395
1.9453,0.4350,39.0900,71,99,399398
1.9257,0.4448,39.1600,71,99,399401
1.8964,0.4448,39.3200,71,99,399406
1.8671,0.4399,39.1900,71,99,399409
1.9062,0.4643,38.8700,71,99,399412
1.8524,0.4497,39.0600,71,99,399416
1.8280,0.4252,39.1200,71,99,399419
1.8182,0.4350,39.1600,71,99,399422
1.8280,0.4252,39.1600,71,99,399426
1.8719,0.4545,39.1600,71,99,399429
1.8133,0.4448,39.1200,71,99,399433
1.8035,0.4399,39.1600,71,99,399436
1.8231,0.4448,39.0300,71,99,399439
1.7742,0.4350,39.1600,71,99,399443
1.7644,0.4448,39.1600,71,99,399447
1.7791,0.4448,39.0300,71,99,399450
1.7644,0.4399,39.1600,71,99,399454
1.8182,0.4497,38.9600,71,99,399457
1.7937,0.4741,39.1600,71,99,399460
1.8084,0.4399,39.1600,71,99,399463
1.8133,0.4594,39.1600,71,99,399467
1.7986,0.4399,39.1900,71,99,399470
1.8622,0.4741,38.9000,71,99,399473
1.8280,0.4252,39.0900,71,99,399477
1.8328,0.4350,39.1600,71,99,399480
1.8622,0.4399,39.1900,71,99,399483
1.8328,0.4399,39.0900,71,99,399488
1.8964,0.4839,39.0000,71,99,399491
1.8377,0.4448,39.1600,71,99,399494
1.8231,0.4399,39.0900,71,99,399498
1.7986,0.4448,39.1600,71,99,399501
1.7644,0.4399,39.1900,71,99,399504
1.8328,0.4594,39.0600,71,99,399508
1.9648,0.4448,39.0900,71,99,399511
2.2825,0.4448,39.0900,71,99,399514
2.6882,0.4448,39.1600,71,99,399517
3.2209,0.4399,39.1600,71,99,399521
3.7879,0.4448,39.0600,71,99,399524
4.2326,0.4350,39.1900,71,99,399527
4.4770,0.4497,39.0300,71,99,399532
4.1789,0.4643,39.1600,71,99,399535
3.6608,0.4350,39.1900,71,99,399538
3.0401,0.4497,39.0900,71,99,399542
2.3998,0.4399,39.1200,71,99,399545
1.9941,0.4448,39.0000,71,99,399548
1.6276,0.4399,39.1200,71,99,399551
1.4418,0.4350,39.1900,71,99,399555
1.3587,0.4448,39.1600,71,99,399558
1.3294,0.4399,39.1900,71,99,399561
1.3636,0.4497,38.9300,71,99,399565
1.3832,0.4399,39.1200,71,99,399568
1.3978,0.4399,39.1900,71,99,399571
1.4418,0.4448,39.1600,71,99,399576
1.4663,0.4252,39.1600,71,99,399579
1.5298,0.4594,38.8700,71,99,399582
1.5005,0.4399,39.0000,71,99,399586
1.5200,0.4350,39.2200,71,99,399589
1.5298,0.4350,39.1200,71,99,399592
1.5543,0.4350,39.1900,71,99,399596
1.6129,0.4643,39.0000,71,99,399599
1.5934,0.4497,39.1600,71,99,399602
1.6080,0.4399,39.1600,71,99,399605
1.6031,0.4399,39.1200,71,99,399609
1.6276,0.4399,39.4100,71,99,399612
1.6764,0.4545,38.9600,71,99,399616
1.6618,0.4399,39.2800,71,99,399620
1.7009,0.4399,39.0600,71,99,399623
1.6813,0.4399,39.1900,71,99,399626
1.6911,0.4399,39.2200,71,99,399630
1.7204,0.4399,39.1200,71,99,399633
1.7253,0.4399,39.1200,71,99,399636
1.7791,0.4350,39.0000,71,99,399640
1.7400,0.4399,39.1600,71,99,399643
1.7546,0.4448,39.1900,71,99,399646
1.7791,0.4448,39.0000,71,99,399649
1.7742,0.4399,39.1900,71,99,399653
1.8280,0.4399,38.9600,71,99,399656
1.7937,0.4350,39.4100,71,99,399660
1.8182,0.4399,39.1900,71,99,399664
1.8280,0.4448,39.1200,71,99,399667
1.8573,0.4399,39.2500,71,99,399670
1.8866,0.4545,39.0000,71,99,399674
1.8622,0.4399,39.0900,71,99,399677
1.8719,0.4350,39.1900,71,99,399680
1.8719,0.4448,39.1200,71,99,399684
1.8866,0.4350,39.1600,71,99,399687
1.9453,0.4594,38.9300,71,99,399690
1.9013,0.4399,39.1200,71,99,399694
1.9257,0.4399,39.1900,71,99,399697
1.9208,0.4350,39.1600,71,99,399700
1.9257,0.4399,39.1900,71,99,399704
1.9599,0.4643,39.0300,71,99,399708
1.9501,0.4399,39.1600,71,99,399711
1.9892,0.4936,39.0300,71,99,399714
1.9697,0.4350,39.1600,71,99,399718
1.9892,0.4350,39.1600,71,99,399721
2.0137,0.4399,39.0900,71,99,399724
1.9941,0.4399,39.1900,71,99,399728
2.0479,0.4448,39.0300,71,99,399731
2.0381,0.4350,39.1600,71,99,399734
2.0723,0.4350,38.6800,71,99,399738
2.1114,0.4399,39.1200,71,99,399741
2.1065,0.4399,39.2800,71,99,399745
2.1652,0.4985,38.9600,71,99,399748
2.1701,0.4252,39.0600,71,99,399752
2.1945,0.4399,39.0300,71,99,399755
2.2532,0.4448,39.1200,71,99,399758
2.2727,0.4399,39.2800,71,99,399762
2.3558,0.4497,38.9000,71,99,399765
2.3216,0.4399,39.1600,71,99,399768
2.3705,0.4301,39.2500,71,99,399772
2.3998,0.4252,39.1200,71,99,399775
2.4194,0.4350,39.0900,71,99,399778
2.5122,0.4643,38.8700,71,99,399782
2.4829,0.4448,39.0600,71,99,399785
2.4878,0.4350,39.0900,71,99,399789
2.4927,0.4448,39.1900,71,99,399792
2.5073,0.4399,39.3200,71,99,399796
2.5709,0.4594,39.0300,71,99,399799
2.5073,0.4252,39.1200,71,99,399802
2.4927,0.4399,39.0600,71,99,399806
2.4291,0.4350,39.1600,71,99,399809
2.3851,0.4399,39.1600,71,99,399812
2.3705,0.4497,39.0000,71,99,399816
2.2483,0.4399,39.1600,71,99,399819
2.2043,0.4448,39.0300,71,99,399822
2.0772,0.4399,39.1600,71,99,399825
1.9892,0.4399,39.1600,71,99,399830
1.9306,0.4399,39.4800,71,99,399833
1.8768,0.4399,39.1900,71,99,399836
1.8328,0.4399,39.0300,71,99,399840
1.7400,0.4399,39.1900,71,99,399843
1.7155,0.4350,39.1900,71,99,399846
1.6667,0.4448,39.0000,71,99,399850
1.6227,0.4643,39.1600,71,99,399853
1.6422,0.4497,38.9600,71,99,399856
1.5982,0.4350,39.1900,71,99,399860
1.6031,0.4399,39.1900,71,99,399863
1.5982,0.4448,39.1200,71,99,399866
1.5738,0.4350,39.1600,71,99,399870
1.6276,0.4790,38.8700,71,99,399874
1.6129,0.4448,39.0600,71,99,399877
1.6129,0.4350,39.1600,71,99,399880
1.6325,0.4350,39.1600,71,99,399884
1.6227,0.4350,39.1600,71,99,399887
1.6813,0.4594,38.9600,71,99,399890
1.6471,0.4399,39.0300,71,99,399894
1.6716,0.4399,39.0600,71,99,399897
1.6716,0.4399,39.1600,71,99,399900
1.6716,0.4399,39.2800,71,99,399904
1.7302,0.4497,39.0600,71,99,399907
1.7058,0.4448,38.5500,71,99,399910
1.7400,0.4448,39.0600,71,99,399915
1.7351,0.4399,39.1600,71,99,399918
1.7449,0.4301,39.1900,71,99,399921
1.7595,0.4399,39.0900,71,99,399924
1.7449,0.4399,39.1600,71,99,399928
1.7791,0.4448,39.0600,71,99,399931
1.7644,0.4350,39.1600,71,99,399934
1.7840,0.4350,39.1900,71,99,399938
1.8133,0.4497,39.0300,71,99,399941
1.8084,0.4350,39.1600,71,99,399944
1.8182,0.4448,38.9600,71,99,399948
1.7986,0.4839,39.0300,71,99,399951
1.8035,0.4252,39.1600,71,99,399954
1.8328,0.4350,39.1200,71,99,399959
1.8426,0.4399,39.1600,71,99,399962
1.8915,0.4545,38.9000,71,99,399965
1.8328,0.4399,39.1200,71,99,399969
1.8475,0.4350,39.6400,71,99,399972
1.8671,0.4448,39.1600,71,99,399975
1.8622,0.4399,39.1600,71,99,399978
1.9208,0.4594,38.9300,71,99,399982
1.8866,0.4448,39.1200,71,99,399985
1.8866,0.4252,39.0900,71,99,399988
1.8768,0.4399,39.2200,71,99,399992
1.8817,0.4301,39.1600,71,99,399995
1.9355,0.4545,39.0000,71,99,399998
1.9062,0.4448,39.0900,71,99,400003
1.9208,0.4350,39.0300,71,99,400006
1.8964,0.4399,39.1900,71,99,400009
1.9110,0.4301,39.1600,71,99,400013
1.9404,0.4448,39.0300,71,99,400016
1.9159,0.4399,39.1600,71,99,400019
1.9453,0.4497,39.0600,71,99,400022
1.9013,0.4350,39.1200,71,99,400026
1.8915,0.4350,39.4100,71,99,400029
1.9159,0.4399,39.0900,71,99,400032
1.9159,0.4399,39.1600,71,99,400036
1.9453,0.4448,38.8700,71,99,400039
1.9550,0.4545,38.9000,71,99,400044
1.9013,0.4399,39.0600,71,99,400047
1.8915,0.4350,39.1900,71,99,400050
1.8671,0.4350,39.1600,71,99,400054
1.8475,0.4350,38.9600,71,99,400057
1.9062,0.4545,38.9300,71,99,400060
1.8719,0.4497,39.1200,71,99,400064
1.8622,0.4350,39.0900,71,99,400067
1.8573,0.4252,39.1600,71,99,400070
1.8622,0.4350,39.1900,71,99,400073
1.8915,0.4448,39.0000,71,99,400077
1.8622,0.4399,39.2800,71,99,400080
1.8964,0.4497,39.0600,71,99,400083
1.8768,0.4399,39.1900,71,99,400088
1.8719,0.4399,39.1900,71,99,400091
1.8964,0.4448,39.0600,71,99,400094
1.8915,0.4399,39.1600,71,99,400098
1.9355,0.4399,39.0600,71,99,400101
1.9062,0.4399,39.1900,71,99,400104
1.9110,0.4350,39.1600,71,99,400108
1.9208,0.4399,39.0600,71,99,400111
1.9013,0.4399,39.1600,71,99,400114
1.9306,0.4448,39.0000,71,99,400117
1.9110,0.4399,39.2200,71,99,400121
1.9306,0.4350,39.0900,71,99,400124
1.9453,0.4497,39.0600,71,99,400128
1.9159,0.4399,39.1600,71,99,400132
1.9648,0.4497,38.9000,71,99,400135
1.9404,0.4252,39.0900,71,99,400138
1.9306,0.4350,39.1900,71,99,400142
1.9453,0.4399,39.1900,71,99,400145
1.9453,0.4350,39.1600,71,99,400148
1.9844,0.4594,38.8700,71,99,400152
1.9110,0.4399,39.1200,71,99,400155
1.9159,0.4350,39.0900,71,99,400158
1.9257,0.4448,39.1900,71,99,400161
1.9208,0.4350,39.1600,71,99,400165
1.9697,0.4594,39.0000,71,99,400168
1.9306,0.4448,39.0900,71,99,400172
1.9257,0.4399,39.0600,71,99,400176
1.9062,0.4399,39.0900,71,99,400179
1.9159,0.4399,39.1600,71,99,400182
1.9453,0.4497,39.0900,71,99,400186
1.9110,0.4448,39.1900,71,99,400189
1.9306,0.4448,39.0300,71,99,400192
1.9013,0.4448,39.1600,71,99,400196
1.9159,0.4252,39.2200,71,99,400199
1.9501,0.4497,39.0000,71,99,400202
1.9257,0.4350,39.1900,71,99,400205
1.9550,0.4448,39.0600,71,99,400209
1.9062,0.4350,39.0900,71,99,400212
1.9062,0.4448,39.1600,71,99,400216
1.9208,0.4399,39.0900,71,99,400220
1.9208,0.4350,39.1200,71,99,400223
1.9599,0.4497,38.9600,71,99,400226
1.9110,0.4399,39.1600,71,99,400230
1.9110,0.4350,39.1600,71,99,400233
1.9306,0.4448,39.0900,71,99,400236
1.9110,0.4350,39.1600,71,99,400239
1.9648,0.4497,38.9600,71,99,400243
1.9257,0.4399,39.1200,71,99,400246
1.9355,0.4643,39.1600,71,99,400249
1.9306,0.4448,39.1200,71,99,400253
1.9110,0.4448,39.1900,71,99,400257
1.9746,0.4643,38.9300,71,99,400260
1.9355,0.4448,39.1200,71,99,400264
1.9355,0.4350,39.0900,71,99,400267
1.9453,0.4448,39.1600,71,99,400270
1.9697,0.4252,39.1600,71,99,400274
2.0283,0.4497,39.0300,71,99,400277
2.0137,0.4252,39.1200,71,99,400280
2.0430,0.4399,39.1200,71,99,400284
2.0186,0.4399,39.1600,71,99,400287
2.0186,0.4350,39.1600,71,99,400290
2.0283,0.4448,39.1200,71,99,400293
2.0186,0.4399,39.1600,71,99,400297
2.0626,0.4448,39.0300,71,99,400301
2.0332,0.4399,39.1900,71,99,400304
2.0528,0.4399,39.1600,71,99,400308
2.0479,0.4448,39.0600,71,99,400311
2.0283,0.4399,39.1600,71,99,400314
2.0577,0.4448,39.0600,71,99,400318
2.0235,0.4399,39.1900,71,99,400321
2.0283,0.4350,39.1600,71,99,400324
2.0332,0.4448,39.0600,71,99,400327
1.9746,0.4399,39.1600,71,99,400331
1.9844,0.4448,38.9300,71,99,400334
1.9306,0.4448,39.0300,71,99,400337
1.9013,0.4448,39.1900,71,99,400342
1.8964,0.4497,39.0900,71,99,400345
1.8768,0.4350,39.1900,71,99,400348
1.9159,0.4252,38.9000,71,99,400352
1.8475,0.4399,39.1200,71,99,400355
1.8573,0.4350,39.2200,71,99,400358
1.8671,0.4399,39.1600,71,99,400362
1.8671,0.4252,39.1600,71,99,400365
1.9208,0.4594,38.9000,71,99,400368
1.8768,0.4594,39.0600,71,99,400371
1.8915,0.4399,39.0900,71,99,400375
1.8622,0.4399,39.1600,71,99,400378
1.8964,0.4350,39.2500,71,99,400381
1.9159,0.4497,39.0300,71,99,400386
1.8768,0.4399,39.1200,71,99,400389
1.9110,0.4350,39.0900,71,99,400392
1.8524,0.4399,39.1200,71,99,400396
1.8573,0.4399,39.1600,71,99,400399
1.9013,0.4497,39.0300,71,99,400402
1.8622,0.4350,39.1900,71,99,400406
1.9062,0.4448,39.1200,71,99,400409
1.8622,0.4643,39.1200,71,99,400412
1.8622,0.4350,39.1900,71,99,400416
1.8817,0.4497,39.0900,71,99,400419
1.8768,0.4399,39.1900,71,99,400422
1.9159,0.4448,39.0000,71,99,400425
1.8768,0.4399,39.1200,71,99,400430
1.8768,0.4350,39.1600,71,99,400433
1.8964,0.4448,39.0900,71,99,400436
1.8671,0.4350,39.1900,71,99,400440
1.8964,0.4497,38.9000,71,99,400443
1.8182,0.4350,39.1200,71,99,400446
1.8084,0.4350,39.1600,71,99,400450
1.8280,0.4448,39.1200,71,99,400453
1.9404,0.4350,39.1600,71,99,400456
2.3021,0.4545,38.9300,71,99,400460
2.6295,0.4448,39.1200,71,99,400463
3.1232,0.4350,39.0900,71,99,400466
3.6608,0.4252,39.1200,71,99,400470
4.1642,0.4399,38.9000,71,99,400474
4.5064,0.4643,38.9600,71,99,400477
4.2815,0.4399,39.1200,71,99,400480
3.8270,0.4399,39.0300,71,99,400484
3.1476,0.4448,39.1600,71,99,400487
2.5318,0.4350,39.1900,71,99,400490
2.0723,0.4545,39.0600,71,99,400494
1.7204,0.4350,39.1600,71,99,400497
1.5298,0.4448,39.0600,71,99,400500
1.4027,0.4399,39.2200,71,99,400503
1.3734,0.4252,39.1600,71,99,400507
1.3832,0.4399,39.0600,71,99,400510
1.4223,0.4350,39.1200,71,99,400514
1.4418,0.4448,39.0300,71,99,400518
1.4614,0.4350,39.1900,71,99,400521
1.5054,0.4350,39.1600,71,99,400524
1.5396,0.4448,39.1200,71,99,400528
1.5347,0.4399,39.1600,71,99,400531
1.5787,0.4497,38.9000,71,99,400534
1.5738,0.4448,39.0600,71,99,400538
1.5787,0.4399,39.1600,71,99,400541
1.6227,0.4497,39.1200,71,99,400544
1.6227,0.4350,39.2500,71,99,400548
1.6764,0.4545,38.9300,71,99,400551
1.6325,0.4399,39.0600,71,99,400555
1.6520,0.4301,39.1600,71,99,400558
1.6764,0.4399,39.1200,71,99,400562
1.6813,0.4399,39.2200,71,99,400565
1.7449,0.4594,38.9600,71,99,400568
1.7155,0.4448,39.0900,71,99,400572
1.7155,0.4399,39.0900,71,99,400575
1.7155,0.4399,39.1600,71,99,400578
1.7351,0.4399,39.1900,71,99,400582
1.7791,0.4497,39.3200,71,99,400585
1.7546,0.4399,39.1900,71,99,400588
1.7840,0.4448,39.0300,71,99,400592
1.7595,0.4399,39.1600,71,99,400595
1.7791,0.4350,39.1900,71,99,400599
1.8182,0.4545,39.0300,71,99,400602
1.8328,0.4350,39.1900,71,99,400606
1.8475,0.4448,39.0600,71,99,400609
1.8084,0.4350,39.0300,71,99,400612
1.8182,0.4594,39.1600,71,99,400616
1.8426,0.4399,39.1900,71,99,400619
1.8475,0.4399,39.1900,71,99,400622
1.8915,0.4448,39.0000,71,99,400626
1.8573,0.4448,39.1200,71,99,400629
1.8719,0.4399,39.1900,71,99,400632
1.8817,0.4448,39.1200,71,99,400636
1.9013,0.4350,39.1600,71,99,400640
1.9306,0.4497,38.4300,71,99,400643
1.9159,0.4399,39.0900,71,99,400647
1.9159,0.4350,39.1900,71,99,400650
1.9159,0.4497,39.1600,71,99,400653
1.9599,0.4350,39.1900,71,99,400657
1.9697,0.4350,39.1600,71,99,400660
1.9990,0.4497,38.9600,71,99,400663
1.9697,0.4399,39.1600,71,99,400667
2.0186,0.4497,39.0600,71,99,400670
2.0186,0.4350,39.1600,71,99,400673
2.0283,0.4252,39.1900,71,99,400677
2.0674,0.4350,39.0900,71,99,400680
2.0919,0.4497,39.1600,71,99,400684
2.1701,0.4448,39.0600,71,99,400688
2.1652,0.4350,39.1600,71,99,400691
2.2141,0.4741,39.1600,71,99,400694
2.2630,0.4448,39.0300,71,99,400698
2.2727,0.4399,39.1600,71,99,400701
2.3460,0.4545,38.9600,71,99,400704
2.3509,0.4350,39.1900,71,99,400707
2.3998,0.4643,39.1600,71,99,400711
2.4438,0.4448,39.1600,71,99,400714
2.4487,0.4350,39.1600,71,99,400717
2.5367,0.4497,38.9000,71,99,400721
2.5073,0.4448,39.0900,71,99,400724
2.5024,0.4350,39.1600,71,99,400728
2.5220,0.4399,39.1600,71,99,400732
2.5220,0.4350,39.1600,71,99,400735
2.5709,0.4643,38.8700,71,99,400738
2.4682,0.4399,39.0900,71,99,400741
2.4242,0.4350,39.1900,71,99,400745
2.3705,0.4448,39.1600,71,99,400748
2.3021,0.4350,39.1900,71,99,400751
2.2776,0.4545,39.0000,71,99,400755
2.1652,0.4448,39.1200,71,99,400758
2.0821,0.4399,39.0300,71,99,400761
1.9795,0.4399,39.1200,71,99,400765
1.9159,0.4350,39.1600,71,99,400769
1.8719,0.4448,39.0600,71,99,400772
1.7937,0.4399,39.1900,71,99,400776
1.7546,0.4448,39.0000,71,99,400779
1.6813,0.4350,39.1600,71,99,400782
1.6667,0.4252,39.1900,71,99,400785
1.6618,0.4497,39.0300,71,99,400789
1.6178,0.4399,39.1600,71,99,400792
1.6276,0.4399,39.0300,71,99,400795
1.5836,0.4301,39.0900,71,99,400799
1.5836,0.4252,39.1600,71,99,400802
1.6325,0.4448,39.0900,71,99,400805
1.6080,0.4399,39.1600,71,99,400809
1.6520,0.4497,39.0300,71,99,400813
1.6178,0.4448,39.1600,71,99,400816
1.6178,0.4350,39.1600,71,99,400820
1.6422,0.4594,39.0900,71,99,400823
1.6618,0.4350,39.1600,71,99,400826
1.7009,0.4545,38.9000,71,99,400829
1.6764,0.4741,39.1200,71,99,400833
1.7009,0.4399,39.2200,71,99,400836
1.7058,0.4448,39.0300,71,99,400839
1.7058,0.4350,39.1900,71,99,400843
1.7742,0.4594,38.9300,71,99,400846
1.7498,0.4448,39.0300,71,99,400849
1.7449,0.4252,39.1200,71,99,400854
1.7791,0.4350,39.1900,71,99,400857
1.7693,0.4350,39.2500,71,99,400860
1.8084,0.4643,39.0000,71,99,400864
1.7791,0.4399,39.1600,71,99,400867
1.8084,0.4448,39.0000,71,99,400870
1.7937,0.4399,39.1600,71,99,400873
1.7937,0.4350,39.1600,71,99,400877
1.8133,0.4497,39.0900,71,99,400880
1.8133,0.4350,39.1600,71,99,400883
1.8524,0.4497,38.9600,71,99,400887
1.8377,0.4399,39.1900,71,99,400890
1.8377,0.4350,39.4100,71,99,400893
1.8524,0.4399,39.0600,71,99,400898
1.8377,0.4399,39.2800,71,99,400901
1.8719,0.4448,38.9600,71,99,400904
1.8622,0.4399,39.2200,71,99,400908
1.8866,0.4643,39.1600,71,99,400911
1.9062,0.4497,39.0600,71,99,400914
1.8671,0.4448,39.1600,71,99,400918
1.9159,0.4497,38.9000,71,99,400921
1.8866,0.4448,39.0000,71,99,400924
1.8817,0.4399,39.1200,71,99,400927
1.9013,0.4399,39.1200,71,99,400931
1.9062,0.4350,39.1600,71,99,400934
1.9648,0.4594,38.9000,71,99,400937
1.8915,0.4399,39.4400,71,99,400942
1.9013,0.4301,39.1900,71,99,400945
1.9159,0.4399,39.1200,71,99,400948
1.9110,0.4350,39.1600,71,99,400952
1.9648,0.4545,39.0000,71,99,400955
1.9208,0.4448,38.9600,71,99,400958
1.9257,0.4399,39.0600,71,99,400961
1.9257,0.4350,39.1600,71,99,400965
1.9257,0.4399,39.1600,71,99,400968
1.9795,0.4448,39.0600,71,99,400971
1.9550,0.4399,39.1600,71,99,400975
1.9746,0.4594,38.9600,71,99,400978
1.9453,0.4350,39.1900,71,99,400982
1.9550,0.4350,39.1600,71,99,400986
2.0235,0.4252,39.0900,71,99,400989
1.9648,0.4399,39.0900,71,99,400992
1.9990,0.4350,39.0300,71,99,400996
1.9550,0.4350,39.0900,71,99,400999
1.9550,0.4350,39.1900,71,99,401002
1.9746,0.4350,39.0900,71,99,401005
1.9746,0.4399,39.1900,71,99,401009
2.0088,0.4448,38.9300,71,99,401012
1.9941,0.4399,39.0600,71,99,401015
1.9599,0.4350,39.1600,71,99,401019
1.9795,0.4497,39.0600,71,99,401022
1.9844,0.4350,39.1600,71,99,401026
2.0186,0.4497,38.9000,71,99,401030
1.9648,0.4301,39.0900,71,99,401033
1.9648,0.4350,39.1600,71,99,401036
1.9599,0.4399,39.0000,71,99,401039
1.9501,0.4399,39.1200,71,99,401043
1.9990,0.4643,38.9300,71,99,401046
1.9648,0.4448,39.0000,71,99,401049
1.9892,0.4301,39.1200,71,99,401053
1.9453,0.4399,39.1600,71,99,401056
1.9453,0.4350,39.1900,71,99,401059
1.9746,0.4497,39.4400,71,99,401063
1.9355,0.4399,39.1200,71,99,401067
1.9599,0.4399,39.0300,71,99,401070
1.9355,0.4448,39.1600,71,99,401074
1.9306,0.4350,39.1900,71,99,401077
1.9550,0.4497,39.0000,71,99,401080
1.9355,0.4399,39.1600,71,99,401084
1.9648,0.4448,39.0300,71,99,401087
1.9306,0.4350,39.1900,71,99,401090
1.9404,0.4350,39.1600,71,99,401093
1.9453,0.4399,39.0300,71,99,401097
1.9257,0.4399,39.1900,71,99,401100
1.9501,0.4399,39.0300,71,99,401103
1.9208,0.4350,39.1600,71,99,401107
1.9453,0.4350,39.1600,71,99,401111
1.9599,0.4448,39.0900,71,99,401114
1.9257,0.4350,39.1600,71,99,401118
1.9648,0.4497,38.9000,71,99,401121
1.9355,0.4448,39.0600,71,99,401124
1.9306,0.4350,39.2800,71,99,401128
1.9404,0.4252,39.1200,71,99,401131
1.9306,0.4399,39.2500,71,99,401134
1.9746,0.4790,38.8400,71,99,401137
1.9110,0.4399,39.0900,71,99,401141
1.9062,0.4301,39.2500,71,99,401144
1.9159,0.4350,39.1600,71,99,401147
1.9110,0.4350,39.1900,71,99,401152
1.9795,0.4594,38.9600,71,99,401155
1.9355,0.4448,39.0900,71,99,401158
1.9257,0.4399,39.1600,71,99,401162
1.9159,0.4350,39.1900,71,99,401165
1.9159,0.4350,39.0600,71,99,401168
1.9501,0.4448,39.0600,71,99,401172
1.9257,0.4399,39.1600,71,99,401175
1.9404,0.4545,39.0300,71,99,401178
1.9159,0.4350,39.1900,71,99,401181
1.9355,0.4399,39.1600,71,99,401185
1.9746,0.4497,39.0600,71,99,401188
1.9453,0.4448,39.1600,71,99,401191
1.9746,0.4252,39.0300,71,99,401196
1.9355,0.4350,39.0600,71,99,401199
1.9355,0.4350,39.1600,71,99,401202
1.9501,0.4692,39.0600,71,99,401206
1.9355,0.4350,39.1600,71,99,401209
1.9795,0.4448,38.9600,71,99,401212
1.9355,0.4301,39.0900,71,99,401216
1.9306,0.4252,39.1600,71,99,401219
1.9501,0.4448,39.1200,71,99,401222
1.9550,0.4350,39.1600,71,99,401225
2.0283,0.4497,38.9000,71,99,401229
1.9892,0.4594,39.0900,71,99,401232
2.0039,0.4350,39.1900,71,99,401235
1.9844,0.4399,39.1900,71,99,401240
1.9648,0.4399,39.1600,71,99,401243
2.0332,0.4643,38.9300,71,99,401246
1.9990,0.4497,39.1900,71,99,401250
2.0039,0.4350,39.0900,71,99,401253
1.9990,0.4399,38.5800,71,99,401256
1.9990,0.4350,39.1600,71,99,401260
2.0479,0.4594,39.0000,70,99,401263
1.9795,0.4252,39.0600,70,99,401267
1.9208,0.4399,39.1900,70,99,401270
1.9208,0.4448,39.0300,70,99,401273
1.8426,0.4301,39.1200,70,99,401276
1.8280,0.4350,39.1600,70,99,401281
1.8280,0.4252,39.0600,70,99,401284
1.7937,0.4399,39.3500,70,99,401287
1.8524,0.4497,38.9600,70,99,401291
1.7986,0.4350,39.1600,70,99,401294
1.8328,0.4399,39.1900,70,99,401297
1.8280,0.4448,39.1200,70,99,401301
1.8231,0.4350,39.1600,70,99,401304
1.8524,0.4545,39.0900,70,99,401307
1.8182,0.4448,39.0600,70,99,401311
1.8182,0.4252,39.1600,70,99,401314
1.8280,0.4497,39.1900,70,99,401317
1.8377,0.4350,39.1900,70,99,401321
1.8866,0.4594,38.9600,70,99,401325
1.8377,0.4448,39.1200,70,99,401328
1.8426,0.4350,39.5100,70,99,401331
1.8426,0.4350,39.1600,70,99,401335
1.8475,0.4350,39.1600,70,99,401338
1.8719,0.4448,39.0000,70,99,401341
1.8475,0.4350,39.1200,70,99,401345
1.8573,0.4399,39.0600,70,99,401348
1.8280,0.4448,39.1600,70,99,401351
1.8426,0.4350,39.2200,70,99,401355
1.8719,0.4448,39.0900,70,99,401358
1.8426,0.4399,39.1900,70,99,401361
1.8719,0.4448,39.0900,70,99,401366
1.8377,0.4350,39.1600,70,99,401369
1.8524,0.4350,39.2500,70,99,401372
1.8817,0.4497,39.0900,70,99,401375
1.8573,0.4350,39.0300,70,99,401379
1.8622,0.4692,38.9300,70,99,401382
1.7937,0.4399,39.0600,70,99,401385
1.7546,0.4350,39.1600,70,99,401389
1.7840,0.4448,39.1200,70,99,401392
1.8768,0.4350,39.1600,70,99,401395
2.1603,0.4448,38.9000,70,99,401399
2.4731,0.4399,39.0900,70,99,401402
2.9374,0.4350,39.1600,70,99,401405
3.4995,0.4399,39.1200,70,99,401410
4.0078,0.4350,39.2500,70,99,401413
4.4966,0.4545,38.8700,70,99,401416
4.3744,0.4399,39.0900,70,99,401419
3.9492,0.4350,38.3600,70,99,401423
3.3138,0.4350,39.1900,70,99,401426
2.6735,0.4350,39.1600,70,99,401429
2.2385,0.4594,39.0000,70,99,401433
1.8035,0.4252,39.0900,70,99,401436
1.5640,0.4399,39.0600,70,99,401439
1.4027,0.4350,39.1600,70,99,401443
1.3294,0.4350,39.1600,70,99,401446
1.3392,0.4497,39.0000,70,99,401449
1.3392,0.4399,39.1600,70,99,401454
1.3930,0.4448,39.0300,70,99,401457
1.3978,0.4399,39.1900,70,99,401460
1.4321,0.4350,39.2500,70,99,401463
1.4712,0.4448,39.0900,70,99,401467
1.4614,0.4399,39.1900,70,99,401470
1.5200,0.4399,39.0300,70,99,401473
1.5396,0.4350,39.1200,70,99,401477
1.5396,0.4350,39.4100,70,99,401480
1.5640,0.4497,39.0300,70,99,401483
1.5640,0.4350,39.1600,70,99,401487
1.6080,0.4448,38.9600,70,99,401490
1.5934,0.4252,39.1600,70,99,401494
1.6325,0.4399,39.0600,70,99,401498
1.6764,0.4448,39.0600,70,99,401501
1.6471,0.4350,39.2800,70,99,401504
1.6960,0.4594,38.9000,70,99,401507
1.6667,0.4448,39.0600,70,99,401511
1.6862,0.4350,39.1900,70,99,401514
1.7253,0.4350,39.1600,70,99,401517
1.7253,0.4399,39.1900,70,99,401521
1.7889,0.4839,38.9300,70,99,401524
1.7449,0.4448,39.4400,70,99,401527
1.7546,0.4399,39.0900,70,99,401531
1.7644,0.4399,39.1600,70,99,401534
1.7791,0.4888,39.3200,70,99,401538
1.8182,0.4448,39.0300,70,99,401542
1.7889,0.4594,39.1200,70,99,401545
1.8084,0.4399,39.0300,70,99,401548
1.7840,0.4350,39.2800,70,99,401551
1.8035,0.4399,39.1900,70,99,401555
1.8426,0.4252,39.1200,70,99,401558
1.8377,0.4399,39.2500,70,99,401561
1.8671,0.4497,39.0600,70,99,401565
1.8280,0.4399,39.1600,70,99,401568
1.8524,0.4252,39.1600,70,99,401571
1.8915,0.4448,39.0900,70,99,401575
1.8817,0.4350,39.1600,70,99,401579
1.9208,0.4448,39.0300,70,99,401582
1.8964,0.4448,39.0600,70,99,401586
1.9013,0.4350,39.1600,70,99,401589
1.9208,0.4252,39.1200,70,99,401592
1.9208,0.4350,39.2500,70,99,401596
1.9746,0.4888,38.9000,70,99,401599
1.9453,0.4399,39.0900,70,99,401602
1.9501,0.4350,39.0300,70,99,401605
1.9746,0.4350,39.1900,70,99,401609
1.9844,0.4350,39.1900,70,99,401612
2.0674,0.4594,38.9000,70,99,401615
2.0430,0.4399,39.0600,70,99,401619
2.0479,0.4350,39.1600,70,99,401623
2.0528,0.4399,39.1200,70,99,401626
2.0919,0.4350,39.1900,70,99,401630
2.1652,0.4545,39.0000,70,99,401633
2.1554,0.4448,39.2200,70,99,401636
2.1896,0.4497,39.1200,70,99,401639
2.1945,0.4350,39.1200,70,99,401643
2.2287,0.4399,39.1900,70,99,401646
2.3069,0.4497,39.0000,70,99,401649
2.3069,0.4448,39.1600,70,99,401653
2.3803,0.4448,39.0300,70,99,401656
2.3803,0.4399,39.1600,70,99,401659
2.4194,0.4399,39.1900,70,99,401664
2.4682,0.4448,39.0600,70,99,401667
2.4633,0.4497,39.1600,70,99,401670
2.5269,0.4399,39.0300,70,99,401674
2.5024,0.4350,39.0900,70,99,401677
2.5220,0.4399,39.1900,70,99,401680
2.5367,0.4448,39.0600,70,99,401683
2.4976,0.4350,39.0900,70,99,401687
2.5220,0.4692,38.9600,70,99,401690
2.4487,0.4350,39.1900,70,99,401693
2.4145,0.4350,39.0600,70,99,401697
2.3705,0.4448,39.0600,70,99,401700
2.2678,0.4350,39.1900,70,99,401703
2.2434,0.4497,38.9000,70,99,401708
2.1310,0.4497,39.0600,70,99,401711
2.0381,0.4350,39.1900,70,99,401714
1.9648,0.4399,39.1900,70,99,401717
1.8866,0.4350,39.1600,70,99,401721
1.8622,0.4594,38.8400,70,99,401724
1.7351,0.4399,39.0900,70,99,401727
1.6911,0.4350,39.1600,70,99,401731
1.6569,0.4399,39.1600,70,99,401734
1.6276,0.4399,39.1900,70,99,401737
1.6422,0.4497,39.0000,70,99,401741
1.5982,0.4448,39.1200,70,99,401744
1.5885,0.4399,39.0300,70,99,401747
1.5738,0.4399,39.1600,70,99,401752
1.5591,0.4350,39.1600,70,99,401755
1.6178,0.4448,39.1200,70,99,401758
1.5738,0.4399,39.1200,70,99,401762
1.5934,0.4497,39.0600,70,99,401765
1.5689,0.4350,39.2800,70,99,401768
1.5836,0.4350,39.1600,70,99,401771
1.6276,0.4448,39.0300,70,99,401775
1.6080,0.4350,39.3500,70,99,401778
1.6471,0.4741,39.0000,70,99,401781
1.6373,0.4350,39.0900,70,99,401785
1.6471,0.4350,39.3500,70,99,401788
1.6716,0.4252,39.0900,70,99,401792
1.6764,0.4350,39.1600,70,99,401796
1.7400,0.4545,38.9000,70,99,401799
1.7155,0.4448,39.0900,70,99,401802
1.7107,0.4350,39.1600,70,99,401806
1.7302,0.4497,39.1900,70,99,401809
1.7253,0.4399,39.1600,70,99,401812
1.7889,0.4545,38.8700,70,99,401815
1.7595,0.4399,39.0600,70,99,401819
1.7742,0.4350,39.1900,70,99,401822
1.7791,0.4399,39.1200,70,99,401825
1.7742,0.4350,39.1600,70,99,401829
1.8524,0.4594,38.9600,70,99,401832
1.8328,0.4448,39.0300,70,99,401836
1.8426,0.4399,39.0600,70,99,401840
1.8328,0.4350,39.0900,70,99,401843
1.8475,0.4350,39.1600,70,99,401846
1.8915,0.4497,39.0000,70,99,401850
1.8622,0.4399,39.1600,70,99,401853
1.8964,0.4448,39.0300,70,99,401856
1.8817,0.4350,39.1600,70,99,401859
1.8817,0.4301,39.1600,70,99,401863
1.9062,0.4497,38.8700,70,99,401866
1.8866,0.4301,39.1600,70,99,401869
1.9355,0.4448,39.0600,70,99,401873
1.9110,0.4350,39.0300,70,99,401876
1.8817,0.4301,39.1200,70,99,401881
1.8915,0.4350,39.1600,70,99,401884
1.8866,0.4497,39.0900,70,99,401887
1.8573,0.4350,39.1600,70,99,401891
1.9062,0.4594,38.8400,70,99,401894
1.8768,0.4252,39.0600,70,99,401897
1.8768,0.4301,39.1600,70,99,401901
1.9062,0.4399,39.1600,70,99,401904
1.9062,0.4350,39.1600,70,99,401907
1.9746,0.4741,38.9300,70,99,401910
1.9404,0.4448,39.0900,70,99,401914
1.9501,0.4350,39.0900,70,99,401917
1.9599,0.4301,39.1600,70,99,401921
1.9746,0.4252,39.1600,70,99,401925
2.0088,0.4497,38.9600,70,99,401928
1.9795,0.4350,39.1200,70,99,401931
1.9941,0.4399,39.0600,70,99,401935
1.9648,0.4350,39.1900,70,99,401938
1.9844,0.4350,39.1600,70,99,401941
2.0088,0.4301,39.0600,70,99,401945
1.9990,0.4448,39.1900,70,99,401948
2.0283,0.4448,39.0600,70,99,401951
1.9844,0.4545,39.1600,70,99,401954
1.9990,0.4350,39.1600,70,99,401958
2.0381,0.4545,39.0600,70,99,401961
2.0186,0.4350,39.2200,70,99,401965
2.0528,0.4448,39.0600,70,99,401969
2.0186,0.4399,39.1200,70,99,401972
2.0381,0.4399,39.1900,70,99,401975
2.0283,0.4448,39.0600,70,99,401979
2.0039,0.4399,39.1600,70,99,401982
2.0870,0.4594,38.9600,70,99,401985
1.9990,0.4399,39.0900,70,99,401988
1.9844,0.4350,39.2500,70,99,401992
2.0039,0.4448,39.1200,70,99,401995
1.9892,0.4350,39.1600,70,99,401998
2.0528,0.4545,38.8700,70,99,402002
1.9990,0.4399,39.0600,70,99,402006
1.9941,0.4301,39.1900,70,99,402009
1.9941,0.4448,39.1900,70,99,402013
1.9648,0.4350,39.0300,70,99,402016
2.0186,0.4594,39.0000,70,99,402019
1.9892,0.4448,39.0900,70,99,402022
1.9795,0.4350,39.0900,70,99,402026
1.9501,0.4399,39.1600,70,99,402029
1.9404,0.4350,39.1900,70,99,402032
1.9648,0.4497,38.9300,70,99,402036
1.9355,0.4399,39.1200,70,99,402039
1.9599,0.4448,39.0000,70,99,402042
1.9355,0.4399,39.1600,70,99,402046
1.9453,0.4350,39.1600,70,99,402050
1.9990,0.4497,39.0300,70,99,402053
1.9648,0.4399,39.1600,70,99,402057
2.0186,0.4448,39.0300,70,99,402060
1.9990,0.4350,39.1600,70,99,402063
2.0039,0.4350,39.1900,70,99,402066
2.0088,0.4399,39.0300,70,99,402070
1.9844,0.4448,39.1600,70,99,402073
2.0235,0.4399,39.0300,70,99,402076
1.9892,0.4350,39.1600,70,99,402080
2.0088,0.4399,39.1600,70,99,402083
2.0235,0.4448,39.0900,70,99,402086
1.9892,0.4545,39.1600,70,99,402091
2.0381,0.4448,38.9000,70,99,402094
2.0088,0.4448,39.0600,70,99,402097
1.9990,0.4350,39.1900,70,99,402100
2.0235,0.4448,39.1200,70,99,402104
1.9795,0.4350,39.1600,70,99,402107
2.0039,0.4643,38.9000,70,99,402110
1.9257,0.4399,39.0600,70,99,402114
1.8866,0.4350,39.1600,70,99,402117
1.8671,0.4350,39.1200,70,99,402120
1.8475,0.4252,39.1900,70,99,402124
1.8817,0.4545,38.9600,70,99,402127
1.8328,0.4252,39.1200,70,99,402130
1.8182,0.4399,39.0300,70,99,402135
1.8084,0.4252,39.1600,70,99,402138
1.8084,0.4399,39.0900,70,99,402141
1.8426,0.4399,39.0600,70,99,402144
1.8231,0.4350,39.1600,70,99,402148
1.8426,0.4399,39.0600,70,99,402151
1.8133,0.4252,39.1900,70,99,402154
1.8328,0.4350,39.1600,70,99,402158
1.8671,0.4448,39.0600,70,99,402161
1.8426,0.4399,39.2500,70,99,402164
1.8719,0.4350,39.0300,70,99,402168
1.8377,0.4350,39.1200,70,99,402171
1.8426,0.4350,39.1600,70,99,402174
1.8671,0.4448,39.0000,70,99,402179
1.8573,0.4350,39.1600,70,99,402182
1.8964,0.4497,38.9300,70,99,402185
1.8622,0.4399,38.2700,70,99,402189
1.8524,0.4399,39.1900,70,99,402192
1.8671,0.4448,39.0900,70,99,402195
1.8475,0.4350,39.1200,70,99,402198
1.9062,0.4545,38.8700,70,99,402202
1.8573,0.4350,39.0900,70,99,402205
1.8573,0.4399,39.1600,70,99,402208
1.8524,0.4399,38.5800,70,99,402212
1.8426,0.4301,39.1600,70,99,402215
1.9110,0.4594,39.4100,70,99,402219
1.8573,0.4399,39.1200,70,99,402223
1.8231,0.4350,39.0900,70,99,402226
1.7693,0.4399,39.1600,70,99,402229
1.7498,0.4350,39.1600,70,99,402233
1.8377,0.4497,39.0000,70,99,402236
1.9844,0.4399,39.1200,70,99,402239
2.3216,0.4399,39.0000,70,99,402242
2.7370,0.4301,39.1600,70,99,402246
3.2698,0.4350,39.1600,70,99,402249
3.8514,0.4497,39.0300,70,99,402252
4.2669,0.4399,39.1600,70,99,402256
4.4282,0.4448,39.0900,70,99,402259
4.0811,0.4350,39.2500,70,99,402263
3.5191,0.4350,39.2200,70,99,402267
2.8886,0.4399,39.0900,70,99,402270
2.3021,0.4350,39.2200,70,99,402273
1.9013,0.4448,39.0300,70,99,402276
1.5885,0.4350,39.2500,70,99,402280
1.4321,0.4350,39.1900,70,99,402283
1.3636,0.4448,39.0900,70,99,402286
1.3196,0.4350,39.1600,70,99,402290
1.3685,0.4252,38.9300,70,99,402293
1.3734,0.4448,39.0900,70,99,402296
1.4223,0.4301,39.2200,70,99,402300
1.4614,0.4448,39.0900,70,99,402304
1.4858,0.4399,39.1600,70,99,402307
1.5298,0.4545,38.9000,70,99,402311
1.5054,0.4790,39.0600,70,99,402314
1.5200,0.4301,39.1600,70,99,402317
1.5494,0.4399,38.9000,70,99,402321
1.5689,0.4399,39.2500,70,99,402324
1.6276,0.4643,39.0000,70,99,402327
1.5982,0.4448,39.0900,70,99,402330
1.6080,0.4350,39.0900,70,99,402334
1.6080,0.4301,39.1600,70,99,402337
1.6325,0.4350,39.1600,70,99,402340
1.6813,0.4594,39.0600,70,99,402344
1.6764,0.4350,39.1600,70,99,402348
1.7009,0.4399,39.1200,70,99,402351
1.7204,0.4448,39.2200,70,99,402355
1.7009,0.4350,39.1900,70,99,402358
1.7498,0.4497,39.0300,70,99,402361
1.7351,0.4399,39.1600,70,99,402364
1.7791,0.4497,39.0600,70,99,402368
1.7546,0.4301,39.1200,70,99,402371
1.7693,0.4350,39.1900,70,99,402374
1.8231,0.4350,39.0900,70,99,402378
1.7937,0.4350,39.1900,70,99,402381
1.8426,0.4448,38.9600,70,99,402384
1.8377,0.4252,39.0600,70,99,402388
1.8280,0.4350,39.1900,70,99,402392
1.8524,0.4448,39.0900,70,99,402395
1.8524,0.4301,39.2200,70,99,402399
1.9110,0.4497,38.9300,70,99,402402
1.8768,0.4399,39.0900,70,99,402405
1.8915,0.4350,39.1900,70,99,402408
1.8915,0.4399,39.1200,70,99,402412
1.8915,0.4252,39.1600,70,99,402415
1.9648,0.4936,38.9000,70,99,402418
1.9453,0.4350,39.0900,70,99,402422
1.9453,0.4252,39.1200,70,99,402425
1.9795,0.4350,39.1600,70,99,402428
1.9453,0.4350,39.1900,70,99,402433
2.0039,0.4594,38.9600,70,99,402436
1.9795,0.4252,39.0900,70,99,402439
2.0039,0.4399,39.0600,70,99,402443
2.0039,0.4350,39.2200,70,99,402446
2.0186,0.4301,39.1600,70,99,402449
2.0577,0.4497,39.0300,70,99,402452
2.0430,0.4545,39.1600,70,99,402456
2.1017,0.4350,39.0000,70,99,402459
2.0821,0.4350,39.1600,70,99,402462
2.1065,0.4350,39.1200,70,99,402466
2.1408,0.4350,39.0900,70,99,402469
2.1505,0.4350,39.1900,70,99,402472
2.2092,0.4448,39.0600,70,99,402476
2.1994,0.4643,39.1900,70,99,402480
2.2434,0.4350,39.1600,70,99,402483
2.3021,0.4448,39.0600,69,99,402486
2.4340,0.4839,39.0900,69,99,402490
2.4536,0.4301,39.1600,69,99,402493
2.5073,0.4497,38.8700,69,99,402497
2.4536,0.4692,39.0600,69,99,402500
2.4536,0.4301,39.1600,69,99,402503
2.4780,0.4399,39.2800,69,99,402507
2.4829,0.4448,39.1600,69,99,402510
2.5513,0.4594,39.0000,69,99,402513
2.4780,0.4448,39.0900,69,99,402518
2.4340,0.4350,39.1200,69,99,402521
2.4047,0.4399,39.1900,69,99,402524
2.3314,0.4350,39.1600,69,99,402527
2.3167,0.4497,39.0600,69,99,402531
2.2190,0.4399,39.1600,69,99,402534
2.1554,0.4399,39.0300,69,99,402537
2.0430,0.4350,39.1600,69,99,402541
1.9746,0.4350,39.4100,69,99,402544
1.9550,0.4594,39.0000,69,99,402547
1.8475,0.4399,39.2500,69,99,402551
1.8133,0.4448,39.0600,69,99,402554
1.7302,0.4252,39.1900,69,99,402557
1.6911,0.4350,38.7400,69,99,402562
1.6813,0.4448,39.0300,69,99,402565
1.6422,0.4350,39.1900,69,99,402568
1.6520,0.4448,38.9600,69,99,402571
1.5982,0.4350,39.0900,69,99,402575
1.5885,0.4350,39.1900,69,99,402578
1.5982,0.4545,39.0600,69,99,402581
1.5885,0.4350,39.1600,69,99,402585
1.6471,0.4497,38.9000,69,99,402588
1.6227,0.4252,39.0900,69,99,402591
1.6373,0.4350,39.2500,69,99,402595
1.6471,0.4399,39.1200,69,99,402598
1.6422,0.4350,39.1200,69,99,402601
1.7058,0.4594,38.8700,69,99,402606
1.6911,0.4448,39.0000,69,99,402609
1.6862,0.4301,39.2200,69,99,402612
1.7009,0.4399,39.1900,69,99,402615
1.6911,0.4350,39.1900,69,99,402619
1.7449,0.4839,38.9600,69,99,402622
1.7155,0.4448,38.9600,69,99,402625
1.7742,0.4448,39.0600,69,99,402629
1.7351,0.4350,39.1600,69,99,402632
1.7449,0.4350,39.1600,69,99,402635
1.7742,0.4448,39.0600,69,99,402639
1.7546,0.4399,39.1600,69,99,402642
1.7937,0.4448,39.0000,69,99,402646
1.7742,0.4350,39.1600,69,99,402650
1.7840,0.4350,39.1600,69,99,402653
1.7986,0.4399,39.0900,69,99,402656
1.7889,0.4350,39.0600,69,99,402659
1.8280,0.4448,39.0600,69,99,402663
1.8084,0.4399,39.1600,69,99,402666
1.8328,0.4350,39.0900,69,99,402669
1.8671,0.4497,39.0000,69,99,402673
1.8377,0.4350,39.2500,69,99,402676
1.8817,0.4545,38.9300,69,99,402679
1.8671,0.4399,39.0900,69,99,402683
1.8768,0.4350,39.0900,69,99,402686
1.9110,0.4497,39.1200,69,99,402690
1.8915,0.4350,39.2200,69,99,402694
1.9453,0.4790,38.9000,69,99,402697
1.8915,0.4399,39.0600,69,99,402700
1.8964,0.4350,39.1900,69,99,402703
1.9208,0.4350,39.1200,69,99,402707
1.9208,0.4350,39.1600,69,99,402710
1.9844,0.4594,38.9300,69,99,402713
1.9404,0.4448,39.0900,69,99,402717
1.9355,0.4350,39.0600,69,99,402720
1.9306,0.4399,39.1900,69,99,402723
1.9306,0.4350,39.1600,69,99,402727
2.0039,0.4448,39.0600,69,99,402731
1.9501,0.4399,39.1200,69,99,402734
1.9550,0.4399,39.0600,69,99,402737
1.9208,0.4350,39.1600,69,99,402741
1.9257,0.4350,39.1900,69,99,402744
1.9648,0.4497,39.0000,69,99,402747
1.9355,0.4399,39.1600,69,99,402751
1.9599,0.4448,39.0300,69,99,402754
1.9355,0.4301,39.1600,69,99,402757
1.9257,0.4350,39.1900,69,99,402761
1.9453,0.4252,39.0000,69,99,402764
1.9257,0.4350,39.1600,69,99,402767
1.9550,0.4594,39.0000,69,99,402771
1.9110,0.4350,39.0900,69,99,402775
1.9062,0.4252,39.1600,69,99,402778
1.9159,0.4448,39.0300,69,99,402781
1.9013,0.4252,39.1600,69,99,402785
1.9501,0.4448,39.0300,69,99,402788
1.9062,0.4301,39.1600,69,99,402791
1.9110,0.4350,39.1900,69,99,402795
1.9110,0.4497,39.1900,69,99,402798
1.8866,0.4350,39.2200,69,99,402801
1.9501,0.4594,38.8400,69,99,402805
1.9208,0.4448,39.0900,69,99,402808
1.9110,0.4301,39.2200,69,99,402811
1.9306,0.4399,39.1600,69,99,402816
1.8964,0.4350,39.1900,69,99,402819
1.9501,0.4643,39.0000,69,99,402822
1.9159,0.4448,39.0900,69,99,402826
1.9208,0.4350,39.0300,69,99,402829
1.9110,0.4399,39.1600,69,99,402832
1.9208,0.4350,39.1900,69,99,402835
1.9404,0.4448,39.0300,69,99,402839
1.9110,0.4399,39.1200,69,99,402842
1.9355,0.4399,39.0300,69,99,402845
1.9110,0.4350,39.1200,69,99,402849
1.9110,0.4350,39.2200,69,99,402852
1.9159,0.4399,39.4800,69,99,402855
1.9013,0.4350,39.1200,69,99,402860
1.9208,0.4448,39.1600,69,99,402863
1.8817,0.4252,39.1900,69,99,402866
1.8964,0.4350,39.1900,69,99,402869
1.9159,0.4545,39.0300,69,99,402873
1.8817,0.4350,39.1600,69,99,402876
1.9062,0.4448,38.9300,69,99,402879
1.9062,0.4399,39.0600,69,99,402883
1.8866,0.4252,39.1900,69,99,402886
1.9110,0.4399,39.0600,69,99,402889
1.8964,0.4399,39.1600,69,99,402893
1.9355,0.4497,38.9000,69,99,402896
1.8866,0.4399,39.0600,69,99,402899
1.8817,0.4350,39.1900,69,99,402904
1.9013,0.4448,39.0900,69,99,402907
1.8964,0.4399,39.1900,69,99,402910
1.9550,0.4594,38.9300,69,99,402913
1.9062,0.4399,39.0300,69,99,402917
1.8915,0.4350,39.1900,69,99,402920
1.8866,0.4497,39.1600,69,99,402923
1.8866,0.4350,39.1900,69,99,402927
1.9453,0.4594,39.0300,69,99,402930
1.9110,0.4399,39.1200,69,99,402933
1.9159,0.4399,39.1200,69,99,402937
1.8866,0.4350,39.1600,69,99,402940
1.8915,0.4399,39.0900,69,99,402944
1.9648,0.4448,39.0000,69,99,402948
1.9062,0.4350,39.2200,69,99,402951
1.9306,0.4350,39.0600,69,99,402954
1.8964,0.4350,39.1900,69,99,402957
1.9013,0.4350,39.2800,69,99,402961
1.9257,0.4448,39.0300,69,99,402964
1.9208,0.4350,39.1600,69,99,402967
1.9599,0.4399,39.0300,69,99,402971
1.9306,0.4301,39.1200,69,99,402974
1.9550,0.4497,39.2200,69,99,402977
1.9844,0.4448,38.9600,69,99,402981
1.9746,0.4301,39.2200,69,99,402984
2.0332,0.4448,38.9300,69,99,402988
1.9990,0.4301,39.1600,69,99,402992
1.9892,0.4350,39.1600,69,99,402995
1.9892,0.4643,39.1200,69,99,402998
1.9697,0.4350,39.1900,69,99,403001
2.0381,0.4545,38.8700,69,99,403005
2.0137,0.4448,39.0600,69,99,403008
2.0088,0.4350,39.2200,69,99,403011
2.0088,0.4301,39.0600,69,99,403015
1.9941,0.4399,39.1600,69,99,403018
2.0528,0.4594,39.0600,69,99,403021
1.9990,0.4497,39.0600,69,99,403025
1.9844,0.4350,39.0600,69,99,403028
1.9648,0.4399,39.1600,69,99,403032
1.9355,0.4399,39.1600,69,99,403036
1.9453,0.4448,39.0000,69,99,403039
1.8817,0.4497,39.1600,69,99,403042
1.8768,0.4350,39.0300,69,99,403045
1.8426,0.4350,39.0300,69,99,403049
1.8280,0.4350,39.1600,69,99,403052
1.8426,0.4448,39.0300,69,99,403055
1.8182,0.4301,39.1900,69,99,403059
1.8475,0.4497,39.0600,69,99,403062
1.8182,0.4399,39.1900,69,99,403065
1.8280,0.4252,39.1600,69,99,403069
1.8475,0.4643,39.0600,69,99,403073
1.8133,0.4350,39.1600,69,99,403076
1.8328,0.4399,39.0000,69,99,403080
1.8133,0.4350,39.0600,69,99,403083
1.8182,0.4350,39.1600,69,99,403086
1.8524,0.4594,39.0600,69,99,403089
1.8084,0.4350,39.1900,69,99,403093
1.8524,0.4497,38.9300,69,99,403096
1.8622,0.4594,38.9300,69,99,403101
1.8084,0.4448,39.0900,69,99,403104
1.7937,0.4350,39.0900,69,99,403107
1.7742,0.4399,39.1900,69,99,403111
1.7742,0.4350,39.0900,69,99,403115
1.8133,0.4545,39.0600,69,99,403118
1.7840,0.4399,39.1200,69,99,403122
1.8084,0.4399,39.0300,69,99,403125
1.8084,0.4399,39.1200,69,99,403128
1.7791,0.4350,39.1900,69,99,403132
1.7937,0.4643,38.9600,69,99,403135
1.7351,0.4350,39.2800,69,99,403138
1.7400,0.4839,39.0300,69,99,403142
1.7155,0.4252,39.0900,69,99,403145
1.7937,0.4350,39.1600,69,99,403148
2.0235,0.4448,39.0300,69,99,403151
2.3607,0.4350,39.1600,69,99,403155
2.8886,0.4448,39.0000,69,99,403159
3.3969,0.4350,39.0900,69,99,403162
3.9150,0.4350,39.1600,69,99,403166
4.3597,0.4448,39.1200,69,99,403169
4.3451,0.4350,39.1600,69,99,403172
4.0860,0.4497,38.9300,69,99,403176
3.3822,0.4301,39.1200,69,99,403179
2.7419,0.4350,39.1900,69,99,403182
2.1994,0.4399,39.1900,69,99,403185
1.7840,0.4350,39.2800,69,99,403189
1.5738,0.4594,38.9000,69,99,403192
1.4076,0.4399,39.0900,69,99,403195
1.3343,0.4301,39.1200,69,99,403200
1.3245,0.4301,39.1600,69,99,403203
1.3392,0.4252,39.1900,69,99,403206
1.3978,0.4497,38.9300,69,99,403210
1.4076,0.4448,39.0900,69,99,403213
1.4370,0.4399,39.0600,69,99,403216
1.4516,0.4448,39.1600,69,99,403220
1.4712,0.4350,39.1600,69,99,403223
1.4956,0.4497,39.0300,69,99,403226
1.4858,0.4399,39.1600,69,99,403229
1.5249,0.4448,39.0300,69,99,403233
1.5200,0.4301,39.1600,69,99,403236
1.5396,0.4350,39.1600,69,99,403239
1.5640,0.4301,39.0600,69,99,403244
1.5689,0.4350,39.1600,69,99,403247
1.6031,0.4399,39.0600,69,99,403250
1.5836,0.4399,39.1200,69,99,403254
1.6031,0.4350,39.1900,69,99,403257
1.6373,0.4448,39.0600,69,99,403260
1.6276,0.4252,39.1600,69,99,403264
1.6618,0.4448,39.1600,69,99,403267
1.6618,0.4350,39.0900,69,99,403270
1.6569,0.4350,39.1600,69,99,403273
1.6911,0.4448,39.0900,69,99,403277
1.6813,0.4350,39.1600,69,99,403280
1.7253,0.4741,38.8700,69,99,403283
1.6813,0.4399,39.0600,69,99,403288
1.6911,0.4399,39.1600,69,99,403291
1.7107,0.4252,39.1200,69,99,403294
1.7204,0.4350,39.1600,69,99,403298
1.7937,0.4545,38.9300,69,99,403301
1.7400,0.4448,39.1900,69,99,403304
1.7400,0.4399,39.0600,69,99,403308
1.7400,0.4350,39.1900,69,99,403311
1.7546,0.4399,39.1600,69,99,403314
1.8035,0.4497,39.0600,69,99,403317
1.7889,0.4399,39.1200,69,99,403321
1.8084,0.4399,39.0900,69,99,403324
1.7791,0.4252,39.1600,69,99,403328
1.7986,0.4350,38.5500,69,99,403332
1.8426,0.4545,39.0000,69,99,403335
1.8280,0.4399,39.1900,69,99,403338
1.8719,0.4741,39.0600,69,99,403342
1.8573,0.4301,39.1200,69,99,403345
1.8622,0.4350,39.1900,69,99,403348
1.8964,0.4448,39.0300,69,99,403352
1.8964,0.4350,39.1600,69,99,403355
1.9453,0.4448,39.0600,69,99,403358
1.9306,0.4399,39.0900,69,99,403361
1.9355,0.4350,39.0900,69,99,403365
1.9648,0.4497,39.0600,69,99,403368
1.9648,0.4252,39.1600,69,99,403372
2.0332,0.4497,38.9000,69,99,403376
2.0039,0.4301,39.1200,69,99,403379
2.0332,0.4350,39.1600,69,99,403382
2.0528,0.4399,38.4000,69,99,403386
2.0528,0.4399,39.1900,69,99,403389
2.1457,0.4252,38.8700,69,99,403392
2.1408,0.4399,38.8100,69,99,403395
2.1603,0.4301,39.1600,69,99,403399
2.1848,0.4399,39.1200,69,99,403402
2.1945,0.4692,39.1600,69,99,403405
2.2923,0.4594,39.0000,69,99,403409
2.2678,0.4448,39.0900,69,99,403412
2.2874,0.4594,39.1200,69,99,403416
2.3021,0.4350,39.1900,69,99,403420
2.3216,0.4252,39.2800,69,99,403423
2.3705,0.4448,39.0000,69,99,403426
2.3509,0.4399,39.1600,69,99,403430
2.3803,0.4399,39.0300,69,99,403433
2.3607,0.4399,39.1900,69,99,403436
2.3656,0.4350,39.1900,69,99,403439
2.3754,0.4399,39.1200,69,99,403443
2.3265,0.4350,39.1600,69,99,403446
2.3167,0.4448,39.2800,69,99,403449
2.2239,0.4350,39.1600,69,99,403453
2.1603,0.4350,39.2800,69,99,403457
2.1163,0.4497,39.0600,69,99,403460
1.9990,0.4350,39.0300,69,99,403464
1.9453,0.4448,39.0000,69,99,403467
1.8524,0.4448,39.1900,69,99,403470
1.7742,0.4350,39.1900,69,99,403474
1.7302,0.4497,39.0600,69,99,403477
1.6471,0.4350,39.1600,69,99,403480
1.6227,0.4790,38.9000,69,99,403483
1.5396,0.4399,39.0900,69,99,403487
1.4858,0.4350,38.4900,69,99,403490
1.4712,0.4594,39.1200,69,99,403493
1.4321,0.4350,39.1200,69,99,403497
1.4663,0.4643,38.8700,69,99,403501
1.4125,0.4399,38.9600,69,99,403504
1.3978,0.4301,39.1900,69,99,403508
1.3930,0.4399,39.1200,69,99,403511
1.3930,0.4399,39.1900,69,99,403514
1.4418,0.4545,39.0300,69,99,403518
1.4272,0.4545,39.0900,69,99,403521
1.4370,0.4350,39.0600,69,99,403524
1.4272,0.4350,39.2500,69,99,403527
1.4467,0.4399,39.1900,69,99,403531
1.4907,0.4497,39.0300,69,99,403534
1.5103,0.4350,39.1200,69,99,403537
1.5005,0.4448,39.0000,69,99,403542
1.4809,0.4350,39.2800,69,99,403545
1.4858,0.4350,39.1600,69,99,403548
1.5103,0.4448,39.0600,69,99,403552
1.5103,0.4350,39.1200,69,99,403555
1.5494,0.4497,39.0300,69,99,403558
1.5200,0.4350,39.1200,69,99,403562
1.5200,0.4350,39.1600,69,99,403565
1.5347,0.4350,39.0600,69,99,403568
1.5347,0.4399,39.1900,69,99,403571
1.5738,0.4448,38.9000,69,99,403575
1.5591,0.4350,39.1900,69,99,403578
1.5689,0.4399,39.1600,69,99,403581
1.5836,0.4252,39.1200,69,99,403586
1.5543,0.4594,39.1900,69,99,403589
1.6031,0.4497,38.9000,69,99,403592
1.5934,0.4448,39.0300,69,99,403596
1.5836,0.4399,39.1600,69,99,403599
1.5885,0.4448,39.1200,69,99,403602
1.5836,0.4252,39.1900,69,99,403606
1.6276,0.4594,39.0300,69,99,403609
1.5885,0.4448,39.0900,69,99,403612
1.5982,0.4350,39.0900,69,99,403616
1.6080,0.4350,39.1200,69,99,403619
1.6080,0.4399,39.1900,69,99,403622
1.6422,0.4497,39.0000,69,99,403625
1.6178,0.4399,39.2500,69,99,403630
1.6373,0.4399,39.0300,69,99,403633
1.6178,0.4350,39.1200,69,99,403636
1.6178,0.4399,39.1600,69,99,403640
1.6276,0.4448,39.0600,69,99,403643
1.6080,0.4545,39.1600,69,99,403646
1.6276,0.4497,39.0300,69,99,403650
1.6080,0.4350,39.1600,69,99,403653
1.6276,0.4448,39.1900,69,99,403656
1.6471,0.4448,39.0300,69,99,403659
1.6129,0.4643,39.1600,69,99,403663
1.6325,0.4399,39.0000,69,99,403666
1.6129,0.4399,39.1200,69,99,403670
1.6227,0.4350,39.1900,69,99,403674
1.6422,0.4448,39.0900,69,99,403677
1.6276,0.4350,39.2200,69,99,403680
1.6569,0.4497,38.5800,69,99,403684
1.6178,0.4399,39.0600,69,99,403687
1.6031,0.4350,39.1900,69,99,403690
1.6129,0.4448,39.1600,69,99,403694
1.6129,0.4252,39.1900,69,99,403697
1.6520,0.4594,38.8700,69,99,403700
1.6031,0.4399,39.0300,69,99,403704
1.5836,0.4350,39.1600,69,99,403707
1.5738,0.4350,39.1600,68,99,403710
1.5396,0.4350,39.1900,68,99,403716
1.5298,0.4594,39.1600,68,99,403719
1.5543,0.4448,39.0300,68,99,403722
1.4907,0.4350,39.1900,68,99,403726
1.5005,0.4399,39.0300,68,99,403729
1.4565,0.4350,39.1200,68,99,403732
1.4614,0.4301,39.2500,68,99,403736
1.4809,0.4448,39.0000,68,99,403739
1.4663,0.4448,39.1900,68,99,403742
1.5054,0.4448,39.0000,68,99,403746
1.4809,0.4399,39.0600,68,99,403749
1.4712,0.4350,39.1900,68,99,403752
1.4858,0.4448,39.0600,68,99,403757
1.4712,0.4350,39.4100,68,99,403760
1.5249,0.4448,38.9300,68,99,403763
1.4907,0.4350,39.0300,68,99,403766
1.5005,0.4301,39.1600,68,99,403770
1.4907,0.4497,39.1600,68,99,403773
1.4761,0.4448,39.1900,68,99,403776
1.5249,0.4643,38.9300,68,99,403780
1.5005,0.4448,39.0900,68,99,403783
1.4956,0.4350,39.1200,68,99,403786
1.4858,0.4399,39.3200,68,99,403790
1.4761,0.4301,39.1900,68,99,403793
1.5005,0.4545,39.0000,68,99,403796
1.4663,0.4399,39.0600,68,99,403801
1.4809,0.4350,39.0300,68,99,403804
1.4712,0.4399,39.1600,68,99,403807
1.4761,0.4350,39.1600,68,99,403810
1.4956,0.4497,39.0000,68,99,403814
1.4614,0.4399,39.2500,68,99,403817
1.4809,0.4350,39.0000,68,99,403820
1.4614,0.4399,39.1600,68,99,403824
1.4663,0.4301,39.1900,68,99,403827
1.4761,0.4399,38.2700,68,99,403830
1.4614,0.4448,39.1900,68,99,403834
1.4858,0.4399,39.0000,68,99,403837
1.4565,0.4399,39.1600,68,99,403841
1.4663,0.4350,39.1200,68,99,403845
1.4761,0.4448,39.0600,68,99,403848
1.4467,0.4350,39.2200,68,99,403851
1.4712,0.4497,39.0300,68,99,403855
1.4467,0.4448,39.0600,68,99,403858
1.4565,0.4350,39.1900,68,99,403861
1.4809,0.4497,39.0900,68,99,403864
1.4809,0.4399,39.1600,68,99,403868
1.5200,0.4545,38.8700,68,99,403871
1.4956,0.4448,39.0300,68,99,403874
1.4956,0.4252,39.1600,68,99,403878
1.5103,0.4399,39.0900,68,99,403881
1.5103,0.4301,39.1200,68,99,403885
1.5591,0.4594,39.0000,68,99,403889
1.5054,0.4448,39.1200,68,99,403892
1.5054,0.4350,39.0900,68,99,403895
1.5005,0.4399,39.1900,68,99,403898
1.5200,0.4350,39.1600,68,99,403902
1.5543,0.4252,39.0600,68,99,403905
1.5347,0.4399,39.3800,68,99,403908
1.5396,0.4497,39.0600,68,99,403912
1.5054,0.4399,38.3600,68,99,403915
1.5005,0.4448,39.1600,68,99,403918
1.5249,0.4545,39.0000,68,99,403922
1.4809,0.4350,39.1600,68,99,403926
1.4761,0.4497,39.0600,68,99,403929
1.4223,0.4350,39.1600,68,99,403933
1.4027,0.4350,39.1600,68,99,403936
1.3881,0.4692,39.0300,68,99,403939
1.3539,0.4350,39.1900,68,99,403942
1.3734,0.4448,38.9600,68,99,403946
1.3392,0.4350,39.0900,68,99,403949
1.3294,0.4350,39.1600,68,99,403952
1.3441,0.4497,39.1600,68,99,403956
1.3539,0.4350,39.1600,68,99,403959
1.3685,0.4497,39.0000,68,99,403962
1.3294,0.4399,39.1900,68,99,403966
1.3392,0.4350,39.2200,68,99,403970
1.3343,0.4643,39.1200,68,99,403973
1.3148,0.4350,39.2200,68,99,403977
1.3587,0.4643,38.9300,68,99,403980
1.3392,0.4448,38.2400,68,99,403983
1.3392,0.4350,39.1200,68,99,403987
1.3343,0.4399,39.2200,68,99,403990
1.3245,0.4741,39.1900,68,99,403993
1.3490,0.4497,39.0000,68,99,403996
1.3245,0.4399,39.1200,68,99,404000
1.3441,0.4448,39.0600,68,99,404003
1.3343,0.4643,39.1600,68,99,404006
1.3294,0.4252,39.1600,68,99,404011
1.3490,0.4741,39.0000,68,99,404014
1.3294,0.4350,39.1600,68,99,404017
1.3636,0.4497,39.0600,68,99,404021
1.3392,0.4399,39.0900,68,99,404024
1.3539,0.4301,39.1900,68,99,404027
1.3490,0.4448,39.0900,68,99,404031
1.3294,0.4350,39.1600,68,99,404034
1.3441,0.4448,39.0300,68,99,404037
1.3001,0.4350,39.2500,68,99,404040
1.2708,0.4692,39.2500,68,99,404044
1.2854,0.4252,39.0900,68,99,404047
1.2268,0.4399,39.1600,68,99,404050
1.3343,0.4497,38.9000,68,99,404055
1.5200,0.4448,39.0900,68,99,404058
1.8768,0.4350,39.1900,68,99,404061
2.3998,0.4497,39.0900,68,99,404065
2.9228,0.4399,39.1600,68,99,404068
3.5484,0.4545,38.8400,68,99,404071
3.8563,0.4448,39.0600,68,99,404075
3.8319,0.4350,39.1600,68,99,404078
3.4946,0.4497,39.1600,68,99,404081
2.8788,0.4399,39.1900,68,99,404084
2.3118,0.4594,38.9600,68,99,404088
1.7155,0.4448,39.0900,68,99,404091
1.3099,0.4399,38.7700,68,99,404094
1.0557,0.4497,39.1900,68,99,404099
0.9091,0.4399,39.1900,68,99,404102
0.8553,0.4497,39.0600,68,99,404105
0.8162,0.4399,39.1200,68,99,404109
0.8407,0.4252,39.0300,68,99,404112
0.8407,0.4399,39.1200,68,99,404115
0.8700,0.4448,39.1600,68,99,404118
0.9482,0.4448,39.0000,68,99,404122
0.9286,0.4399,39.1900,68,99,404125
0.9629,0.4497,39.0300,68,99,404128
0.9580,0.4399,39.1900,68,99,404132
0.9726,0.4252,39.1600,68,99,404135
0.9971,0.4497,39.0300,68,99,404139
1.0068,0.4448,39.1600,68,99,404143
1.0362,0.4448,39.0300,68,99,404146
1.0215,0.4350,39.4800,68,99,404149
1.0362,0.4399,39.1900,68,99,404152
1.0557,0.4448,39.0600,68,99,404156
1.0557,0.4350,39.2200,68,99,404159
1.0997,0.4448,38.9300,68,99,404162
1.0899,0.4399,39.2200,68,99,404166
1.0899,0.4399,39.1200,68,99,404169
1.1339,0.4448,39.1200,68,99,404172
1.1144,0.4399,39.1600,68,99,404176
1.1926,0.4545,38.9300,68,99,404179
1.1584,0.4448,38.7100,68,99,404183
1.1681,0.4594,39.1600,68,99,404187
1.1730,0.4448,39.0600,68,99,404190
1.1681,0.4399,39.1600,68,99,404193
1.2219,0.4448,38.9600,68,99,404196
1.1926,0.4497,39.0900,68,99,404200
1.2023,0.4448,39.1200,68,99,404203
1.2170,0.4399,39.1600,68,99,404206
1.2268,0.4399,39.1200,68,99,404210
1.2610,0.4545,39.0000,68,99,404213
1.2463,0.4399,39.1200,68,99,404216
1.2708,0.4594,39.0300,68,99,404220
1.2659,0.4399,39.1600,68,99,404224
1.2805,0.4448,39.1600,68,99,404227
1.3001,0.4252,39.0900,68,99,404231
1.2952,0.4399,39.1600,68,99,404234
1.3245,0.4497,39.0000,68,99,404237
1.3099,0.4399,39.1900,68,99,404240
1.3294,0.4399,39.1200,68,99,404244
1.3881,0.4448,39.0600,68,99,404247
1.3392,0.4399,39.1200,68,99,404250
1.3587,0.4497,38.9600,68,99,404254
1.3539,0.4399,39.0600,68,99,404257
1.3734,0.4448,39.1600,68,99,404260
1.4125,0.4497,39.0600,68,99,404264
1.4027,0.4399,39.1900,68,99,404268
1.4614,0.4448,38.9600,68,99,404271
1.4370,0.4594,39.1200,68,99,404275
1.4418,0.4399,39.1900,68,99,404278
1.4761,0.4448,39.0900,68,99,404281
1.5005,0.4399,39.1900,68,99,404284
1.5640,0.4594,38.8700,68,99,404288
1.5396,0.4497,39.0600,68,99,404291
1.5640,0.4252,39.1200,68,99,404294
1.5836,0.4399,39.2500,68,99,404298
1.6178,0.4350,39.1900,68,99,404301
1.7058,0.4545,39.0600,68,99,404304
1.7107,0.4448,39.1600,68,99,404308
1.7400,0.4399,39.0900,68,99,404312
1.7595,0.4399,39.2200,68,99,404315
1.7937,0.4350,39.1600,68,99,404319
1.8671,0.4497,39.0000,68,99,404322
1.9306,0.4448,38.4000,68,99,404327
1.9062,0.4448,39.1600,68,99,404330
1.9306,0.4448,38.9600,68,99,404333
1.8719,0.4399,39.2500,68,99,404336
1.8475,0.4399,39.1900,68,99,404340
1.7937,0.4497,39.0600,68,99,404343
1.7204,0.4301,39.1900,68,99,404346
1.7009,0.4497,38.9000,68,99,404350
1.5885,0.4350,39.2200,68,99,404354
1.5249,0.4301,39.1600,68,99,404357
1.4467,0.4448,39.1200,68,99,404361
1.3539,0.4448,39.1900,68,99,404364
1.3294,0.4594,38.8700,68,99,404367
1.2512,0.4448,39.1200,68,99,404371
1.2072,0.4399,39.1600,68,99,404374
1.1535,0.4448,39.1600,68,99,404377
1.1144,0.4252,39.1900,68,99,404380
1.1046,0.4545,39.0000,68,99,404384
1.0850,0.4448,39.1200,68,99,404387
1.0557,0.4399,39.0600,68,99,404390
1.0362,0.4399,39.0900,68,99,404395
1.0264,0.4692,39.1600,68,99,404398
1.0313,0.4497,39.0000,68,99,404401
1.0117,0.4448,39.1600,68,99,404405
1.0459,0.4790,39.1200,68,99,404408
1.0459,0.4399,39.1600,68,99,404411
1.0557,0.4448,39.1900,68,99,404415
1.0802,0.4399,39.0600,68,99,404418
1.1095,0.4399,39.1600,68,99,404421
1.1046,0.4448,39.0300,68,99,404424
1.0899,0.4448,39.1900,68,99,404428
1.1144,0.4399,39.1600,68,99,404431
1.1486,0.4497,39.0000,68,99,404434
1.1339,0.4252,39.1600,68,99,404439
1.1632,0.4497,39.0000,68,99,404442
1.1535,0.4448,39.0600,68,99,404445
1.1730,0.4399,39.1900,68,99,404449
1.1926,0.4497,39.0900,68,99,404452
1.1877,0.4350,39.1600,68,99,404455
1.2268,0.4545,38.9600,68,99,404458
1.2121,0.4497,39.0600,68,99,404462
1.1877,0.4399,39.1900,68,99,404465
1.2268,0.4399,39.1600,68,99,404468
1.2414,0.4399,39.1900,68,99,404472
1.2854,0.4643,38.9300,68,99,404475
1.2561,0.4448,39.0900,68,99,404478
1.2659,0.4399,39.0900,68,99,404483
1.2708,0.4497,39.1600,68,99,404486
1.2854,0.4399,39.1600,68,99,404489
1.3392,0.4497,39.0000,68,99,404493
1.3245,0.4448,39.1200,68,99,404496
1.3392,0.4448,39.1200,68,99,404499
1.3294,0.4399,39.1600,68,99,404502
1.3392,0.4399,39.1900,68,99,404506
1.3881,0.4497,38.9300,68,99,404509
1.3636,0.4643,39.1600,68,99,404512
1.3930,0.4497,39.0600,68,99,404516
1.3636,0.4350,39.5100,68,99,404519
1.3783,0.4448,39.1600,68,99,404523
1.3978,0.4448,39.0000,68,99,404527
1.3930,0.4399,39.1900,68,99,404530
1.4223,0.4448,39.0000,68,99,404533
1.4027,0.4399,39.0900,68,99,404537
1.4027,0.4448,39.2200,68,99,404540
1.4174,0.4497,39.1900,68,99,404543
1.4125,0.4643,39.1600,68,99,404547
1.4614,0.4545,38.9300,68,99,404550
1.4321,0.4399,39.1200,68,99,404553
1.4418,0.4399,39.1900,68,99,404556
1.4418,0.4497,39.0900,68,99,404560
1.4223,0.4399,39.1900,68,99,404563
1.4761,0.4839,38.9000,68,99,404567
1.4565,0.4448,39.0900,68,99,404571
1.4516,0.4350,39.0600,68,99,404574
1.4467,0.4399,39.1600,68,99,404577
1.4321,0.4399,39.1200,68,99,404581
1.4712,0.4497,38.9300,68,99,404584
1.4321,0.4741,39.1200,68,99,404587
1.4321,0.4448,39.0900,68,99,404591
1.4272,0.4399,38.4300,68,99,404594
1.4272,0.4448,39.2200,68,99,404597
1.4418,0.4497,39.0000,68,99,404601
1.4174,0.4545,39.1600,68,99,404604
1.4370,0.4448,39.0300,68,99,404608
1.4027,0.4399,39.0600,68,99,404611
1.4223,0.4350,39.1600,68,99,404615
1.4174,0.4448,39.0900,68,99,404618
1.4027,0.4399,39.1200,68,99,404621
1.4418,0.4350,39.0600,68,99,404625
1.3881,0.4399,38.3300,68,99,404628
1.3978,0.4350,39.1900,68,99,404631
1.4125,0.4497,39.0300,68,99,404635
1.3783,0.4301,39.1900,68,99,404638
1.4076,0.4497,38.9300,68,99,404641
1.3832,0.4448,39.0900,68,99,404644
1.3881,0.4399,39.1600,68,99,404648
1.4125,0.4448,39.1600,68,99,404652
1.3978,0.4497,39.0900,68,99,404655
1.4370,0.4448,38.9300,68,99,404659
1.4027,0.4448,39.0600,68,99,404662
1.3978,0.4399,39.1600,68,99,404665
1.4125,0.4448,39.1200,68,99,404669
1.4223,0.4399,39.1200,68,99,404672
1.4809,0.4643,38.9300,68,99,404675
1.4370,0.4497,39.0900,68,99,404679
1.4272,0.4399,39.0900,68,99,404682
1.4272,0.4399,39.2800,68,99,404685
1.4370,0.4399,39.1600,68,99,404689
1.4761,0.4545,39.0900,68,99,404692
1.4565,0.4545,39.1200,68,99,404696
1.4663,0.4448,39.0300,68,99,404699
1.4321,0.4350,39.1900,68,99,404703
1.4418,0.4399,39.1200,68,99,404706
1.4761,0.4643,39.0300,68,99,404709
1.4565,0.4448,39.3500,68,99,404713
1.4858,0.4790,39.1200,68,99,404716
1.4614,0.4350,39.1200,68,99,404719
1.4663,0.4399,39.0600,68,99,404723
1.4956,0.4497,39.0600,68,99,404726
1.4809,0.4399,39.3200,68,99,404729
1.5200,0.4497,39.0000,68,99,404733
1.5103,0.4399,39.0600,68,99,404737
1.5249,0.4399,39.1600,68,99,404740
1.5591,0.4448,39.0600,68,99,404743
1.5640,0.4399,39.1600,68,99,404747
1.6325,0.4545,39.0300,68,99,404750
1.5934,0.4252,39.1200,68,99,404753
1.6031,0.4399,39.1900,68,99,404757
1.5982,0.4448,39.1200,68,99,404760
1.5787,0.4399,39.2500,68,99,404763
1.6520,0.4497,38.9000,68,99,404767
1.6325,0.4252,39.0900,68,99,404770
1.6373,0.4350,39.0900,68,99,404773
1.6325,0.4448,39.1900,68,99,404777
1.6227,0.4399,39.1900,68,99,404781
1.6911,0.4448,39.0000,68,99,404784
1.6276,0.4790,39.0000,68,99,404787
1.6325,0.4643,39.0300,68,99,404791
1.6031,0.4399,39.1600,68,99,404794
1.5836,0.4399,39.1600,68,99,404797
1.5738,0.4497,39.0000,68,99,404801
1.5200,0.4448,39.1600,68,99,404804
1.5200,0.4497,39.0300,68,99,404807
1.4761,0.4399,39.1600,68,99,404811
1.4712,0.4497,39.2200,68,99,404814
1.4761,0.4399,39.0600,68,99,404817
1.4565,0.4350,39.1900,68,99,404822
1.4809,0.4790,39.0000,68,99,404825
1.4565,0.4399,39.1600,68,99,404828
1.4809,0.4399,39.3500,68,99,404831
1.4956,0.4545,39.0600,68,99,404835
1.4761,0.4399,39.4100,68,99,404838
1.5005,0.4448,38.9300,68,99,404841
1.4858,0.4448,39.0600,68,99,404845
1.4907,0.4399,39.1900,68,99,404848
1.5152,0.4497,39.0900,68,99,404851
1.4956,0.4399,39.1900,68,99,404855
1.5347,0.4545,38.8700,68,99,404858
1.4809,0.4448,39.0600,68,99,404861
1.4907,0.4399,39.4800,68,99,404866
1.5054,0.4399,39.1200,68,99,404869
1.5103,0.4399,39.1600,68,99,404872
1.5591,0.4643,39.0000,68,99,404875
1.5298,0.4497,39.0900,68,99,404879
1.5249,0.4399,39.4800,68,99,404882
1.5200,0.4497,39.1900,68,99,404885
1.5298,0.4399,39.1900,68,99,404889
1.5738,0.4545,39.0600,68,99,404892
1.5591,0.4448,39.1600,68,99,404895
1.5689,0.4448,39.0300,68,99,404899
1.5445,0.4399,39.1900,68,99,404902
1.5543,0.4399,39.1200,68,99,404905
1.5836,0.4545,39.0600,68,99,404910
1.5494,0.4643,39.2500,68,99,404913
1.5396,0.4497,39.0900,68,99,404916
1.4809,0.4350,39.1200,68,99,404919
1.4858,0.4790,39.1600,68,99,404923
1.5982,0.4497,39.0300,68,99,404926
1.7937,0.4399,39.0300,68,99,404929
2.1994,0.4497,39.0000,68,99,404933
4.1740,0.4594,38.9000,68,99,404937
3.6706,0.4399,39.1200,68,99,404941
3.0303,0.4399,39.2200,68,99,404944
2.3803,0.4399,39.1200,68,99,404947
1.8328,0.4399,39.1900,68,99,404952
1.5054,0.4692,38.9600,68,99,404955
1.2366,0.4448,39.1600,68,99,404958
1.1144,0.4399,39.0900,68,99,404962
1.0606,0.4399,39.1600,68,99,404965
1.0557,0.4399,38.3600,68,99,404968
1.1095,0.4545,39.0000,68,99,404971
1.1339,0.4448,39.1200,68,99,404975
1.1877,0.4448,39.0600,68,99,404978
1.2121,0.4399,39.1900,68,99,404981
1.2366,0.4399,39.1600,68,99,404985
1.2708,0.4594,39.0600,68,99,404988
1.2708,0.4399,39.1600,68,99,404992
1.3099,0.4497,39.0600,68,99,404996
1.3099,0.4448,39.1900,68,99,404999
1.3294,0.4399,39.1600,68,99,405002
1.3539,0.4448,39.0300,68,99,405006
1.3832,0.4399,39.1900,68,99,405009
1.3978,0.4448,39.3500,68,99,405012
1.3978,0.4399,39.1900,68,99,405015
1.4174,0.4399,38.5800,68,99,405019
1.4418,0.4399,39.1900,68,99,405022
1.4418,0.4399,39.2800,68,99,405025
1.4858,0.4497,38.9000,68,99,405029
1.4761,0.4448,39.0900,68,99,405032
1.4907,0.4399,39.2500,68,99,405036
1.5152,0.4448,39.1200,68,99,405040
1.5103,0.4399,39.1600,68,99,405043
1.5934,0.4448,38.9300,68,99,405046
1.5298,0.4497,39.0300,68,99,405050
1.5298,0.4399,39.1200,68,99,405053
1.5543,0.4399,39.1600,68,99,405056
1.5689,0.4399,39.1900,68,99,405059
1.6227,0.4594,39.0300,68,99,405063
1.5934,0.4448,39.1200,68,99,405066
1.5982,0.4448,39.0600,68,99,405069
1.5934,0.4399,39.1900,68,99,405073
1.6129,0.4399,39.1600,68,99,405076
1.6471,0.4594,39.1200,68,99,405080
1.6325,0.4399,39.1600,68,99,405084
1.6813,0.4497,39.5100,68,99,405087
1.6520,0.4399,39.1600,68,99,405090
1.6716,0.4497,39.2200,68,99,405094
1.7058,0.4497,39.0600,68,99,405097
1.7107,0.4399,39.1900,68,99,405100
1.7644,0.4497,38.9600,68,99,405104
1.7351,0.4399,39.4800,68,99,405107
1.7498,0.4497,39.1600,68,99,405110
1.7791,0.4692,39.0600,68,99,405114
1.7742,0.4448,39.1900,68,99,405117
1.8377,0.4545,39.0300,68,99,405121
1.8280,0.4448,39.0600,68,99,405124
1.8231,0.4252,39.1900,68,99,405128
1.8475,0.4448,39.0900,68,99,405131
1.8573,0.4350,39.1600,68,99,405134
1.9453,0.4545,38.8700,68,99,405138
1.9208,0.4448,39.0600,68,99,405141
1.9404,0.4350,39.1600,68,99,405144
1.9550,0.4399,39.1600,68,99,405148
1.9746,0.4399,39.1900,68,99,405151
2.0626,0.4594,39.0600,68,99,405154
2.0772,0.4448,39.1200,68,99,405158
2.0968,0.4497,39.0600,68,99,405161
2.1163,0.4399,39.1600,68,99,405165
2.1505,0.4252,39.1600,68,99,405168
2.2190,0.4497,38.9600,68,99,405172
2.2239,0.4252,39.1600,68,99,405175
2.2874,0.4448,39.0300,68,99,405178
2.3069,0.4399,39.1900,68,99,405182
2.3118,0.4399,39.1600,68,99,405185
2.3949,0.4497,39.0300,68,99,405188
2.3363,0.4399,39.1900,68,99,405192
2.3949,0.4399,39.0300,68,99,405195
2.3705,0.4350,39.1200,68,99,405198
2.3803,0.4399,39.1900,68,99,405202
2.3949,0.4399,39.0600,68,99,405206
2.3509,0.4399,39.1600,68,99,405209
2.3607,0.4497,38.9300,68,99,405212
2.3069,0.4399,39.1900,68,99,405216
2.2287,0.4399,39.1900,68,99,405219
2.1799,0.4497,39.0900,68,99,405222
2.0821,0.4399,39.1900,68,99,405226
2.0528,0.4545,38.9000,68,99,405229
1.9404,0.4448,39.1200,68,99,405232
1.8622,0.4399,39.1600,68,99,405236
1.8035,0.4643,39.1200,68,99,405239
1.7302,0.4399,39.1900,68,99,405242
1.7253,0.4643,38.9300,68,99,405245
1.6325,0.4545,39.0600,68,99,405250
1.5787,0.4399,39.1200,68,99,405253
1.5494,0.4448,39.1600,68,99,405256
1.5249,0.4399,39.2200,68,99,405260
1.5445,0.4497,39.0000,68,99,405263
1.5005,0.4448,39.1200,68,99,405266
1.5005,0.4448,39.0900,68,99,405270
1.4761,0.4399,39.1600,68,99,405273
1.4858,0.4350,39.1600,68,99,405276
1.5152,0.4497,39.1600,68,99,405280
1.5054,0.4350,39.1900,68,99,405283
1.5249,0.4252,39.0600,68,99,405286
1.5054,0.4399,39.1900,68,99,405291
1.5249,0.4399,39.1900,68,99,405294
1.5738,0.4497,39.0000,68,99,405297
1.5738,0.4399,39.1900,68,99,405300
1.6080,0.4448,39.0000,68,99,405304
1.5934,0.4399,39.0600,68,99,405307
1.6373,0.4399,39.1600,68,99,405310
1.6373,0.4643,39.0300,68,99,405314
1.6471,0.4252,39.1900,68,99,405317
1.7009,0.4497,38.8700,68,99,405320
1.7009,0.4497,39.0900,68,99,405324
1.6764,0.4399,39.1900,68,99,405327
1.7058,0.4448,39.0000,68,99,405330
1.7058,0.4448,39.1200,68,99,405334
1.7791,0.4594,38.9300,68,99,405338
1.7351,0.4497,39.0600,68,99,405341
1.7400,0.4252,39.1600,68,99,405344
1.7351,0.4448,39.1600,68,99,405348
1.7253,0.4399,39.2200,68,99,405351
1.7840,0.4594,39.0000,68,99,405354
1.7742,0.4497,39.1900,68,99,405358
1.7742,0.4399,39.0900,68,99,405361
1.7693,0.4350,39.1600,68,99,405364
1.7693,0.4399,39.1900,68,99,405368
1.8084,0.4545,39.0600,68,99,405371
1.7840,0.4448,39.1200,68,99,405374
1.8133,0.4448,39.0000,68,99,405379
1.7986,0.4350,39.1900,68,99,405382
1.8084,0.4350,39.1900,68,99,405385
1.8231,0.4497,39.0300,68,99,405388
1.8084,0.4252,39.1600,68,99,405392
1.8475,0.4448,39.1600,68,99,405395
1.8133,0.4301,39.2200,68,99,405398
1.8280,0.4399,39.0900,68,99,405402
1.8426,0.4594,39.0600,68,99,405405
1.8280,0.4399,39.1900,68,99,405408
1.8622,0.4448,39.0000,68,99,405412
1.8671,0.4350,39.1900,68,99,405415
1.8524,0.4399,39.1900,68,99,405419
1.8671,0.4497,39.1200,68,99,405423
1.8377,0.4399,39.1600,68,99,405426
1.8768,0.4545,38.8700,68,99,405429
1.8475,0.4448,39.2200,68,99,405432
1.8426,0.4448,39.1600,68,99,405436
1.8524,0.4448,38.4600,68,99,405439
1.8426,0.4399,39.1600,68,99,405442
1.9013,0.4643,38.9300,68,99,405446
1.8524,0.4497,39.0600,68,99,405449
1.8524,0.4399,39.1200,68,99,405452
1.8524,0.4399,39.0600,68,99,405456
1.8622,0.4301,39.1600,68,99,405459
1.9013,0.4497,39.0300,68,99,405463
1.8671,0.4545,39.0600,68,99,405467
1.8768,0.4497,39.0600,68,99,405470
1.8524,0.4399,39.1900,68,99,405473
1.8524,0.4350,39.1600,68,99,405476
1.8866,0.4448,39.1600,68,99,405480
1.8768,0.4399,39.1900,68,99,405483
1.9062,0.4497,39.0600,68,99,405486
1.8671,0.4545,39.1600,68,99,405490
1.8768,0.4399,39.1900,68,99,405493
1.9062,0.4497,39.0600,68,99,405496
1.8768,0.4399,39.1900,68,99,405500
1.9110,0.4448,39.0000,68,99,405504
1.8866,0.4399,39.0900,68,99,405507
1.8866,0.4350,39.1600,68,99,405511
1.9159,0.4594,39.0300,68,99,405514
1.9013,0.4399,39.1900,68,99,405517
1.9550,0.4497,38.9300,68,99,405520
1.9208,0.4448,39.1200,68,99,405524
1.9013,0.4399,39.1600,68,99,405527
1.9110,0.4448,39.1600,68,99,405530
1.9062,0.4350,39.1900,68,99,405534
1.9599,0.4545,38.8700,68,99,405537
1.9159,0.4399,39.1900,68,99,405540
1.9159,0.4350,39.1600,68,99,405544
1.9013,0.4399,39.1600,68,99,405548
1.8964,0.4399,39.1600,68,99,405553
1.8817,0.4399,39.2200,68,99,405556
1.9013,0.4594,39.0300,68,99,405559
1.8671,0.4399,39.2800,68,99,405563
1.9062,0.4448,39.0900,68,99,405566
1.8866,0.4252,39.1200,68,99,405569
1.8915,0.4399,39.2200,68,99,405573
1.9110,0.4497,39.0300,68,99,405576
1.8817,0.4545,39.1600,68,99,405579
1.9257,0.4497,38.9300,68,99,405582
1.9013,0.4399,39.0600,68,99,405586
1.9208,0.4399,39.0900,68,99,405590
1.9306,0.4497,39.0900,68,99,405593
1.9062,0.4399,39.1600,68,99,405597
1.9550,0.4790,38.9000,68,99,405600
1.9062,0.4350,39.1600,68,99,405603
1.9355,0.4399,39.0900,68,99,405607
1.9453,0.4350,39.1900,68,99,405610
1.9355,0.4399,39.2500,68,99,405613
1.9941,0.4643,38.9300,68,99,405617
1.9550,0.4448,39.0600,68,99,405620
1.9550,0.4350,39.1200,68,99,405623
1.9648,0.4399,39.1900,68,99,405626
1.9648,0.4399,39.1600,68,99,405630
2.0479,0.4545,38.9600,68,99,405634
1.9746,0.4448,39.2800,68,99,405637
1.9844,0.4497,39.0300,68,99,405641
1.9795,0.4399,39.2500,68,99,405644
1.9892,0.4350,39.1900,68,99,405647
2.0186,0.4497,39.0000,68,99,405651
1.9746,0.4399,39.3500,68,99,405654
2.0039,0.4545,39.0300,68,99,405657
1.9648,0.4399,39.1200,68,99,405661
1.9746,0.4448,39.1600,68,99,405664
1.9990,0.4399,39.0900,68,99,405667
1.9990,0.4399,39.1900,68,99,405670
2.0430,0.4741,39.0300,68,99,405675
1.9990,0.4301,39.1900,68,99,405678
2.0186,0.4399,39.2200,68,99,405681
2.0626,0.4497,39.0600,68,99,405685
2.0235,0.4399,38.7100,68,99,405688
2.0626,0.4545,38.9600,68,99,405691
2.0381,0.4350,39.0300,68,99,405695
2.0283,0.4399,39.1900,68,99,405698
2.0870,0.4497,39.1200,68,99,405701
2.0577,0.4399,39.1900,68,99,405705
2.1163,0.4545,38.9600,68,99,405708
2.0626,0.4448,39.0600,68,99,405711
2.0479,0.4399,39.4100,68,99,405714
2.0479,0.4545,39.1900,68,99,405719
2.0381,0.4399,39.1900,68,99,405722
2.1017,0.4643,38.9300,68,99,405725
2.0430,0.4448,39.0600,68,99,405729
2.0088,0.4252,39.0900,68,99,405732
1.9697,0.4399,39.1900,68,99,405735
1.9453,0.4350,39.1900,68,99,405739
1.9746,0.4545,39.1200,68,99,405742
1.9355,0.4399,39.1200,68,99,405745
1.9453,0.4448,39.0600,68,99,405748
1.9110,0.4741,39.1900,68,99,405752
1.8964,0.4350,39.1900,68,99,405755
1.9404,0.4497,39.0300,68,99,405758
1.9013,0.4399,39.1600,68,99,405763
1.9404,0.4497,39.2800,68,99,405766
1.9159,0.4399,39.1200,68,99,405769
1.9159,0.4399,39.1900,68,99,405773
1.9257,0.4545,39.0300,68,99,405776
1.8915,0.4399,39.1600,68,99,405779
1.9355,0.4448,39.0000,68,99,405783
1.9208,0.4252,39.1200,68,99,405786
1.9257,0.4643,39.2200,68,99,405789
1.9453,0.4252,39.0900,68,99,405793
1.9257,0.4399,39.1600,68,99,405796
1.9746,0.4936,38.9000,68,99,405799
1.9257,0.4350,39.1900,68,99,405803
1.9453,0.4399,39.1600,68,99,405807
1.9501,0.4448,39.1200,68,99,405810
1.9355,0.4301,39.1600,68,99,405813
1.9941,0.4594,38.9300,68,99,405817
1.9599,0.4497,39.1200,68,99,405820
1.9648,0.4252,39.1200,68,99,405823
1.9795,0.4448,39.1600,68,99,405827
1.9795,0.4399,39.1900,68,99,405830
2.0283,0.4545,38.9300,68,99,405833
1.9941,0.4448,39.1200,68,99,405837
2.0039,0.4399,39.0300,68,99,405840
1.9892,0.4301,39.1600,68,99,405843
1.9795,0.4252,39.1600,68,99,405848
1.9697,0.4545,39.0300,68,99,405851
1.9062,0.4350,39.1200,68,99,405854
1.9306,0.4448,39.0600,68,99,405857
1.9941,0.4399,39.3500,68,99,405861
2.2287,0.4399,39.1900,68,99,405864
2.6149,0.4399,39.0300,68,99,405867
3.0987,0.4497,39.1600,68,99,405871
3.6999,0.4252,39.0300,68,99,405874
4.1642,0.4497,39.2500,68,99,405877
4.5015,0.4399,39.1900,68,99,405881
4.4966,0.4448,39.2800,68,99,405884
4.0567,0.4399,39.1600,68,99,405888
3.5044,0.4497,38.9300,68,99,405892
2.8152,0.4448,39.1200,68,99,405895
2.2825,0.4399,39.1900,68,99,405898
1.9208,0.4399,39.1200,68,99,405901
1.6618,0.4399,39.1900,68,99,405905
1.5738,0.4545,38.8400,68,99,405908
1.4858,0.4448,39.0300,68,99,405911
1.4809,0.4350,39.2500,68,99,405915
1.5103,0.4399,39.1200,68,99,405918
1.5396,0.4350,39.1900,68,99,405921
1.6373,0.4839,38.9600,68,99,405925
1.6276,0.4448,39.0900,68,99,405928
1.6422,0.4399,39.1200,68,99,405932
1.6422,0.4350,39.1600,68,99,405936
1.6569,0.4399,39.1900,68,99,405939
1.7107,0.4252,39.0600,68,99,405942
1.7058,0.4399,39.1200,68,99,405945
1.7400,0.4448,39.1200,68,99,405949
1.7204,0.4399,39.1600,68,99,405952
1.7253,0.4350,39.2500,68,99,405955
1.7644,0.4545,39.0300,68,99,405959
1.7546,0.4399,39.1600,68,99,405962
1.8133,0.4497,39.0600,68,99,405965
1.7986,0.4350,39.1200,68,99,405969
1.8084,0.4399,39.1600,68,99,405972
1.8280,0.4448,39.0300,68,99,405976
1.8035,0.4594,39.1600,68,99,405980
1.8426,0.4448,38.9600,68,99,405983
1.8377,0.4399,39.0900,68,99,405986
1.8524,0.4301,39.1600,68,99,405989
1.8817,0.4448,39.0900,68,99,405993
1.8719,0.4399,39.2500,68,99,405996
1.9306,0.4643,38.9000,68,99,405999
1.8915,0.4350,39.1200,68,99,406003
1.9159,0.4448,39.2500,68,99,406006
1.9208,0.4252,39.1600,68,99,406009
1.9062,0.4399,39.2200,68,99,406013
1.9550,0.4643,38.9300,68,99,406017
1.9062,0.4448,39.1200,68,99,406020
1.9501,0.4350,39.1200,68,99,406024
1.9306,0.4399,39.2500,68,99,406027
1.9355,0.4350,39.1600,68,99,406030
1.9844,0.4545,39.0600,68,99,406033
1.9501,0.4448,39.1200,68,99,406037
1.9648,0.4399,39.0900,68,99,406040
1.9599,0.4448,39.1600,68,99,406043
1.9844,0.4350,39.2500,68,99,406047
2.0088,0.4497,38.9600,68,99,406050
1.9795,0.4448,39.1200,68,99,406053
2.0088,0.4497,39.0300,68,99,406057
1.9844,0.4399,39.2200,68,99,406061
2.0137,0.4399,39.1600,68,99,406064
2.0381,0.4399,39.0900,68,99,406068
2.0430,0.4448,39.2500,68,99,406071
2.0821,0.4497,39.0300,68,99,406074
2.0528,0.4399,39.2200,68,99,406077
2.0772,0.4399,39.1600,68,99,406081
2.1212,0.4448,39.0900,68,99,406084
2.1114,0.4399,39.1600,68,99,406087
2.1750,0.4545,39.0000,68,99,406091
2.1701,0.4448,39.0900,68,99,406094
2.1896,0.4399,39.3200,68,99,406097
2.2776,0.4497,39.0600,68,99,406102
2.2483,0.4399,39.1900,68,99,406105
2.3412,0.4643,38.9000,68,99,406108
2.3265,0.4448,39.0600,68,99,406112
2.3412,0.4399,39.1600,68,99,406115
2.3851,0.4399,39.1200,68,99,406118
2.4194,0.4399,39.4100,68,99,406121
2.5758,0.4643,38.9300,68,99,406125
2.5220,0.4497,39.0900,68,99,406128
2.5415,0.4399,39.1200,68,99,406131
2.5513,0.4399,39.1600,68,99,406135
2.5660,0.4350,39.1600,68,99,406138
2.6393,0.4545,39.0600,68,99,406141
2.6246,0.4448,39.4100,68,99,406146
2.6637,0.4497,39.0600,68,99,406149
2.6197,0.4399,39.2500,68,99,406152
2.5904,0.4643,39.1900,68,99,406156
2.5904,0.4545,39.0600,68,99,406159
2.2483,0.4448,39.0600,68,99,406164
2.1114,0.4399,39.1600,68,99,406167
2.0674,0.4497,38.9300,68,99,406170
1.9501,0.4448,39.0900,68,99,406173
1.8719,0.4350,39.1600,68,99,406177
1.8231,0.4448,39.1200,68,99,406180
1.7449,0.4399,39.1200,68,99,406183
1.7546,0.4448,38.9300,68,99,406188
1.6862,0.4399,39.0600,68,99,406191
1.6764,0.4399,39.1900,68,99,406194
1.6667,0.4448,39.1900,68,99,406198
1.6618,0.4399,39.1900,68,99,406201
1.6764,0.4594,39.0300,68,99,406204
1.6373,0.4497,39.0900,68,99,406208
1.6764,0.4399,39.0900,68,99,406211
1.6471,0.4399,39.0300,68,99,406214
1.6618,0.4350,39.1900,68,99,406217
1.7058,0.4497,39.0000,68,99,406221
1.6813,0.4741,39.1600,68,99,406224
1.7107,0.4448,39.0600,68,99,406227
1.7058,0.4399,39.1900,68,99,406232
1.7302,0.4448,39.1600,68,99,406235
1.7742,0.4545,39.0600,68,99,406238
1.7498,0.4399,39.0900,68,99,406242
1.7791,0.4741,39.0600,68,99,406245
1.7546,0.4399,39.1600,68,99,406248
1.7791,0.4399,39.1600,68,99,406252
1.8133,0.4448,39.0900,68,99,406255
1.8182,0.4399,39.1600,68,99,406258
1.8524,0.4497,39.0000,68,99,406261
1.8231,0.4399,39.1900,68,99,406265
1.8377,0.4399,39.1600,68,99,406268
1.8719,0.4497,39.0900,68,99,406272
1.8573,0.4399,39.1900,68,99,406276
1.9159,0.4497,38.9000,68,99,406279
1.8866,0.4448,39.0600,68,99,406282
1.8768,0.4399,39.1600,68,99,406286
1.8915,0.4448,39.1200,68,99,406289
1.8866,0.4350,39.1900,68,99,406292
1.9501,0.4643,38.0500,68,99,406296
1.9062,0.4497,39.0300,68,99,406299
1.8915,0.4350,39.1200,68,99,406302
1.8915,0.4399,39.2500,68,99,406305
1.9013,0.4399,39.1900,68,99,406309
1.9648,0.4545,39.0900,68,99,406312
1.9404,0.4448,39.1600,68,99,406316
1.9550,0.4399,39.0900,68,99,406320
1.9257,0.4399,39.0900,68,99,406323
1.9208,0.4350,39.1900,68,99,406326
1.9501,0.4448,38.9600,68,99,406330
1.9697,0.4399,39.1600,68,99,406333
1.9550,0.4252,39.0300,68,99,406336
1.9110,0.4399,39.1900,68,99,406340
1.9062,0.4350,39.2200,68,99,406343
1.9257,0.4497,39.0300,68,99,406346
1.8915,0.4399,39.1600,68,99,406350
1.9306,0.4399,38.5200,68,99,406353
1.9306,0.4399,39.0900,68,99,406356
1.8964,0.4350,39.1600,68,99,406360
1.9062,0.4448,39.0600,68,99,406364
1.9062,0.4399,39.1900,68,99,406367
1.9355,0.4497,38.9000,68,99,406370
1.9062,0.4399,39.1600,68,99,406374
1.9013,0.4399,39.1900,68,99,406377
1.9062,0.4497,39.1200,68,99,406380
1.8768,0.4399,39.1600,68,99,406384
1.9257,0.4448,38.9000,68,99,406387
1.8866,0.4252,39.0900,68,99,406390
1.9013,0.4350,39.1900,68,99,406394
1.9062,0.4497,39.1600,68,99,406397
1.8964,0.4399,39.1900,68,99,406401
1.9404,0.4643,39.0000,68,99,406404
1.9257,0.4448,39.0900,68,99,406408
1.8964,0.4399,39.1200,68,99,406411
1.8964,0.4399,39.1600,68,99,406414
1.9062,0.4399,39.1600,68,99,406418
1.9355,0.4497,39.0300,68,99,406421
1.8964,0.4448,39.1900,68,99,406424
1.9159,0.4448,39.0300,68,99,406428
1.9062,0.4350,39.1900,68,99,406431
1.9159,0.4399,39.1900,68,99,406434
1.9355,0.4497,39.1200,68,99,406438
1.9110,0.4252,39.1900,68,99,406441
1.9453,0.4497,39.0600,68,99,406445
1.9013,0.4350,39.1900,68,99,406448
1.9257,0.4399,39.2200,68,99,406452
1.9550,0.4399,39.0600,68,99,406455
1.9355,0.4350,39.1600,68,99,406458
1.9550,0.4448,38.3600,68,99,406462
1.9257,0.4399,39.1900,68,99,406465
1.9306,0.4350,39.1900,68,99,406468
1.9550,0.4545,39.0900,68,99,406472
1.9355,0.4399,39.2800,68,99,406475
1.9844,0.4545,38.9000,68,99,406478
1.9501,0.4448,39.0600,68,99,406482
1.9257,0.4350,39.2500,68,99,406486
1.9355,0.4252,39.1200,68,99,406489
1.9306,0.4350,39.2500,68,99,406492
1.9941,0.4497,38.9000,68,99,406496
1.9404,0.4399,39.0600,68,99,406499
1.9306,0.4350,39.0900,68,99,406502
1.9257,0.4399,39.1600,68,99,406506
1.9306,0.4350,39.1900,68,99,406509
1.9892,0.4545,38.9600,68,99,406512
1.9795,0.4497,39.1600,68,99,406516
1.9795,0.4399,39.0300,68,99,406519
1.9648,0.4399,39.1900,68,99,406522
1.9501,0.4399,39.2200,68,99,406526
1.9746,0.4399,39.1200,68,99,406530
1.9599,0.4399,39.1600,68,99,406533
1.9941,0.4448,39.0300,68,99,406536
1.9599,0.4399,39.1900,68,99,406540
1.9648,0.4448,39.1200,68,99,406543
1.9892,0.4448,39.0600,68,99,406546
1.9648,0.4399,39.1600,68,99,406550
2.0088,0.4497,39.0300,68,99,406553
1.9844,0.4399,39.0900,68,99,406556
1.9892,0.4350,39.2200,68,99,406560
2.0039,0.4448,39.0900,68,99,406563
1.9892,0.4399,39.1900,68,99,406566
2.0381,0.4497,39.0000,68,99,406571
2.0283,0.4399,39.1600,68,99,406574
2.0186,0.4350,39.1600,68,99,406577
2.0430,0.4448,39.0900,68,99,406580
2.0235,0.4399,39.1600,68,99,406584
2.0821,0.4545,38.9000,68,99,406587
2.0332,0.4350,39.0600,68,99,406590
2.0479,0.4350,39.1600,68,99,406594
2.0528,0.4399,39.1200,68,99,406597
2.0283,0.4399,39.1600,68,99,406600
2.0968,0.4643,38.9300,68,99,406604
2.0674,0.4448,39.0900,68,99,406607
2.0772,0.4350,39.1600,68,99,406610
2.1017,0.4399,39.1900,68,99,406614
2.0968,0.4350,39.1900,68,99,406618
2.1408,0.4643,39.0000,68,99,406621
2.0968,0.4252,39.1600,68,99,406624
2.0968,0.4399,39.0600,68,99,406628
2.0723,0.4399,39.1600,68,99,406631
2.0674,0.4399,39.2200,68,99,406634
2.0772,0.4497,39.0000,68,99,406638
2.0283,0.4301,39.1600,68,99,406641
2.0235,0.4497,39.0300,68,99,406644
1.9599,0.4399,39.0900,68,99,406647
1.9550,0.4350,39.1900,68,99,406651
1.9697,0.4399,39.1600,68,99,406654
1.9501,0.4399,39.1600,68,99,406658
1.9746,0.4399,39.0600,68,99,406662
1.9306,0.4399,39.1600,68,99,406665
1.9355,0.4350,39.2200,68,99,406668
1.9599,0.4448,39.2200,68,99,406672
1.9453,0.4399,39.1900,68,99,406675
1.9844,0.4497,38.9000,68,99,406678
1.9746,0.4497,39.0600,68,99,406682
1.9306,0.4399,39.1900,68,99,406685
1.9404,0.4448,39.0900,68,99,406688
1.9550,0.4350,39.1900,68,99,406691
1.9844,0.4545,38.9000,68,99,406695
1.9404,0.4448,39.0900,68,99,406699
1.9306,0.4399,39.1900,68,99,406702
1.9208,0.4448,39.3500,68,99,406706
1.9159,0.4692,39.1900,68,99,406709
1.9892,0.4643,38.9600,68,99,406712
1.9844,0.4497,39.0900,68,99,406716
1.9550,0.4399,39.0900,68,99,406719
1.9404,0.4399,39.1600,68,99,406722
1.9453,0.4399,39.1900,68,99,406726
1.9941,0.4545,39.0300,68,99,406729
1.9746,0.4399,39.1600,68,99,406732
2.0039,0.4448,39.0900,68,99,406735
1.9795,0.4350,39.0900,68,99,406739
1.9941,0.4399,39.1600,68,99,406743
2.0039,0.4497,39.0300,68,99,406746
1.9697,0.4497,39.1600,68,99,406750
1.9844,0.4252,39.0600,68,99,406753
1.9110,0.4350,39.1900,68,99,406756
1.8719,0.4448,39.1600,68,99,406760
1.8768,0.4399,38.2100,68,99,406763
1.9501,0.4399,39.1600,68,99,406766
2.2043,0.4448,39.0000,68,99,406770
4.5650,0.4545,38.9300,67,99,406774
4.4184,0.4399,39.1200,67,99,406778
4.0029,0.4350,39.1900,67,99,406781
3.3773,0.4399,39.1600,67,99,406785
2.7322,0.4399,39.1900,67,99,406788
2.2532,0.4594,38.7400,67,99,406792
1.8133,0.4350,39.1900,67,99,406795
1.5689,0.4399,39.0900,67,99,406798
1.4223,0.4448,39.1600,67,99,406802
1.3636,0.4350,39.1600,67,99,406805
1.3734,0.4545,38.9600,67,99,406808
1.3636,0.4399,39.1600,67,99,406812
1.4076,0.4643,39.0300,67,99,406815
1.4321,0.4350,39.1600,67,99,406818
1.4712,0.4350,39.1600,67,99,406822
1.5152,0.4448,39.1200,67,99,406825
1.5200,0.4448,39.1600,67,99,406829
1.5591,0.4350,39.0600,67,99,406833
1.5396,0.4350,39.1900,67,99,406836
1.5689,0.4399,39.1900,67,99,406839
1.6031,0.4448,39.0600,67,99,406842
1.5982,0.4399,39.1900,67,99,406846
1.6422,0.4497,38.9600,67,99,406849
1.6129,0.4692,39.1900,67,99,406852
1.6422,0.4252,39.1900,67,99,406856
1.6667,0.4350,39.1200,67,99,406859
1.6716,0.4350,39.1900,67,99,406862
1.7253,0.4692,38.9000,67,99,406866
1.7058,0.4448,39.0900,67,99,406870
1.7009,0.4350,39.2200,67,99,406873
1.7155,0.4399,39.1900,67,99,406877
1.7253,0.4350,39.1900,67,99,406880
1.7986,0.4790,38.9600,67,99,406883
1.7644,0.4497,39.0900,67,99,406887
1.7644,0.4350,39.1600,67,99,406890
1.7937,0.4399,39.1900,67,99,406893
1.7742,0.4350,39.1900,67,99,406896
1.8377,0.4643,39.0600,67,99,406900
1.8084,0.4448,39.1200,67,99,406903
1.8280,0.4399,38.3600,67,99,406906
1.8084,0.4448,39.1600,67,99,406910
1.8133,0.4301,39.0900,67,99,406914
1.8426,0.4497,39.1900,67,99,406917
1.8426,0.4252,39.1900,67,99,406921
1.8719,0.4497,39.0900,67,99,406924
1.8524,0.4399,39.1900,67,99,406927
1.8622,0.4350,39.1600,67,99,406931
1.8915,0.4448,39.0600,67,99,406934
1.8768,0.4301,39.1900,67,99,406937
1.9355,0.4448,38.9600,67,99,406940
1.9208,0.4399,39.1200,67,99,406944
1.9257,0.4350,39.1900,67,99,406947
1.9453,0.4497,39.0900,67,99,406950
1.9404,0.4399,39.1600,67,99,406955
2.0039,0.4545,39.0000,67,99,406958
1.9697,0.4350,39.1200,67,99,406961
2.0235,0.4350,39.1900,67,99,406965
2.0186,0.4448,39.2500,67,99,406968
2.0137,0.4350,39.1600,67,99,406971
2.0968,0.4594,38.9000,67,99,406975
2.0626,0.4399,39.0300,67,99,406978
2.0821,0.4301,39.1200,67,99,406981
2.0919,0.4399,39.1900,67,99,406984
2.1114,0.4399,39.1600,67,99,406988
2.1896,0.4545,39.0000,67,99,406991
2.1750,0.4399,39.1200,67,99,406994
2.2141,0.4399,39.0900,67,99,406999
2.2385,0.4399,39.1900,67,99,407002
2.2825,0.4350,39.1600,67,99,407005
2.3803,0.4448,38.9600,67,99,407009
2.3363,0.4399,39.0900,67,99,407012
2.3949,0.4399,39.0300,67,99,407015
2.4047,0.4350,39.1600,67,99,407019
2.4438,0.4350,39.1600,67,99,407022
2.4927,0.4399,39.1200,67,99,407025
2.4976,0.4399,39.1600,67,99,407028
2.5513,0.4399,39.0600,67,99,407032
2.5220,0.4252,39.1600,67,99,407035
2.5464,0.4350,39.2500,67,99,407038
2.5904,0.4399,39.0600,67,99,407043
2.5464,0.4399,38.3300,67,99,407046
2.5709,0.4448,39.0000,67,99,407049
2.4780,0.4350,39.2200,67,99,407053
2.4340,0.4350,39.2800,67,99,407056
2.3900,0.4448,39.0900,67,99,407059
2.2972,0.4399,39.1900,67,99,407062
2.2727,0.4497,38.9000,67,99,407066
2.1505,0.4448,39.1200,67,99,407069
2.0479,0.4399,39.1600,67,99,407072
1.9795,0.4399,39.2200,67,99,407076
1.9062,0.4448,39.1600,67,99,407079
1.9013,0.4643,38.9300,67,99,407083
1.7937,0.4497,39.0600,67,99,407087
1.7253,0.4399,39.1200,67,99,407090
1.6862,0.4399,39.1900,67,99,407093
1.6520,0.4399,39.1900,67,99,407097
1.6716,0.4545,39.0300,67,99,407100
1.6325,0.4497,39.1600,67,99,407103
1.6276,0.4497,39.0900,67,99,407106
1.5885,0.4399,39.0900,67,99,407110
1.5787,0.4399,39.1900,67,99,407113
1.5982,0.4448,39.1200,67,99,407116
1.6031,0.4448,39.1600,67,99,407120
1.6373,0.4497,39.0300,67,99,407123
1.6080,0.4350,39.1600,67,99,407127
1.6129,0.4399,39.1900,67,99,407131
1.6325,0.4497,38.2700,67,99,407134
1.6178,0.4252,39.1900,67,99,407137
1.6569,0.4399,38.9600,67,99,407141
1.6569,0.4399,39.0900,67,99,407144
1.6618,0.4350,39.1900,67,99,407147
1.6911,0.4252,39.0900,67,99,407151
1.6813,0.4350,39.2200,67,99,407154
1.7302,0.4497,38.9000,67,99,407157
1.7009,0.4350,39.1600,67,99,407160
1.7204,0.4350,39.1600,67,99,407164
1.7302,0.4448,39.1200,67,99,407168
1.7107,0.4350,39.1900,67,99,407171
1.7742,0.4545,38.9600,67,99,407175
1.7400,0.4399,39.0600,67,99,407178
1.7693,0.4350,39.1600,67,99,407181
1.7791,0.4399,39.1900,67,99,407185
1.7742,0.4350,39.1900,67,99,407188
1.8328,0.4643,39.0000,67,99,407191
1.8084,0.4448,39.0900,67,99,407195
1.8133,0.4350,39.0900,67,99,407198
1.8231,0.4350,39.1600,67,99,407201
1.8328,0.4399,39.1900,67,99,407204
1.8719,0.4497,39.0600,67,99,407208
1.8328,0.4399,39.1900,67,99,407212
1.8622,0.4448,39.0600,67,99,407215
1.8524,0.4252,39.1600,67,99,407219
1.8671,0.4350,39.1900,67,99,407222
1.8915,0.4252,39.0900,67,99,407225
1.8768,0.4399,39.2200,67,99,407229
1.9110,0.4448,39.0300,67,99,407232
1.8768,0.4350,39.1900,67,99,407235
1.8866,0.4350,38.9600,67,99,407239
1.9110,0.4399,39.0600,67,99,407242
1.9013,0.4399,39.1900,67,99,407245
1.9306,0.4448,39.0900,67,99,407248
1.8915,0.4350,39.1600,67,99,407252
1.9208,0.4350,39.2200,67,99,407256
1.9453,0.4448,39.0900,67,99,407259
1.9355,0.4350,39.1900,67,99,407263
1.9844,0.4497,38.9000,67,99,407266
1.9550,0.4448,39.0900,67,99,407269
1.9306,0.4350,39.1900,67,99,407273
1.9453,0.4350,39.1200,67,99,407276
1.9501,0.4399,39.1900,67,99,407279
2.0088,0.4594,38.9300,67,99,407282
1.9501,0.4448,39.0600,67,99,407286
1.9453,0.4350,39.1600,67,99,407289
1.9355,0.4594,39.1600,67,99,407292
1.9306,0.4350,39.1900,67,99,407297
1.9892,0.4545,39.0300,67,99,407300
1.9697,0.4399,39.1200,67,99,407303
1.9697,0.4399,39.1600,67,99,407307
1.9453,0.4399,39.1900,67,99,407310
1.9306,0.4448,39.1600,67,99,407313
1.9599,0.4448,39.1200,67,99,407317
1.9501,0.4399,39.1900,67,99,407320
1.9795,0.4643,39.0300,67,99,407323
1.9453,0.4350,39.1200,67,99,407327
1.9404,0.4497,39.1900,67,99,407330
1.9648,0.4497,39.0600,67,99,407333
1.9306,0.4448,39.1600,67,99,407336
1.9746,0.4399,39.0000,67,99,407341
1.9453,0.4399,39.0900,67,99,407344
1.9404,0.4350,39.1600,67,99,407347
1.9501,0.4448,39.0600,67,99,407351
1.9257,0.4350,39.1900,67,99,407354
1.9746,0.4497,38.9300,67,99,407357
1.9404,0.4399,39.1600,67,99,407361
1.9501,0.4643,39.1900,67,99,407364
1.9599,0.4448,39.1200,67,99,407367
1.9404,0.4350,39.1200,67,99,407371
1.9941,0.4497,38.8700,67,99,407374
1.9501,0.4399,39.0900,67,99,407377
1.9648,0.4448,39.1600,67,99,407380
1.9599,0.4399,39.1900,67,99,407385
1.9501,0.4399,39.1600,67,99,407390
1.9453,0.4350,39.1900,67,99,407393
1.9648,0.4497,39.0900,67,99,407396
1.9159,0.4399,39.1900,67,99,407399
1.9404,0.4497,39.1900,67,99,407403
1.9062,0.4252,39.1200,67,99,407406
1.9257,0.4350,39.1900,67,99,407409
1.9697,0.4448,39.0600,67,99,407413
1.9306,0.4399,39.1600,67,99,407416
1.9550,0.4448,39.0000,67,99,407419
1.9404,0.4252,39.1200,67,99,407424
1.9355,0.4350,39.2200,67,99,407427
1.9599,0.4497,39.0900,67,99,407430
1.9404,0.4350,39.1900,67,99,407434
1.9844,0.4497,38.9000,67,99,407437
1.9306,0.4252,39.1200,67,99,407440
1.9453,0.4350,39.1600,67,99,407443
1.9599,0.4399,39.1200,67,99,407447
1.9550,0.4399,39.1900,67,99,407450
2.0186,0.4448,38.9300,67,99,407453
1.9697,0.4448,39.0300,67,99,407457
1.9550,0.4301,39.1600,67,99,407460
1.9648,0.4399,39.1600,67,99,407463
1.9746,0.4497,39.1600,67,99,407468
2.0332,0.4497,39.0000,67,99,407471
1.9941,0.4497,39.1600,67,99,407474
2.0039,0.4399,39.0900,67,99,407478
1.9892,0.4350,39.2800,67,99,407481
2.0039,0.4399,39.1600,67,99,407484
2.0528,0.4252,39.0900,67,99,407487
2.0430,0.4399,39.1600,67,99,407491
2.0723,0.4448,39.0600,67,99,407494
2.0332,0.4350,39.1900,67,99,407497
2.0235,0.4350,39.2800,67,99,407501
2.0381,0.4448,39.0900,67,99,407504
2.0528,0.4350,39.1600,67,99,407507
2.0919,0.4399,39.0600,67,99,407512
2.0674,0.4301,39.1600,67,99,407515
2.0772,0.4252,39.1900,67,99,407518
2.0968,0.4448,39.3500,67,99,407521
2.0723,0.4350,39.2200,67,99,407525
2.1114,0.4448,38.9600,67,99,407528
2.0723,0.4692,39.0600,67,99,407531
2.0626,0.4350,39.1600,67,99,407535
2.0528,0.4350,39.0900,67,99,407538
2.0137,0.4448,39.2200,67,99,407541
2.0577,0.4497,38.9000,67,99,407545
1.9795,0.4399,39.0900,67,99,407548
1.9697,0.4399,39.1900,67,99,407552
1.9453,0.4399,39.1600,67,99,407556
1.9110,0.4301,39.1900,67,99,407559
1.9599,0.4643,38.9300,67,99,407562
1.9159,0.4399,39.1900,67,99,407565
1.9159,0.4350,39.1200,67,99,407569
1.8964,0.4301,39.1600,67,99,407572
1.8915,0.4350,39.2200,67,99,407575
1.9208,0.4497,39.0900,67,99,407579
1.9159,0.4399,39.1600,67,99,407582
1.9013,0.4399,39.0600,67,99,407585
1.9013,0.4350,39.1200,67,99,407589
1.8915,0.4350,39.1900,67,99,407592
1.9208,0.4497,39.0600,67,99,407596
1.8817,0.4399,39.1900,67,99,407600
1.9110,0.4448,38.6500,67,99,407603
1.8866,0.4594,39.1600,67,99,407606
1.9062,0.4350,39.1900,67,99,407610
1.9110,0.4399,39.0900,67,99,407613
1.9257,0.4399,39.1900,67,99,407616
1.9110,0.4399,39.0300,67,99,407619
1.8817,0.4301,39.1600,67,99,407623
1.8964,0.4350,39.2200,67,99,407626
1.9257,0.4497,39.0600,67,99,407629
1.9062,0.4350,39.2200,67,99,407633
1.9453,0.4448,38.9300,67,99,407636
1.9062,0.4252,39.1200,67,99,407640
1.9159,0.4350,39.2200,67,99,407644
1.9501,0.4350,39.1900,67,99,407647
1.9257,0.4350,39.2200,67,99,407650
1.9795,0.4594,38.9000,67,99,407654
1.9159,0.4448,39.1200,67,99,407657
1.8671,0.4301,39.0900,67,99,407660
1.8377,0.4399,39.1600,67,99,407663
1.8328,0.4301,39.1900,67,99,407667
1.9550,0.4497,39.0000,67,99,407670
2.0919,0.4448,39.1200,67,99,407673
2.4096,0.4399,39.1900,67,99,407677
2.8446,0.4252,39.1900,67,99,407681
3.3724,0.4350,39.0900,67,99,407684
3.9785,0.4497,39.0900,67,99,407688
4.3793,0.4399,39.1600,67,99,407691
4.5064,0.4448,39.0000,67,99,407694
4.1251,0.4399,39.1600,67,99,407698
3.5484,0.4350,39.1900,67,99,407701
2.9130,0.4350,39.0900,67,99,407704
2.3363,0.4350,39.1900,67,99,407707
1.9550,0.4448,39.0600,67,99,407711
1.6373,0.4350,39.1900,67,99,407714
1.4761,0.4350,39.2800,67,99,407717
1.4076,0.4790,39.0900,67,99,407721
1.3832,0.4350,39.1900,67,99,407725
1.4321,0.4448,38.9000,67,99,407728
1.4516,0.4301,39.0600,67,99,407732
1.4858,0.4350,39.1900,67,99,407735
1.5200,0.4497,39.0900,67,99,407738
1.5298,0.4643,39.1600,67,99,407741
1.5934,0.4497,38.9300,67,99,407745
1.5787,0.4594,39.1200,67,99,407748
1.6422,0.4350,39.1900,67,99,407751
1.6276,0.4448,39.3500,67,99,407755
1.6227,0.4399,39.1600,67,99,407758
1.6764,0.4594,38.8700,67,99,407761
1.6618,0.4448,39.0900,67,99,407766
1.6764,0.4350,39.1200,67,99,407769
1.6862,0.4399,39.1600,67,99,407772
1.6960,0.4350,39.1900,67,99,407776
1.7400,0.4594,39.0600,67,99,407779
1.7204,0.4448,39.1900,67,99,407782
1.7449,0.4399,39.0600,67,99,407786
1.7449,0.4399,39.1600,67,99,407789
1.7595,0.4350,39.1900,67,99,407792
1.7937,0.4497,39.0000,67,99,407795
1.7644,0.4399,38.4000,67,99,407799
1.7986,0.4448,39.0300,67,99,407802
1.8133,0.4350,39.1900,67,99,407805
1.8133,0.4350,39.2200,67,99,407810
1.8328,0.4399,39.0600,67,99,407813
1.8328,0.4350,39.1600,67,99,407816
1.8622,0.4399,39.0000,67,99,407820
1.8328,0.4350,39.0900,67,99,407823
1.8573,0.4350,39.1600,67,99,407826
1.8866,0.4448,39.0600,67,99,407830
1.8719,0.4350,39.3200,67,99,407833
1.9159,0.4448,38.9300,67,99,407836
1.8768,0.4350,39.1200,67,99,407840
1.8866,0.4399,39.1900,67,99,407843
1.9062,0.4399,39.3200,67,99,407846
1.9159,0.4350,39.1900,67,99,407849
1.9844,0.4545,38.8400,67,99,407854
1.9550,0.4448,39.0900,67,99,407857
1.9355,0.4350,39.1900,67,99,407860
1.9404,0.4399,39.1900,67,99,407864
1.9550,0.4350,39.1900,67,99,407867
2.0186,0.4497,39.0300,67,99,407870
1.9990,0.4497,39.0900,67,99,407874
1.9990,0.4399,39.0900,67,99,407877
1.9941,0.4350,39.2500,67,99,407880
2.0088,0.4301,39.1900,67,99,407884
2.0577,0.4448,39.0600,67,99,407887
2.0528,0.4399,39.1600,67,99,407890
2.0870,0.4399,39.0300,67,99,407894
2.0626,0.4350,39.1900,67,99,407898
2.0919,0.4350,39.1900,67,99,407901
2.1310,0.4594,39.1200,67,99,407904
2.1505,0.4399,39.1900,67,99,407908
2.2190,0.4448,39.0600,67,99,407911
2.2092,0.4399,39.1900,67,99,407914
2.2434,0.4350,39.2200,67,99,407918
2.2923,0.4545,39.0600,67,99,407921
2.3021,0.4350,39.1900,67,99,407924
2.3803,0.4448,38.1100,67,99,407927
2.3851,0.4350,39.0900,67,99,407931
2.4340,0.4350,39.1600,67,99,407934
2.4536,0.4839,39.0900,67,99,407938
2.4780,0.4350,39.1900,67,99,407942
2.5415,0.4497,38.9300,67,99,407945
2.5073,0.4399,39.1200,67,99,407948
2.5562,0.4399,39.1900,67,99,407952
2.5562,0.4448,39.1200,67,99,407955
2.5415,0.4301,39.1600,67,99,407958
2.6197,0.4594,38.9000,67,99,407961
2.5513,0.4399,39.0600,67,99,407965
2.5318,0.4399,39.1900,67,99,407968
2.4927,0.4399,39.1900,67,99,407971
2.4340,0.4350,39.1900,67,99,407975
2.4291,0.4545,39.0300,67,99,407979
2.3069,0.4399,39.0600,67,99,407982
2.2385,0.4399,39.0900,67,99,407986
2.1505,0.4350,39.1600,67,99,407989
2.0723,0.4350,39.2800,67,99,407992
2.0283,0.4643,39.0000,67,99,407996
1.6960,0.4448,39.0600,67,99,408000
1.6422,0.4252,39.1900,67,99,408004
1.6129,0.4399,39.1900,67,99,408007
1.5787,0.4350,39.1600,67,99,408010
1.5347,0.4350,39.1900,67,99,408013
1.5494,0.4545,39.0900,67,99,408017
1.5249,0.4252,39.1900,67,99,408020
1.5689,0.4448,38.8700,67,99,408024
1.5396,0.4350,39.1600,67,99,408028
1.5640,0.4350,39.2500,67,99,408031
1.6227,0.4350,39.1600,67,99,408034
1.6031,0.4350,39.2500,67,99,408038
1.6667,0.4594,38.9600,67,99,408041
1.6471,0.4448,39.0000,67,99,408044
1.6471,0.4692,39.1600,67,99,408048
1.6618,0.4399,39.2500,67,99,408051
1.6862,0.4350,39.2200,67,99,408054
1.7449,0.4497,39.0000,67,99,408057
1.7155,0.4497,39.1600,67,99,408061
1.7302,0.4399,39.0900,67,99,408065
1.7204,0.4350,39.2800,67,99,408068
1.7302,0.4350,39.1900,67,99,408072
1.7693,0.4448,39.0900,67,99,408075
1.7644,0.4399,39.1200,67,99,408078
1.8231,0.4399,39.0300,67,99,408082
1.7546,0.4350,39.1900,67,99,408085
1.7595,0.4350,39.1900,67,99,408088
1.7742,0.4399,39.2200,67,99,408092
1.7791,0.4399,39.1900,67,99,408095
1.8231,0.4399,39.0300,67,99,408098
1.7986,0.4448,39.2200,67,99,408102
1.8084,0.4350,39.1600,67,99,408105
1.8328,0.4448,39.1200,67,99,408109
1.8133,0.4350,39.1900,67,99,408112
1.8671,0.4399,38.9600,67,99,408116
1.8524,0.4448,39.0600,67,99,408119
1.8426,0.4350,39.1900,67,99,408122
1.8524,0.4448,39.1600,67,99,408126
1.8426,0.4399,39.1900,67,99,408129
1.9159,0.4545,38.9000,67,99,408132
1.8768,0.4350,39.0600,67,99,408136
1.8817,0.4301,39.1600,67,99,408139
1.8915,0.4399,38.3300,67,99,408142
1.8719,0.4497,39.1900,67,99,408146
1.9306,0.4545,39.0000,67,99,408150
1.9062,0.4448,39.0600,67,99,408153
1.9110,0.4350,39.0900,67,99,408157
1.8964,0.4350,39.1600,67,99,408160
1.9306,0.4350,39.1900,67,99,408163
1.9306,0.4448,39.0900,67,99,408166
1.9110,0.4399,39.1200,67,99,408170
1.9404,0.4350,39.0300,67,99,408173
1.9306,0.4350,39.2800,67,99,408176
1.9501,0.4643,39.1900,67,99,408180
1.9795,0.4448,39.0600,67,99,408183
1.9355,0.4545,39.1600,67,99,408186
1.9697,0.4399,39.0600,67,99,408190
1.9404,0.4350,39.2200,67,99,408194
1.9550,0.4301,39.2200,67,99,408197
1.9746,0.4399,39.0600,67,99,408201
1.9550,0.4399,39.1900,67,99,408204
1.9844,0.4448,39.0000,67,99,408207
1.9453,0.4350,39.1600,67,99,408210
1.9404,0.4252,39.1900,67,99,408214
1.9648,0.4448,39.0900,67,99,408217
1.9355,0.4399,39.1900,67,99,408220
1.9795,0.4497,38.9600,67,99,408224
1.9404,0.4301,39.0900,67,99,408227
1.9306,0.4350,39.2500,67,99,408230
1.9404,0.4399,39.0900,67,99,408235
1.9355,0.4252,39.1900,67,99,408238
1.9941,0.4594,39.0300,67,99,408241
1.9404,0.4545,39.1200,67,99,408245
1.9257,0.4301,39.1200,67,99,408248
1.9208,0.4448,39.1900,67,99,408251
1.9355,0.4350,39.2200,67,99,408254
1.9795,0.4497,38.9600,67,99,408258
1.9404,0.4399,39.1600,67,99,408261
1.9453,0.4399,39.0300,67,99,408264
1.9208,0.4252,39.1900,67,99,408268
1.9257,0.4350,39.0900,67,99,408271
1.9550,0.4497,39.0900,67,99,408274
1.9404,0.4399,39.1600,67,99,408279
1.9648,0.4448,39.0300,67,99,408282
1.9208,0.4399,39.1900,67,99,408285
1.9306,0.4350,39.2200,67,99,408289
1.9453,0.4399,39.1200,67,99,408292
1.9501,0.4350,39.1900,67,99,408295
1.9844,0.4399,39.0600,67,99,408298
1.9550,0.4350,39.1900,67,99,408302
1.9501,0.4350,38.3300,67,99,408305
1.9550,0.4545,39.0900,67,99,408308
1.9257,0.4350,39.2200,67,99,408312
1.9795,0.4497,39.0900,67,99,408315
1.9648,0.4448,39.0600,67,99,408318
1.9404,0.4350,39.1900,67,99,408323
1.9453,0.4448,39.1200,67,99,408326
1.9306,0.4350,39.1600,67,99,408329
1.9892,0.4497,38.8700,67,99,408333
1.9404,0.4399,39.1200,67,99,408336
1.9404,0.4301,39.0300,67,99,408339
1.9355,0.4399,39.1600,67,99,408342
1.9208,0.4350,39.2200,67,99,408346
1.9697,0.4545,38.9600,67,99,408349
1.9453,0.4448,39.1200,67,99,408352
1.9453,0.4350,39.0600,67,99,408356
1.9306,0.4448,39.1900,67,99,408359
1.9257,0.4350,39.2800,67,99,408363
1.9501,0.4399,39.0900,67,99,408367
1.9404,0.4399,39.1200,67,99,408370
1.9453,0.4399,39.0300,67,99,408373
1.9257,0.4399,39.1900,67,99,408377
1.9355,0.4350,39.2200,67,99,408380
1.9648,0.4448,39.0300,67,99,408383
1.9257,0.4350,39.1900,67,99,408386
1.9550,0.4448,39.0300,67,99,408390
1.9404,0.4399,39.1600,67,99,408393
1.9404,0.4350,39.2800,67,99,408396
1.9550,0.4448,39.0600,67,99,408400
1.9306,0.4252,39.1900,67,99,408403
1.9599,0.4448,38.9600,67,99,408407
1.9453,0.4301,39.1900,67,99,408411
1.9453,0.4350,39.2500,67,99,408414
1.9795,0.4497,39.0900,67,99,408417
1.9746,0.4350,39.1900,67,99,408421
2.0186,0.4497,38.3000,67,99,408424
1.9795,0.4350,39.1200,67,99,408427
1.9892,0.4350,39.2500,67,99,408430
2.0039,0.4448,39.1900,67,99,408434
2.0088,0.4350,39.4800,67,99,408437
2.0723,0.4594,39.0000,67,99,408440
2.0186,0.4448,39.0300,67,99,408444
2.0088,0.4350,39.1600,67,99,408448
2.0088,0.4350,39.2500,67,99,408451
2.0332,0.4350,39.3800,67,99,408455
2.1065,0.4497,39.0600,67,99,408458
2.0723,0.4448,39.0900,67,99,408461
2.0626,0.4350,39.1600,67,99,408464
2.0381,0.4399,39.1900,67,99,408468
2.0332,0.4252,39.1900,67,99,408471
2.0626,0.4497,39.1600,67,99,408474
2.0381,0.4399,39.1600,67,99,408478
2.0381,0.4399,39.0300,67,99,408481
1.9795,0.4350,39.4100,67,99,408484
1.9550,0.4252,39.1900,67,99,408488
1.9501,0.4350,39.0600,67,99,408492
1.9208,0.4301,39.1600,67,99,408495
1.9453,0.4497,39.0900,67,99,408498
1.8866,0.4399,39.1900,67,99,408502
1.8866,0.4350,39.1900,67,99,408505
1.9013,0.4448,39.0900,67,99,408508
1.8768,0.4301,39.1600,67,99,408512
1.9159,0.4448,39.0000,67,99,408515
1.8964,0.4399,39.2200,67,99,408518
1.8915,0.4301,39.1600,67,99,408522
1.9013,0.4448,39.3800,67,99,408525
1.8817,0.4350,39.1600,67,99,408528
1.9453,0.4497,38.9300,67,99,408532
1.9355,0.4399,39.1200,67,99,408536
1.9110,0.4350,39.1900,67,99,408539
1.9110,0.4448,39.1200,67,99,408542
1.8964,0.4350,39.1900,67,99,408546
1.9453,0.4594,39.1200,67,99,408549
1.9013,0.4252,39.0600,67,99,408552
1.9110,0.4350,39.1200,67,99,408556
1.9062,0.4448,39.1900,67,99,408559
1.8964,0.4350,39.2800,67,99,408562
1.9355,0.4448,39.0300,67,99,408566
1.8964,0.4399,39.1600,67,99,408569
1.9159,0.4497,39.1200,67,99,408572
1.9062,0.4350,39.1900,67,99,408577
1.9208,0.4350,39.2200,67,99,408580
1.9892,0.4497,39.0000,67,99,408583
1.9110,0.4350,39.1600,67,99,408587
1.9404,0.4448,39.0600,67,99,408590
1.9110,0.4350,39.1600,67,99,408593
1.9062,0.4350,39.2500,67,99,408596
1.8817,0.4252,39.0900,67,99,408600
1.8280,0.4350,39.1200,67,99,408603
1.8231,0.4350,39.0300,67,99,408606
1.8231,0.4497,38.9300,67,99,408610
3.7879,0.4594,39.1200,67,99,408614
4.2864,0.4399,39.1900,67,99,408619
4.4575,0.4399,39.1200,67,99,408622
4.2180,0.4350,39.1900,67,99,408625
3.7879,0.4643,38.8700,67,99,408629
3.0401,0.4448,39.1900,67,99,408632
2.4291,0.4301,39.1200,67,99,408635
1.9795,0.4741,39.1200,67,99,408638
1.6813,0.4301,39.1900,67,99,408642
1.5298,0.4497,39.0000,67,99,408645
1.4076,0.4399,39.1200,67,99,408648
