ecg,gsr,temp,hr,spo2,timest
1.5640,0.3226,40.2300,62,97,222305
1.5640,0.3226,40.2000,62,97,222308
1.5934,0.3372,40.2300,62,97,222311
1.5640,0.3226,40.2000,62,97,222315
1.5787,0.3226,40.1000,62,97,222318
1.5591,0.3226,40.2300,62,97,222321
1.5591,0.3226,40.2000,62,97,222325
1.6031,0.3275,40.0300,62,97,222328
1.5885,0.3226,40.1600,62,97,222331
1.6569,0.3275,40.2000,62,97,222336
1.6276,0.3079,40.1600,62,97,222339
1.6373,0.3177,40.3000,62,97,222342
1.6471,0.3226,40.0600,62,97,222345
1.6227,0.3177,40.2600,62,97,222349
1.6422,0.3177,40.1000,62,97,222352
1.6373,0.3226,40.4000,62,97,222355
1.6471,0.3226,40.2300,62,97,222359
1.6716,0.3275,40.2600,62,97,222362
1.6569,0.3568,40.2000,62,97,222365
1.6911,0.3324,40.0000,62,97,222369
1.6667,0.3226,40.3000,62,97,222372
1.6911,0.3177,40.2000,62,97,222375
1.7155,0.3226,40.2000,62,97,222380
1.7204,0.3177,40.2000,62,97,222383
1.7693,0.3372,40.0000,62,97,222386
1.7400,0.3275,40.1300,62,97,222389
1.7351,0.3177,40.2000,62,97,222393
1.7498,0.3177,40.1600,62,97,222396
1.7449,0.3275,40.2300,62,97,222399
1.7986,0.3568,40.1000,62,97,222403
1.7693,0.3079,40.2000,62,97,222406
1.7742,0.3226,40.2300,62,97,222409
1.7742,0.3177,40.3000,62,97,222413
1.7546,0.3226,40.2000,62,97,222416
1.7742,0.3324,40.1600,62,97,222419
1.7498,0.3226,40.2000,62,97,222424
1.7742,0.3275,40.1600,62,97,222427
1.7498,0.3226,40.2300,62,97,222430
1.7546,0.3177,40.3000,62,97,222433
1.7742,0.3226,40.2300,62,97,222437
1.7791,0.3226,40.2300,62,97,222440
1.8133,0.3226,40.1600,62,97,222443
1.7889,0.3079,40.2300,62,97,222447
1.7937,0.3470,40.2000,62,97,222450
1.8280,0.3275,40.2000,62,97,222453
1.8084,0.3177,40.2600,62,97,222457
1.8524,0.3324,40.0000,62,97,222460
1.8231,0.3079,39.4800,62,97,222464
1.8035,0.3226,40.2300,62,97,222468
1.8182,0.3275,40.1300,62,97,222471
1.7986,0.3177,40.1600,62,97,222474
1.8524,0.3079,40.0300,62,97,222478
1.8231,0.3226,40.1000,62,97,222481
1.8035,0.3177,40.3000,62,97,222484
1.8133,0.3470,40.2000,62,97,222487
1.8133,0.3226,40.2000,62,97,222491
1.8719,0.3421,40.1000,62,97,222494
1.8231,0.3275,40.1600,62,97,222497
1.8280,0.3177,40.1300,62,97,222501
1.8231,0.3226,40.2600,62,97,222504
1.8231,0.3177,40.2600,62,97,222508
1.8524,0.3568,40.0600,62,97,222512
1.8231,0.3226,40.2000,62,97,222515
1.8426,0.3226,40.0600,62,97,222518
1.8328,0.3177,40.3000,62,97,222522
1.8377,0.3226,40.2300,62,97,222525
1.8671,0.3617,40.1000,62,97,222528
1.8231,0.3226,40.3300,62,97,222532
1.8573,0.3177,40.0600,62,97,222535
1.8280,0.3226,40.1300,62,97,222538
1.8426,0.3275,40.2000,62,97,222541
1.8817,0.3079,40.1000,62,97,222545
1.8719,0.3177,40.1600,62,97,222548
1.9404,0.3324,40.1000,62,97,222552
1.8964,0.3275,40.1300,62,97,222556
1.9062,0.3177,40.2300,62,97,222559
1.8915,0.3275,39.5700,62,97,222562
1.8768,0.3421,40.2300,62,97,222566
1.9208,0.3079,39.3800,62,97,222569
1.8964,0.3177,40.1600,62,97,222572
1.8768,0.3177,40.2000,62,97,222576
1.8817,0.3275,40.1600,62,97,222579
1.8719,0.3226,40.2600,62,97,222582
1.9306,0.3763,39.9600,62,97,222585
1.9110,0.3275,40.2300,62,97,222589
1.9062,0.3226,40.2000,62,97,222593
1.9062,0.3226,40.2300,62,97,222596
1.9013,0.3177,40.2000,62,97,222600
1.9550,0.3275,40.0000,62,97,222603
1.8915,0.3226,40.1300,62,97,222606
1.9062,0.3226,40.0600,62,97,222610
1.8866,0.3079,40.2000,62,97,222613
1.8817,0.3177,40.2300,62,97,222616
1.9110,0.3324,40.1300,62,97,222620
1.8817,0.3226,40.2600,62,97,222623
1.9110,0.3324,40.2000,62,97,222626
1.8866,0.3177,40.1600,62,97,222629
1.8768,0.3324,40.2000,62,97,222633
1.8866,0.3324,40.1300,62,97,222637
1.8768,0.3226,40.2000,62,97,222640
1.9013,0.3324,40.1000,62,97,222644
1.8768,0.3226,40.2300,62,97,222647
1.8768,0.3226,40.2000,62,97,222650
1.8964,0.3275,40.1000,62,97,222654
1.8719,0.3226,40.2300,62,97,222657
1.9110,0.3324,40.0000,62,97,222660
1.8768,0.3275,40.1600,62,97,222664
1.8475,0.3226,40.2300,62,97,222667
1.8475,0.3275,40.1600,62,97,222670
1.8280,0.3177,40.3000,62,97,222674
1.8915,0.3372,40.0300,62,97,222678
1.8817,0.3275,40.1300,62,97,222681
1.8719,0.3177,39.5100,62,97,222684
1.8719,0.3226,40.2000,62,97,222688
1.8622,0.3226,40.2000,62,97,222691
1.8866,0.3324,40.1300,62,97,222694
1.8231,0.3226,40.2300,62,97,222698
1.8377,0.3226,40.1600,62,97,222701
1.8231,0.3226,40.2600,62,97,222704
1.8328,0.3128,40.2000,62,97,222708
1.8622,0.3275,40.1300,62,97,222711
1.8426,0.3226,40.2000,62,97,222714
1.8622,0.3177,40.1000,62,97,222718
1.8328,0.3226,40.3600,62,97,222722
1.8280,0.3177,40.2300,62,97,222725
1.8426,0.3421,40.0600,62,97,222729
1.8622,0.3275,40.1600,62,97,222732
1.8377,0.3226,40.2300,62,97,222736
1.8866,0.3324,39.9300,62,97,222739
1.8573,0.3226,40.0600,62,97,222742
1.8328,0.3177,40.2300,62,97,222745
1.8280,0.3275,40.2600,62,97,222749
1.8133,0.3177,40.2000,62,97,222752
1.8671,0.3421,40.0000,62,97,222755
1.8182,0.3226,40.1600,62,97,222759
1.8182,0.3177,40.1300,62,97,222763
1.8475,0.3226,40.2000,62,97,222766
1.8035,0.3226,40.2000,62,97,222770
1.8573,0.3324,40.1000,62,97,222773
1.8084,0.3324,40.1600,62,97,222776
1.8280,0.3519,40.1300,62,97,222780
1.8133,0.3226,40.4300,62,97,222783
1.8133,0.3275,40.2300,62,97,222786
1.8475,0.3324,40.0600,62,97,222790
1.8475,0.3226,40.2000,62,97,222793
1.8377,0.3275,40.1600,62,97,222796
1.8182,0.3177,40.1600,62,97,222799
1.8182,0.3177,40.2000,62,97,222803
1.8573,0.3324,40.1000,62,97,222807
1.8426,0.3226,40.2300,62,97,222810
1.8817,0.3275,40.0000,62,97,222814
1.8671,0.3275,40.1600,62,97,222817
1.8622,0.3177,40.2600,62,97,222820
1.9013,0.3226,40.1600,62,97,222824
1.8573,0.3177,40.3300,62,97,222827
1.9062,0.3372,40.0600,62,97,222830
1.8622,0.3226,40.2000,62,97,222834
1.8573,0.3226,40.2000,62,97,222837
1.8573,0.3226,40.1600,62,97,222840
1.8426,0.3568,40.2000,62,97,222844
1.8915,0.3421,40.0600,62,97,222848
1.8573,0.3275,40.2300,62,97,222851
1.8377,0.3226,40.1300,62,97,222854
1.8328,0.3372,40.2000,62,97,222858
1.8328,0.3177,40.2600,62,97,222861
1.8768,0.3324,40.1300,62,97,222864
1.8573,0.3177,40.1600,62,97,222868
1.8768,0.3079,39.9300,62,97,222871
1.8426,0.3275,40.2000,62,97,222874
1.8377,0.3226,40.2000,62,97,222878
1.8573,0.3275,40.0600,62,97,222881
1.8328,0.3226,40.2300,62,97,222884
1.8671,0.3275,40.1000,62,97,222888
1.8377,0.3177,40.2000,62,97,222892
1.8426,0.3177,40.2000,62,97,222895
1.8622,0.3470,40.1300,62,97,222898
1.8524,0.3275,40.2000,62,97,222902
1.8817,0.3079,40.1300,62,97,222905
1.8573,0.3226,40.2300,62,97,222908
1.8573,0.3177,40.2000,62,97,222912
1.8719,0.3275,40.1000,62,97,222915
1.8475,0.3226,40.2000,62,97,222918
1.8817,0.3324,40.0000,62,97,222922
1.8622,0.3275,40.2000,62,97,222925
1.8524,0.3226,40.2300,62,97,222928
1.8671,0.3275,40.2300,62,97,222932
1.8524,0.3177,40.2300,62,97,222936
1.9013,0.3324,39.9600,62,97,222939
1.8671,0.3324,40.1000,62,97,222942
1.8524,0.3177,40.1300,62,97,222946
1.8573,0.3226,40.1600,62,97,222949
1.8573,0.3372,40.2000,62,97,222952
1.9110,0.3372,40.1300,62,97,222956
1.8671,0.3226,40.1300,62,97,222959
1.8964,0.3226,40.1000,62,97,222962
1.8524,0.3226,40.2300,62,97,222966
1.8426,0.3275,40.2000,62,97,222969
1.8573,0.3275,40.2300,62,97,222972
1.8328,0.3324,40.1600,62,97,222977
1.8573,0.3275,40.0600,62,97,222980
1.8524,0.3177,40.2300,62,97,222983
1.8426,0.3177,40.2300,62,97,222987
1.8768,0.3275,40.1000,62,97,222990
1.8524,0.3079,40.1000,62,97,222993
1.8866,0.3177,40.0600,62,97,222996
1.9110,0.3177,40.1600,62,97,223000
1.8866,0.3177,40.2000,62,97,223003
1.9208,0.3324,40.1300,62,97,223006
1.9110,0.3079,40.2600,62,97,223010
1.9648,0.3275,40.0600,62,97,223013
1.9501,0.3177,40.1300,62,97,223016
1.9404,0.3177,40.2300,62,97,223021
1.9550,0.3324,40.2300,62,97,223024
1.9501,0.3177,40.1600,62,97,223027
2.0039,0.3324,40.0000,62,97,223031
1.9599,0.3177,40.1600,62,97,223034
1.9550,0.3079,40.2000,62,97,223037
1.9648,0.3226,40.2000,62,97,223040
1.9795,0.3177,40.2000,62,97,223044
2.0479,0.3421,39.9600,62,97,223047
2.0039,0.3421,40.2600,62,97,223050
1.9941,0.3177,40.2300,62,97,223054
1.9648,0.3226,40.1600,62,97,223057
1.9404,0.3177,40.2600,62,97,223060
1.9648,0.3666,40.0600,62,97,223065
1.9208,0.3226,40.1600,62,97,223068
1.9257,0.3226,40.0600,62,97,223071
1.8964,0.3226,40.2000,62,97,223075
1.8817,0.3177,40.2000,62,97,223078
1.9013,0.3470,40.1000,62,97,223081
1.8719,0.3177,40.2600,62,97,223084
1.8866,0.3275,40.1600,62,97,223088
1.8377,0.3226,40.1300,62,97,223091
1.8231,0.3177,40.2300,62,97,223094
1.8231,0.3226,40.1300,62,97,223098
1.8133,0.3079,40.2000,62,97,223101
1.8377,0.3226,40.1300,62,97,223105
1.7986,0.3177,40.3000,62,97,223109
1.7889,0.3177,40.2300,62,97,223112
1.7986,0.3275,40.1600,62,97,223115
1.7742,0.3226,40.1600,62,97,223119
1.8084,0.3324,39.9300,62,97,223122
1.7840,0.3275,40.3000,62,97,223125
1.7742,0.3470,40.2000,62,97,223128
1.7840,0.3275,40.1600,62,97,223132
1.7644,0.3177,40.1600,62,97,223135
1.8280,0.3421,39.9600,62,97,223138
1.7840,0.3519,40.1300,62,97,223142
1.7742,0.3128,40.1600,62,97,223145
1.7889,0.3079,40.2600,62,97,223149
1.7986,0.3275,40.2000,62,97,223153
1.8426,0.3324,40.0600,62,97,223156
1.7693,0.3226,40.2600,62,97,223159
1.7595,0.3226,40.1000,62,97,223163
1.6960,0.3226,40.2600,62,97,223166
1.6911,0.3226,40.2300,62,97,223169
1.7693,0.3275,40.2300,62,97,223172
1.8719,0.3275,40.2300,62,97,223176
2.0674,0.3275,40.0600,62,97,223179
2.2874,0.3226,40.2000,62,97,223182
2.4976,0.3177,40.1600,62,97,223186
2.6979,0.3275,40.0600,62,97,223190
2.8006,0.3226,40.2000,62,97,223193
2.9081,0.3226,40.0600,62,97,223197
2.9130,0.3226,40.0600,62,97,223200
2.8739,0.3128,40.2300,62,97,223203
2.8446,0.3275,40.0600,62,97,223207
2.7126,0.3177,40.2000,62,97,223210
2.6442,0.3177,40.0600,62,97,223213
2.4291,0.3226,40.1300,62,97,223216
2.2336,0.3128,40.2000,62,97,223220
2.0772,0.3226,40.1600,62,97,223223
1.9306,0.3177,40.3000,62,97,223226
1.8719,0.3226,40.1000,62,97,223230
1.7449,0.3226,40.2000,62,97,223234
1.6667,0.3177,40.1600,62,97,223237
1.6227,0.3226,40.2300,62,97,223241
1.5738,0.3421,40.2300,62,97,223244
1.5982,0.3421,40.0300,62,97,223247
1.5543,0.3226,40.2300,62,97,223251
1.5494,0.3177,40.2000,62,97,223254
1.5543,0.3275,40.2000,62,97,223257
1.5689,0.3226,40.2300,62,97,223260
1.6080,0.3324,40.1300,62,97,223264
1.6178,0.3177,40.2000,62,97,223267
1.6080,0.3226,40.1600,62,97,223270
1.5885,0.3177,40.2000,62,97,223275
1.5885,0.3177,40.1600,62,97,223278
1.6129,0.3275,40.1300,62,97,223281
1.5982,0.3128,40.2000,62,97,223285
1.6471,0.3275,40.2000,62,97,223288
1.6373,0.3177,40.2000,62,97,223291
1.6667,0.3177,40.2600,62,97,223295
1.6862,0.3226,40.1300,62,97,223298
1.7155,0.3226,40.2300,62,97,223301
1.7253,0.3226,39.8000,62,97,223304
1.7009,0.3177,40.3300,62,97,223308
1.7058,0.3177,40.2000,62,97,223311
1.7155,0.3568,40.1300,62,97,223314
1.7009,0.3226,40.1000,62,97,223319
1.7498,0.3568,40.0600,62,97,223322
1.7546,0.3275,40.1300,62,97,223325
1.7302,0.3177,40.2600,62,97,223329
1.7498,0.3226,40.1300,62,97,223332
1.7449,0.3079,40.3000,62,97,223335
1.7937,0.3470,40.0000,62,97,223339
1.7937,0.3324,40.1000,62,97,223342
1.7840,0.3079,40.2600,62,97,223346
1.8133,0.3226,40.0300,62,97,223349
1.7840,0.3177,40.2000,62,97,223352
1.7937,0.3177,40.2000,62,97,223356
1.8231,0.3177,40.1600,62,97,223360
1.8084,0.3226,40.2300,62,97,223363
1.8328,0.3275,40.0300,62,97,223366
1.8084,0.3226,40.1600,62,97,223370
1.8133,0.3177,40.1600,62,97,223373
1.8719,0.3275,40.1600,62,97,223376
1.8280,0.3226,40.2000,62,97,223380
1.8573,0.3226,40.0000,62,97,223383
1.8524,0.3275,40.1300,62,97,223386
1.8377,0.3226,40.1600,62,97,223390
1.8671,0.3519,40.2000,62,97,223393
1.8573,0.3177,40.2300,62,97,223396
1.9062,0.3324,40.0000,62,97,223400
1.8719,0.3226,40.0600,62,97,223404
1.8475,0.3177,40.2000,62,97,223407
1.8475,0.3128,40.1600,62,97,223411
1.8475,0.3177,40.2000,62,97,223414
1.9062,0.3421,39.4100,62,97,223417
1.8573,0.3226,40.2300,62,97,223420
1.8622,0.3177,40.2000,62,97,223424
1.8622,0.3177,40.1600,62,97,223427
1.8573,0.3519,40.2300,62,97,223430
1.8915,0.3324,40.2300,62,97,223434
1.8573,0.3226,40.2300,62,97,223437
1.8719,0.3226,40.1000,62,97,223440
1.8475,0.3275,40.2000,62,97,223444
1.8573,0.3177,40.2300,62,97,223448
1.8768,0.3324,40.0600,62,97,223451
1.8524,0.3226,40.1600,62,97,223455
1.8817,0.3275,40.2300,62,97,223458
1.8964,0.3226,40.1600,62,97,223461
1.8719,0.3079,40.2300,62,97,223465
1.8964,0.3275,40.1000,62,97,223468
1.8671,0.3128,40.1600,62,97,223471
1.9013,0.3226,40.0000,62,97,223474
1.8866,0.3226,40.2600,62,97,223478
1.8817,0.3177,40.2600,62,97,223481
1.9013,0.3226,40.2300,62,97,223484
1.8866,0.3177,40.2300,62,97,223489
1.9257,0.3372,39.9300,62,97,223492
1.8768,0.3226,40.1300,62,97,223495
1.8817,0.3177,40.2600,62,97,223499
1.8915,0.3226,40.2000,62,97,223502
1.8866,0.3226,40.2000,62,97,223505
1.9550,0.3421,40.1000,62,97,223509
1.9306,0.3324,40.2000,62,97,223512
1.9404,0.3226,40.2300,62,97,223515
1.9501,0.3421,40.2000,62,97,223519
1.9697,0.3128,40.3000,62,97,223522
1.9941,0.3324,40.0300,62,97,223525
1.9697,0.3226,40.2000,62,97,223528
1.9697,0.3226,40.1000,62,97,223533
1.9453,0.3177,40.2600,62,97,223536
1.9355,0.3128,40.2300,62,97,223539
1.9648,0.3275,40.0600,62,97,223543
1.9306,0.3226,40.3000,62,97,223546
1.9501,0.3275,40.1000,62,97,223549
1.9159,0.3421,40.2300,62,97,223553
1.9208,0.3177,40.2300,62,97,223556
1.9355,0.3324,40.1300,62,97,223559
1.9208,0.3226,40.3000,62,97,223563
1.9404,0.3226,40.1000,62,97,223566
1.9208,0.3177,40.2300,62,97,223569
1.9062,0.3177,40.2000,62,97,223572
1.9257,0.3324,40.1000,62,97,223577
1.8964,0.3226,40.2000,62,97,223580
1.9355,0.3324,40.0000,62,97,223583
1.9062,0.3226,40.1000,62,97,223587
1.8915,0.3177,40.2600,62,97,223590
1.9013,0.3275,40.2000,62,97,223593
1.8817,0.3177,40.2300,62,97,223597
1.9404,0.3372,39.9600,62,97,223600
1.8964,0.3763,40.2000,62,97,223603
1.8768,0.3226,40.1600,62,97,223607
1.8768,0.3226,40.2600,62,97,223610
1.8719,0.3128,40.3600,62,97,223613
1.9110,0.3372,40.0600,62,97,223617
1.8622,0.3324,40.1600,62,97,223621
1.8866,0.3177,40.1300,62,97,223624
1.8524,0.3226,40.2300,62,97,223627
1.8426,0.3177,40.2600,62,97,223631
1.8719,0.3372,40.1300,62,97,223634
1.8524,0.3226,40.1600,62,97,223637
1.8768,0.3275,40.1300,62,97,223641
1.8475,0.3079,40.3000,62,97,223644
1.8475,0.3177,40.1600,62,97,223647
1.8817,0.3275,40.0600,62,97,223651
1.8671,0.3470,40.2000,62,97,223654
1.8866,0.3226,40.0600,62,97,223657
1.8768,0.3079,40.2000,62,97,223662
1.8524,0.3177,40.2000,62,97,223665
1.8573,0.3324,40.1000,62,97,223668
1.8280,0.3177,39.7700,62,97,223671
1.8622,0.3324,39.9600,62,97,223675
1.8377,0.3226,40.1600,62,97,223678
1.8426,0.3226,40.2000,62,97,223681
1.8377,0.3079,40.1600,62,97,223685
1.8280,0.3226,40.2000,62,97,223688
1.8817,0.3324,39.9300,62,97,223691
1.8426,0.3275,40.2300,62,97,223695
1.8475,0.3177,40.1600,62,97,223698
1.8475,0.3324,40.2600,62,97,223702
1.8426,0.3177,40.1600,62,97,223706
1.8866,0.3421,40.0600,62,97,223709
1.8426,0.3226,40.2300,62,97,223712
1.8377,0.3421,40.1600,62,97,223716
1.8280,0.3226,40.2600,62,97,223719
1.8280,0.3226,40.2000,62,97,223722
1.8622,0.3275,40.1000,62,97,223725
1.8328,0.3275,40.1600,62,97,223729
1.8475,0.3324,40.0600,62,97,223732
1.8231,0.3128,40.2000,62,97,223735
1.8231,0.3177,40.1600,62,97,223739
1.8524,0.3226,40.0600,62,97,223742
1.8328,0.3275,40.1000,62,97,223746
1.8622,0.3226,40.1600,62,97,223750
1.8377,0.3177,40.2000,62,97,223753
1.8426,0.3177,40.1600,62,97,223756
1.8524,0.3226,40.1000,62,97,223760
1.8768,0.3226,40.2300,62,97,223763
1.8768,0.3079,40.0000,62,97,223766
1.8426,0.3226,40.2000,62,97,223769
1.8573,0.3177,40.2600,62,97,223773
1.8768,0.3275,40.1300,62,97,223776
1.8573,0.3177,40.2300,62,97,223779
1.8964,0.3324,39.9300,62,97,223783
1.8622,0.3275,40.1000,62,97,223787
1.8475,0.3177,40.1600,62,97,223790
1.8622,0.3226,40.2300,62,97,223794
1.8671,0.3177,40.2600,62,97,223797
1.9355,0.3372,40.0300,62,97,223800
1.8915,0.3226,40.1300,62,97,223804
1.8817,0.3226,40.2000,62,97,223807
1.8768,0.3226,40.3000,62,97,223810
1.8915,0.3177,40.2300,62,97,223814
1.8915,0.3275,40.2000,62,97,223817
1.8524,0.3275,40.2000,62,97,223820
1.8671,0.3226,40.1300,62,97,223823
1.8426,0.3177,40.2000,62,97,223827
1.8426,0.3226,40.2000,62,97,223831
1.8524,0.3226,40.1600,62,97,223834
1.8524,0.3128,40.2300,62,97,223838
1.8671,0.3226,40.1000,62,97,223841
1.8377,0.3226,40.2000,62,97,223844
1.8426,0.3177,40.2000,62,97,223848
1.8719,0.3421,40.1000,62,97,223851
1.8475,0.3177,40.2000,62,97,223854
1.8817,0.3275,40.0600,62,97,223858
1.8671,0.3275,40.1000,62,97,223861
1.8426,0.3177,40.2000,62,97,223864
1.8719,0.3275,40.1300,62,97,223868
1.8426,0.3177,40.2000,62,97,223872
1.8817,0.3324,39.8600,62,97,223875
1.8524,0.3226,40.0600,62,97,223878
1.8524,0.3177,40.2300,62,97,223882
1.8964,0.3226,40.2000,62,97,223885
1.8671,0.3177,40.2000,62,97,223888
1.9159,0.3470,40.1000,62,97,223892
1.8671,0.3226,40.2300,62,97,223895
1.8573,0.3177,40.1300,62,97,223898
1.8573,0.3226,40.2300,62,97,223902
1.8524,0.3324,40.2000,62,97,223905
1.8866,0.3324,40.1000,62,97,223908
1.8573,0.3177,40.2600,62,97,223912
1.8622,0.3226,40.1000,62,97,223916
1.8622,0.3226,40.2600,62,97,223919
1.8573,0.3177,40.2300,62,97,223923
1.9062,0.3324,40.1000,62,97,223926
1.8622,0.3226,40.1000,62,97,223929
1.9208,0.3177,40.1000,62,97,223932
1.8768,0.3177,40.2300,62,97,223936
1.8768,0.3226,40.2300,62,97,223939
1.9062,0.3226,40.2300,62,97,223942
1.8964,0.3226,40.2000,62,97,223946
1.9404,0.3226,40.0300,62,97,223949
1.9892,0.3324,40.0300,62,97,223954
1.9453,0.3177,40.1600,62,97,223958
1.9453,0.3128,40.2000,62,97,223961
1.9550,0.3421,40.2000,62,97,223965
1.9550,0.3079,40.2300,62,97,223968
2.0039,0.3324,40.1000,62,97,223971
1.9941,0.3275,40.1300,62,97,223975
1.9599,0.3177,40.2000,62,97,223978
1.9453,0.3226,40.2000,62,97,223981
1.9306,0.3177,40.1300,62,97,223985
1.9746,0.3324,40.0300,62,97,223988
1.9062,0.3226,40.2600,62,97,223991
1.9159,0.3275,40.1600,62,97,223995
1.8817,0.3128,40.2300,62,97,223998
1.8719,0.3226,40.2300,62,97,224002
1.8817,0.3226,40.3300,62,97,224005
1.8475,0.3177,40.2300,62,97,224009
1.8622,0.3226,40.0300,62,97,224012
1.8377,0.3177,40.1600,62,97,224015
1.8231,0.3177,40.2300,62,97,224019
1.8231,0.3226,40.2000,62,97,224022
1.7986,0.3226,40.2600,62,97,224025
1.8133,0.3079,40.0000,62,97,224029
1.7791,0.3128,40.2300,62,97,224032
1.7840,0.3177,40.2000,62,97,224035
1.7937,0.3226,40.1000,62,97,224039
1.7889,0.3177,40.2000,62,97,224043
1.8328,0.3324,40.0000,62,97,224046
1.8035,0.3275,40.1600,62,97,224049
1.7889,0.3177,40.2300,62,97,224053
1.7937,0.3226,40.1300,62,97,224056
1.7840,0.3177,40.2600,62,97,224059
1.8475,0.3372,40.0600,62,97,224063
1.8182,0.3275,40.1600,62,97,224066
1.8182,0.3226,40.2000,62,97,224069
1.8377,0.3177,40.1600,62,97,224073
1.7937,0.3177,40.1600,62,97,224076
1.8035,0.3226,40.0300,62,97,224079
1.7498,0.3226,40.2000,62,97,224083
1.7155,0.3226,39.8300,62,97,224087
1.6764,0.3128,40.2300,62,97,224090
1.7058,0.3177,40.3600,62,97,224093
1.8133,0.3275,40.1300,62,97,224097
1.9550,0.3177,40.2600,62,97,224100
2.1750,0.3275,40.1600,62,97,224103
2.3607,0.3177,40.1600,62,97,224107
2.5513,0.3226,40.1600,62,97,224110
2.7322,0.3275,40.1300,62,97,224113
2.8055,0.3324,40.2300,62,97,224117
2.9179,0.3275,40.0300,62,97,224120
2.9032,0.3275,40.0600,62,97,224123
2.8446,0.3421,40.2000,62,97,224128
2.8104,0.3275,40.2000,62,97,224131
2.6686,0.3177,40.2600,62,97,224134
2.5806,0.3421,39.9600,62,97,224137
2.3607,0.3226,40.1000,62,97,224141
2.1652,0.3177,40.3000,62,97,224144
2.0186,0.3372,40.3600,62,97,224147
1.8768,0.3177,40.1600,62,97,224151
1.8280,0.3372,39.9300,62,97,224154
1.6911,0.3226,40.1600,62,97,224157
1.6178,0.3177,40.1300,62,97,224161
1.5689,0.3226,40.2300,62,97,224164
1.5445,0.3324,40.3000,62,97,224167
1.5689,0.3275,40.0600,62,97,224172
1.5347,0.3226,40.2000,62,97,224175
1.5445,0.3226,40.1000,62,97,224178
1.5298,0.3226,40.2300,62,97,224181
1.5249,0.3177,40.2600,62,97,224185
1.5689,0.3275,40.0300,62,97,224188
1.5494,0.3226,40.2600,62,97,224191
1.5934,0.3324,40.0600,62,97,224195
1.5885,0.3177,40.2000,62,97,224198
1.6080,0.3128,40.2300,62,97,224201
1.6373,0.3226,40.2000,62,97,224205
1.6325,0.3128,40.1600,62,97,224208
1.6667,0.3177,40.0600,62,97,224211
1.6422,0.3324,40.2000,62,97,224216
1.6422,0.3226,40.2300,62,97,224219
1.6569,0.3226,40.2300,62,97,224222
1.6471,0.3226,40.2000,62,97,224225
1.7009,0.3324,39.9300,62,97,224229
1.6618,0.3177,40.1300,62,97,224232
1.6716,0.3177,40.2600,62,97,224235
1.6911,0.3226,39.6000,62,97,224239
1.6960,0.3226,40.2000,62,97,224242
1.7498,0.3324,39.9300,62,97,224245
1.7253,0.3519,40.1600,62,97,224249
1.7204,0.3177,40.3000,62,97,224252
1.7351,0.3177,40.2300,62,97,224256
1.7400,0.3177,40.2000,62,97,224260
1.7937,0.3372,40.1000,62,97,224263
1.7595,0.3177,40.1600,62,97,224266
1.7546,0.3226,40.2300,62,97,224270
1.7498,0.3226,40.2000,62,97,224273
1.7546,0.3177,40.2300,62,97,224276
1.7937,0.3275,40.0600,62,97,224279
1.7937,0.3226,40.1600,62,97,224283
1.8084,0.3275,40.1000,62,97,224286
1.7937,0.3470,40.2000,62,97,224289
1.7840,0.3226,40.2600,62,97,224293
1.8035,0.3275,40.2000,62,97,224296
1.7889,0.3177,40.2600,62,97,224300
1.8133,0.3275,40.0600,62,97,224304
1.7791,0.3177,40.2000,62,97,224307
1.7791,0.3079,40.2600,62,97,224310
1.8035,0.3421,40.1000,62,97,224314
1.7889,0.3177,40.2300,62,97,224317
1.8231,0.3568,40.0300,62,97,224320
1.8035,0.3275,40.1600,62,97,224323
1.7986,0.3177,40.0600,62,97,224327
1.8231,0.3275,40.1300,62,97,224330
1.8035,0.3226,40.0600,62,97,224333
1.8524,0.3275,39.9600,62,97,224337
1.8280,0.3226,40.1600,62,97,224340
1.8231,0.3177,40.2000,62,97,224344
1.8280,0.3226,40.2000,62,97,224348
1.8182,0.3177,40.2300,62,97,224351
1.8768,0.3372,40.0600,62,97,224354
1.8231,0.3226,40.2000,62,97,224358
1.8182,0.3177,40.1000,62,97,224361
1.8133,0.3226,40.3000,62,97,224364
1.8426,0.3177,40.2300,62,97,224368
1.8622,0.3324,40.1000,62,97,224371
1.8377,0.3226,40.2000,62,97,224374
1.8573,0.3226,40.1000,62,97,224377
1.8426,0.3275,40.2600,62,97,224381
1.8377,0.3177,40.2000,62,97,224385
1.8671,0.3324,40.0300,62,97,224388
1.8328,0.3226,40.2600,62,97,224392
1.8524,0.3275,40.0600,62,97,224395
1.8573,0.3177,40.2300,62,97,224398
1.8328,0.3177,40.3300,62,97,224402
1.8671,0.3324,40.1300,62,97,224405
1.8573,0.3226,40.2000,62,97,224408
1.8915,0.3519,40.0300,62,97,224412
1.8719,0.3226,40.1300,62,97,224415
1.8622,0.3470,40.2000,62,97,224418
1.8768,0.3324,40.1600,62,97,224421
1.8524,0.3079,40.3300,62,97,224425
1.8915,0.3275,39.9600,62,97,224429
1.8524,0.3226,40.1600,62,97,224432
1.8524,0.3324,40.2300,62,97,224436
1.8671,0.3226,40.2000,62,97,224439
1.8622,0.3177,40.1600,62,97,224442
1.9159,0.3421,40.0300,62,97,224446
1.8866,0.3275,40.1600,62,97,224449
1.8866,0.3177,40.1300,62,97,224452
1.8964,0.3275,40.2000,62,97,224456
1.8866,0.3226,40.2300,62,97,224459
1.9404,0.3324,40.1000,62,97,224462
1.9013,0.3226,40.1600,62,97,224466
1.9062,0.3079,40.1000,62,97,224470
1.8866,0.3226,40.2600,62,97,224473
1.8768,0.3226,40.2000,62,97,224476
1.9110,0.3079,40.1000,62,97,224480
1.8915,0.3226,40.1600,62,97,224483
1.9208,0.3275,40.1300,62,97,224486
1.8964,0.3177,40.2000,62,97,224490
1.9257,0.3177,40.2300,62,97,224493
1.9013,0.3079,40.1600,62,97,224496
1.8866,0.3226,40.2000,62,97,224500
1.9257,0.3177,40.1000,62,97,224503
1.8768,0.3226,40.1300,62,97,224506
1.8768,0.3226,40.2000,62,97,224509
1.9013,0.3324,40.1300,62,97,224514
1.8768,0.3226,40.2000,62,97,224517
1.9355,0.3275,39.9600,62,97,224520
1.8817,0.3079,40.1000,62,97,224524
1.8475,0.3177,40.2000,62,97,224527
1.8524,0.3275,40.1600,62,97,224530
1.8328,0.3177,40.2000,62,97,224534
1.9110,0.3372,39.9600,62,97,224537
1.8671,0.3226,40.0600,62,97,224540
1.8622,0.3177,40.2300,62,97,224544
1.8671,0.3226,40.2300,62,97,224547
1.8622,0.3470,40.1600,62,97,224550
1.9501,0.3421,40.1000,62,97,224553
1.8719,0.3177,40.1600,62,97,224558
1.8622,0.3177,40.2300,62,97,224561
1.8573,0.3226,40.2000,62,97,224564
1.8377,0.3128,40.2000,62,97,224569
1.8328,0.3177,40.2600,62,97,224572
1.8524,0.3275,40.2000,62,97,224576
1.8182,0.3226,40.1600,62,97,224579
1.8426,0.3226,40.0300,62,97,224582
1.8377,0.3226,40.1600,62,97,224586
1.8035,0.3177,40.1300,62,97,224589
1.8475,0.3324,40.1000,62,97,224592
1.8084,0.3226,40.2600,62,97,224596
1.8622,0.3275,40.0300,62,97,224600
1.8426,0.3226,40.1300,62,97,224603
1.8280,0.3128,40.2600,62,97,224607
1.8280,0.3226,40.2600,62,97,224610
1.8280,0.3177,40.2000,62,97,224613
1.8817,0.3372,39.8900,62,97,224616
1.8426,0.3226,40.0600,62,97,224620
1.8328,0.3177,40.2300,62,97,224623
1.8231,0.3226,40.3000,62,97,224626
1.8035,0.3177,40.2600,62,97,224630
1.8426,0.3372,39.8000,62,97,224633
1.8133,0.3324,40.1600,62,97,224636
1.8231,0.3177,40.1300,62,97,224641
1.8182,0.3275,40.3000,62,97,224644
1.8182,0.3177,40.2000,62,97,224647
1.8426,0.3470,40.1000,62,97,224651
1.8035,0.3226,40.2600,62,97,224654
1.8182,0.3275,40.0300,62,97,224657
1.8035,0.3128,40.1600,62,97,224661
1.7986,0.3226,40.2300,62,97,224664
1.8133,0.3177,40.1000,62,97,224667
1.7937,0.3226,40.2300,62,97,224670
1.8231,0.3226,40.1600,62,97,224674
1.8133,0.3177,40.1300,62,97,224677
1.8182,0.3275,40.2000,62,97,224680
1.8182,0.3226,40.2600,62,97,224685
1.8133,0.3226,40.2600,62,97,224688
1.8426,0.3324,40.0000,62,97,224691
1.8035,0.3177,40.2000,62,97,224695
1.8133,0.3177,40.1600,62,97,224698
1.8426,0.3275,40.2300,62,97,224701
1.8377,0.3177,40.2000,62,97,224705
1.8866,0.3324,40.0000,62,97,224708
1.8524,0.3568,40.1600,62,97,224711
1.8524,0.3177,40.2600,62,97,224714
1.8231,0.3568,40.1300,62,97,224718
1.8084,0.3128,40.1600,62,97,224721
1.8524,0.3421,40.1000,62,97,224724
1.8182,0.3275,40.1600,62,97,224729
1.8035,0.3226,40.3000,62,97,224732
1.7840,0.3324,40.2300,62,97,224735
1.7791,0.3177,40.2600,62,97,224739
1.8133,0.3275,40.1000,62,97,224742
1.7986,0.3226,40.2000,62,97,224745
1.8280,0.3275,40.0600,62,97,224749
1.8133,0.3177,40.2000,62,97,224752
1.8280,0.3079,40.2000,62,97,224755
1.8524,0.3226,40.2000,62,97,224759
1.8426,0.3128,40.2300,62,97,224762
1.8622,0.3324,40.1300,62,97,224765
1.8377,0.3177,40.2600,62,97,224769
1.8035,0.3079,40.2600,62,97,224773
1.8280,0.3372,40.1000,62,97,224776
1.8084,0.3079,40.2000,62,97,224779
1.8328,0.3275,39.9300,62,97,224783
1.8182,0.3177,40.1300,62,97,224786
1.7937,0.3226,40.2300,62,97,224789
1.8182,0.3275,40.2000,62,97,224793
1.8035,0.3226,40.2600,62,97,224796
1.8573,0.3324,39.9600,62,97,224799
1.8280,0.3226,40.1600,62,97,224803
1.8133,0.3470,40.2300,62,97,224806
1.8133,0.3226,40.2000,62,97,224809
1.8035,0.3226,40.2000,62,97,224813
1.8573,0.3568,40.0300,62,97,224817
1.8084,0.3226,40.3000,62,97,224820
1.7937,0.3177,40.2000,62,97,224823
1.8035,0.3275,40.2300,62,97,224827
1.7889,0.3177,40.1300,62,97,224830
1.8475,0.3324,40.0300,62,97,224833
1.8328,0.3226,40.2300,62,97,224837
1.8475,0.3324,40.1000,62,97,224840
1.8377,0.3226,40.2300,62,97,224843
1.8524,0.3275,40.2600,62,97,224847
1.9110,0.3324,40.2000,62,97,224850
1.8817,0.3226,40.1300,62,97,224854
1.9013,0.3079,40.1600,62,97,224858
1.8817,0.3421,40.2000,62,97,224861
1.9062,0.3177,40.2600,62,97,224864
1.9257,0.3226,40.4700,62,97,224867
1.9257,0.3226,40.2000,62,97,224871
1.9257,0.3226,40.0600,62,97,224874
1.9110,0.3275,40.1300,62,97,224877
1.9208,0.3226,40.3000,62,97,224881
1.9404,0.3275,40.1600,62,97,224884
1.9355,0.3177,40.2600,62,97,224887
1.9648,0.3324,39.5700,62,97,224891
1.9208,0.3226,40.1600,62,97,224894
1.9062,0.3079,39.5400,62,97,224898
1.9159,0.3275,40.2300,62,97,224902
1.9062,0.3226,40.4300,62,97,224905
1.9404,0.3324,39.9600,62,97,224908
1.8915,0.3275,40.1300,62,97,224911
1.8671,0.3177,40.1300,62,97,224915
1.8671,0.3226,40.2600,62,97,224918
1.8524,0.3177,40.2000,62,97,224921
1.9404,0.3275,40.0000,62,97,224925
1.8573,0.3275,40.1600,62,97,224928
1.8328,0.3226,40.1600,62,97,224931
1.7937,0.3226,40.2000,62,97,224935
1.7840,0.3226,40.2300,62,97,224939
1.8133,0.3275,40.0600,62,97,224942
1.7791,0.3226,40.2300,62,97,224946
1.7791,0.3177,40.0600,62,97,224949
1.7351,0.3226,40.3000,62,97,224952
1.7400,0.3470,40.2000,62,97,224955
1.7595,0.3177,40.1300,62,97,224959
1.7595,0.3079,40.2300,62,97,224962
1.7937,0.3275,40.2000,62,97,224965
1.7498,0.3226,40.2000,62,97,224969
1.7351,0.3226,40.3000,62,97,224972
1.7595,0.3324,40.1600,62,97,224975
1.7546,0.3226,40.2600,62,97,224979
1.8084,0.3324,40.1000,62,97,224983
1.7742,0.3275,40.1000,62,97,224986
1.7546,0.3177,40.2000,62,97,224990
1.7644,0.3275,40.1600,62,97,224993
1.7302,0.3226,40.2300,62,97,224996
1.7644,0.3275,39.9600,62,97,224999
1.7009,0.3226,40.0600,62,97,225003
1.6373,0.3226,40.2000,62,97,225006
1.6129,0.3226,40.1600,62,97,225009
1.6276,0.3226,40.1300,62,97,225013
1.7937,0.3470,40.1000,62,97,225016
1.8915,0.3226,40.2300,62,97,225019
2.0919,0.3177,40.1600,62,97,225024
2.3118,0.3226,40.1600,62,97,225027
2.4829,0.3226,40.2300,62,97,225030
2.6735,0.3324,40.1000,62,97,225034
2.7273,0.3226,40.2000,62,97,225037
2.8104,0.3177,40.1000,62,97,225040
2.8152,0.3226,40.2000,62,97,225043
2.8055,0.3226,40.2600,62,97,225047
2.8006,0.3275,40.0300,62,97,225050
2.6540,0.3226,40.2000,62,97,225053
2.5318,0.3324,40.1600,62,97,225057
2.3069,0.3177,40.1600,62,97,225060
2.1065,0.3226,40.3600,62,97,225063
1.9306,0.3226,40.2300,62,97,225068
1.7693,0.3226,40.2000,62,97,225071
1.7009,0.3275,40.1000,62,97,225074
1.6422,0.3226,40.2300,62,97,225078
1.6178,0.3226,40.1600,62,97,225081
1.6227,0.3324,40.2300,62,97,225084
1.5934,0.3226,40.2600,62,97,225087
1.6080,0.3275,40.0000,62,97,225091
1.5543,0.3226,40.1300,62,97,225094
1.5298,0.3177,40.2300,62,97,225097
1.5152,0.3275,40.1600,62,97,225101
1.4907,0.3226,40.2300,62,97,225104
1.5347,0.3421,39.9600,62,97,225107
1.5249,0.3275,40.2300,62,97,225112
1.5445,0.3177,40.1600,62,97,225115
1.5640,0.3226,40.1600,62,97,225118
1.5738,0.3226,40.2000,62,97,225122
1.6422,0.3275,40.0000,62,97,225125
1.6373,0.3275,40.1300,62,97,225128
1.6618,0.3177,40.1300,62,97,225132
1.6520,0.3226,40.1600,62,97,225135
1.6422,0.3519,40.2300,62,97,225138
1.6569,0.3079,40.1000,62,97,225141
1.6227,0.3226,40.2000,62,97,225145
1.6422,0.3324,40.1000,62,97,225148
1.6276,0.3226,40.2000,62,97,225152
1.6569,0.3226,40.2600,62,97,225156
1.6813,0.3275,40.2600,62,97,225159
1.7009,0.3177,40.2300,62,97,225162
1.7107,0.3226,40.1000,62,97,225166
1.7204,0.3177,40.3000,62,97,225169
1.7009,0.3177,40.2300,62,97,225172
1.7253,0.3421,40.2300,63,97,225176
1.7107,0.3275,40.2000,63,97,225180
1.6911,0.3226,40.3300,63,97,225184
1.7351,0.3421,40.0600,63,97,225187
1.7155,0.3275,40.1300,63,97,225190
1.7644,0.3226,40.2300,63,97,225195
1.7693,0.3226,40.2300,63,97,225198
1.7840,0.3275,40.2000,63,97,225201
1.8231,0.3275,40.0600,63,97,225204
1.7937,0.3226,40.1600,63,97,225208
1.8035,0.3177,40.1000,63,97,225211
1.7791,0.3226,40.1300,63,97,225214
1.7693,0.3177,40.2000,63,97,225218
1.7889,0.3275,39.9600,63,97,225221
1.7937,0.3226,40.2300,63,97,225224
1.8182,0.3324,40.1300,63,97,225228
1.8035,0.3226,40.2300,63,97,225231
1.7644,0.3226,40.2300,63,97,225234
1.7889,0.3372,40.1300,63,97,225239
1.7791,0.3226,40.2600,63,97,225242
1.8524,0.3275,40.1000,63,97,225245
1.8133,0.3275,40.0600,63,97,225249
1.8084,0.3275,40.1600,63,97,225252
1.8377,0.3324,40.1000,63,97,225255
1.8182,0.3470,40.2300,63,97,225258
1.8573,0.3324,40.0000,63,97,225262
1.8133,0.3226,40.1300,63,97,225265
1.8328,0.3177,40.2000,63,97,225268
1.7986,0.3226,40.2000,63,97,225272
1.7889,0.3226,40.2000,63,97,225275
1.8426,0.3421,39.9600,63,97,225278
1.7986,0.3226,40.2000,63,97,225283
1.7937,0.3177,40.1600,63,97,225286
1.7937,0.3079,40.2300,63,97,225289
1.7889,0.3177,40.3000,63,97,225293
1.8328,0.3372,40.1000,63,97,225296
1.7937,0.3226,40.2000,63,97,225299
1.8035,0.3421,40.1300,63,97,225302
1.8084,0.3226,40.3000,63,97,225306
1.8328,0.3226,40.2600,63,97,225309
1.8866,0.3324,40.0300,63,97,225312
1.8475,0.3275,40.2000,63,97,225316
1.8524,0.3275,40.1000,63,97,225319
1.7937,0.3079,40.2600,63,97,225323
1.7986,0.3226,40.2000,63,97,225327
1.8475,0.3275,40.1300,63,97,225330
1.8280,0.3226,40.2000,63,97,225333
1.8671,0.3470,40.1000,63,97,225337
1.8622,0.3226,40.1600,63,97,225340
1.8622,0.3226,40.2000,63,97,225343
1.8622,0.3324,40.1600,63,97,225346
1.8377,0.3226,40.2300,63,97,225350
1.8719,0.3324,40.0600,63,97,225353
1.8426,0.3226,40.2600,63,97,225356
1.8573,0.3226,40.2300,63,97,225360
1.8915,0.3275,40.2000,63,97,225363
1.8817,0.3226,40.2300,63,97,225367
1.9355,0.3324,39.9300,63,97,225371
1.9159,0.3177,40.1000,63,97,225374
1.8964,0.3177,40.2600,63,97,225377
1.9062,0.3226,40.2300,63,97,225381
1.9013,0.3226,40.1600,63,97,225384
1.9501,0.3421,40.1000,63,97,225387
1.9013,0.3275,40.1300,63,97,225391
1.8817,0.3226,40.2000,63,97,225394
1.8475,0.3226,40.2300,63,97,225397
1.8524,0.3226,40.2000,63,97,225400
1.8915,0.3324,40.0300,63,97,225404
1.8768,0.3177,40.2600,63,97,225408
1.9062,0.3226,40.1000,63,97,225411
1.8817,0.3275,40.2000,63,97,225415
1.8671,0.3226,40.2000,63,97,225418
1.8573,0.3275,40.1300,63,97,225421
1.8377,0.3226,40.1600,63,97,225425
1.8622,0.3324,40.1000,63,97,225428
1.8328,0.3226,40.2000,63,97,225431
1.8280,0.3226,40.1600,63,97,225435
1.8475,0.3324,40.2300,63,97,225438
1.8231,0.3226,40.1600,63,97,225441
1.8622,0.3275,40.1000,63,97,225444
1.8524,0.3275,40.2300,63,97,225448
1.8475,0.3177,40.2000,63,97,225452
1.8817,0.3324,40.3600,63,97,225455
1.8524,0.3128,40.2300,63,97,225459
1.8866,0.3324,39.9600,63,97,225462
1.8426,0.3177,40.1000,63,97,225465
1.8280,0.3226,40.2600,63,97,225469
1.8182,0.3226,40.2600,63,97,225472
1.8084,0.3226,40.2300,63,97,225475
1.8573,0.3421,40.1000,63,97,225479
1.8084,0.3275,40.2300,63,97,225482
1.8133,0.3177,40.1600,63,97,225485
1.8133,0.3275,40.1600,63,97,225488
1.8133,0.3226,40.2000,63,97,225492
1.8573,0.3617,40.1600,63,97,225496
1.8377,0.3275,40.2000,63,97,225499
1.8475,0.3226,39.7000,63,97,225503
1.8280,0.3226,40.2000,63,97,225506
1.8133,0.3226,40.2000,63,97,225509
1.8328,0.3372,40.1600,63,97,225513
1.7937,0.3275,40.1600,63,97,225516
1.8084,0.3324,40.2000,63,97,225519
1.7742,0.3226,40.1300,63,97,225523
1.7889,0.3226,39.7700,63,97,225526
1.8035,0.3275,40.1600,63,97,225529
1.7937,0.3226,40.2600,63,97,225533
1.8426,0.3324,40.1000,63,97,225537
1.8182,0.3226,40.1000,63,97,225540
1.8133,0.3226,40.3000,63,97,225543
1.8133,0.3275,40.1600,63,97,225547
1.7889,0.3226,40.2000,63,97,225550
1.8084,0.3324,40.0000,63,97,225553
1.7840,0.3226,40.4700,63,97,225557
1.8133,0.3275,40.2300,63,97,225560
1.8475,0.3275,40.2300,63,97,225563
1.8475,0.3226,40.2300,63,97,225567
1.8866,0.3421,39.9600,63,97,225570
1.8426,0.3275,40.2000,63,97,225573
1.8133,0.3177,40.1600,63,97,225577
1.8231,0.3226,40.2300,63,97,225581
1.8084,0.3226,40.1300,63,97,225584
1.8426,0.3372,40.0300,63,97,225588
1.8182,0.3275,40.2000,63,97,225591
1.8231,0.3275,40.1000,63,97,225594
1.8280,0.3226,40.2000,63,97,225597
1.8328,0.3226,40.2300,63,97,225601
1.8915,0.3324,40.0600,63,97,225604
1.8280,0.3226,40.1600,63,97,225607
1.8328,0.3275,40.1600,63,97,225611
1.7937,0.3226,40.2000,63,97,225614
1.8035,0.3226,40.2000,63,97,225617
1.8182,0.3275,40.2000,63,97,225622
1.8182,0.3275,40.2300,63,97,225625
1.8622,0.3275,40.1000,63,97,225628
1.8377,0.3226,40.2300,63,97,225631
1.8475,0.3226,40.2000,63,97,225635
1.8573,0.3666,40.1000,63,97,225638
1.8328,0.3226,40.2000,63,97,225641
1.8573,0.3324,40.0000,63,97,225645
1.8475,0.3324,40.2000,63,97,225648
1.8231,0.3226,40.3000,63,97,225651
1.8524,0.3275,40.1600,63,97,225655
1.8280,0.3226,40.2600,63,97,225658
1.8622,0.3324,40.0000,63,97,225661
1.8280,0.3275,40.0600,63,97,225666
1.8328,0.3226,40.3000,63,97,225669
1.8475,0.3324,40.2300,63,97,225672
1.8475,0.3226,40.3000,63,97,225675
1.9062,0.3470,39.5700,63,97,225679
1.8524,0.3177,40.1600,63,97,225682
1.8475,0.3226,40.1600,63,97,225685
1.8426,0.3226,40.2300,63,97,225689
1.8328,0.3226,40.1600,63,97,225692
1.8622,0.3324,40.1000,63,97,225695
1.8231,0.3226,40.2600,63,97,225699
1.8377,0.3324,40.0600,63,97,225702
1.8231,0.3226,40.2600,63,97,225705
1.8328,0.3177,40.2000,63,97,225710
1.8573,0.3372,40.1000,63,97,225713
1.8280,0.3177,40.2300,63,97,225716
1.8719,0.3324,40.1300,63,97,225720
1.8573,0.3324,40.1300,63,97,225723
1.8671,0.3226,40.2000,63,97,225726
1.8866,0.3324,40.1000,63,97,225729
1.8573,0.3226,40.2300,63,97,225733
1.8768,0.3079,40.1300,63,97,225736
1.8426,0.3372,40.1600,63,97,225739
1.8328,0.3226,40.3000,63,97,225743
1.8475,0.3421,40.1000,63,97,225746
1.8280,0.3177,40.2000,63,97,225750
1.8524,0.3324,39.9600,63,97,225754
1.8182,0.3226,40.2000,63,97,225757
1.8280,0.3226,40.2300,63,97,225760
1.8231,0.3372,40.1300,63,97,225764
1.8035,0.3226,40.3000,63,97,225767
1.8671,0.3763,39.9600,63,97,225770
1.8524,0.3275,40.1300,63,97,225773
1.8426,0.3177,40.1600,63,97,225777
1.8622,0.3226,40.2000,63,97,225780
1.8768,0.3226,40.0000,63,97,225783
1.9453,0.3568,40.1000,63,97,225787
2.0088,0.3324,40.1300,63,97,225792
1.9550,0.3177,40.2300,63,97,225796
1.9795,0.3275,40.2300,63,97,225799
1.9550,0.3324,40.1600,63,97,225802
1.9501,0.3226,40.2600,63,97,225806
1.9599,0.3275,40.2000,63,97,225809
1.9501,0.3177,40.2300,63,97,225812
1.9501,0.3275,40.0300,63,97,225816
1.9062,0.3226,40.2300,63,97,225819
1.9013,0.3226,40.2000,63,97,225822
1.9062,0.3324,40.0600,63,97,225825
1.8768,0.3226,40.2000,63,97,225829
1.9062,0.3324,39.9600,63,97,225832
1.8719,0.3324,40.1600,63,97,225836
1.8622,0.3226,40.2600,63,97,225840
1.8866,0.3275,40.2000,63,97,225843
1.8426,0.3226,40.2600,63,97,225846
1.8915,0.3470,39.9600,63,97,225850
1.8573,0.3275,40.1300,63,97,225853
1.8328,0.3226,40.1000,63,97,225856
1.8280,0.3226,40.2000,63,97,225860
1.8035,0.3226,40.2000,63,97,225863
1.8280,0.3568,40.1000,63,97,225866
1.7791,0.3275,40.2000,63,97,225869
1.7693,0.3275,40.1300,63,97,225873
1.7498,0.3275,40.2000,63,97,225876
1.7644,0.3226,40.2000,63,97,225880
1.7937,0.3470,40.1300,63,97,225884
1.7937,0.3177,40.2000,63,97,225887
1.8084,0.3275,40.1300,63,97,225890
1.7937,0.3226,40.2000,63,97,225894
1.7693,0.3226,40.2600,63,97,225897
1.7791,0.3324,40.1600,63,97,225900
1.7498,0.3226,40.1300,63,97,225904
1.7791,0.3324,40.1300,63,97,225907
1.7791,0.3275,40.1000,63,97,225910
1.7742,0.3324,40.2300,63,97,225914
1.7693,0.3372,40.3300,63,97,225917
1.7400,0.3226,40.2000,63,97,225921
1.7058,0.3324,40.0600,63,97,225924
1.6716,0.3324,40.1600,63,97,225928
1.7351,0.3177,40.2600,63,97,225931
1.8719,0.3079,40.0600,63,97,225934
2.0430,0.3275,40.2300,63,97,225938
2.3216,0.3324,40.0300,63,97,225941
2.4878,0.3275,40.1300,63,97,225944
2.6588,0.3177,40.2600,63,97,225948
2.7859,0.3275,40.2600,63,97,225951
2.8446,0.3226,40.2300,63,97,225954
2.9521,0.3421,40.0600,63,97,225958
2.8886,0.3275,40.1600,63,97,225961
2.8397,0.3177,40.1300,63,97,225965
2.7273,0.3226,40.1300,63,97,225968
2.5953,0.3275,40.2300,63,97,225972
2.4731,0.3372,40.1300,63,97,225975
2.2581,0.3324,40.2300,63,97,225978
2.1065,0.3275,40.2000,63,97,225982
1.9355,0.3324,40.2000,63,97,225985
1.8084,0.3177,40.2000,63,97,225988
1.7351,0.3275,40.0600,63,97,225992
1.6422,0.3226,40.2000,63,97,225995
1.6080,0.3275,40.1300,63,97,225998
1.5445,0.3226,40.1000,63,97,226002
1.5152,0.3177,40.1600,63,97,226006
1.5103,0.3275,40.1000,63,97,226009
1.5005,0.3324,40.2000,63,97,226012
1.5445,0.3324,40.0000,63,97,226016
1.5152,0.3226,40.2000,63,97,226019
1.5347,0.3177,40.2600,63,97,226022
1.5543,0.3275,40.3300,63,97,226026
1.5445,0.3226,40.2000,63,97,226029
1.5934,0.3372,39.8900,63,97,226032
1.5885,0.3324,40.1600,63,97,226036
1.6129,0.3226,40.2300,63,97,226039
1.6618,0.3275,40.1600,63,97,226042
1.6227,0.3079,40.2600,63,97,226046
1.6667,0.3568,40.0300,63,97,226050
1.6325,0.3275,40.1300,63,97,226053
1.6178,0.3226,40.1600,63,97,226057
1.6080,0.3226,40.2000,63,97,226060
1.6080,0.3226,40.2300,63,97,226063
1.6667,0.3324,40.0600,63,97,226066
1.6569,0.3079,40.2600,63,97,226070
1.6862,0.3275,40.0600,63,97,226073
1.6716,0.3226,40.2000,63,97,226076
1.6618,0.3275,40.2000,63,97,226080
1.6764,0.3324,40.2300,63,97,226083
1.6813,0.3275,40.2000,63,97,226086
1.7253,0.3324,40.1300,63,97,226091
1.7204,0.3226,40.2600,63,97,226094
1.7253,0.3275,40.1600,63,97,226097
1.7498,0.3275,40.1000,63,97,226101
1.7351,0.3324,40.2000,63,97,226104
1.7595,0.3275,40.0300,63,97,226107
1.7449,0.3275,40.1000,63,97,226110
1.7302,0.3275,40.3000,63,97,226114
1.7595,0.3372,40.1000,63,97,226117
1.7449,0.3226,40.3000,63,97,226120
1.7937,0.3421,39.9600,63,97,226124
1.7498,0.3226,40.1300,63,97,226127
1.7302,0.3470,40.2300,63,97,226130
1.7400,0.3275,40.2600,63,97,226135
1.7546,0.3226,40.1600,63,97,226138
1.8280,0.3421,40.0000,63,97,226141
1.7889,0.3275,40.1600,63,97,226145
1.7889,0.3226,40.2000,63,97,226148
1.7889,0.3079,40.2600,63,97,226151
1.8035,0.3177,40.1600,63,97,226154
1.8377,0.3372,40.1300,63,97,226158
1.7986,0.3324,40.2000,63,97,226161
1.8084,0.3275,40.0600,63,97,226164
1.7840,0.3226,40.2000,63,97,226168
1.7693,0.3324,40.2600,63,97,226171
1.7889,0.3324,40.0300,63,97,226174
1.7546,0.3372,40.2300,63,97,226179
1.7791,0.3275,40.0300,63,97,226182
1.7498,0.3226,40.2300,63,97,226185
1.7546,0.3226,40.2000,63,97,226189
1.7889,0.3324,40.1000,63,97,226192
1.7889,0.3226,40.2000,63,97,226195
1.8426,0.3275,40.1000,63,97,226198
1.8475,0.3275,40.1600,63,97,226202
1.8671,0.3226,40.2300,63,97,226205
1.8671,0.3275,40.1600,63,97,226208
1.8328,0.3226,40.2300,63,97,226212
1.8475,0.3324,40.1300,63,97,226215
1.8133,0.3226,40.2600,63,97,226219
1.8328,0.3226,40.2000,63,97,226223
1.8622,0.3275,40.2300,63,97,226226
1.8573,0.3470,40.2300,63,97,226229
1.9159,0.3372,39.9300,63,97,226233
1.8768,0.3275,40.1000,63,97,226236
1.8524,0.3177,40.2600,63,97,226239
1.8426,0.3275,40.1000,63,97,226243
1.8182,0.3324,40.2600,63,97,226246
1.8622,0.3421,40.0600,63,97,226249
1.8377,0.3226,40.1300,63,97,226252
1.8377,0.3226,40.1300,63,97,226256
1.8231,0.3275,40.2000,63,97,226259
1.8231,0.3177,40.3000,63,97,226263
1.8719,0.3617,40.1000,63,97,226267
1.8622,0.3226,40.2600,63,97,226270
1.9013,0.3275,40.0300,63,97,226273
1.8866,0.3275,40.2300,63,97,226277
1.8817,0.3079,40.1000,63,97,226280
1.8866,0.3324,40.1600,63,97,226283
1.8719,0.3226,40.1600,63,97,226287
1.9013,0.3275,40.1000,63,97,226290
1.8768,0.3079,40.3000,63,97,226293
1.8866,0.3226,40.2000,63,97,226296
1.9208,0.3275,40.1300,63,97,226300
1.9062,0.3226,40.2600,63,97,226304
1.9453,0.3324,40.0300,63,97,226307
1.9257,0.3275,40.1000,63,97,226311
1.9013,0.3226,40.3000,63,97,226314
1.9257,0.3275,40.1300,63,97,226317
1.8964,0.3226,40.4700,63,97,226321
1.9453,0.3372,40.0000,63,97,226324
1.8915,0.3275,40.1000,63,97,226327
1.8671,0.3177,40.2000,63,97,226331
1.8524,0.3275,40.2000,63,97,226334
1.8524,0.3275,40.2000,63,97,226337
1.9257,0.3470,39.9600,63,97,226340
1.8768,0.3275,40.2300,63,97,226344
1.8817,0.3177,40.1000,63,97,226348
1.8475,0.3275,40.2000,63,97,226351
1.8328,0.3226,40.2300,63,97,226355
1.8719,0.3372,40.1600,63,97,226358
1.8475,0.3568,40.2000,63,97,226361
1.8622,0.3275,40.1000,63,97,226365
1.8328,0.3372,40.2000,63,97,226368
1.8426,0.3177,40.2300,63,97,226371
1.8817,0.3079,40.1300,63,97,226375
1.8768,0.3275,40.2000,63,97,226378
1.9013,0.3324,40.1000,63,97,226381
1.8768,0.3226,40.1300,63,97,226385
1.8768,0.3177,40.2000,63,97,226388
1.8866,0.3324,40.1600,63,97,226392
1.8622,0.3226,40.3000,63,97,226395
1.8573,0.3275,40.0600,63,97,226399
1.8671,0.3372,40.0300,63,97,226403
1.8280,0.3324,40.1600,63,97,226407
1.8280,0.3226,40.2300,63,97,226410
1.8377,0.3372,40.2000,63,97,226413
1.8231,0.3079,40.2300,63,97,226417
1.8671,0.3715,40.0300,63,97,226420
1.8280,0.3275,40.1600,63,97,226423
1.8084,0.3226,40.1300,63,97,226427
1.8035,0.3324,40.2000,63,97,226430
1.8133,0.3226,40.3000,63,97,226434
1.8377,0.3421,40.0300,63,97,226438
1.8084,0.3275,40.2600,63,97,226441
1.8328,0.3275,40.0300,63,97,226444
1.8280,0.3177,40.2000,63,97,226448
1.8231,0.3226,40.2600,63,97,226451
1.8377,0.3275,40.1300,63,97,226454
1.8084,0.3226,40.2000,63,97,226457
1.8377,0.3275,40.1300,63,97,226461
1.8084,0.3226,40.1600,63,97,226464
1.8133,0.3226,40.2300,63,97,226467
1.8573,0.3177,40.1600,63,97,226471
1.8231,0.3226,39.6400,63,97,226475
1.8475,0.3324,40.0000,63,97,226478
1.8133,0.3226,40.1300,63,97,226482
1.8182,0.3275,40.2300,63,97,226485
1.8377,0.3324,40.1600,63,97,226488
1.8084,0.3226,40.2300,63,97,226492
1.8524,0.3372,40.1300,63,97,226495
1.8328,0.3324,40.1300,63,97,226498
1.8133,0.3226,40.2600,63,97,226501
1.8475,0.3324,40.1600,63,97,226505
1.8182,0.3226,40.2300,63,97,226508
1.8719,0.3666,39.9600,63,97,226511
1.8280,0.3275,40.1300,63,97,226515
1.8084,0.3226,40.2300,63,97,226519
1.8035,0.3275,40.2000,63,97,226522
1.8182,0.3226,40.2000,63,97,226526
1.8622,0.3324,40.1300,63,97,226529
1.8426,0.3275,40.2300,63,97,226532
1.8622,0.3275,40.0600,63,97,226536
1.8524,0.3275,40.2000,63,97,226539
1.8377,0.3226,40.2000,63,97,226542
1.8426,0.3275,40.1600,63,97,226546
1.8280,0.3275,40.2600,63,97,226549
1.8622,0.3421,40.1300,63,97,226552
1.8426,0.3275,40.2000,63,97,226555
1.8280,0.3226,40.2000,63,97,226560
1.8573,0.3324,40.1000,63,97,226563
1.8231,0.3275,40.2600,63,97,226566
1.8622,0.3275,40.0600,63,97,226570
1.8622,0.3275,40.1300,63,97,226573
1.8524,0.3226,40.3000,63,97,226576
1.8475,0.3372,40.1300,63,97,226580
1.8182,0.3226,40.2000,63,97,226583
1.8622,0.3372,40.0300,63,97,226586
1.8377,0.3275,40.1000,63,97,226590
1.8377,0.3226,40.2000,63,97,226593
1.8377,0.3275,40.2300,63,97,226596
1.8377,0.3275,40.2300,63,97,226599
1.8964,0.3421,40.0000,63,97,226604
1.8573,0.3324,40.1600,63,97,226607
1.8524,0.3226,40.1600,63,97,226610
1.8719,0.3324,40.2300,63,97,226614
1.8377,0.3226,40.2600,63,97,226617
1.8964,0.3275,40.1000,63,97,226620
1.8622,0.3275,40.2000,63,97,226624
1.8671,0.3275,40.1600,63,97,226627
1.8524,0.3079,40.1300,63,97,226630
1.8475,0.3226,40.2000,63,97,226634
1.8768,0.3275,40.0600,63,97,226637
1.8377,0.3275,40.1600,63,97,226640
1.8573,0.3275,40.1000,63,97,226644
1.8328,0.3226,40.3000,63,97,226648
1.8377,0.3275,40.3000,63,97,226651
1.8719,0.3275,40.4700,63,97,226654
1.8426,0.3226,40.2600,63,97,226658
1.8622,0.3275,39.7700,63,97,226661
1.8573,0.3275,40.1600,63,97,226664
1.8524,0.3226,40.2000,63,97,226668
1.8622,0.3372,40.2300,63,97,226671
1.8426,0.3275,40.2300,63,97,226674
1.8671,0.3324,40.0300,63,97,226678
1.8328,0.3226,40.2300,63,97,226681
1.8475,0.3226,40.2300,63,97,226684
1.8817,0.3275,40.1600,63,97,226689
1.8866,0.3226,40.2300,63,97,226692
1.9648,0.3421,39.9600,63,97,226695
1.9306,0.3324,40.1300,63,97,226699
1.9110,0.3226,40.2000,63,97,226702
1.8964,0.3226,40.3300,63,97,226705
1.8915,0.3275,40.3000,63,97,226709
1.9501,0.3372,40.2600,63,97,226712
1.9208,0.3275,40.2600,63,97,226715
1.9453,0.3275,40.1300,63,97,226718
1.9355,0.3177,40.2000,63,97,226722
1.9404,0.3226,40.2000,63,97,226725
1.9697,0.3421,40.1600,63,97,226728
1.9355,0.3324,40.2000,63,97,226733
1.9453,0.3275,40.0600,63,97,226736
1.9013,0.3226,40.2300,63,97,226739
1.8866,0.3079,40.2300,63,97,226743
1.8719,0.3275,40.2000,63,97,226746
1.8719,0.3275,40.2300,63,97,226749
1.9110,0.3275,40.1000,63,97,226752
1.8915,0.3324,40.2000,63,97,226756
1.8768,0.3226,40.2600,63,97,226759
1.8817,0.3324,40.2000,63,97,226762
1.8426,0.3226,40.2000,63,97,226766
1.8573,0.3324,40.0000,63,97,226769
1.8182,0.3324,40.2000,63,97,226772
1.7791,0.3226,40.2300,63,97,226777
1.7840,0.3372,40.1300,63,97,226780
1.7449,0.3226,40.2300,63,97,226783
1.7889,0.3568,39.9300,63,97,226787
1.7546,0.3275,40.0300,63,97,226790
1.7302,0.3324,40.2000,63,97,226793
1.7302,0.3275,40.3000,63,97,226797
1.7302,0.3226,40.2600,63,97,226800
1.8035,0.3470,40.0600,63,97,226803
1.7937,0.3324,40.1600,63,97,226806
1.7693,0.3226,40.1600,63,97,226810
1.7595,0.3324,40.2300,63,97,226813
1.7498,0.3226,40.2000,63,97,226817
1.7937,0.3324,39.9600,63,97,226821
1.7546,0.3275,40.2000,63,97,226824
1.7693,0.3275,40.1000,63,97,226827
1.7498,0.3275,40.2300,63,97,226831
1.7449,0.3275,40.1600,63,97,226834
1.7498,0.3372,40.1300,63,97,226837
1.6960,0.3372,40.2300,63,97,226841
1.7009,0.3324,40.0600,63,97,226844
1.6911,0.3226,39.6700,63,97,226847
1.7546,0.3128,40.2000,63,97,226850
1.9208,0.3275,40.2000,63,97,226854
2.0821,0.3226,40.2000,63,97,226857
2.3265,0.3324,40.2300,63,97,226861
2.5122,0.3275,40.2300,63,97,226865
2.6637,0.3324,40.2300,63,97,226868
2.8201,0.3275,40.2300,63,97,226871
2.8886,0.3568,40.2000,63,97,226875
3.0059,0.3275,40.0300,63,97,226878
2.8641,0.3275,40.1600,63,97,226881
2.7908,0.3275,40.2000,63,97,226885
2.6540,0.3275,40.1600,63,97,226888
2.4927,0.3421,40.2600,63,97,226891
2.3949,0.3470,39.9600,63,97,226894
2.1701,0.3275,40.1000,63,97,226898
1.9795,0.3324,40.1600,63,97,226902
1.8475,0.3275,40.2000,63,97,226905
1.7400,0.3275,40.2300,63,97,226909
1.7009,0.3372,40.1000,63,97,226912
1.5934,0.3568,40.1300,63,97,226915
1.5396,0.3275,40.1300,63,97,226919
1.5005,0.3226,40.2000,63,97,226922
1.5005,0.3324,40.2000,63,97,226925
1.5298,0.3372,40.1000,63,97,226929
1.5103,0.3275,40.2000,63,97,226932
1.5152,0.3568,40.1300,63,97,226935
1.4907,0.3275,40.2000,63,97,226938
1.4858,0.3226,40.1300,63,97,226942
1.5298,0.3275,40.1300,63,97,226946
1.5298,0.3275,40.2000,63,97,226949
1.5640,0.3275,40.1000,63,97,226953
1.5591,0.3275,40.2000,63,97,226956
1.5836,0.3275,40.2000,63,97,226959
1.6520,0.3324,40.1000,63,97,226963
1.6080,0.3275,40.2300,63,97,226966
1.6276,0.3421,40.0000,63,97,226969
1.6031,0.3324,40.1000,63,97,226972
1.5836,0.3226,40.3600,63,97,226976
1.6031,0.3275,40.1300,63,97,226979
1.5885,0.3275,40.2000,63,97,226982
1.6569,0.3763,39.9600,63,97,226987
1.6618,0.3275,40.0600,63,97,226990
1.6716,0.3226,39.9600,63,97,226993
1.7155,0.3275,40.2000,63,97,226997
1.6716,0.3079,40.2000,63,97,227000
1.7155,0.3568,40.1000,63,97,227003
1.6764,0.3079,40.2000,63,97,227007
1.6764,0.3226,40.1600,63,97,227010
1.6813,0.3226,40.2000,63,97,227013
1.7107,0.3275,40.1600,63,97,227018
1.7058,0.3226,40.2000,63,97,227021
1.7449,0.3372,40.1600,63,97,227025
1.7351,0.3275,40.2000,63,97,227028
1.7546,0.3275,40.1000,63,97,227032
1.7302,0.3275,40.2000,63,97,227035
1.7204,0.3568,40.2600,63,97,227039
1.7498,0.3275,40.1300,63,97,227042
1.7400,0.3226,40.2000,63,97,227045
1.7840,0.3275,40.0000,63,97,227049
1.7889,0.3226,40.1300,63,97,227052
1.8182,0.3275,40.2300,63,97,227055
1.7986,0.3275,40.2300,63,97,227059
1.7937,0.3324,40.3000,63,97,227062
1.8475,0.3372,40.0300,63,97,227065
1.8084,0.3324,40.1600,63,97,227069
1.8035,0.3226,40.2000,63,97,227073
1.7840,0.3275,40.1600,63,97,227076
1.7400,0.3275,40.2000,63,97,227079
1.7889,0.3470,39.9600,63,97,227083
1.7693,0.3275,40.3000,63,97,227086
1.8182,0.3177,40.2000,63,97,227089
1.8133,0.3275,40.3300,63,97,227093
1.8084,0.3177,40.2000,63,97,227096
1.8377,0.3372,40.1300,63,97,227099
1.8084,0.3372,40.2300,63,97,227103
1.7840,0.3324,40.0600,63,97,227106
1.7595,0.3226,40.2600,63,97,227109
1.7595,0.3275,40.1600,63,97,227113
1.8084,0.3372,40.0300,63,97,227117
1.8084,0.3324,40.2000,63,97,227120
1.8573,0.3372,40.2000,63,97,227123
1.8426,0.3226,40.3300,63,97,227127
1.8328,0.3324,40.2300,63,97,227130
1.8280,0.3275,40.1600,63,97,227133
1.8182,0.3226,40.2300,63,97,227137
1.8524,0.3275,40.0600,63,97,227140
1.8280,0.3226,40.2300,63,97,227143
1.8231,0.3226,40.1600,63,97,227147
1.8524,0.3324,40.1600,63,97,227150
1.8377,0.3275,40.2000,63,97,227153
1.8964,0.3372,39.9300,63,97,227158
1.8915,0.3324,40.1300,63,97,227161
1.8866,0.3226,40.1300,63,97,227164
1.8866,0.3275,40.2000,63,97,227168
1.8524,0.3275,40.1300,63,97,227171
1.8768,0.3372,40.0600,63,97,227174
1.8280,0.3324,40.0300,63,97,227177
1.8280,0.3226,40.1600,63,97,227181
1.8426,0.3275,40.2000,63,97,227184
1.8622,0.3275,40.1000,63,97,227187
1.9404,0.3372,40.1600,63,97,227191
1.8964,0.3275,40.2300,63,97,227194
1.9159,0.3226,40.2000,63,97,227197
1.8964,0.3275,40.2600,63,97,227202
1.8768,0.3177,40.1300,63,97,227205
1.8866,0.3324,40.2300,63,97,227208
1.8573,0.3275,40.0600,63,97,227212
1.8622,0.3324,40.1600,63,97,227215
1.8280,0.3275,40.1600,63,97,227218
1.8280,0.3275,40.2000,63,97,227221
1.8671,0.3324,40.1000,63,97,227225
1.8426,0.3372,40.2000,63,97,227228
1.8817,0.3275,40.0600,63,97,227231
1.8866,0.3568,40.1000,63,97,227235
1.8866,0.3226,40.2300,63,97,227238
1.9062,0.3372,40.1000,63,97,227241
1.8817,0.3275,40.2000,63,97,227246
1.9208,0.3372,39.9300,63,97,227249
1.8866,0.3275,40.1600,63,97,227252
1.8719,0.3275,40.3600,63,97,227256
1.8915,0.3226,40.2600,63,97,227259
1.8328,0.3079,40.2300,63,97,227262
1.8817,0.3421,40.0000,63,97,227265
1.8328,0.3275,40.2000,63,97,227269
1.8035,0.3226,40.2000,63,97,227272
1.7840,0.3226,40.2000,63,97,227275
1.7742,0.3079,40.1600,63,97,227279
1.8377,0.3470,40.1000,63,97,227282
1.8231,0.3324,40.2300,63,97,227286
1.8328,0.3275,40.1300,63,97,227290
1.8328,0.3324,40.1600,63,97,227293
1.8280,0.3275,40.0600,63,97,227296
1.8817,0.3324,40.0600,63,97,227300
1.8377,0.3275,40.2300,63,97,227303
1.8573,0.3226,40.1000,63,97,227306
1.8231,0.3226,40.2000,63,97,227309
1.8182,0.3275,40.2000,63,97,227313
1.8328,0.3324,40.1000,63,97,227316
1.8084,0.3275,40.1600,63,97,227319
1.8328,0.3275,40.1300,63,97,227323
1.8084,0.3275,40.2000,63,97,227326
1.8133,0.3177,40.2300,63,97,227330
1.8231,0.3275,40.1600,63,97,227334
1.8182,0.3324,40.3000,63,97,227337
1.8280,0.3324,40.1000,63,97,227340
1.7840,0.3275,40.2000,63,97,227344
1.7840,0.3226,40.3000,63,97,227347
1.8035,0.3617,40.2300,63,97,227350
1.7840,0.3079,40.3000,63,97,227354
1.8377,0.3421,40.0300,63,97,227357
1.8084,0.3324,40.1600,63,97,227360
1.7742,0.3226,40.1300,63,97,227363
1.7791,0.3324,40.1600,63,97,227367
1.7840,0.3079,40.4300,63,97,227371
1.8524,0.3421,40.0300,63,97,227374
1.8133,0.3324,40.1300,63,97,227378
1.8035,0.3421,40.1300,63,97,227381
1.7986,0.3275,40.2000,63,97,227384
1.8035,0.3226,39.8000,63,97,227388
1.8328,0.3324,40.2300,63,97,227391
1.7986,0.3275,40.2000,63,97,227394
1.8035,0.3324,40.1000,63,97,227398
1.7791,0.3275,40.3000,63,97,227401
1.7791,0.3275,40.2000,63,97,227404
1.8084,0.3275,40.1300,63,97,227407
1.8035,0.3079,40.2000,63,97,227411
1.8328,0.3372,40.1600,63,97,227415
1.7937,0.3079,40.2300,63,97,227418
1.7742,0.3226,40.2000,63,97,227422
1.8084,0.3275,40.1300,63,97,227425
1.7937,0.3275,40.2000,63,97,227428
1.8573,0.3324,40.1000,63,97,227432
1.8182,0.3275,40.1300,63,97,227435
1.8133,0.3421,40.2300,63,97,227438
1.8426,0.3372,40.0000,63,97,227442
1.8328,0.3519,40.2000,63,97,227445
1.8866,0.3275,39.9600,63,97,227448
1.8475,0.3324,40.1300,63,97,227452
1.8622,0.3275,40.3000,63,97,227456
1.8280,0.3275,40.2600,63,97,227459
1.8084,0.3226,40.1600,63,97,227462
1.8573,0.3470,39.9600,63,97,227466
1.8084,0.3275,40.1600,63,97,227469
1.7986,0.3226,40.1600,63,97,227472
1.7889,0.3372,40.3000,63,97,227476
1.7791,0.3275,40.2000,63,97,227479
1.8133,0.3421,40.0600,63,97,227482
1.7937,0.3275,40.2000,63,97,227486
1.8133,0.3226,40.1600,63,97,227489
1.8182,0.3324,40.2600,63,97,227492
1.8328,0.3079,40.2600,63,97,227496
1.8671,0.3372,40.0300,63,97,227500
1.8475,0.3275,40.2000,63,97,227503
1.8719,0.3763,40.1000,63,97,227506
1.8475,0.3226,40.1600,63,97,227510
1.8280,0.3275,40.1600,63,97,227513
1.8377,0.3324,40.1000,63,97,227516
1.8133,0.3275,40.4000,63,97,227520
1.8475,0.3324,40.1000,63,97,227523
1.8182,0.3079,40.1300,63,97,227526
1.8133,0.3226,40.1600,63,97,227530
1.8328,0.3275,40.1600,63,97,227533
1.8084,0.3275,40.1300,63,97,227536
1.8231,0.3372,40.0000,63,97,227540
1.7840,0.3275,40.1300,63,97,227544
1.7937,0.3226,40.2300,63,97,227547
1.8328,0.3324,40.2300,63,97,227550
1.8280,0.3275,40.2000,63,97,227554
1.8866,0.3470,39.9600,63,97,227557
1.8573,0.3324,40.1600,63,97,227560
1.8426,0.3226,40.2600,63,97,227564
1.8377,0.3324,40.2300,63,97,227567
1.8231,0.3226,40.2000,63,97,227570
1.8866,0.3470,40.1000,63,97,227574
1.8573,0.3275,40.1600,63,97,227577
1.8475,0.3275,40.1300,63,97,227580
1.8328,0.3275,40.2000,63,97,227585
1.8231,0.3079,40.1600,63,97,227588
1.8328,0.3421,40.1000,63,97,227591
1.7840,0.3275,40.2300,63,97,227595
1.8182,0.3324,40.0600,63,97,227598
1.8377,0.3324,40.2000,63,97,227601
1.8671,0.3226,40.2000,63,97,227604
1.9013,0.3324,40.1600,63,97,227608
1.9062,0.3079,40.2000,63,97,227611
1.9404,0.3372,40.1000,63,97,227614
1.9257,0.3275,40.2300,63,97,227618
1.9355,0.3470,40.2000,63,97,227621
1.9599,0.3324,40.1000,63,97,227624
1.9355,0.3275,40.4700,63,97,227630
1.9159,0.3715,40.2000,63,97,227633
1.9306,0.3470,39.9600,63,97,227637
1.8817,0.3421,40.2300,63,97,227640
1.8768,0.3226,40.2300,63,97,227643
1.8866,0.3275,40.1600,63,97,227647
1.8964,0.3275,40.2000,63,97,227650
1.9306,0.3372,40.1000,63,97,227653
1.8915,0.3324,40.2300,63,97,227657
1.9013,0.3324,40.2000,63,97,227660
1.8671,0.3275,40.0600,63,97,227663
1.8524,0.3275,40.2300,63,97,227666
1.8573,0.3324,40.1300,63,97,227671
1.8426,0.3275,40.2000,63,97,227674
1.8280,0.3372,40.1600,63,97,227677
1.7840,0.3275,40.2000,63,97,227681
1.7644,0.3226,40.2300,63,97,227684
1.7742,0.3421,40.1300,63,97,227687
1.7498,0.3275,40.1600,63,97,227691
1.7791,0.3324,40.0600,63,97,227694
1.7546,0.3275,40.2300,63,97,227697
1.7351,0.3226,40.2000,63,97,227701
1.7400,0.3372,40.1000,63,97,227704
1.7253,0.3275,40.2300,63,97,227707
1.7889,0.3275,40.0600,63,97,227712
1.7742,0.3275,40.1300,63,97,227715
1.8084,0.3275,40.2300,63,97,227718
1.8035,0.3275,40.2600,63,97,227721
1.7937,0.3275,40.2000,63,97,227725
1.8524,0.3372,39.8900,63,97,227728
1.7742,0.3275,40.1600,63,97,227731
1.7595,0.3177,40.0600,63,97,227735
1.7400,0.3275,40.2300,63,97,227738
1.7155,0.3177,40.2300,63,97,227741
1.7351,0.3421,40.0600,63,97,227745
1.6862,0.3324,40.2600,63,97,227748
1.7302,0.3275,40.1300,63,97,227751
1.8133,0.3275,40.2000,63,97,227756
1.9697,0.3275,40.2300,63,97,227759
2.1945,0.3324,40.0300,63,97,227762
2.3851,0.3275,40.1600,63,97,227766
2.6149,0.3324,40.0600,63,97,227769
2.7370,0.3226,40.1600,63,97,227772
2.8348,0.3275,40.3000,63,97,227775
2.9228,0.3275,40.1300,63,97,227779
2.8983,0.3275,40.2600,63,97,227782
2.9032,0.3324,40.1000,63,97,227785
2.8006,0.3275,40.1600,63,97,227789
2.6784,0.3275,40.3600,63,97,227792
2.5415,0.3324,40.2300,63,97,227795
2.3460,0.3275,40.2300,63,97,227800
2.1945,0.3324,40.0000,63,97,227803
1.9795,0.3226,40.1600,63,97,227806
1.8475,0.3275,40.1600,63,97,227809
1.7449,0.3275,40.1600,63,97,227813
1.6276,0.3275,40.1300,63,97,227816
1.5885,0.3275,39.9600,63,97,227819
1.5298,0.3324,40.1300,63,97,227823
1.5005,0.3177,40.2600,63,97,227826
1.4907,0.3275,40.1600,63,97,227829
1.4907,0.3372,40.2300,63,97,227833
1.5494,0.3470,40.0300,63,97,227836
1.5054,0.3519,40.1600,63,97,227840
1.5054,0.3275,40.1600,63,97,227844
1.5152,0.3275,40.3000,63,97,227847
1.5249,0.3226,40.2600,63,97,227850
1.5640,0.3372,40.1000,63,97,227854
1.5445,0.3275,40.2300,63,97,227857
1.5934,0.3275,40.1600,63,97,227860
1.5445,0.3275,40.3000,63,97,227863
1.5494,0.3324,40.1300,63,97,227867
1.5787,0.3324,40.2600,63,97,227870
1.5885,0.3275,40.1600,63,97,227873
1.6520,0.3372,40.1300,63,97,227877
1.6618,0.3324,40.2000,63,97,227880
1.6667,0.3275,40.2000,63,97,227884
1.7155,0.3324,40.1300,63,97,227888
1.6618,0.3275,40.2000,63,97,227891
1.6960,0.3324,40.0000,63,97,227894
1.6716,0.3324,40.1600,63,97,227898
1.6667,0.3519,40.2600,63,97,227901
1.6764,0.3372,40.1300,63,97,227904
1.6520,0.3617,40.2300,63,97,227908
1.6960,0.3421,39.9300,63,97,227911
1.6862,0.3275,40.1300,63,97,227914
1.7204,0.3226,40.2600,63,97,227917
1.7400,0.3079,40.3000,63,97,227921
1.7498,0.3275,40.1600,63,97,227924
1.7986,0.3519,40.0600,63,97,227928
1.7498,0.3275,40.1000,63,97,227932
1.7498,0.3226,40.2300,63,97,227935
1.7498,0.3275,40.2000,63,97,227938
1.7449,0.3275,40.2000,63,97,227942
1.7791,0.3421,40.1000,63,97,227945
1.7644,0.3324,40.1600,63,97,227948
1.8231,0.3275,40.1000,63,97,227952
1.7840,0.3324,40.2300,63,97,227955
1.7595,0.3275,40.2000,63,97,227958
1.7693,0.3372,40.0000,63,97,227961
1.7302,0.3275,40.2300,63,97,227965
1.7742,0.3372,40.0300,63,97,227969
1.7742,0.3226,40.2300,63,97,227972
1.8035,0.3275,40.1300,63,97,227976
1.8768,0.3275,40.0600,63,97,227979
1.8377,0.3226,40.2000,63,97,227982
1.8475,0.3275,39.9600,63,97,227986
1.8280,0.3275,40.1600,63,97,227989
1.8280,0.3275,40.2600,63,97,227992
1.8475,0.3421,40.1600,63,97,227996
1.8280,0.3275,40.3000,63,97,227999
1.8671,0.3372,39.9300,63,97,228002
1.8133,0.3275,40.1600,63,97,228006
1.8084,0.3275,40.2000,63,97,228009
1.8084,0.3324,40.2000,63,97,228013
1.7840,0.3275,40.4000,63,97,228016
1.8328,0.3666,39.9600,63,97,228020
1.8084,0.3324,40.1600,63,97,228023
1.8182,0.3226,40.2000,63,97,228026
1.8475,0.3324,40.2000,63,97,228030
1.8524,0.3275,40.2300,63,97,228033
1.9062,0.3519,40.1000,63,97,228036
1.8817,0.3079,40.1600,63,97,228040
1.8866,0.3470,40.1000,63,97,228043
1.8768,0.3324,40.1600,63,97,228046
1.8622,0.3275,40.2000,63,97,228049
1.8915,0.3372,40.1000,63,97,228054
1.8622,0.3275,40.2000,63,97,228057
1.8768,0.3324,39.9300,63,97,228060
1.8475,0.3177,40.2300,63,97,228064
1.8475,0.3275,40.2300,63,97,228067
1.8475,0.3275,40.1300,63,97,228070
1.8377,0.3275,40.3300,63,97,228074
1.8817,0.3324,40.1000,63,97,228077
1.8768,0.3275,40.1000,63,97,228080
1.8817,0.3275,40.2300,63,97,228084
1.9013,0.3372,40.2000,63,97,228087
1.8671,0.3324,40.3000,63,97,228090
1.8964,0.3372,40.0600,63,97,228094
1.8866,0.3519,40.1600,63,97,228098
1.8866,0.3275,40.2000,63,97,228101
1.9208,0.3324,40.3300,63,97,228104
1.8964,0.3372,40.2000,63,97,228108
1.9404,0.3421,39.9300,63,97,228111
1.8817,0.3519,40.0600,63,97,228114
1.8817,0.3275,40.2000,63,97,228118
1.8573,0.3275,40.2600,63,97,228121
1.8573,0.3275,40.2000,63,97,228124
1.9453,0.3519,40.0000,63,97,228128
1.9159,0.3275,40.1600,63,97,228131
1.9159,0.3275,40.1300,63,97,228134
1.9013,0.3275,39.5700,63,97,228139
1.8817,0.3275,40.2000,63,97,228142
1.9062,0.3372,40.1300,63,97,228145
1.8817,0.3324,40.2000,63,97,228148
1.8866,0.3275,40.1600,63,97,228152
1.8573,0.3372,40.2000,63,97,228155
1.8964,0.3275,40.2000,63,97,228158
1.9062,0.3372,40.1300,63,97,228162
1.8768,0.3324,40.2000,63,97,228165
1.9013,0.3372,40.2000,63,97,228168
1.8671,0.3226,40.0600,63,97,228172
1.8671,0.3226,40.2000,63,97,228175
1.8768,0.3324,40.2600,63,97,228178
1.8524,0.3372,40.2300,63,97,228183
1.8622,0.3275,40.0600,63,97,228186
1.8328,0.3324,40.2000,63,97,228189
1.8328,0.3275,40.2000,63,97,228192
1.8573,0.3324,40.0300,63,97,228196
1.8475,0.3177,40.2600,63,97,228199
1.8866,0.3372,40.0300,63,97,228202
1.8328,0.3324,40.2300,63,97,228206
1.8280,0.3275,40.2600,63,97,228209
1.8426,0.3617,40.2300,63,97,228212
1.8328,0.3275,40.2300,63,97,228216
1.8719,0.3470,39.9600,63,97,228219
1.8328,0.3372,40.1300,63,97,228222
1.8231,0.3226,40.1600,63,97,228227
1.8377,0.3275,40.1000,63,97,228230
1.8377,0.3275,40.2000,63,97,228233
1.8817,0.3372,40.0300,63,97,228236
1.8426,0.3275,40.1000,63,97,228241
1.8280,0.3275,40.3600,63,97,228245
1.8475,0.3617,40.1300,63,97,228248
1.8084,0.3275,40.3300,63,97,228251
1.7986,0.3715,40.2600,63,97,228254
1.8084,0.3275,40.1300,63,97,228258
1.7986,0.3275,40.2600,63,97,228261
1.8573,0.3324,40.1000,63,97,228264
1.8231,0.3275,40.2300,63,97,228269
1.8377,0.3324,40.1600,63,97,228272
1.8524,0.3372,40.0600,63,97,228275
1.8182,0.3275,40.2300,63,97,228279
1.8671,0.3372,40.2000,63,97,228282
1.8475,0.3324,40.2000,63,97,228285
1.8280,0.3079,40.2600,63,97,228289
1.8280,0.3324,40.1300,63,97,228292
1.8280,0.3275,40.2000,63,97,228295
1.8768,0.3470,40.0600,63,97,228298
1.8524,0.3324,40.1300,63,97,228302
1.8280,0.3226,40.2000,63,97,228305
1.8377,0.3275,40.2000,63,97,228308
1.8475,0.3275,40.2000,63,97,228313
1.8768,0.3372,40.0600,63,97,228316
1.8133,0.3372,40.2000,63,97,228319
1.8133,0.3275,40.1000,63,97,228323
1.7937,0.3275,40.2000,63,97,228326
1.7986,0.3275,40.2000,63,97,228329
1.8328,0.3372,40.2000,63,97,228333
1.8426,0.3324,40.2600,63,97,228336
1.8768,0.3324,40.0600,63,97,228339
1.8426,0.3226,40.2000,63,97,228342
1.8475,0.3324,40.2000,63,97,228346
1.8671,0.3372,40.1300,63,97,228349
1.8377,0.3275,40.2300,63,97,228353
1.8524,0.3324,40.0300,63,97,228357
1.8475,0.3324,40.1000,63,97,228360
1.8328,0.3275,40.2000,63,97,228363
1.8426,0.3372,40.1600,63,97,228367
1.8182,0.3275,40.2300,63,97,228370
1.8622,0.3421,39.9600,63,97,228373
1.8328,0.3275,40.1000,63,97,228377
1.8328,0.3226,40.2300,63,97,228380
1.8426,0.3275,40.1600,63,97,228383
1.8328,0.3275,40.2000,63,97,228386
1.9110,0.3372,39.9600,63,97,228390
1.8328,0.3275,40.2000,63,97,228393
1.8231,0.3324,40.2000,63,97,228397
1.8280,0.3275,40.2000,63,97,228401
1.8328,0.3324,40.2600,63,97,228404
1.8622,0.3470,40.1300,63,97,228407
1.8084,0.3324,40.2000,63,97,228411
1.8084,0.3275,40.1300,63,97,228414
1.8035,0.3568,40.2600,63,97,228417
1.8182,0.3275,40.2000,63,97,228421
1.8573,0.3372,40.0600,63,97,228424
1.8280,0.3324,40.2000,63,97,228427
1.8426,0.3324,40.2000,63,97,228431
1.8328,0.3226,40.2000,63,97,228434
1.8475,0.3275,40.2300,63,97,228438
1.8719,0.3666,40.0600,63,97,228441
1.8377,0.3275,40.3000,63,97,228445
1.8426,0.3324,40.2000,63,97,228448
1.8035,0.3226,40.1600,63,97,228451
1.8133,0.3275,40.2300,63,97,228455
1.8426,0.3275,40.2000,63,97,228458
1.8280,0.3275,40.3000,63,97,228461
1.8524,0.3324,40.0000,63,97,228465
1.8280,0.3177,40.2000,63,97,228468
1.8475,0.3275,40.2300,63,97,228471
1.8768,0.3568,40.2300,63,97,228475
1.8622,0.3079,40.2000,63,97,228478
1.9062,0.3372,39.9600,63,97,228482
1.8573,0.3275,40.1000,63,97,228485
1.8475,0.3275,40.3000,63,97,228489
1.8915,0.3324,40.2600,63,97,228492
1.8719,0.3275,40.2000,63,97,228495
1.9501,0.3470,40.0600,63,97,228499
1.9306,0.3324,40.1300,63,97,228502
1.9306,0.3275,40.2600,63,97,228505
1.9453,0.3324,40.2000,63,97,228509
1.9453,0.3275,40.2000,63,97,228512
1.9941,0.3421,40.0600,63,97,228515
1.9501,0.3079,40.2300,63,97,228519
1.9697,0.3617,40.1000,63,97,228523
1.9404,0.3275,40.2000,63,97,228526
1.9208,0.3275,40.3300,63,97,228529
1.9453,0.3275,40.1600,63,97,228533
1.9599,0.3275,40.1600,63,97,228536
2.0137,0.3372,40.1300,63,97,228539
1.9550,0.3275,39.7300,63,97,228543
1.9257,0.3324,40.2000,63,97,228546
1.9208,0.3372,40.1600,63,97,228549
1.8915,0.3275,40.2300,63,97,228553
1.9159,0.3324,40.1300,63,97,228556
1.9062,0.3421,40.1300,63,97,228559
1.8866,0.3275,40.2300,63,97,228563
1.9257,0.3372,40.2000,63,97,228567
1.8622,0.3275,40.2000,63,97,228570
1.9062,0.3372,40.0300,63,97,228574
1.8524,0.3275,40.2000,63,97,228577
1.8280,0.3275,39.5100,63,97,228580
1.8084,0.3275,40.2300,63,97,228583
1.7889,0.3275,40.2600,63,97,228587
1.8328,0.3470,39.9600,63,97,228590
1.7840,0.3275,40.2300,63,97,228593
1.7644,0.3226,40.1600,63,97,228597
1.7644,0.3275,40.2000,63,97,228600
1.7498,0.3275,40.2000,63,97,228603
1.7889,0.3421,40.1600,63,97,228608
1.7644,0.3275,40.2000,63,97,228611
1.7791,0.3177,40.1000,63,97,228614
1.7742,0.3275,40.2300,63,97,228618
1.7791,0.3324,40.3000,63,97,228621
1.7986,0.3372,40.0300,63,97,228624
1.8084,0.3372,40.2000,63,97,228628
1.8084,0.3372,40.1000,63,97,228631
1.7937,0.3226,40.1000,63,97,228634
1.7937,0.3275,40.2000,63,97,228637
1.7937,0.3324,40.1300,63,97,228641
1.7400,0.3275,40.3000,63,97,228644
1.7302,0.3324,40.0600,63,97,228647
1.6667,0.3079,40.1600,63,97,228652
1.6716,0.3372,40.2300,63,97,228655
1.7498,0.3324,40.1600,63,97,228658
1.8817,0.3275,40.2600,63,97,228662
2.1212,0.3372,40.0000,63,97,228665
2.3118,0.3226,40.2000,63,97,228668
2.5415,0.3177,40.2600,63,97,228671
2.7224,0.3324,40.2300,63,97,228675
2.8495,0.3275,40.2300,63,97,228678
2.9619,0.3421,39.9300,63,97,228681
2.9277,0.3324,40.1600,63,97,228685
2.8739,0.3226,39.6000,63,97,228688
2.8152,0.3324,40.1600,63,97,228691
2.6882,0.3275,40.1600,63,97,228696
2.6051,0.3421,40.0300,63,97,228699
2.3900,0.3324,40.2300,63,97,228702
2.2190,0.3372,40.2000,63,97,228706
2.0577,0.3324,40.2000,63,97,228709
1.9159,0.3275,40.2300,63,97,228712
1.8231,0.3079,40.1000,63,97,228715
1.6911,0.3324,40.2000,63,97,228719
1.6227,0.3324,40.1600,63,97,228722
1.5494,0.3275,40.2000,63,97,228725
1.5298,0.3275,40.2600,63,97,228729
1.5249,0.3763,40.2000,63,97,228732
1.5200,0.3275,40.3000,63,97,228736
1.5200,0.3372,40.1000,63,97,228740
1.5054,0.3324,40.2000,63,97,228743
1.5543,0.3324,40.2600,63,97,228746
1.5591,0.3324,40.1000,63,97,228750
1.5591,0.3275,40.2000,63,97,228753
1.5885,0.3324,40.0300,63,97,228756
1.5787,0.3812,40.1600,63,97,228759
1.5787,0.3177,40.2000,63,97,228763
1.5982,0.3372,40.2000,63,97,228766
1.6031,0.3324,40.2300,63,97,228769
1.6373,0.3372,39.9300,63,97,228773
1.6031,0.3324,40.1000,63,97,228776
1.6178,0.3275,40.2000,63,97,228780
1.6422,0.3275,40.1600,63,97,228784
1.6618,0.3275,40.2600,63,97,228787
1.7107,0.3470,40.0000,63,97,228790
1.7107,0.3324,40.1600,63,97,228794
1.6667,0.3226,40.1600,63,97,228797
1.6618,0.3226,40.1600,63,97,228800
1.6569,0.3275,40.2000,63,97,228804
1.7058,0.3470,40.1000,63,97,228807
1.6911,0.3324,40.1600,63,97,228810
1.7107,0.3275,40.1000,63,97,228813
1.7058,0.3324,40.2600,63,97,228817
1.7302,0.3079,40.2000,63,97,228820
1.7742,0.3617,40.1600,63,97,228824
1.7644,0.3275,40.2300,63,97,228828
1.7889,0.3324,40.1600,63,97,228831
1.7644,0.3275,40.1600,63,97,228834
1.7644,0.3324,40.2000,63,97,228838
1.7742,0.3324,40.1300,63,97,228841
1.7595,0.3275,40.3600,63,97,228844
1.7937,0.3324,40.0600,63,97,228848
1.8084,0.3372,39.9600,64,97,228852
1.7693,0.3324,40.2300,64,97,228856
1.7791,0.3226,40.2000,64,97,228859
1.7937,0.3470,40.1600,64,97,228862
1.7937,0.3079,40.2300,64,97,228867
1.8573,0.3568,40.0300,64,97,228870
1.8573,0.3324,40.1600,64,97,228873
1.8328,0.3079,40.2600,64,97,228876
1.8182,0.3275,40.2000,64,97,228880
1.8133,0.3275,40.2600,64,97,228883
1.8524,0.3666,40.0600,64,97,228886
1.8328,0.3275,40.2600,64,97,228890
1.8426,0.3372,40.1000,64,97,228893
1.8231,0.3275,40.3000,64,97,228896
1.8182,0.3275,40.0600,64,97,228900
1.8426,0.3275,40.1600,64,97,228903
1.8231,0.3275,39.8300,64,97,228907
1.8573,0.3324,40.1000,64,97,228911
1.8426,0.3226,40.2000,64,97,228914
1.8524,0.3177,40.2000,64,97,228917
1.8671,0.3324,40.1600,64,97,228920
1.8426,0.3324,40.1600,64,97,228924
1.8622,0.3275,40.0600,64,97,228927
1.8182,0.3324,40.1600,64,97,228930
1.8524,0.3275,40.2000,64,97,228934
1.8524,0.3324,40.1600,64,97,228937
1.8524,0.3177,40.2000,64,97,228940
1.9062,0.3372,40.0300,64,97,228944
1.8719,0.3470,40.0600,64,97,228947
1.8573,0.3226,40.2000,64,97,228951
1.8622,0.3324,40.2000,64,97,228955
1.8426,0.3324,40.2300,64,97,228958
1.9062,0.3470,40.0300,64,97,228961
1.8817,0.3324,40.2300,64,97,228965
1.8817,0.3226,40.1600,64,97,228968
1.8866,0.3324,40.1600,64,97,228971
1.8817,0.3275,40.2000,64,97,228974
1.9306,0.3421,40.0000,64,97,228978
1.8915,0.3324,40.2000,64,97,228981
1.8915,0.3324,40.1000,64,97,228984
1.8719,0.3275,40.2000,64,97,228988
1.8719,0.3275,40.2600,64,97,228992
1.9013,0.3470,40.1600,64,97,228995
1.8866,0.3275,40.1600,64,97,228999
1.9159,0.3372,40.0600,64,97,229002
1.8915,0.3275,40.2600,64,97,229005
1.8915,0.3275,40.3000,64,97,229009
1.9208,0.3324,40.1000,64,97,229012
1.8768,0.3275,40.1300,64,97,229015
1.9062,0.3324,40.0600,64,97,229018
1.8915,0.3275,40.0600,64,97,229022
1.8915,0.3275,40.3000,64,97,229025
1.9208,0.3372,40.1300,64,97,229028
1.9062,0.3275,40.1300,64,97,229032
1.9501,0.3372,40.0000,64,97,229036
1.9062,0.3275,39.5400,64,97,229039
1.8768,0.3177,40.2300,64,97,229043
1.8671,0.3275,40.1600,64,97,229046
1.8622,0.3372,40.2000,64,97,229049
1.9355,0.3421,39.9600,64,97,229053
1.8964,0.3324,40.1600,64,97,229056
1.8964,0.3079,40.2300,64,97,229059
1.8915,0.3324,40.2000,64,97,229063
1.8817,0.3275,40.2600,64,97,229066
1.9257,0.3421,40.0600,64,97,229069
1.8817,0.3275,40.2300,64,97,229072
1.8817,0.3275,40.1600,64,97,229076
1.8719,0.3275,40.2300,64,97,229080
1.8622,0.3275,40.2000,64,97,229083
1.8915,0.3372,40.0600,64,97,229087
1.8622,0.3226,40.2300,64,97,229090
1.8817,0.3275,40.0600,64,97,229093
1.8524,0.3226,40.1000,64,97,229097
1.8426,0.3324,40.2300,64,97,229100
1.8475,0.3324,40.3300,64,97,229103
1.8182,0.3177,40.2000,64,97,229107
1.8475,0.3275,40.0300,64,97,229110
1.8280,0.3421,40.1600,64,97,229113
1.8426,0.3275,40.3000,64,97,229116
1.8622,0.3324,40.1600,64,97,229121
1.8573,0.3324,40.2300,64,97,229124
1.8817,0.3372,40.0300,64,97,229127
1.8426,0.3275,40.1600,64,97,229131
1.8328,0.3275,40.2300,64,97,229134
1.8475,0.3421,40.1600,64,97,229137
1.8280,0.3275,40.2000,64,97,229141
1.8719,0.3421,39.9300,64,97,229144
1.8426,0.3324,40.1000,64,97,229147
1.8231,0.3372,40.2000,64,97,229151
1.8377,0.3324,40.2000,64,97,229154
1.8231,0.3324,40.2000,64,97,229157
1.8768,0.3421,40.0000,64,97,229161
1.8719,0.3324,40.1600,64,97,229165
1.8426,0.3275,40.1000,64,97,229168
1.8231,0.3275,40.1600,64,97,229172
1.8182,0.3275,40.2300,64,97,229175
1.8377,0.3715,40.0600,64,97,229178
1.8328,0.3177,40.2600,64,97,229181
1.8475,0.3324,40.0600,64,97,229185
1.8182,0.3617,40.2000,64,97,229188
1.8231,0.3275,40.2300,64,97,229191
1.8328,0.3324,40.1600,64,97,229195
1.8280,0.3275,40.2000,64,97,229198
1.8524,0.3324,40.1300,64,97,229201
1.8231,0.3275,40.2000,64,97,229206
1.8328,0.3275,40.2000,64,97,229209
1.8671,0.3372,40.0600,64,97,229212
1.8328,0.3275,40.2000,64,97,229216
1.8573,0.3372,40.0000,64,97,229219
1.8377,0.3324,40.1300,64,97,229222
1.8231,0.3275,40.2600,64,97,229225
1.8573,0.3079,40.1600,64,97,229229
1.8524,0.3275,40.2000,64,97,229232
1.9062,0.3372,39.9600,64,97,229235
1.8768,0.3519,40.0600,64,97,229239
1.8671,0.3226,40.2300,64,97,229242
1.8671,0.3275,40.2000,64,97,229245
1.8524,0.3275,40.2000,64,97,229250
1.9013,0.3470,40.1000,64,97,229253
1.8475,0.3275,40.3000,64,97,229256
1.8426,0.3519,40.1000,64,97,229260
1.8280,0.3275,40.2000,64,97,229263
1.8182,0.3275,40.2000,64,97,229266
1.8524,0.3372,40.1000,64,97,229269
1.8133,0.3275,40.2300,64,97,229273
1.8426,0.3275,40.2000,64,97,229276
1.8426,0.3275,40.2000,64,97,229279
1.8524,0.3275,40.2600,64,97,229283
1.8866,0.3275,40.0600,64,97,229286
1.8622,0.3275,40.1600,64,97,229289
1.9013,0.3324,40.1000,64,97,229294
1.8524,0.3226,40.2000,64,97,229297
1.8524,0.3275,40.1600,64,97,229300
1.8719,0.3324,40.1600,64,97,229304
1.8524,0.3275,40.2300,64,97,229307
1.8768,0.3275,40.1300,64,97,229310
1.8573,0.3372,40.3000,64,97,229313
1.8524,0.3275,40.2000,64,97,229317
1.8622,0.3324,40.2000,64,97,229320
1.8768,0.3324,40.2000,64,97,229323
1.8866,0.3372,39.9600,64,97,229327
1.8377,0.3226,40.1600,64,97,229330
1.8426,0.3226,40.3000,64,97,229334
1.8524,0.3324,40.0600,64,97,229338
1.8475,0.3275,40.2000,64,97,229341
1.9062,0.3470,40.0000,64,97,229344
1.8768,0.3372,40.4000,64,97,229348
1.8622,0.3421,40.1600,64,97,229351
1.8719,0.3079,40.2600,64,97,229354
1.8622,0.3275,40.2000,64,97,229357
1.8964,0.3372,40.0300,64,97,229361
1.8671,0.3666,40.2000,64,97,229364
1.8671,0.3275,40.2300,64,97,229367
1.8524,0.3275,40.2000,64,97,229371
1.8573,0.3226,40.3000,64,97,229374
1.8915,0.3372,40.1000,64,97,229378
1.8719,0.3324,40.1600,64,97,229382
1.9013,0.3324,40.1000,64,97,229385
1.8817,0.3275,40.2000,64,97,229388
1.9110,0.3275,40.1600,64,97,229392
1.9159,0.3275,39.8900,64,97,229395
1.9062,0.3324,40.2300,64,97,229398
1.9257,0.3275,40.0600,64,97,229401
1.8964,0.3275,40.2000,64,97,229405
1.8964,0.3275,40.2300,64,97,229408
1.9257,0.3324,40.0600,64,97,229411
1.9159,0.3275,40.2000,64,97,229415
1.9599,0.3324,40.0300,64,97,229419
1.9550,0.3617,40.1300,64,97,229422
1.9550,0.3226,40.2000,64,97,229426
1.9892,0.3324,40.1300,64,97,229429
2.0039,0.3177,40.2000,64,97,229432
2.0381,0.3421,40.0300,64,97,229436
2.0039,0.3275,40.3300,64,97,229439
1.9892,0.3324,40.2300,64,97,229442
1.9697,0.3275,40.2600,64,97,229445
1.9501,0.3617,40.2000,64,97,229449
1.9990,0.3275,40.0300,64,97,229452
1.9355,0.3275,40.1600,64,97,229455
1.9159,0.3226,40.1600,64,97,229459
1.9013,0.3275,40.1600,64,97,229463
1.8280,0.3275,40.2300,64,97,229468
1.8280,0.3275,40.3000,64,97,229471
1.8524,0.3372,40.1600,64,97,229474
1.8182,0.3275,40.2300,64,97,229478
1.8280,0.3275,40.1300,64,97,229481
1.8133,0.3324,40.1300,64,97,229484
1.7937,0.3275,40.3300,64,97,229488
1.7986,0.3372,40.1300,64,97,229491
1.7693,0.3372,40.2000,64,97,229494
1.8084,0.3421,39.9600,64,97,229498
1.7840,0.3275,40.0600,64,97,229501
1.7742,0.3372,40.2000,64,97,229505
1.7840,0.3275,40.2000,64,97,229508
1.7840,0.3226,40.4000,64,97,229512
1.8426,0.3421,39.9600,64,97,229515
1.8084,0.3275,40.1600,64,97,229518
1.8084,0.3177,40.2000,64,97,229522
1.8035,0.3275,40.2600,64,97,229525
1.7840,0.3372,40.2300,64,97,229528
1.8035,0.3470,40.0300,64,97,229532
1.7253,0.3275,40.0300,64,97,229535
1.6813,0.3324,40.1000,64,97,229538
1.6520,0.3275,40.2300,64,97,229542
1.6911,0.3177,40.2000,64,97,229545
1.8328,0.3079,39.9600,64,97,229549
1.9892,0.3324,40.1600,64,97,229552
2.2239,0.3324,40.1600,64,97,229556
2.4194,0.3324,40.2300,64,97,229559
2.6051,0.3275,40.2600,64,97,229562
2.7664,0.3421,40.2000,64,97,229566
2.8201,0.3275,40.2000,64,97,229569
2.8983,0.3079,40.1300,64,97,229572
2.8592,0.3324,40.2300,64,97,229576
2.8250,0.3275,40.3000,64,97,229579
2.7713,0.3275,40.1300,64,97,229582
2.6540,0.3275,40.2300,64,97,229586
2.5367,0.3324,40.1000,64,97,229590
2.3167,0.3226,40.2600,64,97,229593
2.1457,0.3275,40.2300,64,97,229597
2.0137,0.3324,40.1600,64,97,229600
1.8768,0.3275,40.2000,64,97,229603
1.8133,0.3372,39.9600,64,97,229606
1.7009,0.3275,40.2300,64,97,229610
1.6276,0.3275,40.3000,64,97,229613
1.6031,0.3324,40.2300,64,97,229616
1.5787,0.3275,40.2600,64,97,229620
1.6227,0.3519,40.1000,64,97,229623
1.5787,0.3372,40.1300,64,97,229626
1.5689,0.3226,40.1300,64,97,229630
1.5591,0.3568,40.2000,64,97,229634
1.5934,0.3226,40.2000,64,97,229637
1.5982,0.3372,40.0000,64,97,229641
1.5787,0.3519,40.1600,64,97,229644
1.6129,0.3275,40.1000,64,97,229647
1.6129,0.3275,40.2600,64,97,229650
1.6227,0.3275,40.2000,64,97,229654
1.6520,0.3324,40.1600,64,97,229657
1.6422,0.3275,40.2300,64,97,229660
1.6716,0.3372,40.2000,64,97,229664
1.6422,0.3275,40.2600,64,97,229667
1.6471,0.3275,40.3000,64,97,229670
1.6813,0.3372,40.1600,64,97,229675
1.6764,0.3226,40.2000,64,97,229678
1.7058,0.3324,40.0000,64,97,229681
1.7058,0.3324,40.1000,64,97,229685
1.6960,0.3421,40.3000,64,97,229688
1.7253,0.3372,40.2600,64,97,229691
1.7155,0.3519,40.2000,64,97,229695
1.7791,0.3372,39.9300,64,97,229698
1.7644,0.3226,40.1600,64,97,229701
1.7595,0.3226,40.2300,64,97,229704
1.7644,0.3275,40.1600,64,97,229708
1.7546,0.3177,40.3000,64,97,229711
1.8035,0.3470,40.0300,64,97,229714
1.7595,0.3568,40.2300,64,97,229719
1.7693,0.3226,40.2300,64,97,229722
1.7742,0.3275,40.2000,64,97,229725
1.7840,0.3275,40.2000,64,97,229729
1.8231,0.3421,40.0600,64,97,229732
1.7937,0.3324,40.2000,64,97,229735
1.8084,0.3275,40.0600,64,97,229739
1.7937,0.3226,40.2000,64,97,229742
1.7986,0.3324,40.2000,64,97,229745
1.8328,0.3372,40.0600,64,97,229748
1.8328,0.3324,40.2000,64,97,229752
1.8377,0.3372,40.1000,64,97,229755
1.8035,0.3177,40.1300,64,97,229758
1.8084,0.3275,40.2300,64,97,229763
1.8328,0.3519,40.1000,64,97,229766
1.8280,0.3275,40.2300,64,97,229769
1.8573,0.3324,40.1300,64,97,229773
1.8426,0.3275,40.2000,64,97,229776
1.8328,0.3275,40.2000,64,97,229779
1.8377,0.3372,40.1300,64,97,229783
1.8377,0.3177,40.2000,64,97,229786
1.8768,0.3372,40.0000,64,97,229789
1.8426,0.3275,40.1600,64,97,229793
1.8475,0.3275,40.3000,64,97,229796
1.8426,0.3226,40.1600,64,97,229799
1.8231,0.3275,40.1000,64,97,229803
1.8671,0.3470,39.9300,64,97,229807
1.8328,0.3079,40.2300,64,97,229810
1.8280,0.3226,40.2000,64,97,229813
1.8475,0.3275,40.2000,64,97,229817
1.8524,0.3275,40.3000,64,97,229820
1.9062,0.3421,40.0300,64,97,229823
1.8768,0.3421,40.2600,64,97,229827
1.8719,0.3275,40.1000,64,97,229830
1.8622,0.3275,40.3000,64,97,229833
1.8671,0.3275,40.1600,64,97,229837
1.8866,0.3372,39.9600,64,97,229840
1.8573,0.3275,40.2300,64,97,229843
1.8915,0.3324,40.1000,64,97,229848
1.8671,0.3324,40.3000,64,97,229851
1.8524,0.3275,40.2300,64,97,229854
1.8866,0.3324,40.2300,64,97,229857
1.8426,0.3275,40.2300,64,97,229861
1.8719,0.3568,40.1300,64,97,229864
1.8524,0.3275,40.2300,64,97,229867
1.8671,0.3324,40.2000,64,97,229871
1.8915,0.3372,40.2000,64,97,229874
1.8768,0.3324,40.2600,64,97,229877
1.9306,0.3372,40.0000,64,97,229881
1.9110,0.3324,40.2000,64,97,229884
1.8915,0.3275,40.2300,64,97,229888
1.9062,0.3421,40.1300,64,97,229892
1.8817,0.3226,40.2300,64,97,229895
1.9501,0.3421,39.8900,64,97,229898
1.9257,0.3275,40.1600,64,97,229902
1.9257,0.3226,40.2000,64,97,229905
1.9257,0.3470,40.1600,64,97,229908
1.9306,0.3177,40.2300,64,97,229911
1.9795,0.3470,40.0300,64,97,229915
1.9306,0.3324,40.2300,64,97,229918
1.9257,0.3275,40.1000,64,97,229921
1.9110,0.3324,40.2600,64,97,229925
1.9013,0.3079,40.2300,64,97,229928
1.9404,0.3372,40.1600,64,97,229932
1.9453,0.3324,40.1600,64,97,229936
1.9355,0.3079,40.2600,64,97,229939
1.9110,0.3275,40.2000,64,97,229942
1.9110,0.3275,40.3600,64,97,229946
1.9355,0.3324,40.1300,64,97,229949
1.9013,0.3275,40.1300,64,97,229952
1.9355,0.3372,40.1000,64,97,229955
1.9208,0.3275,40.1300,64,97,229959
1.9159,0.3324,40.2000,64,97,229962
1.9355,0.3324,40.1000,64,97,229965
1.9159,0.3324,40.2300,64,97,229969
1.9453,0.3324,40.0000,64,97,229972
1.9110,0.3324,40.2300,64,97,229976
1.9013,0.3275,40.2300,64,97,229980
1.9159,0.3568,40.1600,64,97,229983
1.9062,0.3275,40.1600,64,97,229986
1.9453,0.3519,39.9300,64,97,229990
1.8964,0.3275,40.1600,64,97,229993
1.8915,0.3275,40.2600,64,97,229996
1.9013,0.3275,40.2000,64,97,230000
1.8817,0.3275,40.2000,64,97,230003
1.9306,0.3470,40.0300,64,97,230006
1.8768,0.3324,40.1300,64,97,230009
1.8524,0.3324,40.1300,64,97,230013
1.8280,0.3275,40.2000,64,97,230017
1.8280,0.3226,40.2600,64,97,230020
1.8328,0.3372,40.1000,64,97,230024
1.7986,0.3324,40.1600,64,97,230027
1.8377,0.3324,40.1600,64,97,230030
1.8328,0.3763,40.2300,64,97,230034
1.8475,0.3226,40.2000,64,97,230037
1.8768,0.3372,40.1600,64,97,230040
1.8475,0.3275,40.1600,64,97,230044
1.8768,0.3324,40.1300,64,97,230047
1.8475,0.3275,40.1600,64,97,230050
1.8377,0.3226,40.2000,64,97,230054
1.8524,0.3275,40.1300,64,97,230057
1.8328,0.3275,40.2000,64,97,230061
1.8622,0.3324,40.0300,64,97,230064
1.8133,0.3226,40.2000,64,97,230068
1.8084,0.3275,40.2000,64,97,230071
1.8328,0.3324,40.0300,64,97,230074
1.8280,0.3275,40.2600,64,97,230079
1.8133,0.3275,40.3300,64,97,230082
1.8328,0.3421,40.1000,64,97,230086
1.7937,0.3324,40.2000,64,97,230089
1.7986,0.3275,40.2000,64,97,230092
1.7840,0.3275,40.2300,64,97,230096
1.7644,0.3275,40.1000,64,97,230099
1.7937,0.3421,40.2300,64,97,230103
1.7889,0.3275,40.2000,64,97,230107
1.8377,0.3324,39.4100,64,97,230110
1.8280,0.3177,40.2300,64,97,230113
1.8377,0.3275,40.3600,64,97,230117
1.8671,0.3324,40.1300,64,97,230120
1.8328,0.3275,40.3600,64,97,230123
1.8524,0.3324,40.0300,64,97,230126
1.8231,0.3275,40.1000,64,97,230130
1.8231,0.3226,40.2000,64,97,230133
1.8475,0.3372,40.1000,64,97,230136
1.8328,0.3275,40.2000,64,97,230140
1.8671,0.3372,39.9600,64,97,230144
1.8475,0.3372,40.1000,64,97,230147
1.8426,0.3226,40.2000,64,97,230151
1.8475,0.3324,40.2000,64,97,230154
1.8573,0.3275,40.3000,64,97,230157
1.8622,0.3421,40.0600,64,97,230161
1.8182,0.3372,40.1000,64,97,230164
1.8182,0.3079,40.2300,64,97,230167
1.8280,0.3275,40.2300,64,97,230171
1.8280,0.3275,40.2600,64,97,230174
1.8719,0.3372,40.1600,64,97,230177
1.8280,0.3275,40.2600,64,97,230180
1.8280,0.3275,40.1600,64,97,230184
1.8426,0.3324,40.2300,64,97,230188
1.8377,0.3275,40.1600,64,97,230191
1.8768,0.3275,40.2300,64,97,230195
1.8671,0.3275,40.1600,64,97,230198
1.9257,0.3275,40.1300,64,97,230201
1.8671,0.3275,40.2000,64,97,230205
1.8573,0.3324,40.2300,64,97,230208
1.8573,0.3372,40.1000,64,97,230211
1.8280,0.3275,40.2000,64,97,230215
1.8475,0.3324,40.0600,64,97,230218
1.8377,0.3324,40.1300,64,97,230221
1.8377,0.3275,40.2300,64,97,230225
1.8426,0.3275,40.1000,64,97,230228
1.8084,0.3275,40.3000,64,97,230232
1.8280,0.3372,40.0600,64,97,230235
1.8231,0.3324,40.2300,64,97,230239
1.7791,0.3275,40.2000,64,97,230242
1.8084,0.3324,40.2300,64,97,230245
1.8231,0.3275,40.3300,64,97,230249
1.8866,0.3421,40.0300,64,97,230252
1.8573,0.3275,40.1300,64,97,230255
1.8426,0.3324,40.2000,64,97,230259
1.8426,0.3275,40.2000,64,97,230262
1.8622,0.3275,40.2300,64,97,230265
1.8817,0.3470,40.0000,64,97,230269
1.8524,0.3421,40.2300,64,97,230273
1.8622,0.3275,40.1300,64,97,230276
1.8475,0.3324,40.2000,64,97,230280
1.8328,0.3079,40.2000,64,97,230283
1.8719,0.3372,40.0000,64,97,230286
1.8573,0.3275,40.1600,64,97,230289
1.8817,0.3324,40.2600,64,97,230293
1.8817,0.3177,40.3300,64,97,230296
1.8817,0.3324,40.4000,64,97,230299
1.9355,0.3372,40.1000,64,97,230303
1.9501,0.3079,40.2000,64,97,230306
2.0088,0.3275,40.1300,64,97,230309
1.9844,0.3177,40.1300,64,97,230313
1.9892,0.3275,40.2000,64,97,230317
1.9844,0.3324,40.1300,64,97,230320
1.9208,0.3079,40.2000,64,97,230324
1.9159,0.3324,39.9300,64,97,230327
1.8768,0.3275,40.2000,64,97,230330
1.8768,0.3275,40.2300,64,97,230333
1.8866,0.3324,40.1600,64,97,230337
1.8524,0.3519,40.2600,64,97,230340
1.9013,0.3421,40.0000,64,97,230343
1.8622,0.3324,40.1300,64,97,230347
1.8524,0.3275,40.2000,64,97,230350
1.8573,0.3324,40.3300,64,97,230353
1.8328,0.3421,40.2000,64,97,230358
1.8768,0.3470,40.0000,64,97,230361
1.8280,0.3324,40.1300,64,97,230364
1.8133,0.3275,40.1300,64,97,230368
1.7889,0.3324,40.1600,64,97,230371
1.7937,0.3275,40.2000,64,97,230374
1.7986,0.3372,40.1000,64,97,230378
1.7498,0.3617,40.2000,64,97,230381
1.7546,0.3324,40.1000,64,97,230384
1.7351,0.3568,40.3600,64,97,230387
1.7400,0.3275,40.3000,64,97,230391
1.7693,0.3226,40.1600,64,97,230394
1.7840,0.3275,40.1600,64,97,230397
1.8182,0.3372,40.2000,64,97,230402
1.7742,0.3275,40.2600,64,97,230405
1.7791,0.3275,40.2600,64,97,230408
1.7986,0.3372,40.1000,64,97,230412
1.7742,0.3519,40.2000,64,97,230415
1.7889,0.3324,40.0300,64,97,230418
1.7546,0.3372,40.1600,64,97,230422
1.7253,0.3372,40.2300,64,97,230425
1.7155,0.3372,40.1300,64,97,230428
1.6520,0.3275,40.2000,64,97,230432
1.6813,0.3421,40.0300,64,97,230435
1.7009,0.3324,40.1300,64,97,230438
1.8084,0.3275,40.2000,64,97,230441
1.9746,0.3275,40.2600,64,97,230446
2.1701,0.3324,40.2300,64,97,230449
2.4438,0.3470,40.0000,64,97,230452
2.5513,0.3421,40.2000,64,97,230456
2.6637,0.3177,40.2300,64,97,230459
2.7419,0.3275,40.2300,64,97,230462
2.7957,0.3275,40.2000,64,97,230466
2.8641,0.3421,40.1000,64,97,230469
2.8104,0.3324,40.2300,64,97,230472
2.7908,0.3324,40.1000,64,97,230476
2.6931,0.3275,40.2000,64,97,230479
2.5758,0.3324,40.2300,64,97,230482
2.4438,0.3372,40.0300,64,97,230486
2.2092,0.3275,40.2300,64,97,230490
2.0577,0.3372,40.0600,64,97,230493
1.8817,0.3226,40.3000,64,97,230496
1.7742,0.3275,40.2300,64,97,230500
1.6911,0.3519,40.2000,64,97,230503
1.6325,0.3177,40.2000,64,97,230506
1.5738,0.3079,40.0600,64,97,230510
1.5103,0.3275,40.1600,64,97,230513
1.4858,0.3275,40.2000,64,97,230516
1.4956,0.3324,40.1000,64,97,230520
1.5054,0.3226,40.2000,64,97,230523
1.5249,0.3372,40.0300,64,97,230526
1.4907,0.3519,40.1600,64,97,230530
1.5249,0.3275,40.2000,64,97,230534
1.5494,0.3324,40.2300,64,97,230537
1.5738,0.3275,40.2300,64,97,230540
1.6325,0.3421,39.8900,64,97,230544
1.6031,0.3324,40.1600,64,97,230547
1.5934,0.3226,40.2000,64,97,230550
1.6080,0.3275,40.1600,64,97,230554
1.5982,0.3275,40.3000,64,97,230557
1.6520,0.3470,40.1600,64,97,230560
1.6422,0.3421,40.1600,64,97,230564
1.6569,0.3275,40.1300,64,97,230567
1.6667,0.3226,40.2000,64,97,230571
1.6667,0.3275,40.2600,64,97,230574
1.6911,0.3470,40.1000,64,97,230578
1.6471,0.3275,40.2000,64,97,230581
1.6569,0.3324,40.2000,64,97,230584
1.6471,0.3226,40.2000,64,97,230588
1.6716,0.3275,40.3000,64,97,230591
1.6960,0.3470,40.1600,64,97,230594
1.7058,0.3324,40.2600,64,97,230598
1.7009,0.3372,40.1000,64,97,230601
1.6764,0.3372,40.2000,64,97,230604
1.6960,0.3324,40.1600,64,97,230607
1.7546,0.3372,40.2300,64,97,230611
1.7595,0.3226,40.2000,64,97,230615
1.7889,0.3324,40.1600,64,97,230618
1.7742,0.3421,40.2300,64,97,230622
1.7644,0.3275,40.2000,64,97,230625
1.7742,0.3275,40.1600,64,97,230628
1.7449,0.3275,40.2000,64,97,230632
1.7791,0.3372,40.0300,64,97,230635
1.7498,0.3275,40.1600,64,97,230638
1.7498,0.3275,40.3000,64,97,230642
1.7791,0.3324,40.1600,64,97,230645
1.7986,0.3275,40.2000,64,97,230648
1.8671,0.3519,39.9600,64,97,230652
1.8280,0.3324,40.2000,64,97,230656
1.8280,0.3226,40.1600,64,97,230659
1.8231,0.3275,40.2000,64,97,230662
1.8133,0.3226,40.2300,64,97,230666
1.8426,0.3421,40.1000,64,97,230669
1.8035,0.3275,40.1000,64,97,230672
1.8084,0.3568,40.1000,64,97,230676
1.7889,0.3275,40.2300,64,97,230679
1.7791,0.3666,40.2000,64,97,230682
1.8035,0.3372,40.1000,64,97,230686
1.8182,0.3324,40.0600,64,97,230690
1.8035,0.3275,40.2000,64,97,230694
1.8426,0.3421,40.0300,64,97,230697
1.8280,0.3079,40.2000,64,97,230701
1.8280,0.3275,40.2600,64,97,230705
1.8328,0.3275,40.1600,64,97,230708
1.8133,0.3275,40.3600,64,97,230711
1.8524,0.3324,40.0600,64,97,230714
1.8133,0.3275,40.2000,64,97,230718
1.8133,0.3275,40.3000,64,97,230721
1.8231,0.3324,40.2000,64,97,230724
1.8182,0.3324,40.2000,64,97,230728
1.8719,0.3470,40.0000,64,97,230731
1.8377,0.3324,40.3000,64,97,230734
1.8182,0.3324,40.1600,64,97,230738
1.7937,0.3324,40.2300,64,97,230742
1.7791,0.3275,40.3000,64,97,230745
1.8231,0.3372,40.0300,64,97,230749
1.7937,0.3079,40.2000,64,97,230752
1.8084,0.3324,40.1000,64,97,230755
1.8133,0.3324,40.2600,64,97,230759
1.8524,0.3275,40.2300,64,97,230762
1.9013,0.3372,40.1300,64,97,230765
1.9062,0.3275,40.2300,64,97,230768
1.9355,0.3617,40.1000,64,97,230772
1.8915,0.3275,40.2000,64,97,230775
1.8866,0.3324,40.2000,64,97,230778
1.8817,0.3324,40.2300,64,97,230782
1.8671,0.3275,40.2000,64,97,230786
1.8866,0.3275,40.1000,64,97,230789
1.8768,0.3372,40.2600,64,97,230793
1.8964,0.3275,40.2300,64,97,230796
1.9257,0.3372,40.1300,64,97,230799
1.8964,0.3324,40.2000,64,97,230803
1.9355,0.3372,40.1000,64,97,230806
1.9013,0.3324,40.1000,64,97,230809
1.8866,0.3372,40.3000,64,97,230812
1.9062,0.3324,40.4000,64,97,230816
1.8866,0.3324,40.2000,64,97,230819
1.9355,0.3470,40.0300,64,97,230822
1.8817,0.3372,40.2600,64,97,230827
1.8524,0.3372,40.2000,64,97,230830
1.8622,0.3275,40.2300,64,97,230833
1.8817,0.3372,40.2000,64,97,230837
1.9648,0.3470,40.0600,64,97,230840
1.9306,0.3275,40.2600,64,97,230843
1.9306,0.3421,40.1300,64,97,230847
1.9110,0.3275,40.2000,64,97,230850
1.8915,0.3617,40.2300,64,97,230853
1.9013,0.3372,40.2300,64,97,230856
1.8671,0.3275,40.2000,64,97,230860
1.8671,0.3324,40.1300,64,97,230863
1.8182,0.3275,40.2600,64,97,230866
1.8035,0.3275,40.3000,64,97,230871
1.8377,0.3421,40.1000,64,97,230874
1.8328,0.3275,40.3000,64,97,230877
1.8768,0.3324,40.0300,64,97,230881
1.8671,0.3372,40.1300,64,97,230884
1.8573,0.3275,40.2300,64,97,230887
1.8817,0.3421,40.1600,64,97,230891
1.8622,0.3275,40.3000,64,97,230894
1.9013,0.3324,40.1000,64,97,230897
1.8719,0.3275,40.2300,64,97,230901
1.8475,0.3372,40.2000,64,97,230904
1.8231,0.3275,40.1600,64,97,230907
1.8133,0.3275,40.0000,64,97,230910
1.8671,0.3421,39.9600,64,97,230915
1.8328,0.3275,40.1600,64,97,230918
1.8328,0.3177,40.2000,64,97,230921
1.8280,0.3324,40.1600,64,97,230925
1.8084,0.3275,40.2000,64,97,230928
1.8524,0.3568,40.1000,64,97,230931
1.8084,0.3324,40.1600,64,97,230935
1.8133,0.3324,40.1300,64,97,230938
1.8231,0.3275,40.1600,64,97,230941
1.8377,0.3275,40.2000,64,97,230945
1.8768,0.3421,40.0600,64,97,230948
1.8475,0.3275,40.2600,64,97,230951
1.8671,0.3324,40.1300,64,97,230955
1.8328,0.3372,40.2000,64,97,230959
1.8182,0.3275,40.2600,64,97,230962
1.8280,0.3372,39.6000,64,97,230965
1.8133,0.3324,40.2000,64,97,230969
1.8524,0.3372,40.2000,64,97,230972
1.8231,0.3275,40.1600,64,97,230975
1.8231,0.3275,40.2300,64,97,230979
1.8231,0.3421,40.1000,64,97,230982
1.7840,0.3275,40.2300,64,97,230985
1.7986,0.3079,40.1000,64,97,230989
1.7595,0.3226,40.2000,64,97,230992
1.7595,0.3275,40.2000,64,97,230995
1.7840,0.3372,40.0300,64,97,230999
1.7986,0.3275,40.2600,64,97,231003
1.8768,0.3421,39.9600,64,97,231006
1.8768,0.3324,40.1300,64,97,231009
1.8524,0.3275,40.2000,64,97,231013
1.8524,0.3324,40.2300,64,97,231016
1.8328,0.3275,40.2600,64,97,231019
1.9013,0.3519,40.0000,64,97,231023
1.8231,0.3372,40.0300,64,97,231026
1.8182,0.3324,40.2000,64,97,231029
1.8133,0.3275,40.4000,64,97,231033
1.8133,0.3324,40.2600,64,97,231036
1.8524,0.3372,40.0600,64,97,231040
1.8182,0.3421,40.2300,64,97,231044
1.8280,0.3275,40.0600,64,97,231047
1.8133,0.3275,40.2600,64,97,231050
1.8328,0.3275,40.2000,64,97,231053
1.8719,0.3372,40.1600,64,97,231057
1.8719,0.3275,40.2000,64,97,231060
1.8915,0.3372,40.0600,64,97,231063
1.8524,0.3275,40.3000,64,97,231067
1.8426,0.3275,40.2000,64,97,231070
1.8622,0.3421,40.0600,64,97,231073
1.8280,0.3275,40.2000,64,97,231077
1.8328,0.3324,40.0600,64,97,231080
1.8133,0.3324,40.1300,64,97,231084
1.7986,0.3275,40.1600,64,97,231088
1.8133,0.3372,40.1600,64,97,231091
1.8133,0.3079,40.2600,64,97,231094
1.8915,0.3372,40.0600,64,97,231097
1.8671,0.3275,40.1300,64,97,231101
1.8573,0.3275,40.1600,64,97,231104
1.8719,0.3324,40.2000,64,97,231107
1.8573,0.3275,40.1300,64,97,231111
1.9062,0.3470,39.9600,64,97,231114
1.8622,0.3079,40.1300,64,97,231117
1.8426,0.3226,40.2000,64,97,231121
1.8475,0.3324,40.2300,64,97,231124
1.8475,0.3421,40.2300,64,97,231128
1.8866,0.3421,40.1300,64,97,231132
1.8426,0.3421,40.2000,64,97,231135
1.8475,0.3275,40.1000,64,97,231138
1.8573,0.3324,40.2300,64,97,231142
1.8671,0.3275,40.2300,64,97,231145
1.8915,0.3372,40.0000,64,97,231148
1.8524,0.3324,40.1600,64,97,231151
1.8671,0.3372,40.0300,64,97,231155
1.8280,0.3177,40.2000,64,97,231158
1.8084,0.3275,40.3000,64,97,231161
1.8182,0.3324,40.2300,64,97,231165
1.8133,0.3275,40.2300,64,97,231169
1.8573,0.3324,40.1300,64,97,231172
1.8328,0.3275,40.1300,64,97,231176
1.8133,0.3519,40.2000,64,97,231179
1.8280,0.3372,40.0600,64,97,231182
1.8084,0.3275,40.2300,64,97,231186
1.8671,0.3470,40.0300,64,97,231189
1.8475,0.3275,40.1600,64,97,231192
1.8719,0.3324,40.2000,64,97,231195
1.9013,0.3324,40.1600,64,97,231199
1.8866,0.3324,40.2300,64,97,231202
1.9453,0.3421,39.9600,64,97,231205
1.9062,0.3617,40.1300,64,97,231209
1.8915,0.3226,40.2000,64,97,231213
1.8964,0.3275,40.2600,64,97,231216
1.8915,0.3275,40.2600,64,97,231220
1.9404,0.3421,40.0300,64,97,231223
1.9062,0.3324,40.3600,64,97,231226
1.9257,0.3421,40.1300,64,97,231230
1.9355,0.3275,40.3000,64,97,231233
1.9453,0.3275,40.2000,64,97,231236
1.9941,0.3372,40.1000,64,97,231240
1.9746,0.3324,40.3300,64,97,231243
1.9892,0.3372,40.1300,64,97,231246
1.9404,0.3275,40.2300,64,97,231250
1.9355,0.3372,40.2000,64,97,231254
1.8866,0.3324,40.2000,64,97,231257
1.8475,0.3470,40.1600,64,97,231260
1.8866,0.3324,40.0600,64,97,231264
1.8182,0.3324,40.3000,64,97,231267
1.8182,0.3177,40.2300,64,97,231270
1.8280,0.3372,40.4000,64,97,231274
1.8084,0.3275,40.2000,64,97,231277
1.8328,0.3372,40.0000,64,97,231280
1.8035,0.3372,40.1000,64,97,231284
1.7840,0.3275,40.2300,64,97,231287
1.8084,0.3372,40.2000,64,97,231290
1.7937,0.3324,40.2000,64,97,231294
1.8377,0.3372,40.0300,64,96,231298
1.7693,0.3421,40.1000,65,96,231303
1.7498,0.3470,40.1600,65,96,231306
1.7693,0.3324,40.1300,65,96,231309
1.7644,0.3275,40.1300,65,96,231312
1.7644,0.3275,40.2600,65,96,231316
1.7791,0.3372,40.0600,65,96,231319
1.7498,0.3275,40.2000,65,96,231322
1.7791,0.3372,40.0600,65,96,231326
1.7595,0.3275,40.2600,65,96,231329
1.7595,0.3275,40.2000,65,96,231332
1.7937,0.3275,40.1000,65,96,231336
1.7204,0.3324,40.1300,65,96,231340
1.7253,0.3421,40.1000,65,96,231343
1.7351,0.3324,40.1300,65,96,231347
1.7937,0.3324,40.2600,65,96,231350
1.9697,0.3372,40.1300,65,96,231353
2.1457,0.3324,40.2000,65,96,231357
2.4389,0.3372,40.0000,65,96,231360
2.6197,0.3324,40.1600,65,96,231363
2.7664,0.3275,40.2300,65,96,231366
2.9032,0.3372,40.1600,65,96,231370
2.9570,0.3275,40.2000,65,96,231373
3.0205,0.3421,39.9300,65,96,231376
2.9032,0.3421,40.1600,65,96,231380
2.8006,0.3226,40.2000,65,96,231384
2.6979,0.3324,40.1600,65,96,231387
2.5513,0.3275,40.3000,65,96,231391
2.4340,0.3470,40.2000,65,96,231394
2.1848,0.3324,40.2000,65,96,231397
1.9990,0.3372,40.2300,65,96,231400
1.8475,0.3275,40.2600,65,96,231404
1.7351,0.3324,40.2600,65,96,231407
1.6911,0.3421,40.0000,65,96,231410
1.5982,0.3275,40.2000,65,96,231414
1.5591,0.3324,40.1300,65,96,231417
1.5103,0.3519,40.2000,65,96,231420
1.4956,0.3275,40.3000,65,96,231425
1.5152,0.3421,40.1600,65,96,231428
1.5054,0.3324,40.2300,65,96,231431
1.5200,0.3324,40.2000,65,96,231435
1.4858,0.3324,40.1300,65,96,231438
1.5005,0.3275,40.2300,65,96,231441
1.5103,0.3324,40.1000,65,96,231445
1.5200,0.3275,40.2000,65,96,231448
1.5103,0.3324,40.0300,65,96,231451
1.4761,0.3226,40.2000,65,96,231454
1.4858,0.3324,40.2000,65,96,231458
1.5298,0.3079,40.2300,65,96,231461
1.5640,0.3324,40.2300,65,96,231464
1.6373,0.3421,40.0600,65,96,231469
1.6373,0.3324,40.1600,65,96,231472
1.6276,0.3275,40.3000,65,96,231475
1.6373,0.3324,40.2300,65,96,231479
1.6276,0.3275,40.2000,65,96,231482
1.6911,0.3470,39.3800,65,96,231485
1.6764,0.3275,40.1300,65,96,231489
1.6667,0.3079,39.5700,65,96,231492
1.6716,0.3324,40.2300,65,96,231495
1.6716,0.3275,40.2000,65,96,231498
1.7107,0.3421,40.1000,65,96,231502
1.6862,0.3079,40.2000,65,96,231505
1.7009,0.3324,40.1000,65,96,231508
1.6911,0.3372,40.2000,65,96,231513
1.6911,0.3079,40.3000,65,96,231516
1.7155,0.3421,40.1000,65,96,231519
1.7009,0.3324,40.2300,65,96,231523
1.7351,0.3372,40.0300,65,96,231526
1.7204,0.3275,40.2300,65,96,231529
1.7155,0.3226,40.3000,65,96,231533
1.7400,0.3372,40.1000,65,96,231536
1.7204,0.3421,40.3000,65,96,231539
1.7546,0.3324,40.0300,65,96,231542
1.7595,0.3324,40.1600,65,96,231546
1.7595,0.3226,40.3000,65,96,231549
1.7791,0.3421,40.1300,65,96,231553
1.7498,0.3324,40.2000,65,96,231557
1.7889,0.3372,40.0000,65,96,231560
1.7840,0.3324,40.1300,65,96,231563
1.7449,0.3275,40.2300,65,96,231567
1.7693,0.3421,40.2300,65,96,231570
1.7742,0.3275,40.2300,65,96,231573
1.8328,0.3568,39.9600,65,96,231577
1.7986,0.3421,40.2000,65,96,231580
1.7889,0.3275,40.1300,65,96,231583
1.7986,0.3275,40.2600,65,96,231587
1.8084,0.3470,40.2000,65,96,231590
1.8719,0.3372,40.0600,65,96,231593
1.8280,0.3324,40.2000,65,96,231597
1.8182,0.3324,39.8900,65,96,231601
1.7937,0.3324,40.2300,65,96,231604
1.7742,0.3275,40.2000,65,96,231607
1.7986,0.3421,40.0300,65,96,231611
1.7840,0.3324,40.2000,65,96,231614
1.8182,0.3324,40.1300,65,96,231617
1.8084,0.3226,40.2000,65,96,231621
1.8084,0.3275,40.3000,65,96,231624
1.8377,0.3324,40.2000,65,96,231627
1.8182,0.3324,40.1600,65,96,231631
1.8964,0.3275,40.1300,65,96,231634
1.8524,0.3275,40.2000,65,96,231638
1.8622,0.3324,40.2000,65,96,231641
1.8280,0.3324,39.9600,65,96,231645
1.8035,0.3617,40.2600,65,96,231648
1.8524,0.3372,40.0000,65,96,231651
1.8475,0.3275,40.2000,65,96,231655
1.8622,0.3275,40.2000,65,96,231658
1.8817,0.3372,40.2000,65,96,231661
1.8475,0.3324,40.2300,65,96,231665
1.8915,0.3421,40.0000,65,96,231668
1.8622,0.3421,40.1000,65,96,231671
1.8328,0.3275,40.2300,65,96,231675
1.8426,0.3324,40.2300,65,96,231678
1.8328,0.3275,40.2600,65,96,231682
1.8866,0.3568,40.0300,65,96,231686
1.8377,0.3372,40.1600,65,96,231689
1.8280,0.3519,40.2300,65,96,231692
1.8231,0.3275,40.3000,65,96,231695
1.8280,0.3275,40.3000,65,96,231699
1.8671,0.3275,40.1600,65,96,231702
1.8328,0.3324,40.2000,65,96,231705
1.8622,0.3372,40.1000,65,96,231709
1.8622,0.3324,40.3000,65,96,231712
1.8671,0.3324,40.2000,65,96,231715
1.8817,0.3324,40.2000,65,96,231719
1.8719,0.3324,40.1600,65,96,231723
1.9110,0.3275,40.1000,65,96,231726
1.8719,0.3275,40.1600,65,96,231730
1.8768,0.3275,40.1600,65,96,231733
1.9110,0.3372,40.0600,65,96,231736
1.8866,0.3324,40.2000,65,96,231739
1.9062,0.3079,40.1300,65,96,231743
1.8866,0.3568,40.0600,65,96,231746
1.8622,0.3372,40.2000,65,96,231749
1.8866,0.3372,40.1000,65,96,231753
1.8573,0.3226,40.2000,65,96,231756
1.8964,0.3421,40.0300,65,96,231759
1.8426,0.3324,40.1600,65,96,231763
1.8231,0.3324,40.3000,65,96,231767
1.8328,0.3324,40.1600,65,96,231770
1.8280,0.3324,40.2300,65,96,231774
1.8866,0.3470,39.9600,65,96,231777
1.8573,0.3372,40.2300,65,96,231780
1.8280,0.3275,40.1600,65,96,231783
1.8377,0.3324,40.2000,65,96,231787
1.8426,0.3275,40.1600,65,96,231790
1.8866,0.3421,40.0600,65,96,231793
1.8573,0.3275,40.1600,65,96,231797
1.8573,0.3324,40.1000,65,96,231800
1.8426,0.3324,40.2300,65,96,231803
1.8475,0.3421,40.2000,65,96,231808
1.8817,0.3372,40.1300,65,96,231811
1.8426,0.3324,40.2000,65,96,231814
1.8671,0.3372,40.2000,65,96,231818
1.8328,0.3275,40.3000,65,96,231821
1.8231,0.3324,40.2300,65,96,231824
1.8133,0.3324,40.1600,65,96,231828
1.7791,0.3275,40.2300,65,96,231831
1.7986,0.3324,40.0000,65,96,231834
1.7791,0.3324,40.1600,65,96,231837
1.7791,0.3275,40.2300,65,96,231841
1.7986,0.3275,40.1000,65,96,231844
1.7937,0.3275,40.2000,65,96,231847
1.8377,0.3421,39.9300,65,96,231852
1.8084,0.3324,40.2600,65,96,231855
1.8035,0.3421,40.3600,65,96,231858
1.8182,0.3324,40.1600,65,96,231862
1.8035,0.3372,40.2300,65,96,231865
1.8573,0.3519,39.9600,65,96,231868
1.8231,0.3372,40.1300,65,96,231872
1.8084,0.3275,40.2000,65,96,231875
1.8035,0.3226,40.3000,65,96,231878
1.8035,0.3275,40.2600,65,96,231882
1.8426,0.3421,40.0000,65,96,231885
1.8182,0.3275,40.2000,65,96,231888
1.8280,0.3324,40.1000,65,96,231891
1.8133,0.3421,40.3600,65,96,231896
1.8133,0.3275,40.2000,65,96,231899
1.8377,0.3324,40.0600,65,96,231902
1.8035,0.3324,40.3000,65,96,231906
1.8280,0.3324,40.1300,65,96,231909
1.7986,0.3275,40.0600,65,96,231912
1.8182,0.3324,40.2000,65,96,231916
1.8084,0.3275,40.2000,65,96,231919
1.8084,0.3372,40.3000,65,96,231923
1.7840,0.3275,40.2600,65,96,231926
1.8426,0.3421,39.6000,65,96,231929
1.8280,0.3324,40.1300,65,96,231933
1.8182,0.3275,40.2600,65,96,231937
1.8524,0.3324,40.1600,65,96,231940
1.8084,0.3275,40.2000,65,96,231943
1.8768,0.3812,39.9600,65,96,231947
1.8573,0.3372,40.1000,65,96,231950
1.8426,0.3324,40.2300,65,96,231953
1.8426,0.3275,40.2600,65,96,231957
1.8377,0.3275,40.2000,65,96,231960
1.8817,0.3421,40.0600,65,96,231963
1.8426,0.3079,40.1600,65,96,231967
1.8524,0.3372,40.1000,65,96,231970
1.8377,0.3275,40.2600,65,96,231973
1.8475,0.3568,40.2000,65,96,231977
1.8719,0.3275,40.2000,65,96,231981
1.8328,0.3324,40.3000,65,96,231984
1.8475,0.3372,40.1000,65,96,231987
1.8280,0.3324,40.2000,65,96,231991
1.8475,0.3275,40.2000,65,96,231994
1.8768,0.3372,40.1000,65,96,231997
1.8426,0.3324,40.2000,65,96,232001
1.8719,0.3324,40.0600,65,96,232004
1.8133,0.3324,40.1600,65,96,232007
1.8231,0.3275,40.3600,65,96,232011
1.8622,0.3421,40.0300,65,96,232014
1.8475,0.3324,40.2300,65,96,232017
1.8817,0.3421,40.0000,65,96,232022
1.8573,0.3324,40.1300,65,96,232025
1.8280,0.3079,40.3600,65,96,232028
1.8426,0.3666,40.3000,65,96,232032
1.8280,0.3324,40.2300,65,96,232035
1.8866,0.3470,39.9600,65,96,232038
1.8475,0.3372,40.1000,65,96,232041
1.8328,0.3275,40.2000,65,96,232045
1.8280,0.3470,40.2000,65,96,232048
1.8035,0.3275,40.2000,65,96,232051
1.8573,0.3470,40.2300,65,96,232055
1.8377,0.3324,40.1600,65,96,232058
1.8328,0.3324,40.1000,65,96,232061
1.8280,0.3324,40.2300,65,96,232066
1.8280,0.3275,40.3000,65,96,232069
1.8671,0.3372,40.1600,65,96,232072
1.8328,0.3324,40.2000,65,96,232076
1.8426,0.3372,40.0600,65,96,232079
1.8377,0.3275,40.2000,65,96,232082
1.8475,0.3275,40.2300,65,96,232085
1.8768,0.3421,40.1000,65,96,232089
1.8622,0.3275,40.2000,65,96,232092
1.8866,0.3372,40.1300,65,96,232095
1.8475,0.3470,40.2300,65,96,232099
1.8524,0.3275,40.2000,65,96,232102
1.8768,0.3275,40.3600,65,96,232105
1.8768,0.3324,40.2000,65,96,232110
1.9257,0.3372,40.0600,65,96,232113
1.9062,0.3519,40.2000,65,96,232116
1.9208,0.3275,40.3000,65,96,232119
1.9501,0.3372,40.3000,65,96,232123
1.9697,0.3324,40.2000,65,96,232126
1.9795,0.3421,40.0000,65,96,232129
1.9501,0.3715,40.1600,65,96,232133
1.9355,0.3324,40.2000,65,96,232136
1.9404,0.3372,40.0600,65,96,232139
1.9110,0.3324,40.3000,65,96,232143
1.9648,0.3470,39.9600,65,96,232146
1.9306,0.3324,40.1000,65,96,232150
1.9159,0.3275,40.2000,65,96,232154
1.9062,0.3324,40.2000,65,96,232157
1.8817,0.3275,40.2000,65,96,232160
1.9208,0.3372,40.0600,65,96,232163
1.8817,0.3372,40.2000,65,96,232167
1.8719,0.3324,40.2000,65,96,232170
1.8524,0.3275,40.2300,65,96,232173
1.8280,0.3324,40.2000,65,96,232177
1.8280,0.3372,40.2000,65,96,232180
1.7791,0.3324,40.2600,65,96,232183
1.7840,0.3324,40.0600,65,96,232187
1.7546,0.3275,40.3000,65,96,232190
1.7498,0.3519,40.2000,65,96,232194
1.7791,0.3421,40.1000,65,96,232197
1.7498,0.3324,40.1600,65,96,232201
1.8035,0.3275,40.1600,65,96,232204
1.7351,0.3324,40.1000,65,96,232207
1.7204,0.3324,40.2300,65,96,232211
1.7498,0.3372,40.0600,65,96,232214
1.7546,0.3470,40.2000,65,96,232217
1.8377,0.3421,40.0300,65,96,232221
1.7986,0.3324,40.1600,65,96,232224
1.7937,0.3324,40.2300,65,96,232227
1.8035,0.3372,40.2300,65,96,232231
1.7791,0.3226,40.2000,65,96,232235
1.8182,0.3421,40.0000,65,96,232238
1.7742,0.3324,40.0600,65,96,232242
1.7449,0.3324,40.2600,65,96,232245
1.7302,0.3324,39.6000,65,96,232248
1.7009,0.3324,40.2300,65,96,232251
1.7253,0.3470,40.1000,65,96,232255
1.6911,0.3568,40.1600,65,96,232258
1.7351,0.3324,40.2000,65,96,232261
1.8622,0.3324,40.2300,65,96,232265
2.0332,0.3275,40.2000,65,96,232268
2.2776,0.3421,40.0600,65,96,232271
2.4731,0.3324,40.1600,65,96,232275
2.6931,0.3324,40.0600,65,96,232279
2.8152,0.3275,40.2000,65,96,232282
2.9179,0.3324,40.2300,65,96,232286
3.0010,0.3372,40.2000,65,96,232289
2.9765,0.3275,40.2300,65,96,232292
2.9179,0.3421,40.2600,65,96,232295
2.7713,0.3324,40.2000,65,96,232299
2.6540,0.3275,40.3000,65,96,232302
2.5269,0.3324,40.1300,65,96,232305
2.3412,0.3275,40.2600,65,96,232309
2.1896,0.3324,40.2600,65,96,232312
1.9941,0.3275,40.3000,65,96,232315
1.8524,0.3324,40.3000,65,96,232320
1.7595,0.3372,40.1600,65,96,232323
1.6422,0.3324,40.2600,65,96,232326
1.6031,0.3372,40.0300,65,96,232330
1.5347,0.3372,40.1000,65,96,232333
1.4907,0.3275,40.2000,65,96,232336
1.4907,0.3372,40.1600,65,96,232339
1.4663,0.3275,40.4700,65,96,232343
1.5103,0.3519,39.9600,65,96,232346
1.4858,0.3421,40.1300,65,96,232349
1.4907,0.3275,40.1600,65,96,232353
1.4907,0.3324,40.1600,65,96,232356
1.4907,0.3421,40.3600,65,96,232359
1.5396,0.3470,40.1300,65,96,232364
1.5200,0.3372,40.2000,65,96,232367
1.5396,0.3275,40.2300,65,96,232370
1.5396,0.3324,40.2000,65,96,232374
1.5445,0.3226,40.2300,65,96,232377
1.5738,0.3372,40.1300,65,96,232380
1.5738,0.3372,40.2000,65,96,232383
1.6178,0.3421,40.1000,65,96,232387
1.6325,0.3324,40.2300,65,96,232390
1.6813,0.3324,40.2600,65,96,232393
1.6764,0.3421,40.2300,65,96,232397
1.6618,0.3324,40.2300,65,96,232400
1.6716,0.3324,40.0300,65,96,232403
1.6520,0.3275,40.1000,65,96,232408
1.6520,0.3079,40.3600,65,96,232411
1.7058,0.3324,40.1000,65,96,232414
1.6716,0.3324,40.2600,65,96,232418
1.7204,0.3421,40.0300,65,96,232421
1.7204,0.3275,40.1300,65,96,232424
1.7253,0.3324,40.1300,65,96,232428
1.7742,0.3421,40.1300,65,96,232431
1.7351,0.3275,40.2000,65,96,232434
1.7889,0.3421,39.9600,65,96,232437
1.7546,0.3324,40.1300,65,96,232441
1.7351,0.3324,40.2000,65,96,232444
1.7302,0.3079,40.2600,65,96,232448
1.7253,0.3324,40.2300,65,96,232452
1.7840,0.3470,40.0300,65,96,232455
1.7498,0.3372,40.1600,65,96,232458
1.7595,0.3275,40.2000,65,96,232462
1.7595,0.3372,40.3000,65,96,232465
1.7693,0.3275,40.2300,65,96,232468
1.8084,0.3421,40.2300,65,96,232472
1.7937,0.3275,40.2000,65,96,232475
1.8133,0.3372,40.1000,65,96,232478
1.7986,0.3324,40.2000,65,96,232481
1.8035,0.3275,40.2000,65,96,232485
1.8280,0.3421,40.1300,65,96,232488
1.8084,0.3324,40.3600,65,96,232492
1.8377,0.3421,40.1300,65,96,232496
1.7986,0.3275,40.1600,65,96,232499
1.7840,0.3275,40.2600,65,96,232502
1.8133,0.3372,40.0600,65,96,232506
1.8133,0.3324,40.2300,65,96,232509
1.8573,0.3372,40.1000,65,96,232512
1.8280,0.3324,40.2600,65,96,232516
1.8328,0.3275,40.2000,65,96,232519
1.8377,0.3372,40.2000,65,96,232522
1.8328,0.3372,40.2300,65,96,232526
1.8328,0.3324,40.3000,65,96,232529
1.8915,0.3519,40.1000,65,96,232534
1.8622,0.3372,40.2000,65,96,232537
1.8622,0.3324,40.1600,65,96,232540
1.8426,0.3324,40.2300,65,96,232543
1.8573,0.3324,40.2000,65,96,232547
1.8964,0.3372,40.1000,65,96,232550
1.8622,0.3324,40.1300,65,96,232553
1.8964,0.3421,40.0600,65,96,232557
1.8524,0.3324,40.2000,65,96,232560
1.8622,0.3372,40.2600,65,96,232563
1.8817,0.3324,40.1300,65,96,232567
1.8768,0.3372,40.2300,65,96,232570
1.9110,0.3324,40.1600,65,96,232573
1.8817,0.3324,40.1600,65,96,232578
1.8768,0.3275,40.2000,65,96,232581
1.8866,0.3372,40.1000,65,96,232584
1.8622,0.3324,40.3000,65,96,232588
1.9013,0.3470,39.9600,65,96,232591
1.8866,0.3372,40.1300,65,96,232594
1.8768,0.3324,40.0600,65,96,232597
1.8964,0.3372,40.1600,65,96,232601
1.8866,0.3324,39.6000,65,96,232604
1.9404,0.3372,39.9600,65,96,232607
1.9110,0.3372,40.0600,65,96,232611
1.9013,0.3324,40.2000,65,96,232614
1.9013,0.3372,40.2600,65,96,232617
1.8915,0.3324,40.1300,65,96,232622
1.9453,0.3519,40.0600,65,96,232625
1.9062,0.3372,40.3000,65,96,232628
1.9062,0.3372,40.2000,65,96,232632
1.9013,0.3324,40.2600,65,96,232635
1.9257,0.3324,40.2000,65,96,232638
1.9159,0.3421,40.1600,65,96,232641
1.8817,0.3324,40.2000,65,96,232645
1.9208,0.3372,40.2300,65,96,232648
1.8817,0.3324,40.2000,65,96,232651
1.8866,0.3324,40.2300,65,96,232655
1.9159,0.3421,40.1300,65,96,232658
1.8719,0.3324,40.2000,65,96,232662
1.8866,0.3324,40.1300,65,96,232666
1.8817,0.3275,40.2300,65,96,232669
1.8475,0.3324,40.2600,65,96,232672
1.8622,0.3372,40.1300,65,96,232676
1.8377,0.3324,40.2000,65,96,232679
1.8768,0.3372,40.0300,65,96,232682
1.8524,0.3421,40.2000,65,96,232686
1.8475,0.3372,40.2600,65,96,232689
1.8768,0.3372,40.1000,65,96,232692
1.8573,0.3324,40.2000,65,96,232695
1.9159,0.3421,39.9600,65,96,232699
1.8768,0.3324,40.1000,65,96,232702
1.8573,0.3275,40.2000,65,96,232706
1.8573,0.3372,40.2000,65,96,232710
1.8426,0.3324,40.2000,65,96,232713
1.8817,0.3519,40.0300,65,96,232716
1.8671,0.3372,40.1600,65,96,232720
1.8280,0.3324,40.2300,65,96,232723
1.8328,0.3275,40.2000,65,96,232726
1.8328,0.3324,40.2600,65,96,232730
1.8671,0.3617,40.1000,65,96,232733
1.8328,0.3324,40.3000,65,96,232736
1.8426,0.3372,40.1600,65,96,232740
1.8231,0.3324,40.2000,65,96,232743
1.8377,0.3324,40.2000,65,96,232747
1.8573,0.3470,40.1600,65,96,232750
1.8328,0.3324,40.2300,65,96,232754
1.8573,0.3372,40.1300,65,96,232757
1.8182,0.3470,40.2300,65,96,232760
1.8182,0.3324,40.2000,65,96,232764
1.8280,0.3372,40.1000,65,96,232767
1.7986,0.3324,40.2600,65,96,232770
1.8377,0.3372,40.0000,65,96,232774
1.8133,0.3226,40.1600,65,96,232777
1.8182,0.3324,40.2000,65,96,232780
1.8573,0.3275,40.1300,65,96,232784
1.8231,0.3568,40.2600,65,96,232787
1.8719,0.3421,39.9600,65,96,232791
1.8426,0.3372,40.2300,65,96,232795
1.8280,0.3324,40.3000,65,96,232798
1.8377,0.3324,40.2000,65,96,232801
1.8280,0.3324,40.2300,65,96,232804
1.8866,0.3519,40.0600,65,96,232808
1.8475,0.3372,40.1000,65,96,232811
1.8328,0.3324,40.2300,65,96,232814
1.8328,0.3421,40.2000,65,96,232818
1.8377,0.3324,40.2300,65,96,232821
1.8719,0.3421,40.1000,65,96,232824
1.8377,0.3372,40.2000,65,96,232828
1.8475,0.3372,40.1300,65,96,232832
1.8182,0.3324,40.2600,65,96,232835
1.8231,0.3275,40.2000,65,96,232839
1.8524,0.3275,40.1600,65,96,232842
1.8377,0.3324,40.2000,65,96,232845
1.8671,0.3421,40.1000,65,96,232849
1.8426,0.3324,40.2300,65,96,232852
1.8377,0.3275,40.1600,65,96,232855
1.8622,0.3421,40.3300,65,96,232858
1.8280,0.3324,40.2000,65,96,232862
1.8426,0.3372,40.2000,65,96,232865
1.8328,0.3421,40.1000,65,96,232868
1.8377,0.3324,40.2000,65,96,232872
1.8719,0.3421,40.1300,65,96,232876
1.8622,0.3324,40.2000,65,96,232879
1.9062,0.3421,40.0000,65,96,232883
1.8719,0.3324,40.1300,65,96,232886
1.8524,0.3275,40.2000,65,96,232889
1.8622,0.3372,40.2000,65,96,232893
1.8426,0.3324,40.4300,65,96,232896
1.8915,0.3568,40.1000,65,96,232899
1.8622,0.3372,40.1300,65,96,232903
1.8866,0.3275,40.2000,65,96,232906
1.8622,0.3324,40.2600,65,96,232909
1.8768,0.3324,40.3000,65,96,232912
1.8817,0.3470,40.1300,65,96,232916
1.8524,0.3421,40.1600,65,96,232920
1.8768,0.3372,40.1000,65,96,232923
1.8622,0.3421,40.2300,65,96,232927
1.8671,0.3324,40.2600,65,96,232930
1.8915,0.3470,40.1000,65,96,232933
1.8622,0.3324,40.1600,65,96,232937
1.8817,0.3421,40.1600,65,96,232940
1.8426,0.3324,40.1600,65,96,232943
1.8280,0.3324,40.2000,65,96,232947
1.8377,0.3372,40.1000,65,96,232950
1.8280,0.3324,40.2300,65,96,232953
1.8768,0.3372,40.0300,65,96,232957
1.8768,0.3324,40.2000,65,96,232961
1.8768,0.3275,40.2300,65,96,232964
1.8915,0.3421,40.2000,65,96,232967
1.8622,0.3324,40.2000,65,96,232971
1.9110,0.3421,40.0000,65,96,232974
1.8768,0.3421,40.1300,65,96,232977
1.8768,0.3275,40.2300,65,96,232981
1.8768,0.3617,40.1300,65,96,232984
1.8573,0.3324,40.3000,65,96,232987
1.9062,0.3812,39.9600,65,96,232991
1.8719,0.3421,40.1600,65,96,232994
1.8671,0.3275,40.1600,65,96,232997
1.8866,0.3324,40.2000,65,96,233001
1.8915,0.3324,40.1300,65,96,233005
1.9550,0.3275,40.1300,65,96,233008
1.9208,0.3421,40.1300,65,96,233012
1.9306,0.3372,40.1000,65,96,233015
1.9306,0.3324,40.2000,65,96,233018
1.9257,0.3372,40.2000,65,96,233021
1.9550,0.3421,40.0600,65,96,233025
1.9257,0.3324,40.0600,65,96,233028
1.9501,0.3421,40.1000,65,96,233031
1.9355,0.3324,40.2000,65,96,233035
1.9453,0.3324,40.3000,65,96,233038
1.9550,0.3372,40.1300,65,96,233041
1.9355,0.3324,40.2000,65,96,233046
1.9550,0.3666,40.1000,65,96,233049
1.9208,0.3324,40.3000,65,96,233052
1.9013,0.3324,40.3000,65,96,233055
1.9110,0.3421,40.1600,65,96,233059
1.8768,0.3324,40.1300,65,96,233062
1.9501,0.3372,40.0000,65,96,233065
1.9257,0.3372,40.1000,65,96,233069
1.9110,0.3372,40.3000,65,96,233072
1.9208,0.3372,40.1600,65,96,233075
1.8817,0.3324,40.2000,65,96,233079
1.9062,0.3421,40.0300,65,96,233082
1.8475,0.3372,39.6000,65,96,233085
1.8084,0.3226,40.2600,65,96,233090
1.8035,0.3372,40.2600,65,96,233093
1.7889,0.3324,40.2000,65,96,233096
1.8328,0.3519,40.1300,65,96,233099
1.7986,0.3372,40.3600,65,96,233103
1.7986,0.3324,40.1300,65,96,233106
1.7742,0.3324,40.4000,65,96,233109
1.7644,0.3324,40.2300,65,96,233113
1.7742,0.3421,40.2300,65,96,233116
1.7791,0.3324,40.2000,65,96,233119
1.7693,0.3372,40.2300,65,96,233123
1.7449,0.3324,40.2000,65,96,233126
1.7595,0.3324,40.2300,65,96,233129
1.7840,0.3421,40.1600,65,96,233134
1.7742,0.3421,40.1300,65,96,233137
1.7253,0.3324,40.2000,65,96,233141
1.7204,0.3275,39.9600,65,96,233144
1.6569,0.3372,40.1600,65,96,233147
1.6520,0.3324,40.2600,65,96,233151
1.7351,0.3372,40.2600,65,96,233154
1.8671,0.3372,40.3000,65,96,233157
2.1114,0.3519,39.9600,65,96,233161
2.2923,0.3470,40.1300,65,96,233164
2.4927,0.3275,40.1600,65,96,233167
2.6588,0.3372,40.2000,65,96,233170
2.7713,0.3275,40.2300,65,96,233175
2.8983,0.3519,40.1300,65,96,233178
2.8788,0.3421,40.2000,65,96,233181
2.8886,0.3324,40.1300,65,96,233185
2.8446,0.3275,40.2300,65,96,233188
2.7322,0.3324,40.3000,65,96,233191
2.6491,0.3421,40.0600,65,96,233195
2.4438,0.3372,40.3000,65,96,233198
2.2727,0.3470,40.0600,65,96,233201
2.0430,0.3275,40.2000,65,96,233205
1.8817,0.3324,40.2000,65,96,233208
1.7791,0.3421,40.1000,65,96,233211
1.6716,0.3324,40.2000,65,96,233214
1.6373,0.3324,40.2300,65,96,233219
1.5836,0.3324,40.1600,65,96,233222
1.5640,0.3324,39.8600,65,96,233225
1.5640,0.3421,40.1000,65,96,233229
1.5396,0.3324,40.2300,65,96,233232
1.5640,0.3421,39.9600,65,96,233235
1.5249,0.3324,40.1600,65,96,233239
1.5298,0.3617,40.2600,65,96,233242
1.5396,0.3372,40.2000,65,96,233245
1.5445,0.3324,40.2000,65,96,233249
1.5787,0.3470,39.9300,65,96,233252
1.5689,0.3372,40.2300,65,96,233255
1.5640,0.3275,40.3000,65,96,233259
1.5836,0.3372,40.3600,65,96,233263
1.5738,0.3519,40.2300,65,96,233266
1.6276,0.3470,40.0300,65,96,233269
1.5982,0.3324,40.2000,65,96,233273
1.6129,0.3324,40.1300,65,96,233276
1.6080,0.3324,40.2000,65,96,233279
1.6178,0.3324,40.2600,65,96,233283
1.6667,0.3421,40.1000,65,96,233286
1.6569,0.3470,40.2000,65,96,233289
1.6911,0.3421,40.1600,65,96,233293
1.6764,0.3324,40.2000,65,96,233296
1.7155,0.3324,40.2300,65,96,233299
1.7009,0.3324,40.3000,65,96,233303
1.6813,0.3324,40.2600,65,96,233307
1.7009,0.3421,40.1300,65,96,233310
1.6764,0.3324,40.2000,65,96,233313
1.6911,0.3372,40.2300,65,96,233317
1.7351,0.3421,40.2300,65,96,233320
1.7302,0.3324,40.2000,65,96,233323
1.7693,0.3372,40.1000,65,96,233327
1.7595,0.3519,40.1000,65,96,233330
1.7546,0.3275,40.2300,65,96,233333
1.7791,0.3421,40.1300,65,96,233337
1.7498,0.3275,40.1600,65,96,233340
1.7742,0.3470,39.9300,65,96,233344
1.7400,0.3372,40.1600,65,96,233348
1.7400,0.3324,40.3000,65,96,233351
1.7644,0.3372,40.2600,65,96,233354
1.7693,0.3324,40.2300,65,96,233357
1.8328,0.3617,39.9600,65,96,233361
1.8035,0.3421,40.1300,65,96,233364
1.7937,0.3275,40.2300,65,96,233367
1.7889,0.3324,40.2000,65,96,233371
1.7889,0.3324,40.3000,65,96,233374
1.8231,0.3470,40.2000,65,96,233377
1.7889,0.3275,40.2300,65,96,233381
1.7986,0.3372,40.1600,65,96,233384
1.7840,0.3275,40.2000,65,96,233388
1.7791,0.3324,40.2300,65,96,233392
1.8182,0.3275,40.0600,65,96,233395
1.7937,0.3324,40.0600,65,96,233398
1.8231,0.3519,40.2000,65,96,233402
1.7889,0.3324,40.2000,65,96,233405
1.7889,0.3324,40.2000,65,96,233408
1.7986,0.3275,40.1600,65,96,233411
1.7889,0.3324,40.2300,65,96,233415
1.8133,0.3470,40.0600,65,96,233418
1.7986,0.3324,40.1600,65,96,233421
1.7986,0.3324,40.1300,65,96,233425
1.8328,0.3421,40.1300,65,96,233428
1.8084,0.3324,40.3000,65,96,233432
1.8573,0.3470,39.9600,65,96,233436
1.8231,0.3324,40.0600,65,96,233439
1.8426,0.3324,40.2300,65,96,233442
1.8231,0.3372,40.2300,65,96,233446
1.8084,0.3275,40.2600,65,96,233449
1.8573,0.3568,40.0000,65,96,233452
1.8280,0.3372,40.2300,65,96,233455
1.8084,0.3324,40.1600,65,96,233459
1.8426,0.3324,40.2000,65,96,233462
1.8182,0.3324,40.1300,65,96,233465
1.8671,0.3372,40.1600,65,96,233469
1.8328,0.3372,40.2000,65,96,233473
1.8328,0.3372,40.1000,65,96,233476
1.8231,0.3324,40.2000,65,96,233480
1.8231,0.3324,40.2000,65,96,233483
1.8622,0.3421,40.0600,65,96,233486
1.8280,0.3324,40.2000,65,96,233490
1.8377,0.3470,40.1600,65,96,233493
1.8035,0.3275,40.2300,65,96,233496
1.8182,0.3275,40.3000,65,96,233500
1.8524,0.3372,40.1300,65,96,233503
1.8671,0.3324,40.2000,65,96,233506
1.9159,0.3372,40.0600,65,96,233509
1.8866,0.3372,40.2000,65,96,233513
1.8915,0.3275,40.2300,65,96,233517
1.9110,0.3421,40.1300,65,96,233520
1.8964,0.3324,40.2300,65,96,233524
1.9404,0.3421,40.0000,65,96,233527
1.9159,0.3372,40.2000,65,96,233530
1.8964,0.3324,40.2600,65,96,233534
1.9110,0.3372,40.2300,65,96,233537
1.8915,0.3324,40.2000,65,96,233540
1.9501,0.3470,39.8600,65,96,233544
1.9110,0.3421,40.1300,65,96,233547
1.8866,0.3079,40.2300,65,96,233550
1.8866,0.3421,40.2000,65,96,233553
1.8768,0.3275,40.1600,65,96,233558
1.9355,0.3519,40.1000,65,96,233561
1.9257,0.3324,40.1600,65,96,233564
1.8817,0.3324,40.2000,65,96,233568
1.8622,0.3372,40.3000,65,96,233571
1.8426,0.3324,40.3000,65,96,233574
1.8475,0.3421,40.2300,65,96,233578
1.8231,0.3324,40.3000,65,96,233581
1.8671,0.3275,40.1000,65,96,233584
1.8328,0.3372,40.2300,65,96,233588
1.8475,0.3324,40.3300,65,96,233591
1.8817,0.3421,40.0600,65,96,233594
1.8426,0.3324,40.2300,65,96,233598
1.8573,0.3421,40.1600,65,96,233602
1.8280,0.3372,40.1300,65,96,233605
1.8035,0.3324,40.1600,65,96,233608
1.8182,0.3372,40.1300,65,96,233612
1.8084,0.3275,40.2000,65,96,233615
