ecg,gsr,temp,hr,spo2,timest
1.7986,0.3959,38.2100,87,90,291603
1.9257,0.4057,37.9000,87,90,291606
1.8817,0.3959,38.0800,87,90,291610
1.8524,0.4008,38.1500,87,90,291613
1.8133,0.3959,38.2100,87,90,291616
1.7693,0.3959,38.2100,87,90,291620
1.8377,0.4057,38.0200,87,90,291623
1.8524,0.4008,38.2100,87,90,291627
1.8817,0.3959,38.1500,87,90,291631
1.8622,0.3959,38.2700,87,90,291634
1.8133,0.3910,38.2100,87,90,291637
1.8280,0.4057,38.0200,87,90,291640
1.8280,0.3959,38.0800,87,90,291644
1.8915,0.3959,38.0800,87,90,291647
1.9062,0.3959,38.1800,87,90,291650
1.8964,0.3959,38.2400,87,90,291654
1.9159,0.4057,38.1500,87,90,291657
1.8622,0.3959,38.2100,87,90,291660
1.9159,0.4106,38.1100,87,90,291664
1.9404,0.3959,38.2100,87,90,291667
1.9404,0.3959,38.2100,87,90,291671
1.9062,0.3959,38.1100,87,90,291675
1.8377,0.3861,38.2100,87,90,291678
1.8377,0.4497,37.9900,87,90,291681
1.8328,0.3959,38.2400,87,90,291684
1.8719,0.3910,38.2100,87,90,291688
1.9013,0.4008,38.1500,87,90,291691
1.8328,0.4008,37.6800,87,90,291694
1.8084,0.4106,37.9600,87,90,291698
1.7742,0.4008,38.1100,87,90,291701
1.7937,0.3959,38.4300,87,90,291704
1.8573,0.4008,38.1800,87,90,291708
1.8622,0.3959,38.3000,87,90,291712
1.8719,0.4154,37.9000,87,90,291715
1.8035,0.3959,38.0800,87,90,291718
1.7889,0.3910,38.3000,87,90,291722
1.8280,0.4008,38.1800,87,90,291725
1.8671,0.4008,38.2100,87,90,291728
1.9257,0.3861,38.0200,87,90,291732
1.8475,0.4057,38.1500,87,90,291735
1.7840,0.3959,38.1500,87,90,291738
1.7742,0.4106,38.2100,87,90,291742
1.8133,0.3959,38.2400,87,90,291745
1.8768,0.4057,38.1100,87,90,291748
1.8622,0.3959,38.2100,87,90,291752
1.8231,0.4008,38.0800,87,90,291756
1.7644,0.3910,38.3000,87,90,291759
1.7693,0.4008,38.2100,87,90,291762
1.8475,0.4057,38.0500,87,90,291766
1.8671,0.4008,38.1100,87,90,291769
1.8866,0.4106,38.1100,87,90,291772
1.8133,0.3910,38.2100,87,90,291776
1.7742,0.4008,38.2100,87,90,291779
1.8035,0.3959,38.1800,87,90,291782
1.8719,0.3959,38.1800,87,90,291786
1.9648,0.3910,38.0500,87,90,291789
1.9110,0.3959,38.2100,87,90,291792
1.8671,0.3910,38.2100,87,90,291795
1.8768,0.4057,38.1500,87,90,291800
1.9306,0.4008,38.1500,87,90,291803
2.1017,0.4008,37.9600,87,90,291806
2.1652,0.3861,38.2100,87,90,291810
2.1603,0.3910,38.2700,87,90,291813
2.1212,0.4057,38.1800,87,90,291816
1.9404,0.3959,38.3600,87,90,291820
1.8475,0.4106,37.9000,87,90,291823
1.6667,0.4008,38.1500,87,90,291826
1.5200,0.3910,38.2400,87,90,291829
1.4418,0.3959,38.1800,87,90,291833
1.4321,0.3861,38.2100,87,90,291836
1.5689,0.4106,38.0200,87,90,291840
1.6813,0.4057,38.1100,87,90,291844
1.8084,0.3959,38.1100,87,90,291847
1.8964,0.4008,38.2100,87,90,291850
1.9110,0.3959,38.2100,87,90,291854
1.9062,0.4350,38.1100,87,90,291857
1.8671,0.3959,38.1800,87,90,291860
1.8964,0.4008,38.0800,87,90,291864
1.9257,0.4008,38.2100,87,90,291867
1.9501,0.3861,38.2100,87,90,291870
1.9355,0.4106,38.1500,87,90,291873
1.8719,0.3959,38.2100,87,90,291877
1.8719,0.4057,38.1500,87,90,291880
1.8768,0.3959,38.2400,87,90,291884
1.9257,0.3959,38.2100,87,90,291888
1.9697,0.4008,38.1100,87,90,291891
1.9501,0.4008,38.1800,87,90,291896
1.9501,0.4008,38.2100,87,90,291899
1.9697,0.4057,37.9300,87,90,291902
1.8964,0.3959,38.1100,87,90,291906
1.8915,0.3910,38.1800,87,90,291909
1.9453,0.4008,38.1800,87,90,291912
1.9795,0.3959,38.2400,87,90,291916
2.0381,0.4252,38.0500,87,90,291919
1.9599,0.4057,38.1100,87,90,291922
1.9013,0.4008,38.2700,87,90,291926
1.8915,0.4057,38.2100,87,90,291930
1.9355,0.3959,38.2400,87,90,291933
2.0088,0.4106,38.1100,87,90,291936
1.9844,0.3910,38.1800,87,90,291940
1.9550,0.3959,38.1100,87,90,291943
1.9013,0.4008,38.2100,87,90,291946
1.9062,0.3959,38.2100,87,90,291950
1.9892,0.4057,37.9900,87,90,291953
2.0088,0.3959,38.2100,87,90,291956
2.0332,0.3861,38.1100,87,90,291959
1.9599,0.4252,38.2700,87,90,291963
1.9208,0.4008,38.2100,87,90,291966
1.9453,0.3861,38.1100,87,90,291970
1.9795,0.3861,38.2100,87,90,291974
2.0430,0.3959,38.0500,87,90,291977
2.0186,0.3959,38.2100,87,90,291980
1.9844,0.3959,38.3000,87,90,291984
1.9697,0.4008,38.0800,87,90,291987
1.9746,0.3959,38.2100,87,90,291990
2.0674,0.4008,37.9900,87,90,291993
2.0772,0.3959,38.2100,87,90,291997
2.0772,0.3959,38.2100,87,90,292000
2.0577,0.4008,38.2400,87,90,292003
2.0235,0.3959,38.2400,87,90,292007
2.0968,0.4057,37.9300,87,90,292011
2.1212,0.4008,38.0800,87,90,292014
2.1359,0.4203,38.1500,87,90,292018
2.1359,0.4008,38.1800,87,90,292021
2.0772,0.3959,37.5600,87,90,292024
2.1017,0.4008,37.9300,87,90,292027
2.0821,0.3861,38.0800,87,90,292031
2.1163,0.3910,38.1800,87,90,292034
2.1457,0.4154,38.1800,87,90,292037
2.1017,0.3959,38.2400,87,90,292041
2.1065,0.4106,38.1800,87,90,292044
2.0381,0.4057,38.1800,87,90,292047
2.0332,0.3959,38.1100,87,90,292051
2.0528,0.3959,38.3300,87,90,292055
2.0870,0.3910,38.2100,87,90,292058
2.0283,0.4057,38.1500,87,90,292061
1.9208,0.3959,38.2100,87,90,292065
1.8671,0.3959,38.0800,87,90,292068
1.8280,0.3959,38.2400,87,90,292071
1.8328,0.4106,38.2100,87,90,292075
1.8426,0.4057,38.0500,87,90,292078
1.7693,0.4008,38.1800,87,90,292081
1.7400,0.4008,38.0800,87,90,292085
1.6618,0.3910,38.1800,87,90,292088
1.6764,0.3861,38.2100,87,90,292091
1.7204,0.4008,38.1100,87,90,292094
1.7107,0.3959,38.2100,87,90,292099
1.6911,0.3910,38.0200,87,90,292102
1.6227,0.3861,38.1800,87,90,292105
1.6080,0.4008,38.2100,87,90,292109
1.6520,0.4106,38.1800,87,90,292112
1.6862,0.3959,38.2100,87,90,292115
1.7253,0.4057,37.9300,87,90,292119
1.6618,0.3910,38.1500,87,90,292122
1.6178,0.3959,38.2100,87,90,292125
1.6276,0.4008,38.1800,87,90,292128
1.6520,0.3959,38.2100,87,90,292132
1.7840,0.4106,37.9300,87,90,292135
1.7302,0.4008,38.0800,87,90,292139
1.6862,0.3910,38.2100,87,90,292143
1.6569,0.4008,38.1800,87,90,292146
1.6520,0.3959,38.2100,87,90,292149
1.7449,0.4154,37.9600,87,90,292153
1.7742,0.4057,38.1100,87,90,292156
1.7595,0.3959,38.0800,87,90,292159
1.7155,0.4008,38.1800,87,90,292163
1.6813,0.4008,38.2100,87,90,292166
1.7155,0.3861,38.1500,87,90,292169
1.7449,0.3910,38.1800,87,90,292172
1.7986,0.3861,38.0800,87,90,292176
1.7742,0.3959,38.1800,87,90,292179
1.7400,0.3959,38.2700,87,90,292183
1.7204,0.4008,38.1500,87,90,292187
1.7253,0.3910,38.1800,87,90,292190
1.8182,0.4057,38.0800,87,90,292193
1.8084,0.3959,38.2400,87,90,292197
1.8084,0.4008,38.2100,87,90,292200
1.7791,0.3861,38.0800,87,90,292203
1.7253,0.3959,38.1800,87,90,292206
1.7889,0.3959,38.0200,87,90,292210
1.7937,0.3861,38.1100,87,90,292213
1.8231,0.4008,38.3000,87,90,292216
1.8328,0.4057,38.0800,87,90,292220
1.7644,0.3959,38.2700,87,90,292224
1.7644,0.4350,37.9600,87,90,292227
1.7595,0.3959,38.1800,87,90,292231
1.8084,0.3959,38.2400,87,90,292234
1.8475,0.3959,38.1100,87,90,292237
1.8280,0.3959,38.2400,87,90,292240
1.8231,0.4350,37.9300,87,90,292244
1.7595,0.3959,38.1100,87,90,292247
1.7742,0.4106,38.1800,87,90,292250
1.8231,0.3910,38.1800,87,90,292254
1.8573,0.4008,38.2100,87,90,292257
1.8817,0.4154,38.0200,87,90,292260
1.8133,0.4008,38.1500,87,90,292264
1.7840,0.4008,38.1800,87,90,292268
1.8133,0.3959,38.3000,87,90,292271
1.8622,0.3910,38.2400,87,90,292275
1.9404,0.4057,38.0800,87,90,292278
1.8915,0.4008,38.2400,87,90,292281
1.8573,0.3959,38.0800,87,90,292284
1.8280,0.3959,38.2100,87,90,292288
1.8768,0.3959,38.4600,87,90,292291
1.9941,0.3959,38.1800,87,90,292294
2.0039,0.3959,38.2100,87,90,292298
2.0235,0.4057,38.4600,87,90,292301
1.9990,0.3959,38.1500,87,90,292304
1.9404,0.3959,38.2100,87,90,292308
1.9648,0.4008,38.0800,87,90,292312
1.9746,0.3910,38.2100,87,90,292315
1.9746,0.3959,38.0500,87,90,292318
1.8866,0.3959,38.2100,87,90,292322
1.8035,0.3910,38.2100,87,90,292325
1.7986,0.4057,38.4300,87,90,292328
1.8035,0.3959,38.2100,87,90,292332
1.8671,0.4057,37.9900,87,90,292335
1.8426,0.4057,38.0800,87,90,292338
1.7742,0.3910,38.2100,87,90,292342
1.7302,0.4008,38.2100,87,90,292345
1.7009,0.4008,38.2100,87,90,292348
1.7742,0.4106,37.9300,87,90,292352
1.7791,0.3959,38.2400,87,90,292356
1.7791,0.4008,38.3000,87,90,292359
1.7498,0.3959,38.2100,87,90,292362
1.6911,0.3959,38.1800,87,90,292366
1.7449,0.4154,37.9900,87,90,292369
1.7546,0.4057,38.3600,87,90,292372
1.7937,0.4106,38.1800,87,90,292376
1.7937,0.3959,38.2100,87,90,292379
1.7449,0.4008,38.2100,87,90,292382
1.7351,0.4057,38.1100,87,90,292386
1.7155,0.4008,38.2400,87,90,292389
1.7742,0.3959,38.0800,87,90,292392
1.7937,0.3959,38.2400,87,90,292396
1.7986,0.3910,38.2100,87,90,292400
1.8035,0.4057,38.0500,87,90,292403
1.7546,0.3959,38.1800,87,90,292406
1.7742,0.3910,38.1800,87,90,292410
1.7742,0.3861,38.2100,87,90,292413
1.7986,0.3959,38.1500,87,90,292416
1.8280,0.3959,38.0800,87,90,292420
1.8475,0.3959,38.2100,87,90,292423
1.9453,0.4008,38.0200,87,90,292426
2.0283,0.3959,38.2100,87,90,292429
2.0968,0.3959,38.2700,87,90,292433
2.1017,0.4106,38.1800,87,90,292436
1.9550,0.4008,38.2100,87,90,292440
1.7742,0.4008,37.9900,87,90,292444
1.5298,0.4008,38.2400,87,90,292447
1.4076,0.3959,38.2100,87,90,292450
1.4223,0.4008,38.2100,87,90,292454
1.5103,0.3959,38.2400,87,90,292457
1.6618,0.4057,37.9900,87,90,292460
1.7155,0.3959,38.1100,87,90,292463
1.7791,0.3959,38.2400,87,90,292467
1.8719,0.4154,38.1500,87,90,292470
1.9453,0.3959,38.2100,87,90,292473
2.0381,0.4154,38.2100,87,90,292477
1.9795,0.4057,38.1100,87,90,292481
1.9110,0.3959,38.1500,87,90,292484
1.8817,0.4301,38.2100,87,90,292488
1.9159,0.3959,38.2100,87,90,292491
1.9941,0.4057,38.1500,87,90,292494
1.9941,0.3861,38.1800,87,90,292498
1.9648,0.4008,38.0800,87,90,292501
1.8866,0.3959,38.2400,87,90,292504
1.9062,0.3959,38.2100,87,90,292509
1.8671,0.3959,38.2700,87,90,292512
1.8719,0.4008,38.1100,87,90,292515
1.8915,0.3959,38.2400,87,90,292519
1.9697,0.4008,37.9600,87,90,292523
1.9844,0.3959,38.1100,87,90,292526
1.9062,0.3959,38.3300,87,90,292530
1.8768,0.4008,38.1500,87,90,292533
1.8475,0.3861,38.2100,87,90,292536
1.9257,0.4057,37.9900,87,90,292540
1.9306,0.3959,38.1100,87,90,292543
1.9306,0.3910,38.2400,87,90,292546
1.8964,0.4008,38.1800,87,90,292550
1.8377,0.3959,38.2400,87,90,292553
1.8964,0.4154,37.9600,87,90,292556
1.9062,0.4057,38.1100,87,90,292559
1.9404,0.3910,38.2100,87,90,292563
1.9404,0.4350,38.2100,87,90,292567
1.9013,0.3959,38.2100,87,90,292570
1.9110,0.4203,38.0800,87,90,292574
1.9013,0.4057,38.1800,87,90,292577
1.9599,0.4008,38.1100,87,90,292580
1.9892,0.3910,38.2400,87,90,292584
1.9844,0.3959,38.2400,87,90,292587
1.9892,0.4057,38.0500,87,90,292590
1.9355,0.3959,38.1800,87,90,292593
1.9697,0.4008,38.0800,87,90,292597
1.9990,0.3959,38.1500,87,90,292600
2.0381,0.3910,38.2100,87,90,292603
2.0577,0.3861,38.1100,87,90,292608
2.0137,0.4008,38.2100,87,90,292611
2.0235,0.3959,37.9900,87,90,292614
2.0186,0.3959,38.3000,87,90,292618
2.0772,0.3959,38.2400,87,90,292621
2.1359,0.4008,38.5200,87,90,292624
2.1114,0.4301,38.3000,87,90,292627
2.1114,0.3959,37.9600,87,90,292631
2.0577,0.3959,38.2400,87,90,292634
2.0919,0.3959,38.2100,87,90,292637
2.1603,0.3861,38.1800,87,90,292641
2.1701,0.4008,38.2100,87,90,292644
2.2190,0.4057,37.9600,87,90,292647
2.1261,0.4008,38.1100,87,90,292652
2.0870,0.3959,38.2100,87,90,292655
2.1212,0.4008,38.1800,87,90,292658
2.1457,0.3910,38.2100,87,90,292661
2.2043,0.4057,37.9000,87,90,292665
2.1163,0.3959,38.0800,87,90,292668
2.0332,0.3910,38.2100,87,90,292671
1.9844,0.3959,38.2100,87,90,292675
1.9599,0.4008,38.2400,87,90,292678
2.0381,0.4154,38.0200,87,90,292681
1.9844,0.4008,38.1500,87,90,292685
1.9062,0.3910,38.1800,87,90,292688
1.8182,0.3959,38.2100,87,90,292691
1.7644,0.4008,38.2400,87,90,292695
1.7937,0.4057,38.1100,87,90,292699
1.7937,0.3959,38.2100,87,90,292702
1.7791,0.4057,38.1800,87,90,292705
1.7009,0.3959,38.2400,87,90,292709
1.6373,0.3910,38.2100,87,90,292712
1.6373,0.4057,38.0800,87,90,292715
1.6373,0.3910,38.2100,87,90,292719
1.7009,0.4057,38.1100,87,90,292722
1.6813,0.3910,38.1800,87,90,292725
1.6471,0.3910,38.2100,87,90,292728
1.5982,0.4008,38.1100,87,90,292732
1.5982,0.3959,38.1800,87,90,292736
1.6618,0.4008,38.0500,87,90,292739
1.6911,0.3959,38.2100,87,90,292743
1.6960,0.4008,38.2400,87,90,292746
1.6764,0.3959,38.1100,87,90,292749
1.6227,0.3959,38.2400,87,90,292753
1.6520,0.4106,37.9600,87,90,292756
1.6569,0.3910,38.2700,87,90,292759
1.7009,0.4252,38.2400,87,90,292763
1.7155,0.3959,38.1800,87,90,292766
1.6813,0.3959,38.2100,87,90,292769
1.6960,0.4057,37.9300,87,90,292772
1.6667,0.4008,38.2400,87,90,292776
1.6960,0.3910,38.1800,87,90,292780
1.7498,0.3959,38.1800,87,90,292783
1.7546,0.3959,38.2400,87,90,292787
1.7693,0.4154,38.0200,87,90,292790
1.6960,0.4008,38.1100,87,90,292793
1.6862,0.4008,38.1100,87,90,292797
1.7253,0.3959,38.1800,87,90,292800
1.7693,0.3959,38.2100,87,90,292803
1.7986,0.3959,38.0800,87,90,292806
1.7400,0.3861,38.1800,87,90,292810
1.7204,0.4008,38.2100,87,90,292813
1.7155,0.3959,38.2100,87,90,292816
1.7644,0.3861,38.2700,87,90,292820
1.8133,0.4008,38.1500,87,90,292824
1.7937,0.3959,38.1800,87,90,292827
1.7595,0.4057,38.1100,87,90,292831
1.7009,0.3959,38.2400,87,90,292834
1.7204,0.3959,38.2400,87,90,292837
1.7937,0.4154,38.0800,87,90,292841
1.7986,0.3959,38.2100,87,90,292844
1.7937,0.4008,38.0800,87,90,292847
1.7253,0.3959,38.1500,87,90,292850
1.7009,0.4008,38.2400,87,90,292854
1.7302,0.4057,38.2700,87,90,292857
1.7693,0.3910,38.2100,87,90,292860
1.8377,0.4057,37.9600,87,90,292865
1.7986,0.3959,38.5200,87,90,292868
1.7595,0.4008,38.2100,87,90,292871
1.7449,0.4008,38.1800,87,90,292875
1.7546,0.3959,38.3300,87,90,292878
1.8524,0.4106,37.9300,87,90,292881
1.8377,0.3959,38.0500,87,90,292884
1.8035,0.3959,38.2400,87,90,292888
1.7644,0.3959,38.2400,87,90,292891
1.7351,0.4008,38.3000,87,90,292894
1.8182,0.4057,38.0200,87,90,292898
1.8377,0.4008,38.1800,87,90,292901
1.8426,0.3959,38.0500,87,90,292904
1.8182,0.3959,38.2100,87,90,292909
1.7546,0.3959,38.2100,87,90,292912
1.7644,0.4350,38.0500,87,90,292915
1.7742,0.4008,38.1800,87,90,292918
1.8280,0.3959,38.1100,87,90,292922
1.8573,0.3959,38.2400,87,90,292925
1.8035,0.3959,38.3000,87,90,292928
1.7791,0.4008,38.1500,87,90,292932
1.7595,0.3861,38.2400,87,90,292935
1.8231,0.4057,38.0800,87,90,292938
1.8426,0.3910,38.2100,87,90,292942
1.8426,0.3861,38.2100,87,90,292945
1.8133,0.4203,38.0800,87,90,292948
1.7595,0.4008,38.2100,87,90,292952
1.7791,0.3959,38.0500,87,90,292956
1.7937,0.3959,38.2400,87,90,292959
1.8475,0.3910,38.2100,87,90,292962
1.8915,0.4008,38.0800,87,90,292966
1.8573,0.4203,38.2400,87,90,292969
1.8915,0.4008,38.0200,87,90,292972
1.8768,0.4008,38.1100,87,90,292976
1.9159,0.3959,38.2100,87,90,292979
1.9844,0.4008,38.1500,87,90,292982
1.9550,0.3910,38.2100,87,90,292985
1.9501,0.4057,37.9900,87,90,292989
1.8768,0.3959,38.1100,87,90,292993
1.8719,0.3959,38.5500,87,90,292996
1.9062,0.4008,38.1800,87,90,293000
1.9110,0.3910,38.2400,87,90,293003
1.9404,0.4154,37.9600,87,90,293006
1.8524,0.4008,38.1100,87,90,293010
1.7937,0.3910,38.1500,87,90,293013
1.7889,0.3959,38.2100,87,90,293016
1.8182,0.3861,38.2100,87,90,293020
1.8671,0.4448,38.0800,87,90,293023
1.8182,0.3959,38.2100,87,90,293026
1.7644,0.3959,38.1100,87,90,293029
1.7253,0.3959,38.2100,87,90,293033
1.7351,0.3959,38.1500,87,90,293037
1.8231,0.4154,38.0200,87,90,293040
1.8328,0.3959,38.2100,87,90,293044
1.8377,0.4301,38.1500,87,90,293047
1.7693,0.3910,38.2100,87,90,293050
1.7351,0.3959,38.2100,87,90,293054
1.7498,0.3959,38.0800,87,90,293057
1.7840,0.3959,38.3600,87,90,293060
1.8280,0.4008,38.0800,87,90,293064
1.7889,0.3959,38.2100,87,90,293067
1.7400,0.3959,38.2400,87,90,293070
1.7204,0.4057,38.0800,87,90,293073
1.7351,0.3959,38.2100,87,90,293078
1.8182,0.4008,38.1100,87,90,293081
1.8426,0.3910,38.2100,87,90,293084
1.7889,0.3959,38.2400,87,90,293088
1.7498,0.4057,38.1500,87,90,293091
1.7058,0.3959,38.2400,87,90,293094
1.7840,0.4106,37.9300,87,90,293098
1.8133,0.3959,38.1500,87,90,293101
1.8280,0.3910,38.2700,87,90,293104
1.8133,0.3959,38.1800,87,90,293107
1.7449,0.3959,38.2400,87,90,293111
1.7840,0.4154,38.0500,87,90,293114
1.8035,0.3861,38.1100,87,90,293120
1.8084,0.3959,38.2100,87,90,293123
1.9404,0.4008,38.0800,87,90,293126
2.0674,0.4008,38.1800,87,90,293130
2.1848,0.3959,38.2400,87,90,293133
2.2043,0.3959,38.0800,87,90,293136
2.1310,0.3959,38.1500,87,90,293140
2.0772,0.3959,38.1100,87,90,293143
1.9404,0.3959,38.2100,87,90,293146
1.8084,0.4301,38.2400,87,90,293149
1.6667,0.4008,38.1800,87,90,293153
1.5152,0.3959,38.2100,87,90,293156
1.5152,0.4057,37.9900,87,90,293159
1.5640,0.4008,38.4000,87,90,293164
1.6960,0.4399,38.2400,87,90,293167
1.8426,0.4008,38.1100,87,90,293170
1.8768,0.3959,38.1800,87,90,293174
1.9110,0.4106,37.9300,87,90,293177
1.8475,0.3910,38.2100,87,90,293180
1.8426,0.4203,38.2400,87,90,293184
1.8964,0.4008,38.1800,87,90,293187
1.9110,0.3959,38.3000,87,90,293190
1.9501,0.4545,37.9000,87,90,293193
1.8671,0.3959,38.3300,87,90,293197
1.8231,0.3910,38.1500,87,90,293200
1.8328,0.3959,38.2400,87,90,293203
1.8671,0.4057,38.2400,87,90,293208
1.9404,0.4057,38.0800,87,90,293211
1.8915,0.3959,38.1800,87,90,293214
1.8475,0.3959,38.2100,87,90,293218
1.7986,0.3959,38.2400,87,90,293221
1.8035,0.3959,38.2100,87,90,293224
1.9159,0.3959,38.0500,87,90,293228
1.8915,0.3959,38.2100,87,90,293231
1.8817,0.4008,38.0800,87,90,293234
1.8182,0.3959,38.2100,87,90,293237
1.7986,0.3959,38.2100,87,90,293241
1.8377,0.3959,38.1500,87,90,293244
1.8622,0.3959,38.2100,87,90,293248
1.9208,0.3959,38.0200,87,90,293252
1.8719,0.4008,38.0500,87,90,293255
1.8377,0.3959,38.2400,87,90,293258
1.8231,0.4008,38.0800,87,90,293262
1.8377,0.3959,38.1500,87,90,293265
1.9208,0.3959,38.0200,87,90,293268
1.9208,0.3959,38.3300,87,90,293271
1.9013,0.4106,38.2100,87,90,293275
1.8768,0.4008,38.1800,87,90,293278
1.8475,0.3959,38.1800,87,90,293281
1.9159,0.4106,37.9900,87,90,293285
1.9404,0.4008,38.1500,87,90,293288
1.9404,0.3959,38.2100,87,90,293292
1.9306,0.4008,38.1800,87,90,293296
1.8768,0.3959,38.2100,87,90,293299
1.9208,0.4106,37.9300,87,90,293302
1.9306,0.4008,38.0800,87,90,293305
1.9697,0.3910,38.2100,87,90,293309
2.0137,0.4008,38.2100,87,90,293312
1.9697,0.3959,38.2100,87,90,293315
1.9746,0.4154,38.0500,87,90,293319
1.9453,0.4008,38.1800,87,90,293322
1.9844,0.3959,38.1100,87,90,293325
2.0283,0.3959,38.1800,87,90,293329
2.0381,0.3861,38.2100,87,90,293332
2.0430,0.4057,38.1500,87,90,293336
1.9795,0.3959,38.1800,87,90,293339
1.9990,0.3959,38.0800,87,90,293343
2.0235,0.3959,37.4600,87,90,293346
2.0723,0.4008,38.2400,87,90,293349
2.1212,0.4106,38.1100,87,90,293353
2.0772,0.3959,38.1800,87,90,293356
2.0772,0.4106,38.1100,87,90,293359
2.0479,0.3910,38.1800,87,90,293363
2.0968,0.3910,38.2100,87,90,293366
2.1554,0.4008,38.1100,87,90,293369
2.1505,0.3959,38.2400,87,90,293372
2.1212,0.3959,38.0500,87,90,293377
2.0479,0.3959,37.8300,87,90,293380
2.0381,0.3959,38.2400,87,90,293383
2.0821,0.3861,38.0200,87,90,293387
2.0772,0.3959,38.2100,87,90,293390
2.0870,0.4008,37.9900,87,90,293393
1.9795,0.3861,38.2100,87,90,293397
1.9062,0.3910,38.2100,87,90,293400
1.8817,0.3959,38.1500,87,90,293403
1.8719,0.4252,38.2100,87,90,293406
1.9110,0.3861,37.9300,87,90,293410
1.8280,0.4008,38.1100,87,90,293413
1.7400,0.4008,38.2400,87,90,293416
1.6862,0.4008,38.1800,87,90,293421
1.6667,0.3959,38.2700,87,90,293424
1.7302,0.4203,38.0200,87,90,293427
1.7155,0.4057,38.1100,87,90,293431
1.6813,0.3910,38.1500,87,90,293434
1.6373,0.4008,38.2100,87,90,293437
1.5787,0.3959,38.2400,87,90,293440
1.6031,0.4106,38.0800,87,90,293444
1.6276,0.3959,38.1800,87,90,293447
1.6764,0.3959,38.0800,87,90,293450
1.6667,0.3959,38.1800,87,90,293454
1.6276,0.3959,38.2100,87,90,293457
1.6178,0.3959,38.1800,87,90,293460
1.6276,0.3959,38.2100,87,90,293465
1.7107,0.4008,38.0800,87,90,293468
1.7546,0.3910,38.2100,87,90,293471
1.7009,0.3959,38.2400,87,90,293474
1.6764,0.4057,38.0200,87,90,293478
1.6325,0.4008,38.2100,87,90,293481
1.6764,0.3959,38.0800,87,90,293484
1.7009,0.3959,38.1500,87,90,293488
1.7351,0.4008,38.2100,87,90,293491
1.7400,0.4008,38.0500,87,90,293494
1.6911,0.3959,38.3300,87,90,293498
1.7058,0.4008,37.9900,87,90,293501
1.7107,0.3959,38.1800,87,90,293505
1.7644,0.3959,37.5900,87,90,293508
1.7937,0.4057,38.1500,87,90,293512
1.7449,0.3861,38.2400,87,90,293515
1.7351,0.4057,37.9300,87,90,293518
1.6764,0.3910,38.1500,87,90,293522
1.7155,0.3959,38.2400,87,90,293525
1.7840,0.4008,38.1800,87,90,293528
1.8084,0.3959,38.1100,87,90,293532
1.8377,0.4154,37.9600,87,90,293535
1.7644,0.3861,38.1100,87,90,293538
1.7253,0.3910,38.1500,87,90,293542
1.7693,0.3959,38.2100,87,90,293545
1.8133,0.3959,38.2400,87,90,293549
1.8768,0.4106,38.0200,87,90,293552
1.8328,0.4008,38.1500,87,90,293556
1.7937,0.3910,38.0800,87,90,293559
1.7644,0.3861,38.2100,87,90,293562
1.8035,0.3959,38.2100,87,90,293566
1.8817,0.4057,38.0500,87,90,293569
1.8475,0.3959,38.1800,87,90,293572
1.8133,0.4008,38.0800,87,90,293576
1.7546,0.3910,38.2400,87,90,293579
1.7546,0.3959,38.2400,87,90,293582
1.7937,0.3959,38.1100,87,90,293585
1.8280,0.3910,38.2400,87,90,293590
1.8377,0.4008,38.0800,87,90,293593
1.7595,0.3763,38.2100,87,90,293596
1.7204,0.3959,38.2400,87,90,293600
1.7449,0.4008,38.1100,87,90,293603
1.7693,0.3959,38.2100,87,90,293606
1.8377,0.4008,38.0800,87,90,293610
1.8133,0.4350,38.1100,87,90,293613
1.7595,0.4008,38.2700,87,90,293616
1.7498,0.4203,38.0800,87,90,293620
1.7253,0.4008,38.2400,87,90,293623
1.8084,0.4057,37.9600,87,90,293626
1.8328,0.3910,38.0800,87,90,293629
1.8133,0.3959,38.3000,87,90,293634
1.7791,0.4008,38.1800,87,90,293637
1.7302,0.3959,38.2400,87,90,293640
1.7889,0.4057,37.9300,87,90,293644
1.8084,0.3959,38.0800,87,90,293647
1.8426,0.4008,38.1800,87,90,293650
1.8524,0.3959,38.2400,87,90,293653
1.8084,0.3959,38.2400,87,90,293657
1.8182,0.4106,38.0500,87,90,293660
1.7937,0.4008,38.1800,87,90,293663
1.8328,0.3959,38.1100,87,90,293667
1.8622,0.3959,38.1800,87,90,293670
1.8524,0.3959,38.2400,87,90,293673
1.8622,0.4008,38.0500,87,90,293678
1.8035,0.4008,38.2100,87,90,293681
1.8524,0.4008,38.2700,87,90,293684
1.8964,0.4008,38.2700,87,90,293688
1.9355,0.3959,38.2100,87,90,293691
1.9453,0.4350,38.1500,87,90,293694
1.8573,0.3959,38.2100,87,90,293697
1.8328,0.4057,38.0800,87,90,293701
1.8133,0.4350,38.1500,87,90,293704
1.8719,0.3861,38.2100,87,90,293707
1.9013,0.3959,38.1100,87,90,293711
1.8475,0.3910,38.2100,87,90,293714
1.8133,0.4008,38.0200,87,90,293718
1.7546,0.3910,38.2400,87,90,293722
1.8182,0.3959,38.2400,87,90,293725
1.8426,0.4057,38.1100,86,90,293728
1.7889,0.3959,38.1800,86,90,293733
1.8328,0.3959,38.2100,86,90,293736
1.9159,0.4252,38.0500,86,90,293739
1.8719,0.3959,38.1100,86,90,293743
1.8182,0.3959,38.0800,86,90,293746
1.7986,0.3959,38.2100,86,90,293749
1.8280,0.3959,38.2100,86,90,293753
1.9013,0.4350,38.0500,86,90,293756
1.8866,0.3959,38.1800,86,90,293760
1.8524,0.4008,38.1800,86,90,293764
1.7889,0.4106,38.1800,86,90,293767
1.7840,0.3959,38.2400,86,90,293770
1.8426,0.4203,38.1500,86,90,293774
1.8719,0.3959,38.2100,86,90,293777
1.8817,0.4057,38.1100,86,90,293780
1.8035,0.3959,38.2400,86,90,293783
1.7546,0.3959,38.2100,86,90,293787
1.7889,0.3959,38.0800,86,90,293790
1.8084,0.3959,38.2100,86,90,293793
1.8719,0.4106,38.0500,86,90,293797
1.8622,0.3959,38.1100,86,90,293800
1.8182,0.3959,38.2400,86,90,293804
1.8133,0.4106,38.1100,86,90,293808
1.7840,0.3959,38.2100,86,90,293811
1.8719,0.4008,37.9600,86,90,293814
1.9159,0.3959,38.1500,86,90,293818
1.9941,0.3959,38.1800,86,90,293821
2.0821,0.4008,38.1800,86,90,293824
2.1848,0.4008,38.2400,86,90,293827
2.3021,0.4106,37.9300,86,90,293831
2.3363,0.3959,38.1100,86,90,293834
2.2727,0.3910,38.2400,86,90,293837
2.1261,0.4106,38.2100,86,90,293841
1.8622,0.3861,38.2100,86,90,293844
1.6373,0.4154,38.0500,86,90,293848
1.4712,0.3910,38.1800,86,90,293852
1.4761,0.3861,38.1500,86,90,293855
1.5640,0.3959,38.2100,86,90,293858
1.6569,0.3861,38.2400,86,90,293861
1.7400,0.4057,38.0200,86,90,293865
1.7595,0.3959,38.1800,86,90,293868
1.8280,0.4008,38.0500,86,90,293871
1.8671,0.3959,38.4600,86,90,293875
1.8915,0.3959,38.2100,86,90,293878
1.8964,0.4057,38.1800,86,90,293881
1.8231,0.4057,38.2100,86,90,293885
1.8133,0.4057,38.1100,86,90,293889
1.8182,0.3959,38.2400,86,90,293892
1.8866,0.3959,38.2100,86,90,293896
1.9110,0.3959,38.0800,86,90,293899
1.8573,0.3910,38.1800,86,90,293902
1.8280,0.4008,38.0500,86,90,293905
1.7693,0.3959,38.2700,86,90,293909
1.7986,0.3812,38.2100,86,90,293912
1.8817,0.4008,38.2100,86,90,293915
1.9062,0.3910,38.2400,86,90,293919
1.9208,0.4057,37.9900,86,90,293922
1.8524,0.4008,38.1500,86,90,293925
1.8231,0.3959,38.2400,86,90,293929
1.8671,0.4057,38.2100,86,90,293933
1.8915,0.3959,38.2100,86,90,293936
1.9550,0.4057,37.9300,86,90,293939
1.8866,0.3959,38.0800,86,90,293943
1.8280,0.3959,38.1800,86,90,293946
1.8182,0.3959,38.1800,86,90,293949
1.8426,0.3959,38.3300,86,90,293953
1.9501,0.4106,38.0200,86,90,293956
1.9159,0.4008,38.1800,86,90,293959
1.8622,0.3959,38.1100,86,90,293963
1.8084,0.3910,38.2100,86,90,293966
1.7986,0.3959,38.2100,86,90,293969
1.8671,0.4154,38.1100,86,90,293972
1.8817,0.3861,38.2100,86,90,293977
1.9062,0.3959,38.0800,86,90,293980
1.8573,0.3959,38.2100,86,90,293983
1.8231,0.3959,38.2100,86,90,293987
1.8622,0.4057,38.0500,86,90,293990
1.8964,0.3959,38.3000,86,90,293993
1.9697,0.4008,38.1800,86,90,293997
1.9501,0.3910,38.1800,86,90,294000
1.9159,0.3959,38.3000,86,90,294003
1.9062,0.4008,38.0800,86,90,294007
1.8964,0.3861,38.2100,86,90,294010
1.9648,0.4008,38.1500,86,90,294013
1.9941,0.4008,38.1800,86,90,294017
2.0088,0.3959,38.2100,86,90,294021
2.0137,0.4008,38.1100,86,90,294024
1.9697,0.4008,38.3000,86,90,294027
2.0528,0.4008,37.9900,86,90,294031
2.0235,0.3910,38.3000,86,90,294034
2.0723,0.3959,38.2100,86,90,294037
2.0919,0.3959,38.2100,86,90,294040
2.0577,0.3959,38.3300,86,90,294044
2.0821,0.4106,37.9000,86,90,294047
2.0723,0.4057,38.1800,86,90,294050
2.1114,0.3959,38.2100,86,90,294054
2.1554,0.4057,38.1800,86,90,294057
2.1408,0.3959,38.2400,86,90,294061
2.1603,0.4154,38.1800,86,90,294065
2.0821,0.4057,38.1100,86,90,294068
2.0674,0.3861,38.1500,86,90,294071
2.1065,0.3959,38.4000,86,90,294074
2.1114,0.3959,38.2100,86,90,294078
2.1114,0.4106,38.0500,86,90,294081
2.0039,0.4008,38.1800,86,90,294084
1.9453,0.4008,38.1100,86,90,294088
1.9257,0.3959,38.2400,86,90,294091
1.9306,0.4008,38.3000,86,90,294094
1.9697,0.3959,38.1500,86,90,294098
1.8475,0.3959,38.2100,86,90,294102
1.7742,0.4008,38.0500,86,90,294105
1.6911,0.3861,38.2400,86,90,294109
1.6764,0.3959,38.3000,86,90,294112
1.7204,0.4057,38.0800,86,90,294115
1.7009,0.3861,38.2700,86,90,294118
1.6813,0.4008,38.0200,86,90,294122
1.6031,0.3910,38.1500,86,90,294125
1.5738,0.3861,38.2100,86,90,294128
1.6373,0.4008,38.0800,86,90,294132
1.6325,0.3959,38.2100,86,90,294135
1.6569,0.4008,37.9600,86,90,294138
1.6080,0.4106,38.1100,86,90,294142
1.5738,0.4008,38.2100,86,90,294146
1.5689,0.4057,38.1100,86,90,294149
1.5885,0.3959,38.2400,86,90,294152
1.7009,0.4057,37.9300,86,90,294156
1.6471,0.3910,38.1500,86,90,294159
1.6276,0.4008,38.2400,86,90,294162
1.6080,0.4008,38.1800,86,90,294166
1.5934,0.3959,38.3000,86,90,294169
1.7009,0.4106,37.9600,86,90,294172
1.7058,0.4008,38.0800,86,90,294176
1.7058,0.3910,38.1500,86,90,294179
1.6862,0.3861,38.1800,86,90,294182
1.6422,0.3959,38.3600,86,90,294185
1.6960,0.4154,38.0500,86,90,294190
1.7351,0.4057,38.4000,86,90,294193
1.7742,0.4008,38.1800,86,90,294196
1.7840,0.3959,38.3300,86,90,294200
1.7742,0.3959,38.2400,86,90,294203
1.7840,0.4057,38.0800,86,90,294206
1.7840,0.4008,38.2100,86,90,294210
1.8328,0.4008,38.1100,86,90,294213
1.8426,0.4106,38.2100,86,90,294216
1.8182,0.3959,38.1500,86,90,294219
1.7595,0.3959,38.1500,86,90,294223
1.6960,0.3959,38.2400,86,90,294226
1.7253,0.4057,38.1100,86,90,294230
1.7498,0.3959,38.2400,86,90,294234
1.7840,0.3910,38.2100,86,90,294237
1.8084,0.4057,38.0800,86,90,294240
1.7302,0.3959,38.2100,86,90,294244
1.7009,0.4008,38.0200,86,90,294247
1.6862,0.4008,38.1100,86,90,294250
1.7107,0.3959,38.2400,86,90,294253
1.7546,0.4008,38.0800,86,90,294257
1.7204,0.4008,38.3000,86,90,294260
1.7155,0.4008,37.9300,86,90,294263
1.6618,0.4008,38.1800,86,90,294267
1.6764,0.3910,38.2100,86,90,294270
1.7302,0.4057,38.1500,86,90,294274
1.7546,0.3959,38.2100,86,90,294278
1.7937,0.4106,37.9000,86,90,294281
1.7155,0.3959,38.1500,86,90,294284
1.6764,0.4057,38.2100,86,90,294287
1.7302,0.3959,38.1800,86,90,294291
1.7498,0.3959,38.3000,86,90,294294
1.8377,0.4154,38.0200,86,90,294297
1.7986,0.4057,38.1500,86,90,294301
1.7498,0.3959,37.3400,86,90,294304
1.7351,0.3861,38.2100,86,90,294307
1.7693,0.3959,38.2400,86,90,294311
1.8817,0.4057,38.0200,86,90,294315
1.9013,0.4008,38.3600,86,90,294318
1.8964,0.4057,38.0800,86,90,294322
1.8573,0.3910,38.2100,86,90,294325
1.9306,0.3959,38.3600,86,90,294328
2.1212,0.4008,38.0800,86,90,294331
2.2727,0.3959,38.2100,86,90,294335
2.4194,0.4057,38.0500,86,90,294338
2.3705,0.4008,38.2400,86,90,294341
1.4516,0.3959,38.1100,86,90,294346
1.4174,0.4008,38.2100,86,90,294349
1.4565,0.4008,38.1500,86,90,294353
1.5445,0.3910,38.2100,86,90,294356
1.7058,0.3861,37.9600,86,90,294360
1.7889,0.4008,38.0800,86,90,294364
1.8280,0.3959,38.2100,86,90,294367
1.8280,0.4008,38.1800,86,90,294370
1.7840,0.3959,38.3300,86,90,294373
1.8231,0.4252,37.9300,86,90,294377
1.8231,0.4008,38.0500,86,90,294380
1.8426,0.3910,38.1800,86,90,294383
1.8475,0.3959,38.2100,86,90,294387
1.7937,0.3959,38.1800,86,90,294390
1.8133,0.4106,38.0200,86,90,294393
1.7742,0.4008,38.1800,86,90,294397
1.8133,0.3959,38.1500,86,90,294401
1.8475,0.3959,38.2100,86,90,294404
1.8475,0.3959,38.0800,86,90,294407
1.8328,0.4008,38.1800,86,90,294411
1.7742,0.3959,38.2400,86,90,294414
1.7937,0.4008,38.0500,86,90,294417
1.8231,0.4008,38.2400,86,90,294421
1.8622,0.3959,38.2100,86,90,294424
1.8866,0.4057,38.1800,86,90,294427
1.8328,0.3959,38.2100,86,90,294431
1.7937,0.4008,38.0800,86,90,294434
1.7742,0.3910,38.1500,86,90,294437
1.8231,0.3959,38.2400,86,90,294440
1.8866,0.4008,38.1100,86,90,294445
1.8622,0.3910,38.3000,86,90,294448
1.8426,0.4057,38.0200,86,90,294451
1.7889,0.3959,38.1800,86,90,294455
1.7986,0.3959,38.2100,86,90,294458
1.8719,0.4057,38.1500,86,90,294461
1.8915,0.3959,38.2400,86,90,294465
1.9599,0.4057,37.9600,86,90,294468
1.8426,0.3910,38.1500,86,90,294471
1.8182,0.3910,38.2400,86,90,294475
1.8524,0.4008,38.3000,86,90,294478
1.9013,0.4008,38.2100,86,90,294481
1.9941,0.4106,37.9600,86,90,294484
1.9501,0.4008,38.0200,86,90,294489
1.9062,0.3910,38.1500,86,90,294492
1.8915,0.3959,38.1800,86,90,294495
1.9159,0.3959,38.0800,86,90,294499
2.0283,0.4154,38.0200,86,90,294502
2.0430,0.3861,38.1500,86,90,294505
2.0186,0.3959,38.1500,86,90,294509
1.9697,0.4203,38.2100,86,90,294512
1.9795,0.3959,38.2100,86,90,294515
2.0186,0.4057,38.5200,86,90,294518
2.0674,0.3959,38.1800,86,90,294522
2.1163,0.4008,38.1100,86,90,294525
2.0870,0.3959,38.2100,86,90,294529
2.0870,0.4008,38.2100,86,90,294533
2.0577,0.4008,38.1800,86,90,294536
2.0723,0.3959,38.2100,86,90,294539
2.1554,0.4057,38.0500,86,90,294542
2.1652,0.3861,38.2400,86,90,294546
2.1554,0.3959,37.4000,86,90,294549
2.1457,0.4057,38.1100,86,90,294552
2.0968,0.3959,38.2400,86,90,294556
2.1261,0.3959,38.0500,86,90,294559
2.1359,0.3959,38.1500,86,90,294562
2.1212,0.3959,38.3300,86,90,294566
2.0919,0.3861,38.0800,86,90,294569
1.9941,0.3959,38.2400,86,90,294573
1.9844,0.4057,38.0500,86,90,294577
1.9501,0.4008,38.1800,86,90,294580
1.9453,0.3959,38.2400,86,90,294583
1.9257,0.4008,38.1500,86,90,294586
1.8280,0.4008,38.2100,86,90,294590
1.7986,0.4057,37.9300,86,90,294593
1.7107,0.3959,38.1100,86,90,294596
1.7449,0.3910,38.2100,86,90,294600
1.7302,0.4008,38.2400,86,90,294603
1.7058,0.3959,38.2100,86,90,294606
1.6960,0.4154,37.9900,86,90,294610
1.6031,0.4008,38.1500,86,90,294614
1.5787,0.4008,38.1500,86,90,294617
1.6129,0.3959,38.2100,86,90,294620
1.6520,0.3959,38.2100,86,90,294624
1.7009,0.4106,38.0500,86,90,294627
1.6422,0.4008,38.1800,86,90,294630
1.5934,0.3959,38.1500,86,90,294634
1.5885,0.3959,38.2400,86,90,294637
1.6276,0.3959,38.3600,86,90,294640
1.6960,0.4008,38.0500,86,90,294644
1.6813,0.4008,38.2100,86,90,294647
1.6569,0.4008,38.0500,86,90,294650
1.6129,0.3959,38.2700,86,90,294653
1.6276,0.3959,38.2700,86,90,294658
1.6862,0.3959,38.2100,86,90,294661
1.7204,0.4008,38.2100,86,90,294664
1.7449,0.4008,38.0800,86,90,294668
1.6716,0.3959,38.3000,86,90,294671
1.6471,0.4008,38.2100,86,90,294674
1.6716,0.4008,38.0800,86,90,294678
1.7107,0.3959,38.3000,86,90,294681
1.7791,0.3959,37.9900,86,90,294684
1.7449,0.3959,38.1100,86,90,294687
1.7058,0.3910,38.4000,86,90,294691
1.6960,0.4057,38.1100,86,90,294694
1.7009,0.3959,38.1800,86,90,294697
1.7840,0.4057,37.9600,86,90,294702
1.7937,0.3959,38.2400,86,90,294705
1.7693,0.3959,38.2400,86,90,294708
1.7351,0.4008,38.2100,86,90,294712
1.7253,0.4008,38.2400,86,90,294715
1.7644,0.4106,37.9300,86,90,294718
1.7791,0.3910,38.0800,86,90,294721
1.8377,0.3959,38.1800,86,90,294725
1.7937,0.3959,38.2700,86,90,294728
1.7546,0.3959,38.2400,86,90,294731
1.7546,0.4154,38.0200,86,90,294735
1.7449,0.4008,38.1800,86,90,294738
1.7840,0.3959,38.1500,86,90,294742
1.7986,0.4008,38.2100,86,90,294746
1.7742,0.3959,38.2100,86,90,294749
1.7546,0.4057,37.9900,86,90,294752
1.7107,0.3959,38.1800,86,90,294756
1.7546,0.4008,38.0800,86,90,294759
1.7889,0.3959,38.2100,86,90,294762
1.8133,0.3910,38.2100,86,90,294765
1.8182,0.4057,38.0800,86,90,294769
1.7546,0.4008,38.2400,86,90,294772
1.7595,0.4106,38.1100,86,90,294775
1.7693,0.3910,38.2400,86,90,294779
1.8133,0.4154,38.2100,86,90,294782
1.8426,0.3959,38.1100,86,90,294786
1.7986,0.3959,38.1800,86,90,294790
1.7791,0.3910,38.0500,86,90,294793
1.7449,0.3959,38.3300,86,90,294796
1.8182,0.4008,38.2400,86,90,294799
1.8573,0.4008,38.2100,86,90,294803
1.8475,0.3959,38.1800,86,90,294806
1.8475,0.4057,37.9300,86,90,294809
1.7742,0.4203,38.1800,86,90,294813
1.7449,0.3959,38.2400,86,90,294816
1.7937,0.3959,38.1800,86,90,294819
1.8182,0.3959,38.2100,86,90,294823
1.8768,0.4154,37.9300,86,90,294827
1.8035,0.4008,38.0800,86,90,294830
1.7400,0.3910,38.1800,86,90,294834
1.7449,0.3959,38.2700,86,90,294837
1.7791,0.3959,38.2400,86,90,294840
1.8719,0.4106,38.0800,86,90,294843
1.8475,0.4008,38.3000,86,90,294847
1.8035,0.3959,38.0800,86,90,294850
1.7644,0.4008,38.2100,86,90,294853
1.7693,0.3959,38.2400,86,90,294857
1.8377,0.4106,38.1100,86,90,294860
1.8915,0.3959,38.2100,86,90,294863
1.8671,0.3959,38.0800,86,90,294866
1.8035,0.3959,38.2100,86,90,294871
1.7693,0.3959,38.2400,86,90,294874
1.8035,0.4252,38.0500,86,90,294877
1.8280,0.3959,37.3700,86,90,294881
1.8866,0.4350,38.1100,86,90,294884
1.8524,0.3910,38.1800,86,90,294887
1.7986,0.3959,38.2400,86,90,294891
1.7791,0.3959,38.0500,86,90,294894
1.7644,0.3959,38.2400,86,90,294897
1.8328,0.4008,37.9600,86,90,294901
1.8426,0.3910,38.1800,86,90,294904
1.8377,0.3959,38.2400,86,90,294907
1.8084,0.4106,38.1100,86,90,294910
1.7595,0.3910,38.2400,86,90,294915
1.8084,0.4057,37.9300,86,90,294918
1.8182,0.3959,38.1800,86,90,294921
1.8524,0.3861,38.2400,86,90,294925
1.8475,0.4008,38.1800,86,90,294928
1.7937,0.3959,38.2100,86,90,294931
1.8133,0.4106,37.9900,86,90,294935
1.7986,0.3959,38.1500,86,90,294938
1.8377,0.3910,38.2100,86,90,294941
1.8671,0.3959,38.2100,86,90,294945
1.8328,0.3959,38.2100,86,90,294948
1.8377,0.4106,38.0500,86,90,294951
1.8719,0.4057,38.1500,86,90,294957
1.8133,0.3959,38.2100,86,90,294960
1.8231,0.4057,38.0800,86,90,294963
1.8328,0.3959,38.2100,86,90,294967
1.8768,0.3910,38.2100,86,90,294970
1.9013,0.3959,38.1100,86,90,294973
1.8475,0.3959,38.2400,86,90,294977
1.8133,0.3959,38.0500,86,90,294980
1.7742,0.3959,38.3000,86,90,294983
1.8133,0.3861,38.2400,86,90,294987
1.8817,0.4008,38.1800,86,90,294990
1.8866,0.3910,38.2100,86,90,294993
1.8622,0.3861,37.9600,86,90,294998
1.7986,0.4008,38.3300,86,90,295001
1.7840,0.4008,38.2400,86,90,295004
1.8524,0.4008,38.2100,86,90,295007
1.8915,0.3959,38.2100,86,90,295011
1.9501,0.4057,37.9000,86,90,295014
1.8817,0.4008,38.0200,86,90,295017
1.8182,0.3910,38.1500,86,90,295021
1.8182,0.3910,38.1800,86,90,295024
1.8231,0.3959,38.2400,86,90,295027
1.9159,0.4203,38.0500,86,90,295031
1.8817,0.4008,38.1500,86,90,295034
1.8182,0.3959,38.5500,86,90,295037
1.7889,0.3910,38.2100,86,90,295041
1.7449,0.3959,38.3300,86,90,295045
1.7986,0.4057,38.1100,86,90,295048
1.8084,0.3959,38.2100,86,90,295051
1.8231,0.4008,38.0500,86,90,295055
1.7791,0.3910,38.2100,86,90,295058
1.7449,0.3959,38.2100,86,90,295061
1.7937,0.4057,38.1100,86,90,295065
1.8133,0.3959,38.2100,86,90,295068
1.8817,0.4057,38.1100,86,90,295071
1.8524,0.3910,38.1800,86,90,295075
1.7937,0.3959,38.2400,86,90,295078
1.7889,0.3959,38.0800,86,90,295081
1.7742,0.3861,38.1800,86,90,295085
1.8426,0.4008,37.9900,86,90,295089
1.8524,0.3959,38.1500,86,90,295092
1.8280,0.3959,38.2100,86,90,295095
1.7889,0.4008,38.1800,86,90,295099
1.7400,0.3959,38.2100,86,90,295102
1.7840,0.4057,38.0200,86,90,295105
1.7937,0.3910,38.1800,86,90,295109
1.8231,0.3959,38.2100,86,90,295112
1.8133,0.3959,38.2100,86,90,295115
1.7644,0.3959,38.2100,86,90,295118
1.7840,0.4106,37.8300,86,90,295122
1.7791,0.4057,38.1500,86,90,295126
1.8182,0.3910,38.1800,86,90,295129
1.8524,0.3910,38.2100,86,90,295133
1.8426,0.3959,38.2100,86,90,295136
1.8671,0.4154,37.9600,86,90,295139
1.8377,0.4057,38.1500,86,90,295143
1.8475,0.3959,38.1100,86,90,295146
1.8866,0.3861,38.2100,86,90,295149
1.9355,0.3910,38.2400,86,90,295153
1.9990,0.4057,38.0500,86,90,295156
2.0235,0.4008,38.2100,86,90,295159
2.0821,0.3959,38.0800,86,90,295162
2.0821,0.3861,38.2400,86,90,295166
2.0772,0.4399,38.2400,86,90,295170
1.9990,0.3959,38.1800,86,90,295173
1.8084,0.3959,38.3000,86,90,295177
1.6080,0.4057,38.0800,86,90,295180
1.4174,0.3910,38.2400,86,90,295183
1.4076,0.3959,38.2400,86,90,295186
1.5249,0.4057,37.9000,86,90,295190
1.6618,0.3910,38.2400,86,90,295193
1.7253,0.3959,38.0500,86,90,295196
1.7595,0.3959,38.0800,86,90,295200
1.8035,0.4008,38.2700,86,90,295203
1.8915,0.4008,38.0500,86,90,295206
1.9257,0.3959,38.2100,86,90,295211
1.9697,0.4057,37.9600,86,90,295214
1.9013,0.4008,38.1500,86,90,295217
1.8475,0.3959,38.2400,86,90,295220
1.8524,0.4301,38.1500,86,90,295224
1.8719,0.3959,38.2700,86,90,295227
1.9550,0.4057,38.0800,86,90,295230
1.9110,0.4008,38.1100,86,90,295234
1.8622,0.3959,38.2400,86,90,295237
1.8280,0.4008,38.4300,86,90,295240
1.8280,0.3959,38.2400,86,90,295244
1.9208,0.4154,37.4000,86,90,295247
1.9208,0.3959,38.2100,86,90,295250
1.9110,0.3910,38.1800,86,90,295254
1.8719,0.3959,38.3000,86,90,295258
1.8182,0.4203,38.2400,86,90,295261
1.8622,0.4057,37.9900,86,90,295264
1.8817,0.3910,38.1500,86,90,295268
1.9159,0.4008,38.1100,86,90,295271
1.8915,0.3959,38.2700,86,90,295274
1.8426,0.4154,38.3000,86,90,295278
1.8377,0.4057,38.0800,86,90,295281
1.8280,0.3959,37.3400,86,90,295284
1.8915,0.4203,38.0500,86,90,295288
1.9159,0.3959,38.2400,86,90,295291
1.8964,0.3959,38.2400,86,90,295294
1.8573,0.3959,38.1100,86,90,295298
1.8182,0.3959,38.2700,86,90,295302
1.8622,0.4106,38.0800,86,90,295305
1.8866,0.3959,38.2400,86,90,295308
1.9257,0.3959,38.2100,86,90,295312
1.9355,0.4008,38.1800,86,90,295315
1.8768,0.3959,38.2400,86,90,295318
1.8817,0.3959,37.9600,86,90,295322
1.8817,0.4008,38.1100,86,90,295325
1.9208,0.3959,38.2100,86,90,295328
1.9697,0.4057,38.1500,86,90,295331
1.9355,0.3959,38.1800,86,90,295335
1.9404,0.4057,37.9600,86,90,295339
1.8719,0.3959,38.3600,86,90,295342
1.8964,0.3959,38.2400,86,90,295346
1.9550,0.4008,38.2100,86,90,295349
1.9844,0.4008,38.2400,86,90,295352
2.0381,0.4154,37.9600,86,90,295356
1.9404,0.4008,38.0500,86,90,295359
1.9159,0.3910,38.2400,86,90,295362
1.9501,0.3910,38.2400,86,90,295366
2.0088,0.3959,38.2100,86,90,295369
2.0870,0.4154,38.0200,86,90,295372
2.0381,0.3910,38.2100,86,90,295375
2.0186,0.3959,38.1100,86,90,295379
2.0039,0.3959,38.2100,86,90,295383
2.0430,0.3959,38.2100,86,90,295386
2.1408,0.4057,38.0800,86,90,295390
2.1359,0.4252,38.1800,86,90,295393
2.1554,0.4057,38.0800,86,90,295396
2.0577,0.3959,38.2400,86,90,295399
2.0479,0.3959,38.2400,86,90,295403
2.1114,0.3959,38.1100,86,90,295406
2.1359,0.3959,38.1800,86,90,295409
2.1603,0.4008,38.0800,86,90,295413
2.0821,0.4106,38.2100,86,90,295416
2.0479,0.3959,38.2400,86,90,295419
1.9892,0.4008,38.0800,86,90,295424
1.9941,0.3959,38.1800,86,90,295427
2.0332,0.3959,38.0500,86,90,295430
1.9746,0.3959,38.2400,86,90,295433
1.8964,0.4106,38.2100,86,90,295437
1.8377,0.4106,38.1500,86,90,295440
1.7742,0.4057,38.2100,86,90,295443
1.8133,0.4057,37.9600,86,90,295447
1.7937,0.4008,38.1100,86,90,295450
1.7498,0.4008,38.2400,86,90,295453
1.7058,0.4008,38.4000,86,90,295457
1.6276,0.3959,38.2100,86,90,295460
1.6520,0.4057,37.9300,86,90,295463
1.6520,0.4008,38.1100,86,90,295468
1.6716,0.3959,38.1800,86,90,295471
1.6667,0.3861,38.2100,86,90,295474
1.6178,0.4008,38.1800,86,90,295477
1.6325,0.4106,38.0200,86,90,295481
1.5934,0.4008,38.1500,86,90,295484
1.6373,0.3959,38.1100,86,90,295487
1.6813,0.3959,38.2100,86,90,295491
1.6813,0.4106,38.3000,86,90,295494
1.6716,0.3861,38.1100,86,90,295497
1.6227,0.4008,38.2100,86,90,295501
1.6813,0.4008,38.0800,86,90,295504
1.6764,0.3959,38.2400,86,90,295507
1.7155,0.4252,38.2100,86,90,295511
1.7351,0.4057,38.0500,86,90,295515
1.6716,0.4008,38.2100,86,90,295518
1.6618,0.4106,38.1100,86,90,295521
1.6422,0.3910,38.0800,86,90,295525
1.6960,0.4057,38.2400,86,90,295528
1.7546,0.4008,38.0800,86,90,295531
1.7253,0.3959,38.3300,86,90,295535
1.7058,0.4057,38.0500,86,90,295538
1.6618,0.3861,38.1800,86,90,295541
1.6862,0.3959,38.2400,86,90,295545
1.7498,0.4057,38.1100,86,90,295548
1.7546,0.3959,38.2400,86,90,295552
1.7840,0.4301,37.9600,86,90,295555
1.6960,0.3910,38.2400,86,90,295559
1.6716,0.4008,38.2100,86,90,295562
1.7107,0.4008,38.1800,86,90,295565
1.7155,0.3959,38.2100,86,90,295570
1.7449,0.3959,38.2400,86,90,295573
1.8328,0.4057,38.0200,86,90,295577
1.8426,0.4154,38.1800,86,90,295580
1.8231,0.4008,38.0800,86,90,295583
1.7546,0.3959,38.1800,86,90,295587
1.7498,0.4057,38.2100,86,90,295590
1.8133,0.4057,38.1500,86,90,295593
1.8426,0.4057,38.2400,86,90,295598
1.8866,0.4057,38.0800,86,90,295601
1.8133,0.3959,38.2700,86,90,295604
1.7693,0.3910,38.2400,86,90,295607
1.7742,0.3959,38.1800,86,90,295611
1.8035,0.4252,38.2100,86,90,295614
1.8768,0.4008,38.0200,86,90,295617
1.8524,0.3959,38.2400,86,90,295621
1.8182,0.3959,38.2400,86,90,295624
1.7937,0.4057,38.1100,86,90,295627
1.7889,0.3959,38.2100,86,90,295631
1.8377,0.4057,37.9600,86,90,295634
1.8524,0.3959,38.1100,86,90,295638
1.8426,0.3959,38.2400,86,90,295641
1.8133,0.4350,38.2100,86,90,295645
1.7693,0.3959,38.2100,86,90,295648
1.8133,0.4106,37.9600,86,90,295651
1.8280,0.4008,38.0800,86,90,295655
1.8573,0.3861,38.2100,86,90,295658
1.8573,0.3959,38.1800,86,90,295661
1.8280,0.3910,38.2400,86,90,295665
1.8182,0.4154,38.0200,86,90,295668
1.7840,0.4252,38.0500,86,90,295671
1.8182,0.4252,38.1500,86,90,295674
1.8524,0.3959,38.2100,86,90,295678
1.8426,0.4008,38.2400,86,90,295682
1.8231,0.4057,38.1100,86,90,295685
1.7693,0.4008,38.2100,86,90,295689
1.7986,0.4008,38.0800,86,90,295692
1.8328,0.3959,38.2400,86,90,295695
1.8719,0.3959,38.2400,86,90,295699
1.9013,0.4057,38.0500,86,90,295702
1.8231,0.3959,38.2100,86,90,295705
1.8280,0.4106,38.1100,86,90,295709
1.8231,0.3861,38.2100,86,90,295712
1.8866,0.4154,38.2100,86,90,295715
1.9501,0.4008,38.0800,86,90,295718
1.9257,0.3959,38.3000,86,90,295723
1.8915,0.3910,38.0200,86,90,295726
1.8328,0.3861,38.1800,86,90,295729
1.8328,0.4008,38.2100,86,90,295733
1.8964,0.4057,38.1500,86,90,295736
1.9013,0.3959,38.0800,86,90,295739
1.9013,0.4448,37.9300,86,90,295743
1.7986,0.3910,38.2100,86,90,295746
1.7644,0.3959,38.2400,86,90,295749
1.7889,0.4008,38.2100,86,90,295752
1.8084,0.4301,38.3300,86,90,295756
1.8671,0.4106,37.9000,86,90,295759
1.8084,0.4008,38.1100,86,90,295762
1.7546,0.3910,38.1500,86,90,295767
1.7546,0.3861,38.2100,86,90,295770
1.7840,0.3959,37.5900,86,90,295773
1.9013,0.4203,37.9900,86,90,295777
1.9013,0.4057,38.1100,86,90,295780
1.8573,0.4252,38.1100,86,90,295783
1.8133,0.3959,38.2100,86,90,295787
1.7937,0.3959,38.2400,86,90,295790
1.8524,0.4106,38.0500,86,90,295793
1.8817,0.3861,38.1800,86,90,295796
1.8915,0.4008,38.0800,86,90,295800
1.8280,0.4008,38.2100,86,90,295803
1.7840,0.3861,38.2400,86,90,295806
1.7889,0.4008,38.1500,86,90,295811
1.8475,0.3959,38.2400,86,90,295814
1.9013,0.4057,38.2700,86,90,295817
1.8817,0.3959,38.2100,86,90,295821
1.8524,0.3861,38.2100,86,90,295824
1.8280,0.4252,38.1100,86,90,295827
1.7986,0.3959,38.2100,86,90,295830
1.8475,0.4008,38.0800,86,90,295834
1.8719,0.3910,38.1500,86,90,295837
1.8866,0.3959,38.2100,86,90,295840
1.9013,0.4252,38.0500,86,90,295844
1.8377,0.3910,38.2100,86,90,295847
1.8573,0.4057,37.9600,86,90,295851
1.8622,0.4008,38.2400,86,90,295855
1.9110,0.3959,38.2100,86,90,295858
1.9892,0.4008,38.1800,86,90,295861
2.0283,0.3959,38.1500,86,90,295864
2.1261,0.4057,37.9300,86,90,295868
2.1017,0.3959,38.2100,86,90,295871
2.0919,0.4106,38.2100,86,90,295874
2.0577,0.3959,38.2100,86,90,295878
1.8524,0.3959,38.2100,86,90,295881
1.6862,0.4203,37.9900,86,90,295884
1.4370,0.4008,38.2100,86,90,295888
1.3832,0.3959,38.1100,86,90,295891
1.4907,0.3959,38.2100,86,90,295895
1.6520,0.3959,38.3600,86,90,295899
1.8182,0.4057,38.0200,86,90,295902
1.8622,0.4008,38.2100,86,90,295905
1.9013,0.4301,38.0800,86,90,295908
1.9208,0.3959,38.2100,86,90,295912
1.9599,0.3959,38.3300,86,90,295915
2.0186,0.3959,38.0500,86,90,295918
1.9599,0.3910,38.2400,86,90,295922
1.9404,0.4008,38.2100,86,90,295925
1.8719,0.4106,38.2100,86,90,295928
1.8964,0.3861,38.2100,86,90,295932
1.9453,0.4203,38.1100,86,90,295936
1.9795,0.3959,38.2100,86,90,295939
1.9648,0.3959,37.4300,86,90,295942
1.8866,0.3861,38.2400,86,90,295946
1.8524,0.3959,38.2700,86,90,295949
1.8915,0.3959,38.1500,86,90,295952
1.9355,0.3959,38.1800,86,90,295956
2.0088,0.4008,37.9900,86,90,295959
1.9648,0.3959,38.1100,86,90,295962
1.8866,0.3959,38.2700,86,90,295966
1.8866,0.4057,38.1500,86,90,295969
1.8866,0.3959,38.2100,86,90,295972
1.9892,0.4252,37.9300,86,90,295976
1.9795,0.4008,38.0800,86,90,295980
1.9404,0.3910,38.3000,86,90,295983
1.8915,0.4057,38.1800,86,90,295986
1.8573,0.3959,38.2400,86,90,295990
1.9501,0.4252,37.9900,86,90,295993
1.9746,0.4008,38.1500,86,90,295996
1.9795,0.3959,38.1500,86,90,296000
1.9404,0.3959,38.2100,86,90,296003
1.8915,0.3959,38.2100,86,90,296006
1.9404,0.3959,38.1100,86,90,296010
1.9062,0.3959,38.2100,86,90,296013
1.9648,0.4008,38.1100,86,90,296016
1.9599,0.3959,38.2100,86,90,296020
1.9208,0.3910,38.1500,86,90,296024
1.9257,0.4057,38.0500,86,90,296027
1.8817,0.3959,38.2100,86,90,296030
1.9404,0.4203,38.0800,86,90,296034
1.9599,0.3910,38.2100,86,90,296037
1.9844,0.3861,38.2400,86,90,296040
1.9941,0.3959,38.0800,86,90,296044
1.9355,0.3959,38.2100,86,90,296047
1.9501,0.4008,38.4600,86,90,296050
1.9746,0.3861,38.1800,86,90,296054
2.0283,0.3959,38.2400,86,90,296057
2.0626,0.4008,38.1100,86,90,296060
2.0137,0.3959,38.2100,86,90,296064
2.0235,0.4008,37.9900,86,90,296068
1.9990,0.3959,38.2400,86,90,296071
2.0674,0.4008,38.2100,86,90,296074
2.1261,0.3861,38.1800,86,90,296078
2.1359,0.4203,38.2400,86,90,296081
2.1603,0.4106,37.9300,86,90,296084
2.1017,0.4008,38.1100,86,90,296088
2.0968,0.4008,38.2400,86,90,296091
2.1603,0.4008,38.1800,86,90,296094
2.1848,0.3910,38.3000,86,90,296097
2.2336,0.4154,37.9900,86,90,296101
2.1554,0.3861,38.1100,86,90,296104
2.0968,0.3910,38.1500,86,90,296108
2.1065,0.4008,38.2100,86,90,296112
2.1359,0.3910,38.2100,86,90,296115
2.1994,0.4057,38.0500,86,90,296118
2.1359,0.4057,38.1500,86,90,296122
2.0577,0.3959,38.1800,86,90,296125
1.9795,0.3861,38.2100,86,90,296128
1.9550,0.4057,38.2100,86,90,296131
1.9795,0.4057,38.1800,86,90,296135
1.9453,0.3959,38.0500,86,90,296138
1.9062,0.4106,38.0500,86,90,296141
1.7986,0.3861,38.2100,86,90,296145
1.7302,0.3959,38.1800,86,90,296148
1.7546,0.4057,38.0800,86,90,296152
1.7449,0.3959,38.2100,86,90,296156
1.7693,0.4008,38.0800,86,90,296159
1.6960,0.3910,38.1800,86,90,296162
1.6373,0.3959,38.2400,86,90,296165
1.6227,0.4008,38.0500,86,90,296169
1.6227,0.3861,38.2100,86,90,296172
1.6911,0.4008,37.4600,86,90,296175
1.6862,0.4106,37.9600,86,90,296180
1.7155,0.3959,38.1100,86,90,296183
1.7351,0.3910,38.2100,86,90,296187
1.7253,0.3910,38.2100,86,90,296190
1.6862,0.3959,38.2400,86,90,296194
1.7253,0.4154,38.0200,86,90,296198
1.7302,0.4008,38.1500,86,90,296201
1.7595,0.3959,38.1500,86,90,296204
1.7693,0.4008,38.3000,86,90,296207
1.7400,0.3959,38.2400,86,90,296211
1.7302,0.3861,38.0500,86,90,296214
1.7009,0.4008,38.1500,86,90,296217
1.7400,0.3910,38.1800,86,90,296221
1.7742,0.3861,38.2100,86,90,296224
1.7840,0.3910,38.2100,86,90,296227
1.7937,0.4057,38.0500,86,90,296231
1.7253,0.3959,38.2100,86,90,296235
1.7449,0.4057,38.1100,86,90,296238
1.7937,0.3959,38.2400,86,90,296241
1.7986,0.3959,38.4600,86,90,296245
1.8231,0.4008,38.1100,86,90,296248
1.7449,0.3959,38.2100,86,90,296251
1.7155,0.3959,38.0200,86,90,296255
1.6960,0.3959,38.2100,86,90,296258
1.7449,0.3910,38.2700,86,90,296261
1.8524,0.4057,38.0800,86,90,296265
1.7986,0.3959,38.1800,86,90,296268
1.7937,0.4057,38.0500,86,90,296271
1.7400,0.4008,38.1100,86,90,296275
1.7302,0.3861,38.2100,86,90,296279
1.7986,0.3959,38.1500,86,90,296282
1.8328,0.3861,38.2400,86,90,296285
1.8768,0.4301,37.9300,86,90,296289
1.7986,0.4008,38.1100,86,90,296292
1.7400,0.3910,38.1800,86,90,296295
1.7546,0.3959,38.2100,86,90,296299
1.7986,0.3959,38.2400,86,90,296302
1.8915,0.4203,37.9900,86,90,296305
1.8475,0.4008,38.1500,86,90,296309
1.7986,0.4008,38.1500,86,90,296312
1.7840,0.4008,38.2100,86,90,296315
1.7693,0.3861,38.2400,86,90,296318
1.8524,0.4106,38.1100,86,90,296323
1.8671,0.4008,38.2100,86,90,296326
1.8573,0.3959,38.2400,86,90,296329
1.7889,0.3959,38.2400,86,90,296333
1.7693,0.3959,38.3000,86,90,296336
1.8280,0.4008,38.0800,86,90,296339
1.8622,0.3959,38.2700,86,90,296343
1.9013,0.4106,38.0800,86,90,296346
1.8622,0.3910,38.2100,86,90,296349
1.7986,0.3959,38.2400,86,90,296353
1.7840,0.4008,38.0800,86,90,296356
1.7937,0.3959,38.2100,86,90,296359
1.8719,0.3959,38.0500,86,90,296363
1.8768,0.3910,38.2400,86,90,296367
1.8622,0.3959,38.2100,86,90,296370
1.8280,0.4008,38.0800,86,90,296373
1.7937,0.4203,38.2100,86,90,296377
1.8524,0.4057,37.9600,86,90,296380
1.8671,0.3910,38.2100,86,90,296383
1.8915,0.3959,38.2100,86,90,296387
1.8817,0.4008,38.1800,86,90,296390
1.8280,0.4008,38.2100,86,90,296393
1.8573,0.4057,37.9300,86,90,296396
1.8573,0.4008,38.1100,86,90,296400
1.9013,0.3959,38.2100,86,90,296403
1.9404,0.4008,38.3300,86,90,296407
1.9110,0.4008,38.1800,86,90,296411
1.9159,0.4203,37.9900,86,90,296414
1.8622,0.4057,37.2800,86,90,296417
1.8671,0.3959,38.1500,86,90,296421
1.9062,0.3861,38.2100,86,90,296424
1.9062,0.3959,38.2400,86,90,296427
1.9062,0.3959,38.0800,86,90,296430
1.8133,0.4008,38.1800,86,90,296434
1.8035,0.3959,38.0800,86,90,296437
1.8182,0.3959,38.3000,86,90,296440
1.8475,0.3910,38.1800,86,90,296444
1.8622,0.3910,38.1800,86,90,296448
1.8084,0.3861,38.2400,86,90,296451
1.7937,0.4057,38.0800,86,90,296455
1.7791,0.3861,38.2100,86,90,296458
1.8280,0.3959,38.1100,86,90,296461
1.9062,0.4008,38.1100,86,90,296464
1.8866,0.3959,38.2100,86,90,296468
1.8622,0.3959,38.1100,86,90,296471
1.7986,0.3959,38.1500,86,90,296474
1.7889,0.3959,38.2700,86,90,296478
1.8573,0.4008,38.0500,86,90,296481
1.8719,0.3861,38.2100,86,90,296484
1.8915,0.4008,37.9900,86,90,296488
1.8231,0.3959,38.1500,86,90,296492
1.7791,0.3959,38.2400,86,90,296495
1.7937,0.4252,38.1500,86,90,296499
1.8280,0.3959,38.2100,86,90,296502
1.9110,0.4057,37.1000,86,90,296505
1.8622,0.3959,38.1500,86,90,296508
1.8182,0.3959,38.6800,86,90,296512
1.7889,0.4154,38.1800,86,90,296515
1.7986,0.3861,38.3300,86,90,296518
1.9013,0.4203,37.9900,86,90,296522
1.8964,0.3861,38.1800,86,90,296525
1.8866,0.3910,38.1500,86,90,296528
1.8475,0.3959,38.2100,86,90,296532
1.8328,0.3959,38.2400,86,90,296536
1.8915,0.4008,38.0200,86,90,296539
1.9159,0.4008,37.8000,86,90,296543
1.9355,0.3959,38.0500,86,90,296546
1.9159,0.3959,38.2100,86,90,296549
1.9208,0.3959,38.2400,86,90,296552
2.0283,0.4057,38.0800,86,90,296556
2.1310,0.4008,38.2100,86,90,296559
2.2434,0.4008,38.0800,86,90,296562
2.2287,0.3910,38.2400,86,90,296566
2.1212,0.3959,38.2400,86,90,296569
1.9453,0.3910,38.1500,86,90,296572
1.7155,0.3959,38.2700,86,90,296576
1.6080,0.4106,38.0800,86,90,296580
1.5103,0.3861,38.2400,86,90,296583
1.5640,0.3959,38.2100,86,90,296586
1.6862,0.4008,38.1800,86,90,296590
1.7204,0.3959,38.3000,86,90,296593
1.8182,0.4008,37.9900,86,90,296596
1.8866,0.4057,38.0800,86,90,296600
1.9648,0.3959,38.2400,86,90,296603
2.0186,0.4203,38.1500,86,90,296606
1.9550,0.3910,38.2100,86,90,296609
1.9453,0.4057,37.9600,86,90,296613
1.8915,0.4008,38.1800,86,90,296616
1.9257,0.3959,38.2400,86,90,296620
1.9648,0.4008,38.0800,86,90,296624
1.9648,0.4350,38.2400,86,90,296627
2.0186,0.4106,37.9300,86,90,296630
1.9013,0.4008,38.0800,86,90,296634
1.8817,0.3959,38.2400,86,90,296637
1.9208,0.3959,38.2100,86,90,296640
1.9648,0.3959,38.2100,86,90,296644
2.0235,0.4106,38.0800,86,90,296647
1.9501,0.3959,38.2100,86,90,296650
1.9110,0.3959,38.0800,86,90,296653
1.8964,0.3861,38.2400,86,90,296657
1.9355,0.3959,38.1100,86,90,296660
2.0235,0.4057,38.0500,86,90,296664
2.0039,0.4008,38.2100,86,90,296668
1.9697,0.4008,38.0800,86,90,296671
1.9013,0.3959,38.2100,86,90,296674
1.8964,0.4154,38.2400,86,90,296677
1.9648,0.4057,38.1100,86,90,296681
1.9844,0.3959,38.1800,86,90,296684
2.0137,0.4057,38.1100,86,90,296687
1.9404,0.3959,38.2100,86,90,296691
1.9013,0.3959,38.2400,86,90,296694
1.9159,0.4008,38.1100,86,90,296697
1.9501,0.3959,38.0500,86,90,296701
2.0235,0.4203,38.1100,86,90,296705
1.9990,0.3861,38.2100,86,90,296708
1.9648,0.3959,38.2400,86,90,296711
1.9453,0.4008,38.1800,86,90,296715
1.9453,0.3959,38.2400,86,90,296718
2.0332,0.4106,37.9600,86,90,296721
2.0528,0.4057,38.1500,86,90,296725
2.0332,0.3910,38.2400,86,90,296728
2.0088,0.3959,38.1800,86,90,296731
1.9648,0.3959,38.2400,86,90,296735
2.0235,0.4106,38.0500,86,90,296738
2.0577,0.4008,38.1100,86,90,296741
2.0674,0.3959,38.2100,86,90,296744
2.0772,0.4008,38.1800,86,90,296749
2.0332,0.3959,38.3000,86,90,296752
2.0626,0.4154,37.9600,86,90,296755
2.0479,0.4008,38.1500,86,90,296759
2.0968,0.3959,38.1500,86,90,296762
2.1505,0.3959,38.2100,86,90,296765
2.1457,0.3959,38.1800,86,90,296769
2.1603,0.4057,38.1100,86,90,296772
2.0968,0.3959,38.2100,86,90,296775
2.1310,0.3959,38.1500,86,90,296778
2.1799,0.3959,38.2400,86,90,296782
2.2141,0.3959,37.6500,86,90,296785
2.2336,0.4057,38.0200,86,90,296788
2.2287,0.4008,38.1100,86,90,296794
2.1701,0.3959,38.2100,86,90,296797
2.1408,0.4008,38.0200,86,90,296801
2.0772,0.4008,38.1100,86,90,296804
2.0919,0.4008,38.2100,86,90,296807
2.1163,0.4057,38.1500,86,90,296811
2.0723,0.3959,38.2100,86,90,296814
2.0723,0.4057,37.9600,86,90,296817
1.9062,0.3861,38.2400,86,90,296820
1.8524,0.4008,38.2400,86,90,296824
1.8622,0.4008,38.1800,86,90,296827
1.8573,0.3910,38.2100,86,90,296830
1.8866,0.4106,37.9300,86,90,296835
1.7937,0.4008,38.1100,86,90,296838
1.7155,0.4106,38.1800,86,90,296841
1.6960,0.3959,38.2100,86,90,296845
1.7253,0.3861,38.2400,86,90,296848
1.8035,0.4106,38.0200,86,90,296851
1.7840,0.4057,38.1100,86,90,296855
1.7302,0.4008,38.1100,86,90,296858
1.6813,0.3959,38.2100,86,90,296861
1.6716,0.3959,38.1800,86,90,296864
1.7400,0.3861,38.0500,86,90,296868
1.7644,0.4008,38.4600,86,90,296871
1.7791,0.4154,38.1100,86,90,296875
1.7253,0.3959,38.2400,86,90,296879
1.6960,0.4008,38.2100,86,90,296882
1.7107,0.3959,38.1800,86,90,296885
1.7498,0.3959,38.3000,86,90,296889
1.8182,0.3959,38.1800,86,90,296892
1.7986,0.3959,38.3000,86,90,296895
1.7644,0.3910,38.2400,86,90,296899
1.7546,0.4057,38.0800,86,90,296902
1.7400,0.4301,38.2400,86,90,296905
1.8084,0.3910,38.0200,86,90,296908
1.8475,0.3959,38.1100,86,90,296912
1.8328,0.3959,38.2700,86,90,296915
1.8035,0.4057,38.1100,86,90,296919
1.7546,0.3959,38.4300,86,90,296923
1.8035,0.4252,37.9600,86,90,296926
1.8280,0.3959,38.1500,86,90,296929
1.8573,0.3959,38.2400,86,90,296933
1.8622,0.4008,38.2100,86,90,296936
1.8035,0.3959,38.2100,86,90,296939
1.8182,0.4350,37.9300,86,90,296942
1.7986,0.4057,38.1100,86,90,296946
1.8426,0.3959,38.2400,86,90,296949
1.8817,0.3959,38.2100,86,90,296952
1.8671,0.3959,38.2100,86,90,296956
1.8719,0.3861,38.0500,86,90,296960
1.8231,0.4057,38.1800,86,90,296963
1.8426,0.4203,38.1800,86,90,296967
1.8915,0.3959,38.2400,86,90,296970
1.9159,0.4106,38.2100,86,90,296973
1.9355,0.4057,38.0500,86,90,296977
1.8622,0.3959,38.1800,86,90,296980
1.8475,0.3959,38.1800,86,90,296983
1.8573,0.3959,38.2100,86,90,296986
1.9110,0.3959,38.2100,86,90,296990
1.9648,0.4057,38.1100,86,90,296993
1.9159,0.3959,38.2700,86,90,296996
1.8915,0.4057,38.0800,86,90,297000
1.8475,0.3910,38.1800,86,90,297004
1.8817,0.3959,38.2700,86,90,297007
1.9550,0.3959,38.1100,86,90,297011
1.9550,0.3959,38.2400,86,90,297014
1.9550,0.4203,38.0200,86,90,297017
1.8768,0.3959,38.2100,86,90,297020
1.8573,0.3959,38.2100,86,90,297024
1.9110,0.4057,38.1500,86,90,297027
1.9404,0.3959,38.1100,86,90,297030
1.9941,0.4057,37.9600,86,90,297034
1.9404,0.4008,38.1100,86,90,297037
1.8768,0.3959,38.2100,86,90,297040
1.8817,0.4008,38.1800,86,90,297044
1.9013,0.3959,38.3000,86,90,297048
1.9990,0.4252,37.9600,86,90,297051
1.9746,0.4008,38.0800,86,90,297055
1.9208,0.3910,38.2400,86,90,297058
1.8768,0.3959,38.1800,86,90,297061
1.8719,0.3910,38.2400,86,90,297064
1.9648,0.4154,38.0200,86,90,297068
1.9844,0.4008,38.1800,86,90,297071
1.9941,0.4008,38.1100,86,90,297074
1.9453,0.3959,38.3300,86,90,297078
1.9013,0.3959,38.2100,86,90,297081
1.9404,0.4057,38.1500,86,90,297084
1.9697,0.4057,38.1800,86,90,297089
2.0332,0.4008,38.0800,86,90,297092
2.0137,0.3959,38.2700,86,90,297095
1.9746,0.3959,38.2100,86,90,297098
1.9990,0.4057,38.0500,86,90,297102
1.9746,0.3959,38.2100,86,90,297105
2.0479,0.4057,38.1100,86,90,297108
2.0626,0.3910,38.1800,86,90,297112
2.0430,0.3959,38.2400,86,90,297115
1.9941,0.4203,38.1100,86,90,297118
1.9550,0.3959,38.2100,86,90,297121
1.9355,0.4008,38.0500,86,90,297125
1.9404,0.3910,38.1500,86,90,297128
1.9746,0.3959,38.2400,86,90,297132
1.9844,0.4008,38.0800,86,90,297136
1.9013,0.3861,38.2400,86,90,297139
1.8866,0.4008,38.1100,86,90,297142
1.8475,0.3910,38.2100,86,90,297146
1.8964,0.3959,38.2400,86,90,297149
1.9453,0.4301,38.1800,86,90,297152
1.9257,0.3959,38.2400,86,90,297155
1.9306,0.4106,37.9300,86,90,297159
1.8964,0.3959,38.1500,86,90,297162
1.8719,0.3959,38.3300,86,90,297165
1.9306,0.3959,38.1800,86,90,297169
1.9550,0.3959,38.2100,86,90,297172
2.0088,0.4154,38.0200,86,90,297176
1.9599,0.4057,38.1100,86,90,297180
1.8768,0.3861,38.1800,86,90,297183
1.8964,0.3959,38.1800,86,90,297186
1.9746,0.3910,38.2400,86,90,297190
2.0137,0.4057,38.1500,86,90,297193
1.9990,0.4057,38.1800,86,90,297196
1.9453,0.4008,38.1100,86,90,297199
1.8964,0.3959,38.2700,86,90,297203
1.9159,0.3959,38.2400,86,90,297206
1.9844,0.4008,38.1500,86,90,297209
1.9941,0.4057,38.2100,86,90,297213
2.0137,0.3959,38.0800,86,90,297217
1.9208,0.3959,38.1500,86,90,297220
1.8964,0.3959,38.2100,86,90,297224
1.9599,0.3861,38.0800,86,90,297227
1.9990,0.3812,38.2100,86,90,297230
2.0674,0.3959,38.0500,86,90,297233
2.0137,0.3959,38.1500,86,90,297237
1.9550,0.3959,38.1100,86,90,297240
1.9550,0.4057,38.0500,86,90,297243
1.9795,0.3959,38.2100,86,90,297247
2.1261,0.4008,37.9600,86,90,297250
2.2043,0.3910,38.1100,86,90,297253
2.2287,0.3959,38.2100,86,90,297257
2.2190,0.4057,37.5600,86,90,297261
2.1163,0.4106,38.2100,86,90,297264
2.0870,0.4057,37.9600,86,90,297267
1.9110,0.3910,38.1500,86,90,297271
1.7400,0.3959,38.2400,86,90,297274
1.5689,0.3959,38.2100,86,90,297277
1.5103,0.3910,38.2400,86,90,297281
1.6129,0.4057,37.9600,86,90,297284
1.7400,0.4008,38.1500,86,90,297287
1.8915,0.4203,38.1800,86,90,297291
1.9941,0.3959,38.2100,86,90,297294
2.0039,0.3959,38.2100,86,90,297297
2.0381,0.4106,38.0200,86,90,297300
2.0186,0.4057,38.1500,86,90,297305
2.0479,0.3959,38.0500,86,90,297308
2.0723,0.4252,38.2100,86,90,297311
2.0626,0.3959,38.2100,86,90,297315
2.0479,0.4057,38.0500,86,90,297318
1.9844,0.4008,38.4300,86,90,297321
1.9941,0.4008,38.0800,86,90,297324
2.0137,0.4008,38.3000,86,90,297328
2.0528,0.3959,38.2400,86,90,297331
2.0626,0.4008,38.1800,86,90,297334
2.0088,0.3959,38.2100,86,90,297338
1.9941,0.4106,38.0500,86,90,297341
1.9697,0.3959,38.2100,86,90,297345
2.0137,0.3959,38.2100,86,90,297349
2.0821,0.4057,38.1100,86,90,297352
2.0430,0.3959,38.4600,86,90,297355
2.0235,0.3910,38.0800,86,90,297358
1.9599,0.4008,38.1800,86,90,297362
1.9697,0.3959,38.2400,86,90,297365
2.0381,0.4057,38.0500,86,90,297368
2.0577,0.3910,38.2400,86,90,297372
2.0919,0.4008,37.9900,86,90,297375
2.0235,0.3959,38.1500,86,90,297378
1.9795,0.4301,38.2400,86,90,297382
2.0039,0.4057,38.1800,86,90,297385
2.0381,0.3959,38.2100,86,90,297389
2.1114,0.4057,37.9900,86,90,297392
2.0577,0.3861,38.1500,86,90,297396
2.0137,0.3959,38.3000,86,90,297399
1.9941,0.3910,38.2100,86,90,297402
2.0381,0.3959,38.2100,86,90,297406
2.0088,0.3959,38.2400,86,90,297409
2.0772,0.4057,38.0500,86,90,297413
2.1212,0.3959,38.2100,86,90,297416
2.1457,0.3861,38.1100,86,90,297419
2.1408,0.3910,38.2400,86,90,297423
2.0626,0.3959,38.2400,86,90,297426
2.0772,0.4057,38.0800,86,90,297430
2.0870,0.4154,38.1800,86,90,297433
2.2043,0.4057,38.1800,86,90,297437
2.1701,0.3861,38.2400,86,90,297440
2.1505,0.3959,38.2100,86,90,297443
2.1163,0.4008,38.1100,86,90,297447
2.1017,0.3959,38.2400,86,90,297450
2.1652,0.4008,38.0500,86,90,297453
2.2043,0.3959,38.2100,86,90,297457
2.2385,0.3959,38.2400,86,90,297460
2.2385,0.4057,38.1800,86,90,297463
2.1896,0.3861,38.2100,86,90,297466
2.2239,0.4057,37.9300,86,90,297470
2.2483,0.4008,38.1500,86,90,297474
2.2727,0.3861,38.2400,86,90,297477
2.3069,0.4008,38.1800,86,90,297481
2.2532,0.3959,38.2100,86,90,297484
2.2532,0.4057,38.0200,86,90,297487
2.2190,0.3910,38.0200,86,90,297491
2.2043,0.3861,38.2100,86,90,297494
2.2287,0.4008,38.3000,86,90,297497
2.1896,0.3959,38.2100,86,90,297500
2.1799,0.4106,37.9600,86,90,297504
2.0626,0.4008,38.1500,86,90,297507
2.0039,0.3959,38.1500,86,90,297510
1.9990,0.3910,38.2100,86,90,297515
1.9941,0.3959,38.3000,86,90,297518
2.0039,0.4154,38.0800,86,90,297521
1.9013,0.4057,38.1800,86,90,297525
1.8280,0.3959,38.1500,86,90,297528
1.7742,0.4008,38.2100,86,90,297531
1.7840,0.3910,38.2400,86,90,297534
1.8524,0.4057,38.1500,86,90,297538
1.8377,0.4008,38.2100,86,90,297541
1.7644,0.4008,38.0500,86,90,297544
1.6764,0.3959,38.2400,86,90,297548
1.6764,0.3959,38.2400,86,90,297551
1.7400,0.4057,38.1100,86,90,297554
1.7546,0.3959,38.1500,86,90,297559
1.8084,0.4008,38.0800,86,90,297562
1.7204,0.3910,38.2100,86,90,297565
1.6960,0.3959,38.2400,86,90,297568
1.7155,0.4008,38.1100,86,90,297572
1.7742,0.3959,38.2400,86,90,297575
1.8182,0.4008,37.9900,86,90,297578
1.7742,0.4008,38.2400,86,90,297582
1.7449,0.3959,38.2400,86,90,297585
1.7302,0.4008,38.1500,86,90,297588
1.7253,0.3959,38.2400,86,90,297592
1.7986,0.4057,37.9900,86,90,297595
1.8084,0.4008,38.1100,86,90,297598
1.7986,0.3861,38.2400,86,90,297602
1.7986,0.4008,38.1800,86,90,297606
1.7449,0.3861,38.2400,86,90,297609
1.8084,0.4154,37.9000,86,90,297612
1.8377,0.4008,38.0500,86,90,297616
1.8524,0.3910,38.2100,86,90,297619
1.8377,0.3959,38.2100,86,90,297622
1.8035,0.3959,38.2400,86,90,297626
1.8280,0.4154,38.0500,86,90,297629
1.8280,0.4008,38.1100,86,90,297632
1.8671,0.4057,38.1100,86,90,297635
1.8915,0.3959,38.2100,86,90,297639
1.8768,0.3959,38.2100,86,90,297643
1.8622,0.4057,38.1100,86,90,297646
1.8328,0.4008,38.2100,86,90,297650
1.8768,0.3959,38.0800,86,90,297653
1.9013,0.3959,38.4900,86,90,297656
1.9159,0.4203,38.2400,86,90,297660
1.9257,0.3861,38.0500,86,90,297663
1.8524,0.4301,38.1800,86,90,297666
1.8622,0.4057,38.1100,86,90,297670
1.8573,0.3910,38.1500,86,90,297673
1.9013,0.4008,38.2400,86,90,297676
1.9404,0.4008,38.2700,86,90,297679
1.9013,0.3959,38.2100,86,90,297683
1.8866,0.4008,38.0200,86,90,297687
1.8622,0.3959,38.1500,86,90,297690
1.8964,0.3959,38.2100,86,90,297694
1.9648,0.4057,38.1500,86,90,297697
1.9599,0.3959,38.3000,86,90,297700
1.9599,0.4008,37.9900,86,90,297704
1.8719,0.3910,38.1800,86,90,297707
1.8671,0.3959,38.2400,86,90,297710
1.9648,0.3959,38.1800,86,90,297713
1.9697,0.3959,38.2100,86,90,297717
2.0186,0.4057,37.9300,86,90,297720
1.9453,0.4008,38.1100,86,90,297723
1.8817,0.3910,38.2100,86,90,297728
1.8866,0.4008,38.2100,86,90,297731
1.9159,0.3959,38.1100,86,90,297734
1.9990,0.4643,38.0200,86,90,297738
1.9697,0.4057,38.2100,86,90,297741
1.9159,0.3959,38.1500,86,90,297744
1.8964,0.3959,38.2100,86,90,297748
1.8768,0.3959,38.2400,86,90,297751
1.9501,0.4008,38.0800,86,90,297754
1.9844,0.4008,38.2100,86,90,297757
1.9844,0.4008,38.0800,86,90,297761
1.9110,0.3959,38.0800,86,90,297764
1.8719,0.3959,38.2100,86,90,297767
1.8915,0.4008,38.2100,86,90,297772
1.9306,0.4057,38.2100,86,90,297775
1.9990,0.3959,38.1100,86,90,297778
1.9746,0.3959,38.2400,86,90,297782
1.9257,0.3959,38.2400,86,90,297785
1.9257,0.4057,38.1500,86,90,297788
1.9306,0.3959,38.2100,86,90,297791
2.0235,0.3861,38.0500,86,90,297795
2.0528,0.3959,38.1500,86,90,297798
2.0381,0.3959,38.2400,86,90,297801
2.0186,0.4057,38.1100,86,90,297805
1.9501,0.3959,38.3000,86,90,297808
1.9844,0.4057,37.9300,86,90,297811
1.9990,0.3861,38.1500,86,90,297816
2.0186,0.3959,38.1800,86,90,297819
2.0039,0.3959,38.1800,86,90,297822
1.9257,0.3959,38.2400,86,90,297825
1.9257,0.4057,37.9300,86,90,297829
1.8964,0.4008,38.1500,86,90,297832
1.9306,0.3910,38.3000,86,90,297835
1.9550,0.3959,38.2100,86,90,297839
1.9306,0.3959,38.3000,86,90,297842
1.9404,0.4154,37.9600,86,90,297845
1.8817,0.3959,38.1500,86,90,297849
1.9110,0.3959,38.1100,86,90,297852
1.9648,0.3959,38.2100,86,90,297856
1.9892,0.3959,38.2400,86,90,297859
1.9990,0.4057,38.0500,86,90,297863
1.9355,0.4008,38.1800,86,90,297866
1.9208,0.3959,38.1100,86,90,297869
1.9306,0.4057,38.2400,86,90,297873
1.9892,0.3959,38.2400,86,90,297876
2.0137,0.4057,37.3400,86,90,297879
1.9550,0.4154,38.2100,86,90,297883
1.9404,0.4106,38.0800,86,90,297886
1.8866,0.3959,38.2400,86,90,297889
1.9208,0.3959,38.2400,86,90,297892
1.9795,0.3959,38.1500,86,90,297896
1.9844,0.3959,38.2400,86,90,297900
1.9941,0.3959,38.0500,86,90,297903
1.9110,0.3959,38.2700,86,90,297907
1.9013,0.4008,38.2400,86,90,297910
1.9599,0.4008,38.1800,86,90,297913
1.9990,0.4008,38.2100,86,90,297917
2.0430,0.4106,37.9900,86,90,297920
1.9941,0.4008,38.1100,86,90,297923
1.9501,0.3861,38.2400,86,90,297926
1.9648,0.4057,38.1500,86,90,297930
1.9697,0.3861,38.2400,86,90,297933
2.0528,0.4106,38.1100,86,90,297936
2.0381,0.3861,38.1100,86,90,297940
2.0674,0.3959,38.2400,86,90,297944
2.1457,0.4057,38.1800,86,90,297947
2.2434,0.3959,38.2100,86,90,297951
2.3705,0.4154,37.9600,86,90,297954
2.3412,0.3861,38.1100,86,90,297957
2.2287,0.3910,38.1500,86,90,297961
2.0528,0.4008,38.2100,86,90,297964
1.7937,0.3959,38.2400,86,90,297967
1.6520,0.4057,38.1100,86,90,297970
1.5934,0.3959,38.2100,86,90,297974
1.6862,0.3959,38.1100,86,90,297977
1.8133,0.3959,38.2100,86,90,297980
1.8524,0.3959,38.2100,86,90,297985
1.9257,0.4057,38.0500,86,90,297988
1.9648,0.3959,38.2100,86,90,297991
2.0577,0.4057,38.0800,86,90,297995
2.0674,0.3910,38.2400,86,90,297998
2.0479,0.3959,38.2400,86,90,298001
2.0283,0.3959,38.1500,86,90,298004
1.9599,0.3959,38.2400,86,90,298008
1.9844,0.4008,38.0800,86,90,298011
2.0088,0.4057,37.9900,86,90,298014
1.9697,0.4008,38.1500,86,90,298018
2.0283,0.3959,38.2400,86,90,298021
2.0626,0.3959,38.2100,86,90,298025
2.0381,0.3959,38.2100,86,90,298029
2.0381,0.4203,37.9300,86,90,298032
1.9746,0.4008,38.1800,86,90,298036
1.9892,0.3861,38.6500,86,90,298039
2.0528,0.3959,38.2100,86,90,298042
2.0577,0.3861,38.2400,86,90,298045
2.0723,0.4106,38.1500,86,90,298049
1.9941,0.4008,38.1100,86,90,298052
1.9501,0.3861,38.1500,86,90,298055
1.9697,0.4057,38.2100,86,90,298059
2.0186,0.3959,38.2100,86,90,298062
2.0772,0.4057,38.0800,86,90,298065
2.0283,0.4008,37.8700,86,90,298070
1.9892,0.4057,38.0800,86,90,298073
1.9550,0.3959,38.2400,86,90,298076
1.9990,0.3959,38.2100,86,90,298079
2.0674,0.4008,38.1500,86,90,298083
2.0674,0.3861,38.2400,86,90,298086
2.0674,0.4057,38.0800,86,90,298089
1.9892,0.3959,38.2400,86,90,298093
1.9844,0.3861,38.2400,86,90,298096
2.0430,0.4057,38.1800,86,90,298099
2.0723,0.3959,38.2100,86,90,298103
2.1065,0.4008,38.0200,86,90,298106
2.0577,0.3959,38.1100,86,90,298109
2.0137,0.3910,38.2400,86,90,298113
2.0332,0.4008,38.2100,86,90,298117
2.0577,0.3959,38.1500,86,90,298120
2.1505,0.4106,37.9600,86,90,298123
2.1408,0.3959,38.1800,86,90,298127
2.0968,0.3959,38.3300,86,90,298130
2.0870,0.4057,38.1800,86,90,298133
2.0821,0.4008,38.2100,86,90,298137
2.1896,0.4106,37.9600,86,90,298140
2.1896,0.4154,38.1800,86,90,298143
2.2092,0.3959,38.2400,86,90,298146
2.1848,0.3959,38.3300,86,90,298150
2.1554,0.3910,38.2100,86,90,298153
2.2141,0.4154,37.9600,86,90,298157
2.2141,0.3959,38.1800,86,90,298161
2.2434,0.3910,38.1800,86,90,298164
2.2581,0.4106,38.2100,86,90,298167
2.2190,0.3959,38.2100,86,90,298171
2.2287,0.4057,38.0500,86,90,298174
2.2043,0.3959,38.1500,86,90,298177
2.2630,0.3910,38.1100,86,90,298180
2.2483,0.3959,38.2400,86,90,298184
2.2239,0.4203,38.1800,86,90,298187
2.1896,0.4106,38.0800,86,90,298190
2.1017,0.3959,38.2400,86,90,298194
2.0968,0.4106,38.0500,86,90,298198
2.0968,0.3959,38.2100,86,90,298201
2.0821,0.3959,38.2100,86,90,298205
2.0430,0.3959,38.1500,86,90,298208
1.9501,0.3959,38.2100,86,90,298211
1.9013,0.4008,38.1100,86,90,298214
1.8573,0.3910,38.2100,86,90,298218
1.8671,0.3959,38.2400,86,90,298221
1.8915,0.3959,38.1100,86,90,298224
1.8328,0.3959,38.1100,86,90,298228
1.7840,0.4106,37.9900,86,90,298231
1.7155,0.3959,38.0800,86,90,298234
1.7009,0.3959,38.2400,86,90,298238
1.7742,0.3959,38.1100,86,90,298242
1.7644,0.3959,38.2400,86,90,298245
1.7791,0.4057,37.9900,86,90,298249
1.7058,0.3959,38.1500,86,90,298252
1.6716,0.3959,38.4000,86,90,298255
1.7009,0.4008,38.1800,86,90,298258
1.7498,0.3959,38.2100,86,90,298262
1.8231,0.4154,37.7400,86,90,298265
1.7693,0.3959,38.0200,86,90,298268
1.7107,0.3910,38.1800,86,90,298272
1.7009,0.4057,38.2100,86,90,298275
1.7302,0.3959,38.2400,86,90,298278
1.8231,0.4106,38.0500,86,90,298283
1.8231,0.4057,38.1500,86,90,298286
1.7986,0.3959,38.1500,86,90,298289
1.7449,0.3959,38.2100,86,90,298292
1.7253,0.3861,38.2100,86,90,298296
1.7889,0.4057,38.0500,86,90,298299
1.8084,0.4008,38.2100,86,90,298302
1.8377,0.4008,38.0800,86,90,298306
1.7889,0.3959,38.3000,86,90,298309
1.7449,0.4008,38.2400,86,90,298312
1.7595,0.4057,38.1100,86,90,298316
1.7840,0.3959,38.2400,86,90,298319
1.8719,0.4008,38.0800,86,90,298322
1.8622,0.3910,38.2400,86,90,298326
1.8426,0.3959,38.3000,86,90,298330
1.8280,0.4154,38.1800,86,90,298333
1.8182,0.3861,38.2100,86,90,298336
1.9013,0.4008,38.0200,86,90,298340
1.9501,0.3910,38.2400,86,90,298343
1.9795,0.3861,38.2100,86,90,298346
1.9697,0.4154,38.1100,86,90,298350
1.8964,0.3959,38.2400,86,90,298353
1.9110,0.4057,38.0500,86,90,298356
1.9062,0.4008,38.1500,86,90,298359
1.9208,0.3861,38.2400,86,90,298363
1.9208,0.4008,38.1500,86,90,298366
1.8622,0.3959,38.2400,86,90,298370
1.8475,0.4106,37.9300,86,90,298374
1.8035,0.4008,38.0800,86,90,298377
1.8182,0.3861,38.2100,86,90,298380
1.8622,0.3959,38.2100,86,90,298384
1.8915,0.4008,38.2100,86,90,298387
1.8671,0.4154,38.0200,86,90,298390
1.7937,0.4008,38.1800,86,90,298394
1.7791,0.3959,38.1100,86,90,298397
1.8280,0.3959,38.1800,86,90,298400
1.8573,0.3959,38.2400,86,90,298403
1.8768,0.4057,38.1100,86,90,298407
1.8231,0.4008,38.2100,86,90,298411
1.7840,0.3861,38.1100,86,90,298414
1.7840,0.4008,38.2100,86,90,298418
1.8280,0.3959,38.2400,86,90,298421
1.8915,0.4057,38.1500,86,90,298424
1.8573,0.3959,38.2100,86,90,298428
1.8328,0.4008,38.1100,86,90,298431
1.7791,0.4008,38.1500,86,90,298434
1.8231,0.3959,38.2100,86,90,298437
1.8719,0.4350,38.0800,86,90,298441
1.8964,0.3959,38.2100,86,90,298444
1.9110,0.4008,38.0200,86,90,298447
1.8524,0.3959,38.1800,86,90,298451
1.8182,0.3959,38.2400,86,90,298455
1.8524,0.4057,38.1500,86,90,298458
1.8964,0.3910,38.2400,86,90,298462
2.0283,0.4057,37.9600,86,90,298465
2.0626,0.3910,38.1500,86,90,298468
2.1310,0.4008,38.2400,86,90,298472
2.1799,0.4008,38.1800,86,90,298475
2.1701,0.3959,38.0500,86,90,298478
2.1750,0.4057,37.9300,86,90,298481
1.9941,0.4008,38.1100,86,90,298485
1.7449,0.3910,38.2400,86,90,298488
1.5591,0.3959,38.1800,86,90,298491
1.4027,0.3959,38.2400,86,90,298496
1.5005,0.4154,38.0200,86,90,298499
1.6716,0.4057,38.1500,86,90,298502
1.7889,0.3959,37.5300,86,90,298506
1.8671,0.3910,38.2100,86,90,298509
1.8915,0.3959,38.2100,86,90,298512
1.9355,0.4057,38.0800,86,90,298515
1.9550,0.4008,38.2100,86,90,298519
1.9941,0.3861,38.1100,86,90,298522
1.9795,0.4008,38.2400,86,90,298525
1.9404,0.3959,38.2400,86,90,298529
1.9013,0.4008,38.1500,86,90,298532
1.8671,0.4008,38.2100,86,90,298535
1.9208,0.3861,38.0800,86,90,298540
1.9355,0.4008,38.2100,86,90,298543
1.9501,0.3959,38.2100,86,90,298546
1.9453,0.4057,38.1100,86,90,298549
1.9013,0.4008,38.2400,86,90,298553
1.8915,0.4008,38.0500,86,90,298556
1.9110,0.3959,38.1800,86,90,298559
1.9550,0.4350,38.2100,86,90,298563
1.9892,0.4057,38.1100,86,90,298566
1.9257,0.3959,38.2400,86,90,298569
1.9453,0.4057,37.9900,86,90,298573
1.8866,0.4008,37.8300,86,90,298576
1.9159,0.3959,38.2400,86,90,298579
1.9746,0.4008,38.1800,86,90,298583
1.9648,0.3959,38.2100,86,90,298587
1.9746,0.4057,37.9300,86,90,298590
1.8964,0.3959,37.8700,86,90,298593
1.8964,0.4203,38.2100,86,90,298597
1.9453,0.3959,38.2100,86,90,298600
1.9844,0.3959,38.2100,86,90,298603
2.0332,0.4106,38.0200,86,90,298607
1.9453,0.4008,38.1800,86,90,298610
1.9062,0.3959,38.1500,86,90,298613
1.9159,0.4008,38.2700,86,90,298617
1.9648,0.3959,38.2400,86,90,298620
2.0528,0.4057,38.0200,85,90,298624
2.0186,0.3959,38.1100,85,90,298628
2.0332,0.3861,38.2100,85,90,298631
2.0528,0.3959,38.0500,85,90,298634
1.9892,0.3959,38.1800,85,90,298638
1.9697,0.3959,38.2400,85,90,298641
2.0137,0.4008,37.9600,85,90,298644
2.0528,0.3910,38.2100,85,90,298648
2.1310,0.3861,37.9900,85,90,298651
2.0870,0.3812,38.2400,85,90,298654
2.0577,0.3959,38.2400,85,90,298658
2.0626,0.4057,38.0800,85,90,298661
2.1114,0.3910,38.2100,85,90,298664
2.1848,0.4057,37.9600,85,90,298668
2.1848,0.4350,38.1500,85,90,298672
2.1603,0.3910,38.2400,85,90,298675
2.1261,0.4057,38.2400,85,90,298678
2.1017,0.3910,38.2400,85,90,298682
2.1896,0.4154,38.0500,85,90,298685
2.2336,0.4008,38.0800,85,90,298688
2.2043,0.3910,38.1800,85,90,298692
2.1652,0.3959,38.2100,85,90,298695
2.1065,0.3959,38.2100,85,90,298698
2.1261,0.4106,38.0200,85,90,298701
2.1114,0.4008,38.1100,85,90,298705
2.1359,0.3959,38.1100,85,90,298708
2.1065,0.3959,38.2400,85,90,298712
2.0430,0.3959,38.2400,85,90,298716
1.9844,0.4057,38.1500,85,90,298719
1.9110,0.3959,38.2100,85,90,298722
1.9159,0.4057,38.0500,85,90,298726
1.8964,0.3959,38.2700,85,90,298729
1.8671,0.4008,38.2400,85,90,298732
1.8328,0.4057,38.0800,85,90,298736
1.7400,0.4008,38.2100,85,90,298739
1.7351,0.3959,38.0800,85,90,298742
1.7253,0.3861,38.1800,85,90,298745
1.7546,0.3812,38.2400,85,90,298749
1.7644,0.4008,38.0800,85,90,298753
1.7009,0.3959,38.3300,85,90,298756
1.6764,0.4008,38.0200,85,90,298760
1.6520,0.3959,38.1500,85,90,298763
1.6911,0.3959,38.2400,85,90,298766
1.7400,0.4008,38.1500,85,90,298770
1.7204,0.3959,38.2400,85,90,298773
1.7204,0.4057,37.9900,85,90,298776
1.6422,0.3910,38.1800,85,90,298779
1.6471,0.3861,38.2400,85,90,298783
1.6960,0.4106,38.2100,85,90,298786
1.7302,0.3910,38.2400,85,90,298789
1.7742,0.4252,37.9300,85,90,298793
1.7107,0.4008,38.0500,85,90,298797
1.6569,0.3910,38.1800,85,90,298800
1.6764,0.3959,38.2100,85,90,298804
1.7253,0.3959,38.2400,85,90,298807
1.8084,0.4057,38.0500,85,90,298810
1.7889,0.3861,38.1500,85,90,298814
1.7351,0.4154,38.1800,85,90,298817
1.7058,0.3959,38.2100,85,90,298820
1.7058,0.3959,38.3300,85,90,298823
1.7791,0.4008,38.0800,85,90,298827
1.7937,0.4008,38.2100,85,90,298830
1.7937,0.4008,38.1100,85,90,298833
1.7302,0.3959,38.2100,85,90,298838
1.7058,0.3861,38.2400,85,90,298841
1.7351,0.3959,38.1500,85,90,298844
1.7840,0.4008,38.2400,85,90,298848
1.8377,0.4008,38.1100,85,90,298851
1.7937,0.3959,38.2100,85,90,298854
1.7595,0.3910,38.2400,85,90,298857
1.7449,0.4057,38.1100,85,90,298861
1.7498,0.4008,38.2100,85,90,298864
1.8280,0.4008,38.0200,85,90,298867
1.8328,0.3959,38.1100,85,90,298871
1.8035,0.3959,38.2100,85,90,298874
1.7742,0.4057,38.1500,85,90,298877
1.7204,0.3959,38.3000,85,90,298882
1.8035,0.4057,37.9600,85,90,298885
1.8084,0.3910,38.1500,85,90,298888
1.8182,0.3959,38.2700,85,90,298891
1.8084,0.4154,38.1800,85,90,298895
1.7595,0.3861,38.2400,85,90,298898
1.7791,0.4057,37.9300,85,90,298901
1.7693,0.4008,38.1500,85,90,298905
1.8182,0.3910,38.2100,85,90,298908
1.8377,0.4008,38.2400,85,90,298911
1.8084,0.3910,38.1100,85,90,298915
1.8084,0.4399,38.0500,85,90,298918
1.7595,0.3959,38.1500,85,90,298921
1.7742,0.3959,38.1500,85,90,298925
1.8524,0.3910,38.2100,85,90,298929
1.8231,0.3959,38.2400,85,90,298932
1.8231,0.4057,38.0500,85,90,298935
1.7595,0.4008,38.2100,85,90,298939
1.7595,0.4008,38.1100,85,90,298942
1.7840,0.4154,38.2100,85,90,298945
1.8377,0.3959,38.2700,85,90,298949
1.8719,0.4057,38.1500,85,90,298952
1.8231,0.3959,38.2100,85,90,298955
1.7986,0.4057,38.1500,85,90,298959
1.7644,0.4057,38.2100,85,90,298962
1.7986,0.3959,38.2400,85,90,298966
1.8573,0.3959,38.5500,85,90,298969
1.8475,0.3959,38.2400,85,90,298973
1.8328,0.4008,37.8700,85,90,298976
1.7693,0.4008,38.2100,85,90,298979
1.7693,0.3959,38.2400,85,90,298983
1.8328,0.4057,38.1500,85,90,298986
1.8622,0.3959,38.2400,85,90,298989
1.9013,0.4106,37.9600,85,90,298993
1.8328,0.3959,38.1800,85,90,298996
1.7791,0.3959,38.2400,85,90,298999
1.8280,0.4008,38.1800,85,90,299003
1.8280,0.3861,38.2100,85,90,299006
1.9159,0.4106,37.9000,85,90,299010
1.8964,0.3959,38.0500,85,90,299013
1.8133,0.3861,38.2100,85,90,299017
1.7840,0.4008,38.2400,85,90,299020
1.7889,0.4008,38.2400,85,90,299023
1.8915,0.4154,38.0500,85,90,299027
1.8866,0.4008,38.1500,85,90,299030
1.8573,0.4057,38.1100,85,90,299033
1.8035,0.3959,38.2100,85,90,299037
1.7693,0.3959,38.2400,85,90,299040
1.8084,0.4057,38.1100,85,90,299043
1.8328,0.3959,38.1100,85,90,299046
1.8719,0.4008,38.0800,85,90,299051
1.8377,0.3959,38.2700,85,90,299054
1.7889,0.3910,38.2100,85,90,299057
1.7937,0.4057,38.0800,85,90,299061
1.7937,0.3959,38.3300,85,90,299064
1.8622,0.4057,38.1100,85,90,299067
1.8573,0.3910,38.1800,85,90,299071
1.8377,0.3959,38.2100,85,90,299074
1.8182,0.4008,38.0800,85,90,299077
1.7791,0.3959,38.3300,85,90,299080
1.8328,0.4008,38.0200,85,90,299084
1.8671,0.3861,38.1800,85,90,299087
1.8866,0.3959,38.2700,85,90,299090
1.8964,0.4057,38.1500,85,90,299095
1.7937,0.3959,38.2400,85,90,299098
1.8133,0.4350,37.9600,85,90,299101
1.8035,0.3910,38.1500,85,90,299105
1.8622,0.3959,38.2400,85,90,299108
1.8964,0.3959,38.1800,85,90,299111
1.8524,0.4350,38.2100,85,90,299115
1.8573,0.4154,37.9300,85,90,299118
1.7986,0.4008,38.1500,85,90,299121
1.8280,0.4008,38.1800,85,90,299124
1.8915,0.3959,38.3300,85,90,299128
1.9062,0.4057,38.2400,85,90,299131
1.9208,0.4057,38.0200,85,90,299134
1.8622,0.4008,38.1500,85,90,299139
1.8475,0.4008,38.1100,85,90,299142
1.8817,0.3959,38.2400,85,90,299145
1.9355,0.3959,38.2100,85,90,299149
1.9697,0.4057,38.0800,85,90,299152
1.8964,0.3959,38.1800,85,90,299155
1.8475,0.4008,38.0800,85,90,299158
1.8084,0.3959,38.2400,85,90,299162
1.8475,0.3959,38.3300,85,90,299165
1.8915,0.4008,38.1100,85,90,299168
1.8866,0.4008,38.2100,85,90,299172
1.8475,0.4057,38.2400,85,90,299175
1.7644,0.3959,38.2100,85,90,299179
1.7498,0.3959,38.2100,85,90,299183
1.8035,0.3959,38.1100,85,90,299186
1.8280,0.3959,38.4000,85,90,299189
1.8573,0.4008,37.9900,85,90,299193
1.8280,0.3910,38.1500,85,90,299196
1.7400,0.3861,38.2400,85,90,299199
1.7644,0.4301,38.1100,85,90,299202
1.7937,0.4008,38.2100,85,90,299206
1.8768,0.4057,37.9900,85,90,299209
1.8426,0.3910,38.1500,85,90,299212
1.7840,0.3959,38.2400,85,90,299216
1.7595,0.4008,38.1800,85,90,299219
1.7595,0.3910,38.2400,85,90,299223
1.8524,0.4154,37.9300,85,90,299227
1.8622,0.3910,38.1100,85,90,299230
1.8426,0.3861,38.1800,85,90,299233
1.8084,0.3959,38.2100,85,90,299236
1.8671,0.3959,38.2100,85,90,299240
1.8231,0.3861,38.2100,85,90,299244
1.8475,0.4154,38.0500,85,90,299247
1.8573,0.3959,38.2100,85,90,299250
1.9501,0.4057,38.0500,85,90,299253
1.9746,0.4008,38.2100,85,90,299257
1.9599,0.3910,38.2400,85,90,299260
1.9208,0.4008,38.0200,85,90,299264
1.8671,0.4057,38.2100,85,90,299268
1.9306,0.4008,38.0500,85,90,299271
2.0137,0.3959,37.5600,85,90,299274
2.1359,0.3910,38.2400,85,90,299278
2.2141,0.4057,38.1100,85,90,299281
2.1603,0.3959,38.2400,85,90,299284
2.1359,0.4106,37.9900,85,90,299287
2.0186,0.3910,38.2100,85,90,299291
1.9110,0.3959,38.2100,85,90,299294
1.7400,0.3959,38.2100,85,90,299297
1.5543,0.3959,38.2400,85,90,299301
1.4761,0.4106,37.9300,85,90,299304
1.4809,0.4008,38.1500,85,90,299308
1.6227,0.3910,38.2100,85,90,299312
1.7937,0.4008,38.2100,85,90,299315
1.8915,0.3959,38.2400,85,90,299318
1.9697,0.4057,38.0200,85,90,299321
1.9306,0.4057,38.1500,85,90,299325
1.9062,0.3910,38.1800,85,90,299328
1.9404,0.3861,38.2100,85,90,299331
1.9746,0.3959,38.2100,85,90,299335
2.0186,0.4057,38.0800,85,90,299338
1.9550,0.4008,38.2100,85,90,299341
1.9159,0.4008,38.3300,85,90,299345
1.8866,0.4106,38.2100,85,90,299348
1.9257,0.4008,38.3000,85,90,299352
1.9892,0.4008,38.2100,85,90,299355
1.9844,0.3861,38.2100,85,90,299359
1.9697,0.4057,38.0800,85,90,299362
1.8866,0.3861,38.2100,85,90,299365
1.8817,0.3910,38.2400,85,90,299369
1.9355,0.4057,37.6500,85,90,299372
1.9550,0.3861,38.2100,85,90,299375
1.9795,0.4008,38.2400,85,90,299379
1.9208,0.4008,38.1100,85,90,299382
1.9110,0.3959,38.2400,85,90,299385
1.8964,0.4057,38.0500,85,90,299389
1.9208,0.3910,38.2100,85,90,299393
1.9990,0.4057,37.9900,85,90,299396
1.9648,0.4008,38.1800,85,90,299399
1.9110,0.3959,38.2400,85,90,299403
1.8866,0.4008,38.2400,85,90,299406
1.8719,0.3959,38.2400,85,90,299409
1.9746,0.4057,37.9300,85,90,299413
1.9697,0.4057,38.1500,85,90,299416
1.9550,0.3910,38.2100,85,90,299419
1.9013,0.3959,38.3000,85,90,299423
1.8622,0.3910,38.2100,85,90,299426
1.9306,0.4154,38.0200,85,90,299429
1.9404,0.4008,38.2100,85,90,299432
1.9648,0.3910,38.1500,85,90,299437
1.9550,0.3959,38.2100,85,90,299440
1.9110,0.4203,38.2100,85,90,299443
1.9159,0.4057,38.0200,85,90,299447
1.9306,0.4008,38.1800,85,90,299450
1.9892,0.4008,38.0800,85,90,299453
2.0039,0.3959,38.2100,85,90,299457
1.9844,0.4008,38.2400,85,90,299460
1.9746,0.4057,37.9300,85,90,299463
1.9404,0.4008,38.1800,85,90,299466
1.9844,0.3959,38.0800,85,90,299470
2.0235,0.3959,38.2400,85,90,299473
2.1017,0.3910,38.2400,85,90,299476
2.0723,0.3959,38.1100,85,90,299481
2.0235,0.3959,38.2100,85,90,299484
2.0626,0.3959,38.0800,85,90,299487
2.0430,0.3959,38.2400,85,90,299491
2.1017,0.3959,38.2100,85,90,299494
2.1603,0.3959,38.1500,85,90,299497
2.1261,0.3959,37.9000,85,90,299500
2.1310,0.4008,37.9900,85,90,299504
2.0821,0.3959,38.0800,85,90,299507
2.1065,0.3959,38.2400,85,90,299510
2.1896,0.4106,38.1500,85,90,299514
2.1848,0.3959,38.2400,85,90,299517
2.1945,0.4057,38.0200,85,90,299521
2.1114,0.4008,38.1100,85,90,299525
2.1017,0.3910,38.2400,85,90,299528
2.1163,0.4008,38.2700,85,90,299531
2.1359,0.4008,38.1500,85,90,299534
2.1750,0.4106,37.9300,85,90,299538
2.0674,0.4008,38.1800,85,90,299541
1.9795,0.4154,38.1800,85,90,299544
1.9404,0.3861,38.2100,85,90,299548
1.9404,0.4203,38.2400,85,90,299551
1.9941,0.4106,38.0500,85,90,299554
1.9355,0.4008,38.1800,85,90,299558
1.8573,0.3959,38.0800,85,90,299561
1.7693,0.3959,38.2400,85,90,299565
1.7302,0.3959,38.2700,85,90,299568
1.7693,0.4057,38.0200,85,90,299572
1.7693,0.3861,38.2100,85,90,299575
1.7546,0.4301,38.0800,85,90,299578
1.6813,0.3910,38.2100,85,90,299582
1.6227,0.3959,38.2100,85,90,299585
1.6422,0.4057,38.1100,85,90,299588
1.6569,0.3861,38.2100,85,90,299592
1.7107,0.4057,38.0800,85,90,299595
1.6764,0.3910,38.2100,85,90,299598
1.6422,0.3959,38.2100,85,90,299602
1.6178,0.4106,38.1500,85,90,299606
1.6178,0.3910,38.2100,85,90,299609
1.6764,0.4008,38.0200,85,90,299612
1.7155,0.3910,38.2400,85,90,299616
1.7204,0.3959,38.2400,85,90,299619
1.7009,0.4106,38.1500,85,90,299622
1.6520,0.3861,38.2400,85,90,299626
1.6911,0.4057,37.9600,85,90,299629
1.7253,0.3959,38.1100,85,90,299632
1.7595,0.3959,38.2400,85,90,299636
1.7644,0.4008,38.1800,85,90,299639
1.7058,0.3861,38.2100,85,90,299642
1.7058,0.4106,38.0200,85,90,299645
1.6960,0.3959,38.0800,85,90,299650
1.7400,0.3910,38.2100,85,90,299653
1.7742,0.3959,38.2100,85,90,299656
1.7546,0.3959,38.3000,85,90,299660
1.7693,0.4057,38.0500,85,90,299663
1.7009,0.4008,37.3100,85,90,299666
1.7155,0.3959,38.1500,85,90,299670
1.7644,0.3959,38.2100,85,90,299673
1.7937,0.3959,38.2700,85,90,299676
1.8035,0.4057,38.1500,85,90,299679
1.7449,0.4008,38.2100,85,90,299683
1.7302,0.4008,38.0500,85,90,299686
1.7351,0.3910,38.2400,85,90,299689
1.7937,0.3959,38.2400,85,90,299694
1.8524,0.4057,38.0500,85,90,299697
1.8133,0.3959,38.2100,85,90,299700
1.7840,0.4057,38.0500,85,90,299704
1.7253,0.4106,38.1800,85,90,299707
1.7449,0.4008,38.2400,85,90,299710
1.8182,0.4008,38.0800,85,90,299713
1.8328,0.3910,38.2400,85,90,299717
1.8426,0.4008,38.0500,85,90,299720
1.7791,0.3861,38.1800,85,90,299723
1.7644,0.3959,38.3000,85,90,299727
1.8133,0.4008,38.1100,85,90,299730
1.8475,0.3959,38.1800,85,90,299734
1.9013,0.4008,37.9900,85,90,299738
1.8377,0.3910,38.2400,85,90,299741
1.7889,0.3959,38.3000,85,90,299744
1.7791,0.3959,38.1800,85,90,299747
1.7937,0.3959,38.2100,85,90,299751
1.8964,0.4106,37.9300,85,90,299754
1.8719,0.4008,38.1500,85,90,299757
1.8182,0.3910,38.2400,85,90,299761
1.7791,0.4008,38.2100,85,90,299764
1.7595,0.3959,38.2100,85,90,299767
1.8475,0.4106,37.9900,85,90,299771
1.8671,0.4545,38.0800,85,90,299774
1.8622,0.3910,38.1500,85,90,299778
1.8231,0.3959,38.2100,85,90,299782
1.7693,0.4448,38.2400,85,90,299785
1.7937,0.4057,38.0800,85,90,299788
1.8084,0.4008,38.1100,85,90,299791
1.8671,0.3959,38.0800,85,90,299795
1.8573,0.4008,38.2100,85,90,299798
1.8231,0.3959,38.2100,85,90,299801
1.7986,0.3959,38.1500,85,90,299805
1.7840,0.3910,38.2400,85,90,299808
1.8426,0.4008,38.1100,85,90,299811
1.8573,0.3959,38.2400,85,90,299815
1.8573,0.3959,38.1100,85,90,299819
1.8475,0.4057,38.1500,85,90,299822
1.7742,0.3959,38.2100,85,90,299826
1.7889,0.3959,38.0500,85,90,299829
1.8182,0.3959,38.1500,85,90,299832
1.8622,0.3959,38.4000,85,90,299835
1.8817,0.4057,38.0800,85,90,299839
1.8328,0.3959,38.3000,85,90,299842
1.8475,0.4057,37.9600,85,90,299845
1.8915,0.4203,37.9900,85,90,299849
1.8133,0.4008,38.2100,85,90,299852
1.8133,0.3910,38.1500,85,90,299856
1.8622,0.3959,38.2100,85,90,299859
1.8719,0.4252,38.2100,85,90,299863
1.8915,0.4057,38.0800,85,90,299867
1.7937,0.3959,38.1800,85,90,299870
1.7595,0.4301,38.1800,85,90,299873
1.7546,0.3959,38.3000,85,90,299876
1.7986,0.3910,38.2100,85,90,299880
1.8671,0.4057,38.0500,85,90,299883
1.8280,0.4203,38.1800,85,90,299886
1.7986,0.4057,38.0800,85,90,299890
1.7595,0.3959,38.2700,85,90,299893
1.7840,0.3959,38.3000,85,90,299896
1.8524,0.3959,38.1100,85,90,299900
1.8573,0.3959,38.1100,85,90,299904
1.8475,0.3910,38.0500,85,90,299907
1.7644,0.3910,38.1800,85,90,299911
1.7400,0.3959,38.2400,85,90,299914
1.7840,0.3959,38.0800,85,90,299917
1.8182,0.3959,38.2100,85,90,299920
1.8622,0.4057,37.9900,85,90,299924
1.7986,0.3959,38.2400,85,90,299927
1.7498,0.3959,38.2100,85,90,299930
1.7449,0.4008,38.1800,85,90,299934
1.7693,0.4008,38.2400,85,90,299937
1.8671,0.4154,37.9600,85,90,299940
1.8426,0.4008,38.1500,85,90,299944
1.7986,0.3959,38.2400,85,90,299948
1.7644,0.4008,38.2400,85,90,299951
1.7546,0.3959,38.2100,85,90,299954
1.8768,0.4252,37.9900,85,90,299958
1.8866,0.4057,38.1100,85,90,299961
1.9013,0.3910,38.1800,85,90,299964
1.8719,0.3861,38.2400,85,90,299968
1.8084,0.3959,38.3000,85,90,299971
1.8328,0.4008,38.0800,85,90,299974
1.8866,0.3959,38.1800,85,90,299978
2.0088,0.3959,38.1100,85,90,299981
2.1017,0.3959,38.2400,85,90,299984
2.1554,0.3861,38.2100,85,90,299987
2.1603,0.4057,38.1500,85,90,299992
2.1017,0.3959,38.2100,85,90,299995
2.0528,0.4008,38.0800,85,90,299998
1.9110,0.3959,38.1800,85,90,300002
1.7204,0.4008,38.2100,85,90,300005
1.5494,0.4057,38.1100,85,90,300008
1.4174,0.4008,38.2100,85,90,300012
1.4663,0.3959,38.1100,85,90,300015
1.5934,0.3959,38.1100,85,90,300018
1.7449,0.3910,38.2100,85,90,300022
1.8524,0.4008,38.1500,85,90,300025
1.8475,0.4008,38.3000,85,90,300028
1.8719,0.3959,38.0200,85,90,300032
1.8719,0.3959,38.2100,85,90,300036
1.9062,0.4154,38.2400,85,90,300039
1.9648,0.4057,38.1800,85,90,300042
1.9208,0.3959,38.3300,85,90,300046
1.9159,0.4350,37.9600,85,90,300049
1.8328,0.3959,38.1100,85,90,300052
1.8573,0.3959,38.2700,85,90,300056
1.8866,0.3959,38.2400,85,90,300059
1.9159,0.3910,38.2100,85,90,300062
1.9501,0.4154,37.9900,85,90,300065
1.8573,0.4008,38.1800,85,90,300069
1.8133,0.3959,38.1800,85,90,300072
1.8280,0.3959,38.1800,85,90,300076
1.8817,0.3910,38.2100,85,90,300080
1.9355,0.4057,38.1100,85,90,300083
1.8964,0.4008,38.1800,85,90,300086
1.8475,0.3861,38.0800,85,90,300090
1.8035,0.3959,38.2100,85,90,300093
1.8328,0.4008,38.2100,85,90,300096
1.9062,0.4008,38.0500,85,90,300100
1.9159,0.4008,38.2100,85,90,300103
1.9110,0.3959,38.0500,85,90,300106
1.8475,0.3861,38.2400,85,90,300109
1.8231,0.3910,38.2400,85,90,300113
1.8622,0.3959,38.1500,85,90,300116
1.9013,0.3959,38.2700,85,90,300120
1.9795,0.3959,38.0800,85,90,300124
1.8964,0.3959,37.7700,85,90,300127
1.8524,0.4008,38.2400,85,90,300130
1.8622,0.3861,38.1500,85,90,300134
1.9013,0.3959,38.2100,85,90,300137
1.9697,0.4008,37.9900,85,90,300140
1.9648,0.4008,38.1500,85,90,300143
1.9257,0.4154,38.2400,85,90,300147
1.9062,0.4057,38.4000,85,90,300150
1.8768,0.4008,38.2400,85,90,300153
1.9892,0.4106,37.9300,85,90,300157
1.9892,0.3959,38.0200,85,90,300161
1.9990,0.3910,38.2400,85,90,300164
1.9795,0.4008,38.2100,85,90,300168
1.9306,0.3959,38.2100,85,90,300171
1.9844,0.4203,37.9600,85,90,300174
1.9941,0.4057,38.1100,85,90,300178
2.0430,0.3959,38.1500,85,90,300181
2.0577,0.3959,38.2400,85,90,300184
2.0332,0.3959,38.2400,85,90,300187
2.0479,0.4057,38.0800,85,90,300191
2.0137,0.3959,38.1800,85,90,300194
2.0772,0.3959,38.1500,85,90,300197
2.1114,0.3910,38.2100,85,90,300201
2.1212,0.3861,38.2400,85,90,300205
2.1261,0.4106,38.1100,85,90,300208
2.0723,0.3861,38.1800,85,90,300212
2.0968,0.4008,38.1100,85,90,300215
2.1212,0.3959,38.2400,85,90,300218
2.1652,0.3910,38.2400,85,90,300221
2.1945,0.4008,38.1100,85,90,300225
2.1310,0.3959,38.1800,85,90,300228
2.1114,0.3959,38.0800,85,90,300231
2.0772,0.3910,38.2100,85,90,300235
2.1065,0.3959,38.2700,85,90,300238
2.1310,0.4008,38.1100,85,90,300241
2.0919,0.3959,38.2400,85,90,300244
2.0283,0.3861,38.0200,85,90,300249
1.9208,0.3959,38.1800,85,90,300252
1.9208,0.4008,38.2400,85,90,300255
1.9110,0.4057,38.1500,85,90,300259
1.8866,0.3910,38.2100,85,90,300262
1.8768,0.4106,37.9900,85,90,300265
1.7693,0.4008,38.2400,85,90,300269
1.6862,0.4252,38.2100,85,90,300272
1.6862,0.4008,38.3000,85,90,300275
1.6911,0.3861,38.2100,85,90,300279
1.7449,0.4106,37.9300,85,90,300282
1.6813,0.4203,38.0800,85,90,300285
1.6178,0.3959,38.2100,85,90,300289
1.5836,0.3959,38.2100,85,90,300293
1.5885,0.4008,38.2100,85,90,300296
1.6716,0.4203,38.0500,85,90,300299
1.6716,0.4008,38.0200,85,90,300303
1.6422,0.3959,38.1100,85,90,300306
1.5885,0.3959,38.2100,85,90,300309
1.5689,0.4008,38.3000,85,90,300313
1.6520,0.4057,38.1100,85,90,300316
1.6520,0.3959,38.2100,85,90,300319
1.6862,0.4008,38.1100,85,90,300322
1.6520,0.3959,38.2400,85,90,300326
1.6031,0.3959,38.2700,85,90,300329
1.6129,0.4106,38.0800,85,90,300333
1.6227,0.3959,38.4600,85,90,300337
1.7204,0.3959,38.1100,85,90,300340
1.7009,0.3910,38.1800,85,90,300343
1.6911,0.3959,38.1800,85,90,300347
1.6667,0.4008,38.0800,85,90,300350
1.6520,0.3959,38.2100,85,90,300353
1.7107,0.4008,38.0200,85,90,300357
1.7546,0.4008,38.1800,85,90,300360
1.7840,0.3959,38.2400,85,90,300363
1.7986,0.4057,38.1100,85,90,300366
1.8084,0.3959,38.2100,85,90,300370
1.8231,0.3861,37.9900,85,90,300374
1.8524,0.3910,38.1800,85,90,300377
1.8768,0.3959,38.2100,85,90,300381
1.8817,0.4008,38.1800,85,90,300384
1.8133,0.3861,38.2100,85,90,300387
1.8035,0.4106,37.9600,85,90,300391
1.7546,0.4154,38.1100,85,90,300394
1.7742,0.3910,38.2100,85,90,300397
1.8231,0.4008,38.1800,85,90,300400
1.8035,0.3861,38.2400,85,90,300404
1.7937,0.4154,37.9900,85,90,300407
1.7204,0.4057,38.1500,85,90,300410
1.6960,0.3959,38.1100,85,90,300414
1.7253,0.4008,38.2400,85,90,300418
1.7644,0.3959,38.2400,85,90,300421
1.7937,0.4057,38.0200,85,90,300425
1.7449,0.3959,38.2100,85,90,300428
1.7107,0.4008,38.2400,85,90,300431
1.7009,0.4154,38.2100,85,90,300435
1.7546,0.3861,38.2400,85,90,300438
1.8084,0.4203,38.1500,85,90,300441
1.7840,0.3959,38.2100,85,90,300444
1.7693,0.4057,38.1100,85,90,300448
1.7058,0.3959,38.2100,85,90,300451
1.7253,0.3861,38.2400,85,90,300454
1.8035,0.4057,38.1100,85,89,300459
1.7791,0.4057,38.1800,85,89,300462
1.8377,0.3959,38.2400,85,89,300466
1.9355,0.4154,37.9000,85,89,300469
1.8866,0.3959,38.0800,85,89,300472
1.8426,0.3910,38.2400,85,89,300476
1.8622,0.4106,38.2100,85,89,300479
1.9550,0.3861,38.2400,85,89,300482
2.1652,0.4154,38.3600,85,89,300485
2.2336,0.4106,38.1500,85,89,300489
2.1945,0.3959,38.2100,85,89,300492
2.0723,0.4008,38.2100,85,89,300495
1.9062,0.3861,38.2400,85,89,300499
1.7595,0.4106,38.1100,85,89,300503
1.5836,0.4008,38.1800,85,89,300506
1.4712,0.4008,38.0800,85,89,300510
1.4321,0.4008,38.2100,85,89,300513
1.4956,0.4008,38.2400,85,89,300516
1.6276,0.4057,38.0500,85,89,300520
1.7498,0.4008,38.2100,85,89,300523
1.9159,0.4057,38.0800,85,89,300526
1.9306,0.3910,38.2100,85,89,300529
1.9159,0.3959,38.2400,85,89,300533
1.8915,0.4008,38.0800,85,89,300536
1.8524,0.3959,38.2400,85,89,300539
1.9062,0.4008,38.0500,85,89,300544
1.9208,0.4008,38.1800,85,89,300547
1.9355,0.3959,38.2100,85,89,300550
1.9110,0.4106,38.0800,85,89,300554
1.8573,0.3910,38.2100,85,89,300557
1.8622,0.4008,37.9900,85,89,300560
1.8622,0.4057,38.2100,85,89,300563
1.9159,0.3861,38.2400,85,89,300567
1.9404,0.3910,38.1800,85,89,300570
1.8915,0.3959,38.2400,85,89,300573
1.8915,0.4057,37.9300,85,89,300577
1.8573,0.4008,38.1500,85,89,300580
1.8768,0.3959,38.2400,85,89,300583
1.9257,0.3959,38.2100,85,89,300588
1.9208,0.3959,38.2400,85,89,300591
1.9355,0.4154,38.0200,85,89,300594
1.8622,0.4057,38.1500,85,89,300598
1.8475,0.3959,38.1500,85,89,300601
1.8915,0.3959,38.2100,85,89,300604
1.9306,0.3959,38.1800,85,89,300607
1.9697,0.4106,38.0800,85,89,300611
1.9159,0.4008,38.1800,85,89,300614
1.8817,0.3959,38.0800,85,89,300617
1.8719,0.4350,38.2400,85,89,300621
1.9208,0.3959,38.2400,85,89,300624
1.9795,0.4350,38.1800,85,89,300627
1.9648,0.3959,38.2100,85,89,300632
1.9404,0.4057,38.0800,85,89,300635
1.8768,0.3959,38.2100,85,89,300638
1.8964,0.3959,38.2400,85,89,300641
1.9746,0.4301,38.1100,85,89,300645
1.9941,0.3959,38.1500,85,89,300648
2.0088,0.3959,38.0500,85,89,300651
1.9550,0.3959,38.1100,85,89,300655
1.9257,0.3959,38.2400,85,89,300658
1.9844,0.3959,38.1800,85,89,300661
2.0088,0.3959,38.2400,85,89,300665
2.0870,0.4057,37.9900,85,89,300668
2.0528,0.4008,38.1800,85,89,300672
2.0039,0.4008,38.3000,85,89,300675
2.0381,0.3959,38.1800,85,89,300679
2.0186,0.3959,38.2400,85,89,300682
2.1212,0.4057,37.9900,85,89,300685
2.1114,0.3959,38.1500,85,89,300689
2.1163,0.3959,38.1100,85,89,300692
2.0919,0.3959,38.1800,85,89,300695
2.0674,0.3959,38.1800,85,89,300699
2.1505,0.4203,37.9900,85,89,300702
2.1652,0.4008,38.1800,85,89,300705
2.1750,0.3910,38.2700,85,89,300708
2.1554,0.3959,38.2100,85,89,300712
2.1163,0.3959,38.2400,85,89,300716
2.1359,0.3959,38.0500,85,89,300719
2.1408,0.4008,38.1800,85,89,300723
2.1799,0.3959,38.1500,85,89,300726
2.1701,0.4008,38.2100,85,89,300729
2.1212,0.3959,38.2400,85,89,300733
2.0723,0.4399,38.0500,85,89,300736
2.0039,0.4057,38.1800,85,89,300739
2.0137,0.4008,38.0800,85,89,300742
1.9990,0.4008,38.2100,85,89,300746
1.9697,0.3910,38.3600,85,89,300749
1.9159,0.4154,38.1500,85,89,300752
1.8231,0.3959,38.2400,85,89,300756
1.7937,0.4008,38.1100,85,89,300760
1.7644,0.3959,38.2100,85,89,300763
1.7840,0.3959,38.2100,85,89,300767
1.7937,0.3959,38.1100,85,89,300770
1.7155,0.3959,38.2100,85,89,300773
1.6813,0.3959,37.9900,85,89,300777
1.6373,0.4008,38.0800,85,89,300780
1.6569,0.3959,38.2400,85,89,300783
1.7155,0.3861,38.1100,85,89,300786
1.6911,0.3959,38.2400,85,89,300790
1.6911,0.4106,37.9600,85,89,300793
1.6227,0.3959,37.9900,85,89,300796
1.6178,0.4008,38.2400,85,89,300801
1.6716,0.3959,38.1800,85,89,300804
1.7058,0.3910,38.3000,85,89,300807
1.7595,0.4203,37.9600,85,89,300811
1.6862,0.4008,38.4900,85,89,300814
1.6422,0.3910,38.1500,85,89,300817
1.6471,0.3959,38.2100,85,89,300820
1.6911,0.3959,38.2100,85,89,300824
1.7791,0.4057,38.0800,85,89,300827
1.7498,0.4008,38.2100,85,89,300830
1.7009,0.4301,38.1100,85,89,300834
1.6569,0.3959,38.2400,85,89,300837
1.6618,0.3959,38.3000,85,89,300840
1.7400,0.4057,38.0200,85,89,300845
1.7595,0.4008,38.2400,85,89,300848
1.7693,0.4008,38.0500,85,89,300851
1.7107,0.3910,38.2100,85,89,300854
1.6667,0.3959,38.2400,85,89,300858
1.6960,0.4154,38.1500,85,89,300861
1.7351,0.3910,38.2100,85,89,300864
1.7889,0.4008,38.1800,85,89,300868
1.7546,0.4203,38.2100,85,89,300871
1.7155,0.3959,38.2400,85,89,300874
1.6911,0.3959,38.1500,85,89,300878
1.7107,0.3959,38.2400,85,89,300881
1.7840,0.3959,37.9600,85,89,300884
1.7791,0.3959,38.2400,85,89,300889
1.7693,0.3959,38.2100,85,89,300892
1.7351,0.3959,38.1500,85,89,300895
1.6960,0.4057,38.2400,85,89,300899
1.7889,0.4106,37.9600,85,89,300902
1.7986,0.4008,38.1800,85,89,300905
1.8133,0.4203,38.2100,85,89,300908
1.8035,0.4008,38.1800,85,89,300912
1.7498,0.3959,38.2400,85,89,300915
1.7742,0.4203,37.9600,85,89,300918
1.7693,0.4008,38.1100,85,89,300922
1.8084,0.3910,38.1500,85,89,300925
1.8328,0.3959,38.2100,85,89,300929
1.7986,0.3959,38.2400,85,89,300933
1.7937,0.4008,38.0800,85,89,300936
1.7644,0.4008,38.1800,85,89,300939
1.7840,0.3959,38.1100,85,89,300942
1.8328,0.4008,38.2400,85,89,300946
1.8622,0.4008,38.2400,85,89,300949
1.8524,0.4057,38.0800,85,89,300952
1.7937,0.4057,38.2100,85,89,300956
1.7986,0.4008,38.0500,85,89,300959
1.8084,0.3959,38.2100,85,89,300962
1.8524,0.4008,38.2400,85,89,300966
1.9013,0.4057,38.0500,85,89,300969
1.8328,0.3959,37.6200,85,89,300973
1.8035,0.4008,38.1100,85,89,300976
1.7693,0.3910,38.1800,85,89,300980
1.8035,0.3959,38.4600,85,89,300983
1.8719,0.4008,38.0800,85,89,300986
1.8622,0.3959,38.2400,85,89,300990
1.8524,0.4008,38.0200,85,89,300993
1.7840,0.4008,38.1800,85,89,300996
1.8035,0.3959,38.2400,85,89,300999
1.8182,0.4057,38.2100,85,89,301003
1.8426,0.3959,38.2100,85,89,301006
1.8817,0.4057,37.9600,85,89,301009
1.7986,0.3910,38.1500,85,89,301014
1.7595,0.3910,38.2400,85,89,301017
1.7644,0.4008,38.2100,85,89,301020
1.8035,0.3910,38.2400,85,89,301024
1.8866,0.4106,37.9300,85,89,301027
1.8622,0.4008,38.1500,85,89,301030
1.8426,0.3959,38.2100,85,89,301034
1.7791,0.4008,38.1100,85,89,301037
1.7742,0.3910,38.2100,85,89,301040
1.8622,0.4154,38.0200,85,89,301043
1.8768,0.3910,38.1100,85,89,301047
1.8866,0.4008,38.1100,85,89,301050
1.8084,0.3959,38.3000,85,89,301053
1.7693,0.3959,38.2100,85,89,301058
1.8035,0.4203,38.0800,85,89,301061
1.8377,0.4008,38.3300,85,89,301064
1.8817,0.3959,38.0800,85,89,301068
1.8915,0.3910,38.2100,85,89,301071
1.8817,0.3861,38.2400,85,89,301075
1.8719,0.3959,38.4000,85,89,301078
1.8866,0.3959,38.1500,85,89,301081
1.8133,0.3959,38.2400,85,89,301084
1.8817,0.4057,37.9600,85,89,301088
1.9208,0.4057,38.0800,85,89,301091
1.9404,0.3959,38.2700,85,89,301094
1.9599,0.4008,38.1800,85,89,301099
1.9208,0.3959,37.4900,85,89,301102
1.9648,0.4399,37.9900,85,89,301105
1.9746,0.3959,38.1100,85,89,301109
2.0283,0.4008,38.2400,85,89,301112
2.0674,0.4057,38.1800,85,89,301115
2.0235,0.3959,38.2400,85,89,301119
2.0088,0.4154,38.0200,85,89,301122
1.9208,0.4106,38.0800,85,89,301125
1.9062,0.3959,38.1800,85,89,301128
1.9306,0.3959,38.2100,85,89,301132
1.9159,0.4008,38.2400,85,89,301135
1.9110,0.3861,38.1100,85,89,301138
1.8084,0.4008,38.2100,85,89,301143
1.7791,0.4203,38.1100,85,89,301146
1.7840,0.3959,38.2400,85,89,301149
1.8133,0.3959,38.2400,85,89,301153
1.8475,0.4057,38.0200,85,89,301156
1.7791,0.4008,38.2100,85,89,301159
1.7449,0.4008,38.0500,85,89,301162
1.6960,0.3959,38.2400,85,89,301166
1.7400,0.3959,38.2400,85,89,301169
1.8035,0.3959,38.1100,85,89,301172
1.7937,0.3959,38.2400,85,89,301176
1.7791,0.4350,38.0800,85,89,301179
1.7155,0.3910,38.2100,85,89,301182
1.7058,0.3959,38.1100,85,89,301187
1.7595,0.3959,38.0800,85,89,301190
1.7889,0.3959,38.2100,85,89,301193
1.8280,0.4008,37.9300,85,89,301196
1.7644,0.4008,38.2100,85,89,301200
1.7302,0.3959,38.2400,85,89,301203
1.7498,0.4008,38.1500,85,89,301206
1.7986,0.3959,38.2100,85,89,301210
1.8964,0.4057,38.1500,85,89,301213
1.8866,0.4008,38.1500,85,89,301216
1.8133,0.3959,38.2400,85,89,301220
1.7986,0.3959,38.1500,85,89,301223
1.7840,0.3959,38.2400,85,89,301227
1.9306,0.4154,37.9600,85,89,301230
2.0381,0.3959,38.0800,85,89,301234
2.0919,0.3910,38.1500,85,89,301237
2.0723,0.4008,38.2400,85,89,301240
1.9892,0.3959,37.5300,85,89,301244
1.9355,0.4154,38.0800,85,89,301247
1.7937,0.4008,38.2100,85,89,301250
1.6276,0.3959,38.1100,85,89,301254
1.4614,0.3959,38.2400,85,89,301257
1.3685,0.4252,38.3000,85,89,301260
1.4125,0.4106,38.1100,85,89,301263
1.5103,0.4008,38.2700,85,89,301267
1.6813,0.4008,38.0500,85,89,301271
1.7937,0.3959,38.2400,85,89,301274
1.8475,0.3959,38.3600,85,89,301278
1.8671,0.4106,38.0800,85,89,301281
1.8231,0.3959,38.3000,85,89,301284
1.8622,0.4057,38.1100,85,89,301288
1.8866,0.3910,38.1500,85,89,301291
1.9208,0.3959,38.2400,85,89,301294
1.9257,0.3959,38.0800,85,89,301298
1.8573,0.3959,38.2100,85,89,301301
1.8426,0.4008,38.0200,85,89,301304
1.8426,0.3959,38.1800,85,89,301307
1.8768,0.3959,38.2700,85,89,301312
1.9208,0.4154,38.1800,85,89,301315
1.8768,0.3861,38.2100,85,89,301318
1.8719,0.4057,37.9600,85,89,301322
1.8035,0.3861,38.1500,85,89,301325
1.8280,0.3959,38.1800,85,89,301328
1.8817,0.3959,38.2100,85,89,301332
1.9013,0.3910,38.1800,85,89,301335
1.9599,0.4154,37.9600,85,89,301338
1.8426,0.3861,37.9000,85,89,301341
1.8084,0.3910,38.2100,85,89,301345
1.8475,0.4008,38.2100,85,89,301348
1.8915,0.3959,38.2400,85,89,301351
1.9599,0.4106,38.0200,85,89,301356
1.9062,0.4057,38.1800,85,89,301359
1.8475,0.3959,37.6800,85,89,301362
1.8231,0.3910,38.2100,85,89,301366
1.8573,0.3959,38.2400,85,89,301369
1.9404,0.4301,38.1100,85,89,301372
1.9404,0.3959,38.2100,85,89,301376
1.9208,0.4008,38.2100,85,89,301379
1.8524,0.3959,38.1800,85,89,301382
1.8475,0.3861,38.2400,85,89,301385
1.9013,0.3910,38.1100,85,89,301389
1.9453,0.3959,38.2400,85,89,301392
1.9844,0.4008,38.2100,85,89,301395
1.9306,0.4008,38.2400,85,89,301400
1.8964,0.3959,38.2400,85,89,301403
1.9159,0.4057,38.1500,85,89,301406
1.9453,0.3861,38.2100,85,89,301410
2.0235,0.4399,37.9900,85,89,301413
2.0235,0.4008,38.0800,85,89,301416
2.0039,0.3910,38.2400,85,89,301419
1.9648,0.4057,38.1100,85,89,301423
1.9453,0.3959,38.2400,85,89,301426
2.0381,0.4057,37.9600,85,89,301429
2.0577,0.3910,38.0800,85,89,301433
2.0528,0.3959,38.2400,85,89,301436
2.0332,0.4057,38.1800,85,89,301440
1.9892,0.3959,38.2400,85,89,301444
2.0528,0.4106,37.9300,85,89,301447
2.0674,0.3861,38.1100,85,89,301450
2.1065,0.3910,38.2100,85,89,301453
2.1114,0.4008,38.2400,85,89,301457
2.0723,0.3959,38.2400,85,89,301460
2.0968,0.4154,38.0200,85,89,301463
2.0626,0.4106,38.1800,85,89,301467
2.1114,0.3959,38.1100,85,89,301470
2.1408,0.4008,38.2100,85,89,301473
2.1554,0.3959,38.2400,85,89,301477
2.1212,0.4057,38.0200,85,89,301480
2.0528,0.3959,38.1800,85,89,301484
2.0626,0.4008,38.0800,85,89,301487
2.0772,0.3959,38.2100,85,89,301491
2.0870,0.3910,38.2400,85,89,301494
2.0723,0.4252,38.1100,85,89,301497
1.9746,0.3959,38.2100,85,89,301501
1.9306,0.4057,38.0800,85,89,301504
1.8866,0.4008,38.2400,85,89,301507
1.9062,0.4008,38.2400,85,89,301511
1.9159,0.3959,38.1100,85,89,301514
1.8524,0.4008,38.2100,85,89,301517
1.7986,0.4008,38.0500,85,89,301520
1.7058,0.3959,38.3000,85,89,301524
1.6960,0.3959,38.2400,85,89,301528
1.7449,0.4057,38.0800,85,89,301531
1.7302,0.3959,38.2700,85,89,301535
1.7253,0.4106,37.9600,85,89,301538
1.6618,0.3861,38.1100,85,89,301541
1.6178,0.3959,38.2700,85,89,301545
1.6520,0.4057,38.1500,85,89,301548
1.6764,0.3959,38.3300,85,89,301551
1.7351,0.4106,37.9000,85,89,301554
1.6764,0.3959,38.1100,85,89,301558
1.6276,0.3959,38.2400,85,89,301561
1.6129,0.4008,38.1800,85,89,301564
1.6325,0.3959,38.3300,85,89,301569
1.7498,0.4106,37.9900,85,89,301572
1.7155,0.4057,38.1100,85,89,301575
1.6813,0.3959,38.1800,85,89,301579
1.6422,0.3959,38.3000,85,89,301582
1.6422,0.3910,38.2400,85,89,301585
1.7058,0.4057,38.2400,85,89,301589
1.7351,0.3910,38.1800,85,89,301592
1.7595,0.3959,38.1100,85,89,301595
1.7107,0.3959,38.2100,85,89,301598
1.6667,0.3959,38.2400,85,89,301602
1.6911,0.4057,37.9300,85,89,301605
1.7107,0.3861,38.1800,85,89,301608
1.7742,0.4057,38.2700,85,89,301613
1.7595,0.3910,38.2100,85,89,301616
1.7302,0.3959,38.2400,85,89,301619
1.7058,0.4008,38.0800,85,89,301623
1.6911,0.3910,38.2400,85,89,301626
1.7449,0.4008,38.0500,85,89,301629
1.7791,0.3959,38.3000,85,89,301632
1.7889,0.4301,38.2400,85,89,301636
1.7693,0.4008,38.1100,85,89,301639
1.7107,0.3959,38.2100,85,89,301642
1.7400,0.4154,37.9900,85,89,301646
1.7546,0.3910,38.2100,85,89,301649
1.8084,0.3910,38.3000,85,89,301652
1.8377,0.4008,38.1800,85,89,301657
1.7742,0.3959,38.1800,85,89,301660
1.7742,0.4106,37.9300,85,89,301663
1.7595,0.4008,38.0800,85,89,301667
1.7889,0.3959,38.2400,85,89,301670
1.8426,0.4008,38.2100,85,89,301673
1.8182,0.3910,38.2100,85,89,301676
1.8280,0.4154,38.0500,85,89,301680
1.8377,0.4008,38.0800,85,89,301683
1.7889,0.3959,38.2100,85,89,301687
1.7840,0.4008,38.0500,85,89,301690
1.7889,0.4106,38.2400,85,89,301693
1.8426,0.3959,38.2400,85,89,301698
1.8866,0.4008,38.1800,85,89,301701
1.8671,0.3959,38.2100,85,89,301704
1.8328,0.3959,37.4600,85,89,301708
1.7644,0.3861,38.2400,85,89,301711
1.7840,0.3959,38.2400,85,89,301714
1.8524,0.4057,38.1100,85,89,301717
1.8573,0.3959,37.8300,85,89,301721
1.8622,0.4008,37.9900,85,89,301724
1.8035,0.3959,38.0800,85,89,301727
1.7644,0.3959,38.2100,85,89,301731
1.8133,0.3959,38.1100,85,89,301734
1.8328,0.3959,38.2400,85,89,301737
1.8915,0.4301,37.9300,85,89,301742
1.8377,0.3959,38.1500,85,89,301745
1.7791,0.3959,38.2100,85,89,301748
1.7693,0.4008,38.1800,85,89,301752
1.7840,0.3910,38.2100,85,89,301755
1.8866,0.4154,37.9600,85,89,301758
1.8768,0.4008,38.1100,85,89,301761
1.8426,0.3910,38.1500,85,89,301765
1.8084,0.4008,38.2100,85,89,301768
1.7986,0.3959,38.2400,85,89,301771
1.8671,0.4448,38.0500,85,89,301775
1.8817,0.4008,38.1800,85,89,301778
1.8915,0.3910,38.1100,85,89,301782
1.8573,0.3959,38.2100,85,89,301786
1.7937,0.3959,38.2400,85,89,301789
1.8133,0.4057,38.0200,85,89,301792
1.8328,0.4008,38.1800,85,89,301796
1.8964,0.4008,38.0500,85,89,301799
1.8817,0.4008,38.2400,85,89,301802
1.8475,0.3959,38.2400,85,89,301805
1.8280,0.3959,38.1100,85,89,301809
1.8231,0.3959,38.2100,85,89,301812
1.8671,0.3959,38.0800,85,89,301815
1.8719,0.3959,38.1800,85,89,301819
1.8817,0.3959,38.2400,85,89,301822
1.8524,0.4252,38.1100,85,89,301826
1.7889,0.3959,38.2100,85,89,301830
1.8182,0.4008,38.0500,85,89,301833
1.8280,0.3910,38.2400,85,89,301836
1.8817,0.3959,38.2100,85,89,301839
1.8964,0.4008,38.1500,85,89,301843
1.8475,0.3959,38.2400,85,89,301846
1.8524,0.4057,37.9300,85,89,301849
1.8377,0.3959,38.1100,85,89,301853
1.8719,0.3861,38.2400,85,89,301856
1.9306,0.4008,38.1800,85,89,301859
1.9355,0.3959,38.2100,85,89,301863
1.9453,0.4154,37.9300,85,89,301867
1.8671,0.4057,38.1500,85,89,301870
1.8426,0.3910,38.1100,85,89,301874
1.8915,0.4008,38.2100,85,89,301877
1.8866,0.3959,38.2400,85,89,301880
1.9110,0.4448,38.0800,85,89,301883
1.8377,0.4008,38.1800,85,89,301887
1.7937,0.3959,38.1100,85,89,301890
1.7791,0.4252,38.2400,85,89,301893
1.8133,0.3959,38.1500,85,89,301897
1.8475,0.4057,38.1800,85,89,301900
1.8084,0.3959,38.2100,85,89,301903
1.7791,0.4008,38.0500,85,89,301907
1.7449,0.4008,38.2400,85,89,301911
1.7595,0.3959,38.2400,85,89,301914
1.8426,0.4057,38.1100,85,89,301917
1.8524,0.3959,38.2100,85,89,301921
1.8524,0.3959,38.0200,85,89,301924
1.8182,0.3959,38.1100,85,89,301927
1.7644,0.3959,38.2400,85,89,301931
1.8084,0.4008,38.0500,85,89,301934
1.8280,0.3959,38.2400,85,89,301937
1.8768,0.4008,37.2200,85,89,301941
1.8231,0.3910,38.1800,85,89,301944
1.7693,0.3861,38.2400,85,89,301947
1.7693,0.4350,38.1500,85,89,301952
1.7791,0.4008,38.2400,85,89,301955
1.8719,0.4057,38.0200,85,89,301958
1.8524,0.3910,38.1800,85,89,301961
1.8182,0.3959,38.2400,85,89,301965
1.7889,0.4154,38.1800,85,89,301968
1.7693,0.3959,38.2400,85,89,301971
1.8426,0.4448,37.9900,85,89,301975
1.8426,0.4008,38.1800,85,89,301978
1.8524,0.3910,38.1500,85,89,301981
1.8280,0.3959,38.2100,85,89,301985
1.8035,0.3959,38.2400,85,89,301988
1.8524,0.4203,38.0200,85,89,301991
1.8817,0.4008,38.1800,85,89,301995
1.9208,0.3959,38.1100,85,89,301999
1.9208,0.3959,38.3000,85,89,302002
1.9355,0.4008,38.2100,85,89,302005
1.9990,0.4008,37.9600,85,89,302009
2.0626,0.3959,38.2100,85,89,302012
2.1457,0.4106,38.0800,85,89,302015
2.1408,0.3959,38.2400,85,89,302019
2.0674,0.4057,38.2100,85,89,302022
1.9453,0.3959,38.1500,85,89,302025
1.6960,0.3959,38.3000,85,89,302028
1.5396,0.3959,38.0800,85,89,302032
1.4467,0.3959,38.2400,85,89,302035
1.4956,0.3959,38.1100,85,89,302039
1.6178,0.4008,38.1500,85,89,302043
1.6862,0.3959,38.3000,85,89,302046
1.7791,0.4106,37.9900,85,89,302049
1.8475,0.4008,38.0800,85,89,302053
1.9159,0.3959,38.3000,85,89,302056
1.9941,0.4106,38.1500,85,89,302059
1.9648,0.3959,38.2700,85,89,302063
1.9599,0.4252,37.9600,85,89,302066
1.8817,0.3959,38.1800,85,89,302069
1.8768,0.4057,38.2700,85,89,302072
1.9257,0.4008,38.2100,85,89,302076
1.9501,0.3959,38.2700,85,89,302080
1.9892,0.4106,37.9600,85,89,302083
1.8964,0.4057,38.1100,85,89,302087
1.8377,0.3910,38.1500,85,89,302090
1.8426,0.3959,38.2100,85,89,302093
1.8915,0.3959,38.2100,85,89,302097
1.9550,0.4057,38.1100,85,89,302100
1.9062,0.3959,38.2400,85,89,302103
1.8671,0.3959,38.5500,85,89,302106
1.8231,0.3959,38.2100,85,89,302110
1.8328,0.4008,38.3000,85,89,302113
1.9306,0.4154,38.0200,85,89,302116
1.9208,0.4008,38.3000,85,89,302120
1.9159,0.4008,38.0500,85,89,302124
1.8426,0.3959,38.2700,85,89,302127
1.8328,0.3959,38.2400,85,89,302131
1.8475,0.3959,38.0500,85,89,302134
1.8768,0.4106,38.1800,85,89,302137
1.9599,0.4008,38.0800,85,89,302140
1.8817,0.3910,38.2100,85,89,302144
1.8475,0.3959,38.0800,85,89,302147
1.8377,0.4008,38.1100,85,89,302150
1.8671,0.3959,38.2100,85,89,302154
1.9306,0.4008,38.0800,85,89,302157
1.9306,0.3910,38.2100,85,89,302160
1.9110,0.3959,38.2700,85,89,302164
1.8719,0.4008,37.3700,85,89,302168
1.8377,0.3959,38.2100,85,89,302171
1.9110,0.4057,37.9600,85,89,302174
1.9404,0.4057,38.2100,85,89,302178
1.9404,0.4106,38.2100,85,89,302181
1.9355,0.4008,38.1800,85,89,302184
1.8768,0.3959,38.2400,85,89,302188
1.9208,0.4106,37.9600,85,89,302191
1.9306,0.4008,38.0800,85,89,302194
1.9746,0.3910,38.2100,85,89,302198
2.0039,0.3959,38.2100,85,89,302201
1.9648,0.3910,38.2100,85,89,302204
1.9746,0.4106,38.0500,85,89,302208
1.9404,0.4057,38.1800,85,89,302212
1.9795,0.3959,38.3300,85,89,302215
2.0332,0.3959,38.2100,85,89,302218
2.0577,0.3959,38.3000,85,89,302222
2.0674,0.4057,38.1100,85,89,302225
2.0039,0.3959,38.2100,85,89,302228
2.0332,0.4008,38.1500,85,89,302232
2.0577,0.4008,38.2400,85,89,302235
2.1017,0.3959,38.2100,85,89,302238
2.1457,0.4057,38.0500,85,89,302241
2.0772,0.3910,38.1800,85,89,302245
2.0626,0.4106,38.1100,85,89,302248
2.0283,0.3910,38.2700,85,89,302252
2.0674,0.3959,38.2100,85,89,302256
2.1261,0.3861,38.1100,85,89,302259
2.0968,0.3959,38.2400,85,89,302262
2.0577,0.4008,38.0800,85,89,302266
1.9795,0.4008,38.1800,85,89,302269
1.9501,0.3959,38.2400,85,89,302272
1.9746,0.4057,38.0800,85,89,302275
1.9648,0.3959,38.2100,85,89,302279
1.9599,0.4008,38.0200,85,89,302282
1.8475,0.3959,38.2100,85,89,302285
1.7742,0.3959,38.2400,85,89,302289
1.7449,0.4008,38.1800,85,89,302292
1.5885,0.3959,38.2100,85,89,302297
1.5836,0.3910,38.2100,85,89,302300
1.6569,0.4057,38.0200,85,89,302303
1.7107,0.3959,38.1100,85,89,302307
1.6618,0.3959,38.1100,85,89,302310
1.6080,0.4008,38.2100,85,89,302313
1.5836,0.3910,38.3000,85,89,302316
1.6276,0.4057,38.0800,85,89,302320
1.6618,0.3959,38.2100,85,89,302323
1.7058,0.3959,38.0500,85,89,302326
1.6618,0.3861,38.2400,85,89,302330
1.6178,0.3910,38.2400,85,89,302333
1.6031,0.3959,38.1100,85,89,302337
1.6129,0.4106,38.3000,85,89,302341
1.6813,0.4008,38.1100,85,89,302344
1.6911,0.3959,38.2100,85,89,302347
1.6813,0.3959,38.2400,85,89,302351
1.6618,0.4057,38.0800,85,89,302354
1.6129,0.3959,38.2400,85,89,302357
1.6667,0.4008,37.9900,85,89,302360
1.6960,0.4008,38.1100,85,89,302364
1.7058,0.4008,38.2100,85,89,302367
1.7107,0.4057,38.1500,85,89,302370
1.6471,0.3959,38.2400,85,89,302374
1.6813,0.3861,37.9600,85,89,302377
1.6813,0.4545,38.1500,85,89,302381
1.7302,0.3959,38.2400,85,89,302385
1.7546,0.4008,38.2100,85,89,302388
1.7155,0.3910,38.2100,85,89,302391
1.7253,0.4057,37.9600,85,89,302394
1.6716,0.4008,37.9000,85,89,302398
1.7204,0.3910,38.1800,85,89,302401
1.7595,0.4008,38.2400,85,89,302404
1.7693,0.3910,38.2100,85,89,302408
1.7742,0.4106,38.0500,85,89,302411
1.7058,0.4008,38.2400,85,89,302414
1.6911,0.3959,38.0800,85,89,302418
1.7155,0.3959,38.2100,85,89,302422
1.7546,0.3959,38.1100,85,89,302425
1.8231,0.4057,38.0200,85,89,302429
1.7400,0.4008,38.4000,85,89,302432
1.7107,0.4008,38.0200,85,89,302435
1.6911,0.3959,38.2400,85,89,302438
1.7351,0.3861,38.2400,85,89,302442
1.8035,0.4057,38.1100,85,89,302445
1.7889,0.3959,38.2400,85,89,302448
1.7742,0.4008,38.1100,85,89,302452
1.7107,0.3910,38.1800,85,89,302455
1.7155,0.3910,38.2400,85,89,302458
1.7693,0.4008,38.0800,85,89,302462
1.7937,0.4008,38.2100,85,89,302466
1.8475,0.3959,38.0200,85,89,302469
1.7449,0.3959,38.4600,85,89,302472
1.7058,0.3959,38.2400,85,89,302476
1.7302,0.4057,38.1500,85,89,302479
1.7840,0.4008,38.2100,85,89,302482
1.8328,0.4057,37.9600,85,89,302486
1.8182,0.4008,38.0200,85,89,302489
1.7595,0.3959,38.2400,85,89,302492
1.7351,0.4008,38.1800,85,89,302496
1.7400,0.3959,38.1500,85,89,302499
1.8426,0.4106,37.9600,85,89,302502
1.8475,0.4008,38.0500,85,89,302505
1.8182,0.3910,38.6200,85,89,302510
1.7742,0.3959,38.2100,85,89,302513
1.7302,0.3959,38.2700,85,89,302516
1.7937,0.4057,38.0500,85,89,302520
1.8084,0.3959,38.1500,85,89,302523
1.8328,0.3910,38.2700,85,89,302526
1.8133,0.3959,38.2100,85,89,302530
1.7742,0.3959,38.3000,85,89,302533
1.7937,0.4057,38.1500,85,89,302536
1.7937,0.3959,38.2100,85,89,302539
1.8622,0.4008,38.1100,85,89,302543
1.8866,0.3959,38.2100,85,89,302546
1.8719,0.3959,38.2400,85,89,302550
1.8817,0.4106,38.0500,85,89,302554
1.8377,0.3959,38.1800,85,89,302557
1.9159,0.4008,38.0800,85,89,302560
1.8817,0.3861,38.1800,85,89,302564
1.8866,0.3959,38.3300,85,89,302567
1.8622,0.4008,38.0800,85,89,302570
1.7937,0.3959,38.2100,85,89,302574
1.7791,0.4008,38.0500,85,89,302577
1.7595,0.3959,38.1800,85,89,302580
1.8084,0.3959,38.4300,85,89,302583
1.8377,0.4203,38.1100,85,89,302587
1.7840,0.3959,38.2100,85,89,302590
1.7644,0.4057,37.9600,85,89,302594
1.7253,0.3910,38.1800,85,89,302598
1.7498,0.3959,38.2400,85,89,302601
1.8182,0.4057,38.1800,85,89,302604
1.8133,0.3959,38.3000,85,89,302608
1.8280,0.4057,37.9300,85,89,302611
1.7546,0.4008,38.1100,85,89,302614
1.7253,0.3910,38.2100,85,89,302617
1.7644,0.3910,38.2100,85,89,302621
1.7986,0.3959,38.2400,85,89,302624
1.8622,0.4106,37.9600,85,89,302627
1.8035,0.4057,38.1500,85,89,302631
1.7498,0.3959,38.1500,85,89,302635
1.7302,0.3910,38.2100,85,89,302638
1.7595,0.3861,38.2100,85,89,302642
1.8328,0.4057,38.0800,85,89,302645
1.8280,0.4008,38.1800,85,89,302648
1.8035,0.4008,38.1100,85,89,302651
1.7498,0.3959,38.2400,85,89,302655
1.7498,0.4203,38.2100,85,89,302658
1.8133,0.4008,38.1500,85,89,302661
1.8475,0.3959,38.3300,85,89,302665
1.8671,0.4154,38.1100,85,89,302668
1.7986,0.3959,38.2100,85,89,302671
1.7644,0.3910,38.2100,85,89,302675
1.8133,0.4057,38.0800,85,89,302679
1.8524,0.4008,38.3000,85,89,302682
1.9208,0.3959,38.0500,85,89,302686
1.8964,0.3959,38.1500,85,89,302689
1.8475,0.3910,37.4300,85,89,302692
1.8768,0.4057,38.0800,85,89,302695
1.9306,0.3959,38.2400,85,89,302699
2.0919,0.4057,37.9600,85,89,302702
2.1603,0.4008,38.1800,85,89,302705
2.1114,0.3959,38.2100,85,89,302709
1.9990,0.4008,38.1500,85,89,302712
1.8133,0.4008,38.2400,85,89,302715
1.6960,0.4057,37.9600,85,89,302718
1.5152,0.3959,38.0800,85,89,302723
1.4370,0.3959,38.2400,85,89,302726
1.4418,0.4008,38.1800,85,89,302729
1.4956,0.3959,38.2400,85,89,302733
1.6422,0.4154,37.9900,85,89,302736
1.7400,0.4008,38.1100,85,89,302739
1.8524,0.3910,38.1500,85,89,302743
1.9306,0.4106,38.2400,85,89,302746
1.9453,0.3910,38.2400,85,89,302749
1.9159,0.4057,38.0200,85,89,302753
1.8866,0.4154,38.1800,85,89,302756
1.8768,0.4008,38.1500,85,89,302759
1.9062,0.3959,38.2100,85,89,302763
1.9648,0.3959,38.2400,85,89,302767
1.9306,0.4057,38.0500,85,89,302770
1.8671,0.4057,38.1800,85,89,302773
1.8573,0.4057,38.0800,85,89,302777
1.8524,0.3861,38.2100,85,89,302780
1.9062,0.4008,38.2100,85,89,302783
1.9355,0.4008,38.1100,85,89,302787
1.8964,0.3861,38.2100,85,89,302790
1.8671,0.3959,38.1100,85,89,302793
1.8231,0.3959,38.2100,85,89,302797
1.8475,0.4008,38.2100,85,89,302800
1.9257,0.3861,38.1100,85,89,302803
1.9110,0.3910,38.3000,85,89,302807
1.9159,0.4057,37.9600,85,89,302811
1.8573,0.4057,38.0800,85,89,302814
1.8280,0.4203,38.2100,85,89,302817
1.8817,0.4057,38.1800,85,89,302821
1.9062,0.3959,38.2400,85,89,302824
1.9941,0.4106,37.9600,85,89,302827
1.9013,0.3959,38.0800,85,89,302831
1.8524,0.3910,38.2100,85,89,302834
1.8475,0.4008,38.2100,85,89,302837
1.8768,0.3959,38.1100,85,89,302840
1.9746,0.4203,37.9900,85,89,302844
1.9453,0.4057,37.9600,85,89,302848
1.8915,0.4008,38.1800,85,89,302851
1.8524,0.3861,38.2100,85,89,302855
1.8475,0.4008,38.2700,85,89,302858
1.9208,0.4057,38.1100,85,89,302861
1.9453,0.3959,38.1500,85,89,302865
1.9892,0.3959,38.0800,85,89,302868
1.9159,0.4008,38.3600,85,89,302871
1.8817,0.4008,38.2100,85,89,302875
1.9257,0.4057,38.0500,85,89,302878
1.9501,0.3959,38.2100,85,89,302881
2.0137,0.4057,38.0800,85,89,302884
