ecg,gsr,temp,hr,spo2,timest
1.7107,0.3910,36.1900,84,91,336380
1.7449,0.3910,36.0400,84,91,336385
1.7107,0.3910,36.0700,84,91,336388
1.6520,0.3861,36.1900,84,91,336391
1.6471,0.4008,36.0700,84,91,336395
1.6373,0.3861,36.1900,84,91,336398
1.7302,0.3959,35.9000,84,91,336401
1.7351,0.3861,36.2500,84,91,336404
1.7449,0.3910,36.1900,84,91,336408
1.6764,0.3861,35.4500,84,91,336411
1.6520,0.3910,36.1900,84,91,336414
1.7302,0.4106,36.0100,84,91,336418
1.7498,0.3910,36.1600,84,91,336421
1.7889,0.3861,36.1000,84,91,336424
1.7840,0.3910,36.1600,84,91,336429
1.7302,0.3861,36.1600,84,91,336432
1.7449,0.3861,36.0400,84,91,336435
1.7498,0.3959,36.0700,84,91,336439
1.7986,0.3910,36.0400,84,91,336442
1.7742,0.4252,36.1600,84,91,336445
1.7204,0.3910,36.1900,84,91,336449
1.6960,0.3959,35.8700,84,91,336452
1.6471,0.3861,36.1600,84,91,336455
1.6862,0.4301,36.0400,84,91,336459
1.6960,0.3812,36.1300,84,91,336462
1.7107,0.4057,36.1900,84,91,336465
1.6813,0.3959,36.0100,84,91,336470
1.6178,0.3910,36.1900,84,91,336473
1.6422,0.3959,36.1300,84,91,336476
1.6764,0.3861,36.1300,84,91,336479
1.7302,0.4057,36.1900,84,91,336483
1.7449,0.3910,36.1600,84,91,336486
1.6960,0.3861,36.0400,84,91,336489
1.6911,0.4057,35.8400,84,91,336493
1.6569,0.3910,36.1900,84,91,336496
1.7351,0.3959,36.1900,84,91,336499
1.7742,0.3910,36.1300,84,91,336503
1.7742,0.3861,36.1900,84,91,336506
1.7791,0.4008,35.9500,84,91,336509
1.6960,0.3959,36.1000,84,91,336514
1.6862,0.3861,36.0700,84,91,336517
1.7400,0.3910,36.1600,84,91,336520
1.7840,0.3861,36.1900,84,91,336524
1.8084,0.4008,35.9800,84,91,336527
1.7449,0.3910,36.2800,84,91,336530
1.7155,0.3861,36.0400,84,91,336533
1.7058,0.3861,36.1900,84,91,336537
1.7546,0.3861,36.1600,84,91,336540
1.8182,0.3959,36.1000,84,91,336543
1.7840,0.4057,36.1600,84,91,336547
1.7595,0.3959,36.0700,84,91,336550
1.7058,0.3861,35.9200,84,91,336553
1.7595,0.3910,36.1600,84,91,336559
1.7840,0.3861,36.2800,84,91,336562
1.9062,0.3959,36.1600,84,91,336566
2.0430,0.3861,36.1900,84,91,336569
2.1603,0.3959,35.8700,84,91,336572
2.0723,0.3959,35.9800,84,91,336576
1.9208,0.3763,36.1300,84,91,336579
1.7595,0.4008,36.1600,84,91,336582
1.6325,0.3666,36.1900,84,91,336586
1.5103,0.4057,35.9800,84,91,336589
1.4321,0.3959,36.1300,84,91,336592
1.4272,0.3910,36.0400,84,91,336596
1.4663,0.3861,36.1900,84,91,336600
1.5445,0.3910,36.1600,84,91,336603
1.6813,0.3959,36.0100,84,91,336607
1.7693,0.3910,36.1900,84,91,336610
1.8377,0.3959,36.0400,84,91,336613
1.7937,0.3910,36.1900,84,91,336616
1.7351,0.3861,36.1900,84,91,336620
1.7204,0.3910,36.1300,84,91,336623
1.7498,0.3861,36.0700,84,91,336626
1.8133,0.3910,36.1000,84,91,336630
1.7937,0.3910,36.1600,84,91,336633
1.7498,0.3910,36.1900,84,91,336636
1.7058,0.4008,36.1300,84,91,336641
1.6813,0.3861,36.1600,84,91,336644
1.7595,0.4008,35.8700,84,91,336647
1.7889,0.3861,36.1000,84,91,336651
1.7742,0.3959,36.1900,84,91,336654
1.7449,0.3910,36.1600,84,91,336657
1.6911,0.3910,36.1600,84,91,336661
1.7351,0.4106,35.9000,84,91,336664
1.7840,0.3910,36.0700,84,91,336667
1.7840,0.3861,36.1000,84,91,336671
1.7791,0.3861,36.1600,84,91,336674
1.7302,0.3861,36.1900,84,91,336677
1.7204,0.3910,36.0100,84,91,336680
1.7009,0.3861,36.1600,84,91,336685
1.7595,0.3910,36.0100,84,91,336688
1.7889,0.3910,36.1600,84,91,336691
1.7742,0.3861,36.1900,84,91,336695
1.7351,0.3959,36.1300,84,91,336698
1.6716,0.3910,36.1600,84,91,336701
1.7107,0.3959,36.1900,84,91,336705
1.7400,0.3910,36.1900,84,91,336708
1.7840,0.3861,36.1000,84,91,336711
1.8084,0.3959,36.0700,84,91,336715
1.7204,0.3861,36.1900,84,91,336718
1.7155,0.3959,35.9500,84,91,336721
1.7155,0.3910,36.0700,84,91,336726
1.7644,0.3910,36.1900,84,91,336729
1.8133,0.3910,36.1000,84,91,336732
1.7693,0.3910,36.1600,84,91,336736
1.7546,0.4008,35.8400,84,91,336739
1.7204,0.3910,36.0700,84,91,336742
1.7351,0.3861,36.1900,84,91,336745
1.7986,0.3910,36.1600,84,91,336749
1.8231,0.3861,36.1900,84,91,336752
1.8719,0.4106,35.9200,84,91,336755
1.7595,0.4008,36.1600,84,91,336759
1.7546,0.3910,36.0700,84,91,336762
1.7791,0.3861,36.1600,84,91,336765
1.8426,0.3861,35.4500,84,91,336770
1.9355,0.3959,36.0700,84,91,336773
1.8524,0.3910,36.2500,84,91,336776
1.8231,0.4008,36.0100,84,91,336780
1.7937,0.3910,36.1900,84,91,336783
1.8426,0.3910,36.1600,84,91,336786
1.9355,0.4008,36.0400,84,91,336790
1.9550,0.3910,36.1600,84,91,336793
1.9306,0.3959,36.0400,84,91,336796
1.8573,0.3861,36.1000,84,91,336800
1.8475,0.3861,36.1900,84,91,336803
1.9404,0.3910,35.9800,84,91,336806
1.9550,0.3910,36.1900,84,91,336809
1.9990,0.3959,35.9800,84,91,336814
1.9648,0.3910,36.1000,84,91,336817
1.8671,0.3861,36.1600,84,91,336820
1.8475,0.4203,36.1600,84,91,336824
1.8622,0.3910,36.1900,84,91,336827
1.9208,0.4008,35.1900,84,91,336830
1.8377,0.3861,36.1600,84,91,336834
1.7498,0.3861,36.1900,84,91,336837
1.6716,0.3910,36.1600,84,91,336840
1.6520,0.3910,36.1600,84,91,336844
1.6862,0.4057,36.1600,84,91,336847
1.6716,0.4008,36.1300,84,91,336850
1.5982,0.3861,36.1000,84,91,336855
1.5249,0.3910,36.1600,84,91,336858
1.4418,0.3861,36.3100,84,91,336861
1.4712,0.3959,35.9800,84,91,336864
1.4614,0.4057,36.1600,84,91,336868
1.5005,0.3910,36.0400,84,91,336871
1.4663,0.3861,36.2500,84,91,336874
1.4027,0.3910,36.1900,84,91,336878
1.3832,0.3959,36.0400,84,91,336881
1.3832,0.3910,36.1900,84,91,336884
1.4516,0.3910,36.1000,84,91,336888
1.4663,0.3861,36.2200,84,91,336891
1.4565,0.3861,36.1600,84,91,336894
1.4125,0.3910,36.1000,84,91,336899
1.3685,0.3861,36.2500,84,91,336902
1.4272,0.3959,35.9200,84,91,336905
1.4418,0.3812,36.1600,84,91,336909
1.4712,0.3861,36.1900,84,91,336912
1.4614,0.3910,36.1300,84,91,336915
1.4027,0.4350,36.2200,84,91,336919
1.4125,0.4008,35.8400,84,91,336922
1.4174,0.4008,36.0400,84,91,336925
1.4712,0.3861,36.1600,84,91,336929
1.5103,0.3910,36.1600,84,91,336932
1.4761,0.3861,36.1900,84,91,336935
1.4956,0.3959,35.9500,84,91,336939
1.4223,0.3959,36.0100,84,91,336943
1.4663,0.3910,36.0400,84,91,336946
1.5005,0.3861,36.0700,84,91,336949
1.5200,0.3959,36.1900,84,91,336953
1.5103,0.3959,36.0400,84,91,336956
1.4418,0.3861,36.2500,84,91,336959
1.4467,0.3959,36.0100,84,91,336963
1.4712,0.3861,36.1900,84,91,336966
1.5249,0.3861,36.1900,84,91,336969
1.5494,0.3910,36.1300,84,91,336973
1.5054,0.3861,36.1300,84,91,336976
1.4809,0.3910,35.9800,84,91,336979
1.4321,0.3861,36.2800,84,91,336984
1.5103,0.3910,36.1900,84,91,336987
1.5494,0.3959,36.0700,84,91,336990
1.5543,0.3910,36.1900,84,91,336994
1.5445,0.4154,35.9000,84,91,336997
1.4712,0.3959,36.0400,84,91,337000
1.4565,0.3861,36.1600,84,91,337003
1.5103,0.3910,36.2800,84,91,337007
1.5445,0.3861,36.1900,84,91,337010
1.5885,0.4057,35.8700,84,91,337013
1.5103,0.3910,36.0400,84,91,337017
1.4418,0.3861,36.1000,84,91,337020
1.4418,0.3959,36.1600,84,91,337024
1.4858,0.3910,36.1900,84,91,337028
1.5591,0.4545,36.0400,84,91,337031
1.5200,0.3861,36.3400,84,91,337034
1.4761,0.4008,36.0400,84,91,337038
1.4223,0.3861,36.1900,84,91,337041
1.4272,0.3910,36.1900,84,91,337044
1.4907,0.3959,36.1300,84,91,337048
1.5152,0.3910,36.1600,84,91,337051
1.5249,0.3959,36.0400,84,91,337054
1.4614,0.3861,36.1900,84,91,337058
1.4272,0.3812,36.1900,84,91,337061
1.4712,0.3959,35.9200,84,91,337064
1.5005,0.3910,36.1600,84,91,337069
1.5543,0.3910,35.9500,84,91,337072
1.5298,0.3910,36.0700,84,91,337075
1.4761,0.3861,36.0400,84,91,337078
1.4614,0.3959,36.1000,84,91,337082
1.4712,0.3861,36.1900,84,91,337085
1.5689,0.4008,35.8700,84,91,337088
1.5640,0.4008,36.0400,84,91,337092
1.5298,0.3910,36.1900,84,91,337095
1.4761,0.3910,36.2200,84,91,337098
1.4467,0.3959,36.1900,84,91,337102
1.5249,0.4057,35.9200,84,91,337105
1.5494,0.3910,36.1600,84,91,337108
1.5836,0.3861,36.0400,84,91,337113
1.5543,0.3910,36.1900,84,91,337116
1.5152,0.4106,36.1900,84,91,337119
1.5200,0.3861,36.0700,84,91,337123
1.5347,0.3910,36.0100,84,91,337126
1.6129,0.3910,36.0400,84,91,337129
1.6227,0.3861,36.1900,84,91,337133
1.6129,0.3910,36.1900,84,91,337136
1.5640,0.4008,36.1000,84,91,337139
1.5200,0.3910,36.1300,84,91,337142
1.5640,0.4008,36.0400,84,91,337146
1.5738,0.3812,36.1300,84,91,337149
1.5738,0.3910,36.2200,84,91,337153
1.5494,0.4203,36.0400,84,91,337157
1.4712,0.3763,36.1900,84,91,337160
1.4614,0.3959,35.9200,84,91,337163
1.4467,0.4057,35.9000,84,91,337168
1.4174,0.3910,36.1600,84,91,337171
1.4663,0.3910,36.1600,84,91,337175
1.5152,0.3910,35.9000,84,91,337178
1.5103,0.3861,36.1900,84,91,337181
1.5103,0.4252,36.0400,84,91,337185
1.4370,0.3910,36.1300,84,91,337188
1.4370,0.3910,36.0100,84,91,337191
1.4761,0.3910,36.1600,84,91,337196
1.5152,0.3812,36.1900,84,91,337199
1.5396,0.3959,35.9800,84,91,337202
1.4712,0.3910,36.1600,84,91,337206
1.4565,0.4154,36.0400,84,91,337209
1.4516,0.3910,36.1600,84,91,337212
1.5005,0.3861,36.3100,84,91,337215
1.5494,0.3861,36.0100,84,91,337219
1.5200,0.3861,36.1600,84,91,337222
1.4858,0.3910,35.9500,84,91,337225
1.4321,0.3861,36.1300,84,91,337229
1.4467,0.3861,36.1900,84,91,337232
1.5005,0.4057,36.1300,84,91,337235
1.5249,0.3861,36.1900,84,91,337240
1.5445,0.4203,35.8700,84,91,337243
1.4663,0.3861,36.1900,84,91,337246
1.4663,0.3910,36.1900,84,91,337250
1.5103,0.3910,36.1900,84,91,337253
1.5494,0.3861,36.2200,84,91,337256
1.6080,0.4154,35.9500,84,91,337260
1.5543,0.3959,36.1300,84,91,337263
1.5445,0.3861,36.1000,84,91,337266
1.6227,0.3910,36.1900,84,91,337270
1.7449,0.3910,36.1600,84,91,337273
1.8817,0.3861,35.9800,84,91,337276
1.8964,0.3910,36.1600,84,91,337281
1.7791,0.3910,36.0400,84,91,337284
1.5934,0.3861,36.1900,84,91,337287
1.4223,0.3910,36.1900,84,91,337290
1.3050,0.4008,36.1000,84,91,337294
1.2463,0.3910,36.1900,84,91,337297
1.2854,0.3959,36.0700,84,91,337300
1.3441,0.3910,36.1600,84,91,337304
1.3783,0.3861,36.1600,84,91,337307
1.4516,0.3861,36.1300,84,91,337310
1.5445,0.4057,36.1600,84,91,337314
1.6569,0.3959,35.9200,84,91,337317
1.6618,0.3910,36.1900,84,91,337320
1.6178,0.3861,36.1900,84,91,337325
1.5738,0.3959,36.1300,84,91,337328
1.5494,0.3910,36.1600,84,91,337331
1.6227,0.4008,35.8400,84,91,337335
1.6325,0.3910,36.1000,84,91,337338
1.6227,0.3861,36.1900,84,91,337341
1.5982,0.3910,36.1600,84,91,337345
1.5543,0.3861,36.1900,84,91,337348
1.6080,0.4106,35.9800,84,91,337351
1.6373,0.3959,36.1300,84,91,337355
1.7009,0.3910,36.0700,84,91,337358
1.6520,0.3861,36.1600,84,91,337361
1.6031,0.4008,36.1900,84,91,337364
1.5934,0.3959,36.0400,84,91,337369
1.5689,0.3910,36.1900,84,91,337372
1.6422,0.3910,36.0100,84,91,337375
1.6618,0.3861,36.2500,84,91,337379
1.6569,0.3861,36.1900,84,91,337382
1.6129,0.3861,36.1000,84,91,337385
1.5689,0.3861,36.3400,84,91,337389
1.6080,0.4008,36.0100,84,91,337392
1.6422,0.3861,35.5100,84,91,337395
1.6960,0.3910,36.1900,84,91,337399
1.6911,0.3959,35.9500,84,91,337402
1.6325,0.3861,36.1900,84,91,337405
1.6325,0.4301,35.9000,84,91,337410
1.6422,0.3959,36.0700,84,91,337413
1.6862,0.3861,36.1600,84,91,337416
1.7351,0.3959,36.2500,84,91,337420
1.7009,0.3959,36.2200,84,91,337423
1.6960,0.4057,35.8700,84,91,337426
1.6471,0.3910,36.0100,84,91,337430
1.6667,0.3861,36.3100,84,91,337433
1.7498,0.3910,36.1900,84,91,337436
1.7644,0.3861,36.2800,84,91,337439
1.8182,0.3959,35.9800,84,91,337443
1.7155,0.3910,36.1900,84,91,337446
1.7302,0.3910,36.0400,84,91,337449
1.7400,0.3910,36.1900,84,91,337454
1.7986,0.3959,36.1900,84,91,337457
1.8426,0.3959,36.1000,84,91,337460
1.7986,0.4008,36.1600,84,91,337464
1.8035,0.3910,36.0100,84,91,337467
1.7498,0.4154,36.1900,84,91,337470
1.7986,0.3910,36.1900,84,91,337474
1.8915,0.4252,36.0100,84,91,337477
1.8964,0.3861,36.1900,84,91,337480
1.8866,0.3910,35.9800,84,91,337484
1.8328,0.4301,36.0700,84,91,337487
1.8280,0.3910,36.1600,84,91,337490
1.9110,0.4301,36.0400,84,91,337494
1.9697,0.3910,36.1600,84,91,337498
2.0088,0.4008,35.9000,84,91,337501
1.9501,0.3910,36.1000,84,91,337504
1.9062,0.3910,36.1600,84,91,337508
1.9062,0.3910,36.1300,84,91,337511
1.9599,0.3910,36.1600,84,91,337514
2.0528,0.4008,35.8700,84,91,337518
2.0039,0.3910,36.1300,84,91,337521
1.9501,0.3861,35.7800,84,91,337524
1.8915,0.3910,36.1600,84,91,337528
1.8622,0.4106,36.2200,84,91,337531
1.9208,0.4057,36.0400,84,91,337534
1.8964,0.4008,36.1000,84,91,337539
1.8524,0.3910,36.0400,84,91,337542
1.7595,0.3910,36.1900,84,91,337545
1.6764,0.3910,36.1600,84,91,337548
1.6862,0.4008,36.0700,84,91,337552
1.6813,0.3910,36.1600,84,91,337555
1.7009,0.3959,36.0100,84,91,337558
1.6276,0.3959,36.2200,84,91,337562
1.5543,0.3861,36.2200,84,91,337565
1.5005,0.3861,36.0400,84,91,337568
1.4907,0.3861,35.3900,84,91,337572
1.5591,0.3910,35.9800,84,91,337575
1.5543,0.3861,36.4900,84,91,337579
1.5298,0.3910,36.1900,84,91,337583
1.4809,0.3910,36.1900,84,91,337586
1.4370,0.3861,36.1600,84,91,337589
1.4858,0.3959,35.9200,84,91,337593
1.5152,0.3910,36.1600,84,91,337596
1.5543,0.4008,36.1600,84,91,337599
1.5494,0.3861,36.1300,84,91,337603
1.5298,0.3910,36.1900,84,91,337606
1.5249,0.4106,36.0100,84,91,337609
1.5494,0.3910,36.1000,84,91,337612
1.5836,0.3861,36.1000,84,91,337616
1.6178,0.3910,36.1600,84,91,337619
1.5934,0.3861,36.1900,84,91,337623
1.5787,0.4057,35.9500,84,91,337627
1.5445,0.3910,35.9800,84,91,337630
1.5738,0.3959,36.0400,84,91,337633
1.6178,0.3861,36.1900,84,91,337637
1.6373,0.3910,36.1600,84,91,337640
1.6276,0.3959,36.0700,84,91,337643
1.5543,0.3861,36.2200,84,91,337647
1.5640,0.4008,36.0400,84,91,337650
1.5836,0.3861,36.0700,84,91,337653
1.6422,0.3910,36.1600,84,91,337657
1.6618,0.3910,36.1000,84,91,337660
1.6129,0.3910,36.1900,84,91,337664
1.5738,0.3910,35.4200,84,91,337667
1.5396,0.3861,36.1900,84,91,337671
1.5787,0.3861,36.1900,84,91,337674
1.6520,0.3959,36.1300,84,91,337677
1.6422,0.3910,36.1600,84,91,337681
1.6422,0.4008,35.8400,84,91,337684
1.5689,0.3910,36.0400,84,91,337687
1.5543,0.3910,36.2200,84,91,337691
1.6031,0.3861,36.1300,84,91,337694
1.6373,0.3861,36.1900,84,91,337697
1.6862,0.4106,35.9200,84,91,337701
1.6178,0.4008,36.0400,84,91,337704
1.5494,0.3861,36.1300,84,91,337708
1.5543,0.3959,36.1600,84,91,337712
1.5982,0.3959,36.1900,84,91,337715
1.6618,0.3959,36.0100,84,91,337718
1.6325,0.3861,36.3100,84,91,337722
1.5982,0.3910,36.0100,84,91,337725
1.5445,0.3861,36.3400,84,91,337728
1.5591,0.3910,36.1900,84,91,337732
1.6178,0.3959,36.2800,84,91,337735
1.6520,0.3910,36.1900,84,91,337738
1.6618,0.3959,36.0100,84,91,337741
1.5885,0.3910,36.2200,84,91,337745
1.5543,0.3861,36.0400,84,91,337748
1.5934,0.3959,36.0400,84,91,337752
1.6325,0.3861,36.1900,84,91,337756
1.7009,0.3959,35.9200,84,91,337759
1.6618,0.4008,36.0700,84,91,337762
1.6031,0.3910,36.1600,84,91,337766
1.5836,0.4154,36.0700,84,91,337769
1.5934,0.3910,36.1300,84,91,337772
1.6813,0.4008,35.8100,84,91,337776
1.6276,0.4106,35.9800,84,91,337779
1.6569,0.3910,36.1600,84,91,337783
1.7058,0.3910,36.0400,84,91,337786
1.6764,0.3910,36.1900,84,91,337789
1.6227,0.4106,36.1900,84,91,337794
1.6178,0.3861,36.1300,84,91,337797
1.6373,0.3910,36.1600,84,91,337800
1.7107,0.4008,36.0400,84,91,337804
1.7009,0.3910,36.1900,84,91,337807
1.6667,0.3861,36.3400,84,91,337810
1.6422,0.3910,36.0400,84,91,337814
1.6178,0.3910,36.2800,84,91,337817
1.7107,0.3959,35.9500,84,91,337820
1.7302,0.3910,36.0700,84,91,337823
1.7302,0.4057,36.1600,84,91,337827
1.7009,0.4008,36.0700,84,91,337830
1.6178,0.3861,36.3100,84,91,337833
1.6325,0.4008,35.8700,84,91,337838
1.6373,0.3959,36.1600,84,91,337841
1.6716,0.3861,36.1900,84,91,337844
1.6667,0.3910,36.1600,84,91,337848
1.6080,0.3910,36.1900,84,91,337851
1.5934,0.4106,35.9200,84,91,337854
1.5445,0.3910,36.1000,84,91,337858
1.5836,0.3910,36.1300,84,91,337861
1.6276,0.3910,36.0700,84,91,337864
1.6178,0.3910,36.1900,84,91,337868
1.6129,0.3959,36.0400,84,91,337871
1.5543,0.3861,36.1900,84,91,337874
1.5591,0.3910,35.9800,84,91,337879
1.6080,0.3861,36.1900,84,91,337882
1.6471,0.3959,36.1900,84,91,337885
1.6667,0.4008,36.0100,84,91,337888
1.5982,0.3861,36.2200,84,91,337892
1.5738,0.3861,36.0700,84,91,337895
1.5591,0.3910,36.1300,84,91,337898
1.6227,0.3861,36.1900,84,91,337902
1.6716,0.3910,36.0400,84,91,337905
1.6325,0.3861,36.1600,84,91,337908
1.6031,0.3959,35.9200,84,91,337912
1.5543,0.3910,36.1900,84,91,337915
1.5787,0.3910,36.1900,84,91,337918
1.6422,0.3910,36.1900,84,91,337923
1.6716,0.3910,36.1900,84,91,337926
1.6960,0.4008,35.8700,84,91,337929
1.6080,0.3910,36.1600,84,91,337933
1.5836,0.3861,36.1600,84,91,337936
1.6178,0.3861,36.1600,84,91,337939
1.6862,0.3910,36.1900,84,91,337943
1.7546,0.4057,35.9500,84,91,337946
1.7107,0.4008,36.1300,84,91,337949
1.6716,0.3861,36.2500,84,91,337953
1.6471,0.3910,36.1900,84,91,337956
1.6569,0.3910,36.1900,84,91,337959
1.7400,0.4008,35.9500,84,91,337963
1.7791,0.4301,36.1600,84,91,337967
1.8377,0.3959,36.0100,84,91,337970
1.8719,0.4154,36.1900,84,91,337973
1.9208,0.3861,36.1900,84,91,337977
1.9990,0.3959,36.0700,84,91,337980
1.9599,0.3910,36.1900,84,91,337983
1.8915,0.3910,35.9800,84,91,337987
1.6813,0.3910,36.1300,84,91,337990
1.4614,0.3861,36.1900,84,91,337993
1.3392,0.3959,36.1000,84,91,337997
1.3636,0.3910,36.2800,84,91,338000
1.5249,0.3959,35.9000,84,91,338003
1.5982,0.3910,36.1600,84,91,338008
1.6520,0.3861,36.1900,84,91,338011
1.6716,0.3959,36.1300,84,91,338014
1.6911,0.3861,36.1900,84,91,338018
1.7791,0.4008,35.8700,84,91,338021
1.8035,0.3959,36.1600,84,91,338024
1.7889,0.3910,36.1300,84,91,338027
1.7400,0.3959,35.9800,84,91,338031
1.7204,0.3910,36.1900,84,91,338034
1.7253,0.4057,36.3700,84,91,338037
1.7449,0.3959,36.1000,84,91,338041
1.7742,0.3910,36.1300,84,91,338044
1.7449,0.3959,36.1900,84,91,338048
1.6911,0.3861,36.3400,84,91,338052
1.6716,0.3959,36.0400,84,91,338055
1.6618,0.4203,36.1900,84,91,338058
1.7400,0.4008,36.0100,84,91,338062
1.7693,0.3861,36.1900,84,91,338065
1.7498,0.3910,36.1600,84,91,338068
1.7058,0.3910,36.0700,84,91,338072
1.6618,0.3910,36.2200,84,91,338075
1.7009,0.3910,36.0100,84,91,338078
1.7302,0.3910,36.2200,84,91,338082
1.7840,0.3861,36.2800,84,91,338085
1.8182,0.4008,36.1000,84,91,338088
1.7204,0.3861,36.1300,84,91,338092
1.7498,0.3959,35.9200,84,91,338096
1.7253,0.3959,36.0100,84,91,338099
1.7595,0.3910,36.1900,84,91,338102
1.8280,0.4008,36.1300,84,91,338106
1.7840,0.3910,36.1900,84,91,338109
1.7791,0.4057,35.9500,84,91,338112
1.7253,0.4008,36.0100,84,91,338116
1.7498,0.3861,36.2800,84,91,338119
1.8084,0.3910,36.1900,84,91,338122
1.8377,0.3910,36.1900,84,91,338126
1.8524,0.4350,36.0100,84,91,338129
1.7644,0.3910,36.2200,84,91,338132
1.7595,0.3910,36.0400,84,91,338137
1.7889,0.3861,36.1900,84,91,338140
1.8573,0.3910,36.1900,84,91,338143
1.8964,0.3959,36.1300,84,91,338146
1.8524,0.3910,36.1900,84,91,338150
1.8231,0.3959,36.4600,84,91,338153
1.7840,0.3861,36.1900,84,91,338156
1.8377,0.3812,36.1600,84,91,338160
1.9208,0.3959,36.0700,84,91,338163
1.9208,0.3910,36.1600,84,91,338166
1.9062,0.3861,35.9800,84,91,338170
1.8377,0.3910,36.0400,84,91,338173
1.8231,0.3959,36.1600,84,91,338177
1.8915,0.4008,36.0400,84,91,338181
1.9306,0.3910,36.1900,84,91,338184
1.9844,0.4008,35.9500,84,91,338187
1.9208,0.3910,36.0700,84,91,338191
1.8768,0.3910,36.1900,84,91,338194
1.8964,0.4203,36.1600,84,91,338197
1.9550,0.3861,36.1900,84,91,338201
2.0674,0.4057,35.8700,84,91,338204
2.0283,0.3861,36.1300,84,91,338207
1.9795,0.3812,36.1300,84,91,338210
1.9404,0.3910,36.1600,84,91,338214
1.9550,0.3959,36.1900,84,91,338217
2.0235,0.4057,36.0400,84,91,338221
2.0186,0.3910,36.1300,84,91,338225
1.9941,0.3910,36.0400,84,91,338228
1.9062,0.3959,36.1600,84,91,338231
1.8377,0.3910,36.1900,84,91,338235
1.8426,0.3959,36.0100,84,91,338238
1.8377,0.3910,36.1600,84,91,338241
1.8475,0.3861,36.0100,84,91,338245
1.7644,0.3861,36.1600,84,91,338248
1.6667,0.3959,36.1900,84,91,338251
1.5982,0.3910,36.0400,84,91,338255
1.5640,0.3910,36.2200,84,91,338258
1.6031,0.3861,35.9500,84,91,338262
1.5934,0.3861,36.1300,84,91,338265
1.5494,0.3861,36.2500,84,91,338269
1.4907,0.3959,36.1600,84,91,338272
1.4321,0.3861,36.2500,84,91,338275
1.4663,0.4057,35.9000,84,91,338279
1.4809,0.3959,36.1600,84,91,338282
1.4956,0.3910,36.1900,84,91,338285
1.4956,0.3910,36.1600,84,91,338289
1.4418,0.3910,36.1900,84,91,338292
1.4516,0.4252,35.9200,84,91,338295
1.4565,0.3959,35.9800,84,91,338299
1.5152,0.3910,36.1000,84,91,338302
1.5298,0.4106,36.1600,84,91,338306
1.5054,0.3861,36.1900,84,91,338310
1.4956,0.4008,35.9500,84,91,338313
1.4712,0.3959,36.1300,84,91,338316
1.5103,0.4203,36.0100,84,91,338320
1.5494,0.3861,36.1900,84,91,338323
1.5640,0.3959,36.1900,84,91,338326
1.5494,0.4008,36.1000,84,91,338330
1.4809,0.3861,36.1900,84,91,338333
1.5054,0.3959,36.0400,84,91,338336
1.5103,0.3861,36.1300,84,91,338339
1.5591,0.3910,36.1900,84,91,338343
1.5836,0.3910,36.0100,84,91,338347
1.5445,0.3910,36.1900,84,91,338350
1.5200,0.3959,36.0400,84,91,338354
1.5249,0.3910,36.1900,84,91,338357
1.5445,0.3861,36.2200,84,91,338360
1.6227,0.3959,36.1000,84,91,338364
1.6129,0.3861,36.1900,84,91,338367
1.6080,0.4008,35.9000,84,91,338370
1.5396,0.3959,36.0400,84,91,338374
1.5249,0.3910,36.1900,84,91,338377
1.5885,0.3959,36.1300,84,91,338380
1.6618,0.3910,36.1900,84,91,338384
1.6764,0.4057,35.9000,84,91,338387
1.6813,0.3959,36.0400,84,91,338392
1.6569,0.3861,36.1900,84,91,338395
1.6373,0.4008,36.0100,84,91,338398
1.5885,0.3861,36.1900,84,91,338402
1.6178,0.3910,36.1900,84,91,338405
1.6764,0.3910,36.1600,84,91,338408
1.7155,0.4106,36.1900,84,91,338411
1.7107,0.3910,35.9800,84,91,338415
1.6373,0.3910,36.1900,84,91,338418
1.5982,0.3861,36.1900,84,91,338421
1.6471,0.3959,36.0700,84,91,338425
1.6618,0.3910,36.1600,84,91,338428
1.7204,0.3959,35.8700,84,91,338432
1.6813,0.4008,36.0400,84,91,338436
1.6129,0.3910,36.1900,84,91,338439
1.5885,0.3910,36.1300,84,91,338442
1.5982,0.3861,36.2200,84,91,338446
1.6911,0.4106,35.9000,84,91,338449
1.6862,0.3910,36.0700,84,91,338452
1.6471,0.4008,36.1000,84,91,338456
1.5982,0.3910,36.1900,84,91,338459
1.5689,0.3861,36.1300,84,91,338462
1.6325,0.4008,36.0100,84,91,338466
1.6520,0.3910,36.1900,84,91,338469
1.6813,0.4008,36.0400,84,91,338472
1.6373,0.3861,36.1900,84,91,338476
1.6178,0.3910,36.1900,84,91,338480
1.5836,0.3959,36.2200,84,91,338483
1.6276,0.3910,36.1600,84,91,338486
1.6764,0.3959,36.0100,84,91,338490
1.6716,0.3861,36.1600,84,91,338493
1.6325,0.3861,36.1900,84,91,338496
1.6129,0.3959,36.0400,84,91,338500
1.5836,0.3763,36.1600,84,91,338503
1.6520,0.3910,35.9800,84,91,338506
1.6911,0.3959,36.0400,84,91,338510
1.7009,0.3910,36.1900,84,91,338513
1.6960,0.3959,36.0700,84,91,338516
1.6471,0.3861,36.0100,84,91,338521
1.7009,0.4057,35.8700,84,91,338524
1.7253,0.3910,36.0700,84,91,338527
1.7693,0.3910,36.2200,84,91,338531
1.7449,0.3910,36.0700,84,91,338534
1.6716,0.3910,36.1900,84,91,338537
1.6520,0.4106,35.9500,84,91,338540
1.6422,0.3910,36.2200,84,91,338544
1.6520,0.3861,36.2800,84,91,338547
1.6813,0.3910,36.1600,84,91,338550
1.6667,0.3812,36.1900,84,91,338554
1.6178,0.4008,36.0400,84,91,338557
1.5494,0.4252,36.1600,84,91,338561
1.5543,0.3959,36.0400,84,91,338565
1.5885,0.3910,36.1900,84,91,338568
1.6276,0.3861,36.2200,84,91,338571
1.6471,0.3959,36.0400,84,91,338575
1.5787,0.3910,36.1300,84,91,338578
1.5543,0.3959,36.0400,84,91,338581
1.5494,0.3861,36.1900,84,91,338585
1.5982,0.3910,36.1900,84,91,338588
1.6471,0.3959,35.9800,84,91,338591
1.6080,0.3861,36.1900,84,91,338595
1.5787,0.3959,35.4800,84,91,338598
1.5298,0.3861,36.1300,84,91,338601
1.5396,0.3861,36.1900,84,91,338606
1.5885,0.3959,36.1600,84,91,338609
1.6031,0.3959,36.2200,84,91,338612
1.6178,0.4008,35.8700,84,91,338615
1.5298,0.3910,36.1600,84,91,338619
1.5054,0.3861,36.2500,84,91,338622
1.5298,0.3959,36.1600,84,91,338625
1.5836,0.3959,36.1900,84,91,338629
1.6520,0.3861,35.9800,84,91,338632
1.5934,0.3959,36.1300,84,91,338635
1.5298,0.3861,36.1000,84,91,338639
1.5054,0.3959,36.1600,84,91,338642
1.5445,0.3910,36.1600,84,91,338646
1.6373,0.4057,35.9800,84,91,338650
1.6667,0.3910,36.1600,84,91,338653
1.6520,0.4008,36.0100,84,91,338656
1.5738,0.3861,36.1900,84,91,338660
1.5445,0.3910,36.1900,84,91,338663
1.6178,0.3910,36.0400,84,91,338666
1.7107,0.3910,36.1900,84,91,338670
1.8426,0.3910,35.9800,84,91,338673
1.8622,0.4154,36.1600,84,91,338676
1.8426,0.3861,36.1900,84,91,338679
1.8084,0.3910,36.1300,84,91,338683
1.7546,0.3861,36.3700,84,91,338686
1.6960,0.4008,35.9000,84,91,338690
1.5005,0.3861,36.1600,84,91,338694
1.3099,0.3910,36.1900,84,91,338697
1.2512,0.3959,36.1300,84,91,338700
1.2414,0.3959,36.1900,84,91,338704
1.4125,0.4057,35.8700,84,91,338707
1.5347,0.4106,36.0700,84,91,338710
1.6031,0.3861,36.1300,84,91,338714
1.6178,0.3910,36.1600,84,91,338717
1.5787,0.3861,36.1900,84,91,338720
1.6276,0.4008,35.9500,84,91,338724
1.6520,0.3959,35.8100,84,91,338727
1.6813,0.3910,36.0400,84,91,338731
1.6667,0.3910,35.4500,84,91,338735
1.6031,0.3861,36.1900,84,91,338738
1.5787,0.3959,36.0400,84,91,338741
1.5640,0.3910,36.1900,84,91,338744
1.6227,0.4008,36.0100,84,91,338748
1.6569,0.3861,36.2500,84,91,338751
1.6520,0.3910,36.1900,84,91,338754
1.6031,0.4203,36.1600,84,91,338758
1.5640,0.3910,36.1900,84,91,338761
1.5787,0.3910,36.0100,84,91,338764
1.6129,0.3910,36.2200,84,91,338768
1.6422,0.3861,36.1900,84,91,338771
1.6422,0.3861,36.1000,84,91,338775
1.5787,0.3959,36.1600,84,91,338779
1.5689,0.4008,35.9000,84,91,338782
1.5787,0.4203,36.1000,84,91,338785
1.6227,0.3910,36.1900,84,91,338789
1.6862,0.3959,36.1300,84,91,338792
1.6325,0.3910,36.2200,84,91,338795
1.6227,0.4008,35.8700,84,91,338799
1.5640,0.3959,35.9800,84,91,338802
1.5836,0.3910,36.1300,84,91,338805
1.6325,0.3861,36.3700,84,91,338808
1.6520,0.3910,36.1900,84,91,338812
1.6569,0.4008,36.3100,84,91,338816
1.5738,0.3910,36.1600,84,91,338819
1.5494,0.3910,36.0700,84,91,338823
1.5738,0.3910,36.1900,84,91,338826
1.6276,0.3861,36.1600,84,91,338829
1.6618,0.3861,36.1300,84,91,338833
1.6129,0.3910,36.1600,84,91,338836
1.5934,0.4008,36.0400,84,91,338839
1.5591,0.3910,36.2200,84,91,338843
1.6031,0.3861,36.1600,84,91,338846
1.6862,0.4008,36.0700,84,91,338849
1.7009,0.3861,36.1600,84,91,338853
1.7009,0.4008,35.9500,84,91,338856
1.6813,0.3910,36.0700,84,91,338860
1.6520,0.3861,36.0400,84,91,338864
1.7253,0.3861,36.0400,84,91,338867
1.7546,0.3861,36.1600,84,91,338870
1.8084,0.3861,35.8700,84,91,338873
1.7449,0.4154,36.1000,84,91,338877
1.7058,0.3910,36.1900,84,91,338880
1.7107,0.3910,36.1600,84,91,338883
1.7644,0.3910,36.1900,84,91,338887
1.8671,0.4057,35.5700,84,91,338890
1.8377,0.3910,36.1600,84,91,338893
1.8035,0.3861,36.1000,84,91,338897
1.7742,0.3910,36.1900,84,91,338900
1.7840,0.4008,36.1900,84,91,338904
1.8719,0.4008,36.0400,84,91,338908
1.8866,0.3910,36.2200,84,91,338911
1.8915,0.3910,36.0400,84,91,338914
1.8328,0.3910,36.1900,84,91,338918
1.7937,0.3910,36.1900,84,91,338921
1.8231,0.4008,36.0100,84,91,338924
1.8377,0.3910,36.1600,84,91,338927
1.8768,0.3959,36.0100,84,91,338931
1.8133,0.3910,36.1300,84,91,338934
1.7351,0.3861,36.2500,84,91,338937
1.6862,0.3861,36.0400,84,91,338941
1.6569,0.3861,36.4000,84,91,338945
1.7107,0.3910,35.9500,84,91,338948
1.6618,0.3861,36.3100,84,91,338952
1.6031,0.3910,36.1900,84,91,338955
1.5103,0.3910,36.2800,84,91,338958
1.4370,0.3910,36.1900,84,91,338962
1.4516,0.4008,35.8700,84,91,338965
1.4321,0.3861,36.1300,84,91,338968
1.4467,0.3861,36.2200,84,91,338972
1.4174,0.3910,36.1600,84,91,338975
1.3587,0.3910,36.1600,84,91,338978
1.3539,0.4106,35.9200,84,91,338982
1.3392,0.3959,36.1300,84,91,338985
1.3783,0.3910,36.0700,84,91,338989
1.3978,0.3910,35.4200,84,91,338993
1.3636,0.3910,36.1600,84,91,338996
1.3392,0.4008,35.9800,84,91,338999
1.3930,0.3959,36.1000,84,91,339003
1.3587,0.3861,36.1900,84,91,339006
1.3832,0.4057,35.9500,84,91,339010
1.4223,0.3910,36.1600,84,91,339013
1.4907,0.3910,36.1900,84,91,339016
1.5005,0.3910,36.1300,84,91,339019
1.4565,0.3910,36.1600,84,91,339023
1.4370,0.3959,35.9000,84,91,339026
1.3930,0.3812,36.1300,84,91,339030
1.4321,0.3910,36.1900,84,91,339034
1.4907,0.3959,36.1300,84,91,339037
1.4907,0.3910,36.1900,84,91,339040
1.4858,0.4057,35.9000,84,91,339044
1.4272,0.3959,36.1000,84,91,339047
1.4125,0.4203,36.1300,84,91,339050
1.4565,0.3959,36.1600,84,91,339054
1.4907,0.3861,36.1000,84,91,339057
1.5152,0.4008,35.9500,84,91,339060
1.4614,0.3959,35.9800,84,91,339064
1.4321,0.3910,36.0100,84,91,339067
1.4321,0.3861,36.2500,84,91,339070
1.4858,0.3910,36.1900,84,91,339075
1.5543,0.4057,36.0400,84,91,339078
1.5152,0.3910,36.1900,84,91,339081
1.5054,0.4008,35.9800,84,91,339085
1.4907,0.3861,36.1600,84,91,339088
1.4809,0.3910,36.1300,84,91,339091
1.5396,0.3910,36.1000,84,91,339094
1.5738,0.3861,36.3400,84,91,339098
1.5787,0.3910,35.9200,84,91,339101
1.5152,0.4252,36.1600,84,91,339104
1.4907,0.3861,36.1600,84,91,339108
1.5445,0.3959,36.1000,84,91,339111
1.5885,0.3910,36.3700,84,91,339115
1.6667,0.4008,35.8700,84,91,339119
1.6276,0.3959,36.0700,84,91,339122
1.5689,0.3910,36.1600,84,91,339125
1.5591,0.3959,36.2500,84,91,339129
1.5836,0.3910,36.1900,84,91,339132
1.7009,0.4057,36.0400,84,91,339135
1.7204,0.3959,36.0700,84,91,339139
1.6764,0.3910,36.2500,84,91,339142
1.6129,0.3959,36.2200,84,91,339145
1.5787,0.3861,36.1900,84,91,339149
1.6325,0.3910,36.0100,84,91,339152
1.6276,0.3861,36.1900,84,91,339155
1.6373,0.3910,36.0400,84,91,339159
1.5787,0.3861,36.2200,84,91,339163
1.5152,0.3861,36.1900,84,91,339166
1.4858,0.4008,36.1000,84,91,339169
1.4956,0.3910,36.1600,84,91,339173
1.5591,0.3910,36.0100,84,91,339176
1.5445,0.3861,36.1900,84,91,339179
1.5054,0.3812,36.1900,84,91,339183
1.4858,0.3959,36.0700,84,91,339186
1.4761,0.3910,36.1900,84,91,339189
1.5298,0.3959,36.0400,84,91,339193
1.5640,0.4008,36.0700,84,91,339196
1.5640,0.3812,36.1900,84,91,339200
1.5591,0.3959,36.1000,84,91,339204
1.4663,0.3861,36.1900,84,91,339207
1.5054,0.3910,35.8400,84,91,339210
1.5347,0.3910,36.1000,84,91,339214
1.5787,0.4008,36.3100,84,91,339217
1.5836,0.3910,36.1600,84,91,339220
1.5152,0.3861,36.3700,84,91,339223
1.5200,0.4057,35.9800,84,91,339227
1.4809,0.3910,36.2500,84,91,339230
1.5591,0.3861,36.0700,84,91,339233
1.6178,0.3861,36.1600,84,91,339237
1.6373,0.3910,36.1900,84,91,339240
1.5738,0.4008,35.9800,84,91,339244
1.5152,0.3910,36.2200,84,91,339248
1.5787,0.3861,35.9800,84,91,339251
1.7155,0.3910,36.1600,84,91,339254
1.8915,0.3861,36.3100,84,91,339258
2.0283,0.4008,36.0400,84,91,339261
1.9990,0.3910,36.1300,84,91,339264
1.9599,0.3910,36.0100,84,91,339268
1.8426,0.3861,36.1000,84,91,339271
1.7253,0.3910,36.1900,84,91,339274
1.5738,0.3959,36.0100,84,91,339277
1.3881,0.3861,36.1900,84,91,339281
1.3148,0.3861,35.9200,84,91,339284
1.3392,0.4008,36.1300,84,91,339288
1.4223,0.3861,36.1900,84,91,339292
1.5885,0.3910,36.1600,84,91,339295
1.6764,0.3910,35.5100,84,91,339298
1.7595,0.3959,35.7500,84,91,339302
1.6911,0.3812,36.1300,84,91,339305
1.6716,0.3910,36.1300,84,91,339308
1.7009,0.3959,36.1900,84,91,339312
1.7498,0.3861,36.0700,84,91,339315
1.8182,0.4057,36.0400,84,91,339318
1.7449,0.3910,36.2200,84,91,339322
1.7155,0.3910,36.0400,84,91,339325
1.6422,0.3959,36.1600,84,91,339329
1.6764,0.3910,36.3100,84,91,339333
1.7546,0.4008,35.9800,84,91,339336
1.7546,0.3861,36.0400,84,91,339339
1.7449,0.3910,36.0400,84,91,339343
1.6716,0.3861,36.1600,84,91,339346
1.6569,0.3910,36.2200,84,91,339349
1.7058,0.3910,36.0400,84,91,339353
1.7351,0.3910,36.1900,84,91,339356
1.7693,0.3861,35.9500,84,91,339359
1.7253,0.3910,36.1000,84,91,339362
1.6667,0.3861,36.1900,84,91,339366
1.6764,0.3910,36.1600,84,91,339369
1.6911,0.3861,36.0700,84,91,339373
1.7889,0.4008,35.9000,84,91,339377
1.7498,0.3812,36.4000,84,91,339380
1.7204,0.3910,36.1900,84,91,339383
1.6911,0.3910,36.1600,84,91,339387
1.6862,0.3910,36.1900,84,91,339390
1.7889,0.4106,35.9000,84,91,339393
1.8084,0.3910,36.1000,84,91,339397
1.7937,0.3861,36.1000,84,91,339400
1.7498,0.3910,36.1600,84,91,339403
1.7107,0.3861,36.2200,84,91,339407
1.7498,0.4008,35.9800,84,91,339410
1.7840,0.3959,36.1000,84,91,339414
1.8524,0.4008,36.0700,84,91,339417
1.8133,0.3861,36.1600,84,91,339421
1.7693,0.4008,36.1600,84,91,339424
1.7546,0.3959,36.1300,84,91,339427
1.7693,0.3959,36.1600,84,91,339431
1.8475,0.4008,36.1900,84,91,339434
1.8719,0.3812,36.1600,84,91,339437
1.8768,0.3861,36.2200,84,91,339441
1.8719,0.4008,36.1000,84,91,339444
1.8035,0.3910,36.1600,84,91,339447
1.8426,0.3910,35.9000,84,91,339451
1.8817,0.3910,36.1900,84,91,339454
1.9257,0.3910,36.1900,84,91,339458
1.9355,0.3959,36.1600,84,91,339462
1.8817,0.3910,36.1900,84,91,339465
1.9062,0.4008,35.9000,84,91,339468
1.9208,0.3959,36.1000,84,91,339472
1.9746,0.3861,36.2500,84,91,339475
2.0332,0.3861,36.1300,84,91,339478
1.9990,0.3861,36.1300,84,91,339481
2.0479,0.4057,35.9000,84,91,339485
1.9648,0.3959,36.0700,84,91,339488
1.9795,0.3910,36.1000,84,91,339491
2.0332,0.3861,36.1000,84,91,339495
2.0479,0.3959,36.1600,84,91,339499
2.0479,0.3861,36.0100,84,91,339502
1.9550,0.3910,36.1600,84,91,339506
1.9306,0.3910,36.0400,84,91,339509
1.9306,0.3861,36.2500,84,91,339512
1.9599,0.3910,36.1900,84,91,339516
1.9599,0.3959,36.1600,84,91,339519
1.8768,0.3910,36.1600,84,91,339522
1.8084,0.4008,36.0100,84,91,339526
1.7400,0.3910,36.1900,84,91,339529
1.7302,0.3861,36.2200,84,91,339532
1.7693,0.3959,36.0100,84,91,339535
1.7155,0.3861,36.0400,84,91,339539
1.6716,0.3910,35.9800,84,91,339543
1.5787,0.4008,36.0700,84,91,339546
1.5396,0.3910,36.1600,84,91,339550
1.5885,0.3910,36.1000,84,91,339553
1.6031,0.3861,36.2200,84,91,339556
1.6373,0.4008,35.8700,84,91,339560
1.5689,0.3861,36.0700,84,91,339563
1.5152,0.3861,36.3700,84,91,339566
1.5103,0.3910,36.1600,84,91,339570
1.5445,0.3861,36.1900,84,91,339573
1.6276,0.4106,35.9000,84,91,339576
1.5836,0.4008,36.1600,84,91,339580
1.5396,0.3910,36.1000,84,91,339584
1.5054,0.3910,36.1600,84,91,339587
1.5054,0.3910,36.1900,84,91,339591
1.5934,0.4008,36.0400,84,91,339594
1.6178,0.3910,36.1600,84,91,339597
1.6178,0.3861,36.0400,84,91,339600
1.5640,0.3910,36.1600,84,91,339604
1.5249,0.3910,36.1600,84,91,339607
1.5640,0.4252,36.0100,84,91,339610
1.5738,0.3959,35.9800,84,91,339614
1.5836,0.3861,36.1900,84,91,339617
1.6716,0.3959,35.9000,84,91,339621
1.7009,0.4399,36.1300,84,91,339624
1.6813,0.3910,36.1900,84,91,339628
1.6471,0.3910,36.1600,84,91,339632
1.6422,0.3910,36.1900,84,91,339635
1.6764,0.4008,35.5400,84,91,339638
1.7107,0.3910,36.1000,84,91,339642
1.7253,0.3861,36.2500,84,91,339645
1.7058,0.3910,36.1900,84,91,339648
1.6373,0.4106,36.1900,84,91,339652
1.6569,0.3861,36.0100,84,91,339655
1.6618,0.3959,36.3100,84,91,339658
1.7449,0.3910,36.0400,84,91,339661
1.7302,0.3959,36.1600,84,91,339665
1.7058,0.3910,36.1900,84,91,339668
1.6911,0.4008,36.0100,84,91,339672
1.6618,0.3861,36.1300,84,91,339676
1.7204,0.4008,36.0400,84,91,339679
1.7742,0.3910,36.2200,84,91,339682
1.7840,0.3861,36.2200,84,91,339686
1.7644,0.3861,36.0700,84,91,339689
1.7107,0.3910,36.2500,84,91,339692
1.7302,0.3959,35.9800,84,91,339696
1.7546,0.3861,36.1300,84,91,339699
1.8133,0.3910,36.2200,84,91,339702
1.8280,0.3910,36.1000,84,91,339706
1.7791,0.3910,36.1600,84,91,339709
1.7546,0.3959,35.9000,84,91,339713
1.7302,0.3910,36.1600,84,91,339717
1.7889,0.3861,36.1900,84,91,339720
1.8622,0.3910,36.1300,84,91,339723
1.8622,0.3910,36.1600,84,91,339726
1.8817,0.4057,35.8700,84,91,339730
1.8182,0.3959,36.0700,84,91,339733
1.8133,0.3861,36.1600,84,91,339736
1.8719,0.3910,36.1600,84,91,339740
1.9159,0.3861,36.3700,84,91,339743
1.9648,0.4008,35.9500,84,91,339746
1.8915,0.4203,36.1000,84,91,339750
1.8475,0.3910,36.0400,84,91,339753
1.8426,0.3861,36.1900,84,91,339757
1.9013,0.3910,36.1900,84,91,339761
1.9648,0.4008,36.0400,84,91,339764
1.9355,0.3910,36.1600,84,91,339767
1.9110,0.3959,36.0400,84,91,339771
1.8573,0.3910,36.1600,84,91,339774
1.8817,0.3861,36.2200,84,91,339777
1.9746,0.3910,36.1000,84,91,339781
1.9697,0.3861,36.1900,84,91,339784
1.9648,0.3910,35.9500,84,91,339787
1.8915,0.3910,36.1600,84,91,339790
1.8622,0.3910,36.1600,84,91,339794
1.8964,0.3959,36.0700,84,91,339798
1.9355,0.3861,36.1900,84,91,339801
2.0088,0.4008,35.9000,84,91,339805
1.9697,0.3910,36.0400,84,91,339808
1.9013,0.3861,36.1600,84,91,339811
1.8964,0.3959,36.1300,84,91,339815
1.9110,0.3861,36.1600,84,91,339818
2.0381,0.4106,35.9000,84,91,339821
2.0430,0.3910,36.0100,84,91,339825
2.0381,0.3910,36.1300,84,91,339828
1.9648,0.3910,36.1900,84,91,339831
1.9404,0.4008,36.1600,84,91,339835
2.0088,0.4057,36.0100,84,91,339838
1.9990,0.3910,36.1600,84,91,339842
1.9892,0.3910,36.0400,84,91,339845
1.9110,0.3861,36.1600,84,91,339849
1.8280,0.3910,36.1900,84,91,339852
1.8035,0.3959,36.0100,84,91,339855
1.7986,0.3910,36.1600,84,91,339859
1.8377,0.3959,36.0100,84,91,339862
1.8133,0.3910,36.1900,84,91,339865
1.7546,0.3861,36.2500,84,91,339869
1.7107,0.4008,36.0400,84,91,339872
1.6716,0.3861,36.1900,84,91,339875
1.7155,0.3910,35.9800,84,91,339879
1.7351,0.3861,36.0700,84,91,339883
1.7302,0.3959,36.1600,84,91,339886
1.7009,0.4008,36.0100,84,91,339890
1.6276,0.3861,36.1600,84,91,339893
1.6520,0.4008,35.9000,84,91,339896
1.6716,0.3910,36.1000,84,91,339899
1.7155,0.3910,36.1900,84,91,339903
1.7155,0.3910,36.0100,84,91,339906
1.6862,0.3910,36.1600,84,91,339909
1.6764,0.4008,35.8400,84,91,339913
1.6764,0.3910,36.1300,84,91,339916
1.6960,0.3861,36.1300,84,91,339919
1.7595,0.4008,36.1600,84,91,339923
1.7644,0.3861,36.0400,84,91,339927
1.7693,0.4106,36.0100,84,91,339930
1.7155,0.3861,36.1300,84,91,339934
1.7302,0.3812,36.0400,84,91,339937
1.7693,0.3910,36.1900,84,91,339940
1.7937,0.3959,36.1600,84,91,339944
1.8231,0.4008,36.0700,84,91,339947
1.7986,0.3910,36.1600,84,91,339950
1.8671,0.3959,36.0400,84,91,339953
1.9746,0.3812,36.2500,84,91,339957
2.1017,0.3861,36.2500,84,91,339960
2.1652,0.3910,36.0400,84,91,339963
2.0821,0.3861,36.2200,84,91,339968
1.9404,0.4106,35.9800,84,91,339971
1.7155,0.3861,36.1300,84,91,339974
1.5396,0.3910,36.1900,84,91,339978
1.4809,0.3910,36.1300,84,91,339981
1.5200,0.3910,36.1900,84,91,339984
1.6227,0.3959,36.0400,84,91,339988
1.6618,0.3910,36.1600,84,91,339991
1.7302,0.3861,36.2500,84,91,339994
1.8280,0.3910,36.2200,84,91,339998
1.9110,0.3861,36.1900,84,91,340001
2.0039,0.4057,35.8700,84,91,340004
1.9257,0.3910,36.1300,84,91,340008
1.8475,0.3910,36.1300,84,91,340012
1.8182,0.3910,36.1900,84,91,340015
1.8280,0.3910,36.1900,84,91,340018
1.9306,0.4008,36.0100,84,91,340022
1.9257,0.3959,36.1000,84,91,340025
1.8817,0.3910,36.0400,84,91,340028
1.8133,0.3910,36.1900,84,91,340032
1.7791,0.3910,36.1900,84,91,340035
1.8328,0.3959,36.0700,84,91,340038
1.8573,0.3910,36.1600,84,91,340042
1.8866,0.3910,36.0100,84,91,340045
1.8231,0.4203,36.1600,84,91,340048
1.7693,0.3861,36.2500,84,91,340052
1.7644,0.4008,36.1000,84,91,340056
1.7986,0.3861,36.1900,84,91,340059
1.8719,0.4154,35.9800,84,91,340062
1.8622,0.3861,36.2200,84,91,340066
1.8280,0.3861,36.1600,84,91,340069
1.7937,0.4154,36.1000,84,91,340072
1.7693,0.3861,36.1900,84,91,340076
1.8475,0.4008,35.9000,84,91,340079
1.8768,0.3861,36.0700,84,91,340082
1.8671,0.3861,36.1600,84,91,340086
1.8426,0.3959,35.8700,84,91,340089
1.7840,0.3910,36.1900,84,91,340092
1.8377,0.3861,35.9000,84,91,340097
1.8573,0.3959,36.0100,84,91,340100
1.8915,0.3861,36.1300,84,91,340103
1.8964,0.3910,36.1900,84,91,340107
1.8475,0.3861,36.2500,84,91,340110
1.8426,0.3959,36.0100,84,91,340113
1.8182,0.3910,36.1300,84,91,340117
1.8866,0.3910,36.0400,84,91,340120
1.9257,0.3861,35.6000,84,91,340123
1.9306,0.3910,36.1900,84,91,340127
1.9110,0.3959,36.1900,84,91,340130
1.8671,0.3910,36.1600,84,91,340133
1.9159,0.3959,36.0400,84,91,340136
1.9550,0.3910,36.1000,84,91,340141
2.0039,0.3861,36.1900,84,91,340144
2.0235,0.4106,36.0700,84,91,340147
1.9648,0.3910,36.1900,84,91,340151
1.9550,0.3910,35.9500,84,91,340154
1.9648,0.3910,36.0700,84,91,340157
2.0235,0.3861,36.1600,84,91,340161
2.1017,0.4008,36.0400,84,91,340164
2.0772,0.3861,36.1900,84,91,340167
2.0968,0.4008,35.9000,84,91,340171
2.0479,0.3910,36.1000,84,91,340174
2.0674,0.3861,36.1900,84,91,340177
2.1310,0.3910,36.1600,84,91,340180
2.1554,0.3861,36.1900,84,91,340185
2.1896,0.4008,35.8700,84,91,340188
2.0968,0.3910,36.1300,84,91,340191
2.0723,0.3861,36.1600,84,91,340195
2.1114,0.3910,36.1600,84,91,340198
2.1554,0.3910,36.1600,84,91,340201
2.2239,0.4057,36.1600,84,91,340205
2.1408,0.3910,36.1300,84,91,340208
2.0674,0.3861,36.0700,84,91,340211
2.0088,0.4008,36.2200,84,91,340215
2.0186,0.3910,36.1900,84,91,340218
2.0674,0.4008,36.0100,84,91,340221
1.7986,0.3910,36.0100,84,91,340226
1.8084,0.3910,36.1600,84,91,340229
1.8182,0.3861,35.9200,84,91,340233
1.7302,0.3959,36.1000,84,91,340236
1.6569,0.3910,36.1900,84,91,340239
1.6373,0.3910,36.1300,84,91,340242
1.6618,0.3910,36.1600,84,91,340246
1.7155,0.4008,35.8700,84,91,340249
1.6716,0.3861,36.1600,84,91,340252
1.6178,0.3861,36.1900,84,91,340256
1.5738,0.3910,36.1900,84,91,340259
1.5689,0.3861,36.1900,84,91,340262
1.6569,0.4057,35.9200,84,91,340267
1.6667,0.3861,36.1000,84,91,340270
1.6569,0.3861,36.1300,84,91,340273
1.6080,0.3910,36.1600,84,91,340277
1.5591,0.3861,36.1900,84,91,340280
1.6031,0.3861,35.9800,84,91,340283
1.6520,0.3910,36.1600,84,91,340287
1.6960,0.3910,35.2800,84,91,340290
1.6667,0.3910,36.1900,84,91,340293
1.6178,0.3861,36.2500,84,91,340297
1.5982,0.4008,36.0700,84,91,340300
1.5982,0.3861,36.1900,84,91,340303
1.6813,0.3959,36.0700,84,91,340306
1.7058,0.3666,36.1600,84,91,340311
1.6960,0.3861,36.1600,84,91,340314
1.6618,0.3910,36.1000,84,91,340317
1.6178,0.3861,36.1900,84,91,340321
1.6618,0.3959,35.9200,84,91,340324
1.6813,0.3910,36.1900,84,91,340327
1.7204,0.3861,36.2200,84,91,340331
1.7155,0.3959,36.1000,84,91,340334
1.6520,0.3910,36.1900,84,91,340337
1.6764,0.4008,35.8400,84,91,340341
1.6667,0.3959,36.0700,84,91,340344
1.7107,0.3812,36.2200,84,91,340347
1.7546,0.3910,36.2200,84,91,340352
1.7204,0.3910,36.1900,84,91,340355
1.7155,0.4057,35.8700,84,91,340358
1.6618,0.3959,36.1000,84,91,340362
1.6716,0.3861,36.0700,84,91,340365
1.7107,0.3910,36.1900,84,91,340368
1.7204,0.3861,36.1900,84,91,340371
1.7107,0.4008,36.0100,84,91,340375
1.6422,0.3910,36.1600,84,91,340378
1.6422,0.3910,36.0400,84,91,340381
1.6667,0.3910,36.1900,84,91,340385
1.7155,0.3959,36.1900,84,91,340388
1.7400,0.3910,35.9200,84,91,340391
1.6911,0.3910,36.1600,84,91,340396
1.6618,0.3910,36.0100,84,91,340399
1.6276,0.3910,36.1600,84,91,340402
1.6862,0.3861,36.1900,84,91,340406
1.7742,0.3959,36.0400,84,91,340409
1.7546,0.3959,36.1600,84,91,340412
1.7400,0.3861,35.9000,84,91,340416
1.6716,0.3959,36.0700,84,91,340419
1.6618,0.3910,36.1900,84,91,340422
1.7204,0.4154,36.1000,84,91,340426
1.7546,0.3861,36.1900,84,91,340429
1.8035,0.4008,35.8100,84,91,340432
1.7302,0.3861,36.0400,84,91,340435
1.6667,0.3861,36.1000,84,91,340440
1.6667,0.3910,36.1600,84,91,340443
1.7155,0.3861,36.2500,84,91,340446
1.8133,0.4154,35.9800,84,91,340450
1.7791,0.3910,36.0700,84,91,340453
1.7302,0.3910,36.0700,84,91,340456
1.6813,0.3910,36.1900,84,91,340460
1.6862,0.3910,36.1900,84,91,340463
1.7693,0.3959,36.0700,84,91,340466
1.8182,0.3910,36.1600,84,91,340470
1.7937,0.3910,36.0100,84,91,340473
1.7449,0.3910,36.1600,84,91,340476
1.6764,0.3861,36.1900,84,91,340481
1.7351,0.3959,36.0100,84,91,340484
1.7742,0.3910,36.1600,84,91,340487
1.8328,0.3910,36.0100,84,91,340491
1.7889,0.3861,36.3700,84,91,340494
1.7400,0.3910,36.1900,84,91,340497
1.7302,0.4057,36.0400,84,91,340500
1.7351,0.3910,36.1900,84,91,340504
1.8182,0.3959,35.9200,84,91,340507
1.8377,0.3959,36.1300,84,91,340510
1.7791,0.3861,36.1600,84,91,340514
1.7107,0.3910,36.1600,84,91,340517
1.6471,0.3861,36.1600,84,91,340520
1.6862,0.4008,35.8400,84,91,340525
1.6667,0.4008,36.1300,84,91,340528
1.6764,0.3861,36.1600,84,91,340531
1.6373,0.4008,36.2200,84,91,340535
1.5738,0.3861,36.2200,84,91,340538
1.5738,0.4057,36.0100,84,91,340541
1.5591,0.3959,36.1300,84,91,340545
1.6422,0.3910,36.0400,84,91,340548
1.6080,0.3910,36.1600,84,91,340551
1.5640,0.3910,36.1900,84,91,340555
1.5396,0.4008,35.9800,84,91,340558
1.5152,0.3910,36.1600,84,91,340561
1.5640,0.3959,36.0100,84,91,340564
1.5982,0.3910,36.2200,84,91,340569
1.6276,0.3910,36.1600,84,91,340572
1.6325,0.3910,36.0100,84,91,340575
1.5836,0.3861,36.1900,84,91,340579
1.6178,0.3910,35.9800,84,91,340582
1.6569,0.3861,36.1600,84,91,340585
1.7253,0.4252,36.1900,84,91,340589
1.7400,0.3959,36.1300,84,91,340592
1.6862,0.4252,36.1600,84,91,340595
1.6618,0.4008,35.9000,84,91,340599
1.6227,0.3910,36.1600,84,91,340602
1.6618,0.3910,36.1900,84,91,340605
1.7155,0.3910,36.1300,84,91,340610
1.7155,0.3861,36.4000,84,91,340613
1.7058,0.4106,35.8700,84,91,340616
1.6325,0.3959,36.0700,84,91,340619
1.6276,0.3861,36.1600,84,91,340623
1.6960,0.3910,36.2200,84,91,340626
1.7498,0.3959,36.1900,84,91,340629
1.8035,0.4008,36.0100,84,91,340633
1.7449,0.3959,36.1000,84,91,340636
1.6911,0.3910,36.0100,84,91,340639
1.7204,0.3910,36.1600,84,91,340643
1.7449,0.3861,36.2200,84,91,340646
1.8182,0.3861,36.0700,84,91,340649
1.7840,0.3861,36.3700,84,91,340654
1.7498,0.3959,36.0400,84,91,340657
1.6960,0.3861,36.1600,84,91,340660
1.7253,0.3910,36.1900,84,91,340664
1.7986,0.3910,36.1600,84,91,340667
1.8328,0.3959,36.1600,84,91,340670
1.8328,0.3910,36.0700,84,91,340674
1.7791,0.3910,36.1600,84,91,340677
1.7449,0.3861,36.2200,84,91,340680
1.7889,0.4008,36.1000,84,91,340683
1.8426,0.3861,36.2500,84,91,340687
1.9355,0.3959,35.9000,84,91,340690
1.8719,0.3959,36.0700,84,91,340694
1.8035,0.3910,36.1600,84,91,340698
1.8035,0.3959,36.1300,84,91,340701
1.8426,0.3910,36.1900,84,91,340704
1.9795,0.4106,35.9000,84,91,340708
2.0088,0.3861,36.0400,84,91,340711
1.9697,0.3861,36.1300,84,91,340714
1.9013,0.3910,36.1900,84,91,340718
1.8866,0.3861,36.1600,84,91,340721
2.0235,0.3959,36.0100,84,91,340724
2.1408,0.3861,36.1600,84,91,340728
2.2678,0.3959,36.0400,84,91,340731
2.2532,0.3861,36.1900,84,91,340734
2.1896,0.3959,36.2200,84,91,340739
2.1261,0.3959,36.1000,84,91,340742
2.0283,0.3959,36.1600,84,91,340745
1.9404,0.3959,36.0400,84,91,340748
1.7644,0.3910,36.1600,84,91,340752
1.6471,0.3861,36.1900,84,91,340755
1.6520,0.3910,36.0700,84,91,340758
1.7253,0.3861,36.1600,84,91,340762
1.9013,0.4008,35.9500,84,91,340765
2.0186,0.3861,36.0700,84,91,340768
2.0723,0.3861,36.1600,84,91,340772
2.0821,0.4008,36.0400,84,91,340775
2.0235,0.3861,36.0400,84,91,340779
2.0674,0.3959,35.9000,84,91,340783
2.0772,0.3910,36.1000,84,91,340786
2.1065,0.3861,36.1900,84,91,340789
2.1114,0.3910,36.1600,84,91,340792
2.0577,0.3861,36.0400,84,91,340796
2.0626,0.3959,35.8700,84,91,340799
2.0137,0.3910,36.1000,84,91,340802
2.0577,0.3812,36.1300,84,91,340806
2.1114,0.3910,36.2500,84,91,340809
2.1163,0.3861,36.1900,84,91,340812
2.1065,0.4008,36.0100,84,91,340816
2.0381,0.3910,36.1600,84,91,340819
2.0381,0.3861,36.0400,84,91,340823
2.0919,0.3910,36.1600,84,91,340827
2.1114,0.3861,36.1900,84,91,340830
2.1457,0.4008,35.9800,84,91,340833
2.1799,0.3910,36.0400,84,91,340837
2.1457,0.3812,36.2500,84,91,340840
2.1505,0.3910,35.9200,84,91,340844
2.0870,0.3910,35.3400,84,91,340847
2.1114,0.3812,36.2200,84,91,340850
2.1799,0.3910,36.1600,84,91,340854
2.1994,0.3861,36.1600,84,91,340857
2.2385,0.4008,35.8700,84,91,340860
2.1457,0.3959,36.1600,84,91,340864
2.1261,0.3861,36.5800,84,91,340868
2.1994,0.3910,36.1600,84,91,340871
2.2287,0.3861,36.4000,84,91,340874
2.3216,0.4008,35.9500,84,91,340878
2.2483,0.3959,36.1300,84,91,340881
2.1896,0.3910,36.0700,84,91,340884
2.1701,0.3861,36.1600,84,91,340888
2.2043,0.3861,36.1900,84,91,340891
2.3118,0.3861,36.0100,84,91,340894
2.3363,0.3910,36.1300,84,91,340898
2.3118,0.3910,36.4300,84,91,340901
2.2385,0.3910,36.1900,84,91,340904
2.2385,0.3861,36.1900,84,91,340909
2.3167,0.4008,36.0700,84,91,340912
2.3656,0.3861,36.1900,84,91,340915
2.4242,0.3959,36.0400,84,91,340918
2.3754,0.3910,36.1600,84,91,340922
2.3460,0.3812,36.1900,84,91,340925
2.3705,0.3910,35.6600,84,91,340928
2.4242,0.3861,36.1900,84,91,340932
2.5367,0.3959,35.9200,84,91,340935
2.5318,0.3910,36.1900,84,91,340938
2.5073,0.3861,36.1600,84,91,340942
2.5024,0.3959,36.1300,84,91,340945
2.5024,0.3812,36.1600,84,91,340948
2.6295,0.4008,35.8700,84,91,340953
2.6491,0.3910,36.1000,84,91,340956
2.6442,0.3910,36.1600,84,91,340959
2.6246,0.3861,36.1600,84,91,340963
2.5855,0.3861,36.1900,84,91,340966
2.6637,0.4301,35.9500,84,91,340969
2.6784,0.3959,36.1000,84,91,340973
2.7028,0.3861,36.1000,84,91,340976
2.6588,0.3910,36.1900,84,91,340979
2.5855,0.3861,36.3100,84,91,340982
2.5562,0.4008,36.0400,84,91,340986
2.5073,0.3910,36.1900,84,91,340989
2.5513,0.3959,36.0400,84,91,340993
2.5318,0.3910,36.1900,84,91,340997
2.4780,0.3910,36.2200,84,91,341000
2.4096,0.3910,36.1000,84,91,341003
2.3265,0.3910,36.4000,84,91,341007
2.3412,0.4350,36.0100,84,91,341010
2.3412,0.3861,36.2500,84,91,341013
2.3607,0.3910,36.1600,84,91,341017
2.3705,0.3959,36.0700,84,91,341020
2.3216,0.3910,36.1600,84,91,341023
2.2825,0.3861,35.9500,84,91,341026
2.2727,0.3959,36.0700,84,91,341030
2.3412,0.3959,36.1300,84,91,341033
2.3754,0.3910,36.1000,84,91,341037
2.3363,0.3910,36.1900,84,91,341041
2.3460,0.4008,35.1900,84,91,341044
2.2874,0.3910,36.0700,84,91,341047
2.3118,0.3861,36.1900,84,91,341051
2.3754,0.3910,36.1600,84,91,341054
2.3949,0.3861,36.1900,84,91,341057
2.4291,0.4154,35.9200,84,91,341061
2.3314,0.3959,36.1600,84,91,341064
2.3314,0.3910,36.0700,84,91,341067
2.3803,0.4154,36.1600,84,91,341071
2.4487,0.3861,36.1300,84,91,341074
2.5269,0.4008,36.0700,84,91,341078
2.4682,0.3910,35.3900,84,91,341082
2.4291,0.4008,36.0400,84,91,341085
2.3900,0.3861,36.3700,84,91,341088
2.4291,0.4154,36.1600,84,91,341091
2.5318,0.4008,35.9800,84,91,341095
2.5269,0.3910,36.1600,84,91,341098
2.5318,0.3910,36.1000,84,91,341101
2.4536,0.3812,36.1000,84,91,341105
2.4487,0.3861,36.1900,84,91,341108
2.5220,0.3910,35.9800,84,91,341111
2.5513,0.3910,36.1600,84,91,341115
2.6002,0.3861,36.1300,84,91,341118
2.5318,0.3910,36.1000,84,91,341122
2.4633,0.3910,36.1900,84,91,341126
2.4731,0.3861,36.1300,84,91,341129
2.5220,0.3861,36.2500,84,91,341132
2.6442,0.3959,35.8700,84,91,341136
2.6051,0.3959,36.1300,84,91,341139
2.5855,0.3910,36.1600,84,91,341142
2.5611,0.3910,36.1900,84,91,341145
2.5660,0.3910,36.1900,84,91,341149
2.6882,0.4057,35.9500,84,91,341152
2.6931,0.3861,36.1000,84,91,341155
2.6784,0.3861,36.0400,84,91,341159
2.6393,0.3910,36.1600,84,91,341163
2.6100,0.3861,36.1900,84,91,341166
2.7028,0.3959,35.9800,84,91,341170
2.7126,0.4057,36.1300,84,91,341173
2.7713,0.3910,36.0100,84,91,341176
2.7419,0.3861,36.1600,84,91,341180
2.7077,0.3910,36.1900,84,91,341183
2.7077,0.3959,36.0700,84,91,341186
2.7028,0.3861,36.1600,84,91,341190
2.8006,0.3959,36.0100,84,91,341193
2.8055,0.3910,36.1600,84,91,341196
2.7957,0.3861,36.1900,84,91,341199
2.7615,0.3861,36.1300,84,91,341203
2.7224,0.3910,36.1600,84,91,341207
2.7908,0.3959,35.9200,84,91,341210
2.8055,0.3910,36.2500,84,91,341214
2.8348,0.3910,36.1900,84,91,341217
2.8397,0.3959,36.0100,84,91,341220
2.7664,0.3910,36.1600,84,91,341224
2.8104,0.4008,35.8400,84,91,341227
2.8055,0.3910,36.0700,84,91,341230
2.8397,0.3910,36.1900,84,91,341234
2.8788,0.3910,36.1300,84,91,341237
2.8495,0.3861,36.2500,84,91,341240
2.8837,0.4301,35.9500,84,91,341244
2.8397,0.4008,36.3100,84,91,341248
2.8788,0.3910,36.1000,84,91,341251
2.9472,0.3666,36.1900,84,91,341254
2.9717,0.3861,36.2200,84,91,341258
2.9961,0.4057,36.0100,84,91,341261
2.9179,0.3910,36.0700,84,91,341264
2.9374,0.4008,36.0100,84,91,341268
2.9619,0.3861,36.1900,84,91,341271
3.0450,0.3959,36.1900,84,91,341274
3.0547,0.3959,36.1300,84,91,341278
2.9814,0.3959,36.1600,84,91,341281
2.9374,0.3861,36.0400,84,91,341284
2.8837,0.3959,36.2200,84,91,341288
2.8739,0.3910,36.1900,84,91,341292
2.9374,0.3959,36.0400,84,91,341295
2.8983,0.3861,36.1600,84,91,341299
2.8837,0.3959,35.9200,84,91,341302
2.7859,0.3910,36.1300,84,91,341305
2.7419,0.3910,36.1900,84,91,341309
2.8055,0.3959,36.1000,84,91,341312
2.8152,0.3910,36.1900,84,91,341315
2.8739,0.4008,35.9000,84,91,341318
2.7615,0.3910,36.0400,84,91,341322
2.6931,0.3861,36.1900,84,91,341325
2.6882,0.3959,36.1600,84,91,341328
2.7322,0.3910,36.1900,84,91,341332
2.8495,0.4448,35.9200,84,91,341336
2.7713,0.3910,36.3700,84,91,341339
2.7126,0.3910,36.0700,84,91,341343
2.6588,0.3910,36.2200,84,91,341346
2.6637,0.3910,36.1900,84,91,341349
2.7566,0.4106,36.1000,84,91,341353
2.7810,0.3959,36.1600,84,91,341356
2.7908,0.3959,35.9800,84,91,341359
2.7175,0.3861,36.1900,84,91,341363
2.6882,0.3861,36.1600,84,91,341366
2.7517,0.4008,36.0100,84,91,341369
2.7810,0.4008,36.1600,84,91,341373
2.8641,0.3861,36.0400,84,91,341377
2.8006,0.3861,36.1300,84,91,341380
2.7224,0.3910,36.1900,84,91,341383
2.6979,0.3959,36.0100,84,91,341387
2.7126,0.3910,36.1900,84,91,341390
2.8837,0.3959,35.8400,84,91,341393
3.0059,0.3861,36.1300,84,91,341397
3.0987,0.3861,36.2500,84,91,341400
3.1183,0.3910,36.1300,84,91,341403
3.0694,0.3861,36.2500,84,91,341407
3.0890,0.4008,35.8400,84,91,341410
2.9326,0.3910,36.1600,84,91,341413
2.7713,0.3959,36.1600,84,91,341417
2.5806,0.3861,36.1600,84,91,341421
2.4389,0.3959,36.1600,84,91,341424
2.5269,0.4057,36.0100,84,91,341428
2.6100,0.4008,36.1000,84,91,341431
2.7566,0.3910,36.0700,84,91,341434
2.8641,0.3910,36.1600,84,91,341437
2.8935,0.3861,36.1900,84,91,341441
2.9277,0.3910,35.9500,84,91,341444
3.0205,0.3910,36.0400,84,91,341448
2.9765,0.3910,36.1600,84,91,341451
3.0303,0.4008,35.9500,84,91,341454
3.0645,0.3910,36.1300,84,91,341458
3.1329,0.3861,36.0400,84,91,341462
3.1818,0.3910,36.1300,84,91,341465
3.1183,0.3861,36.2200,84,91,341469
3.1476,0.3959,35.9000,84,91,341472
3.1085,0.3861,36.1600,84,91,341475
3.1818,0.3910,36.1900,84,91,341479
3.2649,0.3959,36.1600,84,91,341482
3.2698,0.3861,36.1900,84,91,341485
3.3236,0.4106,35.9000,84,91,341489
3.2307,0.3959,36.1000,84,91,341492
3.2307,0.3861,36.2800,84,91,341495
3.3040,0.3910,36.1600,84,91,341498
3.3431,0.3910,36.3700,84,91,341502
3.4115,0.4057,35.9500,84,91,341506
3.3236,0.3959,36.0700,84,91,341509
3.3138,0.3959,36.0400,84,91,341513
3.2698,0.3861,36.1600,84,91,341516
3.3187,0.3910,36.2200,84,91,341519
3.3969,0.3959,36.2800,84,91,341523
3.3431,0.3910,36.1600,84,91,341526
3.3284,0.3959,36.0400,84,91,341529
3.2356,0.3812,36.1900,84,91,341533
3.2502,0.3910,36.1900,84,91,341536
3.3138,0.4106,36.1000,84,91,341539
3.3333,0.3910,36.1900,84,91,341543
3.3431,0.3910,35.9500,84,91,341547
3.2454,0.3910,36.2200,84,91,341550
3.1965,0.3910,36.1900,84,91,341554
3.2356,0.3959,36.1900,84,91,341557
3.2845,0.3861,36.1900,84,91,341560
3.3529,0.4008,35.9000,84,91,341563
3.2991,0.3910,36.1000,84,91,341567
3.1965,0.3861,36.1900,84,91,341570
3.2014,0.4008,36.1300,84,91,341573
3.2111,0.3861,36.1900,84,91,341577
3.3578,0.4350,35.8700,84,91,341580
3.3284,0.3910,36.0400,84,91,341583
3.2649,0.3910,36.1300,84,91,341587
3.2111,0.3910,36.1600,84,91,341591
3.1867,0.3910,36.1600,84,91,341594
3.2942,0.4008,36.1000,84,91,341598
3.2991,0.4008,36.1600,84,91,341601
3.3480,0.3861,36.0700,84,91,341604
3.2796,0.3910,36.0700,84,91,341608
3.2307,0.3910,36.1900,84,91,341611
3.2454,0.3959,36.1300,84,91,341614
3.2796,0.3910,36.1600,84,91,341617
3.3431,0.3959,35.6900,84,91,341621
3.2991,0.3861,36.1900,84,91,341624
3.2454,0.3959,36.1900,84,91,341627
3.2356,0.4008,36.0400,84,91,341632
3.1574,0.4057,36.1300,84,91,341635
3.2160,0.3861,35.9500,84,91,341638
3.2111,0.3910,36.0400,84,91,341642
3.1818,0.3910,36.1600,84,91,341645
3.1329,0.4106,36.0700,84,91,341648
3.0156,0.3910,36.2200,84,91,341652
3.0352,0.4008,36.1900,84,91,341655
2.9961,0.3910,36.1000,84,91,341658
2.9765,0.3861,36.1900,84,91,341662
2.9374,0.4399,36.1600,84,91,341665
2.8495,0.3910,36.1900,84,91,341668
2.8299,0.4057,35.8400,84,91,341671
2.7322,0.3861,36.1900,84,91,341676
2.7419,0.4106,36.1300,84,91,341679
2.7713,0.3910,35.4800,84,91,341682
2.7419,0.3910,36.1900,84,91,341686
2.7273,0.4057,36.0400,84,91,341689
2.6344,0.3959,36.1300,84,91,341692
2.6344,0.3910,35.8700,84,91,341696
2.6637,0.3910,36.1600,84,91,341699
2.6979,0.3861,36.1900,84,91,341702
2.7273,0.3861,36.0100,84,91,341706
2.6588,0.3910,36.1300,84,91,341709
2.6393,0.4008,35.9500,84,91,341712
2.6246,0.3910,36.1300,84,91,341716
2.6882,0.3861,36.1900,84,91,341720
2.7566,0.3959,36.0100,84,91,341723
2.7126,0.3861,36.2800,84,91,341727
2.7028,0.3910,35.9500,84,91,341730
2.6588,0.3910,36.1600,84,91,341733
2.6979,0.3861,36.1600,84,91,341736
2.7908,0.3959,36.1600,84,91,341740
2.8299,0.4057,36.1900,84,91,341743
2.8886,0.4008,35.9000,84,91,341746
2.7908,0.3861,36.1600,84,91,341750
2.8055,0.3910,36.1900,84,91,341753
2.8788,0.3959,36.2200,84,91,341756
2.9619,0.3910,36.1900,84,91,341761
3.1085,0.4106,35.9200,84,91,341764
3.0792,0.3959,36.1000,84,91,341767
3.0645,0.3861,36.1300,84,91,341771
3.1134,0.3861,36.1600,84,91,341774
3.2063,0.3861,36.1600,84,91,341777
3.3969,0.3861,35.9800,84,91,341781
3.4409,0.3959,36.1300,84,91,341784
3.4751,0.3959,36.0400,84,91,341787
3.4409,0.3910,36.1900,84,91,341791
3.4653,0.3910,36.1900,84,91,341794
3.5973,0.3959,35.9200,84,91,341797
3.6461,0.4008,36.1900,84,91,341800
3.7390,0.4008,36.1000,84,91,341805
3.6852,0.3861,36.1900,84,91,341808
3.6706,0.3861,36.1600,84,91,341811
3.7048,0.4008,36.1000,84,91,341815
3.7537,0.3910,36.1600,84,91,341818
3.8612,0.3959,35.9800,84,91,341821
3.8368,0.3861,36.1900,84,91,341825
3.8025,0.4203,36.1900,84,91,341828
3.8025,0.4008,36.1000,84,91,341831
3.7732,0.4106,36.1900,84,91,341835
3.9198,0.4008,35.8700,84,91,341838
3.9101,0.3959,36.0400,84,91,341841
3.8710,0.3910,36.1900,84,91,341844
3.8319,0.3959,36.1000,84,91,341849
3.7879,0.3910,36.1900,84,91,341852
3.8563,0.4057,35.9000,84,91,341855
3.8563,0.3910,36.0100,84,91,341859
3.8563,0.3861,36.1300,84,91,341862
3.8368,0.3910,36.1600,84,91,341865
3.7781,0.3910,36.2500,84,91,341869
3.8025,0.4106,36.0100,84,91,341872
3.7390,0.3910,35.4200,84,91,341875
3.8025,0.4008,36.0100,84,91,341879
3.8025,0.3910,36.1900,84,91,341882
3.7781,0.3861,36.1900,84,91,341885
3.7488,0.4008,36.1300,84,91,341890
3.6755,0.4154,36.1600,84,91,341893
3.7292,0.3959,36.0100,84,91,341896
3.7390,0.3910,36.1600,84,91,341900
3.7732,0.3861,35.5400,84,91,341903
3.8025,0.4008,36.0400,84,91,341906
3.7097,0.3910,36.3700,84,91,341909
3.7243,0.3959,35.9500,84,91,341913
3.7341,0.3910,36.1000,84,91,341916
3.7683,0.3861,36.1600,84,91,341919
3.8514,0.4008,35.9800,84,91,341923
3.7732,0.4008,36.1900,84,91,341926
3.8221,0.4008,35.9000,84,91,341929
3.6999,0.3910,36.0100,84,91,341934
3.7097,0.3910,36.1900,84,91,341937
3.7830,0.3910,36.1600,84,91,341940
3.7879,0.3861,36.2500,84,91,341944
3.8563,0.4057,35.8700,84,91,341947
3.7097,0.4008,36.1600,84,91,341950
3.6804,0.3910,36.1600,84,91,341953
3.7146,0.3910,36.0700,84,91,341957
3.7683,0.3861,36.1900,84,91,341960
3.8661,0.4057,36.0400,84,91,341963
3.7830,0.3861,36.1300,84,91,341967
3.7292,0.3910,36.0700,84,91,341970
3.6804,0.3910,36.1600,84,91,341974
3.7097,0.3910,36.1600,84,91,341978
3.7977,0.4057,35.9800,84,91,341981
3.7341,0.3959,36.1600,84,91,341984
3.6999,0.3959,36.0400,84,91,341988
3.5728,0.3861,36.2500,84,91,341991
3.5337,0.3910,36.2200,84,91,341994
3.5875,0.3910,36.0400,84,91,341998
3.5973,0.3910,36.1600,84,91,342001
3.5973,0.3910,36.0100,84,91,342004
3.4848,0.4106,36.1300,84,91,342007
3.4115,0.3861,36.3700,84,91,342011
3.4066,0.3959,36.1300,84,91,342014
3.4360,0.3910,36.1900,84,91,342018
3.5435,0.3959,35.9200,84,91,342022
3.4604,0.3861,36.1300,84,91,342025
3.4066,0.3910,36.1900,84,91,342028
3.3675,0.3959,36.2800,84,91,342032
3.3382,0.3910,36.2200,84,91,342035
3.4604,0.4057,35.8700,84,91,342038
3.4360,0.3959,36.1000,84,91,342042
3.3724,0.3861,36.1300,84,91,342045
3.3187,0.3861,36.1600,84,91,342048
3.2502,0.3959,36.1600,84,91,342052
3.3138,0.3861,35.9800,84,91,342055
3.2160,0.4008,36.0400,84,91,342060
3.2111,0.3910,36.1900,84,91,342063
3.3089,0.3910,36.0400,84,91,342066
3.2991,0.3910,36.1300,84,91,342070
3.2796,0.3861,36.1900,84,91,342073
3.2307,0.3910,36.1000,84,91,342076
3.1965,0.3910,36.1900,84,91,342080
3.2991,0.3959,35.9200,84,91,342083
3.3187,0.3861,36.1600,84,91,342086
3.3529,0.3812,36.1600,84,91,342089
3.3089,0.3959,36.2500,84,91,342093
3.2405,0.3910,36.1900,84,91,342096
3.3431,0.4057,35.8700,84,91,342099
3.4409,0.3959,36.0700,84,91,342104
3.5386,0.3861,36.1600,84,91,342107
3.5973,0.3910,36.1300,84,91,342110
3.5239,0.3861,36.1900,84,91,342114
3.4653,0.4106,35.9500,84,91,342117
3.2649,0.4008,35.3900,84,91,342120
3.0987,0.4154,36.0700,84,91,342124
2.9765,0.3910,36.1900,84,91,342127
2.9374,0.3910,36.1000,84,91,342130
3.0059,0.3959,36.0100,84,91,342133
3.0401,0.3910,36.1600,84,91,342137
3.1672,0.3959,35.9800,84,91,342140
3.2747,0.3959,36.1900,84,91,342144
3.3773,0.3959,36.2200,84,91,342148
3.4360,0.3910,36.0700,84,91,342151
3.3822,0.4008,36.1600,84,91,342154
3.3773,0.3959,36.0400,84,91,342158
3.3187,0.3910,36.2200,84,91,342161
3.3675,0.3861,36.2500,84,91,342164
3.4555,0.4057,36.0700,84,91,342168
3.4311,0.3910,36.1900,84,91,342171
3.4311,0.4057,35.9200,84,91,342174
3.3529,0.3959,36.0400,84,91,342178
3.3187,0.3910,36.1900,84,91,342181
3.4066,0.4008,35.9800,84,91,342184
3.4213,0.3861,36.2500,84,91,342189
3.5093,0.4008,35.8400,84,91,342192
3.3920,0.3959,36.0400,84,91,342195
3.3431,0.3910,36.1600,84,91,342198
3.3529,0.3910,36.1900,84,91,342202
3.3969,0.3861,36.2200,84,91,342205
3.5386,0.4057,35.6600,84,91,342208
3.4506,0.3861,36.1900,84,91,342212
3.3871,0.3910,36.0700,84,91,342215
3.3333,0.3861,36.1900,84,91,342218
3.3382,0.3910,36.1900,84,91,342222
3.4360,0.4008,35.9500,84,91,342225
3.4311,0.4008,36.1600,84,91,342228
3.4409,0.3959,36.0400,84,91,342233
3.3382,0.3910,36.1600,84,91,342236
3.3040,0.3861,36.1900,84,91,342239
3.3724,0.3959,36.0400,84,91,342243
3.3871,0.3910,35.4500,84,91,342246
3.4555,0.3910,36.0100,84,91,342249
3.3822,0.3861,36.1000,84,91,342252
3.3138,0.3910,36.1600,84,91,342256
3.3138,0.3959,36.0100,84,91,342259
3.3040,0.3910,36.1600,84,91,342262
3.4457,0.3959,35.9200,84,91,342266
3.4018,0.4154,36.1600,84,91,342269
3.3675,0.3910,36.2200,84,91,342273
3.3187,0.3910,36.1600,84,91,342277
3.2893,0.3910,36.1900,84,91,342280
3.3920,0.4008,36.1300,84,91,342283
3.3773,0.3910,36.1600,84,91,342287
3.4066,0.3861,36.2200,84,91,342290
3.4066,0.3910,36.1600,84,91,342293
3.3529,0.4057,36.1600,84,91,342297
3.4311,0.4106,35.9500,84,91,342300
3.4115,0.3959,36.1300,84,91,342303
3.4751,0.3910,36.0700,84,91,342307
3.4946,0.3910,36.1900,84,91,342310
3.4653,0.3861,36.2500,84,91,342313
3.4800,0.4008,35.9800,84,91,342317
3.4457,0.3959,36.1600,84,91,342321
3.5239,0.4301,36.0400,84,91,342324
3.5484,0.3861,36.2200,84,91,342327
3.5679,0.3861,36.1900,84,91,342331
3.5728,0.3959,36.0700,84,91,342334
3.4897,0.3861,36.1900,84,91,342337
3.5288,0.3910,36.0100,84,91,342341
3.5288,0.3861,36.1600,84,91,342344
3.5875,0.3910,36.1900,84,91,342347
3.5973,0.4057,36.1300,84,91,342351
3.5337,0.3910,36.1600,84,91,342354
3.5337,0.3910,35.9000,84,91,342358
3.4506,0.3910,36.1900,84,91,342362
3.4751,0.3959,36.1900,84,91,342365
3.5239,0.3959,36.1300,84,91,342368
3.4555,0.3910,36.1900,84,91,342372
3.4457,0.4008,36.0700,84,91,342375
3.2893,0.3910,36.0700,84,91,342378
3.2160,0.3861,36.1600,84,91,342381
3.2258,0.3910,36.1000,84,91,342385
3.2258,0.3861,36.1900,84,91,342388
3.2600,0.4106,35.9500,84,91,342391
3.1329,0.3959,36.1000,84,91,342395
3.0401,0.3910,36.0700,84,91,342398
3.0010,0.3910,36.1900,84,91,342402
3.0352,0.3910,36.1600,84,91,342406
3.0890,0.4008,36.0100,84,91,342409
3.0450,0.3910,36.1600,84,91,342412
2.9863,0.3910,36.0400,84,91,342415
2.9032,0.3910,36.1900,84,91,342419
2.9228,0.3910,36.2200,84,91,342422
2.9717,0.3861,36.1300,84,91,342425
2.9814,0.3910,36.1900,84,91,342429
2.9814,0.4008,35.9800,84,91,342432
2.8788,0.3861,36.1900,84,91,342435
2.8348,0.3861,36.1600,84,91,342439
2.8788,0.3861,36.0400,84,91,342443
2.8935,0.3910,36.1600,84,91,342446
2.9668,0.3959,35.9800,84,91,342450
2.9081,0.3910,36.0400,84,91,342453
2.8397,0.3861,36.1900,84,91,342456
2.8495,0.4008,35.9500,84,91,342460
2.8446,0.4106,36.1900,84,91,342463
2.9765,0.3861,35.8700,84,91,342466
2.9668,0.3861,36.0700,84,91,342470
2.9374,0.3861,36.1900,84,91,342473
2.9032,0.3910,36.1900,84,91,342476
2.8935,0.3861,36.0400,84,91,342479
3.0254,0.3959,35.9200,84,91,342483
3.0010,0.3959,36.1300,84,91,342487
3.0254,0.3910,36.1000,84,91,342490
2.9521,0.3910,36.1600,84,91,342494
2.8983,0.3910,36.1600,84,91,342497
2.8935,0.4008,35.9800,84,91,342500
2.8886,0.3910,36.1300,84,91,342504
2.9472,0.3861,36.0700,84,91,342507
2.9228,0.3910,36.1600,84,91,342510
2.8592,0.3861,36.3100,84,91,342514
2.8250,0.4008,36.0100,84,91,342517
2.7713,0.3910,36.2200,84,91,342520
2.8250,0.3959,36.0400,84,91,342524
2.8250,0.3861,36.1300,84,91,342528
2.8250,0.3910,36.1900,84,91,342531
2.8104,0.3959,36.0100,84,91,342534
2.7273,0.4008,36.1600,84,91,342538
2.7615,0.3959,35.9200,84,91,342541
2.7664,0.4008,36.1600,84,91,342544
2.8446,0.3910,36.1900,84,91,342548
2.8299,0.3959,36.2500,84,91,342551
2.7957,0.3910,36.1600,84,91,342554
2.7957,0.4008,35.8100,84,91,342558
2.7419,0.3910,36.1600,84,91,342561
2.7908,0.3910,36.0700,84,91,342564
2.8592,0.3959,36.1300,84,91,342568
2.8495,0.3910,36.1900,84,91,342572
2.8788,0.4106,35.9500,84,91,342575
2.7957,0.4008,36.0700,84,91,342578
2.8006,0.3910,36.1000,84,91,342582
2.8641,0.3910,36.3400,84,91,342585
2.9277,0.3910,36.1600,84,91,342588
3.0059,0.4057,36.1900,84,91,342592
2.9472,0.3959,36.1300,84,91,342595
2.9179,0.3959,35.9800,84,91,342598
2.9374,0.3910,36.1600,84,91,342602
3.0547,0.3861,36.3400,84,91,342605
3.2454,0.4057,36.0700,84,91,342608
3.2893,0.3910,36.1600,84,91,342612
3.3138,0.4008,36.0400,84,91,342616
3.2111,0.3910,36.1900,84,91,342619
3.1378,0.4350,36.1900,84,91,342623
3.0645,0.3861,36.1300,84,91,342626
2.8983,0.3910,36.1900,84,91,342629
2.7859,0.3959,35.9500,84,91,342632
2.6051,0.3910,36.1600,84,91,342636
2.6442,0.3910,36.1900,84,91,342639
2.8152,0.4008,36.1300,84,91,342642
2.9717,0.3861,36.1900,84,91,342646
3.1525,0.4057,35.9200,84,91,342649
3.1281,0.4008,36.1000,84,91,342652
3.0547,0.4203,36.1900,84,91,342657
3.0450,0.3959,36.1300,84,91,342660
3.0450,0.3910,36.1600,84,91,342663
3.2014,0.4154,35.9000,84,91,342667
3.0010,0.4008,36.0700,84,91,342670
3.0156,0.3910,36.3100,84,91,342674
3.0547,0.4008,36.0100,84,91,342677
2.9863,0.3861,36.1900,84,91,342680
2.9277,0.3910,36.1600,84,91,342684
2.9277,0.3959,36.2200,84,91,342687
2.9472,0.3910,36.1900,84,91,342690
3.0352,0.3910,36.0100,84,91,342694
3.0010,0.3910,36.1900,84,91,342697
2.9570,0.3861,36.1600,84,91,342701
2.9326,0.4008,36.0400,84,91,342704
2.8983,0.3910,36.1900,84,91,342708
2.9961,0.4008,35.9200,84,91,342711
3.0205,0.3861,36.0700,84,91,342714
2.9961,0.3861,36.1900,84,91,342718
2.9863,0.3959,35.9000,84,91,342721
2.9130,0.3959,36.1600,84,91,342724
2.9961,0.3861,35.8700,84,91,342728
3.0010,0.3910,36.0400,84,91,342731
3.0352,0.3861,36.1900,84,91,342734
3.0352,0.3910,36.1600,84,91,342738
2.9717,0.3910,36.1900,84,91,342742
3.0156,0.4057,35.9800,84,91,342745
2.9717,0.3910,36.1300,84,91,342749
3.0303,0.3910,36.1000,84,91,342752
3.0694,0.4301,36.1600,84,91,342755
3.0596,0.3910,36.1900,84,91,342758
3.0499,0.4008,36.0700,84,91,342762
2.9961,0.4008,36.1300,84,91,342765
3.0205,0.3959,36.0400,84,91,342768
3.0547,0.3910,36.1900,84,91,342772
3.1134,0.3910,36.2200,84,91,342775
3.1427,0.3910,36.0100,84,91,342778
3.0645,0.3910,36.3400,84,91,342782
3.0743,0.4008,36.0100,84,91,342786
3.0645,0.3910,36.1300,84,91,342789
3.1329,0.3910,36.0700,84,91,342793
3.2209,0.3959,36.0100,84,91,342796
3.1769,0.3861,36.1300,84,91,342799
3.2014,0.3959,35.9500,84,91,342802
3.1476,0.3910,36.2800,84,91,342806
3.1867,0.4008,36.1900,84,91,342809
3.2747,0.3910,36.2200,84,91,342812
3.2942,0.3812,36.1900,84,91,342816
3.3529,0.4008,35.9000,84,91,342819
3.2502,0.3910,36.1600,84,91,342822
3.2014,0.3910,36.1900,84,91,342827
3.2454,0.3910,36.2200,84,91,342830
3.2845,0.3910,36.3400,84,91,342833
3.3871,0.4106,35.9200,84,91,342837
3.2747,0.3959,36.0700,84,91,342840
3.1769,0.3910,36.0700,84,91,342843
3.1232,0.3910,36.2200,84,91,342847
3.1281,0.3910,36.1900,84,91,342850
3.1867,0.4008,36.0400,84,91,342853
3.1232,0.3959,36.1300,84,91,342856
3.0499,0.3959,35.3600,84,91,342860
2.9130,0.3910,36.1600,84,91,342863
2.8348,0.3910,36.1900,84,91,342866
2.8543,0.3959,36.0700,84,91,342871
2.8250,0.3910,36.1900,84,91,342874
2.8250,0.4008,36.0400,84,91,342877
2.7273,0.3910,36.1600,84,91,342881
2.6197,0.3861,36.2500,84,91,342884
2.6149,0.3959,36.1300,84,91,342887
2.5806,0.3910,36.1900,84,91,342891
2.6344,0.3910,35.9200,84,91,342894
2.5806,0.3910,36.1900,84,91,342897
2.5220,0.3910,36.1900,84,91,342901
2.4878,0.3959,36.1900,84,91,342904
2.4487,0.3910,36.1600,84,91,342907
2.5318,0.4008,35.8100,84,91,342910
2.5367,0.3910,36.0700,84,91,342915
2.5073,0.3861,35.9500,84,91,342918
2.4682,0.3861,36.1300,84,91,342921
2.4047,0.3861,36.1600,84,91,342925
2.4780,0.4106,35.9800,84,91,342928
2.4829,0.4008,36.1000,84,91,342931
2.5171,0.3910,36.1000,84,91,342935
2.4976,0.3910,36.1900,84,91,342938
2.4389,0.3910,36.1600,84,91,342941
2.4340,0.4008,35.9500,84,91,342945
2.4096,0.3910,36.1600,84,91,342948
2.4780,0.3910,36.0400,84,91,342951
2.4976,0.3861,36.2800,84,91,342956
2.4878,0.3910,36.1900,84,91,342959
2.4536,0.3861,36.1000,84,91,342962
2.3949,0.3910,36.1600,84,91,342965
2.4242,0.4008,36.1000,84,91,342969
2.4389,0.3910,36.1900,84,91,342972
2.4780,0.3910,36.1900,84,91,342975
2.4976,0.4154,36.0700,84,91,342979
2.4194,0.3910,36.1900,84,91,342982
2.4194,0.4301,35.9500,84,91,342985
2.4242,0.3910,36.0700,84,91,342989
2.4633,0.3910,36.1900,84,91,342992
2.5269,0.4008,36.0700,84,91,342995
2.4682,0.3861,36.1900,84,91,343000
2.4682,0.4008,35.8700,84,91,343003
2.3900,0.3861,36.0100,84,91,343006
2.4047,0.3910,36.2800,84,91,343010
2.4633,0.3861,36.1900,84,91,343013
2.4878,0.3861,36.1600,84,91,343016
2.5318,0.4106,35.9000,84,91,343019
2.4194,0.3861,36.1900,84,91,343023
2.3998,0.3910,36.0700,84,91,343026
2.4438,0.3910,36.1600,84,91,343029
2.4976,0.3812,36.1600,84,91,343033
2.5660,0.4008,36.0700,84,91,343036
2.5024,0.3959,35.3400,84,91,343040
2.4536,0.3959,36.0400,84,91,343044
2.4145,0.3910,36.1600,84,91,343047
2.4487,0.3910,36.2200,84,91,343050
2.5464,0.4008,36.0400,84,91,343054
2.5269,0.3861,36.1600,84,91,343057
2.5122,0.4008,36.0400,84,91,343060
2.4536,0.3910,36.1600,84,91,343064
2.4047,0.3861,36.2800,84,91,343067
2.4633,0.3910,36.0100,84,91,343070
2.4878,0.3861,36.1600,84,91,343073
2.5220,0.4057,35.9500,84,91,343077
2.4487,0.3910,36.1000,84,91,343080
2.3949,0.3861,36.1600,84,91,343084
2.3949,0.3959,36.1300,84,91,343088
2.4242,0.3910,36.1300,84,91,343091
2.5464,0.4057,35.9000,84,91,343094
2.4780,0.3861,36.0700,84,91,343098
2.4389,0.3910,36.2200,84,91,343101
2.4047,0.3959,36.1600,84,91,343104
2.3998,0.3910,36.1900,84,91,343108
2.5122,0.4057,36.2800,84,91,343111
2.5171,0.3910,36.1000,84,91,343114
2.4927,0.3861,36.1600,84,91,343118
2.4438,0.3861,36.1600,84,91,343121
2.3851,0.3910,36.1600,84,91,343124
2.4340,0.4008,35.9800,84,91,343128
2.4487,0.3959,36.1300,84,91,343132
2.4829,0.3959,36.0400,84,91,343135
2.4291,0.3861,35.5700,84,91,343138
2.3607,0.3910,36.1600,84,91,343142
2.3412,0.3959,35.3900,84,91,343145
2.3118,0.3910,36.1900,84,91,343148
2.3851,0.4008,36.1600,84,91,343152
2.3803,0.3910,36.1900,84,91,343155
2.3558,0.3910,36.2800,84,91,343158
2.3118,0.3910,36.1000,84,91,343162
2.2630,0.3861,36.1900,84,91,343165
2.3021,0.3959,35.9500,84,91,343169
2.3216,0.3861,36.1900,84,91,343173
2.3754,0.3861,36.1900,84,91,343176
2.3314,0.3959,36.0700,84,91,343179
2.2532,0.3861,36.1900,84,91,343183
2.2630,0.4008,35.8700,84,91,343186
2.2532,0.3959,36.0700,84,91,343189
2.2727,0.3910,36.1900,84,91,343192
2.3069,0.3861,36.1300,84,91,343196
2.2532,0.3910,36.1900,84,91,343199
2.2581,0.4057,35.9200,84,91,343202
2.2092,0.4008,36.0700,84,91,343206
2.2092,0.3910,36.1000,84,91,343209
2.2287,0.3910,36.2500,84,91,343213
2.2434,0.4008,36.1900,84,91,343217
2.2581,0.3861,36.0100,84,91,343220
2.1603,0.3959,36.1600,84,91,343223
2.1603,0.3910,36.1300,84,91,343227
2.1701,0.3910,36.1900,84,91,343230
2.2287,0.3861,36.2500,84,91,343233
2.2923,0.4008,36.1300,84,91,343237
2.2043,0.3910,36.1600,84,91,343240
2.1701,0.4008,36.0400,84,91,343243
2.1212,0.3861,36.1900,84,91,343246
2.1554,0.4057,36.1600,84,91,343250
2.2287,0.3959,36.0700,84,91,343254
2.2190,0.3959,36.1900,84,91,343257
2.2141,0.3959,35.9000,84,91,343261
2.1505,0.3959,36.0400,84,91,343264
2.1359,0.3910,36.1600,84,91,343267
2.2043,0.3959,36.0700,84,91,343271
2.2287,0.3910,36.1900,84,91,343274
2.2923,0.4008,35.9500,84,91,343277
2.3754,0.4154,35.9800,84,91,343281
2.3412,0.3861,36.1600,84,91,343284
2.3314,0.3910,36.0400,84,91,343288
2.3167,0.3910,36.1600,84,91,343291
2.3754,0.3959,36.1900,84,91,343294
2.4976,0.3861,36.1000,84,91,343299
2.5367,0.4008,36.1600,84,91,343302
2.5709,0.3959,36.0100,84,91,343305
2.5122,0.3910,36.1600,84,91,343308
2.4829,0.3910,36.2200,84,91,343312
2.5464,0.4057,36.0400,84,91,343315
2.5758,0.3910,36.1300,84,91,343318
2.6442,0.3910,36.0100,84,91,343322
2.5758,0.3910,36.1000,84,91,343325
2.5220,0.3861,36.1900,84,91,343328
2.5269,0.3959,36.0100,84,91,343332
2.4878,0.3910,36.1600,84,91,343335
2.5709,0.4008,35.9000,84,91,343339
2.5464,0.3910,36.1300,84,91,343343
2.4927,0.4008,36.1900,84,91,343346
2.4291,0.3861,36.1600,84,91,343349
2.3656,0.4154,36.1900,84,91,343353
2.4340,0.4008,35.8700,84,91,343356
2.4096,0.3910,36.1600,84,91,343359
2.4096,0.3861,36.1900,84,91,343362
2.3754,0.3959,36.1600,84,91,343366
2.2727,0.3910,36.1600,84,91,343369
2.2874,0.4057,35.9800,84,91,343372
2.2483,0.3959,36.1300,84,91,343376
2.2874,0.3910,36.0700,84,91,343379
2.2825,0.4448,36.1600,84,91,343383
2.2336,0.3910,36.1900,84,91,343387
2.2092,0.4350,35.9500,84,91,343390
2.1554,0.3959,36.1300,84,91,343393
2.1994,0.3959,35.9800,84,91,343397
2.2239,0.3861,36.1900,84,91,343400
2.2141,0.3861,36.2200,84,91,343403
2.1603,0.3910,36.0700,84,91,343407
2.0626,0.3910,36.1900,84,91,343410
2.1114,0.3910,36.0100,84,91,343413
2.1652,0.3910,35.5100,84,91,343417
2.2874,0.3910,36.1600,84,91,343420
2.3363,0.3910,36.1300,84,91,343424
2.2385,0.3910,36.1600,84,91,343427
2.1457,0.3959,35.1600,84,91,343431
1.9746,0.3861,36.1600,84,91,343434
1.8475,0.3910,36.1600,84,91,343437
1.7204,0.3861,36.1600,84,91,343441
1.6422,0.3910,36.1600,84,91,343444
1.6227,0.4057,35.9200,84,91,343447
1.6227,0.3959,36.1300,84,91,343451
1.7107,0.3861,36.1300,84,91,343454
1.8328,0.3910,36.2800,84,91,343457
1.9257,0.3910,36.1600,84,91,343461
1.9892,0.4008,35.9800,84,91,343464
1.9159,0.3910,36.1000,84,91,343468
1.8524,0.3861,36.1000,84,91,343472
1.8328,0.3959,36.1900,84,91,343475
1.8719,0.3910,36.1900,84,91,343478
1.9159,0.4008,36.0400,84,91,343482
1.8524,0.3861,36.1900,84,91,343485
1.8084,0.4106,36.0100,84,91,343488
1.7400,0.3910,36.1600,84,91,343492
1.7449,0.3910,36.3700,84,91,343495
1.7986,0.3910,36.1600,84,91,343498
1.8182,0.3910,36.1600,84,91,343501
1.8475,0.3910,35.9800,84,91,343505
1.7351,0.3910,36.1900,84,91,343508
1.6862,0.3861,36.1900,84,91,343512
1.7058,0.4008,36.1000,84,91,343516
1.7351,0.3861,36.2800,84,91,343519
1.8182,0.4106,35.9000,84,91,343522
1.7498,0.3959,36.1000,84,91,343526
1.6862,0.3861,36.1900,84,91,343529
1.6716,0.3959,36.1000,84,91,343532
1.6862,0.3910,36.1900,84,91,343536
1.7742,0.4057,35.9800,84,91,343539
1.7693,0.3959,36.0700,84,91,343542
1.7155,0.3861,36.0700,84,91,343546
1.6618,0.3861,36.1900,84,91,343549
1.6325,0.3910,36.1900,84,91,343553
1.7009,0.4008,36.0100,84,91,343557
1.7155,0.3910,35.4200,84,91,343560
1.7644,0.3910,36.0400,84,91,343563
1.6764,0.3861,36.1600,84,91,343566
1.6422,0.3910,36.1300,84,91,343570
1.6276,0.3959,36.1000,84,91,343573
1.6471,0.3910,36.1600,84,91,343576
1.7204,0.4008,36.0100,84,91,343580
1.7155,0.3910,36.1900,84,91,343583
1.6813,0.3861,36.3700,84,91,343586
1.6471,0.3959,35.9500,84,91,343590
1.6178,0.3910,36.1600,84,91,343593
1.6764,0.3959,35.9500,84,91,343597
1.7058,0.3910,36.1000,84,91,343601
1.7107,0.3861,36.1600,84,91,343604
1.6960,0.3959,36.0700,84,91,343607
1.6276,0.3910,36.1900,84,91,343611
1.6716,0.4252,35.8700,84,91,343614
1.6960,0.3910,36.0700,84,91,343617
1.7546,0.3910,36.1600,84,91,343621
1.7546,0.3910,36.1600,84,91,343624
1.7155,0.3910,36.2200,84,91,343627
1.7302,0.4057,35.9200,84,91,343630
1.6960,0.4008,36.1300,84,91,343634
1.7595,0.3910,36.2200,84,91,343638
1.8084,0.3910,36.1900,84,91,343641
1.8084,0.3910,36.1900,84,91,343645
1.7986,0.3959,36.0400,84,91,343648
1.7351,0.3861,36.1600,84,91,343651
1.7595,0.3861,36.0400,84,91,343655
1.7986,0.3910,36.4300,84,91,343658
1.8426,0.3910,36.1900,84,91,343661
1.8573,0.4008,35.9800,84,91,343665
1.7840,0.3910,36.1600,84,91,343668
1.7546,0.4008,36.0400,84,91,343671
1.7302,0.3910,36.1300,84,91,343675
1.7595,0.3910,36.1900,84,91,343678
1.7791,0.3910,36.0100,84,91,343682
1.7204,0.3861,36.1600,84,91,343685
1.6569,0.3959,35.9200,84,91,343689
1.5689,0.3861,36.1000,84,91,343692
1.5445,0.3861,36.1000,84,91,343695
1.5445,0.4008,36.1000,84,91,343699
1.5200,0.3861,36.1900,84,91,343702
1.5054,0.4399,35.9000,84,91,343705
1.3930,0.3910,36.1600,84,91,343709
1.3343,0.3861,36.1900,84,91,343712
1.3294,0.3959,36.1600,84,91,343715
1.3539,0.3910,36.1900,84,91,343719
1.3930,0.4106,36.0700,84,91,343723
1.3245,0.4008,36.1000,84,91,343726
1.2512,0.3861,36.1000,84,91,343730
1.2268,0.3910,36.1300,84,91,343733
1.2366,0.3861,36.2200,84,91,343736
1.3099,0.3959,35.9500,84,91,343739
1.3196,0.3959,36.1600,84,91,343743
1.2805,0.3910,36.0100,84,91,343746
1.2268,0.3861,36.2200,84,91,343749
1.2268,0.3910,36.2200,84,91,343753
1.2414,0.4008,36.0700,84,91,343756
1.2854,0.3910,36.1600,84,91,343759
1.3099,0.4008,36.0700,84,91,343763
1.2659,0.3910,36.1900,84,91,343767
1.2219,0.3910,36.1600,84,91,343770
1.2219,0.3910,36.1600,84,91,343774
1.2561,0.3910,36.2200,84,91,343777
1.3196,0.3910,35.9500,84,91,343780
1.3148,0.3861,36.1600,84,91,343784
1.3148,0.3910,36.1600,84,91,343787
1.2512,0.3959,36.1000,84,91,343790
1.2366,0.3861,36.1900,84,91,343794
1.3148,0.4057,35.8400,84,91,343797
1.3490,0.3959,36.0700,84,91,343800
1.3441,0.3861,36.1900,84,91,343803
1.3099,0.3959,36.1600,84,91,343808
1.2610,0.3812,36.2200,84,91,343811
1.3050,0.4057,35.9500,84,91,343814
1.3245,0.3959,36.0700,84,91,343818
1.3636,0.3861,36.1000,84,91,343821
1.3636,0.3910,36.1900,84,91,343824
1.3245,0.3861,36.1600,84,91,343828
1.3099,0.4008,36.0400,84,91,343831
1.3001,0.3910,36.1900,84,91,343834
1.3636,0.3910,36.0100,84,91,343838
1.3930,0.3861,36.1600,84,91,343841
1.3930,0.3959,36.1900,84,91,343844
1.3587,0.3910,36.1300,84,91,343848
1.3196,0.3910,36.1600,84,91,343852
1.3587,0.3959,36.0400,84,91,343855
1.3930,0.3861,36.1900,84,91,343859
1.4418,0.3861,36.3100,84,91,343862
1.5005,0.4008,36.0400,84,91,343865
1.5347,0.3910,36.1900,84,91,343868
1.6422,0.4154,35.9200,84,91,343872
1.7351,0.3910,36.0700,84,91,343875
1.8573,0.3861,36.1900,84,91,343878
1.9697,0.4008,36.1600,84,91,343882
1.9746,0.3910,36.1900,84,91,343885
1.9990,0.4008,35.8700,84,91,343888
2.0332,0.4008,36.0100,84,91,343892
1.9453,0.3910,36.1600,84,91,343896
1.9404,0.3910,36.0400,84,91,343900
1.9746,0.3910,36.2800,84,91,343903
2.0332,0.3861,36.1900,84,91,343906
2.0626,0.3910,36.0700,84,91,343910
2.0039,0.3910,36.1600,84,91,343913
1.9550,0.3959,36.0100,84,91,343916
1.9062,0.3910,36.1600,84,91,343920
1.9306,0.3861,36.1300,84,91,343923
2.0039,0.3861,36.0100,84,91,343926
1.9941,0.4154,36.2200,84,91,343930
1.9746,0.3910,35.9500,84,91,343933
1.9013,0.3959,36.1000,84,91,343937
1.8915,0.3861,36.1600,84,91,343940
1.9599,0.3959,36.0400,84,91,343944
2.0039,0.3910,36.1600,84,91,343947
2.0577,0.3959,35.8700,84,91,343950
1.9990,0.3861,36.1000,84,91,343954
1.9404,0.3910,36.1600,84,91,343957
1.9453,0.3861,36.1600,84,91,343960
1.9844,0.3861,36.1900,84,91,343964
2.0772,0.3861,35.9000,84,91,343967
2.0186,0.3910,36.1000,84,91,343970
1.9501,0.3910,36.1300,84,91,343974
1.8915,0.3959,36.1600,84,91,343977
1.8671,0.3861,35.6300,84,91,343981
1.9306,0.4008,36.0100,84,91,343985
1.9306,0.3910,36.2800,84,91,343988
1.9110,0.3910,36.0100,84,91,343991
1.8280,0.3861,35.7500,84,91,343994
1.7693,0.3910,36.1900,84,91,343998
1.8084,0.4008,35.9500,84,91,344001
1.8719,0.3910,36.1600,84,91,344004
1.9404,0.3959,35.9800,84,91,344008
1.9208,0.3910,36.1600,84,91,344011
1.8817,0.3861,36.1900,84,91,344014
1.8671,0.3910,36.0400,84,91,344018
1.8915,0.3861,36.1900,84,91,344022
1.9844,0.3959,35.9500,84,91,344025
2.0137,0.3861,35.4800,84,91,344029
1.9941,0.3910,36.1900,84,91,344032
1.9453,0.3910,36.1000,84,91,344035
1.9110,0.3910,36.1900,84,91,344039
1.9746,0.4008,35.9000,84,91,344042
1.9844,0.3861,36.1600,84,91,344045
2.0283,0.3861,36.1300,84,91,344049
2.0235,0.3910,36.1600,84,91,344052
1.9453,0.4154,36.1600,84,91,344055
1.9746,0.4106,35.9000,84,91,344058
1.9599,0.4252,36.0700,84,91,344062
1.9941,0.3910,36.1000,84,91,344066
2.0430,0.3910,36.1300,84,91,344069
2.0137,0.3910,36.1900,84,91,344073
2.0088,0.4008,35.9800,84,91,344076
1.9648,0.4203,36.1300,84,91,344079
1.9990,0.3861,36.0400,84,91,344083
2.0479,0.3861,36.1600,84,91,344086
2.0821,0.3910,36.1600,84,91,344089
2.0968,0.3959,36.0400,84,91,344093
2.0577,0.4008,36.2200,84,91,344096
2.1017,0.3959,36.0400,84,91,344099
2.1017,0.3861,36.1600,84,91,344102
2.1408,0.3861,36.1600,84,91,344107
2.1750,0.4399,36.1300,84,91,344110
2.1994,0.3861,36.1900,84,91,344113
2.2874,0.3959,36.0100,84,91,344117
2.3754,0.3861,36.1900,84,91,344120
2.4927,0.3910,36.1900,84,91,344123
2.5806,0.3959,35.9200,84,91,344127
2.5073,0.3910,36.1600,84,91,344130
2.4047,0.4008,35.8400,84,91,344133
2.1994,0.3959,36.0700,84,91,344137
1.9795,0.3910,36.1600,84,91,344140
1.9404,0.3959,36.1300,84,91,344143
1.9697,0.3861,36.1900,84,91,344147
2.1163,0.4057,35.9200,84,91,344151
2.1065,0.4252,36.0400,84,91,344154
2.1114,0.3910,36.1300,84,91,344158
2.1701,0.3910,36.1000,84,91,344161
2.2336,0.4399,36.1900,84,91,344164
2.3216,0.4008,36.0100,84,91,344167
2.2630,0.3959,36.1600,84,91,344171
2.2190,0.3910,36.0400,84,91,344174
2.1554,0.3910,36.1900,84,91,344177
2.1652,0.3861,36.1900,84,91,344181
2.2385,0.4008,36.1300,84,91,344184
2.2581,0.3861,36.1600,84,91,344187
2.2581,0.3910,36.0100,84,91,344192
2.1799,0.3910,36.1600,84,91,344195
2.1554,0.3910,36.1900,84,91,344198
2.1994,0.4008,35.9800,84,91,344202
2.2336,0.3910,36.1900,84,91,344205
2.3021,0.3910,35.9200,84,91,344208
2.3069,0.3910,36.0700,84,91,344212
2.2336,0.3861,36.1600,84,91,344215
2.2434,0.4008,36.0400,84,91,344218
2.2630,0.3861,35.7800,84,91,344222
2.3949,0.3959,35.8700,84,91,344225
2.3900,0.3812,35.4200,84,91,344228
2.3656,0.3959,36.1900,84,91,344231
2.3363,0.3910,36.1600,84,91,344236
2.3118,0.4203,36.1600,84,91,344239
2.3998,0.4057,35.8700,84,91,344242
2.3900,0.3959,36.1300,84,91,344246
2.4047,0.3861,36.1000,84,91,344249
2.3656,0.3861,36.1600,84,91,344252
2.3167,0.3861,36.2500,84,91,344256
2.3656,0.4008,36.0400,84,91,344259
2.3460,0.3910,36.1600,84,91,344262
2.3949,0.3910,35.9800,84,91,344266
2.3900,0.3861,36.1600,84,91,344269
2.3460,0.3861,36.2500,84,91,344272
2.3412,0.4008,35.9800,84,91,344275
2.3021,0.3910,36.1600,84,91,344280
2.3509,0.4008,36.0400,84,91,344283
2.3705,0.3910,36.1600,84,91,344286
2.3754,0.3861,36.1900,84,91,344290
2.3558,0.3861,36.0400,84,91,344293
2.2776,0.3861,35.9800,84,91,344296
2.3069,0.4008,35.9800,84,91,344300
2.3118,0.3861,36.1300,84,91,344303
2.3656,0.3910,36.1900,84,91,344306
2.3803,0.3910,36.2800,84,91,344310
2.3314,0.4154,36.2200,84,91,344313
2.3460,0.3959,35.9200,84,91,344316
2.3069,0.3861,36.1600,84,91,344321
2.3509,0.3861,36.1900,84,91,344324
2.4194,0.3910,36.1900,84,91,344327
2.4145,0.3812,36.2200,84,91,344331
2.4340,0.4057,35.8700,84,91,344334
2.3412,0.3910,36.1000,84,91,344337
2.3363,0.3861,36.1300,84,91,344340
2.4096,0.3910,36.1900,84,91,344344
2.4438,0.3861,35.4500,84,91,344347
2.5024,0.4008,35.9800,84,91,344350
2.4340,0.3959,36.1300,84,91,344354
2.3949,0.3959,36.0400,84,91,344357
2.3754,0.3861,36.1900,84,91,344360
2.4145,0.3910,36.1900,84,91,344365
2.4731,0.3959,36.0100,84,91,344368
2.4096,0.4057,36.1600,84,91,344371
2.3607,0.3959,36.0400,84,91,344375
2.2630,0.3910,36.2200,84,91,344378
2.2825,0.3910,36.1900,84,91,344381
2.2776,0.3910,36.1300,84,91,344385
2.2874,0.3959,36.1600,84,91,344388
2.2092,0.3910,36.1300,84,91,344391
2.0870,0.3910,36.1600,84,91,344394
2.0088,0.3861,36.1900,84,91,344398
1.9941,0.3959,36.0700,84,91,344401
1.9892,0.3861,36.1900,84,91,344404
2.0430,0.4008,35.9000,84,91,344409
1.9599,0.3959,36.0700,84,91,344412
1.8622,0.3910,36.1900,84,91,344415
1.8328,0.3959,36.1600,84,91,344419
1.8231,0.3959,36.1600,84,91,344422
1.9062,0.4057,36.0100,84,91,344425
1.8817,0.3910,36.4300,84,91,344429
1.8280,0.3861,36.0700,84,91,344432
1.8035,0.3910,36.1600,84,91,344435
1.7351,0.3861,36.1900,84,91,344439
1.7986,0.4008,36.0100,84,91,344442
1.8133,0.3910,36.1600,84,91,344445
1.8328,0.4008,36.0400,84,91,344449
1.7889,0.3861,36.1600,84,91,344453
1.7351,0.3959,36.1600,84,91,344456
1.7351,0.3959,36.0100,84,91,344459
1.7595,0.3910,36.1600,84,91,344463
1.8328,0.3959,35.4200,84,91,344466
1.8280,0.3910,36.2200,84,91,344469
1.8035,0.3861,36.1900,84,91,344473
1.7937,0.3959,36.0100,84,91,344476
1.8035,0.3959,36.1600,84,91,344479
1.8426,0.3910,35.9500,84,91,344483
1.8866,0.4008,36.1000,84,91,344486
1.8915,0.3910,36.1900,84,91,344489
1.8866,0.4008,36.0700,84,91,344494
1.8035,0.3861,36.1900,84,91,344497
1.8328,0.3959,35.9000,84,91,344500
1.8622,0.3959,35.9800,84,91,344504
1.8426,0.3910,36.1600,84,91,344507
1.9110,0.4008,36.0700,84,91,344511
1.9697,0.3910,36.1900,84,91,344514
1.9795,0.3910,36.2500,84,91,344517
1.9746,0.3959,36.0100,84,91,344521
1.9306,0.3910,36.1600,84,91,344524
1.9697,0.3910,35.2800,84,91,344527
2.0088,0.3861,36.1600,84,91,344530
2.0577,0.3861,36.1900,84,91,344535
2.0919,0.3959,36.0400,84,91,344538
1.9844,0.3812,36.1600,84,91,344541
1.9550,0.3910,35.9800,84,91,344545
1.9257,0.4106,36.1600,84,91,344548
1.9599,0.3861,36.1900,84,91,344551
2.0430,0.4008,36.0100,84,91,344555
1.9550,0.3910,36.1600,84,91,344558
1.9257,0.3959,35.9000,84,91,344561
1.8524,0.3910,36.1600,84,91,344565
1.8573,0.3861,36.1300,84,91,344568
1.9062,0.3861,36.1600,84,91,344571
1.9110,0.3861,36.1900,84,91,344576
1.9404,0.4008,35.8400,84,91,344579
1.8280,0.3861,36.1300,84,91,344582
1.7937,0.3861,36.1600,84,91,344586
1.8182,0.3861,36.1600,84,91,344589
1.8719,0.3861,36.1600,84,91,344592
1.9404,0.4057,36.0100,84,91,344595
1.8768,0.3959,36.3100,84,91,344599
1.8426,0.3910,36.0400,84,91,344602
1.8084,0.4252,36.1000,84,91,344605
1.8915,0.3910,36.1900,84,91,344609
1.9599,0.3959,35.9800,84,91,344612
1.9795,0.3861,36.1600,84,91,344615
1.9990,0.4008,36.0100,84,91,344620
1.9892,0.3812,36.1600,84,91,344623
2.0772,0.3910,36.1900,84,91,344626
2.2727,0.3910,36.1000,84,91,344630
2.4487,0.3861,36.1900,84,91,344633
2.6197,0.3910,35.9800,84,91,344636
2.6393,0.3861,36.1000,84,91,344640
2.6246,0.3861,36.1900,84,91,344643
2.6784,0.3910,36.1300,84,91,344646
2.7810,0.3910,36.1900,84,91,344650
2.9961,0.3959,35.5100,84,91,344653
3.0938,0.3861,36.1900,84,91,344656
3.1623,0.3910,36.1600,84,91,344659
3.1769,0.3861,36.1600,84,91,344664
3.0987,0.3910,36.1900,84,91,344667
3.0596,0.4057,35.9000,84,91,344670
2.8348,0.3959,36.0700,84,91,344674
2.5806,0.3861,36.1300,84,91,344677
2.3851,0.3910,36.1600,84,91,344680
2.2923,0.3812,36.2500,84,91,344684
2.4438,0.3959,35.9800,84,91,344687
2.5513,0.3959,36.1600,84,91,344690
2.6931,0.3910,36.0400,84,91,344694
2.7175,0.3861,36.1000,84,91,344697
2.7028,0.3910,36.1900,84,91,344700
2.7077,0.4008,36.1600,84,91,344705
2.6979,0.4008,36.1600,84,91,344708
2.7664,0.3959,36.0400,84,91,344711
2.7468,0.3861,36.1900,84,91,344714
2.7224,0.3910,36.1900,84,91,344718
2.6637,0.3910,36.1300,84,91,344721
2.6149,0.3910,36.1900,84,91,344724
2.6637,0.3910,35.9200,84,91,344728
2.6931,0.3910,36.1600,84,91,344731
2.7224,0.3959,36.1900,84,91,344734
2.7175,0.3959,36.1000,84,91,344738
2.6246,0.3910,36.1600,84,91,344741
2.6442,0.3959,35.9200,84,91,344744
2.6540,0.4008,36.0700,84,91,344749
2.6588,0.3910,36.1900,84,91,344752
2.7028,0.3910,36.1600,84,91,344755
2.6540,0.3861,36.1900,84,91,344759
2.6637,0.4203,35.8700,84,91,344762
2.5855,0.3959,36.0700,84,91,344765
2.6051,0.3910,36.1000,84,91,344769
2.6051,0.3861,36.1600,84,91,344772
2.5953,0.3910,36.1900,84,91,344775
2.5855,0.4008,36.0400,84,91,344778
2.4780,0.3861,36.1600,84,91,344782
2.4682,0.3910,36.0400,84,91,344785
2.4780,0.3861,35.4200,84,91,344788
2.5269,0.3910,36.1600,84,91,344793
2.5513,0.4057,36.1300,84,91,344796
2.4682,0.3910,36.1600,84,91,344799
2.4242,0.3959,36.0400,84,91,344803
2.3656,0.3910,36.1600,84,91,344806
2.4047,0.3861,36.1600,84,91,344809
2.4731,0.3959,36.0400,84,91,344813
2.4389,0.3959,36.1600,84,91,344816
2.4194,0.3910,35.9200,84,91,344819
2.3460,0.3910,36.0700,84,91,344823
2.3460,0.3763,36.1600,84,91,344826
2.3900,0.4057,36.0400,84,91,344829
2.4047,0.3812,36.1900,84,91,344833
2.4585,0.3959,35.9000,84,91,344837
2.3705,0.3959,36.1000,84,91,344840
2.3167,0.3861,36.1600,84,91,344843
2.3265,0.3910,36.1300,84,91,344847
2.3803,0.3861,36.1900,84,91,344850
2.4927,0.4154,35.8700,84,91,344853
2.4340,0.3861,36.1300,84,91,344857
2.3851,0.3861,36.1300,84,91,344860
2.3412,0.4008,36.1900,84,91,344863
2.3460,0.3861,36.1900,84,91,344867
2.4487,0.4252,36.0400,84,91,344870
2.4487,0.3910,36.1600,84,91,344873
2.4487,0.3910,36.0400,84,91,344878
2.3754,0.3861,36.1900,84,91,344881
2.3314,0.3959,36.1000,84,91,344884
2.3851,0.3959,36.0100,84,91,344888
2.4096,0.3959,36.1600,84,91,344891
2.4682,0.4008,36.0400,84,91,344894
2.4096,0.3812,36.1900,84,91,344897
2.3851,0.3812,36.1900,84,91,344901
2.3118,0.4057,35.8400,84,91,344904
2.2776,0.3861,36.2200,84,91,344907
2.3118,0.3910,36.0700,84,91,344911
2.2727,0.3910,36.1300,84,91,344914
2.1945,0.3861,36.1900,84,91,344918
2.1114,0.3910,36.1300,84,91,344922
2.0186,0.3861,36.1900,84,91,344925
2.0430,0.3959,35.9000,84,91,344928
2.0039,0.3861,36.0700,84,91,344932
1.9844,0.3959,36.2200,84,91,344935
1.9306,0.3861,36.2500,84,91,344938
1.8426,0.3861,36.1900,84,91,344942
1.8377,0.4057,36.0100,84,91,344945
1.8035,0.3861,36.1000,84,91,344948
1.8328,0.3861,36.1000,84,91,344951
1.8475,0.3910,36.1600,84,91,344955
1.7986,0.3861,36.4300,84,91,344958
1.7595,0.4008,35.9500,84,91,344962
1.7351,0.3910,36.1000,84,91,344966
1.7742,0.3910,36.0100,84,91,344969
1.7937,0.3861,36.2500,84,91,344972
1.8133,0.3763,36.1600,84,91,344976
1.7937,0.4154,36.0400,84,91,344979
1.7351,0.3910,36.1600,84,91,344982
1.7400,0.3959,36.0700,84,91,344986
1.7791,0.3959,36.1600,84,91,344989
1.8231,0.3861,36.2200,84,91,344992
1.8475,0.3861,36.1300,84,91,344996
1.7986,0.3861,36.1900,84,91,344999
1.7693,0.3910,35.9500,84,91,345003
1.7351,0.3910,36.1900,84,91,345007
1.7791,0.3861,36.1900,84,91,345010
1.8817,0.3910,36.0700,84,91,345013
1.8377,0.3861,36.1300,84,91,345017
1.8377,0.3959,35.8700,84,91,345020
1.7693,0.3959,36.0400,84,91,345023
1.7889,0.3861,36.1900,84,91,345026
1.8182,0.3910,36.1300,84,91,345030
1.8524,0.3861,36.1900,84,91,345033
1.8964,0.4106,35.9500,84,91,345036
1.8231,0.3959,36.0700,84,91,345040
1.7693,0.3910,36.0700,84,91,345043
1.7644,0.3861,36.1600,84,91,345047
1.8280,0.3861,36.1900,84,91,345051
1.8964,0.4008,36.0400,84,91,345054
1.8719,0.3910,36.1900,84,91,345057
1.8426,0.3910,35.9500,84,91,345061
1.7937,0.3910,36.1900,84,91,345064
1.8035,0.3861,36.1900,84,91,345067
1.8719,0.3910,36.1300,84,91,345071
1.8964,0.3959,36.2200,84,91,345074
1.9062,0.3861,35.9500,84,91,345077
1.8328,0.3861,36.1900,84,91,345081
1.7937,0.3861,36.1600,84,91,345084
1.8524,0.3959,36.0700,84,91,345088
1.8866,0.3763,36.1900,84,91,345092
1.9599,0.3959,35.9200,84,91,345095
1.9159,0.3910,36.0700,84,91,345098
1.8377,0.3861,36.1900,84,91,345101
1.8035,0.3861,36.1300,84,91,345105
1.8182,0.3861,36.1600,84,91,345108
1.9208,0.4057,35.8400,84,91,345111
1.8622,0.3959,36.0400,84,91,345115
1.9062,0.4008,36.1900,84,91,345118
1.9697,0.3910,36.0400,84,91,345122
1.9306,0.3861,36.1600,84,91,345125
1.8915,0.3861,36.1600,84,91,345128
1.9110,0.3910,36.1000,84,91,345133
1.9404,0.3910,36.1600,84,91,345136
2.0283,0.3959,35.9500,84,91,345139
2.0235,0.3861,36.1900,84,91,345143
2.0088,0.3861,36.1600,84,91,345146
2.0137,0.3910,36.0700,84,91,345149
2.0137,0.3861,36.1600,84,91,345153
2.1065,0.3959,35.9200,84,91,345156
2.1408,0.3861,36.0700,84,91,345159
2.1554,0.3861,36.1600,84,91,345163
2.1163,0.4008,36.1000,84,91,345166
2.0430,0.3861,36.1900,84,91,345169
2.0870,0.3959,35.9000,84,91,345172
2.0919,0.3959,36.0400,84,91,345177
2.1212,0.3861,36.1900,84,91,345180
2.1065,0.3910,36.1900,84,91,345183
2.0283,0.3763,36.1900,84,91,345187
2.0235,0.4057,35.9500,84,91,345190
1.9599,0.3910,36.1600,84,91,345193
1.9941,0.3861,36.0700,84,91,345197
2.0283,0.3861,36.1900,84,91,345200
1.9990,0.3763,36.1900,84,91,345203
1.9697,0.3959,36.0700,84,91,345207
1.8915,0.3959,36.1600,84,91,345210
1.9013,0.3861,36.0400,84,91,345213
1.9257,0.3812,36.1600,84,91,345218
1.9501,0.3861,36.1300,84,91,345221
1.9501,0.3959,36.0100,84,91,345224
1.8524,0.3959,36.1600,84,91,345228
1.8182,0.3861,36.0100,84,91,345231
1.7840,0.3910,36.1000,84,91,345234
1.8182,0.3666,36.1900,84,91,345237
1.8475,0.4008,35.9800,84,91,345241
1.7986,0.3861,36.1900,84,91,345244
1.7546,0.3910,35.9000,84,91,345247
1.6862,0.3910,36.1300,84,91,345251
1.6911,0.3861,36.1000,84,91,345254
1.7449,0.3910,36.1600,84,91,345257
1.7498,0.3861,36.1600,84,91,345262
1.7595,0.3959,35.8700,84,91,345265
1.6813,0.3861,36.1300,84,91,345268
1.6227,0.3812,36.3100,84,91,345272
1.6422,0.3910,36.1600,84,91,345275
1.6862,0.3861,36.1900,84,91,345278
1.7449,0.4008,35.8700,84,91,345282
1.7204,0.3910,36.1300,84,91,345285
1.6276,0.3861,36.0700,84,91,345288
1.5885,0.3861,36.1900,84,91,345292
1.6325,0.3861,36.1900,84,91,345295
1.7204,0.3861,35.9800,84,91,345298
1.7107,0.3959,36.1600,84,91,345303
1.6862,0.3861,36.0400,84,91,345306
1.6129,0.3910,36.1900,84,91,345309
1.5982,0.3861,36.1900,84,91,345312
1.6520,0.3910,36.0400,84,91,345316
1.7009,0.3861,36.1900,84,91,345319
1.7449,0.3861,35.9500,84,91,345322
1.7009,0.3812,36.1300,84,91,345326
1.6716,0.3763,36.1900,84,91,345329
1.6764,0.3861,36.1300,84,91,345332
1.7058,0.4350,36.1900,84,91,345336
1.7840,0.3910,35.9200,84,91,345339
1.7595,0.3666,36.1600,84,91,345342
1.7155,0.3812,36.2200,84,91,345347
1.6813,0.3861,36.0400,84,91,345350
1.6716,0.3666,36.1900,84,91,345353
1.7546,0.4057,35.8400,84,91,345357
1.7889,0.3910,36.1000,84,91,345360
1.7302,0.3812,36.1900,84,91,345363
1.6813,0.3861,36.1600,84,91,345367
1.6373,0.3812,36.1900,84,91,345370
1.6764,0.3959,35.9500,84,91,345373
1.7400,0.3763,36.1600,84,91,345377
1.7546,0.3861,36.0400,84,91,345380
1.7302,0.3959,36.1600,84,91,345383
1.6862,0.3812,36.1900,84,91,345387
1.6618,0.3959,36.1000,84,91,345391
1.6569,0.3861,36.1900,84,91,345394
1.7351,0.3910,36.0400,84,91,345397
1.7449,0.3666,36.1600,84,91,345401
1.7351,0.3910,36.1900,84,91,345404
1.6911,0.3861,36.1000,84,91,345407
1.6569,0.3861,36.1900,84,91,345411
1.7107,0.3861,35.9500,84,91,345414
1.7595,0.3861,36.1900,84,91,345417
1.8035,0.3812,36.1900,84,91,345421
1.8084,0.3861,36.1300,84,91,345424
1.7742,0.3861,36.1900,84,91,345427
1.8280,0.3959,35.8400,84,91,345432
1.8671,0.3910,36.1000,84,91,345435
1.9599,0.3763,36.1600,84,91,345438
2.0332,0.3861,36.1600,84,91,345442
2.0332,0.3812,36.1900,84,91,345445
2.0772,0.4008,35.9800,84,91,345448
2.0723,0.3959,36.0700,84,91,345452
2.1212,0.3763,36.0700,84,91,345455
2.1750,0.3812,36.1900,84,91,345458
2.1848,0.3812,36.1600,84,91,345461
2.1994,0.3910,36.0700,84,91,345465
2.1750,0.3812,36.1900,84,91,345468
2.2776,0.3861,36.1000,84,91,345472
2.3900,0.3861,36.1600,84,91,345476
2.4878,0.3812,36.1600,84,91,345479
2.4927,0.3910,36.1300,84,91,345482
2.3705,0.3812,36.1900,84,91,345486
2.2239,0.4057,36.0400,84,91,345489
2.0137,0.3812,36.3700,84,91,345492
1.9062,0.3812,36.1900,84,91,345496
1.8328,0.3861,36.1600,84,91,345499
1.8182,0.3812,36.1900,84,91,345502
1.8866,0.4106,35.9200,84,91,345506
1.9110,0.3910,36.1000,84,91,345509
1.9648,0.4106,36.1300,84,91,345512
2.0772,0.3861,36.1300,84,91,345517
2.1261,0.3763,36.2200,84,91,345520
2.1799,0.3959,35.7500,84,91,345523
2.0919,0.3861,36.0400,84,91,345527
2.0235,0.4106,36.1600,84,91,345530
2.0235,0.3861,36.1600,84,91,345533
2.0626,0.3812,36.2500,84,91,345536
2.1505,0.4008,35.9800,84,91,345540
2.1065,0.3861,36.0100,84,91,345543
2.0626,0.3763,36.0700,84,91,345546
2.0186,0.3861,36.1900,84,91,345550
2.0772,0.3763,36.1300,84,91,345553
2.1310,0.3861,36.1300,84,91,345556
2.1652,0.3763,36.1900,84,91,345561
2.1945,0.3861,35.9500,84,91,345564
2.1359,0.3812,36.1900,84,91,345567
2.1163,0.3812,36.1600,84,91,345571
2.1848,0.3910,36.0400,84,91,345574
2.2239,0.3861,36.1900,84,91,345577
2.3069,0.3861,35.9000,84,91,345581
2.3069,0.3861,36.0700,84,91,345584
2.2190,0.3812,36.1900,84,91,345587
2.2239,0.3959,36.0700,84,91,345591
2.2336,0.3812,36.1900,84,91,345594
2.3558,0.3910,35.9000,84,91,345597
2.3412,0.3812,36.0700,84,91,345601
2.2923,0.3812,36.1900,84,91,345605
2.2385,0.3861,36.1600,84,91,345608
2.1994,0.3812,36.1600,84,91,345611
2.2630,0.4008,35.7200,84,91,345615
2.2483,0.3812,36.1300,84,91,345618
2.2532,0.3812,36.0700,84,91,345621
2.2092,0.3812,36.1600,84,91,345625
2.1359,0.3763,36.2200,84,91,345628
2.1408,0.3959,36.0400,84,91,345631
2.1261,0.4008,36.1300,84,91,345635
2.1799,0.3861,36.0700,84,91,345638
2.1750,0.3812,36.1600,84,91,345641
2.0968,0.3812,36.1900,84,91,345646
2.0674,0.4008,35.9800,84,91,345649
2.0137,0.3861,36.1300,84,91,345652
2.0626,0.3910,36.0400,84,91,345656
2.0723,0.3763,36.1300,84,91,345659
2.0772,0.3861,36.1900,84,91,345662
2.0381,0.3910,36.0100,84,91,345665
1.9697,0.3812,36.1600,84,91,345669
1.9844,0.3959,35.9500,84,91,345672
2.0088,0.3812,36.3400,84,91,345675
2.0528,0.3812,36.1900,84,91,345679
2.0772,0.3861,36.1600,84,91,345682
2.0332,0.3910,36.1900,84,91,345686
2.0430,0.3861,35.8700,84,91,345690
2.0332,0.3666,36.1300,84,91,345693
2.0674,0.3812,36.2200,84,91,345696
2.1310,0.3861,36.1600,84,91,345700
2.1212,0.3812,36.1000,84,91,345703
2.1701,0.4057,35.9000,84,91,345706
2.0626,0.3861,36.1300,84,91,345710
2.0674,0.4008,36.1000,84,91,345713
2.1457,0.3861,36.1600,84,91,345716
2.2092,0.3812,36.1600,84,91,345719
2.2874,0.3910,35.9800,84,91,345723
2.3998,0.3861,35.3100,84,91,345726
2.3607,0.3812,36.1600,84,91,345731
2.3314,0.3861,36.0400,84,91,345734
2.2434,0.3812,36.1300,84,91,345737
2.2385,0.3812,35.8100,84,91,345741
2.2678,0.3666,36.1000,84,91,345744
2.2434,0.3763,36.1900,84,91,345747
2.2239,0.3910,35.9200,84,91,345751
2.0772,0.3812,36.1600,84,91,345754
2.0332,0.3666,36.1900,84,91,345757
2.0088,0.3861,36.1000,84,91,345761
2.0137,0.3812,36.1900,84,91,345764
2.0479,0.3959,35.8400,84,91,345767
1.9599,0.3910,36.0400,84,91,345772
1.8573,0.3763,36.1600,84,91,345775
1.8084,0.3861,36.1600,84,91,345778
1.8084,0.3812,36.1000,84,91,345782
1.8915,0.3959,35.9200,84,91,345785
1.8719,0.3959,36.1300,84,91,345788
1.8182,0.3910,36.0400,84,91,345791
1.7400,0.3812,36.1000,84,91,345795
1.7107,0.3959,36.1900,84,91,345798
1.7546,0.3861,36.0400,84,91,345801
1.7840,0.3715,36.1600,84,91,345805
1.8133,0.3861,36.0100,84,91,345808
1.7498,0.3861,36.1600,84,91,345811
1.6911,0.3812,36.1900,84,91,345816
1.6764,0.3861,36.1300,84,91,345819
1.6960,0.3763,36.1600,84,91,345822
1.7595,0.3861,35.9800,84,91,345826
1.7351,0.3763,36.1600,84,91,345829
1.6960,0.3812,36.2800,84,91,345832
1.6716,0.4008,36.0400,84,91,345836
1.6422,0.3812,36.1000,84,91,345839
1.7107,0.3910,35.9200,84,91,345842
1.7351,0.3861,36.0700,84,91,345846
1.7155,0.3812,36.1900,84,91,345849
1.6764,0.3861,36.0400,84,91,345852
1.6129,0.3910,36.1600,84,91,345856
1.6569,0.3959,35.8400,84,91,345860
1.6911,0.3666,36.0100,84,91,345863
1.7009,0.3763,36.1900,84,91,345866
1.7155,0.3763,36.1900,84,91,345870
1.6325,0.3763,36.1600,84,91,345873
1.6325,0.3959,36.0100,84,91,345876
1.5934,0.4057,36.1600,84,91,345880
1.6471,0.3812,36.0700,84,91,345883
1.6862,0.3910,36.2200,84,91,345886
1.6813,0.3812,35.5700,84,91,345890
1.6569,0.3763,36.1300,84,91,345893
1.5982,0.3861,36.1300,84,91,345896
1.6276,0.3861,36.0400,84,91,345901
1.6618,0.3861,36.1600,84,91,345904
1.7009,0.3812,36.2500,84,91,345907
1.7204,0.4008,36.0100,84,91,345911
1.6471,0.3812,36.3400,84,91,345914
1.6422,0.3910,35.9200,84,91,345917
1.6422,0.3910,36.0400,84,91,345921
1.6911,0.3666,36.1900,84,91,345924
1.7351,0.3959,36.0100,84,91,345927
1.7009,0.3812,36.1900,84,91,345931
1.6911,0.4106,35.8700,84,91,345934
1.6373,0.3812,35.9800,84,91,345937
1.6618,0.3812,36.1900,84,91,345940
1.7253,0.3812,36.1300,84,91,345945
1.7449,0.3812,36.1900,84,91,345948
1.7644,0.4350,35.9500,84,91,345951
1.6618,0.3861,35.9200,84,91,345955
1.6716,0.3763,36.1000,84,91,345958
1.6667,0.3812,36.1900,84,91,345961
1.7204,0.3812,36.2200,84,91,345965
1.7791,0.3910,36.1000,84,91,345968
1.6911,0.3861,36.2200,84,91,345971
1.6716,0.3910,35.9800,84,91,345975
1.6031,0.3861,36.1900,84,91,345978
1.6422,0.3812,36.1600,84,91,345981
1.7253,0.3910,36.0400,84,91,345986
1.7155,0.3812,36.1000,84,91,345989
1.7107,0.3812,35.9800,84,91,345992
1.6178,0.3812,36.2500,84,91,345996
1.6129,0.3812,36.1900,84,91,345999
1.6960,0.4008,36.0700,84,91,346002
1.7058,0.3812,36.1900,84,91,346006
1.7449,0.3910,36.2800,84,91,346009
1.6813,0.3763,36.1000,84,91,346012
1.6422,0.3812,36.1900,84,91,346016
1.6471,0.3910,36.1600,84,91,346019
1.6862,0.3812,36.1900,84,91,346022
1.7693,0.4008,35.8700,84,91,346025
1.7058,0.3812,36.1300,84,91,346030
1.6471,0.3812,36.1300,84,91,346033
1.5934,0.3861,36.1600,84,91,346036
1.5982,0.3812,35.5400,84,91,346040
1.6764,0.3959,36.0400,84,91,346043
1.6667,0.3861,36.0400,84,91,346046
1.6373,0.3715,36.0400,84,91,346050
1.5591,0.3812,36.1600,84,91,346053
1.5054,0.3812,36.1900,84,91,346056
1.5396,0.3910,35.9800,84,91,346060
1.5738,0.3812,36.1600,84,91,346063
1.6276,0.4008,36.0400,84,91,346066
1.5934,0.3763,36.1600,84,91,346071
1.5445,0.4008,36.1900,84,91,346074
1.5298,0.3861,36.0400,84,91,346077
1.5396,0.3763,36.1600,84,91,346081
1.6178,0.3910,35.9500,84,91,346084
1.6373,0.3812,36.1000,84,91,346087
1.6080,0.3812,36.1900,84,91,346091
1.5591,0.3910,36.1300,84,91,346094
1.5200,0.3861,36.1900,84,91,346097
1.5787,0.3959,35.8700,84,91,346100
1.5982,0.3812,36.1900,84,91,346104
1.6276,0.3666,36.1900,84,91,346107
1.6080,0.3861,36.1600,84,91,346110
1.5543,0.3812,36.2800,84,91,346115
1.5787,0.3959,35.9500,84,91,346118
1.5787,0.3861,36.1300,84,91,346121
1.6276,0.3715,36.1000,84,91,346125
1.6520,0.4106,36.1600,84,91,346128
1.6227,0.3812,36.1900,84,91,346131
1.5982,0.4252,35.9500,84,91,346135
1.5689,0.3861,36.2500,84,91,346138
1.6276,0.3812,36.0100,84,91,346141
1.6813,0.3812,36.1900,84,91,346145
1.7107,0.4106,36.2200,84,91,346148
1.6813,0.3861,36.1600,84,91,346151
1.6031,0.3666,36.1900,84,91,346156
1.6129,0.3861,36.0100,84,91,346159
1.6813,0.3812,36.1600,84,91,346162
1.8182,0.4154,36.1600,84,91,346166
1.9306,0.3861,36.1300,84,91,346169
1.9110,0.3812,36.1900,84,91,346172
1.8719,0.3959,35.9000,84,91,346176
1.7498,0.3812,36.1600,84,91,346179
1.6569,0.3812,36.3100,84,91,346182
1.5396,0.3666,36.1600,84,91,346185
1.3832,0.3763,36.1900,84,91,346189
1.2854,0.4008,35.9000,84,91,346192
1.2512,0.3910,36.1000,84,91,346195
1.3392,0.3763,36.1300,84,91,346200
1.4956,0.3861,36.1900,84,91,346203
1.6129,0.3959,36.1900,84,91,346206
1.7009,0.3910,35.9800,84,91,346210
1.6813,0.3910,36.1300,84,91,346213
1.6227,0.3861,36.0400,84,91,346216
1.6129,0.3910,36.1600,84,91,346220
1.6569,0.3812,36.3400,84,91,346223
1.7107,0.3861,36.0700,84,91,346226
1.6667,0.3861,36.1900,84,91,346230
1.6325,0.3910,36.0400,84,91,346233
1.5689,0.3812,36.1900,84,91,346236
1.5982,0.3763,36.1900,84,91,346241
1.6178,0.3861,36.1000,84,91,346244
1.6667,0.3861,36.2200,84,91,346247
1.6276,0.3861,35.9800,84,91,346251
1.5543,0.3812,36.1900,84,91,346254
1.5152,0.3812,36.1900,84,91,346257
1.5494,0.3861,36.1300,84,91,346261
1.5934,0.3812,36.1900,84,91,346264
1.6569,0.3959,35.8700,84,91,346267
1.6031,0.3861,36.1000,84,91,346270
1.5396,0.3910,36.1900,84,91,346274
1.5298,0.3861,35.8700,84,91,346277
1.5494,0.3861,36.1600,84,91,346280
1.6520,0.4008,35.9800,84,91,346285
1.6667,0.3910,36.1000,84,91,346288
1.5982,0.3812,36.3100,84,91,346291
1.5445,0.3861,36.1600,84,91,346295
1.5200,0.3812,36.2500,84,91,346298
1.5738,0.3910,36.0100,84,91,346301
1.6080,0.3812,36.1600,84,91,346305
1.6422,0.3959,36.0100,84,91,346308
1.5982,0.3812,36.2800,84,91,346311
1.5494,0.3861,36.1900,84,91,346315
1.5494,0.3861,36.1000,84,91,346318
1.5836,0.3763,36.2200,84,91,346321
1.6618,0.3812,35.9800,84,91,346326
1.6471,0.3763,36.1900,84,91,346329
1.6129,0.4154,36.1600,84,91,346332
1.5982,0.3861,36.1600,84,91,346336
1.6960,0.3910,36.1300,84,91,346339
1.6764,0.3812,36.1900,84,91,346343
1.7449,0.4057,35.9200,84,91,346346
1.7840,0.3861,36.0100,84,91,346349
1.8524,0.3763,36.1000,84,91,346353
1.8231,0.3812,36.1900,84,91,346356
1.7791,0.3910,36.1900,84,91,346359
1.7742,0.3910,36.0100,84,91,346362
1.7742,0.3861,36.1600,84,91,346366
1.8524,0.3861,36.0100,84,91,346370
1.8817,0.3763,36.1900,84,91,346373
1.8768,0.3812,36.1600,84,91,346377
1.8426,0.3861,36.1300,84,91,346380
1.7889,0.3861,36.1600,84,91,346383
1.8280,0.3861,36.0400,84,91,346387
1.8475,0.3666,36.1900,84,91,346390
1.8866,0.3812,36.1600,84,91,346393
1.8768,0.3861,36.1000,84,91,346397
1.8035,0.3812,36.1600,84,91,346400
1.7840,0.3910,35.9200,84,91,346403
1.7742,0.3861,36.0700,84,91,346407
1.7986,0.3861,36.1900,84,91,346411
1.8035,0.3959,36.0100,84,91,346414
1.7253,0.3812,36.1900,84,91,346418
1.6764,0.3959,35.8400,84,91,346421
1.5787,0.3861,36.4000,84,91,346424
1.5494,0.3910,36.1600,84,91,346428
1.5591,0.3812,36.1900,84,91,346431
1.5347,0.3861,36.2200,84,91,346434
1.5054,0.3959,36.0100,84,91,346437
1.3783,0.3812,36.2200,84,91,346441
1.3196,0.3812,36.0700,84,91,346444
1.3148,0.3812,36.2200,84,91,346447
1.3245,0.3812,36.1600,84,91,346451
1.3441,0.3910,36.0400,84,91,346455
1.2805,0.3959,36.1900,84,91,346458
1.2610,0.3910,36.0100,84,91,346462
1.2023,0.3812,36.1600,84,91,346465
1.2317,0.3666,36.1900,84,91,346468
1.2952,0.3861,36.0400,84,91,346472
1.2854,0.3812,36.1600,84,91,346475
1.2610,0.3959,35.9800,84,91,346478
1.2121,0.3812,36.1000,84,91,346482
1.2023,0.4154,36.1600,84,91,346485
1.2659,0.3959,36.0700,84,91,346488
1.3050,0.3763,36.1900,84,91,346492
1.3441,0.3861,35.9000,84,91,346496
1.2903,0.3861,36.1300,84,91,346499
1.2366,0.3812,36.1900,84,91,346502
1.2414,0.3861,36.1600,84,91,346506
1.2854,0.3812,36.1600,84,91,346509
1.3539,0.4008,35.8700,84,91,346512
1.3196,0.3812,36.1900,84,91,346516
1.2805,0.3666,36.1300,84,91,346519
1.2463,0.3861,36.1600,84,91,346522
1.2561,0.3812,36.1900,84,91,346526
1.3539,0.3959,36.0400,84,91,346529
1.3539,0.3861,36.1600,84,91,346532
1.3392,0.3812,36.0400,84,91,346536
1.2708,0.4106,36.1900,84,91,346540
1.2366,0.3666,36.1900,84,91,346543
1.2610,0.3910,35.9800,84,91,346547
1.3050,0.3861,36.1600,84,91,346550
1.3685,0.3861,36.0700,84,91,346553
1.3441,0.3763,36.1900,84,91,346557
1.3294,0.3812,36.1900,84,91,346560
1.2903,0.4057,36.0100,84,91,346563
1.3001,0.3812,36.1900,84,91,346567
1.3832,0.3861,35.9000,84,91,346570
1.4076,0.3910,36.1300,84,91,346573
1.4027,0.3812,36.1900,84,91,346577
1.3881,0.3861,36.1600,84,91,346580
1.3539,0.3812,36.1600,84,91,346584
1.4076,0.3959,35.8700,84,91,346587
1.4174,0.3812,36.1600,84,91,346591
1.4223,0.3812,36.2200,84,91,346594
1.4076,0.3910,36.1600,84,91,346597
1.3294,0.3812,36.1600,84,91,346601
1.3343,0.3861,35.9800,84,91,346604
1.3245,0.4399,36.1000,84,91,346607
1.3587,0.3812,36.0700,84,91,346611
1.3587,0.3812,36.1600,84,91,346614
1.3050,0.3812,36.1900,84,91,346617
1.2854,0.3910,36.0100,84,91,346621
1.2561,0.3861,36.2800,84,91,346625
1.3294,0.3861,36.0100,84,91,346628
1.3343,0.3812,36.1300,84,91,346632
1.3490,0.3812,36.1900,84,91,346635
1.3392,0.3910,36.0400,84,91,346638
1.2757,0.3812,36.1600,84,91,346642
1.3001,0.3861,35.9800,84,91,346645
1.3245,0.3666,36.1600,84,91,346648
1.3783,0.3812,36.2200,84,91,346652
1.3930,0.3812,35.6900,84,91,346655
1.3490,0.3763,36.1900,84,91,346658
1.3343,0.3910,35.9000,84,91,346661
1.3245,0.3812,36.1600,84,91,346665
1.3539,0.3812,36.1600,84,91,346669
1.4223,0.3666,36.1300,84,91,346672
1.4223,0.3861,36.2200,84,91,346676
1.4272,0.4008,35.9200,84,91,346679
1.3734,0.3812,36.0400,84,91,346682
1.3636,0.3763,36.1300,84,91,346686
1.3930,0.3861,36.1900,84,91,346689
1.4223,0.4008,36.1900,84,91,346692
1.4761,0.3910,35.9800,84,91,346696
1.4809,0.3959,36.1300,84,91,346699
1.5640,0.3861,36.0700,84,91,346702
1.6618,0.3910,36.1900,84,91,346706
1.7449,0.3812,36.2200,84,91,346710
1.7693,0.3910,36.0700,84,91,346713
1.6471,0.3812,36.1600,84,91,346717
1.4712,0.3959,36.0400,84,91,346720
1.2463,0.3812,36.0400,84,91,346723
1.1632,0.3763,36.1900,84,91,346727
1.1535,0.3861,35.8400,84,91,346730
1.2512,0.3666,36.1600,84,91,346733
1.3490,0.3861,36.0100,84,91,346737
1.3832,0.3812,36.1900,84,91,346740
1.4272,0.3910,36.1900,84,91,346743
1.5152,0.3910,36.1000,84,91,346746
1.6031,0.3763,36.1300,84,91,346750
1.6618,0.3910,35.1000,84,91,346754
1.6520,0.3910,36.0700,84,91,346757
1.5543,0.3812,36.1900,84,91,346761
1.5347,0.3861,36.1600,84,91,346764
1.5689,0.3959,36.1900,84,91,346767
1.6813,0.3959,35.9500,84,91,346771
1.6862,0.3959,36.0700,84,91,346774
1.6373,0.3812,36.1000,84,91,346777
1.5738,0.4057,36.1600,84,91,346781
1.5543,0.3812,36.2200,84,91,346784
1.6276,0.4008,36.0400,84,91,346787
1.6520,0.3812,36.1600,84,91,346791
1.6960,0.3861,36.0100,84,91,346795
1.6569,0.3812,36.1600,84,91,346798
1.6325,0.3812,36.1600,84,91,346802
1.6129,0.3861,35.4800,84,91,346805
1.6667,0.3763,36.1600,84,91,346808
1.7058,0.3812,35.3600,84,91,346812
1.7058,0.3812,36.3100,84,91,346815
1.6618,0.3910,36.1900,84,91,346818
1.6373,0.3861,36.0400,84,91,346821
1.6178,0.3763,36.1600,84,91,346825
1.6862,0.3910,35.9800,84,91,346828
1.7204,0.3861,36.0400,84,91,346831
1.7155,0.3812,36.1900,84,91,346835
1.7009,0.3910,36.1000,84,91,346839
1.6422,0.3812,36.1900,84,91,346842
1.6862,0.4154,35.8400,84,91,346846
1.7155,0.3861,36.0400,84,91,346849
1.7546,0.3763,36.1600,84,91,346852
1.7546,0.3812,36.1600,84,91,346856
1.7107,0.3812,36.1900,84,91,346859
1.7058,0.4008,36.0100,84,91,346862
1.6813,0.3861,36.1600,84,91,346866
1.7400,0.4106,36.0700,84,91,346869
1.7840,0.3812,36.1900,84,91,346872
1.7840,0.3812,36.1600,84,91,346876
1.7644,0.3861,36.2200,84,91,346880
1.7155,0.3812,36.1600,84,91,346883
1.7595,0.3861,36.0100,84,91,346886
1.8084,0.3861,36.1600,84,91,346890
1.8622,0.3812,36.1900,84,91,346893
1.8866,0.3861,36.0700,84,91,346896
1.8328,0.3763,36.1600,84,91,346900
1.8377,0.3861,35.9800,84,91,346903
1.8622,0.3812,36.0700,84,91,346906
1.9062,0.3812,36.2200,84,91,346910
1.9697,0.3959,36.0700,84,91,346913
1.9306,0.3812,36.3400,84,91,346916
1.9306,0.3959,35.9000,84,91,346920
1.8671,0.3812,36.2200,84,91,346924
1.9110,0.3812,36.1600,84,91,346927
1.9257,0.3861,36.1900,84,91,346931
1.9355,0.3666,36.1900,84,91,346934
1.9453,0.4008,35.9000,84,91,346937
1.8328,0.3861,36.1300,84,91,346941
1.7889,0.3812,36.1000,84,91,346944
1.8035,0.3812,36.1600,84,91,346947
1.6227,0.3812,36.1900,84,91,346952
1.6080,0.3812,36.1900,84,91,346955
1.6471,0.4008,36.0400,84,91,346959
1.5934,0.3861,36.1900,84,91,346962
1.5298,0.3910,36.0100,84,91,346966
1.4223,0.3812,36.1000,84,91,346970
1.3685,0.3812,36.1900,84,91,346973
1.4027,0.3910,36.0400,84,91,346976
1.4174,0.3763,36.1900,84,91,346979
1.4321,0.3910,35.9000,84,91,346983
1.3734,0.3910,36.1300,84,91,346986
1.2854,0.3812,36.2500,84,91,346989
1.2805,0.3910,36.1600,84,91,346993
1.3050,0.3812,36.1900,84,91,346996
1.3832,0.3959,35.8400,84,91,346999
1.3490,0.3812,36.1600,84,91,347003
1.2952,0.3763,36.1300,84,91,347006
1.2610,0.3861,36.1300,84,91,347010
1.2610,0.3812,36.4000,84,91,347014
1.3539,0.3959,36.0100,84,91,347017
1.3783,0.3861,36.1300,84,91,347020
1.3734,0.3763,36.0400,84,91,347024
1.3196,0.4203,36.1900,84,91,347027
1.2757,0.3812,36.1900,84,91,347030
1.3148,0.3910,36.0400,84,91,347034
1.3587,0.3861,35.8400,84,91,347037
1.4418,0.3910,36.0100,84,91,347040
1.3930,0.3763,36.1600,84,91,347044
1.3441,0.3812,36.1900,84,91,347047
1.3294,0.4154,36.0100,84,91,347051
1.3490,0.3861,36.1600,84,91,347055
1.4370,0.3861,35.9500,84,91,347058
1.4663,0.3812,36.1000,84,91,347061
1.4516,0.3812,36.1600,84,91,347064
1.4076,0.3861,36.1600,84,91,347068
1.3685,0.3910,36.1900,84,91,347071
1.4223,0.3861,35.8700,84,91,347074
1.4467,0.3812,36.1600,84,91,347078
1.4712,0.3812,36.1600,84,91,347081
1.4516,0.3861,36.1600,84,91,347084
1.3930,0.3812,36.1900,84,91,347088
1.4027,0.4008,35.9500,84,91,347091
1.3978,0.3910,36.1000,84,91,347095
1.4467,0.3910,36.1300,84,91,347099
1.4663,0.3861,36.1900,84,91,347102
1.4321,0.3861,36.1900,84,91,347105
1.4125,0.3861,35.9800,84,91,347109
1.4174,0.3861,36.1300,84,91,347112
1.4272,0.3861,36.0400,84,91,347115
1.4663,0.3812,36.1900,84,91,347119
1.4809,0.3812,36.1900,84,91,347122
1.4761,0.3861,36.0700,84,91,347125
1.4125,0.3861,36.1900,84,91,347129
1.4272,0.3861,36.0100,84,91,347132
1.4516,0.3812,36.1300,84,91,347136
1.5103,0.3812,36.3400,84,91,347140
1.5249,0.3861,36.1300,84,91,347143
1.4809,0.3812,36.1900,84,91,347146
1.4663,0.4008,35.9000,84,91,347149
1.4418,0.3812,36.2500,84,91,347153
1.4956,0.3763,36.1900,84,91,347156
1.5591,0.3861,36.1300,84,91,347159
1.5689,0.3812,36.1900,84,91,347163
1.5738,0.3959,35.8700,84,91,347166
1.5103,0.3861,36.3100,84,91,347169
1.4956,0.3812,36.1300,84,91,347173
1.5591,0.3812,36.1900,84,91,347176
1.6080,0.3812,36.1900,84,91,347180
1.6422,0.3959,35.9500,84,91,347184
1.5885,0.3910,36.1300,84,91,347187
1.5543,0.3959,36.0400,84,91,347190
1.5640,0.3812,35.6900,84,91,347194
1.6276,0.3763,36.2200,84,91,347197
1.7058,0.3910,36.1300,84,91,347200
1.7155,0.3812,36.1600,84,91,347204
1.6764,0.3910,36.0100,84,91,347207
1.6618,0.3763,36.1600,84,91,347210
1.6667,0.3861,36.1600,84,91,347214
1.7351,0.3861,36.1300,84,91,347217
1.8133,0.3910,36.1600,84,91,347220
1.8084,0.3910,35.8700,84,91,347225
1.7449,0.3812,36.1900,84,91,347228
1.7449,0.3812,36.1900,84,91,347231
1.8084,0.3861,36.1300,84,91,347235
1.8622,0.3666,36.1900,84,91,347238
1.9501,0.3959,35.8400,84,91,347241
1.9306,0.3861,36.0400,84,91,347244
1.8524,0.3812,36.1600,84,91,347248
1.8475,0.3861,36.1600,84,91,347251
1.8768,0.3812,36.1900,84,91,347254
1.9892,0.3861,35.9800,84,91,347258
1.9941,0.3910,36.0700,84,91,347261
1.9501,0.3861,36.1000,84,91,347265
1.8964,0.3763,36.1900,84,91,347269
1.8866,0.3812,36.1900,84,91,347272
1.9892,0.4008,36.0400,84,91,347275
1.9892,0.3861,36.1600,84,91,347279
2.0332,0.3959,36.0400,84,91,347282
1.9795,0.3812,36.1600,84,91,347285
1.9453,0.3812,36.1900,84,91,347289
1.9404,0.3861,36.0100,84,91,347292
1.9892,0.3763,36.1900,84,91,347295
2.0674,0.3861,35.9500,84,91,347299
2.0577,0.3812,36.1600,84,91,347302
2.0235,0.3861,36.3100,84,91,347305
2.0039,0.3910,36.0700,84,91,347309
1.9941,0.3812,36.1900,84,91,347313
2.0919,0.3910,35.9000,84,91,347316
2.1114,0.3910,36.0700,84,91,347319
2.0919,0.3812,36.1900,84,91,347323
2.0723,0.3910,36.1000,84,91,347326
2.0137,0.3812,36.1900,84,91,347329
2.0919,0.3861,35.8400,84,91,347333
2.1261,0.3910,36.0400,84,91,347336
2.1945,0.3812,36.1300,84,91,347339
2.2239,0.3763,36.1600,84,91,347343
2.2141,0.3812,36.1900,84,91,347346
2.2581,0.4008,35.9000,84,91,347350
2.2287,0.3861,36.1600,84,91,347354
2.3021,0.3666,36.0400,84,91,347357
2.3118,0.3861,36.1900,84,91,347360
2.2825,0.3812,36.1900,84,91,347364
2.2336,0.3959,36.0700,84,91,347367
2.1896,0.3666,36.1600,84,91,347370
2.1701,0.3861,36.1000,84,91,347373
2.1848,0.3861,36.1600,84,91,347377
2.2092,0.3812,36.1600,84,91,347380
2.2141,0.3910,36.0700,84,91,347383
2.1163,0.3910,36.2200,84,91,347387
2.1017,0.3861,35.9800,84,91,347390
2.0968,0.3910,36.0700,84,91,347394
2.1359,0.3861,36.1600,84,91,347398
2.1994,0.3861,36.0400,84,91,347401
2.1554,0.3812,36.1900,84,91,347404
2.1505,0.3910,35.9000,84,91,347408
2.1017,0.3910,36.1000,84,91,347411
2.1212,0.3812,36.1900,84,91,347414
2.1994,0.3861,36.1600,84,91,347418
2.2043,0.3861,36.1300,84,91,347421
2.2287,0.3959,35.8700,84,91,347424
2.1212,0.3910,36.1300,84,91,347428
2.0968,0.3812,36.1300,84,91,347431
2.1408,0.3861,36.1600,84,91,347435
2.1994,0.3812,36.3400,84,91,347438
2.2678,0.4057,36.0400,84,91,347442
2.2092,0.3861,36.1000,84,91,347445
2.1750,0.3812,36.1600,84,91,347448
2.1457,0.3861,36.1600,84,91,347452
2.1652,0.3812,36.1900,84,91,347455
2.2581,0.3910,35.9800,84,91,347458
2.2923,0.3861,36.1600,84,91,347462
2.3558,0.3910,36.0100,84,91,347465
2.3998,0.3812,36.1600,84,91,347468
2.4731,0.3861,35.8400,84,91,347472
2.5611,0.3910,36.0400,84,91,347475
2.5562,0.3910,36.1600,84,91,347479
2.5024,0.3910,35.9800,84,91,347483
2.2874,0.3910,36.1000,84,91,347486
2.0772,0.3812,36.1900,84,91,347489
1.9648,0.3861,36.0700,84,91,347493
1.9941,0.3666,36.1600,84,91,347496
2.1848,0.3959,35.9000,84,91,347499
2.2581,0.3812,36.1600,84,91,347502
2.3216,0.3959,36.1900,84,91,347506
2.3607,0.3861,36.1600,84,91,347509
2.4096,0.3763,36.1900,84,91,347512
2.5367,0.4057,35.9000,84,91,347516
2.5415,0.3910,36.1300,84,91,347520
2.4976,0.3812,36.1600,84,91,347523
2.4487,0.3861,36.1600,84,91,347527
2.3998,0.3861,36.1600,84,91,347530
2.4536,0.3959,35.9800,84,91,347533
2.4780,0.3959,36.1300,84,91,347537
2.5171,0.3910,36.0400,84,91,347540
2.4682,0.3812,36.1900,84,91,347543
2.4194,0.3861,36.1600,84,91,347547
2.4096,0.4008,36.0700,84,91,347550
2.4145,0.3861,36.1900,84,91,347553
2.5122,0.3910,35.9500,84,91,347557
2.5318,0.3861,35.9200,84,91,347560
2.5415,0.3812,36.2500,84,91,347566
2.5806,0.3715,36.2200,84,91,347569
2.5806,0.3861,36.1600,84,91,347572
2.5318,0.3812,36.1900,84,91,347576
2.5806,0.4008,35.8700,84,91,347579
2.5758,0.3910,36.1000,84,91,347582
2.6149,0.3812,36.1600,84,91,347585
2.6442,0.3861,36.1600,84,91,347589
2.6002,0.3812,36.1600,84,91,347592
2.6100,0.3959,35.9800,84,91,347595
2.5562,0.4008,36.1600,84,91,347599
2.5904,0.3910,36.0400,84,91,347602
2.6295,0.3861,36.2200,84,91,347606
2.6393,0.3861,36.1900,84,91,347610
2.6344,0.3910,35.9000,84,91,347613
2.5562,0.3763,36.1300,84,91,347616
2.5855,0.3861,36.0100,84,91,347620
2.6100,0.3910,36.1600,84,91,347623
2.6735,0.3861,36.1900,84,91,347626
2.6979,0.3812,36.1300,84,91,347630
2.6540,0.3861,36.1900,84,91,347633
2.6491,0.3959,35.9800,84,91,347636
2.6246,0.3861,36.1600,84,91,347640
2.6833,0.3812,36.1900,84,91,347643
2.7566,0.3910,36.1300,84,91,347646
2.7468,0.3812,35.9000,84,91,347650
2.7615,0.4008,35.8700,84,91,347654
2.6931,0.3861,36.1600,84,91,347657
2.6735,0.3910,36.2200,84,91,347660
2.7517,0.3861,36.1000,84,91,347664
2.7908,0.3666,36.1900,84,91,347667
2.8592,0.4057,35.9500,84,91,347670
2.7664,0.3910,36.0400,84,91,347674
2.6979,0.3812,36.1600,84,91,347677
2.7273,0.3861,36.2200,84,91,347680
2.7615,0.3812,36.2800,84,91,347684
2.8495,0.3959,36.0100,84,91,347687
2.7908,0.3861,36.1300,84,91,347691
2.7517,0.3910,36.0400,84,91,347695
2.6882,0.3861,36.1900,84,91,347698
2.7077,0.3763,36.1900,84,91,347701
