ecg,gsr,temp,hr,spo2,timest
1.8622,0.0000,40.1000,66,97,286471
1.8182,0.0000,40.2600,66,97,286474
1.7986,0.0000,40.2000,66,97,286477
1.7889,0.0000,40.2000,66,97,286481
1.7742,0.0000,40.3300,66,97,286484
1.8280,0.0000,40.0300,66,97,286487
1.7937,0.0196,40.1300,66,97,286490
1.7840,0.0000,40.2000,66,97,286494
1.7791,0.0000,40.2000,66,97,286497
1.7693,0.0000,40.2600,66,97,286500
1.8231,0.0000,40.0300,66,97,286503
1.8084,0.0000,40.1600,66,97,286508
1.8231,0.0000,40.2000,66,97,286511
1.8133,0.0196,40.2000,66,97,286514
1.8084,0.0000,40.2300,66,97,286517
1.8622,0.0000,40.0600,66,97,286521
1.8133,0.0000,40.2300,66,97,286524
1.8133,0.0000,40.2000,66,97,286527
1.8231,0.0000,40.2300,66,97,286530
1.8133,0.0000,40.2300,66,97,286534
1.8328,0.0049,40.1000,66,97,286537
1.7937,0.0000,40.2000,66,97,286540
1.7937,0.0000,40.1600,66,97,286544
1.7937,0.0000,40.2300,66,97,286547
1.7937,0.0000,40.2000,66,97,286551
1.8475,0.0000,40.0600,66,97,286554
1.8035,0.0000,40.2300,66,97,286558
1.7937,0.0000,40.2300,66,97,286561
1.7546,0.0000,40.2600,66,97,286564
1.7449,0.0000,40.2000,66,97,286567
1.8035,0.0000,40.1000,66,97,286571
1.7742,0.0000,40.2600,66,97,286574
1.7889,0.0000,40.4000,66,97,286577
1.7937,0.0000,40.2000,66,97,286580
1.7693,0.0000,40.2300,66,97,286584
1.8182,0.0000,40.0600,66,97,286587
1.7840,0.0000,40.2000,66,97,286590
1.7791,0.0000,40.3000,66,97,286594
1.7840,0.0000,40.2000,66,97,286598
1.7791,0.0000,40.2300,66,97,286601
1.8231,0.0000,40.0300,66,97,286604
1.7840,0.0049,40.2000,66,97,286607
1.7791,0.0000,40.1600,66,97,286611
1.7693,0.0000,40.2300,66,97,286614
1.7742,0.0000,40.2600,66,97,286617
1.8280,0.0000,40.1600,66,97,286620
1.7644,0.0000,40.2000,66,97,286624
1.7889,0.0000,40.1600,66,97,286627
1.7595,0.0098,40.2000,66,97,286630
1.7791,0.0000,40.3300,66,97,286633
1.8768,0.0000,40.1000,66,97,286638
1.8524,0.0000,40.2300,66,97,286641
1.8768,0.0000,40.1600,66,97,286644
1.8768,0.0000,40.3000,66,97,286647
1.8671,0.0000,40.2000,66,97,286651
1.8866,0.0000,40.0000,66,97,286654
1.8328,0.0000,40.3000,66,97,286657
1.8182,0.0000,40.2000,66,97,286660
1.7986,0.0000,40.2300,66,97,286664
1.7840,0.0000,40.2300,66,97,286667
1.8280,0.0000,40.1600,66,97,286670
1.7840,0.0000,40.3000,66,97,286673
1.8035,0.0000,40.1600,66,97,286678
1.8182,0.0000,40.1300,66,97,286681
1.8280,0.0000,40.2000,66,97,286684
1.8964,0.0000,40.1600,66,97,286687
1.8817,0.0000,40.2600,66,97,286691
1.8768,0.0000,40.0300,66,97,286694
1.8768,0.0000,40.1600,66,97,286697
1.8622,0.0000,40.3000,66,97,286700
1.9159,0.0000,40.0600,66,97,286704
1.8866,0.0000,40.1600,66,97,286707
1.8817,0.0000,40.2600,66,97,286710
1.8671,0.0000,39.6000,66,97,286713
1.8426,0.0000,40.2300,66,97,286717
1.8866,0.0000,40.1000,66,97,286721
1.8231,0.0000,40.2300,66,97,286724
1.8231,0.0000,40.1600,66,97,286727
1.8328,0.0000,40.2300,66,97,286731
1.8475,0.0000,40.2600,66,97,286734
1.9110,0.0000,40.1000,66,97,286737
1.8915,0.0000,40.3300,66,97,286740
1.8768,0.0000,40.1600,66,97,286744
1.8817,0.0000,40.2000,66,97,286747
1.8768,0.0000,40.3300,66,97,286750
1.9355,0.0000,40.0300,66,97,286753
1.8964,0.0000,40.2300,66,97,286757
1.8768,0.0000,40.2000,66,97,286760
1.8719,0.0000,40.3000,66,97,286764
1.8719,0.0000,40.1300,66,97,286767
1.9306,0.0000,40.0600,66,97,286771
1.9013,0.0000,40.2600,66,97,286774
1.8915,0.0147,40.2000,66,97,286777
1.9062,0.0000,40.2300,66,97,286780
1.9159,0.0000,40.2300,66,97,286784
1.9501,0.0049,40.1000,66,97,286787
1.9208,0.0000,40.2600,66,97,286790
1.9355,0.0000,39.7300,66,97,286793
1.9453,0.0000,40.2600,66,97,286797
1.9599,0.0000,40.2300,66,97,286800
2.0283,0.0000,40.1000,66,97,286803
1.9990,0.0000,40.2300,66,97,286808
1.9941,0.0000,40.1600,66,97,286811
1.9941,0.0000,40.2300,66,97,286814
2.0283,0.0000,40.2000,66,97,286817
2.0479,0.0000,40.1000,66,97,286820
1.9795,0.0000,40.2000,66,97,286824
1.9648,0.0000,40.3000,66,97,286827
1.9648,0.0000,40.3000,66,97,286830
1.9599,0.0000,40.3300,66,97,286833
2.0039,0.0000,40.0600,66,97,286837
1.9355,0.0000,40.2000,66,97,286840
1.9013,0.0000,40.2600,66,97,286843
1.8915,0.0000,40.2000,66,97,286846
1.8671,0.0000,40.2300,66,97,286851
1.9306,0.0000,40.1300,66,97,286854
1.9110,0.0000,40.1000,66,97,286857
1.8866,0.0000,40.1600,66,97,286860
1.8964,0.0000,40.2300,66,97,286864
1.8768,0.0000,40.1600,66,97,286867
1.9306,0.0000,40.0600,66,97,286870
1.8768,0.0000,40.2300,66,97,286873
1.8768,0.0000,40.2000,66,97,286877
1.8524,0.0049,40.2000,66,97,286880
1.8426,0.0000,40.2300,66,97,286883
1.8768,0.0342,40.0000,66,97,286886
1.8622,0.0000,40.2000,66,97,286891
1.8377,0.0000,40.3000,66,97,286894
1.8475,0.0049,40.1600,66,97,286897
1.8524,0.0000,40.2300,66,97,286901
1.9208,0.0049,40.1000,66,97,286904
1.8915,0.0000,40.2000,66,97,286907
1.8817,0.0000,40.1600,66,97,286910
1.8817,0.0000,40.2000,66,97,286914
1.8817,0.0000,40.3300,66,97,286917
1.9110,0.0000,40.1000,66,97,286920
1.8426,0.0000,40.2000,66,97,286923
1.8182,0.0000,40.3000,66,97,286927
1.7889,0.0000,40.3000,66,97,286930
1.7498,0.0000,40.2300,66,97,286934
1.7595,0.0244,40.1000,66,97,286937
1.7449,0.0000,40.2300,66,97,286941
1.8377,0.0000,40.1600,66,97,286944
1.9941,0.0000,40.2000,66,97,286947
2.1799,0.0000,40.2300,66,97,286950
2.4633,0.0000,40.0300,66,97,286954
2.6100,0.0000,40.2600,66,97,286957
2.7419,0.0000,40.2000,66,97,286960
2.8250,0.0000,40.2600,66,97,286963
2.8495,0.0000,40.2300,66,97,286967
2.9130,0.0000,40.1000,66,97,286970
2.8055,0.0000,40.2600,66,97,286973
2.7322,0.0000,40.2600,66,97,286977
2.6344,0.0000,40.3000,66,97,286981
1.8573,0.0000,40.4000,66,97,286984
1.7595,0.0000,40.3300,66,97,286988
1.7400,0.0000,40.1000,66,97,286991
1.6276,0.0000,40.2300,66,97,286994
1.5982,0.0000,40.2300,66,97,286997
1.5591,0.0000,40.2600,66,97,287001
1.5689,0.0000,40.2300,66,97,287004
1.5543,0.0000,40.1000,66,97,287007
1.5200,0.0000,40.2600,66,97,287010
1.5494,0.0000,40.1000,66,97,287014
1.5347,0.0000,40.3000,66,97,287017
1.5396,0.0000,40.3000,66,97,287021
1.5689,0.0000,40.1600,66,97,287024
1.5738,0.0000,39.6400,66,97,287028
1.6080,0.0000,40.1300,66,97,287031
1.6031,0.0000,40.2300,66,97,287034
1.6178,0.0196,40.2000,66,97,287037
1.6618,0.0000,40.0600,66,97,287041
1.6373,0.0000,40.2300,66,97,287044
1.6569,0.0244,40.2300,66,97,287047
1.6471,0.0000,40.2600,66,97,287050
1.6471,0.0000,40.2300,66,97,287054
1.6862,0.0147,40.1000,66,97,287057
1.6716,0.0000,40.2300,66,97,287060
1.7009,0.0000,40.0600,66,97,287064
1.6716,0.0000,40.3300,66,97,287068
1.6764,0.0000,40.2300,66,97,287071
1.7058,0.0000,40.3000,66,97,287074
1.7009,0.0000,40.2600,66,97,287077
1.7351,0.0000,40.1000,66,97,287081
1.6960,0.0000,40.2000,66,97,287084
1.7009,0.0000,40.3000,66,97,287087
1.7498,0.0000,40.1600,66,97,287090
1.7302,0.0000,40.2300,66,97,287094
1.7840,0.0000,40.1000,66,97,287097
1.7351,0.0000,40.2300,66,97,287100
1.7302,0.0000,40.1300,66,97,287104
1.7449,0.0000,40.1000,66,97,287108
1.7107,0.0000,40.2600,66,97,287111
1.7449,0.0000,40.0600,66,97,287114
1.7449,0.0000,40.2600,66,97,287117
1.7546,0.0000,40.4000,66,97,287121
1.7889,0.0000,40.1600,66,97,287124
1.7644,0.0000,40.3000,66,97,287127
1.7791,0.0000,40.1600,66,97,287130
1.7644,0.0000,40.2000,66,97,287134
1.7742,0.0000,40.3000,66,97,287137
1.8133,0.0000,40.1000,66,97,287140
1.7937,0.0000,40.2300,66,97,287143
1.8133,0.0000,40.1600,66,97,287148
1.7986,0.0000,40.2300,66,97,287151
1.7986,0.0000,40.2300,66,97,287154
1.8182,0.0000,40.1000,66,97,287157
1.7889,0.0000,40.4000,66,97,287161
1.8133,0.0000,40.1300,66,97,287164
1.7937,0.0000,40.3000,66,97,287167
1.7889,0.0000,40.2600,66,97,287170
1.7986,0.0000,40.2000,66,97,287174
1.7742,0.0000,40.2300,66,97,287177
1.8133,0.0000,40.1000,66,97,287180
1.8182,0.0000,40.3000,66,97,287183
1.7889,0.0244,40.2300,66,97,287187
1.8280,0.0000,40.1000,66,97,287191
1.7986,0.0000,40.2300,66,97,287194
1.8280,0.0000,40.1300,66,97,287197
1.8084,0.0000,40.2600,66,97,287201
1.8280,0.0000,40.3000,66,97,287204
1.8377,0.0000,40.1000,66,97,287207
1.8133,0.0000,40.0300,66,97,287210
1.8328,0.0000,40.1300,66,97,287214
1.8035,0.0000,40.2300,66,97,287217
1.8084,0.0000,40.3000,66,97,287220
1.8426,0.0000,40.2000,66,97,287223
1.8182,0.0000,40.2300,66,97,287227
1.8328,0.0000,40.2300,66,97,287230
1.8182,0.0000,40.2600,66,97,287234
1.8231,0.0000,40.3300,66,97,287237
1.8671,0.0000,40.0600,66,97,287241
1.8377,0.0000,40.2000,66,97,287244
1.8524,0.0000,40.1300,66,97,287247
1.8377,0.0098,40.2600,66,97,287250
1.8377,0.0000,40.2300,66,97,287254
1.8719,0.0000,40.1000,66,97,287257
1.8475,0.0000,40.3000,66,97,287260
1.8671,0.0000,40.1300,66,97,287264
1.8426,0.0000,40.2600,66,97,287267
1.8280,0.0000,40.3000,66,97,287270
1.8475,0.0000,40.2000,66,97,287273
1.8426,0.0000,40.2600,66,97,287278
1.8719,0.0000,40.2000,66,97,287281
1.8671,0.0000,40.2600,66,97,287284
1.8671,0.0196,40.3000,66,97,287287
1.9159,0.0000,40.1600,66,97,287291
1.8671,0.0000,40.2000,66,97,287294
1.8915,0.0000,40.1600,66,97,287297
1.8671,0.0000,40.1300,66,97,287300
1.8671,0.0000,40.2300,66,97,287304
1.9013,0.0000,40.1600,66,97,287307
1.8915,0.0000,40.2300,66,97,287310
1.8915,0.0000,40.1600,66,97,287313
1.8671,0.0000,40.2300,66,97,287318
1.8573,0.0000,40.2600,66,97,287321
1.8768,0.0000,40.1600,66,97,287324
1.8622,0.0000,40.2300,66,97,287327
1.8622,0.0000,40.1000,66,97,287331
1.8377,0.0000,40.2300,66,97,287334
1.8377,0.0000,40.2600,66,97,287337
1.8768,0.0000,40.1000,66,97,287340
1.8426,0.0000,40.2300,66,97,287344
1.8573,0.0000,40.1600,66,97,287347
1.8133,0.0000,40.2600,66,97,287350
1.8084,0.0000,39.7300,66,97,287353
1.8377,0.0000,40.1000,66,97,287357
1.8231,0.0000,40.3000,66,97,287361
1.8573,0.0000,40.2000,66,97,287364
1.8328,0.0000,40.2600,66,97,287367
1.8328,0.0000,40.2600,66,97,287371
1.8573,0.0000,40.1600,66,97,287374
1.8328,0.0000,40.2600,66,97,287377
1.8426,0.0147,40.1600,66,97,287380
1.8182,0.0000,40.2000,66,97,287384
1.8231,0.0000,40.2600,66,97,287387
1.8573,0.0000,40.0600,66,97,287390
1.8377,0.0000,40.2600,66,97,287393
1.8622,0.0000,40.1600,66,97,287397
1.8377,0.0000,40.2300,66,97,287400
1.8573,0.0000,40.3000,66,97,287404
1.8573,0.0147,40.1600,66,97,287407
1.8377,0.0000,40.2300,66,97,287411
1.8475,0.0049,40.1000,66,97,287414
1.8280,0.0000,40.2300,66,97,287417
1.8231,0.0147,40.2600,66,97,287421
1.8475,0.0000,40.2600,66,97,287424
1.8622,0.0000,40.2000,66,97,287427
1.8719,0.0000,40.1600,66,97,287430
1.8475,0.0000,40.2000,66,97,287434
1.8426,0.0000,40.3300,66,97,287437
1.8768,0.0000,40.1300,66,97,287440
1.8426,0.0000,40.2300,66,97,287443
1.8622,0.0147,40.1300,66,97,287448
1.8328,0.0000,40.1600,66,97,287451
1.8377,0.0000,40.2300,66,97,287454
1.8573,0.0147,40.1600,66,97,287457
1.8426,0.0000,40.3000,66,97,287461
1.8377,0.0098,40.1300,66,97,287464
1.7986,0.0000,40.2600,66,97,287467
1.7937,0.0000,40.2300,66,97,287471
1.8133,0.0000,40.2000,66,97,287474
1.8280,0.0000,40.3000,66,97,287477
1.8817,0.0000,40.1300,66,97,287480
1.8524,0.0000,40.2300,66,97,287484
1.8475,0.0000,40.2300,66,97,287488
1.8768,0.0000,40.1300,66,97,287491
1.8573,0.0000,40.2600,66,97,287494
1.8817,0.0000,40.1300,66,97,287498
1.8719,0.0000,40.2300,66,97,287501
1.8328,0.0000,40.2300,66,97,287504
1.8475,0.0000,40.1300,66,97,287507
1.8231,0.0000,40.3000,66,97,287511
1.8622,0.0000,40.1300,66,97,287514
1.8231,0.0000,40.3000,66,97,287517
1.8328,0.0000,40.3600,66,97,287520
1.8426,0.0000,40.1600,66,97,287524
1.8377,0.0000,40.2300,66,97,287527
1.8768,0.0000,40.1300,66,97,287531
1.8524,0.0000,40.3300,66,97,287534
1.8426,0.0000,40.2300,66,97,287538
1.8768,0.0000,40.3000,66,97,287541
1.8328,0.0000,40.2300,66,97,287544
1.8768,0.0000,40.1300,66,97,287547
1.8280,0.0000,40.1600,66,97,287551
1.8377,0.0000,40.3300,66,97,287554
1.8719,0.0000,40.2000,66,97,287557
1.8671,0.0000,40.2300,66,97,287560
1.8915,0.0000,40.1300,66,97,287564
1.8573,0.0000,40.2600,66,97,287567
1.8524,0.0000,40.2300,66,97,287570
1.8622,0.0000,40.2000,66,97,287574
1.8622,0.0000,40.3000,66,97,287578
1.8915,0.0147,40.1600,66,97,287581
1.8622,0.0000,40.2300,66,97,287584
1.8573,0.0000,40.2600,66,97,287587
1.8768,0.0000,40.1300,66,97,287591
1.8573,0.0000,40.2300,66,97,287594
1.8475,0.0000,40.3000,66,97,287598
1.8915,0.0000,39.9600,66,97,287601
1.8719,0.0000,40.1300,66,97,287604
1.8622,0.0000,40.2600,66,97,287607
1.8671,0.0000,40.2300,66,97,287611
1.8671,0.0000,40.2300,66,97,287614
1.8964,0.0000,40.0300,66,97,287618
1.8622,0.0000,40.2600,66,97,287621
1.8719,0.0000,40.2600,66,97,287625
1.9062,0.0000,40.2300,66,97,287628
1.8915,0.0000,40.2600,66,97,287631
1.9355,0.0000,40.0000,66,97,287634
1.9159,0.0000,40.1600,66,97,287638
1.9110,0.0000,40.2300,66,97,287641
1.9550,0.0000,40.2000,66,97,287644
1.9697,0.0000,40.2300,66,97,287647
2.0088,0.0000,40.0000,66,97,287651
1.9990,0.0000,40.1600,66,97,287654
1.9844,0.0000,40.3000,66,97,287657
1.9844,0.0049,40.1300,66,97,287661
1.9453,0.0000,40.2300,66,97,287665
1.9550,0.0244,40.1000,66,97,287668
1.8817,0.0000,40.3000,66,97,287671
1.8622,0.0000,40.3600,66,97,287674
1.8671,0.0000,40.1600,66,97,287678
1.8377,0.0000,40.2600,66,97,287681
1.8671,0.0000,40.0000,66,97,287684
1.8328,0.0000,40.1600,66,97,287687
1.8035,0.0000,40.2000,66,97,287691
1.8280,0.0000,40.2000,66,97,287694
1.8035,0.0000,40.2300,66,97,287697
1.8377,0.0000,40.0300,66,97,287700
1.8084,0.0000,40.2000,66,97,287705
1.7791,0.0000,40.2300,66,97,287708
1.7693,0.0000,40.3000,66,97,287711
1.7449,0.0000,40.2300,66,97,287714
1.7791,0.0000,40.0600,66,97,287718
1.7449,0.0000,40.3000,66,97,287721
1.7595,0.0000,40.1600,66,97,287724
1.7840,0.0000,40.1600,66,97,287727
1.7693,0.0000,40.2000,66,97,287731
1.7986,0.0000,40.0300,66,97,287734
1.7693,0.0000,40.1300,66,97,287737
1.7400,0.0000,40.2300,66,97,287740
1.7595,0.0000,40.1600,66,97,287745
1.7498,0.0000,40.2300,66,97,287748
1.8084,0.0000,40.0300,66,97,287751
1.7986,0.0000,40.1600,66,97,287754
1.7889,0.0000,40.2300,66,97,287758
1.7986,0.0000,40.2000,66,97,287761
1.7889,0.0000,40.2300,66,97,287764
1.8084,0.0000,40.0600,66,97,287767
1.7498,0.0000,40.2000,66,97,287771
1.7107,0.0000,40.2600,66,97,287774
1.6813,0.0000,40.1600,66,97,287777
1.6129,0.0000,40.2300,66,97,287780
1.6325,0.0000,40.0000,66,97,287784
1.6764,0.0049,40.1300,66,97,287788
1.7791,0.0000,40.2600,66,97,287791
1.9892,0.0000,40.1300,66,97,287794
2.1554,0.0000,40.3300,66,97,287798
2.4145,0.0000,40.1000,66,97,287801
2.5562,0.0000,40.1600,66,97,287804
2.6540,0.0000,40.3000,66,97,287807
2.7419,0.0000,40.0600,66,97,287811
2.7615,0.0000,40.2300,66,97,287814
2.7957,0.0000,40.0300,66,97,287817
2.7077,0.0000,40.2000,66,97,287820
2.6491,0.0000,40.3300,66,97,287824
2.5758,0.0000,40.1600,66,97,287827
2.4145,0.0000,40.3300,66,97,287831
2.2727,0.0000,40.1600,66,97,287834
2.0821,0.0000,40.2000,66,97,287838
1.9159,0.0000,40.4000,66,97,287841
1.8182,0.0000,40.1000,66,97,287844
1.7058,0.0000,40.3000,66,97,287847
1.6618,0.0000,40.0300,66,97,287851
1.5934,0.0000,40.2000,66,97,287854
1.5445,0.0147,40.3000,66,97,287857
1.5298,0.0000,40.2300,66,97,287860
1.5054,0.0000,40.2300,66,97,287864
1.5298,0.0000,40.1300,66,97,287867
1.5005,0.0000,40.2000,66,97,287870
1.5054,0.0000,40.3600,66,97,287874
1.5249,0.0000,40.3600,66,97,287878
1.5103,0.0000,40.1000,66,97,287881
1.5298,0.0000,40.1300,66,97,287884
1.5298,0.0000,40.1600,66,97,287887
1.5298,0.0000,40.2600,66,97,287891
1.5591,0.0000,40.1300,66,97,287894
1.5445,0.0000,40.3600,66,97,287897
1.5738,0.0000,40.1000,66,97,287900
1.5689,0.0000,40.1600,66,97,287904
1.5787,0.0000,40.2300,66,97,287907
1.5982,0.0000,40.0600,66,97,287910
1.5982,0.0000,40.2300,66,97,287913
1.6276,0.0000,40.0600,66,97,287918
1.6080,0.0000,40.3600,66,97,287921
1.6129,0.0000,40.2300,66,97,287924
1.6520,0.0000,40.2300,66,97,287927
1.6667,0.0000,40.2300,66,97,287931
1.6618,0.0000,40.0600,66,97,287934
1.6569,0.0000,39.5400,66,97,287937
1.6520,0.0000,40.3300,66,97,287940
1.6813,0.0000,40.1300,66,97,287944
1.6618,0.0000,40.3000,66,97,287947
1.6960,0.0000,40.1300,66,97,287950
1.6667,0.0000,40.1600,66,97,287953
1.7058,0.0000,40.2600,66,97,287958
1.6813,0.0196,40.2000,66,97,287961
1.6716,0.0000,40.2300,66,97,287964
1.7009,0.0098,40.1000,66,97,287967
1.7107,0.0000,40.2300,66,97,287971
1.6862,0.0000,40.3000,66,97,287974
1.7107,0.0049,40.2000,66,97,287977
1.6911,0.0000,40.2300,66,97,287981
1.7204,0.0098,40.1300,66,97,287984
1.7155,0.0000,40.2300,66,97,287987
1.7009,0.0000,40.3000,66,97,287990
1.7155,0.0000,40.1300,66,97,287994
1.6911,0.0000,40.2300,66,97,287997
1.7204,0.0000,40.0600,66,97,288001
1.7107,0.0000,40.2300,66,97,288004
1.7009,0.0000,40.4700,66,97,288008
1.7107,0.0000,40.1600,66,97,288011
1.7009,0.0000,40.2300,66,97,288014
1.7449,0.0000,40.0600,66,97,288017
1.7155,0.0000,40.4000,66,97,288021
1.7253,0.0000,40.2300,66,97,288024
1.7449,0.0000,40.2300,66,97,288027
1.7498,0.0000,40.3000,66,97,288030
1.7546,0.0000,40.1600,66,97,288034
1.7351,0.0000,40.2300,66,97,288037
1.7058,0.0000,40.3300,66,97,288040
1.7302,0.0000,40.2000,66,97,288044
1.7107,0.0000,40.2000,66,97,288048
1.7449,0.0000,40.0600,66,97,288051
1.7400,0.0000,40.1600,66,97,288054
1.7302,0.0000,40.2300,66,97,288057
1.7498,0.0000,40.3000,66,97,288061
1.7449,0.0000,40.2300,66,97,288064
1.7742,0.0000,40.1000,66,97,288067
1.7351,0.0000,40.3600,66,97,288070
1.7351,0.0000,40.1000,66,97,288074
1.7595,0.0000,40.1300,66,97,288077
1.7302,0.0000,40.2300,66,97,288080
1.7498,0.0000,40.1000,66,97,288083
1.7302,0.0000,40.1300,66,97,288088
1.7253,0.0000,40.2600,66,97,288091
1.7498,0.0000,40.0300,66,97,288094
1.7351,0.0000,40.2300,66,97,288097
1.7644,0.0000,40.0600,66,97,288101
1.7302,0.0049,40.2300,66,97,288104
1.7204,0.0000,40.2300,66,97,288107
1.7155,0.0342,40.1600,66,97,288110
1.7009,0.0000,40.2300,66,97,288114
1.7253,0.0049,40.0600,66,97,288117
1.7155,0.0000,40.3300,66,97,288120
1.7400,0.0000,40.2300,66,97,288123
1.7840,0.0196,40.2000,66,97,288128
1.7889,0.0000,40.2600,66,97,288131
1.8328,0.0000,40.1000,66,97,288134
1.8231,0.0000,40.2000,66,97,288138
1.8084,0.0000,40.2300,66,97,288141
1.8377,0.0000,40.1300,66,97,288144
1.8133,0.0098,40.3000,66,97,288147
1.8671,0.0000,40.0000,66,97,288151
1.8231,0.0000,40.1300,66,97,288154
1.8035,0.0000,40.3300,66,97,288157
1.8133,0.0000,40.2000,66,97,288160
1.8084,0.0000,40.2300,66,97,288164
1.8328,0.0000,40.2000,66,97,288167
1.8035,0.0000,40.2300,66,97,288171
1.7986,0.0000,40.2300,66,97,288174
1.8426,0.0000,40.2000,66,97,288178
1.7840,0.0000,40.2300,66,97,288181
1.8182,0.0000,40.0600,66,97,288184
1.8035,0.0000,40.1300,66,97,288187
1.7791,0.0049,40.2000,66,97,288191
1.8035,0.0000,40.1300,66,97,288194
1.7791,0.0000,40.2300,66,97,288197
1.8133,0.0000,40.2000,66,97,288200
1.8280,0.0000,40.0300,66,97,288204
1.7791,0.0000,40.2000,66,97,288207
1.7644,0.0000,40.3000,66,97,288210
1.7693,0.0000,40.2000,66,97,288215
1.7595,0.0000,40.2300,66,97,288218
1.8084,0.0000,40.0000,66,97,288221
1.7840,0.0000,40.1000,66,97,288224
1.7546,0.0000,40.2600,66,97,288228
1.7644,0.0147,40.2000,66,97,288231
1.7546,0.0000,40.2600,66,97,288234
1.8035,0.0000,39.3500,66,97,288237
1.7693,0.0000,40.2000,66,97,288241
1.7400,0.0000,40.2300,66,97,288244
1.7302,0.0000,40.2000,66,97,288247
1.7204,0.0000,40.3300,66,97,288250
1.7693,0.0000,39.9600,66,97,288254
1.7302,0.0147,40.2600,66,97,288258
1.7449,0.0000,40.2600,66,97,288261
1.7351,0.0000,40.2000,66,97,288264
1.7107,0.0000,40.2000,66,97,288268
1.7595,0.0000,39.9600,66,97,288271
1.7449,0.0000,40.1000,66,97,288274
1.7107,0.0000,40.2600,66,97,288277
1.7155,0.0000,40.2000,66,97,288281
1.6960,0.0000,40.2300,66,97,288284
1.7595,0.0000,39.9600,66,97,288287
1.7009,0.0000,40.1300,66,97,288290
1.6764,0.0000,40.2000,66,97,288294
1.6813,0.0000,40.2300,66,97,288297
1.6764,0.0000,40.3600,66,97,288301
1.7253,0.0000,40.0300,66,97,288304
1.6764,0.0000,40.2600,66,97,288308
1.6813,0.0000,40.2300,66,97,288311
1.6960,0.0000,40.2600,66,97,288314
1.6569,0.0000,40.3000,66,97,288317
1.6911,0.0000,40.0300,66,97,288321
1.6960,0.0000,40.2300,66,97,288324
1.6667,0.0000,40.2600,66,97,288327
1.6911,0.0000,40.2600,66,97,288330
1.6862,0.0000,40.2300,66,97,288334
1.7302,0.0000,40.0000,66,97,288337
1.7009,0.0000,40.1300,66,97,288340
1.6862,0.0000,40.4300,66,97,288344
1.7009,0.0000,40.2300,66,97,288348
1.6911,0.0098,40.2300,66,97,288351
1.7546,0.0000,39.9600,66,97,288354
1.7058,0.0000,40.2600,66,97,288357
1.6813,0.0000,40.2300,66,97,288361
1.6960,0.0000,40.2600,66,97,288364
1.6911,0.0000,40.2300,66,97,288367
1.7302,0.0000,39.9600,66,97,288370
1.7058,0.0000,40.1600,66,97,288374
1.6960,0.0000,40.2300,66,97,288377
1.7058,0.0000,40.2300,66,97,288380
1.6862,0.0147,40.3000,66,97,288384
1.7595,0.0000,40.0000,66,97,288388
1.6960,0.0000,40.2300,66,97,288391
1.6911,0.0000,40.2300,66,97,288394
1.7107,0.0000,40.2300,66,97,288397
1.7009,0.0000,40.2300,66,97,288401
1.7351,0.0000,40.0300,66,97,288404
1.6960,0.0196,40.1300,66,97,288407
1.6960,0.0000,40.2300,66,97,288411
1.7058,0.0098,40.2000,66,97,288414
1.6960,0.0000,40.2300,66,97,288417
1.7351,0.0000,40.0000,66,97,288420
1.7058,0.0000,40.1300,66,97,288424
1.6862,0.0000,40.2300,66,97,288428
1.7009,0.0000,40.3600,66,97,288431
1.6960,0.0000,40.1600,66,97,288434
1.7400,0.0000,40.0000,66,97,288438
1.7351,0.0000,40.1300,66,97,288441
1.7058,0.0000,40.3000,66,97,288444
1.7204,0.0000,40.2300,66,97,288447
1.7058,0.0000,40.2300,66,97,288451
1.7449,0.0000,40.0300,66,97,288454
1.7009,0.0000,40.2600,66,97,288457
1.6960,0.0000,40.3600,66,97,288460
1.7058,0.0000,40.3000,66,97,288464
1.7058,0.0000,40.3000,66,97,288467
1.7351,0.0000,40.0000,66,97,288471
1.7155,0.0000,40.1600,66,97,288474
1.7058,0.0000,40.2300,66,97,288478
1.7546,0.0000,40.1600,66,97,288481
1.7400,0.0000,40.3000,66,97,288484
1.7937,0.0000,40.0000,66,97,288487
1.7693,0.0000,40.1600,66,97,288491
1.7449,0.0000,40.2300,66,97,288494
1.7546,0.0000,40.4000,66,97,288497
1.7546,0.0000,40.2300,66,97,288500
1.8084,0.0000,40.0300,66,97,288503
1.7840,0.0000,40.2000,66,97,288507
1.8035,0.0000,40.2300,66,97,288510
1.8328,0.0000,40.2000,66,97,288514
1.8084,0.0000,40.2300,66,97,288517
1.8328,0.0000,40.0300,66,97,288521
1.7986,0.0000,40.1600,66,97,288524
1.7546,0.0147,40.2300,66,97,288527
1.7498,0.0000,40.1300,66,97,288531
1.7155,0.0000,40.2300,66,97,288534
1.7449,0.0000,40.0300,66,97,288537
1.7155,0.0000,40.1600,66,97,288540
1.7058,0.0000,39.8600,66,97,288544
1.7107,0.0000,40.2000,66,97,288547
1.6911,0.0147,40.2000,66,97,288550
1.7204,0.0000,40.1000,66,97,288553
1.6862,0.0098,40.2300,66,97,288558
1.7155,0.0000,40.3000,66,97,288561
1.7058,0.0000,40.2600,66,97,288564
1.6716,0.0000,40.3000,66,97,288567
1.7009,0.0000,40.0300,66,97,288571
1.6618,0.0000,40.1300,66,97,288574
1.6422,0.0000,40.3000,66,97,288577
1.6569,0.0000,40.1000,66,97,288580
1.6422,0.0000,40.2300,66,97,288584
1.6764,0.0000,40.0000,66,97,288587
1.6471,0.0098,40.1600,66,97,288590
1.6325,0.0000,40.2300,66,97,288593
1.6373,0.0000,40.2000,66,97,288598
1.6276,0.0000,40.2300,66,97,288601
1.6667,0.0000,40.1000,66,97,288604
1.6422,0.0000,40.2300,66,97,288607
1.6569,0.0000,40.3000,66,97,288611
1.6764,0.0000,40.2600,66,97,288614
1.6667,0.0000,40.2600,66,97,288617
1.7155,0.0000,40.0000,66,97,288620
1.6911,0.0000,40.2000,66,97,288624
1.6667,0.0000,40.3300,66,97,288627
1.6520,0.0000,40.2000,66,97,288630
1.5885,0.0000,40.2600,66,97,288633
1.5689,0.0000,40.0000,66,97,288637
1.5152,0.0000,40.1600,66,97,288641
1.5347,0.0000,40.2600,66,97,288644
1.6422,0.0000,40.2000,66,97,288647
1.8280,0.0000,40.3300,66,97,288651
2.0674,0.0000,40.0300,66,97,288654
2.2581,0.0000,40.2000,66,97,288657
2.4536,0.0000,40.2300,66,97,288660
2.6197,0.0000,40.2000,66,97,288664
2.6540,0.0000,40.3600,66,97,288667
2.7517,0.0000,40.1000,66,97,288670
2.7517,0.0000,40.2300,66,97,288673
2.6735,0.0244,40.3300,66,97,288677
2.6588,0.0000,40.1600,66,97,288680
2.5415,0.0000,40.2000,66,97,288684
2.4682,0.0000,40.0600,66,97,288687
2.2581,0.0000,40.1600,66,97,288691
2.0674,0.0000,40.2300,66,97,288694
1.9208,0.0000,40.2000,66,97,288697
1.7791,0.0000,40.2300,66,97,288700
1.7155,0.0000,40.1000,66,97,288704
1.5982,0.0000,40.2300,66,97,288707
1.5591,0.0000,40.2300,66,97,288710
1.5054,0.0000,40.2300,66,97,288713
1.4565,0.0000,40.2600,66,97,288717
1.4614,0.0000,39.9300,66,97,288720
1.4418,0.0000,40.1600,66,97,288723
1.4516,0.0000,40.2300,66,97,288727
1.4712,0.0000,40.2300,66,97,288731
1.4516,0.0147,40.2300,66,97,288734
1.4956,0.0000,40.0300,66,97,288737
1.4858,0.0000,40.1300,66,97,288740
1.4712,0.0147,40.2300,66,97,288744
1.4761,0.0000,40.2300,66,97,288747
1.4663,0.0000,40.2600,66,97,288750
1.5054,0.0000,40.0600,66,97,288754
1.4809,0.0000,40.3000,66,97,288757
1.4858,0.0000,40.3000,66,97,288760
1.5005,0.0000,40.3000,66,97,288763
1.5005,0.0000,40.2300,66,97,288768
1.5494,0.0000,40.1000,66,97,288771
1.5396,0.0000,40.2300,66,97,288774
1.5347,0.0000,40.2600,66,97,288777
1.5494,0.0000,40.2000,66,97,288781
1.5298,0.0000,40.3300,66,97,288784
1.5738,0.0000,40.0000,66,97,288787
1.5543,0.0196,40.1600,66,97,288790
1.5640,0.0000,40.3000,66,97,288794
1.5787,0.0000,40.2300,66,97,288797
1.5787,0.0000,40.2000,66,97,288800
1.6227,0.0000,40.1000,66,97,288803
1.5885,0.0000,40.2300,66,97,288807
1.6031,0.0000,40.2000,66,97,288811
1.6227,0.0000,40.2600,66,97,288814
1.6422,0.0000,40.2300,66,97,288818
1.6471,0.0000,40.2300,66,97,288821
1.7009,0.0049,40.0600,66,97,288824
1.6618,0.0000,40.1600,66,97,288828
1.6422,0.0000,40.3000,66,97,288831
1.6373,0.0000,40.3600,66,97,288834
1.6373,0.0000,40.2600,66,97,288837
1.6862,0.0000,40.0600,66,97,288841
1.6471,0.0000,40.2600,66,97,288844
1.6471,0.0000,40.2000,66,97,288847
1.6373,0.0000,40.3300,66,97,288850
1.6178,0.0000,40.2600,66,97,288855
1.6618,0.0000,40.1600,66,97,288858
1.6569,0.0000,40.2000,66,97,288861
1.6569,0.0000,40.2600,66,97,288864
1.6764,0.0000,40.2300,66,97,288868
1.6813,0.0000,40.2300,66,97,288871
1.7204,0.0000,40.1600,66,97,288874
1.6813,0.0049,40.2000,66,97,288877
1.6667,0.0000,40.2300,66,97,288881
1.6716,0.0000,40.2000,66,97,288884
1.6813,0.0000,40.2300,66,97,288887
1.7400,0.0000,40.0600,66,97,288890
1.6960,0.0000,40.2000,66,97,288894
1.6862,0.0000,40.2000,66,97,288898
1.7058,0.0000,40.2300,66,97,288901
1.6716,0.0147,40.2300,66,97,288904
1.7107,0.0000,40.1000,66,97,288908
1.6667,0.0196,40.2300,66,97,288911
1.6667,0.0000,40.1600,66,97,288914
1.6569,0.0000,40.2000,66,97,288917
1.6520,0.0000,40.3600,66,97,288921
1.7009,0.0000,40.1000,66,97,288924
1.6667,0.0000,40.1600,66,97,288927
1.6520,0.0000,40.2300,66,97,288930
1.6520,0.0000,40.2000,66,97,288934
1.6422,0.0000,40.3000,66,97,288937
1.7009,0.0000,40.0600,66,97,288941
1.6618,0.0000,40.3000,66,97,288944
1.6618,0.0000,40.2000,66,97,288948
1.6667,0.0000,40.2000,66,97,288951
1.6716,0.0000,40.2300,66,97,288954
1.7107,0.0000,40.0600,66,97,288957
1.6716,0.0000,40.2300,66,97,288961
1.6667,0.0000,40.2300,66,97,288964
1.6813,0.0000,40.2300,66,97,288967
1.6911,0.0000,40.2300,66,97,288970
1.7595,0.0342,40.1300,66,97,288974
1.7351,0.0000,40.2000,66,97,288977
1.7253,0.0000,40.2000,66,97,288980
1.7302,0.0000,40.2000,66,97,288984
1.7400,0.0000,40.2300,66,97,288988
1.7937,0.0000,40.1000,66,97,288991
1.7546,0.0000,40.2000,66,97,288994
1.7449,0.0000,40.2000,66,97,288997
1.7498,0.0000,40.2300,66,97,289001
1.7498,0.0000,40.2300,66,97,289004
1.8231,0.0000,40.1300,66,97,289007
1.7791,0.0000,40.2300,66,97,289010
1.7693,0.0000,40.3000,66,97,289014
1.7693,0.0000,40.3600,66,97,289017
1.7986,0.0000,40.3000,66,97,289020
1.8231,0.0000,40.1300,66,97,289024
1.7889,0.0000,40.1600,66,97,289028
1.7644,0.0000,40.1300,66,97,289031
1.7546,0.0000,40.2300,66,97,289034
1.7742,0.0000,40.2300,66,97,289037
1.7840,0.0000,40.1300,66,97,289041
1.7155,0.0000,40.1600,66,97,289044
1.7253,0.0000,40.2000,66,97,289047
1.7449,0.0000,40.3000,66,97,289050
1.7302,0.0000,40.2300,66,97,289054
1.7791,0.0000,39.9600,66,97,289057
1.7498,0.0000,40.2600,66,97,289060
1.7400,0.0000,40.2300,66,97,289063
1.7351,0.0000,40.2300,66,97,289068
1.7302,0.0098,40.2300,66,97,289071
1.7986,0.0000,40.1300,66,97,289074
1.7546,0.0000,40.2300,66,97,289077
1.7400,0.0000,40.2000,66,97,289081
1.7400,0.0000,40.2300,66,97,289084
1.7302,0.0000,40.3000,66,97,289087
1.7742,0.0000,40.0600,66,97,289090
1.7253,0.0000,40.2000,66,97,289094
1.7204,0.0000,40.3000,66,97,289097
1.7155,0.0000,39.6700,66,97,289100
1.7107,0.0000,40.1000,66,97,289103
1.7595,0.0000,40.0300,66,97,289107
1.7253,0.0000,40.1600,66,97,289111
1.7009,0.0000,40.2000,66,97,289114
1.7009,0.0000,40.4300,66,97,289117
1.6911,0.0000,40.3000,66,97,289121
1.7351,0.0000,40.0000,66,97,289124
1.6960,0.0000,40.1300,66,97,289127
1.6764,0.0000,40.2000,66,97,289130
1.6862,0.0000,40.3300,66,97,289134
1.6764,0.0000,40.2600,66,97,289137
1.7253,0.0000,39.4800,66,97,289140
1.6764,0.0000,39.6400,66,97,289143
1.6667,0.0000,40.2300,66,97,289147
1.6813,0.0000,40.2000,66,97,289150
1.6520,0.0000,40.2300,66,97,289154
1.7058,0.0000,39.6400,66,97,289157
1.6862,0.0000,40.1600,66,97,289161
1.7058,0.0000,40.2300,66,97,289164
1.7351,0.0000,40.2300,66,97,289167
1.7009,0.0000,40.2300,66,97,289170
1.7546,0.0000,40.0300,66,97,289174
1.7253,0.0000,40.1600,66,97,289177
1.7009,0.0000,40.3000,66,97,289180
1.7058,0.0000,40.2000,66,97,289183
1.7009,0.0000,40.2300,66,97,289187
1.7449,0.0000,39.9600,66,97,289190
1.7009,0.0000,40.2000,66,97,289193
1.6960,0.0000,40.3300,66,97,289197
1.7155,0.0000,40.2300,66,97,289201
1.7058,0.0000,40.2300,66,97,289204
1.7449,0.0000,39.9600,66,97,289207
1.7155,0.0098,40.2000,66,97,289210
1.7009,0.0000,40.3000,66,97,289214
1.7107,0.0196,40.2000,66,97,289217
1.7009,0.0000,40.2600,66,97,289220
1.7449,0.0000,40.0300,66,97,289223
1.7107,0.0000,40.1600,66,97,289227
1.7302,0.0000,40.2000,66,97,289230
1.7009,0.0000,40.2000,66,97,289233
1.6960,0.0000,40.2300,66,97,289236
1.7546,0.0000,40.0000,66,97,289241
1.7253,0.0000,40.2300,66,97,289244
1.7253,0.0000,40.3000,66,97,289247
1.7400,0.0000,40.2300,66,97,289250
1.7253,0.0000,40.2300,66,97,289254
1.7791,0.0000,39.9600,66,97,289257
1.7400,0.0000,40.3000,66,97,289260
1.7253,0.0000,40.2600,66,97,289263
1.7351,0.0000,40.2000,66,97,289267
1.7351,0.0000,40.2300,66,97,289270
1.7889,0.0098,39.9600,66,97,289273
1.7644,0.0000,40.2000,66,97,289277
1.7449,0.0000,40.2000,66,97,289281
1.7498,0.0000,40.3300,66,97,289284
1.7449,0.0000,40.3000,66,97,289287
1.7889,0.0000,40.0300,66,97,289290
1.7351,0.0049,40.2000,66,97,289294
1.7204,0.0000,40.2300,66,97,289297
1.7253,0.0000,40.2000,66,97,289300
1.7155,0.0000,40.2300,66,97,289304
1.7693,0.0000,40.0000,66,97,289307
1.7351,0.0000,40.1600,66,97,289310
1.7204,0.0000,40.2000,66,97,289313
1.7302,0.0000,40.0600,66,97,289317
1.7204,0.0000,40.2300,66,97,289320
1.7644,0.0196,39.9600,66,97,289324
1.7302,0.0000,40.2000,66,97,289327
1.7204,0.0000,40.2300,66,97,289331
1.7155,0.0000,40.2300,66,97,289334
1.7155,0.0000,40.2600,66,97,289337
1.7595,0.0000,40.0000,66,97,289340
1.7107,0.0000,40.2000,66,97,289344
1.7058,0.0000,40.2000,66,97,289347
1.7155,0.0000,40.2300,66,97,289350
1.7107,0.0000,40.2300,66,97,289353
1.8035,0.0000,39.9600,66,97,289357
1.7546,0.0000,40.1600,66,97,289360
1.7546,0.0000,40.2600,66,97,289363
1.7742,0.0000,40.2000,66,97,289367
1.7693,0.0000,40.3000,66,97,289371
1.8280,0.0000,40.0300,66,97,289374
1.8084,0.0000,40.2000,66,97,289377
1.8035,0.0000,40.2600,66,97,289380
1.8035,0.0000,40.2300,66,97,289384
1.8035,0.0000,40.3600,66,97,289387
1.8622,0.0000,39.9600,66,97,289390
1.8182,0.0000,40.2000,66,97,289393
1.8328,0.0098,40.2600,66,97,289397
1.8573,0.0000,40.3000,66,97,289400
1.8866,0.0000,40.2300,66,97,289403
1.9208,0.0000,40.0300,66,97,289406
1.8817,0.0000,40.1600,66,97,289411
1.8475,0.0000,40.2600,66,97,289414
1.8182,0.0000,40.2300,66,97,289417
1.7840,0.0000,40.2600,66,97,289420
1.8182,0.0000,40.1300,66,97,289424
1.7986,0.0000,40.1600,66,97,289427
1.7693,0.0049,40.2300,66,97,289430
1.7791,0.0000,40.1300,66,97,289434
1.7693,0.0000,40.2300,66,97,289437
1.7595,0.0000,40.2300,66,97,289440
1.7791,0.0000,40.1600,66,97,289444
1.7302,0.0000,40.2300,66,97,289447
1.7155,0.0000,40.2000,66,97,289451
1.6960,0.0000,40.2300,66,97,289454
1.6862,0.0000,40.2000,66,97,289458
1.7155,0.0000,40.0600,66,97,289461
1.6813,0.0000,40.2300,66,97,289464
1.6716,0.0000,40.2000,66,97,289467
1.6667,0.0000,40.3000,66,97,289471
1.6667,0.0000,40.3300,66,97,289474
1.7155,0.0000,40.1000,66,97,289477
1.6911,0.0000,40.3000,66,97,289480
1.7009,0.0000,40.2600,66,97,289484
1.7058,0.0000,40.2600,66,97,289487
1.6960,0.0000,40.2300,66,97,289490
1.7351,0.0147,40.1600,66,97,289494
1.7107,0.0000,40.2300,66,97,289498
1.7155,0.0000,40.2000,66,97,289501
1.7204,0.0000,40.2600,66,97,289504
1.6911,0.0000,40.2000,66,97,289507
1.6960,0.0000,40.0600,66,97,289511
1.6471,0.0000,40.2300,66,97,289514
1.6031,0.0000,40.1600,66,97,289517
1.5787,0.0000,40.3300,66,97,289520
1.6178,0.0000,40.2300,66,97,289524
1.7644,0.0000,40.1600,66,97,289527
1.9013,0.0000,40.2300,66,97,289530
2.1163,0.0000,40.1000,66,97,289533
2.3265,0.0000,40.2300,66,97,289538
2.5171,0.0000,40.2300,66,97,289541
2.7028,0.0000,40.1600,66,97,289544
2.7517,0.0000,40.2300,66,97,289547
2.8152,0.0000,40.2000,66,97,289551
2.8006,0.0000,40.3300,66,97,289554
2.7615,0.0000,40.2600,66,97,289557
2.7615,0.0000,40.0600,66,97,289560
2.6295,0.0000,40.2600,66,97,289564
2.4878,0.0000,40.1600,66,97,289567
2.2825,0.0000,40.2300,66,97,289570
2.0626,0.0098,40.3000,66,97,289573
1.9110,0.0147,40.1000,66,97,289577
1.7302,0.0000,40.2300,66,97,289581
1.6325,0.0098,40.1600,66,97,289584
1.5543,0.0000,40.2300,66,97,289587
1.5005,0.0000,40.2600,66,97,289591
1.4761,0.0000,40.2000,66,97,289594
1.4125,0.0000,40.2600,66,97,289597
1.4125,0.0000,40.2300,66,97,289600
1.3783,0.0000,40.2300,66,97,289604
1.3587,0.0000,40.2300,66,97,289607
1.3832,0.0000,40.0600,66,97,289610
1.3734,0.0000,40.2000,66,97,289613
1.4027,0.0000,40.1300,66,97,289617
1.4223,0.0000,40.2300,66,97,289620
1.4467,0.0000,40.3300,66,97,289624
1.4956,0.0000,40.1600,66,97,289627
1.4663,0.0000,40.2300,66,97,289631
1.4809,0.0000,40.2300,66,97,289634
1.4761,0.0000,40.3000,66,97,289637
1.4761,0.0000,40.2300,66,97,289640
1.5200,0.0000,40.1300,66,97,289644
1.4956,0.0000,40.2300,66,97,289647
1.5152,0.0000,40.1600,66,97,289650
1.5152,0.0000,40.2600,66,97,289653
1.5249,0.0000,40.2300,66,97,289657
1.5787,0.0000,40.1000,66,97,289660
1.5543,0.0000,40.2000,66,97,289664
1.5591,0.0000,40.1600,66,97,289667
1.5494,0.0000,40.3300,66,97,289671
1.5591,0.0000,40.2300,66,97,289674
1.6080,0.0000,40.1000,66,97,289677
1.5787,0.0000,40.2600,66,97,289680
1.5836,0.0000,40.1600,66,97,289684
1.5836,0.0000,40.2000,66,97,289687
1.5836,0.0244,40.2300,66,97,289690
1.6325,0.0000,40.1300,66,97,289694
1.6031,0.0000,40.2300,66,97,289697
1.6178,0.0000,40.1600,66,97,289700
1.6178,0.0147,40.3000,66,97,289703
1.6227,0.0000,40.3000,66,97,289708
1.6667,0.0000,40.0000,66,97,289711
1.6422,0.0000,40.2300,66,97,289714
1.6471,0.0000,40.1600,66,97,289717
1.6325,0.0000,40.3000,66,97,289721
1.6422,0.0000,40.3300,66,97,289724
1.6960,0.0000,40.1000,66,97,289727
1.6813,0.0000,40.2000,66,97,289730
1.6960,0.0000,40.1600,66,97,289734
1.6862,0.0000,40.3000,66,97,289737
1.6716,0.0000,40.2600,66,97,289740
1.7009,0.0000,40.1000,66,97,289743
1.6862,0.0000,40.1300,66,97,289747
1.7009,0.0000,40.0300,66,97,289751
1.6911,0.0000,40.1600,66,97,289754
1.6764,0.0000,40.2600,66,97,289757
1.7107,0.0000,40.0600,66,97,289761
1.6911,0.0000,40.3300,66,97,289764
1.6960,0.0000,40.1600,66,97,289767
1.6862,0.0000,40.3300,66,97,289770
1.6862,0.0000,40.3300,66,97,289774
1.7204,0.0000,40.1000,66,97,289777
1.7107,0.0000,40.1600,66,97,289780
1.6862,0.0000,40.1600,66,97,289783
1.6960,0.0000,40.2300,66,97,289787
1.7155,0.0000,40.2600,66,97,289790
1.7742,0.0000,40.1000,66,97,289794
1.7498,0.0000,40.2000,66,97,289797
1.7595,0.0000,40.3000,66,97,289801
1.7498,0.0000,40.2600,66,97,289804
1.7302,0.0000,40.2300,66,97,289807
1.7889,0.0000,40.1300,66,97,289810
1.7107,0.0000,40.2300,66,97,289814
1.7107,0.0000,40.2000,66,97,289817
1.7107,0.0000,40.2600,66,97,289820
1.7204,0.0000,40.2300,66,97,289823
1.7742,0.0000,40.1000,66,97,289827
1.7546,0.0000,40.2300,66,97,289830
1.7595,0.0000,40.2000,66,97,289833
1.7595,0.0000,40.2300,66,97,289837
1.7498,0.0000,40.2300,66,97,289841
1.8133,0.0000,40.1600,66,97,289844
1.7449,0.0000,40.2000,66,97,289847
1.7351,0.0000,40.1600,66,97,289850
1.7449,0.0000,40.2600,66,97,289854
1.7546,0.0000,40.2300,66,97,289857
1.8280,0.0000,40.0300,66,97,289860
1.7693,0.0000,40.2300,66,97,289863
1.7644,0.0000,40.1600,66,97,289867
1.7546,0.0000,40.3000,66,97,289870
1.7498,0.0000,40.3000,66,97,289873
1.7986,0.0000,40.1000,66,97,289876
1.7546,0.0000,40.2000,66,97,289881
1.7498,0.0000,40.1300,66,97,289884
1.7449,0.0000,40.2300,66,97,289887
1.7498,0.0000,40.2600,66,97,289890
1.8035,0.0049,40.1000,66,97,289894
1.7840,0.0000,40.2000,66,97,289897
1.7889,0.0000,40.1600,66,97,289900
1.7986,0.0000,40.2600,66,97,289903
1.8035,0.0000,40.2300,66,97,289907
1.8524,0.0000,40.1000,66,97,289910
1.8328,0.0000,40.2600,66,97,289913
1.8182,0.0000,40.1600,66,97,289916
1.8035,0.0098,40.2300,66,97,289921
1.7889,0.0000,40.2300,66,97,289924
1.8133,0.0000,40.1600,66,97,289927
1.7644,0.0000,40.2300,66,97,289930
1.7595,0.0000,40.2000,66,97,289934
1.7449,0.0000,40.2300,66,97,289937
1.7400,0.0000,40.2600,66,97,289940
1.7889,0.0000,40.1000,66,97,289943
1.7644,0.0000,40.2000,66,97,289947
1.7693,0.0000,40.2000,66,97,289950
1.7742,0.0000,40.2600,66,97,289953
1.7791,0.0000,40.2300,66,97,289956
1.8231,0.0000,40.1300,66,97,289960
1.7693,0.0000,40.3000,66,97,289964
1.7595,0.0000,40.1600,66,97,289967
1.7498,0.0000,40.1000,66,97,289970
1.7449,0.0000,40.3300,66,97,289974
1.8280,0.0049,40.1000,66,97,289977
1.7791,0.0000,40.2300,66,97,289980
1.7937,0.0000,40.2300,66,97,289983
1.7840,0.0000,40.2000,66,97,289987
1.7644,0.0000,40.3000,66,97,289990
1.7937,0.0000,40.1300,66,97,289993
1.7595,0.0000,40.2000,66,97,289996
1.7498,0.0000,40.1300,66,97,290000
1.7449,0.0000,40.2000,66,97,290003
1.7351,0.0000,40.2300,66,97,290007
1.7742,0.0000,40.1600,66,97,290010
1.7449,0.0000,40.2000,66,97,290014
1.7546,0.0000,40.2300,66,97,290017
1.7595,0.0000,40.2000,66,97,290020
1.7595,0.0000,40.3000,66,97,290023
1.8035,0.0049,40.1000,66,97,290027
1.7595,0.0000,40.2000,66,97,290030
1.7546,0.0000,40.1300,66,97,290033
1.7546,0.0000,40.2000,66,97,290036
1.7449,0.0000,40.2000,66,97,290040
1.7351,0.0000,40.2300,66,97,290043
1.7644,0.0000,40.2300,66,97,290048
1.7253,0.0000,40.3000,66,97,290051
1.7302,0.0000,40.1000,66,97,290054
1.6960,0.0000,40.2300,66,97,290057
1.7009,0.0000,40.3600,66,97,290061
1.7302,0.0000,40.2000,66,97,290064
1.7107,0.0000,40.2000,66,97,290067
1.7351,0.0000,40.1000,66,97,290070
1.7204,0.0000,40.2300,66,97,290074
1.7204,0.0000,40.2300,66,97,290077
1.7498,0.0000,40.1600,66,97,290080
1.7351,0.0000,40.2300,66,97,290083
1.7449,0.0000,40.1000,66,97,290087
1.7302,0.0000,40.2300,66,97,290091
1.7253,0.0000,40.2600,66,97,290094
1.7498,0.0000,40.1000,66,97,290097
1.7155,0.0000,40.2000,66,97,290101
1.7302,0.0000,40.1600,66,97,290104
1.7204,0.0000,40.2300,66,97,290107
1.7644,0.0000,40.2300,66,97,290110
1.7546,0.0000,40.1000,66,97,290114
1.7107,0.0000,40.2600,66,97,290117
1.7009,0.0000,40.3000,66,97,290120
1.6960,0.0000,40.2000,66,97,290123
1.7204,0.0000,40.2000,66,97,290127
1.7644,0.0000,40.1600,66,97,290130
1.7546,0.0000,40.2300,66,97,290134
1.7693,0.0000,40.1300,66,97,290137
1.7498,0.0000,40.2300,66,97,290141
1.7546,0.0000,40.3000,66,97,290144
1.7840,0.0000,40.0600,66,97,290147
1.7498,0.0000,40.1600,66,97,290150
1.7546,0.0000,40.1000,66,97,290154
1.7253,0.0000,40.2600,66,97,290157
1.7155,0.0000,40.2300,66,97,290160
1.7351,0.0000,40.1000,66,97,290163
1.7253,0.0000,40.2300,66,97,290167
1.7302,0.0000,40.1600,66,97,290170
1.7253,0.0000,40.3300,66,97,290173
1.7351,0.0000,40.2600,66,97,290177
1.7644,0.0000,40.1600,66,97,290181
1.7791,0.0000,40.2300,66,97,290184
1.7644,0.0244,40.2000,66,97,290187
1.7351,0.0000,40.2300,66,97,290190
1.7400,0.0000,40.2300,66,97,290194
1.7693,0.0147,40.1000,66,97,290197
1.7351,0.0000,40.2300,66,97,290200
1.7400,0.0000,40.1000,66,97,290204
1.7204,0.0000,40.2300,66,97,290207
1.7253,0.0000,40.1600,66,97,290210
1.7546,0.0000,40.1600,66,97,290213
1.7351,0.0000,40.2300,66,97,290217
1.7644,0.0000,40.1600,66,97,290221
1.7498,0.0000,40.3000,66,97,290224
1.7595,0.0000,39.8000,66,97,290227
1.7889,0.0000,40.1600,66,97,290231
1.7742,0.0000,40.2300,66,97,290234
1.7937,0.0000,40.1300,66,97,290237
1.7791,0.0000,40.3000,66,97,290240
1.7889,0.0000,40.3300,66,97,290244
1.8377,0.0000,40.1300,66,97,290247
1.8084,0.0000,40.2300,66,97,290250
1.8328,0.0000,40.1600,66,97,290253
1.8084,0.0000,40.2600,66,97,290257
1.8084,0.0000,40.2300,66,97,290260
1.8573,0.0000,40.1300,66,97,290264
1.8084,0.0000,40.2300,66,97,290267
1.8426,0.0000,40.1000,66,97,290271
1.8475,0.0000,40.2600,66,97,290274
1.8573,0.0000,40.3000,66,97,290277
1.8915,0.0000,40.2300,66,97,290280
1.8817,0.0000,40.3000,66,97,290284
1.8915,0.0000,40.1300,66,97,290287
1.8475,0.0000,40.1600,66,97,290290
1.8231,0.0000,40.2300,66,97,290293
1.8573,0.0000,40.1000,66,97,290297
1.8280,0.0000,40.2300,66,97,290300
1.8084,0.0000,40.0300,66,97,290304
1.7742,0.0000,40.2300,66,97,290307
1.7742,0.0000,40.2300,66,97,290311
1.8084,0.0000,40.2300,66,97,290314
1.7400,0.0000,40.2000,66,97,290317
1.7351,0.0000,40.1300,66,97,290320
1.7107,0.0000,40.2300,66,97,290324
1.6960,0.0000,40.2300,66,97,290327
1.7204,0.0000,40.2000,66,97,290330
1.7058,0.0000,40.2300,66,97,290333
1.7302,0.0000,40.1000,66,97,290337
1.7155,0.0147,40.2000,66,97,290340
1.7107,0.0000,40.3000,66,97,290343
1.7546,0.0000,40.1300,66,97,290347
1.7351,0.0000,40.2000,66,97,290351
1.7351,0.0000,40.0000,66,97,290354
1.7107,0.0000,40.2600,66,97,290357
1.7058,0.0000,40.2300,66,97,290360
1.7253,0.0000,40.1000,66,97,290364
1.7058,0.0000,40.2600,66,97,290367
1.7302,0.0000,40.1300,66,97,290370
1.7253,0.0000,40.2600,66,97,290373
1.7351,0.0000,40.3000,66,97,290377
1.7595,0.0000,40.2000,66,97,290380
1.7400,0.0000,40.3000,66,97,290383
1.7595,0.0000,40.1300,66,97,290386
1.7351,0.0000,40.3000,66,97,290391
1.7351,0.0000,40.3000,66,97,290394
1.7595,0.0000,40.0600,66,97,290397
1.7155,0.0000,40.2600,66,97,290400
1.7058,0.0000,40.1300,66,97,290404
1.6569,0.0000,40.4000,66,97,290407
1.6569,0.0000,40.2300,66,97,290410
1.7351,0.0000,40.1300,66,97,290413
1.8231,0.0000,40.2300,66,97,290417
2.0039,0.0000,40.2600,66,97,290420
2.1750,0.0000,40.2300,66,97,290423
2.3754,0.0000,40.3300,66,97,290426
2.5855,0.0000,40.2300,66,97,290430
2.6931,0.0049,40.2000,66,97,290434
2.8201,0.0000,40.1000,66,97,290437
2.8397,0.0196,40.3600,66,97,290440
2.8543,0.0000,40.2600,66,97,290444
2.8592,0.0000,40.2300,66,97,290447
2.7419,0.0000,40.2300,66,97,290450
2.6637,0.0000,40.1300,66,97,290453
2.4878,0.0000,40.3000,66,97,290457
2.3069,0.0000,40.2300,66,97,290460
2.1408,0.0000,40.1300,66,97,290463
1.9306,0.0000,40.2000,66,97,290466
1.7986,0.0000,40.1300,66,97,290470
1.6764,0.0000,40.2600,66,97,290473
1.5934,0.0000,40.3000,66,97,290477
1.5494,0.0000,40.1600,66,97,290480
1.4907,0.0000,40.2300,66,97,290484
1.4809,0.0000,40.1300,66,97,290487
1.4565,0.0000,40.2000,66,97,290490
1.4614,0.0000,40.2300,66,97,290493
1.5054,0.0000,40.0600,66,97,290497
1.4761,0.0391,40.2000,66,97,290500
1.5152,0.0000,40.1000,66,97,290503
1.4809,0.0000,40.2600,66,97,290507
1.4809,0.0000,40.2600,66,97,290510
1.5200,0.0000,40.1300,66,97,290513
1.5152,0.0000,40.3300,66,97,290516
1.5396,0.0000,40.1300,66,97,290520
1.5298,0.0000,40.3000,66,97,290524
1.5347,0.0000,40.2000,66,97,290527
1.5738,0.0000,40.2000,66,97,290530
1.5591,0.0000,40.2600,66,97,290533
1.5787,0.0000,40.2000,66,97,290537
1.5885,0.0000,40.2000,66,97,290540
1.5982,0.0000,40.3600,66,97,290543
1.6373,0.0000,40.0600,66,97,290546
1.6080,0.0000,40.3000,66,97,290550
1.6129,0.0000,40.1000,66,97,290553
1.5982,0.0000,40.2300,66,97,290556
1.6031,0.0000,40.2300,66,97,290560
1.6373,0.0000,40.2000,66,97,290564
1.6178,0.0196,40.2000,66,97,290567
1.6373,0.0000,40.1300,66,97,290570
1.6276,0.0000,40.2300,66,97,290573
1.6471,0.0000,40.2300,66,97,290577
1.6862,0.0000,40.1600,66,97,290580
1.6764,0.0000,40.4000,66,97,290583
1.7009,0.0000,40.1300,66,97,290586
1.7351,0.0000,40.3300,66,97,290590
1.7009,0.0000,40.3000,66,97,290593
1.7302,0.0000,40.1600,66,97,290596
1.7107,0.0000,40.3000,66,97,290599
1.7155,0.0000,40.1300,66,97,290604
1.7107,0.0000,40.1600,66,97,290607
1.7155,0.0000,40.3300,66,97,290610
1.7449,0.0000,40.1000,66,97,290613
1.7253,0.0000,40.2000,66,97,290617
1.7400,0.0000,40.1600,66,97,290620
1.7253,0.0000,40.2300,66,97,290623
1.7302,0.0000,40.2300,66,97,290627
1.7595,0.0000,40.1600,66,97,290630
1.7400,0.0147,40.2300,66,97,290633
1.7595,0.0000,40.1600,66,97,290636
1.7449,0.0000,40.2000,66,97,290640
1.7449,0.0000,40.2300,66,97,290643
1.7840,0.0000,40.0600,66,97,290647
1.7644,0.0000,40.2300,66,97,290651
1.7498,0.0000,40.2000,66,97,290654
1.7840,0.0000,40.1000,66,97,290657
1.7595,0.0000,40.1600,66,97,290660
1.7498,0.0000,40.2600,66,97,290664
1.7546,0.0000,40.1600,66,97,290667
1.7449,0.0000,40.4300,66,97,290670
1.7742,0.0000,40.2000,66,97,290673
1.7693,0.0000,40.2300,66,97,290677
1.7498,0.0000,40.3300,66,97,290680
1.7742,0.0000,40.1600,66,97,290683
1.7546,0.0000,40.2300,66,97,290686
1.7937,0.0000,40.2300,66,97,290691
1.7644,0.0000,40.2000,66,97,290694
1.7742,0.0000,40.2300,66,97,290697
1.8084,0.0000,40.1600,66,97,290700
1.7889,0.0196,40.2300,66,97,290704
1.8280,0.0000,40.1300,66,97,290707
1.7986,0.0000,40.2300,66,97,290710
1.7986,0.0000,40.3000,66,97,290713
1.8133,0.0000,40.3000,66,97,290717
1.8426,0.0000,40.3000,66,97,290720
1.8426,0.0000,40.2000,66,97,290723
1.8182,0.0000,40.2300,66,97,290726
1.8231,0.0000,40.2300,66,97,290731
1.8573,0.0000,40.1300,66,97,290734
1.8280,0.0000,40.2300,66,97,290737
1.8426,0.0000,40.2000,66,97,290740
1.8084,0.0000,40.1300,66,97,290744
1.8182,0.0000,40.2600,66,97,290747
1.8573,0.0000,40.2000,66,97,290750
1.8280,0.0000,40.3300,66,97,290753
1.8622,0.0000,40.2300,66,97,290757
1.8426,0.0000,40.2600,66,97,290760
1.8524,0.0000,40.2300,66,97,290763
1.8524,0.0000,40.2300,66,97,290766
1.8328,0.0000,40.2300,66,97,290770
1.8573,0.0000,40.2000,66,97,290774
1.8328,0.0000,40.3000,66,97,290777
1.8280,0.0000,40.2600,66,97,290780
1.8524,0.0000,40.1000,66,97,290784
1.8182,0.0000,40.2300,66,97,290787
1.8377,0.0000,40.1300,66,97,290790
1.8084,0.0000,40.2000,66,97,290793
1.8182,0.0000,40.2600,66,97,290797
1.8524,0.0000,40.1300,66,97,290800
1.8328,0.0000,40.2300,66,97,290803
1.8671,0.0000,40.1300,66,97,290806
1.8377,0.0000,40.4300,66,97,290810
1.8328,0.0000,40.2300,66,97,290813
1.8426,0.0000,40.2300,66,97,290817
1.8280,0.0147,40.3000,66,97,290820
1.8524,0.0000,40.1300,66,97,290824
1.8182,0.0000,40.3000,66,97,290827
1.8182,0.0000,40.4000,66,97,290830
1.8475,0.0000,39.7000,66,97,290833
1.8133,0.0000,40.2300,66,97,290837
1.8573,0.0000,40.1300,66,97,290840
1.8182,0.0000,40.2300,66,97,290843
1.8035,0.0000,40.3000,66,97,290847
1.8280,0.0000,40.2300,66,97,290850
1.8182,0.0000,40.2300,66,97,290853
1.8280,0.0000,40.2000,66,97,290856
1.7986,0.0000,40.2300,66,97,290860
1.8084,0.0000,40.2600,66,97,290864
1.8182,0.0000,40.1600,66,97,290867
1.7937,0.0000,40.2300,66,97,290870
1.8231,0.0000,40.1300,66,97,290873
1.7986,0.0000,40.4000,66,97,290877
1.7937,0.0000,40.2600,66,97,290880
1.8231,0.0098,40.2300,66,97,290883
1.7889,0.0000,40.2300,66,97,290887
1.8280,0.0000,40.2300,66,97,290890
1.7742,0.0000,40.2300,66,97,290893
1.7644,0.0000,40.2600,66,97,290896
1.7889,0.0000,40.1300,66,97,290900
1.7595,0.0000,40.2300,66,97,290904
1.8035,0.0000,40.2300,66,97,290907
1.7791,0.0000,40.2300,66,97,290910
1.7840,0.0000,40.2300,66,97,290914
1.7986,0.0000,40.2600,66,97,290917
1.7889,0.0000,40.2300,66,97,290920
1.8182,0.0000,40.1600,66,97,290923
1.7937,0.0196,40.2600,66,97,290927
1.7937,0.0000,40.2300,66,97,290930
1.8182,0.0000,40.1000,66,97,290933
1.7937,0.0000,40.2300,66,97,290936
1.8084,0.0000,40.2300,66,97,290940
1.7791,0.0000,40.2000,66,97,290944
1.7791,0.0000,40.2300,66,97,290947
1.7889,0.0000,40.2000,66,97,290950
1.7693,0.0000,40.3600,66,97,290954
1.8035,0.0000,40.1600,66,97,290957
1.7791,0.0000,40.2300,66,97,290960
1.7889,0.0000,40.2300,66,97,290963
1.7840,0.0000,40.2300,66,97,290967
1.7693,0.0000,40.3300,66,97,290970
1.7986,0.0000,40.1300,66,97,290973
1.7742,0.0000,40.2600,66,97,290976
1.7840,0.0000,40.2300,66,97,290980
1.8133,0.0098,40.1000,66,97,290983
1.7889,0.0000,40.2300,66,97,290987
1.8133,0.0049,40.1600,66,97,290990
1.7742,0.0000,40.2000,66,97,290994
1.7742,0.0000,40.2300,66,97,290997
1.7986,0.0000,40.1300,66,97,291000
1.7937,0.0000,40.2300,66,97,291004
1.8475,0.0000,40.2000,66,97,291007
1.8280,0.0000,40.1600,66,97,291010
1.8280,0.0000,40.2300,66,97,291013
1.8328,0.0000,40.1600,66,97,291017
1.8182,0.0000,40.2000,66,97,291020
1.8524,0.0000,40.1300,66,97,291023
1.8231,0.0000,40.2300,66,97,291026
1.8133,0.0000,40.2300,66,97,291031
1.8475,0.0000,40.1600,66,97,291034
1.8133,0.0000,40.2300,66,97,291037
1.8328,0.0000,40.0600,66,97,291040
1.8035,0.0000,40.2600,66,97,291044
1.7937,0.0000,40.3000,66,97,291047
1.8133,0.0000,40.1000,66,97,291050
1.7889,0.0000,40.2000,66,97,291053
1.8182,0.0000,40.1600,66,97,291057
1.7889,0.0000,40.2000,66,97,291060
1.7937,0.0000,40.3300,66,97,291063
1.7986,0.0293,40.2000,66,97,291066
1.7840,0.0000,40.2000,66,97,291070
1.7937,0.0000,40.1300,66,97,291074
1.7693,0.0000,40.3300,66,97,291077
1.7840,0.0000,40.2600,66,97,291080
1.8182,0.0000,40.1000,66,97,291084
1.7986,0.0000,40.2300,66,97,291087
1.8328,0.0000,40.1300,66,97,291090
1.8182,0.0000,40.1600,66,97,291093
1.8133,0.0000,40.3300,66,97,291097
1.8377,0.0000,40.1300,66,97,291100
1.8182,0.0000,40.2300,66,97,291103
1.8426,0.0000,40.2300,66,97,291106
1.8182,0.0000,40.2000,66,97,291110
1.8182,0.0000,40.3300,66,97,291113
1.8280,0.0000,40.2000,66,97,291117
1.8475,0.0000,40.3000,66,97,291120
1.8524,0.0000,40.1000,66,97,291124
1.8280,0.0000,40.2600,66,97,291127
1.8671,0.0000,40.2600,66,97,291130
1.8719,0.0000,40.1300,66,97,291133
1.8475,0.0000,40.2300,66,97,291137
1.8671,0.0000,40.1300,66,97,291140
1.8280,0.0000,40.1600,66,97,291143
1.8475,0.0000,40.2600,66,97,291146
1.8573,0.0000,40.1000,66,97,291150
1.8719,0.0000,40.2000,66,97,291153
1.9355,0.0000,40.1300,66,97,291156
1.9257,0.0000,40.2000,66,97,291160
1.9306,0.0000,40.2300,66,97,291164
1.9306,0.0000,40.2000,66,97,291167
1.9013,0.0000,40.2300,66,97,291170
1.9062,0.0000,40.2300,66,97,291173
1.8915,0.0000,40.2300,66,97,291177
1.8426,0.0000,40.2000,66,97,291180
1.8573,0.0000,40.1000,66,97,291183
1.8231,0.0000,40.3000,66,97,291186
1.8377,0.0000,40.1300,66,97,291190
1.7986,0.0000,40.2300,66,97,291193
1.7889,0.0000,40.4000,66,97,291196
1.8084,0.0000,40.3000,66,97,291200
1.7889,0.0000,40.2300,66,97,291204
1.8182,0.0098,40.2000,66,97,291207
1.8133,0.0000,40.2000,66,97,291210
1.7742,0.0000,40.2300,66,97,291213
1.7693,0.0000,40.4000,66,97,291217
1.7498,0.0000,40.3300,66,97,291220
1.7644,0.0000,40.1600,66,97,291223
1.7302,0.0000,40.2000,66,97,291226
1.7204,0.0000,40.3000,66,97,291230
1.7498,0.0000,40.2000,66,97,291233
1.7253,0.0000,40.2300,66,97,291236
1.7449,0.0000,40.1300,66,97,291239
1.7204,0.0000,40.2000,66,97,291244
1.7253,0.0000,40.2300,66,97,291247
1.7595,0.0000,40.1300,66,97,291250
1.7400,0.0000,40.2300,66,97,291253
1.7742,0.0000,40.1600,66,97,291257
1.7498,0.0000,40.0600,66,97,291260
1.7009,0.0000,40.2300,66,97,291265
1.6716,0.0000,40.3000,66,97,291268
1.6764,0.0000,40.2000,66,97,291271
1.6031,0.0000,40.2600,66,97,291274
1.6227,0.0000,40.0600,66,97,291278
1.6618,0.0000,40.2300,66,97,291281
1.7742,0.0000,40.2300,66,97,291284
2.0088,0.0000,40.1600,66,97,291288
2.1750,0.0000,40.2000,66,97,291291
2.4487,0.0000,40.1000,66,97,291295
2.6197,0.0000,40.1300,66,97,291298
2.7468,0.0000,40.0300,66,97,291301
2.8543,0.0000,40.2300,66,97,291304
2.8739,0.0000,40.2000,66,97,291308
2.9081,0.0000,40.0600,66,97,291311
2.8348,0.0000,40.2000,66,97,291314
2.7566,0.0000,40.1600,66,97,291317
2.6784,0.0000,40.1600,66,97,291321
2.4878,0.0000,40.2600,66,97,291324
2.3265,0.0000,40.1000,66,97,291328
2.1065,0.0000,40.1600,66,97,291331
1.9208,0.0000,40.3000,66,97,291335
1.8035,0.0000,40.1000,66,97,291338
1.6764,0.0000,40.3000,66,97,291341
1.6276,0.0000,40.1000,66,97,291344
1.5445,0.0000,40.2000,66,97,291348
1.5054,0.0000,40.2300,66,97,291351
1.4907,0.0000,40.1600,66,97,291354
1.4761,0.0000,40.3600,66,97,291357
1.5005,0.0000,40.1300,66,97,291361
1.4858,0.0000,40.2300,66,97,291364
1.4858,0.0000,40.2600,66,97,291367
1.5152,0.0000,40.1600,66,97,291371
1.5005,0.0000,40.2300,66,97,291375
1.5298,0.0000,40.1000,66,97,291378
1.5494,0.0000,40.1600,66,97,291381
1.5200,0.0000,40.2300,66,97,291384
1.5347,0.0000,40.1600,66,97,291388
1.5200,0.0000,40.2300,66,97,291391
1.5543,0.0000,40.1300,66,97,291394
1.5396,0.0000,40.2300,66,97,291397
1.5543,0.0000,40.2600,66,97,291401
1.5738,0.0000,40.1600,66,97,291404
1.5836,0.0000,40.2600,66,97,291407
1.6178,0.0000,40.1300,66,97,291410
1.5982,0.0000,40.2600,66,97,291415
1.6080,0.0000,40.2300,66,97,291418
1.6422,0.0000,40.1600,66,97,291421
1.6276,0.0000,40.2000,66,97,291424
1.6667,0.0000,40.1300,66,97,291428
1.6325,0.0098,40.2000,66,97,291431
1.6667,0.0000,40.2300,66,97,291434
1.6618,0.0000,40.1000,66,97,291437
1.6520,0.0000,40.2000,66,97,291441
1.6911,0.0000,40.2000,66,97,291444
1.6667,0.0000,40.1600,66,97,291447
1.6716,0.0000,40.2600,66,97,291450
1.6764,0.0000,40.1300,66,97,291454
1.6716,0.0000,40.3300,66,97,291458
1.7009,0.0000,40.1000,66,97,291461
1.6960,0.0000,40.2300,66,97,291464
1.6862,0.0000,40.2000,66,97,291468
1.7204,0.0000,40.0600,66,97,291471
1.7058,0.0000,40.2600,66,97,291474
1.7644,0.0000,40.2300,66,97,291477
1.7253,0.0000,40.2600,66,97,291481
1.7302,0.0000,40.3300,66,97,291484
1.7546,0.0000,40.1000,66,97,291487
1.7449,0.0000,40.2300,66,97,291490
1.7644,0.0196,40.1600,66,97,291494
1.7400,0.0000,40.2600,66,97,291497
1.7351,0.0000,40.2300,66,97,291501
1.7498,0.0000,40.2300,66,97,291505
1.7351,0.0000,40.3000,66,97,291508
1.7644,0.0000,40.1600,66,97,291511
1.7351,0.0000,40.2300,66,97,291514
1.7400,0.0000,40.2000,66,97,291518
1.7693,0.0000,40.3000,66,97,291521
1.7400,0.0000,40.2600,66,97,291524
1.7644,0.0000,40.1300,66,97,291527
1.7351,0.0098,40.1600,66,97,291531
1.7253,0.0000,40.3300,66,97,291534
1.7498,0.0000,40.1600,66,97,291537
1.7204,0.0000,40.2300,66,97,291540
1.7546,0.0000,40.0600,66,97,291545
1.7351,0.0000,40.2000,66,97,291548
1.7302,0.0000,40.2300,66,97,291551
1.7351,0.0147,40.1600,66,97,291554
1.7253,0.0000,40.2300,66,97,291558
1.7498,0.0000,40.1000,66,97,291561
1.7595,0.0000,40.2600,66,97,291564
1.7351,0.0000,40.1300,66,97,291567
1.7546,0.0000,39.5100,66,97,291571
1.7400,0.0000,40.3300,66,97,291574
1.7693,0.0000,40.1600,66,97,291577
1.7498,0.0196,40.2300,66,97,291580
1.7449,0.0000,40.3000,66,97,291585
1.7693,0.0000,40.1000,66,97,291588
1.7449,0.0000,40.2600,66,97,291591
1.7693,0.0000,40.0600,66,97,291594
1.7498,0.0000,40.1600,66,97,291598
1.7351,0.0000,40.2600,66,97,291601
1.7351,0.0000,40.3000,66,97,291604
1.7400,0.0000,40.2300,66,97,291607
1.7742,0.0000,40.1000,66,97,291611
1.7644,0.0000,40.2000,66,97,291614
1.7791,0.0000,40.2300,66,97,291617
1.8280,0.0000,40.1300,66,97,291620
1.8182,0.0000,40.3000,66,97,291624
1.8573,0.0098,40.2300,66,97,291628
1.8573,0.0000,40.1300,66,97,291631
1.8524,0.0293,40.3000,66,97,291634
1.8817,0.0000,40.1000,66,97,291638
1.8524,0.0000,40.2300,66,97,291641
1.8866,0.0098,40.2000,66,97,291644
1.8622,0.0000,40.1600,66,97,291648
1.8524,0.0000,40.3000,66,97,291651
1.8622,0.0000,40.2000,66,97,291654
1.8475,0.0000,40.3000,66,97,291657
1.8768,0.0000,40.0600,66,97,291661
1.8622,0.0000,40.2300,66,97,291664
1.8573,0.0000,40.3600,66,97,291667
1.8768,0.0000,40.1300,66,97,291671
1.8475,0.0000,40.2600,66,97,291675
1.8671,0.0000,40.1300,66,97,291678
1.8475,0.0000,40.1600,66,97,291681
1.8328,0.0049,40.3000,66,97,291684
1.8475,0.0000,40.2000,66,97,291688
1.8231,0.0147,40.3000,66,97,291691
1.8573,0.0000,40.0300,66,97,291694
1.8377,0.0049,40.2000,66,97,291697
1.8231,0.0000,40.2300,66,97,291701
1.8328,0.0000,40.2000,66,97,291704
1.8133,0.0000,40.2000,66,97,291707
1.8426,0.0000,40.0600,66,97,291712
1.8035,0.0000,40.2600,66,97,291715
1.8035,0.0049,40.2600,66,97,291718
1.8231,0.0049,40.1000,66,97,291721
1.7937,0.0000,40.3000,66,97,291725
1.8328,0.0000,40.0300,66,97,291728
1.8084,0.0000,40.1600,66,97,291731
1.7937,0.0000,40.3000,66,97,291734
1.8231,0.0342,40.1600,66,97,291738
1.8035,0.0000,40.3000,66,97,291741
1.8328,0.0000,40.0000,66,97,291744
1.7937,0.0000,40.0600,66,97,291747
1.7889,0.0000,40.3000,66,97,291751
1.7986,0.0098,40.2300,66,97,291755
1.7937,0.0000,40.3000,66,97,291758
1.8328,0.0147,40.1000,66,97,291761
1.7986,0.0000,40.2000,66,97,291765
1.7986,0.0049,40.3600,66,97,291768
1.8280,0.0049,40.1600,66,97,291771
1.7937,0.0000,40.1300,66,97,291775
1.8377,0.0049,40.0300,66,97,291778
1.8035,0.0000,40.1600,66,97,291781
1.7937,0.0000,40.2600,66,97,291784
1.8084,0.0049,40.2300,66,97,291788
1.7889,0.0000,40.2000,66,97,291791
1.8377,0.0049,40.0300,66,97,291794
1.7889,0.0049,39.7300,66,97,291798
1.7693,0.0000,40.2600,66,97,291802
1.7742,0.0049,40.3000,66,97,291805
1.7791,0.0049,40.2300,66,97,291808
1.8133,0.0147,40.0300,66,97,291812
1.7693,0.0244,40.2000,66,97,291815
1.7742,0.0000,40.1600,66,97,291818
1.7595,0.0049,40.2600,66,97,291821
1.7546,0.0000,40.2300,66,97,291825
1.8084,0.0147,40.2000,66,97,291828
1.7644,0.0049,40.2000,66,97,291831
1.7595,0.0000,40.2300,66,97,291835
1.7400,0.0000,40.2300,66,97,291838
1.7498,0.0000,40.2300,66,97,291842
1.7840,0.0049,40.0600,66,97,291845
1.7693,0.0049,40.2300,66,97,291849
1.7840,0.0000,40.2000,66,97,291852
1.7791,0.0000,40.2600,66,97,291855
1.7791,0.0098,40.3600,66,97,291858
1.8182,0.0098,40.2000,66,97,291862
1.7840,0.0049,40.2300,66,97,291865
1.8084,0.0000,40.1300,66,97,291868
1.7791,0.0098,40.2300,67,97,291872
1.7791,0.0000,40.3000,67,97,291876
1.7742,0.0098,40.2000,67,97,291880
1.8231,0.0098,40.1300,67,97,291884
1.7693,0.0000,40.3000,67,97,291887
1.7937,0.0000,40.1300,67,97,291890
1.7791,0.0000,40.1300,67,97,291894
1.7693,0.0000,40.3000,67,97,291897
1.7889,0.0000,40.2000,67,97,291900
1.7791,0.0049,40.2600,67,97,291903
1.7986,0.0000,40.1600,67,97,291907
1.7742,0.0000,40.2600,67,97,291910
1.7742,0.0049,40.2600,67,97,291913
1.7840,0.0000,40.2000,67,97,291916
1.7742,0.0098,40.2000,67,97,291920
1.7937,0.0000,40.1000,67,97,291923
1.7644,0.0147,40.3000,67,97,291927
1.7644,0.0000,40.3000,67,97,291931
1.7889,0.0098,40.1300,67,97,291934
1.7791,0.0049,40.3300,67,97,291937
1.8231,0.0049,40.0300,67,97,291940
1.8084,0.0049,40.3000,67,97,291944
1.7986,0.0196,40.2300,67,97,291947
1.8231,0.0098,40.2000,67,97,291950
1.8084,0.0049,39.6700,67,97,291954
1.8524,0.0098,40.0000,67,97,291957
1.8133,0.0000,40.1600,67,97,291960
1.7986,0.0342,40.2300,67,97,291963
1.8084,0.0098,40.2600,67,97,291968
1.7840,0.0049,40.2300,67,97,291971
1.8231,0.0098,39.9600,67,97,291974
1.7791,0.0098,40.2300,67,97,291978
1.7791,0.0000,40.3000,67,97,291981
1.7986,0.0049,40.2300,67,97,291984
1.7937,0.0049,40.3600,67,97,291987
1.8524,0.0147,40.0300,67,97,291991
1.8475,0.0049,40.2300,67,97,291994
1.8280,0.0000,40.1600,67,97,291997
1.8280,0.0049,40.2300,67,97,292001
1.8328,0.0049,40.2600,67,97,292004
1.8719,0.0098,40.1600,67,97,292007
1.8524,0.0098,40.2300,67,97,292011
1.8573,0.0049,40.2000,67,97,292015
1.8475,0.0049,40.2000,67,97,292018
1.8622,0.0049,40.2600,67,97,292021
1.9159,0.0098,40.1300,67,97,292025
1.9013,0.0049,40.2300,67,97,292028
1.9404,0.0049,40.1000,67,97,292031
1.9208,0.0049,40.3000,67,97,292035
1.9208,0.0000,40.3000,67,97,292038
1.9159,0.0098,40.4300,67,97,292041
1.8768,0.0049,40.2600,67,97,292044
1.8719,0.0098,40.2300,67,97,292048
1.8328,0.0049,40.3300,67,97,292051
1.8182,0.0049,40.2600,67,97,292055
1.8377,0.0049,40.2300,67,97,292059
1.8084,0.0049,39.5700,67,97,292062
1.8280,0.0000,40.1300,67,97,292065
1.8084,0.0049,40.2300,67,97,292068
1.7986,0.0049,40.2600,67,97,292072
1.8133,0.0000,40.2300,67,97,292075
1.7937,0.0049,40.1600,67,97,292078
1.8133,0.0098,40.1000,67,97,292082
1.7791,0.0049,40.2600,67,97,292085
1.7595,0.0049,40.2600,67,97,292088
1.7546,0.0196,40.1300,67,97,292091
1.7253,0.0049,40.2300,67,97,292096
1.7498,0.0098,40.0000,67,97,292099
1.7155,0.0049,40.2600,67,97,292102
1.7253,0.0000,40.2300,67,97,292106
1.7400,0.0147,40.2300,67,97,292109
1.7400,0.0049,40.3000,67,97,292112
1.7986,0.0098,39.9600,67,97,292115
1.7742,0.0098,40.1000,67,97,292119
1.7791,0.0049,40.2300,67,97,292122
1.7889,0.0049,40.3000,67,97,292125
1.7742,0.0049,40.2300,67,97,292129
1.8231,0.0196,40.0600,67,97,292132
1.7840,0.0098,40.2600,67,97,292135
1.7791,0.0000,40.1600,67,97,292140
1.7693,0.0049,40.2300,67,97,292143
1.7498,0.0049,40.4000,67,97,292146
1.7644,0.0489,40.1000,67,97,292149
1.6716,0.0049,40.3000,67,97,292153
1.6325,0.0049,40.1600,67,97,292156
1.6080,0.0049,40.2300,67,97,292159
1.6618,0.0000,40.2600,67,97,292163
1.8182,0.0147,40.1600,67,97,292166
1.9746,0.0049,40.2300,67,97,292169
2.2239,0.0049,40.2000,67,97,292172
2.4389,0.0098,40.2000,67,97,292176
2.6197,0.0049,40.2300,67,97,292179
2.8006,0.0147,40.1000,67,97,292183
2.7957,0.0049,40.2300,67,97,292187
2.8495,0.0147,40.1300,67,97,292190
2.7957,0.0000,40.2300,67,97,292193
2.7566,0.0049,40.1600,67,97,292196
2.7468,0.0000,40.1600,67,97,292200
2.5953,0.0098,40.2300,67,97,292203
2.4976,0.0098,40.1600,67,97,292206
2.2874,0.0000,40.2300,67,97,292210
2.1163,0.0049,40.2600,67,97,292213
1.9746,0.0098,40.2600,67,97,292216
1.8328,0.0098,40.2300,67,97,292219
1.7595,0.0049,39.8000,67,97,292224
1.6862,0.0098,40.3000,67,97,292227
1.6080,0.0098,40.3300,67,97,292230
1.5885,0.0098,40.1600,67,97,292234
1.5445,0.0098,40.1600,67,97,292237
1.5543,0.0098,40.0300,67,97,292240
1.5298,0.0049,40.1600,67,97,292243
1.5249,0.0098,40.3000,67,97,292247
1.5396,0.0098,40.1600,67,97,292250
1.5249,0.0342,40.3600,67,97,292253
1.5982,0.0098,40.0300,67,97,292257
1.5494,0.0098,40.2000,67,97,292260
1.5543,0.0049,40.2600,67,97,292263
1.5689,0.0049,40.3000,67,97,292267
1.5689,0.0098,40.2300,67,97,292271
1.6178,0.0196,40.0600,67,97,292274
1.5836,0.0147,40.1600,67,97,292277
1.5885,0.0049,40.2000,67,97,292281
1.6373,0.0049,40.2300,67,97,292284
1.6080,0.0098,40.4700,67,97,292287
1.6667,0.0244,40.1600,67,97,292291
1.6373,0.0147,40.2000,67,97,292294
1.6471,0.0098,40.2300,67,97,292297
1.6520,0.0098,40.2000,67,97,292300
1.6520,0.0098,40.3300,67,97,292304
1.6911,0.0196,40.0300,67,97,292307
1.6716,0.0147,40.3300,67,97,292311
1.6813,0.0440,40.1600,67,97,292315
1.6813,0.0098,40.2600,67,97,292318
1.6813,0.0098,40.2600,67,97,292321
1.7058,0.0147,40.2600,67,97,292325
1.6911,0.0049,40.2600,67,97,292328
1.7204,0.0147,40.1300,67,97,292331
1.7107,0.0098,40.3000,67,97,292334
1.7107,0.0098,40.2600,67,97,292338
1.7204,0.0196,40.2600,67,97,292341
1.7155,0.0098,40.3000,67,97,292344
1.7400,0.0098,40.2000,67,97,292348
1.7155,0.0098,40.2300,67,97,292352
1.7253,0.0098,40.2300,67,97,292355
1.7546,0.0196,40.1600,67,97,292358
1.7400,0.0147,40.2000,67,97,292362
1.7742,0.0098,40.0600,67,97,292365
1.7644,0.0147,40.1300,67,97,292368
1.7400,0.0098,40.2600,67,97,292372
1.7498,0.0342,40.2000,67,97,292375
1.7253,0.0098,40.2300,67,97,292378
1.8182,0.0098,40.0000,67,97,292382
1.7644,0.0098,40.0000,67,97,292385
1.7742,0.0098,40.4300,67,97,292388
1.7840,0.0049,40.2300,67,97,292391
1.8084,0.0049,40.2600,67,97,292396
1.8231,0.0147,40.0000,67,97,292399
1.7791,0.0147,40.1600,67,97,292402
1.7742,0.0098,40.2300,67,97,292406
1.7742,0.0147,40.2300,67,97,292409
1.7889,0.0098,40.2300,67,97,292412
1.8133,0.0244,40.1000,67,97,292416
1.7644,0.0587,40.1600,67,97,292419
1.7644,0.0049,40.1300,67,97,292422
1.7644,0.0147,40.3300,67,97,292425
1.7595,0.0196,40.2300,67,97,292429
1.7937,0.0147,40.1300,67,97,292432
1.7644,0.0147,40.2000,67,97,292435
1.7889,0.0147,40.1300,67,97,292440
1.7644,0.0147,40.3000,67,97,292443
1.7546,0.0098,39.5400,67,97,292446
1.7742,0.0196,40.2300,67,97,292450
1.7595,0.0147,40.2000,67,97,292453
1.7742,0.0196,40.1600,67,97,292456
1.7546,0.0538,40.2300,67,97,292459
1.7644,0.0098,40.2600,67,97,292463
1.7791,0.0147,40.3600,67,97,292466
1.7791,0.0098,40.2000,67,97,292469
1.8035,0.0196,40.1000,67,97,292473
1.7791,0.0147,40.2600,67,97,292476
1.7693,0.0098,40.2600,67,97,292480
1.7889,0.0196,40.1300,67,97,292484
1.7693,0.0147,40.2000,67,97,292488
1.7840,0.0147,40.2600,67,97,292492
1.8671,0.0440,40.0000,67,97,292495
1.8671,0.0196,40.1600,67,97,292498
1.8719,0.0098,40.2600,67,97,292501
1.8768,0.0391,40.3300,67,97,292505
1.8768,0.0147,40.2300,67,97,292508
1.9404,0.0244,40.1300,67,97,292511
1.9013,0.0196,40.3000,67,97,292515
1.9159,0.0098,40.1600,67,97,292518
1.8817,0.0147,40.2300,67,97,292521
1.8817,0.0440,40.3300,67,97,292526
1.9159,0.0244,40.1600,67,97,292529
1.8964,0.0147,40.3000,67,97,292532
1.9257,0.0196,40.1300,67,97,292535
1.9013,0.0147,40.2300,67,97,292539
1.8964,0.0147,40.3000,67,97,292542
1.9453,0.0196,40.2300,67,97,292545
1.8671,0.0147,40.2600,67,97,292549
1.8719,0.0196,40.2300,67,97,292552
1.8426,0.0147,40.1600,67,97,292555
1.8524,0.0147,40.2300,67,97,292559
1.8671,0.0147,40.1000,67,97,292562
1.8426,0.0147,40.2000,67,97,292566
1.8866,0.0196,40.1600,67,97,292570
1.8768,0.0147,40.2000,67,97,292573
1.8768,0.0196,40.2300,67,97,292576
1.8866,0.0098,40.2300,67,97,292579
1.8622,0.0147,40.2300,67,97,292583
1.8768,0.0196,39.9300,67,97,292586
1.8328,0.0147,40.2000,67,97,292589
1.8328,0.0147,40.2300,67,97,292593
1.8426,0.0196,40.2600,67,97,292596
1.8377,0.0147,40.2600,67,97,292599
1.8964,0.0342,39.9600,67,97,292603
1.8719,0.0244,40.2300,67,97,292606
1.8573,0.0196,40.3000,67,97,292610
1.8573,0.0196,40.2300,67,97,292614
1.8475,0.0147,40.2600,67,97,292617
1.8817,0.0244,40.1600,67,97,292620
1.8426,0.0196,40.2600,67,97,292623
1.8231,0.0147,40.2300,67,97,292627
1.7986,0.0196,40.2300,67,97,292630
1.7986,0.0147,40.3300,67,97,292633
1.8231,0.0244,40.2300,67,97,292637
1.7791,0.0196,40.2300,67,97,292640
1.7889,0.0196,40.1600,67,97,292643
1.7693,0.0342,40.3000,67,97,292647
1.7889,0.0147,40.2600,67,97,292651
1.8133,0.0196,40.2600,67,97,292654
1.8231,0.0244,40.2600,67,97,292657
1.8622,0.0147,40.1000,67,97,292661
1.8524,0.0196,40.2300,67,97,292664
1.8377,0.0147,40.3000,67,97,292667
1.8573,0.0244,40.1300,67,97,292671
1.8133,0.0147,40.2300,67,97,292674
1.8426,0.0196,40.0300,67,97,292677
1.8133,0.0196,40.1300,67,97,292681
1.7791,0.0147,40.2600,67,97,292684
1.7742,0.0293,40.1600,67,97,292687
1.7546,0.0196,40.2300,67,97,292691
1.8133,0.0244,40.0000,67,97,292695
1.7889,0.0244,40.1000,67,97,292698
1.7937,0.0196,40.3600,67,97,292701
1.7644,0.0196,40.2300,67,97,292705
1.7449,0.0293,40.2300,67,97,292708
1.7840,0.0342,40.0300,67,97,292711
1.7302,0.0244,40.4300,67,97,292715
1.7058,0.0293,40.1600,67,97,292718
1.6862,0.0147,40.2600,67,97,292721
1.6764,0.0196,40.1600,67,97,292725
1.7400,0.0342,40.1000,67,97,292728
1.6813,0.0244,40.2000,67,97,292731
1.7302,0.0196,40.1300,67,97,292734
1.7840,0.0196,40.3000,67,97,292739
1.8377,0.0147,40.3600,67,97,292742
1.8915,0.0293,40.1000,67,97,292745
1.8817,0.0196,40.2300,67,97,292749
1.9110,0.0244,40.1000,67,97,292752
1.8817,0.0147,40.2600,67,97,292755
1.8622,0.0196,40.2300,67,97,292759
1.8475,0.0196,40.1600,67,97,292762
1.8035,0.0342,40.2000,67,97,292765
1.8133,0.0196,40.1000,67,97,292768
1.7791,0.0196,40.2300,67,97,292772
1.7644,0.0342,40.3000,67,97,292775
1.7693,0.0244,40.1600,67,97,292779
1.7546,0.0196,40.2300,67,97,292783
1.7889,0.0196,40.1300,67,97,292786
1.7595,0.0147,40.2000,67,97,292789
1.7498,0.0196,39.6000,67,97,292793
1.7449,0.0293,40.1600,67,97,292796
1.7204,0.0244,40.2300,67,97,292799
1.7546,0.0244,40.0000,67,97,292803
1.7253,0.0293,40.2300,67,97,292806
1.7253,0.0196,40.2600,67,97,292809
1.7546,0.0196,40.2000,67,97,292812
1.7400,0.0147,40.2300,67,97,292816
1.7986,0.0342,40.0600,67,97,292819
1.7546,0.0538,40.2000,67,97,292823
1.7302,0.0196,40.2000,67,97,292827
1.7204,0.0147,40.2300,67,97,292830
1.7253,0.0196,40.2300,67,97,292833
1.7742,0.0342,40.1600,67,97,292837
1.7351,0.0244,40.2000,67,97,292840
1.7595,0.0196,39.6700,67,97,292843
1.7595,0.0342,40.3300,67,97,292846
1.7644,0.0196,40.3000,67,97,292850
1.7791,0.0538,40.2000,67,97,292853
1.7449,0.0196,40.3000,67,97,292856
1.7595,0.0244,40.1000,67,97,292860
1.7400,0.0342,40.2600,67,97,292864
1.7498,0.0196,40.2300,67,97,292867
1.7840,0.0342,40.1000,67,97,292871
1.7400,0.0293,40.2300,67,97,292874
1.7791,0.0244,40.1600,67,97,292877
1.7253,0.0196,40.1600,67,97,292880
1.7351,0.0196,40.3000,67,97,292884
1.7791,0.0244,40.2300,67,97,292887
1.7742,0.0244,40.2000,67,97,292890
1.7937,0.0244,40.1600,67,97,292894
1.7742,0.0244,40.2300,67,97,292897
1.7889,0.0244,40.2000,67,97,292900
1.8084,0.0244,40.2300,67,97,292904
1.7986,0.0244,40.2300,67,97,292908
1.8328,0.0244,40.0300,67,97,292911
1.8084,0.0244,40.2600,67,97,292914
1.7791,0.0147,40.2600,67,97,292918
1.7546,0.0293,40.2300,67,97,292921
1.7302,0.0244,40.2300,67,97,292924
1.7742,0.0342,40.0300,67,97,292928
1.7498,0.0293,40.1300,67,97,292931
1.7498,0.0196,40.2000,67,97,292934
1.7155,0.0244,40.1600,67,97,292938
1.6764,0.0196,40.3600,67,97,292941
1.7058,0.0293,40.0300,67,97,292944
1.6764,0.0538,40.2000,67,97,292948
1.6813,0.0244,40.2000,67,97,292952
1.6960,0.0244,40.3300,67,97,292955
1.7302,0.0244,40.2300,67,97,292958
1.7449,0.0391,40.1600,67,97,292962
1.6862,0.0244,40.2300,67,97,292965
1.6862,0.0244,40.1300,67,97,292968
1.6325,0.0244,40.2300,67,97,292972
1.5885,0.0244,40.2300,67,97,292975
1.6080,0.0293,40.1600,67,97,292978
1.6325,0.0342,40.2300,67,97,292982
1.6911,0.0293,40.1300,67,97,292985
1.7009,0.0293,40.2300,67,97,292988
1.7204,0.0244,40.2300,67,97,292992
1.7400,0.0342,40.1600,67,97,292996
1.7107,0.0293,40.2000,67,97,292999
1.6911,0.0244,40.1000,67,97,293002
1.6227,0.0244,40.1000,67,97,293006
1.5836,0.0244,40.3000,67,97,293009
1.5934,0.0391,40.1600,67,97,293012
1.5054,0.0244,40.3300,67,97,293016
1.4809,0.0293,40.0600,67,97,293019
1.4565,0.0147,40.2600,67,97,293022
1.5396,0.0244,40.2600,67,97,293025
1.6960,0.0440,40.2300,67,97,293029
1.9062,0.0196,40.3600,67,97,293032
2.2287,0.0342,39.9600,67,97,293036
2.3803,0.0489,40.2300,67,97,293040
2.4682,0.0098,40.2300,67,97,293043
2.5073,0.0293,40.3000,67,97,293046
2.5415,0.0244,40.2000,67,97,293050
2.6393,0.0391,40.0300,67,97,293053
2.5758,0.0293,40.2600,67,97,293056
2.5171,0.0244,40.2000,67,97,293059
2.4194,0.0293,40.2300,67,97,293063
2.3509,0.0244,40.2600,67,97,293066
2.3216,0.0342,40.1300,67,97,293069
2.1994,0.0293,40.2300,67,97,293073
2.1163,0.0244,40.2300,67,97,293076
2.0088,0.0342,40.2300,67,97,293080
1.9404,0.0293,40.2300,67,97,293084
1.7937,0.0342,40.3000,67,97,293087
1.6129,0.0342,40.2300,67,97,293090
1.5103,0.0342,40.2000,67,97,293093
1.4223,0.0244,40.1300,67,97,293097
1.4809,0.0147,40.2300,67,97,293101
1.5152,0.0244,40.2300,67,97,293105
1.5445,0.0391,40.2300,67,97,293108
1.5200,0.0293,40.2300,67,97,293111
1.5640,0.0293,40.0300,67,97,293115
1.5494,0.0293,40.2300,67,97,293118
1.5494,0.0244,40.3300,67,97,293122
1.5543,0.0293,40.3000,67,97,293126
1.5298,0.0293,40.2300,67,97,293129
1.5738,0.0391,39.9600,67,97,293132
1.5591,0.0147,40.2600,67,97,293136
1.5152,0.0196,40.2000,67,97,293139
1.4956,0.0342,40.3000,67,97,293142
1.5054,0.0244,40.3600,67,97,293145
1.5396,0.0342,40.1000,67,97,293149
1.5249,0.0293,40.4000,67,97,293152
1.5640,0.0293,40.1000,67,97,293155
1.5885,0.0244,40.2600,67,97,293159
1.5836,0.0293,40.3000,67,97,293163
1.6227,0.0440,40.3000,67,97,293166
1.6178,0.0342,40.2300,67,97,293169
1.6422,0.0147,40.2300,67,97,293173
1.5934,0.0440,40.2300,67,97,293176
1.5982,0.0293,40.2300,67,97,293179
1.6178,0.0391,40.1300,67,97,293183
1.5934,0.0293,40.3000,67,97,293186
1.6471,0.0293,40.2300,67,97,293189
1.6422,0.0587,40.2300,67,97,293193
1.6520,0.0244,40.2300,67,97,293196
1.6667,0.0635,40.1000,67,97,293199
1.6520,0.0293,40.2300,67,97,293203
1.6716,0.0293,40.0600,67,97,293207
1.6325,0.0293,40.2300,67,97,293210
1.6422,0.0293,40.2300,67,97,293213
1.6716,0.0342,40.2600,67,97,293217
1.6716,0.0293,40.2300,67,97,293220
1.7155,0.0391,40.1000,67,97,293223
1.6911,0.0293,40.2000,67,97,293227
1.7009,0.0293,40.1600,67,97,293230
1.7009,0.0293,40.2000,67,97,293233
1.6716,0.0293,40.2600,67,97,293237
1.7009,0.0342,40.0000,67,97,293240
1.6569,0.0489,40.2000,67,97,293243
1.6569,0.0293,40.2300,67,97,293246
1.6764,0.0342,40.2000,67,97,293251
1.6716,0.0196,40.2300,67,97,293254
1.7155,0.0440,40.1600,67,97,293257
1.6862,0.0538,40.2000,67,97,293261
1.7107,0.0196,40.1600,67,97,293264
1.7009,0.0293,40.3000,67,97,293267
1.6764,0.0293,40.2300,67,97,293271
1.6960,0.0391,40.1000,67,97,293274
1.6667,0.0147,40.2600,67,97,293277
1.6813,0.0293,40.1600,67,97,293280
1.6618,0.0342,40.2600,67,97,293284
1.6520,0.0293,40.4000,67,97,293287
1.6667,0.0342,40.2000,67,97,293291
1.6471,0.0391,40.2000,67,97,293295
1.6862,0.0391,40.1300,67,97,293298
1.6716,0.0342,40.2000,67,97,293301
1.7058,0.0293,40.2600,67,97,293305
1.7253,0.0342,40.2300,67,97,293308
1.6960,0.0293,40.3000,67,97,293311
1.6960,0.0293,40.1300,67,97,293314
1.6618,0.0342,40.2000,67,97,293318
1.6276,0.0293,40.2300,67,97,293321
1.6227,0.0391,40.1300,67,97,293324
1.6178,0.0293,40.2300,67,97,293328
1.6618,0.0293,40.0000,67,97,293331
1.6373,0.0293,40.1600,67,97,293335
1.6276,0.0293,40.3600,67,97,293339
1.6667,0.0391,40.3000,67,97,293342
1.6471,0.0342,40.3300,67,97,293345
1.7058,0.0391,39.9600,67,97,293348
1.7009,0.0293,40.2000,67,97,293352
1.7204,0.0293,40.3300,67,97,293355
1.7449,0.0342,40.2300,67,97,293358
1.7742,0.0342,40.3600,67,97,293362
1.8084,0.0489,40.1000,67,97,293365
1.7840,0.0440,40.1600,67,97,293368
1.7889,0.0440,40.3000,67,97,293372
1.7937,0.0342,40.2000,67,97,293376
1.7937,0.0342,40.2300,67,97,293379
1.8524,0.0538,40.0300,67,97,293382
1.8377,0.0342,40.2600,67,97,293386
1.8524,0.0342,40.1600,67,97,293389
1.8231,0.0391,40.2600,67,97,293392
1.7937,0.0342,40.2600,67,97,293396
1.7937,0.0391,40.2300,67,97,293399
1.7937,0.0244,40.3000,67,97,293402
1.8035,0.0342,40.1000,67,97,293406
1.7937,0.0342,40.2300,67,97,293409
1.7986,0.0342,40.2600,67,97,293412
1.8182,0.0342,40.2600,67,97,293415
1.7986,0.0635,40.2300,67,97,293420
1.8084,0.0147,40.1000,67,97,293423
1.7644,0.0342,40.3300,67,97,293426
1.7595,0.0342,40.2600,67,97,293430
1.7937,0.0391,40.1000,67,97,293433
1.7986,0.0587,40.3600,67,97,293436
1.8671,0.0391,40.0300,67,97,293440
1.8035,0.0342,40.1300,67,97,293443
1.7546,0.0440,40.3000,67,97,293446
1.7449,0.0391,40.1600,67,97,293450
1.7302,0.0342,40.2600,67,97,293453
1.7986,0.0440,40.0600,67,97,293456
1.7840,0.0342,40.1600,67,97,293459
1.7840,0.0342,40.3000,67,97,293464
1.7889,0.0489,40.3300,67,97,293467
1.7840,0.0147,40.2300,67,97,293470
1.8280,0.0489,40.0000,67,97,293474
1.7742,0.0391,40.3000,67,97,293477
1.7546,0.0293,40.1600,67,97,293480
1.7449,0.0391,40.2300,67,97,293484
1.7449,0.0489,40.2000,67,97,293487
1.7889,0.0489,40.1600,67,97,293490
1.7302,0.0391,40.2300,67,97,293493
1.7253,0.0342,40.1600,67,97,293497
1.7351,0.0391,40.3300,67,97,293500
1.7400,0.0342,40.2300,67,97,293504
1.7840,0.0440,40.1000,67,97,293508
1.7693,0.0342,40.2600,67,97,293511
1.7840,0.0440,40.1000,67,97,293514
1.7400,0.0391,40.2300,67,97,293518
1.7351,0.0342,40.2600,67,97,293521
1.7498,0.0489,40.2300,67,97,293524
1.7302,0.0391,40.3000,67,97,293527
1.7400,0.0342,40.1300,67,97,293531
1.7155,0.0342,40.4700,67,97,293534
1.7155,0.0391,40.2600,67,97,293537
1.7302,0.0391,40.2000,67,97,293541
1.7400,0.0342,40.2300,67,97,293544
1.7595,0.0538,40.0600,67,97,293548
1.7204,0.0342,40.3300,67,97,293552
1.6960,0.0342,39.7000,67,97,293555
1.7058,0.0489,40.1000,67,97,293558
1.6911,0.0342,40.2300,67,97,293561
1.7351,0.0391,40.1300,67,97,293565
1.7155,0.0391,40.1600,67,97,293568
1.6911,0.0342,40.2600,67,97,293571
1.7449,0.0391,40.2000,67,97,293575
1.7253,0.0342,40.2300,67,97,293578
1.7791,0.0440,40.0000,67,97,293581
1.7595,0.0342,40.2300,67,97,293585
1.7302,0.0293,40.3300,67,97,293588
1.7155,0.0538,40.3300,67,97,293592
1.7009,0.0391,40.3000,67,97,293596
1.7644,0.0489,40.0600,67,97,293599
1.7302,0.0391,40.3300,67,97,293602
1.7302,0.0293,40.1600,67,97,293605
1.7107,0.0391,40.2300,67,97,293609
1.7204,0.0635,40.3600,67,97,293612
1.7595,0.0342,40.1600,67,97,293615
1.7302,0.0391,40.2300,67,97,293619
1.7351,0.0342,40.2000,67,97,293622
1.7204,0.0342,40.2300,67,97,293625
1.7107,0.0342,40.3000,67,97,293629
1.7351,0.0929,40.0600,67,97,293633
1.7058,0.0391,40.2300,67,97,293636
1.7351,0.0440,40.1600,67,97,293639
1.7009,0.0342,40.2000,67,97,293643
1.7204,0.0440,40.3600,67,97,293646
1.7595,0.0391,40.2300,67,97,293649
1.7742,0.0342,40.2000,67,97,293653
1.8084,0.0293,40.2300,67,97,293656
1.7840,0.0342,40.2300,67,97,293659
1.7449,0.0342,39.9600,67,97,293662
1.7302,0.0440,40.2000,67,97,293666
1.7107,0.0391,40.2300,67,97,293669
1.7595,0.0391,40.0300,67,97,293672
1.7449,0.0391,40.2300,67,97,293677
1.7644,0.0342,40.2300,67,97,293680
1.7889,0.0440,40.1600,67,97,293683
1.7791,0.0391,40.2300,67,97,293687
1.8133,0.0440,40.1300,67,97,293690
1.7644,0.0342,40.1300,67,97,293693
1.7546,0.0391,40.2300,67,97,293697
1.7155,0.0391,40.2000,67,97,293700
1.7253,0.0391,40.2000,67,97,293703
1.7986,0.0342,40.0300,67,97,293706
1.8084,0.0440,40.1600,67,97,293711
1.7986,0.0391,40.1600,67,97,293714
1.8524,0.0391,40.1000,67,97,293719
1.8426,0.0391,40.2600,67,97,293722
1.8573,0.0391,40.2600,67,97,293725
1.8719,0.0489,40.1600,67,97,293729
1.8426,0.0391,40.2300,67,97,293732
1.8719,0.0391,40.2000,67,97,293735
1.8426,0.0391,40.3300,67,97,293739
1.8426,0.0342,39.5400,67,97,293742
1.8719,0.0489,40.1300,67,97,293745
1.8671,0.0391,40.3300,67,97,293749
1.9013,0.0684,40.0600,67,97,293752
1.8768,0.0440,40.2300,67,97,293755
1.8328,0.0391,40.4300,67,97,293758
1.8133,0.0342,40.1600,67,97,293763
1.7693,0.0391,40.3000,67,97,293766
1.8084,0.0440,40.0000,67,97,293769
1.7986,0.0391,40.1600,67,97,293773
1.8182,0.0342,40.2600,67,97,293776
1.8280,0.0440,40.2300,67,97,293779
1.8133,0.0391,40.3300,67,97,293783
1.8524,0.0538,40.0600,67,97,293786
1.7840,0.0587,40.2000,67,97,293789
1.7644,0.0391,40.2300,67,97,293792
1.7351,0.0391,40.3000,67,97,293796
1.7400,0.0391,40.2000,67,97,293799
1.7351,0.0538,40.1000,67,97,293803
1.6911,0.0440,40.2300,67,97,293807
1.6960,0.0342,40.1600,67,97,293810
1.6813,0.0440,40.3000,67,97,293813
1.6813,0.0391,40.2600,67,97,293817
1.7302,0.0489,40.1000,67,97,293820
1.6764,0.0440,40.2600,67,97,293823
1.7155,0.0440,40.1600,67,97,293826
1.7009,0.0391,40.2300,67,97,293830
1.7009,0.0391,40.3300,67,97,293833
1.7009,0.0440,40.2000,67,97,293836
1.6667,0.0391,40.2300,67,97,293840
1.6960,0.0391,40.1000,67,97,293843
1.6911,0.0391,40.2300,67,97,293847
1.7058,0.0391,40.2000,67,97,293851
1.7351,0.0391,40.2000,67,97,293854
1.7253,0.0342,40.2600,67,97,293857
1.7546,0.0391,40.0300,67,97,293860
1.6911,0.0391,40.2300,67,97,293864
1.6373,0.0391,40.3600,67,97,293867
1.5934,0.0489,40.2000,67,97,293870
1.5298,0.0391,40.2300,67,97,293874
1.6129,0.0440,40.0300,67,97,293877
1.7644,0.0440,40.1600,67,97,293880
1.9110,0.0342,40.2300,67,97,293884
2.1359,0.0489,40.3000,67,97,293888
2.3656,0.0391,40.2600,67,97,293891
2.6051,0.0489,39.9600,67,97,293894
2.6686,0.0440,40.1300,67,97,293898
2.7224,0.0440,40.2300,67,97,293901
2.7664,0.0342,40.2600,67,97,293904
2.7761,0.0391,40.2600,67,97,293908
2.8348,0.0587,40.0600,67,97,293911
2.7028,0.0391,40.2300,67,97,293914
2.6246,0.0391,40.1600,67,97,293918
2.4780,0.0440,40.2000,67,97,293921
2.2972,0.0440,40.2300,67,97,293924
2.1945,0.0538,40.1300,67,97,293927
2.0283,0.0440,40.3000,67,97,293932
1.9257,0.0391,40.1000,67,97,293935
1.7840,0.0342,40.2000,67,97,293938
1.6764,0.0391,40.2000,67,97,293942
1.6178,0.0538,40.1600,67,97,293945
1.5249,0.0440,40.2300,67,97,293948
1.4956,0.0489,40.1600,67,97,293952
1.4467,0.0391,40.2000,67,97,293955
1.4125,0.0342,40.2300,67,97,293958
1.4125,0.0440,40.1300,67,97,293961
1.4272,0.0391,40.2600,67,97,293965
1.4761,0.0391,40.2000,67,97,293968
1.4712,0.0733,40.2000,67,97,293971
1.4809,0.0440,40.2300,67,97,293976
1.4907,0.0440,40.1600,67,97,293979
1.4712,0.0440,40.3300,67,97,293982
1.5054,0.0489,40.0300,67,97,293986
1.4858,0.0391,40.2300,67,97,293989
1.4907,0.0391,40.2600,67,97,293992
1.5152,0.0391,40.2000,67,97,293995
1.5152,0.0440,39.6400,67,97,293999
1.5689,0.0684,40.0000,67,97,294002
1.5689,0.0342,40.2000,67,97,294005
1.5934,0.0342,40.2600,67,97,294009
1.6129,0.0489,40.2300,67,97,294012
1.6129,0.0440,40.2600,67,97,294016
1.6471,0.0538,40.1300,67,97,294020
1.6129,0.0440,40.1300,67,97,294023
1.5982,0.0391,40.3300,67,97,294026
1.6031,0.0440,40.2000,67,97,294029
1.5982,0.0440,40.2300,67,97,294033
1.6422,0.0635,40.2300,67,97,294036
1.6031,0.0440,40.2600,67,97,294039
1.6129,0.0440,40.1300,67,97,294043
1.6178,0.0440,40.2300,67,97,294046
1.6325,0.0440,40.2600,67,97,294049
1.6618,0.0538,40.2000,67,97,294053
1.6764,0.0440,40.3300,67,97,294056
1.6618,0.0440,40.2000,67,97,294060
1.6276,0.0440,40.3600,67,97,294063
1.6325,0.0489,40.2300,67,97,294067
1.6862,0.0538,40.0000,67,97,294070
1.6667,0.0391,40.3300,67,97,294073
1.7058,0.0440,40.1300,67,97,294077
1.6960,0.0440,40.1300,67,97,294080
1.7107,0.0489,40.2600,67,97,294083
1.7449,0.0489,40.1600,67,97,294087
1.7253,0.0440,40.4000,67,97,294090
1.7400,0.0587,40.0600,67,97,294093
1.7107,0.0440,40.2600,67,97,294096
1.7009,0.0440,40.3300,67,97,294100
1.6813,0.0489,40.2000,67,97,294104
1.6667,0.0391,40.2300,67,97,294107
1.7204,0.0489,40.0300,67,97,294111
1.6862,0.0489,40.2000,67,97,294114
1.6862,0.0391,40.2300,67,97,294117
1.6862,0.0489,40.2300,67,97,294121
1.6862,0.0489,40.2300,67,97,294124
1.7449,0.0538,40.0000,67,97,294127
1.7204,0.0489,40.2000,67,97,294130
1.7155,0.0391,40.2300,67,97,294134
1.7351,0.0440,40.2300,67,97,294137
1.6911,0.0440,40.2600,67,97,294140
1.7009,0.0587,40.1300,67,97,294145
1.6373,0.0440,40.2000,67,97,294148
1.6373,0.0440,40.2300,67,97,294151
1.6716,0.0440,40.2600,67,97,294155
1.7058,0.0440,40.2300,67,97,294158
1.7449,0.0538,40.2300,67,97,294161
1.7155,0.0489,40.2000,67,97,294164
1.7253,0.0440,40.2000,67,97,294168
1.6813,0.0440,40.2600,67,97,294171
1.6667,0.0489,40.2300,67,97,294174
1.6960,0.0342,40.2000,67,97,294178
1.6716,0.0440,40.3000,67,97,294181
1.6911,0.0538,40.3000,67,97,294184
1.6764,0.0440,40.2300,67,97,294189
1.6911,0.0440,40.2300,67,97,294192
1.7155,0.0538,40.1600,67,97,294195
1.7009,0.0440,40.2600,67,97,294199
1.7302,0.0440,40.0600,67,97,294202
1.7302,0.0489,40.2300,67,97,294205
1.7400,0.0440,40.2300,67,97,294208
1.7253,0.0489,40.3600,67,97,294212
1.7107,0.0489,40.2600,67,97,294215
1.7840,0.0489,40.0300,67,97,294218
1.7791,0.0342,40.2600,67,97,294222
1.7840,0.0440,40.3600,67,97,294225
1.7889,0.0440,40.2300,67,97,294228
1.7742,0.0489,40.2300,67,97,294232
1.8182,0.0538,39.8900,67,97,294236
1.7889,0.0440,40.2000,67,97,294239
1.7986,0.0440,40.3000,67,97,294242
1.8182,0.0684,40.2000,67,97,294246
1.8035,0.0342,40.2300,67,97,294249
1.8866,0.0635,40.0600,67,97,294252
1.8866,0.0684,40.2300,67,97,294256
1.9013,0.0391,40.2000,67,97,294259
1.9013,0.0489,40.2600,67,97,294262
1.8866,0.0684,40.2000,67,97,294266
1.9110,0.0342,40.0600,67,97,294269
1.8622,0.0489,40.2600,67,97,294273
1.8573,0.0489,40.1000,67,97,294276
1.8328,0.0489,40.2300,67,97,294280
1.8035,0.0489,40.2600,67,97,294283
1.8133,0.0489,40.1300,67,97,294286
1.8035,0.0342,40.3300,67,97,294290
1.8426,0.0440,40.1600,67,97,294293
1.8280,0.0635,40.2300,67,97,294296
1.8231,0.0342,40.2600,67,97,294300
1.8328,0.0489,40.2000,67,97,294303
1.8280,0.0489,40.2300,67,97,294306
1.8622,0.0489,40.1300,67,97,294309
1.8133,0.0538,40.3000,67,97,294313
1.7986,0.0342,40.2600,67,97,294317
1.8280,0.0538,40.1300,67,97,294320
1.7986,0.0538,40.1600,67,97,294325
1.7937,0.0489,40.2600,67,97,294328
1.8524,0.0635,40.0000,67,97,294332
1.8182,0.0831,40.2000,67,97,294335
1.7937,0.0391,40.2300,67,97,294338
1.7937,0.0489,40.3300,67,97,294342
1.7840,0.0733,40.3600,67,97,294345
1.8182,0.0635,40.1000,67,97,294348
1.7595,0.0489,40.1600,67,97,294351
1.7400,0.0440,40.1600,67,97,294355
1.7400,0.0489,40.2000,67,97,294359
1.7351,0.0489,40.3000,67,97,294362
1.7986,0.0489,40.2000,67,97,294366
1.7986,0.0538,40.2300,67,97,294369
1.8084,0.0489,40.3600,67,97,294372
1.7986,0.0440,40.2300,67,97,294376
1.7937,0.0489,40.2600,67,97,294379
1.8280,0.0538,40.1000,67,97,294382
1.7986,0.0538,40.2000,67,97,294386
1.7986,0.0538,40.2000,67,97,294389
1.7644,0.0489,40.2300,67,97,294392
1.7791,0.0440,40.3300,67,97,294395
1.7791,0.0489,40.1600,67,97,294400
1.7253,0.0489,40.3300,67,97,294403
1.7253,0.0538,40.0600,67,97,294406
1.7204,0.0489,40.2300,67,97,294410
1.7400,0.0489,40.2000,67,97,294413
1.7498,0.0587,40.1600,67,97,294416
1.7253,0.0489,40.3000,67,97,294420
1.7595,0.0538,40.0600,67,97,294423
1.7155,0.0440,40.2300,67,97,294426
1.7302,0.0440,40.2600,67,97,294429
1.7498,0.0538,40.3600,67,97,294433
1.7546,0.0489,40.2300,67,97,294436
1.8084,0.0538,40.0600,67,97,294439
1.7742,0.0538,40.0600,67,97,294444
1.7498,0.0489,40.2300,67,97,294447
1.7595,0.0538,40.3000,67,97,294450
1.7546,0.0489,40.2300,67,97,294454
1.8133,0.0831,40.1000,67,97,294457
1.7791,0.0538,40.2000,67,97,294460
1.7546,0.0440,40.2000,67,97,294463
1.7449,0.0538,40.2300,67,97,294467
1.7595,0.0587,40.2300,67,97,294470
1.8084,0.0587,40.1600,67,97,294473
1.7693,0.0489,40.2600,67,97,294477
1.7595,0.0538,40.1300,67,97,294480
1.7449,0.0489,40.2600,67,97,294483
1.7351,0.0733,40.2300,67,97,294488
1.7498,0.0342,40.2300,67,97,294491
1.7595,0.0538,40.2600,67,97,294494
1.7889,0.0782,40.2000,67,97,294497
1.7546,0.0489,40.2600,67,97,294501
1.7498,0.0489,40.3000,67,97,294504
1.7986,0.0587,40.1300,67,97,294507
1.7791,0.0489,40.2600,67,97,294511
1.7986,0.0489,40.1300,67,97,294514
1.7937,0.0489,40.1300,67,97,294517
1.7889,0.0489,40.2300,67,97,294521
1.7986,0.0587,40.1600,67,97,294524
1.7791,0.0489,40.3000,67,97,294528
1.8133,0.0538,40.0300,67,97,294531
1.7889,0.0733,40.2000,67,97,294535
1.7644,0.0489,40.2300,67,97,294538
1.7644,0.0538,40.2600,67,97,294541
1.7595,0.0489,40.3300,67,97,294545
1.8182,0.0538,40.0000,67,97,294548
1.8035,0.0489,40.2600,67,97,294551
1.8133,0.0489,40.2300,67,97,294555
1.7889,0.0587,40.3000,67,97,294558
1.7693,0.0489,40.2600,67,97,294561
1.8231,0.0684,40.0000,67,97,294564
1.7937,0.0587,40.2000,67,97,294568
1.7791,0.0489,40.3000,67,97,294572
1.7595,0.0831,40.2600,67,97,294575
1.7498,0.0489,40.2300,67,97,294579
1.7986,0.0587,40.1000,67,97,294582
1.7742,0.0782,40.2000,67,97,294585
1.8084,0.0538,40.2300,67,97,294589
1.8133,0.0342,40.2600,67,97,294592
1.8084,0.0489,40.2600,67,97,294595
1.8671,0.0587,40.2300,67,97,294598
1.8231,0.0538,40.2600,67,97,294602
1.8524,0.0538,40.2300,67,97,294605
1.8231,0.0489,40.2300,67,97,294608
1.8328,0.0489,40.2000,67,97,294612
1.8475,0.0538,40.2000,67,97,294616
1.8768,0.0440,40.2300,67,97,294619
1.8768,0.0538,40.1300,67,97,294623
1.8426,0.0538,40.2300,67,97,294626
1.8328,0.0489,40.2300,67,97,294629
1.8573,0.0587,40.2000,67,97,294632
1.8475,0.0440,40.2300,67,97,294636
1.8622,0.0538,40.0600,67,97,294639
1.8573,0.0587,40.2000,67,97,294642
1.8573,0.0587,40.2300,67,97,294646
1.9013,0.0635,40.2000,67,97,294649
1.9013,0.0538,40.2300,67,97,294652
1.9892,0.0587,40.0300,67,97,294657
1.9306,0.0489,40.1600,67,97,294660
1.8964,0.0538,40.2300,67,97,294663
1.8719,0.0587,40.2300,67,97,294667
1.8573,0.0538,40.1600,67,97,294670
1.9110,0.0635,39.9600,67,97,294673
1.8573,0.0538,40.2300,67,97,294676
1.8475,0.0684,40.2000,67,97,294680
1.8377,0.0587,40.2300,67,97,294683
1.8133,0.0538,40.2300,67,97,294686
1.8475,0.0538,40.2000,67,97,294690
1.7889,0.0538,40.2300,67,97,294693
1.7889,0.0489,40.1600,67,97,294696
1.7791,0.0538,40.2000,67,97,294701
1.7840,0.0538,40.2600,67,97,294704
1.8182,0.0587,40.1000,67,97,294707
1.7791,0.0538,40.2300,67,97,294711
1.7840,0.0587,40.0600,67,97,294714
1.7693,0.0440,40.3000,67,97,294717
1.7449,0.0538,40.2600,67,97,294720
1.7644,0.0782,40.2300,67,97,294724
1.7498,0.0538,40.3000,67,97,294727
1.7644,0.0489,40.2000,67,97,294730
1.7302,0.0538,40.3600,67,97,294734
1.7351,0.0342,40.2300,67,97,294737
1.7400,0.0538,40.1300,67,97,294740
1.7351,0.0635,40.2600,67,97,294745
1.7791,0.0538,40.1300,67,97,294748
1.7595,0.0587,40.2600,67,97,294751
1.7742,0.0587,40.2300,67,97,294754
1.7840,0.0587,40.2000,67,97,294758
1.7889,0.0587,40.2300,67,97,294761
1.7889,0.0587,40.0600,67,97,294764
1.7400,0.0587,40.0600,67,97,294768
1.6911,0.0538,40.2600,67,97,294771
1.6569,0.0587,40.2000,67,97,294774
1.6373,0.0538,40.2300,67,97,294778
1.7351,0.0635,40.0000,67,97,294781
1.8377,0.0587,40.1600,67,97,294785
2.0137,0.0489,40.1600,67,97,294788
2.2336,0.0635,40.3300,67,97,294792
2.4976,0.0587,40.2300,67,97,294795
2.7419,0.0635,40.1300,67,97,294798
2.8201,0.0587,40.2300,67,97,294802
2.8983,0.0538,40.1600,67,97,294805
2.8935,0.0538,40.1600,67,97,294808
2.8837,0.0587,40.3000,67,97,294812
2.8935,0.0635,40.3600,67,97,294815
2.8201,0.0538,40.3000,67,97,294818
2.7566,0.0831,40.2000,67,97,294821
2.5806,0.0538,40.2300,67,97,294825
2.3900,0.0538,40.2600,67,97,294829
2.2239,0.0635,40.1000,67,97,294832
1.9941,0.0538,40.2300,67,97,294836
1.8622,0.0587,40.1600,67,97,294839
1.7253,0.0489,40.1600,67,97,294842
1.6471,0.0538,40.2600,67,97,294846
1.5982,0.0587,40.1300,67,97,294849
1.5494,0.0538,40.2600,67,97,294852
1.5298,0.0538,40.1300,67,97,294856
1.4761,0.0538,40.2300,67,97,294859
1.4614,0.0538,39.6000,67,97,294862
1.4663,0.0489,40.2300,67,97,294865
1.4565,0.0342,40.2600,67,97,294870
1.4858,0.0587,40.1000,67,97,294873
1.4663,0.0538,40.2000,67,97,294876
1.4663,0.0538,40.2300,67,97,294880
1.4956,0.0929,40.3600,67,97,294883
1.4956,0.0538,40.2000,67,97,294886
1.5347,0.0635,39.9600,67,97,294890
1.5152,0.0587,40.1600,67,97,294893
1.5152,0.0489,40.2300,67,97,294896
1.5445,0.0538,40.3000,67,97,294900
1.5298,0.0538,40.2300,67,97,294903
1.6129,0.0635,40.1000,67,97,294906
1.6520,0.0587,40.2300,67,97,294909
1.6422,0.0538,40.2300,67,97,294914
1.6471,0.0538,40.2300,67,97,294917
1.6520,0.0587,40.2300,67,97,294920
1.6862,0.0635,40.2300,67,97,294924
1.6618,0.0635,40.2300,67,97,294927
1.6862,0.0587,40.1000,67,97,294930
1.6520,0.0538,40.2600,67,97,294934
1.6911,0.0587,40.3300,67,97,294938
1.7009,0.0538,40.2600,67,97,294941
1.7155,0.0635,40.0600,67,97,294945
1.7302,0.0587,40.2600,67,97,294948
1.7498,0.0587,40.0000,67,97,294951
1.7400,0.0587,40.1600,67,97,294956
1.7400,0.0489,40.3300,67,97,294959
1.7644,0.0635,40.1600,67,97,294962
1.7449,0.0587,40.3000,67,97,294966
1.7840,0.0684,39.9600,67,97,294969
1.7449,0.0538,40.1000,67,97,294972
1.7400,0.0880,40.2600,67,97,294976
1.7546,0.0635,40.2300,67,97,294979
1.7449,0.0538,40.2600,67,97,294982
1.7889,0.0733,40.1300,67,97,294985
1.7351,0.0587,40.2300,67,97,294989
1.7302,0.0538,40.2000,67,97,294992
1.7253,0.0587,40.2600,67,97,294995
1.7351,0.0538,40.3600,67,97,295000
1.7693,0.0684,40.2300,67,97,295003
1.7351,0.0587,40.3000,67,97,295006
1.7644,0.0538,40.2300,67,97,295010
1.7449,0.0538,40.2600,67,97,295013
1.7546,0.0538,40.2300,67,97,295016
1.7791,0.0635,40.1300,67,97,295019
1.7400,0.0587,40.2600,67,97,295023
1.7693,0.0635,40.1300,67,97,295026
1.7742,0.0587,40.2300,67,97,295029
1.7644,0.0587,40.2600,67,97,295033
1.7840,0.0635,40.2300,67,97,295036
1.7693,0.0587,40.2300,67,97,295040
1.7986,0.0538,40.2300,67,97,295044
1.7644,0.0587,40.2300,67,97,295047
1.7644,0.0538,40.2300,67,97,295050
1.7791,0.0635,40.2000,67,97,295054
1.7791,0.0587,40.2300,67,97,295057
1.7889,0.0587,40.0300,67,97,295060
1.7351,0.0733,40.3000,67,97,295063
1.7351,0.0538,40.2600,67,97,295067
1.7546,0.0635,40.2000,67,97,295070
1.7546,0.0587,40.2300,67,97,295073
1.7986,0.0635,40.0300,67,97,295077
1.7693,0.0635,40.1300,67,97,295080
1.7498,0.0587,40.2300,67,97,295084
1.7595,0.0587,40.2000,67,97,295088
1.7693,0.0733,40.2300,67,97,295091
1.8524,0.0733,40.0600,67,97,295094
1.8182,0.0635,40.2000,67,97,295098
1.8084,0.0684,40.2000,67,97,295101
1.8035,0.0587,40.3000,67,97,295104
1.8084,0.0587,40.3300,67,97,295107
1.8475,0.0684,39.5100,67,97,295111
1.8280,0.0587,40.2300,67,97,295114
1.8524,0.0587,40.1000,67,97,295117
1.8280,0.0733,40.2300,67,97,295121
1.8377,0.0587,40.2300,67,97,295124
1.8671,0.0635,40.2000,67,97,295128
1.8719,0.0635,40.2000,67,97,295132
1.8817,0.0635,40.1600,67,97,295135
1.8622,0.0635,40.2300,67,97,295138
1.8866,0.0587,40.2300,67,97,295141
1.9110,0.0635,40.1600,67,97,295145
1.9013,0.0587,40.2300,67,97,295148
1.9110,0.0587,40.0300,67,97,295151
1.8964,0.0831,40.1600,67,97,295155
1.9208,0.0587,40.2600,67,97,295158
1.9013,0.0684,40.1600,67,97,295161
1.8719,0.0538,40.3000,67,97,295165
1.9159,0.0538,40.0600,67,97,295169
1.8768,0.0538,40.1300,67,97,295172
1.8866,0.0587,40.2600,67,97,295175
1.8964,0.0635,40.2300,67,97,295179
1.8768,0.0587,40.3000,67,97,295182
1.9062,0.0684,39.9600,67,97,295185
1.8524,0.0587,40.2300,67,97,295189
1.8475,0.0538,40.3300,67,97,295192
1.8377,0.0587,40.2000,67,97,295195
1.8377,0.0587,40.2000,67,97,295199
1.9159,0.0733,40.1000,67,97,295202
1.8915,0.0635,40.3000,67,97,295205
1.8964,0.0538,40.2600,67,97,295208
1.8964,0.0587,40.2300,67,97,295213
1.9013,0.0587,40.2300,67,97,295216
1.9159,0.0684,40.2000,67,97,295219
1.8719,0.0635,40.2300,67,97,295223
1.8768,0.0587,39.5400,67,97,295226
1.8524,0.0587,40.3300,67,97,295229
1.8622,0.0587,40.3000,67,97,295233
1.8817,0.0635,40.2600,67,97,295236
1.8524,0.0587,40.2600,67,97,295239
1.8622,0.0635,40.1300,67,97,295243
1.8524,0.0587,40.2300,67,97,295246
1.8719,0.0587,40.2300,67,97,295249
1.8866,0.0635,40.2000,67,97,295252
1.8768,0.0587,40.3000,67,97,295257
1.9013,0.0587,40.1000,67,97,295260
1.8768,0.0587,40.2600,67,97,295263
1.8817,0.0635,40.3000,67,97,295267
1.8964,0.0538,40.2300,67,97,295270
1.8671,0.0587,40.3600,67,97,295273
1.8915,0.0635,40.0300,67,97,295277
1.8817,0.0635,40.1300,67,97,295280
1.8768,0.0587,40.2000,67,97,295283
1.8964,0.0684,40.2600,67,97,295286
1.8768,0.0587,40.2300,67,97,295290
1.9257,0.0684,40.1000,67,97,295293
1.8915,0.0342,40.1000,67,97,295297
1.8768,0.0587,40.2600,67,97,295301
1.8768,0.0635,40.2600,67,97,295304
1.8915,0.0880,40.2600,67,97,295307
1.9501,0.0782,40.1000,67,97,295311
1.9110,0.0635,40.2000,67,97,295314
1.9159,0.0587,40.2600,67,97,295317
1.9208,0.0635,40.2300,67,97,295320
1.9110,0.0587,40.2600,67,97,295324
1.9795,0.0733,40.1300,67,97,295327
1.9110,0.0635,40.2000,67,97,295330
1.9013,0.0587,40.2600,67,97,295334
1.8768,0.0538,40.2600,67,97,295337
1.8768,0.0587,40.3000,67,97,295341
1.9110,0.0733,40.1000,67,97,295345
1.8964,0.0538,40.2300,67,97,295348
1.9257,0.0635,40.0600,67,97,295351
1.9062,0.0587,40.2000,67,97,295355
1.9062,0.0538,40.3000,67,97,295358
1.9355,0.0635,40.1300,67,97,295361
1.9257,0.0684,40.2300,67,97,295364
1.9892,0.0587,40.1300,67,97,295368
1.9404,0.0587,40.2000,67,97,295371
1.9404,0.0782,40.2600,67,97,295374
1.9453,0.0342,40.2000,67,97,295378
1.9257,0.0635,40.4000,67,97,295382
1.9404,0.0782,40.0000,67,97,295385
1.8915,0.0587,40.2600,67,97,295389
1.8866,0.0587,40.4300,67,97,295392
1.9208,0.0733,40.2000,67,97,295395
1.9355,0.0635,40.2600,67,97,295398
2.0137,0.0684,39.9600,67,97,295402
1.9892,0.0684,40.2300,67,97,295405
1.9844,0.0342,40.2600,67,97,295408
1.9795,0.0831,40.2000,67,97,295412
1.9892,0.0635,40.2600,67,97,295415
2.0186,0.0733,40.0300,67,97,295418
1.9844,0.0880,40.1600,67,97,295422
1.9844,0.0587,40.2600,67,97,295426
1.9648,0.0635,40.2300,67,97,295429
1.9599,0.0782,40.2300,67,97,295432
2.0088,0.0733,40.1300,67,97,295436
1.9697,0.0635,40.2300,67,97,295439
1.9795,0.0587,40.1600,67,97,295442
1.9795,0.0587,40.2300,67,97,295446
1.9844,0.0635,40.2600,67,97,295449
2.0235,0.0684,40.2000,67,97,295452
1.9990,0.0635,40.2300,67,97,295456
2.0235,0.0635,40.1000,67,97,295459
1.9844,0.0635,40.2300,67,97,295462
1.9844,0.0635,40.2300,67,97,295465
2.0235,0.0733,40.1000,67,97,295470
1.9844,0.0635,40.2300,67,97,295473
2.0235,0.0635,40.1600,67,97,295476
1.9941,0.0635,40.1300,67,97,295480
2.0088,0.0635,40.3600,67,97,295483
1.9844,0.0635,40.2300,67,97,295486
1.9648,0.0978,40.2300,67,97,295490
2.0235,0.0635,40.1600,67,97,295493
2.0039,0.0635,39.7300,67,97,295496
2.0235,0.0635,40.2600,67,97,295499
2.0528,0.0831,40.1600,67,97,295503
2.0674,0.0538,40.2300,67,97,295506
2.0968,0.0684,40.1000,67,97,295510
2.0528,0.0684,40.2000,67,97,295514
2.0626,0.0587,40.2300,67,97,295517
2.0723,0.0684,40.2300,67,97,295520
2.0577,0.0684,40.3300,67,97,295524
2.0968,0.0684,39.9300,67,97,295527
2.0430,0.0684,40.2000,67,97,295530
2.0528,0.0538,40.3300,67,97,295533
2.0528,0.0684,40.2600,67,97,295537
2.0674,0.0635,40.2600,67,97,295540
2.1554,0.0782,40.1000,67,97,295543
2.0723,0.0684,40.2300,67,97,295548
2.0039,0.0635,40.3000,67,97,295552
2.0137,0.0635,40.1600,67,97,295556
1.9892,0.0635,40.2300,67,97,295559
2.0088,0.0538,40.2300,67,97,295562
2.0235,0.0635,40.2300,67,97,295565
2.0039,0.0635,40.3000,67,97,295569
2.0235,0.0733,40.1000,67,97,295572
1.9844,0.0684,40.2300,67,97,295575
1.9892,0.0635,40.2300,67,97,295579
1.9990,0.0684,40.1600,67,97,295582
1.9648,0.0635,40.2000,67,97,295585
1.9746,0.0635,40.1000,67,97,295589
1.9404,0.0635,40.2300,67,97,295592
1.9208,0.0733,40.2300,67,97,295596
1.9404,0.0782,40.1300,67,97,295599
1.9159,0.0635,40.3300,67,97,295603
1.9550,0.0684,40.0000,67,97,295606
1.9159,0.0635,40.2000,67,97,295609
1.9013,0.0635,40.4300,67,97,295613
1.9062,0.0782,40.2300,67,97,295616
1.9257,0.0538,40.3000,67,97,295619
1.9453,0.0684,40.0300,67,97,295623
1.9306,0.0733,40.1600,67,97,295626
1.8964,0.0538,40.3300,67,97,295629
1.8964,0.0684,40.3600,67,97,295632
1.9062,0.0684,40.2300,67,97,295636
1.9501,0.0782,40.0600,67,97,295640
1.9062,0.0684,40.2600,67,97,295643
1.8964,0.0635,40.1600,67,97,295647
1.8719,0.0684,40.3000,67,97,295650
1.8231,0.0635,40.3000,67,97,295653
1.8035,0.0831,40.1600,67,97,295657
1.7351,0.0684,40.2300,67,97,295660
1.7546,0.0635,40.2000,67,97,295663
1.8280,0.0684,40.2300,67,97,295666
2.0039,0.0587,40.2300,67,97,295670
2.2385,0.0733,40.1600,67,97,295673
2.4487,0.0929,40.3000,67,97,295676
2.6931,0.0733,40.2300,67,97,295681
2.7957,0.0635,40.2600,67,97,295684
2.8641,0.0635,40.3300,67,97,295687
2.9423,0.0635,40.2000,67,97,295691
2.9228,0.0635,40.2300,67,97,295694
2.9570,0.0635,40.2300,67,97,295697
2.9032,0.0538,40.3300,67,97,295700
2.8055,0.0635,40.2300,67,97,295704
2.7224,0.0684,40.4000,67,97,295707
2.5415,0.0587,40.2300,67,97,295710
2.4096,0.0684,40.1300,67,97,295714
2.1994,0.0684,40.2300,67,97,295717
2.0283,0.0684,40.3000,67,97,295720
1.9501,0.0733,40.1600,67,97,295725
1.8475,0.0635,40.2300,67,97,295728
1.8280,0.0733,40.0000,67,97,295731
1.7351,0.0635,40.1600,67,97,295734
1.6764,0.0635,40.2600,67,97,295738
1.6422,0.0684,40.2300,67,97,295741
1.5982,0.0635,40.2300,67,97,295744
1.6325,0.0831,39.9600,67,97,295748
1.5836,0.0684,40.2600,67,97,295751
1.5738,0.0635,40.2600,67,97,295754
1.6080,0.0635,40.3000,67,97,295758
1.5934,0.0635,40.2300,67,97,295761
1.6422,0.0929,40.1300,67,97,295764
1.6422,0.0684,40.2300,67,97,295769
1.6325,0.0635,40.3000,67,97,295772
1.6227,0.0538,40.2600,67,97,295775
1.6325,0.0635,40.3000,67,97,295778
1.6813,0.0831,40.1000,67,97,295782
1.6716,0.0684,40.2300,67,97,295785
1.7107,0.0684,40.1300,67,97,295788
1.7204,0.0587,40.2000,67,97,295792
1.7155,0.0538,40.2300,67,97,295795
1.7400,0.0880,40.1600,67,97,295798
1.7302,0.0733,40.2300,67,97,295802
1.7644,0.0635,40.2000,67,97,295805
1.7351,0.0684,40.3000,67,97,295809
1.7302,0.0635,40.3000,67,97,295812
1.7400,0.0684,40.1600,67,97,295816
1.7351,0.0684,40.3000,67,97,295819
1.7693,0.0684,40.0600,67,97,295822
1.7449,0.0635,40.2300,67,97,295826
1.7498,0.0635,40.2000,67,97,295829
1.7742,0.0635,40.2600,67,97,295832
1.7644,0.0684,40.3300,67,97,295836
1.8133,0.0733,40.0300,67,97,295839
1.7889,0.0684,40.2600,67,97,295842
1.7742,0.0635,40.2600,67,97,295845
1.7791,0.0684,40.2300,67,97,295849
1.7644,0.0684,40.2600,67,97,295853
1.8280,0.0831,40.0300,67,97,295856
1.8084,0.0635,40.1600,67,97,295860
1.7644,0.0635,40.2000,67,97,295863
1.7791,0.0684,40.2300,67,97,295866
1.7840,0.0684,40.3300,67,97,295870
1.8671,0.0880,40.0600,67,97,295873
1.7889,0.0684,40.4000,67,97,295876
1.7986,0.0635,39.7300,67,97,295879
1.7937,0.0733,40.2600,67,97,295883
1.7840,0.0684,40.4000,67,97,295886
1.7937,0.0782,40.2300,67,97,295889
1.7791,0.0733,40.2600,67,97,295894
1.8133,0.0684,40.1300,67,97,295897
1.8182,0.0684,40.2300,67,97,295900
1.8231,0.0684,40.2600,67,97,295904
1.8475,0.0733,40.1600,67,97,295907
1.8084,0.0684,40.3300,67,97,295910
1.8280,0.0684,40.1600,67,97,295914
1.7986,0.0684,40.1600,67,97,295917
1.7889,0.0684,40.3300,67,97,295920
1.7937,0.0684,40.1600,67,97,295923
1.7693,0.0733,40.2300,67,97,295927
1.7986,0.0684,40.1000,67,97,295930
1.7791,0.0684,40.2600,67,97,295933
1.7937,0.0538,40.2600,67,97,295938
1.8084,0.0733,40.2600,67,97,295941
1.8182,0.0684,40.2300,67,97,295944
1.8719,0.0831,40.0600,67,97,295948
1.8280,0.0684,39.8000,67,97,295951
1.8133,0.0733,40.2600,67,97,295954
1.7937,0.0538,40.2600,67,97,295957
1.7742,0.0684,40.4700,67,97,295961
1.8182,0.0782,40.1000,67,97,295964
1.7986,0.0782,40.1600,67,97,295967
1.7986,0.0635,40.2600,67,97,295971
1.8231,0.0733,40.2300,67,97,295974
1.8280,0.0684,40.2300,67,97,295977
1.8866,0.0782,40.1300,67,97,295982
1.8426,0.0733,40.2000,67,97,295985
1.8280,0.0684,40.1600,67,97,295988
1.8035,0.0684,40.3300,67,97,295991
1.7840,0.0684,40.3000,67,97,295995
1.8182,0.0782,40.2000,67,97,295998
1.8035,0.0684,40.2300,67,97,296001
1.8377,0.0684,40.2000,67,97,296005
1.8328,0.0782,40.2600,67,97,296008
1.8475,0.0684,40.2600,67,97,296011
1.8671,0.0733,40.1600,67,97,296015
1.8573,0.0733,40.3000,67,97,296018
1.8622,0.0733,40.2300,67,97,296022
1.7986,0.0684,40.3600,67,97,296025
1.8182,0.0733,40.3300,67,97,296029
1.8719,0.0733,40.0300,67,97,296032
1.8622,0.0635,40.2600,67,97,296035
1.9208,0.0684,40.1000,67,97,296039
1.9404,0.0684,40.1600,67,97,296042
1.9453,0.0782,40.3000,67,97,296045
1.9697,0.0733,40.2600,67,97,296049
1.9453,0.0733,40.5000,67,97,296052
1.9892,0.0782,40.1000,67,97,296055
1.9550,0.0635,40.2000,67,97,296058
1.9501,0.0684,40.2600,67,97,296062
1.9404,0.0733,40.4000,67,97,296066
1.9062,0.1124,40.2300,67,97,296069
1.9355,0.0782,40.0000,67,97,296073
1.8719,0.0684,40.1600,67,97,296076
1.8671,0.0684,40.2300,67,97,296079
1.8280,0.0733,40.2300,67,97,296083
1.8035,0.0782,40.2300,67,97,296086
1.8719,0.0831,40.0600,67,97,296089
1.8328,0.0733,40.3000,67,97,296092
1.8231,0.0684,40.2600,67,97,296096
1.8133,0.0782,40.2300,67,97,296099
1.8084,0.0684,40.2600,67,97,296102
1.8622,0.0831,40.1000,67,97,296107
1.8524,0.0733,40.3300,67,97,296110
1.8768,0.0684,40.1600,67,97,296113
1.8671,0.0635,40.2300,67,97,296117
1.8231,0.0684,40.3000,67,97,296120
1.8133,0.0782,40.1600,67,97,296123
1.7693,0.0538,40.2600,67,97,296127
1.7840,0.0733,40.1000,67,97,296130
1.7644,0.0782,40.2300,67,97,296133
1.7840,0.0684,40.3000,67,97,296136
1.8035,0.0733,40.1600,67,97,296140
1.8035,0.0733,40.3300,67,97,296143
1.8377,0.0684,40.1300,67,97,296146
1.8133,0.0733,40.2000,67,97,296151
1.7937,0.0831,40.3000,67,97,296154
1.7986,0.0782,40.2300,67,97,296157
1.7449,0.0733,39.8000,67,97,296162
1.7400,0.0733,40.2000,67,97,296165
1.8084,0.0831,40.1000,67,97,296169
1.7889,0.0733,40.2600,67,97,296172
1.7742,0.0684,40.1600,67,97,296175
1.7693,0.0782,40.2000,67,97,296178
1.7449,0.0733,40.3300,67,97,296182
1.7840,0.0831,40.1000,67,97,296185
1.7351,0.0684,40.2600,67,97,296188
1.7595,0.0684,40.1300,67,97,296193
1.7253,0.0733,40.2600,67,97,296196
1.7009,0.0733,40.2000,67,97,296199
1.6911,0.0782,40.1600,67,97,296203
1.6569,0.0782,40.3300,67,97,296206
1.7009,0.0733,40.1000,67,97,296209
1.7107,0.0733,40.2300,67,97,296212
1.7449,0.0733,40.3300,67,97,296216
1.8084,0.0733,40.1300,67,97,296219
1.7791,0.0733,40.3300,67,97,296222
1.8084,0.0831,40.1300,67,97,296226
1.7644,0.0684,40.3000,67,97,296229
1.7449,0.0684,40.3300,67,97,296232
1.7351,0.0782,40.1300,67,97,296237
1.7107,0.0733,40.3300,67,97,296240
1.7155,0.0782,40.0600,67,97,296243
1.6618,0.0782,40.2300,67,97,296247
1.6373,0.0733,40.3000,67,97,296250
1.6764,0.0782,40.2000,67,97,296253
1.7253,0.0733,40.2300,67,97,296256
1.7937,0.0733,40.1300,67,97,296260
1.7693,0.0733,40.2000,67,97,296263
1.7693,0.0733,40.3000,67,97,296266
1.7742,0.0733,40.4000,67,97,296270
1.7546,0.0733,40.2600,67,97,296273
1.7986,0.0831,40.0000,67,97,296276
1.7449,0.0782,40.2000,67,97,296281
1.7058,0.0635,40.2600,67,97,296284
1.6813,0.0733,40.3000,67,97,296287
1.6862,0.0733,39.6400,67,97,296290
1.7644,0.0880,40.0600,67,97,296294
1.7546,0.0733,40.2000,67,97,296297
1.7595,0.0684,40.2600,67,97,296300
1.7400,0.0831,40.2300,67,97,296304
1.7302,0.0733,40.2300,67,97,296307
1.7449,0.0782,40.2600,67,97,296310
1.7253,0.0831,40.3300,67,97,296314
1.7351,0.0733,40.2300,67,97,296317
1.7204,0.0831,40.2300,67,97,296321
1.7253,0.0733,40.3300,67,97,296324
1.7400,0.0733,40.0600,67,97,296328
1.7107,0.0831,40.3000,67,97,296331
1.7204,0.0782,40.1300,67,97,296334
1.6960,0.0733,40.3000,67,97,296338
1.7107,0.0733,40.3000,67,97,296341
1.7693,0.0880,40.1300,67,97,296344
1.7204,0.0733,40.2300,67,97,296348
1.7449,0.0733,40.0300,67,97,296351
1.7644,0.0782,40.2300,67,97,296354
1.7546,0.0733,40.2600,67,97,296357
1.7889,0.0880,40.1600,67,97,296361
1.7693,0.0733,40.2300,67,97,296365
1.8084,0.0733,40.0300,67,97,296368
1.7693,0.0684,40.2300,67,97,296372
1.7595,0.0782,40.2600,67,97,296375
1.7595,0.0733,40.3300,67,97,296378
1.7595,0.1026,40.2300,67,97,296382
1.8182,0.0782,40.0000,67,97,296385
1.7595,0.0733,40.2000,67,97,296388
1.7498,0.0733,40.2600,67,97,296391
1.7546,0.0782,40.3300,67,97,296395
1.7546,0.0733,40.2000,67,97,296398
1.8231,0.0978,40.0600,67,97,296401
1.7889,0.0782,40.2600,67,97,296406
1.7986,0.0684,40.2300,67,97,296409
1.7986,0.0733,40.2300,67,97,296412
1.8084,0.0733,40.2600,67,97,296416
1.8524,0.0831,40.1300,67,97,296419
1.8182,0.0782,40.2300,67,97,296422
1.8426,0.0733,40.1300,67,97,296426
1.8231,0.0733,40.3300,67,97,296429
1.8426,0.0733,40.3300,67,97,296432
1.8866,0.0782,40.1600,67,97,296435
1.8866,0.0733,40.3000,67,97,296439
1.9159,0.0733,40.1300,67,97,296442
1.8524,0.0733,40.2300,67,97,296445
1.8426,0.0782,40.3000,67,97,296450
1.8035,0.0733,40.2600,67,97,296453
1.7937,0.0733,40.2600,67,97,296456
1.8231,0.0831,40.1000,67,97,296460
1.7889,0.0733,40.1600,67,97,296463
1.7840,0.0733,40.2300,67,97,296466
1.8035,0.0782,40.1600,67,97,296469
1.7840,0.0733,40.2000,67,97,296473
1.8035,0.0782,40.0300,67,97,296476
1.7693,0.0782,40.2300,67,97,296479
1.7400,0.0733,40.2000,67,97,296483
1.7644,0.0831,40.1600,67,97,296486
1.7449,0.0782,40.2000,67,97,296489
1.7986,0.0782,40.0000,67,97,296494
1.7449,0.0782,40.1000,67,97,296497
1.6911,0.0733,40.2300,67,97,296500
1.6569,0.0733,40.2000,67,97,296503
1.6227,0.0684,40.2600,67,97,296507
1.6618,0.0929,40.0300,67,97,296510
1.6373,0.0880,40.2000,67,97,296513
1.6569,0.0978,40.2600,67,97,296517
1.6716,0.0782,40.2600,67,97,296520
1.6667,0.0733,40.2600,67,97,296523
1.7351,0.0831,40.1300,67,97,296527
1.6862,0.0733,40.2300,67,97,296530
1.7107,0.0733,40.2000,67,97,296534
1.6960,0.0782,40.2300,67,97,296538
1.6960,0.0733,40.3600,67,97,296541
1.7253,0.0880,40.1600,67,97,296544
1.7009,0.0733,40.2300,67,97,296547
1.7107,0.0782,40.1600,67,97,296551
1.6813,0.0538,40.2300,67,97,296554
1.6569,0.0733,40.3000,67,97,296557
1.6422,0.0831,40.1300,67,97,296561
1.5934,0.0782,40.3000,67,97,296564
1.6178,0.0733,40.1000,67,97,296567
1.6911,0.0782,40.2300,67,97,296571
1.8426,0.0782,40.2300,67,97,296574
2.0577,0.0782,40.1600,67,97,296578
2.2483,0.0782,40.2600,67,97,296581
2.4927,0.0782,40.0300,67,97,296585
2.5806,0.0733,40.2000,67,97,296588
2.6686,0.0782,40.2300,67,97,296591
2.7468,0.0782,40.3000,67,97,296595
2.7566,0.0733,40.3000,67,97,296598
2.8397,0.0831,40.0300,67,97,296601
2.7664,0.0782,40.2300,67,97,296605
2.6784,0.0733,40.2300,67,97,296608
2.5953,0.0782,40.2000,67,97,296611
2.4340,0.0782,40.2600,67,97,296614
2.3314,0.0929,40.0000,67,97,296619
2.1114,0.0880,40.1600,67,97,296622
1.9453,0.0733,40.2000,67,97,296625
1.8133,0.0733,40.3300,67,97,296629
1.7009,0.0782,40.2000,67,97,296632
1.6520,0.0978,40.1300,67,97,296635
1.5494,0.0782,40.2300,67,97,296639
1.5103,0.0733,40.4000,67,97,296642
1.4516,0.0782,40.3300,67,97,296645
1.4076,0.0733,40.2600,67,97,296648
1.4076,0.0880,40.1300,67,97,296652
1.3978,0.0831,40.3000,67,97,296655
1.4565,0.0782,40.1600,67,97,296658
1.4027,0.1026,40.3000,67,97,296663
1.3930,0.0782,40.2600,67,97,296666
1.4174,0.0831,40.1600,67,97,296669
1.4076,0.1222,40.3000,67,97,296673
1.4516,0.0782,40.1300,67,97,296676
1.4614,0.0733,40.1600,67,97,296679
1.4907,0.0733,40.2300,67,97,296682
1.5347,0.0733,40.1600,67,97,296686
1.5494,0.0733,40.2600,67,97,296689
1.5934,0.0782,40.1000,67,97,296692
1.5640,0.0782,40.2600,67,97,296696
1.5103,0.0733,40.2300,67,97,296699
1.5249,0.0782,40.2000,67,97,296702
1.5249,0.0733,40.2300,67,97,296707
1.6080,0.0782,39.7700,67,97,296710
1.6178,0.0782,40.1600,67,97,296713
1.6373,0.0733,40.2600,67,97,296717
1.6325,0.0782,40.3000,67,97,296720
1.6031,0.0782,40.2600,67,97,296723
1.6325,0.0880,40.0000,67,97,296726
1.6031,0.0831,40.1600,67,97,296730
1.5982,0.0782,40.2300,67,97,296733
1.5934,0.0782,40.3000,67,97,296736
1.5836,0.0978,40.2600,67,97,296740
1.6422,0.0880,40.0600,67,97,296743
1.6178,0.0831,40.3000,67,97,296747
1.6422,0.0782,40.1600,67,97,296751
1.6667,0.0782,40.3300,67,97,296754
1.6911,0.0782,40.2600,67,97,296757
1.6960,0.0831,40.1300,67,97,296760
1.6716,0.0782,40.3000,67,97,296764
1.7009,0.0782,40.2000,67,97,296767
1.6813,0.0782,40.2600,67,97,296770
1.6667,0.0782,40.3000,67,97,296775
1.6618,0.0782,40.2300,67,97,296778
1.6813,0.0831,40.2000,67,97,296782
1.6764,0.0782,40.2300,67,97,296785
1.7253,0.0782,40.1300,67,97,296788
1.7107,0.0831,40.2000,67,97,296793
1.6960,0.0782,40.2300,67,97,296796
1.7155,0.0831,40.2300,67,97,296799
1.7058,0.0782,40.2000,67,97,296802
1.7351,0.0978,39.9600,67,97,296806
1.6911,0.0782,40.1300,67,97,296809
1.6764,0.0733,40.2300,67,97,296812
1.6911,0.0782,40.2300,67,97,296816
1.7204,0.0733,40.3600,67,97,296819
1.7840,0.0929,40.0300,67,97,296822
1.7302,0.0782,40.2300,67,97,296826
1.7058,0.0733,40.1300,67,97,296829
1.6911,0.0782,40.2300,67,97,296833
1.6764,0.0733,40.1300,67,97,296837
1.7204,0.0831,40.1300,67,97,296840
1.7107,0.0782,40.3300,67,97,296843
1.7253,0.0782,40.1300,67,97,296846
1.6960,0.0782,40.2300,67,97,296850
1.6813,0.0733,40.2600,67,97,296853
1.7009,0.0831,40.2000,67,97,296856
1.6716,0.0782,40.3300,67,97,296860
1.6911,0.0831,40.2300,67,97,296863
1.6716,0.0978,40.1600,67,97,296866
1.6862,0.0782,40.3300,67,97,296870
1.7009,0.0880,40.2300,67,97,296873
1.7302,0.0880,40.2300,67,97,296877
1.7449,0.0782,40.1000,67,97,296880
1.7449,0.0782,40.2000,67,97,296884
1.7449,0.0684,40.2300,67,97,296887
1.7400,0.0782,40.2000,67,97,296890
1.7302,0.0733,40.2600,67,97,296894
1.7840,0.0782,40.1000,67,97,296897
1.7791,0.0782,40.2000,67,97,296900
1.7986,0.0782,40.2300,67,97,296904
1.8280,0.0831,40.2300,67,97,296907
1.8231,0.0782,40.2600,67,97,296910
1.8524,0.0831,40.0000,67,97,296913
1.8133,0.0880,40.3600,67,97,296918
1.7937,0.1026,40.2300,67,97,296921
1.8084,0.0831,40.2300,67,97,296924
1.7986,0.0782,40.2000,67,97,296928
1.8426,0.1026,40.0300,67,97,296931
1.8231,0.0831,40.2300,67,97,296934
1.8426,0.0880,40.3600,67,97,296938
1.8573,0.0782,40.2300,67,97,296941
1.8719,0.0782,39.7000,67,97,296944
1.9208,0.0880,40.1300,67,97,296947
1.8866,0.0782,40.2300,67,97,296951
1.8524,0.0782,40.1300,67,97,296954
1.8182,0.0782,40.2000,67,97,296957
1.8084,0.0782,40.2300,67,97,296962
1.8426,0.0880,40.2300,67,97,296965
1.7937,0.0782,40.2600,67,97,296968
1.7840,0.0782,40.2300,67,97,296972
1.7449,0.0782,39.7300,67,97,296975
1.7693,0.0782,40.2600,67,97,296978
1.8426,0.0831,40.1000,67,97,296981
1.8328,0.0782,40.5000,67,97,296985
1.8719,0.0782,40.1000,67,97,296988
1.8475,0.0684,40.2300,67,97,296991
1.8328,0.0782,40.2300,67,97,296995
1.8328,0.0880,40.1600,67,97,296998
1.8133,0.0782,40.3000,67,97,297001
1.8524,0.0782,40.1000,67,97,297006
1.8328,0.0880,40.2300,67,97,297009
1.7986,0.0880,40.2600,67,97,297012
1.7840,0.0733,40.2300,67,97,297015
1.7498,0.0782,40.3300,67,97,297019
1.7889,0.0978,40.0000,67,97,297022
1.7693,0.0733,40.2000,67,97,297025
1.8035,0.0782,40.3300,67,97,297029
1.8280,0.0880,40.2300,67,97,297032
1.8133,0.0782,40.2600,67,97,297035
1.8573,0.0880,40.0300,67,97,297039
1.8133,0.0782,40.2300,67,97,297042
1.7986,0.0782,40.2300,67,97,297046
1.8035,0.0831,40.2000,67,97,297049
1.7889,0.0782,40.2300,67,97,297053
1.8426,0.0929,40.0600,67,97,297056
1.7889,0.0880,40.2300,67,97,297059
1.7498,0.0782,40.2600,67,97,297063
1.7351,0.0782,40.1300,67,97,297066
1.7498,0.0880,40.2600,67,97,297069
1.8035,0.0831,40.1600,67,97,297073
1.7889,0.0831,40.2300,67,97,297076
1.8133,0.0782,40.1600,67,97,297079
1.7840,0.0831,40.2000,67,97,297083
1.7742,0.0831,40.2300,67,97,297086
1.7889,0.0782,40.2300,67,97,297090
1.7840,0.0733,40.3300,67,97,297093
1.8084,0.0880,40.2000,67,97,297097
1.7644,0.0782,40.2000,67,97,297100
1.7693,0.0782,40.3000,67,97,297103
1.8035,0.0880,40.2000,67,97,297107
1.7840,0.1026,40.2300,67,97,297110
1.7937,0.0782,40.1000,67,97,297113
1.7595,0.0782,40.1300,67,97,297116
1.7253,0.0782,40.3300,67,97,297120
1.7400,0.0831,40.2300,67,97,297123
1.7449,0.0733,40.3300,67,97,297126
1.8035,0.0831,40.0000,67,97,297131
1.8182,0.0831,40.1600,67,97,297134
1.7742,0.0782,40.2300,67,97,297137
1.8035,0.0929,40.3000,67,97,297141
1.8133,0.0782,40.2000,67,97,297144
1.8524,0.0880,39.9300,67,97,297147
1.7937,0.1026,40.1600,67,97,297150
1.8182,0.0782,40.2600,67,97,297154
1.7986,0.0831,40.2600,67,97,297157
1.7889,0.0782,40.3000,67,97,297160
1.8328,0.0929,40.0300,67,97,297164
1.7693,0.0831,40.2600,67,97,297167
1.7400,0.0782,40.1600,67,97,297170
1.7449,0.0733,40.3300,67,97,297175
1.7644,0.0782,40.2600,67,97,297178
1.8377,0.0880,40.2300,67,97,297181
1.8280,0.0831,40.2300,67,97,297185
1.8280,0.0782,40.1300,67,97,297188
1.8084,0.0782,40.2600,67,97,297191
1.8035,0.0782,40.2600,67,97,297194
1.8328,0.0831,39.8900,67,97,297198
1.8035,0.0880,40.3300,67,97,297201
1.8377,0.0831,40.1300,67,97,297204
1.8035,0.0782,40.2000,67,97,297208
1.8035,0.0684,40.3000,67,97,297211
1.8035,0.0831,40.2600,67,97,297214
1.7693,0.0733,40.2300,67,97,297218
1.7840,0.0782,40.1000,67,97,297222
1.7449,0.0782,40.3300,67,97,297225
1.7351,0.0733,40.2300,67,97,297228
1.7840,0.0880,40.1600,67,97,297232
1.7986,0.0831,40.3300,67,97,297235
1.8475,0.0831,40.0600,67,97,297238
1.8328,0.0929,40.2300,67,97,297242
1.8280,0.0782,40.2300,67,97,297245
1.8475,0.1026,40.1600,67,97,297248
1.8182,0.0831,40.2600,67,97,297252
1.8622,0.0880,40.0000,67,97,297255
1.8182,0.0831,40.1300,67,97,297259
1.7986,0.0831,40.2300,67,97,297262
1.7889,0.0831,40.3300,67,97,297266
1.7889,0.0831,40.2300,67,97,297269
1.8573,0.0929,40.0300,67,97,297272
1.8280,0.1173,40.1600,67,97,297276
1.8426,0.0782,40.2300,67,97,297279
1.8671,0.0831,40.3000,67,97,297282
1.8622,0.0880,40.3000,67,97,297286
1.9013,0.0929,40.1300,67,97,297289
1.8671,0.1075,40.2000,67,97,297292
1.8622,0.0782,40.1300,67,97,297296
1.8475,0.0880,40.3000,67,97,297299
1.8573,0.0929,40.3000,67,97,297303
1.9110,0.0880,40.1000,67,97,297306
1.9062,0.0831,40.2600,67,97,297310
1.9404,0.0831,40.1000,67,97,297313
1.9257,0.0782,40.2000,67,97,297316
1.9355,0.0831,40.3000,67,97,297320
1.9648,0.0978,40.2300,67,97,297323
1.9159,0.0831,40.2600,67,97,297326
1.9257,0.0782,40.1000,67,97,297330
1.8622,0.0782,40.1600,67,97,297333
1.8377,0.0782,40.2300,67,97,297336
1.8280,0.0929,40.2300,67,97,297339
1.8035,0.0831,40.2300,67,97,297344
1.8328,0.0831,40.0600,67,97,297347
1.7986,0.0831,40.2300,67,97,297350
1.7986,0.0733,40.2600,67,97,297354
1.7937,0.0880,40.2300,67,97,297357
1.7498,0.0831,40.2300,67,97,297360
1.8084,0.0880,40.0300,67,97,297364
1.7986,0.0831,40.1600,67,97,297367
1.8035,0.0831,40.3600,67,97,297370
1.8231,0.0880,40.1000,67,97,297373
1.7937,0.1026,40.2000,67,97,297377
1.8182,0.0929,39.9600,68,97,297380
1.7644,0.0831,40.1600,68,97,297385
1.7302,0.0880,40.3300,68,97,297389
1.7400,0.0831,40.1300,68,97,297392
1.7253,0.0782,40.3000,68,97,297396
1.7449,0.0684,40.2300,68,97,297399
1.7644,0.0733,40.2000,68,97,297402
1.7693,0.0831,40.3300,68,97,297406
1.8035,0.0782,40.2000,68,97,297409
1.7693,0.0733,40.2300,68,97,297412
1.7595,0.0782,40.3000,68,97,297416
1.7546,0.0831,40.1600,68,97,297419
1.6911,0.0831,40.2000,68,97,297422
1.6667,0.1271,40.2000,68,97,297425
1.6276,0.0880,40.1300,68,97,297430
1.6667,0.0782,40.2600,68,97,297433
1.8231,0.0880,40.1300,68,97,297436
2.0039,0.0782,40.2300,68,97,297440
2.2825,0.0831,40.0000,68,97,297443
2.4682,0.0831,40.2000,68,97,297446
2.6051,0.0831,40.3300,68,97,297450
2.7224,0.0831,40.2300,68,97,297453
2.7810,0.0782,40.3600,68,97,297456
2.8837,0.1075,39.9600,68,97,297459
2.8397,0.0733,40.3000,68,97,297463
2.8348,0.0782,40.3600,68,97,297466
2.7908,0.0831,40.3000,68,97,297469
2.6979,0.0831,40.2300,68,97,297474
2.6393,0.0929,39.9600,68,97,297477
2.3949,0.0782,40.2300,68,97,297480
2.2092,0.0782,40.2300,68,97,297484
2.0039,0.0831,40.3300,68,97,297487
1.8377,0.1173,40.2300,68,97,297490
1.7644,0.0880,40.1300,68,97,297493
1.6716,0.1026,40.2000,68,97,297497
1.6520,0.0831,40.1600,68,97,297500
1.5689,0.0831,40.3300,68,97,297503
1.5249,0.0782,40.3000,68,97,297507
1.5152,0.0831,40.1300,68,97,297510
1.4761,0.0831,40.3000,68,97,297513
1.5103,0.0880,40.1600,68,97,297518
1.5103,0.0733,40.2300,68,97,297521
1.5249,0.0782,40.1600,68,97,297524
1.5445,0.0929,40.2600,68,97,297527
1.5347,0.0733,40.2600,68,97,297531
1.5396,0.0782,40.1000,68,97,297534
1.5054,0.0782,40.2300,68,97,297537
1.5200,0.0782,39.8000,68,97,297541
1.5689,0.0880,40.3000,68,97,297544
1.5836,0.0782,40.2600,68,97,297547
1.6276,0.0831,40.1000,68,97,297551
1.6227,0.0831,40.1300,68,97,297554
1.6373,0.0782,40.2300,68,97,297558
1.6276,0.1026,40.2000,68,97,297562
1.6325,0.0782,40.2600,68,97,297565
1.7058,0.0880,40.0000,68,97,297568
1.6960,0.0880,40.2000,68,97,297571
1.6862,0.0782,40.2300,68,97,297575
1.6911,0.0831,40.2300,68,97,297578
1.6813,0.0782,40.3600,68,97,297581
1.7498,0.0929,40.0300,68,97,297585
1.6569,0.0831,40.2000,68,97,297588
1.6667,0.0782,40.2300,68,97,297591
1.6911,0.0831,40.2300,68,97,297595
1.7155,0.0880,40.3600,68,97,297598
1.7644,0.0929,40.1300,68,97,297602
1.7498,0.0831,40.1600,68,97,297605
1.7693,0.0831,40.1300,68,97,297609
1.7302,0.0831,40.3000,68,97,297612
1.7107,0.0782,40.3000,68,97,297615
1.7449,0.0880,40.1000,68,97,297619
1.7449,0.0831,40.2300,68,97,297622
1.7840,0.0880,40.1300,68,97,297625
1.7693,0.0782,40.1600,68,97,297629
1.7693,0.0782,40.2600,68,97,297632
1.7889,0.0831,40.2000,68,97,297635
1.7644,0.0831,40.3000,68,97,297638
1.7986,0.0880,40.1300,68,97,297643
1.7889,0.0782,40.1300,68,97,297646
1.7693,0.0782,40.2300,68,97,297649
1.7742,0.0880,40.1600,68,97,297653
1.7791,0.0782,40.2300,68,97,297656
1.8182,0.0831,40.0000,68,97,297659
1.7889,0.0782,40.2600,68,97,297663
1.7693,0.0733,40.2300,68,97,297666
1.7840,0.0880,40.1600,68,97,297669
