ecg,gsr,temp,hr,spo2,timest
1.8475,0.3030,38.3600,96,93,193259
1.8426,0.2786,38.4900,96,93,193262
1.8524,0.2835,38.4600,96,93,193265
1.8475,0.2786,38.4900,96,93,193269
1.9110,0.3030,38.2400,96,93,193272
1.8866,0.2835,38.4300,96,93,193275
1.8964,0.2737,38.4600,96,93,193280
1.9062,0.2786,38.4900,96,93,193283
1.8964,0.2786,38.4000,96,93,193286
1.9453,0.3275,38.3600,96,93,193289
1.8964,0.2835,38.4300,96,93,193293
1.9013,0.2786,38.4000,96,93,193296
1.9013,0.2786,38.4900,96,93,193299
1.9110,0.2786,38.6200,96,93,193303
1.9697,0.2933,38.3000,96,93,193306
1.9697,0.2786,38.4600,96,93,193309
2.0137,0.2884,38.4000,96,93,193313
1.9795,0.2786,38.4600,96,93,193316
1.9795,0.2786,38.4900,96,93,193319
2.0235,0.2786,38.3600,96,93,193324
1.9941,0.2786,38.4600,96,93,193327
1.9892,0.2835,38.3000,96,93,193330
1.9110,0.2737,38.4600,96,93,193333
1.8622,0.2786,38.4900,96,93,193337
1.8426,0.3030,38.3600,96,93,193340
1.8084,0.2786,38.4900,96,93,193343
1.8377,0.2884,38.2400,96,93,193347
1.8035,0.2737,38.4600,96,93,193350
1.8035,0.2786,38.4600,96,93,193353
1.8084,0.2835,38.4300,96,93,193357
1.7791,0.2688,38.4900,96,93,193360
1.8035,0.2933,38.1500,96,93,193363
1.7742,0.2835,38.4000,96,93,193368
1.7937,0.2688,38.4600,96,93,193371
1.8231,0.2835,38.4600,96,93,193374
1.8377,0.2786,38.4900,96,93,193377
1.9110,0.2981,38.6500,96,93,193381
2.1750,0.2884,38.3300,96,93,193384
2.2043,0.2884,38.4900,96,93,193388
2.2776,0.2688,38.3600,96,93,193391
2.2972,0.2786,38.4600,96,93,193394
2.3607,0.2786,38.4900,96,93,193398
2.4389,0.2688,38.4000,96,93,193401
2.4927,0.2786,38.4900,96,93,193404
2.6197,0.2786,38.3300,96,93,193409
2.7419,0.2786,38.4600,96,93,193412
2.9619,0.2786,38.4600,96,93,193415
3.1965,0.2786,38.4000,96,93,193419
3.2454,0.2786,38.4900,96,93,193422
3.2014,0.2933,38.2400,96,93,193425
2.8886,0.2884,38.4300,96,93,193428
2.4633,0.2786,38.4900,96,93,193432
2.0088,0.2884,38.4600,96,93,193435
1.5396,0.2786,38.4900,96,93,193438
1.2561,0.2884,38.2100,96,93,193442
1.0704,0.2835,38.4000,96,93,193445
1.0215,0.2688,38.4900,96,93,193448
1.0508,0.2835,38.4300,96,93,193453
1.1193,0.2737,38.4900,96,93,193456
1.2463,0.2981,38.2400,96,93,193459
1.2757,0.2835,38.4000,96,93,193462
1.3245,0.2835,38.4000,96,93,193466
1.3539,0.2786,38.5500,96,93,193469
1.3930,0.2786,38.4900,96,93,193472
1.4321,0.2933,38.4900,96,93,193476
1.4516,0.2737,38.4900,96,93,193479
1.4858,0.2835,38.3300,96,93,193482
1.4858,0.2737,38.5200,96,93,193486
1.4516,0.2786,38.4900,96,93,193489
1.4761,0.2981,38.3300,96,93,193492
1.4663,0.2835,38.4600,96,93,193497
1.5005,0.2933,38.3300,96,93,193500
1.4809,0.2737,38.4600,96,93,193503
1.5005,0.2786,38.5800,96,93,193507
1.5347,0.2786,38.3600,96,93,193510
1.5396,0.2786,38.4900,96,93,193513
1.5787,0.2835,38.3600,96,93,193516
1.5640,0.2786,38.4300,96,93,193520
1.5640,0.2786,38.4900,96,93,193523
1.5836,0.3079,38.4000,96,93,193526
1.5982,0.2737,38.4900,96,93,193530
1.6129,0.2884,38.2400,96,93,193533
1.5787,0.2737,38.4300,96,93,193537
1.5836,0.2688,38.4900,96,93,193541
1.5836,0.3079,38.4300,96,93,193544
1.5738,0.2786,38.4900,96,93,193547
1.6227,0.2933,38.2100,96,93,193550
1.5836,0.2786,38.4300,96,93,193554
1.5738,0.2737,38.4900,96,93,193557
1.5836,0.2835,38.4300,96,93,193560
1.5934,0.2786,38.4900,96,93,193564
1.6373,0.3079,38.3000,96,93,193567
1.6080,0.2835,38.4300,96,93,193570
1.6031,0.2786,38.4300,96,93,193574
1.5934,0.2737,38.4900,96,93,193577
1.6031,0.2688,38.4600,96,93,193581
1.6325,0.3128,38.3600,96,93,193585
1.6031,0.2786,38.4900,96,93,193588
1.6227,0.2835,38.1800,96,93,193591
1.5836,0.2835,38.4900,96,93,193595
1.5836,0.2786,38.5800,96,93,193598
1.5982,0.2786,38.4000,96,93,193601
1.6080,0.2786,38.4900,96,93,193604
1.6422,0.2688,38.3600,96,93,193608
1.6325,0.2835,38.4900,96,93,193611
1.6471,0.2786,38.4900,96,93,193614
1.6813,0.2835,38.3300,96,93,193618
1.6764,0.2688,38.4900,96,93,193622
1.7204,0.2835,37.7100,96,93,193625
1.7204,0.2884,38.4000,96,93,193629
1.7253,0.2786,38.4900,96,93,193632
1.7644,0.3226,38.4000,96,93,193635
1.7693,0.2737,38.4900,96,93,193639
1.8231,0.2884,38.2100,96,93,193642
1.8035,0.2786,38.3300,96,93,193645
1.8035,0.2688,38.4900,96,93,193648
1.8280,0.2835,38.4600,96,93,193652
1.8377,0.3030,38.4900,96,93,193655
1.9062,0.2884,38.2400,96,93,193658
1.8817,0.2835,38.4000,96,93,193662
1.9257,0.2835,38.4000,96,93,193666
1.8866,0.2786,38.4900,96,93,193669
1.8866,0.2737,38.4900,96,93,193673
1.9306,0.2933,37.6200,96,93,193676
1.9110,0.2786,38.4600,96,93,193679
1.9453,0.2786,38.4300,96,93,193682
1.9355,0.2786,38.5200,96,93,193686
1.9404,0.2737,38.4900,96,93,193689
1.9697,0.2884,38.3000,96,93,193692
1.9208,0.2786,38.4600,96,93,193696
1.9306,0.2884,38.4300,96,93,193699
1.8866,0.2737,38.4900,96,93,193702
1.8866,0.2835,38.4900,96,93,193707
1.9013,0.2835,38.3600,96,93,193710
1.8817,0.2786,38.4300,96,93,193713
1.9159,0.3030,38.3000,96,93,193717
1.8768,0.2786,38.4300,96,93,193720
1.8719,0.2786,38.4300,96,93,193723
1.8866,0.2884,38.4300,96,93,193726
1.8426,0.2786,38.4900,96,93,193730
1.8671,0.2884,38.2700,96,93,193733
1.8280,0.2737,38.4300,96,93,193736
1.8328,0.2786,38.4300,96,93,193740
1.8328,0.2933,38.4000,96,93,193743
1.8035,0.2786,38.4900,96,93,193746
1.8377,0.2835,38.1800,96,93,193751
1.7889,0.2835,38.4000,96,93,193754
1.7693,0.2737,38.4600,96,93,193757
1.7742,0.2835,38.4900,96,93,193761
1.7840,0.2786,38.4600,96,93,193764
1.8426,0.2933,38.3000,96,93,193767
1.8084,0.2884,38.4300,96,93,193770
1.8035,0.2786,38.4000,96,93,193774
1.7986,0.2835,38.4600,96,93,193777
1.8084,0.2786,38.4900,96,93,193780
1.8475,0.2884,38.4000,96,93,193784
1.8280,0.2786,38.4300,96,93,193787
1.8377,0.2786,38.3600,96,93,193790
1.7986,0.2786,38.4900,96,93,193795
1.7742,0.2737,38.4900,96,93,193798
1.7693,0.2884,38.4000,96,93,193801
1.7498,0.2835,38.4600,96,93,193805
1.7742,0.2884,38.3600,96,93,193808
1.7595,0.2737,38.4600,96,93,193811
1.7791,0.2688,38.4900,96,93,193814
1.8133,0.2884,38.5800,96,93,193818
1.8133,0.2835,38.4900,96,93,193821
1.8377,0.2835,38.2700,96,93,193824
1.8280,0.2835,38.3600,96,93,193828
1.8280,0.2688,38.4900,96,93,193831
1.8671,0.2981,38.4000,96,93,193835
1.8377,0.2688,38.4600,96,93,193839
1.8866,0.2884,38.2100,96,93,193842
1.8573,0.2835,38.4000,96,93,193845
1.8524,0.2786,38.4900,96,93,193849
1.8671,0.2835,38.4300,96,93,193852
1.8475,0.2884,38.4900,96,93,193855
1.8964,0.2688,38.2100,96,93,193858
1.8573,0.2786,38.3300,96,93,193862
1.8768,0.2737,38.4300,96,93,193865
1.8475,0.2835,38.4900,96,93,193868
1.8426,0.2835,38.4900,96,93,193872
1.8817,0.2933,38.3600,96,93,193875
1.8475,0.2981,38.4900,96,93,193879
1.8524,0.2786,38.3600,96,93,193883
1.8328,0.2884,38.4900,96,93,193886
1.8426,0.2737,38.4900,96,93,193889
1.8817,0.2884,38.3000,96,93,193893
1.8622,0.2933,38.5200,96,93,193896
1.8915,0.2835,38.3300,96,93,193899
1.8719,0.2786,38.4600,96,93,193902
1.8866,0.2737,38.4900,96,93,193906
1.9013,0.2835,38.5200,96,93,193909
1.8915,0.2786,38.4900,96,93,193912
1.9257,0.2835,38.3300,96,93,193916
1.9110,0.2786,38.5200,96,93,193920
1.9208,0.2835,38.4900,96,93,193923
1.9404,0.2835,38.3600,96,93,193927
1.9257,0.2786,38.4900,96,93,193930
1.9501,0.2737,38.2400,96,93,193933
1.9013,0.2786,38.5500,96,93,193937
1.8866,0.2835,38.5500,96,93,193940
1.8817,0.2835,38.4600,96,93,193943
1.8377,0.2981,38.2700,96,93,193946
1.8671,0.2933,38.2100,96,93,193950
1.8280,0.2835,38.4300,96,93,193953
1.8084,0.2786,38.4900,96,93,193956
1.8084,0.2835,38.4900,96,93,193960
1.7889,0.2786,38.4900,96,93,193964
1.8231,0.2981,38.3000,96,93,193967
1.7693,0.2884,38.4300,96,93,193971
1.7498,0.2737,38.4900,96,93,193974
1.7351,0.2786,38.4600,96,93,193977
1.7302,0.2786,38.4600,96,93,193980
1.7693,0.2933,38.3600,96,93,193984
1.7449,0.2835,38.4600,96,93,193987
1.7449,0.2786,38.3600,96,93,193990
1.7546,0.2786,38.4600,97,93,193994
1.7204,0.2786,38.5200,97,93,193997
1.7204,0.2786,38.5200,97,93,194001
1.7400,0.2786,38.3600,97,93,194004
1.7253,0.2786,38.3600,97,93,194008
1.7791,0.2981,38.2400,97,93,194012
1.7840,0.2835,38.4000,97,93,194015
1.8133,0.2786,38.4900,97,93,194018
1.8768,0.2835,38.4300,97,93,194022
1.9453,0.2786,38.4900,97,93,194025
2.1212,0.2981,38.2100,97,93,194028
2.2434,0.2786,38.4300,97,93,194032
2.4389,0.2835,38.4600,97,93,194035
2.6784,0.2688,38.4600,97,93,194038
2.9130,0.2786,38.6200,97,93,194041
3.1965,0.3079,38.3000,97,93,194045
3.2356,0.2835,38.4300,97,93,194049
3.1476,0.2786,38.4300,97,93,194052
2.8935,0.2884,38.4600,97,93,194056
2.5709,0.2786,38.4900,97,93,194059
2.2923,0.2884,38.4000,97,93,194062
1.9795,0.2835,38.4600,97,93,194066
1.7693,0.2786,38.3600,97,93,194069
1.5836,0.2786,38.4600,97,93,194072
1.4418,0.2786,38.4900,97,93,194076
1.3881,0.2884,38.3300,97,93,194079
1.3196,0.2835,38.4900,97,93,194082
1.3050,0.2884,38.4000,97,93,194085
1.2757,0.2737,38.5200,97,93,194089
1.2805,0.2737,38.4900,97,93,194093
1.3050,0.2835,38.3600,97,93,194096
1.3343,0.2786,38.4900,97,93,194100
1.3783,0.3079,38.3000,97,93,194103
1.3783,0.2835,38.4600,97,93,194106
1.3881,0.2786,38.5800,97,93,194110
1.4076,0.2786,38.4000,97,93,194113
1.4125,0.2786,38.4600,97,93,194116
1.4614,0.2884,38.2400,97,93,194119
1.4907,0.2737,38.4600,97,93,194123
1.4907,0.2786,38.4900,97,93,194126
1.5103,0.2933,38.4600,97,93,194129
1.5103,0.2786,38.5800,97,93,194134
1.5543,0.2835,38.1500,97,93,194137
1.5298,0.2835,38.5200,97,93,194140
1.5298,0.2737,38.4600,97,93,194144
1.5445,0.2835,38.4600,97,93,194147
1.5494,0.2786,38.6200,97,93,194150
1.6080,0.2933,38.2700,97,93,194154
1.5885,0.2884,38.4300,97,93,194157
1.5885,0.2786,38.3600,97,93,194160
1.5885,0.2786,38.4900,97,93,194163
1.5934,0.2786,38.4900,97,93,194167
1.6325,0.2884,38.3600,97,93,194170
1.6178,0.2786,38.4900,97,93,194173
1.6422,0.2884,38.4000,97,93,194178
1.6178,0.2835,38.4900,97,93,194181
1.6227,0.2786,38.6800,97,93,194184
1.6325,0.2835,38.4000,97,93,194188
1.6276,0.2786,38.4900,97,93,194191
1.6569,0.2835,38.4600,97,93,194194
1.6325,0.2786,38.4600,97,93,194198
1.6325,0.2786,38.5200,97,93,194201
1.6520,0.2835,38.3600,97,93,194204
1.6422,0.2737,38.4600,97,93,194208
1.6862,0.2835,38.2700,97,93,194211
1.6667,0.2835,38.4000,97,93,194214
1.6667,0.3128,38.4900,97,93,194217
1.6862,0.2884,38.4300,97,93,194222
1.6813,0.2786,38.5200,97,93,194225
1.7400,0.2933,38.2100,97,93,194228
1.6960,0.2786,38.4600,97,93,194232
1.7009,0.2688,38.5200,97,93,194235
1.7058,0.2835,38.4600,97,93,194238
1.7009,0.2786,37.9300,97,93,194242
1.7400,0.2981,38.2400,97,93,194245
1.7058,0.2835,38.4300,97,93,194248
1.7107,0.2737,38.6800,97,93,194251
1.7155,0.2786,38.4600,97,93,194255
1.7155,0.2786,38.4900,97,93,194258
1.7498,0.3226,38.3300,97,93,194262
1.7204,0.2835,38.4600,97,93,194266
1.7302,0.2786,38.3300,97,93,194269
1.7058,0.2786,38.4300,97,93,194272
1.7107,0.2786,38.4600,97,93,194276
1.7351,0.2981,38.3000,97,93,194279
1.7058,0.2786,38.5200,97,93,194282
1.7302,0.2884,38.4000,97,93,194286
1.7253,0.2737,38.4900,97,93,194289
1.7302,0.2737,38.5200,97,93,194292
1.7400,0.2688,38.3600,97,93,194296
1.7449,0.2786,38.4900,97,93,194299
1.7742,0.2835,38.4000,97,93,194302
1.7546,0.2737,38.4600,97,93,194306
1.7644,0.2786,38.4600,97,93,194310
1.7840,0.2786,38.4000,97,93,194313
1.7693,0.2737,38.4900,97,93,194316
1.8182,0.2688,38.2400,97,93,194320
1.7840,0.2688,38.4600,97,93,194323
1.7889,0.2688,38.4900,97,93,194326
1.8084,0.2835,38.3300,97,93,194330
1.7937,0.2737,38.5200,97,93,194333
1.8475,0.2884,38.1800,97,93,194336
1.8182,0.2835,38.3600,97,93,194339
1.8035,0.2835,38.4900,97,93,194343
1.8084,0.2835,38.6200,97,93,194347
1.7986,0.2688,38.4900,97,93,194350
1.8475,0.2884,38.2700,97,93,194354
1.8084,0.2933,38.4000,97,93,194357
1.7937,0.2786,38.4000,97,93,194360
1.7889,0.2688,38.4900,97,93,194364
1.7840,0.2786,38.4600,97,93,194367
1.8133,0.2933,38.3600,97,93,194370
1.7889,0.2835,38.4000,97,93,194374
1.7986,0.2835,38.3300,97,93,194377
1.7742,0.2786,38.4900,97,93,194380
1.7742,0.2737,38.4900,97,93,194383
1.7937,0.2688,38.4300,97,93,194387
1.7742,0.2786,38.4300,97,93,194391
1.7889,0.2981,38.3600,97,93,194394
1.7546,0.2786,38.5500,97,93,194398
1.7498,0.2835,38.4600,97,93,194401
1.7742,0.2884,38.3600,97,93,194404
1.7449,0.2835,38.5500,97,93,194408
1.7791,0.2835,38.2700,97,93,194411
1.7546,0.2786,38.4000,97,93,194414
1.7498,0.2737,38.4600,97,93,194418
1.7644,0.3372,38.4300,97,93,194421
1.7595,0.2835,38.4900,97,93,194424
1.7937,0.2884,38.2400,97,93,194427
1.7498,0.2786,38.4000,97,93,194432
1.7498,0.2786,38.4900,97,93,194435
1.7595,0.2835,38.4600,97,93,194438
1.7498,0.3030,38.5500,97,93,194442
1.8035,0.3030,38.2100,97,93,194445
1.7546,0.2786,38.3600,97,93,194448
1.7546,0.2688,38.4300,97,93,194452
1.7546,0.2835,38.4900,97,93,194455
1.7498,0.2688,38.4900,97,93,194458
1.7986,0.2933,38.3300,97,93,194462
1.7742,0.2835,38.3300,97,93,194465
1.7791,0.2786,38.4000,97,93,194468
1.7693,0.2786,38.5800,97,93,194471
1.7791,0.3177,38.4600,97,93,194476
1.8182,0.2884,38.3300,97,93,194479
1.7937,0.2835,38.5500,97,93,194482
1.8182,0.2835,38.3600,97,93,194486
1.7937,0.2786,38.7100,97,93,194489
1.8035,0.2835,38.4900,97,93,194492
1.8182,0.2835,38.4600,97,93,194496
1.8084,0.2786,38.4600,97,93,194499
1.8622,0.2835,38.3300,97,93,194502
1.8084,0.2786,38.5200,97,93,194506
1.8231,0.2786,38.4600,97,93,194509
1.8524,0.2835,38.4000,97,93,194512
1.8475,0.2786,38.4900,97,93,194515
1.8866,0.3128,38.2400,97,93,194520
1.8622,0.2786,38.5500,97,93,194523
1.8719,0.2835,38.5200,97,93,194526
1.8964,0.2835,38.4300,97,93,194530
1.8866,0.2786,38.4900,97,93,194533
1.9550,0.2933,38.1800,97,93,194536
1.9453,0.2835,38.4000,97,93,194540
1.9453,0.2786,38.4600,97,93,194543
1.9501,0.2835,38.4900,97,93,194546
1.9404,0.2786,38.4600,97,93,194550
1.9844,0.2981,38.3000,97,93,194553
1.9306,0.2884,38.4300,97,93,194556
1.9013,0.2786,38.4000,97,93,194561
1.8573,0.2786,38.3300,97,93,194564
1.8328,0.2737,38.4600,97,93,194567
1.8524,0.2884,38.3600,97,93,194570
1.8231,0.2835,38.4300,97,93,194574
1.8377,0.2786,38.3600,97,93,194577
1.8084,0.2786,38.4600,97,93,194580
1.8084,0.2835,38.5200,97,93,194584
1.8231,0.2786,38.4300,97,93,194587
1.8035,0.2786,38.4600,97,93,194590
1.8182,0.2933,38.4000,97,93,194594
1.7791,0.2786,38.5500,97,93,194597
1.7693,0.2786,38.4900,97,93,194600
1.7742,0.2835,38.3600,97,93,194605
1.7400,0.2835,38.5500,97,93,194608
1.7302,0.2786,38.4900,97,93,194612
1.7791,0.2933,38.1800,97,93,194615
1.7400,0.2786,38.3300,97,93,194618
1.7351,0.2688,38.4300,97,93,194621
1.7400,0.2688,38.4900,97,93,194625
1.7546,0.2786,38.4900,97,93,194628
1.8280,0.3226,38.2700,97,93,194631
1.8328,0.2933,38.4300,97,93,194635
1.8866,0.2786,38.4000,97,93,194638
1.9648,0.2933,38.4600,97,93,194641
2.0821,0.2786,38.4900,97,93,194646
2.2678,0.2884,38.3600,97,93,194649
2.4340,0.2884,38.4300,97,93,194652
2.6686,0.2835,38.3600,97,93,194655
2.8739,0.2835,38.4900,97,93,194659
3.0694,0.2786,38.4900,97,93,194662
3.2160,0.2933,38.3300,97,93,194665
3.1085,0.2835,38.4900,97,93,194669
2.9326,0.2884,38.3600,97,93,194672
2.5953,0.3030,38.4600,97,93,194675
2.3167,0.2786,38.4900,97,93,194679
2.0674,0.2835,38.3600,97,93,194682
1.8426,0.2835,38.4900,97,93,194685
1.6960,0.2786,38.3000,97,93,194690
1.5445,0.2786,38.4600,97,93,194693
1.4565,0.2688,38.5200,97,93,194696
1.4174,0.2933,38.4300,97,93,194699
1.3685,0.2786,38.3300,97,93,194703
1.3734,0.3177,38.2400,97,93,194706
1.3343,0.2737,38.4000,97,93,194709
1.3490,0.2737,38.4600,97,93,194713
1.3734,0.2835,38.4300,97,93,194716
1.3978,0.2786,38.5200,97,93,194719
1.4565,0.2981,38.2100,97,93,194723
1.4516,0.2835,38.3600,97,93,194726
1.4565,0.2737,38.4300,97,93,194729
1.4761,0.3177,38.4600,97,93,194734
1.4907,0.2688,38.4900,97,93,194737
1.5494,0.2884,38.3000,97,93,194740
1.5396,0.3079,38.4900,97,93,194743
1.5738,0.2835,38.3600,97,93,194747
1.5396,0.2786,38.5200,97,93,194750
1.5396,0.2737,38.4600,97,93,194753
1.5738,0.2884,38.3600,97,93,194757
1.5494,0.2786,38.4300,97,93,194760
1.6080,0.2884,38.3600,97,93,194763
1.5396,0.2786,38.4900,97,93,194767
1.5591,0.2786,38.4900,97,93,194770
1.5689,0.2688,38.4300,97,93,194774
1.5689,0.2786,38.4300,97,93,194778
1.5982,0.2884,38.3600,97,93,194781
1.5836,0.2786,38.6200,97,93,194784
1.5934,0.2933,38.4600,97,93,194787
1.6178,0.2884,38.4000,97,93,194791
1.6031,0.2737,38.4600,97,93,194794
1.6422,0.2835,38.2400,97,93,194797
1.6227,0.2835,38.4000,97,93,194801
1.6129,0.2737,38.4900,97,93,194804
1.6276,0.2835,38.6200,97,93,194807
1.6129,0.2835,38.5200,97,93,194811
1.6618,0.2933,38.1800,97,93,194814
1.6325,0.2884,38.4000,97,93,194818
1.6618,0.2737,38.4900,97,93,194822
1.6471,0.2835,38.4600,97,93,194825
1.6471,0.2786,38.4600,97,93,194828
1.7058,0.3030,38.2400,97,93,194831
1.6716,0.2835,38.4300,97,93,194835
1.6716,0.2786,38.4000,97,93,194838
1.6667,0.2688,38.4600,97,93,194841
1.6667,0.2786,38.4900,97,93,194845
1.6911,0.2884,38.3600,97,93,194848
1.6764,0.2835,38.4600,97,93,194851
1.6911,0.2786,38.3300,97,93,194855
1.6764,0.2786,38.4600,97,93,194859
1.6862,0.2786,38.5500,97,93,194862
1.7546,0.2933,38.3000,97,93,194866
1.7107,0.2786,38.4600,97,93,194869
1.7400,0.2884,38.3600,97,93,194872
1.7498,0.2737,38.4600,97,93,194875
1.7351,0.2786,38.5200,97,93,194879
1.7498,0.2786,38.4300,97,93,194882
1.7449,0.2786,38.4900,97,93,194885
1.7693,0.2786,38.3000,97,93,194889
1.7742,0.2835,38.4600,97,93,194892
1.7693,0.2786,38.5200,97,93,194895
1.8035,0.2933,38.4000,97,93,194899
1.8084,0.2786,38.4900,97,93,194903
1.8426,0.2884,38.2400,97,93,194906
1.8035,0.2737,38.4300,97,93,194910
1.8084,0.2786,38.4900,97,93,194913
1.8231,0.2835,38.5800,97,93,194916
1.8426,0.2737,38.4900,97,93,194919
1.8768,0.2884,38.1800,97,93,194923
1.8524,0.2835,38.4900,97,93,194926
1.8377,0.2786,38.5500,97,93,194929
1.8328,0.2835,38.4600,97,93,194933
1.8377,0.2786,38.4600,97,93,194936
1.8964,0.2933,38.2700,97,93,194939
1.8573,0.2884,38.4900,97,93,194944
1.8524,0.2835,38.4000,97,93,194947
1.8377,0.2786,38.4600,97,93,194950
1.8377,0.2786,38.7100,97,93,194954
1.8671,0.2933,38.3600,97,93,194957
1.8328,0.2786,38.4600,97,93,194960
1.8475,0.2786,38.4300,97,93,194963
1.8182,0.2786,38.4900,97,93,194967
1.8133,0.2835,38.4900,97,93,194970
1.8280,0.2786,38.4000,97,93,194973
1.8133,0.2786,37.6800,97,93,194977
1.8377,0.2884,38.3600,97,93,194980
1.7937,0.2786,38.5500,97,93,194983
1.7889,0.3030,38.5500,97,93,194988
1.8084,0.2884,38.3600,97,93,194991
1.7742,0.2786,38.6500,97,93,194994
1.8035,0.2835,38.2700,97,93,194998
1.7889,0.2835,38.3600,97,93,195001
1.7791,0.2835,38.5200,97,93,195004
1.7986,0.2884,38.4300,97,93,195007
1.7791,0.2786,38.5200,97,93,195011
1.8182,0.2786,38.2100,97,93,195014
1.7742,0.2786,38.3600,97,93,195017
1.7693,0.2786,38.4900,97,93,195021
1.7693,0.2835,38.4600,97,93,195024
1.7498,0.2786,38.4000,97,93,195027
1.7937,0.3079,38.2400,97,93,195032
1.7498,0.2835,38.4000,97,93,195035
1.7449,0.2737,38.4600,97,93,195038
1.7400,0.2835,38.4600,97,93,195042
1.7449,0.2786,38.4600,97,93,195045
1.7937,0.2884,38.3600,97,93,195048
1.7693,0.2835,38.5200,97,93,195051
1.7742,0.2835,38.3300,97,93,195055
1.7546,0.2786,38.4600,97,93,195058
1.7693,0.2933,38.4900,97,93,195061
1.8035,0.2884,38.3300,97,93,195065
1.7791,0.2786,38.5500,97,93,195068
1.8475,0.2688,38.3600,97,93,195072
1.7937,0.2737,38.4600,97,93,195076
1.8084,0.2835,38.4900,97,93,195079
1.8182,0.2835,38.4000,97,93,195082
1.7937,0.2884,38.5800,97,93,195086
1.8084,0.2786,38.3000,97,93,195089
1.7791,0.2786,38.4600,97,93,195092
1.7791,0.2737,38.5200,97,93,195095
1.7986,0.2835,38.4000,97,93,195099
1.7889,0.2786,38.5200,97,93,195102
1.8280,0.3128,38.2700,97,93,195105
1.7937,0.2737,38.4600,97,93,195109
1.7986,0.2786,38.5200,97,93,195112
1.8084,0.2884,38.4300,97,93,195116
1.8084,0.2786,38.4900,97,93,195120
1.8671,0.2933,38.1800,97,93,195123
1.8377,0.2688,38.3300,97,93,195126
1.8280,0.2737,38.5200,97,93,195130
1.8426,0.2835,38.4600,97,93,195133
1.8475,0.2786,38.7100,97,93,195136
1.9159,0.2933,38.2400,97,93,195139
1.8964,0.2835,38.4000,97,93,195143
1.8964,0.2786,38.3600,97,93,195146
1.9013,0.2835,37.8000,97,93,195149
1.9159,0.2786,38.4600,97,93,195153
1.9648,0.2688,38.3600,97,93,195156
1.9550,0.2786,38.4600,97,93,195160
1.9746,0.2835,38.3300,97,93,195164
1.9355,0.2786,38.4900,97,93,195167
1.9257,0.2737,38.4900,97,93,195170
1.9208,0.2835,38.4000,97,93,195174
1.8915,0.2786,38.4900,97,93,195177
1.8964,0.2835,38.4000,97,93,195180
1.8524,0.2786,38.4900,97,93,195183
1.8328,0.2786,38.4600,97,93,195187
1.8475,0.2884,38.3600,97,93,195190
1.8133,0.2786,38.4900,97,93,195193
1.8475,0.2835,38.2700,97,93,195197
1.8231,0.2786,38.3600,97,93,195201
1.7937,0.2835,37.7100,97,93,195204
1.8133,0.2688,38.4300,97,93,195208
1.7742,0.2786,38.6200,97,93,195211
1.8182,0.3030,38.2100,97,93,195214
1.7889,0.2981,38.3600,97,93,195218
1.7644,0.2688,38.4300,97,93,195221
1.7742,0.2786,38.2100,97,93,195225
1.7644,0.2835,38.4900,97,93,195228
1.7595,0.2786,38.2700,97,93,195231
1.7840,0.2933,38.4000,97,93,195235
1.7693,0.2786,38.4600,97,93,195238
1.7840,0.2835,38.3600,97,93,195241
1.7693,0.2835,38.4900,97,93,195245
1.7937,0.2786,38.4900,97,93,195249
1.8475,0.2884,38.3300,97,93,195252
1.8524,0.2835,38.4600,97,93,195255
1.9501,0.2786,38.3600,97,93,195259
2.0088,0.2786,38.4000,97,93,195262
2.1408,0.2835,38.4600,97,93,195265
2.3167,0.2835,38.3600,97,93,195269
2.4927,0.2835,38.4600,97,93,195272
2.7664,0.2835,38.2700,97,93,195275
2.9521,0.2786,38.4300,97,93,195278
3.1036,0.2737,38.4600,97,93,195282
3.1623,0.2688,38.4000,97,93,195286
2.9912,0.2786,38.5200,97,93,195289
2.7859,0.2884,38.2100,97,93,195293
2.4242,0.2786,38.4600,97,93,195296
2.1554,0.2786,38.4900,97,93,195299
1.9306,0.2786,38.4600,97,93,195303
1.7253,0.2786,38.4600,97,93,195306
1.6373,0.2884,38.2400,97,93,195309
1.4614,0.2835,38.4300,97,93,195313
1.3734,0.2786,38.4300,97,93,195316
1.3343,0.2786,38.4600,97,93,195319
1.3050,0.2981,38.4900,97,93,195322
1.3196,0.2933,38.3000,97,93,195326
1.3050,0.2835,38.5500,97,93,195330
1.3245,0.2786,38.3600,97,93,195333
1.3343,0.2786,38.4900,97,93,195337
1.3636,0.2786,38.4300,97,93,195340
1.4076,0.2688,38.4000,97,93,195343
1.4076,0.2835,38.5200,97,93,195347
1.4516,0.2835,38.4300,97,93,195350
1.4614,0.2786,38.4900,97,93,195353
1.4907,0.2786,38.5500,97,93,195357
1.5152,0.2933,38.4000,97,93,195360
1.5249,0.2835,38.4900,97,93,195363
1.5494,0.2786,38.4000,97,93,195366
1.5347,0.2786,38.4900,97,93,195371
1.5347,0.2786,38.4900,97,93,195374
1.5640,0.2884,38.3300,97,93,195377
1.5885,0.2786,38.4900,97,93,195381
1.5982,0.2835,38.4000,97,93,195384
1.5885,0.2835,38.3600,97,93,195387
1.6276,0.2786,38.4900,97,93,195391
1.6178,0.2884,38.3600,97,93,195394
1.6129,0.2786,38.4900,97,93,195397
1.6667,0.2884,38.2100,97,93,195400
1.6325,0.2737,38.4000,97,93,195404
1.6667,0.2737,38.5200,97,93,195407
1.6422,0.2835,38.4600,97,93,195410
1.6373,0.3079,38.4900,97,93,195415
1.6960,0.2884,38.3000,97,93,195418
1.6422,0.2884,38.6200,97,93,195421
1.6325,0.3030,38.4300,97,93,195425
1.6276,0.2688,38.4900,97,93,195428
1.6325,0.2786,38.4600,97,93,195431
1.6667,0.2933,38.3600,97,93,195435
1.6422,0.2835,38.4900,97,93,195438
1.6569,0.2786,38.4300,97,93,195441
1.6422,0.2786,37.7100,97,93,195445
1.6471,0.2786,38.4900,97,93,195448
1.6764,0.2884,38.3300,97,93,195451
1.6520,0.2884,38.5500,97,93,195454
1.6911,0.2884,38.3600,97,93,195459
1.6764,0.2737,38.4000,97,93,195462
1.6911,0.2835,38.5200,97,93,195465
1.7058,0.2835,38.4600,97,93,195469
1.6862,0.3030,38.4900,97,93,195472
1.7302,0.2835,38.3000,97,93,195475
1.6764,0.2786,38.8100,97,93,195479
1.6813,0.2835,38.4900,97,93,195482
1.7107,0.2884,38.4300,97,93,195485
1.7009,0.2786,38.4900,97,93,195488
1.7351,0.2884,38.2400,97,93,195492
1.6960,0.2786,38.4600,97,93,195495
1.7204,0.2786,38.4900,97,93,195499
1.7498,0.2835,38.4600,97,93,195503
1.7400,0.2884,38.4900,97,93,195506
1.7937,0.2933,38.2100,97,93,195509
1.7546,0.2835,38.3300,97,93,195513
1.7546,0.2737,38.4600,97,93,195516
1.7693,0.2835,38.4900,97,93,195519
1.7840,0.2786,38.3600,97,93,195523
1.8426,0.2981,38.3000,97,93,195526
1.8084,0.2884,38.4300,97,93,195529
1.8084,0.2786,38.5200,97,93,195532
1.8035,0.2835,38.4600,97,93,195536
1.8133,0.2786,38.4900,97,93,195539
1.8622,0.2884,38.4600,97,93,195543
1.8524,0.2835,38.4300,97,93,195547
1.8964,0.2835,38.4000,97,93,195550
1.8768,0.3079,38.4600,97,93,195553
1.8768,0.2786,38.4900,97,93,195557
1.8817,0.2786,38.4000,97,93,195560
1.9013,0.2835,38.4600,97,93,195563
1.9110,0.2835,38.4000,97,93,195567
1.8768,0.2835,38.4900,97,93,195570
1.8622,0.2786,38.4600,97,93,195573
1.8719,0.2884,38.3600,97,93,195576
1.8328,0.2786,38.5200,97,93,195580
1.8475,0.2835,38.2400,97,93,195584
1.8231,0.2786,38.3600,97,93,195587
1.8133,0.2786,38.5200,97,93,195591
1.8475,0.2884,38.4300,97,93,195594
1.8231,0.2786,38.4900,97,93,195597
1.8671,0.2884,38.2400,97,93,195601
1.8231,0.2786,38.5200,97,93,195604
1.8182,0.2786,38.4900,97,93,195607
1.8231,0.2835,38.4600,97,93,195611
1.8133,0.2786,38.4900,97,93,195614
1.8915,0.2981,38.2400,97,93,195617
1.8133,0.2835,38.3600,97,93,195621
1.8426,0.2786,38.4300,97,93,195624
1.8035,0.2835,38.4900,97,93,195628
1.7937,0.2786,38.4600,97,93,195631
1.8231,0.2688,38.4000,97,93,195635
1.7937,0.2835,38.5500,97,93,195638
1.7986,0.2835,38.3600,97,93,195641
1.7791,0.2786,38.5200,97,93,195645
1.7791,0.2933,38.4900,97,93,195648
1.8182,0.2884,38.3300,97,93,195651
1.7840,0.3030,38.4900,97,93,195655
1.8035,0.2933,38.4000,97,93,195658
1.8035,0.2737,38.4600,97,93,195661
1.7742,0.2786,38.4900,97,93,195664
1.7889,0.2835,38.3600,97,93,195668
1.7889,0.2835,38.4600,97,93,195672
1.8084,0.2786,38.3600,97,93,195675
1.7840,0.2786,38.4600,97,93,195679
1.7986,0.2786,38.4600,97,93,195682
1.8231,0.2884,38.4000,97,93,195685
1.8035,0.2786,38.4900,97,93,195689
1.8280,0.2835,38.2400,97,93,195692
1.7889,0.2737,38.4300,97,93,195695
1.7840,0.2688,38.4900,97,93,195699
1.8133,0.2884,38.3000,97,93,195702
1.8035,0.2786,38.4900,97,93,195705
1.8671,0.2884,38.1800,97,93,195708
1.8377,0.2835,38.4000,97,93,195713
1.8182,0.2737,38.4600,97,93,195716
1.8328,0.2835,38.4000,97,93,195719
1.8377,0.2835,38.4900,97,93,195723
1.8964,0.2981,38.3000,97,93,195726
1.8671,0.2981,38.4000,97,93,195729
1.8817,0.2835,38.4300,97,93,195733
1.8573,0.2786,38.4600,97,93,195736
1.8671,0.2884,38.4900,97,93,195739
1.9013,0.2884,38.3300,97,93,195743
1.8866,0.2835,38.4900,97,93,195746
1.9159,0.2835,38.3600,97,93,195749
1.8524,0.2786,38.5200,97,93,195752
1.8719,0.2835,38.4900,97,93,195757
1.8817,0.2786,38.4300,97,93,195760
1.8817,0.2786,38.4900,97,93,195763
1.9355,0.2786,38.4300,97,93,195767
1.9062,0.2786,38.4900,97,93,195770
1.9159,0.2835,38.4900,97,93,195773
1.9404,0.2884,38.4000,97,93,195777
1.9110,0.2835,38.4600,97,93,195780
1.9550,0.2835,38.3000,97,93,195783
1.9110,0.2835,38.4000,97,93,195787
1.8671,0.2786,38.5500,97,93,195790
1.8475,0.2884,38.4300,97,93,195793
1.8035,0.2786,38.5200,97,93,195796
1.8426,0.2884,38.2100,97,93,195801
1.8231,0.2786,38.4300,97,93,195804
1.8133,0.2835,38.4900,97,93,195807
1.8377,0.2933,38.4600,97,93,195811
1.8231,0.2786,38.5200,97,93,195814
1.8671,0.3030,38.2700,97,93,195817
1.7889,0.2786,38.4300,97,93,195821
1.7595,0.2786,38.4300,97,93,195824
1.7400,0.2835,38.4600,96,93,195827
1.7204,0.2786,38.4900,96,93,195831
1.7351,0.2786,38.4600,96,93,195834
1.7889,0.2933,38.3300,96,93,195838
1.7937,0.2933,38.4600,96,93,195842
1.8182,0.2688,38.4000,96,93,195845
1.7840,0.2786,38.4300,96,93,195848
1.7889,0.2835,38.5200,96,93,195852
1.8084,0.2884,38.3300,96,93,195855
1.7889,0.2835,38.4900,96,93,195858
1.8475,0.2786,38.3000,96,93,195862
1.8426,0.2786,38.4000,96,93,195865
1.8866,0.2786,38.4900,96,93,195868
2.0137,0.2884,38.4300,96,93,195872
2.0723,0.2786,38.5200,96,93,195875
2.2776,0.2884,38.2100,96,93,195878
2.4194,0.2786,38.4600,96,93,195883
2.6540,0.2786,38.4900,96,93,195886
2.9228,0.2835,38.4600,96,93,195889
3.1378,0.2786,38.4900,96,93,195892
3.3333,0.2981,37.9000,96,93,195896
3.2307,0.3079,38.4000,96,93,195899
3.0156,0.2688,38.4600,96,93,195902
2.7175,0.2835,38.4600,96,93,195906
2.3949,0.2786,38.6200,96,93,195909
2.1799,0.2933,38.2700,96,93,195912
1.9208,0.2884,38.4300,96,93,195916
1.7253,0.2786,38.4000,96,93,195919
1.5640,0.2786,38.5200,96,93,195922
1.4418,0.2688,38.4900,96,93,195926
1.3832,0.2884,38.4300,96,93,195930
1.3294,0.2835,38.4600,96,93,195933
1.3343,0.2835,38.3600,96,93,195936
1.3245,0.2786,38.5500,96,93,195940
1.3441,0.2688,38.4900,96,93,195943
1.3832,0.2786,38.5500,96,93,195946
1.3930,0.2835,38.4600,96,93,195950
1.4467,0.2835,38.3600,96,93,195953
1.4956,0.2786,38.4900,96,93,195956
1.5054,0.2786,38.4900,96,93,195960
1.5445,0.2884,38.4000,96,93,195963
1.5396,0.2688,38.4900,96,93,195966
1.5689,0.2835,38.2700,96,93,195970
1.5787,0.2786,38.3300,96,93,195974
1.5885,0.2786,38.4900,96,93,195977
1.6178,0.2884,38.4900,96,93,195980
1.5982,0.2786,38.4600,96,93,195984
1.6422,0.2933,38.2400,96,93,195987
1.6178,0.2835,38.3600,96,93,195990
1.6227,0.2786,38.5200,96,93,195994
1.6325,0.2835,38.4600,96,93,195997
1.6276,0.2737,38.4900,96,93,196000
1.6716,0.2981,38.2400,96,93,196004
1.6422,0.2786,38.4300,96,93,196007
1.6325,0.2737,38.4900,96,93,196011
1.6471,0.2884,38.4900,96,93,196014
1.6569,0.2786,38.4900,96,93,196018
1.7009,0.2933,38.3600,96,93,196021
1.6813,0.2688,38.4600,96,93,196024
1.7107,0.2786,38.3600,96,93,196028
1.7009,0.2737,38.4600,96,93,196031
1.7009,0.2786,38.4900,96,93,196034
1.7351,0.2884,38.3300,96,93,196038
1.7253,0.2835,38.4600,96,93,196041
1.7595,0.2884,38.2700,96,93,196044
1.7693,0.2737,38.4600,96,93,196048
1.7351,0.2786,38.4900,96,93,196051
1.7400,0.2835,38.3300,96,93,196055
1.7351,0.2786,38.4900,96,93,196058
1.7253,0.2786,38.3300,96,93,196062
1.7107,0.2786,38.4300,96,93,196065
1.7107,0.2786,37.7400,96,93,196068
1.7253,0.3079,38.4000,96,93,196072
1.7058,0.2786,38.4900,96,93,196075
1.7400,0.2835,38.2400,96,93,196078
1.7058,0.2737,38.4300,96,93,196082
1.7058,0.2786,38.4900,96,93,196085
1.7107,0.2835,38.4600,96,93,196088
1.7058,0.2786,38.4900,96,93,196092
1.7644,0.2884,38.1800,96,93,196096
1.7449,0.2786,38.4300,96,93,196099
1.7498,0.2688,38.4600,96,93,196102
1.7595,0.2835,38.4600,96,93,196106
1.7498,0.2786,38.4900,96,93,196109
1.7937,0.2933,38.2400,96,93,196112
1.7644,0.2835,38.4300,96,93,196116
1.7595,0.2786,38.4000,96,93,196119
1.7595,0.2786,38.4900,96,93,196122
1.7595,0.2786,38.4900,96,93,196126
1.8084,0.2786,38.3300,96,93,196129
1.7742,0.2835,38.4900,96,93,196132
1.8084,0.2835,38.4000,96,93,196136
1.7986,0.2835,38.4900,96,93,196140
1.8133,0.2786,38.5200,96,93,196143
1.8328,0.2835,38.4000,96,93,196146
1.8280,0.2786,38.4600,96,93,196150
1.8573,0.2786,38.5200,96,93,196153
1.8377,0.2737,38.4900,96,93,196156
1.8426,0.2786,38.4900,96,93,196160
1.8719,0.2884,38.3600,96,93,196163
1.8622,0.2786,38.4900,96,93,196166
1.9013,0.2835,38.4300,96,93,196170
1.8866,0.2835,38.3300,96,93,196173
1.8768,0.2688,38.4900,96,93,196176
1.8964,0.2933,38.4300,96,93,196180
1.8768,0.2688,38.4900,96,93,196184
1.9306,0.2884,38.4000,96,93,196187
1.9062,0.2835,38.4000,96,93,196190
1.9208,0.2786,38.5200,96,93,196194
1.9062,0.2835,38.4600,96,93,196197
1.8964,0.2786,38.4900,96,93,196200
1.9746,0.3030,38.2100,96,93,196204
1.9062,0.2786,38.3600,96,93,196207
1.8866,0.2835,38.4300,96,93,196210
1.8622,0.2786,38.4900,96,93,196214
1.8328,0.2688,38.4900,96,93,196217
1.8573,0.2933,38.3600,96,93,196220
1.8280,0.2835,38.4600,96,93,196225
1.8377,0.2835,38.3600,96,93,196228
1.8280,0.2884,38.4900,96,93,196231
1.8231,0.2835,38.4900,96,93,196234
1.8524,0.2884,38.3300,96,93,196238
1.8182,0.2835,38.5500,96,93,196241
1.8328,0.2835,38.3600,96,93,196244
1.8084,0.3030,38.4900,96,93,196248
1.7986,0.2737,38.4900,96,93,196251
1.8182,0.2835,38.4000,96,93,196254
1.7986,0.2981,38.4900,96,93,196258
1.8133,0.2835,38.3300,96,93,196261
1.7889,0.2786,38.4300,96,93,196264
1.7742,0.2737,38.4900,96,93,196269
1.7889,0.2835,38.4000,96,93,196272
1.7742,0.2786,38.4000,96,93,196275
1.8084,0.2835,38.2400,96,93,196278
1.7840,0.2737,38.5200,96,93,196282
1.7986,0.2786,38.4900,96,93,196285
1.8280,0.2884,38.4600,96,93,196288
1.8084,0.2786,38.5500,96,93,196292
1.8915,0.2884,38.2100,96,93,196295
1.8280,0.2835,38.4300,96,93,196298
1.8133,0.2737,38.4900,96,93,196302
1.8231,0.2835,38.4600,96,93,196305
1.8231,0.2737,38.4600,96,93,196308
1.8817,0.2981,38.3000,96,93,196313
1.8426,0.2835,38.4000,96,93,196316
1.8377,0.2737,38.4000,96,93,196319
1.8182,0.2786,38.4900,96,93,196322
1.8182,0.2786,38.4600,96,93,196326
1.8573,0.2786,38.3300,96,93,196329
1.8328,0.2835,38.4300,96,93,196332
1.8573,0.2835,38.3600,96,93,196336
1.8426,0.2786,38.5200,96,93,196339
1.8475,0.2737,38.4900,96,93,196342
1.8622,0.2786,38.4300,96,93,196346
1.8573,0.2835,38.4900,96,93,196349
1.8915,0.2884,38.4300,96,93,196353
1.8817,0.2786,38.5200,96,93,196357
1.9013,0.2786,38.4900,96,93,196360
1.9355,0.2884,38.4900,96,93,196363
1.9110,0.2786,38.4900,96,93,196366
1.9453,0.2835,38.3300,96,93,196370
1.9306,0.2786,38.3600,96,93,196373
1.9208,0.2835,38.4900,96,93,196376
1.9501,0.2884,38.3300,96,93,196380
1.9257,0.3030,38.4900,96,93,196383
1.9746,0.2884,38.2100,96,93,196386
1.9453,0.2786,38.3600,96,93,196390
1.9257,0.2737,38.4900,96,93,196393
1.9257,0.2835,38.4600,96,93,196397
1.9013,0.2737,38.4600,96,93,196401
1.9599,0.2884,38.2700,96,93,196404
1.8719,0.3079,38.4000,96,93,196407
1.8475,0.2933,38.4600,96,93,196410
1.8377,0.2786,38.4900,96,93,196414
1.8182,0.2835,38.5200,96,93,196417
1.8524,0.2933,38.3600,96,93,196420
1.8133,0.3079,38.4300,96,93,196424
1.8280,0.2786,38.3600,96,93,196427
1.7889,0.2933,38.4600,96,93,196430
1.7791,0.2786,38.4900,96,93,196434
1.8035,0.2884,38.3300,96,93,196438
1.7742,0.2933,38.3300,96,93,196443
1.7595,0.2688,38.4900,96,93,196446
1.7986,0.2835,38.2400,96,93,196449
1.7791,0.2688,38.4000,96,93,196453
1.7742,0.2786,38.4900,96,93,196456
1.7889,0.3177,38.4000,96,93,196459
1.8084,0.2737,38.4900,96,93,196463
1.8133,0.2884,38.2400,96,93,196466
1.7986,0.2835,38.4000,96,93,196469
1.7986,0.2688,38.4900,96,93,196472
1.8328,0.2835,38.6800,96,93,196476
1.8573,0.2786,38.4600,96,93,196480
1.9844,0.2981,38.2700,96,93,196483
2.0332,0.2884,38.4300,96,93,196487
2.1505,0.2688,38.4300,96,93,196490
2.3216,0.2981,38.4900,96,93,196493
2.5318,0.2688,38.4900,96,93,196497
2.8201,0.2884,38.3600,96,93,196500
3.0303,0.2835,38.4300,96,93,196503
3.2209,0.2786,38.3600,96,93,196507
3.2649,0.2786,38.4600,96,93,196510
3.1965,0.2835,38.4900,96,93,196513
2.9717,0.2884,38.4000,96,93,196516
2.6100,0.2835,38.4900,96,93,196520
2.3216,0.2884,38.3600,96,93,196524
2.0137,0.2786,38.5200,96,93,196527
1.7889,0.2737,38.5200,96,93,196531
1.6276,0.2786,38.4300,96,93,196534
1.4907,0.3030,38.4900,96,93,196537
1.4370,0.2835,38.3300,96,93,196541
1.3539,0.2786,38.5500,96,93,196544
1.3343,0.2737,38.4900,96,93,196547
1.3294,0.2835,38.4600,96,93,196551
1.3245,0.2786,38.4900,96,93,196554
1.3636,0.2835,38.2400,96,93,196557
1.3881,0.2933,38.4000,96,93,196560
1.4076,0.2688,38.4900,96,93,196564
1.4370,0.2835,38.4600,96,93,196568
1.4370,0.2688,38.4900,96,93,196571
1.4956,0.2884,38.1800,96,93,196575
1.4858,0.2786,38.3600,96,93,196578
1.5054,0.2737,38.4600,96,93,196581
1.5249,0.2835,38.4900,96,93,196585
1.5396,0.2835,38.5200,96,93,196588
1.5982,0.2981,38.3000,96,93,196591
1.5885,0.2884,38.4300,96,93,196595
1.5982,0.2688,38.3600,96,93,196598
1.5982,0.2786,38.5200,96,93,196601
1.6080,0.2786,38.4900,96,93,196604
1.6422,0.2884,38.5200,96,93,196609
1.6325,0.2786,38.4600,96,93,196612
1.6618,0.2786,38.3300,96,93,196615
1.6471,0.2737,38.4900,96,93,196619
1.6569,0.2688,38.5200,96,93,196622
1.6862,0.2884,38.5500,96,93,196625
1.6618,0.2688,38.4900,96,93,196629
1.7058,0.2786,38.4000,96,93,196632
1.6862,0.2786,38.4000,96,93,196635
1.7009,0.2786,38.4900,96,93,196639
1.7155,0.2835,38.3300,96,93,196642
1.7009,0.2835,38.4900,96,93,196645
1.7400,0.2835,38.2700,96,93,196648
1.7204,0.2786,38.5200,96,93,196653
1.7204,0.3030,38.5500,96,93,196656
1.7400,0.2835,38.4300,96,93,196659
1.7351,0.2786,38.4900,96,93,196663
1.7791,0.2835,38.2100,96,93,196666
1.7449,0.2737,37.6500,96,93,196669
1.7595,0.3030,38.5500,96,93,196673
1.7693,0.2688,38.4600,96,93,196676
1.7693,0.3030,38.5200,96,93,196679
1.8524,0.2933,38.2400,96,93,196683
1.7742,0.2835,38.4600,96,93,196686
1.7595,0.2786,38.4600,96,93,196689
1.7546,0.2786,38.5200,96,93,196692
1.7546,0.2786,38.4900,96,93,196697
1.8133,0.2688,38.3000,96,93,196700
1.7840,0.2884,38.4600,96,93,196703
1.8084,0.2737,38.3600,96,93,196707
1.7742,0.2786,38.5200,96,93,196710
1.7791,0.2688,38.5500,96,93,196713
1.8133,0.2884,38.4600,96,93,196717
1.7937,0.2786,38.4600,96,93,196720
1.8328,0.2786,38.3600,96,93,196723
1.7986,0.2786,38.5200,96,93,196727
1.7986,0.2737,38.4900,96,93,196730
1.8133,0.2786,38.4000,96,93,196733
1.8084,0.2786,38.7100,96,93,196737
1.8377,0.2835,38.3300,96,93,196741
1.8182,0.2786,38.5200,96,93,196744
1.8280,0.2639,38.4900,96,93,196747
1.8573,0.2835,38.4000,96,93,196751
1.8377,0.2835,38.5500,96,93,196754
1.8866,0.2688,38.2400,96,93,196757
1.8671,0.2884,38.5200,96,93,196761
1.8768,0.2737,38.4600,96,93,196764
1.8817,0.2835,38.4000,96,93,196767
1.8719,0.2835,38.5200,96,93,196771
1.9355,0.2884,38.1800,96,93,196774
1.9062,0.2786,38.3600,96,93,196777
1.9062,0.2737,38.4600,96,93,196781
1.9110,0.2786,38.4000,96,93,196785
1.9062,0.2786,38.4600,96,93,196788
1.9892,0.2884,38.3000,96,93,196791
1.9159,0.2835,38.4900,96,93,196795
1.9110,0.2737,38.4000,96,93,196798
1.9062,0.2786,38.4900,96,93,196801
1.9013,0.2786,38.8400,96,93,196805
1.9697,0.2884,38.4000,96,93,196808
1.9110,0.2786,38.4900,96,93,196811
1.9257,0.2786,38.3300,96,93,196815
1.9062,0.2786,38.4900,96,93,196818
1.9013,0.2737,38.4900,96,93,196822
1.9306,0.2933,38.3300,96,93,196825
1.8964,0.2786,38.4900,96,93,196829
1.9159,0.2884,38.4300,96,93,196832
1.8817,0.2688,38.4300,96,93,196835
1.8817,0.2786,38.5200,96,93,196839
1.9013,0.2835,38.3600,96,93,196842
1.8817,0.2786,37.7400,96,93,196845
1.9062,0.3128,38.2700,96,93,196849
1.8817,0.2786,38.4000,96,93,196852
1.8719,0.2737,38.4300,96,93,196855
1.9062,0.2835,38.4000,96,93,196859
1.8524,0.2688,38.4900,96,93,196862
1.8915,0.2884,38.2100,96,93,196866
1.8475,0.2737,38.4300,96,93,196869
1.8524,0.2737,38.5200,96,93,196873
1.8671,0.2835,38.4600,96,93,196876
1.8573,0.2786,38.4600,96,93,196879
1.9013,0.2981,38.2100,96,93,196883
1.8768,0.2835,38.4300,96,93,196886
1.8671,0.3128,38.4300,96,93,196889
1.8768,0.2786,38.5800,96,93,196893
1.8768,0.3079,38.5500,96,93,196896
1.9208,0.2884,38.3000,96,93,196899
1.8915,0.2835,38.4000,96,93,196903
1.8915,0.2786,38.4000,96,93,196907
1.8768,0.2786,38.4900,96,93,196910
1.8817,0.2737,38.5800,96,93,196913
1.9062,0.2835,38.3300,96,93,196917
1.8964,0.2786,38.5500,96,93,196920
1.9257,0.2933,38.3600,96,93,196923
1.9013,0.2786,38.4900,96,93,196927
1.9062,0.3128,38.4900,96,93,196930
1.9159,0.2786,38.4000,96,93,196933
1.9159,0.2786,38.4000,96,93,196937
1.9453,0.3030,38.3300,96,93,196940
1.9110,0.2786,38.5800,96,93,196943
1.9208,0.2688,38.4900,96,93,196947
1.9550,0.2688,38.3600,96,93,196951
1.9257,0.2786,38.4600,96,93,196954
1.9746,0.2835,38.2700,96,93,196957
1.9550,0.2835,38.3600,96,93,196961
1.9404,0.2786,38.5200,96,93,196964
1.9697,0.2835,38.4000,96,93,196967
1.9501,0.2737,38.5200,96,93,196971
2.0186,0.2884,38.1800,96,93,196974
1.9941,0.2786,38.3600,96,93,196977
1.9892,0.2737,38.4600,96,93,196981
2.0137,0.2835,38.4300,96,93,196984
2.0088,0.2737,38.4900,96,93,196987
2.0821,0.2981,38.7100,96,93,196992
2.0479,0.2884,38.4300,96,93,196995
2.0577,0.2688,38.4300,96,93,196998
2.0626,0.2786,38.4600,96,93,197001
2.0723,0.2835,38.4900,96,93,197005
2.0821,0.2884,38.4300,96,93,197008
2.0332,0.2835,38.6500,96,93,197011
2.0137,0.2786,38.3600,96,93,197015
1.9746,0.2786,38.4900,96,93,197018
1.9501,0.2737,38.4900,96,93,197021
1.9599,0.2786,38.3000,96,93,197025
1.9159,0.2786,38.4600,96,93,197028
1.9257,0.2933,38.3600,96,93,197031
1.8964,0.2737,38.4600,96,93,197035
1.8964,0.2737,38.4900,96,93,197039
1.9110,0.2688,38.3600,96,93,197042
1.8817,0.2786,38.4900,96,93,197045
1.8964,0.3177,38.3600,96,93,197049
1.8671,0.3079,38.2400,96,93,197052
1.8280,0.2737,38.4600,96,93,197057
1.8328,0.2737,38.4600,96,93,197060
1.8475,0.2786,38.4600,96,93,197063
1.8426,0.2737,38.5200,96,93,197067
1.8964,0.3030,38.2100,96,93,197070
1.8719,0.2786,38.4000,96,93,197073
1.8573,0.2737,38.4300,96,93,197076
1.8915,0.2786,38.4600,96,93,197081
1.8671,0.2737,38.4900,96,93,197084
1.9159,0.3128,38.3000,96,93,197087
1.9013,0.2835,38.4600,96,93,197091
1.9208,0.2786,38.3600,96,93,197094
1.9453,0.2737,38.4900,96,93,197097
1.9990,0.2737,37.7700,96,93,197101
2.1261,0.2786,38.3300,96,93,197104
2.1799,0.2786,38.4600,96,93,197107
2.3412,0.2786,38.3300,96,93,197111
2.4731,0.2737,38.4900,96,93,197114
2.6882,0.2737,38.5200,96,93,197117
2.9374,0.2737,38.4000,96,93,197121
3.1525,0.2737,38.5200,96,93,197125
3.3284,0.2786,38.3600,96,93,197128
3.2698,0.2835,38.4900,96,93,197131
3.1134,0.2737,38.5500,96,93,197135
2.8641,0.2835,38.4300,96,93,197138
2.5367,0.2737,38.4600,96,93,197141
2.3216,0.2835,38.2400,96,93,197145
2.0626,0.2786,38.4300,96,93,197148
1.8671,0.2737,38.5500,96,93,197151
1.7449,0.2786,38.4300,96,93,197155
1.6325,0.2737,38.5500,96,93,197158
1.6178,0.2884,38.1800,96,93,197161
1.5543,0.2786,38.4000,96,93,197166
1.5249,0.3030,38.4900,96,93,197169
1.5103,0.2786,38.4900,96,93,197172
1.5103,0.2786,38.5800,96,93,197175
1.5689,0.3079,38.2700,96,93,197179
1.5494,0.2786,38.4300,96,93,197182
1.5591,0.2737,38.3600,96,93,197185
1.5640,0.2737,38.4900,96,93,197189
1.5640,0.2737,38.4900,96,93,197192
1.5982,0.2933,38.4000,96,93,197195
1.5885,0.2786,38.4600,96,93,197199
1.6276,0.2786,38.5200,96,93,197202
1.6227,0.2688,38.4900,96,93,197206
1.6373,0.2737,38.5800,96,93,197210
1.6813,0.2884,38.3300,96,93,197213
1.6716,0.2786,38.4600,96,93,197216
1.7058,0.2835,38.3600,96,93,197219
1.7107,0.2737,38.4600,96,93,197223
1.6960,0.2737,38.5200,96,93,197226
1.7204,0.2786,38.3600,96,93,197229
1.7107,0.2688,38.4900,96,93,197233
1.7449,0.2786,38.2700,96,93,197236
1.7253,0.2688,38.4300,96,93,197239
1.7400,0.2737,38.5500,96,93,197243
1.7595,0.2835,38.4000,96,93,197246
1.7400,0.2737,38.4900,96,93,197250
1.7889,0.2688,38.2400,96,93,197253
1.7498,0.2688,38.4300,96,93,197257
1.7742,0.2737,38.4900,96,93,197260
1.7791,0.2786,38.5500,96,93,197263
1.7742,0.2737,38.4900,96,93,197267
1.8231,0.2884,38.2100,96,93,197270
1.7889,0.3079,38.4300,96,93,197273
1.7840,0.2737,38.4600,96,93,197277
1.7889,0.2786,38.4900,96,93,197280
1.7889,0.2737,38.4600,96,93,197283
1.8524,0.2688,38.3000,96,93,197287
1.8328,0.2835,38.4900,96,93,197291
1.8280,0.2884,38.4000,96,93,197294
1.8231,0.2786,38.4900,96,93,197297
1.8280,0.2737,38.4900,96,93,197301
1.8622,0.2884,38.3300,96,93,197304
1.8426,0.2786,38.4600,96,93,197307
1.8622,0.2786,38.3300,96,93,197311
1.8524,0.2737,38.4900,96,93,197314
1.8426,0.2737,38.4900,96,93,197317
1.8622,0.2737,38.4300,96,93,197321
1.8573,0.2786,38.4600,96,93,197324
1.8866,0.2786,38.3300,96,93,197327
1.8524,0.2737,38.4900,96,93,197331
1.8524,0.2737,38.4900,96,93,197335
1.8719,0.2786,38.4300,96,93,197338
1.8426,0.2737,38.4600,96,93,197341
1.8671,0.2835,38.2700,96,93,197345
1.8426,0.2786,38.4000,96,93,197348
1.8280,0.2981,38.5200,96,93,197351
1.8475,0.2835,38.4600,96,93,197355
1.8280,0.2737,38.5200,96,93,197358
1.8817,0.2786,38.2100,96,93,197361
1.8573,0.2786,37.9300,96,93,197365
1.8573,0.2786,38.4900,96,93,197368
1.8768,0.2688,38.4600,96,93,197371
1.8817,0.2737,38.7100,96,93,197376
1.9501,0.3030,38.2400,96,93,197379
1.9159,0.2786,38.4300,96,93,197382
1.9159,0.2737,38.4600,96,93,197385
1.9257,0.2835,38.4900,96,93,197389
1.9159,0.2737,38.5800,96,93,197392
1.9599,0.2884,38.3300,96,93,197395
1.9404,0.2786,38.4600,96,93,197399
1.9501,0.2786,38.4000,96,93,197402
1.9355,0.2688,38.4900,96,93,197405
1.9355,0.2737,38.4900,96,93,197409
1.9697,0.2835,38.4300,96,93,197412
1.9404,0.2786,38.4600,96,93,197415
1.9599,0.2835,38.3600,96,93,197420
1.9355,0.2737,38.4600,96,93,197423
1.9355,0.2737,38.6500,96,93,197426
1.9550,0.2786,38.3600,96,93,197429
1.9404,0.2737,38.4900,96,93,197433
1.9697,0.2737,38.3300,96,93,197436
1.9404,0.2737,38.4000,96,93,197439
1.9355,0.2786,38.4900,96,93,197443
1.9746,0.2835,38.4300,96,93,197446
1.9306,0.2737,38.4900,96,93,197449
1.9697,0.2835,38.2400,96,93,197453
1.9306,0.2688,38.4900,96,93,197456
1.9257,0.2786,38.4900,96,93,197459
1.9355,0.2786,38.4600,96,93,197464
1.9110,0.2737,38.4900,96,93,197467
1.9599,0.2835,38.1800,96,93,197470
1.9257,0.2786,38.3600,96,93,197473
1.9110,0.2688,38.4900,96,93,197477
1.9208,0.2786,38.4600,96,93,197480
1.9110,0.2737,38.5200,96,93,197483
1.9599,0.3079,38.3000,96,93,197487
1.9257,0.2835,38.4600,96,93,197490
1.9013,0.2786,38.4000,96,93,197493
1.8768,0.2737,38.4900,96,93,197497
1.8622,0.2737,38.4900,96,93,197500
1.8817,0.2835,38.3600,96,93,197504
1.8573,0.2688,38.4600,96,93,197508
1.8573,0.2786,38.4300,96,93,197511
1.8280,0.2786,38.4900,96,93,197514
1.8280,0.2737,38.4900,96,93,197517
1.8475,0.3079,38.4000,96,93,197521
1.8573,0.2737,38.4900,96,93,197524
1.8817,0.2835,38.3600,96,93,197527
1.8622,0.2688,38.4900,96,93,197531
1.8719,0.2737,38.5500,96,93,197534
1.9013,0.2786,38.3300,96,93,197537
1.8768,0.2737,38.7100,96,93,197541
1.9159,0.2933,38.3000,96,93,197544
1.9062,0.2688,38.3600,96,93,197548
1.8964,0.2737,38.5800,96,93,197552
1.9355,0.2884,38.4300,96,93,197555
1.9110,0.2737,38.4900,96,93,197558
1.9599,0.2835,38.1800,96,93,197561
1.9306,0.2737,38.4000,96,93,197565
1.9257,0.2737,38.4900,96,93,197568
1.9453,0.2786,38.4300,96,93,197571
1.9404,0.2737,38.4900,96,93,197575
1.9990,0.2981,38.2400,96,93,197578
1.9648,0.2737,38.4300,96,93,197581
1.9697,0.2688,38.4300,96,93,197585
1.9795,0.2786,38.4600,96,93,197588
1.9746,0.2688,38.4900,96,93,197592
2.0235,0.2884,38.3300,96,93,197596
1.9941,0.2786,38.4300,96,93,197599
2.0088,0.2737,38.4000,96,93,197602
1.9990,0.2786,38.4000,96,93,197605
2.0039,0.3079,38.4600,96,93,197609
2.0479,0.2737,38.3300,96,93,197612
2.0283,0.2786,38.4600,96,93,197615
2.0528,0.2786,38.3600,96,93,197619
2.0381,0.2737,38.4900,96,93,197622
2.0430,0.2737,38.4900,96,93,197625
2.0674,0.2884,38.4000,96,93,197628
2.0235,0.2786,38.4900,96,93,197633
2.0332,0.2835,38.7400,96,93,197636
1.9697,0.2933,38.4900,96,93,197639
1.9501,0.2737,38.4900,96,93,197643
1.9501,0.2737,38.4000,96,93,197646
1.9159,0.2688,38.4900,96,93,197649
1.9404,0.2786,38.3000,96,93,197653
1.8964,0.2737,38.4600,96,93,197656
1.8915,0.2737,38.4900,96,93,197659
1.8964,0.2835,38.5200,96,93,197662
1.8231,0.2786,38.5200,96,93,197667
1.8084,0.2737,38.4900,96,93,197671
1.8622,0.2933,38.3000,96,93,197675
1.8377,0.2884,38.3600,96,93,197678
1.8377,0.2688,38.4000,96,93,197681
1.8328,0.2737,38.4600,96,93,197685
1.8377,0.2786,38.4600,96,93,197688
1.8671,0.2835,38.3300,96,93,197691
1.8475,0.2835,38.4600,96,93,197695
1.8573,0.2688,38.3600,96,93,197698
1.8280,0.2786,38.4600,96,93,197701
1.8377,0.2688,38.5200,96,93,197705
1.8671,0.2737,38.4000,96,93,197708
1.8817,0.2786,38.4900,96,93,197711
1.9355,0.2688,38.4000,96,93,197715
1.9599,0.2835,38.4900,96,93,197719
2.0577,0.2688,38.4900,96,93,197722
2.2141,0.2835,38.3600,96,93,197725
2.3656,0.2786,38.4600,96,93,197729
2.5953,0.2688,38.3000,96,93,197732
2.8006,0.2786,38.4000,96,93,197735
3.0205,0.2737,38.5500,96,93,197739
3.2405,0.2933,38.3600,96,93,197742
3.2502,0.2737,38.4900,96,93,197745
3.2063,0.2835,38.4000,96,93,197749
2.9130,0.2737,38.4300,96,93,197752
2.5904,0.2737,38.4900,96,93,197755
2.3118,0.2786,38.5500,96,93,197758
2.0430,0.2786,38.4900,96,93,197763
1.8866,0.2884,38.2100,96,93,197766
1.6862,0.2737,38.3000,96,93,197769
1.5689,0.2737,38.4600,96,93,197773
1.4907,0.2688,38.4600,96,93,197776
1.4467,0.2737,38.4900,96,93,197779
1.4956,0.2933,38.3300,96,93,197783
1.4223,0.2786,38.4600,96,93,197786
1.4223,0.2981,38.4000,96,93,197789
1.4370,0.2786,38.5800,96,93,197793
1.4712,0.2737,38.4900,96,93,197796
1.5249,0.2835,38.3300,96,93,197799
1.5103,0.2786,38.4900,96,93,197803
1.5249,0.2835,38.3300,96,93,197807
1.5103,0.2737,38.4900,96,93,197810
1.5396,0.2737,38.4900,96,93,197813
1.5885,0.2835,38.3000,96,93,197817
1.5885,0.2737,37.9600,96,93,197820
1.6276,0.2835,38.3600,96,93,197823
1.6080,0.2688,38.4600,96,93,197827
1.6129,0.2884,38.5500,96,93,197830
1.6276,0.2786,38.4000,96,93,197833
1.6178,0.2737,38.6500,96,93,197837
1.6422,0.2786,38.2700,96,93,197840
1.6178,0.2786,38.4900,96,93,197843
1.6325,0.2835,38.4300,96,93,197847
1.6569,0.2786,38.4600,96,93,197851
1.6716,0.2835,38.4900,96,93,197854
1.7351,0.2835,38.2100,96,93,197857
1.7155,0.2786,38.4000,96,93,197861
1.7155,0.2737,38.4900,96,93,197864
1.7107,0.2835,38.5500,96,93,197867
1.7009,0.2737,38.4900,96,93,197871
1.7595,0.2688,38.3300,96,93,197874
1.7204,0.2884,38.3600,96,93,197877
1.7253,0.2737,38.4300,96,93,197881
1.7155,0.2786,38.5500,96,93,197884
1.7204,0.2737,38.4900,96,93,197888
1.7546,0.2688,38.3600,96,93,197891
1.7351,0.2786,38.4900,96,93,197895
1.7449,0.2835,38.3600,96,93,197898
1.7302,0.2737,38.4300,96,93,197901
1.7498,0.2688,38.5200,96,93,197905
1.7742,0.2786,38.3300,96,93,197908
1.7937,0.2737,38.4600,96,93,197911
1.7742,0.2835,38.3600,96,93,197915
1.7546,0.2737,38.4900,96,93,197918
1.7400,0.2737,38.4900,96,93,197921
1.7693,0.2835,38.3300,96,93,197925
1.7546,0.2786,38.4900,96,93,197928
1.7937,0.2786,38.3300,96,93,197932
1.7889,0.3030,38.4000,96,93,197936
1.7937,0.2737,38.4900,96,93,197939
1.8182,0.2884,38.4600,96,93,197942
1.8280,0.2737,38.4900,96,93,197945
1.8182,0.2786,38.2400,96,93,197949
1.7889,0.2737,38.4000,96,93,197952
1.7840,0.2688,38.5200,96,93,197955
1.8084,0.2786,38.5800,96,93,197959
1.8084,0.2737,38.0200,96,93,197962
1.8622,0.2933,38.1800,96,93,197965
1.8182,0.2737,38.4000,96,93,197969
1.8182,0.2737,38.4600,96,93,197972
1.8280,0.2786,38.4900,96,93,197976
1.8280,0.2737,38.4900,96,93,197979
1.9013,0.2884,38.3300,96,93,197983
1.8524,0.2786,38.0200,96,93,197986
1.8671,0.2737,38.4000,96,93,197989
1.8573,0.2786,38.4900,96,93,197993
1.8426,0.2786,38.5200,96,93,197996
1.8671,0.2786,38.3300,96,93,197999
1.8182,0.2786,38.4600,96,93,198003
1.8622,0.2835,38.3300,96,93,198006
1.8280,0.2786,38.4000,96,93,198009
1.8426,0.2786,38.4600,96,93,198013
1.8817,0.2835,38.3600,96,93,198017
1.8768,0.2737,38.4300,96,93,198020
1.9208,0.2737,38.3600,96,93,198023
1.8964,0.2737,38.4900,96,93,198027
1.8915,0.2737,38.6500,96,93,198030
1.9306,0.2835,38.4000,96,93,198033
1.8817,0.2688,38.4900,96,93,198037
1.9159,0.2786,38.2700,96,93,198040
1.8817,0.2688,38.5200,96,93,198043
1.8768,0.2737,38.5200,96,93,198047
1.8817,0.2786,38.4300,96,93,198050
1.8573,0.2737,38.5200,96,93,198053
1.9062,0.2786,38.2400,96,93,198057
1.8768,0.2786,38.4000,96,93,198061
1.8573,0.2737,38.4900,96,93,198064
1.8622,0.2786,38.4600,96,93,198068
1.8524,0.2737,38.4600,96,93,198071
1.9110,0.2884,38.2700,96,93,198074
1.8768,0.2933,38.4000,96,93,198077
1.8573,0.2737,38.4600,96,93,198081
1.8475,0.2737,38.4000,96,93,198084
1.8426,0.2737,38.4900,96,93,198087
1.8768,0.2835,38.3300,96,93,198091
1.8524,0.2786,38.4600,96,93,198094
1.8671,0.2737,38.4300,96,93,198097
1.8524,0.2786,38.5200,96,93,198102
1.8524,0.2737,38.4900,96,93,198105
1.8622,0.2835,38.4600,96,93,198108
1.8426,0.2737,38.4600,96,93,198112
1.8426,0.2835,38.4000,96,93,198115
1.8328,0.2786,38.4900,96,93,198118
1.7986,0.2737,38.4900,96,93,198121
1.8328,0.2835,38.3300,96,93,198125
1.8182,0.2786,38.4900,96,93,198128
1.8475,0.2786,38.4000,96,93,198131
1.8280,0.2835,38.4000,96,93,198135
1.8280,0.2737,38.4900,96,93,198138
1.8524,0.2884,38.4000,96,93,198141
1.8377,0.2737,38.4900,96,93,198146
1.8866,0.2835,38.2700,96,93,198149
1.8817,0.2786,38.4000,96,93,198152
1.9013,0.2835,38.4900,96,93,198156
1.8866,0.2786,38.4900,96,93,198159
1.8622,0.2981,38.5500,96,93,198162
1.9013,0.2884,38.1800,96,93,198165
1.8426,0.2786,38.4000,96,93,198169
1.8377,0.2737,38.4600,96,93,198172
1.8377,0.2786,38.5200,96,93,198175
1.8573,0.2737,38.4900,96,93,198179
1.8964,0.2933,38.3300,96,93,198182
1.8573,0.2786,38.4900,96,93,198185
1.8573,0.2737,38.4000,96,93,198190
1.8524,0.2786,38.4900,96,93,198193
1.8671,0.2737,38.4300,96,93,198196
1.9208,0.2835,38.3600,96,93,198200
1.9062,0.2786,38.4900,96,93,198203
1.9404,0.2786,38.3000,96,93,198206
1.9257,0.2884,38.5200,96,93,198209
1.9110,0.2737,38.4900,96,93,198213
1.9355,0.2835,38.3000,96,93,198216
1.9159,0.2786,38.4600,96,93,198219
1.9697,0.2688,38.3600,96,93,198223
1.9648,0.2737,38.4600,96,93,198226
1.9795,0.2737,38.4900,96,93,198230
2.0088,0.2786,38.4300,96,93,198234
1.9941,0.2737,38.4900,96,93,198237
2.0137,0.2835,38.2700,96,93,198240
1.9550,0.2786,38.5200,96,93,198244
1.9306,0.2786,38.4900,96,93,198247
1.9257,0.2835,38.4300,96,93,198250
1.8817,0.2737,38.4900,96,93,198253
1.9159,0.2688,38.2100,96,93,198257
1.8817,0.2786,38.1800,96,93,198260
1.8475,0.2786,38.4900,96,93,198263
1.8377,0.2786,38.5200,96,93,198267
1.8133,0.2786,38.4900,96,93,198270
1.8426,0.2981,38.2700,96,93,198274
1.8182,0.2835,38.3300,96,93,198279
1.7889,0.2786,38.5500,96,93,198282
1.8084,0.2835,38.3300,96,93,198286
1.7693,0.2786,38.4300,96,93,198289
1.7742,0.2737,38.4900,96,93,198292
1.7889,0.2786,37.6200,96,93,198296
1.7840,0.2835,38.5500,96,93,198299
1.8377,0.2737,38.3300,96,93,198302
1.7889,0.2884,38.4900,96,93,198306
1.8475,0.2737,38.4900,96,93,198309
1.8475,0.2835,38.3600,96,93,198312
1.8280,0.2835,38.4900,96,93,198316
1.8524,0.2835,38.2700,96,93,198320
1.8377,0.2884,38.4000,96,93,198323
1.8573,0.2737,38.5500,96,93,198326
1.9404,0.2884,38.4000,96,93,198330
2.0528,0.2737,38.4900,96,93,198333
2.2483,0.2884,38.2100,96,93,198336
2.3900,0.3128,38.4000,96,93,198340
2.5953,0.2737,38.5200,96,93,198343
2.8495,0.2786,38.4600,96,93,198346
3.0645,0.2737,38.4900,96,93,198349
3.3187,0.2981,38.2400,96,93,198353
3.2796,0.2835,38.4000,96,93,198356
3.1183,0.2737,38.4900,96,93,198360
2.8201,0.2688,38.4900,96,93,198364
2.4927,0.2737,38.3300,96,93,198367
2.2287,0.2933,38.4300,96,93,198370
1.9453,0.2786,38.4600,96,93,198374
1.7546,0.2786,38.3600,96,93,198377
1.6031,0.2786,38.4900,96,93,198380
1.5054,0.2786,38.4600,96,93,198384
1.4614,0.2688,38.3000,96,93,198387
1.3832,0.2786,38.3300,96,93,198390
1.3539,0.2933,38.3600,96,93,198393
1.3343,0.2737,38.4600,96,93,198397
1.3734,0.2737,38.4600,96,93,198401
1.4272,0.2835,38.3600,96,93,198404
1.4321,0.2688,38.4900,96,93,198408
1.4663,0.2786,38.3000,96,93,198411
1.4516,0.2737,38.4300,96,93,198414
1.4761,0.2786,38.4900,96,93,198418
1.5103,0.2884,37.6200,96,93,198421
1.5103,0.2737,38.5200,96,93,198424
1.5640,0.2835,38.2400,96,93,198428
1.5591,0.2737,38.5200,96,93,198431
1.5934,0.2786,38.4900,96,93,198434
1.6227,0.2786,38.4600,96,93,198438
1.6227,0.2688,38.4600,96,93,198441
1.6716,0.2884,38.2100,96,93,198445
1.6422,0.2835,38.4300,96,93,198448
1.6276,0.2737,38.4600,96,93,198452
1.6276,0.2786,38.4600,96,93,198455
1.6227,0.2688,38.4900,96,93,198458
1.6813,0.2884,38.1100,96,93,198462
1.6716,0.2835,38.4300,96,93,198465
1.6618,0.2737,38.4000,96,93,198468
1.6471,0.3128,38.4600,96,93,198472
1.6520,0.2688,38.4900,96,93,198475
1.6862,0.2884,38.3000,96,93,198478
1.7058,0.2786,38.4600,96,93,198482
1.7253,0.2786,38.3300,96,93,198486
1.7155,0.2737,38.4600,96,93,198489
1.7204,0.2737,38.4900,96,93,198492
1.7204,0.2786,38.4000,96,93,198496
1.7058,0.2737,38.4900,96,93,198499
1.7009,0.2786,38.3600,96,93,198502
1.6520,0.2835,38.4900,96,93,198506
1.6520,0.2737,38.4900,96,93,198509
1.6813,0.2835,38.4600,96,93,198512
1.6813,0.2688,38.4900,96,93,198516
1.7204,0.2835,38.2700,96,93,198519
1.6960,0.2786,38.3600,96,93,198522
1.6862,0.2737,38.4900,96,93,198526
1.7253,0.2835,38.4900,96,93,198530
1.7595,0.2737,38.4900,96,93,198533
1.8084,0.2884,38.2100,96,93,198536
1.7644,0.3079,38.4000,96,93,198540
1.7253,0.2786,38.5200,96,93,198543
1.7155,0.2786,38.4900,96,93,198546
1.7009,0.2737,38.4900,96,93,198550
1.7595,0.2835,38.2400,96,93,198553
1.7351,0.2835,38.4000,96,93,198556
1.7400,0.2786,38.4300,96,93,198560
1.7498,0.2786,38.4900,96,93,198563
1.7498,0.2786,38.4600,96,93,198566
1.7840,0.2688,38.3600,96,93,198571
1.7449,0.2786,38.4600,96,93,198574
1.7546,0.2835,38.3600,96,93,198577
1.7400,0.2786,38.4900,96,93,198580
1.7498,0.2737,38.4900,96,93,198584
1.7986,0.2884,38.3300,96,93,198587
1.7693,0.3030,38.4600,96,93,198590
1.7937,0.2884,38.4000,96,93,198594
1.7693,0.2737,38.4600,96,93,198597
1.7791,0.2737,38.4900,96,93,198600
1.8084,0.2835,38.3600,96,93,198604
1.8133,0.2786,38.5200,96,93,198607
1.8866,0.2737,38.3000,96,93,198610
1.8573,0.2737,38.4300,96,93,198615
1.8671,0.2688,38.4900,96,93,198618
1.8768,0.2835,38.4300,96,93,198621
1.8475,0.2786,38.3300,96,93,198624
1.8817,0.2786,38.2100,96,93,198628
1.8377,0.2737,38.3300,96,93,198631
1.8524,0.2786,38.4900,96,93,198634
1.8573,0.2835,38.4600,96,93,198638
1.8475,0.2933,38.4900,96,93,198641
1.8915,0.2933,38.2400,96,93,198644
1.8524,0.2786,38.4000,96,93,198648
1.8280,0.2737,38.4600,96,93,198651
1.8231,0.2786,38.4900,96,93,198654
1.8133,0.2737,38.4900,96,93,198659
1.8524,0.2884,38.3000,96,93,198662
1.8622,0.2786,38.4300,96,93,198665
1.8231,0.2786,38.4300,96,93,198669
1.8133,0.2786,38.4600,96,93,198672
1.8035,0.2737,38.5200,96,93,198675
1.8280,0.2835,38.3300,96,93,198678
1.8035,0.2835,38.4900,96,93,198682
1.8280,0.2835,38.3300,96,93,198685
1.7986,0.2786,38.4600,96,93,198688
1.8035,0.2737,38.4900,96,93,198692
1.8035,0.2786,38.4000,96,93,198695
1.7889,0.2884,38.4900,96,93,198699
1.8035,0.2688,38.3300,96,93,198703
1.7693,0.2835,38.5500,96,93,198706
1.7644,0.2737,38.4900,96,93,198709
1.7791,0.2835,38.4300,96,93,198712
1.7546,0.2835,38.4900,96,93,198716
1.7889,0.2835,38.3600,96,93,198719
1.7644,0.2884,38.3600,96,93,198722
1.7546,0.2786,38.4900,96,93,198726
1.7693,0.2884,38.4300,96,93,198729
1.7546,0.2786,38.4900,96,93,198732
1.8133,0.2884,38.1800,96,93,198736
1.7840,0.2786,38.3600,96,93,198739
1.7791,0.2737,38.6200,96,93,198743
1.7937,0.2835,38.4900,96,93,198747
1.7742,0.2688,38.4900,96,93,198750
1.8377,0.2981,38.2700,96,93,198753
1.8084,0.2786,38.4300,96,93,198757
1.7986,0.2737,38.4000,96,93,198760
1.7791,0.3079,38.4900,96,93,198763
1.7693,0.2737,38.4900,96,93,198766
1.7937,0.2884,38.4000,96,93,198770
1.7742,0.2835,38.4900,96,93,198773
1.7840,0.2688,38.3600,96,93,198776
1.7840,0.2835,38.4600,96,93,198780
1.8133,0.2737,38.5200,96,93,198784
1.8280,0.2835,38.3300,96,93,198787
1.7986,0.2786,38.4600,96,93,198791
1.8084,0.2884,38.4900,96,93,198794
1.7693,0.2688,38.4600,96,93,198797
1.7693,0.2786,38.4900,96,93,198800
1.7937,0.2835,38.3600,96,93,198804
1.7889,0.3275,38.4900,96,93,198807
1.8280,0.2688,38.3000,96,93,198810
1.8182,0.2737,38.4600,96,93,198814
1.8280,0.2835,38.5200,96,93,198817
1.8573,0.2884,38.7100,96,93,198820
1.8475,0.2737,38.4900,96,93,198824
1.8964,0.2688,38.2400,96,93,198828
1.8622,0.2786,38.4600,96,93,198831
1.8719,0.2835,38.4900,96,93,198835
1.9013,0.2786,38.4600,96,93,198838
1.9110,0.2737,38.4900,96,93,198841
1.9697,0.2981,38.2100,96,93,198845
1.9257,0.2884,38.4000,96,93,198848
1.9062,0.2688,38.4600,96,93,198851
1.8915,0.2835,38.4900,96,93,198854
1.8671,0.2786,38.4900,96,93,198858
1.8915,0.2884,38.4000,96,93,198861
1.8426,0.2786,38.4000,96,93,198864
1.8231,0.2688,38.3600,96,93,198868
1.8035,0.2786,38.4900,96,93,198872
1.7986,0.2737,38.4900,96,93,198875
1.8231,0.2884,38.3000,96,93,198879
1.7937,0.2786,38.5500,96,93,198882
1.8035,0.2786,38.3300,96,93,198885
1.7644,0.2786,38.5500,96,93,198889
1.7302,0.2786,38.4600,96,93,198893
1.7253,0.2737,38.4900,96,93,198897
1.7400,0.2884,38.5500,96,93,198900
1.7302,0.2884,38.4900,96,93,198903
1.7791,0.2688,38.2100,96,93,198906
1.7644,0.2835,38.4000,96,93,198910
1.7546,0.2786,38.4900,96,93,198914
1.7546,0.2835,38.3000,96,93,198917
1.7302,0.2835,38.5500,96,93,198921
1.7791,0.2981,38.2400,96,93,198924
1.7546,0.2884,38.3600,96,93,198927
1.7595,0.2737,38.4600,96,93,198931
1.7937,0.2786,38.4600,96,93,198934
1.8328,0.2884,38.5200,96,93,198937
1.9795,0.2981,38.4300,96,93,198941
2.0235,0.2835,38.4900,96,93,198944
2.1652,0.2786,38.3600,96,93,198947
2.3363,0.2786,38.4900,96,93,198950
2.5513,0.2737,38.5200,96,93,198955
2.8152,0.2884,38.4300,96,93,198958
3.0059,0.2786,38.4900,96,93,198961
3.1769,0.2835,38.3300,96,93,198965
3.1427,0.2786,38.4900,96,93,198968
2.9765,0.2786,38.4900,96,93,198971
2.7273,0.2786,38.3600,96,93,198975
2.3607,0.2786,38.5500,96,93,198978
2.0919,0.2835,38.3300,96,93,198981
1.8084,0.2688,38.4300,96,93,198985
1.6178,0.2786,38.4900,96,93,198988
1.4858,0.2786,38.3000,96,93,198991
1.3685,0.2786,38.4900,96,93,198994
1.3245,0.2835,38.2700,96,93,198999
1.3196,0.2737,38.4000,96,93,199002
1.2659,0.2786,38.4900,96,93,199005
1.2952,0.2835,38.4300,96,93,199009
1.3148,0.2688,38.4900,96,93,199012
1.3734,0.2884,38.2100,96,93,199015
1.3783,0.2737,38.4300,96,93,199019
1.4125,0.2786,38.5200,96,93,199022
1.4418,0.2786,38.4900,96,93,199025
1.4565,0.2786,38.4900,96,93,199029
1.5152,0.2981,38.2700,96,93,199032
1.5103,0.2835,38.4600,96,93,199035
1.5054,0.2737,38.4300,96,93,199038
1.5200,0.2786,38.4900,96,93,199043
1.5396,0.2737,38.4900,96,93,199046
1.5836,0.2884,38.4600,96,93,199049
1.5836,0.2835,38.4600,96,93,199053
1.6031,0.2786,38.3600,96,93,199056
1.5885,0.2688,38.5500,96,93,199059
1.5982,0.2737,38.4900,96,93,199063
1.6373,0.2884,38.3600,96,93,199066
1.6325,0.2786,38.4900,96,93,199069
1.6569,0.2884,38.6200,96,93,199073
1.6471,0.2737,38.4900,96,93,199076
1.6618,0.2786,38.4900,96,93,199079
1.6813,0.3324,38.4000,96,93,199083
1.6862,0.2786,38.4900,96,93,199087
1.7009,0.2786,38.3300,96,93,199090
1.6716,0.2786,38.4600,96,93,199093
1.6667,0.2786,38.4900,96,93,199097
1.6764,0.2884,38.3600,96,93,199100
1.6667,0.2688,38.4900,96,93,199103
1.7058,0.2884,38.1800,96,93,199107
1.6960,0.2835,38.4000,96,93,199110
1.7009,0.2737,38.5200,96,93,199113
1.6960,0.2835,38.4300,96,93,199116
1.6813,0.2786,38.5500,96,93,199120
1.7449,0.2884,38.2100,96,93,199123
1.7107,0.2835,38.3600,96,93,199127
1.7009,0.2688,38.4600,96,93,199131
1.7155,0.2786,38.5200,96,93,199134
1.7155,0.2737,38.4900,96,93,199137
1.7693,0.2981,38.3000,96,93,199141
1.7302,0.2835,38.3300,96,93,199144
1.7302,0.2737,38.4000,96,93,199147
1.7204,0.2786,38.4900,96,93,199151
1.7155,0.2835,38.4900,96,93,199154
1.7351,0.2884,38.4300,96,93,199157
1.7155,0.2786,38.4600,96,93,199161
1.7400,0.2835,38.3300,96,93,199164
1.7204,0.2786,38.4900,96,93,199168
1.7595,0.2786,38.4900,96,93,199171
1.7595,0.2884,38.4000,96,93,199175
1.7351,0.2786,38.4600,96,93,199178
1.7693,0.2786,38.4000,96,93,199181
1.7400,0.2884,38.4900,96,93,199185
1.7498,0.2737,38.4900,96,93,199188
1.7693,0.2835,38.2700,96,93,199191
1.7546,0.2835,38.4900,96,93,199195
1.7840,0.2835,38.2700,96,93,199198
1.7742,0.2786,38.4000,96,93,199201
1.7791,0.2835,38.4900,96,93,199205
1.8035,0.2835,38.4300,96,93,199208
1.7889,0.2786,38.4900,96,93,199212
1.8426,0.2933,38.2400,96,93,199215
1.8133,0.2786,38.4000,96,93,199219
1.8328,0.2639,38.4900,96,93,199222
1.8475,0.2835,38.4600,96,93,199225
1.8475,0.2786,38.4900,96,93,199229
1.9110,0.2884,38.2400,96,93,199232
1.8817,0.2835,38.4600,96,93,199235
1.8768,0.2737,38.4000,96,93,199239
1.8866,0.2688,38.4600,96,93,199242
1.8866,0.2786,38.5500,96,93,199245
1.9257,0.2835,38.2700,96,93,199248
1.8866,0.2835,38.4300,96,93,199252
1.8573,0.2786,38.3300,96,93,199256
1.8280,0.2835,38.4900,96,93,199259
1.7937,0.2786,38.5200,96,93,199263
1.8084,0.2981,38.4300,96,93,199266
1.7840,0.2786,38.4900,96,93,199269
1.7986,0.2835,38.3600,96,93,199273
1.7791,0.2786,38.4900,96,93,199276
1.7791,0.2786,38.5500,96,93,199279
1.7889,0.2835,38.4000,96,93,199283
1.7742,0.2786,38.4900,96,93,199286
1.7986,0.2786,38.2700,96,93,199289
1.7791,0.2786,38.5200,96,93,199292
1.7791,0.2786,38.5500,96,93,199297
1.8084,0.2835,38.4000,96,93,199300
1.7791,0.2786,37.9600,96,93,199303
1.8084,0.3128,38.2400,96,93,199307
1.7889,0.2786,38.3600,96,93,199310
1.7742,0.2786,38.4000,96,93,199313
1.8035,0.2835,38.4300,96,93,199317
1.7840,0.2786,38.4900,96,93,199320
1.8280,0.2884,38.1800,96,93,199323
1.7840,0.2786,38.4000,96,93,199327
1.7644,0.2737,38.4900,96,93,199330
1.7595,0.2835,38.4900,96,93,199333
1.7595,0.2786,38.5500,96,93,199336
1.8084,0.2933,38.4000,96,93,199341
1.7840,0.2835,38.4300,96,93,199344
1.7693,0.2786,38.4300,96,93,199347
1.7693,0.2786,37.8300,96,93,199351
1.7693,0.2786,38.4900,96,93,199354
1.7937,0.2884,38.3600,96,93,199357
1.7693,0.2835,38.4900,96,93,199361
1.7840,0.2786,38.3600,96,93,199364
1.7644,0.3079,38.5500,96,93,199367
1.7742,0.2688,38.5200,96,93,199371
1.7986,0.2884,38.2700,96,93,199374
1.7693,0.2786,38.4900,96,93,199377
1.8035,0.2884,38.3600,96,93,199380
1.7791,0.2981,38.4900,96,93,199385
1.8133,0.2786,38.4900,96,93,199388
1.8084,0.3030,38.3600,96,93,199391
1.7937,0.2884,38.4600,96,93,199395
1.8231,0.2786,38.3000,96,93,199398
1.7986,0.2786,38.4000,96,93,199401
1.7986,0.2786,38.4900,96,93,199405
1.8133,0.2786,38.4000,96,93,199408
1.8084,0.2786,38.4600,96,93,199411
1.8475,0.3030,38.3000,96,93,199414
1.8035,0.2737,38.4600,96,93,199418
1.8133,0.2786,38.4900,96,93,199421
1.8231,0.2884,38.4600,96,93,199425
1.8133,0.2786,38.5200,96,93,199429
1.8719,0.2933,38.1800,96,93,199432
1.8475,0.2835,38.3600,96,93,199435
1.8475,0.2737,38.4900,96,93,199439
1.8622,0.2786,38.4600,96,93,199442
1.8719,0.2786,38.5500,96,93,199445
1.9453,0.2884,38.3000,96,93,199449
1.9404,0.2933,38.4000,96,93,199452
1.9599,0.2835,38.4000,96,93,199455
1.9550,0.2786,38.4300,96,93,199459
1.9550,0.2835,38.4900,96,93,199462
1.9697,0.2884,38.3300,96,93,199465
1.9306,0.2786,38.4600,96,93,199469
1.9208,0.2737,38.3300,96,93,199473
1.8622,0.2786,38.5200,96,93,199476
1.8377,0.2737,38.4900,96,93,199479
1.8231,0.2786,38.4000,96,93,199483
1.8133,0.2786,38.3600,96,93,199486
1.8328,0.2884,38.4000,96,93,199489
1.7986,0.2786,38.5800,96,93,199493
1.7986,0.2884,38.5200,96,93,199496
1.8182,0.2884,38.3600,96,93,199499
1.7400,0.2835,38.4600,96,93,199504
1.7302,0.2786,38.4900,96,93,199507
1.7840,0.2933,38.2100,96,93,199512
1.7546,0.2835,37.8000,96,93,199515
1.7449,0.2737,38.4600,96,93,199518
1.7546,0.2688,38.4600,96,93,199521
1.7498,0.2786,38.5200,96,93,199525
1.7889,0.2884,38.3600,96,93,199528
1.7498,0.2835,38.4300,96,93,199531
1.7595,0.2884,38.4000,96,93,199535
1.7400,0.2786,38.4900,96,93,199538
1.7449,0.2981,38.5200,96,93,199541
1.7937,0.2933,38.4300,96,93,199545
1.8182,0.2786,38.5200,96,93,199548
1.9013,0.2933,38.3300,96,93,199552
1.9550,0.2786,38.4600,96,93,199556
2.0919,0.2835,38.4900,96,93,199559
2.2287,0.2884,38.3600,96,93,199562
2.3656,0.2835,38.5500,96,93,199565
2.5953,0.2786,38.3300,96,93,199569
2.8006,0.2786,38.4300,96,93,199572
3.0156,0.2835,38.5200,96,93,199575
3.1965,0.2835,38.3300,96,93,199579
3.1525,0.2786,38.5800,96,93,199582
3.0303,0.3128,38.2700,96,93,199585
2.6931,0.2786,38.4000,96,93,199589
2.3607,0.2786,38.6800,96,93,199592
2.0919,0.2884,38.4900,96,93,199596
1.8328,0.2835,38.4600,96,93,199599
1.6813,0.2884,38.2400,96,93,199603
1.4956,0.2737,38.4300,96,93,199606
1.4027,0.2786,38.4900,96,93,199609
1.3587,0.2835,38.3300,96,93,199613
1.3294,0.2786,38.4900,96,93,199616
1.3636,0.2981,38.2400,96,93,199619
1.3343,0.2884,38.4000,96,93,199623
1.3490,0.2688,38.4300,96,93,199626
1.3685,0.2786,38.4600,96,93,199629
1.3881,0.2737,38.4900,96,93,199633
1.4370,0.2884,37.6500,96,93,199636
1.4370,0.2835,38.4300,96,93,199640
1.4565,0.2786,38.3600,96,93,199644
1.4614,0.2786,38.4900,96,93,199647
1.4907,0.2688,38.4900,96,93,199650
1.5298,0.2981,38.3000,96,93,199653
1.5249,0.2786,38.4900,96,93,199657
1.5591,0.2884,37.9300,96,93,199660
1.5396,0.2835,38.4900,96,93,199663
1.5494,0.2786,38.4900,96,93,199667
1.5787,0.2786,38.4900,96,93,199670
1.5885,0.2786,38.4900,96,93,199673
1.6227,0.2786,38.3300,96,93,199677
1.6129,0.2786,38.4900,96,93,199681
1.6227,0.2786,38.5200,96,93,199684
1.6373,0.3030,38.4900,96,93,199688
1.6325,0.2786,38.4900,96,93,199691
1.6667,0.2884,38.2100,96,93,199694
1.6520,0.2835,38.4300,96,93,199697
1.6422,0.2786,38.4900,96,93,199701
1.6569,0.2835,38.4300,96,93,199704
1.6422,0.2786,38.4900,96,93,199707
1.6960,0.2884,38.1100,96,93,199711
1.7058,0.2786,38.4300,96,93,199714
1.6667,0.2737,38.4900,96,93,199717
1.6813,0.2786,38.4600,96,93,199721
1.7058,0.2737,38.4900,96,93,199725
1.7498,0.2981,38.3300,96,93,199728
1.7155,0.2835,38.4600,96,93,199732
1.7107,0.2786,38.4000,96,93,199735
1.6911,0.2786,38.4900,96,93,199738
1.6911,0.2786,38.4900,96,93,199741
1.7155,0.2933,38.4300,96,93,199745
1.6960,0.2786,38.4900,96,93,199748
1.7107,0.2835,38.5200,96,93,199751
1.6862,0.2786,38.4900,96,93,199755
1.6764,0.2786,38.5200,96,93,199758
1.6911,0.3079,38.3600,96,93,199761
1.6618,0.2786,38.4900,96,93,199766
1.6911,0.2884,38.3600,96,93,199769
1.6716,0.2688,38.4300,96,93,199772
1.6862,0.2786,38.4600,96,93,199776
1.7107,0.2835,38.3300,96,93,199779
1.6960,0.2786,38.3000,96,93,199782
1.7351,0.2835,38.3300,96,93,199785
1.7155,0.2786,38.4300,96,93,199789
1.7155,0.2786,38.4900,96,93,199792
1.7302,0.2786,38.4300,96,93,199795
1.7204,0.2786,38.4900,96,93,199799
1.7595,0.2884,38.2700,96,93,199802
1.7253,0.2786,38.4000,96,93,199805
1.7351,0.2786,38.5200,96,93,199810
1.7449,0.2835,38.4900,96,93,199813
1.7546,0.2786,38.5500,96,93,199816
1.8133,0.2688,38.2700,96,93,199820
1.7791,0.2835,38.4300,96,93,199823
1.7791,0.2933,38.4000,96,93,199826
1.7889,0.2786,38.4900,96,93,199830
1.7986,0.2786,38.4000,96,93,199833
1.8426,0.2884,38.3000,96,93,199836
1.8280,0.2835,38.4600,96,93,199839
1.8426,0.3030,38.3600,96,93,199843
1.8280,0.2786,38.4900,96,93,199846
1.8280,0.2737,38.4900,96,93,199849
1.8524,0.2884,38.3600,96,93,199854
1.8280,0.2786,38.5200,96,93,199857
1.8475,0.2884,38.3600,96,93,199860
1.8182,0.2786,38.5200,96,93,199864
1.8231,0.2786,38.4900,96,93,199867
1.8377,0.2835,38.4000,96,93,199870
1.8231,0.2786,38.5200,96,93,199874
1.8622,0.2786,38.3000,96,93,199877
1.8084,0.2786,38.4900,96,93,199880
1.8231,0.2737,38.5500,96,93,199883
1.8182,0.2884,38.4900,96,93,199887
1.8231,0.2835,38.4900,96,93,199890
1.8182,0.2884,38.2400,96,93,199894
1.7791,0.2884,38.3600,96,93,199898
1.7595,0.2688,38.5200,96,93,199901
1.7693,0.2835,38.4600,96,93,199904
1.7644,0.2786,38.4900,96,93,199908
1.8133,0.2981,38.2100,96,93,199911
1.7840,0.2835,38.3600,96,93,199914
1.7644,0.2737,38.4300,96,93,199918
1.7693,0.2884,38.4600,96,93,199921
1.7595,0.2688,38.4900,96,93,199924
1.8084,0.2884,37.8300,96,93,199927
1.7742,0.2933,38.4600,96,93,199931
1.7742,0.2786,38.4300,96,93,199934
1.7595,0.2835,38.4900,96,93,199938
1.7546,0.2786,38.4900,96,93,199942
1.7742,0.2981,38.4000,96,93,199945
1.7546,0.2835,38.4600,96,93,199948
1.7693,0.2835,38.4000,96,93,199952
1.7400,0.2786,38.4900,96,93,199955
1.7449,0.2688,38.5200,96,93,199958
1.7742,0.2884,38.3300,96,93,199962
1.7498,0.2884,38.4900,96,93,199965
1.7693,0.2884,38.3000,96,93,199968
1.7840,0.2786,38.4000,96,93,199971
1.7498,0.2786,38.4900,96,93,199975
1.7644,0.2835,38.2700,96,93,199979
1.7546,0.2786,38.4900,96,93,199982
1.7986,0.2835,38.2700,96,93,199986
1.7742,0.2835,38.4300,96,93,199989
1.7742,0.2786,38.4900,96,93,199992
1.7840,0.2835,38.6200,96,93,199996
1.7742,0.3079,38.4900,96,93,199999
1.8280,0.2933,38.2100,96,93,200002
1.7937,0.2884,38.4000,96,93,200006
1.8377,0.2737,38.4900,96,93,200009
1.8133,0.2786,38.5200,96,93,200012
1.8035,0.2737,38.4900,96,93,200015
1.8524,0.2981,38.3600,96,93,200019
1.8133,0.2884,38.4000,96,93,200023
1.7937,0.2737,38.4300,96,93,200026
1.7937,0.2884,38.4900,96,93,200030
1.7937,0.2786,38.5200,96,93,200033
1.8328,0.2884,37.5900,96,93,200036
1.8328,0.2786,38.4600,96,93,200040
1.8622,0.2786,38.3600,96,93,200043
1.8719,0.2835,38.4900,96,93,200046
1.8768,0.2835,38.4900,96,93,200050
1.9062,0.2884,38.6200,96,93,200053
1.8671,0.2835,38.4900,96,93,200056
1.8768,0.2884,38.3600,96,93,200059
1.8524,0.2786,38.4600,96,93,200064
1.8622,0.2786,38.4900,96,93,200067
1.9013,0.2835,38.4000,96,93,200070
1.9013,0.2786,38.5800,96,93,200074
1.9257,0.2835,38.3000,96,93,200077
1.8915,0.2786,38.4900,96,93,200080
1.8866,0.2737,38.4600,96,93,200084
1.9159,0.2786,38.4300,96,93,200087
1.8426,0.2786,38.4600,96,93,200090
1.8671,0.2884,38.2400,96,93,200094
1.8133,0.2835,38.4300,96,93,200097
1.7840,0.2688,38.5500,96,93,200100
1.7791,0.2835,38.4900,96,93,200103
1.7546,0.2786,38.5200,96,93,200108
1.8328,0.3030,38.1800,96,92,200111
1.7742,0.2884,38.3600,96,92,200116
1.7546,0.2786,38.3300,96,92,200119
1.7693,0.2835,38.4300,96,92,200122
1.7498,0.2786,38.5800,96,92,200126
1.7498,0.2737,38.4900,96,92,200129
1.7693,0.2786,38.4300,96,92,200132
1.7595,0.2835,38.4900,96,92,200136
1.8084,0.2884,38.3600,96,92,200139
1.7644,0.2786,38.4900,96,92,200142
1.7644,0.2737,38.4900,96,92,200146
1.7889,0.2884,38.4000,96,92,200150
1.7693,0.2884,38.4600,96,92,200153
1.8035,0.2835,38.3000,96,92,200156
1.8084,0.2786,38.4300,96,92,200160
1.8280,0.2786,38.5200,96,92,200163
1.8866,0.2835,38.4000,96,92,200166
1.9257,0.2737,38.4900,96,92,200170
2.0626,0.2884,38.2400,96,92,200173
2.1554,0.2835,38.8400,96,92,200176
2.3118,0.2737,38.5500,96,92,200180
2.5220,0.2835,38.4600,96,92,200183
2.7273,0.2786,38.4600,96,92,200186
3.0401,0.2884,38.1800,96,92,200189
3.1574,0.2786,38.4900,96,92,200194
3.2111,0.2737,38.4900,96,92,200197
3.1232,0.2835,38.5200,96,92,200200
2.8592,0.2786,38.4900,96,92,200204
2.6100,0.3030,38.3300,96,92,200207
2.2630,0.2835,38.4300,96,92,200210
1.9844,0.2786,38.4000,96,92,200214
1.7595,0.2786,38.4900,96,92,200217
1.5982,0.2786,38.4300,96,92,200220
1.5200,0.2933,38.3000,96,92,200224
1.4174,0.2835,38.6500,96,92,200227
1.3783,0.2835,38.3300,96,92,200230
1.3343,0.2688,38.4900,96,92,200233
1.3294,0.2786,38.5200,96,92,200238
1.3490,0.2884,38.4000,96,92,200241
1.3490,0.2786,38.4900,96,92,200244
1.3978,0.2835,38.4900,96,92,200248
1.3881,0.2933,38.4600,96,92,200251
1.4076,0.2786,38.4900,96,92,200254
1.4321,0.2835,38.4000,96,92,200258
1.4761,0.2835,38.4900,96,92,200261
1.4761,0.2786,38.3000,96,92,200264
1.4712,0.2835,38.4900,96,92,200268
1.4907,0.2786,38.4900,96,92,200271
1.5152,0.2884,38.4300,96,92,200274
1.5200,0.2786,38.4900,96,92,200278
1.5738,0.2884,38.2400,96,92,200282
1.5885,0.2884,38.4000,96,92,200285
1.5738,0.2786,38.5800,96,92,200288
1.5982,0.2786,38.4600,96,92,200292
1.5934,0.2786,38.4900,96,92,200295
1.6569,0.2981,38.2400,96,92,200298
1.6520,0.2835,38.4000,96,92,200302
1.6569,0.2786,38.4900,96,92,200305
1.6764,0.2884,38.4600,96,92,200308
1.6667,0.2786,38.4900,96,92,200312
1.7155,0.2884,38.3300,96,92,200315
1.7058,0.2835,38.4300,96,92,200318
1.6764,0.2786,38.4000,96,92,200322
1.6569,0.2786,38.4600,96,92,200326
1.6569,0.2786,38.4900,96,92,200329
1.6862,0.2884,38.4000,96,92,200332
1.7058,0.2835,38.5200,96,92,200336
1.6960,0.2835,38.3600,96,92,200339
1.6764,0.2737,38.4900,96,92,200342
1.6813,0.2688,38.5200,96,92,200346
1.7107,0.2884,38.3300,96,92,200349
1.6911,0.2786,38.4600,96,92,200352
1.7107,0.2786,38.3300,96,92,200356
1.7107,0.2835,38.3600,96,92,200359
1.6960,0.2688,38.4900,96,92,200363
1.7204,0.2884,38.3600,96,92,200366
1.7009,0.2688,38.4900,96,92,200370
1.7400,0.2835,38.3000,96,92,200373
1.7204,0.2786,38.4300,96,92,200376
1.7400,0.2688,38.4900,96,92,200380
1.7253,0.2835,38.4300,96,92,200383
1.7009,0.3128,38.5500,96,92,200386
1.7302,0.2933,38.2400,96,92,200390
1.6862,0.2737,38.5200,96,92,200393
1.6960,0.3079,38.5200,96,92,200396
1.7107,0.2688,38.4900,96,92,200399
1.7155,0.2786,38.5200,96,92,200403
1.7693,0.2981,38.2700,96,92,200407
1.7351,0.2835,38.4300,96,92,200410
1.7253,0.2737,38.4900,96,92,200414
1.7302,0.2786,38.4600,96,92,200417
1.7253,0.2786,38.5200,96,92,200420
1.7791,0.2933,38.3000,96,92,200424
1.7351,0.2884,38.4300,96,92,200427
1.7400,0.2884,38.3600,96,92,200430
1.7302,0.2688,38.4900,96,92,200434
1.7400,0.2786,38.5500,96,92,200437
1.7840,0.2835,38.3300,96,92,200440
1.7840,0.2786,38.4600,96,92,200443
1.8084,0.2884,38.3600,96,92,200448
1.7937,0.2786,38.5200,96,92,200451
1.8133,0.2786,38.4900,96,92,200454
1.8475,0.2786,38.4300,96,92,200458
1.8915,0.2835,38.4900,96,92,200461
1.8817,0.2786,38.3300,96,92,200464
1.8573,0.3079,38.4900,96,92,200468
1.8475,0.2786,38.4900,96,92,200471
1.8573,0.2884,38.4900,96,92,200474
1.8671,0.2786,38.4900,96,92,200478
1.8817,0.2835,38.2100,96,92,200481
1.8622,0.2884,38.4000,96,92,200484
1.8426,0.2786,38.4900,96,92,200487
1.8475,0.2835,38.4600,96,92,200492
1.8280,0.2786,38.4900,96,92,200495
1.8768,0.2884,38.2100,96,92,200498
1.8719,0.2786,38.3600,96,92,200502
1.8377,0.2737,38.7100,96,92,200505
1.8817,0.2835,38.4900,96,92,200508
1.8426,0.2786,38.5200,96,92,200512
1.8915,0.2981,38.3300,96,92,200515
1.8573,0.2884,38.4300,96,92,200518
1.8426,0.2786,38.4000,96,92,200522
1.8377,0.2786,38.4600,96,92,200525
1.8328,0.2786,38.4900,96,92,200528
1.8622,0.2884,38.4000,96,92,200531
1.8524,0.2835,38.5500,96,92,200536
1.8622,0.2835,38.3600,96,92,200539
1.8328,0.2786,38.4900,96,92,200542
1.8084,0.2786,38.4900,96,92,200546
1.8084,0.2884,38.4000,96,92,200549
1.7644,0.2786,38.4900,96,92,200552
1.7840,0.2835,38.4000,96,92,200556
1.7595,0.2737,38.5800,96,92,200559
1.7595,0.2933,38.5500,96,92,200562
1.7693,0.2835,38.3600,96,92,200566
1.7351,0.2835,38.4900,96,92,200569
1.7498,0.2688,38.3000,96,92,200572
1.7302,0.2786,38.4000,96,92,200576
1.7302,0.2786,38.4900,96,92,200580
1.7498,0.2884,38.4300,96,92,200583
1.7302,0.2786,38.4900,96,92,200586
1.7693,0.2933,38.2100,96,92,200590
1.7302,0.2737,38.7100,96,92,200593
1.7400,0.2835,38.5200,96,92,200596
1.7595,0.2835,38.4300,96,92,200600
1.7498,0.2786,38.4900,96,92,200603
1.8035,0.2981,38.2700,96,92,200606
1.7742,0.2835,38.4000,96,92,200610
1.7986,0.2737,38.4600,96,92,200613
1.7791,0.2786,38.4900,96,92,200616
1.8084,0.2786,38.4900,96,92,200620
1.8231,0.2884,38.3600,96,92,200624
1.7986,0.2933,38.4300,96,92,200627
1.8084,0.2786,38.3600,96,92,200630
1.8182,0.2786,38.7100,96,92,200634
1.8377,0.2737,38.5500,96,92,200637
1.8719,0.2884,38.3300,96,92,200640
1.8426,0.2786,38.4900,96,92,200644
1.8671,0.2786,38.3600,96,92,200647
1.8231,0.2786,38.5200,96,92,200650
1.8671,0.2786,38.5200,96,92,200654
1.8573,0.2835,38.4300,96,92,200657
1.8573,0.2786,38.4000,96,92,200660
1.8915,0.2884,38.4300,96,92,200664
1.8768,0.2786,38.4900,96,92,200668
1.8866,0.2737,38.5200,96,92,200671
1.9159,0.2835,38.4000,96,92,200674
1.9110,0.2835,38.5500,96,92,200678
1.9697,0.2835,38.2700,96,92,200681
1.9501,0.2835,38.4000,96,92,200684
1.9404,0.2786,38.4900,96,92,200688
1.9550,0.2835,38.4300,96,92,200691
1.9257,0.2786,38.4900,96,92,200694
1.9453,0.2933,38.2100,96,92,200698
1.8622,0.2786,38.7400,96,92,200701
1.8182,0.2737,38.4900,96,92,200705
1.8133,0.2786,38.4600,96,92,200708
1.8133,0.2786,38.4600,96,92,200712
1.8817,0.2981,38.3000,96,92,200715
1.8377,0.2835,38.4900,96,92,200718
1.8328,0.2737,38.4000,96,92,200722
1.7693,0.2786,38.4600,96,92,200725
1.7204,0.2688,38.4900,96,92,200730
1.7302,0.2835,38.4900,96,92,200733
1.7693,0.2884,38.4000,96,92,200736
1.7595,0.2835,38.4600,96,92,200740
1.7986,0.2786,38.3300,96,92,200743
1.7742,0.2786,38.5200,96,92,200747
1.7644,0.3128,38.4900,96,92,200751
1.7791,0.2884,38.1500,96,92,200754
1.7546,0.2981,38.4000,96,92,200757
1.8035,0.2884,38.2700,96,92,200760
1.7595,0.2835,38.4300,96,92,200764
1.7693,0.2786,38.4600,96,92,200767
1.8328,0.2688,38.4300,96,92,200770
1.8328,0.2786,38.5500,96,92,200774
1.9257,0.2933,38.2100,96,92,200777
1.9404,0.2786,38.3300,96,92,200780
2.0283,0.2639,38.4900,96,92,200784
2.1799,0.2688,38.4600,96,92,200787
2.3754,0.2737,38.4900,96,92,200791
2.7077,0.2688,38.3000,96,92,200795
2.9277,0.2835,38.4000,96,92,200798
3.1427,0.2835,38.4000,96,92,200801
3.2551,0.2786,38.4900,96,92,200804
3.2258,0.2786,38.4300,96,92,200808
3.0890,0.2835,38.3000,96,92,200811
2.7468,0.2835,38.4600,96,92,200814
2.4340,0.2786,38.3600,96,92,200818
2.1310,0.2786,38.4900,96,92,200821
1.8866,0.2786,38.4900,96,92,200824
1.7253,0.2933,38.4000,96,92,200828
1.5640,0.2786,38.4600,96,92,200832
1.4712,0.2884,38.3600,96,92,200835
1.3881,0.2737,38.4900,96,92,200839
1.3587,0.2786,38.6200,96,92,200842
1.3539,0.2835,38.4000,96,92,200845
1.3343,0.2688,38.4900,96,92,200848
1.3392,0.2786,38.3000,96,92,200852
1.3196,0.2786,38.4900,96,92,200855
1.3294,0.2786,38.4900,96,92,200858
1.3734,0.3079,38.4300,96,92,200862
1.3978,0.2786,38.4900,96,92,200865
1.4565,0.2884,38.2400,96,92,200868
1.4712,0.2933,38.4000,96,92,200872
1.4858,0.2786,38.4900,96,92,200876
1.5200,0.2933,38.4300,96,92,200879
1.5543,0.2835,38.4900,96,92,200883
1.5836,0.2933,38.2100,96,92,200886
1.5689,0.2835,38.3600,96,92,200889
1.5738,0.2737,38.4600,96,92,200892
1.5836,0.2835,38.5500,96,92,200896
1.5836,0.2786,38.5500,96,92,200899
1.6227,0.2933,38.3600,96,92,200902
1.5982,0.2835,38.4600,96,92,200906
1.5982,0.2786,38.4000,96,92,200909
1.6276,0.2737,38.4900,96,92,200912
1.6178,0.2786,38.4600,96,92,200916
1.6764,0.2835,38.4300,96,92,200920
1.6471,0.2786,38.5200,96,92,200923
1.6618,0.2835,38.2700,96,92,200927
1.6276,0.2688,38.5200,96,92,200930
1.6227,0.2786,38.4900,96,92,200933
1.6471,0.2884,38.3600,96,92,200936
1.6325,0.2786,38.4000,96,92,200940
1.6716,0.3128,38.3300,96,92,200943
1.6471,0.2786,38.4300,96,92,200946
1.6569,0.2786,37.8000,96,92,200950
1.6716,0.2835,38.3600,96,92,200953
1.6520,0.2786,38.4300,96,92,200956
1.6911,0.3079,38.3000,96,92,200961
1.6716,0.2786,38.4300,96,92,200964
1.6618,0.2737,38.4300,96,92,200967
1.6764,0.2786,38.4600,96,92,200971
1.6667,0.2786,38.4900,96,92,200974
1.7155,0.2884,38.2100,96,92,200977
1.7009,0.2835,38.4300,96,92,200980
1.6960,0.2737,38.4900,96,92,200984
1.7155,0.2786,38.4900,96,92,200987
1.7253,0.2786,38.4900,96,92,200990
1.7791,0.2981,38.2700,96,92,200994
1.7498,0.2786,38.4600,96,92,200997
1.7058,0.2737,38.4000,96,92,201000
1.7302,0.2786,38.5200,96,92,201005
1.7058,0.2786,38.4900,96,92,201008
1.7498,0.2884,38.2700,96,92,201011
1.7253,0.2835,38.4600,96,92,201015
1.7449,0.2786,38.3000,96,92,201018
1.7302,0.2835,38.4900,96,92,201021
1.7351,0.2688,38.4900,96,92,201024
1.7644,0.2981,38.1500,96,92,201028
1.7546,0.2835,38.4600,96,92,201031
1.7644,0.2884,38.4000,96,92,201034
1.7351,0.2786,38.4900,96,92,201038
1.7400,0.2688,38.4900,96,92,201041
1.7595,0.2786,38.4600,96,92,201044
1.7742,0.3079,38.4900,96,92,201049
1.8182,0.2786,38.3000,96,92,201052
1.8084,0.2835,38.4900,96,92,201055
1.8280,0.2835,38.4900,96,92,201059
1.8475,0.2884,38.4600,96,92,201062
1.8671,0.2786,38.4900,96,92,201065
1.8866,0.2835,38.2400,96,92,201068
1.8768,0.2835,38.4000,96,92,201072
1.8768,0.2737,38.4900,96,92,201075
1.8866,0.2835,38.4900,96,92,201078
1.8817,0.2835,38.4300,96,92,201082
1.9355,0.2884,38.2100,96,92,201085
1.8817,0.2737,38.3600,96,92,201089
1.8768,0.2688,38.4600,96,92,201093
1.8915,0.2786,38.4600,96,92,201096
1.9062,0.2737,38.5200,96,92,201099
1.9110,0.2933,38.3300,96,92,201103
1.8768,0.2884,38.4300,96,92,201106
1.8817,0.2786,38.3600,96,92,201109
1.8573,0.2737,38.4900,96,92,201112
1.8377,0.2786,38.4900,96,92,201116
1.8719,0.2884,38.4900,96,92,201119
1.8573,0.2933,38.4600,96,92,201122
1.8622,0.2786,38.3300,96,92,201126
1.8133,0.2639,38.4900,96,92,201129
1.7986,0.2786,38.4900,96,92,201133
1.8280,0.2884,38.3600,96,92,201137
1.8035,0.2786,38.4600,96,92,201140
1.8475,0.2786,38.3000,96,92,201143
1.8280,0.2835,38.4000,96,92,201147
1.8280,0.2688,38.4900,96,92,201150
1.8377,0.2835,38.3300,96,92,201153
1.8084,0.2786,38.4900,96,92,201156
1.8231,0.2835,38.2700,96,92,201160
1.7791,0.2786,38.4000,96,92,201163
1.7840,0.2786,38.4900,96,92,201166
1.7791,0.2835,38.5500,96,92,201170
1.7693,0.2786,38.4900,96,92,201174
1.8231,0.2933,38.2100,96,92,201177
1.7791,0.2737,38.4000,96,92,201181
1.7840,0.2737,38.5200,96,92,201184
1.7937,0.2835,38.4000,96,92,201187
1.7840,0.2737,38.5200,96,92,201191
1.8377,0.2981,38.2700,96,92,201194
1.7986,0.2884,38.4000,96,92,201197
1.7840,0.2737,38.4300,96,92,201200
1.7889,0.2786,38.4900,96,92,201204
1.7937,0.2786,38.5200,96,92,201207
1.8328,0.2884,38.3000,96,92,201210
1.8133,0.2835,38.4900,96,92,201214
1.8475,0.2835,38.3600,96,92,201218
1.8035,0.2786,38.4600,96,92,201221
1.8035,0.2737,38.4900,96,92,201225
1.8280,0.2884,38.3600,96,92,201228
1.8084,0.2835,38.4600,96,92,201231
1.8426,0.2835,38.3600,96,92,201235
1.8182,0.2786,38.4300,96,92,201238
1.8231,0.2786,38.5200,96,92,201241
1.8328,0.2786,38.4000,96,92,201244
1.8328,0.2786,38.4900,96,92,201248
1.8671,0.2835,38.3000,96,92,201251
1.8426,0.2786,38.5500,96,92,201254
1.8524,0.2737,38.4900,96,92,201259
1.8768,0.2884,38.4300,96,92,201262
1.8622,0.2884,38.4900,96,92,201265
1.9013,0.2884,38.2400,96,92,201269
1.8866,0.2835,38.4000,96,92,201272
1.8768,0.2786,38.4900,96,92,201275
1.9013,0.2835,38.3300,96,92,201279
1.9110,0.2737,38.4900,96,92,201282
1.9941,0.2933,38.2400,96,92,201285
1.9697,0.2835,38.3300,96,92,201289
1.9599,0.2688,38.4600,96,92,201292
1.9550,0.2786,38.5200,96,92,201295
1.9306,0.2737,38.4900,96,92,201298
1.9501,0.2933,38.3600,96,92,201303
1.8964,0.2835,38.4300,96,92,201306
1.8768,0.2786,38.4000,96,92,201309
1.8524,0.2786,38.3300,96,92,201313
1.8475,0.2786,38.4900,96,92,201316
1.8622,0.2884,38.4000,96,92,201319
1.8671,0.2737,38.4900,96,92,201323
1.8622,0.2835,38.4000,96,92,201326
1.8231,0.2786,38.5200,96,92,201329
1.8280,0.2786,38.4900,96,92,201333
1.8475,0.3128,38.3600,96,92,201336
1.7595,0.2786,38.4000,96,92,201341
1.7400,0.2786,38.4900,96,92,201345
1.7937,0.2884,38.2700,96,92,201348
1.7742,0.2688,38.4000,96,92,201351
1.7693,0.2737,38.4900,96,92,201355
1.7791,0.2835,38.4900,96,92,201358
1.7742,0.2786,38.4900,96,92,201361
1.8328,0.2981,38.2400,96,92,201365
1.8035,0.2737,38.4300,96,92,201368
1.8133,0.2688,38.4600,96,92,201371
1.8328,0.2835,38.5500,96,92,201375
1.8524,0.2786,38.4900,96,92,201378
1.9355,0.3030,38.3300,96,92,201381
1.9697,0.2933,38.4600,96,92,201385
2.0821,0.2786,38.4000,96,92,201389
2.2190,0.2786,38.4600,96,92,201392
2.4291,0.2835,38.4900,96,92,201395
2.6931,0.2884,38.3000,96,92,201399
2.9081,0.2786,38.4600,96,92,201402
3.1818,0.2786,38.3300,96,92,201405
3.2942,0.2786,38.4000,96,92,201409
3.3040,0.2786,38.4900,96,92,201412
3.1867,0.2786,38.4000,96,92,201415
2.8397,0.2786,38.4900,96,92,201419
2.5318,0.2786,38.3600,96,92,201422
2.1896,0.2688,38.4600,96,92,201425
1.9404,0.2737,38.5200,96,92,201428
1.7546,0.2835,38.3600,96,92,201433
1.5934,0.2786,38.5200,96,92,201436
1.5152,0.2835,38.3000,96,92,201439
1.4272,0.2688,38.4900,96,92,201443
1.3930,0.2688,38.4900,96,92,201446
1.3881,0.2835,38.4900,96,92,201449
1.3783,0.2786,38.4900,96,92,201453
1.4223,0.2884,38.2400,96,92,201456
1.4370,0.2786,38.4000,96,92,201459
1.4370,0.2737,38.4900,96,92,201463
1.4809,0.2835,38.4600,96,92,201466
1.5054,0.2737,38.4900,96,92,201469
1.5885,0.2981,38.3600,96,92,201473
1.5934,0.2835,38.4300,96,92,201477
1.5934,0.2737,38.4300,96,92,201480
1.6031,0.2835,38.4600,96,92,201483
1.6178,0.2737,38.4900,96,92,201487
1.6520,0.2835,38.3300,96,92,201490
1.6422,0.2786,38.4900,96,92,201493
1.6520,0.2786,38.3600,96,92,201497
1.6373,0.2786,38.4900,96,92,201500
1.6373,0.2737,38.5200,96,92,201503
1.6569,0.2835,38.4900,96,92,201507
1.6471,0.2786,38.4900,96,92,201510
1.6813,0.2835,38.4000,96,92,201513
1.6618,0.2737,38.4900,96,92,201517
1.6764,0.2786,38.5200,96,92,201521
1.7058,0.2884,38.3600,96,92,201524
1.6862,0.2786,38.4900,96,92,201527
1.7107,0.2786,38.2700,96,92,201531
1.7155,0.2737,38.4000,96,92,201534
1.7058,0.2737,38.5200,96,92,201537
1.7449,0.2981,38.4000,96,92,201541
1.7302,0.2835,38.4900,96,92,201544
1.7693,0.2835,38.3000,96,92,201547
1.7498,0.2786,38.4300,96,92,201551
1.7498,0.2737,38.4900,96,92,201554
1.7644,0.2786,38.4600,96,92,201558
1.7498,0.2688,38.5200,96,92,201561
1.7986,0.2884,38.1800,96,92,201565
1.7791,0.2737,38.4000,96,92,201568
1.7546,0.2688,38.4900,96,92,201571
1.7595,0.2786,38.4900,96,92,201575
1.7644,0.2688,38.4900,96,92,201578
1.8280,0.2933,38.2700,96,92,201581
1.7986,0.2737,38.4600,96,92,201585
1.8035,0.2688,38.4000,96,92,201588
1.7889,0.2786,38.4900,96,92,201591
1.7889,0.2688,38.5500,96,92,201595
1.8231,0.2884,38.2700,96,92,201598
1.7986,0.2786,38.4600,96,92,201602
1.8133,0.2786,38.3600,96,92,201605
1.7937,0.2786,38.4900,96,92,201609
1.8084,0.2737,38.4900,96,92,201612
1.8377,0.2884,37.8000,96,92,201615
1.8182,0.2786,38.4600,96,92,201619
1.8671,0.2835,38.3600,96,92,201622
1.8280,0.2737,38.4300,96,92,201625
1.8328,0.2737,38.4900,96,92,201629
1.8573,0.2786,38.4000,96,92,201632
1.8426,0.2737,38.4000,96,92,201635
1.8719,0.3128,38.3000,96,92,201639
1.8524,0.2737,38.6200,96,92,201643
1.8622,0.2835,38.4900,96,92,201646
1.8866,0.2835,38.4300,96,92,201649
1.8719,0.2688,38.5200,96,92,201653
1.9208,0.2884,38.2400,96,92,201656
1.8964,0.2786,38.4000,96,92,201659
1.8817,0.2835,38.4900,96,92,201663
1.9013,0.2786,38.6500,96,92,201666
1.8964,0.2639,38.4900,96,92,201669
1.9599,0.2981,38.2400,96,92,201673
1.9355,0.2737,38.4000,96,92,201676
1.9355,0.2737,38.4600,96,92,201679
1.9404,0.2737,38.7100,96,92,201683
1.9404,0.2786,38.4900,96,92,201687
1.9892,0.2884,38.3300,96,92,201690
1.9648,0.2835,38.4600,96,92,201693
1.9746,0.2786,38.3600,96,92,201697
1.9550,0.2737,38.5200,96,92,201700
1.9355,0.2737,38.4900,96,92,201703
1.9550,0.2835,38.5500,96,92,201707
1.9355,0.3030,38.4900,96,92,201710
1.9844,0.2786,38.3600,96,92,201713
1.9306,0.3030,38.4900,96,92,201717
1.9550,0.2786,38.4900,96,92,201720
1.9501,0.2835,38.3600,96,92,201723
1.9453,0.2737,38.4900,96,92,201728
1.9404,0.2737,38.3600,96,92,201731
1.9159,0.2737,38.4000,96,92,201734
1.9062,0.2737,38.4900,96,92,201737
1.9208,0.2884,38.3300,96,92,201741
1.8915,0.2737,38.4900,96,92,201744
1.9159,0.2835,38.2700,96,92,201747
1.8866,0.2981,38.4600,96,92,201751
1.8768,0.2737,38.5200,96,92,201754
1.8866,0.2786,38.4300,96,92,201757
1.8671,0.2737,38.4900,96,92,201761
1.9159,0.2835,38.2100,96,92,201764
1.8671,0.2786,38.4000,96,92,201767
1.8573,0.2688,38.4900,96,92,201772
1.8671,0.2786,38.4900,96,92,201775
1.8671,0.2737,38.4900,96,92,201778
1.9208,0.2933,38.3300,96,92,201781
1.8866,0.2835,38.3300,96,92,201785
1.8817,0.2737,38.4000,96,92,201788
1.8866,0.2737,38.3300,96,92,201791
1.8915,0.2688,38.4900,96,92,201795
1.9355,0.2688,38.3300,96,92,201798
1.9062,0.2835,38.4600,96,92,201801
1.9159,0.2786,38.3600,96,92,201805
1.9013,0.2737,38.4600,96,92,201808
1.9159,0.2786,38.4900,96,92,201811
1.9110,0.2884,38.4900,96,92,201816
1.8768,0.2737,38.4600,96,92,201819
1.8964,0.2835,38.4000,96,92,201822
1.8719,0.2737,38.4900,96,92,201825
1.8866,0.2639,38.5200,96,92,201829
1.9110,0.2786,38.4000,96,92,201832
1.9062,0.2737,38.5200,96,92,201835
1.9404,0.2737,38.3300,96,92,201839
1.9208,0.2737,38.0200,96,92,201842
1.9306,0.2737,38.5800,96,92,201845
1.9795,0.2786,38.4300,96,92,201849
1.9404,0.2737,38.5200,96,92,201852
1.9892,0.2933,38.2400,96,92,201856
1.9697,0.2786,38.4600,96,92,201860
1.9648,0.3079,38.5200,96,92,201863
1.9892,0.2786,38.4600,96,92,201866
1.9844,0.2737,38.5500,96,92,201869
2.0479,0.2835,38.2100,96,92,201873
2.0235,0.2786,38.3600,96,92,201876
2.0137,0.2835,38.4300,96,92,201879
2.0283,0.2737,38.4900,96,92,201883
2.0283,0.2737,38.4900,96,92,201886
2.0968,0.2884,38.5200,96,92,201889
2.0772,0.2786,38.4600,96,92,201893
2.1017,0.2737,38.4000,96,92,201896
2.0772,0.2737,38.4900,96,92,201900
2.0674,0.2737,38.4300,96,92,201903
2.0870,0.2835,38.4000,96,92,201907
2.0528,0.2786,38.4900,96,92,201910
2.0528,0.2688,38.3600,96,92,201913
2.0088,0.2835,38.4900,96,92,201917
1.9795,0.2786,38.4900,96,92,201920
1.9941,0.2835,38.3300,96,92,201923
1.9599,0.2737,38.4600,96,92,201927
1.9941,0.2786,38.4300,96,92,201930
1.9453,0.2688,38.4900,96,92,201933
1.9501,0.2835,38.3600,96,92,201936
1.9746,0.2786,38.4000,96,92,201940
1.9453,0.2737,38.4900,96,92,201944
1.9648,0.2737,38.3000,96,92,201947
1.9795,0.2835,38.2100,96,92,201952
1.9062,0.2737,38.5800,96,92,201955
1.9013,0.2786,38.5500,96,92,201959
1.9062,0.2737,38.4900,96,92,201962
1.8866,0.2737,38.4900,96,92,201965
1.9306,0.2688,38.2700,96,92,201969
1.8866,0.2786,38.4300,96,92,201972
1.8768,0.2688,38.4000,96,92,201975
1.8817,0.2737,38.4900,96,92,201979
1.8915,0.2737,38.3600,96,92,201982
1.9501,0.2786,38.3300,96,92,201986
1.9550,0.2786,38.5800,96,92,201989
2.0137,0.2737,38.4000,96,92,201993
2.0577,0.2737,38.4900,96,92,201996
2.1603,0.2688,38.4900,96,92,201999
2.3265,0.2835,38.3000,96,92,202003
2.4487,0.2737,38.4600,96,92,202006
2.6882,0.2737,38.3600,96,92,202009
2.8690,0.2737,38.5800,96,92,202013
3.1036,0.2835,38.4900,96,92,202016
3.3089,0.2737,38.4300,96,92,202019
3.3284,0.2737,38.5200,96,92,202022
3.2454,0.2737,38.3000,96,92,202027
2.9570,0.2737,38.5200,96,92,202030
2.6491,0.2737,38.5200,96,92,202033
2.3851,0.2786,38.6200,96,92,202037
2.1212,0.2688,38.4900,96,92,202040
1.9550,0.2786,38.3600,96,92,202043
1.7791,0.3079,38.4000,96,92,202047
1.6569,0.2737,38.4900,96,92,202050
1.5934,0.2786,38.4000,96,92,202053
1.5591,0.2737,38.4900,96,92,202057
1.5494,0.2835,38.2100,96,92,202060
1.4956,0.2835,38.3600,96,92,202063
1.4907,0.2688,38.4900,96,92,202066
1.5005,0.2786,38.4300,96,92,202071
1.5200,0.2737,38.4900,96,92,202074
1.5885,0.2786,38.3000,96,92,202077
1.5689,0.2786,38.4000,96,92,202081
1.5738,0.2688,38.4300,96,92,202084
1.6080,0.2786,38.5500,96,92,202087
1.5934,0.2737,38.5500,96,92,202091
1.6716,0.2835,38.4000,96,92,202094
1.6325,0.2688,38.4900,96,92,202097
1.6569,0.2786,38.4000,96,92,202100
1.6618,0.2688,38.4900,96,92,202104
1.6813,0.2737,38.4300,96,92,202107
1.7253,0.2835,38.4300,96,92,202110
1.7107,0.2737,38.5800,96,92,202115
1.7351,0.2786,38.4000,96,92,202118
1.7155,0.2688,38.4900,96,92,202121
1.7155,0.2688,38.4000,96,92,202125
1.7498,0.2786,38.3600,96,92,202128
1.7351,0.2737,38.4600,96,92,202131
1.7595,0.2786,38.3300,96,92,202135
1.7400,0.2737,38.3600,96,92,202138
1.7400,0.2884,38.4900,96,92,202141
1.7498,0.2786,38.4300,96,92,202144
1.7302,0.2786,38.4900,96,92,202148
1.7693,0.2835,38.2400,96,92,202151
1.7351,0.2688,38.4900,96,92,202155
1.7449,0.2737,38.5500,96,92,202159
1.7449,0.2786,38.4600,96,92,202162
1.7400,0.2786,38.5500,96,92,202165
1.7937,0.2786,38.2400,96,92,202169
1.7546,0.2786,38.4000,96,92,202172
1.7449,0.2688,38.4900,96,92,202175
1.7546,0.2737,38.4900,96,92,202179
1.7644,0.2688,38.4300,96,92,202182
1.8231,0.2933,38.3000,96,92,202185
1.7986,0.2786,38.3600,96,92,202188
1.7937,0.2737,38.4000,96,92,202192
1.7840,0.2737,38.5200,96,92,202195
1.7889,0.2688,38.5500,96,92,202199
1.8231,0.2786,38.3600,96,92,202203
1.8231,0.2737,38.4900,96,92,202206
1.8475,0.3079,38.3300,96,92,202209
1.8280,0.2688,38.4900,96,92,202213
1.8280,0.2688,38.5800,96,92,202216
1.8426,0.2786,38.4600,96,92,202219
1.8377,0.2737,38.4900,96,92,202223
1.8719,0.2737,38.4000,96,92,202226
1.8426,0.2737,38.4900,96,92,202229
1.8524,0.2688,38.6200,96,92,202232
1.8719,0.2835,38.4300,96,92,202236
1.8622,0.2688,38.6800,96,92,202240
1.8915,0.2737,38.3000,96,92,202243
1.8768,0.2737,38.4000,96,92,202247
1.8719,0.2688,38.5200,96,92,202250
1.9013,0.2835,38.4300,96,92,202253
1.8866,0.2688,38.4900,96,92,202257
1.9453,0.2835,38.2400,96,92,202260
1.9257,0.2737,38.4000,96,92,202263
1.9306,0.2737,38.4900,96,92,202267
1.9599,0.2835,38.4300,96,92,202270
1.9648,0.2737,38.5200,96,92,202273
2.0283,0.2933,38.2400,96,92,202276
1.9844,0.2835,38.4300,96,92,202280
1.9697,0.2688,38.4300,96,92,202284
1.9599,0.2737,38.4600,96,92,202287
1.9453,0.2688,38.4900,96,92,202291
1.9746,0.2884,38.3600,96,92,202294
1.9746,0.2786,38.4600,96,92,202297
1.9404,0.2737,38.3600,96,92,202301
1.9159,0.2737,38.4600,96,92,202304
1.9257,0.2737,38.5500,96,92,202307
1.9697,0.2786,38.3000,96,92,202311
1.9550,0.2737,38.3300,96,92,202314
1.9795,0.2835,38.3600,96,92,202317
1.9550,0.2688,38.4600,96,92,202320
1.9501,0.2737,38.5200,96,92,202324
1.9648,0.2786,38.3600,96,92,202328
1.9355,0.2737,38.4900,96,92,202331
1.9599,0.2786,38.3300,96,92,202335
1.9355,0.2737,38.4300,96,92,202338
1.9355,0.2737,38.4900,96,92,202341
1.9501,0.2835,38.4900,96,92,202345
1.9257,0.2688,38.4900,96,92,202348
1.9697,0.2835,38.2700,96,92,202351
1.9208,0.2688,38.4300,96,92,202355
1.9355,0.2737,38.5500,96,92,202358
1.9306,0.2786,38.5800,96,92,202361
1.9110,0.2835,38.5500,96,92,202365
1.9648,0.2884,38.2100,96,92,202369
1.9306,0.2786,38.3600,96,92,202372
1.9110,0.2737,38.5200,96,92,202375
1.9159,0.2737,38.4300,96,92,202379
1.9110,0.2737,38.5500,96,92,202382
1.9599,0.2688,38.3000,96,92,202385
1.9208,0.2786,38.4300,96,92,202389
1.9062,0.2737,38.4000,96,92,202392
1.8915,0.2688,38.4900,96,92,202395
1.8866,0.2688,37.9000,96,92,202399
1.9257,0.2786,38.3300,96,92,202402
1.9013,0.2737,38.6500,96,92,202405
1.9159,0.2835,38.3300,96,92,202409
1.8915,0.2688,38.4900,96,92,202413
1.8964,0.2933,38.4600,96,92,202416
1.9208,0.2737,38.4300,96,92,202419
1.9159,0.2737,38.5500,96,92,202423
1.9404,0.2933,38.4300,96,92,202426
1.9110,0.2737,38.5200,96,92,202429
1.9208,0.2786,38.4900,96,92,202433
1.9599,0.2786,38.3600,96,92,202436
1.9599,0.2737,38.5200,96,92,202439
1.9990,0.2786,38.2700,96,92,202443
1.9746,0.2786,38.3600,96,92,202446
1.9599,0.2737,38.4900,96,92,202449
1.9697,0.2835,38.3600,96,92,202454
1.9599,0.2737,38.4900,96,92,202457
1.9990,0.2835,38.2100,96,92,202460
1.9550,0.2737,38.3600,96,92,202463
1.9501,0.2688,38.4900,96,92,202467
1.9648,0.2786,38.4900,96,92,202470
1.9648,0.2737,38.4900,96,92,202473
2.0381,0.2933,38.2700,96,92,202477
2.0088,0.2786,38.4000,96,92,202480
2.0088,0.2639,38.4600,96,92,202483
2.0186,0.2737,38.4900,96,92,202487
2.0235,0.2688,38.4900,96,92,202490
2.0723,0.3177,38.3600,96,92,202493
2.0674,0.2786,38.4600,96,92,202497
2.0723,0.2688,38.4000,96,92,202501
2.0626,0.2737,38.5200,96,92,202504
2.0674,0.2737,38.4900,96,92,202507
2.1114,0.2835,38.3300,96,92,202511
2.0674,0.2786,38.4900,96,92,202514
2.0723,0.2737,38.3300,96,92,202517
2.0235,0.2737,38.4900,96,92,202521
1.9941,0.2688,38.5500,96,92,202524
2.0137,0.2835,38.3600,96,92,202527
1.9404,0.2737,38.4900,96,92,202530
1.9501,0.2835,38.4600,96,92,202534
1.9208,0.2737,38.4900,96,92,202537
1.9013,0.2737,38.4900,96,92,202541
1.9013,0.2933,38.4000,96,92,202545
1.8671,0.2737,38.4900,96,92,202548
1.8817,0.2786,38.4600,96,92,202551
1.8377,0.2737,38.4900,96,92,202555
1.8328,0.2688,38.4900,96,92,202558
1.8524,0.2786,38.4300,96,92,202561
1.8231,0.2737,38.4900,96,92,202566
1.8231,0.2688,38.4900,96,92,202569
1.8768,0.3030,38.3600,96,92,202573
1.8622,0.2786,38.4300,96,92,202576
1.8719,0.2737,38.4600,96,92,202579
1.8671,0.2737,38.4900,96,92,202584
1.8671,0.2688,38.5200,96,92,202587
1.9355,0.2835,38.3600,96,92,202590
1.8866,0.2737,38.4600,96,92,202593
1.9159,0.2786,38.3600,96,92,202597
1.9355,0.2737,38.4900,96,92,202600
1.9453,0.2884,38.4900,96,92,202603
2.0430,0.2688,38.4300,96,92,202607
2.0919,0.2737,38.4900,96,92,202610
2.2483,0.2737,38.3300,96,92,202613
2.3803,0.2688,38.4900,96,92,202617
2.5855,0.2737,38.5200,96,92,202620
2.8397,0.2835,38.4000,96,92,202624
3.0401,0.2688,38.4900,96,92,202628
3.2698,0.2786,38.2700,96,92,202631
3.2893,0.3079,38.3600,96,92,202634
3.1574,0.2737,38.4900,96,92,202637
2.9374,0.2835,38.4300,96,92,202641
2.6002,0.2737,38.5200,96,92,202644
2.3705,0.2835,38.2100,96,92,202647
2.0674,0.3079,38.4000,96,92,202651
1.8475,0.2639,38.5200,96,92,202654
1.6960,0.2786,38.4900,96,92,202657
1.5689,0.2737,38.4900,96,92,202661
1.5347,0.2933,38.2400,96,92,202664
1.4614,0.2835,38.4000,96,92,202668
1.4370,0.2639,38.4300,96,92,202671
1.4272,0.2688,38.4900,96,92,202675
1.4174,0.2639,38.4900,96,92,202678
1.4663,0.2884,38.3600,96,92,202681
1.4516,0.2737,38.4600,96,92,202685
1.5054,0.2737,38.3600,96,92,202688
1.4858,0.2786,38.4900,96,92,202691
1.5445,0.2786,38.4900,96,92,202695
1.5640,0.2835,38.3300,96,92,202698
1.5591,0.2835,38.4900,96,92,202701
1.5885,0.2786,38.4000,96,92,202705
1.5836,0.2688,38.4900,96,92,202708
1.5982,0.2688,38.5500,96,92,202712
1.6227,0.2786,38.3600,96,92,202715
1.6129,0.2688,38.5500,96,92,202719
1.6471,0.2737,38.3300,96,92,202722
1.6325,0.2737,38.4300,96,92,202725
1.6422,0.2737,38.5200,96,92,202729
1.6618,0.2835,38.4300,96,92,202732
1.6569,0.2786,38.5200,96,92,202735
1.7107,0.2786,38.2700,96,92,202739
1.6813,0.2688,38.4900,96,92,202742
1.7058,0.2688,38.5200,96,92,202745
1.7204,0.2786,38.4600,96,92,202749
1.7302,0.2786,38.4900,96,92,202753
1.8035,0.2884,38.2400,96,92,202756
1.7840,0.2786,38.4300,96,92,202759
1.7693,0.2688,38.4900,96,92,202763
1.7693,0.2737,38.4600,96,92,202766
1.7498,0.2737,38.6200,96,92,202769
1.7937,0.2933,38.3000,96,92,202773
1.7693,0.2786,38.4300,96,92,202776
1.7644,0.2737,38.4300,96,92,202779
1.7595,0.2737,38.4900,96,92,202783
1.7546,0.2737,38.5200,96,92,202786
1.7742,0.2786,38.3600,96,92,202789
1.7449,0.2786,38.5200,96,92,202793
1.7546,0.2786,38.3300,96,92,202797
1.7253,0.2688,38.5500,96,92,202800
1.7204,0.2737,38.4300,96,92,202803
1.7351,0.2737,38.4300,96,92,202807
1.7302,0.2737,38.5200,96,92,202810
1.7644,0.2737,38.3600,96,92,202813
1.7449,0.3030,38.4300,96,92,202817
1.7595,0.2933,38.5200,96,92,202820
1.7889,0.2786,38.4000,96,92,202823
1.7840,0.2737,38.4900,96,92,202827
1.8133,0.2737,38.3000,96,92,202830
1.7986,0.2688,38.3600,96,92,202833
1.7889,0.2688,38.5200,96,92,202838
1.8084,0.2835,38.4000,96,92,202841
1.7889,0.2737,38.5200,96,92,202844
1.8377,0.2835,38.3000,96,92,202847
1.8133,0.2737,38.4300,96,92,202851
1.8182,0.2737,38.5500,96,92,202854
1.8328,0.2688,38.4900,96,92,202857
1.8182,0.2737,38.4900,96,92,202861
1.8964,0.2933,38.2700,96,92,202864
1.8133,0.2786,38.3000,96,92,202867
1.7986,0.2737,38.4300,96,92,202871
1.8035,0.2786,38.4900,96,92,202874
1.8084,0.2737,38.4600,96,92,202877
1.8768,0.2933,38.3600,96,92,202882
1.8524,0.2786,38.4600,96,92,202885
1.8768,0.2737,38.4000,96,92,202888
1.8719,0.2737,38.4600,96,92,202892
1.8817,0.2737,38.5200,96,92,202895
1.9062,0.2835,38.3300,96,92,202898
1.8915,0.2786,38.6200,96,92,202901
1.9550,0.2786,38.3600,96,92,202905
1.9159,0.2688,38.4900,96,92,202908
1.9208,0.2737,38.5200,96,92,202911
1.9453,0.2786,38.3600,96,92,202915
1.9306,0.2737,38.6800,96,92,202918
1.9599,0.2737,38.3000,96,92,202921
1.9355,0.2737,38.4300,96,92,202926
1.9159,0.2981,38.5200,96,92,202929
1.9159,0.2688,38.4000,96,92,202932
1.8817,0.2737,38.7400,96,92,202936
1.9110,0.2786,38.2400,96,92,202939
1.8622,0.2688,38.5200,96,92,202942
1.8622,0.2737,38.5200,96,92,202945
1.8671,0.2786,38.4600,96,92,202949
1.8622,0.2737,38.4900,96,92,202952
1.9159,0.2884,38.2100,96,92,202955
1.8671,0.2786,38.4600,96,92,202959
1.8475,0.2737,38.4900,96,92,202962
1.8426,0.2688,38.4600,96,92,202966
1.8719,0.2688,38.4900,96,92,202970
1.8866,0.2884,38.3300,96,92,202973
1.8573,0.3079,38.4300,96,92,202976
1.8475,0.2737,38.3600,96,92,202980
1.8426,0.2737,38.4600,96,92,202983
1.8426,0.2835,38.5200,96,92,202986
1.8524,0.2835,38.4900,96,92,202989
1.8231,0.2737,38.4900,96,92,202993
1.8231,0.2786,38.3600,96,92,202996
1.7937,0.2786,38.5500,96,92,202999
1.7937,0.2737,38.6200,96,92,203003
1.7937,0.2786,38.3600,96,92,203006
1.7840,0.2737,38.4900,96,92,203010
1.8182,0.2737,38.3300,96,92,203014
1.7986,0.2737,38.4900,96,92,203017
1.8035,0.2737,38.5200,96,92,203020
1.8280,0.2835,38.4300,96,92,203024
1.8035,0.2737,38.4900,96,92,203027
1.8328,0.2786,38.2400,96,92,203030
1.8035,0.2786,38.4000,96,92,203034
1.7986,0.2737,38.4900,96,92,203037
1.8231,0.2737,38.4300,96,92,203040
1.8133,0.2737,38.4900,96,92,203043
1.8768,0.2884,38.2400,96,92,203047
1.8524,0.2786,38.3600,96,92,203051
1.8426,0.2639,38.4900,96,92,203054
1.8622,0.2688,38.4600,96,92,203058
1.8573,0.2737,38.6800,96,92,203061
1.9257,0.2933,38.4300,96,92,203064
1.8866,0.2786,38.5500,96,92,203068
1.8866,0.2688,38.4000,96,92,203071
1.9013,0.2835,38.4900,96,92,203074
1.8719,0.2737,38.5200,96,92,203078
1.9013,0.2786,38.4300,96,92,203081
1.8768,0.2786,38.4600,96,92,203084
1.9013,0.2786,38.3300,96,92,203087
1.8915,0.2786,38.4900,96,92,203091
1.9013,0.2737,38.4900,96,92,203095
1.9404,0.3324,38.3600,96,92,203098
1.9208,0.2737,38.5200,96,92,203102
1.9550,0.2835,38.4000,96,92,203105
1.9306,0.2737,38.4600,96,92,203108
1.9404,0.2688,38.5200,96,92,203112
1.9599,0.2884,38.4300,96,92,203115
1.9599,0.2737,38.5200,96,92,203118
1.9697,0.2786,38.3300,96,92,203122
1.9257,0.2737,38.4600,96,92,203125
1.8866,0.2737,38.5200,96,92,203128
1.8768,0.2835,38.3600,96,92,203131
1.8573,0.2737,38.5200,96,92,203136
1.8817,0.2835,38.2400,96,92,203139
1.8719,0.2786,38.4900,96,92,203142
1.8475,0.2737,38.4900,96,92,203146
1.8475,0.2835,38.4900,96,92,203149
1.8426,0.2688,38.4900,96,92,203152
1.9013,0.2933,38.2100,96,92,203156
1.8573,0.2786,38.4000,96,92,203159
1.8280,0.2688,38.4600,96,92,203162
1.8084,0.2737,38.4600,96,92,203166
1.7889,0.2688,38.4900,96,92,203169
1.8377,0.2835,38.4000,97,92,203172
1.7840,0.2786,38.4300,97,92,203177
1.7840,0.2786,38.4900,97,92,203181
1.8133,0.2835,38.4300,97,92,203184
1.7937,0.2688,38.5200,97,92,203188
1.8084,0.2737,38.4900,97,92,203191
1.8328,0.2786,38.4000,97,92,203194
1.8280,0.2737,38.4900,97,92,203198
1.8817,0.2737,38.3000,97,92,203201
1.8866,0.2688,38.5500,97,92,203204
1.9306,0.2737,38.4900,97,92,203208
2.0088,0.2835,38.4900,97,92,203211
2.0674,0.2835,38.4900,97,92,203214
2.2483,0.2688,38.2400,97,92,203218
2.3803,0.2786,38.3600,97,92,203222
2.5709,0.2835,38.4900,97,92,203225
2.8299,0.2786,38.4600,97,92,203228
3.0547,0.2737,38.4900,97,92,203232
3.3382,0.2884,38.2100,97,92,203235
3.3236,0.2786,38.4300,97,92,203238
3.1965,0.2737,38.4600,97,92,203242
2.9423,0.2786,38.4900,97,92,203245
2.6246,0.2737,38.4000,97,92,203248
2.3803,0.2933,38.3000,97,92,203252
2.0870,0.2786,38.4600,97,92,203255
1.8671,0.2737,38.4000,97,92,203258
1.6911,0.2737,38.4900,97,92,203262
1.5494,0.2737,38.6200,97,92,203266
1.4809,0.2835,38.4000,97,92,203269
1.4174,0.2737,38.4900,97,92,203272
1.3978,0.2737,38.4900,97,92,203276
1.3636,0.2737,38.4900,97,92,203279
1.3636,0.2737,38.4900,97,92,203282
1.4027,0.2786,38.4000,97,92,203286
1.4076,0.2737,38.5800,97,92,203289
1.4614,0.2835,38.3300,97,92,203292
1.4712,0.2688,38.4300,97,92,203296
1.5103,0.2737,37.9000,97,92,203299
1.5347,0.2835,38.3600,97,92,203302
1.5591,0.2737,38.5200,97,92,203307
1.6129,0.2786,38.2700,97,92,203310
1.5982,0.2737,38.4900,97,92,203313
1.6031,0.2737,38.6800,97,92,203316
1.6227,0.2835,38.4600,97,92,203320
1.6178,0.2786,38.4900,97,92,203323
1.6716,0.2835,38.2100,97,92,203326
1.6422,0.2737,38.4300,97,92,203330
1.6373,0.2737,38.4900,97,92,203333
1.6373,0.2786,38.4600,97,92,203336
1.6373,0.2737,38.5500,97,92,203340
1.6911,0.2884,38.3000,97,92,203343
1.6569,0.2786,38.4300,97,92,203346
1.6569,0.2737,38.4000,97,92,203351
1.6618,0.2786,38.4900,97,92,203354
1.6667,0.2737,38.4900,97,92,203357
1.6960,0.3079,38.2700,97,92,203360
1.6667,0.2786,38.4600,97,92,203364
1.7009,0.2786,38.3600,97,92,203367
1.7155,0.2688,38.4900,97,92,203370
1.6960,0.2737,38.5200,97,92,203374
1.7058,0.2884,38.4000,97,92,203377
1.6764,0.2737,38.4900,97,92,203380
1.7107,0.2835,38.3600,97,92,203384
1.6960,0.2737,38.4900,97,92,203387
1.7449,0.2737,38.5200,97,92,203390
1.7351,0.2786,38.4900,97,92,203395
1.7253,0.2688,38.4900,97,92,203398
1.7498,0.2688,38.3000,97,92,203401
1.7155,0.2737,38.5200,97,92,203404
1.7058,0.2688,38.4300,97,92,203408
1.7058,0.2786,38.4600,97,92,203411
1.7058,0.2786,38.4900,97,92,203414
1.7595,0.2835,38.2400,97,92,203418
1.7253,0.2835,38.4900,97,92,203421
1.7009,0.2737,38.5200,97,92,203424
1.7058,0.2835,38.4300,97,92,203428
1.6911,0.2737,38.5200,97,92,203431
1.7498,0.2884,38.2400,97,92,203435
1.7302,0.2737,38.3600,97,92,203439
1.7302,0.2688,38.4600,97,92,203442
1.7449,0.2786,38.4600,97,92,203445
1.7498,0.2688,38.5200,97,92,203448
1.8084,0.2884,38.4000,97,92,203452
1.7791,0.2737,38.4300,97,92,203455
1.7889,0.2737,38.4000,97,92,203458
1.7693,0.2737,38.6800,97,92,203462
1.7937,0.2737,38.4900,97,92,203465
1.7889,0.2835,38.4300,97,92,203468
1.7644,0.2737,38.4900,97,92,203472
1.8377,0.2786,38.3600,97,92,203475
1.7986,0.2737,38.5200,97,92,203479
1.8182,0.2737,38.5200,97,92,203483
1.8524,0.2835,38.4000,97,92,203486
1.8182,0.2786,38.5200,97,92,203489
1.8475,0.2737,38.3600,97,92,203492
1.8231,0.2737,38.4600,97,92,203496
1.8280,0.2737,38.5200,97,92,203499
1.8573,0.2835,38.4000,97,92,203502
1.8671,0.2737,38.5200,97,92,203506
1.8866,0.2786,38.2700,97,92,203509
1.8817,0.2737,38.4600,97,92,203512
1.8524,0.2737,38.4900,97,92,203516
1.8671,0.2981,38.4900,97,92,203520
1.8524,0.2688,38.4900,97,92,203523
1.9013,0.2884,38.2700,97,92,203527
1.8671,0.2737,38.4600,97,92,203530
1.8622,0.2688,38.4900,97,92,203533
1.8622,0.2835,38.4600,97,92,203537
1.8426,0.2737,38.5500,97,92,203540
1.8915,0.2933,38.3000,97,92,203543
1.8426,0.2786,38.4300,97,92,203546
1.8280,0.2737,38.4600,97,92,203550
1.8280,0.2688,38.4900,97,92,203553
1.8328,0.2737,38.3600,97,92,203556
1.8915,0.2786,38.3000,97,92,203560
1.8524,0.2786,38.4600,97,92,203564
1.8622,0.2884,38.3600,97,92,203567
1.8377,0.2737,38.4900,97,92,203571
1.8182,0.2786,38.4900,97,92,203574
1.8133,0.2835,38.4600,97,92,203577
1.7791,0.2737,38.4900,97,92,203581
1.7986,0.2786,38.4000,97,92,203584
1.7693,0.2688,38.5800,97,92,203587
1.7840,0.2639,38.5500,97,92,203590
1.8182,0.2688,38.4000,97,92,203594
1.8524,0.2737,38.6200,97,92,203597
1.9355,0.2737,38.3000,97,92,203600
1.9550,0.2737,38.6200,97,92,203604
1.9844,0.2786,38.4900,97,92,203608
2.0235,0.2835,38.3600,97,92,203611
2.0088,0.2737,38.4900,97,92,203615
2.0870,0.2835,38.2400,97,92,203618
2.0919,0.2786,38.4000,97,92,203621
2.1065,0.2737,38.5500,97,92,203625
2.1554,0.2688,38.4600,97,92,203628
2.2141,0.2737,38.5500,97,92,203631
2.3656,0.3030,38.2100,97,92,203634
2.3558,0.2786,38.3600,97,92,203638
2.2727,0.2688,38.4600,97,92,203641
2.1603,0.2786,38.5200,97,92,203644
1.9404,0.2688,38.4900,97,92,203649
1.7889,0.2884,38.3600,97,92,203652
1.5738,0.2786,38.4600,97,92,203655
1.4027,0.2737,38.1100,97,92,203659
1.2317,0.2737,38.4900,97,92,203662
1.0606,0.2737,38.6500,97,92,203665
0.9140,0.2835,38.4000,97,92,203669
0.7625,0.2884,38.4900,97,92,203672
0.6500,0.2737,38.4300,97,92,203675
0.5670,0.2737,38.5200,97,92,203678
0.5181,0.2737,38.4900,97,92,203682
0.5230,0.2933,38.3600,97,92,203685
0.5474,0.2688,38.4900,97,92,203688
0.6158,0.2786,38.5800,97,92,203693
0.6891,0.2688,38.4300,97,92,203696
0.8065,0.2786,38.4900,97,92,203699
0.9580,0.2786,38.4000,97,92,203702
1.1046,0.2737,38.5200,97,92,203706
1.2854,0.2835,38.3000,97,92,203709
1.4272,0.2737,38.4300,97,92,203712
1.5738,0.2835,38.4900,97,92,203716
1.7155,0.2786,38.4000,97,92,203719
1.8084,0.2737,38.4900,97,92,203722
1.9404,0.2835,38.3000,97,92,203726
1.9844,0.2737,38.4600,97,92,203729
2.0674,0.2737,38.5800,97,92,203732
2.1554,0.2786,38.4600,97,92,203736
2.2092,0.2737,38.4900,97,92,203740
2.3216,0.2884,38.1800,97,92,203743
2.3265,0.2786,38.4300,97,92,203746
2.3363,0.2688,38.4900,97,92,203750
2.3509,0.2786,38.4900,97,92,203753
2.3412,0.2786,38.4900,97,92,203756
2.3998,0.2884,38.3000,97,92,203760
2.3509,0.3030,38.4000,97,92,203763
2.3216,0.2835,38.4300,97,92,203766
2.2972,0.2688,38.4900,97,92,203770
2.2727,0.2737,38.4900,97,92,203773
2.2776,0.2933,38.3600,97,92,203777
2.2239,0.2786,38.5500,97,92,203780
2.2190,0.3079,38.3600,97,92,203784
2.1848,0.2688,38.5200,96,92,203787
2.1799,0.2737,38.4900,96,92,203792
2.1896,0.2737,38.5500,96,92,203795
2.2239,0.2786,38.4300,96,92,203798
2.2043,0.2786,38.5500,96,92,203802
2.2630,0.2835,38.2400,96,92,203805
2.2434,0.2786,38.2700,96,92,203808
2.2336,0.2639,38.5200,96,92,203812
2.2678,0.2786,38.5500,96,92,203815
2.2678,0.2737,38.5200,96,92,203819
2.3460,0.2786,38.2100,96,92,203823
2.3216,0.2786,38.4600,96,92,203826
2.3216,0.2639,38.5500,96,92,203829
2.3460,0.2688,38.4900,96,92,203832
2.3607,0.2688,38.4900,96,92,203836
2.4438,0.2884,38.3300,96,92,203839
2.4096,0.2688,38.4300,96,92,203842
2.4145,0.2737,38.4000,96,92,203846
2.4096,0.2737,38.4900,96,92,203849
2.4194,0.2737,38.5200,96,92,203852
2.4682,0.2835,38.4000,96,92,203856
2.4487,0.2884,38.4600,96,92,203859
2.4780,0.2786,38.3600,96,92,203863
2.4536,0.3030,38.5200,96,92,203867
2.4536,0.2786,38.4600,96,92,203870
2.4878,0.2884,37.6500,96,92,203873
2.4340,0.2688,38.5200,96,92,203876
2.4487,0.2786,38.4300,96,92,203880
2.3998,0.2688,38.4600,96,92,203883
2.3705,0.2737,38.5200,96,92,203886
2.3607,0.2786,38.3600,96,92,203890
2.2972,0.2737,38.4000,96,92,203893
2.2874,0.2835,38.3300,96,92,203896
2.2141,0.2688,38.4300,96,92,203900
2.1652,0.2737,38.5200,96,92,203904
2.1603,0.2835,38.4300,96,92,203907
2.0674,0.2737,38.5200,96,92,203910
2.0674,0.2835,38.3300,96,92,203914
1.9844,0.2737,38.4300,96,92,203917
1.9453,0.2737,38.5200,96,92,203920
1.9208,0.2835,38.4600,96,92,203924
1.8671,0.2737,38.5200,96,92,203927
1.8719,0.2835,38.2700,96,92,203930
1.7986,0.2786,38.4000,96,92,203934
1.7400,0.2688,38.4900,96,92,203937
1.7107,0.2688,38.4900,96,92,203940
1.6716,0.2737,38.5200,96,92,203944
1.6813,0.2884,38.3000,96,92,203948
1.6325,0.2786,38.4900,96,92,203951
1.6129,0.2933,38.3600,96,92,203955
1.5836,0.2737,38.4900,96,92,203958
1.5640,0.2688,38.4900,96,92,203961
1.5689,0.2835,38.3300,96,92,203964
1.5200,0.2737,38.5200,96,92,203968
1.5347,0.2786,38.3300,96,92,203971
1.5152,0.2737,38.4900,96,92,203974
1.5200,0.2737,38.4900,96,92,203978
1.5640,0.2737,38.4000,96,92,203981
1.5249,0.2737,38.4900,96,92,203984
1.5445,0.2737,38.4600,96,92,203988
1.5200,0.2688,38.4600,96,92,203992
1.5298,0.2688,38.6200,96,92,203995
1.5591,0.2786,38.3600,96,92,203998
1.5640,0.2737,37.9900,96,92,204002
1.6080,0.2933,38.3000,96,92,204005
1.6227,0.2835,38.4000,96,92,204008
1.6129,0.2688,38.4900,96,92,204012
1.6520,0.2786,38.4300,96,92,204015
1.6422,0.2737,38.4900,96,92,204018
1.6960,0.2835,38.1800,96,92,204022
1.7058,0.2737,38.4000,96,92,204025
1.6813,0.2786,38.5200,96,92,204028
1.6911,0.2786,38.4600,96,92,204033
1.6862,0.2835,38.5200,96,92,204036
1.7498,0.2884,38.2700,96,92,204039
1.7204,0.2933,38.4300,96,92,204042
1.7302,0.2737,38.4600,96,92,204046
1.7546,0.2737,38.4900,96,92,204049
1.7693,0.2688,38.4600,96,92,204052
1.7889,0.2884,38.3300,96,92,204056
1.7449,0.2737,38.4600,96,92,204059
1.7351,0.2737,38.3600,96,92,204062
1.7009,0.2688,38.4900,96,92,204066
1.6960,0.2688,38.4900,96,92,204069
1.7351,0.2835,38.3300,96,92,204072
1.7155,0.2737,38.4900,96,92,204077
1.7400,0.2835,38.4000,96,92,204080
1.7498,0.2737,38.4900,96,92,204083
1.7155,0.2688,38.5200,96,92,204086
1.7253,0.3128,38.3600,96,92,204090
1.7058,0.2737,38.4900,96,92,204093
1.7302,0.2786,38.3300,96,92,204096
1.7058,0.2737,38.4600,96,92,204100
1.7058,0.2688,38.5500,96,92,204103
1.7449,0.2835,38.4300,96,92,204106
1.7253,0.2737,38.5200,96,92,204110
1.7693,0.2835,38.2700,96,92,204113
1.7351,0.2688,38.4900,96,92,204116
1.7449,0.2688,38.5200,96,92,204121
1.7644,0.2786,38.4300,96,92,204124
1.7351,0.2688,38.4900,96,92,204127
1.8084,0.2884,38.2700,96,92,204131
1.7449,0.2786,38.4300,96,92,204134
1.7400,0.2737,38.4600,96,92,204137
1.7449,0.2688,38.4600,96,92,204140
1.7595,0.2688,38.5200,96,92,204144
1.8084,0.2884,38.3000,96,92,204147
1.7840,0.2786,38.4600,96,92,204150
1.7791,0.2786,38.4300,96,92,204154
1.7742,0.2786,38.4900,96,92,204157
1.7742,0.2737,38.4600,96,92,204161
1.8084,0.2786,38.3300,96,92,204165
1.7937,0.2737,38.4900,96,92,204168
1.8084,0.2737,38.3300,96,92,204171
1.8182,0.2737,38.5500,96,92,204175
1.7889,0.2737,38.4900,96,92,204178
1.8280,0.2737,38.4300,96,92,204181
1.8133,0.2688,38.4900,96,92,204184
1.8426,0.2737,38.4000,96,92,204188
1.8231,0.2688,38.5200,96,92,204191
1.8426,0.2688,38.4900,96,92,204194
1.8719,0.2835,38.3600,96,92,204198
1.8475,0.2737,37.9600,96,92,204201
1.8768,0.2835,38.2700,96,92,204205
1.8475,0.2737,38.4000,96,92,204209
1.8328,0.2737,38.6800,96,92,204212
1.8426,0.2786,38.4300,96,92,204215
1.8280,0.2737,38.5800,96,92,204219
1.8768,0.2884,38.3000,96,92,204222
1.8426,0.2737,38.4000,96,92,204225
1.8377,0.2737,38.4900,96,92,204228
1.8524,0.2835,38.4900,96,92,204232
1.8475,0.2688,38.5200,96,92,204235
1.8915,0.2933,38.6200,96,92,204238
1.8524,0.2688,38.4600,96,92,204242
1.8328,0.2688,38.4300,96,92,204246
1.8231,0.2884,38.4900,96,92,204249
1.8231,0.2737,38.4900,96,92,204253
1.8671,0.3030,38.4000,96,92,204256
1.8426,0.2786,38.4900,96,92,204259
1.8524,0.2737,38.4000,96,92,204263
1.8280,0.2786,38.4900,96,92,204266
1.8231,0.2688,38.5200,96,92,204269
1.8671,0.2835,38.2700,96,92,204272
1.8524,0.2737,38.4900,96,92,204276
1.8817,0.2786,38.4300,96,92,204279
1.8524,0.2933,38.4600,96,92,204282
1.8573,0.2737,38.5200,96,92,204286
1.8719,0.2835,38.3600,96,92,204290
1.8524,0.2688,38.4900,96,92,204293
1.8768,0.2737,38.3600,96,92,204297
1.8573,0.2688,38.4300,96,92,204300
1.8524,0.2688,38.4600,96,92,204303
1.8622,0.2835,38.4300,96,92,204307
1.8426,0.2737,38.5200,96,92,204310
1.8817,0.2835,38.2700,96,92,204313
1.8377,0.2688,38.4600,96,92,204316
1.8524,0.2786,38.6200,96,92,204320
1.8622,0.2786,38.5200,96,92,204323
1.8573,0.2688,38.5500,96,92,204326
1.9159,0.2835,38.3000,96,92,204331
1.8866,0.2786,38.4300,96,92,204334
1.8817,0.2688,38.4000,96,92,204337
1.8964,0.2688,38.4900,96,92,204341
1.9062,0.2737,38.4900,96,92,204344
1.9746,0.2884,38.2700,96,92,204347
1.9648,0.2786,38.4300,96,92,204351
1.9648,0.2737,38.4000,96,92,204354
1.9501,0.2835,38.4900,96,92,204357
1.9306,0.2688,38.4900,96,92,204360
1.9453,0.2835,38.2700,96,92,204364
1.9013,0.2737,38.4900,96,92,204367
1.9062,0.2786,38.4000,96,92,204370
1.8622,0.2835,38.5200,96,92,204375
1.8475,0.2688,38.5200,96,92,204378
1.8426,0.3226,38.4000,96,92,204381
1.8182,0.2688,38.4900,96,92,204385
1.8231,0.2737,38.3600,96,92,204388
1.7693,0.2688,38.4900,96,92,204391
1.7498,0.2688,38.5200,96,92,204395
1.7449,0.2786,38.4000,96,92,204398
1.7400,0.2786,38.5200,96,92,204402
1.7351,0.2688,38.4900,96,92,204405
1.7937,0.3079,38.2400,96,92,204408
1.7693,0.2688,38.4000,96,92,204412
1.7546,0.2688,38.5800,96,92,204416
1.7742,0.2737,38.4900,96,92,204419
1.7693,0.2737,38.4900,96,92,204422
1.8133,0.2884,38.1100,96,92,204426
1.7937,0.2786,38.4600,96,92,204429
1.7889,0.2737,38.4300,96,92,204432
1.7889,0.2737,38.4900,96,92,204436
1.8182,0.2688,38.5200,96,92,204439
1.8768,0.2835,38.4000,96,92,204442
1.9208,0.2737,38.4900,96,92,204446
2.0283,0.2786,38.5200,96,92,204449
2.1310,0.2737,38.5200,96,92,204452
2.2972,0.2737,38.4900,96,92,204456
2.5367,0.2835,38.4600,96,92,204460
2.7175,0.2688,38.4900,96,92,204463
2.9717,0.2737,37.5900,96,92,204466
3.1134,0.2737,38.4300,96,92,204470
3.1769,0.2688,38.4900,96,92,204473
3.1232,0.2835,38.3600,96,92,204476
2.8250,0.2737,38.5200,96,92,204480
2.5758,0.2786,38.2400,96,92,204483
2.2581,0.2786,38.4600,96,92,204486
1.9990,0.2688,38.6500,96,92,204490
1.8133,0.2786,38.4300,96,92,204493
1.6422,0.2737,38.5200,96,92,204496
1.5640,0.2835,38.2400,96,92,204500
1.4418,0.2737,38.4000,96,92,204504
1.3978,0.2688,38.4900,96,92,204507
1.3832,0.2737,38.4300,96,92,204510
1.3685,0.2688,38.4900,96,92,204514
1.4223,0.2933,38.3300,96,92,204517
1.4370,0.2737,38.4600,96,92,204520
1.4125,0.2688,38.5500,96,92,204524
1.4370,0.2737,38.6200,96,92,204527
1.4076,0.2688,38.5200,96,92,204530
1.4370,0.2835,38.3300,96,92,204534
1.4272,0.2786,38.4600,96,92,204537
1.4516,0.2737,38.4000,96,92,204540
1.4858,0.2737,38.4900,96,92,204545
1.4809,0.2688,38.6200,96,92,204548
1.5200,0.2786,38.4000,96,92,204551
1.5445,0.2737,38.4600,96,92,204554
1.5591,0.2835,38.4000,96,92,204558
1.5494,0.2737,38.4600,96,92,204561
