ecg,gsr,temp,hr,spo2,timest
1.9159,0.2248,38.4600,95,92,190375
1.8817,0.2248,37.9600,95,92,190380
1.8817,0.2199,38.5200,95,92,190383
1.8817,0.2248,38.6200,95,92,190386
1.8964,0.2151,38.6500,95,92,190389
1.9208,0.2248,38.4900,95,92,190393
1.9062,0.2199,38.5800,95,92,190396
1.9306,0.2199,38.1800,95,92,190399
1.8915,0.2248,38.5800,95,92,190403
1.8671,0.2151,38.6500,95,92,190406
1.8426,0.2297,38.5200,95,92,190409
1.8280,0.2248,38.6500,95,92,190413
1.8622,0.2199,38.5500,95,92,190416
1.8622,0.2248,38.6200,95,92,190419
1.8915,0.2151,38.6500,95,92,190424
1.9306,0.2297,38.4900,95,92,190427
1.9013,0.2151,38.6200,95,92,190430
1.9355,0.2248,38.3600,95,92,190433
1.9208,0.2248,38.5500,95,92,190437
1.8964,0.2151,37.9900,95,92,190440
1.8964,0.2248,38.5800,95,92,190443
1.8671,0.2151,38.7400,95,92,190447
1.9110,0.2248,38.3000,95,92,190450
1.8671,0.2199,38.5200,95,92,190453
1.8768,0.2102,38.5800,95,92,190457
1.8964,0.2297,38.6200,95,92,190460
1.9062,0.2151,38.6500,95,92,190464
1.9599,0.2395,38.4300,95,92,190468
1.9208,0.1906,38.5800,95,92,190471
1.9110,0.2151,38.5800,95,92,190474
1.9110,0.2199,38.6200,95,92,190477
1.9404,0.2151,38.6200,95,92,190481
1.9892,0.2297,38.5200,95,92,190484
1.9746,0.2248,38.5800,95,92,190487
1.9795,0.2199,38.4900,95,92,190491
1.9453,0.2151,38.6200,95,92,190494
1.9599,0.2151,38.6500,95,92,190497
2.0186,0.2346,38.4600,95,92,190501
2.0088,0.2199,38.6200,95,92,190504
2.0479,0.2248,38.5500,95,92,190508
2.0332,0.2102,38.6200,95,92,190512
2.0283,0.2151,38.6800,95,92,190515
2.0235,0.2199,38.4600,95,92,190518
1.9844,0.2346,38.6200,95,92,190521
2.0137,0.2102,38.4300,95,92,190525
1.9599,0.2151,38.6200,95,92,190528
1.9355,0.2151,38.6200,95,92,190531
1.9257,0.2248,38.5500,95,92,190535
1.8768,0.2199,38.5200,95,92,190538
1.9110,0.2248,38.3600,95,92,190541
1.8671,0.2151,38.5500,95,92,190545
1.8817,0.2151,38.6500,95,92,190548
1.8768,0.2151,38.6500,95,92,190552
1.8573,0.2102,38.6200,95,92,190556
1.8817,0.2297,38.4000,95,92,190559
1.8231,0.2248,38.5500,95,92,190562
1.8133,0.2151,38.5800,95,92,190566
1.7889,0.2199,38.6200,95,92,190569
1.7693,0.2151,38.6500,95,92,190572
1.8133,0.2444,38.4300,95,92,190575
1.8133,0.2199,38.5800,95,92,190579
1.8280,0.2151,38.5200,95,92,190582
1.7937,0.2199,38.6200,95,92,190585
1.7889,0.2151,38.6500,95,92,190589
1.8182,0.2248,38.5200,95,92,190593
1.8182,0.2199,38.6200,95,92,190596
1.8426,0.2248,38.4900,95,92,190600
1.8133,0.2199,38.6500,95,92,190603
1.8377,0.2151,38.6500,95,92,190606
1.8622,0.2102,38.5500,95,92,190610
1.8719,0.2151,38.6800,95,92,190613
1.9404,0.2199,38.4600,95,92,190616
1.9892,0.2151,38.6200,95,92,190619
2.0968,0.2151,38.7700,95,92,190623
2.2678,0.2297,38.5500,95,92,190626
2.4340,0.2151,38.6200,95,92,190629
2.7273,0.2248,38.3300,95,92,190633
2.9961,0.2248,38.5200,95,92,190637
3.2014,0.2102,38.6200,95,92,190640
3.4164,0.2297,38.5800,95,92,190644
3.4164,0.1906,38.6800,95,92,190647
3.3138,0.2248,38.3600,95,92,190650
2.9130,0.2199,38.4900,95,92,190654
2.5318,0.2102,38.6200,95,92,190657
2.2141,0.2199,38.6200,95,92,190660
1.9501,0.2199,38.6500,95,92,190663
1.8133,0.2297,38.4600,95,92,190667
1.6129,0.2199,38.5800,95,92,190670
1.4907,0.2102,38.5500,95,92,190673
1.3930,0.2151,38.8400,95,92,190678
1.3343,0.2151,38.6800,95,92,190681
1.3490,0.2248,38.5500,95,92,190684
1.3343,0.2248,38.6800,95,92,190688
1.3441,0.2199,38.4900,95,92,190691
1.3539,0.2248,38.6200,95,92,190694
1.3734,0.2102,38.6500,95,92,190698
1.4321,0.2248,38.4600,95,92,190701
1.4614,0.2151,38.6200,95,92,190704
1.5152,0.2151,38.5200,95,92,190708
1.4956,0.2151,38.5500,95,92,190711
1.5249,0.2151,38.6200,95,92,190714
1.5689,0.2199,38.4900,95,92,190717
1.5738,0.2151,38.6500,95,92,190722
1.6178,0.2151,38.4000,95,92,190725
1.5640,0.2199,38.5800,95,92,190728
1.5591,0.2199,38.7400,95,92,190732
1.6031,0.1906,38.5800,95,92,190735
1.6276,0.2151,38.6200,95,92,190738
1.6862,0.2346,38.3300,95,92,190742
1.6471,0.2151,38.5500,95,92,190745
1.6471,0.2102,38.6200,95,92,190748
1.6471,0.2199,38.6200,95,92,190752
1.6471,0.2151,38.6200,95,92,190755
1.7009,0.2297,38.4300,95,92,190758
1.6813,0.2199,38.5800,95,92,190761
1.6911,0.2102,38.6200,95,92,190766
1.6813,0.2102,38.6200,95,92,190769
1.6667,0.2151,38.8100,95,92,190772
1.6911,0.2248,38.4600,95,92,190776
1.6667,0.2199,38.6800,95,92,190779
1.6667,0.2199,38.5500,95,92,190782
1.6422,0.2151,38.6200,95,92,190786
1.6520,0.2151,38.6800,95,92,190789
1.6862,0.2248,38.5200,95,92,190792
1.6960,0.2151,38.5800,95,92,190796
1.7546,0.2297,38.5500,95,92,190799
1.7400,0.2102,38.6200,95,92,190802
1.7400,0.2151,38.5500,95,92,190806
1.7449,0.2151,38.3600,95,92,190810
1.7302,0.1906,38.6200,95,92,190813
1.7302,0.2151,38.5200,95,92,190816
1.7009,0.2248,38.6200,95,92,190820
1.7155,0.2102,38.6500,95,92,190823
1.7400,0.2199,38.5800,95,92,190826
1.7253,0.2151,38.6200,95,92,190830
1.7791,0.2248,38.3600,95,92,190833
1.7791,0.1906,38.5500,95,92,190836
1.7644,0.2151,38.6200,95,92,190840
1.7595,0.2199,38.5800,95,92,190843
1.7400,0.2151,38.6800,95,92,190846
1.7937,0.2395,38.3600,95,92,190851
1.7742,0.2199,38.5500,95,92,190854
1.7791,0.2102,38.5800,95,92,190857
1.7937,0.2199,38.5800,95,92,190860
1.7742,0.2151,38.6500,95,92,190864
1.8084,0.2248,38.4300,95,92,190867
1.7791,0.2199,38.5800,95,92,190870
1.7889,0.2151,38.5200,95,92,190874
1.7644,0.2151,38.6200,95,92,190877
1.7546,0.2151,38.6800,95,92,190880
1.7742,0.2346,38.5800,95,92,190884
1.7595,0.2151,38.6200,95,92,190887
1.7791,0.2248,38.5500,95,92,190891
1.7449,0.2151,38.6200,95,92,190895
1.7546,0.2151,38.4900,95,92,190898
1.7889,0.2102,38.5200,95,92,190901
1.8817,0.2248,38.5800,95,92,190906
1.8719,0.2151,38.7400,95,92,190909
1.9501,0.2297,38.3600,95,92,190913
1.9208,0.2151,38.5500,95,92,190916
1.8915,0.2199,38.6200,95,92,190919
1.8573,0.2199,38.6200,95,92,190922
1.8280,0.2151,38.6500,95,92,190926
1.8719,0.2395,38.4000,95,92,190929
1.8377,0.2199,38.5500,95,92,190932
1.8426,0.2151,38.5800,95,92,190937
1.8328,0.2102,38.6200,95,92,190940
1.8328,0.2151,38.6500,95,92,190943
1.8671,0.2297,38.5200,95,92,190947
1.8280,0.2199,38.6200,95,92,190950
1.8280,0.2688,38.4900,95,92,190953
1.8084,0.2151,38.6200,95,92,190957
1.8133,0.2151,38.6200,95,92,190960
1.8426,0.2297,38.3600,95,92,190963
1.8035,0.2248,38.6200,95,92,190967
1.8231,0.2199,38.5200,95,92,190970
1.8035,0.2102,38.5800,95,92,190973
1.8084,0.2151,38.7100,95,92,190977
1.8182,0.2199,38.5200,95,92,190981
1.7986,0.2151,38.6500,95,92,190984
1.8084,0.2151,38.4600,95,92,190987
1.7840,0.2151,38.5800,95,92,190991
1.7840,0.2151,38.6500,95,92,190994
1.8231,0.2199,38.5500,95,92,190997
1.7791,0.2151,38.6500,95,92,191001
1.8035,0.2737,38.3600,95,92,191004
1.7546,0.2151,38.6500,95,92,191007
1.7595,0.2395,38.6800,95,92,191011
1.7742,0.2199,38.5800,95,92,191014
1.7693,0.2102,38.6800,95,92,191017
1.8182,0.2346,38.3000,95,92,191021
1.7840,0.2199,38.5500,95,92,191025
1.7693,0.2102,38.5800,95,92,191028
1.7742,0.2199,38.6200,95,92,191031
1.7889,0.2248,38.6500,95,92,191035
1.8328,0.2297,38.4600,95,92,191038
1.7986,0.2199,38.5800,95,92,191041
1.7986,0.2248,38.5200,95,92,191045
1.7840,0.2151,38.6200,95,92,191048
1.7889,0.2151,38.6500,95,92,191051
1.8231,0.2248,38.4900,95,92,191055
1.8084,0.2199,38.4300,95,92,191058
1.8475,0.2248,38.4600,95,92,191062
1.8328,0.2102,38.6500,95,92,191065
1.8280,0.2151,38.2100,95,92,191069
1.8280,0.2151,38.5800,95,92,191072
1.7986,0.1906,38.6500,95,92,191075
1.8133,0.2151,38.4900,95,92,191079
1.7791,0.2151,38.6200,95,92,191082
1.7889,0.2151,38.7400,95,92,191085
1.8084,0.2199,38.5200,95,92,191089
1.7986,0.2151,38.7100,95,92,191092
1.8426,0.2248,38.4300,95,92,191095
1.8280,0.2199,38.5500,95,92,191099
1.8133,0.2151,38.6200,95,92,191102
1.8328,0.2248,38.5800,95,92,191106
1.8377,0.2151,38.4600,95,92,191109
1.9110,0.2395,38.3300,95,92,191113
1.8964,0.2199,38.5200,95,92,191116
1.9062,0.2444,38.6200,95,92,191119
1.9062,0.1906,38.6200,95,92,191123
1.8915,0.2151,38.6200,95,92,191126
1.9257,0.2346,38.4300,95,92,191129
1.8719,0.2199,38.5800,95,92,191133
1.8524,0.2151,38.5200,95,92,191136
1.8231,0.2151,38.6200,95,92,191139
1.8084,0.2151,38.6200,95,92,191143
1.8231,0.2248,38.5500,95,92,191147
1.7937,0.2199,38.6200,95,92,191150
1.7986,0.2248,38.4900,95,92,191154
1.7546,0.2151,38.4900,95,92,191157
1.7400,0.2199,38.6800,95,92,191160
1.7546,0.2297,38.4900,95,92,191163
1.7204,0.2053,38.6200,95,92,191167
1.7351,0.2151,38.4900,95,92,191170
1.7107,0.2151,38.6200,95,92,191173
1.7155,0.2248,38.6200,95,92,191177
1.7253,0.2199,37.7400,95,92,191180
1.6862,0.2346,38.6200,95,92,191183
1.6960,0.2199,38.4000,95,92,191187
1.6618,0.2151,38.4900,95,92,191191
1.6520,0.2493,38.6800,95,92,191194
1.6667,0.2248,38.5800,95,92,191198
1.6618,0.2151,38.5800,95,92,191201
1.7058,0.2297,38.4300,95,92,191204
1.6764,0.2151,38.5500,95,92,191207
1.6911,0.2102,38.6500,95,92,191211
1.7058,0.2199,38.7100,95,92,191214
1.7302,0.2151,38.6200,95,92,191217
1.7889,0.2395,38.4300,95,92,191221
1.7693,0.2248,38.5200,95,92,191224
1.7937,0.2151,38.5200,95,92,191227
1.8377,0.2493,38.6500,95,92,191232
1.9208,0.2151,38.6500,95,92,191235
2.0723,0.2248,38.4600,95,92,191238
2.2043,0.2297,38.5800,95,92,191242
2.4438,0.2151,38.4900,95,92,191245
2.6588,0.2151,38.6200,95,92,191248
2.9130,0.2199,38.6500,95,92,191251
3.1818,0.2297,38.5500,95,92,191255
3.2747,0.2151,38.6500,95,92,191258
3.2893,0.2248,38.5200,95,92,191261
3.0352,0.2102,38.6500,95,92,191265
2.7273,0.2151,38.6200,95,92,191268
2.4096,0.2248,38.5200,95,92,191271
2.1310,0.2151,38.6200,95,92,191276
1.8671,0.2151,38.4600,95,92,191279
1.6373,0.2248,38.6500,95,92,191282
1.4907,0.2151,38.6800,95,92,191286
1.4027,0.2688,38.5500,95,92,191289
1.3245,0.2151,38.6200,95,92,191292
1.3196,0.2248,38.3600,95,92,191295
1.2805,0.2102,38.5500,95,92,191299
1.2708,0.2151,38.6200,95,92,191302
1.3099,0.2248,38.5800,95,92,191305
1.3001,0.1906,38.6200,95,92,191309
1.3685,0.2297,38.3300,95,92,191312
1.3685,0.2493,38.4900,95,92,191315
1.3881,0.2199,38.5800,95,92,191320
1.4076,0.2199,38.5800,95,92,191323
1.4272,0.2199,38.6200,95,92,191326
1.5005,0.2346,38.4600,95,92,191330
1.4761,0.2199,38.5800,95,92,191333
1.4858,0.2102,38.5200,95,92,191336
1.4907,0.2199,38.6200,95,92,191339
1.5054,0.2102,38.6200,95,92,191343
1.5543,0.2248,38.5500,95,92,191346
1.5396,0.2199,38.5200,95,92,191349
1.5738,0.2248,38.5500,95,92,191353
1.5738,0.2199,38.6500,95,92,191356
1.5885,0.2395,38.6500,95,92,191360
1.6227,0.2297,38.4900,95,92,191364
1.5982,0.2151,38.6200,95,92,191367
1.6227,0.2151,38.4900,95,92,191370
1.5982,0.2151,38.7700,95,92,191374
1.6129,0.2151,38.6200,95,92,191377
1.6129,0.2199,37.7400,95,92,191380
1.5934,0.2199,38.6200,95,92,191383
1.6227,0.2199,38.4300,95,92,191387
1.6031,0.2199,38.8100,95,92,191390
1.6031,0.2248,38.6200,95,92,191393
1.6227,0.2248,38.5800,95,92,191397
1.6080,0.2151,38.7400,95,92,191400
1.6471,0.2346,38.3600,95,92,191404
1.6080,0.2151,38.5800,95,92,191408
1.6178,0.2151,38.6500,95,92,191411
1.6325,0.2248,38.6200,95,92,191414
1.6227,0.2151,38.6200,95,92,191418
1.6716,0.2346,38.4300,95,92,191421
1.6373,0.2199,38.5500,95,92,191424
1.6618,0.2151,38.5500,95,92,191427
1.6373,0.2199,38.6200,95,92,191431
1.6569,0.2102,38.6200,95,92,191434
1.6813,0.2297,38.5200,95,92,191437
1.6813,0.2248,38.5800,95,92,191441
1.6667,0.2199,38.5200,95,92,191444
1.6569,0.2199,38.7100,95,92,191448
1.6569,0.2053,38.6800,95,92,191452
1.6813,0.2248,38.5800,95,92,191455
1.6667,0.2199,38.4600,95,92,191458
1.6911,0.2102,38.5500,95,92,191462
1.6764,0.2199,38.6800,95,92,191465
1.6813,0.2053,38.6500,95,92,191468
1.7058,0.2102,38.5200,95,92,191472
1.6960,0.2199,38.6200,95,92,191475
1.7253,0.2199,38.4600,95,92,191478
1.7058,0.2102,38.6500,95,92,191481
1.7107,0.2151,38.6200,95,92,191485
1.7253,0.2199,38.4900,95,92,191489
1.7204,0.2151,38.7400,95,92,191492
1.7644,0.2346,38.3600,95,92,191496
1.7595,0.2248,38.5500,95,92,191499
1.7498,0.2151,38.6800,95,92,191502
1.7693,0.2248,38.5800,95,92,191506
1.7644,0.2151,38.5200,95,92,191509
1.8280,0.2248,38.3600,95,92,191512
1.9159,0.2248,38.4900,95,92,191517
1.8817,0.2199,38.6800,95,92,191520
1.9110,0.2199,38.4900,95,92,191524
1.8964,0.2102,38.6200,95,92,191527
1.9013,0.2151,38.6500,95,92,191531
1.9208,0.2151,38.5500,95,92,191534
1.9062,0.2199,38.6200,95,92,191538
1.9306,0.2248,38.5200,95,92,191541
1.8964,0.2199,38.6200,95,92,191544
1.8915,0.2151,38.5800,95,92,191548
1.9110,0.2199,38.4900,95,92,191551
1.8817,0.2199,38.8400,95,92,191554
1.9062,0.2199,38.4000,95,92,191558
1.8866,0.2151,38.5200,95,92,191561
1.8768,0.2151,38.6500,95,92,191564
1.8964,0.2248,38.5500,95,92,191568
1.8573,0.2199,38.6500,95,92,191571
1.8915,0.2248,38.3600,95,92,191575
1.8426,0.2151,38.5500,95,92,191579
1.8280,0.2248,38.6800,95,92,191582
1.8231,0.2199,38.6200,95,92,191585
1.8182,0.2199,38.7100,95,92,191588
1.8573,0.2346,38.4000,95,92,191592
1.8084,0.2199,38.3300,95,92,191595
1.7937,0.2102,38.5500,95,92,191598
1.7937,0.2199,38.6200,95,92,191602
1.7937,0.2151,38.6200,95,92,191605
1.8280,0.2297,38.5200,95,92,191608
1.8133,0.2248,38.5800,95,92,191612
1.8182,0.2444,38.5500,95,92,191616
1.8035,0.2199,38.6800,95,92,191619
1.8035,0.2151,38.5800,95,92,191623
1.8377,0.2102,38.4600,95,92,191626
1.8035,0.2688,38.6200,95,92,191629
1.8231,0.2297,38.4900,95,92,191632
1.7986,0.2151,38.6200,95,92,191636
1.7986,0.2199,38.6800,95,92,191639
1.8182,0.2199,38.5500,95,92,191642
1.8035,0.2199,38.6500,95,92,191646
1.8280,0.2199,38.4600,95,92,191649
1.8084,0.2151,38.5500,95,92,191652
1.8084,0.2151,38.6200,95,92,191656
1.8377,0.2297,38.5800,95,92,191660
1.8328,0.2199,38.8100,95,92,191663
1.8817,0.2248,38.4000,95,92,191667
1.8475,0.2151,38.5800,95,92,191670
1.8524,0.2151,38.6200,95,92,191673
1.8671,0.2248,38.5800,95,92,191676
1.8524,0.2199,38.5800,95,92,191680
1.9062,0.2199,38.3300,95,92,191683
1.8768,0.2199,38.5200,95,92,191686
1.8622,0.2102,38.5800,95,92,191690
1.8622,0.2199,38.6200,95,92,191693
1.8573,0.2199,38.6500,95,92,191696
1.9110,0.2346,38.4600,95,92,191700
1.8866,0.2248,38.6500,95,92,191704
1.8866,0.2199,38.5200,95,92,191707
1.8866,0.2199,38.6200,95,92,191711
1.8915,0.2199,38.5800,95,92,191714
1.9355,0.2297,38.4900,95,92,191717
1.9159,0.2199,38.4600,95,92,191721
1.9404,0.2297,38.4900,95,92,191724
1.9208,0.2199,38.6200,95,92,191727
1.9306,0.2395,38.6500,95,92,191730
1.9648,0.2102,38.5500,95,92,191734
1.9648,0.2199,38.8100,95,92,191737
2.0039,0.2444,38.5500,95,92,191740
1.9795,0.2199,38.6200,95,92,191745
1.9746,0.2151,38.5200,95,92,191748
2.0186,0.2199,38.5200,95,92,191751
1.9404,0.2199,38.8400,95,92,191755
1.9648,0.2248,38.4300,95,92,191758
1.9062,0.2199,38.5200,95,92,191761
1.8719,0.2151,38.5800,95,92,191765
1.8671,0.2248,38.5500,95,92,191768
1.8280,0.2199,38.6200,95,92,191771
1.8768,0.2248,38.3300,95,92,191774
1.8182,0.2199,38.4900,95,92,191778
1.7986,0.2151,38.6500,95,92,191781
1.7889,0.2199,38.6500,95,92,191784
1.7644,0.2199,38.7100,95,92,191789
1.8035,0.2688,38.4000,95,92,191792
1.7595,0.2248,38.5500,95,92,191795
1.7546,0.2151,38.5800,95,92,191799
1.7595,0.2199,38.6200,95,92,191802
1.7595,0.2199,38.6500,95,92,191805
1.7937,0.2297,38.5200,95,92,191809
1.7742,0.2199,38.6800,95,92,191812
1.7840,0.2444,38.5500,95,92,191815
1.7546,0.2199,38.6200,95,92,191818
1.7644,0.2151,38.6500,95,92,191822
1.7986,0.2297,38.4900,95,92,191825
1.7693,0.2297,38.6200,95,92,191828
1.7937,0.2102,38.4900,95,92,191833
1.7595,0.2102,38.5800,95,92,191836
1.7644,0.2151,38.5800,95,92,191839
1.7937,0.2248,38.5200,95,92,191843
1.8035,0.2199,38.6200,95,92,191846
1.8768,0.2248,38.4300,95,92,191849
1.9062,0.2199,38.5500,95,92,191853
1.9844,0.2151,38.6500,95,92,191856
2.1310,0.2248,38.5500,95,92,191859
2.2678,0.2199,38.5800,95,92,191862
2.5220,0.2248,38.4000,95,92,191866
2.7028,0.2151,38.5800,95,92,191869
2.9472,0.2199,38.6500,95,92,191873
3.1720,0.2199,38.5500,95,92,191877
3.2649,0.2199,38.6500,95,92,191880
3.2942,0.2297,38.4300,95,92,191883
3.0156,0.2248,38.5200,95,92,191887
2.7028,0.2102,38.6200,95,92,191890
2.3949,0.2199,38.5800,95,92,191893
2.1261,0.2248,38.6200,95,92,191897
1.9550,0.2297,38.4600,95,92,191900
1.7498,0.2346,38.5200,95,92,191903
1.6129,0.1906,38.5200,95,92,191906
1.5103,0.2199,38.5800,95,92,191910
1.4467,0.2053,38.6800,95,92,191913
1.4370,0.2248,38.5200,95,92,191917
1.3978,0.2199,38.5800,95,92,191921
1.4076,0.2199,38.5200,95,92,191924
1.3930,0.2199,38.5200,95,92,191927
1.4076,0.2199,38.6500,95,92,191931
1.4467,0.2199,38.5500,95,92,191934
1.4614,0.2297,38.6200,95,92,191937
1.5005,0.2151,38.4900,95,92,191941
1.4907,0.2199,38.7100,95,92,191944
1.5103,0.2248,38.6800,95,92,191947
1.5445,0.2248,38.5200,95,92,191950
1.5445,0.2199,38.6200,95,92,191954
1.5885,0.2102,38.4000,95,92,191958
1.5934,0.2199,38.5500,95,92,191961
1.6031,0.2199,38.6200,95,92,191965
1.6373,0.2297,38.3300,95,92,191968
1.6325,0.2248,38.6200,95,92,191971
1.6960,0.2248,38.3300,95,92,191975
1.6764,0.2248,38.5200,95,92,191978
1.6862,0.2151,38.6500,95,92,191981
1.6960,0.2199,38.5800,95,92,191985
1.7009,0.2199,38.6500,95,92,191988
1.7644,0.2395,38.4300,95,92,191991
1.7302,0.2248,38.5500,95,92,191995
1.7449,0.2102,38.5500,95,92,191998
1.7498,0.2199,38.7100,95,92,192002
1.7937,0.2102,38.6800,95,92,192005
1.7986,0.2297,38.6200,95,92,192009
1.7791,0.2248,38.5800,95,92,192012
1.8280,0.2248,38.5500,95,92,192015
1.7889,0.2199,38.6200,95,92,192019
1.7937,0.2151,38.6500,95,92,192022
1.8280,0.2297,38.5200,95,92,192025
1.8280,0.2248,38.6800,95,92,192029
1.8280,0.2248,38.5200,95,92,192032
1.7986,0.2102,38.6800,95,92,192035
1.7986,0.2151,38.6500,95,92,192038
1.8182,0.2248,38.4900,95,92,192043
1.7986,0.2199,38.6500,95,92,192046
1.8280,0.2151,38.4900,95,92,192049
1.8133,0.2151,38.5500,95,92,192053
1.8133,0.2248,38.6200,95,92,192056
1.8328,0.2297,38.5500,95,92,192059
1.8133,0.2199,38.7400,95,92,192063
1.8524,0.2248,38.4000,95,92,192066
1.8133,0.2151,38.5800,95,92,192069
1.8182,0.2151,38.7100,95,92,192073
1.8280,0.2199,38.6200,95,92,192076
1.8133,0.2199,38.3600,95,92,192079
1.8671,0.2346,38.3600,95,92,192083
1.8328,0.2199,38.5800,95,92,192087
1.8328,0.2199,38.6200,95,92,192090
1.8426,0.2199,38.6200,95,92,192093
1.8328,0.2199,38.6200,95,92,192097
1.9013,0.2346,38.4600,95,92,192100
1.8524,0.2248,38.4900,95,92,192103
1.8573,0.2151,38.5500,95,92,192107
1.8280,0.2199,38.6200,95,92,192110
1.8280,0.2151,38.6200,95,92,192113
1.8671,0.2248,38.4600,95,92,192117
1.8328,0.2199,38.6500,95,92,192120
1.8573,0.2248,38.5200,95,92,192123
1.8231,0.2199,38.6200,96,92,192128
1.8719,0.2199,38.7400,96,92,192132
1.8866,0.2199,38.6200,96,92,192136
1.9159,0.2297,38.5800,96,92,192139
1.8915,0.2542,38.6500,96,92,192142
1.9453,0.2346,38.3600,96,92,192146
1.9110,0.2248,38.3300,96,92,192149
1.8915,0.2102,38.6200,96,92,192152
1.9013,0.2248,38.6200,96,92,192155
1.8866,0.2199,38.6200,96,92,192159
1.9404,0.2395,38.4000,96,92,192162
1.9062,0.2248,38.4000,96,92,192165
1.8915,0.2248,38.5500,96,92,192169
1.9306,0.2102,38.6200,96,92,192173
1.8915,0.2199,38.6200,96,92,192176
1.9306,0.2297,38.4600,96,92,192180
1.8964,0.2248,38.5800,96,92,192183
1.9013,0.2199,38.5500,96,92,192186
1.8866,0.2199,38.6500,96,92,192189
1.8866,0.2102,38.6200,96,92,192193
1.9013,0.2297,38.7700,96,92,192196
1.8768,0.2590,38.6200,96,92,192199
1.9110,0.2102,38.4900,96,92,192203
1.8524,0.2199,38.6500,96,92,192206
1.8475,0.2199,38.6200,96,92,192209
1.8671,0.2297,38.4900,96,92,192214
1.8280,0.2444,38.6200,96,92,192217
1.8426,0.2102,38.4600,96,92,192220
1.8084,0.2151,38.5800,96,92,192224
1.8035,0.2444,38.6500,96,92,192227
1.8231,0.2248,38.5500,96,92,192230
1.7937,0.2199,38.5800,96,92,192233
1.8182,0.2346,38.4000,96,92,192237
1.7840,0.2248,38.5500,96,92,192240
1.7693,0.2102,38.6200,96,92,192243
1.8231,0.2248,38.5500,96,92,192247
1.7742,0.2199,38.7100,96,92,192250
1.8280,0.2248,38.3600,96,92,192253
1.7889,0.2199,38.6800,96,92,192258
1.7840,0.2444,38.6500,96,92,192261
1.7937,0.2199,38.6200,96,92,192264
1.7840,0.2151,38.6200,96,92,192268
1.8377,0.2395,38.4300,96,92,192271
1.7986,0.2248,38.6800,96,92,192274
1.7889,0.2151,38.4900,96,92,192277
1.7889,0.2199,38.6500,96,92,192281
1.7937,0.2199,38.6500,96,92,192284
1.8573,0.2297,38.5200,96,92,192287
1.8182,0.2248,38.6500,96,92,192291
1.8328,0.2248,38.4900,96,92,192294
1.8231,0.1906,38.6500,96,92,192297
1.8231,0.2199,37.8700,96,92,192302
1.8475,0.2248,38.4900,96,92,192305
1.8328,0.2199,38.6200,96,92,192308
1.8622,0.2737,38.6200,96,92,192312
1.8377,0.2151,38.6200,96,92,192315
1.8377,0.2199,38.5200,96,92,192318
1.8524,0.2248,38.5200,96,92,192321
1.8475,0.2102,38.6500,96,92,192325
1.8817,0.2199,37.9300,96,92,192328
1.8573,0.1906,38.6200,96,92,192331
1.8768,0.2199,38.6800,96,92,192335
1.9062,0.2346,38.5500,96,92,192338
1.8964,0.2199,38.7100,96,92,192342
1.9501,0.2493,38.3600,96,92,192346
1.9355,0.2248,38.5500,96,92,192349
1.9257,0.2199,38.7100,96,92,192352
1.9453,0.2248,38.5800,96,92,192356
1.9453,0.2199,38.6200,96,92,192359
2.0039,0.2395,38.3300,96,92,192362
1.9697,0.2248,38.4600,96,92,192365
1.9404,0.2151,38.5800,96,92,192369
1.9404,0.2199,38.6200,96,92,192372
1.9208,0.2151,38.6200,96,92,192375
1.9453,0.2346,38.4600,96,92,192379
1.8866,0.2590,38.6800,96,92,192382
1.8817,0.2248,38.5200,96,92,192386
1.8475,0.2199,38.7400,96,92,192390
1.8622,0.2151,38.6200,96,92,192393
1.8622,0.2297,38.6800,96,92,192396
1.8280,0.2151,38.5800,96,92,192400
1.8671,0.2248,38.4900,96,92,192403
1.8035,0.2248,38.4900,96,92,192406
1.7986,0.2199,38.6200,96,92,192409
1.8133,0.2297,38.4900,96,92,192413
1.7840,0.2199,38.5800,96,92,192416
1.8035,0.2199,38.4900,96,92,192419
1.7937,0.2151,38.5500,96,92,192423
1.7742,0.2199,38.6500,96,92,192427
1.8280,0.2248,38.4600,96,92,192430
1.7889,0.2199,38.6200,96,92,192434
1.8231,0.2248,38.4900,96,92,192437
1.7986,0.2199,38.5500,96,92,192440
1.7986,0.2199,38.5800,96,92,192444
1.8133,0.2248,38.5500,96,92,192447
1.8035,0.2199,38.6800,96,92,192450
1.8475,0.2297,37.7400,96,92,192453
1.8133,0.2199,38.5800,96,92,192457
1.8280,0.2199,38.6500,96,92,192460
1.8573,0.2395,38.6800,96,92,192463
1.8866,0.2199,38.6200,96,92,192467
1.9892,0.2395,38.4000,96,92,192471
2.0186,0.2199,38.6200,96,92,192474
2.0968,0.2151,38.6200,96,92,192478
2.2239,0.2248,38.6200,96,92,192481
2.3949,0.2199,38.6500,96,92,192484
2.6637,0.2297,38.4600,96,92,192488
2.8739,0.2248,38.5800,96,92,192491
3.0987,0.2199,38.4900,96,92,192494
3.2111,0.2199,38.1100,96,92,192497
3.2160,0.2102,38.6800,96,92,192501
3.1036,0.2297,38.4300,96,92,192504
2.7957,0.2199,38.6500,96,92,192507
2.5269,0.2297,38.4900,96,92,192512
2.2190,0.2199,38.6500,96,92,192515
1.9844,0.2199,38.7100,96,92,192518
1.8035,0.2248,38.5800,96,92,192522
1.6520,0.2102,38.6200,96,92,192525
1.5591,0.2199,38.4900,96,92,192528
1.4565,0.2297,38.6200,96,92,192531
1.4321,0.2199,38.6800,96,92,192535
1.3978,0.2248,38.0800,96,92,192538
1.3587,0.2199,38.6200,96,92,192541
1.3978,0.2248,38.5200,96,92,192545
1.3978,0.2248,38.5200,96,92,192548
1.4076,0.2199,38.6200,96,92,192551
1.4370,0.2493,38.5500,96,92,192556
1.4418,0.2248,38.6200,96,92,192559
1.4907,0.2297,38.3300,96,92,192562
1.4858,0.2102,38.5200,96,92,192566
1.4956,0.2151,38.6200,96,92,192569
1.5200,0.2199,38.5800,96,92,192572
1.5347,0.2151,38.6200,96,92,192575
1.5982,0.2297,38.4300,96,92,192579
1.5738,0.2248,38.6200,96,92,192582
1.5787,0.2151,38.5800,96,92,192585
1.5885,0.2199,38.7400,96,92,192589
1.6031,0.2151,38.6200,96,92,192592
1.6373,0.2297,38.5500,96,92,192595
1.6325,0.2151,38.5800,96,92,192600
1.6569,0.2199,38.4900,96,92,192603
1.6422,0.2248,38.6200,96,92,192606
1.6520,0.1906,38.6500,96,92,192610
1.6813,0.2297,38.5200,96,92,192613
1.6618,0.2199,38.6200,96,92,192616
1.6764,0.2248,38.5200,96,92,192620
1.6520,0.2493,38.5800,96,92,192623
1.6667,0.2248,38.6800,96,92,192626
1.6813,0.2248,38.4900,96,92,192629
1.6716,0.2151,38.6800,96,92,192633
1.6911,0.2248,38.4300,96,92,192636
1.6667,0.2151,38.5200,96,92,192640
1.6667,0.2199,38.6500,96,92,192644
1.6960,0.2248,38.8100,96,92,192647
1.6862,0.2297,38.6800,96,92,192650
1.7351,0.2297,38.4000,96,92,192654
1.6960,0.2248,38.5500,96,92,192657
1.6960,0.2248,38.7100,96,92,192660
1.7107,0.2248,37.8300,96,92,192664
1.7009,0.2199,38.6200,96,92,192667
1.7644,0.2395,38.3600,96,92,192670
1.7351,0.2297,38.5500,96,92,192673
1.7204,0.2151,38.5800,96,92,192677
1.7302,0.2737,38.6200,96,92,192680
1.7351,0.2102,38.6800,96,92,192684
1.7644,0.2297,38.4600,96,92,192688
1.7351,0.2102,38.5800,96,92,192691
1.7498,0.2199,38.5200,96,92,192694
1.7253,0.2199,38.6500,96,92,192698
1.7253,0.2199,38.6200,96,92,192701
1.7498,0.2297,38.4900,96,92,192704
1.7253,0.2199,38.7100,96,92,192708
1.7449,0.2151,38.5500,96,92,192711
1.7204,0.2199,38.6500,96,92,192714
1.7302,0.2199,38.6500,96,92,192717
1.7498,0.2248,38.5500,96,92,192721
1.7546,0.2199,38.6500,96,92,192724
1.7840,0.2199,38.4600,96,92,192728
1.7595,0.2199,38.6500,96,92,192732
1.7595,0.2199,37.8700,96,92,192735
1.7840,0.2199,38.5200,96,92,192738
1.8035,0.2248,38.5800,96,92,192743
1.7986,0.1906,38.6500,96,92,192746
1.8573,0.2395,38.3600,96,92,192750
1.8426,0.2297,38.4900,96,92,192753
1.8475,0.2199,38.5500,96,92,192756
1.8671,0.2199,38.8400,96,92,192760
1.8573,0.2297,38.6200,96,92,192763
1.8915,0.2297,38.4600,96,92,192766
1.8475,0.2346,38.5800,96,92,192770
1.8426,0.2199,38.5200,96,92,192774
1.8231,0.2199,38.7400,96,92,192777
1.8328,0.1906,38.6500,96,92,192780
1.8524,0.2248,38.7100,96,92,192784
1.8426,0.2199,38.6200,96,92,192787
1.8719,0.2102,38.4900,96,92,192790
1.8377,0.2199,38.6500,96,92,192794
1.8719,0.2199,38.6200,96,92,192797
1.8768,0.2297,38.4900,96,92,192800
1.8719,0.2199,38.6500,96,92,192804
1.8573,0.2199,38.4600,96,92,192807
1.8182,0.2199,38.5500,96,92,192811
1.7937,0.2199,38.6800,96,92,192814
1.8035,0.2297,38.5800,96,92,192818
1.7840,0.2199,38.6200,96,92,192821
1.8182,0.2346,38.4000,96,92,192824
1.7986,0.2248,38.5800,96,92,192828
1.7840,0.2199,38.2700,96,92,192831
1.7840,0.2297,38.5800,96,92,192834
1.7595,0.2199,38.6500,96,92,192838
1.7986,0.2297,38.3600,96,92,192841
1.7546,0.2151,38.5500,96,92,192844
1.7595,0.2151,38.6200,96,92,192847
1.7644,0.2248,38.5800,96,92,192851
1.7644,0.2199,38.6200,96,92,192855
1.8084,0.2395,38.4900,96,92,192858
1.7693,0.2346,38.5500,96,92,192862
1.7595,0.2151,38.5500,96,92,192865
1.7546,0.2590,38.6200,96,92,192868
1.7595,0.2151,38.6200,96,92,192872
1.7840,0.2297,38.4600,96,92,192875
1.7644,0.2248,38.5800,96,92,192878
1.7840,0.2248,38.5200,96,92,192882
1.7791,0.2248,38.5200,96,92,192885
1.7937,0.2346,38.6200,96,92,192888
1.8280,0.2297,38.5200,96,92,192891
1.8182,0.2199,38.6200,96,92,192896
1.8622,0.2297,38.5200,96,92,192899
1.8377,0.2199,38.6500,96,92,192902
1.8426,0.2199,38.6500,96,92,192906
1.8915,0.2151,38.5200,96,92,192909
1.8377,0.2199,38.5200,96,92,192912
1.8671,0.2199,38.4600,96,92,192916
1.8524,0.2199,38.6500,96,92,192919
1.8622,0.2199,38.6500,96,92,192922
1.8866,0.2297,38.5500,96,92,192926
1.8622,0.2199,38.6200,96,92,192929
1.9159,0.2297,38.3600,96,92,192932
1.9013,0.2248,38.5800,96,92,192935
1.9013,0.2199,38.6500,96,92,192940
1.9208,0.2297,38.5800,96,92,192943
1.9062,0.2199,38.8100,96,92,192946
1.9501,0.2297,38.3300,96,92,192950
1.9110,0.2199,38.5500,96,92,192953
1.9013,0.2151,38.6200,96,92,192956
1.9159,0.2248,38.6200,96,92,192960
1.9208,0.2199,38.5800,96,92,192963
1.9795,0.2444,38.4600,96,92,192966
1.9550,0.2248,38.5500,96,92,192970
1.9648,0.2199,38.4900,96,92,192973
1.9746,0.2199,38.6200,96,92,192976
1.9892,0.2199,38.6200,96,92,192979
2.0186,0.2199,38.6200,96,92,192984
1.9941,0.2199,38.6500,96,92,192987
2.0039,0.2248,38.3000,96,92,192990
1.9648,0.2248,38.6200,96,92,192994
1.9453,0.2199,38.6200,96,92,192997
1.9550,0.2297,38.8700,96,92,193000
1.8866,0.2248,38.6500,96,92,193004
1.8817,0.2199,38.5500,96,92,193007
1.8426,0.2542,38.5500,96,92,193010
1.8475,0.1906,38.6200,96,92,193014
1.8622,0.2395,38.4900,96,92,193017
1.8328,0.2102,38.6200,96,92,193020
1.8426,0.2248,38.4000,96,92,193024
1.8035,0.2346,38.5500,96,92,193028
1.8084,0.2102,38.6200,96,92,193031
1.7937,0.2297,38.5800,96,92,193034
1.7742,0.2199,38.6500,96,92,193038
1.8133,0.2248,38.3600,96,92,193041
1.7644,0.2542,38.6200,96,92,193044
1.7889,0.2248,38.6500,96,92,193048
1.7546,0.2248,38.6500,96,92,193051
1.7546,0.2248,38.6200,96,92,193054
1.8133,0.2395,38.4300,96,92,193058
1.7840,0.2297,38.5500,96,92,193061
1.7742,0.2151,38.5500,96,92,193064
1.7791,0.2493,38.5800,96,92,193068
1.8084,0.2199,38.6500,96,92,193072
1.8377,0.2297,38.4600,96,92,193075
1.8280,0.2199,38.5800,96,92,193078
1.8377,0.2199,38.5200,96,92,193082
1.8133,0.2199,38.7400,96,92,193085
1.8231,0.2199,38.6200,96,92,193088
1.8866,0.2297,38.4900,96,92,193092
1.9306,0.2199,38.6200,96,92,193095
2.0674,0.2346,38.5200,96,92,193098
2.1799,0.2199,38.6200,96,92,193102
2.3705,0.2199,38.6500,96,92,193105
2.6002,0.2248,38.5200,96,92,193108
2.8152,0.2199,38.6500,96,92,193112
3.0841,0.2199,38.4600,96,92,193116
3.2209,0.2248,38.6200,96,92,193119
3.2698,0.2151,38.6500,96,92,193122
3.1818,0.2297,38.5800,96,92,193126
2.8983,0.2199,38.6500,96,92,193129
2.6295,0.2248,38.3600,96,92,193132
2.2874,0.2151,38.5200,96,92,193136
2.0039,0.2199,38.6500,96,92,193139
1.8084,0.2248,38.6500,96,92,193142
1.6325,0.2199,38.6200,96,92,193145
1.5640,0.2346,38.3300,96,92,193149
1.4663,0.2199,38.5200,96,92,193153
1.4174,0.2297,38.6800,96,92,193156
1.3978,0.2248,38.6500,96,92,193160
1.3734,0.2199,38.6200,96,92,193163
1.4272,0.2395,38.4300,96,92,193166
1.4027,0.2248,38.5800,96,92,193170
1.4272,0.2493,38.5800,96,92,193173
1.4565,0.2199,38.6200,96,92,193176
1.4858,0.2199,38.6500,96,92,193180
1.5347,0.2297,38.5200,96,92,193183
1.5200,0.2248,38.5500,96,92,193186
1.5543,0.2199,38.4600,96,92,193189
1.5689,0.2199,38.6800,96,92,193193
1.5982,0.2199,38.6500,96,92,193197
1.6471,0.2346,38.4600,96,92,193200
1.6373,0.2199,38.6200,96,92,193204
1.6813,0.2297,38.5500,96,92,193207
1.6716,0.2151,38.5800,96,92,193210
1.6764,0.2199,38.7400,96,92,193214
1.6862,0.2248,38.4900,96,92,193217
1.6667,0.2199,38.7100,96,92,193220
1.6813,0.2248,38.4000,96,92,193224
1.6618,0.2199,38.5800,96,92,193227
1.6667,0.2199,38.4900,96,92,193230
1.6862,0.2248,38.5500,96,92,193233
1.7058,0.2248,38.6200,96,92,193238
1.7351,0.2248,38.3600,96,92,193241
1.7107,0.2248,38.5800,96,92,193244
1.7204,0.2199,38.6500,96,92,193248
1.7351,0.2248,38.6200,96,92,193251
1.7302,0.2199,38.6500,96,92,193254
1.7889,0.2395,38.3600,96,92,193258
1.7889,0.2199,38.5500,96,92,193261
1.7498,0.2151,38.5800,96,92,193264
1.7889,0.2199,38.6200,96,92,193268
1.7546,0.2199,38.6500,96,92,193271
1.7937,0.2297,38.4300,96,92,193274
1.7693,0.2297,38.5800,96,92,193278
1.7595,0.2199,38.0200,96,92,193282
1.7449,0.2297,38.6200,96,92,193285
1.7595,0.2102,38.6500,96,92,193288
1.7889,0.2297,38.5500,96,92,193292
1.7693,0.2199,38.6500,96,92,193295
1.7889,0.2199,38.5200,96,92,193298
1.7498,0.2199,38.6800,96,92,193302
1.7449,0.2199,38.6800,96,92,193305
1.7498,0.2199,38.5500,96,92,193308
1.7595,0.2688,38.6800,96,92,193312
1.7986,0.2102,38.5200,96,92,193315
1.7644,0.2199,38.7100,96,92,193318
1.7595,0.2248,38.6500,96,92,193321
1.7742,0.2248,38.5200,96,92,193326
1.7498,0.2444,38.6200,96,92,193329
1.7889,0.2248,38.4300,96,92,193332
1.7693,0.2199,37.7700,96,92,193336
1.7546,0.2444,38.6200,96,92,193339
1.7742,0.2297,38.5500,96,92,193342
1.7595,0.2444,38.6800,96,92,193346
1.8084,0.2346,38.3300,96,92,193349
1.8280,0.2297,38.4900,96,92,193354
1.7986,0.2248,38.5800,96,92,193357
1.8182,0.2199,38.4900,96,92,193360
1.8280,0.1906,38.6200,96,92,193364
1.8328,0.2199,38.7400,96,92,193368
1.8768,0.2297,38.5800,96,92,193371
1.8719,0.2199,38.6200,96,92,193374
1.9110,0.2248,38.4900,96,92,193378
1.8964,0.2248,38.6800,96,92,193381
1.9159,0.2199,38.6500,96,92,193384
1.9501,0.2297,38.4900,96,92,193388
1.9013,0.2199,38.6200,96,92,193391
1.9159,0.2199,38.5500,96,92,193394
1.8866,0.2151,38.5500,96,92,193398
1.8915,0.2199,38.6500,96,92,193401
1.9208,0.2248,38.4900,96,92,193404
1.8964,0.2248,38.6500,96,92,193409
1.9306,0.2248,38.4000,96,92,193412
1.8964,0.2248,38.5500,96,92,193415
1.8817,0.2102,38.6200,96,92,193418
1.9013,0.2248,38.5500,96,92,193422
1.8915,0.2199,38.6500,96,92,193425
1.9697,0.2346,38.4000,96,92,193428
1.8817,0.2199,38.5200,96,92,193432
1.8671,0.2297,38.6500,96,92,193435
1.8524,0.2248,38.6800,96,92,193438
1.8377,0.2248,38.6200,96,92,193442
1.8915,0.2297,38.4000,96,92,193445
1.8622,0.2297,38.5200,96,92,193448
1.8524,0.2199,38.5200,96,92,193453
1.8328,0.2248,38.5800,96,92,193456
1.8133,0.2297,38.6800,96,92,193459
1.8426,0.2297,38.4300,96,92,193462
1.8084,0.2395,38.5800,96,92,193466
1.7986,0.2542,38.4900,96,92,193469
1.7791,0.2102,38.6500,96,92,193472
1.7791,0.2199,38.5200,96,92,193476
1.8475,0.2102,38.4900,96,92,193479
1.8035,0.2248,38.6500,96,92,193482
1.8426,0.2297,38.4900,96,92,193486
1.8035,0.2493,38.6500,96,92,193489
1.7889,0.1906,38.6500,96,92,193492
1.7937,0.2248,38.6200,96,92,193496
1.7986,0.2199,38.6500,96,92,193500
1.8377,0.2151,38.4600,96,92,193503
1.7840,0.2493,38.6500,96,92,193506
1.7840,0.2199,38.6200,96,92,193510
1.8182,0.2297,38.5800,96,92,193513
1.8084,0.2102,38.6800,96,92,193516
1.8573,0.2248,38.4000,96,92,193520
1.8328,0.2248,38.5200,96,92,193523
1.8133,0.2199,38.7100,96,92,193526
1.8231,0.2297,38.6200,96,92,193530
1.8035,0.2199,38.6800,96,92,193533
1.8573,0.2297,38.3300,96,92,193537
1.8231,0.2199,38.5500,96,92,193541
1.8377,0.2151,38.5800,96,92,193544
1.8475,0.2248,38.6500,96,92,193547
1.8719,0.2199,38.6500,96,92,193550
1.9208,0.2395,38.4900,96,92,193554
1.8768,0.2248,38.5800,96,92,193557
1.8671,0.2102,38.5200,96,92,193560
1.8524,0.2199,38.6800,96,92,193564
1.8573,0.2248,38.6500,96,92,193567
1.8915,0.2297,38.6200,96,92,193570
1.8768,0.2248,38.6500,96,92,193574
1.9013,0.2248,38.4900,96,92,193577
1.8817,0.2199,38.6200,96,92,193581
1.8768,0.2248,38.6200,96,92,193585
1.9208,0.2297,38.4900,96,92,193588
1.9453,0.2248,38.6200,96,92,193591
1.9648,0.2199,38.4900,96,92,193594
1.9501,0.2199,38.6200,96,92,193598
1.9648,0.2199,38.5500,96,92,193601
1.9990,0.2297,38.6500,96,92,193604
1.9746,0.2297,38.6500,96,92,193608
2.0088,0.2248,38.4000,96,92,193611
1.9355,0.2199,38.5500,96,92,193614
1.8915,0.2199,38.7400,96,92,193618
1.8671,0.2297,38.5500,96,92,193622
1.8377,0.2199,38.6500,96,92,193625
1.8719,0.2248,38.4600,96,92,193629
1.8280,0.2151,38.6500,96,92,193632
1.8280,0.2444,38.6500,96,92,193635
1.8231,0.2248,38.5800,96,92,193638
1.7986,0.2493,38.6500,96,92,193642
1.8426,0.2346,38.4000,96,92,193645
1.7693,0.2297,38.5500,96,92,193648
1.7400,0.2151,38.5500,96,92,193652
1.7302,0.2248,38.6500,96,92,193655
1.7302,0.2199,38.6500,96,92,193658
1.7742,0.2248,38.4600,96,92,193662
1.7546,0.2248,38.6200,96,92,193666
1.7546,0.2248,38.5200,96,92,193669
1.7302,0.2248,38.6500,96,92,193673
1.7253,0.2199,38.8400,96,92,193676
1.7449,0.2297,38.4900,96,92,193679
1.7302,0.2199,38.6200,96,92,193682
1.7546,0.2297,38.4600,96,92,193686
1.7302,0.2248,38.6500,96,92,193689
1.7351,0.2199,38.6500,96,92,193692
1.7498,0.2248,38.5200,96,92,193696
1.7840,0.2199,38.6200,96,92,193699
1.7986,0.2248,38.4900,96,92,193702
1.8133,0.2199,38.6200,96,92,193707
1.8622,0.2199,38.6500,96,92,193710
1.9648,0.2297,38.5500,96,92,193713
2.0772,0.2199,38.6200,96,92,193717
2.3021,0.2297,38.3600,96,92,193720
2.5073,0.2297,38.5500,96,92,193723
2.7615,0.1906,38.6500,96,92,193726
3.0694,0.2297,38.5800,96,92,193730
3.2991,0.2199,38.6500,96,92,193733
3.5533,0.2346,38.3300,96,92,193736
3.4800,0.2248,38.5200,96,92,193740
3.2551,0.2151,38.6200,96,92,193743
2.9423,0.2248,38.6800,96,92,193746
2.5904,0.2346,38.6500,96,92,193751
2.3705,0.2346,38.4600,96,92,193754
2.0577,0.2248,38.8100,96,92,193757
1.8475,0.2199,38.5200,96,92,193760
1.6911,0.2199,38.6500,96,92,193764
1.5689,0.2199,38.6200,96,92,193767
1.5054,0.2297,38.5200,96,92,193770
1.4272,0.2248,38.5800,96,92,193774
1.3881,0.2248,38.7700,96,92,193777
1.3343,0.2199,38.6200,96,92,193780
1.3148,0.2199,38.6500,96,92,193784
1.3294,0.2346,38.5500,96,92,193787
1.3099,0.2199,38.6500,96,92,193790
1.3343,0.2297,38.5200,96,92,193795
1.3245,0.2151,38.6800,96,92,193798
1.3539,0.2199,38.6500,96,92,193801
1.4223,0.2199,38.4900,96,92,193805
1.3930,0.2199,38.6500,96,92,193808
1.4174,0.2248,38.4900,96,92,193811
1.4076,0.2151,38.5500,96,92,193814
1.4174,0.2199,38.6500,96,92,193818
1.4467,0.2297,38.4600,96,92,193821
1.4565,0.2151,38.6500,96,92,193824
1.5152,0.2297,38.3600,96,92,193828
1.4907,0.2151,38.5800,96,92,193831
1.5054,0.2199,38.6500,96,92,193835
1.5152,0.2248,38.6800,96,92,193839
1.5200,0.1906,38.6800,96,92,193842
1.5640,0.2297,38.3600,96,92,193845
1.5396,0.2248,38.5500,96,92,193848
1.5689,0.2248,38.6200,96,92,193852
1.5494,0.2248,38.7400,96,92,193855
1.5494,0.2199,38.6200,96,92,193858
1.5982,0.2346,38.4300,96,92,193862
1.5787,0.2297,38.6200,96,92,193865
1.5836,0.2248,38.5200,96,92,193868
1.5787,0.2199,38.6200,96,92,193872
1.5738,0.2297,38.6500,96,92,193875
1.5934,0.2297,38.4600,96,92,193879
1.5738,0.2248,38.6200,96,92,193883
1.5885,0.2346,38.4900,96,92,193886
1.5689,0.2199,38.6500,96,92,193889
1.5787,0.2248,38.6200,96,92,193892
1.5934,0.2248,38.5500,96,92,193896
1.5885,0.2297,38.5800,96,92,193899
1.6080,0.2199,38.4900,96,92,193902
1.5885,0.2199,38.6200,96,92,193906
1.6031,0.2248,38.6200,96,92,193909
1.6129,0.2297,38.6800,96,92,193912
1.5885,0.2199,38.6200,96,92,193916
1.6178,0.2248,38.4300,96,92,193920
1.5982,0.2395,38.5200,96,92,193923
1.5885,0.2199,38.6500,96,92,193927
1.6031,0.2297,38.5500,96,92,193930
1.5885,0.2248,38.6800,96,92,193933
1.6276,0.2297,38.3300,96,92,193937
1.6031,0.2248,38.5200,96,92,193940
1.5934,0.1906,38.6200,96,92,193943
1.6080,0.2248,38.5800,96,92,193946
1.6031,0.2346,38.6200,96,92,193950
1.6520,0.2395,38.4300,96,92,193953
1.6178,0.2444,38.6200,96,92,193956
1.6276,0.2248,38.5500,96,92,193960
1.6227,0.2248,38.6200,96,92,193964
1.6520,0.2199,38.5500,96,92,193969
1.6764,0.2248,38.6800,96,92,193972
1.7253,0.2297,38.4900,96,92,193975
1.7253,0.2248,38.6200,96,92,193979
1.7644,0.2248,38.4600,96,92,193982
1.7644,0.2199,38.6200,96,92,193985
1.7840,0.2297,38.6200,96,92,193989
1.8231,0.2297,38.4000,96,92,193992
1.8182,0.2199,38.5800,96,92,193995
1.8671,0.2297,38.4000,96,92,193998
1.8475,0.2297,38.5500,96,92,194002
1.8426,0.2248,38.6200,96,92,194006
1.8622,0.2248,38.5500,96,92,194009
1.8573,0.2199,38.6500,96,92,194013
1.9110,0.2297,38.3300,96,92,194016
1.8768,0.2199,38.5200,96,92,194019
1.8768,0.2151,38.6200,96,92,194023
1.8768,0.2248,38.5800,96,92,194026
1.8768,0.2199,38.6800,96,92,194029
1.9257,0.2395,38.4600,96,92,194033
1.8866,0.2297,38.5800,96,92,194036
1.8768,0.2199,38.6800,96,92,194039
1.8622,0.2248,38.6200,96,92,194042
1.8719,0.2199,38.6500,96,92,194046
1.9110,0.2297,38.4300,96,92,194050
1.8768,0.2248,38.6200,96,92,194053
1.8866,0.2248,38.5200,96,92,194057
1.8671,0.2102,38.6200,96,92,194060
1.8475,0.2199,38.7100,96,92,194063
1.8671,0.2346,38.5200,96,92,194067
1.8377,0.2248,38.6200,96,92,194070
1.8622,0.2297,38.5800,96,92,194073
1.8280,0.2248,38.6200,96,92,194077
1.8280,0.2199,38.6500,96,92,194080
1.8280,0.2248,38.5200,96,92,194083
1.8084,0.2444,38.6200,96,92,194086
1.8280,0.2248,38.4300,96,92,194091
1.7937,0.2297,38.6500,96,92,194094
1.8280,0.2199,38.6200,96,92,194097
1.8084,0.2297,38.6200,96,92,194101
1.7889,0.2248,38.6500,96,92,194104
1.8231,0.2297,38.3600,96,92,194107
1.7986,0.2248,38.4900,96,92,194111
1.7889,0.2248,38.6500,96,92,194114
1.7889,0.2248,38.5800,96,92,194117
1.7840,0.2102,38.6200,96,92,194121
1.8377,0.2395,38.3600,96,92,194124
1.7986,0.2248,38.5500,96,92,194127
1.7791,0.2151,38.5800,96,92,194130
1.7937,0.2248,38.6500,96,92,194135
1.7937,0.2151,38.6200,96,92,194138
1.8377,0.2297,38.4900,96,92,194141
1.8084,0.2444,38.5800,96,92,194145
1.8524,0.2199,38.5200,96,92,194148
1.8231,0.2248,38.6200,96,92,194151
1.8182,0.2102,38.6500,96,92,194155
1.8524,0.2297,38.5500,96,92,194158
1.8426,0.2493,38.6200,96,92,194161
1.8671,0.2297,38.4900,96,92,194165
1.8475,0.2199,38.6500,96,92,194168
1.8573,0.2151,38.6500,96,92,194171
1.8915,0.2297,38.4900,96,92,194174
1.8622,0.2248,38.6200,96,92,194179
1.8866,0.2248,38.4600,96,92,194182
1.8622,0.2199,38.5200,96,92,194185
1.8817,0.2248,38.6800,96,92,194189
1.8915,0.2297,38.4600,96,92,194192
1.8768,0.2199,38.6200,96,92,194195
1.9208,0.2199,38.4300,96,92,194199
1.9013,0.2248,38.5800,96,92,194202
1.9013,0.2199,38.6500,96,92,194205
1.9306,0.2297,38.5800,96,92,194209
1.9208,0.2199,38.5800,96,92,194212
1.9844,0.2444,38.3600,96,92,194215
1.9550,0.2199,38.5500,96,92,194219
1.9599,0.2151,37.9000,96,92,194223
2.0039,0.2248,38.6200,96,92,194226
1.9746,0.2199,38.6500,96,92,194229
2.0235,0.2395,38.4000,96,92,194233
1.9648,0.2248,38.5500,96,92,194236
1.9306,0.1906,38.5500,96,92,194239
1.8964,0.2248,38.5800,96,92,194243
1.8768,0.2199,38.6200,96,92,194246
1.8817,0.2297,38.5500,96,92,194249
1.8377,0.2248,38.5800,96,92,194253
1.8524,0.2248,38.4900,96,92,194256
1.8231,0.2248,38.6200,96,92,194259
1.8133,0.2102,38.6200,96,92,194263
1.8280,0.2297,38.5200,96,92,194267
1.7889,0.2297,38.6200,96,92,194270
1.7986,0.2297,38.5200,96,92,194273
1.7546,0.2199,38.6500,96,92,194277
1.7449,0.2199,38.6200,96,92,194280
1.7449,0.2248,38.4900,96,92,194283
1.7302,0.2248,38.5800,96,92,194287
1.7742,0.2199,38.4000,96,92,194290
1.7351,0.2199,38.6500,96,92,194293
1.7400,0.2248,38.6800,96,92,194297
1.7644,0.2297,38.5500,96,92,194300
1.7449,0.2297,38.6200,96,92,194304
1.7889,0.2297,38.3600,96,92,194307
1.7693,0.2248,38.4900,96,92,194311
1.7889,0.2248,38.6500,96,92,194314
1.7644,0.2297,38.6800,96,92,194317
1.7546,0.2542,38.6200,96,92,194321
1.8182,0.2346,38.3300,96,92,194324
1.8084,0.2248,38.4900,96,92,194327
1.8280,0.2151,38.6500,96,92,194331
1.8768,0.2248,38.6200,96,92,194334
1.9453,0.2199,38.6800,96,92,194337
2.0968,0.2346,38.5200,96,92,194341
2.1994,0.2297,38.5800,96,92,194344
2.3754,0.2199,38.5800,96,92,194348
2.5806,0.2297,38.6200,96,92,194351
2.8250,0.2199,38.6500,96,92,194355
3.0938,0.2297,38.6200,96,92,194358
3.2063,0.2248,38.6200,96,92,194361
3.2356,0.2248,38.4900,96,92,194365
3.0254,0.2151,38.6500,96,92,194368
2.7566,0.2199,38.6500,96,92,194371
2.4780,0.2297,38.4000,96,92,194375
2.1603,0.2199,38.6200,96,92,194378
1.9501,0.2248,38.5200,96,92,194381
1.7302,0.2199,38.5800,96,92,194384
1.5934,0.2199,38.6200,96,92,194388
1.5103,0.2297,38.4900,96,92,194392
1.4321,0.2395,38.5800,96,92,194395
1.4272,0.2248,38.4300,96,92,194399
1.3832,0.2297,38.3600,96,92,194402
1.3930,0.2199,38.6200,96,92,194405
1.3832,0.2297,38.6500,96,92,194409
1.3783,0.2248,38.6200,96,92,194412
1.4223,0.2346,38.3600,96,92,194415
1.3978,0.2199,38.5800,96,92,194419
1.4418,0.2248,38.6200,96,92,194422
1.4272,0.2248,38.5200,96,92,194425
1.4370,0.2199,38.6200,96,92,194429
1.5005,0.2395,38.4000,96,92,194433
1.4907,0.2297,38.5800,96,92,194436
1.4956,0.2199,38.5500,96,92,194439
1.5152,0.2248,38.6800,96,92,194443
1.5249,0.2248,38.6800,96,92,194446
1.5689,0.2297,38.4300,96,92,194449
1.5640,0.2346,38.5800,96,92,194453
1.5836,0.2199,38.5200,96,92,194456
1.5738,0.2248,38.6500,96,92,194459
1.5787,0.2199,38.6200,96,92,194463
1.6129,0.2297,38.5200,96,92,194466
1.5982,0.2248,38.6200,96,92,194469
1.6276,0.2297,38.6800,96,92,194472
1.6129,0.2248,38.6800,96,92,194477
1.6178,0.2199,38.6800,96,92,194480
1.6422,0.2248,38.5200,96,92,194483
1.6520,0.2297,38.6800,96,92,194487
1.6764,0.2248,38.4600,96,92,194490
1.6813,0.2248,38.6200,96,92,194493
1.6716,0.2199,38.6200,96,92,194497
1.6960,0.2297,38.5500,96,92,194500
1.6813,0.2199,38.6200,96,92,194503
1.7253,0.2248,38.4000,96,92,194507
1.7107,0.2297,38.5500,96,92,194510
1.7058,0.2199,38.7100,96,92,194513
1.7204,0.2297,38.5800,96,92,194518
1.7058,0.2199,38.6500,96,92,194521
1.7546,0.2346,38.3000,96,92,194524
1.7253,0.2248,38.5200,96,92,194527
1.7204,0.2151,38.7400,96,92,194531
1.7302,0.2199,38.5800,96,92,194534
1.7204,0.2199,38.6500,96,92,194537
1.7889,0.2395,38.4300,96,92,194541
1.7498,0.2297,38.5500,96,92,194544
1.7546,0.2199,38.5800,96,92,194547
1.7546,0.2248,38.5800,96,92,194551
1.7595,0.1906,38.6500,96,92,194554
1.7937,0.2297,38.5500,96,92,194557
1.7742,0.2199,38.6800,96,92,194561
1.7986,0.2248,38.4900,96,92,194565
1.7742,0.2297,38.6500,96,92,194568
1.7840,0.2102,38.6200,96,92,194571
1.7986,0.2346,38.5200,96,92,194575
1.7742,0.2297,38.4900,96,92,194579
1.7546,0.2199,38.6200,96,92,194583
1.8133,0.2346,38.3600,96,92,194586
1.7840,0.2248,38.6500,96,92,194589
1.7889,0.2248,38.6200,96,92,194593
1.8084,0.2199,38.5800,96,92,194596
1.7986,0.2199,38.6500,96,92,194599
1.8475,0.2346,38.3000,96,92,194604
1.8084,0.2248,38.5800,96,92,194607
1.8133,0.2199,38.6200,96,92,194610
1.8280,0.2248,38.6200,96,92,194613
1.8280,0.2248,38.6500,96,92,194617
1.8866,0.2395,38.4600,96,92,194620
1.8524,0.2395,38.5800,96,92,194623
1.8475,0.2199,38.5500,96,92,194627
1.8475,0.2248,38.6200,96,92,194630
1.8475,0.2199,38.6200,96,92,194633
1.8817,0.2297,38.4000,96,92,194637
1.8622,0.2297,38.5800,96,92,194640
1.8671,0.2248,38.4900,96,92,194643
1.8426,0.2248,38.6500,96,92,194648
1.8377,0.2199,38.6500,96,92,194651
1.8671,0.2346,38.5200,96,92,194654
1.8475,0.2248,38.6200,96,92,194657
1.8768,0.2297,38.5200,96,92,194661
1.8377,0.2248,38.6200,96,92,194664
1.8573,0.2199,38.6200,96,92,194667
1.8328,0.2248,38.5500,96,92,194671
1.8133,0.2248,38.8400,96,92,194674
1.8426,0.2199,38.4300,96,92,194677
1.7937,0.2248,38.6500,96,92,194681
1.7937,0.2199,38.6200,96,92,194684
1.8133,0.2297,38.5500,96,92,194688
1.7937,0.2199,38.6200,96,92,194692
1.8377,0.2297,38.3300,96,92,194695
1.8133,0.2248,38.5200,96,92,194698
1.7986,0.2248,38.6200,96,92,194701
1.8133,0.2248,38.6800,96,92,194705
1.8035,0.2248,38.6500,96,92,194708
1.8573,0.2444,38.3600,96,92,194711
1.8133,0.2297,38.4600,96,92,194715
1.8035,0.2248,38.5800,96,92,194718
1.8035,0.2248,38.5800,96,92,194721
1.7986,0.2199,38.7100,96,92,194725
1.8328,0.2297,38.4600,96,92,194728
1.8035,0.2297,38.6500,96,92,194732
1.7889,0.2248,38.5200,96,92,194736
1.7693,0.2199,38.6800,96,92,194739
1.7742,0.2248,38.5800,96,92,194742
1.8035,0.2248,38.5500,96,92,194745
1.7986,0.2248,38.6200,96,92,194749
1.8182,0.2297,38.4900,96,92,194752
1.7986,0.2199,38.6200,96,92,194755
1.7937,0.2199,38.8400,96,92,194759
1.8328,0.2346,38.4900,96,92,194762
1.8084,0.2248,38.6200,96,92,194765
1.8280,0.2346,38.4900,96,92,194769
1.8084,0.2199,38.5500,96,92,194772
1.8133,0.2248,38.6800,96,92,194776
1.8475,0.2297,38.4900,96,92,194780
1.8280,0.2248,38.6200,96,92,194783
1.8622,0.2346,38.4000,96,92,194786
1.8328,0.2297,38.6500,96,92,194789
1.8328,0.2199,38.4900,96,92,194793
1.8475,0.2542,38.5800,96,92,194796
1.8377,0.2248,38.6500,96,92,194799
1.8915,0.2297,38.5500,96,92,194803
1.8573,0.2102,38.5500,96,92,194806
1.8719,0.2199,38.6500,96,92,194809
1.8915,0.2444,38.5800,96,92,194813
1.8915,0.2199,38.6500,96,92,194817
1.9599,0.2444,38.4000,96,92,194820
1.9306,0.2346,38.5800,96,92,194824
1.9306,0.2199,38.5500,96,92,194827
1.9355,0.2297,38.6200,96,92,194830
1.9355,0.2199,38.6500,96,92,194834
1.9795,0.2444,38.4300,96,92,194837
1.9648,0.2248,38.6200,96,92,194840
1.9892,0.2248,38.5500,96,92,194843
1.9892,0.2248,38.6200,96,92,194847
1.9746,0.2248,38.6200,96,92,194850
1.9941,0.2297,38.5500,96,92,194853
1.9648,0.2102,38.6500,96,92,194857
1.9746,0.2346,38.5200,96,92,194861
1.9159,0.2297,38.6200,96,92,194864
1.8964,0.2248,38.6500,96,92,194868
1.8866,0.2248,38.5500,96,92,194871
1.8817,0.2248,38.6200,96,92,194874
1.8915,0.2248,38.4300,96,92,194877
1.8524,0.2248,38.6500,96,92,194881
1.8426,0.2199,38.6500,96,92,194884
1.8573,0.2297,38.5800,96,92,194887
1.8328,0.2248,38.6200,96,92,194891
1.8622,0.2297,38.4300,96,92,194894
1.8622,0.2346,38.5200,96,92,194897
1.7986,0.2199,38.6500,96,92,194902
1.7889,0.2248,38.6200,96,92,194905
1.7693,0.2102,38.6200,96,92,194908
1.8133,0.2395,38.4000,96,92,194912
1.7693,0.2297,38.5200,96,92,194915
1.7546,0.2199,38.5800,96,92,194918
1.7498,0.2493,38.6200,96,92,194922
1.7400,0.2199,38.6500,96,92,194925
1.7742,0.2297,38.5200,96,92,194928
1.7449,0.2199,38.5800,96,92,194931
1.7742,0.2102,38.5200,96,92,194935
1.7400,0.2248,38.7100,96,92,194938
1.7498,0.2199,38.6800,96,92,194941
1.7791,0.2297,38.6200,96,92,194946
1.7840,0.2297,38.6200,96,92,194949
1.8426,0.2297,38.4900,96,92,194952
1.8622,0.2248,38.6500,96,92,194956
1.9306,0.2395,38.6500,96,92,194959
2.0528,0.2297,38.4900,96,92,194962
2.1408,0.2248,38.6500,96,92,194966
2.3558,0.2248,38.4600,96,92,194969
2.4927,0.2199,38.5500,96,92,194972
2.7126,0.2199,38.6200,96,92,194975
2.9765,0.2297,38.4900,96,92,194979
3.1281,0.2248,38.6200,96,92,194982
3.2551,0.2346,38.4300,96,92,194985
3.1183,0.2248,38.5800,96,92,194990
2.8592,0.2248,38.6200,96,92,194993
2.5806,0.2297,38.5800,96,92,194996
2.2532,0.2248,38.6200,96,92,195000
2.0430,0.2346,38.3300,96,92,195003
1.7791,0.2248,38.5500,96,92,195006
1.6031,0.2199,38.6500,96,92,195009
1.4809,0.2297,38.6800,96,92,195013
1.3978,0.2248,38.6200,96,92,195016
1.3978,0.2395,38.4000,96,92,195019
1.3441,0.2346,38.5200,96,92,195023
1.3294,0.2199,38.5500,96,92,195026
1.3343,0.2248,38.6200,96,92,195030
1.3539,0.2248,38.6500,96,92,195034
1.4027,0.2297,38.4000,96,92,195037
1.4370,0.2248,38.6800,96,92,195040
1.4223,0.2248,38.4900,96,92,195044
1.4174,0.2248,38.6500,96,92,195047
1.4321,0.2493,38.6500,96,92,195050
1.4712,0.2297,37.7100,96,92,195053
1.4761,0.2248,38.6800,96,92,195057
1.5054,0.2297,38.5200,96,92,195060
1.4907,0.2248,38.6200,96,92,195063
1.5054,0.2199,38.6200,96,92,195067
1.5396,0.2297,38.5500,96,92,195070
1.5543,0.2395,38.6200,96,92,195074
1.6031,0.2102,38.4300,96,92,195078
1.5787,0.2199,38.6200,96,92,195081
1.5982,0.2151,38.6500,96,92,195084
1.5885,0.2297,38.4300,96,92,195088
1.5934,0.2102,38.6200,96,92,195091
1.6422,0.2297,38.5500,96,92,195094
1.6276,0.2346,38.5800,96,92,195098
1.6080,0.2199,38.6500,96,92,195101
1.6080,0.2444,38.5800,96,92,195104
1.5982,0.2102,38.6200,96,92,195107
1.6520,0.2297,38.4300,96,92,195111
1.6227,0.2248,38.4900,96,92,195115
1.6227,0.2199,38.5800,96,92,195118
1.6276,0.2395,38.6500,96,92,195122
1.6276,0.2248,38.6500,96,92,195125
1.6764,0.2395,37.8700,96,92,195128
1.6520,0.2199,38.5800,96,92,195132
1.6520,0.2248,38.5200,96,92,195135
1.6569,0.2248,38.6500,96,92,195138
1.6667,0.2248,38.6200,96,92,195142
1.7009,0.2297,38.5500,96,92,195145
1.6911,0.2248,38.5200,96,92,195148
1.7155,0.2346,38.4900,96,92,195151
1.6960,0.2248,37.9900,96,92,195155
1.7058,0.2493,38.6200,96,92,195159
1.7400,0.2346,38.5200,96,92,195162
1.7155,0.2248,38.6500,96,92,195166
1.7693,0.2248,38.4900,96,92,195169
1.7058,0.2199,38.5800,96,92,195172
1.7155,0.2199,38.7400,96,92,195176
1.7498,0.2297,38.4900,96,92,195179
1.7253,0.2248,38.7100,96,92,195182
1.7644,0.2346,38.4000,96,92,195186
1.8231,0.2346,38.3600,95,92,195190
1.7840,0.2248,38.6200,95,92,195194
1.7693,0.2199,38.5800,95,92,195197
1.7693,0.2248,38.6200,95,92,195201
1.7742,0.2248,38.6500,95,92,195204
1.8231,0.2297,38.4900,95,92,195208
1.8035,0.2297,38.7100,95,92,195211
1.8182,0.2199,38.4600,95,92,195214
1.8231,0.2248,38.6200,95,92,195218
1.8426,0.2542,38.6200,95,92,195221
1.8915,0.2346,38.4300,95,92,195224
1.8719,0.2297,38.6200,95,92,195228
1.8915,0.2346,38.4900,95,92,195231
1.8671,0.2248,38.6200,95,92,195234
1.8671,0.2199,38.6500,95,92,195238
1.8915,0.2297,38.5200,95,92,195241
1.8817,0.2248,38.6500,95,92,195245
1.9110,0.2297,38.4900,95,92,195248
1.8671,0.2102,38.5800,95,92,195252
1.8573,0.2248,38.6800,95,92,195255
1.8671,0.2297,38.5200,95,92,195258
1.8573,0.2248,38.6200,95,92,195262
1.9013,0.2297,37.7100,95,92,195265
1.8768,0.2199,38.6200,95,92,195268
1.8719,0.2248,38.7100,95,92,195272
1.8866,0.2346,38.5800,95,92,195275
1.8573,0.2248,38.6500,95,92,195278
1.8866,0.2346,38.3300,95,92,195282
1.8475,0.2297,38.5200,95,92,195286
1.8328,0.2199,38.7100,95,92,195289
1.8719,0.2297,38.5800,95,92,195292
1.8377,0.2248,38.6200,95,92,195296
1.8817,0.2395,38.4600,95,92,195299
1.8377,0.2346,38.5500,95,92,195302
1.8182,0.2248,38.5500,95,92,195306
1.8133,0.2297,38.5800,95,92,195309
1.8084,0.2248,38.6500,95,92,195312
1.8280,0.2395,38.6200,95,92,195316
1.7937,0.2248,38.5800,95,92,195319
1.8035,0.2102,38.5500,95,92,195322
1.7791,0.2248,38.6200,95,92,195326
1.7791,0.2102,38.6200,95,92,195330
1.7742,0.2297,38.5800,95,92,195333
1.7595,0.2248,38.5800,95,92,195336
1.7791,0.2346,38.5200,95,92,195340
1.7302,0.2248,38.6500,95,92,195343
1.7155,0.2151,38.6500,95,92,195346
1.7351,0.2297,38.5800,95,92,195350
1.7400,0.2199,38.6200,95,92,195353
1.7449,0.2297,38.4600,95,92,195356
1.7302,0.2248,38.4900,95,92,195360
1.7302,0.2248,38.6500,95,92,195363
1.7546,0.2297,38.6500,95,92,195366
1.7302,0.2248,38.5800,95,92,195371
1.7693,0.2346,38.4000,95,92,195374
1.7302,0.2248,38.6500,95,92,195377
1.7400,0.2493,38.6200,95,92,195380
1.7937,0.2102,38.5800,95,92,195384
1.7644,0.2248,38.6200,95,92,195387
1.8084,0.2395,38.3600,95,92,195390
1.7693,0.2248,38.5200,95,92,195394
1.7644,0.2395,38.6200,95,92,195397
1.7937,0.2297,38.6200,95,92,195400
1.7986,0.2248,38.5800,95,92,195404
1.8622,0.2395,38.4900,95,92,195407
1.8084,0.2297,38.5200,95,92,195410
1.8133,0.2248,38.5200,95,92,195415
1.8084,0.2248,38.6200,95,92,195418
1.8182,0.2248,38.7100,95,92,195421
1.8426,0.2346,38.4300,95,92,195424
1.8231,0.2297,38.6800,95,92,195428
1.8475,0.2395,38.4600,95,92,195431
1.8231,0.2248,38.6500,95,92,195434
1.8182,0.2248,38.6800,95,92,195438
1.8622,0.2199,38.4900,95,92,195441
1.8377,0.2248,38.6200,95,92,195444
1.8817,0.2248,38.5200,95,92,195448
1.8622,0.2248,38.5800,95,92,195451
1.8719,0.2248,38.5500,95,92,195454
1.8915,0.2297,38.5500,95,92,195459
1.8866,0.2199,38.6200,95,92,195462
1.9306,0.2297,38.4300,95,92,195465
1.9453,0.2248,38.6200,95,92,195468
1.9257,0.2248,38.6500,95,92,195472
1.9257,0.2297,38.6200,95,92,195475
1.8866,0.2248,38.6200,95,92,195478
1.9257,0.2346,38.4000,95,92,195482
1.8915,0.2199,38.5500,95,92,195485
1.8719,0.2199,38.6200,95,92,195488
1.8719,0.2248,38.5500,95,92,195492
1.8377,0.2248,38.6800,95,92,195495
1.8671,0.2444,38.4900,95,92,195499
1.8035,0.2297,38.5500,95,92,195503
1.7791,0.2199,38.9000,95,92,195506
1.7791,0.2346,38.6200,95,92,195509
1.7644,0.2199,38.6500,95,92,195512
1.7840,0.2297,38.4600,95,92,195516
1.7742,0.2297,38.5800,95,92,195519
1.7400,0.2248,38.4900,95,92,195522
1.7155,0.2248,38.5800,95,92,195526
1.7107,0.2248,38.6200,95,92,195529
1.7204,0.2297,38.5200,95,92,195532
1.7058,0.2346,38.6200,95,92,195536
1.7400,0.2346,38.5200,95,92,195539
1.7107,0.2248,38.6500,95,92,195543
1.7204,0.2297,38.6200,95,92,195547
1.7449,0.2297,38.5200,95,92,195550
1.7400,0.2248,38.6800,95,92,195553
1.7742,0.2297,38.4600,95,92,195556
1.7546,0.2248,38.5500,95,92,195560
1.7644,0.2248,38.6500,95,92,195563
1.7937,0.2297,38.5200,95,92,195566
1.7742,0.2248,38.6800,95,92,195570
1.8328,0.2444,38.4000,95,92,195573
1.8280,0.2248,38.5500,95,92,195576
1.8622,0.2248,38.6500,95,92,195580
1.9355,0.2102,38.6200,95,92,195584
2.0235,0.2248,38.6500,95,92,195587
2.2239,0.2346,38.3300,95,92,195591
2.3705,0.2248,38.5500,95,92,195594
2.6100,0.2199,38.2400,95,92,195597
2.8739,0.2248,38.6200,95,92,195600
3.1085,0.2248,38.6200,95,92,195604
3.3529,0.2395,38.4300,95,92,195607
3.2893,0.2297,38.5800,95,92,195610
3.1134,0.2248,38.5500,95,92,195614
2.8299,0.2199,38.6800,95,92,195617
2.4585,0.2248,38.6200,95,92,195620
2.2043,0.2346,38.5200,95,92,195624
1.9501,0.2102,38.6500,95,92,195628
1.7351,0.2297,38.4900,95,92,195631
1.5494,0.2248,38.6200,95,92,195635
1.4712,0.2199,38.6200,95,92,195638
1.3930,0.2297,38.5800,95,92,195641
1.3490,0.2248,38.6500,95,92,195644
1.3881,0.2346,38.4900,95,92,195648
1.3343,0.2199,38.6200,95,92,195651
1.3441,0.2199,38.6200,95,92,195654
1.3783,0.2297,38.5500,95,92,195658
1.3832,0.2248,38.6500,95,92,195661
1.4223,0.2297,38.4300,95,92,195664
1.4223,0.2248,38.6500,95,92,195668
1.4418,0.2248,38.6200,95,92,195672
1.4858,0.2297,38.5500,95,92,195675
1.5103,0.2493,38.6500,95,92,195679
1.5885,0.2346,38.3600,95,92,195682
1.5787,0.2297,38.6500,95,92,195685
1.5591,0.2395,38.6500,95,92,195688
1.5640,0.2297,38.5800,95,92,195692
1.5591,0.2248,37.9300,95,92,195695
1.6178,0.2395,38.3600,95,92,195698
1.5982,0.2297,38.5500,95,92,195702
1.6080,0.2199,38.5500,95,92,195705
1.6276,0.2297,38.6200,95,92,195708
1.6227,0.2248,38.7100,95,92,195713
1.6520,0.2346,38.4900,95,92,195716
1.6373,0.2297,38.6200,95,92,195719
1.6520,0.2297,38.4900,95,92,195723
1.6373,0.2102,38.6200,95,92,195726
1.6422,0.2248,38.6200,95,92,195729
1.6716,0.2395,38.5800,95,92,195732
1.6178,0.2248,38.6200,95,92,195736
1.6373,0.2395,38.4900,95,92,195739
1.6325,0.2248,38.6800,95,92,195742
1.6471,0.2444,38.6500,95,92,195746
1.6667,0.2297,38.5200,95,92,195749
1.6373,0.2346,38.6200,95,92,195752
1.6471,0.2248,38.4900,95,92,195757
1.6276,0.2248,38.5200,95,92,195760
1.6276,0.2297,38.6500,95,92,195763
1.6569,0.2346,38.5200,95,92,195767
1.6520,0.2248,38.5800,95,92,195770
1.6911,0.2297,38.3600,95,92,195773
1.6716,0.2297,38.6200,95,92,195776
1.6716,0.2493,38.6500,95,92,195780
1.6960,0.2297,38.5500,95,92,195783
1.6960,0.2248,38.6200,95,92,195786
1.7400,0.2395,38.3600,95,92,195790
1.6960,0.2248,38.4900,95,92,195793
1.7009,0.2199,38.6800,95,92,195796
1.7009,0.2248,38.6500,95,92,195801
1.6862,0.2297,38.6200,95,92,195805
1.6960,0.2248,38.7100,95,92,195809
1.7400,0.2346,38.4900,95,92,195812
1.7400,0.2102,38.6200,95,92,195815
1.7644,0.2297,38.4900,95,92,195819
1.7400,0.2248,38.6200,95,92,195822
1.7351,0.2248,38.6200,95,92,195825
1.7498,0.2297,38.4900,95,92,195828
1.7302,0.2199,38.6500,95,92,195832
1.7595,0.2248,38.4600,95,92,195835
1.7449,0.2248,38.6200,95,92,195838
1.7644,0.2248,38.6500,95,92,195843
1.7937,0.2297,38.5200,95,92,195846
1.8035,0.2199,38.6200,95,92,195849
1.8377,0.2346,38.4000,95,92,195853
1.8035,0.2199,38.6200,95,92,195856
1.8328,0.2199,38.6200,95,92,195859
1.8328,0.2297,38.6200,95,92,195863
1.8377,0.2248,38.6500,95,92,195866
1.9013,0.2346,38.3300,95,92,195869
1.8866,0.2297,38.6200,95,92,195872
1.8719,0.2542,38.5800,95,92,195876
1.8671,0.2297,38.6200,95,92,195879
1.8475,0.2199,38.6500,95,92,195883
1.8866,0.2444,38.4300,95,92,195887
1.8426,0.2395,38.5500,95,92,195890
1.8377,0.2102,38.5200,95,92,195893
1.8182,0.2248,38.7700,95,92,195897
1.8133,0.2493,38.6500,95,92,195900
1.8426,0.2346,38.4900,95,92,195903
1.8182,0.2395,38.6200,95,92,195907
1.8377,0.2297,38.4900,95,92,195910
1.8084,0.2248,38.6800,95,92,195913
1.7986,0.2248,38.6800,95,92,195917
1.7937,0.2248,38.5500,95,92,195920
1.7693,0.2248,38.6200,95,92,195923
1.7937,0.2248,38.4900,95,92,195927
1.7742,0.2248,38.6200,95,92,195931
1.7889,0.2248,38.6800,95,92,195934
1.8084,0.2346,38.5200,95,92,195937
1.7644,0.2248,38.6200,95,92,195941
1.7693,0.2346,38.4000,95,92,195944
1.7546,0.2297,38.6200,95,92,195947
1.7498,0.2297,38.6500,95,92,195951
1.7840,0.2297,38.6500,95,92,195954
1.7742,0.2248,38.6200,95,92,195957
1.8133,0.2346,38.4300,95,92,195961
1.7693,0.2248,38.6200,95,92,195964
1.7546,0.2151,38.6200,95,92,195968
1.7546,0.2297,38.5800,95,92,195971
1.7449,0.2248,38.6200,95,92,195975
1.8133,0.2444,38.4300,95,92,195978
1.7498,0.2297,38.6200,95,92,195981
1.7742,0.2248,38.5500,95,92,195985
1.7400,0.2297,38.6500,95,92,195988
1.7400,0.2297,38.6500,95,92,195991
1.7840,0.2444,38.5200,95,92,195995
1.7546,0.2297,38.6200,95,92,195998
1.7644,0.2297,38.4900,95,92,196001
1.7498,0.2248,38.6200,95,92,196005
1.7449,0.2248,38.7100,95,92,196008
1.7791,0.2346,38.4600,95,92,196012
1.7546,0.2297,38.8100,95,92,196015
1.7840,0.2346,38.5200,95,92,196019
1.7644,0.2199,38.6200,95,92,196022
1.7693,0.2248,38.7400,95,92,196025
1.7937,0.2346,38.5200,95,92,196029
1.7742,0.2248,38.6500,95,92,196032
1.8133,0.2248,38.4600,95,92,196035
1.7889,0.2248,38.5800,95,92,196039
1.7889,0.2248,38.6800,95,92,196042
1.7986,0.2297,38.5200,95,92,196045
1.7937,0.2102,38.6500,95,92,196049
1.8377,0.2297,38.4300,95,92,196052
1.8035,0.2248,38.5800,95,92,196056
1.8035,0.2248,38.6200,95,92,196059
1.8084,0.2297,38.4600,95,92,196063
1.7986,0.2199,38.6200,95,92,196066
1.8475,0.2395,38.3300,95,92,196069
1.8231,0.2297,38.5200,95,92,196073
1.8133,0.2248,38.6200,95,92,196076
1.8231,0.2297,38.6500,95,92,196079
1.8377,0.2248,38.6800,95,92,196083
1.9013,0.2297,38.4300,95,92,196086
1.8915,0.2346,38.6200,95,92,196089
1.8964,0.2248,38.4900,95,92,196093
1.8964,0.2248,38.7700,95,92,196097
1.8915,0.2248,38.6800,95,92,196100
1.9062,0.2346,38.5500,95,92,196103
1.8622,0.2248,38.6200,95,92,196107
1.8524,0.2297,38.4600,95,92,196110
1.8133,0.2248,38.6200,95,92,196113
1.7986,0.2248,38.6200,95,92,196117
1.8035,0.2297,38.5500,95,92,196120
1.7840,0.2248,38.6200,95,92,196123
1.8035,0.2297,38.5500,95,92,196127
1.7742,0.2248,38.5800,95,92,196130
1.7693,0.2493,38.6800,95,92,196133
1.7889,0.2297,38.5200,95,92,196137
1.7546,0.2297,38.6200,95,92,196141
1.7693,0.2346,38.4300,95,92,196144
1.7449,0.2297,38.5200,95,92,196147
1.7253,0.2248,38.6200,95,92,196151
1.7400,0.2346,38.5800,95,92,196154
1.7204,0.2248,38.5500,95,92,196157
1.7693,0.2444,38.3600,95,92,196161
1.7400,0.2248,38.5200,95,92,196164
1.7498,0.2248,38.6500,95,92,196167
1.7693,0.2102,38.5800,95,92,196171
1.7791,0.2248,38.6500,95,92,196174
1.8328,0.2493,38.3300,95,92,196177
1.7986,0.2297,38.5500,95,92,196182
1.7889,0.2199,38.5500,95,92,196185
1.8182,0.2199,38.6200,95,92,196188
1.8035,0.2248,38.7400,95,92,196191
1.8622,0.2639,38.5500,95,92,196195
1.8622,0.2297,38.6200,95,92,196198
1.9110,0.2297,38.5500,95,92,196201
1.9453,0.2297,38.6200,95,92,196205
2.0332,0.2248,38.5800,95,92,196208
2.2043,0.2444,38.4600,95,92,196211
2.3509,0.2346,38.6200,95,92,196215
2.5953,0.2297,38.8700,95,92,196218
2.7957,0.2493,38.6200,95,92,196221
3.0303,0.2248,38.6500,95,92,196225
3.2307,0.2297,38.5800,95,92,196229
3.2405,0.2297,38.5800,95,92,196232
3.1427,0.2248,38.4900,95,92,196235
2.8250,0.2248,38.6200,95,92,196239
2.4976,0.2199,38.6500,95,92,196242
2.2141,0.2297,38.5200,95,92,196245
1.9306,0.2248,38.6500,95,92,196249
1.7595,0.2297,38.4000,95,92,196252
1.5738,0.2248,38.6200,95,92,196255
1.4565,0.2248,38.6500,95,92,196259
1.3881,0.2297,38.5800,95,92,196262
1.3343,0.2248,37.8700,95,92,196265
1.3441,0.2444,38.3300,95,92,196269
1.3148,0.2297,38.5500,95,92,196273
1.3099,0.2248,38.6200,95,92,196276
1.3343,0.2297,38.6200,95,92,196279
1.3539,0.2297,38.7100,95,92,196283
1.4223,0.2395,38.4300,95,92,196286
1.4125,0.2297,38.5200,95,92,196289
1.4223,0.2248,38.5200,95,92,196293
1.4370,0.2297,38.6200,95,92,196296
1.4565,0.2297,38.6500,95,92,196299
1.5249,0.2395,38.4600,95,92,196303
1.5103,0.2297,38.7400,95,92,196306
1.5445,0.2248,38.4900,95,92,196310
1.5445,0.2297,38.6500,95,92,196313
1.5591,0.2248,38.6200,95,92,196317
1.6227,0.2297,38.5500,95,92,196320
1.5885,0.2248,38.2700,95,92,196323
1.6178,0.2542,38.5200,95,92,196327
1.5982,0.2248,38.6500,95,92,196330
1.6080,0.2248,38.6200,95,92,196333
1.6422,0.2346,38.5500,95,92,196337
1.6227,0.2248,38.6200,95,92,196340
1.6813,0.2346,38.4000,95,92,196343
1.6520,0.2297,38.5200,95,92,196347
1.6520,0.2248,38.6200,95,92,196350
1.6862,0.2297,38.5500,95,92,196354
1.6667,0.2248,38.5200,95,92,196358
1.7058,0.2346,38.3600,95,92,196361
1.6764,0.2248,38.6800,95,92,196364
1.6716,0.2199,38.5800,95,92,196367
1.6911,0.2102,38.5800,95,92,196371
1.6862,0.2248,38.7100,95,92,196374
1.7400,0.2786,38.4000,95,92,196377
1.7058,0.2297,38.5500,95,92,196381
1.7107,0.2199,38.5800,95,92,196384
1.7155,0.2248,38.6500,95,92,196387
1.7253,0.2248,38.6800,95,92,196391
1.7644,0.2346,38.4900,95,92,196395
1.7302,0.2297,38.6200,95,92,196398
1.7449,0.2248,38.5500,95,92,196402
1.7400,0.2248,38.6500,95,92,196405
1.7449,0.2248,38.6500,95,92,196408
1.7791,0.2346,38.4900,95,92,196411
1.7840,0.2248,38.4900,95,92,196416
1.7742,0.2248,38.6800,95,92,196419
1.8035,0.2297,38.4000,95,92,196423
1.7840,0.2248,38.5200,95,92,196426
1.7840,0.2248,38.6800,95,92,196429
1.8035,0.2346,38.5800,95,92,196433
1.7889,0.2248,38.6800,95,92,196436
1.8377,0.2297,38.4900,95,92,196440
1.7986,0.2102,38.5500,95,92,196444
1.8035,0.2248,38.6200,95,92,196447
1.8084,0.2248,38.6500,95,92,196450
1.8035,0.2248,38.6200,95,92,196453
1.8573,0.2395,38.4300,95,92,196457
1.8231,0.2297,38.5500,95,92,196460
1.8133,0.2199,38.6200,95,92,196463
1.8182,0.2395,38.7400,95,92,196467
1.8084,0.2248,38.6200,95,92,196470
1.8622,0.2346,38.4300,95,92,196473
1.8328,0.2395,38.5500,95,92,196477
1.8377,0.2248,38.5200,95,92,196481
1.8328,0.2297,38.6200,95,92,196484
1.8524,0.2248,38.6200,95,92,196488
1.8524,0.2346,38.5200,95,92,196491
1.8280,0.2493,38.6200,95,92,196494
1.8817,0.2395,38.4600,95,92,196497
1.8280,0.2248,38.6200,95,92,196501
1.8328,0.2346,38.6200,95,92,196504
1.8426,0.2297,38.5500,95,92,196507
1.8280,0.2297,38.5800,95,92,196511
1.8524,0.2199,38.4900,95,92,196514
1.8280,0.2248,38.5200,95,92,196517
1.8280,0.2346,38.6200,95,92,196521
1.8475,0.2346,38.5200,95,92,196525
1.8182,0.2542,38.5500,95,92,196528
1.8524,0.2297,38.4300,95,92,196532
1.8231,0.2297,38.4600,95,92,196535
1.8426,0.2199,38.6200,95,92,196538
1.8231,0.2297,38.5500,95,92,196542
1.7986,0.2297,38.6500,95,92,196545
1.8377,0.2346,38.3600,95,92,196548
1.8035,0.2248,38.5200,95,92,196551
1.7889,0.2199,38.6200,95,92,196555
1.7889,0.2297,37.8300,95,92,196558
1.7840,0.2444,38.6800,95,92,196561
1.8426,0.2444,38.4900,95,92,196566
1.7986,0.2590,38.5500,95,92,196569
1.7889,0.2199,38.5500,95,92,196572
1.7889,0.2297,38.6500,95,92,196576
1.7889,0.2542,38.6200,95,92,196579
1.8231,0.2297,38.5200,95,92,196582
1.8035,0.2297,38.6200,95,92,196585
1.8084,0.2297,38.4900,95,92,196589
1.7889,0.2297,38.6200,95,92,196592
1.7840,0.2248,38.4900,95,92,196595
1.8133,0.2395,38.4600,95,92,196599
1.7889,0.2297,38.6200,95,92,196602
1.8133,0.2395,38.5500,95,92,196605
1.7840,0.2199,38.6200,95,92,196610
1.7840,0.2248,38.6800,95,92,196613
1.7986,0.2346,38.5800,95,92,196616
1.7791,0.2248,38.6500,95,92,196620
1.8133,0.2297,38.4600,95,92,196623
1.7986,0.2248,38.5500,95,92,196626
1.8084,0.2248,38.6500,95,92,196629
1.8328,0.2346,38.5200,95,92,196633
1.8231,0.2199,38.6200,95,92,196636
1.8768,0.2346,38.3600,95,92,196639
1.8573,0.2199,38.5800,95,92,196643
1.8426,0.2248,38.6200,95,92,196646
1.8622,0.2590,38.5500,95,92,196649
1.8475,0.2248,38.6500,95,92,196654
1.9062,0.2395,38.3300,95,92,196657
1.8671,0.2346,38.4900,95,92,196660
1.8622,0.2199,38.5800,95,92,196664
1.8671,0.2297,38.6200,95,92,196667
1.8719,0.2248,38.8400,95,92,196670
1.9110,0.2346,38.4900,95,92,196674
1.8817,0.2346,38.5500,95,92,196677
1.8866,0.2444,38.5200,95,92,196680
1.8768,0.2297,38.6500,95,92,196683
1.8817,0.2248,38.6800,95,92,196687
1.9110,0.2395,38.4900,95,92,196690
1.8964,0.2297,38.5800,95,92,196694
1.9257,0.2297,37.9900,95,92,196698
1.9062,0.2297,38.6200,95,92,196701
1.9159,0.2346,38.6200,95,92,196704
1.9306,0.2297,38.6200,95,92,196708
1.9599,0.2199,38.6200,95,92,196711
1.9697,0.2297,38.5200,95,92,196714
1.9599,0.2297,38.6200,95,92,196718
1.9648,0.2248,38.6200,95,92,196721
1.9697,0.2542,38.5200,95,92,196724
1.9306,0.2297,38.6500,95,92,196727
1.9453,0.2346,38.3600,95,92,196731
1.9013,0.2346,38.5200,95,92,196734
1.8671,0.2248,38.6800,95,92,196738
1.8671,0.2346,38.5500,95,92,196742
1.8328,0.2248,38.6500,95,92,196745
1.8768,0.2346,38.3300,95,92,196748
1.8231,0.2297,38.5200,95,92,196752
1.8133,0.2199,38.6500,95,92,196755
1.8133,0.2248,38.6200,95,92,196758
1.8035,0.2297,38.6500,95,92,196762
1.8426,0.2444,38.4000,95,92,196765
1.8084,0.2395,38.5500,95,92,196768
1.7742,0.2199,38.5200,95,92,196771
1.7595,0.2248,38.6200,95,92,196775
1.7546,0.2248,38.6500,95,92,196779
1.7840,0.2395,38.5800,95,92,196782
1.7546,0.2248,38.6800,95,92,196786
1.7595,0.2297,38.4900,95,92,196789
1.7302,0.2248,38.6200,95,92,196792
1.7302,0.2248,38.6500,95,92,196796
1.7595,0.2346,38.4600,95,92,196799
1.7351,0.2297,38.6200,95,92,196802
1.7644,0.2346,38.4600,95,92,196806
1.7644,0.2151,38.6200,95,92,196809
1.7449,0.2346,38.6500,95,92,196812
1.7791,0.2395,38.4900,95,92,196816
1.7889,0.2248,38.7100,95,92,196819
1.8524,0.2297,38.5500,95,92,196823
1.8671,0.2102,38.5500,95,92,196826
1.9355,0.2248,38.6500,95,92,196830
2.0430,0.2297,38.6200,95,92,196833
2.1652,0.2297,38.6500,95,92,196836
2.3607,0.2346,38.3600,95,92,196840
2.5122,0.2297,38.6200,95,92,196843
2.7468,0.2102,38.6500,95,92,196846
2.9961,0.2297,38.6800,95,92,196850
3.1574,0.2297,38.6800,95,92,196853
3.3040,0.2444,38.3600,95,92,196856
3.1378,0.2297,38.5800,95,92,196859
2.8641,0.2395,38.6200,95,92,196864
2.5660,0.2297,38.6200,95,92,196867
2.2727,0.2248,38.6500,95,92,196870
2.0772,0.2395,38.4300,95,92,196874
1.8377,0.2297,38.5800,95,92,196877
1.6667,0.2248,38.5200,95,92,196880
1.5298,0.2297,38.6200,95,92,196884
1.4467,0.2248,38.6200,95,92,196887
1.4125,0.2395,38.5500,95,92,196890
1.3685,0.2297,38.6200,95,92,196894
1.3636,0.2297,38.4900,95,92,196897
1.3685,0.2248,38.6800,95,92,196900
1.3636,0.2248,38.6500,95,92,196903
1.3930,0.2297,38.5200,95,92,196908
1.4027,0.2102,38.5800,95,92,196911
1.4516,0.2248,38.4900,95,92,196914
1.4467,0.2297,38.6500,95,92,196918
1.4663,0.2199,38.6500,95,92,196921
1.5054,0.2297,38.6500,95,92,196924
1.5152,0.2102,38.6500,95,92,196928
1.5494,0.2297,38.5800,95,92,196931
1.5494,0.2248,38.5500,95,92,196934
1.5494,0.2248,38.6200,95,92,196938
1.5836,0.2493,38.5500,95,92,196941
1.5836,0.2297,38.6200,95,92,196944
1.6325,0.2346,38.3300,95,92,196947
1.6080,0.2297,38.5500,95,92,196952
1.6227,0.2248,38.6500,95,92,196955
1.6373,0.2248,38.6800,95,92,196958
1.6422,0.2248,38.6500,95,92,196962
1.7058,0.2493,38.4900,95,92,196965
1.6764,0.2346,38.4000,95,92,196968
1.6813,0.2248,38.2700,95,92,196972
1.6911,0.2248,38.6200,95,92,196975
1.7009,0.2248,38.6500,95,92,196978
1.7400,0.2395,38.5500,95,92,196982
1.7400,0.2199,38.5800,95,92,196985
1.7351,0.2102,38.4900,95,92,196988
1.7253,0.2297,38.6200,95,92,196992
1.7400,0.2248,38.6500,95,92,196996
1.7693,0.2297,38.5200,95,92,196999
1.7693,0.2199,38.6200,95,92,197002
1.7791,0.2297,38.5200,95,92,197006
1.7498,0.2199,38.5500,95,92,197009
1.7546,0.2248,38.6200,95,92,197012
1.7742,0.2297,38.4600,95,92,197016
1.7791,0.2297,38.6800,95,92,197019
1.7986,0.2346,38.4600,95,92,197022
1.8035,0.2346,38.3600,95,92,197026
1.7644,0.2248,38.6200,95,92,197029
1.7693,0.2248,38.6200,95,92,197033
1.7791,0.2297,38.6200,95,92,197037
1.7742,0.2346,38.6200,95,92,197040
1.8328,0.2444,38.4300,95,92,197043
1.7937,0.2297,38.6500,95,92,197047
1.7937,0.2590,38.5500,95,92,197050
1.7889,0.2297,38.6200,95,92,197053
1.7840,0.2248,38.5500,95,92,197057
1.8377,0.2346,38.4600,95,92,197060
1.7986,0.2297,38.6500,95,92,197063
1.8133,0.2346,38.4900,95,92,197067
1.7986,0.2297,38.6200,95,92,197070
1.8035,0.2248,38.6500,95,92,197073
1.8377,0.2444,38.5500,95,92,197078
1.8084,0.2297,38.7100,95,92,197081
1.8426,0.2346,38.5200,95,92,197084
1.8280,0.2102,38.6800,95,92,197087
1.8426,0.2248,38.6200,95,92,197091
1.8719,0.2346,38.5200,95,92,197094
1.8719,0.2297,38.6200,95,92,197097
1.9110,0.2297,38.4000,95,92,197101
1.8964,0.2297,38.6200,95,92,197104
1.9110,0.2248,38.7400,95,92,197107
1.9306,0.2395,38.5500,95,92,197111
1.9159,0.2297,38.5500,95,92,197114
1.9599,0.2346,38.3600,95,92,197117
1.9306,0.2297,38.5200,95,92,197122
1.9110,0.2248,38.6200,95,92,197125
1.9159,0.2297,38.5800,95,92,197128
1.9013,0.2248,38.6200,95,92,197132
1.9453,0.2786,38.3300,95,92,197135
1.8964,0.2297,38.0500,95,92,197138
1.8768,0.2199,38.6500,95,92,197141
1.9062,0.2199,38.6200,95,92,197145
1.8671,0.2346,38.6500,95,92,197148
1.9159,0.2346,38.5500,95,92,197151
1.8817,0.2297,38.5800,95,92,197155
1.8768,0.2248,38.4900,95,92,197158
1.8719,0.2248,38.6200,95,92,197161
1.8573,0.2248,38.6500,95,92,197166
1.8719,0.2395,38.6500,95,92,197169
1.8524,0.2297,38.6200,95,92,197172
1.8671,0.2297,38.4900,95,92,197176
1.8377,0.2297,38.6200,95,92,197179
1.8377,0.2248,38.7100,95,92,197182
1.8719,0.2395,38.4900,95,92,197185
1.8475,0.2297,38.6200,95,92,197189
1.8719,0.2346,38.4900,95,92,197192
1.8426,0.2102,38.5500,95,92,197195
1.8182,0.2346,38.6200,95,92,197199
1.8133,0.2199,38.4900,95,92,197202
1.7840,0.2248,38.6200,95,92,197206
1.8035,0.2297,38.4000,95,92,197210
1.7644,0.2297,38.6500,95,92,197213
1.7644,0.2346,38.6500,95,92,197216
1.7986,0.2297,38.6200,95,92,197219
1.7986,0.2248,38.7100,95,92,197223
1.8524,0.2444,38.3600,95,92,197226
1.8035,0.2248,38.1500,95,92,197229
1.8035,0.2248,38.6500,95,92,197233
1.8084,0.2346,38.5800,95,92,197236
1.8133,0.2248,38.5800,95,92,197239
1.8768,0.2395,38.4000,95,92,197243
1.8524,0.2346,38.5200,95,92,197246
1.8377,0.2199,38.5500,95,92,197250
1.8768,0.2297,38.6200,95,92,197254
1.8426,0.2248,38.6800,95,92,197257
1.8719,0.2444,38.4300,95,92,197260
1.8524,0.2346,38.5800,95,92,197263
1.8524,0.2297,38.5800,95,92,197267
1.8377,0.2297,38.6500,95,92,197270
1.8475,0.2248,38.6500,95,92,197273
1.8622,0.2346,38.5200,95,92,197277
1.8524,0.2297,38.6500,95,92,197280
1.8671,0.2346,38.5500,95,92,197283
1.8377,0.2297,38.6500,95,92,197287
1.8426,0.2248,38.6200,95,92,197291
1.8622,0.2346,38.5200,95,92,197294
1.8573,0.2102,38.6200,95,92,197298
1.8866,0.2297,38.4600,95,92,197301
1.8915,0.2297,38.6500,95,92,197304
1.8817,0.2248,38.6200,95,92,197307
1.9110,0.2395,38.5200,95,92,197311
1.9013,0.2297,38.6500,95,92,197314
1.9550,0.2346,38.4000,95,92,197317
1.9306,0.2297,38.5200,95,92,197321
1.9208,0.2199,38.6800,95,92,197324
1.9306,0.2297,38.7400,95,92,197327
1.9208,0.2297,38.6500,95,92,197331
1.9844,0.2346,38.3600,95,92,197335
1.9648,0.2395,38.5200,95,92,197338
1.9648,0.2248,38.5800,95,92,197342
1.9648,0.2297,38.6800,95,92,197345
1.9453,0.2248,38.6200,95,92,197348
1.9795,0.2395,38.4600,95,92,197351
1.9257,0.2297,38.5800,95,92,197355
1.9062,0.2297,38.5200,95,92,197358
1.8817,0.2297,38.6500,95,92,197361
1.8719,0.2199,38.6200,95,92,197365
1.8915,0.2297,38.5800,95,92,197368
1.8622,0.2297,38.5800,95,92,197371
1.8671,0.2199,38.4900,95,92,197376
1.8328,0.2297,38.7400,95,92,197379
1.8328,0.2297,38.6500,95,92,197382
1.8573,0.2346,38.4900,95,92,197386
1.8377,0.2297,38.6500,95,92,197389
1.8573,0.2248,38.5200,95,92,197392
1.8084,0.2248,38.5800,95,92,197395
1.8035,0.2248,38.6500,95,92,197399
1.8231,0.2346,38.4900,95,92,197402
1.8084,0.2297,38.7100,95,92,197405
1.8377,0.2590,38.4000,95,92,197409
1.8182,0.2297,38.5500,95,92,197412
1.8182,0.2248,38.7100,95,92,197415
1.8524,0.2395,38.5500,95,92,197420
1.8084,0.2297,38.6500,95,92,197423
1.8475,0.2346,38.4000,95,92,197426
1.7889,0.2248,38.5800,95,92,197430
1.7937,0.2248,38.6500,95,92,197433
1.7937,0.2346,38.6800,95,92,197436
1.7889,0.2248,38.6500,95,92,197439
1.8573,0.2493,38.3600,95,92,197443
1.8622,0.2346,38.5500,95,92,197446
1.8817,0.2248,38.7700,95,92,197449
1.9453,0.2297,38.6200,95,92,197453
2.0283,0.2248,38.5800,95,92,197456
2.2043,0.2395,38.4600,95,92,197459
2.3509,0.2297,38.5800,95,92,197464
2.5709,0.2297,38.6200,95,92,197467
2.7859,0.2297,38.6200,95,92,197470
3.0254,0.2248,38.6200,95,92,197474
3.2502,0.2346,38.5200,95,92,197477
3.2698,0.2297,38.5800,95,92,197480
3.1965,0.2346,38.4900,95,92,197483
2.8983,0.2248,38.6200,95,92,197487
2.5855,0.2297,38.6200,95,92,197490
2.3021,0.2297,38.5500,95,92,197493
2.0235,0.2297,38.6500,95,92,197497
1.8328,0.2346,38.4900,95,92,197500
1.6373,0.2297,38.6500,95,92,197504
1.5249,0.2248,38.6500,95,92,197508
1.4761,0.2346,38.4900,95,92,197511
1.4125,0.2248,38.6200,95,92,197514
1.4223,0.2346,38.4000,95,92,197518
1.3930,0.2346,38.5200,95,92,197521
1.3930,0.2297,38.6500,95,92,197524
1.4174,0.2346,38.6200,95,92,197527
1.4272,0.2346,38.6500,95,92,197531
1.5152,0.2395,38.3300,95,92,197534
1.4761,0.2297,38.5200,95,92,197537
1.5054,0.2248,38.6200,95,92,197541
1.5005,0.2297,38.6200,95,92,197544
1.5054,0.2199,38.6200,95,92,197548
1.5640,0.2444,38.4300,95,92,197552
1.5396,0.2297,38.5800,95,92,197555
1.5591,0.2248,38.5200,95,92,197558
1.5738,0.2199,38.6500,95,92,197562
1.5934,0.2248,38.6200,95,92,197565
1.6422,0.2395,38.5500,95,92,197568
1.6276,0.2297,38.6200,95,92,197571
1.6471,0.2248,38.4600,95,92,197575
1.6276,0.2297,38.6200,95,92,197578
1.6325,0.2493,38.6500,95,92,197581
1.6716,0.2395,38.4900,95,92,197585
1.6569,0.2248,38.6200,95,92,197588
1.6911,0.2297,38.5200,95,92,197592
1.6618,0.2248,38.9600,95,92,197596
1.6667,0.2248,38.6800,95,92,197599
1.6862,0.2297,38.4900,95,92,197602
1.6862,0.2297,38.6200,95,92,197606
1.7107,0.2346,38.4300,95,92,197609
1.6764,0.2297,38.9000,95,92,197612
1.6569,0.2248,38.6500,95,92,197615
1.6764,0.2395,38.5800,95,92,197619
1.6667,0.2248,38.6200,95,92,197622
1.7107,0.2639,38.3600,95,92,197625
1.6716,0.2248,38.6800,95,92,197629
1.6716,0.2395,38.6200,95,92,197633
1.6813,0.2297,38.6200,95,92,197636
1.6911,0.2297,38.6200,95,92,197640
1.6862,0.2248,38.6200,95,92,197643
1.7204,0.2346,38.4600,95,92,197647
1.7009,0.2297,38.5800,95,92,197650
1.7302,0.2542,38.4900,95,92,197653
1.7204,0.2248,38.6500,95,92,197657
1.7302,0.2248,38.5200,95,92,197660
1.7937,0.2346,38.5200,95,92,197663
1.7644,0.2297,38.6200,95,92,197667
1.8133,0.2297,38.4900,95,92,197670
1.8133,0.2102,38.6200,95,92,197673
1.7889,0.2248,38.7100,95,92,197677
1.7937,0.2346,38.4900,95,92,197681
1.7644,0.2297,38.6200,95,92,197684
1.7986,0.2297,38.6200,95,92,197687
1.7693,0.2297,38.6200,95,92,197691
1.7693,0.2248,38.8400,95,92,197694
1.7937,0.2346,38.5800,95,92,197697
1.7791,0.2297,38.8100,95,92,197701
1.8231,0.2346,38.3300,95,92,197704
1.7937,0.2297,38.5500,95,92,197707
1.7937,0.2297,38.6200,95,92,197711
1.8231,0.2297,38.6200,95,92,197714
1.8377,0.2248,38.6200,95,92,197718
1.9208,0.2444,38.4600,95,92,197721
1.8866,0.2346,38.5200,95,92,197725
1.8817,0.2297,38.5500,95,92,197728
1.8915,0.2297,38.6200,95,92,197731
1.8915,0.2248,38.5800,95,92,197735
1.9257,0.2346,38.4900,95,92,197738
1.8719,0.2297,38.8100,95,92,197741
1.8817,0.2346,38.4900,95,92,197745
1.8622,0.2297,38.6500,95,92,197748
1.8817,0.2297,38.6200,95,92,197751
1.9159,0.2297,38.5800,95,92,197755
1.9062,0.2297,38.7100,95,92,197758
1.9257,0.2444,38.5200,95,92,197762
1.8915,0.2297,38.6200,95,92,197766
1.8964,0.2199,38.6200,95,92,197769
1.9159,0.2297,38.5200,95,92,197772
1.8719,0.2297,38.5800,95,92,197775
1.9013,0.2346,38.4300,95,92,197779
1.8328,0.2297,38.5500,95,92,197782
1.8133,0.2493,38.6500,95,92,197785
1.8426,0.2346,38.4600,95,92,197789
1.8328,0.2346,38.6500,95,92,197792
1.9208,0.2346,38.3600,95,92,197795
1.8524,0.2248,38.5200,95,92,197799
1.8426,0.2248,38.6200,95,92,197803
1.8426,0.2346,38.6200,95,92,197806
1.8426,0.2248,38.6200,95,92,197810
1.9355,0.2542,38.3600,95,92,197813
1.8573,0.2297,38.5500,95,92,197816
1.8573,0.2199,38.5500,95,92,197819
1.7937,0.2297,38.6200,95,92,197823
1.8084,0.2248,38.6200,95,92,197826
1.8133,0.2395,38.4900,95,92,197829
1.7840,0.2297,38.6200,95,92,197833
1.7937,0.2199,38.5200,95,92,197836
1.7742,0.2297,38.5800,95,92,197839
1.7693,0.2346,38.6200,95,92,197843
1.7986,0.2346,38.4300,95,92,197847
1.7742,0.2248,38.6200,95,92,197850
1.7986,0.2346,38.4900,95,92,197854
1.7693,0.2248,38.6200,95,92,197857
1.7791,0.2297,38.6200,95,92,197860
1.7986,0.2297,38.4600,95,92,197864
1.7742,0.2297,38.6200,95,92,197867
1.7644,0.2297,38.4600,95,92,197870
1.7351,0.2346,38.6200,95,92,197873
1.7498,0.2248,38.6500,95,92,197877
1.7840,0.2346,38.5200,95,92,197880
1.7840,0.2248,38.6200,95,92,197883
1.8280,0.2346,38.4300,95,92,197888
1.7937,0.2346,38.5800,95,92,197891
1.8084,0.2248,38.6500,95,92,197894
1.8280,0.2297,38.5800,95,92,197898
1.8084,0.2590,38.6200,95,92,197901
1.8622,0.2346,38.4300,95,92,197904
1.8426,0.2297,38.6200,95,92,197907
1.8426,0.2199,38.5800,95,92,197911
1.8475,0.2297,38.6200,95,92,197914
1.8426,0.2248,38.6500,95,92,197917
1.8915,0.2493,38.4300,95,92,197921
1.8573,0.2297,38.5500,95,92,197924
1.8573,0.2248,38.5200,95,92,197927
1.8671,0.2297,38.6500,95,92,197932
1.8719,0.2297,38.6500,95,92,197935
1.9062,0.2444,38.4900,95,92,197938
1.8817,0.2297,38.6200,95,92,197942
1.8866,0.2346,38.5800,95,92,197945
1.8622,0.2346,38.6200,95,92,197948
1.8817,0.2248,38.5500,95,92,197951
1.9208,0.2248,38.5500,95,92,197955
1.9453,0.2102,38.6200,95,92,197958
1.9795,0.2346,38.4900,95,92,197961
1.9599,0.2346,38.6200,95,92,197965
1.9501,0.2248,38.6500,95,92,197968
1.9501,0.2297,38.4900,95,92,197971
1.8964,0.2297,38.6500,95,92,197976
1.8964,0.2639,38.4000,95,92,197979
1.8426,0.2346,38.5200,95,92,197982
1.8231,0.2248,38.6200,95,92,197986
1.8231,0.2297,38.5200,95,92,197989
1.7986,0.2248,38.5500,95,92,197992
1.8328,0.2737,38.3600,95,92,197996
1.7840,0.2297,38.4900,95,92,197999
1.7986,0.2199,38.6500,95,92,198002
1.7595,0.2297,38.6200,95,92,198005
1.7400,0.2248,38.7100,95,92,198009
1.7791,0.2395,38.3600,95,92,198012
1.7400,0.2297,38.7700,95,92,198016
1.7351,0.2248,38.5500,95,92,198020
1.7400,0.2297,38.6200,95,92,198023
1.7400,0.2297,38.6800,95,92,198026
1.7937,0.2395,38.4900,95,92,198030
1.7644,0.2297,38.5800,95,92,198033
1.7791,0.2297,38.5200,95,92,198036
1.7644,0.2297,38.6200,95,92,198040
1.7742,0.2248,38.6500,95,92,198043
1.7986,0.2395,38.4900,95,92,198046
1.7693,0.2297,38.7100,95,92,198049
1.8133,0.2444,38.5500,95,92,198053
1.7644,0.2248,38.6200,95,92,198056
1.7889,0.2248,38.6500,95,92,198060
1.8231,0.2346,38.4900,95,92,198064
1.8426,0.2297,38.5200,95,92,198067
1.9110,0.2248,38.4300,95,92,198070
1.9599,0.2248,38.5800,95,92,198074
2.0626,0.2395,38.5800,95,92,198077
2.2336,0.2346,38.5500,95,92,198080
2.3998,0.2346,38.6200,95,92,198084
2.6931,0.2297,38.3600,95,92,198087
2.8935,0.2248,38.6200,95,92,198090
3.1281,0.2248,38.7100,95,92,198093
3.2747,0.2395,38.6200,95,92,198097
3.2307,0.2297,38.6200,95,92,198100
3.1085,0.2493,38.3600,95,92,198104
2.7370,0.2297,38.5500,95,92,198108
2.3851,0.2199,38.5800,95,92,198111
2.0919,0.2346,38.6200,95,92,198114
1.8280,0.2297,38.6200,95,92,198118
1.6764,0.2395,38.3600,95,92,198121
1.4907,0.2346,38.5800,95,92,198124
1.3832,0.2248,38.5200,95,92,198128
1.3148,0.2297,38.6500,95,92,198131
1.2854,0.2297,38.6800,95,92,198134
1.2903,0.2346,38.5500,95,92,198137
1.2757,0.2590,38.6200,95,92,198141
1.3001,0.2346,38.4900,95,92,198145
1.3196,0.2297,38.6800,95,92,198148
1.3539,0.2248,38.6200,95,92,198152
1.3832,0.2297,38.6500,95,92,198155
1.3930,0.2395,38.6200,95,92,198158
1.4467,0.2346,38.5500,95,92,198162
1.4321,0.2493,38.6200,95,92,198165
1.4663,0.2297,38.6200,95,92,198168
1.4956,0.2346,38.5200,95,92,198172
1.4907,0.2297,38.6800,95,92,198175
1.5347,0.2346,38.5200,95,92,198178
1.5298,0.2346,38.5200,95,92,198182
1.5347,0.2248,38.6200,95,92,198185
1.5591,0.2395,38.5500,95,92,198189
1.5494,0.2248,38.6200,95,92,198192
1.5982,0.2346,38.3300,95,92,198196
1.5689,0.2297,38.5500,95,92,198199
1.5787,0.2248,38.6800,95,92,198202
1.5885,0.2297,38.6800,95,92,198206
1.5934,0.2248,38.6800,95,92,198209
1.6569,0.2444,38.3600,95,92,198212
1.6325,0.2297,38.5500,95,92,198216
1.6276,0.2248,38.5500,95,92,198219
1.6276,0.2248,38.6200,95,92,198222
1.6325,0.2248,38.7100,95,92,198226
1.6716,0.2248,38.5500,95,92,198230
1.6569,0.2297,38.6200,95,92,198233
1.6716,0.2297,38.5200,95,92,198236
1.6569,0.2297,38.6500,95,92,198240
1.6569,0.2248,38.6200,95,92,198243
1.6911,0.2395,38.4900,95,92,198246
1.7107,0.2395,38.5500,95,92,198250
1.6960,0.2297,38.6800,95,92,198253
1.7302,0.2639,38.5500,95,92,198257
1.7058,0.2346,38.5500,95,92,198260
1.7058,0.2248,38.8100,95,92,198263
1.7302,0.2395,38.6200,95,92,198267
1.7107,0.2248,38.6500,95,92,198270
1.7644,0.2395,38.4300,95,92,198274
1.7302,0.2297,38.5500,95,92,198278
1.7253,0.2199,38.6500,95,92,198281
1.7302,0.2199,38.6500,95,92,198284
1.7302,0.2248,38.6500,95,92,198288
1.7791,0.2493,38.4900,95,92,198291
1.7546,0.2297,38.5800,95,92,198294
1.7595,0.2248,38.5200,95,92,198297
1.7693,0.2297,38.6200,95,92,198301
1.7791,0.2248,38.4900,95,92,198304
1.8182,0.2639,38.4600,95,92,198307
1.7986,0.2297,38.6200,95,92,198311
1.8182,0.2297,38.4900,95,92,198315
1.7986,0.2102,38.6200,95,92,198318
1.8084,0.2297,38.7100,95,92,198322
1.8328,0.2590,38.5200,95,92,198325
1.8182,0.2199,38.6200,95,92,198328
1.8475,0.2346,38.4900,95,92,198332
1.8231,0.2248,38.6200,95,92,198335
1.8280,0.2248,38.6500,95,92,198338
1.8524,0.2297,38.7400,95,92,198341
1.8426,0.2346,38.6800,95,92,198345
1.8866,0.2346,38.4300,95,92,198348
1.8524,0.2248,38.6200,95,92,198351
1.8573,0.2248,38.6200,95,92,198355
1.8866,0.2346,38.6200,95,92,198359
1.8622,0.2297,38.6200,95,92,198362
1.9062,0.2395,38.3300,95,92,198366
1.8719,0.2395,38.5200,95,92,198369
1.8622,0.2199,38.6500,95,92,198372
1.8622,0.2542,38.5800,95,92,198376
1.8866,0.2248,38.6200,95,92,198379
1.9062,0.2493,38.4600,95,92,198382
1.8573,0.2395,38.5200,95,92,198385
1.8524,0.2248,38.5500,95,92,198389
1.8524,0.2346,38.5200,95,92,198392
1.8426,0.2199,38.6500,95,92,198395
1.8719,0.2346,38.4900,95,92,198400
1.8328,0.2346,38.5800,95,92,198403
1.8328,0.2248,38.5500,95,92,198406
1.8084,0.2346,38.6200,95,92,198410
1.7986,0.2248,38.6200,95,92,198413
1.8231,0.2346,38.5800,95,92,198416
1.8084,0.2297,38.8400,95,92,198420
1.8280,0.2297,38.4600,95,92,198423
1.7986,0.2297,38.6500,95,92,198426
1.7986,0.2297,38.5500,95,92,198429
1.8475,0.2346,38.4900,95,92,198433
1.8084,0.2297,38.6200,95,92,198436
1.8280,0.2151,38.4300,95,92,198439
1.8084,0.2297,38.5500,95,92,198444
1.7986,0.2248,38.6500,95,92,198447
1.8133,0.2346,38.4900,95,92,198450
1.7889,0.2297,38.6200,95,92,198454
1.8231,0.2346,38.4000,95,92,198457
1.7937,0.2346,38.5800,95,92,198460
1.7840,0.2248,38.6500,95,92,198464
1.7986,0.2297,38.5800,95,92,198467
1.7791,0.2346,38.6200,95,92,198470
1.8280,0.2395,38.3300,95,92,198473
1.7840,0.2248,38.5500,95,92,198477
1.7840,0.2248,38.6200,95,92,198480
1.7889,0.2297,38.5800,95,92,198483
1.7791,0.2297,38.6200,95,92,198488
1.8377,0.2493,38.4600,95,92,198491
1.8084,0.2395,38.5500,95,92,198494
1.8182,0.2248,38.5500,95,92,198498
1.8182,0.2346,38.6800,95,92,198501
1.8280,0.2248,38.6500,95,92,198504
1.8671,0.2395,38.4600,95,92,198508
1.8426,0.2346,38.5800,95,92,198511
1.8573,0.2346,38.5200,95,92,198514
1.8377,0.2297,38.5500,95,92,198517
1.8426,0.2346,38.6500,95,92,198521
1.8671,0.2297,38.5200,95,92,198524
1.8475,0.2151,38.6200,95,92,198528
1.8671,0.2346,38.5200,95,92,198532
1.8426,0.2248,38.5800,95,92,198535
1.8524,0.2248,38.6800,95,92,198538
1.8622,0.2297,38.5200,95,92,198542
1.8475,0.2297,38.6200,95,92,198545
1.8719,0.2346,38.4300,95,92,198548
1.8426,0.2297,38.8400,95,92,198552
1.8817,0.2297,38.6200,95,92,198555
1.8719,0.2346,38.6200,95,92,198558
1.8866,0.2297,38.6200,95,92,198561
1.9159,0.2346,38.3600,95,92,198565
1.8915,0.2444,38.5200,95,92,198568
1.9013,0.2199,38.6200,95,92,198572
1.9013,0.2297,38.5800,95,92,198576
1.9062,0.2346,38.6200,95,92,198579
1.9746,0.2444,38.3600,95,92,198582
1.9453,0.2346,38.5200,95,92,198586
1.9355,0.2248,38.5800,95,92,198589
1.9306,0.2297,38.5200,95,92,198592
1.9062,0.2248,38.6800,95,92,198596
1.9257,0.2395,38.4900,95,92,198599
1.8719,0.2346,38.6200,95,92,198602
1.8426,0.2199,38.5200,95,92,198605
1.8084,0.2297,38.6800,95,92,198609
1.7840,0.2297,38.6800,95,92,198612
1.7986,0.2297,38.5800,95,92,198616
1.7742,0.2297,38.6200,95,92,198620
1.7986,0.2346,38.4900,95,92,198623
1.7546,0.2297,38.6200,95,92,198626
1.7498,0.2199,38.6500,95,92,198630
1.7595,0.2346,38.4900,95,92,198633
1.7204,0.2199,38.6200,95,92,198636
1.7351,0.2346,38.4600,95,92,198640
1.7107,0.2248,38.5200,95,92,198643
1.7253,0.2248,38.6200,95,92,198646
1.7204,0.2395,38.6800,95,92,198650
1.7009,0.2297,38.6200,95,92,198653
1.7498,0.2346,38.3600,95,92,198657
1.7302,0.2248,38.5200,95,92,198660
1.7302,0.2199,38.6200,95,92,198664
1.7400,0.2346,38.7100,95,92,198667
1.7302,0.2297,38.6500,95,92,198670
1.7791,0.2346,38.3300,95,92,198674
1.7351,0.2297,38.5500,95,92,198677
1.7400,0.2248,38.6200,95,92,198680
1.7498,0.2297,38.6200,95,92,198684
1.7595,0.2199,38.6200,95,92,198687
1.8426,0.2444,38.4900,95,92,198690
1.8475,0.2297,38.4600,95,92,198694
1.8964,0.2248,38.5500,95,92,198697
1.9697,0.2297,38.6800,95,92,198701
2.0821,0.2199,38.6200,95,92,198704
2.2776,0.2444,38.4300,95,92,198708
2.4389,0.2297,38.6200,95,92,198711
2.6882,0.2444,38.5500,95,92,198714
2.9032,0.2297,38.6200,95,92,198718
3.1085,0.2297,38.6500,95,92,198721
3.2502,0.2493,38.5500,95,92,198724
3.1720,0.2297,38.6200,95,92,198728
2.9863,0.2346,38.5200,95,92,198731
2.6442,0.2297,38.6800,95,92,198734
2.3705,0.2102,38.6500,95,92,198737
2.1017,0.2346,38.5200,95,92,198742
1.8719,0.2297,38.5800,95,92,198745
1.7155,0.2542,38.4300,95,92,198748
1.5640,0.2297,38.7400,95,92,198752
1.4712,0.2297,38.6200,95,92,198755
1.4272,0.2346,38.5800,95,92,198758
1.3832,0.2297,38.6200,95,92,198762
1.3881,0.2346,38.3600,95,92,198765
1.3587,0.2297,38.5200,95,92,198768
1.3539,0.2248,38.6800,95,92,198772
1.3783,0.2297,38.6200,95,92,198775
1.3881,0.2542,38.6500,95,92,198778
1.4467,0.2444,38.3600,95,92,198781
1.4370,0.2346,38.5200,95,92,198786
1.4370,0.2102,38.5800,95,92,198789
1.4614,0.2297,38.6200,95,92,198792
1.4809,0.2346,38.6200,95,92,198796
1.5640,0.2395,38.4900,95,92,198799
1.5298,0.2297,38.5800,95,92,198802
1.5494,0.2297,38.4900,95,92,198806
1.5445,0.2297,38.6200,95,92,198809
1.5591,0.2248,38.5800,95,92,198812
1.6031,0.2346,38.5500,95,92,198816
1.5787,0.2297,38.6200,95,92,198819
1.6178,0.2297,38.4600,95,92,198822
1.6031,0.2297,38.6200,95,92,198825
1.6227,0.2248,38.6500,95,92,198830
1.6569,0.2444,38.4900,95,92,198833
1.6422,0.2297,38.6200,95,92,198836
1.6716,0.2346,38.5500,95,92,198840
1.6618,0.2248,38.5500,95,92,198843
1.6667,0.2297,38.8400,95,92,198846
1.6911,0.2297,38.5200,95,92,198850
1.6862,0.2248,38.6200,95,92,198853
1.7253,0.2248,38.4000,95,92,198856
1.7449,0.2542,38.4000,95,92,198860
1.7058,0.2297,38.5500,95,92,198863
1.7155,0.2248,38.6500,95,92,198867
1.7253,0.2297,38.6200,95,92,198871
1.7253,0.2297,38.6800,95,92,198874
1.7693,0.2444,38.4900,95,92,198878
1.7498,0.2297,38.5800,95,92,198881
1.7595,0.2297,38.5200,95,92,198884
1.7546,0.2297,38.6200,95,92,198887
1.7546,0.2248,38.6800,95,92,198891
1.7840,0.2395,38.4900,95,92,198894
1.7546,0.2297,38.5800,95,92,198897
1.7742,0.2297,38.5200,95,92,198901
1.7546,0.2590,38.6500,95,92,198904
1.7644,0.2297,38.6200,95,92,198907
1.7791,0.2248,38.5200,95,92,198912
1.7595,0.2102,38.6200,95,92,198915
1.7840,0.2297,38.4900,95,92,198918
1.7644,0.2248,38.5800,95,92,198921
1.7742,0.2248,38.6800,95,92,198925
1.7889,0.2297,38.5500,95,92,198928
1.7742,0.2737,38.6500,95,92,198931
1.8084,0.2346,38.4300,95,92,198935
1.7742,0.2248,38.5800,95,92,198938
1.7840,0.2199,38.6500,95,92,198941
1.7986,0.2297,38.5800,95,92,198945
1.7937,0.2346,38.6200,95,92,198948
1.8475,0.2395,38.3300,95,92,198951
1.8182,0.2297,38.5200,95,92,198956
1.8133,0.2395,38.6200,95,92,198959
1.8328,0.2297,38.5200,95,92,198962
1.8328,0.2297,38.6800,95,92,198966
1.8964,0.2444,38.4300,95,92,198969
1.8719,0.2346,38.5500,95,92,198972
1.8671,0.2248,38.5500,95,92,198975
1.8622,0.2297,38.6500,95,92,198979
1.8671,0.2199,38.6500,95,92,198982
1.8964,0.2297,38.4900,95,92,198985
1.8719,0.2297,38.5800,95,92,198989
1.8866,0.2346,38.5500,95,92,198992
1.8622,0.2297,38.6200,95,92,198995
1.8622,0.2639,38.6500,95,92,199000
1.8817,0.2346,38.5500,95,92,199003
1.8671,0.2297,38.5800,95,92,199006
1.8866,0.2444,38.4900,95,92,199010
1.8524,0.2297,38.4900,95,92,199013
1.8524,0.2542,38.6500,95,92,199016
1.8817,0.2346,38.5200,95,92,199019
1.8573,0.2248,38.6200,95,92,199023
1.8817,0.2346,38.4300,95,92,199026
1.8671,0.2297,38.4900,95,92,199029
1.8915,0.2297,38.6200,95,92,199033
1.8866,0.2346,38.4600,95,92,199036
1.8622,0.2199,38.6200,95,92,199040
1.9159,0.2346,38.3600,95,92,199044
1.8719,0.2346,38.5200,95,92,199047
1.8622,0.2102,38.6500,95,92,199050
1.8622,0.2297,38.0500,95,92,199054
1.8524,0.2297,38.6200,95,92,199057
1.8964,0.2444,38.3600,95,92,199060
1.8622,0.2297,38.5200,95,92,199063
1.8475,0.2199,38.5500,95,92,199067
1.8426,0.2297,38.6200,95,92,199070
1.8328,0.2297,38.6500,95,92,199073
1.8915,0.2444,38.4900,95,92,199077
1.8426,0.2297,38.5500,95,92,199080
1.8377,0.2297,38.5500,95,92,199084
1.8133,0.2297,38.6200,95,92,199088
1.8035,0.2248,38.6200,95,92,199091
1.8231,0.2444,38.4600,95,92,199094
1.7937,0.2297,38.4900,95,92,199098
1.8084,0.2688,38.4900,95,92,199101
1.7840,0.2297,38.6200,95,92,199104
1.7937,0.2297,38.6500,95,92,199107
1.8084,0.2346,38.5200,95,92,199111
1.7986,0.2297,38.6500,95,92,199114
1.8280,0.2346,38.4900,95,92,199117
1.8035,0.2786,38.6200,95,92,199121
1.8133,0.2102,38.6200,95,92,199124
1.8475,0.2297,38.7100,95,92,199128
1.8377,0.2444,38.6200,95,92,199132
1.8817,0.2297,38.4300,95,92,199135
1.8475,0.2248,38.5800,95,92,199138
1.8671,0.2248,38.6800,95,92,199142
1.8768,0.2346,38.5500,95,92,199145
1.8573,0.2297,38.6200,95,92,199148
1.9110,0.2395,38.3000,95,92,199151
1.8817,0.2346,38.5200,95,92,199155
1.8671,0.2297,38.6500,95,92,199158
1.8719,0.2297,38.5800,95,92,199161
1.8622,0.2297,38.6500,95,92,199165
1.9208,0.2297,38.4300,95,92,199169
1.8817,0.2444,38.5200,95,92,199172
1.8768,0.2102,38.5500,95,92,199176
1.8719,0.2297,38.6800,95,92,199179
1.8719,0.2346,38.6200,95,92,199182
1.9159,0.2297,38.5500,95,92,199186
1.9013,0.2297,38.5200,95,92,199189
1.9306,0.2199,38.4900,95,92,199192
1.9208,0.2297,38.6200,95,92,199195
1.9355,0.2199,38.6500,95,92,199199
1.9648,0.2346,38.5800,95,92,199202
1.9648,0.2297,38.6800,95,92,199205
1.9941,0.2395,38.5500,95,92,199209
1.9501,0.2297,38.5800,95,92,199213
1.9355,0.2737,38.6800,95,92,199216
1.9404,0.2297,38.5200,95,92,199220
1.8866,0.2297,38.6500,95,92,199223
1.8866,0.2346,38.4300,95,92,199226
1.8475,0.2297,38.5500,95,92,199230
1.8182,0.2493,38.6500,95,92,199233
1.8280,0.2395,38.5200,95,92,199236
1.7937,0.2297,38.7400,95,92,199239
1.8377,0.2590,38.4000,95,92,199243
1.8084,0.2248,38.5500,95,92,199246
1.7986,0.2297,38.6800,95,92,199249
1.7986,0.2297,38.6200,95,92,199254
1.7791,0.2297,38.6500,95,92,199257
1.8182,0.2444,38.4300,95,92,199260
1.7742,0.2297,38.5200,95,92,199264
1.7546,0.2248,38.6200,95,92,199267
1.7595,0.2542,38.6800,95,92,199270
1.7498,0.2297,38.6500,95,92,199274
1.7889,0.2395,38.4900,95,92,199277
1.7595,0.2346,38.5800,95,92,199280
1.7595,0.2297,38.4900,95,92,199283
1.7498,0.2248,38.6200,95,92,199287
1.7498,0.2297,38.6200,95,92,199290
1.7840,0.2444,38.4600,95,92,199293
1.7498,0.2297,38.6200,95,92,199298
1.7644,0.2297,38.4300,95,92,199301
1.7449,0.2248,38.6500,95,92,199304
1.7595,0.2248,38.6500,95,92,199308
1.8035,0.2346,38.5200,95,92,199311
1.8377,0.2297,38.6200,95,92,199314
1.9159,0.2297,38.4900,95,92,199318
1.9697,0.2199,38.5800,95,92,199321
2.0968,0.2248,38.6200,95,92,199324
2.2630,0.2297,38.5200,95,92,199327
2.4340,0.2297,38.5200,95,92,199331
2.6979,0.2297,38.3600,95,92,199334
2.8935,0.2297,38.6200,95,92,199337
3.1036,0.2199,38.6200,95,92,199342
3.2405,0.2346,38.5500,95,92,199345
3.1623,0.2248,38.6500,95,92,199348
3.0303,0.2346,38.3600,95,92,199352
2.6931,0.2346,38.5500,95,92,199355
2.3803,0.2248,38.5800,95,92,199358
2.1359,0.2346,38.3600,95,92,199362
1.9208,0.2248,38.6200,95,92,199365
1.8084,0.2835,38.0800,95,92,199368
1.6373,0.2346,38.5500,95,92,199371
1.5249,0.2248,38.6200,95,92,199375
1.4614,0.2297,38.6200,95,92,199378
1.4174,0.2102,38.6200,95,92,199382
1.4321,0.2395,38.4900,95,92,199386
1.3978,0.2297,38.6200,95,92,199389
1.4076,0.2297,38.5200,95,92,199392
1.4027,0.2297,38.5800,95,92,199396
1.4418,0.2199,38.6200,95,92,199399
1.4614,0.2297,38.5800,95,92,199402
1.4614,0.2297,38.5500,95,92,199405
1.5005,0.2346,38.4900,95,92,199409
1.5005,0.2297,38.6500,95,92,199412
1.5200,0.2542,38.6200,95,92,199415
1.5543,0.2395,38.5500,95,92,199419
1.5543,0.2297,38.6200,95,92,199422
1.5934,0.2297,38.4600,95,92,199426
1.5885,0.2297,38.5200,95,92,199430
1.5982,0.2248,38.6500,95,92,199433
1.6178,0.2395,38.5200,95,92,199436
1.6031,0.2199,38.6500,95,92,199440
1.6520,0.2297,38.4000,95,92,199443
1.6276,0.2346,38.5500,95,92,199446
1.6227,0.2248,38.6500,95,92,199450
1.6520,0.2297,38.7100,95,92,199453
1.6471,0.2346,38.6200,95,92,199456
1.7009,0.2297,38.3300,95,92,199459
1.6667,0.2297,38.4900,95,92,199463
1.6716,0.2199,38.6200,95,92,199467
1.6813,0.2297,38.6200,94,92,199470
1.6813,0.2297,38.6500,94,92,199474
1.6862,0.2248,38.6500,94,92,199477
1.7204,0.2346,38.4900,94,92,199481
1.7009,0.2297,38.6500,94,92,199484
1.7253,0.2248,38.4900,94,92,199487
1.6960,0.2248,38.5800,94,92,199491
1.7058,0.2248,38.6500,94,92,199494
1.7302,0.2346,38.4900,94,92,199497
1.7253,0.2297,38.6500,94,92,199501
1.7644,0.2297,38.4900,94,92,199504
1.7546,0.2297,38.5800,94,92,199507
1.7595,0.2248,38.7700,94,92,199511
1.7693,0.2395,38.5500,94,92,199515
1.7400,0.2297,38.6200,94,92,199518
1.7644,0.2346,37.7400,94,92,199521
1.7204,0.2248,38.5800,94,92,199525
1.7351,0.2297,38.6500,94,92,199528
1.7400,0.2346,38.6200,94,92,199531
1.7351,0.2297,38.6500,94,92,199535
1.7889,0.2444,38.3300,94,92,199538
1.7595,0.2346,38.5500,94,92,199541
1.7595,0.2248,38.5800,94,92,199545
1.8035,0.2346,38.6200,94,92,199548
1.7791,0.2297,38.6200,94,92,199552
1.8231,0.2395,38.7400,94,92,199555
1.7889,0.2297,38.5500,94,92,199559
1.7840,0.2297,38.6500,94,92,199562
1.7742,0.2199,38.6800,94,92,199565
1.7889,0.2102,38.6500,94,92,199569
1.8182,0.2346,38.4000,94,92,199572
1.7937,0.2346,38.6800,94,92,199575
1.8182,0.2346,38.4900,94,92,199579
1.7937,0.2297,38.5800,94,92,199582
1.7986,0.2297,38.6200,94,92,199585
1.8280,0.2297,37.9000,94,92,199589
1.8231,0.2297,38.6500,94,92,199592
1.8866,0.2346,38.5200,94,92,199596
1.8231,0.2297,38.6500,94,92,199599
1.8377,0.2102,38.6200,94,92,199603
1.8622,0.2346,38.5200,94,92,199606
1.8377,0.2297,38.6200,94,92,199609
1.8768,0.2346,37.8700,94,92,199613
1.8573,0.2346,38.5200,94,92,199616
1.8426,0.2248,38.6200,94,92,199619
1.8573,0.2639,38.5500,94,92,199623
1.8475,0.2102,38.6200,94,92,199626
1.8768,0.2395,38.4000,94,92,199629
1.8377,0.2199,38.5500,94,92,199633
1.8426,0.2248,38.6500,94,92,199636
1.8573,0.2297,38.5800,94,92,199640
1.8524,0.2248,38.6800,94,92,199643
1.9062,0.2297,38.4600,94,92,199647
1.8671,0.2346,38.5500,94,92,199650
1.8671,0.2248,38.5500,94,92,199653
1.8475,0.2346,38.6200,94,92,199657
1.8231,0.2297,38.6500,94,92,199660
1.8426,0.2395,38.5500,94,92,199663
1.8182,0.2346,38.5800,94,92,199667
1.8231,0.2297,38.4900,94,92,199670
1.8084,0.2297,38.6500,94,92,199673
1.8133,0.2297,38.6500,94,92,199677
1.8426,0.2444,38.4600,94,92,199681
1.8084,0.2297,38.6200,94,92,199684
1.8231,0.2346,38.5200,94,92,199687
1.7889,0.2151,38.5800,94,92,199691
1.7889,0.2297,38.6800,94,92,199694
1.7986,0.2346,38.5200,94,92,199697
1.7791,0.2297,38.6500,94,92,199701
1.8182,0.2297,38.4300,94,92,199704
1.7986,0.2395,38.5800,94,92,199707
1.7986,0.2102,38.6500,94,92,199711
1.7937,0.2395,38.5800,94,92,199714
1.7791,0.2297,38.6200,94,92,199717
1.8133,0.2297,38.4000,94,92,199721
1.7742,0.2297,38.5500,94,92,199725
1.7840,0.2248,38.6500,94,92,199728
1.7937,0.2297,38.8100,94,92,199732
1.7986,0.2297,38.6500,94,92,199735
1.8573,0.2493,38.7100,94,92,199738
1.8280,0.2297,38.5200,94,92,199741
1.8231,0.2248,38.6200,94,92,199745
1.8182,0.2346,38.6800,94,92,199748
1.8182,0.2297,38.6500,94,92,199751
1.8719,0.2395,38.4300,94,92,199755
1.8475,0.2395,38.5500,94,92,199758
1.8573,0.2297,38.5200,94,92,199761
1.8426,0.2297,38.6200,94,92,199766
1.8328,0.2297,38.6200,94,92,199769
1.8475,0.2346,38.4900,94,92,199772
1.8231,0.2590,38.6500,94,92,199776
1.8622,0.2346,38.4900,94,92,199779
1.8231,0.2297,38.6500,94,92,199782
1.8280,0.2346,38.6200,94,92,199785
1.8280,0.2297,38.5200,94,92,199789
1.8280,0.2297,38.5200,94,92,199792
1.8622,0.2346,38.4900,94,92,199795
1.8328,0.2297,38.5800,94,92,199799
1.8524,0.2444,38.6500,94,92,199802
1.8817,0.2346,38.5200,94,92,199805
1.8671,0.2297,38.5800,94,92,199810
1.9159,0.2346,38.4000,94,92,199813
1.9062,0.2297,38.5200,94,92,199816
1.9062,0.2199,38.6200,94,92,199820
1.9453,0.2346,38.6500,94,92,199823
1.9355,0.2395,38.6500,94,92,199826
1.9844,0.2395,38.4300,94,92,199829
1.9355,0.2346,38.5500,94,92,199833
1.9159,0.2248,38.6200,94,92,199836
1.9062,0.2297,38.8400,94,92,199839
1.8768,0.2346,38.6800,94,92,199843
1.9013,0.2297,38.4300,94,92,199846
1.8328,0.2297,38.6200,94,92,199849
1.8475,0.2248,38.5500,94,92,199854
1.8084,0.2297,38.6200,94,92,199857
1.7986,0.2542,38.6200,94,92,199860
1.8328,0.2395,38.5200,94,92,199864
1.7986,0.2297,38.7100,94,92,199867
1.7937,0.2248,38.4900,94,92,199870
1.7644,0.2297,38.5200,94,92,199873
1.7595,0.2346,38.6500,94,92,199877
1.7889,0.2395,38.5200,94,92,199880
1.7546,0.2444,38.5800,94,92,199883
1.7889,0.2346,38.4900,94,92,199887
1.7302,0.2248,38.6500,94,92,199890
1.7107,0.2248,38.6500,94,92,199894
1.7155,0.2297,38.5800,94,92,199898
1.7009,0.2297,38.4900,94,92,199901
1.7351,0.2297,38.4000,94,92,199904
1.7204,0.2346,38.5500,94,92,199908
1.7302,0.2297,38.6800,94,92,199911
1.7449,0.2395,38.5500,94,92,199914
1.7351,0.2297,38.6500,94,92,199917
1.7840,0.2346,38.3300,94,92,199921
1.7498,0.2248,38.5800,94,92,199924
1.7546,0.2248,38.5200,94,92,199927
1.7840,0.2493,38.5800,94,92,199931
1.7889,0.2297,38.6200,94,92,199934
1.8719,0.2493,38.3000,94,92,199938
1.8866,0.2346,38.5200,94,92,199942
1.9550,0.2102,38.5800,94,92,199945
2.0870,0.2444,38.6200,94,92,199948
2.2532,0.2297,38.6500,94,92,199952
2.5318,0.2297,38.4600,94,92,199955
2.7468,0.2542,38.5500,94,92,199958
2.9961,0.2297,38.5200,94,92,199961
3.1965,0.2297,38.6200,94,92,199965
3.2893,0.2248,38.6500,94,92,199968
3.2649,0.2346,38.5800,94,92,199971
2.9863,0.2297,38.5800,94,92,199975
2.6686,0.2493,38.4900,94,92,199979
2.3021,0.2297,38.6200,94,92,199982
2.0088,0.2199,38.6200,94,92,199986
1.7840,0.2346,38.5500,94,92,199989
1.5934,0.2297,38.6200,94,92,199992
1.4809,0.2297,38.5500,94,92,199995
1.3832,0.2297,38.6200,94,92,199999
1.3441,0.2297,38.6500,94,92,200002
1.3441,0.2346,38.5200,94,92,200005
1.3099,0.2297,38.7400,94,92,200009
1.3245,0.2297,38.6200,94,92,200012
1.3294,0.2346,38.5500,94,92,200015
1.3490,0.2248,38.6500,94,92,200019
1.3930,0.2346,38.5500,94,92,200023
1.3978,0.2346,38.6500,94,92,200026
1.4663,0.2297,38.3600,94,92,200030
1.5054,0.2346,38.5500,94,92,200033
1.4858,0.2297,38.6500,94,92,200036
1.5005,0.2297,38.6500,94,92,200039
1.4956,0.2297,38.6500,94,92,200043
1.5445,0.2493,38.3600,94,92,200046
1.5200,0.2639,38.5500,94,92,200049
1.5298,0.2199,38.5800,94,92,200053
1.5543,0.2297,38.6500,94,92,200056
1.5934,0.2346,38.6800,94,92,200059
1.6178,0.2297,38.4900,94,92,200064
1.5934,0.2297,38.5800,94,92,200067
1.6178,0.2248,38.4900,94,92,200070
1.5982,0.2297,38.5800,94,92,200074
1.6129,0.2346,38.6800,94,92,200077
1.6471,0.2395,38.4600,95,92,200080
1.6520,0.2346,38.4900,95,92,200084
1.6471,0.2297,38.7700,95,92,200087
1.6911,0.2395,38.4000,95,92,200090
1.6716,0.2297,38.5500,95,92,200094
1.6569,0.2297,38.7400,95,92,200097
1.6667,0.2444,38.5800,95,92,200100
1.6569,0.2297,38.6200,95,92,200104
1.7155,0.2346,38.5200,95,92,200108
1.6960,0.2297,38.5800,95,92,200111
1.7107,0.2297,38.6500,95,92,200115
1.7107,0.2297,38.6500,95,92,200118
1.7058,0.2297,38.6200,95,92,200121
1.7693,0.2493,38.3600,95,92,200125
1.7204,0.2346,38.5800,95,92,200128
1.6862,0.2248,38.5800,95,92,200131
1.6667,0.2199,38.6800,95,92,200134
1.6618,0.2297,38.6500,95,92,200138
1.7204,0.2395,38.4000,95,92,200141
1.7204,0.2346,38.5800,95,92,200144
1.7400,0.2297,38.5200,95,92,200148
1.7351,0.2297,38.8100,95,92,200152
1.7400,0.2346,38.6200,95,92,200155
1.7742,0.2297,38.4900,95,92,200159
1.7644,0.2297,38.5200,95,92,200162
1.7840,0.2444,38.4900,95,92,200165
1.7449,0.2297,38.6200,95,92,200169
1.7498,0.2542,38.6800,95,92,200172
1.7644,0.2297,38.6200,95,92,200175
1.7546,0.2297,38.4600,95,92,200178
1.7693,0.2346,38.4600,95,92,200182
1.7400,0.2297,38.8400,95,92,200185
1.7595,0.2297,38.6800,95,92,200188
1.7840,0.2297,38.5500,95,92,200193
1.7742,0.2248,38.6800,95,92,200196
1.8035,0.2346,38.4300,95,92,200199
1.7742,0.2346,38.5200,95,92,200203
1.7693,0.2297,38.6200,95,92,200206
1.8035,0.2346,38.5500,95,92,200209
1.7986,0.2297,38.8400,95,92,200213
1.8768,0.2346,38.3300,95,92,200216
1.8182,0.2346,38.5200,95,92,200219
1.8182,0.2151,38.6200,95,92,200222
1.8377,0.2297,38.6200,95,92,200226
1.8426,0.2542,38.6500,95,92,200229
1.9062,0.2297,38.4900,95,92,200232
1.8866,0.2297,38.7700,95,92,200237
1.8915,0.2199,38.5200,95,92,200240
1.8866,0.2297,38.6200,95,92,200243
1.8817,0.2297,38.6800,95,92,200247
1.9062,0.2395,38.5500,95,92,200250
1.8768,0.2297,38.6200,95,92,200253
1.9013,0.2297,38.4900,95,92,200257
1.8915,0.2297,38.6200,95,92,200260
1.9013,0.2346,38.6500,95,92,200263
1.9257,0.2395,38.4900,95,92,200267
1.8915,0.2346,38.6800,95,92,200270
1.9013,0.2297,38.5200,95,92,200273
1.8622,0.2248,38.5200,95,92,200276
1.8573,0.2199,38.6800,95,92,200281
1.8719,0.2346,38.5800,95,92,200284
1.8475,0.2248,38.6800,95,92,200287
1.8719,0.2346,38.4300,95,92,200291
1.8280,0.2297,38.5500,95,92,200294
1.8133,0.2248,38.6200,95,92,200297
1.8182,0.2297,38.5800,95,92,200301
1.7889,0.2297,38.5800,95,92,200304
1.8231,0.2346,38.3600,95,92,200307
1.7791,0.2248,38.6200,95,92,200311
1.8182,0.2199,38.6800,95,92,200314
1.8035,0.2297,38.5800,95,92,200317
1.7840,0.2346,38.6200,95,92,200321
1.8280,0.2493,38.4000,95,92,200325
1.7791,0.2297,38.5200,95,92,200328
1.7595,0.2248,38.6800,95,92,200331
1.7693,0.2346,38.6200,95,92,200335
1.7644,0.2297,38.6200,95,92,200338
1.8035,0.2346,38.4600,95,92,200341
1.7791,0.2297,38.5800,95,92,200345
1.7937,0.2297,38.4600,95,92,200348
1.7889,0.2297,38.6200,95,92,200351
1.8035,0.2248,38.6200,95,92,200354
1.8280,0.2346,38.4900,95,92,200358
1.8084,0.2346,38.6200,95,92,200361
1.8280,0.2346,38.4900,95,92,200365
1.7986,0.2297,38.6500,95,92,200369
1.7986,0.2248,38.6200,95,92,200372
1.8133,0.2297,38.5200,95,92,200375
1.8133,0.2199,38.6800,95,92,200379
1.8377,0.2346,38.4600,95,92,200382
1.8328,0.2297,38.5800,95,92,200385
1.8426,0.2346,38.6200,95,92,200389
1.8719,0.2346,38.4900,95,92,200392
1.8475,0.2297,38.6500,95,92,200395
1.8866,0.2297,38.4300,95,92,200398
1.8671,0.2297,38.5200,95,92,200402
1.8964,0.2199,38.6200,95,92,200406
1.8719,0.2444,38.5500,95,92,200409
1.8573,0.2199,38.6200,95,92,200413
1.8964,0.2395,38.3300,95,92,200416
1.8475,0.2395,38.5500,95,92,200419
1.8573,0.2248,38.6500,95,92,200423
1.8671,0.2297,38.7700,95,92,200426
1.8719,0.2297,38.6200,95,92,200429
1.9355,0.2297,38.4300,95,92,200433
1.9062,0.2444,38.5500,95,92,200436
1.9159,0.2102,38.5500,95,92,200439
1.9208,0.2297,38.6200,95,92,200442
1.9208,0.2542,38.6500,95,92,200446
1.9550,0.2444,38.4900,95,92,200450
1.9208,0.2297,38.4600,95,92,200453
1.9257,0.2346,38.4900,95,92,200457
1.8866,0.2297,38.8400,95,92,200460
1.8622,0.2346,38.6200,95,92,200463
1.8671,0.2395,38.5200,95,92,200467
1.8133,0.2395,38.6200,95,92,200470
1.8133,0.2297,38.5800,95,92,200473
1.7644,0.2248,38.5200,95,92,200477
1.7498,0.2493,38.6800,95,92,200480
1.7595,0.2346,38.5800,95,92,200483
1.7400,0.2493,38.6200,95,92,200487
1.7986,0.2346,38.4300,95,92,200491
1.7351,0.2297,38.5800,95,92,200494
1.7204,0.2297,38.6200,95,92,200497
1.7302,0.2346,38.5500,95,92,200501
1.6960,0.2297,38.6500,95,92,200504
1.7204,0.2346,38.4000,95,92,200507
1.6716,0.2248,38.5800,95,92,200511
1.6764,0.2248,38.6200,95,92,200514
1.6911,0.2346,38.6500,95,92,200517
1.6862,0.2297,38.6800,95,92,200521
1.7302,0.2542,38.3600,95,92,200524
1.7009,0.2346,38.5200,95,92,200527
1.6862,0.2199,38.6200,95,92,200530
1.6960,0.2297,38.5800,95,92,200535
1.7058,0.2248,38.6200,95,92,200538
1.7644,0.2297,38.4300,95,92,200541
1.7400,0.2688,38.5500,95,92,200545
1.7498,0.2199,38.5200,95,92,200548
1.7644,0.2297,38.6200,95,92,200551
1.7986,0.2297,38.6200,95,92,200555
1.8915,0.2297,38.4900,95,92,200558
1.9648,0.2297,38.5200,95,92,200561
2.1310,0.2346,38.4900,95,92,200565
2.2923,0.2297,38.6500,95,92,200568
2.5269,0.2297,38.6200,95,92,200571
2.7908,0.2297,38.5500,95,92,200574
3.0205,0.2297,38.7100,95,92,200579
3.2356,0.2444,38.5200,95,92,200582
3.2209,0.2297,38.6200,95,92,200585
3.0841,0.2297,38.7700,95,92,200589
2.8299,0.2395,38.5200,95,92,200592
2.4731,0.2297,38.6500,95,92,200595
2.1994,0.2297,38.3600,95,92,200599
1.9062,0.2346,38.5200,95,92,200602
1.6764,0.2297,38.6500,95,92,200605
1.5591,0.2346,38.5500,95,92,200609
1.3832,0.2297,38.6500,95,92,200612
1.3539,0.2395,38.3600,95,92,200615
1.2854,0.2297,38.5500,95,92,200619
1.2659,0.2248,38.6500,95,92,200623
1.2952,0.2346,38.5800,95,92,200626
1.2659,0.2297,38.6200,95,92,200629
1.3343,0.2493,38.4000,95,92,200633
1.3294,0.2346,38.5500,95,92,200636
1.3539,0.2248,38.5800,95,92,200639
1.3734,0.2444,38.6200,95,92,200643
1.3978,0.2297,38.6200,95,92,200646
1.4418,0.2444,38.5200,95,92,200649
1.4418,0.2346,38.6200,95,92,200653
1.4712,0.2346,38.5200,95,92,200656
1.4761,0.2346,38.6800,95,92,200659
1.4956,0.2297,38.6200,95,92,200663
1.5347,0.2395,38.5800,95,92,200667
1.5347,0.2297,38.6200,95,92,200670
1.5543,0.2346,38.3000,95,92,200673
1.5347,0.2248,38.6200,95,92,200677
1.5445,0.2297,38.6200,95,92,200680
1.5591,0.2346,38.5200,95,92,200683
1.5738,0.2395,38.6200,95,92,200687
1.5836,0.2297,38.4300,95,92,200690
1.6227,0.2346,38.3300,95,92,200694
1.5934,0.2297,38.5500,95,92,200697
1.6031,0.2248,38.6200,95,92,200700
1.6129,0.2297,38.6500,95,92,200705
1.6227,0.2102,38.6500,95,92,200708
1.6813,0.2493,38.6200,95,92,200711
1.6422,0.2346,38.5800,95,92,200715
1.6422,0.2248,38.5500,95,92,200718
1.6422,0.2297,38.6200,95,92,200721
1.6471,0.2346,38.6500,95,92,200724
1.6813,0.2395,38.4300,95,92,200728
1.6569,0.2346,38.5800,95,92,200731
1.6764,0.2297,38.5800,95,92,200734
1.6618,0.2346,38.6500,95,92,200738
1.6716,0.2297,38.6200,95,92,200741
1.6960,0.2395,38.5200,95,92,200744
1.6862,0.2248,38.6200,95,92,200749
1.7155,0.2346,38.4900,95,92,200752
1.6960,0.2199,38.6200,95,92,200755
1.6960,0.2297,38.6800,95,92,200759
1.7107,0.2493,38.5200,95,92,200762
1.7009,0.2102,38.6800,95,92,200765
1.7400,0.2346,38.4300,95,92,200768
1.7204,0.2297,38.6200,95,92,200772
1.7302,0.2297,38.6200,95,92,200775
1.7498,0.2346,38.6200,95,92,200778
1.7400,0.2102,38.6200,95,92,200782
1.7791,0.2297,38.3600,95,92,200785
1.7546,0.2395,38.5800,95,92,200788
1.7742,0.2297,38.6500,95,92,200793
1.7644,0.2297,38.5500,95,92,200796
1.7546,0.2297,38.6500,95,92,200799
1.8231,0.2493,38.3600,95,92,200803
1.7889,0.2395,38.5200,95,92,200806
1.7889,0.2248,38.5800,95,92,200809
1.7937,0.2297,38.8700,95,92,200812
1.7986,0.2297,38.6500,95,92,200816
1.8475,0.2444,38.4600,95,92,200819
1.8328,0.2542,38.6200,95,92,200822
1.8768,0.2248,38.5200,95,92,200826
1.8377,0.2346,38.6500,95,92,200829
1.8377,0.2346,38.6200,95,92,200833
1.8671,0.2346,38.5800,95,92,200837
1.8524,0.2297,38.6200,95,92,200840
1.9110,0.2346,38.4600,95,92,200843
1.8524,0.2297,38.6500,95,92,200847
1.8622,0.2297,38.6200,95,92,200850
1.8866,0.2395,38.6200,95,92,200853
1.8524,0.2199,38.6200,95,92,200857
1.8719,0.2346,38.4600,95,92,200860
1.8475,0.2395,38.5500,95,92,200863
1.8377,0.2297,38.6200,95,92,200866
1.8573,0.2395,38.5200,95,92,200870
1.8622,0.2199,38.6800,95,92,200873
1.8719,0.2346,38.4000,95,92,200877
1.8328,0.2346,38.5800,95,92,200881
1.8280,0.2248,38.6800,95,92,200884
1.8426,0.2297,38.5800,95,92,200887
1.8231,0.2297,38.5800,95,92,200891
1.8817,0.2542,38.3300,95,92,200894
1.8133,0.2297,38.4300,95,92,200897
1.8084,0.2297,38.6200,95,92,200900
1.8084,0.2346,38.6200,95,92,200904
1.7986,0.2297,38.7100,95,92,200907
1.8475,0.2444,38.4300,95,92,200910
1.8035,0.2346,38.5500,95,92,200914
1.7889,0.2248,38.5200,95,92,200918
1.7840,0.2297,38.6200,95,92,200921
1.7791,0.2297,37.9300,95,92,200925
1.8084,0.2395,38.4600,95,92,200928
1.7742,0.2297,38.6200,95,92,200931
1.7840,0.2297,38.4900,95,92,200935
1.7644,0.2199,38.6200,95,92,200938
1.7693,0.2248,38.6200,95,92,200941
1.7937,0.2493,38.5500,95,92,200944
1.7791,0.2297,38.6800,95,92,200948
1.8035,0.2395,38.5800,95,92,200951
1.7791,0.2199,38.5800,95,92,200954
1.7840,0.2297,38.6800,95,92,200958
1.7986,0.2297,38.4600,95,92,200962
1.7937,0.2346,38.6200,95,92,200965
1.8231,0.2346,38.4300,95,92,200969
1.7937,0.2248,38.5800,95,92,200972
1.8035,0.2297,38.6500,95,92,200975
1.8328,0.2395,38.5500,95,92,200979
1.8133,0.2199,38.6200,95,92,200982
1.8671,0.2346,38.3600,95,92,200985
1.8475,0.2395,38.5200,95,92,200988
1.8426,0.2199,38.6200,95,92,200992
1.8524,0.2346,38.5500,95,92,200995
1.8426,0.2395,38.6200,95,92,200998
1.8964,0.2444,38.3600,95,92,201003
1.8524,0.2395,38.4900,95,92,201006
1.8426,0.2199,38.5800,95,92,201009
1.8475,0.2297,38.6200,95,92,201013
1.8377,0.2297,38.6200,95,92,201016
1.8817,0.2444,38.4900,95,92,201019
1.8475,0.2297,38.6200,95,92,201023
1.8524,0.2346,38.5200,95,92,201026
1.8377,0.2297,38.5800,95,92,201029
1.8426,0.2248,38.6800,95,92,201032
1.8768,0.2395,38.5500,95,92,201036
1.8671,0.2297,38.6200,95,92,201039
1.8915,0.2346,38.4900,95,92,201042
1.8768,0.2297,38.7400,95,92,201047
1.8866,0.2297,38.6500,95,92,201050
1.9306,0.2395,38.4900,95,92,201053
1.9062,0.2590,38.6500,95,92,201057
1.9550,0.2346,38.4600,95,92,201060
1.9355,0.2248,38.6200,95,92,201063
1.9453,0.2493,38.6200,95,92,201067
1.9746,0.2346,38.5200,95,92,201070
1.9550,0.2297,38.6500,95,92,201073
1.9892,0.2346,38.4000,95,92,201076
1.9453,0.2297,38.5800,95,92,201080
1.9257,0.2297,38.1100,95,92,201083
1.9110,0.2346,38.6800,95,92,201086
1.8768,0.2297,38.6500,95,92,201091
1.9062,0.2395,38.4600,95,92,201094
1.8475,0.2297,38.5500,95,92,201097
1.8426,0.2248,38.6200,95,92,201101
1.8426,0.2346,38.5800,95,92,201104
1.8231,0.2248,38.6500,95,92,201107
1.8671,0.2786,38.4000,95,92,201111
1.8182,0.2346,38.5500,95,92,201114
1.7986,0.2248,37.8000,95,92,201117
1.8084,0.2199,38.5800,95,92,201120
1.7742,0.2102,38.6200,95,92,201124
1.8035,0.2395,37.9900,95,92,201127
1.7693,0.2346,38.5800,95,92,201131
1.7742,0.2297,38.4900,95,92,201135
1.7595,0.2297,38.5500,95,92,201138
1.7644,0.2542,38.6500,95,92,201141
1.7937,0.2297,38.5200,95,92,201145
1.7791,0.2297,38.6200,95,92,201148
1.8133,0.2346,38.5200,95,92,201151
1.7840,0.2297,38.6500,95,92,201155
1.7889,0.2199,38.6500,95,92,201158
1.7986,0.2346,38.5500,95,92,201161
1.7986,0.2297,38.7100,95,92,201164
1.8328,0.2590,38.4600,95,92,201168
1.8328,0.2297,38.6200,95,92,201171
1.8719,0.2297,38.6500,95,92,201175
1.9697,0.2395,38.5500,95,92,201179
1.9941,0.2297,38.6500,95,92,201182
2.1310,0.2395,38.4300,95,92,201185
2.2483,0.2297,38.5500,95,92,201189
2.4047,0.2297,38.6500,95,92,201192
2.6442,0.2297,38.5800,95,92,201195
2.8592,0.2297,38.8100,95,92,201199
3.1672,0.2493,38.3300,95,92,201202
3.2502,0.2297,38.4300,95,92,201205
3.2209,0.2248,38.5800,95,92,201208
3.0499,0.2346,38.6200,95,92,201212
2.7566,0.2297,38.6500,95,92,201216
2.5122,0.2444,38.5200,95,92,201219
2.1848,0.2346,38.4900,95,92,201223
1.9404,0.2248,38.5200,95,92,201226
1.7400,0.2590,38.6200,95,92,201229
1.5934,0.2199,38.6200,95,92,201233
1.5152,0.2395,38.5200,95,92,201236
1.4321,0.2346,38.6800,95,92,201239
1.4076,0.2346,38.4900,95,92,201242
1.3685,0.2297,38.6200,95,92,201246
1.3587,0.2248,38.6500,95,92,201249
1.3832,0.2395,38.4900,95,92,201252
1.3881,0.2346,38.6200,95,92,201256
1.4321,0.2346,38.4900,95,92,201260
1.4321,0.2248,38.5800,95,92,201263
1.4467,0.2248,38.6200,95,92,201267
1.4858,0.2493,38.4900,95,92,201270
1.4858,0.2297,38.6800,95,92,201273
1.5249,0.2346,38.4300,95,92,201277
1.5249,0.2444,38.5500,95,92,201280
1.5543,0.2297,38.6200,95,92,201283
1.5836,0.2346,38.6800,95,92,201287
1.5787,0.2297,38.6200,95,92,201290
1.6276,0.2346,38.3600,95,92,201293
1.5934,0.2542,38.5500,95,92,201296
1.6031,0.2297,38.6500,95,92,201300
1.6227,0.2297,38.5500,94,92,201304
1.6667,0.2297,38.6200,94,92,201308
1.6764,0.2297,38.6500,94,92,201311
1.7107,0.2395,38.4000,94,92,201314
1.7107,0.2346,38.6200,94,92,201318
1.7058,0.2346,38.4900,94,92,201321
1.6862,0.2444,38.6500,94,92,201324
1.7058,0.2102,38.6200,94,92,201328
1.7204,0.2297,38.5200,94,92,201331
1.7058,0.2297,38.6200,94,92,201334
1.7400,0.2346,38.4900,94,92,201338
1.6960,0.2248,38.6200,94,92,201341
1.7058,0.2346,38.6200,94,92,201345
1.7204,0.2346,38.5200,94,92,201348
1.7107,0.2297,38.6800,94,92,201352
1.7400,0.2346,38.7700,94,92,201355
1.7204,0.2297,38.6500,94,92,201358
1.7107,0.2297,38.7100,94,92,201362
1.7302,0.2542,38.5800,94,92,201365
1.7204,0.2346,38.6500,94,92,201368
1.7693,0.2395,38.3600,94,92,201372
1.7595,0.2346,38.5500,94,92,201375
1.7449,0.2297,38.6500,94,92,201378
1.7840,0.2346,38.5800,94,92,201382
1.7693,0.2297,38.6200,94,92,201385
1.8280,0.2493,38.4300,94,92,201389
1.8035,0.2395,38.5200,94,92,201392
1.7840,0.2248,38.5500,94,92,201396
1.7840,0.2297,38.8400,94,92,201399
1.7889,0.2346,38.6200,94,92,201402
1.8328,0.2395,38.4600,94,92,201406
1.8133,0.2297,38.5800,94,92,201409
1.8377,0.2346,38.4900,94,92,201412
1.8182,0.2297,38.6500,94,92,201416
1.8182,0.2248,38.6500,94,92,201419
1.8377,0.2297,38.5800,94,92,201422
1.8133,0.2297,38.6500,94,92,201426
1.8328,0.2395,38.4900,94,92,201430
1.8084,0.2297,38.6200,94,92,201433
1.8328,0.2248,38.6200,94,92,201436
1.8426,0.2395,38.4900,94,92,201440
1.8231,0.2297,38.6200,94,92,201443
1.8524,0.2297,38.4300,94,92,201446
1.8426,0.2297,38.5500,94,92,201450
1.8475,0.2297,38.6800,94,92,201453
1.8768,0.2395,38.5200,94,92,201456
1.8671,0.2248,38.6500,94,92,201460
1.9208,0.2346,38.3600,94,92,201463
1.8964,0.2248,38.5800,94,92,201466
1.9062,0.2102,38.6500,94,92,201470
1.9110,0.2297,38.5800,94,92,201474
1.9013,0.2248,38.6200,94,92,201477
1.9453,0.2395,38.3300,94,92,201480
1.8964,0.2297,38.5200,94,92,201484
1.9159,0.2151,38.6200,94,92,201487
1.8817,0.2297,38.6800,94,92,201490
1.9062,0.2199,38.6500,94,92,201494
1.9110,0.2444,38.4600,94,92,201497
1.8817,0.2590,38.5500,94,92,201500
1.8768,0.2297,38.5200,94,92,201504
1.8622,0.2346,38.6200,94,92,201507
1.8768,0.2297,38.6500,94,92,201510
1.8915,0.2395,38.4900,94,92,201515
1.8817,0.2346,38.6200,94,92,201518
1.8719,0.2297,38.4900,94,92,201521
1.8426,0.2297,38.8400,94,92,201525
1.8377,0.2297,38.6200,94,92,201528
1.8475,0.2297,38.5200,94,92,201531
1.8231,0.2297,38.6200,94,92,201534
1.8377,0.2297,38.4900,94,92,201538
1.8084,0.2248,38.9000,94,92,201541
1.8084,0.2444,38.6500,94,92,201544
1.8280,0.2346,38.5200,94,92,201548
1.8035,0.2297,38.6200,94,92,201551
1.8280,0.2346,38.4000,94,92,201554
1.7986,0.2297,38.6500,94,92,201559
1.7986,0.2297,38.6500,94,92,201562
1.8133,0.2444,38.5500,94,92,201565
1.7937,0.2297,38.6200,94,92,201568
1.8377,0.2590,38.3300,94,92,201572
1.8182,0.2346,38.5200,94,92,201575
1.7986,0.2297,38.6500,94,92,201578
1.8035,0.2346,38.6200,94,92,201582
1.7986,0.2297,38.6200,94,92,201585
1.8524,0.2493,38.6200,94,92,201588
1.8280,0.2346,38.5200,94,92,201592
1.8231,0.2199,38.5800,94,92,201595
1.8328,0.2639,38.6200,94,92,201598
1.8524,0.2297,38.6200,94,92,201603
1.8915,0.2395,38.7100,94,92,201606
1.9013,0.2346,38.5800,94,92,201609
1.8866,0.2297,38.5200,94,92,201612
1.8719,0.2297,38.6200,94,92,201616
1.8768,0.2297,38.6200,94,92,201619
1.9110,0.2346,38.7700,94,92,201622
1.9013,0.2346,38.6200,94,92,201626
1.9355,0.2297,38.4900,94,92,201629
1.8964,0.2248,38.6200,94,92,201632
1.8915,0.2199,38.6200,94,92,201636
1.9110,0.2395,38.4000,94,92,201639
1.8768,0.2199,38.6200,94,92,201643
1.9062,0.2346,38.4900,94,92,201647
1.8866,0.2199,38.7100,94,92,201650
1.8817,0.2297,38.6200,94,92,201653
1.9110,0.2395,38.1800,94,92,201656
1.8915,0.2297,38.6800,94,92,201660
1.9306,0.2346,38.4000,94,92,201663
1.8964,0.2297,37.8300,94,92,201666
1.8964,0.2248,38.6200,94,92,201670
1.9159,0.2346,38.5800,94,92,201673
1.9159,0.2297,38.7400,94,92,201676
