ecg,gsr,temp,hr,spo2,timest
1.7937,0.1808,40.1300,77,97,472537
1.8035,0.2395,40.1000,77,97,472540
1.7986,0.1808,40.1000,77,97,472543
1.8426,0.1906,39.8600,77,97,472547
1.8133,0.1711,40.0600,77,97,472550
1.8035,0.1760,40.1600,77,97,472553
1.8084,0.1808,40.1000,77,97,472557
1.7986,0.1711,40.1300,77,97,472560
1.8524,0.2004,39.9300,77,97,472563
1.8133,0.2004,40.0300,77,97,472567
1.7986,0.1711,40.0600,77,97,472570
1.7986,0.1808,39.8600,77,97,472573
1.7986,0.1760,40.1300,77,97,472577
1.8377,0.1906,39.9600,77,97,472581
1.8035,0.1857,40.1000,77,97,472584
1.8182,0.1808,40.0000,77,97,472587
1.7937,0.1808,40.1000,77,97,472591
1.7986,0.1857,40.1300,77,97,472594
1.8133,0.1906,40.0300,77,97,472597
1.7937,0.1906,40.1300,77,97,472601
1.8182,0.2004,40.0000,77,97,472604
1.7889,0.1808,40.1300,77,97,472607
1.7937,0.1808,40.2000,77,97,472610
1.7986,0.1808,40.1000,77,97,472614
1.7889,0.1711,40.1300,77,97,472617
1.8084,0.1808,40.0600,77,97,472621
1.8035,0.1711,40.1000,77,97,472625
1.7840,0.1808,40.1300,77,97,472628
1.7986,0.1906,40.0000,77,97,472631
1.7742,0.1711,40.1000,77,97,472635
1.8084,0.1857,39.9600,77,97,472638
1.7840,0.1906,40.0000,77,97,472641
1.7693,0.1711,40.1000,77,97,472645
1.7840,0.1857,40.0600,77,97,472648
1.7742,0.1906,40.1000,77,97,472651
1.8182,0.1955,39.8600,77,97,472654
1.7791,0.1808,40.0300,77,97,472658
1.7840,0.1760,40.1600,77,97,472662
1.7889,0.1808,40.1000,77,97,472665
1.7840,0.1857,40.1300,77,97,472669
1.8328,0.2004,39.8600,77,97,472672
1.7840,0.1857,40.1000,77,97,472675
1.7889,0.1808,40.0600,77,97,472679
1.8280,0.1711,40.1000,77,97,472682
1.7889,0.1808,40.1600,77,97,472685
1.8231,0.2297,40.0300,77,97,472688
1.7937,0.1857,40.1300,77,97,472692
1.7986,0.1857,40.0300,77,97,472695
1.7840,0.1808,40.1300,77,97,472698
1.7889,0.1808,40.2600,77,97,472702
1.8231,0.2199,39.9600,77,97,472706
1.8035,0.1808,40.1000,77,97,472709
1.8377,0.1906,40.0000,77,97,472713
1.8280,0.1711,40.1000,77,97,472716
1.8231,0.1808,40.1300,77,97,472719
1.8328,0.1857,40.1000,77,97,472723
1.8231,0.1808,40.1300,77,97,472726
1.8524,0.1808,40.0600,77,97,472729
1.8280,0.1808,40.1300,77,97,472732
1.8671,0.1808,40.1300,77,97,472736
1.8524,0.1857,40.0600,77,97,472739
1.8426,0.2053,40.1000,77,97,472742
1.8671,0.1808,39.8600,77,97,472747
1.8182,0.1808,40.1600,77,97,472750
1.8182,0.1760,40.1000,77,97,472753
1.8231,0.1906,40.1300,77,97,472757
1.8084,0.1808,40.1000,77,97,472760
1.8671,0.1906,39.9600,77,97,472763
1.8426,0.1857,40.0000,77,97,472766
1.8328,0.1857,40.1300,77,97,472770
1.8328,0.1857,40.1000,77,97,472773
1.8328,0.1857,40.1000,77,97,472776
1.8866,0.1906,39.9300,77,97,472780
1.8231,0.1857,40.1000,77,97,472783
1.8133,0.1857,40.0300,77,97,472786
1.7937,0.1808,40.3300,77,97,472791
1.7937,0.1857,40.1300,77,97,472794
1.8231,0.1906,40.0000,77,97,472797
1.7937,0.1857,40.1300,77,97,472801
1.8084,0.1711,40.0000,77,97,472804
1.7840,0.1808,40.1300,77,97,472807
1.7840,0.1955,40.1300,77,97,472810
1.8182,0.1906,40.0600,77,97,472814
1.7889,0.1808,40.1000,77,97,472817
1.8133,0.1906,40.1300,77,97,472820
1.7889,0.1808,40.1300,77,97,472824
1.7986,0.1808,40.1600,77,97,472827
1.8231,0.1857,40.1000,77,97,472830
1.7937,0.1808,40.1300,77,97,472835
1.8182,0.1857,39.9300,77,97,472838
1.8035,0.1808,40.0300,77,97,472841
1.7937,0.1808,40.2000,77,97,472845
1.8084,0.1906,40.0600,77,97,472848
1.8084,0.1857,40.1000,77,97,472851
1.8622,0.1857,39.9600,77,97,472854
1.8475,0.1808,40.1300,77,97,472858
1.9159,0.1808,40.1600,77,97,472861
1.9892,0.1857,40.0300,77,97,472864
2.0723,0.1857,40.1000,77,97,472868
2.2239,0.1955,39.8300,77,97,472871
2.2678,0.1857,40.0600,77,97,472875
2.3803,0.2053,40.1600,77,97,472879
2.5171,0.1906,40.1000,77,97,472882
2.6344,0.1857,39.9300,77,97,472885
2.7859,0.2004,39.9600,77,97,472888
2.6637,0.1857,40.0600,77,97,472892
2.4487,0.1808,40.0600,77,97,472895
2.1701,0.1857,40.1000,77,97,472898
1.9110,0.1808,40.1000,77,97,472902
1.7693,0.1906,39.9300,77,97,472905
1.6569,0.1857,40.1000,77,97,472908
1.6569,0.1857,40.0300,77,97,472912
1.6960,0.1906,40.1300,77,97,472915
1.6911,0.1808,40.1300,77,97,472919
1.7253,0.1906,40.0600,77,97,472922
1.7155,0.1760,40.1000,77,97,472926
1.7498,0.1711,40.0000,77,97,472929
1.7155,0.1808,40.2600,77,97,472932
1.7204,0.1760,40.1300,77,97,472936
1.7253,0.1857,40.0600,77,97,472939
1.7155,0.1857,40.0300,77,97,472942
1.7498,0.1906,39.9600,77,97,472946
1.7302,0.1808,40.0600,77,97,472949
1.7351,0.1906,40.1000,77,97,472952
1.7546,0.1906,40.0600,77,97,472956
1.7351,0.1808,40.0600,77,97,472960
1.8084,0.1906,39.8900,77,97,472963
1.7595,0.1906,40.0300,77,97,472966
1.7546,0.1808,40.1300,77,97,472970
1.7693,0.1906,40.1000,77,97,472973
1.7644,0.1808,40.1000,77,97,472976
1.8133,0.1906,39.8600,77,97,472980
1.7742,0.1808,40.0600,77,97,472983
1.7791,0.1711,40.1300,77,97,472986
1.7742,0.1857,40.2600,77,97,472990
1.7937,0.1857,40.1300,77,97,472993
1.8328,0.2053,39.9300,77,97,472996
1.7889,0.1955,40.1000,77,97,472999
1.7986,0.1808,40.0600,77,97,473004
1.7986,0.1857,40.1300,77,97,473007
1.7937,0.1808,40.1300,77,97,473010
1.8426,0.1955,40.1300,77,97,473014
1.8133,0.1808,40.1000,77,97,473017
1.8280,0.1857,40.0600,77,97,473020
1.8182,0.1808,40.1300,77,97,473024
1.8280,0.1808,40.1300,77,97,473027
1.8671,0.1906,39.9600,77,97,473030
1.8524,0.1857,40.1000,77,97,473034
1.8817,0.1906,40.0300,77,97,473037
1.8524,0.1760,40.0300,77,97,473040
1.8622,0.1857,40.1000,77,97,473043
1.8817,0.1857,40.1600,77,97,473048
1.8768,0.1808,40.1600,77,97,473051
1.9062,0.1711,39.9300,77,97,473054
1.8915,0.1808,40.1000,77,97,473058
1.9062,0.1857,40.1300,77,97,473061
1.9257,0.1906,40.1600,77,97,473064
1.9208,0.2199,40.1300,77,97,473068
1.9746,0.1906,39.8900,77,97,473071
1.9355,0.1760,40.2300,77,97,473074
1.9501,0.1808,40.1300,77,97,473078
1.9648,0.1906,40.0600,77,97,473081
1.9746,0.1955,40.2300,77,97,473086
1.9844,0.1808,40.1300,77,97,473090
2.0235,0.1906,39.9300,77,97,473093
1.9892,0.1711,40.1300,77,97,473097
2.0088,0.1857,40.0600,77,97,473100
1.9844,0.2199,40.1300,77,97,473103
1.9746,0.1857,40.1300,77,97,473106
1.9990,0.1906,39.9600,77,97,473110
1.9795,0.1857,40.1300,77,97,473113
2.0088,0.1906,40.0600,77,97,473116
1.9697,0.1857,40.1300,77,97,473120
1.9648,0.1857,40.1600,77,97,473123
1.9648,0.1857,40.0600,77,97,473126
1.9501,0.1857,40.0600,77,97,473131
1.9599,0.1955,39.9600,77,97,473134
1.9208,0.1857,40.2000,77,97,473137
1.9110,0.1857,40.1600,77,97,473140
1.9159,0.1955,40.0600,77,97,473144
1.8719,0.2004,40.1300,77,97,473147
1.9013,0.1906,39.8900,77,97,473150
1.8573,0.1906,40.1000,77,97,473154
1.8231,0.1906,40.0600,77,97,473157
1.8084,0.1857,40.2300,77,97,473160
1.7840,0.1808,40.1000,77,97,473164
1.8524,0.1955,39.8300,77,97,473167
1.7546,0.1808,40.1000,77,97,473170
1.7693,0.1808,40.1300,77,97,473175
1.7253,0.1857,40.1000,77,97,473178
1.7155,0.1857,40.1300,77,97,473181
1.7498,0.2004,39.9600,77,97,473184
1.7009,0.1857,40.0300,77,97,473188
1.7058,0.1808,40.1000,77,97,473191
1.6911,0.1711,40.1300,77,97,473194
1.6911,0.1808,40.1300,77,97,473198
1.7107,0.1906,40.1000,77,97,473201
1.6911,0.1857,40.3000,77,97,473204
1.7009,0.1857,39.9600,77,97,473208
1.6764,0.1857,40.1300,77,97,473211
1.6862,0.1857,40.1300,77,97,473214
1.7204,0.1906,40.0000,77,97,473219
1.6911,0.1857,40.1000,77,97,473222
1.7253,0.1808,40.0000,77,97,473225
1.6960,0.1808,40.0300,77,97,473228
1.7058,0.1857,40.1000,77,97,473232
1.7204,0.1857,40.1000,77,97,473235
1.7155,0.1808,40.1000,77,97,473238
1.7644,0.1906,39.9300,77,97,473242
1.7155,0.1857,40.0300,77,97,473245
1.7253,0.1857,40.1600,77,97,473248
1.7449,0.1857,40.2000,77,97,473252
1.7351,0.1906,40.1600,77,97,473255
1.7840,0.1955,39.8600,77,97,473259
1.7400,0.2102,40.0600,77,97,473263
1.7498,0.1808,40.1300,77,97,473266
1.7546,0.1857,40.1000,77,97,473269
1.7546,0.1857,40.1600,77,97,473272
1.8133,0.2004,39.8900,77,97,473276
1.7791,0.1906,39.9600,77,97,473279
1.7693,0.1857,40.0600,77,97,473282
1.7693,0.1857,40.1300,77,97,473286
1.7937,0.1808,40.1300,77,97,473289
1.8133,0.1906,39.9600,77,97,473292
1.7840,0.1857,40.2300,77,97,473296
1.8035,0.1857,40.0000,77,97,473299
1.7889,0.1857,40.2300,77,97,473303
1.7889,0.1857,40.1300,77,97,473307
1.8133,0.1906,39.4800,77,97,473310
1.8084,0.1808,40.1000,77,97,473313
1.8328,0.1906,40.0000,77,97,473316
1.7986,0.1857,40.1000,77,97,473320
1.8035,0.2102,40.1300,77,97,473323
1.8133,0.1906,40.0600,77,97,473326
1.8084,0.1857,40.2600,77,97,473330
1.8328,0.1857,39.9300,77,97,473333
1.8084,0.1857,40.0600,77,97,473336
1.8133,0.1808,40.1300,77,97,473340
1.8328,0.1955,40.0300,77,97,473344
1.8035,0.1857,40.1600,77,97,473347
1.8475,0.1906,39.8600,77,97,473351
1.8182,0.1857,40.0000,77,97,473354
1.8035,0.1857,40.1300,77,97,473357
1.8084,0.1857,40.1000,77,97,473360
1.8035,0.1808,40.1300,77,97,473364
1.8671,0.2053,39.8300,77,97,473367
1.8084,0.1857,40.0600,77,97,473370
1.8035,0.1808,40.1000,77,97,473374
1.8035,0.1906,40.1300,77,97,473377
1.8035,0.1808,40.1300,77,97,473380
1.8524,0.2004,40.0300,77,97,473384
1.7986,0.1906,40.0600,77,97,473388
1.8035,0.1808,40.0600,77,97,473391
1.7937,0.1857,39.9600,77,97,473394
1.7986,0.1857,40.1000,77,97,473398
1.8231,0.1906,39.1200,77,97,473401
1.7889,0.1808,40.1000,77,97,473404
1.8231,0.1711,40.0000,77,97,473408
1.7742,0.1857,40.1600,77,97,473411
1.8035,0.1857,40.1300,77,97,473414
1.8182,0.1906,39.9600,77,97,473418
1.8133,0.1857,40.1300,77,97,473421
1.8084,0.1906,40.0600,77,97,473424
1.7791,0.1808,40.5000,77,97,473428
1.7840,0.1857,40.1300,77,97,473432
1.7937,0.1857,40.0600,77,97,473435
1.7840,0.1857,40.1000,77,97,473438
1.8084,0.1857,40.0000,77,97,473442
1.7840,0.1857,40.1300,77,97,473445
1.7889,0.1760,40.1600,77,97,473448
1.7986,0.1906,40.1000,77,97,473452
1.7889,0.1857,40.1300,77,97,473455
1.8280,0.2199,39.8900,77,97,473458
1.7937,0.1808,40.0000,77,97,473462
1.7986,0.1808,40.2000,77,97,473465
1.8084,0.1955,40.1000,77,97,473468
1.7986,0.1808,40.1300,77,97,473472
1.8426,0.1955,39.8000,77,97,473476
1.8035,0.1955,40.0300,77,97,473479
1.7889,0.1711,40.1000,77,97,473482
1.7840,0.1857,40.1000,77,97,473486
1.7840,0.1857,40.1000,77,97,473489
1.8475,0.2004,40.4700,77,97,473492
1.8182,0.1711,40.1000,77,97,473496
1.8328,0.1808,40.1300,77,97,473499
1.8328,0.1857,40.1300,77,97,473502
1.8377,0.1857,40.1300,77,97,473506
1.8671,0.1906,40.0000,77,97,473509
1.8475,0.1857,40.1000,77,97,473512
1.8524,0.1857,40.0300,77,97,473516
1.8377,0.1955,40.1000,77,97,473520
1.8524,0.1857,40.1300,77,97,473523
1.8573,0.2151,40.0600,77,97,473526
1.8426,0.1857,40.1300,77,97,473530
1.8671,0.1906,40.0300,77,97,473533
1.8280,0.1711,40.1000,77,97,473536
1.8280,0.1808,40.1000,77,97,473540
1.8475,0.1906,40.0300,77,97,473543
1.8182,0.1711,40.1300,77,97,473546
1.8524,0.1857,40.0000,77,97,473550
1.8328,0.1857,40.0300,77,97,473553
1.8280,0.1857,40.1300,77,97,473556
1.8426,0.2004,40.0600,77,97,473560
1.8328,0.1808,40.1300,77,97,473564
1.8768,0.1906,39.8600,77,97,473567
1.8280,0.1906,40.0600,77,97,473570
1.8182,0.1760,40.1300,77,97,473574
1.8133,0.1906,40.1000,77,97,473577
1.7937,0.1857,40.0600,77,97,473580
1.8377,0.1955,39.8300,77,97,473584
1.7889,0.1857,40.0300,77,97,473587
1.7889,0.1857,40.0600,77,97,473590
1.7889,0.1955,40.1000,77,97,473593
1.7889,0.1857,40.1600,77,97,473597
1.8377,0.1906,40.0000,77,97,473601
1.8084,0.1857,40.0600,77,97,473604
1.8035,0.1808,40.0000,77,97,473608
1.7889,0.1711,40.1300,77,97,473611
1.7937,0.1808,40.2300,77,97,473614
1.8328,0.1906,39.9300,77,97,473618
1.8035,0.1857,40.4000,77,97,473621
1.8231,0.1857,40.1000,77,97,473624
1.8084,0.1808,40.1000,77,97,473628
1.8133,0.1857,40.1000,77,97,473631
1.8328,0.1906,40.0000,77,97,473634
1.8231,0.2297,40.1000,77,97,473637
1.8866,0.1955,40.0300,77,97,473641
1.8377,0.1857,40.1300,77,97,473645
1.8719,0.1760,40.2300,77,97,473648
1.9306,0.1857,40.0300,77,97,473652
2.0088,0.1857,40.1300,77,97,473655
2.1359,0.1808,39.9300,77,97,473658
2.1994,0.1857,40.2000,77,97,473662
2.2972,0.1857,40.1000,77,97,473665
2.4389,0.1906,40.1000,77,97,473668
2.5415,0.1857,40.1300,77,97,473671
2.7224,0.2004,39.8900,77,97,473675
2.7713,0.1711,40.0300,77,97,473678
2.6344,0.1857,40.1300,77,97,473681
2.4242,0.1808,40.1000,77,97,473686
2.1359,0.1808,40.1300,77,97,473689
1.9404,0.1955,39.3500,77,97,473692
1.7204,0.1906,39.4400,77,97,473697
1.7155,0.1955,40.1000,77,97,473700
1.7546,0.1857,40.0000,77,97,473704
1.7302,0.1857,40.1600,77,97,473707
1.7302,0.1711,40.1000,77,97,473710
1.7498,0.1906,40.0600,77,97,473714
1.7351,0.1857,39.2500,77,97,473717
1.7595,0.1955,40.0000,77,97,473720
1.7351,0.1857,40.1600,77,97,473723
1.7449,0.1857,40.1300,77,97,473728
1.7742,0.1955,40.0300,77,97,473731
1.7595,0.1857,40.1000,77,97,473734
1.7742,0.1857,39.9300,77,97,473738
1.7693,0.2004,40.0000,77,97,473741
1.8035,0.1711,40.1300,77,97,473744
1.7840,0.1906,40.1000,77,97,473748
1.7791,0.1857,40.1600,77,97,473751
1.8280,0.1906,39.8900,77,97,473754
1.7889,0.2199,40.1000,77,97,473758
1.7889,0.1711,40.1300,77,97,473761
1.7986,0.1857,40.1300,77,97,473764
1.7889,0.1711,40.1300,77,97,473767
1.8426,0.2004,39.8600,77,97,473772
1.7986,0.1857,40.0600,77,97,473775
1.8035,0.1808,40.1000,77,97,473778
1.8084,0.1906,40.1000,77,97,473782
1.8035,0.1857,40.1300,77,97,473785
1.8719,0.2004,40.1000,77,97,473788
1.8426,0.1906,40.1000,77,97,473792
1.8622,0.1808,40.0300,77,97,473795
1.8377,0.1857,40.1000,77,97,473798
1.8426,0.1906,40.1300,77,97,473801
1.9208,0.1906,39.9600,77,97,473805
1.8573,0.1857,39.9600,77,97,473808
1.8817,0.1857,39.9600,77,97,473811
1.8622,0.1857,40.1300,77,97,473816
1.8719,0.1808,40.1000,77,97,473819
1.8964,0.1906,40.0600,77,97,473822
1.8866,0.1857,39.5700,77,97,473826
1.9257,0.1857,40.1000,77,97,473829
1.9013,0.1857,40.1300,77,97,473832
1.9110,0.1857,40.2000,77,97,473836
1.9355,0.1808,40.1000,77,97,473839
1.9257,0.1857,40.1000,77,97,473842
1.9648,0.1857,40.0000,77,97,473845
1.9404,0.1857,40.1300,77,97,473849
1.9550,0.1857,40.1600,77,97,473852
2.0088,0.1955,40.0600,77,97,473856
1.9599,0.1857,40.1300,77,97,473860
2.0186,0.1955,39.8600,77,97,473863
1.9990,0.2004,40.0300,77,97,473866
1.9892,0.1906,40.1000,77,97,473870
1.9990,0.1857,40.1300,77,97,473873
1.9941,0.2151,40.1000,77,97,473876
2.0577,0.1906,39.8600,77,97,473879
2.0088,0.1857,40.0300,77,97,473883
2.0088,0.2053,40.1000,77,97,473886
2.0088,0.2004,40.1300,77,97,473889
2.0088,0.1808,40.1300,77,97,473893
2.0674,0.1906,39.9300,77,97,473896
2.0088,0.1857,40.0600,77,97,473900
2.0039,0.1906,40.0600,77,97,473904
1.9941,0.1857,40.1300,77,97,473907
1.9795,0.1857,40.1000,77,97,473910
2.0088,0.2004,40.0000,77,97,473913
1.9746,0.1906,40.0600,77,97,473917
1.9746,0.1857,40.0000,77,97,473920
1.9453,0.1857,40.3600,77,97,473923
1.9306,0.1857,40.1000,77,97,473927
1.9550,0.1955,39.9600,77,97,473930
1.8964,0.1955,40.1000,77,97,473933
1.9062,0.1906,40.0000,77,97,473937
1.8573,0.1857,40.1300,77,97,473940
1.8328,0.1906,40.1000,77,97,473944
1.8280,0.1906,40.0600,77,97,473947
1.7986,0.1857,40.0600,77,97,473951
1.7986,0.1808,40.0000,77,97,473954
1.7595,0.1808,40.1000,77,97,473957
1.7449,0.1857,40.3600,77,97,473961
1.7595,0.1906,40.2300,77,97,473964
1.7204,0.1857,40.1300,77,97,473967
1.7400,0.1955,39.9300,77,97,473971
1.6960,0.1808,40.1000,77,97,473974
1.6960,0.1857,40.1000,77,97,473977
1.7058,0.2004,40.0600,77,97,473980
1.6813,0.1857,40.1300,77,97,473985
1.7302,0.1955,39.8600,77,97,473988
1.7058,0.1906,40.0300,77,97,473991
1.6862,0.1808,40.1600,77,97,473995
1.6960,0.1857,40.1000,77,97,473998
1.6960,0.1808,40.1300,77,97,474001
1.7449,0.2053,39.9300,77,97,474005
1.7107,0.1906,40.0600,77,97,474008
1.7107,0.1808,40.1000,77,97,474011
1.7107,0.1857,40.1600,77,97,474015
1.7155,0.1760,40.1300,77,97,474018
1.7546,0.2004,40.0000,77,97,474021
1.7204,0.1857,40.4000,77,97,474024
1.7351,0.1808,40.0000,77,97,474029
1.7253,0.1857,40.1300,77,97,474032
1.7253,0.1857,40.1000,77,97,474035
1.7546,0.1906,40.1000,77,97,474039
1.7449,0.1857,39.3500,77,97,474042
1.7937,0.1955,40.0000,77,97,474045
1.7546,0.1857,40.1300,77,97,474049
1.7595,0.1808,40.1300,77,97,474052
1.7889,0.1955,40.0300,77,97,474055
1.7644,0.2053,40.1300,77,97,474059
1.7986,0.1857,40.0000,77,97,474062
1.7791,0.1857,39.9600,77,97,474065
1.7791,0.1857,40.2000,77,97,474068
1.7937,0.1906,40.2600,77,97,474073
1.7840,0.1906,40.1300,77,97,474076
1.8328,0.1906,39.8600,77,97,474079
1.7937,0.1857,40.1300,77,97,474083
1.7986,0.1711,40.1300,77,97,474086
1.8084,0.1857,40.0000,77,97,474089
1.8035,0.2102,40.1300,77,97,474093
1.8915,0.1955,39.8600,77,97,474096
1.8084,0.1857,40.0600,77,97,474099
1.8133,0.1906,40.1600,77,97,474102
1.8280,0.1906,40.0600,77,97,474106
1.8133,0.1857,40.1300,77,97,474109
1.8671,0.2053,39.9600,77,97,474113
1.8377,0.1906,40.0600,77,97,474117
1.8280,0.1808,40.2000,77,97,474120
1.8280,0.1955,40.1300,77,97,474123
1.8328,0.1857,40.1300,77,97,474127
1.8622,0.1955,39.9300,77,97,474130
1.8280,0.1857,40.3600,77,97,474133
1.8426,0.1857,39.9600,77,97,474137
1.8182,0.1857,40.1300,77,97,474140
1.8133,0.1857,40.1000,77,97,474143
1.8328,0.1955,40.1000,77,97,474146
1.8084,0.1857,40.1300,77,97,474150
1.8328,0.1955,39.9300,77,97,474153
1.7986,0.1857,40.2300,77,97,474157
1.7986,0.1906,40.1300,77,97,474161
1.8133,0.1906,40.0600,77,97,474164
1.8035,0.1857,40.1300,77,97,474167
1.8328,0.2151,39.9600,77,97,474171
1.8035,0.1857,40.0000,77,97,474174
1.8084,0.2346,40.1300,77,97,474177
1.8231,0.1906,40.0600,77,97,474181
1.7986,0.2102,40.1000,77,97,474184
1.8475,0.1906,39.8900,77,97,474187
1.8182,0.1906,40.0300,77,97,474190
1.7986,0.1857,40.0600,77,97,474194
1.8035,0.1857,40.1000,77,97,474198
1.7937,0.1857,40.1000,77,97,474201
1.8524,0.2004,39.8600,77,97,474205
1.7937,0.1906,40.1600,77,97,474208
1.7937,0.1857,40.0600,77,97,474211
1.7889,0.1857,40.1000,77,97,474215
1.7937,0.1857,40.1300,77,97,474218
1.8377,0.2004,40.0000,77,97,474221
1.7986,0.1857,40.1000,77,97,474225
1.8035,0.1857,40.0300,77,97,474228
1.7889,0.1906,40.1000,77,97,474231
1.7889,0.1857,40.1000,77,97,474234
1.8133,0.1955,39.9600,77,97,474238
1.8084,0.1808,40.1000,77,97,474242
1.8182,0.1906,39.9600,77,97,474245
1.8035,0.1857,40.1000,77,97,474249
1.8035,0.1857,40.2000,77,97,474252
1.8328,0.1955,39.9600,77,97,474255
1.8084,0.1857,40.1300,77,97,474259
1.8280,0.1857,39.9300,77,97,474262
1.7986,0.1906,40.0600,77,97,474265
1.8231,0.1808,40.1300,77,97,474268
1.8133,0.1906,39.8900,77,97,474272
1.7986,0.1955,40.1000,77,97,474275
1.8280,0.1906,39.9300,77,97,474278
1.7937,0.1857,40.0600,77,97,474283
1.7937,0.1760,40.1300,77,97,474286
1.8084,0.1906,40.1000,77,97,474289
1.7937,0.1857,40.2000,77,97,474293
1.8524,0.2053,39.8900,77,97,474296
1.8182,0.1857,40.0600,77,97,474299
1.8328,0.1857,40.1600,77,97,474303
1.8377,0.1906,40.1000,77,97,474306
1.8426,0.1857,40.1000,77,97,474311
1.8475,0.1857,40.1300,77,97,474314
1.8964,0.2004,39.9600,77,97,474317
1.8426,0.1857,40.1300,77,97,474320
1.8524,0.1906,40.0300,77,97,474324
1.8280,0.1857,40.1000,77,97,474328
1.8231,0.1857,40.0000,77,97,474331
1.8475,0.1955,40.0600,77,97,474335
1.8328,0.1857,40.1000,77,97,474338
1.8719,0.1906,40.0000,77,97,474341
1.8671,0.1955,40.2300,77,97,474345
1.8426,0.1857,40.1600,77,97,474348
1.8475,0.2004,40.0300,77,97,474351
1.8328,0.1857,40.1000,77,97,474354
1.8475,0.1906,39.9300,77,97,474358
1.8035,0.1955,40.1300,77,97,474361
1.7986,0.1857,40.1300,77,97,474364
1.8133,0.2151,40.0000,77,97,474369
1.7840,0.1857,40.1300,77,97,474372
1.8280,0.1955,39.8300,77,97,474375
1.8035,0.1906,40.0000,77,97,474379
1.7840,0.1857,40.1300,77,97,474382
1.7937,0.1857,40.1000,77,97,474385
1.7937,0.1711,40.1300,77,97,474389
1.8426,0.2004,39.9600,77,97,474392
1.8133,0.1711,40.0600,77,97,474395
1.7937,0.1808,40.1000,77,97,474398
1.7937,0.1857,40.2300,77,97,474402
1.7937,0.1955,40.0600,77,97,474405
1.8475,0.2004,39.9600,77,97,474408
1.8133,0.1906,40.0600,77,97,474413
1.8231,0.1808,40.1000,77,97,474416
1.8035,0.1906,40.1000,77,97,474419
1.8084,0.1906,40.1000,77,97,474423
1.8524,0.2053,40.0600,77,97,474426
1.8377,0.1906,40.1000,77,97,474429
1.8768,0.1906,39.9600,77,97,474432
1.8964,0.1808,40.1300,77,97,474436
1.9697,0.1857,40.1000,77,97,474439
2.0870,0.2004,39.9600,77,97,474442
2.1505,0.1857,40.1000,77,97,474446
2.2825,0.1906,40.0600,77,97,474449
2.3558,0.1808,40.1000,77,97,474452
2.4878,0.1857,40.1600,77,97,474457
2.6393,0.1906,40.0600,77,97,474460
2.7126,0.1857,40.1600,77,97,474463
2.7077,0.2053,39.9300,77,97,474466
2.4780,0.1857,40.1600,77,97,474470
2.2141,0.1857,40.2000,77,97,474473
1.9550,0.1955,40.0600,77,97,474476
1.7302,0.1857,40.1300,77,97,474480
1.6373,0.1906,39.9600,77,97,474483
1.5738,0.1808,40.1000,77,97,474486
1.6031,0.1857,40.1000,77,97,474490
1.6520,0.1906,40.1000,77,97,474493
1.6862,0.1955,40.1300,77,97,474497
1.7595,0.1955,39.8600,77,97,474501
1.7351,0.1857,40.1000,77,97,474504
1.7351,0.1808,40.1300,77,97,474507
1.7351,0.1906,40.0600,77,97,474510
1.7302,0.1857,40.1000,77,97,474514
1.7840,0.2004,40.0000,77,97,474517
1.7449,0.1906,40.1000,77,97,474520
1.7498,0.1857,40.0600,77,97,474524
1.7400,0.2199,40.1600,77,97,474527
1.7546,0.1808,40.1300,77,97,474530
1.7791,0.1955,40.0600,77,97,474534
1.7791,0.1857,40.1000,77,97,474537
1.7840,0.1906,40.0000,77,97,474541
1.7693,0.1857,40.1300,77,97,474544
1.7791,0.1906,40.1300,77,97,474548
1.7986,0.1906,40.1000,77,97,474551
1.7840,0.1857,40.4000,77,97,474554
1.8182,0.1955,40.0000,77,97,474558
1.7937,0.1857,40.1000,77,97,474561
1.8035,0.1857,40.2300,77,97,474564
1.8622,0.2004,40.0300,77,97,474568
1.8084,0.1857,40.1300,77,97,474571
1.8377,0.1857,39.9300,77,97,474574
1.8280,0.1857,40.0600,77,97,474578
1.8280,0.1857,40.1000,77,97,474582
1.8475,0.1955,40.0600,77,97,474585
1.8426,0.1857,40.1000,77,97,474588
1.8915,0.1955,39.9600,77,97,474592
1.8573,0.1711,40.0600,77,97,474595
1.8573,0.1857,40.2000,77,97,474598
1.8622,0.2004,40.1000,77,97,474602
1.8719,0.1857,40.1000,77,97,474605
1.9208,0.1955,39.8300,77,97,474608
1.8719,0.1857,40.0600,77,97,474612
1.8817,0.1808,40.1000,77,97,474615
1.8866,0.1906,40.1300,77,97,474618
1.8817,0.1857,40.1300,77,97,474622
1.9404,0.2053,40.0300,77,97,474626
1.9110,0.1906,39.9300,77,97,474629
1.9208,0.2004,40.0300,77,97,474632
1.9110,0.1906,40.1300,77,97,474636
1.9257,0.1857,40.1300,77,97,474639
1.9648,0.1906,39.9300,77,97,474642
1.9404,0.1906,40.0000,77,97,474646
1.9599,0.2102,40.0000,77,97,474649
1.9453,0.1711,40.1300,77,97,474652
1.9501,0.1857,40.1300,77,97,474656
1.9844,0.1955,40.1000,77,97,474659
1.9697,0.1857,40.1300,77,97,474662
2.0039,0.1955,40.5000,77,97,474665
1.9746,0.2004,40.1300,77,97,474670
1.9844,0.1857,40.1300,77,97,474673
1.9990,0.2199,40.0600,77,97,474676
1.9990,0.1857,40.2300,77,97,474680
2.0283,0.1857,39.9300,77,97,474683
2.0283,0.1808,40.1600,77,97,474686
2.0039,0.1857,40.1300,77,97,474690
2.0137,0.1955,40.1000,77,97,474693
1.9892,0.1808,40.1000,77,97,474696
2.0235,0.1955,39.8900,77,97,474699
2.0039,0.1906,40.0300,77,97,474703
1.9892,0.1857,40.2300,77,97,474706
1.9844,0.1906,40.1000,77,97,474710
1.9697,0.1857,40.1300,77,97,474714
2.0479,0.2004,39.8300,77,97,474717
1.9453,0.1857,40.0600,77,97,474720
1.9306,0.1808,40.0600,77,97,474724
1.9501,0.1955,40.1300,77,97,474727
1.8964,0.1857,40.1300,77,97,474730
1.9404,0.1955,39.9600,77,97,474733
1.8719,0.1906,40.2300,77,97,474737
1.8524,0.1857,40.0600,77,97,474740
1.8231,0.2297,40.1300,77,97,474743
1.8084,0.1857,40.1300,77,97,474747
1.8231,0.1906,40.1000,77,97,474750
1.7840,0.1906,40.0600,77,97,474754
1.7840,0.1906,40.0000,77,97,474758
1.7498,0.1808,40.1300,77,97,474761
1.7400,0.1857,40.1000,77,97,474764
1.7546,0.1955,40.0000,77,97,474768
1.7204,0.1857,40.1000,77,97,474771
1.7253,0.1906,40.0600,77,97,474774
1.6960,0.1808,40.4700,77,97,474777
1.6911,0.1955,40.1300,77,97,474781
1.6960,0.1906,40.0000,77,97,474784
1.6862,0.1857,40.1300,77,97,474787
1.7107,0.1906,39.9300,77,97,474791
1.6813,0.1857,40.1300,77,97,474795
1.7009,0.1808,40.1300,77,97,474798
1.6960,0.1906,40.1000,77,97,474802
1.6911,0.1857,40.1300,77,97,474805
1.7498,0.1955,39.8900,77,97,474808
1.6960,0.1808,40.1000,77,97,474812
1.7204,0.1857,40.1300,77,97,474815
1.7155,0.1906,39.2200,77,97,474818
1.7058,0.1711,40.1300,77,97,474821
1.7595,0.2053,39.9600,77,97,474825
1.7351,0.1906,40.0300,77,97,474828
1.7253,0.1857,40.1000,77,97,474831
1.7302,0.2151,40.1600,77,97,474835
1.7302,0.1711,40.1300,77,97,474839
1.7840,0.1955,39.8900,77,97,474842
1.7498,0.1906,40.1000,77,97,474846
1.7644,0.1857,40.0300,77,97,474849
1.7546,0.1808,40.1000,77,97,474852
1.7595,0.1711,40.1300,77,97,474856
1.7889,0.1955,40.0300,77,97,474859
1.7742,0.1906,40.1000,77,97,474862
1.7986,0.1906,39.9600,77,97,474865
1.7791,0.1857,40.1000,77,97,474869
1.7840,0.1857,40.1300,77,97,474872
1.7937,0.1906,40.3000,77,97,474875
1.7986,0.1906,40.1000,77,97,474880
1.8280,0.1857,40.0000,77,97,474883
1.7986,0.1857,40.1000,77,97,474886
1.8084,0.1857,40.1000,77,97,474890
1.8328,0.1906,40.0000,77,97,474893
1.8133,0.1857,40.1000,77,97,474896
1.8475,0.1955,39.9300,77,97,474899
1.8328,0.1906,40.0300,77,97,474903
1.8231,0.1857,40.3300,77,97,474906
1.8328,0.1955,40.0600,77,97,474909
1.8231,0.1857,40.1300,77,97,474913
1.8719,0.2004,39.8900,77,97,474916
1.8426,0.2053,40.0300,77,97,474921
1.8133,0.1906,40.1000,77,97,474925
1.8133,0.1857,40.0300,77,97,474928
1.8182,0.1711,40.1000,77,97,474932
1.7986,0.1857,40.1300,77,97,474935
1.8280,0.1906,40.0300,77,97,474938
1.8035,0.1906,40.1000,77,97,474942
1.8182,0.1906,39.9600,77,97,474945
1.7840,0.1857,40.1300,77,97,474948
1.7937,0.1857,40.1300,77,97,474952
1.8182,0.1906,40.0000,77,97,474955
1.7889,0.1857,40.0000,77,97,474958
1.8133,0.2151,40.0000,77,97,474961
1.7840,0.1857,40.0600,77,97,474966
1.7840,0.1857,40.1300,77,97,474969
1.8084,0.1906,40.0300,77,97,474972
1.7791,0.1857,40.1000,77,97,474976
1.8084,0.1906,40.0000,77,97,474979
1.7791,0.1857,40.1000,77,97,474982
1.7889,0.1857,40.1300,77,97,474986
1.7937,0.1906,40.2000,77,97,474989
1.7889,0.1857,40.1600,77,97,474992
1.8231,0.1955,39.8900,77,97,474995
1.7840,0.1857,40.1600,77,97,474999
1.7840,0.1711,40.1600,77,97,475002
1.7986,0.1906,40.0000,77,97,475005
1.8280,0.1711,40.1000,77,97,475010
1.8475,0.2053,39.9600,77,97,475013
1.8133,0.1906,40.0300,77,97,475016
1.7986,0.1857,40.1300,77,97,475020
1.7986,0.2004,40.1000,77,97,475023
1.7986,0.1857,40.1300,77,97,475026
1.8426,0.1955,39.9600,77,97,475030
1.7986,0.1857,40.0600,77,97,475033
1.8133,0.1857,40.0000,77,97,475036
1.7937,0.1857,40.1600,77,97,475039
1.7986,0.1955,40.1000,77,97,475043
1.8133,0.1906,40.0000,77,97,475046
1.7889,0.1857,40.2000,77,97,475049
1.8084,0.1955,39.9600,77,97,475054
1.7840,0.1955,40.1300,77,97,475057
1.7889,0.2102,40.1300,77,97,475060
1.7986,0.1906,40.1000,77,97,475064
1.7986,0.1857,40.1300,77,97,475067
1.8328,0.1857,40.0000,77,97,475070
1.8133,0.1857,40.1300,77,97,475073
1.8231,0.1857,40.1300,77,97,475077
1.8524,0.1955,40.0000,77,97,475080
1.8231,0.1857,40.1000,77,97,475083
1.8719,0.1955,39.9300,77,97,475087
1.8426,0.1906,40.0000,77,97,475090
1.8328,0.1955,40.1300,77,97,475094
1.8426,0.1906,40.0600,77,97,475098
1.8328,0.1906,40.1300,77,97,475101
1.8768,0.1906,39.8600,77,97,475104
1.8231,0.1857,40.0600,77,97,475108
1.8182,0.1906,40.1300,77,97,475111
1.8182,0.1906,40.1300,77,97,475114
1.8133,0.1857,40.1600,77,97,475117
1.8768,0.2053,39.8900,77,97,475121
1.8328,0.1906,40.1000,77,97,475124
1.8377,0.1808,40.0600,77,97,475127
1.8231,0.1906,40.1000,77,97,475131
1.8328,0.1857,40.1000,77,97,475134
1.8671,0.2004,40.0000,77,97,475138
1.8328,0.1906,40.0600,77,97,475142
1.8328,0.1857,40.0300,77,97,475145
1.8035,0.1906,40.1300,77,97,475148
1.8035,0.1857,40.1300,77,97,475152
1.8328,0.1955,39.8900,77,97,475155
1.7986,0.1906,40.1300,77,97,475158
1.8231,0.1906,40.1300,77,97,475161
1.7986,0.1808,40.0600,77,97,475165
1.7986,0.1857,40.1300,77,97,475168
1.8133,0.1906,40.0600,77,97,475171
1.7986,0.1857,40.1000,77,97,475175
1.8231,0.1857,39.9300,77,97,475179
1.7986,0.1857,40.1000,77,97,475182
1.7986,0.1857,40.0000,77,97,475186
1.8084,0.1906,40.1000,77,97,475189
1.8084,0.1808,40.1300,77,97,475192
1.8426,0.1906,39.9600,77,97,475196
1.8084,0.1906,40.0600,77,97,475199
1.8133,0.1857,40.1300,77,97,475202
1.8280,0.1906,40.0000,77,97,475205
1.8182,0.1711,40.1600,77,97,475209
1.8768,0.1955,39.9300,77,97,475212
1.8475,0.2053,40.1000,77,97,475215
1.8915,0.1808,40.1000,77,97,475219
1.9062,0.1906,40.1300,77,97,475223
1.9746,0.2346,40.1600,77,97,475226
2.1310,0.1906,39.9300,77,97,475230
2.1750,0.1906,40.1000,77,97,475233
2.2727,0.2151,40.0600,77,97,475236
2.3803,0.1906,40.1000,77,97,475239
2.5073,0.1857,40.2600,77,97,475243
2.6833,0.2102,40.0000,77,97,475246
2.7468,0.1906,40.1300,77,97,475249
2.7224,0.1906,40.0300,77,97,475253
2.4976,0.2053,40.1600,77,97,475256
2.2287,0.1857,40.1300,77,97,475259
1.9697,0.1906,40.0600,77,97,475264
1.7302,0.2053,40.1000,77,97,475267
1.6325,0.1955,40.0000,77,97,475270
1.5787,0.1857,40.2000,77,97,475273
1.6031,0.1808,40.1300,77,97,475277
1.6716,0.1955,40.0300,77,97,475280
1.6764,0.1857,40.1300,77,97,475283
1.7253,0.1906,39.9600,77,97,475287
1.7204,0.1857,40.0600,77,97,475290
1.7302,0.1857,40.0000,77,97,475293
1.7449,0.1906,40.0600,77,97,475297
1.7351,0.1857,40.1300,77,97,475300
1.7742,0.1955,39.8600,77,97,475303
1.7449,0.1906,40.1000,77,97,475308
1.7498,0.1857,40.0300,77,97,475311
1.7889,0.1906,40.0600,77,97,475314
1.7595,0.1857,40.1300,77,97,475317
1.8084,0.1955,39.8600,77,97,475321
1.7595,0.1857,40.1000,77,97,475324
1.7546,0.1857,40.1300,77,97,475327
1.7644,0.1857,40.1000,77,97,475331
1.7644,0.1857,40.1000,77,97,475334
1.8231,0.2004,39.9600,77,97,475337
1.7937,0.1906,40.0300,77,97,475341
1.7937,0.1857,40.4700,77,97,475344
1.7889,0.1906,40.1300,77,97,475347
1.7937,0.1857,40.2300,77,97,475352
1.8622,0.1955,39.9600,77,97,475355
1.8084,0.2004,40.1600,77,97,475358
1.8328,0.2102,40.0300,77,97,475361
1.8182,0.1857,40.1000,77,97,475365
1.8182,0.1857,40.1300,77,97,475368
1.8377,0.1955,40.0600,77,97,475371
1.8231,0.1857,40.1300,77,97,475375
1.8573,0.1955,40.0300,77,97,475378
1.8377,0.1906,40.1000,77,97,475381
1.8377,0.1857,40.1300,77,97,475385
1.8573,0.1955,40.0300,77,97,475388
1.8475,0.1857,40.2000,77,97,475392
1.8768,0.1906,39.9300,77,97,475396
1.8524,0.1906,40.1300,77,97,475399
1.8622,0.1857,40.0300,77,97,475402
1.8915,0.1955,40.0600,77,97,475405
1.8719,0.1857,40.1300,77,97,475409
1.9355,0.1955,39.8900,77,97,475412
1.9062,0.1906,40.0300,77,97,475415
1.8964,0.1906,40.1600,77,97,475419
1.9062,0.1906,40.2000,77,97,475422
1.9110,0.1857,40.1600,77,97,475425
1.9795,0.2004,39.8600,77,97,475429
1.9404,0.1906,40.1600,77,97,475432
1.9404,0.1906,40.1600,77,97,475436
1.9501,0.1808,40.1000,77,97,475440
1.9550,0.1857,40.1300,77,97,475443
2.0088,0.2004,39.9300,77,97,475446
1.9746,0.1906,40.0600,77,97,475449
1.9941,0.1857,40.0300,77,97,475453
1.9746,0.1857,40.1300,77,97,475456
1.9795,0.1857,40.1300,77,97,475459
2.0137,0.2004,40.0300,77,97,475463
1.9892,0.1955,40.1000,77,97,475466
2.0235,0.1906,40.0000,77,97,475469
1.9892,0.1857,40.1300,77,97,475473
2.0137,0.1857,40.1300,77,97,475476
2.0235,0.1906,40.0300,77,97,475480
1.9795,0.1906,40.1300,77,97,475483
2.0088,0.1955,40.0300,77,97,475487
1.9844,0.1808,40.1000,77,97,475490
1.9795,0.1857,39.2200,77,97,475493
1.9892,0.1906,40.0600,77,97,475497
1.9648,0.1857,40.1300,77,97,475500
1.9844,0.2151,39.9300,77,97,475503
1.9404,0.1906,40.1000,77,97,475507
1.9257,0.1857,40.4000,77,97,475510
1.9257,0.1808,40.0600,77,97,475513
1.9013,0.1857,40.1000,77,97,475516
1.9257,0.1955,39.8900,77,97,475521
1.8964,0.1808,40.1300,77,97,475524
1.8524,0.1857,40.0600,77,97,475527
1.8377,0.1857,40.0600,77,97,475531
1.7351,0.1906,40.1300,77,97,475535
1.7204,0.1857,40.1300,77,97,475539
1.7400,0.1955,39.9300,77,97,475542
1.7107,0.1857,40.1000,77,97,475545
1.7155,0.1906,40.0000,77,97,475549
1.6911,0.1906,40.1000,77,97,475552
1.6911,0.1711,40.1000,77,97,475555
1.7107,0.2004,40.0600,77,97,475559
1.6960,0.1955,40.1300,77,97,475563
1.7302,0.1906,39.9600,77,97,475566
1.7009,0.1857,40.2600,77,97,475569
1.7058,0.2248,40.1000,77,97,475573
1.7155,0.1906,40.0300,77,97,475576
1.7107,0.1906,40.1000,77,97,475579
1.7400,0.1857,39.9300,77,97,475583
1.7107,0.1857,40.1300,77,97,475586
1.7204,0.2053,40.2300,77,97,475589
1.7449,0.1906,40.0000,77,97,475593
1.7204,0.1857,40.1000,77,97,475596
1.7644,0.2004,39.8900,77,97,475599
1.7400,0.1906,40.0300,77,97,475602
1.7302,0.1857,40.1300,77,97,475607
1.7400,0.1857,40.1000,77,97,475610
1.7400,0.1857,40.1300,77,97,475613
1.7937,0.2004,39.8300,77,97,475617
1.7546,0.1955,40.0600,77,97,475620
1.7595,0.1808,40.1300,77,97,475623
1.7693,0.1906,40.0300,77,97,475627
1.7644,0.1857,40.1300,77,97,475630
1.8182,0.2053,39.9300,77,97,475633
1.7742,0.2199,40.1000,77,97,475637
1.7840,0.1711,40.0300,77,97,475640
1.7791,0.1906,40.2300,77,97,475643
1.7889,0.1857,40.1300,77,97,475646
1.8182,0.2004,40.0300,77,97,475651
1.7937,0.1906,40.1000,77,97,475654
1.8084,0.2053,40.0300,77,97,475657
1.7889,0.1857,40.1000,77,97,475661
1.7937,0.1857,40.1000,77,97,475664
1.8231,0.2004,39.9600,77,97,475667
1.8084,0.1857,40.1000,77,97,475671
1.8328,0.1955,40.1000,77,97,475674
1.8084,0.1906,40.2300,77,97,475677
1.8084,0.1857,40.1000,77,97,475680
1.8231,0.1906,40.0300,77,97,475684
1.8084,0.2102,40.2300,77,97,475687
1.8426,0.1808,39.9300,77,97,475691
1.8084,0.1857,39.8000,77,97,475695
1.8084,0.1808,40.1000,77,97,475698
1.8182,0.1906,40.0600,77,97,475701
1.8084,0.1857,40.2000,77,97,475705
1.8426,0.2248,39.8600,77,97,475708
1.8035,0.1857,40.1300,77,97,475711
1.8084,0.1857,40.1000,77,97,475714
1.8231,0.1955,40.0600,77,97,475718
1.8084,0.1857,40.1000,77,97,475721
1.8524,0.1955,39.8000,77,97,475724
1.8231,0.1955,40.0600,77,97,475728
1.8084,0.1857,40.1000,77,97,475731
1.8035,0.2102,40.1300,77,97,475735
1.8035,0.1808,40.1300,77,97,475739
1.8524,0.2053,39.8900,77,97,475742
1.8035,0.2004,40.0600,77,97,475745
1.7986,0.2004,40.1000,77,97,475748
1.8231,0.1808,40.1300,77,97,475752
1.7889,0.1857,39.7700,77,97,475755
1.8280,0.2053,40.0300,77,97,475758
1.7986,0.1906,40.1000,77,97,475762
1.8084,0.1857,40.0600,77,97,475765
1.7889,0.1906,40.1300,77,97,475768
1.7889,0.1857,40.1300,77,97,475772
1.8084,0.1955,40.0600,77,97,475776
1.7840,0.1857,40.1000,77,97,475779
1.8084,0.1955,39.9600,77,97,475782
1.7840,0.1857,40.1000,77,97,475786
1.8084,0.1857,40.1300,77,97,475789
1.8231,0.1955,40.0000,77,97,475792
1.7889,0.1760,40.1000,77,97,475796
1.8182,0.1857,40.0000,77,97,475799
1.7937,0.1857,40.0300,77,97,475802
1.7937,0.1760,40.1600,77,97,475806
1.8035,0.1906,40.1000,77,97,475809
1.7937,0.1857,40.0600,77,97,475812
1.8280,0.1955,39.9300,77,97,475816
1.7937,0.1857,40.1000,77,97,475820
1.8035,0.1857,40.1000,77,97,475823
1.7986,0.1955,40.1000,77,97,475826
1.8035,0.1857,40.1000,77,97,475830
1.8475,0.2004,39.8600,77,97,475833
1.8035,0.1857,40.1000,77,97,475836
1.8133,0.1857,40.1600,77,97,475840
1.8182,0.1906,40.1000,77,97,475843
1.8035,0.1857,40.1300,77,97,475846
1.8573,0.2004,39.8900,77,97,475850
1.8133,0.1906,40.0600,77,97,475853
1.8084,0.1857,40.0300,77,97,475856
1.8084,0.1906,40.1000,77,97,475860
1.8084,0.1857,40.3600,77,97,475864
1.8475,0.2053,39.9300,77,97,475867
1.8182,0.1906,40.1000,77,97,475870
1.8328,0.2004,40.0000,77,97,475874
1.8280,0.1808,40.1600,77,97,475877
1.8133,0.1857,40.1600,77,97,475880
1.8280,0.1955,39.9600,77,97,475884
1.8035,0.1857,40.1000,77,97,475887
1.8328,0.1906,40.0000,77,97,475890
1.8084,0.1760,40.1000,77,97,475894
1.8182,0.1857,40.1600,77,97,475897
1.8328,0.1906,40.0600,77,97,475900
1.8377,0.1955,40.1000,77,97,475904
1.8866,0.1857,40.0000,77,97,475908
1.8475,0.2199,40.0600,77,97,475911
1.8475,0.1808,40.1300,77,97,475914
1.8671,0.1906,40.0300,77,97,475918
1.8719,0.1857,40.1000,77,97,475921
1.8817,0.1906,39.9600,77,97,475924
1.8671,0.1955,40.0000,77,97,475928
1.8573,0.1857,40.1300,77,97,475931
1.8573,0.1906,40.1000,77,97,475934
1.8426,0.1857,40.1600,77,97,475938
1.8817,0.1955,39.8900,77,97,475941
1.8231,0.1857,40.0600,77,97,475944
1.8182,0.1808,40.1000,77,97,475949
1.8524,0.1711,40.1300,77,97,475952
1.8231,0.1857,40.2600,77,97,475955
1.8915,0.2053,39.9600,77,97,475958
1.8377,0.1857,40.1000,77,97,475962
1.8426,0.1857,40.0300,77,97,475965
1.8328,0.1857,40.1000,77,97,475968
1.8280,0.1857,40.1300,77,97,475972
1.8622,0.1906,40.0300,77,97,475975
1.8280,0.1906,40.2300,77,97,475978
1.8280,0.2199,40.0000,77,97,475982
1.7986,0.1857,40.1000,77,97,475985
1.7937,0.1808,40.2300,77,97,475988
1.8133,0.2053,40.0300,77,97,475993
1.7840,0.1857,40.3000,77,97,475996
1.8084,0.1955,40.0000,77,97,475999
1.7791,0.1808,40.1000,77,97,476002
1.7840,0.1808,40.1600,77,97,476006
1.7937,0.1711,40.0600,77,97,476009
1.7742,0.1857,40.1600,77,97,476012
1.8133,0.1760,40.0300,77,97,476016
1.7742,0.1857,40.1000,77,97,476019
1.7840,0.1808,40.1300,77,97,476022
1.8035,0.1808,40.0600,77,97,476026
1.7840,0.1857,40.1300,77,97,476029
1.8328,0.1906,39.9300,77,97,476033
1.7986,0.1808,40.1000,77,97,476037
1.8035,0.1808,40.1600,77,97,476040
1.8084,0.2199,40.1300,77,97,476043
1.8133,0.1857,40.1300,77,97,476046
1.8817,0.2053,39.8600,77,97,476050
1.8768,0.1857,40.0600,77,97,476053
1.9355,0.1808,40.1600,77,97,476056
2.0283,0.1857,40.1000,77,97,476060
2.1212,0.1857,40.1300,77,97,476063
2.2678,0.2297,39.9300,77,97,476066
2.3314,0.1857,40.1000,77,97,476070
2.4731,0.1857,40.0300,77,97,476073
2.5904,0.1808,40.1300,77,97,476077
2.6882,0.1711,40.1000,77,97,476080
2.7468,0.1906,40.1600,77,97,476084
2.5806,0.1906,40.1600,77,97,476087
2.3607,0.1711,40.0000,77,97,476090
2.0381,0.1857,40.1000,77,97,476094
1.8035,0.1808,40.1300,77,97,476097
1.6862,0.1857,40.0600,77,97,476100
1.6276,0.1857,40.0000,77,97,476104
1.6618,0.1857,40.0000,77,97,476107
1.6618,0.1857,40.1000,77,97,476110
1.6960,0.1808,40.1600,77,97,476113
1.7302,0.1906,40.0300,77,97,476118
1.7155,0.1857,40.2000,77,97,476121
1.7546,0.2053,39.9300,77,97,476124
1.7253,0.1808,40.0000,77,97,476128
1.7253,0.1857,40.1300,77,97,476131
1.7400,0.1906,40.0600,77,97,476134
1.7351,0.1808,40.1300,77,97,476138
1.7791,0.1906,39.8600,77,97,476141
1.7937,0.2004,39.9600,77,97,476146
1.7595,0.1808,40.1000,77,97,476149
1.7791,0.1711,40.0300,77,97,476152
1.7693,0.1857,40.2300,77,97,476156
1.7742,0.1808,40.1300,77,97,476160
1.8084,0.1906,40.0600,77,97,476163
1.7937,0.1857,40.0600,77,97,476166
1.8280,0.1906,40.0000,77,97,476170
1.8084,0.1857,39.5400,77,97,476173
1.8182,0.1808,40.1300,77,97,476176
1.8524,0.1906,39.9600,77,97,476180
1.8231,0.1808,40.1300,77,97,476183
1.8573,0.1906,40.0300,77,97,476186
1.8328,0.1808,40.2300,77,97,476190
1.8377,0.1906,40.1300,77,97,476193
1.8524,0.1857,40.2000,77,97,476196
1.8475,0.1906,40.1000,77,97,476200
1.8866,0.1808,39.9300,77,97,476204
1.8573,0.1857,40.1000,77,97,476207
1.8573,0.1955,40.1300,77,97,476210
1.8768,0.1906,40.0600,77,97,476214
1.8622,0.1857,40.1300,77,97,476217
1.9159,0.1906,39.8900,77,97,476220
1.8866,0.1808,40.1300,77,97,476224
1.8915,0.1857,40.0600,77,97,476227
1.9159,0.1808,40.1000,77,97,476230
1.9062,0.1857,40.1300,77,97,476234
1.9697,0.2053,39.8600,77,97,476237
1.9404,0.1857,40.0300,77,97,476240
1.9355,0.1808,40.1000,77,97,476243
1.9501,0.1857,40.1000,77,97,476248
1.9550,0.1857,40.1300,77,97,476251
2.0137,0.2004,39.9300,77,97,476254
1.9795,0.1906,40.1000,77,97,476258
1.9844,0.1808,40.0300,77,97,476261
1.9746,0.1857,40.1000,77,97,476264
1.9990,0.1857,40.2300,77,97,476268
2.0235,0.1906,40.0300,77,97,476271
1.9990,0.1857,40.0600,77,97,476274
2.0283,0.2004,40.0000,77,97,476277
1.9990,0.1857,40.1300,77,97,476281
2.0088,0.1857,40.0600,77,97,476284
2.0283,0.1906,40.1600,77,97,476288
2.0137,0.1857,40.2300,77,97,476292
2.0479,0.1955,40.0300,77,97,476295
2.0039,0.1906,40.1000,77,97,476298
2.0039,0.2199,40.1600,77,97,476302
2.0332,0.1955,40.0600,77,97,476305
1.9990,0.1857,40.0000,77,97,476308
2.0186,0.2102,39.9300,77,97,476311
1.9844,0.1808,40.0600,77,97,476315
1.9844,0.1857,40.1600,77,97,476318
1.9941,0.1808,40.0600,77,97,476321
1.9697,0.1857,40.1300,77,97,476325
1.9941,0.1906,39.8900,77,97,476328
1.9501,0.1857,40.1000,77,97,476332
1.9208,0.1857,40.1300,77,97,476336
1.9110,0.1857,40.1000,77,97,476339
1.8866,0.1857,40.1300,77,97,476342
1.9159,0.1955,39.8000,77,97,476346
1.8475,0.1857,40.0600,77,97,476349
1.8280,0.1808,40.1000,77,97,476352
1.8133,0.1906,40.1000,77,97,476355
1.7840,0.1857,39.3800,77,97,476359
1.8182,0.1906,39.9300,77,97,476362
1.7693,0.1906,40.0600,77,97,476365
1.7449,0.1808,40.0600,77,97,476369
1.7302,0.1857,40.1000,77,97,476372
1.7204,0.1808,40.1300,77,97,476376
1.7449,0.1906,39.9600,77,97,476380
1.7107,0.1857,40.1300,77,97,476383
1.7204,0.1857,40.0000,77,97,476386
1.6960,0.2248,40.1000,77,97,476389
1.6911,0.1808,40.1300,77,97,476393
1.7107,0.1906,40.0600,77,97,476396
1.6911,0.1857,40.1300,77,97,476399
1.7155,0.1955,40.0000,77,97,476403
1.6911,0.1857,40.1300,77,97,476406
1.6960,0.1857,40.1300,77,97,476409
1.7107,0.1857,40.0600,77,97,476413
1.7009,0.1857,40.2600,77,97,476417
1.7253,0.2248,39.9600,77,97,476420
1.7058,0.1857,40.1300,77,97,476424
1.7204,0.1808,40.1000,77,97,476427
1.7302,0.1808,40.0300,77,97,476430
1.7204,0.1857,40.1300,77,97,476433
1.7546,0.2102,39.8900,77,97,476437
1.7400,0.1857,40.0300,77,97,476440
1.7253,0.1857,40.1300,77,97,476443
1.7351,0.1711,40.1300,77,97,476447
1.7351,0.1857,40.1300,77,97,476450
1.7889,0.2102,39.8300,77,97,476453
1.7498,0.1857,40.0600,77,97,476457
1.7498,0.1808,40.1600,77,97,476461
1.7449,0.1808,40.1000,77,97,476464
1.7595,0.1857,40.1300,77,97,476467
1.8133,0.2004,40.0000,77,97,476471
1.7791,0.1857,40.1000,77,97,476474
1.7937,0.1808,40.0600,77,97,476477
1.7889,0.1857,40.1600,77,97,476481
1.8133,0.1808,40.1300,77,97,476484
1.8231,0.1906,40.1000,77,97,476487
1.8035,0.1906,40.2300,77,97,476491
1.8182,0.1906,40.0000,77,97,476494
1.8084,0.1857,40.1300,77,97,476497
1.8133,0.1857,40.1300,77,97,476502
1.8328,0.1906,40.0000,77,97,476505
1.8133,0.1857,40.1000,77,97,476508
1.8426,0.1906,40.0000,77,97,476511
1.8084,0.1760,40.3600,77,97,476515
1.8084,0.1760,40.1300,77,97,476518
1.8231,0.1906,40.1300,77,97,476521
1.8133,0.1857,40.2300,77,97,476525
1.8377,0.1857,39.9300,77,97,476528
1.8133,0.1906,40.1000,77,97,476531
1.8182,0.1711,40.1300,77,97,476535
1.8231,0.1906,40.0600,77,97,476538
1.8328,0.1906,40.1300,77,97,476541
1.8573,0.1906,39.8900,77,97,476546
1.8084,0.1857,40.1000,77,97,476549
1.8182,0.1857,40.1300,77,97,476552
1.8280,0.2444,40.0600,77,97,476555
1.8084,0.1857,40.1300,77,97,476559
1.8671,0.2004,40.0600,77,97,476562
1.8328,0.1906,40.0300,77,97,476565
1.8133,0.1857,40.1300,77,97,476569
1.8133,0.1955,40.0600,77,97,476572
1.8231,0.1711,40.1300,77,97,476575
1.8622,0.1955,40.0000,77,97,476579
1.8133,0.1808,40.1000,77,97,476582
1.8133,0.1857,40.0300,77,97,476585
1.8035,0.2199,40.1600,77,97,476590
1.8084,0.1857,40.1300,77,97,476593
1.8280,0.1955,40.0300,77,97,476596
1.8328,0.1857,40.1000,77,97,476599
1.8377,0.1857,39.9600,77,97,476603
1.8035,0.1857,40.1300,77,97,476606
1.8035,0.1857,40.1300,77,97,476609
1.8133,0.1857,40.0300,77,97,476613
1.8084,0.1857,40.1300,77,97,476616
1.8231,0.1857,40.0600,77,97,476619
1.7986,0.1857,40.1000,77,97,476623
1.7986,0.1857,40.1300,77,97,476626
1.8182,0.1808,40.0000,77,97,476630
1.7986,0.1857,40.1300,77,97,476634
1.8328,0.1906,39.8900,77,97,476637
1.8035,0.1906,40.0300,77,97,476640
1.7986,0.1808,40.1300,77,97,476643
1.8133,0.1808,40.1000,77,97,476647
1.7986,0.1857,40.1300,77,97,476650
1.8475,0.1955,39.8900,77,97,476653
1.7986,0.1857,40.1000,77,97,476657
1.7986,0.1808,40.1300,77,97,476660
1.7986,0.1808,40.1000,77,97,476663
1.7889,0.1857,40.1300,77,97,476667
1.8524,0.2053,40.0600,77,97,476670
1.8035,0.1906,40.0600,77,97,476674
1.8035,0.1857,40.0600,77,97,476678
1.7986,0.1906,40.1300,77,97,476681
1.8084,0.1808,40.1600,77,97,476684
1.8328,0.1955,40.0000,77,97,476687
1.8084,0.1906,40.1300,77,97,476691
1.8133,0.1857,40.1000,77,97,476694
1.7937,0.1857,40.1300,77,97,476697
1.8035,0.1906,40.1600,77,97,476701
1.8328,0.1955,39.9300,77,97,476704
1.8035,0.1857,40.1600,77,97,476707
1.8328,0.1955,40.0000,77,97,476711
1.8035,0.1515,40.1300,77,97,476715
1.8084,0.1760,40.1600,77,97,476718
1.8182,0.1906,40.0300,77,97,476721
1.8035,0.1857,40.2000,77,97,476725
1.8231,0.1857,40.0000,77,97,476728
1.7937,0.1857,40.1300,77,97,476731
1.7986,0.1906,40.1300,77,97,476735
1.8133,0.1906,40.0600,77,97,476738
1.8084,0.1857,40.1600,77,97,476741
1.8573,0.2248,39.8900,77,97,476745
1.8280,0.1808,40.0600,77,97,476748
1.8328,0.1857,40.1000,77,97,476751
1.8475,0.1711,40.1000,77,97,476755
1.8475,0.1857,40.1300,77,97,476760
1.8475,0.1760,40.1300,77,97,476764
1.8768,0.1906,39.9300,77,97,476767
1.8377,0.1906,40.0600,77,97,476770
1.8426,0.2004,40.0000,77,97,476774
1.8182,0.1857,40.1300,77,97,476777
1.8133,0.1857,40.1300,77,97,476780
1.8377,0.1955,40.1000,77,97,476783
1.8231,0.1857,40.1000,77,97,476787
1.8573,0.2004,40.0000,77,97,476790
1.8231,0.1857,40.1300,77,97,476793
1.8280,0.2053,40.1300,77,97,476797
1.8475,0.1906,40.1000,77,97,476801
1.8231,0.1857,40.1000,77,97,476804
1.8377,0.1857,39.9300,77,97,476808
1.8084,0.1857,40.1000,77,97,476811
1.8084,0.1857,40.3000,77,97,476814
1.8182,0.2004,40.0000,77,97,476817
1.7889,0.1857,40.1000,77,97,476821
1.8231,0.1906,40.1000,77,97,476824
1.7986,0.2004,40.0600,77,97,476827
1.7889,0.1808,40.1600,77,97,476831
1.7986,0.1955,40.0600,77,97,476834
1.7937,0.1808,40.1600,77,97,476837
1.8524,0.1955,39.8600,77,97,476841
1.8133,0.1808,40.0600,77,97,476845
1.8084,0.1808,40.1300,77,97,476848
1.8084,0.1857,40.1600,77,97,476852
1.8035,0.1808,40.1300,77,97,476855
1.8573,0.2004,39.9300,77,97,476858
1.8133,0.1906,39.9600,77,97,476861
1.8182,0.1906,40.1000,77,97,476865
1.8133,0.1857,40.1000,77,97,476868
1.8133,0.1808,40.1600,77,97,476871
1.8573,0.1906,40.0300,77,97,476875
1.8377,0.1857,40.0600,77,97,476878
1.8719,0.1808,40.0000,77,97,476881
1.9013,0.1857,40.1300,77,97,476886
1.9795,0.1857,40.1000,77,97,476889
2.1114,0.1955,39.9600,77,97,476892
2.1652,0.1857,40.0000,77,97,476895
2.2923,0.1955,40.0000,77,97,476899
2.3754,0.1808,40.0600,77,97,476902
2.5073,0.1857,40.1300,77,97,476905
2.6588,0.1906,40.0300,77,97,476909
2.7322,0.1857,40.1300,77,97,476912
2.7175,0.1857,39.9300,77,97,476915
2.4878,0.1857,40.1000,77,97,476919
2.2190,0.1906,40.1000,77,97,476922
1.9648,0.1906,40.1000,77,97,476925
1.7644,0.1857,40.1300,77,97,476930
1.6911,0.1906,40.3000,77,97,476933
1.6325,0.1808,40.1000,77,97,476936
1.6569,0.1857,40.1300,77,97,476939
1.6911,0.1955,40.1000,77,97,476943
1.7009,0.1857,40.1300,77,97,476946
1.7644,0.1857,39.8600,77,97,476949
1.7400,0.1906,40.0600,77,97,476953
1.7302,0.1808,40.1600,77,97,476956
1.7302,0.1955,40.1000,77,97,476959
1.7253,0.1808,40.1300,77,97,476963
1.7791,0.2004,39.9300,77,97,476966
1.7449,0.1857,40.1000,77,97,476969
1.7351,0.1857,40.0600,77,97,476974
1.7400,0.1906,40.1000,77,97,476977
1.7449,0.1955,40.1600,77,97,476980
1.7791,0.1906,40.0000,77,97,476983
1.7546,0.1857,40.2300,77,97,476987
1.7791,0.1955,40.0000,77,97,476990
1.7644,0.1857,40.1300,77,97,476993
1.7742,0.1857,40.1000,77,97,476997
1.7889,0.1857,40.0600,77,97,477000
1.7791,0.1857,40.2600,77,97,477003
1.8035,0.1955,40.0300,77,97,477007
1.7840,0.1857,40.1300,77,97,477010
1.7937,0.2004,40.1300,77,97,477014
1.8280,0.1955,40.0300,77,97,477017
1.8035,0.1857,40.1000,77,97,477021
1.8328,0.1955,39.9300,77,97,477024
1.8182,0.1857,40.1000,77,97,477027
1.8182,0.1760,40.1000,77,97,477031
1.8328,0.1906,40.1000,77,97,477034
1.8231,0.1857,40.1300,77,97,477037
1.8719,0.1808,39.8600,77,97,477041
1.8328,0.1857,40.1000,77,97,477044
1.8426,0.1857,40.2000,77,97,477047
1.8622,0.1808,40.1000,77,97,477051
1.8573,0.1857,40.1000,77,97,477054
1.9159,0.1955,39.9600,77,97,477058
1.8719,0.1857,40.1000,77,97,477061
1.8719,0.1808,40.2000,77,97,477065
1.8719,0.1857,40.1300,77,97,477068
1.8768,0.1857,40.1300,77,97,477071
1.9306,0.2004,39.9600,77,97,477075
1.9013,0.1955,40.0600,77,97,477078
1.9159,0.1857,40.0300,77,97,477081
1.9062,0.1906,40.1000,77,97,477085
1.9159,0.1711,40.1300,77,97,477088
1.9599,0.1906,39.8900,77,97,477091
1.9355,0.1857,40.1600,77,97,477094
1.9648,0.1857,39.5100,77,97,477099
1.9453,0.1857,40.1300,77,97,477102
1.9550,0.1857,40.1000,77,97,477105
1.9795,0.1906,40.1000,77,97,477109
1.9648,0.1857,40.1300,77,97,477112
2.0088,0.1857,40.1000,77,97,477115
1.9795,0.1857,40.1300,77,97,477119
1.9941,0.1808,40.1300,77,97,477122
1.9990,0.1906,40.0300,77,97,477125
1.9892,0.1808,40.2300,77,97,477129
2.0235,0.1906,39.9300,77,97,477132
1.9892,0.1857,40.1000,77,97,477135
1.9892,0.1808,40.1600,77,97,477138
2.0039,0.1906,40.0600,77,97,477143
1.9892,0.1857,39.9600,77,97,477146
2.0381,0.1955,39.8600,77,97,477149
2.0088,0.1906,40.0300,77,97,477153
1.9892,0.1857,40.1000,77,97,477156
1.9941,0.1808,40.1300,77,97,477159
1.9844,0.1857,40.1300,77,97,477163
2.0283,0.2004,39.8600,77,97,477166
1.9746,0.1857,40.0600,77,97,477169
1.9550,0.1808,40.1000,77,97,477172
1.9404,0.1857,40.0600,77,97,477176
1.9208,0.1955,40.1000,77,97,477179
1.9501,0.2004,39.9600,77,97,477182
1.8866,0.1857,40.1000,77,97,477187
1.8671,0.1857,40.0300,77,97,477190
1.8426,0.1857,40.1300,77,97,477193
1.8133,0.1760,40.1300,77,97,477197
1.8280,0.1955,40.0600,77,97,477200
1.7889,0.1906,40.1000,77,97,477203
1.7937,0.1857,40.0000,77,97,477206
1.7498,0.1955,40.1300,77,97,477210
1.7400,0.1857,40.1300,77,97,477213
1.7546,0.1955,39.9600,77,97,477216
1.7107,0.1857,40.1000,77,97,477220
1.7302,0.1955,40.0300,77,97,477223
1.6911,0.1808,40.0600,77,97,477227
1.6911,0.1857,40.1300,77,97,477231
1.7009,0.1857,40.0600,77,97,477234
1.6862,0.1857,40.1300,77,97,477237
1.7107,0.1857,39.9300,77,97,477241
1.6764,0.1857,40.1300,77,97,477244
1.6764,0.1857,40.0000,77,97,477247
1.6862,0.1906,40.1000,77,97,477250
1.6813,0.1857,40.1300,77,97,477254
1.7253,0.1906,39.9300,77,97,477257
1.6911,0.1857,40.1000,77,97,477260
1.7009,0.1857,40.1300,77,97,477264
1.7253,0.1808,40.1000,77,97,477267
1.7058,0.1808,40.1300,77,97,477271
1.7595,0.2053,39.8900,77,97,477275
1.7351,0.1906,40.0300,77,97,477278
1.7253,0.1808,40.0600,77,97,477281
1.7351,0.1857,40.1300,77,97,477285
1.7400,0.1857,40.1000,77,97,477288
1.7840,0.1955,39.9300,77,97,477291
1.7449,0.1857,40.1000,77,97,477294
1.7644,0.1857,39.7000,77,97,477298
1.7498,0.1760,40.1300,77,97,477301
1.7644,0.1857,40.1300,77,97,477304
1.7840,0.1857,40.0000,77,97,477308
1.7693,0.1857,40.1300,77,97,477312
1.7889,0.1906,39.0900,77,97,477315
1.7644,0.1955,40.1000,77,97,477319
1.7644,0.1808,40.1300,77,97,477322
1.7791,0.1857,40.1000,77,97,477325
1.7791,0.1711,40.1000,77,97,477329
1.8084,0.1857,40.0000,77,97,477332
1.7791,0.1857,40.1000,77,97,477335
1.7840,0.1857,40.1300,77,97,477338
1.8182,0.1906,40.0000,77,97,477342
1.7889,0.1857,40.1600,77,97,477345
1.8231,0.1906,40.1000,77,97,477348
1.7986,0.2053,40.0300,77,97,477352
1.7889,0.1711,40.1300,77,97,477356
1.7986,0.1808,40.0600,77,97,477359
1.7937,0.1857,40.1300,77,97,477363
1.8426,0.1955,39.8600,77,97,477366
1.8280,0.2004,39.9600,77,97,477371
1.8084,0.1857,40.1000,77,97,477374
1.8084,0.1857,40.0300,77,97,477377
1.7840,0.1857,40.1600,77,97,477381
1.7742,0.1808,40.1300,77,97,477384
1.8035,0.1906,40.0600,77,97,477387
1.7840,0.1955,40.0600,77,97,477390
1.8328,0.1857,39.9600,77,97,477394
1.7742,0.1857,40.3600,77,97,477398
1.7889,0.1857,40.1300,77,97,477401
1.8035,0.1955,40.0000,77,97,477405
1.7693,0.1857,40.1600,77,97,477408
1.7986,0.1857,40.0000,77,97,477411
1.7644,0.1808,40.1300,77,97,477415
1.7644,0.2102,40.1300,77,97,477418
1.7742,0.1857,40.0300,77,97,477421
1.7595,0.1808,40.0600,77,97,477425
1.7937,0.1760,39.9300,77,97,477428
1.7595,0.1857,40.1000,77,97,477431
1.7546,0.1808,40.1300,77,97,477434
1.7595,0.1857,40.1000,77,97,477438
1.7498,0.1857,40.1300,77,97,477442
1.7937,0.1955,39.8600,77,97,477445
1.7546,0.1808,40.1000,77,97,477449
1.7595,0.1808,40.1300,77,97,477452
1.7937,0.1857,40.1000,77,97,477455
1.7546,0.1808,40.1300,77,97,477459
1.8035,0.2004,39.8900,77,97,477462
1.7644,0.1857,40.1000,77,97,477465
1.7546,0.1808,40.1300,77,97,477468
1.7644,0.1857,40.1000,77,97,477472
1.7546,0.1808,40.1300,77,97,477475
1.7889,0.1906,39.9300,77,97,477478
1.7498,0.1857,40.1000,77,97,477483
1.7644,0.1857,40.0000,77,97,477486
1.7791,0.1711,40.1300,77,97,477489
1.7498,0.1808,39.2500,77,97,477493
1.7693,0.1906,40.0300,77,97,477496
1.7546,0.1857,40.1600,77,97,477499
1.7791,0.1906,39.9600,77,97,477503
1.7595,0.1711,40.1300,77,97,477506
1.7595,0.1808,40.1300,77,97,477509
1.7644,0.1857,40.0600,77,97,477512
1.7595,0.1857,40.1300,77,97,477516
1.7791,0.1808,40.0000,77,97,477519
1.7449,0.1808,40.1600,77,97,477522
1.7595,0.1808,40.1300,77,97,477527
1.7742,0.1906,40.0300,77,97,477530
1.7546,0.1808,40.1600,77,97,477533
1.7937,0.1906,39.8900,77,97,477537
1.7693,0.1857,40.1000,77,97,477540
1.7644,0.1711,40.1300,77,97,477543
1.7644,0.2053,40.1600,77,97,477547
1.7840,0.1857,40.1000,77,97,477550
1.7937,0.1906,39.9600,77,97,477553
1.7498,0.1711,40.1000,77,97,477556
1.7498,0.1760,40.2000,77,97,477560
1.7498,0.1857,40.1000,77,97,477563
1.7400,0.1808,40.1300,77,97,477566
1.7937,0.2004,40.1600,77,97,477571
1.7693,0.1760,40.1000,77,97,477574
1.7644,0.1808,40.0600,77,97,477577
1.7693,0.1808,40.1300,77,97,477581
1.7889,0.1808,40.1300,77,97,477584
1.8280,0.1906,40.1300,77,97,477587
1.8084,0.1906,40.1000,77,97,477591
1.8426,0.1760,40.0000,77,97,477594
1.8035,0.1857,40.1600,77,97,477597
1.8133,0.1760,40.1300,77,97,477600
1.8573,0.1906,40.0000,77,97,477604
1.8377,0.1760,40.1300,77,97,477607
1.8671,0.1906,40.0300,77,97,477611
1.8328,0.1760,40.0600,77,97,477615
1.8328,0.1808,40.1300,77,97,477618
1.8280,0.1808,40.0600,77,97,477621
1.8133,0.2102,40.1000,77,97,477625
1.8377,0.1808,39.9300,77,97,477628
1.8035,0.1808,40.1300,77,97,477631
1.8035,0.1760,40.1000,77,97,477634
1.8133,0.1857,40.0300,77,97,477638
1.8035,0.1808,40.1600,77,97,477641
1.8328,0.1857,39.8900,77,97,477644
1.7889,0.1760,40.4000,77,97,477648
1.7889,0.1760,40.1300,77,97,477651
1.7889,0.1857,40.1000,77,97,477655
1.7742,0.2151,40.1300,77,97,477659
1.8280,0.1906,39.8600,77,97,477662
1.7791,0.1808,40.2600,77,97,477665
1.7546,0.1760,40.0600,77,97,477669
1.7449,0.1808,40.1600,77,97,477672
1.7351,0.1760,40.1300,77,97,477675
1.7791,0.1955,39.9300,77,97,477678
1.7400,0.1711,40.1000,77,97,477682
1.7449,0.1760,40.0300,77,97,477685
1.7400,0.1808,40.1300,77,97,477688
1.7449,0.1760,40.1600,77,97,477692
1.7742,0.1857,40.0300,77,97,477696
1.7449,0.1857,40.1000,77,97,477699
1.7595,0.1760,39.9600,77,97,477703
1.7253,0.1808,40.1300,77,97,477706
1.7302,0.1760,40.1300,77,97,477709
1.7351,0.1808,40.1600,77,97,477713
1.7351,0.1760,40.1300,77,97,477716
1.7693,0.1760,40.0600,77,97,477719
1.7351,0.1857,40.1300,77,97,477723
1.7449,0.1711,40.1300,77,97,477726
1.7644,0.1808,40.0600,77,97,477729
1.7693,0.1711,40.1300,77,97,477732
1.8328,0.1808,39.9300,77,97,477736
1.8719,0.1906,40.1000,77,97,477740
1.9453,0.1711,40.1300,77,97,477743
2.0479,0.1711,40.1000,77,97,477747
2.1212,0.1760,40.1300,77,97,477750
2.2825,0.2151,39.8600,77,97,477753
2.3607,0.1760,40.1000,77,97,477757
2.4927,0.1711,40.1600,77,97,477760
2.6100,0.1760,40.1300,77,97,477763
2.5855,0.1711,40.2600,77,97,477767
2.4878,0.2004,39.9600,77,97,477770
2.1848,0.1760,40.1000,77,97,477773
1.9159,0.1711,40.3000,77,97,477776
1.6764,0.1808,40.1300,77,97,477780
1.5445,0.1711,40.1300,77,97,477784
1.5591,0.1711,40.0300,77,97,477787
1.5103,0.1760,40.2000,77,97,477791
1.5543,0.1760,40.0000,77,97,477794
1.5738,0.1711,40.1000,77,97,477797
1.5982,0.1808,40.1600,77,97,477801
1.6422,0.1857,39.9600,77,97,477804
1.6129,0.1711,40.1300,77,97,477807
1.6618,0.1857,40.0300,77,97,477811
1.6178,0.1662,40.1000,77,97,477814
1.6178,0.1808,40.1300,77,97,477817
1.6325,0.1760,40.1300,77,97,477821
1.6227,0.1760,40.1300,77,97,477825
1.6520,0.1760,39.9300,77,97,477828
1.6227,0.1760,40.1000,77,97,477831
1.6276,0.1711,40.1300,77,97,477835
1.6373,0.1760,40.1300,77,97,477838
1.6422,0.1711,40.1000,77,97,477841
1.6716,0.1760,39.8900,77,97,477845
1.6325,0.1662,40.1000,77,97,477848
1.6422,0.1711,40.0300,77,97,477851
1.6569,0.1711,40.1000,77,97,477855
1.6422,0.1808,40.1600,77,97,477858
1.7253,0.1906,39.8900,77,97,477861
1.6569,0.1515,40.0600,77,97,477865
1.6569,0.1662,40.0000,77,97,477869
1.6471,0.1711,40.1300,77,97,477872
1.6618,0.1662,40.1300,77,97,477875
1.7204,0.1760,39.9600,77,97,477879
1.6618,0.1760,40.1000,77,97,477882
1.6764,0.1662,40.0300,77,97,477885
1.6569,0.1515,40.1300,77,97,477889
1.6667,0.1760,40.1300,77,97,477892
1.6911,0.1711,40.0300,77,97,477895
1.6764,0.1662,40.1600,77,97,477899
1.7058,0.1760,40.0000,77,97,477902
1.6911,0.1662,40.1600,77,97,477905
1.6911,0.1564,40.1300,77,97,477910
1.7107,0.1711,40.0600,77,97,477913
1.7009,0.1662,40.1300,77,97,477916
1.7302,0.1760,39.9300,77,97,477919
1.7204,0.1662,40.2600,77,97,477923
1.7302,0.1711,40.1300,77,97,477926
1.7498,0.1711,40.1000,77,97,477929
1.7302,0.1613,40.1000,77,97,477933
1.7840,0.1711,39.8900,77,97,477936
1.7693,0.1808,40.0300,77,97,477939
1.7644,0.1613,40.1600,77,97,477943
1.7840,0.1711,40.1000,77,97,477946
1.7840,0.1662,40.1300,77,97,477949
1.8426,0.1760,39.8300,77,97,477954
1.7986,0.1662,40.0600,77,97,477957
1.8035,0.1613,40.0600,77,97,477960
1.8280,0.1711,40.1300,77,97,477964
1.8182,0.1662,40.1300,77,97,477967
1.8671,0.1760,40.0000,77,97,477970
1.8328,0.1662,40.1000,77,97,477973
1.8426,0.1613,40.0000,77,97,477977
1.8377,0.1613,40.1600,77,97,477980
1.8426,0.1613,40.2600,77,97,477985
1.8475,0.1613,40.1300,77,97,477988
1.8671,0.1711,40.0300,77,97,477991
1.8377,0.1662,40.1000,77,97,477996
1.8671,0.1662,39.9300,77,97,477999
1.8524,0.1613,40.0000,77,97,478002
1.8231,0.1613,40.1300,77,97,478006
1.8280,0.1613,40.1000,77,97,478009
1.8084,0.1515,40.1300,77,97,478012
1.8426,0.1711,39.8900,77,97,478016
1.7840,0.1613,40.1000,77,97,478019
1.7644,0.1613,40.1300,77,97,478022
1.7546,0.1613,40.1000,77,97,478026
1.7302,0.1613,40.2600,77,97,478029
1.8035,0.1808,39.8900,77,97,478032
1.7058,0.1662,40.1300,77,97,478036
1.6862,0.1613,40.0600,77,97,478040
1.6618,0.1613,40.1000,77,97,478043
1.6422,0.1613,40.1600,77,97,478046
1.6618,0.1711,40.0000,77,97,478050
1.6178,0.1613,40.0600,77,97,478053
1.6080,0.1613,40.0300,77,97,478056
1.5787,0.1515,40.1300,77,97,478060
1.5689,0.1564,40.1300,77,97,478063
1.5836,0.1613,39.9600,77,97,478066
1.5494,0.1613,40.1600,77,97,478070
1.5738,0.1662,40.0300,77,97,478073
1.5347,0.1515,40.0600,77,97,478076
1.5347,0.1613,40.2300,77,97,478081
1.5396,0.1613,40.0600,77,97,478084
1.5298,0.1564,40.1600,77,97,478087
1.5543,0.1564,39.9300,77,97,478090
1.5249,0.1564,40.1300,77,97,478094
1.5249,0.1564,40.1300,77,97,478097
1.5396,0.1613,39.6000,77,97,478100
1.5298,0.1564,40.2300,77,97,478104
1.5738,0.1662,39.8900,77,97,478107
1.5396,0.1564,40.0600,77,97,478110
1.5543,0.1564,40.2600,77,97,478114
1.5787,0.1662,40.1000,77,97,478117
1.5494,0.1564,40.1300,77,97,478120
1.6031,0.1808,39.8600,77,97,478125
1.5787,0.1613,40.0300,77,97,478128
1.5640,0.1515,40.1000,77,97,478131
1.5689,0.1711,40.1000,77,97,478134
1.5738,0.1515,40.1300,77,97,478138
1.6178,0.1662,39.9300,77,97,478141
1.5836,0.1564,40.1300,77,97,478144
1.5934,0.1662,40.1000,77,97,478148
1.5836,0.1564,40.1300,77,97,478151
1.5885,0.1613,40.1600,77,97,478154
1.6129,0.1613,40.1000,77,97,478158
1.5982,0.1564,40.1300,77,97,478161
1.6227,0.1613,40.0000,77,97,478164
1.5982,0.1564,40.1600,77,97,478169
1.6178,0.1564,40.1000,77,97,478172
1.6080,0.1564,40.0600,77,97,478175
1.6031,0.1564,40.1000,77,97,478179
1.6276,0.1564,40.0000,77,97,478182
1.6031,0.1564,40.2000,77,97,478185
1.6080,0.1515,40.1300,77,97,478188
1.6373,0.1613,40.0000,77,97,478192
1.6080,0.1613,40.1300,77,97,478195
1.6422,0.1662,39.9300,77,97,478198
1.6178,0.1515,40.0300,77,97,478202
1.6129,0.1564,40.1600,77,97,478205
1.6276,0.1564,40.1000,77,97,478209
1.6325,0.1564,40.1300,77,97,478213
1.6716,0.1613,39.9600,77,97,478216
1.6569,0.1662,40.0600,77,97,478219
1.6276,0.1515,40.1300,77,97,478223
1.6227,0.1564,40.1000,77,97,478226
1.6178,0.1564,40.1000,77,97,478229
1.6569,0.1515,39.9600,77,97,478232
1.6080,0.1760,40.1000,77,97,478236
1.6178,0.1564,40.0300,77,97,478239
1.6031,0.1564,40.2000,77,97,478242
1.5982,0.1564,40.1300,77,97,478246
1.6178,0.1515,40.0300,77,97,478249
1.6080,0.1564,40.0600,77,97,478253
1.6178,0.1613,40.0000,77,97,478257
1.6031,0.1515,40.0300,77,97,478260
1.6080,0.1564,40.1300,77,97,478263
1.6422,0.1662,40.0000,77,97,478267
1.6080,0.1760,40.1000,77,97,478270
1.6276,0.1613,40.0300,77,97,478273
1.5982,0.1466,40.1300,77,97,478276
1.5934,0.1466,40.1600,77,97,478280
1.6080,0.1564,40.0600,77,97,478283
1.5982,0.1515,40.1600,77,97,478286
1.6325,0.1564,39.9300,77,97,478290
1.6129,0.1857,40.1000,77,97,478294
1.6227,0.1564,40.1300,77,97,478297
1.6325,0.1564,40.1000,77,97,478301
1.6520,0.1320,40.1300,77,97,478304
1.6716,0.1515,39.8900,77,97,478307
1.6618,0.1515,40.1000,77,97,478311
1.6373,0.1515,39.9600,77,97,478314
1.6471,0.1564,40.1000,77,97,478317
1.6373,0.1515,40.1000,77,97,478321
1.6911,0.1711,39.8900,77,97,478324
1.6520,0.1515,40.0300,77,97,478327
1.6471,0.1417,40.0600,77,97,478330
1.6422,0.1515,40.1300,77,97,478334
1.6471,0.1613,40.2300,77,97,478338
1.6764,0.1613,40.0000,77,97,478341
1.6422,0.1564,40.1300,77,97,478345
1.6618,0.1515,40.0000,77,97,478348
1.6422,0.1564,40.2300,77,97,478351
1.6471,0.1515,40.1300,77,97,478355
1.6667,0.1564,40.1000,77,97,478358
1.6520,0.1515,40.1300,77,97,478361
1.6813,0.1515,39.5700,77,97,478365
1.6569,0.1515,40.1300,77,97,478368
1.6618,0.1515,40.2300,77,97,478371
1.6716,0.1515,40.1000,77,97,478375
1.6618,0.1515,40.3300,77,97,478379
1.6862,0.1417,39.9300,77,97,478382
1.6618,0.1466,39.5400,77,97,478385
1.6667,0.1466,40.1300,77,97,478389
1.6764,0.1564,40.0600,77,97,478392
1.6618,0.1417,40.1300,77,97,478395
1.7009,0.1515,39.9600,77,97,478399
1.6716,0.1711,40.1000,77,97,478402
1.6569,0.1466,40.1300,77,97,478405
1.6520,0.1466,40.1000,77,97,478409
1.6520,0.1124,40.1000,77,97,478412
1.6960,0.1515,40.1300,77,97,478415
1.6471,0.1417,40.0600,77,97,478419
1.6667,0.1417,40.0600,77,97,478423
1.6764,0.1711,40.1600,77,97,478426
1.6862,0.1417,40.2000,77,97,478429
1.7351,0.1515,40.0300,77,97,478433
1.7009,0.1466,40.1000,77,97,478436
1.7204,0.1417,40.0300,77,97,478439
1.6911,0.1417,39.9600,77,97,478443
1.6960,0.1417,40.1300,77,97,478446
1.7204,0.1515,40.0600,77,97,478449
1.7058,0.1417,40.1300,77,97,478453
1.7204,0.1466,39.9600,77,97,478456
1.6813,0.1466,40.1300,77,97,478459
1.6764,0.1417,40.2000,77,97,478464
1.6862,0.1564,40.0000,77,97,478467
1.6471,0.1417,40.1300,77,97,478470
1.6618,0.1417,39.9300,77,97,478474
1.6422,0.1124,40.0300,77,97,478477
1.6422,0.1369,40.1600,77,97,478480
1.6618,0.1466,40.1000,77,97,478483
1.6471,0.1369,40.2600,77,97,478487
1.6764,0.1417,39.8900,77,97,478490
1.6373,0.1369,40.1300,77,97,478493
1.6373,0.1369,40.1000,77,97,478497
1.6325,0.1417,39.2200,77,97,478500
1.6178,0.1369,40.1300,77,97,478503
1.6520,0.1466,39.8300,77,97,478508
1.6031,0.1369,40.1000,77,97,478511
1.5934,0.1320,40.1000,77,97,478514
1.5885,0.1369,40.1000,77,97,478518
1.5885,0.1369,40.1300,77,97,478521
1.6325,0.1466,39.9600,77,97,478524
1.6080,0.1417,40.1000,77,97,478528
1.6080,0.1369,40.0600,77,97,478531
1.6031,0.1417,40.1300,77,97,478534
1.6031,0.1320,40.1600,77,97,478537
1.6373,0.1466,40.0300,77,97,478541
1.6129,0.1369,40.1000,77,97,478544
1.6325,0.1515,39.9600,77,97,478547
1.6129,0.1369,40.1600,77,97,478552
1.6178,0.1320,40.1000,77,97,478555
1.6422,0.1320,40.0300,77,97,478558
1.6276,0.1320,40.1300,77,97,478562
1.6569,0.1417,40.0000,77,97,478565
1.6422,0.1320,40.1300,77,97,478568
1.6520,0.1320,40.1000,77,97,478572
1.6764,0.1417,40.1000,77,97,478575
1.7009,0.1320,40.1600,77,97,478578
1.7791,0.1369,39.9300,77,97,478581
1.8573,0.1369,40.1300,77,97,478585
1.9257,0.1320,40.2300,77,97,478588
2.0235,0.1369,40.0600,77,97,478592
2.5220,0.1369,40.1000,77,97,478597
2.3803,0.1320,40.2000,77,97,478600
2.2092,0.1417,39.9300,77,97,478604
1.9062,0.1369,40.1000,77,97,478607
1.6764,0.1320,40.0300,77,97,478610
1.5054,0.1320,40.1300,77,97,478614
1.4418,0.1320,40.1600,77,97,478617
1.4761,0.1466,40.0300,77,97,478620
1.4956,0.1369,40.1300,77,97,478624
1.5591,0.1369,40.0300,77,97,478627
1.5689,0.1369,40.1300,77,97,478630
1.5934,0.1613,40.1300,77,97,478633
1.6178,0.1369,40.1000,77,97,478638
1.6178,0.1320,40.1300,77,97,478641
1.6422,0.1124,40.0000,77,97,478644
1.6227,0.1320,40.1600,77,97,478648
1.6373,0.1320,40.1000,77,97,478651
1.6422,0.1417,40.1000,77,97,478654
1.6471,0.1320,40.1300,77,97,478658
1.6667,0.1417,39.8900,77,97,478661
1.6422,0.1417,40.0300,77,97,478664
1.6373,0.1320,40.1300,77,97,478668
1.6422,0.1417,40.1000,77,97,478671
1.6471,0.1320,40.1300,77,97,478674
1.6960,0.1417,39.9300,77,97,478679
1.6764,0.1320,40.0600,77,97,478682
1.6618,0.1271,40.1300,77,97,478685
1.6667,0.1564,40.1600,77,97,478688
1.6618,0.1124,40.1300,77,97,478692
1.7155,0.1515,39.9600,77,97,478695
1.6764,0.1369,40.1000,77,97,478698
1.6911,0.1320,40.0300,77,97,478702
1.6911,0.1369,40.1300,77,97,478705
1.6862,0.1320,40.1300,77,97,478708
1.7253,0.1466,40.1000,77,97,478712
1.7204,0.1369,40.1000,77,97,478715
1.7351,0.1320,39.3200,77,97,478718
1.7204,0.1124,40.1300,77,97,478723
1.7253,0.1320,40.0600,77,97,478726
1.7595,0.1515,40.0000,77,97,478729
1.7400,0.1320,40.1300,77,97,478732
1.7791,0.1320,39.9600,77,97,478736
1.7889,0.1222,40.0600,77,97,478739
1.7595,0.1320,40.1300,77,97,478742
1.7644,0.1466,40.0300,77,97,478746
1.7595,0.1124,40.1300,77,97,478749
1.7937,0.1320,39.9600,77,97,478752
1.7693,0.1320,40.1300,77,97,478756
1.7742,0.1320,40.1300,77,97,478759
1.7937,0.1417,40.1300,77,97,478763
1.7986,0.1320,40.1300,77,97,478767
1.8426,0.1369,39.9600,77,97,478770
1.8084,0.1124,40.1000,77,97,478773
1.8182,0.1320,40.2000,77,97,478776
1.8231,0.1271,40.1000,77,97,478780
1.8231,0.1320,40.0000,77,97,478783
1.8817,0.1417,39.8900,77,97,478786
1.8524,0.1320,40.0600,77,97,478790
1.8524,0.1271,40.1000,77,97,478793
1.8524,0.1369,40.1000,77,97,478796
1.8622,0.1320,40.1300,77,97,478800
1.9013,0.1417,39.9600,77,97,478803
1.8719,0.1271,40.2300,77,97,478807
1.8964,0.1369,40.0000,77,97,478811
1.8768,0.1320,40.2600,77,97,478814
1.8768,0.1369,40.1300,77,97,478817
1.9013,0.1417,40.0300,77,97,478821
1.8817,0.1417,40.1600,77,97,478824
1.9208,0.1417,40.0300,77,97,478827
1.8817,0.1320,40.2300,77,97,478830
1.8817,0.1369,40.1300,77,97,478834
1.8866,0.1320,40.1000,77,97,478837
1.8768,0.1271,40.1300,77,97,478840
1.9013,0.1124,39.9300,77,97,478844
1.8671,0.1369,40.1300,77,97,478848
1.8671,0.1320,40.1300,77,97,478851
1.8719,0.1417,40.0300,77,97,478855
1.8475,0.1320,40.1000,77,97,478858
1.8719,0.1369,39.8600,77,97,478861
1.8280,0.1466,40.0300,77,97,478865
1.7937,0.1320,40.2300,77,97,478868
1.7742,0.1320,40.1000,77,97,478871
1.7595,0.1320,40.2000,77,97,478874
1.7937,0.1417,39.8600,77,97,478878
1.7302,0.1320,40.0600,77,97,478881
1.7058,0.1271,40.1300,77,97,478884
1.6911,0.1369,40.1000,77,97,478888
1.6667,0.1320,40.1300,77,97,478892
1.6960,0.1417,39.9600,77,97,478895
1.6520,0.1320,40.1300,77,97,478899
1.6471,0.1320,40.0000,77,97,478902
1.6325,0.1369,40.1300,77,97,478905
1.6129,0.1320,40.1000,77,97,478909
1.6373,0.1320,40.0300,77,97,478912
1.6080,0.1320,40.1000,77,97,478915
1.6178,0.1320,40.0000,77,97,478918
1.5934,0.1320,40.1300,77,97,478922
1.5934,0.1320,40.1300,77,97,478925
1.6129,0.1417,40.1000,77,97,478928
1.5836,0.1320,40.1300,77,97,478932
1.6129,0.1369,40.0600,77,97,478936
1.5885,0.1222,40.0600,77,97,478939
1.5934,0.1320,40.1300,77,97,478943
1.6276,0.1369,40.0300,77,97,478946
1.6080,0.1320,40.1600,77,97,478949
1.6373,0.1369,39.8900,77,97,478953
1.6129,0.1320,40.1000,77,97,478956
1.6178,0.1320,40.1300,77,97,478959
1.6325,0.1369,40.1000,77,97,478962
1.6227,0.1320,40.2300,77,97,478966
1.6618,0.1369,39.8600,77,97,478969
1.6325,0.1369,40.1000,77,97,478972
1.6276,0.1271,40.1300,77,97,478977
1.6373,0.1369,40.1300,77,97,478980
1.6325,0.1271,40.1300,77,97,478983
1.6813,0.1417,39.9600,77,97,478987
1.6569,0.1369,40.0600,77,97,478990
1.6471,0.1369,40.0300,77,97,478993
1.6471,0.1320,40.1300,77,97,478997
1.6520,0.1320,40.1300,77,97,479000
1.6960,0.1466,39.9600,77,97,479003
1.6618,0.1369,40.2000,77,97,479007
1.6862,0.1271,40.0000,77,97,479010
1.6618,0.1369,40.1600,77,97,479013
1.6667,0.1320,40.1600,77,97,479016
1.7009,0.1466,40.0300,77,97,479021
1.6764,0.1369,40.1300,77,97,479024
1.6960,0.1417,40.1300,77,97,479027
1.6667,0.1320,40.1300,77,97,479031
1.6716,0.1320,40.2300,77,97,479034
1.6716,0.1369,40.0600,77,97,479037
1.6618,0.1320,40.1300,77,97,479041
1.6862,0.1564,39.9300,77,97,479044
1.6569,0.1320,40.2600,77,97,479047
1.6569,0.1320,40.1300,77,97,479051
1.6813,0.1124,40.0600,77,97,479054
1.6569,0.1613,40.1000,77,97,479057
1.6960,0.1320,39.8900,77,97,479060
1.6667,0.1369,40.2300,77,97,479065
1.6520,0.1515,40.1300,77,97,479068
1.6569,0.1369,40.1000,77,97,479071
1.6422,0.1320,40.1600,77,97,479075
1.6862,0.1515,39.8600,77,97,479078
1.6422,0.1271,40.0300,77,97,479081
1.6667,0.1124,40.0600,77,97,479085
1.6276,0.1320,39.8300,77,97,479088
1.6227,0.1369,40.1300,77,97,479091
1.6569,0.1417,39.9600,77,97,479095
1.6178,0.1564,40.1000,77,97,479098
1.6325,0.1320,40.0300,77,97,479101
1.6129,0.1320,40.1300,77,97,479105
1.6129,0.1369,40.1300,77,97,479109
1.6227,0.1369,40.0600,77,97,479112
1.6227,0.1369,40.1300,77,97,479115
1.6227,0.1369,40.0300,77,97,479119
1.5885,0.1320,40.1600,77,97,479122
1.5934,0.1271,40.0600,77,97,479125
1.6325,0.1320,40.0300,77,97,479129
1.5836,0.1320,40.1000,77,97,479132
1.6325,0.1320,39.9600,77,97,479135
1.5885,0.1320,40.1300,77,97,479139
1.5836,0.1320,40.1600,77,97,479142
1.5934,0.1369,40.1300,77,97,479145
1.5787,0.1271,40.1000,77,97,479150
1.6129,0.1369,39.8900,77,97,479153
1.5836,0.1320,40.0600,77,97,479156
1.5689,0.1222,40.0600,77,97,479159
1.5787,0.1320,40.1000,77,97,479163
1.5640,0.1271,40.0600,77,97,479166
1.6031,0.1417,39.8300,77,97,479169
1.5640,0.1320,40.1000,77,97,479173
1.5591,0.1222,40.0300,77,97,479176
1.5982,0.1320,40.1300,77,97,479179
1.5543,0.1320,40.1600,77,97,479183
1.5934,0.1466,39.9600,77,97,479186
1.5640,0.1320,40.0000,77,97,479190
1.5543,0.1271,40.0300,77,97,479194
1.5396,0.1320,39.6400,77,97,479197
1.5396,0.1173,40.1300,77,97,479200
1.5738,0.1369,39.9600,76,97,479203
1.5494,0.1320,39.9600,76,97,479208
1.5298,0.1320,40.1300,76,97,479212
1.5445,0.1271,39.9300,76,97,479215
1.5200,0.1613,40.0300,76,97,479218
1.5200,0.1271,40.1300,76,97,479221
1.5200,0.1320,40.1000,76,97,479225
1.5103,0.1271,40.3000,76,97,479228
1.5347,0.1369,39.8900,76,97,479232
1.4907,0.1271,40.1300,76,97,479236
1.5152,0.1271,40.1300,76,97,479239
1.4907,0.1320,40.1600,76,97,479242
1.4907,0.1271,40.1300,76,97,479246
1.5200,0.1417,39.8600,76,97,479249
1.5054,0.1320,39.9600,76,97,479252
1.5005,0.1222,40.1000,76,97,479255
1.5005,0.1271,40.1300,76,97,479259
1.5103,0.1222,40.1300,76,97,479262
1.5591,0.1369,39.9300,76,97,479265
1.5005,0.1271,40.0600,76,97,479269
1.4956,0.1271,40.0300,76,97,479272
1.4907,0.1271,40.2300,76,97,479276
1.4956,0.1466,40.1300,76,97,479280
1.5200,0.1320,39.9600,76,97,479283
1.4956,0.1271,40.1300,76,97,479286
1.5152,0.1222,39.9600,76,97,479290
1.4712,0.1222,40.1300,76,97,479293
1.4565,0.1222,40.1600,76,97,479296
1.4516,0.1515,40.0600,76,97,479300
1.4370,0.1222,40.1600,76,97,479303
1.4516,0.1222,39.9600,76,97,479306
1.4223,0.1222,40.2000,76,97,479309
1.4272,0.1222,40.1600,76,97,479313
1.4418,0.1271,40.0600,76,97,479316
1.4223,0.1173,40.1300,76,97,479320
1.4418,0.1222,39.8900,76,97,479324
1.4272,0.1417,40.1000,76,97,479327
1.4076,0.1124,40.1300,76,97,479330
1.4076,0.1271,40.1000,76,97,479334
1.3881,0.1173,40.1300,76,97,479337
1.4223,0.1271,39.8000,76,97,479340
1.3783,0.1222,40.0600,76,97,479344
1.3685,0.1124,40.1000,76,97,479347
1.3636,0.1222,40.1300,76,97,479350
1.3587,0.1173,40.2300,76,97,479354
1.3930,0.1369,40.0000,76,97,479357
1.3636,0.1222,40.1000,76,97,479361
1.3685,0.1173,40.0000,76,97,479364
1.3881,0.1222,40.1000,76,97,479368
1.3587,0.1173,40.4000,76,97,479371
1.3783,0.1320,40.0600,76,97,479374
1.3636,0.1222,40.1300,76,97,479378
1.3783,0.1369,40.0300,76,97,479381
1.3587,0.1173,40.1300,76,97,479384
1.3636,0.1222,40.1300,76,97,479388
1.3930,0.1271,40.0000,76,97,479391
1.3636,0.1173,40.1300,76,97,479394
1.3978,0.1173,40.0000,76,97,479398
1.3832,0.1173,40.2300,76,97,479401
1.4076,0.1173,40.1300,76,97,479405
1.4614,0.1369,40.0300,76,97,479409
1.5054,0.1173,40.1300,76,97,479412
1.6325,0.1222,40.0000,76,97,479415
1.7204,0.1271,40.1000,76,97,479418
1.7840,0.1173,40.1300,76,97,479422
1.9110,0.1222,40.0600,76,97,479425
2.0381,0.1173,40.1300,76,97,479428
2.2239,0.1271,39.9600,76,97,479432
2.2678,0.1173,40.1000,76,97,479435
2.2287,0.1124,40.1300,76,97,479438
2.0479,0.1466,40.1000,76,97,479442
1.7791,0.1124,40.1300,76,97,479446
1.5543,0.1369,39.9300,76,97,479449
1.3099,0.1124,40.0600,76,97,479453
1.1828,0.1124,39.3200,76,97,479456
1.1486,0.1124,40.1600,76,97,479459
1.1584,0.1173,40.0300,76,97,479462
1.2072,0.1271,39.9600,76,97,479466
1.2170,0.1222,40.1000,76,97,479469
1.2512,0.1173,40.0300,76,97,479472
1.2561,0.1173,40.1300,76,97,479476
1.2610,0.1124,40.0300,76,97,479479
1.2757,0.1124,40.0300,76,97,479482
1.2659,0.1173,40.0600,76,97,479486
1.2903,0.1222,40.1000,76,97,479490
1.2659,0.1173,40.1300,76,97,479493
1.2659,0.1417,40.1300,76,97,479497
1.2757,0.1124,40.0600,76,97,479500
1.2708,0.1173,40.2600,76,97,479503
1.2903,0.1075,39.9300,76,97,479506
1.2757,0.1173,40.2300,76,97,479510
1.2805,0.1075,40.1600,76,97,479513
1.2903,0.1124,40.1000,76,97,479516
1.2757,0.1124,40.1600,76,97,479520
1.3099,0.1124,39.8900,76,97,479523
1.3001,0.1173,40.0600,76,97,479526
1.2952,0.1173,40.1600,76,97,479531
1.3050,0.1173,40.1000,76,97,479534
1.3050,0.1124,40.2000,76,97,479537
1.3539,0.1613,39.8900,76,97,479541
1.3245,0.1173,40.1000,76,97,479544
1.3196,0.1466,40.1000,76,97,479547
1.3294,0.1124,40.1300,76,97,479550
1.3294,0.1173,40.3300,76,97,479554
1.3636,0.1222,39.9600,76,97,479557
1.3392,0.1173,40.3600,76,97,479560
1.3539,0.1222,40.0000,76,97,479564
1.3441,0.1075,40.1300,76,97,479567
1.3490,0.1026,40.1300,76,97,479570
1.3734,0.1222,40.0600,76,97,479575
1.3636,0.1124,40.1600,76,97,479578
1.3881,0.1173,40.0000,76,97,479581
1.3636,0.1173,40.1300,76,97,479585
1.3783,0.1124,40.1300,76,97,479588
1.3978,0.1222,40.0000,76,97,479591
1.3783,0.1124,40.1300,76,97,479595
1.4027,0.1124,39.9300,76,97,479598
1.3881,0.1173,40.0300,76,97,479601
1.3930,0.1124,40.1300,76,97,479604
1.4076,0.1222,40.0300,76,97,479608
1.4027,0.1124,40.1300,76,97,479611
1.4370,0.1173,39.8900,76,97,479614
1.4174,0.1173,40.1000,76,97,479619
1.4174,0.1271,40.1600,76,97,479622
1.4272,0.1173,40.1000,76,97,479625
1.4223,0.1075,40.1600,76,97,479629
1.4663,0.1222,39.8300,76,97,479632
1.4321,0.1515,40.1000,76,97,479635
1.4272,0.1075,40.1000,76,97,479639
1.4370,0.1124,40.1600,76,97,479642
1.4321,0.1124,40.1600,76,97,479645
1.4712,0.1320,40.0000,76,97,479649
1.4370,0.1173,40.1000,76,97,479652
1.4418,0.1124,40.2600,76,97,479655
1.4223,0.1124,40.1300,76,97,479660
1.4174,0.1124,40.1000,76,97,479663
1.4418,0.1173,39.9600,76,97,479666
1.4027,0.1222,40.0600,76,97,479669
1.4223,0.1173,40.0000,76,97,479673
1.3881,0.1124,40.2000,76,97,479676
1.3930,0.1075,40.1300,76,97,479679
1.4027,0.1173,40.0300,76,97,479683
1.4027,0.1075,40.1300,76,97,479686
1.3930,0.1124,40.0000,76,97,479689
1.3587,0.1271,40.0000,76,97,479693
1.3685,0.1124,40.1600,76,97,479696
1.3490,0.1124,40.1000,76,97,479699
1.3294,0.1173,40.2300,76,97,479704
1.3441,0.1173,39.9600,76,97,479707
1.3343,0.1075,40.1300,76,97,479710
1.2854,0.1124,40.1300,76,97,479713
1.2757,0.1222,40.1000,76,97,479717
1.2463,0.1124,40.2300,76,97,479720
1.2610,0.1173,39.8300,76,97,479723
1.2219,0.1124,40.2600,76,97,479727
1.1975,0.1075,40.1000,76,97,479730
1.1926,0.1124,40.1300,76,97,479733
1.1681,0.1320,40.1300,76,97,479737
1.1828,0.1222,39.9300,76,97,479740
1.1437,0.1173,40.1600,76,97,479744
1.1388,0.1124,40.0600,76,97,479748
1.1193,0.1124,40.3300,76,97,479751
1.1144,0.1173,40.1300,76,97,479754
1.1290,0.1173,40.0300,76,97,479758
1.1095,0.1075,40.2300,76,97,479761
1.1241,0.1173,40.0000,76,97,479764
1.1046,0.1124,40.2000,76,97,479767
1.1095,0.1075,40.1300,76,97,479771
1.1144,0.1124,40.0600,76,97,479774
1.0997,0.1124,40.1000,76,97,479777
1.1095,0.1173,40.0600,76,97,479781
1.0850,0.1124,40.1300,76,97,479784
1.0802,0.1075,40.0300,76,97,479788
1.0899,0.1173,40.0300,76,97,479792
1.0753,0.1075,40.1300,76,97,479795
1.0948,0.1271,39.8900,76,97,479798
1.0997,0.1124,40.0300,76,97,479801
1.0948,0.1075,40.1300,76,97,479805
1.1095,0.1124,40.0000,76,97,479808
1.1046,0.1124,40.1300,76,97,479811
1.1486,0.1124,39.8600,76,97,479815
1.1877,0.1222,39.9600,76,97,479819
1.1632,0.1026,40.1000,76,97,479823
1.1730,0.1026,40.0600,76,97,479826
1.1681,0.1124,40.2300,76,97,479830
1.1730,0.1075,40.1600,76,97,479834
1.1975,0.1173,40.0000,76,97,479837
1.1877,0.1124,40.1600,76,97,479840
1.2023,0.1075,40.0300,76,97,479844
1.1877,0.1075,40.1000,76,97,479847
1.2317,0.1075,40.1000,76,97,479850
1.2268,0.1173,40.0000,76,97,479853
1.2121,0.1173,40.1300,76,97,479857
1.2268,0.1124,40.0300,76,97,479860
1.2170,0.1026,40.0600,76,97,479863
1.2268,0.1124,40.1300,76,97,479867
1.2414,0.1124,40.0300,76,97,479870
1.2659,0.1026,40.1300,76,97,479874
1.2512,0.1075,39.9600,76,97,479878
1.2414,0.1026,40.0300,76,97,479881
1.2317,0.1075,40.1300,76,97,479884
1.2414,0.1075,40.0600,76,97,479888
1.2414,0.0978,40.1300,76,97,479891
1.2757,0.1124,39.8900,76,97,479894
1.2414,0.1075,40.1000,76,97,479897
1.2561,0.1075,40.1300,76,97,479901
1.2610,0.1124,40.0300,76,97,479904
1.2561,0.1075,40.1300,76,97,479907
1.2952,0.1222,39.8600,76,97,479911
1.2805,0.1124,40.0600,76,97,479915
1.2659,0.1026,40.2000,76,97,479918
1.2903,0.0929,40.1300,76,97,479922
1.2659,0.0733,40.1300,76,97,479925
1.3001,0.1124,40.0000,76,97,479928
1.2708,0.1124,40.1000,76,97,479932
1.2805,0.1075,40.0600,76,97,479935
1.2708,0.1026,40.1600,76,97,479938
1.2805,0.0929,40.1300,76,97,479941
1.3050,0.1124,40.0000,76,97,479945
1.2854,0.1124,40.1300,76,97,479948
1.3099,0.0929,40.0000,76,97,479951
1.2903,0.1075,40.1300,76,97,479955
1.2952,0.1075,40.1300,76,97,479959
1.3099,0.1075,40.1000,76,97,479962
1.3001,0.1075,40.0600,76,97,479966
1.3196,0.1320,40.0300,76,97,479969
1.3001,0.1075,40.0600,76,97,479972
1.3099,0.1026,40.1000,76,97,479975
1.3490,0.1173,40.0000,76,97,479979
1.3099,0.1075,40.2600,76,97,479982
1.3343,0.1026,39.9300,76,97,479985
1.3196,0.1075,39.9600,76,97,479989
1.3196,0.1026,40.1000,76,97,479992
1.3343,0.1124,40.1000,76,97,479995
1.3245,0.1075,40.1300,76,97,480000
1.3539,0.1173,39.8600,76,97,480003
1.3294,0.1271,40.1000,76,97,480006
1.3294,0.1075,40.1300,76,97,480010
1.3343,0.1075,40.1300,76,97,480013
1.3294,0.1173,40.1300,76,97,480016
1.3783,0.1124,39.8900,76,97,480019
1.3392,0.0978,40.0600,76,97,480023
1.3392,0.0929,40.0600,76,97,480026
1.3392,0.1075,40.2600,76,97,480029
1.3636,0.0929,40.1300,76,97,480033
1.3734,0.1124,40.0600,76,97,480036
1.3539,0.1124,40.1000,76,97,480039
1.3685,0.1026,40.0000,76,97,480044
1.3490,0.1222,40.1000,76,97,480047
1.3539,0.0929,40.1300,76,97,480050
1.3734,0.1124,39.9600,76,97,480054
1.3490,0.1075,40.1600,76,97,480057
1.3783,0.1124,40.0300,76,97,480060
1.3636,0.1075,40.1600,76,97,480063
1.3881,0.1075,40.1300,76,97,480067
1.4027,0.1124,40.0600,76,97,480070
1.3978,0.1075,40.2300,76,97,480073
1.4272,0.1026,39.9600,76,97,480077
1.4076,0.1075,40.1000,76,97,480080
1.4076,0.0929,40.1300,76,97,480083
1.4174,0.1075,40.1000,76,97,480088
1.4125,0.1026,40.1000,76,97,480091
1.4418,0.1026,39.8900,76,97,480094
1.4076,0.1026,40.1300,76,97,480098
1.4272,0.1026,40.1300,76,97,480101
1.4027,0.1075,40.1000,76,97,480104
1.3783,0.1075,40.1300,76,97,480107
1.4076,0.1124,39.8600,76,97,480111
1.3783,0.1075,40.0600,76,97,480114
1.3734,0.1320,40.1000,76,97,480117
1.3832,0.1026,39.2200,76,97,480121
1.3881,0.1222,40.1300,76,97,480124
1.4370,0.1124,39.9300,76,97,480128
1.4027,0.1075,40.1300,76,97,480132
1.4076,0.0978,40.0300,76,97,480135
1.4027,0.1026,40.2300,76,97,480138
1.3978,0.1026,40.1300,76,97,480142
1.4223,0.1075,39.9600,76,97,480145
1.3978,0.1026,40.2000,76,97,480148
1.4125,0.1271,39.9600,76,97,480151
1.3978,0.0978,40.1300,76,97,480155
1.3881,0.1075,40.1300,76,97,480158
1.4027,0.1026,40.0600,76,97,480161
1.3930,0.1026,40.1300,76,97,480165
1.4125,0.1320,40.0300,76,97,480168
1.3832,0.1026,40.1300,76,97,480172
1.3978,0.0978,40.1000,76,97,480176
1.4223,0.1124,40.0300,76,97,480179
1.3978,0.0978,40.3600,76,97,480182
1.4223,0.0978,39.9300,76,97,480185
1.4272,0.0978,40.0300,76,97,480189
1.4076,0.0978,40.1300,76,97,480192
1.4223,0.1075,40.1000,76,97,480195
1.4125,0.0733,40.1300,76,97,480199
1.4516,0.1026,39.8300,76,97,480202
1.4321,0.0978,40.0600,76,97,480205
1.4272,0.0929,40.1600,76,97,480209
1.4418,0.1075,40.2300,76,97,480212
1.4663,0.0929,40.1600,76,97,480216
1.5494,0.1026,39.8600,76,97,480220
1.5787,0.0929,40.0600,76,97,480223
1.6716,0.0880,40.1600,76,97,480226
1.7644,0.0880,40.1300,76,97,480229
1.8573,0.0929,40.1300,76,97,480233
2.0235,0.1075,40.0600,76,97,480236
2.1163,0.0978,40.1000,76,97,480239
2.2434,0.0831,40.1000,76,97,480243
2.3314,0.0929,40.2000,76,97,480246
2.2923,0.0929,40.1600,76,97,480249
2.1505,0.1075,39.9600,76,97,480253
1.8524,0.0929,40.1600,76,97,480257
1.5982,0.0978,40.0000,76,97,480260
1.4076,0.0929,40.1300,76,97,480263
1.2757,0.0929,40.1300,76,97,480267
1.2708,0.1075,40.1000,76,97,480270
1.3050,0.0978,40.1000,76,97,480273
1.3245,0.1026,40.0300,76,97,480277
1.3196,0.0929,40.1600,76,97,480280
1.3392,0.0929,40.1300,76,97,480283
1.3636,0.0929,39.7700,76,97,480287
1.3636,0.0880,40.1600,76,97,480290
1.3881,0.0831,39.9600,76,97,480293
1.3734,0.0929,40.1300,76,97,480296
1.3783,0.0929,40.1300,76,97,480301
1.3930,0.0978,40.0600,76,97,480304
1.3881,0.0978,40.1300,76,97,480307
1.4223,0.0929,39.8900,76,97,480311
1.4223,0.0978,40.0600,76,97,480314
1.4174,0.1320,40.1000,76,97,480317
1.4272,0.0978,40.1300,76,97,480321
1.4223,0.0929,40.1600,76,97,480324
1.4907,0.0978,39.8300,76,97,480327
1.4418,0.0929,40.0000,76,97,480331
1.4418,0.1222,40.1300,76,97,480334
1.4516,0.0929,40.1000,76,97,480337
1.4565,0.0929,40.1000,76,97,480340
1.5054,0.0929,39.9600,76,97,480345
1.4712,0.0929,40.1000,76,97,480348
1.4712,0.0929,39.9600,76,97,480351
1.4761,0.0978,40.1300,76,97,480355
1.4712,0.0929,40.0600,76,97,480358
1.5005,0.1026,40.0300,76,97,480361
1.4907,0.0978,40.1000,76,97,480365
1.5054,0.0978,40.0300,76,97,480368
1.4907,0.1026,40.1600,76,97,480371
1.4956,0.1026,40.1300,76,97,480374
1.5249,0.1026,39.9600,76,97,480378
1.5103,0.1026,40.2300,76,97,480381
1.5249,0.0978,40.0300,76,97,480385
1.5054,0.0929,40.1000,76,97,480389
1.5103,0.0978,40.1300,76,97,480392
1.5298,0.1026,40.0300,76,97,480395
1.5152,0.0978,40.1600,76,97,480399
1.5445,0.0978,40.0000,76,97,480402
1.5249,0.0929,40.0600,76,97,480405
1.5347,0.0929,40.1300,76,97,480408
1.5445,0.1320,40.0600,76,97,480412
1.5396,0.0978,40.1300,76,97,480415
1.5689,0.1026,39.9600,76,97,480418
1.5543,0.0880,40.1600,76,97,480422
1.5640,0.0978,40.1300,76,97,480425
1.5885,0.1026,40.1000,76,97,480429
1.5982,0.0978,40.1600,76,97,480434
1.5982,0.1026,40.1300,76,97,480437
1.6471,0.1075,39.9600,76,97,480441
1.6129,0.1173,40.1000,76,97,480444
1.6276,0.0978,40.0300,76,97,480447
1.6178,0.0978,40.1300,76,97,480451
1.6178,0.1026,40.2300,76,97,480454
1.6471,0.1026,39.9600,76,97,480457
1.6227,0.0978,40.1600,76,97,480460
1.6373,0.0978,40.0000,76,97,480464
1.6178,0.0929,40.1600,76,97,480467
1.6178,0.1026,40.1300,76,97,480471
1.6227,0.0978,40.0600,76,97,480475
1.6129,0.0978,40.3300,76,97,480478
1.6373,0.0929,40.0000,76,97,480481
1.6031,0.0929,40.1600,76,97,480485
1.5982,0.0929,39.8600,76,97,480488
1.6080,0.0929,40.0000,76,97,480491
1.5787,0.0929,40.0600,76,97,480494
1.5836,0.0978,39.9300,76,97,480498
1.5494,0.0978,40.0300,76,97,480501
1.5249,0.0929,40.1300,76,97,480504
1.5054,0.1026,40.1000,76,97,480508
1.4761,0.0978,40.1300,76,97,480512
1.4956,0.1026,39.8900,76,97,480515
1.4565,0.0929,40.0600,76,97,480519
1.4321,0.0733,40.1600,76,97,480522
1.4272,0.0978,40.1000,76,97,480525
1.4125,0.0978,40.1300,76,97,480528
1.4712,0.1124,39.9600,76,97,480532
1.3978,0.0978,40.1000,76,97,480535
1.4223,0.0880,40.0600,76,97,480538
1.3930,0.0978,40.1300,76,97,480542
1.3783,0.1320,40.1300,76,97,480545
1.4125,0.1075,40.0000,76,97,480548
1.3832,0.1026,40.1000,76,97,480552
1.3881,0.0929,40.1000,76,97,480556
1.3636,0.0978,40.1300,76,97,480559
1.3832,0.0929,40.1000,76,97,480563
1.4418,0.1026,39.9600,76,97,480566
1.3832,0.0978,40.0600,76,97,480569
1.3978,0.0978,40.0300,76,97,480572
1.3783,0.0929,40.1600,76,97,480576
1.3832,0.0929,40.1300,76,97,480579
1.4174,0.1124,40.1000,76,97,480582
1.3930,0.0929,40.1300,76,97,480586
1.4272,0.0929,39.2200,76,97,480589
1.4370,0.0978,40.1000,76,97,480592
1.4125,0.0929,40.1300,76,97,480596
1.4223,0.0978,40.0300,76,97,480600
1.4125,0.0978,40.1300,76,97,480603
1.4467,0.0978,39.9300,76,97,480607
1.4223,0.0929,40.1300,76,97,480610
1.4272,0.0929,40.1300,76,97,480613
1.4565,0.1026,40.0600,76,97,480616
1.4370,0.0929,40.0600,76,97,480620
1.4858,0.1026,39.8600,76,97,480623
1.4712,0.0978,40.0300,76,97,480626
1.4663,0.0929,40.1300,76,97,480630
1.4712,0.0978,40.1300,76,97,480633
1.4761,0.0978,40.1300,76,97,480636
1.5396,0.1124,39.9300,76,97,480641
1.4956,0.1075,40.0600,76,97,480644
1.5054,0.0978,40.0600,76,97,480647
1.5054,0.0978,40.1300,76,97,480651
1.5005,0.0978,40.1300,76,97,480654
1.5445,0.1026,40.0000,76,97,480657
1.5298,0.0978,40.0600,76,97,480660
1.5396,0.0929,40.0000,76,97,480664
1.5249,0.0978,40.1600,76,97,480667
1.5298,0.1026,40.1300,76,97,480670
1.5591,0.1026,40.0600,76,97,480674
1.5543,0.0978,40.1000,76,97,480677
1.5836,0.1222,40.0000,76,97,480680
1.5738,0.0929,40.2000,76,97,480685
1.5982,0.0978,40.0600,76,97,480688
1.6422,0.1124,40.0000,76,97,480691
1.6422,0.0978,40.1300,76,97,480694
1.7058,0.0978,40.0300,76,97,480698
1.7449,0.0978,40.1300,76,97,480701
1.8377,0.0929,40.1300,76,97,480704
1.9697,0.1026,40.0300,76,97,480708
2.0723,0.0978,40.1300,76,97,480711
2.2483,0.1026,39.8900,76,97,480714
2.3412,0.0978,40.0600,76,97,480718
2.4389,0.0929,40.1300,76,97,480721
2.5464,0.1026,40.0000,76,97,480724
2.6002,0.0880,40.0600,76,97,480728
2.7175,0.1026,39.8600,76,97,480732
2.7028,0.0978,40.2600,76,97,480735
2.7566,0.0978,40.1300,76,97,480738
2.8201,0.1026,40.1000,76,97,480742
2.8592,0.0978,40.0600,76,97,480745
3.0010,0.1124,39.8900,76,97,480748
3.0205,0.0978,40.0000,76,97,480752
3.0205,0.0929,40.1000,76,97,480755
3.0645,0.0978,40.1600,76,97,480758
3.1232,0.1026,40.1300,76,97,480761
3.3089,0.0929,39.9300,76,97,480765
3.3236,0.1026,40.1000,76,97,480769
3.4360,0.1075,40.0600,76,97,480772
3.5044,0.0929,40.1300,76,97,480776
3.5386,0.1026,40.2600,76,97,480779
3.4995,0.1026,39.9600,76,97,480782
3.2405,0.0978,40.1300,76,97,480786
2.9668,0.0978,40.0000,76,97,480789
2.5758,0.1222,40.1600,76,97,480792
2.2190,0.0978,40.1600,76,97,480795
1.8475,0.1026,40.0300,76,97,480799
1.4614,0.0978,40.1300,76,97,480802
1.1339,0.1026,40.0300,76,97,480805
0.8651,0.1026,40.1000,76,97,480809
0.6940,0.0978,40.1300,76,97,480813
0.5865,0.0733,40.0300,76,97,480816
0.4936,0.0978,40.0600,76,97,480820
0.4497,0.0978,40.0300,76,97,480823
0.4301,0.0978,40.0300,76,97,480826
0.4106,0.0978,40.1300,76,97,480829
0.4203,0.1026,40.0600,76,97,480833
0.4301,0.0978,40.1600,76,97,480836
0.4594,0.0880,39.8900,76,97,480839
0.4790,0.0929,40.0600,76,97,480843
0.4985,0.0978,40.0300,76,97,480846
0.5327,0.1026,40.1000,76,97,480849
0.5621,0.0978,40.1600,76,97,480852
0.6061,0.1075,39.8300,76,97,480857
0.6207,0.0929,40.1000,76,97,480860
0.6598,0.0929,40.1300,76,97,480863
0.6891,0.1026,40.1000,76,97,480867
0.7087,0.1026,40.1300,76,97,480870
0.7576,0.1026,39.8600,76,97,480873
0.7771,0.1026,40.0600,76,97,480876
0.7918,0.0929,40.1300,76,97,480880
0.8065,0.1075,40.1000,76,97,480883
0.8260,0.1075,40.1000,76,97,480886
0.9140,0.0929,39.9600,76,97,480890
0.8749,0.1026,39.5400,76,97,480893
0.8895,0.0978,40.1000,76,97,480897
0.9042,0.1026,40.1000,76,97,480901
0.9140,0.0978,40.1300,76,97,480904
0.9531,0.1075,40.0000,76,97,480907
0.9335,0.1026,40.1000,76,97,480910
0.9482,0.0978,40.0300,76,97,480914
0.9384,0.0929,40.1300,76,97,480917
0.9384,0.0978,40.1600,76,97,480920
0.9531,0.1173,40.1000,76,97,480924
0.9384,0.0978,40.1000,76,97,480927
0.9531,0.1026,40.0000,76,97,480930
0.9335,0.1271,40.1600,76,97,480933
0.9238,0.0929,40.1600,76,97,480937
0.9384,0.1075,40.0000,76,97,480941
0.9042,0.0978,40.1300,76,97,480944
0.9140,0.0978,40.0000,76,97,480948
0.8847,0.0929,40.1000,76,97,480951
0.8993,0.0733,40.1300,76,97,480954
0.9091,0.1075,40.0300,76,97,480958
0.9091,0.1026,40.1300,76,97,480961
0.9384,0.1026,39.9300,76,97,480964
0.9384,0.0978,40.0600,76,97,480967
0.9580,0.1026,40.1600,76,97,480971
0.9873,0.1075,40.0600,76,97,480974
1.0020,0.1075,40.2300,76,97,480977
1.0557,0.1026,39.8900,76,97,480982
1.0508,0.0978,40.0300,76,97,480985
1.0850,0.1026,40.0600,76,97,480988
1.1241,0.1271,40.1600,76,97,480991
1.1486,0.1026,40.1600,76,97,480995
1.2219,0.1075,39.8600,76,97,480998
1.2463,0.0978,40.0600,76,97,481001
1.2903,0.0978,40.1600,76,97,481005
1.3441,0.1075,40.1600,76,97,481008
1.3978,0.1075,40.1300,76,97,481011
1.5005,0.1173,40.1000,76,97,481015
1.5200,0.1075,40.1000,76,97,481018
1.5738,0.0978,40.0600,76,97,481021
1.6373,0.1026,40.1600,76,97,481025
1.6960,0.1026,40.1600,76,97,481029
1.7937,0.1222,40.0300,76,97,481032
1.8133,0.1075,40.1300,76,97,481035
1.8817,0.1026,40.0000,76,97,481039
1.9062,0.1026,40.1300,75,97,481042
2.0577,0.0733,40.1600,75,97,481047
2.0821,0.1026,40.1300,75,97,481050
2.1114,0.1173,40.0300,75,97,481053
2.0870,0.1026,40.1300,75,97,481057
2.1261,0.1075,40.0600,75,97,481060
2.1065,0.1075,40.0600,75,97,481063
2.0968,0.1124,40.1600,75,97,481067
2.1114,0.1124,40.1000,75,97,481071
2.0821,0.1026,40.0600,75,97,481074
2.1261,0.1173,39.8900,75,97,481077
2.0821,0.0733,40.0600,75,97,481081
2.0626,0.1026,40.1600,75,97,481084
2.0626,0.1075,40.0600,75,97,481087
2.0479,0.1075,40.1300,75,97,481091
2.1017,0.1173,39.8300,75,97,481094
2.0430,0.1075,40.1300,75,97,481097
2.0430,0.0978,40.1000,75,97,481100
2.0381,0.1124,40.1300,75,97,481104
2.0332,0.1026,40.3600,75,97,481107
2.0870,0.1222,39.9600,75,97,481111
2.0723,0.0929,40.0600,75,97,481115
2.0332,0.1026,40.0300,75,97,481118
2.0137,0.1075,40.0000,75,97,481121
2.0088,0.1369,40.1300,75,97,481125
2.0430,0.1173,39.9600,75,97,481128
2.0039,0.1075,40.1000,75,97,481131
2.0137,0.1026,39.9600,75,97,481134
1.9892,0.1075,40.1300,75,97,481138
1.9892,0.0733,40.1300,75,97,481141
2.0137,0.1271,40.0300,75,97,481144
1.9844,0.0929,40.1300,75,97,481148
2.0137,0.1124,40.0000,75,97,481152
1.9746,0.1026,40.1600,75,97,481155
1.9746,0.1026,40.1300,75,97,481159
1.9795,0.1075,39.2500,75,97,481162
1.9648,0.1075,40.1300,75,97,481165
1.9892,0.1026,40.0000,75,97,481168
1.9501,0.1173,40.1600,75,97,481172
1.9550,0.1026,40.1300,75,97,481175
1.9648,0.1124,40.1000,75,97,481178
1.9355,0.1026,40.1300,75,97,481182
1.9746,0.1075,39.9300,75,97,481185
1.9453,0.1075,40.0300,75,97,481188
1.9355,0.1026,40.1300,75,97,481192
1.9404,0.1222,40.0600,75,97,481196
1.9306,0.0929,40.1300,75,97,481199
1.9795,0.1124,39.8600,75,97,481203
1.9306,0.1026,40.0600,75,97,481206
1.9159,0.1026,40.1300,75,97,481209
1.9159,0.1075,40.0000,75,97,481212
1.9110,0.1075,40.2300,75,97,481216
1.9648,0.1222,39.9600,75,97,481219
1.9110,0.1075,40.1000,75,97,481222
1.9110,0.0978,40.0600,75,97,481226
1.9013,0.1075,40.2000,75,97,481229
1.8964,0.1075,40.1300,75,97,481232
1.9257,0.1173,40.1000,75,97,481236
1.8964,0.1075,39.8300,75,97,481240
1.9062,0.1075,40.0000,75,97,481243
1.8817,0.1173,40.0600,75,97,481247
1.9013,0.1075,40.1000,75,97,481250
1.9208,0.1124,40.0000,75,97,481253
1.8866,0.1173,40.1300,75,97,481256
1.9159,0.1173,40.0300,75,97,481260
1.8866,0.0978,40.0600,75,97,481263
1.8915,0.1417,40.1600,75,97,481266
1.9110,0.1124,40.1300,75,97,481270
1.8915,0.1075,40.1000,75,97,481273
1.9159,0.1075,39.9600,75,97,481276
1.8866,0.1075,40.0600,75,97,481281
1.8866,0.1026,40.1600,75,97,481284
1.8964,0.1124,40.0600,75,97,481287
1.8866,0.1075,40.2600,75,97,481290
1.9306,0.1124,39.8900,75,97,481294
1.8866,0.1026,40.1300,75,97,481297
1.8915,0.1124,40.1000,75,97,481300
1.9013,0.1124,40.1000,75,97,481304
1.8817,0.1075,40.2000,75,97,481307
1.9355,0.1173,39.8300,75,97,481310
1.8964,0.1124,40.0600,75,97,481314
1.8866,0.1026,40.1300,75,97,481317
1.8866,0.1075,40.1300,75,97,481320
1.8866,0.1075,40.2600,75,97,481325
1.9306,0.1222,39.9600,75,97,481328
1.8866,0.1124,40.2000,75,97,481331
1.8817,0.1026,40.1000,75,97,481334
1.8866,0.1075,40.1000,75,97,481338
1.8671,0.1075,40.1300,75,97,481341
1.8915,0.1173,40.0000,75,97,481344
1.8768,0.1075,40.1000,75,97,481348
1.8915,0.1075,40.0300,75,97,481351
1.8622,0.1075,40.0600,75,97,481354
1.8671,0.1026,40.1300,75,97,481358
1.8817,0.1124,40.1000,75,97,481361
1.8719,0.1124,40.1600,75,97,481364
1.8964,0.1173,40.0300,75,97,481368
1.8768,0.1026,40.3000,75,97,481372
1.8768,0.1026,40.1300,75,97,481375
1.9013,0.1173,40.0300,75,97,481378
1.8719,0.1075,40.1600,75,97,481382
1.9013,0.1026,39.9300,75,97,481385
1.8817,0.1075,39.7000,75,97,481388
1.8719,0.1075,40.1600,75,97,481392
1.8817,0.1124,40.0600,75,97,481395
1.8671,0.1075,40.0600,75,97,481398
1.9355,0.1173,39.8900,75,97,481402
1.8719,0.1075,39.9300,75,97,481405
1.8671,0.1124,40.2300,75,97,481409
1.8719,0.1124,40.1300,75,97,481412
1.8671,0.1173,40.1300,75,97,481416
1.9208,0.1222,39.8600,75,97,481419
1.8719,0.1124,40.1000,75,97,481422
1.8671,0.1026,40.1000,75,97,481426
1.8719,0.1124,40.3300,75,97,481429
1.8622,0.1075,40.1300,75,97,481432
1.9062,0.1271,39.9600,75,97,481436
1.8768,0.1124,40.1000,75,97,481439
1.8768,0.1075,40.0300,75,97,481442
1.8573,0.1222,40.1000,75,97,481446
1.8671,0.0733,40.1300,75,97,481449
1.9013,0.1173,39.9600,75,97,481453
1.8671,0.1075,40.1300,75,97,481457
1.8866,0.1124,40.0000,75,97,481460
1.8622,0.1075,40.1600,75,97,481463
1.8622,0.1075,40.1300,75,97,481466
1.8866,0.1075,40.0600,75,97,481470
1.8817,0.1124,40.1300,75,97,481473
1.8915,0.1075,40.0000,75,97,481476
1.8573,0.1075,40.0600,75,97,481480
1.8573,0.1026,40.1600,75,97,481483
1.8671,0.1124,40.0600,75,97,481486
1.8573,0.1075,40.1300,75,97,481490
1.8964,0.1124,39.9300,75,97,481494
1.8573,0.1075,40.1300,75,97,481497
1.8817,0.0929,40.1300,75,97,481500
1.8768,0.1124,40.1000,75,97,481504
1.8622,0.0929,40.1300,75,97,481507
1.9208,0.1173,39.8600,75,97,481510
1.8866,0.1222,40.0600,75,97,481514
1.8866,0.0929,40.1600,75,97,481517
1.8817,0.1124,40.1000,75,97,481520
1.8768,0.1075,40.1300,75,97,481524
1.9355,0.1271,39.9600,75,97,481527
1.8915,0.1173,40.0600,75,97,481530
1.8817,0.1075,40.1000,75,97,481534
1.8719,0.1124,40.1000,75,97,481538
1.8719,0.1026,40.1600,75,97,481541
1.9013,0.1173,40.1000,75,97,481544
1.8671,0.1075,40.1000,75,97,481548
1.8866,0.1075,40.0000,75,97,481551
1.8622,0.1124,40.1600,75,97,481554
1.8573,0.0929,40.1300,75,97,481558
1.8768,0.1124,40.0300,75,97,481561
1.8622,0.1075,40.1300,75,97,481564
1.8866,0.1173,40.0300,75,97,481568
1.8524,0.1466,40.1300,75,97,481571
1.8573,0.1075,40.1300,75,97,481574
1.8817,0.1173,40.0300,75,97,481579
1.8475,0.0929,40.1300,75,97,481582
1.8817,0.1075,39.9600,75,97,481585
1.8573,0.1124,40.0600,75,97,481588
1.8573,0.1075,40.1600,75,97,481592
1.8671,0.1222,40.0600,75,97,481595
1.8817,0.1026,40.1600,75,97,481598
1.8866,0.1173,40.0300,75,97,481602
1.8817,0.1173,40.1000,75,97,481605
1.8426,0.1075,40.1300,75,97,481608
1.8573,0.1124,40.0300,75,97,481612
1.8524,0.1124,40.1600,75,97,481615
1.9013,0.1173,39.9600,75,97,481618
1.8524,0.1173,40.1000,75,97,481623
1.8573,0.1075,40.1300,75,97,481626
1.8573,0.1124,40.1000,75,97,481629
1.8573,0.0929,40.1300,75,97,481632
1.9013,0.1271,39.9600,75,97,481636
1.8622,0.1173,40.1000,75,97,481639
1.8915,0.1075,40.0600,75,97,481642
1.8426,0.1271,40.1600,75,97,481646
1.8426,0.1075,40.1000,75,97,481649
1.8817,0.1173,39.9300,75,97,481652
1.8524,0.1271,40.1000,75,97,481657
1.8280,0.1124,40.1300,75,97,481660
1.8573,0.1124,40.1000,75,97,481665
1.8280,0.1026,40.0600,75,97,481668
1.8377,0.1124,40.1600,75,97,481671
1.8524,0.1173,40.0600,75,97,481675
1.8377,0.1124,40.1300,75,97,481678
1.8866,0.1173,39.9300,75,97,481681
1.8377,0.1124,40.1300,75,97,481684
1.8426,0.1124,40.2000,75,97,481688
1.8475,0.1173,40.1000,75,97,481691
1.8328,0.1124,40.1300,75,97,481694
1.8915,0.1320,39.8600,75,97,481698
1.8573,0.1124,40.0600,75,97,481701
1.8426,0.1075,40.1300,75,97,481704
1.8426,0.1173,40.1300,75,97,481709
1.8475,0.1124,40.3300,75,97,481712
1.8964,0.1173,39.9600,75,97,481715
1.8573,0.1222,40.1000,75,97,481719
1.8768,0.1173,40.0300,75,97,481722
1.8328,0.1124,40.1300,75,97,481725
1.8328,0.1075,40.1300,75,97,481729
1.8622,0.1222,40.0300,75,97,481732
1.8328,0.1075,40.1300,75,97,481735
1.8719,0.1173,39.9600,75,97,481738
1.8475,0.1124,40.0300,75,97,481742
1.8671,0.1124,40.1000,75,97,481745
1.8768,0.1173,40.0600,75,97,481748
1.8671,0.1173,40.2300,75,97,481753
1.8915,0.1124,40.0000,75,97,481756
1.8622,0.1173,40.1300,75,97,481759
1.8719,0.1124,40.1300,75,97,481763
1.8964,0.1173,40.0600,75,97,481766
1.8817,0.1124,40.1300,75,97,481769
1.9208,0.1173,39.8900,75,97,481773
1.9062,0.1173,40.0300,75,97,481776
1.8866,0.1124,40.1300,75,97,481779
1.8915,0.1271,40.1000,75,97,481782
1.8622,0.1124,40.1300,75,97,481786
1.9110,0.1222,39.8600,75,97,481789
1.8719,0.1124,40.0600,75,97,481793
1.8671,0.1075,40.1300,75,97,481797
1.8817,0.1173,40.1300,75,97,481800
1.8768,0.1124,40.1300,75,97,481803
1.9355,0.1320,39.9300,75,97,481807
1.8866,0.1173,40.1000,75,97,481810
1.8964,0.1124,40.1300,75,97,481813
1.8768,0.1173,40.1300,75,97,481817
1.8671,0.1124,40.0300,75,97,481820
1.9159,0.1173,40.0600,75,97,481823
1.8622,0.1173,40.1000,75,97,481827
1.8768,0.1173,40.0300,75,97,481830
1.8475,0.1124,40.1300,75,97,481833
1.8475,0.1124,40.1600,75,97,481837
1.8768,0.1320,40.0300,75,97,481841
1.8426,0.1222,40.1600,75,97,481844
1.8768,0.1124,40.0300,75,97,481847
1.8475,0.1124,40.1600,75,97,481851
1.8573,0.1124,40.1300,75,97,481854
1.8768,0.1173,40.0600,75,97,481857
1.8622,0.1271,40.1300,75,97,481861
1.9013,0.1173,39.9300,75,97,481864
1.8622,0.1124,40.0300,75,97,481867
1.8622,0.1173,40.1300,75,97,481871
1.8719,0.1173,40.0600,75,97,481874
1.8817,0.1173,40.1600,75,97,481878
1.9110,0.1222,39.8600,75,97,481881
1.8817,0.1173,40.1300,75,97,481885
1.9257,0.1124,40.1600,75,97,481888
1.9990,0.1173,40.1000,75,97,481891
2.0870,0.1124,40.1300,75,97,481895
2.2532,0.1320,39.8600,75,97,481898
2.3314,0.1271,40.1300,75,97,481901
2.4242,0.1124,39.5400,75,97,481905
2.5611,0.1173,40.1300,75,97,481908
2.6882,0.1124,40.0600,75,97,481911
2.8201,0.1222,39.9300,75,97,481915
2.7126,0.1173,40.1000,75,97,481918
2.5318,0.1075,40.1000,75,97,481922
2.2287,0.1173,40.1300,75,97,481925
1.9648,0.1124,40.1300,75,97,481929
1.7693,0.1271,40.0600,75,97,481932
1.6276,0.1173,40.1300,75,97,481935
1.6373,0.1222,40.0000,75,97,481939
1.6373,0.1173,40.1600,75,97,481942
1.6764,0.1124,40.2300,75,97,481945
1.7253,0.1173,40.1000,75,97,481949
1.7449,0.1124,40.1300,75,97,481952
1.7840,0.1320,39.9300,75,97,481955
1.7644,0.1124,40.1300,75,97,481959
1.7693,0.1320,40.1600,75,97,481963
1.8133,0.1222,40.0600,75,97,481966
1.7693,0.1124,40.0600,75,97,481970
1.8133,0.1173,39.8900,75,97,481973
1.7937,0.1222,40.0300,75,97,481976
1.7791,0.1369,40.1300,75,97,481979
1.7889,0.1173,40.1600,75,97,481983
1.7840,0.1173,40.1300,75,97,481986
1.8377,0.1271,39.8600,75,97,481989
1.8182,0.1173,40.0000,75,97,481993
1.7889,0.1124,40.1300,75,97,481996
1.7937,0.1173,40.1300,75,97,481999
1.7986,0.1124,40.1300,75,97,482003
1.8426,0.1320,39.9600,75,97,482007
1.8182,0.1173,40.1300,75,97,482010
1.8231,0.1124,40.0000,75,97,482014
1.8084,0.1173,40.1600,75,97,482017
1.8084,0.1173,40.2600,75,97,482020
1.8377,0.1417,40.0600,75,97,482023
1.8182,0.1271,40.1300,75,97,482027
1.8475,0.1173,39.9600,75,97,482030
1.8524,0.1173,40.1300,75,97,482033
1.8377,0.1124,40.1600,75,97,482037
1.8719,0.1369,40.0300,75,97,482040
1.8426,0.1173,40.1000,75,97,482043
1.8719,0.1320,40.0600,75,97,482048
1.8573,0.1173,40.0600,75,97,482051
1.8622,0.1124,40.1300,75,97,482054
1.8866,0.1124,40.0300,75,97,482058
1.8768,0.1124,40.1300,75,97,482061
1.9208,0.1222,39.8900,75,97,482064
1.8866,0.1124,40.1300,75,97,482067
1.8915,0.1124,40.1300,75,97,482071
1.9062,0.1173,40.1000,75,97,482074
1.9013,0.1124,40.1300,75,97,482077
1.9599,0.1222,39.8300,75,97,482081
1.9208,0.1124,40.1000,75,97,482084
1.9257,0.1369,40.0600,75,97,482087
1.9453,0.1271,40.1000,75,97,482092
1.9355,0.1173,40.0300,75,97,482095
2.0283,0.1369,39.9300,75,97,482098
1.9648,0.1222,40.1300,75,97,482102
1.9697,0.1173,40.0300,75,97,482105
1.9697,0.1173,40.3600,75,97,482108
1.9697,0.1173,40.1300,75,97,482112
2.0137,0.1271,39.9600,75,97,482115
1.9941,0.1222,40.1300,75,97,482118
2.0088,0.1173,40.0000,75,97,482121
1.9844,0.1173,40.1300,75,97,482125
1.9892,0.1075,40.1600,75,97,482128
2.0235,0.1271,40.0600,75,97,482131
2.0039,0.1173,40.1600,75,97,482136
2.0332,0.1271,40.0300,75,97,482139
1.9990,0.1173,40.1300,75,97,482142
2.0039,0.1173,40.1300,75,97,482146
2.0137,0.1173,40.0300,75,97,482149
2.0088,0.1222,40.1300,75,97,482152
2.0332,0.1173,39.9600,75,97,482155
2.0186,0.1271,40.1300,75,97,482159
2.0088,0.1124,40.1300,75,97,482162
2.0332,0.1271,40.0300,75,97,482165
2.0088,0.1124,40.1300,75,97,482169
2.0479,0.1222,39.8900,75,97,482172
2.0186,0.1222,40.0300,75,97,482176
2.0088,0.1222,40.1600,75,97,482180
2.0039,0.1222,40.0600,75,97,482183
1.9892,0.1173,40.3000,75,97,482186
2.0332,0.1271,39.8600,75,97,482189
1.9746,0.1173,40.1300,75,97,482193
1.9550,0.1124,40.1000,75,97,482196
1.9355,0.1124,40.1600,75,97,482199
1.9208,0.1173,40.1600,75,97,482203
1.9892,0.1320,40.0000,75,97,482206
1.8915,0.1222,40.1600,75,97,482209
1.8719,0.1271,40.0300,75,97,482213
1.8524,0.1271,40.1600,75,97,482216
1.8280,0.1173,40.1300,75,97,482220
1.8475,0.1271,39.9600,75,97,482224
1.8084,0.1173,40.1300,75,97,482227
1.8084,0.1173,40.0000,75,97,482230
1.7693,0.1417,40.1300,75,97,482234
1.7644,0.1173,40.1300,75,97,482237
1.7889,0.1222,39.9600,75,97,482240
1.7546,0.1173,40.1000,75,97,482243
1.7840,0.1173,39.9600,75,97,482247
1.7546,0.1222,40.0600,75,97,482250
1.7595,0.1173,40.1300,75,97,482253
1.7693,0.1222,40.1000,75,97,482257
1.7644,0.1173,40.1300,75,97,482260
1.7986,0.1173,39.8900,75,97,482264
1.8280,0.1173,39.8900,75,97,482268
1.7889,0.1173,40.0600,75,97,482271
1.7840,0.1124,40.1000,75,97,482275
1.7986,0.1173,40.1000,75,97,482278
1.7889,0.1173,40.1300,75,97,482281
1.8426,0.1124,40.0000,75,97,482285
1.8231,0.1222,40.0600,75,97,482288
1.8231,0.1173,40.0300,75,97,482291
1.8133,0.1124,40.1600,75,97,482295
1.8182,0.1124,40.1300,75,97,482298
1.8573,0.1271,40.0000,75,97,482301
1.8280,0.1124,40.1300,75,97,482305
1.8524,0.1222,40.1000,75,97,482309
1.8280,0.1173,40.1600,75,97,482312
1.8328,0.1124,40.1300,75,97,482315
1.8573,0.1222,40.0600,75,97,482319
1.8328,0.1173,40.2300,75,97,482322
1.8622,0.1271,40.0300,75,97,482325
1.8377,0.1173,40.1300,75,97,482329
1.8377,0.1271,40.1300,75,97,482332
1.8475,0.1222,40.1600,75,97,482335
1.8377,0.1173,40.1000,75,97,482339
1.8817,0.1222,39.9300,75,97,482342
1.8377,0.1271,40.1000,75,97,482345
1.8475,0.1124,40.1600,75,97,482350
1.8524,0.1222,40.1300,75,97,482353
1.8377,0.1173,40.1300,75,97,482356
1.8915,0.1515,39.9300,75,97,482359
1.8573,0.1124,40.0000,75,97,482363
1.8377,0.1124,40.0600,75,97,482366
1.8328,0.1124,40.1300,75,97,482369
1.8328,0.1173,40.2000,75,97,482373
1.8768,0.1222,39.9300,75,97,482376
1.8328,0.1222,40.1300,75,97,482379
1.8377,0.1173,40.0000,75,97,482383
1.8231,0.1124,40.1300,75,97,482386
1.8231,0.1173,40.2000,75,97,482390
1.8475,0.1271,40.0300,75,97,482394
1.8231,0.1173,40.0300,75,97,482397
1.8426,0.1173,39.9600,75,97,482400
1.8084,0.1222,40.1300,75,97,482403
1.8133,0.1173,40.0300,75,97,482407
1.8182,0.1124,40.0600,75,97,482410
1.8084,0.1222,40.1300,75,97,482413
1.8328,0.1369,40.0300,75,97,482417
1.7986,0.1173,40.2000,75,97,482420
1.8035,0.1222,40.1600,75,97,482423
1.8280,0.1271,40.0000,75,97,482427
1.7986,0.1466,40.1300,75,97,482430
1.8280,0.1271,39.9300,75,97,482434
1.8133,0.1222,40.0600,75,97,482438
1.7986,0.1271,40.1600,75,97,482441
1.8035,0.1222,40.0600,75,97,482444
1.7840,0.1417,40.1300,75,97,482447
1.8328,0.1222,39.8600,75,97,482451
1.8035,0.1320,40.0600,75,97,482454
1.7742,0.1173,40.2000,75,97,482457
1.7840,0.1222,40.1300,75,97,482461
1.7791,0.1222,40.1600,75,97,482464
1.8231,0.1369,39.9600,75,97,482467
1.7840,0.1320,40.1000,75,97,482471
1.7889,0.1124,40.0300,75,97,482475
1.7742,0.1222,40.1300,75,97,482478
1.7742,0.1173,40.1300,75,97,482482
1.8035,0.1271,40.0300,75,97,482485
1.7840,0.1222,40.1000,75,97,482488
1.7986,0.1222,40.0300,75,97,482492
1.7791,0.1222,40.1600,75,97,482495
1.7840,0.1173,40.1300,75,97,482498
1.8475,0.1417,40.0000,75,97,482501
1.7791,0.1222,40.0300,75,97,482505
1.8084,0.1173,40.0300,75,97,482508
1.7791,0.1124,40.1300,75,97,482511
1.7791,0.1075,40.1300,75,97,482515
1.7840,0.1222,39.9300,75,97,482519
1.7644,0.1173,40.1600,75,97,482522
1.7889,0.1222,39.9600,75,97,482526
1.7546,0.1075,40.1000,75,97,482529
1.7498,0.1271,40.1300,75,97,482532
1.7742,0.1222,39.1900,75,97,482536
1.7742,0.1222,40.1300,75,97,482539
1.8280,0.1271,39.8900,75,97,482542
1.8280,0.1173,40.1000,75,97,482546
1.8084,0.1173,40.1600,75,97,482549
1.8035,0.1271,40.1000,75,97,482552
1.7937,0.1173,40.1600,75,97,482555
1.8426,0.1369,39.8900,75,97,482560
1.8133,0.1124,40.0600,75,97,482563
1.8035,0.1173,40.1300,75,97,482566
1.7986,0.1124,40.1600,75,97,482570
1.8035,0.1173,40.1000,75,97,482573
1.8328,0.1271,39.9600,75,97,482576
1.7986,0.1222,39.9300,75,97,482580
1.7986,0.1075,40.0000,75,97,482583
1.7742,0.1222,40.1600,75,97,482586
1.7742,0.1173,39.7300,75,97,482590
1.7986,0.1271,40.0000,75,97,482593
1.7791,0.1222,40.1300,75,97,482596
1.8035,0.1369,40.0300,75,97,482599
1.7742,0.1222,40.1600,75,97,482604
1.7693,0.1320,40.1600,75,97,482607
1.7791,0.1222,40.0600,75,97,482610
1.7644,0.1222,40.0600,75,97,482614
1.7791,0.1173,40.1000,75,97,482617
1.7498,0.1222,40.1300,75,97,482620
1.7498,0.1173,40.1000,75,97,482624
1.7595,0.1320,40.0600,75,97,482627
1.7302,0.1369,40.1600,75,97,482630
1.7742,0.1271,39.8900,75,97,482634
1.7449,0.1222,40.3000,75,97,482637
1.7595,0.1173,40.1300,75,97,482640
1.7351,0.1222,40.1000,75,97,482644
1.7253,0.1173,40.2000,75,97,482648
1.7742,0.1320,39.8300,75,97,482651
1.7253,0.1222,40.0600,75,97,482654
1.7204,0.1173,40.1000,75,97,482658
1.7204,0.1320,40.1600,75,97,482661
1.7302,0.1173,40.1300,75,97,482664
1.7644,0.1369,39.9300,75,97,482668
1.7253,0.1222,40.1000,75,97,482671
1.7351,0.1173,39.5100,75,97,482674
1.7302,0.1222,40.1000,75,97,482678
1.7302,0.1173,40.2000,75,97,482681
1.7693,0.1222,40.1000,75,97,482684
1.7546,0.1222,40.1300,75,97,482689
1.8280,0.1515,39.9600,75,97,482692
1.8768,0.1222,40.0600,75,97,482695
1.9697,0.1515,40.1600,75,97,482698
2.1065,0.1320,40.0000,75,97,482702
2.1603,0.1222,39.5100,75,97,482705
2.3069,0.1173,40.0000,75,97,482708
2.4096,0.1173,40.0600,75,97,482712
2.5464,0.1222,40.1300,75,97,482715
2.6735,0.1271,40.0300,75,97,482718
2.6295,0.1222,40.1300,75,97,482722
2.5024,0.1271,39.8600,75,97,482725
2.1994,0.1222,40.0600,75,97,482728
1.9110,0.1173,40.1300,75,97,482733
1.7009,0.1320,40.1000,75,97,482736
1.5640,0.1173,40.1600,75,97,482739
1.5689,0.1271,40.0000,75,97,482742
1.5396,0.1173,40.0600,75,97,482746
1.5640,0.1173,40.1600,75,97,482749
1.5885,0.1320,40.1000,75,97,482752
1.5934,0.1222,40.1300,75,97,482756
1.6471,0.1417,39.9300,75,97,482759
1.6129,0.1222,40.0600,75,97,482762
1.5982,0.1173,40.1300,75,97,482766
1.6031,0.1271,40.1300,75,97,482769
1.5982,0.1222,40.2600,75,97,482772
1.6276,0.1320,39.9600,75,97,482777
1.5982,0.1222,40.1000,75,97,482780
1.6080,0.1222,40.0600,75,97,482783
1.5934,0.1320,40.2300,75,97,482786
1.5885,0.1173,40.1300,75,97,482790
1.6276,0.1320,40.0000,75,97,482793
1.6031,0.1222,40.1300,75,97,482796
1.6227,0.1271,40.2600,75,97,482800
1.6031,0.1173,40.1600,75,97,482803
1.5982,0.1222,40.0300,75,97,482806
1.6178,0.1271,40.1000,75,97,482810
1.6031,0.1124,40.1300,75,97,482813
1.6276,0.1222,40.2000,75,97,482817
1.6031,0.1222,40.1300,75,97,482821
1.6129,0.1222,40.3600,75,97,482824
1.6422,0.1222,40.0600,75,97,482827
1.6129,0.1173,40.0000,75,97,482830
1.6471,0.1173,39.8900,75,97,482834
1.6276,0.1271,40.0600,75,97,482837
1.6178,0.1222,40.1300,75,97,482840
1.6276,0.1222,40.1000,75,97,482844
1.6227,0.1222,40.1300,75,97,482847
1.6764,0.1320,39.8900,75,97,482850
1.6325,0.1320,40.0600,75,97,482854
1.6373,0.1173,40.1000,75,97,482857
1.6422,0.1222,40.1300,75,97,482861
1.6422,0.1222,40.1600,75,97,482865
1.6862,0.1320,39.9600,75,97,482868
1.6716,0.1173,40.1000,75,97,482871
1.6716,0.1173,40.0300,75,97,482874
1.6569,0.1222,40.0600,75,97,482878
1.6618,0.1320,40.1300,75,97,482882
1.6716,0.1222,40.1300,75,97,482885
1.6960,0.1271,40.0300,75,97,482888
1.6813,0.1222,40.2000,75,97,482891
1.7058,0.1222,40.0600,75,97,482895
1.6911,0.1369,40.0300,75,97,482898
1.6911,0.1173,40.1600,75,97,482902
1.7107,0.1222,40.1000,75,97,482906
1.7009,0.1222,40.1300,75,97,482909
1.7498,0.1271,39.9300,75,97,482912
1.7155,0.1222,40.0600,75,97,482916
1.7155,0.1222,40.1600,75,97,482919
1.7204,0.1222,40.1300,75,97,482922
1.7155,0.1222,40.2000,75,97,482926
1.7840,0.1369,39.8900,75,97,482929
1.7155,0.1222,40.0600,75,97,482932
1.7155,0.1173,40.0600,75,97,482935
1.7058,0.1222,40.1600,75,97,482939
1.7009,0.1124,40.1600,75,97,482942
1.7351,0.1320,40.0000,75,97,482946
1.6960,0.1271,40.2000,75,97,482950
1.6911,0.1173,40.1000,75,97,482953
1.6618,0.1222,40.1000,75,97,482956
1.6716,0.1222,40.1300,75,97,482960
1.6764,0.1320,40.0000,75,97,482963
1.6325,0.1173,40.1000,75,97,482966
1.6471,0.1271,39.9600,75,97,482970
1.6178,0.1173,40.1000,75,97,482973
1.5982,0.1124,40.1600,75,97,482976
1.6080,0.1124,40.0600,75,97,482980
1.5640,0.1222,40.1300,75,97,482983
1.5640,0.1222,40.0000,75,97,482987
1.5249,0.1124,40.1000,75,97,482990
1.5103,0.1222,40.1300,75,97,482994
1.5054,0.1271,40.0600,75,97,482997
1.4761,0.1222,40.1300,75,97,483000
1.4956,0.1613,39.8600,75,97,483004
1.4467,0.1173,40.1000,75,97,483007
1.4370,0.1173,40.1600,75,97,483010
1.4321,0.1271,40.1600,75,97,483014
1.4223,0.1173,40.1600,75,97,483017
1.4467,0.1369,39.8300,75,97,483020
1.4321,0.1222,40.1000,75,97,483024
1.3978,0.1173,40.1000,75,97,483027
1.4027,0.1222,40.1300,75,97,483031
1.3930,0.1173,39.3500,75,97,483035
1.4223,0.1271,39.9600,75,97,483038
1.3978,0.1222,40.1000,75,97,483041
1.4076,0.1222,40.0600,75,97,483044
1.4076,0.1222,40.1300,75,97,483048
1.4027,0.1222,40.1600,75,97,483051
1.4272,0.1271,39.9600,75,97,483054
1.4174,0.1222,40.1300,75,97,483058
1.4418,0.1173,40.1000,75,97,483061
1.4272,0.1222,40.1600,75,97,483064
1.4321,0.1173,40.1300,75,97,483068
1.4321,0.1222,40.1000,75,97,483072
1.4272,0.1124,40.1600,75,97,483075
1.4516,0.1173,39.9300,75,97,483079
1.4321,0.1222,40.1300,75,97,483082
1.4418,0.1173,40.2600,75,97,483085
1.4614,0.1320,40.0300,75,97,483089
1.4418,0.1222,40.1600,75,97,483092
1.5152,0.1222,39.8900,75,97,483095
1.4712,0.1222,40.0000,75,97,483099
1.4614,0.1271,40.1300,75,97,483102
1.4761,0.1320,40.1600,75,97,483105
1.4858,0.1173,40.1300,75,97,483108
1.5298,0.1369,39.8900,75,97,483112
1.4907,0.1222,40.1000,75,97,483116
1.4956,0.1173,40.2000,75,97,483119
1.4956,0.1271,40.0600,75,97,483123
1.4956,0.1173,40.1000,75,97,483126
1.5347,0.1320,40.0300,75,97,483129
1.5054,0.1173,40.1300,75,97,483133
1.5005,0.1173,40.0600,75,97,483136
1.4956,0.1222,40.1600,75,97,483139
1.4956,0.1124,40.1300,75,97,483143
1.5200,0.1417,40.1000,75,97,483146
1.5103,0.1222,40.1300,75,97,483149
1.5298,0.1222,40.0300,75,97,483152
1.5152,0.1173,40.1300,75,97,483156
1.5103,0.1173,40.1600,75,97,483160
1.5298,0.1222,40.0000,75,97,483163
1.5054,0.1222,40.1600,75,97,483167
1.5249,0.1417,40.0300,75,97,483170
1.5054,0.1124,40.0600,75,97,483173
1.5005,0.1124,40.1600,75,97,483177
1.5103,0.1369,40.0600,75,97,483180
1.5005,0.1222,40.1300,75,97,483183
1.5347,0.1222,39.9300,75,97,483187
1.5103,0.1222,40.1000,75,97,483190
1.5054,0.1124,40.1600,75,97,483193
1.5152,0.1222,40.1600,75,97,483196
1.5103,0.1173,40.1300,75,97,483201
1.5396,0.1271,39.8600,75,97,483204
1.5103,0.1173,40.1000,75,97,483207
1.4907,0.1173,40.1300,75,97,483211
1.4956,0.1222,40.0600,75,97,483214
1.4907,0.1173,40.1300,75,97,483217
1.5396,0.1320,39.9600,75,97,483221
1.5054,0.1271,40.1000,75,97,483224
1.5005,0.1124,40.0600,75,97,483227
1.4956,0.1222,40.1600,75,97,483231
1.5200,0.1173,40.1000,75,97,483234
1.5249,0.1271,39.9600,75,97,483237
1.4907,0.1271,40.1000,75,97,483240
1.5103,0.1173,40.0000,75,97,483245
1.4858,0.1173,40.3300,75,97,483248
1.4858,0.1222,40.2300,75,97,483251
1.5054,0.1271,40.0000,75,97,483255
1.4858,0.1271,40.1300,75,97,483258
1.5152,0.1271,40.0600,75,97,483261
1.4858,0.1222,40.2300,75,97,483265
1.4907,0.1173,40.1600,75,97,483268
1.5005,0.1271,40.0600,75,97,483271
1.5298,0.1173,40.1300,75,97,483275
1.5200,0.1173,39.8000,75,97,483278
1.5249,0.1173,40.1000,75,97,483281
1.5005,0.1124,40.1300,75,97,483284
1.5152,0.1271,40.0600,75,97,483289
1.4907,0.1124,40.1300,75,97,483292
1.5347,0.1222,39.9600,75,97,483295
1.5103,0.1173,40.0300,75,97,483299
1.5005,0.1173,40.1600,75,97,483302
1.5054,0.1124,40.0600,75,97,483305
1.5005,0.1222,40.1300,75,97,483309
1.5543,0.1320,39.8600,75,97,483312
1.5103,0.1369,40.0600,75,97,483315
1.5054,0.1173,40.1300,75,97,483318
1.5103,0.1173,40.1600,75,97,483322
1.5054,0.1222,40.1600,75,97,483325
1.5494,0.1320,40.0000,75,97,483329
1.5103,0.1222,40.1600,75,97,483333
1.5200,0.1075,40.0600,75,97,483336
1.5445,0.1173,40.1300,75,97,483339
1.5200,0.1173,40.1300,75,97,483343
1.5689,0.1222,40.0300,75,97,483346
1.5543,0.1124,40.1000,75,97,483349
1.5591,0.1222,40.0000,75,97,483353
1.5591,0.1173,40.1300,75,97,483356
1.5591,0.1271,40.1000,75,97,483359
1.5982,0.1222,40.0000,75,97,483362
1.5689,0.1173,40.1300,75,97,483366
1.6031,0.1271,40.0300,75,97,483369
1.5787,0.1124,40.0600,75,97,483373
1.5934,0.1124,40.2300,75,97,483377
1.5982,0.1222,40.0300,75,97,483380
1.5885,0.1173,40.0300,75,97,483383
1.6080,0.1320,39.9300,75,97,483387
1.5689,0.1173,40.0600,75,97,483390
1.5689,0.1124,40.1300,75,97,483393
1.5738,0.1222,40.1000,75,97,483397
1.5689,0.1124,40.1600,75,97,483400
1.6129,0.1369,39.8600,75,97,483403
1.5738,0.1124,40.1300,75,97,483406
1.5787,0.1173,40.1600,75,97,483410
1.5787,0.1222,40.1300,75,97,483414
1.5982,0.1173,40.1300,75,97,483417
1.6031,0.1320,39.9600,75,97,483421
1.5591,0.1222,40.1000,75,97,483424
1.5494,0.1124,40.0600,75,97,483427
1.5396,0.1271,40.2300,75,97,483431
1.5396,0.1173,40.1300,75,97,483434
1.5689,0.1222,39.9600,75,97,483437
1.5445,0.1173,40.1000,75,97,483441
1.5591,0.1173,40.0000,75,97,483444
1.5445,0.1173,40.1300,75,97,483447
1.5543,0.1173,40.1300,75,97,483450
1.5738,0.1271,40.0000,75,97,483454
1.5591,0.1124,40.1300,75,97,483458
1.5836,0.1222,40.0000,75,97,483461
1.5689,0.1173,40.1600,75,97,483465
1.5640,0.1124,40.1300,75,97,483468
1.5738,0.1173,40.1000,75,97,483471
1.5738,0.1222,40.1300,75,97,483475
1.5885,0.1124,40.0600,75,97,483478
1.5640,0.1173,40.1300,75,97,483481
1.5787,0.1124,40.2600,75,97,483485
1.5982,0.1271,40.1000,75,97,483488
1.8475,0.1173,40.1300,75,97,483492
1.9453,0.1124,40.1600,75,97,483495
2.1065,0.1222,39.9300,75,97,483499
2.1848,0.1124,40.1600,75,97,483503
2.3167,0.1075,40.0300,75,97,483506
2.4389,0.1124,40.1300,75,97,483509
2.4878,0.1124,40.1300,75,97,483512
2.4242,0.1271,39.9600,75,97,483516
2.1652,0.1124,40.1000,75,97,483519
1.9013,0.1124,40.0000,75,97,483522
1.6618,0.0929,40.1600,75,97,483526
1.4614,0.1124,40.2000,75,97,483529
1.4076,0.1222,40.0600,75,97,483532
1.3881,0.1124,40.1300,75,97,483536
1.4321,0.1173,40.0300,75,97,483539
1.4418,0.1124,39.6700,75,97,483543
1.4712,0.1173,40.1000,75,97,483547
1.5005,0.1173,39.9300,75,97,483550
1.4858,0.1075,40.1300,75,97,483553
1.5103,0.1124,39.9600,75,97,483556
1.4809,0.1075,39.8600,75,97,483560
1.4907,0.1075,40.1300,75,97,483563
1.5054,0.1173,40.0600,75,97,483566
1.4907,0.1075,40.1600,75,97,483570
1.5249,0.1124,39.8600,75,97,483573
1.4907,0.1173,40.1000,75,97,483576
1.4907,0.1075,40.1300,75,97,483580
1.4956,0.1173,40.1000,75,97,483584
1.4907,0.1075,40.1300,75,97,483587
1.5396,0.1173,39.8900,75,97,483590
1.5005,0.1075,40.1000,75,97,483594
1.5054,0.1026,40.2000,75,97,483597
1.5103,0.1075,40.1300,75,97,483600
1.5054,0.1075,40.1300,75,97,483604
1.5543,0.1222,40.0000,75,97,483607
1.5298,0.1173,40.1000,75,97,483610
1.5298,0.1075,40.0600,75,97,483614
1.5249,0.1124,40.1300,75,97,483617
1.5347,0.1075,40.1300,75,97,483620
1.5689,0.1173,39.9300,75,97,483624
1.5445,0.1124,40.1000,75,97,483628
1.5689,0.1124,40.0600,75,97,483631
1.5591,0.1271,40.1600,75,97,483634
1.5738,0.1075,40.1300,75,97,483638
1.5885,0.1515,40.0300,75,97,483641
1.5787,0.1124,40.1300,75,97,483644
1.5982,0.1124,40.0600,75,97,483648
1.5738,0.1075,40.1600,75,97,483651
1.5836,0.1075,40.2000,75,97,483654
1.6031,0.1124,40.0600,75,97,483658
1.6031,0.1124,40.1000,75,97,483661
1.6325,0.1026,39.9300,75,97,483664
1.6129,0.1466,40.1600,75,97,483668
1.6227,0.0929,40.1300,75,97,483672
1.6422,0.1124,40.1300,75,97,483675
1.6325,0.0929,40.1300,75,97,483678
1.6764,0.1124,39.8900,75,97,483682
1.6862,0.1124,40.0300,75,97,483685
1.6471,0.1075,40.1300,75,97,483688
1.6569,0.1173,40.1000,75,97,483692
1.6520,0.1075,40.1300,75,97,483695
1.7107,0.1222,39.8900,75,97,483698
1.6716,0.1124,40.0600,75,97,483702
1.6667,0.1026,40.2000,75,97,483705
1.6716,0.1124,40.1000,75,97,483708
1.6716,0.1075,40.1300,75,97,483713
1.7155,0.1515,39.9600,75,97,483716
1.6862,0.1124,40.1000,75,97,483719
1.6960,0.1075,40.1300,75,97,483722
1.6764,0.1075,40.1600,75,97,483726
1.6813,0.1075,40.1600,75,97,483729
1.6960,0.1124,40.0600,75,97,483732
1.6764,0.1075,40.1300,75,97,483736
1.7009,0.1124,40.0000,75,97,483739
1.6716,0.1173,40.1600,75,97,483742
1.6716,0.1075,40.1600,75,97,483746
1.6960,0.1124,40.0600,75,97,483749
1.6716,0.0929,40.1000,75,97,483752
1.6862,0.1075,40.0000,75,97,483757
1.6569,0.1075,40.0600,75,97,483760
1.6618,0.1075,40.2300,75,97,483763
1.6667,0.1124,39.2200,75,97,483766
1.6422,0.1026,40.2000,75,97,483770
1.6667,0.1124,39.9300,75,97,483773
1.6667,0.1075,40.0600,75,97,483776
1.6129,0.1075,40.1300,75,97,483780
1.6129,0.1124,40.3300,75,97,483783
1.5934,0.1124,40.1300,75,97,483786
1.6227,0.1124,39.9600,75,97,483790
1.5591,0.1075,40.0600,75,97,483793
1.5543,0.1026,40.1600,75,97,483796
1.5494,0.1320,40.1000,75,97,483801
1.5249,0.1075,40.1600,75,97,483804
1.5591,0.1222,39.9600,75,97,483807
1.5445,0.1173,40.1000,75,97,483810
1.5005,0.1075,40.0600,75,97,483814
1.4858,0.1124,40.1300,75,97,483817
1.4858,0.0733,40.1300,75,97,483820
1.5054,0.1515,39.9600,75,97,483824
1.4761,0.1124,40.1300,75,97,483827
1.4907,0.1075,40.0300,75,97,483830
1.4956,0.1026,40.1600,75,97,483834
1.4761,0.1075,40.1300,75,97,483837
