ecg,gsr,temp,hr,spo2,timest
1.8964,0.1808,37.9000,88,99,72207
1.8426,0.1760,37.9000,88,99,72211
1.8280,0.1515,37.9300,88,99,72215
1.8524,0.1857,37.7400,88,99,72218
1.8084,0.1808,37.8700,88,99,72221
1.7937,0.1760,37.9300,88,99,72224
1.7644,0.1760,37.9300,88,99,72228
1.7449,0.1711,37.9300,88,99,72231
1.7644,0.2053,37.7700,88,99,72235
1.7302,0.1808,37.9000,88,99,72238
1.7155,0.1808,37.8300,88,99,72241
1.6960,0.1760,37.8300,88,99,72245
1.6862,0.1760,37.1000,88,99,72248
1.7155,0.1857,37.8000,88,99,72251
1.6911,0.1955,37.9000,88,99,72254
1.6862,0.1711,37.8300,88,99,72258
1.6716,0.1760,37.9300,88,99,72261
1.6667,0.1711,37.9300,88,99,72264
1.7107,0.1808,37.7100,88,99,72267
1.6862,0.1857,37.8700,88,99,72271
1.6764,0.1515,37.8700,88,99,72274
1.6764,0.1760,37.9300,88,99,72278
1.6862,0.1760,37.8300,88,99,72281
1.7351,0.1906,37.6800,88,99,72285
1.7155,0.1808,37.8300,88,99,72288
1.7009,0.1711,37.8300,88,99,72291
1.6960,0.1760,37.9300,88,99,72294
1.7009,0.1760,37.9300,88,99,72298
1.7449,0.2444,37.7400,88,99,72301
1.7155,0.1857,37.9600,88,99,72304
1.7107,0.1711,37.8700,88,99,72307
1.7107,0.1808,37.9300,88,99,72311
1.7107,0.1760,37.9300,88,99,72314
1.7595,0.1906,37.7400,88,99,72317
1.7351,0.1857,37.8300,88,99,72321
1.7204,0.1760,37.8700,88,99,72325
1.7302,0.1808,37.9600,88,99,72328
1.7253,0.1760,37.9300,88,99,72331
1.7791,0.1906,37.7100,88,99,72334
1.7302,0.1857,37.8000,88,99,72338
1.7253,0.1711,37.8700,88,99,72341
1.7253,0.1760,37.9000,88,99,72344
1.7204,0.1760,37.9300,88,99,72347
1.7693,0.2297,37.6800,88,99,72351
1.7302,0.1808,37.8300,88,99,72354
1.7400,0.1760,37.9000,88,99,72357
1.7253,0.1760,37.9000,88,99,72360
1.7155,0.1760,37.1900,88,99,72365
1.7644,0.1906,37.7100,88,99,72368
1.7302,0.1808,37.7700,88,99,72371
1.7155,0.1711,37.9000,88,99,72374
1.7155,0.1808,37.9300,88,99,72378
1.7204,0.1760,37.9300,88,99,72381
1.7498,0.2297,37.6500,88,99,72384
1.7058,0.1760,37.7100,88,99,72387
1.7009,0.1711,37.9300,88,99,72391
1.7009,0.1808,37.9000,88,99,72394
1.7009,0.1760,37.9600,88,99,72397
1.7546,0.1906,37.6500,88,99,72400
1.7204,0.1760,37.8000,88,99,72404
1.7058,0.1760,37.9600,88,99,72408
1.7058,0.1808,37.9000,88,99,72411
1.6911,0.1760,37.9300,88,99,72414
1.7400,0.1857,37.5900,88,99,72417
1.7058,0.1760,37.7700,88,99,72421
1.7009,0.1760,37.9600,88,99,72424
1.7107,0.1515,37.8700,88,99,72427
1.6911,0.1760,37.9300,88,99,72430
1.7400,0.1857,37.6500,88,99,72434
1.7009,0.1760,37.8300,88,99,72437
1.7009,0.1711,37.9300,88,99,72440
1.7107,0.1808,37.9000,88,99,72443
1.7009,0.1760,38.1500,88,99,72448
1.7351,0.1857,37.6200,88,99,72451
1.7107,0.1857,37.8300,88,99,72454
1.6960,0.1760,37.6800,88,99,72457
1.7107,0.1808,37.8700,88,99,72461
1.7155,0.1760,37.9000,88,99,72464
1.7351,0.2151,37.6500,88,99,72467
1.7155,0.1760,37.8700,88,99,72470
1.7058,0.1760,37.9300,88,99,72474
1.7400,0.1711,37.8700,88,99,72477
1.7400,0.1760,37.9300,88,99,72480
1.8035,0.1808,37.6200,88,99,72483
1.7889,0.1760,37.8700,88,99,72487
1.7889,0.1760,37.8300,88,99,72491
1.8133,0.1808,37.8700,88,99,72494
1.8035,0.1760,37.9300,88,99,72497
1.8573,0.1906,37.6500,88,99,72501
1.8377,0.1808,37.8300,88,99,72504
1.8426,0.1760,37.9300,88,99,72507
1.8964,0.1906,37.8300,88,99,72510
1.8768,0.1760,38.0200,88,99,72514
1.9355,0.1808,37.6500,88,99,72517
1.9453,0.1808,37.8700,88,99,72520
1.9257,0.1760,37.8300,88,99,72523
1.9404,0.1857,37.8700,88,99,72527
1.9013,0.1711,37.9600,88,99,72530
1.9110,0.1808,36.7900,88,99,72534
1.8328,0.1760,38.0200,88,99,72537
1.7986,0.1760,37.9300,88,99,72541
1.7937,0.1808,37.8300,88,99,72544
1.7253,0.1808,37.9000,88,99,72547
1.7302,0.1808,37.6800,88,99,72550
1.6764,0.1662,37.8000,88,99,72554
1.6520,0.1760,37.9300,88,99,72557
1.6520,0.1515,37.8000,88,99,72560
1.6129,0.1760,37.9300,88,99,72563
1.6276,0.1760,37.7100,88,99,72566
1.5934,0.1760,37.8300,88,99,72570
1.6080,0.1760,37.9000,88,99,72573
1.5934,0.1808,37.7400,88,99,72577
1.5885,0.1711,37.9300,88,99,72580
1.6080,0.1857,37.7100,88,99,72584
1.5836,0.2004,37.9000,88,99,72587
1.5836,0.1760,37.9300,88,99,72590
1.5982,0.1760,37.8000,88,99,72593
1.5787,0.1955,37.9300,88,99,72597
1.6080,0.1760,37.7400,88,99,72600
1.5982,0.1760,37.8300,88,99,72603
1.5982,0.1711,37.9600,88,99,72606
1.6178,0.1808,37.1600,88,99,72610
1.6080,0.1711,37.9300,88,99,72613
1.6325,0.1808,37.8000,88,99,72616
1.5982,0.1711,37.9000,88,99,72620
1.5934,0.1760,37.9300,88,99,72624
1.5640,0.1808,37.8000,88,99,72627
1.5103,0.1515,37.9300,88,99,72630
1.5054,0.1760,37.7400,88,99,72633
1.4907,0.1760,37.9000,88,99,72637
1.5885,0.1760,37.0700,88,99,72640
1.8231,0.1808,37.8000,88,99,72643
2.1554,0.1760,37.9000,88,99,72646
2.5855,0.1760,37.8700,88,99,72650
3.0059,0.1711,37.8700,88,99,72653
3.3969,0.1857,37.9300,88,99,72656
3.6315,0.1760,37.8000,88,99,72659
3.5239,0.1760,37.9300,88,99,72664
3.2747,0.1760,37.8000,88,99,72667
2.8055,0.1760,37.9000,88,99,72670
2.3851,0.1760,37.9300,88,99,72673
2.0332,0.1760,37.8300,88,99,72677
1.7449,0.2199,37.9300,88,99,72680
1.5787,0.1808,37.8300,88,99,72683
1.4321,0.1760,37.9300,88,99,72686
1.3783,0.1906,37.9600,88,99,72689
1.3636,0.1857,37.9000,88,99,72693
1.3343,0.1760,37.9300,88,99,72696
1.3490,0.1808,37.8300,88,99,72699
1.3245,0.1760,38.0200,88,99,72702
1.3392,0.1760,37.9000,88,99,72707
1.3685,0.1857,37.8000,88,99,72710
1.3685,0.1760,37.9300,88,99,72713
1.3930,0.1711,37.7700,88,99,72716
1.3881,0.1760,37.9300,88,99,72720
1.4027,0.1808,37.9000,88,99,72723
1.4223,0.1760,37.8700,88,99,72726
1.4321,0.1808,37.9000,88,99,72729
1.4565,0.1808,37.7700,88,99,72733
1.4418,0.1760,37.9300,88,99,72736
1.4663,0.1711,37.9300,88,99,72739
1.4956,0.1857,37.7400,88,99,72742
1.4858,0.1857,37.9000,88,99,72747
1.5103,0.1515,37.7700,88,99,72750
1.4956,0.1711,37.9300,88,99,72753
1.5152,0.1808,37.9600,88,99,72756
1.5445,0.1808,37.7700,88,99,72760
1.5298,0.1760,37.9000,88,99,72763
1.5640,0.1808,37.7700,88,99,72766
1.5543,0.1760,37.9600,88,99,72769
1.5640,0.1760,37.9300,88,99,72773
1.5836,0.1808,37.8700,88,99,72776
1.5787,0.1955,37.9300,88,99,72779
1.6080,0.1760,37.7700,88,99,72782
1.5934,0.1760,37.9600,88,99,72786
1.6031,0.1760,37.9300,88,99,72790
1.6373,0.1857,37.7400,88,99,72793
1.6227,0.1808,37.9600,88,99,72796
1.6422,0.1760,37.8000,88,99,72800
1.6325,0.1857,37.9300,88,99,72803
1.6471,0.1760,37.9900,88,99,72806
1.6813,0.1808,37.7700,88,99,72809
1.6716,0.1808,37.9000,88,99,72813
1.6862,0.1760,37.0400,88,99,72816
1.6764,0.1760,37.9300,88,99,72819
1.7204,0.1760,37.9300,88,99,72824
1.7351,0.1760,37.0700,88,99,72827
1.7791,0.1808,37.8000,88,99,72830
1.7693,0.1760,37.9000,88,99,72834
1.8084,0.1760,37.9000,88,99,72838
1.8280,0.1662,37.9000,88,99,72841
1.8133,0.1760,37.9300,88,99,72844
1.8573,0.1760,37.9000,88,99,72847
1.8524,0.1711,37.9000,88,99,72851
1.8915,0.1857,37.8000,88,99,72854
1.8768,0.1711,37.9300,88,99,72857
1.8964,0.1711,37.9300,88,99,72860
1.9208,0.1760,37.8000,88,99,72864
1.9159,0.1760,38.0200,88,99,72867
1.9697,0.1857,37.8000,88,99,72870
1.9208,0.1808,37.9000,88,99,72873
1.9306,0.1760,37.9300,88,99,72878
1.9648,0.1711,37.7400,88,99,72881
1.9404,0.1808,37.9000,88,99,72884
1.9697,0.1808,37.8000,88,99,72887
1.9404,0.1808,37.9300,88,99,72891
1.9404,0.1760,38.0500,88,99,72894
1.9648,0.1808,37.7700,88,99,72897
1.9257,0.1662,37.9000,88,99,72900
1.9404,0.1760,37.7400,88,99,72904
1.8964,0.1760,37.9300,88,99,72907
1.8866,0.1711,37.9300,88,99,72910
1.8866,0.1857,37.7700,88,99,72913
1.8622,0.1760,37.9900,88,99,72918
1.8671,0.1711,37.7700,88,99,72921
1.8231,0.1760,37.9300,88,99,72924
1.8035,0.1760,37.9300,88,99,72927
1.8182,0.1808,37.7400,88,99,72931
1.7791,0.1808,37.9900,88,99,72934
1.7791,0.1711,37.7700,88,99,72937
1.7449,0.1808,37.9000,88,99,72940
1.7351,0.1760,37.9900,88,99,72944
1.7546,0.1808,37.7400,88,99,72947
1.7595,0.1760,37.9000,88,99,72950
1.7351,0.1760,37.7700,88,99,72953
1.7058,0.1760,37.9300,88,99,72956
1.7009,0.1711,37.9300,88,99,72961
1.7253,0.1906,37.8700,88,99,72964
1.7204,0.1808,37.9000,88,99,72967
1.7302,0.1857,37.8000,88,99,72970
1.7155,0.1760,37.9600,88,99,72974
1.7204,0.1760,37.9300,88,99,72977
1.7498,0.1808,37.7100,88,99,72980
1.7351,0.1955,37.8300,88,99,72983
1.7400,0.1760,37.8000,88,99,72987
1.7253,0.1760,37.9300,88,99,72990
1.7253,0.1760,38.1800,88,99,72993
1.7546,0.1808,37.7400,88,99,72996
1.7644,0.1857,37.9000,88,99,73000
1.7400,0.1760,37.8000,88,99,73004
1.7351,0.1760,37.9300,88,99,73007
1.7449,0.1760,37.9300,88,99,73010
1.7840,0.1906,37.8000,88,99,73014
1.7644,0.1808,37.8700,88,99,73017
1.7693,0.1711,37.8000,88,99,73020
1.7449,0.1760,37.9300,88,99,73023
1.7498,0.1760,37.9000,88,99,73027
1.7840,0.1857,37.7400,88,99,73030
1.7693,0.1808,37.8300,88,99,73033
1.7595,0.1760,37.8000,88,99,73036
1.7546,0.1760,37.9000,88,99,73040
1.7498,0.1711,37.9000,88,99,73043
1.7889,0.1857,37.6500,88,99,73047
1.7546,0.1808,37.8700,88,99,73050
1.7449,0.1760,37.8300,88,99,73054
1.7400,0.1711,37.9300,88,99,73057
1.7400,0.1808,37.9300,88,99,73060
1.7840,0.1857,37.7700,88,99,73063
1.7546,0.1857,37.8700,88,99,73067
1.7498,0.1711,37.8300,88,99,73070
1.7400,0.2151,37.9900,88,99,73073
1.7302,0.1711,37.9300,88,99,73076
1.7986,0.1808,37.7100,88,99,73080
1.7449,0.1711,37.8300,88,99,73083
1.7204,0.2102,37.8700,88,99,73086
1.7155,0.1760,37.9300,88,99,73090
1.7155,0.1760,37.9300,88,99,73094
1.7546,0.1857,37.7700,88,99,73097
1.7253,0.1808,37.8300,88,99,73100
1.7204,0.1711,37.8700,88,99,73103
1.7204,0.1760,37.9000,88,99,73107
1.7155,0.1711,37.9300,88,99,73110
1.7644,0.2102,37.7100,88,99,73113
1.7302,0.1808,37.8700,88,99,73116
1.7253,0.1760,37.8700,88,99,73120
1.7449,0.1808,37.9000,88,99,73123
1.7107,0.1760,37.9900,88,99,73126
1.7595,0.1906,37.6800,88,99,73129
1.7302,0.1906,37.8000,88,99,73134
1.7107,0.1711,37.9900,88,99,73137
1.7155,0.1760,37.9300,88,99,73140
1.7155,0.1760,37.9300,88,99,73143
1.7644,0.1906,37.7100,88,99,73146
1.7204,0.1808,37.8000,88,99,73150
1.7107,0.1760,37.8700,88,99,73153
1.7155,0.1955,37.9000,88,99,73156
1.7155,0.1760,37.9300,88,99,73159
1.7693,0.1906,37.7400,88,99,73163
1.7351,0.1857,37.8300,88,99,73166
1.7302,0.1711,37.9000,88,99,73169
1.7351,0.1808,37.9300,88,99,73172
1.7351,0.1760,37.9300,88,99,73177
1.7889,0.1857,37.6800,88,99,73180
1.7644,0.1808,37.7700,88,99,73183
1.7644,0.1711,37.9000,88,99,73186
1.7937,0.1857,37.9000,88,99,73190
1.7889,0.1760,38.0200,88,99,73193
1.8573,0.1955,37.6500,88,99,73196
1.8426,0.1857,37.7700,88,99,73199
1.8231,0.1711,37.9000,88,99,73203
1.8377,0.1906,38.0200,88,99,73206
1.8475,0.1760,37.9600,88,99,73209
1.9159,0.1906,37.6500,88,99,73212
1.8964,0.1808,37.8000,88,99,73217
1.8964,0.1711,37.9300,88,99,73220
1.9355,0.1711,37.8700,88,99,73223
1.9404,0.1662,37.9300,88,99,73226
2.0088,0.1906,37.7400,88,99,73230
1.9648,0.1711,37.7700,88,99,73233
1.9355,0.1808,37.9000,88,99,73236
1.9110,0.1857,38.0800,88,99,73239
1.8719,0.1711,37.9300,88,99,73243
1.8817,0.1857,37.6200,88,99,73246
1.8035,0.1808,37.8000,88,99,73249
1.7693,0.1711,37.9000,88,99,73252
1.7400,0.1760,37.9600,88,99,73256
1.7107,0.1808,37.9000,88,99,73260
1.7253,0.1808,37.6200,88,99,73263
1.6716,0.1808,37.8300,88,99,73266
1.6422,0.1760,37.9000,88,99,73270
1.6373,0.1808,37.9000,88,99,73273
1.6178,0.1711,37.9300,88,99,73276
1.6471,0.1857,37.6200,88,99,73279
1.6276,0.1760,37.7700,88,99,73283
1.5934,0.2004,37.9600,88,99,73286
1.6031,0.1808,37.9000,88,99,73289
1.5934,0.1808,37.9300,88,99,73292
1.6373,0.1857,37.6200,88,99,73296
1.6031,0.1760,37.9300,88,99,73299
1.6129,0.1760,37.9300,88,99,73303
1.6227,0.1808,37.9000,88,99,73306
1.6178,0.1857,37.9900,88,99,73310
1.6618,0.1808,37.7700,88,99,73313
1.6667,0.1711,37.8300,88,99,73316
1.6276,0.1808,37.9300,88,99,73319
1.6373,0.1808,37.7700,88,99,73323
1.6129,0.1711,37.9300,88,99,73326
1.6325,0.1808,37.6200,88,99,73329
1.5689,0.1760,37.8000,88,99,73332
1.5103,0.1711,37.9300,88,99,73336
1.5103,0.1808,37.8700,88,99,73339
1.5152,0.2102,37.9000,88,99,73342
1.6667,0.1808,37.6500,88,99,73346
1.8524,0.1515,37.8700,88,99,73350
2.1945,0.1711,37.9600,88,99,73353
2.6442,0.1857,37.8700,88,99,73356
3.0890,0.1857,37.9000,88,99,73359
3.5386,0.1808,37.6500,88,99,73363
3.6461,0.1857,37.8300,88,99,73366
3.5044,0.1760,37.8700,88,99,73369
3.2063,0.1808,37.9600,88,99,73372
2.7713,0.1711,37.9300,88,99,73376
2.3558,0.1760,37.6200,88,99,73379
1.9404,0.1808,38.0200,88,99,73382
1.6520,0.1711,37.9000,88,99,73385
1.4809,0.1857,37.8300,88,99,73389
1.3685,0.1711,37.9300,88,99,73393
1.3832,0.1760,37.6500,88,99,73396
1.3050,0.1808,37.9000,88,99,73399
1.3050,0.1760,37.9600,88,99,73402
1.3343,0.1808,37.8700,88,99,73406
1.3392,0.1711,37.9000,88,99,73409
1.3881,0.1808,37.7700,88,99,73412
1.4174,0.1760,37.8000,88,99,73415
1.3930,0.1760,37.9000,88,99,73419
1.4272,0.1857,37.0400,88,99,73422
1.4223,0.1760,37.9300,88,99,73425
1.4614,0.1857,37.7100,88,99,73428
1.5494,0.1857,37.6200,88,99,73434
1.5200,0.1760,37.8300,88,99,73437
1.5298,0.1760,37.9300,88,99,73441
1.5396,0.1760,38.0200,88,99,73444
1.5494,0.1760,37.9300,88,99,73447
1.6422,0.1808,37.5900,88,99,73450
1.5885,0.1808,37.8300,88,99,73454
1.5934,0.1760,37.9600,88,99,73457
1.6178,0.1808,37.8700,88,99,73460
1.6129,0.1808,37.9300,88,99,73463
1.6667,0.1857,37.7400,88,99,73467
1.6373,0.1760,37.8700,88,99,73470
1.6422,0.1760,37.9000,88,99,73474
1.6471,0.1955,37.8700,88,99,73477
1.6422,0.1515,37.9300,88,99,73481
1.7155,0.1711,37.6200,88,99,73484
1.6471,0.1711,37.8300,88,99,73487
1.6667,0.1711,37.9300,88,99,73490
1.6764,0.1760,37.9000,88,99,73494
1.6764,0.1760,37.9300,88,99,73497
1.7351,0.1711,37.6200,88,99,73500
1.7155,0.1808,37.8300,88,99,73503
1.7107,0.1760,37.8700,88,99,73507
1.7253,0.1808,37.8300,88,99,73510
1.7204,0.1760,37.9300,88,99,73513
1.7693,0.1955,37.6200,88,99,73517
1.7449,0.1760,37.7700,88,99,73521
1.7449,0.1760,37.8300,88,99,73524
1.7693,0.1515,37.9000,88,99,73527
1.7644,0.1760,37.9300,88,99,73530
1.8231,0.1857,37.6200,88,99,73534
1.7889,0.1760,37.8300,88,99,73537
1.8035,0.1760,37.9300,88,99,73540
1.8182,0.1711,37.9000,88,99,73543
1.8231,0.1857,37.9000,88,99,73547
1.8866,0.1857,37.6200,88,99,73550
1.8768,0.1808,37.8300,88,99,73553
1.8719,0.1760,37.9300,88,99,73556
1.9013,0.1906,37.8700,88,99,73561
1.8915,0.1760,37.9300,88,99,73564
1.9453,0.1808,37.6200,88,99,73567
1.9159,0.1760,37.8000,88,99,73570
1.9110,0.1760,37.9300,88,99,73574
1.9208,0.1808,37.8700,88,99,73577
1.9110,0.1711,37.9300,88,99,73580
1.9648,0.1808,37.6200,88,99,73583
1.9159,0.1711,37.8300,88,99,73587
1.9306,0.1711,37.9300,88,99,73590
1.9355,0.1857,37.9000,88,99,73593
1.9159,0.1760,37.9000,88,99,73596
1.9599,0.1857,37.7700,88,99,73601
1.9208,0.1808,37.8000,88,99,73604
1.9013,0.1760,37.9600,88,99,73607
1.9208,0.1857,37.7700,88,99,73610
1.8768,0.1711,37.9300,88,99,73613
1.9159,0.1906,37.6500,88,99,73617
1.8768,0.1857,37.7700,88,99,73620
1.8524,0.1760,37.9300,88,99,73623
1.8524,0.1857,37.8300,88,99,73626
1.8182,0.1760,37.9300,88,99,73630
1.8719,0.1808,37.6500,88,99,73633
1.7840,0.1711,37.9300,88,99,73636
1.7742,0.1808,37.9300,88,99,73639
1.7742,0.1808,37.9300,88,99,73644
1.7400,0.1760,37.9300,88,99,73647
1.7644,0.1906,37.6500,88,99,73650
1.7302,0.1760,37.8300,88,99,73653
1.7155,0.1760,37.9000,88,99,73657
1.7253,0.1906,37.7700,88,99,73660
1.6960,0.1711,37.9300,88,99,73663
1.7204,0.1711,37.6800,88,99,73666
1.6911,0.1760,37.8000,88,99,73670
1.6862,0.1760,37.9600,88,99,73673
1.7009,0.1711,37.8300,88,99,73676
1.6911,0.1760,37.9600,88,99,73679
1.7204,0.1760,37.6800,88,99,73683
1.6862,0.1711,37.9000,88,99,73687
1.6911,0.2199,37.9000,88,99,73690
1.7155,0.1808,37.7400,88,99,73693
1.7058,0.1760,37.9600,88,99,73697
1.7449,0.1760,37.6800,88,99,73700
1.7302,0.1760,37.7700,88,99,73703
1.7253,0.1760,37.9300,88,99,73706
1.7546,0.1808,37.7700,88,99,73710
1.7302,0.1808,37.9000,88,99,73713
1.7595,0.1760,37.7400,88,99,73716
1.7595,0.1760,37.8300,88,99,73719
1.7302,0.2102,37.9000,88,99,73723
1.7449,0.1808,37.7700,88,99,73726
1.7400,0.1711,37.9000,88,99,73730
1.7644,0.1760,36.9800,88,99,73733
1.7400,0.1760,38.1500,88,99,73737
1.7449,0.1760,37.9000,88,99,73740
1.7644,0.1857,37.8000,88,99,73743
1.7351,0.1808,37.9900,88,99,73746
1.7498,0.1760,37.7700,88,99,73749
1.7204,0.1760,37.8300,88,99,73753
1.7253,0.1760,37.9300,88,99,73756
1.7351,0.1808,37.7700,88,99,73759
1.7253,0.1711,37.9300,88,99,73762
1.7449,0.2297,37.7700,88,99,73766
1.7155,0.1711,37.6500,88,99,73769
1.7204,0.1760,37.9000,88,99,73773
1.7253,0.1760,37.8000,88,99,73776
1.7204,0.1760,38.0500,88,99,73780
1.7400,0.1808,37.7700,88,99,73783
1.7058,0.1906,37.8700,88,99,73786
1.7107,0.1760,37.9300,88,99,73789
1.7302,0.1857,37.7700,88,99,73793
1.7058,0.1808,37.9000,88,99,73796
1.7253,0.1857,37.8000,88,99,73799
1.7253,0.1760,37.9300,88,99,73802
1.7009,0.1808,37.7700,88,99,73806
1.7253,0.1857,37.8000,88,99,73809
1.7009,0.1808,37.9300,88,99,73812
1.7253,0.1808,37.8300,88,99,73816
1.6862,0.1760,37.9300,88,99,73820
1.6911,0.1711,37.9000,88,99,73823
1.6960,0.1808,37.8700,88,99,73826
1.6862,0.1808,37.9000,88,99,73829
1.7058,0.1857,37.8000,88,99,73833
1.6813,0.2102,37.9000,88,99,73836
1.7009,0.1760,37.9000,88,99,73839
1.7400,0.2102,37.6800,88,99,73842
1.7351,0.1808,38.1100,88,99,73846
1.7644,0.1808,37.7700,88,99,73849
1.7546,0.1760,37.9900,88,99,73852
1.7693,0.1760,37.9300,88,99,73856
1.8035,0.1857,37.7100,88,99,73859
1.7986,0.2151,37.9000,88,99,73863
1.8231,0.1808,37.8000,88,99,73866
1.8182,0.1711,37.9300,88,99,73869
1.8622,0.1760,37.9300,88,99,73872
1.8719,0.1857,37.8700,88,99,73876
1.8768,0.1808,38.1500,88,99,73879
1.9355,0.1857,37.7700,88,99,73882
1.8866,0.1760,37.9300,88,99,73885
1.8915,0.1760,37.9300,88,99,73889
1.9208,0.1857,37.7400,88,99,73892
1.8866,0.1808,37.8700,88,99,73895
1.8573,0.1760,37.8000,88,99,73899
1.8035,0.1760,37.9300,88,99,73903
1.7742,0.1760,37.9000,88,99,73906
1.7595,0.1906,37.8700,88,99,73909
1.7107,0.1808,37.9000,88,99,73912
1.6911,0.1808,37.8000,88,99,73916
1.6471,0.1808,38.0200,88,99,73919
1.6276,0.1760,38.0200,88,99,73922
1.6422,0.1857,37.8000,88,99,73925
1.6031,0.1808,37.9000,88,99,73929
1.6031,0.1760,37.8000,88,99,73932
1.5885,0.1760,37.9000,88,99,73935
1.5738,0.1760,37.6800,88,99,73938
1.6031,0.1857,37.7100,88,99,73943
1.5982,0.1711,37.8300,88,99,73946
1.5836,0.1760,37.7700,88,99,73949
1.5787,0.1808,37.9300,88,99,73952
1.6080,0.1760,37.9300,88,99,73956
1.6325,0.1906,37.7100,88,99,73959
1.6080,0.1808,37.8300,88,99,73962
1.6080,0.1613,37.8700,88,99,73965
1.5982,0.1760,37.9300,88,99,73968
1.6129,0.1760,37.9300,88,99,73972
1.6569,0.1711,37.7400,88,99,73975
1.6422,0.1808,37.8300,88,99,73978
1.6325,0.1760,37.8300,88,99,73981
1.6129,0.1808,37.9300,88,99,73986
1.5787,0.1760,37.9300,88,99,73989
1.5836,0.1906,37.7100,88,99,73992
1.5249,0.1857,37.8000,88,99,73995
1.5249,0.1760,37.8300,88,99,73999
1.5640,0.1906,37.8000,88,99,74002
1.7253,0.1760,37.9300,88,99,74005
2.0626,0.1955,37.7100,88,99,74008
2.4047,0.1857,37.1600,88,99,74012
2.8495,0.1760,37.8700,88,99,74015
3.3138,0.1808,37.9000,88,99,74018
3.5630,0.2004,37.9000,88,99,74021
3.7341,0.1906,37.6800,88,99,74025
3.4066,0.1808,37.8300,88,99,74029
3.0059,0.1711,37.9300,88,99,74032
2.5806,0.1808,37.9000,88,99,74035
2.1505,0.1760,37.9000,88,99,74039
1.8671,0.1906,37.6200,88,99,74042
1.3392,0.1857,37.8700,88,99,74045
1.3245,0.1808,37.9000,88,99,74049
1.3392,0.1857,37.8000,88,99,74052
1.3490,0.1808,38.1500,88,99,74055
1.3685,0.1760,37.9300,88,99,74058
1.4174,0.1906,37.8000,88,99,74062
1.4027,0.1808,37.9600,88,99,74065
1.4272,0.1711,37.8300,88,99,74068
1.4321,0.1808,37.9000,88,99,74072
1.4516,0.2102,37.9600,88,99,74076
1.5005,0.1857,37.8000,88,99,74079
1.5005,0.1857,37.8700,88,99,74082
1.5054,0.1760,37.8700,88,99,74085
1.5103,0.1808,37.9000,88,99,74089
1.5200,0.1857,37.9300,88,99,74092
1.5689,0.1906,37.9000,88,99,74095
1.5445,0.1857,37.8300,88,99,74098
1.5494,0.1760,37.8300,88,99,74102
1.5640,0.1808,37.9000,88,99,74105
1.5787,0.1808,37.9300,88,99,74108
1.6276,0.2004,37.7100,88,99,74112
1.5982,0.1857,37.8700,88,99,74116
1.5982,0.1711,37.8300,88,99,74119
1.6129,0.1711,37.9300,88,99,74122
1.6129,0.1955,37.9000,88,99,74125
1.6667,0.1906,37.6500,88,99,74129
1.6422,0.1906,37.8000,88,99,74132
1.6569,0.1808,37.8700,88,99,74135
1.6373,0.1808,37.9000,88,99,74138
1.6471,0.1808,37.9300,88,99,74142
1.7009,0.2004,37.6800,88,99,74145
1.6667,0.1857,37.7700,88,99,74148
1.6667,0.1515,37.8700,88,99,74151
1.6667,0.1808,37.9300,88,99,74156
1.6764,0.1760,37.9300,88,99,74159
1.7351,0.1955,37.6800,88,99,74162
1.7058,0.1808,37.7700,88,99,74165
1.7155,0.1760,37.8700,88,99,74169
1.7253,0.1808,37.9000,88,99,74172
1.7351,0.1808,37.9300,88,99,74175
1.7986,0.1906,37.6800,88,99,74178
1.7791,0.1808,37.7700,88,99,74182
1.7791,0.2004,37.8700,88,99,74185
1.7937,0.1808,37.9300,88,99,74188
1.8328,0.1760,37.9300,88,99,74191
1.8622,0.1906,37.5900,88,99,74194
1.8280,0.1808,37.8000,88,99,74199
1.8328,0.1808,37.9000,88,99,74202
1.8475,0.1808,37.9600,88,99,74205
1.8524,0.1808,37.9600,88,99,74208
1.9110,0.1955,37.6200,88,99,74212
1.8866,0.1808,37.9300,88,99,74215
1.8915,0.1760,37.9000,88,99,74218
1.9257,0.1711,37.8700,88,99,74221
1.9013,0.1760,37.9000,88,99,74225
1.9599,0.1857,37.6200,88,99,74228
1.9257,0.1808,37.7700,88,99,74231
1.9208,0.1711,37.9300,88,99,74234
1.9355,0.1808,37.8700,88,99,74238
1.9355,0.1808,38.0500,88,99,74242
1.9892,0.1857,37.6200,88,99,74245
1.9404,0.1760,37.8000,88,99,74248
1.9355,0.1760,37.9300,88,99,74252
1.9355,0.1808,37.8700,88,99,74255
1.9159,0.1711,37.9300,88,99,74258
1.9648,0.1857,37.5900,88,99,74261
1.9306,0.1857,38.0200,88,99,74265
1.9013,0.1711,37.9000,88,99,74268
1.9062,0.1857,37.9300,88,99,74271
1.8817,0.1760,37.9000,88,99,74274
1.9159,0.1857,37.6200,88,99,74278
1.8671,0.1808,37.7700,88,99,74281
1.8377,0.1711,37.9000,88,99,74285
1.8280,0.1857,37.8700,88,99,74288
1.7986,0.1808,37.9300,88,99,74292
1.8231,0.1808,37.6500,88,99,74295
1.7644,0.1711,37.8000,88,99,74298
1.7644,0.1808,37.9300,88,99,74301
1.7693,0.1857,37.8700,88,99,74305
1.7498,0.1808,37.9300,88,99,74308
1.7791,0.2199,37.6500,88,99,74311
1.7449,0.1808,37.8300,88,99,74314
1.7253,0.1760,37.9300,88,99,74318
1.7351,0.1808,37.8300,88,99,74321
1.7155,0.1808,38.0200,88,99,74324
1.7595,0.1857,37.6500,88,99,74328
1.7400,0.1711,37.8300,88,99,74332
1.7204,0.1760,37.9300,88,99,74335
1.7351,0.1515,37.8300,88,99,74338
1.7400,0.1711,37.9300,88,99,74341
1.7840,0.1857,37.6200,88,99,74345
1.7449,0.1760,38.1500,88,99,74348
1.7546,0.1808,37.9300,88,99,74351
1.7742,0.1808,37.8300,88,99,74354
1.7498,0.1857,37.9000,88,99,74358
1.7937,0.1857,37.4300,88,99,74361
1.7840,0.1808,37.8000,88,99,74364
1.7791,0.1808,37.9000,88,99,74368
1.8035,0.1906,37.6800,88,99,74372
1.7840,0.1808,37.9300,88,99,74375
1.8231,0.1857,37.6200,88,99,74378
1.7937,0.1857,38.2700,88,99,74381
1.7840,0.1808,37.9300,88,99,74385
1.7986,0.1857,37.8000,88,99,74388
1.7840,0.1808,37.9300,88,99,74391
1.8133,0.1711,37.6800,88,99,74394
1.7791,0.1760,37.9300,88,99,74397
1.7791,0.1808,37.9000,88,99,74401
1.7986,0.1906,37.8000,88,99,74404
1.7791,0.1808,37.9300,88,99,74407
1.7986,0.1857,37.6800,88,99,74411
1.7742,0.1808,37.8000,88,99,74415
1.7644,0.1857,37.9000,88,99,74418
1.7791,0.1857,37.7400,88,99,74421
1.7546,0.1808,37.9300,88,99,74424
1.7840,0.1857,37.7100,88,99,74428
1.7498,0.2102,37.8300,88,99,74431
1.7498,0.1808,37.9300,88,99,74434
1.7693,0.1857,37.7700,88,99,74437
1.7546,0.1808,37.9300,88,99,74441
1.7840,0.1808,37.6800,88,99,74444
1.7546,0.1515,37.9300,88,99,74447
1.7498,0.1760,37.9000,88,99,74450
1.7644,0.1857,37.7700,88,99,74455
1.7449,0.1808,37.8700,88,99,74458
1.7693,0.1808,37.7100,88,99,74461
1.7449,0.1760,37.8000,88,99,74464
1.7400,0.1808,37.7100,88,99,74468
1.7546,0.1857,37.7400,88,99,74471
1.7351,0.1808,37.9300,88,99,74474
1.7498,0.1808,37.7100,88,99,74477
1.7204,0.1760,37.9000,88,99,74481
1.7155,0.1711,37.9000,88,99,74484
1.7302,0.1906,37.7700,88,99,74487
1.7204,0.1808,37.9000,88,99,74490
1.7449,0.1857,37.7400,88,99,74494
1.7204,0.1808,37.9000,88,99,74498
1.7302,0.1760,37.9300,88,99,74501
1.7595,0.1857,37.7700,88,99,74504
1.7351,0.1760,37.9000,88,99,74508
1.7644,0.1808,37.7700,88,99,74511
1.7498,0.1760,37.8700,88,99,74514
1.7546,0.1760,37.9000,88,99,74517
1.7889,0.1906,37.7700,88,99,74521
1.7889,0.1808,37.9000,88,99,74524
1.8328,0.1857,37.8000,88,99,74527
1.8182,0.1808,37.9000,88,99,74530
1.8426,0.1808,37.9300,88,99,74533
1.8671,0.1760,37.8000,88,99,74537
1.8622,0.1808,38.0200,88,99,74541
1.9110,0.1955,37.8000,88,99,74544
1.8817,0.1808,37.9300,88,99,74547
1.9013,0.1808,38.1800,88,99,74551
1.9501,0.1955,37.7700,88,99,74554
1.9453,0.1808,37.9000,88,99,74557
1.9844,0.1906,37.9000,88,99,74560
1.9648,0.1808,37.9000,88,99,74564
1.9599,0.2053,37.9300,88,99,74567
1.9697,0.1906,37.7100,88,99,74570
1.9257,0.1857,37.9000,88,99,74573
1.9110,0.1808,37.7700,88,99,74577
1.8475,0.1808,37.9600,88,99,74580
1.8231,0.1808,37.9300,88,99,74584
1.7986,0.1711,37.8300,88,99,74587
1.7546,0.1808,37.9000,88,99,74591
1.7546,0.1857,37.7700,88,99,74594
1.7058,0.1808,37.9300,88,99,74597
1.6862,0.1808,37.9000,88,99,74600
1.6960,0.1906,37.7400,88,99,74604
1.6520,0.1857,37.9000,88,99,74607
1.6569,0.1906,37.7700,88,99,74610
1.6276,0.1808,37.9300,88,99,74613
1.6325,0.1808,37.9300,88,99,74617
1.6471,0.1906,37.7100,88,99,74620
1.6276,0.1857,37.4000,88,99,74624
1.6373,0.1808,37.7700,88,99,74627
1.6227,0.1808,37.9000,88,99,74631
1.6276,0.1808,38.2100,88,99,74634
1.6471,0.1906,37.8300,88,99,74637
1.6471,0.1808,37.9000,88,99,74640
1.6667,0.1808,37.8000,88,99,74643
1.6569,0.1711,37.9300,88,99,74647
1.6618,0.2297,37.9000,88,99,74650
1.6960,0.1906,37.6800,88,99,74653
1.5982,0.1857,37.7400,88,99,74657
1.5396,0.1515,37.9300,88,99,74660
1.5543,0.1906,37.7700,88,99,74663
1.6031,0.1808,37.8700,88,99,74668
1.7937,0.1515,37.9300,88,99,74671
2.1114,0.1808,37.8000,88,99,74674
2.5024,0.1808,37.9000,88,99,74677
3.0156,0.1711,37.7700,88,99,74681
3.3871,0.1808,37.9300,88,99,74684
3.6559,0.1808,37.9000,88,99,74687
3.7243,0.1955,37.7700,88,99,74690
3.4262,0.1906,37.9000,88,99,74694
3.0596,0.1857,37.8000,88,99,74697
2.6100,0.1808,37.7700,88,99,74700
2.1945,0.1808,38.0200,88,99,74703
1.9453,0.1906,37.7400,88,99,74706
1.6618,0.1906,37.8700,88,99,74711
1.5347,0.1808,37.7400,88,99,74714
1.4467,0.1808,37.9000,88,99,74717
1.3978,0.1906,37.9300,88,99,74720
1.4027,0.1906,37.9600,88,99,74724
1.4027,0.1711,37.8700,88,99,74727
1.4174,0.2053,37.7700,88,99,74730
1.4027,0.1857,37.9000,88,99,74733
1.4076,0.1808,37.9300,88,99,74737
1.4418,0.1857,37.7100,88,99,74740
1.4321,0.1857,37.8700,88,99,74743
1.4565,0.1808,37.9300,88,99,74746
1.4516,0.1808,37.9000,88,99,74750
1.4663,0.1711,37.9900,88,99,74754
1.5054,0.1857,37.7400,88,99,74757
1.5005,0.1857,37.9000,88,99,74760
1.5249,0.1857,37.7400,88,99,74764
1.5249,0.1808,38.0200,88,99,74767
1.5396,0.1808,37.9300,88,99,74770
1.5640,0.1711,37.8300,88,99,74773
1.5591,0.1906,37.9000,88,99,74777
1.5787,0.1808,37.7700,88,99,74780
1.5738,0.1808,37.9000,88,99,74783
1.5885,0.1760,37.9000,88,99,74786
1.6276,0.1906,37.7400,88,99,74790
1.6178,0.1857,37.8300,88,99,74793
1.6276,0.1857,37.8000,88,99,74797
1.6227,0.1808,37.7700,88,99,74800
1.6325,0.1808,37.9300,88,99,74804
1.6667,0.1857,37.7400,88,99,74807
1.6471,0.1857,37.7100,88,99,74810
1.6569,0.1515,37.8300,88,99,74813
1.6520,0.1808,37.9300,88,99,74817
1.6569,0.1808,37.9000,88,99,74820
1.6960,0.1906,37.9000,88,99,74823
1.6813,0.1857,37.9000,88,99,74826
1.6960,0.1808,37.8300,88,99,74829
1.6960,0.1808,37.9300,88,99,74833
1.7009,0.1857,37.9300,88,99,74836
1.7546,0.1906,37.8700,88,99,74840
1.7449,0.1906,37.8300,88,99,74843
1.7351,0.1857,37.8000,88,99,74847
1.7351,0.1808,37.8700,88,99,74850
1.7498,0.1515,37.9000,88,99,74853
1.8035,0.1955,37.6800,88,99,74856
1.7791,0.1906,37.0100,88,99,74860
1.7889,0.1760,37.8300,88,99,74863
1.7986,0.1857,37.9000,88,99,74866
1.8133,0.1808,37.9600,88,99,74869
1.8768,0.2004,37.7100,88,99,74873
1.8426,0.1906,37.8300,88,99,74876
1.8426,0.1760,37.8700,88,99,74880
1.8573,0.1857,38.1500,88,99,74883
1.8622,0.1808,37.9300,88,99,74887
1.9355,0.1955,37.6800,88,99,74890
1.9110,0.1955,37.8000,88,99,74893
1.9062,0.1760,37.8300,88,99,74896
1.9159,0.1808,37.9000,88,99,74900
1.9208,0.1906,37.9000,88,99,74903
1.9892,0.1906,37.6800,88,99,74906
1.9453,0.1711,37.8000,88,99,74909
1.9453,0.1760,37.9000,88,99,74913
1.9501,0.1857,37.9300,88,99,74916
1.9453,0.1808,37.9300,88,99,74919
2.0235,0.2004,37.6800,88,99,74923
1.9648,0.1857,37.8300,88,99,74927
1.9550,0.1760,37.9300,88,99,74930
1.9599,0.1857,37.9300,88,99,74933
1.9453,0.1857,37.9000,88,99,74936
1.9941,0.2004,37.5900,88,99,74940
1.9453,0.1857,37.7400,88,99,74943
1.9159,0.1711,37.9000,88,99,74946
1.9062,0.1857,37.8700,88,99,74949
1.8866,0.1857,37.9300,88,99,74953
1.9599,0.2004,37.6200,88,99,74956
1.8573,0.1760,37.8000,88,99,74959
1.8328,0.1808,38.1500,88,99,74962
1.8133,0.1857,37.8700,88,99,74967
1.7986,0.1808,37.9300,88,99,74970
1.8280,0.2053,37.6200,88,99,74973
1.7840,0.1857,37.8300,88,99,74976
1.7498,0.1711,37.9300,88,99,74980
1.7498,0.1906,37.8700,88,99,74983
1.7253,0.1857,37.9300,88,99,74986
1.7644,0.1906,37.5900,88,99,74989
1.7253,0.1857,37.7700,88,99,74993
1.7204,0.1808,37.9300,88,99,74996
1.7204,0.1857,37.8700,88,99,74999
1.7107,0.1808,37.9300,88,99,75002
1.7595,0.1955,37.6200,88,99,75005
1.7302,0.1857,37.8300,88,99,75010
1.7155,0.1808,37.9000,88,99,75013
1.7302,0.1857,37.8700,88,99,75016
1.7204,0.1808,37.9300,88,99,75020
1.7644,0.2297,37.5900,88,99,75023
1.7400,0.1857,37.8000,88,99,75026
1.7351,0.1808,37.9000,88,99,75029
1.7546,0.1808,37.9000,88,99,75032
1.7449,0.1808,37.9300,88,99,75036
1.7986,0.1711,37.6200,88,99,75039
1.7693,0.1808,37.8000,88,99,75042
1.7595,0.1808,37.9600,88,99,75045
1.7840,0.1857,37.9300,88,99,75049
1.7840,0.1857,37.9300,88,99,75053
1.8133,0.1906,36.8200,88,99,75056
1.7693,0.1808,37.9300,88,99,75059
1.7791,0.1711,37.9300,88,99,75063
1.8328,0.1711,37.8700,88,99,75066
1.7889,0.1711,37.9000,88,99,75069
1.8377,0.1906,37.5900,88,99,75072
1.8035,0.1857,37.8000,88,99,75076
1.7889,0.1857,37.9300,88,99,75079
1.8035,0.1906,37.8300,88,99,75082
1.7742,0.1808,37.9300,88,99,75085
1.8231,0.1711,37.6500,88,99,75089
1.8182,0.1808,37.8000,88,99,75092
1.7840,0.1808,37.9300,88,99,75096
1.8035,0.1906,37.8300,88,99,75099
1.7791,0.1808,37.9300,88,99,75103
1.8133,0.1906,37.6500,88,99,75106
1.7742,0.1760,37.8700,88,99,75109
1.7693,0.1808,37.9000,88,99,75112
1.7840,0.2248,37.8700,88,99,75116
1.7595,0.1808,38.0200,88,99,75119
1.7986,0.1711,37.6500,88,99,75122
1.7693,0.1857,37.7700,88,99,75125
1.7595,0.1808,37.9000,88,99,75129
1.7840,0.1906,37.8000,88,99,75132
1.7546,0.1857,37.9000,88,99,75136
1.7889,0.1857,37.6500,88,99,75139
1.7595,0.1857,37.8300,88,99,75143
1.7498,0.1857,37.9000,88,99,75146
1.7644,0.1906,37.8000,88,99,75149
1.7449,0.1515,37.9300,88,99,75152
1.7693,0.1857,37.6800,88,99,75156
1.7351,0.1808,37.9000,88,99,75159
1.7449,0.1808,37.9000,88,99,75162
1.7644,0.1906,37.8000,88,99,75165
1.7400,0.1711,37.9300,88,99,75169
1.7742,0.1857,37.6500,88,99,75172
1.7546,0.1857,37.8000,88,99,75175
1.7449,0.1857,37.9300,88,99,75179
1.7644,0.1955,37.7700,88,99,75183
1.7351,0.1760,37.9000,88,99,75186
1.7644,0.1857,37.6500,88,99,75189
1.7400,0.1808,37.8000,88,99,75192
1.7302,0.1808,37.9000,88,99,75196
1.7449,0.1906,37.8000,88,99,75199
1.7546,0.1857,37.9000,88,99,75202
1.7644,0.1857,37.6800,88,99,75205
1.7351,0.1808,37.9600,88,99,75208
1.7449,0.1808,37.9000,88,99,75212
1.7644,0.1906,37.7400,88,99,75215
1.7595,0.1955,38.1500,88,99,75218
1.8084,0.1857,37.6800,88,99,75222
1.8035,0.1857,37.8000,88,99,75226
1.8231,0.1808,37.9900,88,99,75229
1.8573,0.1906,37.9300,88,99,75232
1.8475,0.1711,37.9300,88,99,75235
1.8768,0.1857,37.7100,88,99,75239
1.8524,0.1808,37.8300,88,99,75242
1.8719,0.1808,37.9300,88,99,75245
1.9062,0.1857,37.7700,88,99,75248
1.9062,0.1857,37.9000,88,99,75252
1.9501,0.1857,37.7700,88,99,75255
1.9355,0.1808,37.9300,88,99,75258
1.9501,0.1808,37.9000,88,99,75261
1.9844,0.1906,37.8000,88,99,75266
1.8671,0.1955,37.8000,88,99,75269
1.8035,0.1515,37.9300,88,99,75273
1.8182,0.1857,37.6200,88,99,75276
1.7595,0.1955,37.8300,88,99,75279
1.7253,0.1808,37.9900,88,99,75282
1.7155,0.1857,37.8300,88,99,75286
1.6667,0.1906,37.9000,88,99,75289
1.6862,0.1857,37.6500,88,99,75292
1.6373,0.1808,37.9000,88,99,75295
1.6373,0.1906,37.9000,88,99,75299
1.6422,0.1906,37.8300,88,99,75302
1.6227,0.1857,37.9300,88,99,75305
1.6471,0.1906,37.6500,88,99,75309
1.6325,0.2004,37.8700,88,99,75312
1.6227,0.1808,37.9300,88,99,75316
1.6471,0.1906,37.7700,88,99,75319
1.6276,0.1808,37.9000,88,99,75322
1.6618,0.1857,37.6200,88,99,75325
1.6373,0.1906,37.7700,88,99,75329
1.6373,0.1760,37.9000,88,99,75332
1.6569,0.1906,37.8300,88,99,75335
1.6471,0.1857,37.9300,88,99,75338
1.6862,0.1857,37.6800,88,99,75342
1.6569,0.1808,37.9000,88,99,75345
1.6569,0.1808,37.9000,88,99,75348
1.6569,0.1857,37.8000,88,99,75352
1.6031,0.1857,37.9000,88,99,75356
1.5885,0.1857,37.7100,88,99,75359
1.5396,0.1857,37.8300,88,99,75362
1.5591,0.2053,37.9000,88,99,75365
1.6764,0.1906,37.7100,88,99,75369
1.8671,0.1808,37.9300,88,99,75372
2.2336,0.1857,37.6800,88,99,75375
2.6295,0.1906,37.8700,88,99,75378
3.0841,0.1808,37.3700,88,99,75382
3.4946,0.1857,37.7700,88,99,75385
3.6510,0.1906,37.9000,88,99,75388
3.6217,0.1857,37.7100,88,99,75392
3.2600,0.1857,37.9300,88,99,75396
2.8543,0.2004,37.9000,88,99,75399
2.4682,0.1906,37.8700,88,99,75402
2.0723,0.1857,37.9000,88,99,75405
1.8182,0.1955,37.7400,88,99,75409
1.6031,0.1808,37.9300,88,99,75412
1.5152,0.1857,37.9000,88,99,75415
1.4565,0.1906,37.7400,88,99,75418
1.3978,0.1857,37.9000,88,99,75422
1.4125,0.1808,37.7700,88,99,75425
1.3978,0.1711,37.8700,88,99,75428
1.4076,0.1857,37.9000,88,99,75431
1.4272,0.1857,37.8000,88,99,75436
1.4321,0.1857,37.9000,88,99,75439
1.4663,0.1906,37.7400,88,99,75442
1.4467,0.1857,37.9000,88,99,75445
1.4614,0.1808,37.9000,88,99,75449
1.4809,0.1955,37.8000,88,99,75452
1.4809,0.1857,37.9000,88,99,75455
1.5200,0.1857,37.7700,88,99,75458
1.5054,0.1760,37.8700,88,99,75461
1.5200,0.1808,37.1300,88,99,75465
1.5543,0.1857,37.7700,88,99,75468
1.5640,0.1808,37.9000,88,99,75471
1.5836,0.1906,37.8300,88,99,75474
1.5640,0.1857,37.9300,88,99,75479
1.5787,0.1857,37.9000,88,99,75482
1.6031,0.1857,37.8300,88,99,75485
1.6080,0.1711,37.9000,88,99,75488
1.6373,0.1906,37.8300,88,99,75492
1.6227,0.1808,37.7700,88,99,75495
1.6373,0.1711,37.9300,88,99,75498
1.6667,0.1955,37.7700,88,99,75501
1.6520,0.1857,37.9000,88,99,75505
1.6764,0.1906,37.7700,88,99,75508
1.6569,0.1857,37.9300,88,99,75511
1.6764,0.1906,37.9000,88,99,75514
1.7107,0.1906,37.9300,88,99,75518
1.6960,0.1857,37.9000,88,99,75522
1.7155,0.1857,37.7400,88,99,75525
1.6960,0.1808,38.0200,88,99,75528
1.7107,0.1808,37.9000,88,99,75532
1.7302,0.1955,37.8700,88,99,75535
1.7302,0.1857,38.1100,88,99,75538
1.7595,0.1857,37.7400,88,99,75541
1.7400,0.1857,37.9300,88,99,75545
1.7498,0.1808,37.9000,88,99,75548
1.7889,0.1906,37.7100,88,99,75551
1.7742,0.1857,37.8700,88,99,75554
1.8035,0.1955,37.7700,88,99,75558
1.7937,0.1906,37.9600,88,99,75561
1.8084,0.1808,37.9300,88,99,75565
1.8524,0.1906,37.7400,88,99,75568
1.8426,0.1857,37.9900,88,99,75572
1.8719,0.1711,37.7400,88,99,75575
1.8964,0.1857,37.9000,88,99,75578
1.8719,0.1906,37.9000,88,99,75581
1.9110,0.1906,37.8000,88,99,75585
1.9062,0.1857,37.8700,88,99,75588
1.9355,0.1857,37.8300,88,99,75591
1.9306,0.1857,37.9300,88,99,75594
1.9355,0.1808,37.9300,88,99,75598
1.9795,0.1955,37.7100,88,99,75601
1.9599,0.2102,37.8300,88,99,75604
1.9697,0.1857,37.8000,88,99,75608
1.9599,0.1857,37.9000,88,99,75611
1.9746,0.1857,38.0500,88,99,75615
2.0186,0.1955,37.7400,88,99,75618
1.9990,0.1955,37.8700,88,99,75621
2.0039,0.1857,37.7400,88,99,75624
1.9892,0.1857,37.9000,88,99,75628
2.0088,0.1906,37.9000,88,99,75631
2.0186,0.1955,37.8700,88,99,75634
2.0039,0.1711,37.8300,88,99,75637
1.9795,0.1857,37.8000,88,99,75641
1.9550,0.1857,37.6200,88,99,75644
1.9453,0.1808,37.9000,88,99,75648
1.9746,0.2053,37.7100,88,99,75651
1.9404,0.2004,37.8000,88,99,75655
1.9159,0.1808,37.8000,88,99,75658
1.8964,0.1808,37.9000,88,99,75661
1.8768,0.1857,37.9300,88,99,75664
1.9208,0.2004,37.7700,88,99,75668
1.8426,0.1906,37.8700,88,99,75671
1.8182,0.1808,37.8300,88,99,75674
1.8035,0.1808,37.9000,88,99,75677
1.7937,0.1857,37.9600,88,99,75681
1.8328,0.2004,37.7100,88,99,75684
1.7889,0.2004,37.8000,88,99,75687
1.7644,0.1808,37.8700,88,99,75691
1.7644,0.1857,37.9000,88,99,75694
1.7546,0.1808,37.9300,88,99,75698
1.8035,0.2004,37.6500,88,99,75701
1.7693,0.1906,37.8000,88,99,75704
1.7498,0.1760,37.8700,88,99,75707
1.7546,0.1857,37.8700,88,99,75711
1.7595,0.1857,37.9000,88,99,75714
1.8182,0.2053,37.6800,88,99,75717
1.7693,0.1857,37.7700,88,99,75720
1.7693,0.1808,37.8700,88,99,75724
1.7791,0.1857,37.9000,88,99,75727
1.7791,0.1808,37.9000,88,99,75730
1.8280,0.2004,37.6500,88,99,75734
1.7986,0.1906,37.7700,88,99,75738
1.7889,0.1808,37.9000,88,99,75741
1.7937,0.1906,37.9000,88,99,75744
1.7889,0.1857,37.9000,88,99,75747
1.8426,0.2102,37.6200,88,99,75751
1.8133,0.2248,37.8000,88,99,75754
1.8035,0.1760,37.9000,88,99,75757
1.8182,0.1906,37.9000,88,99,75760
1.8084,0.1857,37.9000,88,99,75764
1.8524,0.1906,37.6200,88,99,75767
1.8084,0.1808,37.7700,88,99,75770
1.8035,0.1857,37.7700,88,99,75773
1.8133,0.1906,37.9000,88,99,75778
1.8182,0.1711,37.9000,88,99,75781
1.8426,0.1955,37.5600,88,99,75784
1.8133,0.1906,37.8000,88,99,75787
1.8035,0.1808,37.9000,88,99,75791
1.8133,0.1906,37.8700,88,99,75794
1.8035,0.1857,37.9300,88,99,75797
1.8475,0.1955,37.6200,88,99,75800
1.8084,0.1711,37.7700,88,99,75804
1.7937,0.1857,37.9000,88,99,75807
1.7986,0.1906,37.8700,88,99,75810
1.7889,0.1808,37.9000,88,99,75813
1.8280,0.1906,37.6200,88,99,75817
1.7791,0.1808,37.1600,88,99,75821
1.7840,0.1808,37.9300,88,99,75824
1.7937,0.1857,37.8700,88,99,75827
1.7742,0.1857,37.9000,88,99,75831
1.8231,0.1906,37.7700,88,99,75834
1.7986,0.1906,37.8000,88,99,75837
1.7840,0.2346,37.9000,88,99,75840
1.7937,0.1906,37.9000,88,99,75844
1.7742,0.1857,37.9000,88,99,75847
1.8133,0.2151,37.6800,88,99,75850
1.7840,0.1857,37.7700,88,99,75853
1.7644,0.1857,37.9300,88,99,75856
1.7840,0.1955,37.8300,88,99,75860
1.7644,0.1857,37.9300,88,99,75864
1.7986,0.1906,37.6200,88,99,75867
1.7449,0.1711,37.8700,88,99,75870
1.7595,0.1808,37.9000,88,99,75874
1.7791,0.1906,37.9000,88,99,75877
1.7644,0.1808,37.8700,88,99,75881
1.7644,0.1857,37.9900,88,99,75884
1.8280,0.2004,37.6500,88,99,75887
1.8035,0.1906,37.7100,88,99,75890
1.8133,0.1808,37.9900,88,99,75894
1.8328,0.1857,37.9000,88,99,75897
1.8475,0.1906,37.9000,88,99,75900
1.9062,0.2004,37.7100,88,99,75904
1.8671,0.1857,37.8000,88,99,75908
1.8671,0.1760,37.9000,88,99,75911
1.8768,0.1906,37.9300,88,99,75914
1.8817,0.1857,37.9900,88,99,75917
1.9648,0.1906,37.6200,88,99,75921
1.9355,0.1955,37.8000,88,99,75924
1.9453,0.1808,37.9300,88,99,75927
1.9648,0.1906,37.8700,88,99,75930
1.9501,0.1857,37.9300,88,99,75934
1.9990,0.1906,37.5900,88,99,75937
1.9404,0.1857,37.7700,88,99,75940
1.9062,0.1711,37.9000,88,99,75943
1.8719,0.1808,37.8700,88,99,75948
1.8280,0.1857,37.9000,88,99,75951
1.8426,0.1955,37.5900,88,99,75954
1.7693,0.1711,37.8300,88,99,75957
1.7302,0.1857,37.9000,88,99,75961
1.7058,0.1906,37.9000,88,99,75964
1.6618,0.1711,37.9000,88,99,75967
1.6862,0.1857,37.6200,88,99,75970
1.6373,0.1906,37.8300,88,99,75973
1.6227,0.1808,37.9300,88,99,75977
1.6227,0.1906,37.8700,88,99,75980
1.6080,0.1857,37.9000,88,99,75983
1.6471,0.1955,37.6200,88,99,75986
1.6080,0.1857,37.7700,88,99,75991
1.5982,0.1857,37.9000,88,99,75994
1.6080,0.1906,37.9600,88,99,75997
1.5885,0.1857,37.9000,88,99,76000
1.6325,0.1906,37.5600,88,99,76004
1.5885,0.1808,37.9900,88,99,76007
1.5934,0.1808,37.9300,88,99,76010
1.6129,0.1906,37.8700,88,99,76013
1.6080,0.1857,37.8700,88,99,76017
1.6471,0.1906,37.6200,88,99,76020
1.6373,0.1808,37.8000,88,99,76023
1.6276,0.1808,37.9000,88,99,76026
1.6325,0.1906,37.8300,88,99,76030
1.5836,0.1906,37.9000,88,99,76034
1.5787,0.1906,37.7100,88,99,76037
1.5103,0.1906,37.8000,88,99,76040
1.4761,0.1857,37.8700,88,99,76044
1.5054,0.1906,37.9000,88,99,76047
1.5738,0.1857,37.8700,88,99,76050
1.8231,0.1906,37.6500,88,99,76053
2.1114,0.2151,37.8700,88,99,76057
2.5367,0.1808,37.9000,88,99,76060
3.0156,0.1711,37.8000,88,99,76063
3.3724,0.2151,37.9000,88,99,76066
3.6413,0.1857,37.6500,88,99,76070
3.5239,0.1808,37.7700,88,99,76073
3.2014,0.1808,37.9000,88,99,76077
2.8446,0.1906,37.8000,88,99,76080
2.4291,0.1857,37.9000,88,99,76084
2.1359,0.1857,37.8000,88,99,76087
1.8524,0.1808,37.8000,88,99,76090
1.6764,0.1857,37.9000,88,99,76093
1.5934,0.1857,37.8000,88,99,76096
1.5396,0.1711,37.9300,88,99,76100
1.5298,0.1906,37.6500,88,99,76103
1.4956,0.1808,37.9000,88,99,76106
1.4907,0.1808,37.9000,88,99,76109
1.5054,0.1906,37.8700,88,99,76113
1.4956,0.1808,38.1500,88,99,76116
1.5249,0.1808,37.7100,88,99,76120
1.5152,0.2151,37.8700,88,99,76123
1.5200,0.1808,37.9000,88,99,76127
1.5347,0.1857,37.7100,88,99,76130
1.5152,0.1808,37.9000,88,99,76133
1.5445,0.1857,37.6800,88,99,76136
1.5005,0.1808,37.8300,88,99,76140
1.5200,0.1760,37.9000,88,99,76143
1.5298,0.1857,37.7700,88,99,76146
1.5298,0.1857,37.9000,88,99,76149
1.5543,0.1760,37.7100,88,99,76153
1.5298,0.1760,37.9000,88,99,76156
1.5396,0.1808,37.9000,88,99,76160
1.5738,0.1906,37.8000,88,99,76163
1.5591,0.1906,37.8700,88,99,76167
1.5836,0.1808,37.7700,88,99,76170
1.5738,0.1711,37.8300,88,99,76173
1.5591,0.1857,37.7400,88,99,76176
1.5787,0.1760,37.7400,88,99,76180
1.5640,0.1808,37.9000,88,99,76183
1.5885,0.1808,37.7700,88,99,76186
1.5591,0.1808,37.8300,88,99,76189
1.5640,0.1515,37.9300,88,99,76193
1.5934,0.1711,37.8300,88,99,76196
1.5640,0.1808,37.9000,88,99,76199
1.5934,0.1906,37.7700,88,99,76203
1.5640,0.1808,37.9300,88,99,76207
1.5689,0.1808,37.9300,88,99,76210
1.5885,0.1906,37.7700,88,99,76213
1.5689,0.1808,37.9000,88,99,76216
1.5934,0.1906,37.7400,88,99,76219
1.5738,0.1808,37.9300,88,99,76223
1.5836,0.1857,37.9000,88,99,76226
1.6129,0.2053,37.8000,88,99,76229
1.5934,0.1808,37.9000,88,99,76232
1.6129,0.1857,37.7400,88,99,76236
1.5934,0.1808,37.9300,88,99,76239
1.6031,0.1808,37.9300,88,99,76242
1.6227,0.1808,37.8300,88,99,76246
1.6227,0.2004,37.8300,88,99,76250
1.6471,0.1808,37.7700,88,99,76253
1.6373,0.1808,37.9300,88,99,76256
1.6422,0.1906,37.9000,88,99,76259
1.6764,0.1857,37.7400,88,99,76263
1.6569,0.1808,37.9000,88,99,76266
1.6764,0.1760,37.7100,88,99,76269
1.6569,0.2004,37.9000,88,99,76272
1.6716,0.1808,37.9000,88,99,76276
1.7058,0.1906,37.7400,88,99,76279
1.6960,0.1857,37.9300,88,99,76282
1.7107,0.1711,37.7700,88,99,76285
1.6862,0.1808,37.9000,88,99,76290
1.6862,0.1808,37.9000,88,99,76293
1.7107,0.1857,37.8300,88,99,76296
1.7009,0.1857,37.9000,88,99,76299
1.7058,0.1808,37.7700,88,99,76303
1.6813,0.1808,37.9000,88,99,76306
1.6813,0.1808,37.9000,88,99,76309
1.7107,0.1906,37.2500,88,99,76312
1.6764,0.1857,37.8700,88,99,76316
1.7009,0.1808,37.7700,88,99,76319
1.6667,0.1857,37.9000,88,99,76322
1.6569,0.1808,37.9300,88,99,76325
1.6667,0.1906,37.7100,88,99,76329
1.6276,0.1955,37.8700,88,99,76333
1.6178,0.1808,37.7400,88,99,76336
1.5934,0.1711,37.9000,88,99,76339
1.5689,0.1808,37.9000,88,99,76343
1.5787,0.1906,37.0100,88,99,76346
1.5445,0.1808,37.8700,88,99,76349
1.5249,0.1808,37.8000,88,99,76352
1.4956,0.1808,37.9000,88,99,76355
1.4858,0.1760,37.9000,88,99,76359
1.4956,0.1857,37.7100,88,99,76362
1.4614,0.1906,37.8700,88,99,76365
1.4370,0.1760,37.8000,88,99,76368
1.4076,0.1808,37.9000,88,99,76372
1.4027,0.1760,37.9300,88,99,76376
1.4663,0.1857,37.7100,88,99,76379
1.4027,0.1760,37.8000,88,99,76382
1.4027,0.1760,37.8300,88,99,76386
1.4027,0.1857,37.9000,88,99,76389
1.3881,0.1760,37.9000,88,99,76392
1.4321,0.1906,37.7700,88,99,76395
1.4174,0.1857,37.8300,88,99,76399
1.4125,0.1760,37.8300,88,99,76402
1.4272,0.1808,37.9000,88,99,76405
1.4027,0.1760,37.9900,88,99,76408
1.4370,0.1857,37.6800,88,99,76412
1.4174,0.1857,37.8000,88,99,76416
1.4027,0.1711,37.8000,88,99,76419
1.4076,0.1808,37.9000,88,99,76422
1.4076,0.1808,37.8700,88,99,76426
1.4516,0.1906,37.6800,88,99,76429
1.4223,0.1857,37.8000,88,99,76432
1.4125,0.1760,37.8300,88,99,76435
1.4223,0.1808,38.0200,88,99,76439
1.4174,0.1515,37.9300,88,99,76442
1.4663,0.1906,37.6800,88,99,76445
1.4321,0.1906,37.8000,88,99,76448
1.4174,0.1711,37.8700,88,99,76452
1.4223,0.1808,37.9000,88,99,76455
1.4223,0.1760,37.9000,88,99,76459
1.4712,0.1906,37.7400,88,99,76462
1.4370,0.1857,37.9900,88,99,76466
1.4223,0.1760,37.8700,88,99,76469
1.4614,0.1711,37.8700,88,99,76472
1.4174,0.1760,37.9000,88,99,76475
1.4565,0.1906,37.7100,88,99,76479
1.4125,0.1808,37.7700,88,99,76482
1.4076,0.1711,37.9300,88,99,76485
1.4027,0.1808,37.9000,88,99,76488
1.3734,0.1760,37.9300,88,99,76492
1.3783,0.1808,37.9000,88,99,76495
1.3978,0.1808,37.8300,88,99,76498
1.3734,0.1808,37.8300,88,99,76503
1.3783,0.1760,37.7700,88,99,76506
1.3685,0.1760,37.8700,88,99,76509
1.3685,0.1760,37.9000,88,99,76512
1.3930,0.1857,37.8000,88,99,76516
1.3832,0.1808,37.9600,88,99,76519
1.4174,0.1760,37.7700,88,99,76522
1.3734,0.1760,37.9000,88,99,76525
1.3734,0.1760,38.0200,88,99,76529
1.4027,0.1857,37.7700,88,99,76532
1.3832,0.1808,37.8700,88,99,76535
1.3783,0.1760,37.7700,88,99,76538
1.3685,0.1760,37.8300,88,99,76542
1.3685,0.1760,37.9300,88,99,76546
1.4027,0.1808,37.7100,88,99,76549
1.3930,0.1760,37.8300,88,99,76552
1.3978,0.1711,37.9000,88,99,76556
1.3930,0.1760,37.9300,88,99,76559
1.4076,0.1760,37.9000,88,99,76562
1.4565,0.1808,37.9900,88,99,76565
1.4418,0.1808,37.8700,88,99,76569
1.4712,0.1760,37.8000,88,99,76572
1.4712,0.1711,37.9000,88,99,76575
1.4858,0.1760,37.9600,88,99,76578
1.5396,0.1857,37.7700,88,99,76582
1.5396,0.1808,37.8300,88,99,76585
1.5396,0.1711,37.8700,88,99,76589
1.5445,0.1955,37.9000,88,99,76592
1.5640,0.1711,38.1100,88,99,76596
1.6276,0.1808,37.7100,88,99,76599
1.6227,0.1808,37.8300,88,99,76602
1.6422,0.2102,37.8000,88,99,76605
1.6422,0.1711,37.9000,88,99,76609
1.6667,0.1760,37.9000,88,99,76612
1.6569,0.1857,37.7100,88,99,76615
1.5982,0.1808,37.7700,88,99,76618
1.5494,0.1711,37.8300,88,99,76622
1.5005,0.1760,37.8700,88,99,76625
1.4663,0.1711,38.0800,88,99,76628
1.4712,0.1857,37.7400,88,99,76632
1.4174,0.1711,37.8300,88,99,76636
1.3881,0.1711,37.8300,88,99,76639
1.3587,0.1711,37.8700,88,99,76642
1.3392,0.1711,37.9300,88,99,76645
1.3685,0.1760,37.6800,88,99,76649
1.3392,0.1808,37.8000,88,99,76652
1.3196,0.1808,37.8300,88,99,76655
1.3148,0.1760,37.8700,88,99,76658
1.3148,0.1711,37.9000,88,99,76662
1.3490,0.1906,37.7400,88,99,76665
1.3196,0.1857,37.9000,88,99,76668
1.3148,0.1662,37.8700,88,99,76672
1.3245,0.1760,37.9000,88,99,76676
1.3196,0.1711,37.9300,88,99,76679
1.3685,0.1857,37.7400,88,99,76682
1.3441,0.1760,37.8700,88,99,76685
1.3441,0.1662,37.8300,88,99,76689
1.3783,0.1760,37.8700,88,99,76692
1.3490,0.1760,37.9000,88,99,76695
1.4027,0.1857,36.9800,88,99,76698
1.3783,0.1808,38.2100,88,99,76702
1.3587,0.1662,37.8300,88,99,76705
1.3343,0.1808,37.8700,88,99,76708
1.3050,0.1711,37.9000,88,99,76711
1.3099,0.1808,37.6800,88,99,76716
1.2708,0.1808,37.8000,88,99,76719
1.3099,0.1662,37.9300,88,99,76722
1.4565,0.1760,37.8700,88,99,76725
1.7204,0.1760,37.9000,88,99,76729
2.1603,0.1906,37.6800,88,99,76732
2.5953,0.1711,37.8300,88,99,76735
3.0010,0.1760,37.9000,88,99,76738
3.3284,0.1760,38.1100,88,99,76742
3.4066,0.1711,37.9300,88,99,76745
3.3089,0.1857,37.6500,88,99,76748
2.8788,0.1808,37.7100,88,99,76751
2.4145,0.1662,37.9300,88,99,76755
2.0137,0.1760,37.9000,88,99,76759
1.6276,0.1711,37.8000,88,99,76762
1.4027,0.1515,37.6200,88,99,76765
1.2072,0.1711,37.7700,88,99,76768
1.1241,0.1906,37.9000,88,99,76772
1.0899,0.1711,37.9000,88,99,76775
1.0850,0.1662,37.9300,88,99,76778
1.1388,0.1808,37.5600,88,99,76781
1.1437,0.1711,37.8000,88,99,76785
1.1584,0.1662,37.9000,88,99,76788
1.1779,0.1711,37.8700,88,99,76791
1.1877,0.1711,37.9300,88,99,76794
1.2414,0.1711,37.5900,88,99,76798
1.2219,0.1711,37.7700,88,99,76802
1.2366,0.1662,37.9000,88,99,76805
1.2610,0.1711,37.8700,88,99,76808
1.2805,0.1760,37.9300,88,99,76812
1.3245,0.1760,37.5900,88,99,76815
1.3050,0.1662,37.4900,88,99,76818
1.3245,0.1711,37.9000,88,99,76821
1.3343,0.1808,37.8700,88,99,76825
1.3392,0.1711,37.9600,88,99,76828
1.3832,0.1760,37.6200,88,99,76831
1.4125,0.1711,37.8000,88,99,76834
1.3832,0.1711,37.9000,88,99,76838
1.4076,0.1760,37.8300,88,99,76841
1.4027,0.1711,37.9000,88,99,76845
1.4467,0.1857,37.6200,88,99,76848
1.4321,0.1760,37.7700,88,99,76852
1.4321,0.1711,37.9300,88,99,76855
1.4516,0.1711,37.8300,88,99,76858
1.4614,0.1613,37.9000,88,99,76861
1.5054,0.1808,37.6200,88,99,76865
1.4761,0.1662,38.0800,88,99,76868
1.4956,0.1711,37.9300,88,99,76871
1.5249,0.1711,37.8700,88,99,76874
1.5152,0.1711,37.9000,88,99,76878
1.5543,0.1760,37.6500,88,99,76881
1.5445,0.1711,37.8700,88,99,76884
1.5445,0.1662,37.9300,88,99,76888
1.5738,0.1760,37.8300,88,99,76892
1.5640,0.1711,37.9000,88,99,76895
1.6129,0.1760,37.6200,88,99,76898
1.5982,0.1515,37.8000,88,99,76901
1.6031,0.1613,37.9000,88,99,76905
1.6276,0.1760,37.8700,88,99,76908
1.6422,0.1662,37.9300,88,99,76911
1.6716,0.1662,37.6200,88,99,76914
1.6325,0.1711,37.8300,88,99,76918
1.6520,0.1808,37.9000,88,99,76921
1.6764,0.1711,37.8300,88,99,76924
1.6813,0.1662,37.9300,88,99,76928
1.7595,0.1760,37.6200,88,99,76932
1.7253,0.1760,37.8700,88,99,76935
1.7253,0.1662,37.9000,88,99,76938
1.7498,0.1760,37.8000,88,99,76941
1.7400,0.1662,37.9000,88,99,76945
1.7937,0.1760,37.7100,88,99,76948
1.7742,0.1760,37.8000,88,99,76951
1.7742,0.1760,37.9000,88,99,76954
1.7986,0.1760,37.7400,88,99,76958
1.7840,0.1711,37.9000,88,99,76961
1.8426,0.1711,37.5900,88,99,76964
1.8133,0.1613,37.7700,88,99,76967
1.8280,0.1662,37.9300,88,99,76972
1.8719,0.1760,37.8700,88,99,76975
1.8622,0.1613,37.9000,88,99,76978
1.8768,0.1711,37.6500,88,99,76981
1.8524,0.1711,37.8000,88,99,76985
1.8426,0.1662,37.9000,88,99,76988
1.8622,0.2151,37.8000,88,99,76991
1.8280,0.1711,38.0500,88,99,76994
1.8719,0.1760,37.6500,88,99,76998
1.8182,0.1808,37.8000,88,99,77001
1.8035,0.1515,37.9000,88,99,77004
1.8280,0.1760,37.8000,88,99,77007
1.7889,0.1662,38.1500,88,99,77010
1.8035,0.1711,37.6500,88,99,77015
1.7498,0.1662,37.9000,88,99,77018
1.7400,0.1564,37.8700,88,99,77021
1.7498,0.1760,37.8000,88,99,77024
1.7058,0.1711,37.9300,88,99,77028
1.7253,0.1662,37.6800,88,99,77031
1.6862,0.1662,37.6800,88,99,77034
1.6618,0.1760,37.9000,88,99,77037
1.6960,0.1808,37.7400,88,99,77041
1.6471,0.1662,37.9000,88,99,77044
1.6764,0.1662,37.7100,88,99,77047
1.6422,0.1760,37.8000,88,99,77050
1.6422,0.1662,37.9300,88,99,77054
1.6569,0.1711,37.7400,88,99,77058
1.6667,0.1662,37.9000,88,99,77061
1.6667,0.1662,37.6800,88,99,77064
1.6422,0.1662,37.9900,88,99,77068
1.6520,0.1662,37.9000,88,99,77071
1.6667,0.1808,37.7700,88,99,77074
1.6520,0.1711,37.9000,88,99,77077
1.6813,0.1662,37.7100,88,99,77081
1.6716,0.1613,37.8300,88,99,77084
1.6813,0.1613,37.9000,88,99,77087
1.7009,0.1711,37.7400,88,99,77090
1.6813,0.1662,37.9300,88,99,77094
1.7058,0.1662,37.7100,88,99,77097
1.6813,0.1760,37.6500,88,99,77101
1.7009,0.2004,37.8700,88,99,77105
1.7058,0.1662,37.9300,88,99,77108
1.7546,0.1711,37.8000,88,99,77111
1.7155,0.1613,37.9000,88,99,77115
1.7644,0.1711,37.6500,88,99,77118
1.7449,0.1662,37.8000,88,99,77121
1.7498,0.1662,37.8700,88,99,77124
1.7595,0.1808,37.8000,88,99,77128
1.7302,0.1662,37.9000,88,99,77131
1.7644,0.1564,37.6800,88,99,77134
1.7253,0.1662,37.8300,88,99,77137
1.7204,0.1662,37.9300,88,99,77140
1.7400,0.1711,37.8000,88,99,77145
1.7107,0.1662,37.9000,88,99,77148
1.7351,0.1515,37.7100,88,99,77151
1.7107,0.1662,37.9300,88,99,77154
1.7204,0.1760,37.8700,88,99,77158
1.7351,0.1760,37.8700,88,99,77161
1.7155,0.1662,37.9000,88,99,77164
1.7498,0.1711,37.6500,88,99,77167
1.7302,0.1662,37.7100,88,99,77171
1.7155,0.1662,37.8700,88,99,77174
1.7351,0.1760,37.7700,88,99,77177
1.7204,0.1662,37.9300,88,99,77180
1.7449,0.1760,37.6500,88,99,77185
1.7058,0.1662,37.8300,88,99,77188
1.6960,0.1662,37.9300,88,99,77191
1.7155,0.1808,37.8000,88,99,77194
1.7009,0.1662,37.9300,88,99,77198
1.7400,0.1662,37.6800,88,99,77201
1.7253,0.1613,37.9000,88,99,77204
1.7155,0.1662,37.8700,88,99,77207
1.7449,0.1711,37.7700,88,99,77211
1.7351,0.1662,37.9000,88,99,77214
1.8133,0.1662,37.6500,88,99,77217
1.7595,0.1662,37.7700,88,99,77220
1.7644,0.1515,37.9300,88,99,77224
1.7937,0.1711,37.7400,88,99,77228
1.8084,0.1613,37.9300,88,99,77231
1.8328,0.1662,37.6500,88,99,77234
1.8231,0.1662,37.9000,88,99,77238
1.8475,0.1662,37.9000,88,99,77241
1.8866,0.1711,37.8000,88,99,77244
1.8964,0.1662,37.9300,88,99,77247
1.9453,0.1662,37.6800,88,99,77251
1.9257,0.1662,37.9000,88,99,77254
1.9208,0.1613,37.9300,88,99,77257
1.9208,0.2004,37.8700,88,99,77260
1.8719,0.1662,38.1500,88,99,77264
1.8622,0.1662,37.6800,88,99,77267
1.8084,0.1662,37.8700,88,99,77271
1.7791,0.1662,38.1500,88,99,77274
1.7644,0.1662,37.6800,88,99,77278
1.7253,0.1662,37.9000,88,99,77281
1.7155,0.1662,37.6500,88,99,77284
1.6667,0.1662,37.8700,88,99,77287
1.6422,0.1662,37.9000,88,99,77291
1.6422,0.1711,37.8000,88,99,77294
1.6422,0.1662,37.9000,88,99,77297
1.6325,0.2004,37.6500,88,99,77300
1.6031,0.1662,37.7700,88,99,77304
1.6080,0.1662,37.9300,88,99,77307
1.6276,0.1760,37.7700,88,99,77310
1.6325,0.1564,37.9000,88,99,77314
1.6325,0.1662,37.9300,88,99,77318
1.6080,0.1662,37.8300,88,99,77321
1.6178,0.1662,37.9000,88,99,77324
1.6325,0.1662,37.7700,88,99,77327
1.6325,0.1662,37.9300,88,99,77331
1.6667,0.1662,37.7100,88,99,77334
1.6471,0.1662,37.8700,88,99,77337
1.6667,0.1711,37.8700,88,99,77340
1.6862,0.1662,37.7400,88,99,77344
1.6813,0.1662,37.9000,88,99,77347
1.7058,0.1613,37.6800,88,99,77350
1.6618,0.1662,37.8700,88,99,77353
1.6325,0.1613,38.1500,88,99,77358
1.6080,0.1711,37.9000,88,99,77361
1.5591,0.1662,37.9000,88,99,77364
1.5934,0.1711,37.7100,88,99,77367
1.6618,0.1662,37.8300,88,99,77371
1.8719,0.1662,37.9000,88,99,77374
2.2141,0.1515,37.7700,88,99,77377
2.6149,0.1613,37.9000,88,99,77380
3.1232,0.1662,37.7100,88,99,77384
3.4897,0.1613,37.9600,88,99,77387
3.7097,0.1662,37.9300,88,99,77390
3.6852,0.1711,37.7700,88,99,77393
3.3627,0.1662,37.9000,88,99,77398
2.9863,0.1662,37.7400,88,99,77401
2.5073,0.1662,37.9000,88,99,77404
2.1212,0.1662,37.9000,88,99,77407
1.8426,0.1711,36.9500,88,99,77411
1.6129,0.1662,37.8300,88,99,77414
1.5152,0.1613,37.7400,88,99,77417
1.4272,0.1662,37.8300,88,99,77420
1.4076,0.1662,37.9000,88,99,77424
1.4076,0.1662,37.7700,88,99,77427
1.4076,0.1662,37.8700,88,99,77430
1.4516,0.1564,37.7700,88,99,77433
1.4418,0.1613,37.8700,88,99,77437
1.4614,0.1662,37.9000,88,99,77441
1.4809,0.1662,37.7700,88,99,77444
1.4907,0.1808,37.9000,88,99,77447
1.5347,0.1613,37.7700,88,99,77451
1.5200,0.1662,37.9000,88,99,77454
1.5396,0.1662,37.9600,88,99,77457
1.5689,0.1711,37.7700,88,99,77460
1.5640,0.1662,37.8700,88,99,77464
1.5982,0.1662,37.7700,88,99,77467
1.5787,0.1613,37.8300,88,99,77470
1.5934,0.1613,37.9000,88,99,77473
1.6178,0.1662,37.7700,88,99,77477
1.6471,0.1662,37.9000,88,99,77480
1.6667,0.1857,37.7400,88,99,77484
1.6471,0.1662,37.7700,88,99,77487
1.6618,0.1662,37.9300,88,99,77491
1.6764,0.1515,37.7700,88,99,77494
1.6764,0.1662,37.9000,88,99,77497
1.7107,0.1662,37.7700,88,99,77500
1.6911,0.1662,37.4000,88,99,77504
1.7058,0.1662,37.9000,88,99,77507
1.7791,0.1760,37.7700,88,99,77510
1.7351,0.1662,37.9000,88,99,77513
1.7693,0.1711,38.1800,88,99,77517
1.7449,0.1613,37.8700,88,99,77520
1.7937,0.1613,37.9000,88,99,77523
1.7791,0.1662,37.7700,88,99,77527
1.7742,0.1662,37.4900,88,99,77531
1.8133,0.1711,37.7700,88,99,77534
1.7889,0.1613,37.9000,88,99,77537
1.8035,0.1662,37.8700,88,99,77540
1.8182,0.1662,37.8300,88,99,77544
1.8035,0.1662,37.8700,88,99,77547
1.8377,0.1808,37.7700,88,99,77550
1.8182,0.1906,37.7700,88,99,77553
1.8231,0.1662,37.9300,88,99,77557
1.8719,0.1760,37.7100,88,99,77560
1.8573,0.1662,37.8700,88,99,77563
1.8964,0.1711,37.7700,88,99,77566
1.8768,0.1515,37.9000,88,99,77571
1.8866,0.1564,37.9000,88,99,77574
1.9159,0.1711,37.8000,88,99,77577
1.9159,0.1662,37.9000,88,99,77580
1.9599,0.1760,37.7700,88,99,77584
1.9355,0.1662,37.9000,88,99,77587
1.9550,0.1613,37.9000,88,99,77590
1.9844,0.1613,37.8300,88,99,77593
1.9941,0.1662,37.9000,88,99,77597
2.0283,0.1711,37.7400,88,99,77600
2.0088,0.1613,37.5300,88,99,77603
2.0430,0.1662,37.9300,88,99,77606
2.0626,0.1662,37.8000,88,99,77611
2.0381,0.1662,37.9300,88,99,77614
2.1017,0.1613,37.7100,88,99,77617
2.0381,0.1662,37.9000,88,99,77620
2.0479,0.1515,37.9300,88,99,77624
2.0674,0.1711,37.8000,88,99,77627
2.0528,0.1711,37.8300,88,99,77630
2.0772,0.1662,37.7400,88,99,77633
2.0479,0.1662,37.8700,88,99,77636
2.0479,0.1662,37.8700,88,99,77640
2.0577,0.1515,37.8300,88,99,77643
2.0332,0.1760,37.9000,88,99,77646
2.0381,0.1662,37.7400,88,99,77649
2.0039,0.1662,37.9000,88,99,77654
1.9941,0.1613,37.9000,88,99,77657
2.0137,0.1711,37.7100,88,99,77660
1.9648,0.1711,37.8700,88,99,77663
1.9844,0.1613,37.7700,88,99,77667
1.9159,0.1760,37.9000,88,99,77670
1.9110,0.1613,37.9000,88,99,77673
1.9208,0.1760,37.8000,88,99,77676
1.8915,0.1760,37.9300,88,99,77680
1.8915,0.1662,37.7700,88,99,77683
1.8573,0.1662,37.9000,88,99,77686
1.8622,0.1662,37.9000,88,99,77689
1.8964,0.1711,38.0500,88,99,77693
1.8719,0.1662,37.8700,88,99,77697
1.8768,0.1613,37.8000,88,99,77700
1.8524,0.1613,37.9000,88,99,77703
1.8475,0.1613,37.9600,88,99,77707
1.8866,0.1515,37.7100,87,99,77710
1.8817,0.1662,37.8300,87,99,77714
1.8719,0.1662,37.9900,87,99,77717
1.9013,0.1711,37.7700,87,99,77720
1.8719,0.1711,37.9000,87,99,77723
1.8719,0.1808,37.9000,87,99,77727
1.8915,0.1662,37.8000,87,99,77730
1.8964,0.1662,37.8700,87,99,77733
1.9257,0.2053,37.7700,87,99,77736
1.9013,0.1662,37.9000,87,99,77741
1.9159,0.1515,37.9300,87,99,77744
1.9501,0.1711,37.7400,87,99,77747
1.9159,0.1613,37.9000,87,99,77750
1.9453,0.1711,37.7400,87,99,77754
1.9110,0.1662,37.9000,87,99,77757
1.9062,0.1662,37.9000,87,99,77760
1.9306,0.1955,37.8000,87,99,77763
1.9208,0.1662,37.9000,87,99,77767
1.9501,0.1711,37.7400,87,99,77770
1.9110,0.1906,37.9000,87,99,77773
1.9159,0.1662,38.0200,87,99,77776
1.9355,0.1711,37.9300,87,99,77779
1.9208,0.1613,37.8700,87,99,77784
1.9453,0.1711,37.8300,87,99,77787
1.9159,0.1662,37.9600,87,99,77790
1.9208,0.1613,37.9300,87,99,77793
1.9550,0.1808,37.7100,87,99,77797
1.9208,0.1711,37.9000,87,99,77800
1.9404,0.1662,37.7400,87,99,77803
1.9110,0.1711,37.9000,87,99,77806
1.9062,0.1613,37.9000,87,99,77810
1.9306,0.1711,37.7100,87,99,77813
1.9208,0.1711,37.9000,87,99,77816
1.9208,0.1662,37.6800,87,99,77819
1.8915,0.1662,37.9300,87,99,77824
1.8817,0.1662,37.9300,87,99,77827
1.9257,0.1760,37.8300,87,99,77830
1.8915,0.1711,37.2500,87,99,77833
1.9062,0.1662,37.7400,87,99,77837
1.8768,0.1662,37.9300,87,99,77840
1.8719,0.1662,37.8700,87,99,77843
1.9062,0.1711,37.7400,87,99,77846
1.8817,0.1711,37.1600,87,99,77850
1.9013,0.1662,37.7400,87,99,77853
1.8866,0.1613,37.9000,87,99,77856
1.8915,0.1662,37.9000,87,99,77859
1.9257,0.1711,37.7100,87,99,77863
1.9013,0.1662,37.8700,87,99,77867
1.9159,0.1760,37.7400,87,99,77870
1.8915,0.1662,37.9300,87,99,77873
1.8964,0.1662,37.9300,87,99,77877
1.9306,0.1760,37.8000,87,99,77880
1.9208,0.1662,37.9000,87,99,77883
1.9550,0.1662,37.7400,87,99,77886
1.9550,0.1613,37.9000,87,99,77890
1.9697,0.1662,37.9600,87,99,77893
2.0235,0.1711,37.8700,87,99,77896
2.0137,0.1515,37.8700,87,99,77899
2.0332,0.1613,37.7400,87,99,77903
2.0137,0.1662,37.9000,87,99,77906
2.0137,0.1662,37.9300,87,99,77910
2.0528,0.1760,37.7100,87,99,77913
2.0479,0.1711,38.1100,87,99,77917
2.0772,0.1662,37.7700,87,99,77920
2.0870,0.1662,37.9000,87,99,77923
2.1114,0.1662,37.8700,87,99,77926
2.1652,0.1760,37.7700,87,99,77930
2.1408,0.1760,37.8700,87,99,77933
2.1408,0.1662,37.7400,87,99,77936
2.1065,0.1662,37.9000,87,99,77939
2.0821,0.1613,37.9000,87,99,77943
2.0821,0.1711,37.7100,87,99,77946
2.0235,0.1711,38.0800,87,99,77949
1.9844,0.1613,37.8000,87,99,77953
1.9404,0.1808,37.8700,87,99,77957
1.9159,0.1662,37.9000,87,99,77960
1.9355,0.1760,37.7100,87,99,77963
1.8768,0.1662,37.8300,87,99,77966
1.8524,0.1662,37.7100,87,99,77970
1.8231,0.1662,37.9000,87,99,77973
1.8133,0.1662,37.8700,87,99,77976
1.8426,0.1711,37.7400,87,99,77979
1.8231,0.1808,37.8700,87,99,77983
1.8231,0.1662,37.8000,87,99,77986
1.8133,0.1662,37.8700,87,99,77989
1.8084,0.1613,37.9300,87,99,77992
1.8377,0.1760,37.6800,87,99,77997
1.8182,0.2053,37.7700,87,99,78000
1.8084,0.1662,37.8000,87,99,78003
1.7986,0.1662,37.9000,87,99,78006
1.8084,0.1662,37.9000,87,99,78009
1.8719,0.1711,37.6800,87,99,78013
1.8426,0.1662,37.8300,87,99,78016
1.8475,0.1613,38.0500,87,99,78019
1.8426,0.1515,37.9000,87,99,78022
1.8817,0.1662,37.9000,87,99,78026
1.8915,0.1760,37.7100,87,99,78029
1.8280,0.1711,37.7700,87,99,78032
1.7986,0.1613,37.8000,87,99,78035
1.7498,0.1613,37.8700,87,99,78040
1.7302,0.1808,37.9000,87,99,78043
1.8231,0.1808,37.6800,87,99,78046
1.9355,0.1711,37.7700,87,99,78049
2.1408,0.1857,37.8700,87,99,78053
2.4927,0.1711,37.8700,87,99,78056
2.9228,0.1613,37.9000,87,99,78059
3.4848,0.1857,37.7700,87,99,78062
3.7683,0.1711,38.0800,87,99,78066
3.8807,0.1613,37.8300,87,99,78069
3.7243,0.1711,37.9000,87,99,78072
3.3675,0.1711,37.9000,87,99,78075
3.0254,0.1808,37.9000,87,99,78080
2.5611,0.1711,37.8000,87,99,78083
2.1896,0.1564,37.8700,87,99,78086
1.9355,0.1711,37.9000,87,99,78089
1.7449,0.1515,37.9000,87,99,78093
1.7302,0.1808,37.6200,87,99,78096
1.6129,0.1857,37.8000,87,99,78099
1.5787,0.1515,37.8700,87,99,78102
1.5982,0.1711,37.8700,87,99,78106
1.5738,0.1613,37.8700,87,99,78109
1.6276,0.1808,37.6200,87,99,78112
1.5934,0.1662,37.7700,87,99,78115
1.6031,0.1613,37.8700,87,99,78119
1.6520,0.1613,37.8700,87,99,78123
1.6227,0.1711,37.9000,87,99,78126
1.6764,0.2102,37.6200,87,99,78129
1.6569,0.1711,37.8000,87,99,78133
1.6716,0.1662,37.9000,87,99,78136
1.6764,0.1760,37.8700,87,99,78139
1.6862,0.1662,37.7400,87,99,78142
1.7498,0.1808,37.6200,87,99,78146
1.7644,0.1662,37.7400,87,99,78149
1.7302,0.1906,37.9000,87,99,78152
1.7449,0.1711,37.8700,87,99,78155
1.7644,0.1613,37.9000,87,99,78159
1.8035,0.1760,37.6200,87,99,78162
1.7693,0.1662,37.7700,87,99,78166
1.7693,0.1613,37.9300,87,99,78169
1.7742,0.1711,37.9000,87,99,78173
1.8035,0.1564,37.9000,87,99,78176
1.8377,0.1760,37.6800,87,99,78179
1.8035,0.1662,37.8000,87,99,78182
1.8084,0.1808,37.9000,87,99,78186
1.8231,0.1711,37.0700,87,99,78189
1.8231,0.1662,37.9000,87,99,78192
1.8817,0.1760,37.5600,87,99,78195
1.8524,0.1711,37.8000,87,99,78199
1.8573,0.1662,37.9900,87,99,78202
1.8768,0.1711,37.8700,87,99,78205
1.8768,0.1711,37.9000,87,99,78209
1.9404,0.1760,37.5300,87,99,78213
1.9013,0.1662,37.6800,87,99,78216
1.9062,0.1662,37.9000,87,99,78219
1.9208,0.1760,37.8700,87,99,78222
1.9257,0.1662,38.1500,87,99,78226
1.9892,0.1760,37.5900,87,99,78229
1.9648,0.1662,37.8000,87,99,78232
1.9550,0.1613,37.7400,87,99,78235
1.9746,0.1857,37.8300,87,99,78239
1.9746,0.1662,37.9300,87,99,78242
2.0332,0.1760,37.5900,87,99,78245
2.0137,0.1662,37.7400,87,99,78248
2.0235,0.1662,37.9000,87,99,78253
2.0479,0.1760,37.8300,87,99,78256
2.0528,0.1662,37.9600,87,99,78259
2.1114,0.1711,37.6200,87,99,78262
2.0626,0.1662,37.8300,87,99,78266
2.0772,0.2004,37.8700,87,99,78269
2.0968,0.1711,37.8300,87,99,78272
2.1065,0.1662,37.9000,87,99,78275
2.1603,0.1711,37.6200,87,99,78278
2.1408,0.1711,37.8000,87,99,78282
2.1261,0.1613,37.9000,87,99,78285
2.1505,0.1857,37.8000,87,99,78288
2.1261,0.1662,37.8700,87,99,78291
2.1945,0.1711,37.6200,87,99,78296
2.1505,0.1711,37.8300,87,99,78299
2.1457,0.1662,38.1100,87,99,78302
2.1701,0.1515,37.8300,87,99,78305
2.1457,0.1662,37.9000,87,99,78309
2.1848,0.1711,37.8000,87,99,78312
2.1261,0.1613,37.7100,87,99,78315
2.1212,0.1711,37.9000,87,99,78318
2.1310,0.1760,37.8300,88,99,78322
2.0479,0.1711,37.9000,88,99,78325
2.0235,0.1662,37.8700,88,99,78329
2.0479,0.1808,37.5900,88,99,78332
1.9892,0.1711,37.7400,88,99,78336
1.9501,0.1613,37.9000,88,99,78339
1.9453,0.1711,37.9000,88,99,78343
1.9306,0.1662,37.9900,88,99,78346
1.9697,0.1808,37.6200,88,99,78349
1.9062,0.1662,37.7700,88,99,78352
1.8915,0.1662,37.9000,88,99,78356
1.8915,0.1711,37.9600,88,99,78359
1.8768,0.1662,37.9000,88,99,78362
1.9306,0.1808,37.5600,88,99,78365
1.8964,0.1711,37.7700,88,99,78369
1.8817,0.1662,37.9300,88,99,78372
1.8915,0.1711,37.9000,88,99,78375
1.8866,0.1613,37.9000,88,99,78379
1.9355,0.1808,37.5600,88,99,78383
1.9013,0.1760,37.7400,88,99,78386
1.8915,0.1662,37.9300,88,99,78389
1.9062,0.1711,37.8700,88,99,78392
1.8915,0.1760,37.9000,88,99,78396
1.9501,0.1760,37.5900,88,99,78399
1.9013,0.1662,37.8000,88,99,78402
1.9062,0.1711,37.9000,88,99,78405
1.9208,0.1711,37.8700,88,99,78409
1.9110,0.1662,37.9000,88,99,78412
1.9697,0.1613,37.5600,88,99,78415
1.9355,0.1857,37.7700,88,99,78418
1.9306,0.1662,37.9900,88,99,78423
1.9453,0.1711,37.9900,88,99,78426
1.9355,0.1515,37.9000,88,99,78429
2.0088,0.1760,37.5600,88,99,78432
1.9404,0.1662,37.7400,88,99,78436
1.9306,0.1662,37.9000,88,99,78439
1.9355,0.1760,37.8700,88,99,78442
1.9208,0.1662,37.9000,88,99,78445
1.9697,0.1760,37.5900,88,99,78449
1.9208,0.1662,37.8300,88,99,78452
1.9257,0.1613,37.9000,88,99,78455
1.9404,0.1711,37.8000,88,99,78458
1.9159,0.1662,37.9600,88,99,78462
1.9599,0.1760,37.5900,88,99,78466
1.9306,0.1906,37.7700,88,99,78469
1.9159,0.1515,37.8700,88,99,78472
1.9306,0.1760,37.8300,88,99,78475
1.9062,0.1711,37.9000,88,99,78479
1.9550,0.1760,37.5900,88,99,78482
1.9208,0.1662,37.8000,88,99,78485
1.9062,0.1760,37.9000,88,99,78488
1.9208,0.1760,37.8300,88,99,78492
1.8915,0.1613,37.9000,88,99,78495
1.9306,0.1760,37.0100,88,99,78498
1.8817,0.1662,37.9600,88,99,78501
1.8915,0.1662,37.9300,88,99,78505
1.9208,0.1711,37.8000,88,99,78509
1.8964,0.1613,37.9000,88,99,78512
1.9355,0.1711,37.7700,88,99,78515
1.9110,0.1760,37.7700,88,99,78519
1.8915,0.1564,37.9000,88,99,78522
1.9208,0.1906,37.8000,88,99,78525
1.8964,0.1711,37.9000,88,99,78528
1.9404,0.1760,37.6200,88,99,78532
1.8964,0.1711,37.8300,88,99,78535
1.8866,0.1662,37.9000,88,99,78538
1.9062,0.1808,37.8000,88,99,78541
1.8915,0.2053,37.9000,88,99,78545
1.9355,0.1711,37.6500,88,99,78548
1.8915,0.1711,37.9000,88,99,78552
1.9257,0.1662,37.9000,88,99,78555
1.9062,0.1808,37.8000,88,99,78559
1.8866,0.1711,37.1600,88,99,78562
1.9159,0.1760,37.6200,88,99,78565
1.8964,0.1760,37.7700,88,99,78568
1.8915,0.1662,37.9900,88,99,78572
1.9208,0.1808,37.6500,88,99,78575
1.9062,0.1613,37.9000,88,99,78578
1.9501,0.1662,37.6500,88,99,78581
1.9453,0.1711,37.7700,88,99,78585
1.9599,0.1711,37.9000,88,99,78588
1.9941,0.1711,37.7700,88,99,78592
1.9892,0.1711,37.9000,88,99,78595
2.0332,0.1711,37.6800,88,99,78599
2.0039,0.1515,37.9000,88,99,78602
2.0137,0.1662,37.9000,88,99,78605
2.0430,0.1760,37.8000,88,99,78608
2.0332,0.1711,37.9000,88,99,78612
2.0821,0.1711,37.6500,88,99,78615
2.0723,0.1515,37.8000,88,99,78618
2.0870,0.1760,37.8300,88,99,78621
2.1310,0.1760,37.6800,88,99,78624
2.1114,0.1662,37.9000,88,99,78628
2.1261,0.1711,37.7100,88,99,78631
2.0772,0.1662,37.8700,88,99,78635
2.0577,0.1515,37.9000,88,99,78638
2.0332,0.1760,37.7700,88,99,78642
1.9844,0.1662,37.9000,88,99,78645
1.9844,0.1711,37.7100,88,99,78648
1.9208,0.1711,37.9000,88,99,78651
1.8915,0.1906,37.8700,88,99,78655
1.8866,0.1760,36.9800,88,99,78658
1.8377,0.1711,37.9300,88,99,78661
1.8377,0.1711,37.7100,88,99,78664
1.7986,0.1760,37.8000,88,99,78668
1.7937,0.1711,37.9300,88,99,78671
1.8133,0.1760,37.7100,88,99,78674
1.7937,0.1711,37.9300,88,99,78678
1.8328,0.1613,37.7400,88,99,78682
1.7791,0.2004,37.8300,88,99,78685
1.7791,0.1711,37.9000,88,99,78688
1.7889,0.1760,37.7700,88,99,78691
1.7889,0.1711,37.9000,88,99,78695
1.8133,0.1711,37.7400,88,99,78698
1.7840,0.1711,37.9000,88,99,78701
1.8084,0.1711,37.9000,88,99,78704
1.8231,0.1760,37.7400,88,99,78708
1.8035,0.1711,37.9900,88,99,78711
1.8328,0.1662,37.7400,88,99,78714
1.8035,0.1662,37.8700,88,99,78717
1.8084,0.1711,37.9000,88,99,78722
1.8182,0.1711,37.7400,88,99,78725
1.7986,0.1711,37.9000,88,99,78728
1.7693,0.1711,37.7100,88,99,78731
1.6960,0.1711,37.9600,88,99,78735
1.6862,0.1662,37.9300,88,99,78738
1.7693,0.1711,37.7700,88,99,78741
1.8573,0.1711,37.8700,88,99,78744
2.1359,0.1760,37.7700,88,99,78748
2.4585,0.1711,37.9300,88,99,78751
2.9130,0.1613,37.9000,88,99,78754
3.4066,0.1808,37.7400,88,99,78757
3.7048,0.1711,37.9000,88,99,78761
3.8563,0.1760,37.7700,88,99,78765
3.6461,0.1662,37.8300,88,99,78768
3.2991,0.1515,37.9000,88,99,78771
2.9228,0.1760,37.7700,88,99,78775
2.4633,0.1711,38.1500,88,99,78778
2.1603,0.1760,37.7700,88,99,78781
1.8768,0.1760,37.9000,88,99,78784
1.7204,0.1711,37.9000,88,99,78788
1.6373,0.1662,37.8000,88,99,78791
1.5689,0.1613,37.8700,88,99,78794
1.5689,0.1760,37.7100,88,99,78797
1.5347,0.1711,37.8700,88,99,78801
1.5396,0.1711,37.9000,88,99,78804
1.5738,0.1711,37.7700,88,99,78808
1.5836,0.1711,37.8700,88,99,78811
1.5836,0.1906,37.7400,88,99,78815
1.5738,0.1711,37.9000,88,99,78818
1.6227,0.1613,37.8700,88,99,78821
1.6325,0.1760,37.8000,88,99,78824
1.6227,0.1711,37.9000,88,99,78828
1.6471,0.1760,37.7400,88,99,78831
1.6373,0.2102,37.9000,88,99,78834
1.6520,0.1711,37.8300,88,99,78837
1.6862,0.1760,37.8300,88,99,78841
1.7009,0.1662,37.8700,88,99,78844
1.7204,0.1711,37.6500,88,99,78848
1.7107,0.1711,37.7700,88,99,78851
1.7204,0.1711,37.9000,88,99,78855
1.7546,0.1711,37.7400,88,99,78858
1.7840,0.1760,37.8700,88,99,78861
1.7791,0.1711,37.7100,88,99,78864
1.7644,0.1711,37.9000,88,99,78868
1.7791,0.1711,37.9000,88,99,78871
1.8426,0.1760,37.7100,88,99,78874
1.7889,0.1760,37.8700,88,99,78877
1.8133,0.1515,37.7400,88,99,78881
1.8084,0.1711,37.9300,88,99,78884
1.8035,0.1760,37.9000,88,99,78887
1.8328,0.2004,37.8300,88,99,78891
1.8231,0.1711,37.9300,88,99,78895
1.8524,0.1808,37.7400,88,99,78898
1.8426,0.1613,37.8700,88,99,78901
1.8573,0.1711,37.9000,88,99,78904
1.8964,0.1808,36.9800,88,99,78908
1.8768,0.1760,37.8700,88,99,78911
1.8915,0.1760,37.7400,88,99,78914
1.8768,0.1711,37.9000,88,99,78917
1.8915,0.1711,37.9000,88,99,78921
1.9355,0.1711,37.7100,88,99,78924
1.9257,0.1760,37.8300,88,99,78927
1.9599,0.1711,37.7400,88,99,78930
1.9453,0.1711,37.9300,88,99,78935
1.9990,0.1760,37.9000,88,99,78939
2.0186,0.1711,37.8300,88,99,78942
2.0528,0.1808,37.8000,88,99,78946
2.0430,0.1662,37.9000,88,99,78949
2.0870,0.1711,37.7700,88,99,78952
2.0723,0.1662,37.8700,88,99,78955
2.0772,0.1711,37.9000,88,99,78959
2.1163,0.1760,37.7400,88,99,78962
2.1065,0.1711,37.9300,88,99,78965
2.1457,0.1857,37.7400,88,99,78968
2.1163,0.1711,37.9000,88,99,78972
2.1310,0.1711,38.1100,88,99,78976
2.1457,0.1711,37.7700,88,99,78979
2.1603,0.1760,37.8700,88,99,78982
2.1799,0.1760,37.9000,88,99,78986
2.1457,0.1711,38.0500,88,99,78989
2.1505,0.1711,37.9300,88,99,78992
2.1848,0.1808,37.7400,88,99,78995
2.1505,0.1906,37.8300,88,99,78999
2.1750,0.1808,37.7700,88,99,79002
2.1359,0.1857,37.8300,88,99,79005
2.1359,0.1711,37.9000,88,99,79008
2.1603,0.1808,37.7400,88,99,79012
2.1114,0.1711,37.7700,88,99,79015
2.1163,0.1808,37.7700,88,99,79019
2.0577,0.1760,37.9000,88,99,79022
2.0479,0.1662,37.8700,88,99,79026
2.0528,0.1760,37.8300,88,99,79029
2.0235,0.1760,37.8700,88,99,79032
2.0283,0.1955,37.7400,88,99,79035
1.9746,0.1711,37.9000,88,99,79039
1.9599,0.1515,37.9300,88,99,79042
1.9795,0.1857,37.7400,88,99,79045
1.9501,0.1711,37.8700,88,99,79048
1.9599,0.1760,37.7400,88,99,79052
1.9306,0.1711,37.9000,88,99,79055
1.9550,0.1711,37.9000,88,99,79058
1.9599,0.1808,37.7100,88,99,79062
1.9355,0.1711,37.8700,88,99,79066
1.9599,0.1760,37.7400,88,99,79069
1.9306,0.1955,37.9600,88,99,79072
1.9355,0.1760,37.8700,88,99,79075
1.9550,0.1760,37.8300,88,99,79078
1.9697,0.1711,37.8700,88,99,79082
1.9599,0.1760,37.7400,88,99,79085
1.9355,0.1711,37.9000,88,99,79088
1.9404,0.1711,37.9000,88,99,79091
1.9795,0.1808,37.7100,88,99,79095
1.9501,0.1760,37.8700,88,99,79098
1.9697,0.1711,37.7100,88,99,79101
1.9501,0.1711,37.9000,88,99,79105
1.9746,0.1808,37.9000,88,99,79109
1.9892,0.1808,37.7100,88,99,79112
1.9697,0.1711,37.8700,88,99,79115
1.9844,0.1760,37.7400,88,99,79118
1.9648,0.1760,37.9000,88,99,79122
1.9697,0.1711,37.6500,88,99,79125
1.9990,0.1808,37.8000,88,99,79128
1.9844,0.1711,37.8300,88,99,79131
1.9990,0.1711,37.8300,88,99,79135
1.9746,0.1711,37.8700,88,99,79138
1.9648,0.1711,37.8700,88,99,79141
2.0039,0.1857,37.7100,88,99,79144
1.9795,0.1760,37.8700,88,99,79149
1.9892,0.1760,37.7400,88,99,79152
1.9795,0.1711,37.8700,88,99,79155
1.9648,0.1955,37.8700,88,99,79158
1.9941,0.1808,37.7400,88,99,79162
1.9648,0.1711,37.8700,88,99,79165
1.9941,0.1711,37.7400,88,99,79168
1.9501,0.1711,37.8700,88,99,79171
1.9550,0.1711,37.8000,88,99,79175
1.9795,0.1808,37.8000,88,99,79178
1.9599,0.1711,37.8300,88,99,79181
1.9697,0.1711,37.8700,88,99,79184
1.9501,0.1711,37.9000,88,99,79188
1.9404,0.1711,37.9000,88,99,79192
1.9844,0.1808,37.7100,88,99,79195
1.9453,0.1760,37.8300,88,99,79198
1.9501,0.1711,37.7700,88,99,79202
1.9306,0.1760,37.9000,88,99,79205
1.9355,0.1760,37.8700,88,99,79208
1.9746,0.1808,37.6800,88,99,79211
1.9404,0.1760,37.8300,88,99,79215
1.9501,0.1662,37.7700,88,99,79218
1.9306,0.1760,37.7700,88,99,79221
1.9257,0.1711,38.0200,88,99,79224
1.9599,0.1808,37.7400,88,99,79228
1.9306,0.2053,37.8300,88,99,79232
1.9404,0.1711,37.8000,88,99,79235
1.9208,0.1711,37.8700,88,99,79238
1.9110,0.1760,37.8700,88,99,79242
1.9501,0.1808,36.8800,88,99,79245
1.9306,0.1808,37.8000,88,99,79248
1.9208,0.1662,37.8000,88,99,79251
1.9159,0.1711,37.9300,88,99,79255
1.9159,0.1711,37.9000,88,99,79258
1.9648,0.1808,37.7100,88,99,79261
1.9404,0.1808,37.8000,88,99,79264
1.9453,0.1711,37.8000,88,99,79268
1.9550,0.1711,37.8700,88,99,79271
1.9746,0.2248,37.9000,88,99,79275
2.0430,0.1857,37.9900,88,99,79278
2.0430,0.1711,37.8300,88,99,79282
2.0186,0.1662,37.8300,88,99,79285
2.0235,0.1760,37.8700,88,99,79288
2.0332,0.1711,37.9000,88,99,79291
2.1017,0.1906,37.7100,88,99,79294
2.0870,0.1857,37.7700,88,99,79298
2.0821,0.1711,37.8300,88,99,79301
2.1065,0.2102,37.8300,88,99,79304
2.1212,0.1760,37.9000,88,99,79307
2.2043,0.1906,37.6800,88,99,79311
2.1652,0.1760,37.4000,88,99,79314
2.1603,0.1662,37.8300,88,99,79318
2.1261,0.1760,37.8300,88,99,79321
2.0870,0.1711,37.9000,88,99,79325
2.1017,0.1906,37.6200,88,99,79328
2.0235,0.1760,37.8300,88,99,79331
1.9795,0.1662,37.8700,88,99,79334
1.9550,0.1760,37.8700,88,99,79338
1.9208,0.1760,37.9000,88,99,79341
1.9550,0.1808,37.5900,88,99,79344
1.8915,0.1760,37.7700,88,99,79347
1.8573,0.1613,37.9000,88,99,79351
1.8475,0.1760,37.7700,88,99,79354
1.8231,0.1711,37.9300,88,99,79357
1.8573,0.1808,37.5900,88,99,79361
1.8035,0.1760,37.8000,88,99,79365
1.7889,0.1711,37.8700,88,99,79368
1.7840,0.1515,37.8700,88,99,79371
1.7791,0.1711,37.9000,88,99,79374
1.8231,0.1808,37.5600,88,99,79378
1.7889,0.1760,37.7700,88,99,79381
1.7840,0.1711,37.9000,88,99,79384
1.7986,0.1711,37.8300,88,99,79387
1.7937,0.1760,37.8700,88,99,79391
1.8524,0.1808,37.5600,88,99,79394
1.8231,0.1711,37.7700,88,99,79397
1.8231,0.1711,37.9000,88,99,79400
1.8231,0.1808,37.8700,88,99,79405
1.8133,0.1711,37.9600,88,99,79408
1.8475,0.1808,37.5600,88,99,79411
1.7791,0.1711,37.7700,88,99,79414
1.7351,0.1760,37.9000,88,99,79418
1.7058,0.1760,37.8300,88,99,79421
1.6764,0.1711,37.8700,88,99,79424
1.7644,0.1857,37.5600,88,99,79427
1.8524,0.1760,37.8000,88,99,79431
2.0821,0.1711,37.3400,88,99,79434
2.4487,0.1808,37.8300,88,99,79437
2.8886,0.1760,37.8700,88,99,79440
3.4164,0.1808,37.5300,88,99,79444
3.7146,0.1711,37.9000,88,99,79448
3.8221,0.1711,37.9300,88,99,79451
3.6950,0.1711,37.8300,88,99,79454
3.3138,0.1711,37.8700,88,99,79458
2.9472,0.1808,37.5900,88,99,79461
2.4389,0.1515,37.8000,88,99,79464
2.0723,0.1760,37.9000,88,99,79467
1.8035,0.1760,37.8700,88,99,79471
1.6080,0.1711,37.9000,88,99,79474
1.5543,0.1808,37.6200,88,99,79477
1.4907,0.1760,37.8000,88,99,79480
1.4663,0.1662,37.9000,88,99,79483
1.4858,0.1955,37.8000,88,99,79488
1.4858,0.1711,37.8700,88,99,79491
1.5543,0.1808,37.5900,88,99,79494
1.5347,0.1662,37.7700,88,99,79497
1.5396,0.1711,37.9900,88,99,79501
1.5689,0.1808,37.8000,88,99,79504
1.5738,0.1760,37.9000,88,99,79507
1.6276,0.1760,37.6500,88,99,79510
1.6080,0.1662,37.8700,88,99,79514
1.6276,0.1760,37.9000,88,99,79517
1.6520,0.1808,37.8300,88,99,79520
1.6569,0.1760,37.8300,88,99,79523
1.6960,0.1808,37.6500,88,99,79527
1.6764,0.1711,37.7700,88,99,79531
1.6862,0.1711,37.9000,88,99,79534
1.7107,0.1711,37.7700,88,99,79537
1.7009,0.1808,37.9000,88,99,79541
1.7449,0.1760,37.6500,88,99,79544
1.8084,0.2199,37.6200,88,99,79549
1.7644,0.1711,37.9600,88,99,79552
1.7644,0.1711,37.8700,88,99,79555
1.7693,0.1760,37.8700,88,99,79558
1.7840,0.1760,37.8700,88,99,79562
1.8280,0.1857,37.5300,88,99,79565
1.7986,0.1760,37.8300,88,99,79568
1.7937,0.1808,37.8700,88,99,79571
1.8035,0.1760,37.8000,88,99,79576
1.8035,0.1711,37.9000,88,99,79579
1.8573,0.1857,37.5900,88,99,79582
1.8280,0.1857,37.7100,88,99,79585
1.8231,0.1760,37.9300,88,99,79589
1.8377,0.1760,37.8300,88,99,79592
1.8328,0.1760,37.9000,88,99,79595
1.8915,0.1808,37.5600,88,99,79598
1.8524,0.1711,37.8000,88,99,79602
1.8671,0.1711,37.9000,88,99,79605
1.8768,0.1760,37.8700,88,99,79608
1.8866,0.1760,37.9000,88,99,79611
1.9453,0.1808,36.7000,88,99,79616
1.9208,0.1760,37.8000,88,99,79619
1.9257,0.1711,37.8700,88,99,79622
1.9501,0.1857,37.8300,88,99,79625
1.9501,0.1711,37.9000,88,99,79629
2.0137,0.1808,37.5900,88,99,79632
1.9844,0.1760,37.8000,88,99,79635
1.9844,0.1711,37.9000,88,99,79638
2.0137,0.1808,37.8300,88,99,79641
1.9990,0.1711,37.9600,88,99,79645
2.0577,0.1808,37.6200,88,99,79648
2.0039,0.1662,37.8300,88,99,79651
2.0235,0.1711,37.9900,88,99,79654
2.0381,0.1515,37.8300,88,99,79659
2.0430,0.1760,37.9300,88,99,79662
2.0870,0.1808,37.8000,88,99,79665
2.0919,0.1711,37.7700,88,99,79668
2.0430,0.1711,37.9000,88,99,79672
2.0674,0.1808,37.8000,88,99,79675
2.0381,0.1906,37.8700,88,99,79678
2.0821,0.1760,37.6200,88,99,79681
2.0528,0.1760,37.8000,88,99,79685
2.0283,0.1711,38.0500,88,99,79688
2.0381,0.1857,37.8000,88,99,79691
2.0039,0.2102,37.9000,88,99,79694
2.0332,0.1711,37.6500,88,99,79697
1.9844,0.1760,37.9000,88,99,79702
1.9697,0.1711,37.9000,88,99,79705
1.9697,0.1760,37.9000,88,99,79708
1.9257,0.1711,37.9300,88,99,79711
1.9453,0.1760,37.6800,88,99,79715
1.9062,0.1711,37.9900,88,99,79718
1.8866,0.1515,37.9000,88,99,79721
1.8817,0.1808,37.7100,88,99,79724
1.8426,0.1808,37.9000,88,99,79728
1.8573,0.1760,37.6800,88,99,79731
1.8231,0.1711,37.7700,88,99,79734
1.8084,0.1711,37.9000,88,99,79737
1.8231,0.1760,37.7100,88,99,79741
1.7986,0.1711,37.9000,88,99,79745
1.8231,0.1711,37.6800,88,99,79748
1.7937,0.1760,37.9000,88,99,79751
1.7986,0.1711,37.4900,88,99,79755
1.8133,0.1760,37.7400,88,99,79758
1.7986,0.1711,37.9300,88,99,79761
1.8231,0.2053,37.6800,88,99,79764
1.8035,0.1711,37.9300,88,99,79768
1.8035,0.1662,37.9300,88,99,79771
1.8328,0.1760,37.7100,88,99,79774
1.8084,0.1808,37.9000,88,99,79777
1.8426,0.1711,37.7100,88,99,79781
1.8280,0.1760,37.8300,88,99,79784
1.8231,0.1760,37.9000,88,99,79788
1.8377,0.1760,37.7700,88,99,79791
1.8377,0.1760,37.8700,88,99,79795
1.8622,0.1906,37.7100,88,99,79798
1.8377,0.1711,37.8700,88,99,79801
1.8475,0.1711,37.9000,88,99,79804
1.8768,0.1711,37.7400,88,99,79808
1.8622,0.1760,37.8700,88,99,79811
1.8817,0.1711,38.1500,88,99,79814
1.8524,0.1711,37.8000,88,99,79817
1.8866,0.1711,37.9000,88,99,79821
1.8719,0.1711,37.7400,88,99,79824
1.8475,0.1906,37.8700,88,99,79827
1.8671,0.1711,37.6800,88,99,79831
1.8328,0.1711,37.8300,88,99,79835
1.8328,0.1711,37.9000,88,99,79838
1.8377,0.1760,37.8000,88,99,79841
1.8328,0.1711,37.8700,88,99,79844
1.8573,0.1711,37.7100,88,99,79848
1.8231,0.1711,37.9000,88,99,79851
1.8377,0.1760,37.9000,88,99,79854
1.8426,0.1808,37.7100,88,99,79857
1.8133,0.1760,38.0200,88,99,79861
1.8377,0.1711,37.7100,88,99,79864
1.7986,0.1662,37.8300,88,99,79867
1.8035,0.1711,37.8300,88,99,79870
1.8084,0.1808,37.6800,88,99,79875
1.7986,0.1760,37.8700,88,99,79878
1.8231,0.1711,37.7400,88,99,79881
1.7937,0.1760,38.0200,88,99,79884
1.7937,0.1515,37.9000,88,99,79888
1.8035,0.1711,37.7700,88,99,79891
1.7889,0.1711,37.9000,88,99,79894
1.8182,0.1711,37.8300,88,99,79897
1.7937,0.1711,37.8300,88,99,79901
1.7986,0.1515,37.8700,88,99,79904
1.8280,0.1857,37.7400,88,99,79907
1.7889,0.1760,37.8700,88,99,79910
1.8182,0.1711,37.7400,88,99,79915
1.7937,0.1711,37.8300,88,99,79918
1.8133,0.1760,37.8700,88,99,79921
1.8475,0.1808,37.7400,88,99,79924
1.8035,0.1711,37.9000,88,99,79928
1.8426,0.1808,37.7400,88,99,79931
1.8328,0.1760,37.8700,88,99,79934
1.8573,0.1711,37.8700,88,99,79937
1.8817,0.1760,37.7700,88,99,79941
1.8915,0.1711,37.8700,88,99,79944
1.9306,0.1955,37.7400,88,99,79947
1.9062,0.1711,38.0800,88,99,79950
1.9159,0.1711,37.9000,88,99,79954
1.9599,0.1857,37.7400,88,99,79958
1.9501,0.1760,37.9000,88,99,79961
1.9990,0.1808,37.7700,88,99,79964
2.0088,0.1760,37.8700,88,99,79968
2.0039,0.1711,38.0200,88,99,79971
2.0381,0.1760,37.8000,88,99,79974
2.0186,0.1760,37.9000,88,99,79977
2.0332,0.1808,37.7400,88,99,79981
1.9844,0.1711,37.9000,88,99,79984
1.9550,0.1711,37.7400,88,99,79987
1.9306,0.1760,37.8000,88,99,79990
1.8915,0.1760,37.8700,88,99,79994
1.8817,0.1760,37.7100,88,99,79997
1.8231,0.1760,37.9000,88,99,80001
1.7986,0.1711,37.9000,88,99,80004
1.7937,0.1906,37.7100,88,99,80008
1.7449,0.1906,37.8700,88,99,80011
1.7351,0.1515,37.7400,88,99,80014
1.7009,0.1711,37.9000,88,99,80017
1.6960,0.1711,37.6200,88,99,80020
1.7155,0.1808,37.8700,88,99,80024
1.6911,0.1760,37.8700,88,99,80027
1.7058,0.1760,37.7100,88,99,80030
1.6764,0.1515,37.9000,88,99,80033
1.6862,0.1711,37.9000,88,99,80037
1.6960,0.1857,37.8000,88,99,80040
1.6813,0.1760,37.8700,88,99,80044
1.6960,0.1808,37.7400,88,99,80047
1.6813,0.1808,37.9000,88,99,80051
1.6911,0.1711,37.9000,88,99,80054
1.7253,0.1808,37.6800,88,99,80057
1.7155,0.1760,37.8700,88,99,80060
1.7302,0.1760,37.7700,88,99,80064
1.7204,0.1760,37.8700,88,99,80067
1.7155,0.1711,37.9000,88,99,80070
1.7400,0.1808,37.7400,88,99,80073
1.7009,0.1808,37.8300,88,99,80077
1.6569,0.1711,37.8300,88,99,80080
1.6031,0.1711,37.9300,88,99,80083
1.5738,0.1760,37.9300,88,99,80087
1.6373,0.1857,37.7700,88,99,80091
1.7400,0.1808,37.8700,88,99,80094
2.0039,0.1711,37.7700,88,99,80097
2.3363,0.1760,37.8700,88,99,80100
2.7761,0.1711,37.9900,88,99,80104
3.2991,0.1808,37.7100,88,99,80107
3.6266,0.1808,37.8300,88,99,80110
3.7634,0.1760,37.7700,88,99,80113
3.6070,0.1760,37.8700,88,99,80117
3.2649,0.1711,37.9000,88,99,80120
2.8886,0.2199,37.7400,88,99,80123
2.4242,0.1808,37.8700,88,99,80126
2.0870,0.1760,37.7700,88,99,80131
1.7644,0.1760,37.7100,88,99,80134
1.5885,0.1711,37.1900,88,99,80137
1.5200,0.1857,37.7400,88,99,80140
1.4467,0.1906,37.8300,88,99,80143
1.4223,0.1711,37.8300,88,99,80147
1.4223,0.1760,37.9000,88,99,80150
1.4272,0.1808,37.9000,88,99,80153
1.4809,0.1857,37.6800,87,99,80156
1.5054,0.1760,37.8000,87,99,80161
1.5103,0.1760,37.9600,87,99,80164
1.5347,0.1760,37.7100,87,99,80168
1.5200,0.1760,37.8700,87,99,80172
1.5347,0.1711,37.8300,87,99,80175
1.5640,0.1808,37.8000,87,99,80178
1.5591,0.1711,37.8700,87,99,80182
1.5934,0.1760,37.7700,87,99,80185
1.5836,0.1760,37.9000,87,99,80188
1.6373,0.1711,37.8300,87,99,80191
1.6422,0.1857,37.6800,87,99,80195
1.6276,0.1711,37.8700,87,99,80198
1.6471,0.1760,37.7400,87,99,80201
1.6276,0.1760,37.8700,87,99,80204
1.6422,0.1760,37.8700,87,99,80208
1.6716,0.1760,37.7700,87,99,80211
1.6569,0.1760,37.7700,87,99,80215
1.6716,0.1760,37.7400,87,99,80218
1.6667,0.1760,37.8700,87,99,80222
1.6667,0.1760,37.8700,87,99,80225
1.6911,0.1808,37.7100,87,99,80228
1.6813,0.1760,37.8700,87,99,80231
1.7009,0.1760,37.7400,87,99,80235
1.6813,0.2102,37.9000,87,99,80238
1.6911,0.1711,37.9000,87,99,80241
1.7302,0.1711,37.7100,87,99,80244
1.7204,0.1711,37.8700,87,99,80248
1.7302,0.1760,37.8700,87,99,80251
1.7204,0.1760,37.8700,87,99,80254
1.7204,0.1760,37.9000,87,99,80258
1.7546,0.1808,37.7100,87,99,80262
1.7498,0.1515,37.8300,87,99,80265
1.7986,0.1760,37.7400,87,99,80268
1.7546,0.1760,38.0500,87,99,80271
1.7644,0.1711,37.9000,87,99,80275
1.8182,0.1711,37.7700,87,99,80278
1.7986,0.1808,37.8700,87,99,80281
1.8231,0.1711,37.7700,87,99,80284
1.8133,0.1760,37.8700,87,99,80288
1.8328,0.1711,37.9000,87,99,80291
1.8768,0.1906,37.6800,87,99,80294
1.8719,0.1808,37.8700,87,99,80297
1.8866,0.1711,37.7700,87,99,80301
1.8866,0.1760,37.8700,87,99,80305
1.9013,0.1515,37.8700,87,99,80308
1.9501,0.1857,37.7400,87,99,80311
1.9404,0.1711,37.8000,87,99,80314
1.9453,0.1711,37.8000,87,99,80318
1.9355,0.1711,37.8700,87,99,80321
1.9550,0.1760,37.9000,87,99,80324
1.9990,0.1857,37.7100,87,99,80327
1.9697,0.1808,37.8300,87,99,80331
1.9648,0.1857,37.8700,87,99,80334
1.9599,0.1906,37.8300,87,99,80337
1.9648,0.1711,37.9000,87,99,80340
2.0039,0.1760,37.6800,87,99,80345
1.9746,0.1808,37.7100,87,99,80348
1.9599,0.1711,37.8000,87,99,80351
1.9501,0.1760,37.9000,87,99,80354
1.9404,0.1711,37.9900,87,99,80358
1.9795,0.1906,37.6800,87,99,80361
1.9501,0.1808,37.8000,87,99,80364
1.9062,0.1711,37.8300,87,99,80367
1.8866,0.1711,37.8300,87,99,80371
1.8964,0.1760,37.8700,87,99,80374
1.9013,0.2004,37.6500,87,99,80377
1.8475,0.1711,37.7400,87,99,80380
1.8182,0.1711,37.8300,87,99,80385
1.8133,0.1760,37.8700,87,99,80388
1.7840,0.1760,37.9000,87,99,80391
1.8133,0.1906,37.6500,87,99,80394
1.7693,0.1808,37.7700,87,99,80398
1.7498,0.1662,37.8700,87,99,80401
1.7449,0.1760,38.0800,87,99,80404
1.7351,0.1711,37.9000,87,99,80407
1.7840,0.1955,37.6200,87,99,80411
1.7449,0.1760,37.7400,87,99,80414
1.7400,0.1711,37.8700,87,99,80417
1.7595,0.1711,37.8700,87,99,80420
1.7693,0.1760,37.8700,87,99,80424
1.7986,0.1906,37.7400,87,99,80428
1.7742,0.1515,37.7400,87,99,80431
1.7644,0.1760,37.8700,87,99,80434
1.7840,0.1808,37.8700,87,99,80438
1.7742,0.1760,37.9000,87,99,80441
1.8622,0.1906,37.5900,87,99,80444
1.7937,0.1760,37.7400,87,99,80447
1.7937,0.1711,37.8700,87,99,80451
1.7937,0.1808,37.8700,87,99,80454
1.7986,0.1760,37.9300,87,99,80457
1.8475,0.2102,37.5900,87,99,80460
1.8084,0.1760,37.7700,87,99,80464
1.8084,0.1711,37.8700,87,99,80467
1.8035,0.1711,37.8300,87,99,80471
1.8133,0.1760,37.9000,87,99,80474
1.8573,0.1857,36.7000,87,99,80478
1.8280,0.1760,37.7700,87,99,80481
1.8231,0.1760,37.9000,87,99,80484
1.8328,0.1760,37.8300,87,99,80487
1.8231,0.1711,37.8700,87,99,80490
1.8719,0.1857,37.5600,87,99,80494
1.8084,0.1711,37.7700,87,99,80497
1.8084,0.1760,37.8700,87,99,80500
1.8133,0.1808,37.8300,87,99,80503
1.8231,0.1808,37.9000,87,99,80507
1.8573,0.1808,37.5900,87,99,80510
1.8182,0.1515,37.7700,87,99,80514
1.8133,0.1760,37.9300,87,99,80517
1.8133,0.1760,37.8700,87,99,80521
1.7986,0.1760,37.9000,87,99,80524
1.8426,0.1808,37.5600,87,99,80527
1.8084,0.1857,37.7700,87,99,80530
1.7986,0.1711,37.9900,87,99,80534
1.8035,0.1808,37.9300,87,99,80537
1.8035,0.1760,37.8700,87,99,80540
1.8280,0.1808,37.4900,87,99,80543
1.7791,0.1711,37.8000,87,99,80547
1.7742,0.1760,37.8700,87,99,80550
1.7791,0.1808,37.6500,87,99,80553
1.7644,0.1711,37.9000,87,99,80557
1.8084,0.1857,37.6200,87,99,80561
1.7644,0.1662,37.8700,87,99,80564
1.7742,0.1711,37.8700,87,99,80567
1.7889,0.1808,37.8300,87,99,80570
1.7840,0.1760,37.8700,87,99,80574
1.8133,0.1808,37.6500,87,99,80577
1.7840,0.1808,37.7700,87,99,80580
1.7693,0.1760,37.9000,87,99,80583
1.7840,0.1906,37.8300,87,99,80587
1.7546,0.1760,37.8700,87,99,80590
1.8035,0.1857,37.6200,87,99,80593
1.7595,0.1760,37.9000,87,99,80596
1.7644,0.1711,37.9000,87,99,80601
1.8231,0.1808,37.8000,87,99,80604
1.7791,0.1760,37.3700,87,99,80607
1.8231,0.1760,37.6200,87,99,80610
1.8084,0.1711,37.8700,87,99,80614
1.8280,0.1711,37.8700,87,99,80617
1.8622,0.1808,37.7700,87,99,80620
1.8622,0.1760,37.9300,87,99,80623
1.9453,0.1808,37.6200,87,99,80627
1.9062,0.1857,37.8000,87,99,80630
1.9062,0.1760,37.9000,87,99,80633
1.9306,0.1515,37.7700,87,99,80636
1.9257,0.1808,37.9000,87,99,80641
1.9746,0.1760,37.7100,87,99,80644
1.9599,0.1760,37.8300,87,99,80647
1.9844,0.1760,37.9000,87,99,80650
2.0235,0.1808,37.8000,87,99,80653
2.0039,0.1711,37.8700,87,99,80657
2.0332,0.1760,37.6500,87,99,80660
1.9795,0.1808,37.9000,87,99,80663
1.9599,0.1760,37.8700,87,99,80666
1.9501,0.1808,38.1500,87,99,80670
1.8915,0.1760,37.8700,87,99,80673
1.8768,0.1711,37.6800,87,99,80676
1.8231,0.1760,37.7700,87,99,80679
1.7986,0.1760,37.9000,87,99,80684
1.7889,0.1808,37.7100,87,99,80687
1.7449,0.1808,37.9000,87,99,80690
1.7351,0.1760,37.7100,87,99,80693
1.6911,0.1760,37.9300,87,99,80697
1.6764,0.1808,37.9000,87,99,80700
1.6813,0.1808,37.7400,87,99,80703
1.6716,0.1760,37.8700,87,99,80706
1.6862,0.1760,37.7100,87,99,80710
1.6960,0.1808,37.8700,87,99,80713
1.6764,0.1760,37.9600,87,99,80716
1.7009,0.1808,37.8000,87,99,80719
1.6764,0.1711,37.8300,87,99,80723
1.7058,0.1760,37.8700,87,99,80727
1.6862,0.1711,37.8300,87,99,80730
1.6960,0.1760,37.8700,87,99,80733
1.7058,0.1808,37.7700,87,99,80737
1.6960,0.1760,37.9600,87,99,80740
1.7253,0.1760,37.7100,87,99,80743
1.7058,0.1808,37.9000,87,99,80746
1.7204,0.1760,37.8700,87,99,80750
1.7595,0.1711,37.7700,87,99,80753
1.7009,0.2102,37.8700,87,99,80756
1.6960,0.1760,37.7400,87,99,80759
1.6227,0.1711,37.8700,87,99,80763
1.5885,0.1808,37.8700,87,99,80766
1.6178,0.1808,37.7700,87,99,80770
3.1134,0.1808,37.7700,87,99,80775
3.4848,0.1760,37.9000,87,99,80778
3.8123,0.1808,37.6500,87,99,80781
3.6657,0.1857,37.8300,87,99,80784
3.3871,0.1760,37.9300,87,99,80788
3.0108,0.1857,37.7700,87,99,80791
2.5513,0.1760,37.8700,87,99,80794
2.2190,0.1760,37.6500,87,99,80797
1.8817,0.1760,37.9300,87,99,80801
1.6813,0.1760,37.8700,87,99,80804
1.5738,0.1808,37.7700,87,99,80807
1.4907,0.1760,37.8700,87,99,80811
1.4858,0.1808,37.6500,87,99,80815
1.4516,0.1760,37.7100,87,99,80818
1.4418,0.1760,37.1000,87,99,80821
1.4663,0.1857,37.6200,87,99,80824
1.4614,0.1760,37.8700,87,99,80828
1.4907,0.1760,37.6500,87,99,80831
1.4761,0.1760,37.8000,87,99,80834
1.4858,0.1760,37.8700,87,99,80837
1.5054,0.1808,37.7400,87,99,80841
1.5054,0.1760,37.7400,87,99,80844
1.5347,0.1711,37.6500,87,99,80847
1.5347,0.1711,37.8300,87,99,80850
1.5494,0.1760,37.8700,87,99,80855
1.5738,0.1808,37.8300,87,99,80858
1.5689,0.1760,37.9000,87,99,80861
1.5982,0.1760,37.6500,87,99,80864
1.5836,0.1760,37.9000,87,99,80868
1.6031,0.1711,37.8700,87,99,80871
1.6227,0.1711,37.7100,87,99,80874
1.6227,0.1760,37.8700,87,99,80877
1.6520,0.1760,37.7700,87,99,80881
1.6325,0.1760,37.8700,87,99,80884
1.6520,0.1711,37.9000,87,99,80887
1.6716,0.1857,37.7700,87,99,80890
1.6716,0.1808,37.9300,87,99,80894
1.7058,0.1760,37.7100,87,99,80898
1.6911,0.1760,37.8700,87,99,80901
1.6911,0.1760,37.8700,87,99,80904
1.7155,0.1808,37.7700,87,99,80908
1.7058,0.1760,37.1300,87,99,80911
1.7400,0.1760,37.7100,87,99,80914
1.7253,0.1760,37.7700,87,99,80917
1.7351,0.1711,37.8700,87,99,80921
1.7498,0.1808,37.7100,87,99,80924
1.7400,0.1711,37.9300,87,99,80927
1.7693,0.1760,37.7100,87,99,80930
1.7546,0.1760,37.9000,87,99,80934
1.7693,0.1711,37.9300,87,99,80937
1.7840,0.1808,37.7400,87,99,80941
1.7791,0.1760,37.9900,87,99,80944
1.8231,0.1760,37.7100,87,99,80948
1.7986,0.1711,37.8700,87,99,80951
1.8133,0.1760,37.8700,87,99,80954
1.8524,0.1857,37.8700,87,99,80957
1.8475,0.1760,37.9300,87,99,80961
1.8768,0.1760,37.7100,87,99,80964
1.8817,0.1760,37.8000,87,99,80967
1.8817,0.1760,37.9000,87,99,80970
1.9110,0.1808,37.7400,87,99,80974
1.9159,0.1808,37.8700,87,99,80977
1.9550,0.1760,37.9000,87,99,80980
1.9355,0.1760,37.9000,87,99,80984
1.9404,0.1760,37.9000,87,99,80988
1.9648,0.1760,37.7700,87,99,80991
1.9697,0.1808,37.8700,87,99,80994
1.9990,0.1808,37.7700,87,99,80997
1.9697,0.1760,37.9000,87,99,81000
1.9990,0.1760,37.8700,87,99,81004
2.0186,0.1857,37.7400,87,99,81007
1.9892,0.1760,37.9600,87,99,81010
2.0430,0.1711,37.7700,87,99,81013
1.9941,0.1808,37.9000,87,99,81017
1.9941,0.1760,37.8700,87,99,81020
2.0332,0.1808,37.8000,87,99,81024
1.9892,0.1760,38.0200,87,99,81027
2.0039,0.1808,37.7100,87,99,81031
1.9746,0.1760,37.9000,87,99,81034
1.9697,0.1760,37.9000,87,99,81037
1.9697,0.1857,37.8300,87,99,81040
1.9453,0.2053,37.8300,87,99,81044
1.9501,0.1711,37.7100,87,99,81047
1.9110,0.1808,38.0800,87,99,81050
1.8964,0.1808,37.9000,87,99,81053
1.9110,0.1857,37.7100,87,99,81057
1.8671,0.1808,37.8700,87,99,81060
1.8622,0.1808,37.7400,87,99,81063
1.8231,0.1857,37.8300,87,99,81067
1.8084,0.1760,37.8700,87,99,81071
1.8182,0.1857,37.7700,87,99,81074
1.7889,0.1808,37.8700,87,99,81077
1.7889,0.1808,37.7400,87,99,81080
1.7546,0.1711,37.9000,87,99,81084
1.7546,0.1760,37.9000,87,99,81087
1.7644,0.1760,37.8000,87,99,81090
1.7498,0.1808,37.8700,87,99,81093
1.7595,0.1760,37.7400,87,99,81097
1.7400,0.1760,37.8700,87,99,81100
1.7449,0.1760,37.9600,87,99,81103
1.7791,0.1857,37.7100,87,99,81106
1.7595,0.1808,37.8300,87,99,81111
1.7742,0.1760,37.7700,87,99,81114
1.7546,0.1760,37.9900,87,99,81117
1.7644,0.1711,37.8700,87,99,81120
1.8035,0.1906,37.7700,87,99,81124
1.7693,0.1808,37.8300,87,99,81127
1.7889,0.1711,37.7700,87,99,81130
1.7644,0.1760,37.9000,87,99,81133
1.7791,0.1760,37.7700,87,99,81136
1.8133,0.1857,37.7700,87,99,81140
1.8328,0.1711,37.8300,87,99,81143
1.8133,0.1760,37.7700,87,99,81146
1.7986,0.1808,37.7700,87,99,81149
1.7986,0.1760,37.9000,87,99,81154
1.8377,0.2004,37.6800,87,99,81157
1.8182,0.1808,37.8300,87,99,81160
1.8231,0.1760,37.4600,87,99,81163
1.8084,0.1857,37.8700,87,99,81167
1.8035,0.1760,37.9000,87,99,81170
1.8328,0.1955,37.7400,87,99,81173
1.8084,0.1857,37.8300,87,99,81176
1.8084,0.1760,37.9600,87,99,81180
1.7986,0.1808,37.9300,87,99,81183
1.7937,0.1808,37.8700,87,99,81186
1.8280,0.2102,37.7400,87,99,81189
1.8035,0.1808,37.8300,87,99,81193
1.7986,0.1760,37.8000,87,99,81197
1.7889,0.1760,37.8300,87,99,81200
1.7889,0.1760,37.9600,87,99,81203
1.8231,0.1857,37.6800,87,99,81207
1.7986,0.1808,37.7700,87,99,81210
1.7889,0.1808,37.7700,87,99,81213
1.7840,0.1808,37.8000,87,99,81216
1.7742,0.1711,37.8700,87,99,81220
1.8182,0.1906,37.6500,87,99,81223
1.7840,0.1808,37.8000,87,99,81226
1.7742,0.1662,37.8000,87,99,81229
1.7742,0.1808,37.9600,87,99,81233
1.7742,0.1515,37.8700,87,99,81236
1.8328,0.1955,37.6800,87,99,81240
1.7840,0.1760,37.7700,87,99,81243
1.7742,0.1711,37.8000,87,99,81247
1.7742,0.1808,37.8700,87,99,81250
1.7644,0.1857,37.8700,87,99,81253
1.8133,0.1906,37.6200,87,99,81256
1.7693,0.1857,37.8300,87,99,81260
1.7546,0.1760,37.8000,87,99,81263
1.7498,0.1857,37.8700,87,99,81266
1.7449,0.1760,38.0800,87,99,81269
1.8035,0.1906,37.6800,87,99,81273
1.7644,0.1857,37.7700,87,99,81276
1.7498,0.1711,37.8300,87,99,81280
1.7449,0.1760,38.1100,87,99,81283
1.7400,0.1760,37.8700,87,99,81287
1.7840,0.1955,37.6500,87,99,81290
1.7498,0.1808,37.8000,87,99,81293
1.7449,0.1711,37.8300,87,99,81296
1.7498,0.1808,37.8700,87,99,81300
1.7498,0.1760,37.8700,87,99,81303
1.8084,0.1906,37.5600,87,99,81306
1.7742,0.1808,37.7700,87,99,81309
1.7937,0.1711,37.8700,87,99,81312
1.8231,0.1808,37.9000,87,99,81316
1.8377,0.1711,37.8700,87,99,81319
1.9110,0.2004,37.6200,87,99,81323
1.8671,0.1760,37.6800,87,99,81326
1.8671,0.1711,37.8700,87,99,81330
1.8719,0.1808,37.8700,87,99,81333
1.8964,0.1760,37.9000,87,99,81336
1.9404,0.1906,37.5900,87,99,81339
1.9453,0.1760,37.7400,87,99,81343
1.9306,0.1760,37.8300,87,99,81346
1.9550,0.1857,37.9000,87,99,81349
1.9648,0.1857,37.8700,87,99,81352
2.0283,0.1906,37.5600,87,99,81356
1.9844,0.1760,38.2400,87,99,81359
1.9697,0.1760,37.8700,87,99,81362
1.9501,0.1857,37.8300,87,99,81366
1.9062,0.1760,37.8700,87,99,81370
1.9257,0.1857,37.5600,87,99,81373
1.8426,0.1760,37.7400,87,99,81376
1.8084,0.1711,37.9000,87,99,81379
1.7889,0.1808,37.8300,87,99,81383
1.6667,0.1906,37.9000,87,99,81387
1.6667,0.1760,37.8700,87,99,81391
1.7107,0.1711,37.6500,87,99,81394
1.7107,0.1857,37.8000,87,99,81397
1.6667,0.1760,37.7700,87,99,81400
1.6618,0.1808,37.8700,87,99,81404
1.6667,0.1711,37.9000,87,99,81408
1.7058,0.1906,37.6800,87,99,81411
1.6813,0.1515,37.8000,87,99,81414
1.6813,0.1760,37.8000,87,99,81417
1.6813,0.1808,37.9000,87,99,81421
1.6911,0.1760,37.8700,87,99,81424
1.7351,0.1906,37.6500,87,99,81427
1.7058,0.1808,37.8000,87,99,81430
1.7107,0.1711,37.8300,87,99,81434
1.7400,0.1808,37.8700,87,99,81437
1.7058,0.1760,37.8700,87,99,81440
1.7400,0.1906,37.6500,87,99,81443
1.6569,0.1711,37.7700,87,99,81447
1.6080,0.1711,37.8300,87,99,81451
1.5787,0.1808,37.9900,87,99,81454
1.5885,0.1808,37.8700,87,99,81457
1.7302,0.1906,37.6500,87,99,81461
1.9013,0.1808,37.7700,87,99,81464
2.2190,0.1760,37.8700,87,99,81467
2.6344,0.1808,38.1500,87,99,81470
3.0938,0.1760,37.9000,87,99,81474
3.5826,0.2004,37.5900,87,99,81477
3.7195,0.1808,37.8000,87,99,81480
3.6755,0.1711,37.8700,87,99,81483
3.3724,0.1808,37.8300,87,99,81487
2.9423,0.1760,37.8700,87,99,81490
2.5953,0.1906,37.5900,87,99,81494
2.1603,0.1760,37.7700,87,99,81497
1.8719,0.1760,37.8700,87,99,81501
1.6764,0.1808,37.8300,87,99,81504
1.5885,0.1857,37.8700,87,99,81507
1.5249,0.1955,37.5600,87,99,81510
1.4565,0.1760,37.8000,87,99,81514
1.4418,0.1760,37.9000,87,99,81517
1.4418,0.1808,37.8700,87,99,81520
1.4418,0.2053,37.8700,87,99,81523
1.4809,0.1857,37.5600,87,99,81527
1.4712,0.1808,37.8000,87,99,81530
1.4809,0.1760,37.8700,87,99,81533
1.5005,0.1808,38.0500,87,99,81537
1.5054,0.1662,37.8700,87,99,81540
1.5591,0.1857,36.7000,87,99,81544
1.5347,0.1760,37.9000,87,99,81547
1.5445,0.1711,37.8700,87,99,81550
1.5640,0.2199,37.7700,87,99,81553
1.5640,0.1760,37.8700,87,99,81557
1.6129,0.1955,37.5600,87,99,81560
1.5836,0.1760,37.8000,87,99,81563
1.6031,0.1760,37.8700,87,99,81566
1.6227,0.1711,37.8300,87,99,81570
1.6276,0.1760,37.9000,87,99,81573
1.6667,0.1857,37.5900,87,99,81576
1.6569,0.1857,37.7700,87,99,81580
1.6520,0.1808,37.8700,87,99,81584
1.6764,0.2004,37.8000,87,99,81587
1.6667,0.1760,37.8700,87,99,81590
1.7107,0.1857,37.5900,87,99,81593
1.6813,0.1808,37.8300,87,99,81597
1.6911,0.1760,37.8700,87,99,81600
1.7351,0.1711,37.8000,87,99,81603
1.7058,0.1760,37.9300,87,99,81606
1.7498,0.1808,37.6200,87,99,81610
1.7107,0.1711,37.9300,87,99,81613
1.7302,0.1808,37.8700,87,99,81616
1.7498,0.1808,37.7100,87,99,81619
1.7449,0.1760,37.9000,87,99,81624
1.7889,0.1711,37.6200,87,99,81627
1.7693,0.1857,37.8000,87,99,81630
1.7693,0.1760,37.8700,87,99,81633
1.7986,0.1857,37.8000,87,99,81637
1.7840,0.1808,37.8700,87,99,81640
1.8231,0.1808,37.6200,87,99,81643
1.7986,0.1760,37.9300,87,99,81646
1.8084,0.1857,37.9000,87,99,81650
1.8328,0.1857,38.0200,87,99,81653
1.8231,0.1760,37.9000,87,99,81656
1.8719,0.1760,37.6200,87,99,81659
1.8817,0.1760,37.9000,87,99,81664
1.8671,0.1760,37.9300,87,99,81667
1.8866,0.1808,37.8000,87,99,81670
1.8817,0.1760,37.9000,87,99,81673
1.9208,0.1808,37.6500,87,99,81677
1.9159,0.1808,37.7700,87,99,81680
1.9208,0.1906,37.8700,87,99,81683
1.9550,0.1808,37.7400,87,99,81686
1.9404,0.1515,37.9000,87,99,81690
1.9746,0.1808,37.6500,87,99,81693
1.9501,0.1760,37.6200,87,99,81696
1.9648,0.1515,37.9000,87,99,81699
2.0088,0.1808,37.7100,87,99,81702
1.9795,0.1808,37.8700,87,99,81707
2.0137,0.1711,37.6800,87,99,81710
1.9941,0.1808,37.8700,87,99,81713
1.9990,0.1760,37.8700,87,99,81716
2.0235,0.1857,37.7400,87,99,81720
1.9990,0.1857,37.8700,87,99,81723
2.0186,0.1808,37.7400,87,99,81726
1.9844,0.1711,37.8000,87,99,81729
1.9844,0.1711,37.8700,87,99,81733
1.9941,0.1760,37.7400,87,99,81736
1.9648,0.1808,37.7400,87,99,81739
1.9941,0.1711,37.7100,87,99,81742
1.9404,0.1857,37.8700,87,99,81746
1.9257,0.1760,37.7700,87,99,81750
1.9208,0.1808,37.7700,87,99,81753
1.8964,0.1857,37.8700,87,99,81756
1.9110,0.1760,37.7100,87,99,81760
1.8622,0.1808,37.9300,87,99,81763
1.8524,0.1760,37.9000,87,99,81766
1.8524,0.1760,37.7400,87,99,81769
1.8035,0.1808,37.8700,87,99,81773
1.8182,0.1808,37.7100,87,99,81776
1.7840,0.1760,37.8300,87,99,81779
1.7693,0.1760,38.0800,87,99,81782
1.7791,0.1808,37.7700,87,99,81786
1.7546,0.1760,37.8300,87,99,81789
1.7889,0.1857,37.7400,87,99,81793
1.7546,0.1808,37.8700,87,99,81796
1.7693,0.1711,37.8700,87,99,81800
1.7742,0.1760,37.7700,87,99,81803
1.7644,0.1808,37.9300,87,99,81806
1.7889,0.1857,37.7400,87,99,81809
1.7498,0.1711,37.8700,87,99,81813
1.7693,0.1760,37.8700,87,99,81816
1.8035,0.1857,37.8000,87,99,81819
1.7840,0.1808,37.8700,87,99,81822
1.8133,0.1760,37.7400,87,99,81826
1.7840,0.1808,37.8700,87,99,81829
1.7937,0.1711,37.9300,87,99,81832
1.8035,0.1711,37.7700,87,99,81836
1.8035,0.1857,37.8700,87,99,81840
1.8280,0.1857,37.7400,87,99,81843
1.7986,0.1760,37.8700,87,99,81846
1.8035,0.1760,37.8700,87,99,81849
1.8231,0.2053,37.7700,87,99,81853
1.8133,0.1808,37.8700,87,99,81856
1.8475,0.1906,37.7400,87,99,81859
1.8182,0.1760,37.8700,87,99,81862
1.8084,0.1808,37.1600,87,99,81866
1.8377,0.1906,37.7100,87,99,81869
1.8084,0.1808,37.8700,87,99,81872
1.8280,0.2102,37.7400,87,99,81875
1.7986,0.1808,37.8700,87,99,81879
1.8377,0.1808,37.8300,87,99,81883
1.8133,0.1906,37.7700,87,99,81886
1.7986,0.1808,37.8700,87,99,81889
1.8133,0.1808,37.7100,87,99,81892
1.7889,0.1808,38.1100,87,99,81896
1.7937,0.1760,37.9900,87,99,81899
1.8182,0.1808,37.8000,87,99,81902
1.8035,0.1760,37.8300,87,99,81905
1.8231,0.1808,37.7400,87,99,81909
1.7986,0.1808,37.8700,87,99,81912
1.8035,0.1906,37.8700,87,99,81915
1.8280,0.1857,37.7100,87,99,81918
1.7986,0.1515,37.8300,87,99,81923
1.8035,0.1760,37.7100,87,99,81926
1.7742,0.1808,37.8700,87,99,81929
1.7644,0.1808,37.9300,87,99,81932
1.7889,0.1857,37.7700,87,99,81936
1.7742,0.2151,37.8700,87,99,81939
1.7889,0.1808,37.7700,87,99,81942
1.7937,0.1808,37.9300,87,99,81945
1.7889,0.1808,37.9000,87,99,81949
1.7889,0.1906,37.8000,87,99,81952
1.7693,0.1808,37.8300,87,99,81955
1.7742,0.1808,37.7700,87,99,81958
1.7595,0.1808,37.9600,87,99,81963
1.7644,0.1711,37.8700,87,99,81966
1.8280,0.1808,37.6800,87,99,81969
1.7742,0.1857,37.8000,87,99,81972
1.7840,0.1808,37.7400,87,99,81976
1.7840,0.1857,37.8700,87,99,81979
1.7937,0.1808,37.9600,87,99,81982
1.8524,0.1808,37.7400,87,99,81985
1.8426,0.1857,37.8000,87,99,81989
1.8573,0.1760,37.7700,87,99,81992
1.8573,0.1808,37.8700,87,99,81995
1.8964,0.1955,37.9000,87,99,82000
1.9110,0.1808,37.9000,87,99,82003
1.9599,0.1955,37.7100,87,99,82007
1.9550,0.2004,37.8300,87,99,82010
1.9941,0.1808,37.6800,87,99,82014
1.9746,0.1857,37.8300,87,99,82017
1.9795,0.1808,37.9000,87,99,82020
1.9892,0.1857,37.8000,87,99,82023
1.9501,0.1760,37.8700,87,99,82027
1.9453,0.1808,37.7100,87,99,82030
1.8817,0.1808,37.8700,87,99,82033
1.8475,0.1808,37.9300,87,99,82036
1.8328,0.1906,37.8000,87,99,82040
1.7840,0.1808,37.8300,87,99,82043
1.7742,0.1760,37.7400,87,99,82046
1.7253,0.1808,37.8300,87,99,82050
1.7009,0.1808,37.8700,87,99,82054
1.7155,0.1857,37.6800,87,99,82057
1.6764,0.1857,37.8000,87,99,82060
1.6813,0.1808,37.7400,87,99,82063
1.6569,0.1808,37.8300,87,99,82067
1.6618,0.1808,37.8000,87,99,82070
1.6911,0.1711,37.7700,87,99,82073
1.6716,0.1711,37.8300,87,99,82076
1.6813,0.1808,37.7400,87,99,82080
1.6618,0.1808,37.8700,87,99,82083
1.6667,0.1808,37.8700,87,99,82086
1.6862,0.1711,37.7700,87,99,82089
1.6716,0.1808,37.8300,87,99,82094
1.6862,0.1808,37.7400,87,99,82097
1.6716,0.1808,37.8700,87,99,82100
1.6813,0.1662,37.9000,87,99,82103
1.7204,0.1857,37.7400,87,99,82106
1.7009,0.1857,37.8300,87,99,82110
1.6960,0.1760,37.7700,87,99,82113
1.6569,0.1808,37.7400,87,99,82116
1.6227,0.1808,37.8700,87,99,82119
1.6031,0.1808,37.7100,87,99,82123
1.5543,0.1857,37.8700,87,99,82126
1.5738,0.1808,37.7400,87,99,82129
1.6520,0.1857,37.8300,87,99,82132
1.8671,0.1808,37.9300,87,99,82137
2.2385,0.1906,37.7400,87,99,82140
2.6344,0.2346,37.8300,87,99,82143
3.1134,0.1760,37.7400,87,99,82146
3.4995,0.1515,37.8300,87,99,82150
3.6901,0.1808,37.8700,87,99,82153
3.6852,0.1906,37.7400,87,99,82156
3.3333,0.1857,37.8000,87,99,82159
2.9032,0.1808,37.7700,87,99,82163
2.4389,0.1808,37.9900,87,99,82166
2.0332,0.1711,37.9300,87,99,82169
1.7840,0.2102,37.6500,87,99,82172
1.5396,0.1857,38.0500,87,99,82177
1.3978,0.1711,37.8000,87,99,82180
1.3539,0.1808,37.8700,87,99,82183
1.3441,0.1808,37.8300,87,99,82186
1.3930,0.1955,37.6800,87,99,82190
1.3734,0.1857,37.8000,87,99,82193
1.3832,0.1760,37.8300,87,99,82196
1.4027,0.1515,37.8700,87,99,82199
1.4272,0.1760,37.8700,87,99,82203
1.4809,0.2004,37.6500,87,99,82206
1.4663,0.1857,37.7700,87,99,82209
1.4761,0.1711,37.8300,87,99,82212
1.4858,0.1857,37.8700,87,99,82216
1.4956,0.1808,38.0800,87,99,82220
1.5543,0.1955,37.6200,87,99,82223
1.5347,0.1857,37.7700,87,99,82226
1.5298,0.1955,37.8300,87,99,82230
1.5445,0.1808,37.7700,87,99,82233
1.5543,0.1808,37.9000,87,99,82236
1.6080,0.2053,37.6200,87,99,82239
1.5885,0.1808,37.8000,87,99,82242
1.5982,0.1711,37.8700,87,99,82246
1.6129,0.1906,37.8700,87,99,82249
1.6178,0.1808,37.8700,87,99,82252
1.6716,0.1955,37.5900,87,99,82255
1.6373,0.1808,37.8000,87,99,82259
1.6422,0.1760,37.8700,87,99,82263
1.6520,0.1808,37.8300,87,99,82266
1.6422,0.1808,37.7100,87,99,82269
1.6911,0.1906,37.5900,87,99,82273
1.6471,0.1808,37.7700,87,99,82276
1.6520,0.1808,37.9600,87,99,82279
1.6618,0.1808,37.8300,87,99,82282
1.6667,0.1760,37.8700,87,99,82286
1.7204,0.1906,37.5300,87,99,82289
1.7009,0.1857,37.7700,87,99,82292
1.6960,0.1808,37.9000,87,99,82295
1.7107,0.1857,37.7100,87,99,82299
1.7107,0.1808,37.9300,87,99,82302
1.7644,0.1760,37.5600,87,99,82306
1.7302,0.1857,37.7400,87,99,82309
1.7400,0.1808,37.9000,87,99,82313
1.7449,0.1955,37.8300,87,99,82316
1.7351,0.1808,37.7700,87,99,82319
1.7937,0.1857,37.5600,87,99,82322
1.7595,0.1760,37.8000,87,99,82326
1.7840,0.1808,37.8700,87,99,82329
1.8133,0.1857,37.8300,87,99,82332
1.8182,0.1808,37.8700,87,99,82335
1.8719,0.1857,37.5900,87,99,82339
1.8573,0.1857,37.7400,87,99,82342
1.8573,0.1808,37.9000,87,99,82345
1.8866,0.1857,37.8000,87,99,82349
1.8768,0.1808,37.8700,87,99,82353
1.9306,0.1857,37.5900,87,99,82356
1.8915,0.1808,37.8300,87,99,82359
1.9013,0.1808,37.9000,87,99,82362
1.9355,0.1857,37.8000,87,99,82365
1.9257,0.1760,37.9000,87,99,82369
1.9697,0.1857,37.6200,87,99,82372
1.9355,0.1760,37.8300,87,99,82375
1.9453,0.2102,37.8300,87,99,82378
1.9599,0.1857,37.5600,87,99,82382
1.9501,0.1808,37.8300,87,99,82385
1.9941,0.1955,37.5900,87,99,82388
1.9697,0.1808,37.3400,87,99,82392
1.9648,0.1711,37.8700,87,99,82396
1.9746,0.1906,37.7700,87,99,82399
1.9453,0.1808,37.8700,87,99,82402
1.9697,0.1857,37.6200,87,99,82405
1.9355,0.1808,37.8300,87,99,82409
1.9208,0.1906,38.0200,87,99,82412
1.9306,0.1906,37.7400,87,99,82415
1.9013,0.1955,37.8700,87,99,82418
1.9159,0.1808,37.6500,87,99,82422
1.8622,0.1808,37.8700,87,99,82425
1.8817,0.1808,37.9000,87,99,82428
1.8426,0.1857,37.9600,87,99,82432
1.8035,0.1808,37.9900,87,99,82436
1.8182,0.1857,37.6200,87,99,82439
1.7693,0.2297,37.7700,87,99,82442
1.7546,0.1808,37.9300,87,99,82445
1.7595,0.1857,37.7400,87,99,82449
1.7546,0.1857,37.8700,87,99,82452
1.7498,0.1857,37.6500,87,99,82455
1.7107,0.1808,37.7700,87,99,82458
1.7107,0.1760,37.8700,87,99,82462
1.7400,0.1906,37.7400,87,99,82465
1.7058,0.1808,37.8300,87,99,82468
1.7302,0.1808,37.6500,87,99,82471
1.7058,0.1906,37.8700,87,99,82476
1.7155,0.1808,37.8700,87,99,82479
1.7400,0.1857,37.7400,87,99,82482
1.7204,0.1906,37.8700,87,99,82485
1.7400,0.1808,37.7100,87,99,82489
1.7204,0.1711,37.7700,87,99,82492
1.7302,0.1857,37.8700,87,99,82495
1.7400,0.1857,37.7400,87,99,82498
1.7351,0.1808,37.9600,87,99,82502
1.7644,0.1808,37.7100,87,99,82505
1.7498,0.1808,37.8700,87,99,82508
1.7546,0.1808,37.8700,87,99,82511
1.7644,0.1808,37.7700,87,99,82514
1.7595,0.1808,37.8000,87,99,82519
1.7840,0.1711,37.7100,87,99,82522
1.7742,0.1857,37.8700,87,99,82525
1.7644,0.1808,37.9600,87,99,82528
1.7840,0.1906,37.7400,87,99,82532
1.7644,0.1808,37.8700,87,99,82535
1.7937,0.1857,37.9600,87,99,82538
1.7644,0.1760,37.8300,87,99,82541
1.7644,0.1760,37.8700,87,99,82545
1.7791,0.2053,37.7100,87,99,82548
1.7644,0.1808,37.8000,87,99,82551
1.7840,0.1906,37.8000,87,99,82554
1.7449,0.1808,37.8700,87,99,82558
1.7498,0.1808,37.8700,87,99,82562
1.7595,0.1955,37.8000,87,99,82565
1.7498,0.1857,37.8700,87,99,82568
1.7742,0.1857,37.7100,87,99,82572
1.7595,0.1808,37.8700,87,99,82575
1.7400,0.1808,37.9600,87,99,82578
1.7986,0.1906,37.7100,87,99,82581
1.7400,0.1857,37.8700,87,99,82585
1.7595,0.1857,37.7100,87,99,82588
1.7302,0.1808,37.8700,87,99,82591
1.7302,0.1760,37.8700,87,99,82594
1.7498,0.1857,37.7700,87,99,82598
1.7302,0.1515,37.8700,87,99,82601
1.7644,0.1857,37.7100,87,99,82605
1.7204,0.1857,37.8700,87,99,82608
1.7107,0.1808,37.8700,87,99,82613
1.7204,0.1857,37.8700,87,99,82616
1.7449,0.1857,37.6800,87,99,82619
1.7351,0.1808,38.0800,87,99,82623
1.7693,0.1711,37.6500,87,99,82626
1.7644,0.1760,37.7700,87,99,82629
1.7840,0.1808,37.0100,87,99,82632
1.8133,0.1857,37.7400,87,99,82636
1.8426,0.1808,37.8700,87,99,82639
1.8475,0.1955,37.6800,87,99,82642
1.8328,0.1808,37.8700,87,99,82646
1.8573,0.1808,37.9300,87,99,82650
1.8817,0.1857,37.8000,87,99,82653
1.8915,0.1808,37.8700,87,99,82656
1.9501,0.1711,37.7100,87,99,82659
1.9159,0.1760,37.9000,87,99,82663
1.9355,0.1808,37.9300,87,99,82666
1.9697,0.1906,37.7400,87,99,82669
1.9501,0.1711,37.9000,87,99,82672
1.9599,0.1808,37.7100,87,99,82676
1.9062,0.1760,37.8300,87,99,82679
1.8817,0.1808,37.8700,87,99,82682
1.8475,0.1808,37.7400,87,99,82685
1.8035,0.1515,37.8700,87,99,82690
1.7937,0.1808,37.7400,87,99,82693
1.7400,0.1955,37.8700,87,99,82696
1.7204,0.1808,37.8700,87,99,82699
1.7058,0.1906,37.7700,87,99,82703
1.6764,0.1808,37.8700,87,99,82706
1.6813,0.1906,37.7400,87,99,82709
1.6618,0.1857,37.8700,87,99,82712
1.6373,0.1760,37.9000,87,99,82716
1.6618,0.1906,37.7100,87,99,82719
1.6325,0.1808,37.8300,87,99,82722
1.6520,0.1906,37.7400,87,99,82725
1.6325,0.1808,37.9000,87,99,82728
1.6422,0.1857,37.8700,87,99,82733
1.6618,0.1857,37.8000,87,99,82736
1.6520,0.1515,37.8300,87,99,82739
1.6667,0.1857,37.7100,87,99,82742
1.6471,0.1808,37.8700,87,99,82746
1.6569,0.1808,37.9600,87,99,82749
1.6813,0.1857,37.8000,87,99,82752
1.6716,0.1857,38.1100,87,99,82755
1.7009,0.1808,37.6800,87,99,82759
1.6813,0.1711,37.8300,87,99,82762
1.6667,0.1760,37.8700,87,99,82765
1.6716,0.1906,37.7100,87,99,82768
1.6080,0.1857,37.8700,87,99,82772
1.5836,0.1808,37.7100,87,99,82776
1.5347,0.2004,37.8300,87,99,82779
1.5445,0.1808,37.8700,87,99,82782
1.6862,0.1906,37.7700,87,99,82786
1.8475,0.1857,38.0200,87,99,82789
2.1945,0.1808,37.7400,87,99,82792
2.5953,0.1906,37.8700,87,99,82795
3.0792,0.1808,37.9600,87,99,82799
3.5337,0.1906,37.8000,87,99,82802
3.7195,0.1857,37.8300,87,99,82805
3.6999,0.1515,37.7400,87,99,82808
3.3724,0.1808,37.8700,87,99,82812
2.9570,0.1857,37.8700,87,99,82816
2.5660,0.1906,37.8700,87,99,82819
2.1408,0.1857,37.8000,87,99,82822
1.8280,0.1808,37.7400,87,99,82826
1.6031,0.1808,37.8700,87,99,82829
1.4761,0.1857,37.8700,87,99,82832
1.4418,0.2102,37.7100,87,99,82835
1.3978,0.1857,36.9800,87,99,82838
1.3930,0.1808,37.7400,87,99,82842
1.4125,0.1711,37.8700,87,99,82845
1.3978,0.1857,37.8700,87,99,82848
1.4321,0.1906,37.7100,87,99,82852
1.4272,0.1857,37.8300,87,99,82855
1.4516,0.1857,37.8000,87,99,82859
1.4516,0.1857,37.8300,87,99,82862
1.4614,0.1760,37.8300,87,99,82865
1.5005,0.1906,37.6500,87,99,82869
1.4907,0.1808,37.8300,87,99,82872
1.5054,0.1857,37.8700,87,99,82875
1.5103,0.1808,37.8700,87,99,82878
1.5347,0.1857,37.9000,87,99,82882
1.5787,0.1906,37.7100,87,99,82885
1.5689,0.1906,37.8000,87,99,82888
1.5689,0.1808,37.7700,87,99,82891
1.5787,0.1711,37.8300,87,99,82895
1.5885,0.1760,37.8700,87,99,82898
1.6471,0.1955,37.6800,87,99,82902
1.6178,0.1857,37.8300,87,99,82905
1.6325,0.1808,37.8000,87,99,82909
1.6325,0.1760,37.8300,87,99,82912
1.6373,0.1808,37.8700,87,99,82915
1.6911,0.1906,37.6500,87,99,82918
1.6667,0.1711,37.7700,87,99,82922
1.6618,0.1760,37.8000,87,99,82925
1.6667,0.1857,37.8700,87,99,82928
1.6716,0.1711,37.9000,87,99,82931
1.7253,0.2004,37.6500,87,99,82935
1.6960,0.1906,37.7100,87,99,82938
1.6911,0.1760,37.8000,87,99,82941
1.7009,0.2004,37.8700,87,99,82945
1.7058,0.1808,37.9600,87,99,82949
1.7742,0.2053,37.6200,87,99,82952
1.7351,0.1857,37.8700,87,99,82955
1.7351,0.1760,37.8300,87,99,82958
1.7498,0.1857,37.8300,87,99,82962
1.7644,0.1760,37.8700,87,99,82965
1.8133,0.2199,37.6500,87,99,82968
1.7889,0.1906,37.7700,87,99,82971
1.7889,0.1760,37.8300,87,99,82975
1.8035,0.1808,37.8300,87,99,82978
1.8084,0.1808,37.9900,87,99,82981
1.8817,0.1906,37.5900,87,99,82984
1.8768,0.1857,37.7400,87,99,82989
1.8573,0.1760,37.0400,87,99,82992
1.8768,0.1857,37.8700,87,99,82995
1.8866,0.1808,37.9000,87,99,82998
1.9501,0.2004,37.6800,87,99,83002
1.9257,0.1857,37.5600,87,99,83005
1.9208,0.1760,37.8700,87,99,83008
1.9404,0.1711,37.8300,87,99,83011
1.9355,0.1760,37.8700,87,99,83015
1.9990,0.1906,37.5600,87,99,83018
1.9648,0.1808,37.7400,87,99,83021
1.9648,0.1857,37.8700,87,99,83024
1.9795,0.1857,37.9300,87,99,83028
1.9844,0.1808,37.9300,87,99,83032
2.0381,0.2102,37.5600,87,99,83035
1.9892,0.1857,37.7400,87,99,83038
1.9844,0.1808,37.9000,87,99,83041
1.9844,0.1955,37.8300,87,99,83045
1.9697,0.1857,37.8700,87,99,83048
2.0283,0.1906,37.5600,87,99,83051
2.0186,0.1906,37.7700,87,99,83054
1.9795,0.1808,37.8700,87,99,83058
1.9844,0.1857,37.8000,87,99,83061
1.9648,0.1906,37.8300,87,99,83064
2.0039,0.1906,37.5600,87,99,83067
1.9453,0.1760,37.7700,87,99,83072
1.9257,0.1857,37.8300,87,99,83075
1.9208,0.1857,37.8000,87,99,83078
1.8915,0.1711,37.8700,87,99,83081
1.9110,0.2053,37.5600,87,99,83085
1.8475,0.1808,37.8700,87,99,83088
1.8377,0.1808,37.8700,87,99,83091
1.8573,0.1808,37.8000,87,99,83094
1.8084,0.1808,37.8300,87,99,83098
1.8377,0.1955,37.5900,87,99,83101
1.7986,0.1857,37.8000,87,99,83104
1.7791,0.1808,37.8700,87,99,83107
1.7937,0.1906,37.9300,87,99,83111
1.7791,0.1711,37.8700,87,99,83115
1.8182,0.1857,37.6800,87,99,83118
1.7840,0.1857,37.8000,87,99,83121
1.7889,0.1808,37.8300,87,99,83125
1.8035,0.1906,37.8000,87,99,83128
1.7889,0.1808,37.8700,87,99,83131
1.8622,0.1857,37.6200,87,99,83134
1.7937,0.1760,37.8300,87,99,83138
1.8035,0.2004,37.8700,87,99,83141
1.8231,0.1906,37.8000,87,99,83144
1.8084,0.1808,37.9300,87,99,83147
1.8524,0.1955,37.5900,87,99,83151
1.8377,0.1857,37.7400,87,99,83154
1.8426,0.1808,37.9300,87,99,83158
1.8622,0.1955,37.7400,87,99,83161
1.8426,0.1857,37.9000,87,99,83165
1.8866,0.1857,36.8800,87,99,83168
1.8524,0.1808,37.8300,87,99,83171
1.8573,0.2004,37.8700,87,99,83174
1.8817,0.1906,37.8000,87,99,83177
1.8622,0.1857,37.8700,87,99,83181
1.8915,0.2004,37.5600,87,99,83184
1.8573,0.1808,37.9000,87,99,83187
1.8768,0.1808,37.8700,87,99,83190
1.8817,0.2102,37.7400,87,99,83194
1.8622,0.1808,37.8700,87,99,83197
1.9013,0.1857,37.6200,87,99,83201
1.8768,0.1760,37.8000,87,99,83204
1.8719,0.1808,37.8700,87,99,83208
1.8768,0.1808,37.7400,87,99,83211
1.8719,0.1906,37.8700,87,99,83214
1.9062,0.1808,37.6500,87,99,83217
1.8768,0.1857,37.1900,87,99,83221
1.8768,0.1760,38.1500,87,99,83225
1.8768,0.1808,37.9000,87,99,83228
1.8866,0.1906,37.8300,87,99,83232
1.8719,0.1808,38.0800,87,99,83235
1.9404,0.1808,37.5900,87,99,83238
1.8964,0.1857,37.8000,87,99,83241
1.9159,0.1808,37.8300,87,99,83246
1.9062,0.2004,37.7700,87,99,83249
1.8817,0.1808,37.8300,87,99,83252
1.9159,0.1808,37.5900,87,99,83255
1.8768,0.1808,37.8300,87,99,83259
1.8768,0.1808,37.8700,87,99,83262
1.8915,0.1955,37.7700,87,99,83265
1.8768,0.1808,38.0800,87,99,83268
1.9208,0.1906,37.6500,87,99,83272
1.8719,0.1760,37.8700,87,99,83275
1.8866,0.1760,37.9300,87,99,83278
1.9159,0.1857,37.7400,87,99,83281
1.9013,0.1808,37.8700,87,99,83286
1.9501,0.1955,37.6500,87,99,83289
1.9501,0.1808,37.7700,87,99,83292
1.9892,0.1760,37.8700,87,99,83295
2.0235,0.1955,37.7100,87,99,83299
2.0039,0.1808,37.9600,87,99,83302
2.0430,0.1857,37.6500,87,99,83305
2.0283,0.1808,37.9900,87,99,83308
2.0479,0.1808,37.8700,87,99,83311
2.0723,0.1857,37.8700,87,99,83315
2.0723,0.1808,37.8300,87,99,83318
2.1212,0.1955,37.6800,87,99,83321
2.1114,0.1906,37.8700,87,99,83324
2.1457,0.1808,37.8700,87,99,83329
2.1799,0.1857,37.7400,87,99,83332
2.1554,0.1857,37.9000,87,99,83335
2.1799,0.1808,37.7100,87,99,83338
2.1212,0.1857,37.8000,87,99,83342
2.0968,0.1808,37.8700,87,99,83345
2.0772,0.1857,37.7400,87,99,83348
2.0332,0.2346,37.8300,87,99,83351
2.0332,0.1857,37.7100,87,99,83355
1.9795,0.1808,37.8700,87,99,83358
1.9501,0.1857,37.8700,87,99,83361
1.9453,0.1808,37.7700,87,99,83364
1.9159,0.1808,37.8300,87,99,83368
1.9208,0.1906,37.7400,87,99,83372
1.8719,0.1808,37.7100,87,99,83375
1.8573,0.1808,37.8700,87,99,83378
1.8719,0.2004,37.7100,87,99,83382
1.8524,0.1808,37.9300,87,99,83385
1.8817,0.1906,37.7400,87,99,83388
1.8573,0.1808,37.8700,87,99,83391
1.8671,0.1808,37.9600,87,99,83394
1.8915,0.1906,37.8000,87,99,83398
1.8768,0.1906,37.8000,87,99,83401
1.8964,0.1857,37.7100,87,99,83404
1.8671,0.1906,37.8300,87,99,83407
1.8719,0.1808,37.7100,87,99,83411
1.8915,0.1857,37.8000,87,99,83415
1.8817,0.1857,37.8300,87,99,83418
1.9159,0.1857,37.8300,87,99,83421
1.8964,0.1808,37.9000,87,99,83425
1.8964,0.1760,37.8700,87,99,83428
1.9306,0.2151,37.6500,87,99,83431
1.8817,0.1808,37.8700,87,99,83434
1.8622,0.1808,37.7100,87,99,83438
1.7937,0.1857,37.8700,87,99,83441
1.7742,0.1808,37.9000,87,99,83444
1.8231,0.1906,37.7700,87,99,83447
1.9208,0.1857,37.8300,87,99,83451
2.1652,0.1808,37.7100,87,99,83454
2.4731,0.1808,37.8700,87,99,83458
2.9130,0.1808,37.8700,87,99,83461
3.4262,0.1906,37.9300,87,99,83465
3.7830,0.1711,37.8700,87,99,83468
3.9834,0.1808,37.7100,87,99,83471
3.8416,0.1808,37.7700,87,99,83474
3.5239,0.1808,37.9300,87,99,83478
3.1476,0.1906,37.3700,87,99,83481
2.6784,0.1857,37.9000,87,99,83484
2.3265,0.1808,37.7400,87,99,83487
2.0332,0.1857,37.8300,87,99,83491
1.8426,0.1808,37.9000,87,99,83494
1.7595,0.1906,37.7400,87,99,83497
1.6911,0.1808,37.8700,87,99,83501
1.6569,0.1808,37.7400,87,99,83504
1.6520,0.1711,37.8700,87,99,83508
1.6276,0.1857,37.8700,87,99,83511
1.6618,0.1906,37.7400,87,99,83514
1.6422,0.1808,37.8300,87,99,83517
1.6520,0.1808,37.7700,87,99,83521
1.6520,0.1808,37.9300,87,99,83524
1.6667,0.1711,37.8700,87,99,83527
1.7204,0.2004,37.6500,87,99,83530
1.7107,0.1857,37.8300,87,99,83534
1.7155,0.1760,37.7700,87,99,83537
1.7204,0.1857,37.8300,87,99,83540
1.7302,0.1808,37.8700,87,99,83544
1.7889,0.1906,37.6800,87,99,83548
1.7644,0.1906,37.8000,87,99,83551
1.7644,0.1760,37.8000,87,99,83554
1.7693,0.1906,37.8700,87,99,83557
1.7791,0.1808,37.9000,87,99,83561
1.8426,0.1955,37.6500,87,99,83564
1.8377,0.1857,37.8000,87,99,83567
1.8182,0.1760,37.8300,87,99,83570
1.8280,0.1808,37.8300,87,99,83574
1.8231,0.1808,37.8300,87,99,83577
1.8915,0.1906,37.6500,87,99,83580
1.8524,0.1857,37.7400,87,99,83584
1.8475,0.1760,37.8000,87,99,83588
1.8524,0.1808,37.8700,87,99,83591
1.8524,0.1515,37.8700,87,99,83594
1.9110,0.1906,37.6200,87,99,83597
1.8915,0.1711,37.7700,87,99,83601
1.8768,0.1711,37.8300,87,99,83604
1.8866,0.1808,37.9900,87,99,83607
1.8866,0.1760,37.8700,87,99,83610
