ecg,gsr,temp,hr,spo2,timest
1.7155,0.2835,39.2800,70,96,76336
1.5200,0.2835,39.2500,70,96,76339
1.4076,0.2786,39.2800,70,96,76342
1.3978,0.2884,39.1200,70,96,76345
1.3783,0.2835,39.2800,70,96,76349
1.4125,0.2737,39.3500,70,96,76352
1.4712,0.2884,39.1900,70,96,76355
1.4858,0.2786,39.2800,70,96,76358
1.5543,0.2786,39.0900,70,96,76362
1.5494,0.2737,39.1900,70,96,76365
1.5640,0.2737,38.9300,70,96,76368
1.6031,0.2835,39.2200,70,96,76371
1.6031,0.2688,39.2500,70,96,76376
1.6422,0.2835,39.0600,70,96,76379
1.6178,0.2884,39.1900,70,96,76382
1.6276,0.2737,39.4100,70,96,76385
1.6618,0.2835,39.1200,70,96,76389
1.6716,0.2786,39.2800,70,96,76392
1.7107,0.2786,39.0900,70,96,76395
1.6911,0.2786,39.2800,70,96,76398
1.7058,0.2786,39.3800,70,96,76402
1.7253,0.2835,39.1900,70,96,76405
1.7204,0.2786,39.2800,70,96,76408
1.7693,0.2835,39.0900,70,96,76411
1.7546,0.2786,39.1600,70,96,76416
1.7595,0.2786,39.2800,70,96,76419
1.7840,0.2835,39.1900,70,96,76422
1.7742,0.2737,39.2800,70,96,76425
1.8182,0.2786,39.0900,70,96,76429
1.7986,0.2786,39.2200,70,96,76432
1.8182,0.2786,39.2800,70,96,76435
1.8475,0.2835,39.1900,70,96,76438
1.8328,0.2786,39.3200,70,96,76442
1.8768,0.2786,39.0900,70,96,76445
1.8524,0.2786,39.2800,70,96,76448
1.8768,0.2737,39.2800,70,96,76451
1.9062,0.3079,39.1600,70,96,76455
1.8915,0.2786,39.2200,70,96,76459
1.9306,0.2786,39.1900,70,96,76462
1.9208,0.2786,39.1600,70,96,76465
1.9257,0.3079,39.3200,70,96,76469
1.9844,0.2835,39.1900,70,96,76472
1.9648,0.2786,39.2500,70,96,76475
2.0088,0.2835,39.0900,70,96,76478
1.9795,0.2835,39.0300,70,96,76482
2.0479,0.2737,39.1900,70,96,76486
2.0626,0.2737,39.2800,70,96,76490
2.0870,0.2786,39.2500,70,96,76493
2.0821,0.2737,39.2800,70,96,76496
2.1603,0.2884,39.1200,70,96,76499
2.1554,0.2835,39.1900,70,96,76504
2.1799,0.2737,39.2800,70,96,76507
2.2239,0.2786,39.2500,70,96,76510
2.2092,0.3177,39.2800,70,96,76513
2.3021,0.2835,39.0300,70,96,76517
2.2972,0.2835,39.1900,70,96,76520
2.3118,0.2786,39.2800,70,96,76523
2.3607,0.2884,39.2500,70,96,76526
2.3509,0.2786,39.3200,70,96,76530
2.4536,0.2884,39.0300,70,96,76533
2.3949,0.2737,39.2500,70,96,76536
2.4242,0.2737,39.2800,70,96,76539
2.4585,0.2835,39.2500,70,96,76544
2.4438,0.2786,39.2800,70,96,76547
2.4927,0.2688,39.0300,70,96,76550
2.4780,0.2835,39.1900,70,96,76553
2.4291,0.2737,39.5400,70,96,76557
2.4291,0.2835,39.3800,70,96,76560
2.3803,0.2786,39.2800,70,96,76563
2.3851,0.2835,39.0300,70,96,76566
2.2776,0.2786,39.2500,70,96,76570
2.1994,0.2737,39.4800,70,96,76573
2.1554,0.2884,39.2200,70,96,76576
2.0626,0.2786,39.2800,70,96,76579
2.0283,0.2933,39.0300,70,96,76583
1.9013,0.2786,39.2800,70,96,76587
1.8231,0.2737,39.3500,70,96,76590
1.7644,0.2835,39.2200,70,96,76593
1.6716,0.2688,39.2800,70,96,76597
1.6618,0.2884,39.0600,70,96,76600
1.5836,0.2835,39.0900,70,96,76603
1.5200,0.2786,39.2800,70,96,76606
1.4858,0.2835,39.2200,70,96,76610
1.4418,0.2835,39.2800,70,96,76613
1.4516,0.2835,39.0600,70,96,76616
1.4027,0.2786,39.2500,70,96,76619
1.3978,0.2737,39.3200,70,96,76623
1.3978,0.2884,39.1900,70,96,76626
1.3734,0.2737,39.2800,70,96,76630
1.4076,0.2835,39.0300,70,96,76633
1.3832,0.2786,39.2800,70,96,76637
1.4076,0.2737,39.2800,70,96,76640
1.4321,0.2835,39.2500,70,96,76643
1.4516,0.2737,39.2800,70,96,76646
1.4614,0.2884,39.0300,70,96,76650
1.4467,0.2835,39.1900,70,96,76653
1.4614,0.2737,39.3200,70,96,76656
1.4907,0.2835,38.9300,70,96,76659
1.4907,0.2688,39.2800,70,96,76663
1.5445,0.2981,39.0600,70,96,76666
1.5200,0.2835,39.1900,70,96,76669
1.5249,0.2737,39.2800,70,96,76673
1.5543,0.2786,39.1900,70,96,76677
1.5591,0.2786,39.2800,70,96,76680
1.5982,0.2835,39.0300,70,96,76683
1.5738,0.2786,39.6000,70,96,76686
1.5885,0.2737,39.2800,70,96,76690
1.6080,0.2884,39.1900,70,96,76693
1.6031,0.2737,39.2500,70,96,76696
1.6520,0.2835,39.0600,70,96,76699
1.6373,0.2786,39.1600,70,96,76703
1.6373,0.2786,39.2800,70,96,76706
1.6520,0.2835,39.2500,70,96,76709
1.6422,0.2737,39.2800,70,96,76712
1.6911,0.2933,39.0900,70,96,76717
1.6667,0.2884,39.2500,70,96,76720
1.6813,0.2737,39.4100,70,96,76723
1.7009,0.2835,39.1600,70,96,76726
1.6862,0.2786,39.3200,70,96,76730
1.7253,0.2835,39.0300,70,96,76733
1.7009,0.2786,39.0900,70,96,76736
1.7204,0.2737,39.2800,70,96,76739
1.7449,0.2933,39.1900,70,96,76743
1.7204,0.2835,39.2800,70,96,76746
1.7595,0.2835,39.1600,70,96,76749
1.7351,0.2786,39.2500,70,96,76752
1.7400,0.2688,39.2500,70,96,76756
1.7595,0.2933,39.1900,70,96,76760
1.7449,0.2737,39.2800,70,96,76763
1.7840,0.2835,39.0600,70,96,76766
1.7498,0.2786,39.1900,70,96,76770
1.7644,0.2737,39.2800,70,96,76773
1.7644,0.2933,39.1900,70,96,76776
1.7498,0.2737,39.2500,70,96,76779
1.7889,0.2835,39.0600,70,96,76783
1.7449,0.2786,39.4100,70,96,76786
1.7498,0.2688,39.2800,70,96,76789
1.7937,0.2786,39.1900,70,96,76792
1.7595,0.2737,39.2800,70,96,76796
1.7889,0.2835,39.0300,70,96,76800
1.7644,0.2786,39.2500,70,96,76803
1.7498,0.2737,39.2800,70,96,76806
1.7693,0.2933,39.2200,70,96,76810
1.7498,0.2688,39.2500,70,96,76813
1.7937,0.2835,38.8700,70,96,76816
1.7644,0.2786,39.3200,70,96,76819
1.7693,0.2737,39.2800,70,96,76823
1.7840,0.2835,39.1900,70,96,76826
1.7595,0.2786,39.2800,70,96,76829
1.7986,0.2688,39.0900,70,96,76832
1.7693,0.2737,39.2800,70,96,76836
1.7742,0.2688,39.2500,70,96,76839
1.7937,0.2884,38.5500,70,96,76843
1.7644,0.2786,39.2800,70,96,76846
1.8084,0.2835,39.0300,70,96,76850
1.7693,0.2786,39.1600,70,96,76853
1.7693,0.2737,39.2800,70,96,76856
1.7986,0.2835,39.1900,70,96,76859
1.7986,0.2737,39.3200,70,96,76863
1.8475,0.2835,39.1200,70,96,76866
1.8231,0.2786,39.1900,70,96,76869
1.8231,0.2737,39.2800,70,96,76872
1.8671,0.2688,39.1600,70,96,76876
1.8475,0.2737,39.4100,70,96,76879
1.9013,0.2835,39.1200,70,96,76882
1.8768,0.2786,39.3800,70,96,76886
1.8915,0.2737,39.2800,70,96,76890
1.9208,0.2835,39.1900,70,96,76893
1.9306,0.2737,39.2800,70,96,76896
1.9599,0.2786,39.0600,70,96,76899
1.9404,0.2786,39.2200,70,96,76903
1.9501,0.2737,39.2800,70,96,76906
1.9453,0.2786,39.2200,70,96,76909
1.9208,0.2786,39.2800,70,96,76912
1.9599,0.2786,39.1200,70,96,76916
1.9208,0.2786,39.2500,70,96,76919
1.9208,0.2737,39.3200,70,96,76922
1.9110,0.3128,39.1200,70,96,76925
1.8671,0.2737,39.2500,70,96,76930
1.8719,0.2786,39.0600,70,96,76933
1.8182,0.2737,39.2800,70,96,76936
1.8133,0.2737,39.2500,70,96,76939
1.8182,0.3030,39.1200,70,96,76943
1.7742,0.2786,39.2800,70,96,76946
1.7937,0.2786,39.0900,70,96,76949
1.7693,0.2737,39.1900,70,96,76952
1.7498,0.2786,39.2800,70,96,76956
1.7644,0.3324,39.1900,70,96,76959
1.7498,0.2786,39.2800,70,96,76962
1.7791,0.2786,39.0900,70,96,76965
1.7253,0.2737,39.2200,70,96,76969
1.7204,0.2737,39.2800,70,96,76973
1.7204,0.2884,39.1600,70,96,76976
1.6716,0.2737,39.3500,70,96,76979
1.6618,0.2688,39.0900,70,96,76983
1.6227,0.2737,39.3200,70,96,76986
1.6764,0.2835,39.3200,70,96,76989
1.8426,0.2835,39.1600,70,96,76993
2.0821,0.2737,39.2200,70,96,76996
2.4927,0.2786,39.0900,70,96,76999
2.8935,0.2786,39.1900,70,96,77002
3.2551,0.2737,39.2800,70,96,77006
3.5973,0.2835,39.1900,70,96,77009
3.7390,0.2737,39.2800,70,96,77012
3.7732,0.2688,39.1200,70,96,77016
3.4555,0.2786,39.2200,70,96,77020
3.0450,0.2981,39.2800,70,96,77023
2.5904,0.2786,39.1900,70,96,77026
2.1114,0.2737,39.2800,70,96,77029
1.7693,0.2933,39.0600,70,96,77032
1.5103,0.2786,39.2800,70,96,77036
1.4076,0.2737,39.3200,70,96,77039
1.3930,0.2835,39.1900,70,96,77042
1.3783,0.2835,39.2500,70,96,77046
1.4223,0.2786,39.0900,70,96,77049
1.4321,0.2737,39.3500,70,96,77052
1.4761,0.2688,39.1900,70,96,77056
1.5396,0.2786,39.1600,70,96,77060
1.5689,0.2737,39.3500,70,96,77063
1.6276,0.2688,39.0900,70,96,77066
1.6031,0.2737,39.2200,70,96,77069
1.6276,0.2884,39.3200,70,96,77073
1.6569,0.2786,39.1200,70,96,77076
1.6618,0.2737,39.2800,70,96,77079
1.7009,0.2786,39.0900,70,96,77082
1.6862,0.2786,39.3200,70,96,77086
1.7009,0.2737,39.2200,70,96,77089
1.7253,0.2835,39.2200,70,96,77092
1.7595,0.2786,39.2500,70,96,77097
1.7546,0.2786,39.2500,70,96,77101
1.8035,0.2835,38.9600,70,96,77104
1.7644,0.2786,39.1600,70,96,77108
1.7693,0.2688,39.2800,70,96,77111
1.7889,0.2688,39.2200,70,96,77114
1.7791,0.2737,39.2800,70,96,77117
1.8377,0.2835,39.0000,70,96,77121
1.7937,0.2737,39.2500,70,96,77124
1.8231,0.2688,39.2800,70,96,77127
1.8377,0.2786,39.2500,70,96,77130
1.8475,0.2737,39.2800,70,96,77134
1.9110,0.2933,39.0000,70,96,77137
1.8817,0.2786,39.1200,70,96,77140
1.8817,0.2688,39.2800,70,96,77144
1.9062,0.2786,39.2500,70,96,77148
1.9062,0.2737,39.3200,70,96,77151
1.9599,0.2884,39.0000,70,96,77154
1.9208,0.2786,39.5700,70,96,77157
1.9257,0.2737,39.2800,70,96,77161
1.9453,0.2688,39.2500,70,96,77164
1.9501,0.3079,39.2800,70,96,77167
2.0186,0.2835,39.0000,70,96,77170
1.9697,0.2737,39.2200,70,96,77174
1.9892,0.2737,39.3200,70,96,77177
2.0039,0.2835,39.2500,70,96,77180
2.0039,0.2688,39.3200,70,96,77184
2.0870,0.2688,39.0300,70,96,77188
2.0674,0.2786,39.2200,70,96,77191
2.0723,0.2688,39.2500,70,96,77194
2.0968,0.2786,39.2200,70,96,77197
2.0968,0.2639,39.2800,70,96,77200
2.1750,0.2835,39.0900,70,96,77204
2.1652,0.2786,39.2200,70,96,77207
2.1896,0.2737,39.2800,70,96,77210
2.2190,0.2835,39.1600,70,96,77213
2.2092,0.2737,39.2800,70,96,77217
2.2776,0.2688,39.0600,70,96,77220
2.2434,0.2688,39.2200,70,96,77223
2.2727,0.2688,39.2200,70,96,77227
2.3069,0.2786,39.2200,70,96,77231
2.3021,0.2737,39.2800,70,96,77234
2.3949,0.2688,39.0300,70,96,77237
2.3314,0.2835,39.1600,70,96,77240
2.3216,0.2688,38.7700,70,96,77244
2.3460,0.2786,39.2200,70,96,77247
2.3412,0.2737,39.2800,70,96,77250
2.3509,0.2884,39.0300,70,96,77253
2.2727,0.2786,39.1600,70,96,77257
2.2287,0.2688,39.2800,70,96,77260
2.2092,0.2786,39.2200,70,96,77263
2.1310,0.2737,39.4800,70,96,77266
2.1114,0.2786,39.0300,70,96,77271
1.9941,0.2688,39.2800,70,96,77274
1.9159,0.2786,39.2800,70,96,77277
1.8475,0.2884,39.2500,70,96,77280
1.7498,0.2737,39.2200,70,96,77284
1.7253,0.2786,39.0600,70,96,77287
1.6373,0.2786,39.1900,70,96,77290
1.5640,0.2688,39.2800,70,96,77293
1.5200,0.2835,39.2200,70,96,77297
1.4516,0.2737,39.2800,70,96,77300
1.4467,0.2737,39.0600,70,96,77303
1.3783,0.2835,39.1600,70,96,77306
1.3490,0.2737,39.3800,70,96,77310
1.3392,0.2835,39.1900,70,96,77314
1.3050,0.2737,39.2800,70,96,77317
1.3148,0.2786,39.0000,70,96,77320
1.2805,0.2737,39.2200,70,96,77324
1.2903,0.2688,39.2800,70,96,77327
1.3001,0.2835,39.1900,70,96,77330
1.3148,0.2737,39.2800,70,96,77333
1.3148,0.2835,39.0600,70,96,77337
1.2952,0.2786,39.1600,70,96,77340
1.3050,0.2688,39.2800,70,96,77343
1.3343,0.2786,39.1900,70,96,77346
1.3294,0.2835,39.2800,70,96,77350
1.3685,0.2786,39.0300,70,96,77353
1.3441,0.2737,39.2500,70,96,77357
1.3587,0.2688,39.2800,70,96,77360
1.3832,0.2737,39.1900,70,96,77364
1.3832,0.2737,39.4100,70,96,77367
1.4321,0.2786,39.0900,70,96,77370
1.4174,0.2737,39.2800,70,96,77373
1.4418,0.2737,39.3200,70,96,77377
1.4467,0.2835,39.1600,70,96,77380
1.4321,0.2835,39.2800,70,96,77383
1.4761,0.2786,39.0900,70,96,77386
1.4663,0.2688,39.1900,70,96,77390
1.4712,0.2786,39.2800,70,96,77393
1.5103,0.2835,39.2500,70,96,77396
1.4809,0.2737,39.3800,70,96,77400
1.5200,0.2786,39.0900,70,96,77404
1.5005,0.2737,39.1900,70,96,77407
1.5152,0.2688,39.3800,70,96,77410
1.5249,0.2786,39.2200,70,96,77413
1.5152,0.2737,39.2800,70,96,77417
1.5396,0.2835,39.1200,70,96,77420
1.5249,0.2737,39.2800,70,96,77423
1.5396,0.2688,39.2500,70,96,77426
1.5591,0.2835,39.2500,70,96,77430
1.5298,0.2737,39.1200,70,96,77433
1.5543,0.2786,39.0900,70,96,77436
1.5249,0.2737,39.1900,70,96,77440
1.5249,0.2688,39.2800,70,96,77444
1.5445,0.3128,39.1900,70,96,77447
1.5396,0.2737,38.8400,70,96,77450
1.5640,0.2786,39.0900,70,96,77453
1.5249,0.2688,39.2200,70,96,77457
1.5249,0.2688,39.2800,70,96,77460
1.5445,0.2786,39.0900,70,96,77463
1.5494,0.2737,39.2500,70,96,77466
1.5640,0.2737,39.0900,70,96,77470
1.5347,0.2933,39.2500,70,96,77473
1.5396,0.2737,39.4800,70,96,77476
1.5396,0.2835,39.1600,70,96,77479
1.5200,0.2737,39.3500,70,96,77484
1.5591,0.2835,39.0900,70,96,77487
1.5396,0.2737,39.1600,70,96,77490
1.5347,0.2737,39.2800,70,96,77493
1.5494,0.2786,39.2800,70,96,77497
1.5249,0.2737,39.2800,70,96,77500
1.5543,0.2737,39.0900,70,96,77503
1.5249,0.2737,39.3500,70,96,77506
1.5347,0.2688,39.2800,70,96,77510
1.5543,0.2688,39.2200,70,96,77513
1.5298,0.2835,39.2800,70,96,77516
1.5494,0.2737,39.0900,70,96,77519
1.5249,0.2737,39.4400,70,96,77523
1.5396,0.2737,39.2800,70,96,77527
1.5591,0.2786,39.1600,70,96,77530
1.5249,0.2737,39.2800,70,96,77534
1.5543,0.2835,39.0600,70,96,77537
1.5298,0.2737,39.1900,70,96,77540
1.5298,0.2737,39.2500,70,96,77543
1.5494,0.2786,39.2200,70,96,77547
1.5445,0.2737,39.2800,70,96,77550
1.5689,0.2786,39.0600,70,96,77553
1.5200,0.2737,39.1900,70,96,77556
1.5298,0.2688,39.2800,70,96,77560
1.5494,0.2786,39.1900,70,96,77563
1.5494,0.2737,39.2800,70,96,77566
1.5885,0.2786,39.1600,70,96,77570
1.5787,0.2737,39.3800,70,96,77574
1.5982,0.2688,39.2800,70,96,77577
1.6227,0.2835,39.1600,70,96,77580
1.6080,0.2688,39.3200,70,96,77583
1.6422,0.2835,39.0900,70,96,77587
1.6325,0.2737,38.9000,70,96,77590
1.6422,0.2737,39.3200,70,96,77593
1.6569,0.2835,39.1900,70,96,77596
1.6716,0.2688,39.2500,70,96,77600
1.6862,0.2786,39.0900,70,96,77603
1.6618,0.2737,39.1900,70,96,77606
1.6667,0.2737,39.2800,70,96,77609
1.6764,0.2786,39.1200,70,96,77614
1.6520,0.2737,39.2800,70,96,77617
1.6813,0.2835,39.0900,70,96,77620
1.6569,0.2737,39.3200,70,96,77623
1.6618,0.2737,39.3500,70,96,77627
1.6716,0.2835,39.1600,70,96,77630
1.6227,0.2737,39.2800,70,96,77633
1.6276,0.2688,39.1200,70,96,77636
1.5787,0.2737,39.1900,70,96,77640
1.5543,0.2737,39.2500,70,96,77643
1.5591,0.2786,39.1900,70,96,77646
1.5298,0.2737,39.2800,70,96,77649
1.5445,0.2786,39.1200,70,96,77654
1.4956,0.2737,39.2200,70,96,77657
1.4858,0.2737,39.3200,70,96,77660
1.4956,0.2835,39.1600,70,96,77663
1.4858,0.2737,39.2800,70,96,77667
1.5054,0.2688,39.0600,70,96,77670
1.5054,0.2786,39.2200,70,96,77673
1.4761,0.2786,39.3200,70,96,77676
1.4663,0.2835,39.0900,70,96,77680
1.4027,0.2737,39.1200,70,96,77683
1.3783,0.2786,39.0900,70,96,77686
1.3148,0.2737,39.2200,70,96,77689
1.3196,0.2737,39.2200,70,96,77693
1.4272,0.3079,39.1600,70,96,77697
1.6227,0.2786,39.3200,70,96,77700
1.9892,0.2786,39.0900,70,96,77703
3.6022,0.2933,39.0300,70,96,77708
3.3480,0.2737,39.2800,70,96,77711
2.9961,0.2737,39.2800,70,96,77715
2.5415,0.2835,39.2500,70,96,77718
1.9990,0.2737,39.2800,70,96,77721
1.6178,0.2884,39.0000,70,96,77724
1.2854,0.2835,39.2200,70,96,77728
1.1437,0.2737,39.2800,70,96,77731
1.0899,0.2786,39.3200,70,96,77734
1.0802,0.2688,39.2800,70,96,77737
1.1339,0.2884,39.0300,70,96,77742
1.1290,0.2786,39.2200,70,96,77745
1.1779,0.2737,39.2800,70,96,77748
1.2366,0.2933,39.2200,70,96,77751
1.2708,0.2737,39.3500,70,96,77755
1.3343,0.2884,39.0300,70,96,77758
1.3148,0.2737,39.2200,70,96,77761
1.3490,0.2737,39.2800,70,96,77764
1.3636,0.3177,39.2500,70,96,77768
1.3685,0.2933,39.2800,70,96,77771
1.4272,0.2884,39.0600,70,96,77774
1.4125,0.2835,39.1900,70,96,77777
1.4370,0.2786,39.2800,70,96,77782
1.4565,0.2835,39.2200,70,96,77785
1.4467,0.2884,39.3200,70,96,77788
1.5005,0.2884,39.1200,70,96,77791
1.4809,0.2786,38.5500,70,96,77795
1.4956,0.2688,39.3500,70,96,77798
1.5200,0.2786,39.2200,70,96,77801
1.5103,0.2786,39.2800,70,96,77804
1.5640,0.2884,39.0000,70,96,77808
1.5249,0.2737,39.2200,70,96,77811
1.5591,0.2835,39.3200,70,96,77814
1.5738,0.2933,39.2800,70,96,77817
1.5689,0.2786,39.2800,70,96,77821
1.6227,0.2884,39.0900,70,96,77825
1.5934,0.2688,39.1900,70,96,77828
1.6031,0.2737,39.3200,70,96,77831
1.6276,0.2786,39.2200,70,96,77835
1.6373,0.3128,39.2200,70,96,77838
1.6862,0.2884,39.0600,70,96,77841
1.6618,0.2786,39.2200,70,96,77844
1.6862,0.2737,39.2800,70,96,77848
1.6862,0.2835,39.1900,70,96,77851
1.6911,0.2786,39.3800,70,96,77854
1.7546,0.2933,39.0300,70,96,77857
1.7204,0.2737,39.2200,70,96,77861
1.7351,0.2737,39.2500,70,96,77864
1.7498,0.2835,39.3200,70,96,77868
1.7546,0.2933,39.2800,70,96,77871
1.8231,0.2884,39.1200,70,96,77875
1.8133,0.2835,39.1900,70,96,77878
1.8182,0.2688,39.2800,70,96,77881
1.8377,0.2688,39.2500,70,96,77884
1.8377,0.2786,39.2500,70,96,77888
1.9062,0.2884,38.9600,70,96,77891
1.8915,0.2835,39.1600,70,96,77894
1.9110,0.2786,39.2800,70,96,77898
1.9355,0.2884,39.2200,70,96,77901
1.9355,0.2835,39.3200,70,96,77904
2.0088,0.2884,38.9600,70,96,77907
1.9795,0.2737,39.2800,70,96,77912
2.0186,0.2737,39.2800,70,96,77915
2.0430,0.2786,39.2500,70,96,77918
2.0528,0.2786,39.2800,70,96,77921
2.1261,0.2884,39.0000,70,96,77924
2.1114,0.2786,39.2200,70,96,77928
2.1212,0.2737,39.2800,70,96,77931
2.1603,0.2884,39.2200,70,96,77934
2.1701,0.2786,39.2800,70,96,77937
2.2385,0.2981,39.0000,70,96,77941
2.2092,0.2835,39.1200,70,96,77944
2.2043,0.2786,39.2800,70,96,77947
2.2630,0.2786,39.2200,70,96,77950
2.2092,0.2786,39.2800,70,96,77955
2.2630,0.2884,39.0300,70,96,77958
2.1848,0.2688,39.2500,70,96,77961
2.1505,0.2786,39.3200,70,96,77964
2.1212,0.2884,39.2200,70,96,77968
2.0479,0.2786,39.2200,70,96,77971
2.0430,0.2884,39.0300,70,96,77974
1.9404,0.3177,39.1600,70,96,77977
1.8524,0.2786,39.2800,70,96,77981
1.7840,0.2884,39.3200,70,96,77984
1.6862,0.2786,39.2800,70,96,77987
1.6471,0.2786,39.0300,70,96,77990
1.5494,0.2884,39.2200,70,96,77995
1.4858,0.2786,39.4800,70,96,77998
1.4370,0.2884,39.2200,70,96,78001
1.3587,0.2786,39.3200,70,96,78004
1.3294,0.2884,39.0600,70,96,78008
1.2610,0.2737,39.2200,70,96,78011
1.2463,0.2786,39.2500,70,96,78014
1.2366,0.2884,39.2200,70,96,78017
1.1975,0.2688,39.2800,70,96,78021
1.2072,0.2933,39.0300,70,96,78024
1.1779,0.2884,39.1600,70,96,78027
1.1779,0.2786,39.2800,70,96,78030
1.1975,0.2884,39.0600,70,96,78034
1.1975,0.2786,39.2800,70,96,78038
1.2610,0.2786,39.0300,70,96,78041
1.2023,0.3177,39.2500,70,96,78044
1.2072,0.2786,39.1900,70,96,78048
1.2463,0.2884,39.2500,70,96,78051
1.2610,0.2737,39.2800,70,96,78054
1.2903,0.2884,38.9600,70,96,78057
1.2757,0.2786,39.3200,70,96,78061
1.2952,0.2688,39.2800,70,96,78064
1.3099,0.2933,39.1900,70,96,78067
1.3001,0.2835,39.2800,70,96,78070
1.3490,0.2884,39.0000,70,96,78074
1.3441,0.2835,39.1900,70,96,78077
1.3490,0.2786,39.2800,70,96,78081
1.3636,0.2933,39.2500,70,96,78084
1.3587,0.2786,39.2800,70,96,78088
1.4076,0.2884,39.1600,70,96,78091
1.3832,0.2835,39.2200,70,96,78094
1.4027,0.2786,39.2800,70,96,78097
1.4272,0.2981,39.1600,70,96,78101
1.4174,0.2835,39.3500,70,96,78104
1.4565,0.2884,39.0600,70,96,78107
1.4223,0.2786,39.2500,70,96,78110
1.4614,0.2786,39.2500,70,96,78114
1.4761,0.2884,39.1600,70,96,78117
1.4565,0.2786,39.2800,70,96,78120
1.4956,0.2884,39.4800,70,96,78124
1.4761,0.2835,39.1900,70,96,78128
1.4761,0.2786,39.2800,70,96,78131
1.5054,0.2884,39.2200,70,96,78134
1.5005,0.2884,39.2500,70,96,78138
1.5347,0.2884,39.1200,70,96,78141
1.5005,0.2835,39.2200,70,96,78144
1.5152,0.2786,39.2500,70,96,78147
1.5249,0.2933,39.1900,70,96,78151
1.5200,0.2835,39.2800,70,96,78154
1.5640,0.2884,39.0600,70,96,78157
1.5347,0.2835,39.2800,70,96,78160
1.5445,0.2737,39.2800,70,96,78163
1.5591,0.2884,39.2200,70,96,78168
1.5396,0.2835,39.2500,70,96,78171
1.5787,0.2884,38.8700,70,96,78174
1.5640,0.2835,39.1900,70,96,78178
1.5689,0.2786,39.2500,70,96,78181
1.5738,0.2884,39.2800,70,96,78184
1.5591,0.2786,39.3200,70,96,78187
1.5982,0.2884,39.2800,70,96,78191
1.5689,0.2835,39.3200,70,96,78194
1.5689,0.2786,39.2800,70,96,78197
1.5885,0.2884,39.1900,70,96,78200
1.5640,0.2835,39.2800,70,96,78204
1.5934,0.2884,39.0600,70,96,78208
1.5640,0.2786,39.3200,70,96,78211
1.5885,0.2786,39.2500,70,96,78214
1.6080,0.2933,39.1900,70,96,78218
1.5836,0.2933,39.3200,70,96,78221
1.6227,0.2884,39.0300,70,96,78224
1.5934,0.2835,39.1600,70,96,78227
1.5934,0.2786,39.3200,70,96,78231
1.6178,0.2884,39.2500,70,96,78234
1.6080,0.2688,39.3500,70,96,78237
1.6422,0.2933,39.0300,70,96,78240
1.5982,0.2835,38.5500,70,96,78244
1.5934,0.2786,39.2800,70,96,78247
1.6031,0.2933,39.1900,70,96,78251
1.6031,0.2786,39.3200,70,96,78254
1.6471,0.2884,39.0900,70,96,78258
1.6129,0.2835,39.2800,70,96,78261
1.6178,0.2786,39.2800,70,96,78264
1.6325,0.2933,39.2200,70,96,78267
1.6129,0.2786,39.2500,70,96,78271
1.6618,0.2933,39.0300,70,96,78274
1.6422,0.2933,39.1900,70,96,78277
1.6373,0.2835,38.4300,70,96,78280
1.6471,0.2884,39.1900,70,96,78284
1.6373,0.2835,39.2500,70,96,78287
1.6813,0.2884,39.0600,70,96,78290
1.6422,0.2786,39.2200,70,96,78294
1.6520,0.2786,39.3800,70,96,78298
1.6716,0.2933,39.1900,70,96,78301
1.6569,0.2835,39.2800,70,96,78304
1.7009,0.2835,39.0300,70,96,78307
1.6862,0.2835,39.2800,70,96,78311
1.7155,0.2786,39.4100,70,96,78314
1.7400,0.2884,39.2200,70,96,78317
1.7644,0.3030,39.2500,70,96,78322
1.7693,0.2786,39.2800,70,96,78325
1.8182,0.3030,39.0300,70,96,78328
1.7595,0.2884,39.1900,70,96,78332
1.7449,0.2786,39.2500,70,96,78336
1.7595,0.3079,39.2800,70,96,78339
1.7546,0.2835,39.2500,70,96,78342
1.8182,0.2981,38.9600,70,96,78346
1.7791,0.2835,39.1600,70,96,78349
1.7889,0.2835,39.2500,70,96,78352
1.7498,0.2884,39.2200,70,96,78355
1.7253,0.2786,39.2800,70,96,78359
1.7742,0.3030,39.0000,70,96,78362
1.7204,0.2884,39.2200,70,96,78365
1.6911,0.2933,39.3200,70,96,78368
1.6716,0.2835,39.2500,70,96,78372
1.6520,0.2786,39.2800,70,96,78375
1.6862,0.3030,39.0600,70,96,78379
1.6325,0.2884,39.1900,70,96,78382
1.6276,0.2835,39.2500,70,96,78386
1.6276,0.2835,39.2500,70,96,78389
1.6178,0.2835,39.3800,70,96,78392
1.6667,0.3030,39.0000,70,96,78395
1.6325,0.2835,39.1900,70,96,78399
1.6276,0.2835,39.2500,70,96,78402
1.6080,0.2884,39.2800,70,96,78405
1.5543,0.2835,39.3800,70,96,78408
1.5347,0.3030,39.0000,70,96,78412
1.4467,0.2835,39.1900,70,96,78415
1.4467,0.2786,39.2800,70,96,78418
1.5494,0.2835,39.3500,70,96,78422
1.7546,0.2835,39.2800,70,96,78426
2.1554,0.3030,39.0000,70,96,78429
2.5024,0.2884,39.1900,70,96,78432
2.9130,0.2786,39.2800,70,96,78435
3.3236,0.2884,39.2500,70,96,78439
3.6217,0.2835,39.2800,70,96,78442
3.8807,0.2981,38.9600,70,96,78445
3.6852,0.2835,39.2800,70,96,78448
3.3578,0.2835,39.2800,70,96,78452
2.8739,0.2786,39.2500,70,96,78455
2.3412,0.2835,39.3200,70,96,78458
1.9599,0.2981,39.0000,70,96,78461
1.6031,0.2884,39.2200,70,96,78466
1.4076,0.2737,39.2800,70,96,78469
1.3245,0.2835,39.2500,70,96,78472
1.3001,0.2933,39.2800,70,96,78475
1.3441,0.2933,39.0000,70,96,78479
1.3441,0.2884,39.1900,70,96,78482
1.3978,0.2786,39.2800,70,96,78485
1.4370,0.2981,39.2500,70,96,78488
1.4516,0.2835,39.4800,70,96,78492
1.5152,0.2933,39.0000,70,96,78495
1.4858,0.2835,39.2200,70,96,78498
1.5054,0.2737,39.3200,70,96,78501
1.5200,0.3128,39.2500,70,96,78505
1.5249,0.2835,39.2800,70,96,78509
1.5787,0.2981,38.9600,70,96,78512
1.5543,0.2933,39.2500,70,96,78515
1.5591,0.2786,39.2500,70,96,78519
1.5787,0.2884,39.2200,70,96,78522
1.5934,0.2835,39.4100,70,96,78525
1.6471,0.2933,39.0000,70,96,78528
1.6080,0.2884,39.1900,70,96,78532
1.6178,0.2786,39.3200,70,96,78535
1.6373,0.2884,39.3200,70,96,78538
1.6422,0.2835,39.2800,70,96,78541
1.7107,0.2981,38.9600,70,96,78545
1.6716,0.2835,39.1900,70,96,78548
1.6862,0.2786,39.2800,70,96,78552
1.6862,0.2884,39.2200,70,96,78555
1.6911,0.2884,39.2500,70,96,78559
1.7595,0.2981,38.9600,70,96,78562
1.7498,0.2933,39.1900,70,96,78565
1.7449,0.2884,39.2800,70,96,78568
1.7546,0.2981,39.3800,70,96,78572
1.7595,0.2835,39.2500,70,96,78575
1.8133,0.2933,39.0000,70,96,78578
1.7937,0.2884,39.1900,70,96,78582
1.8182,0.2835,39.3200,70,96,78585
1.8280,0.2933,39.3200,70,96,78588
1.8231,0.2835,39.2800,70,96,78592
1.8866,0.2981,38.9600,70,96,78596
1.8524,0.2835,39.1900,70,96,78599
1.8768,0.2835,39.2800,70,96,78602
1.8866,0.2933,39.3200,70,96,78605
1.8866,0.2835,39.3200,70,96,78609
1.9501,0.2981,39.0000,70,96,78612
1.9159,0.2884,39.1900,70,96,78615
1.9355,0.2786,39.2800,70,96,78618
1.9501,0.2688,39.2500,70,96,78622
1.9599,0.3128,39.2500,70,96,78625
2.0332,0.2981,38.9600,70,96,78628
1.9990,0.2884,39.1900,70,96,78631
2.0088,0.2835,39.2800,70,96,78636
2.0430,0.2933,39.2500,70,96,78639
2.0577,0.2835,39.0300,70,96,78642
2.1457,0.2884,39.0000,70,96,78645
2.1065,0.2835,39.1900,70,96,78649
2.1261,0.2835,39.3200,70,96,78652
2.1505,0.2884,39.2500,70,96,78655
2.1701,0.2835,39.2800,70,96,78658
2.2776,0.2981,39.0000,70,96,78662
2.2532,0.2884,39.0900,70,96,78665
2.2678,0.2835,39.2800,70,96,78668
2.2972,0.2933,39.2500,70,96,78671
2.2923,0.2933,39.2500,70,96,78675
2.3754,0.2981,39.0000,70,96,78679
2.3412,0.2884,39.0900,70,96,78682
2.3509,0.2688,39.2800,70,96,78685
2.3705,0.3177,39.2200,70,96,78688
2.3460,0.2835,39.1900,70,96,78692
2.4096,0.2933,39.0000,70,96,78695
2.3314,0.2688,39.2200,70,96,78698
2.3314,0.2835,39.2800,70,96,78701
2.3118,0.2884,38.6500,70,96,78705
2.2532,0.2835,39.1600,70,96,78708
2.2581,0.2981,39.0300,70,96,78711
2.1505,0.2933,39.1900,70,96,78714
2.0674,0.2835,39.4100,70,96,78718
2.0039,0.2884,39.2500,70,96,78722
1.9257,0.2835,39.2500,70,96,78725
1.8817,0.2981,39.0000,70,96,78728
1.7644,0.2884,39.1600,70,96,78732
1.6813,0.2835,39.2800,70,96,78735
1.6325,0.2884,39.2200,70,96,78738
1.5494,0.2835,39.2800,70,96,78741
1.5396,0.2933,39.0300,70,96,78745
1.4467,0.2786,39.2200,70,96,78748
1.4125,0.2688,39.2500,70,96,78751
1.4174,0.2933,39.2200,70,96,78754
1.3490,0.2786,39.2500,70,96,78758
1.3734,0.2933,39.0600,70,96,78761
1.3490,0.2884,39.2500,70,96,78765
1.3441,0.2786,39.2800,70,96,78768
1.3392,0.2933,39.2200,70,96,78772
1.3245,0.2786,39.2800,70,96,78775
1.3685,0.2933,39.0300,70,96,78778
1.3441,0.2884,39.1600,70,96,78782
1.3539,0.2835,39.2800,70,96,78785
1.3832,0.2981,39.2200,70,96,78788
1.3587,0.2786,39.2500,70,96,78791
1.4174,0.2933,39.0600,70,96,78795
1.3978,0.2835,39.2200,70,96,78798
1.4321,0.2835,38.6800,70,96,78801
1.4565,0.2933,39.2200,70,96,78804
1.4516,0.2835,39.2800,70,96,78809
1.5103,0.2981,39.0300,70,96,78812
1.4809,0.2884,39.1900,70,96,78815
1.4858,0.2835,39.3500,70,96,78818
1.5054,0.2884,39.3500,70,96,78822
1.5152,0.2835,39.2800,70,96,78825
1.5640,0.2884,39.0000,70,96,78828
1.5298,0.2835,39.2200,70,96,78831
1.5298,0.2835,39.3500,70,96,78835
1.5543,0.2884,39.2200,70,96,78838
1.5445,0.2835,39.2800,70,96,78841
1.6031,0.2933,39.0000,70,96,78844
1.5591,0.2835,39.2500,70,96,78849
1.5836,0.2835,39.3500,70,96,78852
1.5934,0.2933,39.2200,70,96,78855
1.5689,0.2835,39.2500,70,96,78858
1.6471,0.2933,39.0000,70,96,78862
1.6080,0.2933,39.1600,70,96,78865
1.5982,0.2835,39.2800,70,96,78868
1.6178,0.2933,39.2200,70,96,78871
1.6129,0.2835,39.2800,70,96,78875
1.6520,0.2933,39.0000,70,96,78878
1.6276,0.2884,39.1900,70,96,78881
1.6276,0.2835,39.2800,70,96,78884
1.6471,0.2688,39.1900,70,96,78888
1.6325,0.2786,39.3200,70,96,78892
1.6667,0.2835,39.0000,70,96,78895
1.6276,0.2786,39.2200,70,96,78898
1.6373,0.2835,39.2800,70,96,78902
1.6569,0.2933,39.2200,70,96,78905
1.6422,0.2835,39.2800,70,96,78908
1.6862,0.2933,39.0000,70,96,78911
1.6569,0.2884,39.1600,70,96,78915
1.6520,0.2835,39.2800,70,96,78918
1.6716,0.2884,39.2200,70,96,78921
1.6618,0.2688,39.2800,70,96,78924
1.7107,0.3030,39.0300,70,96,78928
1.7155,0.3030,39.0900,70,96,78932
1.6471,0.2981,39.1900,70,96,78937
1.6276,0.2786,39.1900,70,96,78940
1.6080,0.2884,39.3800,70,96,78943
1.5982,0.2835,39.2500,70,96,78946
1.6667,0.3079,39.0600,70,96,78950
1.6373,0.2884,39.1900,70,96,78953
1.6422,0.2786,39.5400,70,96,78956
1.6373,0.2884,39.3800,70,96,78959
1.6471,0.2835,39.2500,70,96,78963
1.7449,0.3079,39.1900,70,96,78966
1.6862,0.2933,39.2200,70,96,78969
1.6960,0.2933,39.2500,70,96,78972
1.7058,0.2884,39.2500,70,96,78977
1.7058,0.2835,39.2800,70,96,78980
1.7546,0.2884,39.0300,70,96,78983
1.7204,0.2981,39.1900,70,96,78986
1.7253,0.2884,39.2200,70,96,78990
1.7302,0.2884,39.2500,70,96,78993
1.7302,0.2835,39.2200,70,96,78996
1.7840,0.3079,39.0600,70,96,78999
1.7449,0.2981,39.2200,70,96,79003
1.7449,0.2933,39.2500,70,96,79006
1.7546,0.2884,39.3800,70,96,79009
1.7595,0.2835,39.2800,70,96,79012
1.8231,0.3079,39.0600,70,96,79016
1.7693,0.2884,39.2200,70,96,79020
1.7595,0.2737,39.2200,70,96,79023
1.7693,0.2884,39.2200,70,96,79026
1.7791,0.2835,39.2800,70,96,79030
1.8475,0.3030,39.0600,70,96,79033
1.8084,0.2884,39.2500,70,96,79036
1.7937,0.2786,39.2500,70,96,79039
1.7840,0.2884,39.3500,70,96,79043
1.7791,0.2835,39.2800,70,96,79046
1.8426,0.3030,39.0600,70,96,79049
1.7986,0.2835,39.1900,70,96,79052
1.7937,0.2786,39.3200,70,96,79056
1.7889,0.3079,39.2800,70,96,79059
1.7840,0.2786,39.2800,70,96,79063
1.8524,0.3030,39.0300,70,96,79066
1.7986,0.2933,39.2200,70,96,79070
1.8035,0.2835,39.2500,70,96,79073
1.8084,0.2884,39.4100,70,96,79076
1.8035,0.2835,39.2800,70,96,79079
1.8524,0.3030,39.0600,70,96,79083
1.8133,0.2981,39.1600,70,96,79086
1.8133,0.2786,39.2200,70,96,79089
1.8231,0.2884,39.3500,70,96,79092
1.8231,0.2835,39.2800,70,96,79096
1.8964,0.3079,39.0600,70,96,79099
1.8622,0.2835,39.1900,70,96,79102
1.8671,0.2786,39.3200,70,96,79106
1.8866,0.2884,39.2800,70,96,79110
1.9013,0.2835,39.2800,70,96,79113
1.9648,0.3079,39.0900,70,96,79116
1.9550,0.2786,39.1900,70,96,79119
1.9208,0.2786,39.2800,70,96,79123
1.9355,0.2884,39.2500,70,96,79126
1.9795,0.2835,39.2500,70,96,79129
2.0186,0.2981,39.0600,70,96,79132
1.9746,0.2884,39.2800,70,96,79136
1.9746,0.2786,39.2500,70,96,79139
1.9599,0.2688,39.2200,70,96,79142
1.9453,0.2688,39.3500,70,96,79145
2.0528,0.2981,39.0600,70,96,79150
1.9746,0.3030,39.1600,70,96,79153
1.9501,0.2786,39.2500,70,96,79156
1.9257,0.2884,39.2500,70,96,79159
1.8915,0.2786,39.2500,70,96,79163
1.9306,0.3079,39.0300,70,96,79166
1.8671,0.2884,39.4100,70,96,79169
1.8573,0.2688,39.2500,70,96,79172
1.8475,0.2884,39.2500,70,96,79176
1.8133,0.2884,39.3200,70,96,79179
1.8524,0.3079,39.0300,70,96,79182
1.7986,0.2835,38.7100,70,96,79185
1.7986,0.2786,39.2500,70,96,79190
1.7791,0.2884,39.2800,70,96,79193
1.7791,0.2786,39.2800,70,96,79196
1.8280,0.2981,38.9600,70,96,79199
1.7791,0.2884,39.2800,70,96,79203
1.7644,0.2786,39.2500,70,96,79206
1.7498,0.2884,39.2500,70,96,79209
1.7107,0.2835,39.3200,70,96,79212
1.6960,0.3275,39.0000,70,96,79216
1.6031,0.2884,39.1600,70,96,79219
1.6178,0.2737,39.2500,70,96,79222
1.7302,0.2786,39.2500,70,96,79225
1.9501,0.2884,39.2500,70,96,79229
2.3558,0.3079,38.9300,70,96,79233
2.7028,0.2835,39.1600,70,96,79236
3.0938,0.2737,39.2500,70,96,79239
3.4604,0.2835,39.3200,70,96,79243
3.7341,0.2884,39.2800,70,96,79246
3.9443,0.3079,39.0300,70,96,79249
3.7097,0.2688,39.1900,70,96,79252
3.3382,0.2786,39.2500,70,96,79256
2.8495,0.3226,39.2200,70,96,79259
2.3460,0.2835,39.2500,70,96,79262
1.9892,0.2884,39.0000,70,96,79265
1.6716,0.2786,39.1900,70,96,79269
1.5200,0.2786,39.2800,70,96,79272
1.4663,0.2884,39.2200,70,96,79276
1.4516,0.2835,39.2800,70,96,79279
1.5103,0.2933,39.0600,70,96,79283
1.5103,0.2933,39.1600,70,96,79286
1.5640,0.2786,39.2800,70,96,79289
1.5982,0.2884,39.2500,70,96,79292
1.6227,0.2835,39.2800,70,96,79296
1.6960,0.2981,39.0000,70,96,79299
1.6618,0.2933,39.1900,70,96,79302
1.6667,0.2786,39.4100,70,96,79305
1.6813,0.2884,39.2500,70,96,79309
1.6960,0.2835,39.2800,70,96,79312
1.7498,0.2884,39.0000,70,96,79315
1.7498,0.2884,39.1900,70,96,79320
1.7253,0.2786,39.2800,70,96,79323
1.7498,0.2884,39.4800,70,96,79326
1.7546,0.2835,39.3800,70,96,79329
1.8280,0.3030,39.0000,70,96,79333
1.7986,0.2688,39.1600,70,96,79336
1.7937,0.2835,39.2800,70,96,79339
1.7986,0.2884,39.2800,70,96,79342
1.7986,0.2835,39.3800,70,96,79346
1.8768,0.2981,39.0000,70,96,79349
1.8475,0.2933,39.1900,70,96,79352
1.8524,0.2786,39.2800,70,96,79355
1.8573,0.2786,39.2500,70,96,79360
1.8622,0.2835,39.4800,70,96,79363
1.9257,0.3030,39.0000,70,96,79366
1.8866,0.2835,39.2200,70,96,79369
1.9062,0.2884,39.3200,70,96,79373
1.9208,0.2884,39.2200,70,96,79376
1.9208,0.2835,39.2800,70,96,79379
1.9892,0.2981,39.0600,70,96,79382
1.9453,0.2884,39.1600,70,96,79386
1.9648,0.2933,39.2800,70,96,79389
1.9844,0.2884,39.2500,70,96,79392
1.9892,0.2835,39.3200,70,96,79395
2.0577,0.2981,39.0000,70,96,79399
2.0186,0.2835,39.1900,70,96,79403
2.0235,0.2786,39.3500,70,96,79406
2.0430,0.2884,39.3200,70,96,79409
2.0528,0.2786,39.2500,70,96,79413
2.1261,0.2981,39.0000,70,96,79416
2.0870,0.2884,39.1600,70,96,79419
2.0919,0.2786,39.2800,70,96,79422
2.1163,0.2835,39.2200,70,96,79426
2.1212,0.2835,39.2500,70,96,79429
2.2043,0.2981,38.9600,70,96,79432
2.1652,0.2835,39.1900,70,96,79435
2.1750,0.2786,39.2800,70,96,79439
2.1848,0.3079,39.2500,70,96,79442
2.2043,0.3079,39.2200,70,96,79446
2.2972,0.2933,38.9600,70,96,79449
2.2776,0.2884,39.1900,70,96,79453
2.2874,0.2835,39.3200,70,96,79456
2.3167,0.2933,39.2500,70,96,79459
2.3265,0.2835,39.2800,70,96,79462
2.4145,0.2933,39.0000,70,96,79466
2.3851,0.2835,39.1900,70,96,79469
2.4047,0.2688,39.2800,70,96,79472
2.4438,0.3079,39.2200,70,96,79475
2.4438,0.2835,39.3200,70,96,79479
2.5318,0.2933,38.9600,70,96,79482
2.4927,0.2835,39.1900,70,96,79485
2.5122,0.2737,39.2800,70,96,79489
2.5318,0.2884,39.2200,70,96,79493
2.5269,0.2835,39.2500,70,96,79496
2.6002,0.2933,38.9600,70,96,79499
2.5367,0.2933,39.1600,70,96,79502
2.5073,0.2786,39.2500,70,96,79506
2.4927,0.2884,39.2200,70,96,79509
2.4487,0.2786,39.2200,70,96,79512
2.4682,0.2933,39.0300,70,96,79515
2.3412,0.2884,39.1900,70,96,79519
2.2630,0.2688,39.2800,70,96,79522
2.2092,0.2737,39.2200,70,96,79525
2.1261,0.2835,39.2800,70,96,79528
2.1065,0.2688,39.0300,70,96,79533
1.9795,0.2835,39.2200,70,96,79536
1.8915,0.2737,39.3200,70,96,79539
1.8182,0.2884,39.0900,70,96,79542
1.5396,0.2835,39.2500,70,96,79547
1.5054,0.2786,39.2800,70,96,79550
1.5103,0.2981,39.0600,70,96,79554
1.4614,0.2884,39.3500,70,96,79557
1.4663,0.2786,39.1900,70,96,79560
1.4516,0.2835,39.2500,70,96,79563
1.4761,0.2835,39.3500,70,96,79567
1.5005,0.3030,39.1900,70,96,79570
1.4907,0.2884,39.2200,70,96,79574
1.5054,0.2786,39.1900,70,96,79577
1.5152,0.2835,39.2500,70,96,79581
1.5200,0.2835,39.2500,70,96,79584
1.5738,0.3421,39.1200,70,96,79587
1.5591,0.2884,39.2200,70,96,79590
1.5689,0.2786,39.1900,70,96,79594
1.5787,0.2835,39.2800,70,96,79597
1.6031,0.2688,39.2500,70,96,79600
1.6471,0.2933,39.1900,70,96,79603
1.6031,0.2786,39.2200,70,96,79607
1.6227,0.2884,39.1900,70,96,79610
1.6276,0.2835,39.2200,70,96,79613
1.6422,0.2786,39.2800,70,96,79617
1.7058,0.2884,39.1900,70,96,79621
1.6862,0.2786,39.2200,70,96,79624
1.6813,0.3030,39.1600,70,96,79627
1.6716,0.2835,38.4300,70,96,79630
1.6764,0.2786,39.1600,70,96,79634
1.7302,0.2981,39.1200,70,96,79637
1.7107,0.2884,39.2200,70,96,79640
1.7155,0.2786,39.1900,70,96,79643
1.7058,0.2835,39.2500,70,96,79647
1.7058,0.2786,39.2200,70,96,79650
1.7498,0.2933,38.2700,70,96,79653
1.7204,0.2835,39.2500,70,96,79656
1.7302,0.2786,39.2200,70,96,79661
1.7302,0.2835,39.2500,70,96,79664
1.7302,0.2835,39.2800,70,96,79667
1.7742,0.2884,39.1200,70,96,79670
1.7595,0.2835,39.1900,70,96,79674
1.8035,0.2835,39.1900,70,96,79677
1.7644,0.2835,39.2500,70,96,79680
1.7644,0.2981,39.2800,70,96,79683
1.8084,0.2981,39.2200,70,96,79687
1.7791,0.2933,39.2200,70,96,79690
1.7791,0.2884,39.1600,70,96,79693
1.7791,0.2835,39.2500,70,96,79696
1.7937,0.2786,39.2500,70,96,79700
1.8328,0.2933,39.0900,70,96,79704
1.7889,0.2835,39.2200,70,96,79707
1.7986,0.2835,39.1600,70,96,79710
1.7937,0.2737,39.2500,70,96,79714
1.7986,0.2786,39.2800,70,96,79717
1.8475,0.2884,39.2200,70,96,79720
1.8182,0.2933,39.2200,70,96,79723
1.8133,0.2835,39.1600,70,96,79727
1.7889,0.2835,39.2500,70,96,79730
1.7889,0.2835,39.2200,70,96,79733
1.8377,0.2981,39.2800,70,96,79737
1.8133,0.2884,39.2200,70,96,79740
1.8182,0.2786,39.1900,70,96,79744
1.8035,0.2835,39.2800,70,96,79747
1.7986,0.2835,39.2800,70,96,79751
1.8426,0.2835,39.1200,70,96,79754
1.8133,0.2835,39.3200,70,96,79757
1.8280,0.2786,39.2500,70,96,79760
1.8231,0.2835,39.2500,70,96,79764
1.8084,0.2786,39.2800,70,96,79767
1.8573,0.3030,39.0900,70,96,79770
1.8328,0.2835,39.2200,70,96,79773
1.8377,0.2688,39.1900,70,96,79777
1.8280,0.2835,39.2800,70,96,79780
1.8280,0.2786,39.2500,70,96,79783
1.8671,0.3079,39.0900,70,96,79787
1.8328,0.2835,39.3500,70,96,79791
1.8426,0.2786,39.1900,70,96,79794
1.8328,0.2835,39.2500,70,96,79797
1.8719,0.2786,39.2500,70,96,79800
1.8915,0.2933,39.1200,70,96,79804
1.8524,0.2786,39.2500,70,96,79807
1.8622,0.2786,39.1600,70,96,79810
1.8524,0.2786,39.2500,70,96,79813
1.8524,0.2786,39.2500,70,96,79817
1.9110,0.2884,39.1200,70,96,79820
1.8768,0.2835,39.2200,70,96,79823
1.8817,0.2786,39.2200,70,96,79826
1.8622,0.2786,39.3200,70,96,79831
1.8622,0.2786,39.2800,70,96,79834
1.9110,0.2933,39.1600,70,96,79837
1.8866,0.2835,39.2200,70,96,79840
1.8964,0.2835,39.1900,70,96,79844
1.9062,0.2786,39.2500,70,96,79847
1.8719,0.2835,39.2800,70,96,79850
1.9159,0.2884,39.1900,70,96,79853
1.8866,0.2835,39.2200,70,96,79857
1.9110,0.2786,39.1900,70,96,79860
1.9159,0.2786,39.2500,70,96,79863
1.8915,0.3079,39.2500,70,96,79866
1.9355,0.2981,39.1200,70,96,79870
1.9110,0.2835,39.4400,70,96,79874
1.9257,0.2786,39.1600,70,96,79877
1.9404,0.2835,39.2500,70,96,79880
1.9062,0.2786,39.2500,70,96,79884
1.9404,0.2981,39.1600,70,96,79887
1.9013,0.2835,39.1200,70,96,79890
1.9110,0.2786,39.1600,70,96,79893
1.9013,0.2786,39.2500,70,96,79897
1.9062,0.2786,39.2500,70,96,79900
1.9404,0.2933,39.0600,70,96,79903
1.8964,0.2884,39.2200,70,96,79906
1.9110,0.2786,39.0900,70,96,79910
1.8915,0.2688,39.2500,70,96,79913
1.9013,0.2786,39.2500,70,96,79917
1.9453,0.2835,39.0900,70,96,79920
1.9159,0.2884,39.3500,70,96,79924
1.9110,0.2786,39.1900,70,96,79927
1.8915,0.2835,39.2800,70,96,79930
1.8964,0.2688,39.2800,70,96,79934
1.9453,0.2981,39.1900,70,96,79937
1.9208,0.2835,39.1900,70,96,79940
1.9306,0.2835,39.1900,70,96,79943
1.9159,0.2786,39.2800,70,96,79947
1.9355,0.2688,39.2500,70,96,79950
1.9844,0.2933,39.0900,70,96,79953
1.9599,0.2835,39.2500,70,96,79956
1.9941,0.2786,39.2500,70,96,79961
1.9844,0.2835,39.2500,70,96,79964
1.9844,0.2786,39.2500,70,96,79967
2.0283,0.2884,39.1200,70,96,79970
2.0088,0.2933,39.2200,70,96,79974
2.0332,0.2737,39.1900,70,96,79977
2.0186,0.2835,39.2500,70,96,79980
2.0283,0.2835,39.2500,70,96,79983
2.0772,0.3030,39.1600,70,96,79987
2.0381,0.2835,39.2500,70,96,79990
2.0479,0.2835,39.1600,70,96,79993
2.0381,0.2884,39.2500,70,96,79996
2.0479,0.2786,39.2800,70,96,80001
2.0772,0.2884,39.0900,70,96,80004
2.0235,0.2786,39.2500,70,96,80007
1.9990,0.2786,39.1200,70,96,80010
1.9697,0.2786,39.2500,70,96,80013
1.9550,0.2786,39.2500,70,96,80017
1.9892,0.3030,39.0900,70,96,80020
1.9453,0.2835,38.9300,70,96,80023
1.9159,0.2688,39.1900,70,96,80026
1.8817,0.2786,39.2500,70,96,80030
1.8719,0.2688,39.3200,70,96,80033
1.9208,0.2981,39.0900,70,96,80036
1.8768,0.2688,39.2800,70,96,80039
1.8719,0.2639,39.1900,70,96,80044
1.8573,0.2835,39.2800,70,96,80047
1.8524,0.2786,39.2200,70,96,80050
1.9013,0.2884,39.1200,70,96,80053
1.8475,0.2835,39.1900,70,96,80057
1.8182,0.2786,39.1900,70,96,80060
1.7791,0.2835,39.2500,70,96,80063
1.6911,0.2786,39.1900,70,96,80066
1.7009,0.2981,39.0900,70,96,80070
1.7058,0.2786,39.1900,70,96,80073
1.8328,0.2737,39.2500,70,96,80076
2.0772,0.2786,39.2500,70,96,80079
2.4242,0.2786,39.2800,70,96,80083
2.9081,0.2981,39.0600,70,96,80087
3.2405,0.2737,39.2500,70,96,80090
3.5924,0.2737,39.2200,70,96,80093
3.8416,0.2786,39.2500,70,96,80097
3.8759,0.2737,39.2500,70,96,80100
3.7732,0.3177,39.1200,70,96,80103
3.2845,0.2835,39.2500,70,96,80106
2.7761,0.2737,39.2200,70,96,80110
2.2972,0.2688,39.2500,70,96,80113
1.9208,0.2786,39.3200,70,96,80116
1.7302,0.2981,39.0600,70,96,80119
1.5640,0.2884,39.1900,70,96,80123
1.5054,0.2737,39.2200,70,96,80126
1.5054,0.2737,39.2500,70,96,80130
1.5249,0.2737,39.2800,70,96,80133
1.6178,0.2981,39.1600,70,96,80137
1.6325,0.2835,39.2200,70,96,80140
1.6471,0.2786,39.2200,70,96,80143
1.6667,0.2786,39.2500,70,96,80146
1.6764,0.2786,39.1600,70,96,80150
1.7351,0.2981,39.0600,70,96,80153
1.7742,0.2884,39.1200,70,96,80158
1.7595,0.2786,39.2500,70,96,80161
1.7840,0.2786,39.1600,70,96,80164
1.7644,0.2786,39.3800,70,96,80167
1.7693,0.2786,39.2800,70,96,80172
1.8035,0.2884,39.1600,70,96,80175
1.7889,0.2737,39.2500,70,96,80178
1.8328,0.2786,39.0900,70,96,80181
1.8377,0.2786,39.3800,70,96,80185
1.8622,0.2786,39.2800,70,96,80188
1.9208,0.2884,39.0900,70,96,80191
1.8866,0.2786,39.2500,70,96,80194
1.9208,0.2786,39.0900,70,96,80198
1.9062,0.2786,39.2500,70,96,80201
1.9257,0.2737,39.2800,70,96,80204
1.9746,0.2786,39.0900,70,96,80207
1.9599,0.2835,39.2200,70,96,80211
1.9844,0.2786,39.1600,70,96,80215
1.9648,0.2786,39.2500,70,96,80218
1.9795,0.2688,39.2500,70,96,80221
2.0235,0.2884,39.1900,70,96,80225
2.0137,0.2786,39.2500,70,96,80228
2.0479,0.2786,39.1200,70,96,80231
2.0235,0.2786,39.2500,70,96,80234
2.0332,0.2737,39.3200,70,96,80238
2.0870,0.2884,39.1900,70,96,80241
2.0674,0.2786,39.2500,70,96,80244
2.1017,0.2835,39.1600,70,96,80247
2.0870,0.2981,39.2800,70,96,80251
2.0968,0.2737,39.2800,70,96,80254
2.1408,0.2835,39.1200,70,96,80258
2.1261,0.2786,39.2200,70,96,80261
2.1603,0.2786,39.1600,70,96,80265
2.1505,0.2786,39.3500,70,96,80268
2.1994,0.2737,39.2800,70,96,80271
2.2239,0.2884,39.3200,70,96,80274
2.1994,0.2786,39.3500,70,96,80278
2.2385,0.2688,39.1600,70,96,80281
2.2434,0.2786,39.2800,70,96,80284
2.2630,0.2737,39.2800,70,96,80287
2.3265,0.2884,39.0600,70,96,80291
2.3021,0.2786,39.3800,70,96,80294
2.3412,0.2688,39.1200,70,96,80297
2.3412,0.2835,39.2500,70,96,80301
2.3705,0.2737,39.2500,70,96,80305
2.4438,0.2884,39.1200,70,96,80308
2.4291,0.2835,39.2200,70,96,80311
2.4829,0.2786,39.1900,70,96,80314
2.4389,0.2737,39.2500,70,96,80318
2.4682,0.2933,39.2800,70,96,80321
2.5415,0.2884,39.2500,70,96,80324
2.5318,0.2786,39.2500,70,96,80327
2.5513,0.2835,39.1900,70,96,80331
2.5367,0.2737,39.2800,70,96,80334
2.5367,0.2737,39.2800,70,96,80337
2.5904,0.2884,39.0600,70,96,80340
2.5367,0.2786,39.2200,70,96,80345
2.5318,0.2737,39.2500,70,96,80348
2.4829,0.2786,39.2200,70,96,80351
2.4291,0.2688,39.2500,70,96,80354
2.4145,0.2786,39.0900,70,96,80358
2.3216,0.2981,39.2200,70,96,80361
2.2630,0.2737,39.2800,70,96,80364
2.1701,0.2786,39.2500,70,96,80367
2.0870,0.2688,39.2800,70,96,80371
2.0528,0.2981,39.1600,70,96,80374
1.9453,0.2786,39.2500,70,96,80377
1.8719,0.2688,39.1900,70,96,80380
1.7986,0.2737,39.2500,70,96,80385
1.7400,0.2737,39.2500,70,96,80388
1.7253,0.2933,39.1200,70,96,80391
1.6325,0.2737,39.2500,70,96,80394
1.5885,0.2737,39.1600,70,96,80398
1.5445,0.2786,39.2800,70,96,80401
1.5152,0.2688,39.2500,70,96,80404
1.5445,0.2786,39.1900,70,96,80407
1.4956,0.3030,39.1900,70,96,80411
1.4858,0.2737,39.1900,70,96,80414
1.4614,0.2786,39.2500,70,96,80417
1.4614,0.2737,39.2800,70,96,80420
1.5103,0.2884,39.1600,70,96,80424
1.5005,0.2835,39.2200,70,96,80428
1.5054,0.2737,39.2200,70,96,80431
1.5005,0.2786,39.3200,70,96,80434
1.5054,0.2688,39.2800,70,96,80438
1.5543,0.2884,39.0900,70,96,80441
1.5347,0.2884,39.2500,70,96,80444
1.5543,0.2737,39.1600,70,96,80447
1.5543,0.2786,39.2500,70,96,80451
1.5640,0.2737,39.2500,70,96,80454
1.6031,0.2835,39.1600,70,96,80457
1.5885,0.2835,39.1900,70,96,80460
1.6080,0.2737,39.2500,70,96,80464
1.6031,0.2786,39.2800,70,96,80467
1.6178,0.2688,39.2500,70,96,80471
1.6520,0.2933,39.1200,70,96,80474
1.6325,0.2835,39.1600,70,96,80478
1.6422,0.2737,39.2500,70,96,80481
1.6471,0.2786,39.4100,70,96,80484
1.6618,0.2688,39.2800,70,96,80487
1.7058,0.2933,39.0600,70,96,80491
1.6667,0.2835,39.1900,70,96,80494
1.6716,0.2737,39.2200,70,96,80497
1.6716,0.2737,39.2500,70,96,80500
1.6960,0.2786,39.3200,70,96,80504
1.7302,0.3079,39.1200,70,96,80507
1.7058,0.2884,39.2200,70,96,80510
1.7009,0.2737,39.1900,70,96,80514
1.6862,0.2786,39.2500,70,96,80518
1.6960,0.2737,39.2500,70,96,80521
1.7449,0.2884,39.0900,70,96,80524
1.7253,0.2786,39.1900,70,96,80527
1.7449,0.2786,39.1900,70,96,80531
1.7107,0.2786,39.2500,70,96,80534
1.7009,0.2688,39.2500,70,96,80537
1.7498,0.2835,39.1900,70,96,80540
1.7107,0.2786,39.0600,70,96,80544
1.7204,0.2786,39.1900,70,96,80547
1.7155,0.2835,39.2500,70,96,80550
1.7107,0.2688,39.2800,70,96,80553
1.7546,0.2884,39.1200,70,96,80558
1.7351,0.2786,39.1900,70,96,80561
1.7400,0.2737,39.0900,70,96,80564
1.7351,0.2786,38.4600,70,96,80567
1.7351,0.2737,39.3200,70,96,80571
1.7791,0.2884,39.1600,70,96,80574
1.7400,0.2786,39.2200,70,96,80577
1.7400,0.2737,39.1900,70,96,80580
1.7400,0.2786,39.3200,70,96,80584
1.7449,0.2737,39.3200,70,96,80587
1.7840,0.2884,39.1200,70,96,80590
1.7351,0.2786,39.2200,70,96,80594
1.7400,0.2737,39.1900,70,96,80598
1.7253,0.3030,39.2200,70,96,80601
1.7302,0.2737,38.6800,70,96,80604
1.7889,0.2884,39.0900,70,96,80607
1.7498,0.2835,39.1900,70,96,80611
1.7400,0.2737,39.4100,70,96,80614
1.7253,0.2786,39.2500,70,96,80617
1.7253,0.2688,39.2500,70,96,80620
1.7889,0.2933,39.0900,70,96,80624
1.7498,0.2835,39.1900,70,96,80627
1.7449,0.2737,39.2800,70,96,80630
1.7351,0.2786,39.1600,70,96,80634
1.7351,0.2737,39.3200,70,96,80637
1.7840,0.2884,39.0900,70,96,80641
1.7449,0.2786,39.0000,70,96,80644
1.7498,0.2835,39.1900,70,96,80648
1.7400,0.3079,39.1900,70,96,80651
1.7351,0.2737,39.2500,70,96,80654
1.7889,0.2884,39.0900,70,96,80657
1.7449,0.2835,39.1900,70,96,80661
1.7546,0.2688,39.3800,70,96,80664
1.7449,0.2786,39.3200,70,96,80667
1.7449,0.2737,39.3200,70,96,80670
1.7986,0.2884,39.0600,70,96,80674
1.7498,0.2835,39.2500,70,96,80677
1.7449,0.2737,39.2200,70,96,80680
1.7449,0.2737,39.2200,70,96,80684
1.7498,0.2737,39.2800,70,96,80688
1.7986,0.2884,39.0600,70,96,80691
1.7498,0.2786,39.1900,70,96,80694
1.7400,0.2737,39.1900,70,96,80697
1.7400,0.2786,39.1600,70,96,80701
1.7351,0.2688,39.2500,70,96,80704
1.8182,0.2933,39.0900,70,96,80707
1.7595,0.2835,39.1600,70,96,80710
1.7595,0.2688,39.2500,70,96,80714
1.7449,0.2786,39.3500,70,96,80717
1.7351,0.2688,39.2800,70,96,80720
1.8035,0.2884,39.0900,70,96,80723
1.7644,0.2884,39.1900,70,96,80728
1.7644,0.2688,39.1900,70,96,80731
1.7546,0.2786,38.4300,70,96,80734
1.7498,0.2737,39.2500,70,96,80737
1.8035,0.2933,39.0600,70,96,80741
1.7595,0.2835,39.1900,70,96,80744
1.7644,0.2688,39.2200,70,96,80747
1.7546,0.2786,39.2500,70,96,80750
1.7546,0.2737,39.2500,70,96,80754
1.8328,0.2933,39.0900,70,96,80757
1.7595,0.2786,39.1600,70,96,80760
1.7595,0.2688,39.1900,70,96,80763
1.7595,0.2786,39.2500,70,96,80768
1.7644,0.2933,39.3200,70,96,80771
1.7742,0.2737,39.2800,70,96,80775
1.7986,0.2884,39.0900,70,96,80778
1.7546,0.2737,39.2500,70,96,80781
1.7791,0.2737,39.1200,70,96,80784
1.7742,0.2786,39.2500,70,96,80788
1.7791,0.2786,39.2500,70,96,80791
1.8328,0.2835,39.0600,70,96,80794
1.8231,0.2688,39.2200,70,96,80797
1.8817,0.2737,39.1900,70,96,80801
1.8328,0.2688,39.2200,70,96,80804
1.8426,0.2688,39.2800,70,96,80807
1.8817,0.2835,39.1900,70,96,80811
1.8768,0.2688,39.2500,70,96,80815
1.8866,0.2786,39.1600,70,96,80818
1.8524,0.2835,39.3200,70,96,80821
1.8426,0.2688,39.2800,70,96,80824
1.8573,0.2835,39.0900,70,96,80828
1.8084,0.2737,39.2500,70,96,80831
1.8133,0.2737,39.1200,70,96,80834
1.7644,0.2835,39.2500,70,96,80837
1.7449,0.2737,39.2800,70,96,80841
1.7546,0.2835,39.1200,70,96,80844
1.7155,0.2688,39.2500,70,96,80847
1.7253,0.2835,39.0900,70,96,80850
1.6862,0.2737,39.1600,70,96,80855
1.6813,0.2737,39.1200,70,96,80858
1.6960,0.2835,39.1900,70,96,80861
1.6667,0.2835,39.2500,70,96,80864
1.6813,0.2981,39.3200,70,96,80868
1.6667,0.3079,39.3200,70,96,80871
1.6667,0.2737,39.3500,70,96,80874
1.6862,0.2835,39.0900,70,96,80877
1.6129,0.2737,39.2500,70,96,80881
1.5738,0.2688,39.1200,70,96,80884
1.5054,0.2737,39.2500,70,96,80887
1.4956,0.2688,39.2200,70,96,80890
1.5934,0.2835,39.1200,70,96,80894
1.7400,0.2786,39.2200,70,96,80898
2.0381,0.2835,39.1200,70,96,80901
2.3803,0.2737,39.3500,70,96,80904
2.7957,0.2737,39.3800,70,96,80908
3.2258,0.2835,39.1900,70,96,80911
3.4946,0.2835,39.2500,70,96,80914
3.6999,0.2786,39.1200,70,96,80917
3.5777,0.2737,39.3200,70,96,80921
3.2942,0.2688,39.3200,70,96,80924
2.9179,0.2688,39.0900,70,96,80927
2.3803,0.2737,39.2500,70,96,80930
1.9697,0.2737,39.1200,70,96,80934
1.6129,0.2737,39.4100,70,96,80937
1.4076,0.2737,39.2500,70,96,80941
1.3392,0.2786,39.1200,70,96,80944
1.2903,0.2737,39.2200,70,96,80948
1.3148,0.2737,39.1200,70,96,80951
1.3245,0.2737,39.2500,70,96,80954
1.3490,0.2688,39.2800,70,96,80957
1.4076,0.2835,39.1900,70,96,80961
1.4125,0.2737,39.2500,70,96,80964
1.4614,0.2737,39.1200,70,96,80967
1.4663,0.2786,39.2800,70,96,80970
1.4956,0.2688,39.2500,70,96,80974
1.5347,0.2835,39.0900,70,96,80977
1.5152,0.2737,39.2500,70,96,80980
1.5396,0.2933,39.1600,70,96,80984
1.5347,0.2737,39.2500,70,96,80988
1.5543,0.2688,39.2800,70,96,80991
1.5982,0.2835,39.1200,70,96,80994
1.5885,0.2786,39.2500,70,96,80997
1.6080,0.2737,39.1200,70,96,81001
1.5934,0.2737,39.2800,70,96,81004
1.6080,0.2688,39.2500,70,96,81007
1.6667,0.2786,39.1900,70,96,81010
1.6471,0.2835,39.2500,70,96,81014
1.6764,0.2737,39.2200,70,96,81017
1.6618,0.2737,39.3200,70,96,81020
1.6716,0.2737,39.2500,70,96,81024
1.7107,0.2835,39.0900,70,96,81028
1.6911,0.2786,39.2800,70,96,81031
1.7253,0.2737,39.1600,70,96,81034
1.7155,0.2786,39.2800,70,96,81037
1.7204,0.2688,39.2800,70,96,81041
1.7595,0.2688,39.0900,70,96,81044
1.7400,0.2981,39.1900,70,96,81047
1.7693,0.2688,39.1200,70,96,81050
1.7449,0.2688,39.2500,70,96,81054
1.7595,0.2786,39.2500,70,96,81057
1.7986,0.2786,39.1900,70,96,81060
1.7791,0.2737,39.3200,70,96,81063
1.8035,0.2688,39.1600,70,96,81068
1.7986,0.2737,39.2500,70,96,81071
1.8524,0.2737,39.2500,70,96,81074
1.8622,0.2884,39.1200,70,96,81077
1.8280,0.2835,39.2500,70,96,81081
1.8573,0.2737,39.1600,70,96,81084
1.8426,0.2688,39.2500,70,96,81087
1.8964,0.2737,39.2500,70,96,81090
1.9110,0.2884,39.1200,70,96,81094
1.8964,0.2786,39.2500,70,96,81097
1.9208,0.2737,39.1900,70,96,81100
1.9013,0.2737,39.2500,70,96,81103
1.9550,0.2688,39.2500,70,96,81107
1.9697,0.3079,39.2500,70,96,81111
1.9648,0.2737,39.2500,70,96,81114
2.0039,0.2688,39.1600,70,96,81117
1.9795,0.2835,39.2800,70,96,81121
1.9990,0.2688,39.2500,70,96,81124
2.0577,0.2835,39.2800,70,96,81127
2.0430,0.2737,39.2500,70,96,81130
2.0821,0.2786,39.1200,70,96,81134
2.0821,0.2737,39.2500,70,96,81137
2.1017,0.2688,39.2500,70,96,81140
2.1750,0.2884,39.1200,70,96,81143
2.1505,0.3079,39.2200,70,96,81147
2.1848,0.2737,39.1600,70,96,81150
2.1750,0.2737,39.2500,70,96,81154
2.2287,0.2786,39.2500,70,96,81157
2.2434,0.2933,39.1200,70,96,81161
2.2092,0.2786,39.4800,70,96,81164
2.2287,0.2737,39.1600,70,96,81167
2.2190,0.2688,39.2800,70,96,81170
2.2141,0.2786,39.2800,70,96,81174
2.2483,0.2835,39.2500,70,96,81177
2.1799,0.2786,39.2800,70,96,81180
2.1554,0.2737,39.1600,70,96,81183
2.0919,0.2737,39.2500,70,96,81187
2.0430,0.2688,39.3800,70,96,81190
2.0332,0.2786,39.1200,70,96,81193
1.9355,0.2786,39.1900,70,96,81197
1.8622,0.2737,39.1600,70,96,81201
1.7693,0.2737,39.3500,70,96,81204
1.7009,0.2688,39.3500,70,96,81207
1.6862,0.2884,39.1200,70,96,81210
1.5982,0.2786,39.2200,70,96,81214
1.5396,0.2688,39.2200,70,96,81217
1.4712,0.2737,39.2800,70,96,81220
1.4223,0.2688,39.3200,70,96,81223
1.4174,0.2835,39.0900,70,96,81227
1.3881,0.2835,39.2800,70,96,81230
1.3343,0.2786,39.1600,70,96,81233
1.3050,0.2737,39.2500,70,96,81236
1.2854,0.2639,39.2500,70,96,81241
1.3245,0.2688,39.0900,70,96,81244
1.2805,0.2835,39.2500,70,96,81247
1.2854,0.2688,39.1900,70,96,81250
1.2805,0.2688,39.2500,70,96,81254
1.2805,0.2737,39.2800,70,96,81257
1.3148,0.2933,39.1900,70,96,81260
1.2952,0.2786,39.0900,70,96,81263
1.2952,0.2688,39.1900,70,96,81267
1.3196,0.2737,39.2500,70,96,81270
1.3392,0.2688,39.2500,70,96,81273
1.3881,0.2786,39.0600,70,96,81276
1.3587,0.2981,39.2200,70,96,81281
1.3636,0.2688,39.2500,70,96,81284
1.3685,0.2688,39.3200,70,96,81287
1.3930,0.2737,39.2800,70,96,81290
1.4370,0.3030,39.0900,70,96,81294
1.4223,0.2786,39.2500,70,96,81297
1.4272,0.2688,39.1900,70,96,81300
1.4174,0.2737,39.3200,70,96,81303
1.4321,0.2737,39.2500,70,96,81307
1.4809,0.2933,39.0900,70,96,81310
1.4761,0.2786,39.1900,70,96,81313
1.4858,0.2737,39.1600,70,96,81316
1.4809,0.2688,39.2800,70,96,81320
1.4858,0.2786,39.2500,70,96,81324
1.5347,0.2835,39.0900,70,96,81327
1.5054,0.2737,39.3500,70,96,81330
1.5103,0.2688,39.1900,70,96,81334
1.5152,0.2737,39.2200,70,96,81337
1.5103,0.3177,39.2500,70,96,81340
1.5591,0.2884,39.0900,70,96,81343
1.5347,0.2786,39.1900,70,96,81347
1.5494,0.2737,39.1900,70,96,81350
1.5396,0.2737,39.2500,70,96,81353
1.5396,0.2737,39.2500,70,96,81356
1.5885,0.2933,39.0900,70,96,81360
1.5591,0.2786,39.1900,70,96,81363
1.5640,0.2688,39.1900,70,96,81367
1.5787,0.2786,39.2200,70,96,81370
1.5738,0.2688,39.2500,70,96,81374
1.6276,0.2835,39.1200,70,96,81377
1.6129,0.2786,39.1900,70,96,81381
1.5885,0.2737,39.2800,70,96,81384
1.5982,0.2786,39.1200,70,96,81387
1.5543,0.2688,39.1600,70,96,81390
1.5543,0.2688,39.2200,70,96,81394
1.5787,0.2786,39.2200,70,96,81397
1.5738,0.2737,39.2500,70,96,81400
1.5982,0.2688,39.1200,70,96,81403
1.5738,0.2835,39.2500,70,96,81408
1.5787,0.2688,39.4100,70,96,81411
1.6129,0.2786,39.0900,70,96,81414
1.5885,0.2737,39.2200,70,96,81417
1.6227,0.2737,39.0900,70,96,81421
1.5982,0.2737,39.2800,70,96,81424
1.6031,0.2688,39.2500,70,96,81427
1.6276,0.2786,39.1200,70,96,81430
1.6227,0.2737,39.2500,70,96,81434
1.6373,0.2835,39.1200,70,96,81437
1.6129,0.2688,39.3500,70,96,81440
1.6178,0.2688,39.3500,70,96,81443
1.6373,0.2786,39.2200,70,96,81447
1.6325,0.2688,39.2500,70,96,81451
1.6520,0.2737,39.1200,70,96,81454
1.6373,0.2737,39.2500,70,96,81457
1.6520,0.2688,39.3500,70,96,81461
1.6813,0.2835,39.1200,70,96,81464
1.6471,0.2688,39.2500,70,96,81467
1.6911,0.2737,39.1200,70,96,81471
1.6471,0.2786,39.2500,70,96,81474
1.6569,0.2688,39.2800,70,96,81477
1.6960,0.2786,39.0900,70,96,81480
1.6764,0.2737,39.2500,70,96,81483
1.6960,0.2737,39.1200,70,96,81487
1.6618,0.2688,39.2500,70,96,81490
1.6667,0.2688,39.2800,70,96,81494
1.7058,0.2835,39.2200,70,96,81497
1.6764,0.2688,39.3200,70,96,81501
1.6960,0.2737,39.0600,70,96,81504
1.6667,0.2688,39.3500,70,96,81507
1.6716,0.2688,39.2800,70,96,81510
1.7009,0.2835,39.0900,70,96,81514
1.6667,0.3030,39.2200,70,96,81517
1.6911,0.2737,39.1200,70,96,81520
1.6667,0.2688,39.2500,70,96,81523
1.6667,0.2639,39.2500,70,96,81527
1.6911,0.2981,39.1200,70,96,81530
1.6764,0.2737,39.3200,70,96,81533
1.7058,0.2688,39.1900,70,96,81537
1.6813,0.2786,39.3200,70,96,81541
1.6813,0.2786,39.2800,70,96,81544
1.7058,0.3079,39.1900,70,96,81547
1.6813,0.2737,39.2200,70,96,81550
1.7058,0.2737,39.1200,70,96,81554
1.6862,0.2737,39.2800,70,96,81557
1.7009,0.2737,39.2800,70,96,81560
1.7302,0.2835,39.0600,70,96,81563
1.7009,0.2737,39.2500,70,96,81567
1.7253,0.2737,39.1200,70,96,81570
1.7155,0.2688,39.4800,70,96,81573
1.7400,0.2688,39.2800,70,96,81576
1.7889,0.2688,39.0900,70,96,81581
1.7742,0.2835,39.1900,70,96,81584
1.7986,0.2737,39.0900,70,96,81587
1.7644,0.2737,39.2500,70,96,81590
1.7791,0.2688,39.2500,70,96,81594
1.8280,0.2786,39.1900,70,96,81597
1.8133,0.2737,39.2200,70,96,81600
1.8475,0.2737,39.1600,70,96,81603
1.8280,0.2737,39.3500,70,96,81607
1.8328,0.2688,39.2500,70,96,81610
1.8915,0.2786,39.0900,70,96,81613
1.8377,0.2786,39.2500,70,96,81617
1.8622,0.2786,39.1200,70,96,81620
1.8328,0.2737,39.3800,70,96,81624
1.8133,0.2688,39.2800,70,96,81627
1.8182,0.2786,39.0900,70,96,81631
1.7937,0.2737,39.2200,70,96,81634
1.7742,0.2737,39.0900,70,96,81637
1.7351,0.2688,39.2500,70,96,81640
1.7155,0.2688,39.2500,70,96,81644
1.7302,0.2786,39.1900,70,96,81647
1.7058,0.2786,39.2800,70,96,81650
1.6911,0.2737,39.1200,70,96,81653
1.6667,0.2639,39.2500,70,96,81657
1.6716,0.2688,39.3800,70,96,81660
1.6960,0.2835,39.0900,70,96,81664
1.6520,0.2688,39.2500,70,96,81667
1.6667,0.2786,39.0900,70,96,81671
1.6422,0.2688,38.4000,70,96,81674
1.6422,0.2688,39.2800,70,96,81677
1.6911,0.2786,39.1200,70,96,81680
1.6031,0.2835,39.2200,70,96,81684
1.5640,0.2737,39.0900,70,96,81687
1.4809,0.2688,39.2500,70,96,81690
1.4565,0.2737,39.2500,70,96,81693
1.5689,0.2786,39.1900,70,96,81697
1.7009,0.2737,39.2200,70,96,81700
2.0088,0.2737,39.1600,70,96,81703
2.3607,0.2737,39.2800,70,96,81707
2.7664,0.2688,39.2500,70,96,81711
3.2111,0.2786,38.2100,70,96,81714
3.4751,0.2737,39.2500,70,96,81717
3.7048,0.2737,39.1200,70,96,81720
3.6119,0.2737,39.2500,70,96,81724
3.3431,0.2835,39.3200,70,96,81727
2.9619,0.2933,39.2500,70,96,81730
2.4291,0.2737,39.3500,70,96,81733
1.9795,0.2688,39.1600,70,96,81737
1.6276,0.2737,39.2500,70,96,81740
1.4076,0.2737,39.2500,70,96,81743
1.3294,0.2884,39.1600,70,96,81746
1.2805,0.2737,39.4400,70,96,81751
1.3001,0.2688,39.1600,70,96,81754
1.3148,0.2737,39.2500,70,96,81757
1.3734,0.2688,39.2500,70,96,81760
1.4272,0.2835,39.0900,70,96,81764
1.4321,0.2835,39.2500,70,96,81767
1.4712,0.2737,39.2800,70,96,81770
1.4761,0.2688,39.2500,70,96,81773
1.4907,0.2688,39.2500,70,96,81777
1.5396,0.2786,39.1200,70,96,81780
1.5347,0.2737,39.2200,70,96,81783
1.5543,0.2737,39.1600,70,96,81786
1.5396,0.2688,39.4100,70,96,81790
1.5591,0.2688,39.3500,70,96,81794
1.6031,0.2786,39.2200,70,96,81797
1.6227,0.2737,39.2200,70,96,81800
1.6325,0.3079,39.1200,70,96,81804
1.6227,0.2688,39.3200,70,96,81807
1.6325,0.2688,39.4100,70,96,81810
1.6813,0.2786,39.0900,70,96,81813
1.6667,0.2688,39.2200,70,96,81817
1.7204,0.2737,39.1900,70,96,81820
1.6911,0.2737,39.2500,70,96,81823
1.6960,0.2688,39.2500,70,96,81826
1.7302,0.2786,39.0900,70,96,81830
1.7155,0.2737,39.2200,70,96,81833
1.7498,0.2737,39.0900,70,96,81837
1.7351,0.2688,39.2500,70,96,81840
1.7595,0.2688,39.2500,70,96,81844
1.8133,0.2688,39.1600,70,96,81847
1.7791,0.2688,39.2200,70,96,81850
1.8035,0.2688,39.1600,70,96,81853
1.8035,0.2688,39.2800,70,96,81857
1.8231,0.2688,39.3200,70,96,81860
1.8622,0.2835,39.0900,70,96,81863
1.8328,0.2884,39.1600,70,96,81866
1.8622,0.2737,39.1200,70,96,81870
1.8573,0.2688,39.2500,70,96,81873
1.8817,0.2737,39.2800,70,96,81876
1.9257,0.2835,39.0900,70,96,81880
1.9159,0.2737,39.1900,70,96,81884
1.9404,0.2737,39.1600,70,96,81887
1.9257,0.2688,39.2500,70,96,81890
1.9453,0.2688,39.2800,70,96,81893
1.9941,0.2835,39.1600,70,96,81897
1.9892,0.2737,39.2200,70,96,81900
2.0283,0.2737,39.1200,70,96,81903
2.0137,0.2737,39.2500,70,96,81906
2.0626,0.2688,39.2500,70,96,81910
2.0919,0.2884,39.0900,70,96,81913
2.0772,0.2737,39.3500,70,96,81916
2.1310,0.2737,39.1200,70,96,81920
2.1212,0.3079,39.2500,70,96,81924
2.1408,0.2688,39.2500,70,96,81927
2.1896,0.2786,39.1200,70,96,81930
2.1945,0.2786,39.2200,70,96,81933
2.2287,0.2688,39.2200,70,96,81937
2.2336,0.2737,39.2500,70,96,81940
2.2581,0.2737,39.2500,70,96,81943
2.3216,0.2835,39.1900,70,96,81946
2.2972,0.2737,39.2200,70,96,81950
2.3314,0.2688,39.1900,70,96,81953
2.3314,0.2688,39.2500,70,96,81956
2.3607,0.2737,39.2500,70,96,81959
2.4145,0.2884,39.0600,70,96,81964
2.3754,0.2737,39.0900,70,96,81967
2.3900,0.2737,39.1600,70,96,81970
2.3656,0.2639,39.3200,70,96,81973
2.3607,0.2688,39.2200,70,96,81977
2.3998,0.2688,39.0900,70,96,81980
2.3265,0.2688,39.1900,70,96,81983
2.2825,0.2688,39.1600,70,96,81986
2.2092,0.2737,39.2200,70,96,81990
1.8426,0.2737,39.3200,70,96,81993
1.7546,0.2688,39.3800,70,96,81997
1.7009,0.2835,39.1600,70,96,82000
1.5885,0.2688,39.2500,70,96,82003
1.5543,0.2737,39.1200,70,96,82007
1.4761,0.2688,39.2800,70,96,82011
1.4321,0.2688,39.3500,70,96,82014
1.4174,0.2835,39.1600,70,96,82017
1.3832,0.2688,39.2500,70,96,82020
1.3832,0.2688,39.0900,70,96,82024
1.3490,0.2688,39.2500,70,96,82027
1.3441,0.2688,39.2800,70,96,82030
1.3587,0.2688,39.1900,70,96,82033
1.3343,0.2639,39.2200,70,96,82037
1.3587,0.2737,39.1200,70,96,82040
1.3441,0.2688,39.2500,70,96,82043
1.3636,0.2688,39.2500,70,96,82046
1.4027,0.2835,39.1200,70,96,82051
1.3685,0.2688,39.2800,70,96,82054
1.4076,0.2786,39.1600,70,96,82057
1.3978,0.2688,39.4100,70,96,82060
1.4125,0.2688,39.3200,70,96,82064
1.4516,0.2835,39.1200,70,96,82067
1.4370,0.2737,39.2200,70,96,82070
1.4761,0.2835,39.1200,70,96,82073
1.4565,0.2688,39.2500,70,96,82077
1.4663,0.2688,39.0900,70,96,82080
1.5005,0.2737,39.1900,70,96,82083
1.5347,0.2737,39.2500,70,96,82086
1.5396,0.2737,39.0900,70,96,82091
1.5200,0.2688,39.4100,70,96,82094
1.5298,0.2737,39.2500,70,96,82097
1.5689,0.2786,39.1900,70,96,82100
1.5445,0.2737,39.2500,70,96,82104
1.5885,0.2737,39.1200,70,96,82107
1.5738,0.2688,39.2800,70,96,82110
1.5787,0.2688,39.2500,70,96,82113
1.6129,0.2786,39.1900,70,96,82117
1.5885,0.2688,39.3200,70,96,82120
1.6227,0.2737,39.1200,70,96,82123
1.6031,0.2688,39.2500,70,96,82126
1.5982,0.2688,39.2500,70,96,82130
1.6325,0.2786,39.1900,70,96,82134
1.6178,0.2688,39.2500,70,96,82137
1.6520,0.2884,39.1600,70,96,82140
1.6373,0.2737,39.2800,70,96,82144
1.6520,0.2688,39.2500,70,96,82147
1.6862,0.2786,39.1600,70,96,82150
1.6520,0.2737,39.2500,70,96,82153
1.6764,0.2835,39.0900,70,96,82157
1.6569,0.2688,39.3500,70,96,82160
1.6569,0.2688,39.2800,70,96,82163
1.7058,0.2688,39.1600,70,96,82166
1.6862,0.2835,39.2200,70,96,82170
1.7058,0.2737,38.9300,70,96,82173
1.6569,0.2688,39.2800,70,96,82177
1.6667,0.2688,39.2500,70,96,82180
1.6911,0.2737,39.2200,70,96,82184
1.6911,0.2737,39.2200,70,96,82187
1.7155,0.2737,39.4800,70,96,82190
1.7009,0.2688,39.3500,70,96,82193
1.7009,0.2688,39.3200,70,96,82197
1.7449,0.2835,39.0900,70,96,82200
1.7107,0.2737,39.2200,70,96,82203
1.7351,0.2737,38.5800,70,96,82206
1.7107,0.2688,39.2500,70,96,82210
1.7253,0.2737,39.2500,70,96,82213
1.7302,0.2884,39.1900,70,96,82216
1.7107,0.2688,39.2200,70,96,82220
1.7400,0.2688,39.1200,70,96,82224
1.7155,0.2737,39.2500,70,96,82227
1.7155,0.2688,39.2500,70,96,82230
1.7351,0.2786,39.2200,70,96,82233
1.7204,0.2737,39.2500,70,96,82237
1.7400,0.2688,39.1200,70,96,82240
1.7302,0.2688,39.2500,70,96,82243
1.7400,0.2688,39.2800,70,96,82246
1.7742,0.2786,39.0900,70,96,82250
1.7400,0.2688,39.2200,70,96,82253
1.7546,0.2737,39.1200,70,96,82256
1.7302,0.2737,39.2500,70,96,82259
1.7400,0.2688,39.2500,70,96,82264
1.7791,0.2786,39.1200,70,96,82267
1.7546,0.2737,39.2200,70,96,82270
1.7693,0.2981,39.1600,70,96,82273
1.7400,0.2688,39.3800,70,96,82277
1.7449,0.2688,39.2500,70,96,82280
1.7791,0.2688,39.1900,70,96,82283
1.7595,0.2737,39.1900,70,96,82286
1.7791,0.2981,39.3800,70,96,82290
1.7546,0.2688,39.3500,70,96,82293
1.7595,0.2688,39.2800,70,96,82296
1.8328,0.2786,39.0900,70,96,82299
1.7595,0.2737,39.2200,70,96,82304
1.7889,0.2737,38.4600,70,96,82307
1.7644,0.2688,39.2500,70,96,82310
1.7644,0.2688,39.2500,70,96,82313
1.7937,0.2835,39.1900,70,96,82317
1.7742,0.2688,39.1900,70,96,82320
1.8035,0.2688,39.1600,70,96,82323
1.7889,0.2688,39.3200,70,96,82326
1.7889,0.2688,39.2500,70,96,82330
1.8133,0.2835,39.2200,70,96,82333
1.7889,0.2688,39.2200,70,96,82336
1.8084,0.2688,39.1600,70,96,82339
1.7937,0.2688,39.2500,70,96,82343
1.7986,0.2590,39.2500,70,96,82347
1.8377,0.2835,39.0900,70,96,82350
1.7937,0.2688,39.2800,70,96,82353
1.8133,0.2688,39.1600,70,96,82357
1.7937,0.2737,39.2500,70,96,82360
1.7937,0.2688,39.2500,70,96,82363
1.8328,0.2786,39.1900,70,96,82366
1.8133,0.2737,39.2200,70,96,82370
1.8231,0.2737,39.1200,70,96,82373
1.7937,0.2737,39.2500,70,96,82376
1.7986,0.2688,39.2200,70,96,82379
1.8426,0.2786,39.0600,70,96,82383
1.8231,0.2688,39.2200,70,96,82386
1.8426,0.2737,39.1200,70,96,82390
1.8328,0.2737,39.2500,70,96,82393
1.8328,0.2688,39.2800,70,96,82397
1.8817,0.2786,39.1200,70,96,82400
1.8622,0.2688,39.2200,70,96,82403
1.8964,0.2737,39.1200,70,96,82406
1.8915,0.2933,39.3200,70,96,82410
1.8964,0.2688,39.2800,70,96,82413
1.9355,0.2786,39.0900,70,96,82416
1.9453,0.2737,39.2200,70,96,82419
1.9453,0.2688,39.1200,70,96,82423
1.9355,0.2688,39.4100,70,96,82426
1.9453,0.2688,39.2800,70,96,82429
1.9844,0.2835,39.1600,70,96,82433
1.9550,0.2737,39.2200,70,96,82437
1.9746,0.2737,39.1600,70,96,82440
1.9599,0.2639,39.2800,70,96,82443
1.9697,0.2688,39.2800,70,96,82446
2.0039,0.2835,39.0600,70,96,82450
1.9453,0.2835,39.2200,70,96,82453
1.9404,0.2688,39.1900,70,96,82456
1.9013,0.2688,39.2500,70,96,82459
1.8866,0.2737,39.2500,70,96,82463
1.9159,0.2737,39.1200,70,96,82466
1.8719,0.2737,39.2500,70,96,82469
1.8671,0.2688,39.1600,70,96,82472
1.8231,0.2737,39.2500,70,96,82477
1.8035,0.2688,39.2500,70,96,82480
1.8377,0.2786,39.1900,70,96,82483
1.8035,0.2737,39.2800,70,96,82486
1.8035,0.2688,39.1600,70,96,82490
1.7840,0.2688,39.2500,70,96,82493
1.7791,0.2737,39.3200,70,96,82496
1.8133,0.2786,39.0600,70,96,82499
1.7742,0.2688,39.2500,70,96,82503
1.7791,0.2688,39.1600,70,96,82506
1.7351,0.2688,39.2500,70,96,82509
1.6716,0.2688,39.3200,70,96,82512
1.6520,0.2981,39.0900,70,96,82516
1.6080,0.2737,39.2200,70,96,82520
1.7009,0.2493,39.1900,70,96,82523
1.8377,0.2688,39.2800,70,96,82526
2.1261,0.2688,39.2500,70,96,82530
2.5562,0.2835,39.1600,70,96,82533
2.9179,0.2737,39.2200,70,96,82536
3.3187,0.2639,39.1600,70,96,82539
3.6266,0.3030,39.3200,70,96,82543
3.8270,0.2688,39.4800,70,96,82546
3.8563,0.2688,39.0600,70,96,82549
3.5239,0.2737,39.2200,70,96,82552
3.0938,0.2688,39.1600,70,96,82556
2.5709,0.2688,39.2500,70,96,82560
2.1163,0.2639,39.2500,70,96,82563
1.8182,0.2835,39.0900,70,96,82566
1.5836,0.2786,39.1900,70,96,82570
1.4761,0.2688,39.1900,70,96,82573
1.4321,0.2737,39.2500,70,96,82576
1.4321,0.2688,39.2500,70,96,82579
1.5103,0.3030,39.1200,70,96,82583
1.5200,0.2737,39.3200,70,96,82586
1.5640,0.2493,39.1900,70,96,82589
1.5885,0.2737,39.2200,70,96,82592
1.5982,0.3079,39.2200,70,96,82596
1.6569,0.2786,39.0600,70,96,82599
1.6813,0.2786,39.1600,70,96,82604
1.6716,0.2639,39.2500,70,96,82607
1.7058,0.2737,39.0900,70,96,82610
1.6911,0.2688,39.2500,70,96,82613
1.7009,0.2688,39.2200,70,96,82617
1.7351,0.2737,39.1600,70,96,82620
1.7204,0.2786,39.2800,70,96,82623
1.7546,0.2737,39.1200,70,96,82626
1.7595,0.2688,39.4400,70,96,82630
1.7889,0.2493,39.2500,70,96,82633
1.8328,0.2835,39.0600,70,96,82636
1.8084,0.2835,39.2800,70,96,82639
1.8426,0.2737,38.3600,70,96,82643
1.8280,0.2688,39.2500,70,96,82647
1.8524,0.2590,39.2500,70,96,82650
1.8915,0.2835,39.1200,70,96,82653
1.8817,0.2737,39.2200,70,96,82657
1.9110,0.2737,39.0900,70,96,82660
1.8817,0.2786,39.2500,70,96,82663
1.8964,0.2786,39.3200,70,96,82666
1.9355,0.2786,39.1900,70,96,82670
1.9306,0.2688,39.2500,70,96,82673
1.9941,0.2737,39.0900,70,96,82676
1.9453,0.2737,39.2200,70,96,82679
1.9599,0.2835,39.3200,70,96,82683
2.0039,0.2786,39.0300,70,96,82686
1.9844,0.2688,39.2500,70,96,82690
2.0283,0.2737,39.0900,70,96,82693
2.0137,0.2688,39.2500,70,96,82697
2.0235,0.2688,39.2500,70,96,82700
2.0674,0.2688,39.1200,70,96,82703
2.0577,0.3030,39.2200,70,96,82706
2.0968,0.2688,39.1200,70,96,82710
2.0821,0.2737,39.2500,70,96,82713
2.0968,0.2590,39.2500,70,96,82716
2.1408,0.2786,39.1200,70,96,82719
2.1261,0.2688,39.2500,70,96,82723
2.1652,0.2786,39.0900,70,96,82726
2.1603,0.2786,39.2500,70,96,82729
2.1896,0.2688,39.2500,70,96,82733
2.2483,0.2835,39.0600,70,96,82737
2.2239,0.2737,39.2500,70,96,82740
2.2581,0.2688,39.1600,70,96,82743
2.2532,0.2688,39.4800,70,96,82746
2.2874,0.2688,39.2500,70,96,82750
2.3607,0.2737,39.0900,70,96,82753
2.3509,0.2737,38.9300,70,96,82756
2.3900,0.2688,39.1600,70,96,82759
2.4096,0.2737,39.2500,70,96,82763
2.3949,0.2835,39.2500,70,96,82766
2.4633,0.2786,38.6200,70,96,82769
2.4438,0.2737,39.2500,70,96,82772
2.4731,0.2737,39.1600,70,96,82777
2.4536,0.2835,39.3200,70,96,82780
2.4536,0.2688,39.2800,70,96,82783
2.5024,0.2786,39.0900,70,96,82786
2.4487,0.2688,39.2500,70,96,82790
2.4536,0.3030,39.1200,70,96,82793
2.4047,0.2688,39.3500,70,96,82796
2.3607,0.2688,39.2500,70,96,82799
2.3509,0.2786,39.0300,70,96,82802
2.2581,0.2737,39.2800,70,96,82806
2.2141,0.2493,39.1600,70,96,82809
2.1065,0.2737,39.2500,70,96,82812
2.0283,0.2688,39.2800,70,96,82816
1.9892,0.2835,38.2400,70,96,82820
1.8768,0.2737,39.2200,70,96,82823
1.7986,0.2590,39.1600,70,96,82826
1.7253,0.2737,39.2800,70,96,82829
1.6667,0.2688,39.2800,70,96,82833
1.6471,0.2786,39.1200,70,96,82836
1.5543,0.2737,39.2500,70,96,82839
1.5103,0.2688,39.1600,70,96,82842
1.4663,0.2590,39.3200,70,96,82846
1.4418,0.2639,39.3500,70,96,82849
1.4663,0.2884,39.0900,70,96,82852
1.4321,0.2737,39.1900,70,96,82855
1.4125,0.2688,39.2500,70,96,82860
1.3930,0.2688,39.2500,70,96,82863
1.3881,0.2688,39.2200,70,96,82866
1.4321,0.2835,39.1200,70,96,82869
1.4418,0.2737,39.1900,70,96,82873
1.4272,0.2688,39.1600,70,96,82876
1.4223,0.2737,39.2500,70,96,82879
1.4321,0.2688,39.2800,70,96,82883
1.4809,0.2786,39.0600,70,96,82886
1.4565,0.2737,39.2200,70,96,82889
1.4761,0.2737,39.1600,70,96,82892
1.4956,0.2737,39.2500,70,96,82896
1.4956,0.2639,39.2200,70,96,82899
1.5494,0.2786,39.0600,70,96,82903
1.5396,0.2737,39.2500,70,96,82906
1.5787,0.2493,39.1600,70,96,82910
1.5689,0.2786,39.3200,70,96,82913
1.5640,0.2786,39.2500,70,96,82916
1.6080,0.2835,39.3200,70,96,82919
1.5885,0.2688,39.2500,70,96,82923
1.5934,0.2737,39.1900,70,96,82926
1.6325,0.2737,39.2500,70,96,82929
1.6178,0.2688,39.3200,70,96,82932
1.6667,0.2786,39.0600,70,96,82936
1.6325,0.2688,39.3200,70,96,82939
1.6471,0.2688,39.1600,70,96,82942
1.6422,0.2688,39.2500,70,96,82946
1.6471,0.2542,39.2500,70,96,82950
1.7009,0.3030,39.1200,70,96,82953
1.6862,0.2737,39.2200,70,96,82956
1.6911,0.2590,39.1900,70,96,82959
1.6618,0.2737,39.2500,70,96,82963
1.6569,0.2737,39.2500,70,96,82966
1.7107,0.2981,39.0900,70,96,82969
1.6960,0.2786,39.2200,70,96,82972
1.6911,0.2590,39.2200,70,96,82976
1.7009,0.2737,39.2500,70,96,82979
1.6862,0.2884,39.2200,70,96,82982
1.7302,0.2786,39.1900,70,96,82985
1.6960,0.2688,39.3200,70,96,82990
1.7107,0.2688,39.1900,70,96,82993
1.7058,0.2737,39.2200,70,96,82996
1.6960,0.2688,39.3200,70,96,82999
1.7400,0.2835,39.0900,70,96,83003
1.7107,0.2786,39.1900,70,96,83006
1.7155,0.2688,39.1600,70,96,83009
1.7058,0.2737,39.3200,70,96,83012
1.7058,0.2688,39.2800,70,96,83016
1.7546,0.2688,39.0900,70,96,83019
1.7155,0.2786,39.1600,70,96,83022
1.7107,0.2688,39.4800,70,96,83025
1.7107,0.2688,39.1600,70,96,83030
1.7204,0.2688,39.3200,70,96,83033
1.7644,0.2786,39.0600,70,96,83036
1.7253,0.2737,39.2200,70,96,83039
1.7204,0.2688,39.4100,70,96,83043
1.7155,0.2688,39.2500,70,96,83046
1.7204,0.2688,39.3500,70,96,83049
1.7742,0.2884,39.0900,70,96,83052
1.7498,0.2786,39.3800,70,96,83056
1.7449,0.2688,39.1900,70,96,83059
1.7253,0.2688,39.2500,70,96,83062
1.7204,0.2688,39.2500,70,96,83065
1.7791,0.2884,39.0900,70,96,83069
1.7546,0.2786,39.2200,70,96,83073
1.7498,0.2688,39.1900,70,96,83076
1.7400,0.2688,39.2500,70,96,83079
1.7449,0.2688,39.2500,70,96,83083
1.7840,0.2884,39.0600,70,96,83086
1.7400,0.2688,39.3800,70,96,83089
1.7498,0.2639,39.1900,70,96,83092
1.7595,0.2737,39.2800,70,96,83096
1.7351,0.2786,39.2500,70,96,83099
1.7840,0.2884,39.1200,70,96,83102
1.7498,0.2786,39.1900,70,96,83105
1.7595,0.2737,39.1900,70,96,83109
1.7937,0.2737,39.2200,70,96,83112
1.7889,0.2688,39.2500,70,96,83116
1.8035,0.2933,39.0600,70,96,83119
1.7644,0.2786,39.2200,70,96,83123
1.7595,0.2639,39.1900,70,96,83126
1.7546,0.2688,39.2500,70,96,83129
1.7791,0.2688,39.2500,70,96,83132
1.8231,0.2835,39.0600,70,96,83136
1.7693,0.2835,39.1900,70,96,83139
1.7693,0.2688,38.7100,70,96,83142
1.7644,0.2688,39.2500,70,96,83145
1.7693,0.2688,39.2500,70,96,83149
1.8328,0.2786,39.0900,70,96,83152
1.7986,0.2786,39.1900,70,96,83155
1.7937,0.2639,39.2500,70,96,83159
1.7742,0.2737,39.2500,70,96,83163
1.7693,0.2688,39.2500,70,96,83166
1.8231,0.2884,39.0900,70,96,83169
1.7937,0.2786,39.2500,70,96,83172
1.7889,0.2688,39.2200,70,96,83176
1.7791,0.2688,39.2500,70,96,83179
1.7742,0.2688,39.2500,70,96,83182
1.8231,0.2884,39.0600,70,96,83185
1.7791,0.2835,39.2200,70,96,83189
1.7889,0.2639,39.1600,70,96,83192
1.7889,0.2737,39.2500,70,96,83195
1.7791,0.2737,39.3200,70,96,83198
1.8231,0.2884,39.0600,70,96,83203
1.7937,0.2786,39.1900,70,96,83206
1.7986,0.2639,39.2200,70,96,83209
1.8231,0.2786,39.2800,70,96,83212
1.8280,0.2688,39.2800,70,96,83216
1.8328,0.2737,39.2500,70,96,83219
1.8524,0.2786,39.0600,70,96,83223
1.8133,0.2786,39.2200,70,96,83226
1.8475,0.2786,39.0900,70,96,83229
1.8328,0.2688,39.2500,70,96,83232
1.8573,0.2688,39.2500,70,96,83236
1.9062,0.2786,39.1200,70,96,83239
1.8622,0.2737,39.1900,70,96,83243
1.8817,0.2737,38.9300,70,96,83246
1.8475,0.2688,39.2500,70,96,83250
1.8377,0.2688,39.2500,70,96,83253
1.8573,0.2786,39.1900,70,96,83256
1.8182,0.2639,39.2500,70,96,83259
1.8280,0.2737,39.1900,70,96,83263
1.7840,0.2688,39.2500,70,96,83266
1.7693,0.2688,39.2500,70,96,83269
1.7937,0.2786,39.0900,70,96,83272
1.7449,0.2688,39.2500,70,96,83276
1.7644,0.2737,39.0600,70,96,83279
1.7302,0.2688,39.2500,70,96,83282
1.7155,0.2688,39.2500,70,96,83286
1.7351,0.2786,39.0900,70,96,83290
1.7107,0.2688,39.2800,70,96,83293
1.7351,0.2688,39.1600,70,96,83296
1.7155,0.2688,39.2500,70,96,83299
1.7009,0.2688,39.2200,70,96,83303
1.6960,0.2786,39.2500,70,96,83306
1.6276,0.2688,39.1600,70,96,83309
1.5787,0.2737,39.1200,70,96,83312
1.5249,0.2688,39.2500,70,96,83316
1.5689,0.2493,39.2800,70,96,83319
1.7302,0.2933,39.1200,70,96,83322
1.9404,0.2737,39.2500,70,96,83325
2.3216,0.2737,39.1600,70,96,83330
2.7028,0.2688,39.2800,70,96,83333
3.0987,0.2737,39.2800,70,96,83336
3.5044,0.2981,39.0900,70,96,83339
3.7146,0.2688,39.2200,70,96,83343
3.7683,0.2737,39.1200,70,96,83346
3.5142,0.2737,39.2500,70,96,83349
3.1281,0.2688,39.2200,70,96,83352
2.6882,0.2786,39.1900,70,96,83356
2.1896,0.2737,39.2200,70,96,83359
1.8280,0.2737,39.1900,70,96,83362
1.5543,0.2737,39.2500,70,96,83365
1.4223,0.2981,39.2500,70,96,83369
1.4027,0.2786,39.1600,70,96,83373
1.3783,0.2688,39.2800,70,96,83376
1.4223,0.2737,39.1200,70,96,83379
1.4321,0.3030,39.2500,70,96,83383
1.4663,0.2688,39.0900,70,96,83386
1.5200,0.2786,39.1200,70,96,83389
1.5445,0.2737,39.2200,70,96,83392
1.5591,0.2688,39.1200,70,96,83396
1.5543,0.2688,39.2200,70,96,83399
1.5689,0.2688,39.2500,70,96,83402
1.6031,0.2786,39.1600,70,96,83405
1.5836,0.2737,39.2200,70,96,83409
1.6129,0.2688,39.1600,70,96,83412
1.6080,0.2639,39.2800,70,96,83416
1.6325,0.2688,39.2500,70,96,83419
1.7058,0.2786,39.0900,70,96,83423
1.6422,0.2639,39.2200,70,96,83426
1.6618,0.2688,39.1600,70,96,83429
1.6520,0.2688,39.2500,70,96,83432
1.6960,0.2688,39.2500,70,96,83436
1.7204,0.2884,39.0900,70,96,83439
1.7155,0.2737,39.2200,70,96,83442
1.7400,0.2737,39.1600,70,96,83445
1.7253,0.2786,39.2500,70,96,83449
1.7351,0.2737,39.2500,70,96,83452
1.7840,0.2786,39.1600,70,96,83456
1.7742,0.2737,39.2500,70,96,83459
1.8035,0.2688,39.1600,70,96,83463
1.7840,0.2688,39.2500,70,96,83466
1.7937,0.2639,39.2200,70,96,83469
1.8426,0.2786,39.1200,70,96,83472
1.8231,0.2688,38.4000,70,96,83476
1.8622,0.2688,39.1600,70,96,83479
1.8524,0.2688,39.2800,70,96,83482
1.8573,0.2884,39.2500,70,96,83485
1.8964,0.2786,39.1600,70,96,83489
1.8817,0.2737,39.2200,70,96,83492
1.9159,0.2688,39.1200,70,96,83495
1.9110,0.2737,39.2500,70,96,83499
1.9257,0.2688,39.2500,70,96,83503
1.9746,0.2981,39.1600,70,96,83506
1.9550,0.2737,39.0600,70,96,83509
1.9844,0.2737,39.1200,70,96,83512
1.9795,0.2737,39.2500,70,96,83516
1.9990,0.2590,39.2500,70,96,83519
2.0528,0.2835,39.0900,70,96,83522
2.0283,0.2737,39.2500,70,96,83525
2.0528,0.2639,39.1200,70,96,83529
2.0479,0.2688,39.0300,70,96,83532
2.0723,0.2688,39.3200,70,96,83535
2.1408,0.2786,39.0900,70,96,83538
2.1310,0.2737,39.1900,70,96,83543
2.1554,0.2688,39.1600,70,96,83546
2.1505,0.2737,39.2500,70,96,83549
2.1701,0.2590,39.2500,70,96,83552
2.2385,0.2835,39.0900,70,96,83556
2.2287,0.2688,39.2200,70,96,83559
2.2532,0.2933,39.1600,70,96,83562
2.2581,0.2786,39.2500,70,96,83565
2.2727,0.2688,39.2500,70,96,83569
2.3460,0.2786,39.0600,70,96,83572
2.3167,0.2737,39.2500,70,96,83575
2.3558,0.2688,39.1600,70,96,83578
2.3607,0.2737,39.3500,70,96,83582
2.3656,0.2688,39.2500,70,96,83586
2.4242,0.2737,39.0300,70,96,83589
2.3900,0.2737,39.2500,70,96,83592
2.3900,0.2639,39.1600,70,96,83596
2.3705,0.2688,39.2500,70,96,83599
2.3509,0.2688,39.2500,70,96,83602
2.3851,0.2884,39.1200,70,96,83605
2.3021,0.2737,39.2500,70,96,83609
2.2776,0.2639,39.1900,70,96,83612
2.1896,0.2737,39.2500,70,96,83615
2.1261,0.2737,39.2500,70,96,83618
2.1065,0.3079,39.0300,70,96,83622
1.9746,0.2737,39.3200,70,96,83625
1.8817,0.2639,39.1900,70,96,83629
1.7937,0.2737,39.2200,70,96,83632
1.7204,0.2933,39.2500,70,96,83636
1.7058,0.2835,39.0600,70,96,83639
1.6129,0.2737,39.0600,70,96,83642
1.5787,0.2590,39.1600,70,96,83645
1.4858,0.2884,39.2500,70,96,83649
1.4370,0.2688,38.5800,70,96,83652
1.4516,0.2884,39.0900,70,96,83655
1.3978,0.2835,39.1900,70,96,83658
1.3685,0.2639,39.1900,70,96,83662
1.3392,0.2737,39.2500,70,96,83665
1.3245,0.2688,39.1600,70,96,83668
1.3587,0.2835,39.0600,70,96,83672
1.3245,0.2688,39.1900,70,96,83676
1.3636,0.2493,39.1900,70,96,83679
1.3343,0.2835,39.3200,70,96,83682
1.3343,0.2688,39.1600,70,96,83685
1.3832,0.2884,39.0900,70,96,83689
1.3734,0.2688,39.1900,70,96,83692
1.3783,0.2786,39.1900,70,96,83695
1.3881,0.2737,39.4400,70,96,83698
1.3930,0.2688,39.2800,70,96,83702
1.4418,0.2884,39.0600,70,96,83705
1.4321,0.2688,39.1900,70,96,83708
1.4321,0.2737,39.1600,70,96,83712
1.4467,0.2786,39.2500,70,96,83716
1.4663,0.2688,39.2500,70,96,83719
1.5298,0.2835,39.0600,70,96,83722
1.4907,0.2786,39.2200,70,96,83725
1.4956,0.2737,39.1900,70,96,83729
1.5005,0.2786,39.2500,70,96,83732
1.5054,0.2688,39.2500,70,96,83735
1.5689,0.2786,39.0600,70,96,83738
1.5445,0.2786,39.2500,70,96,83742
1.5445,0.2639,39.2200,70,96,83745
1.5396,0.2737,39.2500,70,96,83748
1.5396,0.2493,39.2500,70,96,83751
1.6325,0.2884,39.0600,70,96,83756
1.5836,0.2786,39.1600,70,96,83759
1.5787,0.2639,39.1900,70,96,83762
1.5787,0.2688,39.2800,70,96,83765
1.5689,0.2688,39.2500,70,96,83769
1.6276,0.2884,39.0900,70,96,83772
1.5836,0.2933,39.1900,70,96,83775
1.5934,0.2639,39.1600,70,96,83778
1.6031,0.2737,39.4400,70,96,83782
1.5885,0.2688,39.2500,70,96,83785
1.6520,0.2835,39.0300,70,96,83788
1.6178,0.2786,39.2800,70,96,83791
1.6227,0.2639,39.1900,70,96,83795
1.6325,0.2688,39.2200,70,96,83799
1.6520,0.2688,39.2500,70,96,83802
1.6764,0.2884,39.0300,70,96,83805
1.6422,0.2786,39.1600,70,96,83809
1.6325,0.2493,39.2200,70,96,83812
1.6422,0.2688,39.2500,70,96,83815
1.6569,0.2639,39.2500,70,96,83818
1.7107,0.2884,39.1600,70,96,83822
1.6667,0.2786,39.0900,70,96,83825
1.6373,0.2737,39.2200,70,96,83829
1.6373,0.2786,39.1200,70,96,83832
1.6031,0.2688,39.2200,70,96,83835
1.6031,0.2688,39.2500,70,96,83838
1.6422,0.2835,39.1900,70,96,83843
1.6471,0.2688,39.2200,70,96,83846
1.6569,0.2688,39.1200,70,96,83849
1.6373,0.3079,39.2500,70,96,83852
1.6422,0.2688,39.3200,70,96,83856
1.6764,0.2786,39.0900,70,96,83859
1.6520,0.2688,39.2500,70,96,83862
1.6813,0.2737,39.1200,70,96,83865
1.6667,0.2688,39.0000,70,96,83869
1.6716,0.2688,39.2500,70,96,83872
1.7155,0.2737,39.1200,70,96,83875
1.6813,0.2737,39.3200,70,96,83878
1.7107,0.2688,39.1900,70,96,83883
1.6911,0.2688,39.2500,70,96,83886
1.6960,0.2688,39.2500,70,96,83889
1.7302,0.2835,39.1600,70,96,83892
1.7009,0.2737,39.2200,70,96,83896
1.7204,0.2688,39.1900,70,96,83899
1.7058,0.2688,39.2500,70,96,83902
1.7155,0.2688,39.3200,70,96,83905
1.7498,0.3079,39.0900,70,96,83909
1.7107,0.2688,39.3200,70,96,83912
1.7204,0.2688,39.1200,70,96,83915
1.7009,0.2737,39.2200,70,96,83918
1.7107,0.2688,39.2500,70,96,83922
1.7498,0.2786,39.1600,70,96,83926
1.7302,0.2688,38.9600,70,96,83929
1.7400,0.2737,39.1900,70,96,83932
1.7155,0.2688,39.4800,70,96,83936
1.7107,0.2688,39.5400,70,96,83939
1.7498,0.2786,39.1900,70,96,83942
1.7400,0.2737,39.2200,70,96,83945
1.7498,0.2786,39.1600,70,96,83949
1.7253,0.2786,39.2500,70,96,83952
1.7253,0.2688,39.2500,70,96,83955
1.7546,0.2786,39.0900,70,96,83958
1.7253,0.2688,39.2200,70,96,83962
1.7595,0.2737,39.1600,70,96,83965
1.7351,0.2786,39.2500,70,96,83969
1.7302,0.2688,39.2800,70,96,83972
1.7595,0.2786,39.0900,70,96,83976
1.7449,0.2737,39.2200,70,96,83979
1.7449,0.3079,39.1600,70,96,83982
1.7253,0.2688,39.3500,70,96,83985
1.7253,0.2688,39.3200,70,96,83989
1.7595,0.2835,39.1600,70,96,83992
1.7302,0.2737,39.2200,70,96,83995
1.7400,0.2688,39.1200,70,96,83998
1.7302,0.2688,39.2200,70,96,84002
1.7449,0.2688,39.2500,70,96,84005
1.7889,0.2786,39.0900,70,96,84008
1.7400,0.2737,39.2500,70,96,84012
1.7449,0.2688,39.0900,70,96,84016
1.7253,0.2688,39.2200,70,96,84019
1.7351,0.2688,39.2500,70,96,84022
1.7693,0.2786,39.0900,70,96,84025
1.7449,0.2737,39.3800,70,96,84029
1.7498,0.2688,39.1600,70,96,84032
1.7302,0.2737,39.2500,70,96,84035
1.7400,0.2933,39.3200,70,96,84038
1.7986,0.2884,39.0300,70,96,84042
1.7889,0.2688,39.2200,70,96,84045
1.8035,0.2542,39.1900,70,96,84048
1.7986,0.3030,39.2200,70,96,84051
1.7937,0.2688,39.2500,70,96,84056
1.8426,0.2786,39.0600,70,96,84059
1.8182,0.2688,39.2200,70,96,84062
1.8377,0.2786,39.1200,70,96,84065
1.8328,0.2688,39.3200,70,96,84069
1.8377,0.2688,39.2500,70,96,84072
1.8866,0.2688,39.0900,70,96,84075
1.8622,0.2786,39.1900,70,96,84078
1.8719,0.2688,39.1600,70,96,84082
1.8622,0.2737,39.2800,70,96,84085
1.8622,0.2688,39.2500,70,96,84088
1.9013,0.2688,39.1200,70,96,84091
1.8524,0.2688,39.1900,70,96,84096
1.8377,0.2688,39.1600,70,96,84099
1.8084,0.2688,39.2200,70,96,84102
1.7986,0.2737,39.2500,70,96,84105
1.8328,0.2786,39.0600,70,96,84109
1.7693,0.2737,39.2200,70,96,84112
1.7595,0.2688,39.1600,70,96,84115
1.7302,0.2688,39.2200,70,96,84118
1.7155,0.2688,39.2500,70,96,84122
1.7498,0.2884,39.1200,70,96,84125
1.7107,0.2786,39.1900,70,96,84128
1.6960,0.2688,39.2200,70,96,84131
1.6716,0.2737,39.2500,70,96,84135
1.6618,0.2688,39.2500,70,96,84139
1.7009,0.2688,39.1200,70,96,84142
1.6716,0.2981,39.1900,70,96,84145
1.6618,0.2688,39.2500,70,96,84149
1.6178,0.2639,39.4800,70,96,84152
1.5591,0.2688,39.2500,70,96,84155
1.5591,0.2786,39.0600,70,96,84158
1.4761,0.2737,39.2200,70,96,84162
1.5591,0.3030,39.1600,70,96,84165
1.7155,0.2688,39.3200,70,96,84168
2.0186,0.2688,39.2500,70,96,84171
2.4536,0.2884,39.0600,70,96,84175
2.8348,0.2688,39.3800,70,96,84178
3.2307,0.2639,39.1600,70,96,84182
3.5337,0.2786,39.2200,70,96,84185
3.7195,0.2688,39.3500,70,96,84189
3.7439,0.2884,38.9600,70,96,84192
3.3871,0.2688,39.1900,70,96,84195
2.9472,0.2639,39.2500,70,96,84198
2.4389,0.2737,39.2800,70,96,84202
2.0039,0.2688,39.1900,70,96,84205
1.7155,0.2835,39.0600,70,96,84208
1.4663,0.2688,39.2500,70,96,84211
1.3685,0.2688,39.1600,70,96,84215
1.3392,0.2688,39.2500,70,96,84218
1.3441,0.2688,39.2500,70,96,84221
1.4174,0.2884,39.0900,70,96,84225
1.4223,0.2786,39.1900,70,96,84229
1.4516,0.2639,38.6500,70,96,84232
1.4712,0.2688,39.2500,70,96,84235
1.4858,0.2688,39.2500,70,96,84238
1.5543,0.2884,39.0900,70,96,84242
1.5347,0.2737,39.2200,70,96,84245
1.5396,0.2639,39.1900,70,96,84248
1.5494,0.2688,39.2500,70,96,84251
1.5885,0.2688,39.2800,70,96,84255
1.6080,0.2884,39.1200,70,96,84258
1.5787,0.2737,39.1900,70,96,84261
1.6031,0.2639,39.1900,70,96,84264
1.6129,0.2737,39.2800,70,96,84269
1.6178,0.2737,39.2500,70,96,84272
1.6764,0.2884,39.0300,70,96,84275
1.6471,0.2786,39.2200,70,96,84278
1.6618,0.2639,39.1600,70,96,84282
1.6716,0.2737,39.2800,70,96,84285
1.6813,0.2737,39.2500,70,96,84288
1.7351,0.2884,39.1200,70,96,84291
1.6960,0.2737,39.2200,70,96,84295
1.7058,0.2493,39.2200,70,96,84298
1.7400,0.2688,39.2200,70,96,84301
1.7302,0.2884,39.2500,70,96,84304
1.7937,0.2884,39.0600,70,96,84308
1.7546,0.2737,39.1900,70,96,84312
1.7595,0.2639,39.2200,70,96,84315
1.7644,0.2786,39.2500,70,96,84318
1.7791,0.2688,39.2800,70,96,84322
1.8573,0.2884,39.0900,70,96,84325
1.8280,0.2786,39.1900,70,96,84328
1.8280,0.2639,39.2500,70,96,84331
1.8328,0.2688,39.2200,70,96,84335
1.8377,0.2688,39.2200,70,96,84338
1.9159,0.2884,39.0600,70,96,84341
1.8915,0.2835,39.1900,70,96,84344
1.9062,0.2639,39.1600,70,96,84348
1.9110,0.2737,39.2500,70,96,84352
1.9208,0.2688,39.2500,70,96,84355
1.9941,0.2884,39.0300,70,96,84358
1.9648,0.2737,39.1600,70,96,84362
1.9746,0.2639,39.1900,70,96,84365
1.9990,0.2737,39.2200,70,96,84368
2.0088,0.2493,39.2500,70,96,84371
2.0772,0.2884,39.0300,70,96,84375
2.0430,0.2688,39.2500,70,96,84378
2.0528,0.2493,39.2200,70,96,84381
2.0723,0.3079,39.3800,70,96,84384
2.0870,0.2688,39.2800,70,96,84388
2.1701,0.2688,39.0000,70,96,84391
2.1310,0.2737,39.2500,70,96,84395
2.1457,0.2639,39.2200,70,96,84398
2.1701,0.2688,38.9300,70,96,84402
2.1945,0.2688,39.2500,70,96,84405
2.2727,0.2835,39.0000,70,96,84408
2.2336,0.2981,39.1600,70,96,84411
2.2434,0.2639,39.2200,70,96,84415
2.2678,0.2737,39.2200,70,96,84418
2.3021,0.2688,39.2500,70,96,84421
2.3803,0.2835,38.9600,70,96,84424
2.3412,0.2688,39.0900,70,96,84428
2.3509,0.2639,39.2500,70,96,84431
2.3509,0.2737,39.2200,70,96,84434
2.3069,0.2688,39.2200,70,96,84439
2.2630,0.2493,39.2500,70,96,84442
2.2483,0.2835,39.1200,70,96,84445
2.1457,0.2737,39.1900,70,96,84449
2.0919,0.2688,39.1600,70,96,84452
2.0088,0.2688,39.2500,70,96,84455
1.9257,0.2639,39.2800,70,96,84458
1.8915,0.2786,39.0900,70,96,84462
1.7937,0.2737,39.1900,70,96,84465
1.7302,0.2639,39.1600,70,96,84468
1.6520,0.2786,39.2500,70,96,84471
1.5934,0.2639,39.3200,70,96,84475
1.5787,0.3079,39.1200,70,96,84478
1.5005,0.2737,39.1900,70,96,84482
1.4565,0.2688,39.1900,70,96,84485
1.4174,0.2737,39.2500,70,96,84489
1.4027,0.2688,39.2500,70,96,84492
1.4223,0.2786,39.0600,70,96,84495
1.3636,0.2688,39.2200,70,96,84498
1.3881,0.2493,39.1900,70,96,84502
1.3539,0.2590,39.2500,70,96,84505
1.3392,0.2933,38.4000,70,96,84508
1.3832,0.2835,39.0900,70,96,84511
1.3783,0.2737,39.2500,70,96,84515
1.3783,0.2688,39.1600,70,96,84518
1.3734,0.2688,39.1900,70,96,84521
1.3734,0.2688,39.2500,70,96,84525
1.4321,0.2835,39.0900,70,96,84529
1.4370,0.2688,39.1600,70,96,84532
1.4370,0.2737,39.1600,70,96,84535
1.4614,0.2737,39.2500,70,96,84538
1.4516,0.2688,39.2800,70,96,84542
1.5005,0.2786,39.0300,70,96,84545
1.4712,0.2737,39.1900,70,96,84548
1.4907,0.2737,39.1600,70,96,84551
1.5054,0.3079,39.2200,70,96,84555
1.5103,0.2688,39.2500,70,96,84558
1.5689,0.2884,39.1200,70,96,84561
1.5396,0.2737,39.1900,70,96,84564
1.5494,0.2737,39.1600,70,96,84569
1.5543,0.2688,39.2200,70,96,84572
1.5591,0.2688,39.1900,70,96,84575
1.6129,0.2835,39.0900,70,96,84578
1.5885,0.2786,39.1600,70,96,84582
1.5885,0.2639,39.2500,70,96,84585
1.5934,0.2639,39.2800,70,96,84588
1.6080,0.2688,38.5500,70,96,84591
1.6569,0.2688,39.0600,70,96,84595
1.6227,0.2737,39.1900,70,96,84598
1.6178,0.2688,39.1600,70,96,84601
1.6129,0.2688,39.1900,70,96,84604
1.6178,0.2688,38.3600,70,96,84609
1.6813,0.2835,39.0900,70,96,84612
1.6667,0.2688,39.1900,70,96,84615
1.6569,0.2688,39.1600,70,96,84618
1.6471,0.2688,39.1600,70,96,84622
1.6325,0.2688,39.2500,70,96,84625
1.6862,0.2835,39.1600,70,96,84628
1.6716,0.2786,39.2200,70,96,84631
1.6618,0.2493,39.1600,70,96,84635
1.6422,0.2737,39.2200,70,96,84638
1.6422,0.2737,39.2500,70,96,84641
1.6813,0.2786,39.0600,70,96,84644
1.6373,0.2737,39.1900,70,96,84648
1.6422,0.2737,39.1600,70,96,84652
1.6422,0.2737,39.2500,70,96,84655
1.6373,0.2835,39.2500,70,96,84658
1.6716,0.2835,39.1600,70,96,84662
1.6325,0.2688,39.2200,70,96,84665
1.6520,0.2639,39.1600,70,96,84668
1.6422,0.2639,39.2500,70,96,84671
1.6373,0.2688,39.2200,70,96,84675
1.6862,0.2835,39.0900,70,96,84678
1.6569,0.2688,39.2200,70,96,84681
1.6520,0.2590,39.2200,70,96,84684
1.6520,0.2737,39.2200,70,96,84688
1.6667,0.2688,39.2200,70,96,84691
1.7204,0.2786,39.1900,70,96,84695
1.6764,0.2688,39.1900,70,96,84698
1.6716,0.2590,39.1600,70,96,84702
1.6764,0.2786,39.2200,70,96,84705
1.6862,0.2688,39.5400,70,96,84708
1.7351,0.2835,39.0600,70,96,84711
1.7155,0.2688,39.2200,70,96,84715
1.7058,0.2737,39.1600,70,96,84718
1.6862,0.2688,39.2200,70,96,84721
1.6764,0.2688,39.4400,70,96,84724
1.7351,0.2835,39.0900,70,96,84728
1.7204,0.2737,39.1900,70,96,84731
1.7155,0.2639,39.1600,70,96,84734
1.7107,0.3030,39.3200,70,96,84738
1.7107,0.2688,39.3800,70,96,84742
1.7644,0.2786,39.0600,70,96,84745
1.7204,0.2737,39.2200,70,96,84748
1.7302,0.2639,39.1600,70,96,84751
1.7302,0.3030,39.2800,70,96,84755
1.7351,0.2688,39.2500,70,96,84758
1.7840,0.2835,39.0900,70,96,84761
1.7351,0.2639,39.1900,70,96,84764
1.7498,0.2639,39.1600,70,96,84768
1.7449,0.2688,39.4100,70,96,84771
1.7449,0.2688,39.2800,70,96,84774
1.7889,0.2933,39.0600,70,96,84777
1.7595,0.2786,39.1900,70,96,84782
1.7546,0.2639,39.2500,70,96,84785
1.7546,0.2688,39.2500,70,96,84788
1.7742,0.2639,39.2500,70,96,84791
1.8182,0.2786,39.0600,70,96,84795
1.7693,0.2737,39.1900,70,96,84798
1.7644,0.2737,39.1200,70,96,84801
1.7644,0.2688,39.2500,70,96,84805
1.7644,0.2688,39.2500,70,96,84808
1.8231,0.2835,39.0600,70,96,84811
1.7791,0.2688,39.4400,70,96,84814
1.7840,0.2639,39.1900,70,96,84817
1.7595,0.2737,39.2200,70,96,84822
1.7546,0.2493,39.2500,70,96,84825
1.8133,0.2884,39.0600,70,96,84828
1.7840,0.2737,39.1900,70,96,84831
1.7791,0.2639,39.1900,70,96,84835
1.7889,0.2737,39.2200,70,96,84838
1.7937,0.2688,39.2500,70,96,84841
1.8524,0.2835,38.9600,70,96,84844
1.8133,0.2737,39.2200,70,96,84848
1.8280,0.2639,39.1900,70,96,84851
1.8426,0.2737,39.2200,70,96,84854
1.8426,0.2688,39.2500,70,96,84858
1.8964,0.2884,39.1600,70,96,84861
1.8524,0.2688,39.1900,70,96,84865
1.8768,0.2639,39.1900,70,96,84868
1.8768,0.2786,39.2200,70,96,84872
1.8817,0.2786,39.2500,70,96,84875
1.9453,0.2884,39.0000,70,96,84878
1.9062,0.2786,39.1900,70,96,84881
1.8964,0.2737,39.1900,70,96,84885
1.9013,0.2688,39.3200,70,96,84888
1.8915,0.2688,39.2200,70,96,84891
1.9501,0.2884,39.0600,70,96,84894
1.8768,0.2737,39.2200,70,96,84898
1.8475,0.2688,39.1600,70,96,84901
1.8280,0.2933,39.1900,70,96,84904
1.8133,0.2639,39.2500,70,96,84908
1.8622,0.2688,39.0600,70,96,84912
1.8084,0.2688,39.2200,70,96,84915
1.7937,0.2688,39.2500,70,96,84918
1.7644,0.2688,39.3200,70,96,84921
1.7351,0.3177,39.2200,70,96,84925
1.7840,0.2884,38.4600,70,96,84928
1.7400,0.2737,39.1900,70,96,84931
1.7351,0.2737,39.2200,70,96,84934
1.7644,0.2639,39.2500,70,96,84938
1.7253,0.2639,39.3500,70,96,84941
1.7840,0.2884,39.0600,70,96,84944
1.7302,0.2737,39.1900,70,96,84947
1.7546,0.2493,39.1900,70,96,84952
1.6911,0.2639,39.2200,70,96,84955
1.6422,0.2688,39.1200,70,96,84958
1.6471,0.2884,39.0600,70,96,84961
1.6031,0.2688,39.1900,70,96,84965
1.7058,0.2688,39.2500,70,96,84968
1.9013,0.2688,39.4100,70,96,84971
2.1994,0.2688,39.1200,70,96,84974
2.6686,0.2688,39.0600,70,96,84978
3.0108,0.3030,39.1900,70,96,84981
3.3529,0.2639,39.2200,70,96,84984
3.6364,0.2688,39.2200,70,96,84987
3.7390,0.2590,39.2500,70,96,84992
3.7341,0.2884,39.0300,70,96,84995
3.3236,0.2688,39.2500,70,96,84998
2.8641,0.2639,39.2500,70,96,85001
2.3803,0.2737,39.2500,70,96,85005
1.9648,0.2688,39.2500,70,96,85008
1.7155,0.2884,39.0300,70,96,85011
1.4956,0.2688,39.1900,70,96,85014
1.4321,0.2590,39.2800,70,96,85018
1.3978,0.2786,39.2500,70,96,85021
1.3978,0.2737,39.3200,70,96,85024
1.4712,0.2884,39.2500,70,96,85027
1.4761,0.2737,39.1900,70,96,85031
1.5152,0.2639,39.2200,70,96,85035
1.5543,0.2688,39.2200,70,96,85038
1.5738,0.2590,39.2200,70,96,85041
1.6471,0.2884,39.0300,70,97,85045
1.6862,0.2786,39.1200,70,97,85048
1.6569,0.2688,39.2200,70,97,85052
1.6813,0.2639,39.0900,70,97,85055
1.6569,0.2688,39.2200,70,97,85058
1.6716,0.2688,39.2200,70,97,85061
1.7107,0.2835,39.1900,70,97,85065
1.7058,0.2835,39.2500,70,97,85068
1.7400,0.2688,39.2500,70,97,85071
1.7400,0.2688,39.2200,70,97,85074
1.7693,0.2639,39.2500,70,97,85079
1.8280,0.2786,39.1200,70,97,85082
1.8035,0.2737,39.2200,70,97,85085
1.8182,0.2688,39.1200,70,97,85088
1.8084,0.2688,39.2500,70,97,85092
1.8280,0.2639,39.2500,70,97,85095
1.8768,0.2786,39.1900,70,97,85098
1.8671,0.2688,39.2200,70,97,85101
1.9013,0.2688,39.1900,70,97,85105
1.8768,0.2688,39.2500,70,97,85108
1.8915,0.2639,39.2500,70,97,85111
1.9453,0.2786,39.1600,70,97,85114
1.9355,0.2737,39.2200,70,97,85118
1.9648,0.2688,39.0900,70,97,85122
1.9501,0.2688,38.4600,70,97,85125
1.9599,0.2639,39.2800,70,97,85128
2.0088,0.2737,39.0600,70,97,85132
1.9844,0.2884,39.2200,70,97,85135
2.0235,0.2688,39.2200,70,97,85138
2.0186,0.2688,39.2500,70,97,85141
2.0332,0.2786,39.3200,70,97,85145
2.0821,0.2786,39.2200,70,97,85148
2.0577,0.2688,39.2200,70,97,85151
2.0919,0.2737,39.1600,70,97,85154
2.0870,0.2688,39.3500,70,97,85158
2.1017,0.2688,39.2500,70,97,85161
2.1750,0.2786,39.1200,70,97,85165
2.1359,0.2737,39.2500,70,97,85168
2.1554,0.2639,39.1200,70,97,85171
2.1603,0.2688,39.2200,70,97,85175
2.1994,0.2639,39.2500,70,97,85178
2.2483,0.2786,39.1200,70,97,85181
2.2190,0.2981,39.2200,70,97,85185
2.2434,0.2688,39.1600,70,97,85188
2.2532,0.2688,39.2500,70,97,85191
2.2776,0.2590,39.2500,70,97,85194
2.3558,0.2786,38.8700,70,97,85197
2.3412,0.2688,39.3500,70,97,85201
2.3754,0.2493,39.1600,70,97,85204
2.3607,0.2590,39.2200,70,97,85208
2.3754,0.2639,39.2200,70,97,85211
2.4487,0.2835,39.0900,70,97,85215
2.4242,0.2737,39.1900,70,97,85218
2.4389,0.2688,39.2800,70,97,85221
2.4242,0.2688,39.1900,70,97,85224
2.4194,0.2688,39.2500,70,97,85228
2.4633,0.2786,39.0600,70,97,85231
2.3949,0.2737,39.1600,70,97,85234
2.3803,0.2639,39.1600,70,97,85237
2.3412,0.2688,39.2500,70,97,85241
2.2825,0.2590,39.3200,70,97,85244
2.2825,0.2835,39.0600,70,97,85248
2.1603,0.2688,39.2200,70,97,85251
2.1163,0.2639,39.1900,70,97,85255
2.0137,0.2786,39.2200,70,97,85258
1.9257,0.2786,39.2500,70,97,85261
1.9062,0.2884,39.0600,70,97,85264
1.7889,0.2786,39.1900,70,97,85268
1.7204,0.2737,39.1600,70,97,85271
1.6569,0.2542,39.2200,70,97,85274
1.6080,0.2688,39.2500,70,97,85277
1.6129,0.2884,39.0300,70,97,85281
1.5152,0.2737,39.2200,70,97,85284
1.4761,0.2590,39.1600,70,97,85287
1.4467,0.2688,39.2500,70,97,85291
1.4272,0.2639,39.2200,70,97,85295
1.4956,0.2884,39.0600,70,97,85298
1.4174,0.2737,39.1900,70,97,85301
1.4174,0.2639,39.3200,70,97,85304
1.4076,0.2688,39.2200,70,97,85308
1.3978,0.2688,39.2500,70,97,85311
1.4907,0.2786,39.0600,70,97,85314
1.4418,0.2786,39.2500,70,97,85317
1.4467,0.2639,39.1900,70,97,85321
1.4516,0.2737,39.2800,70,97,85324
1.4614,0.2590,39.2500,70,97,85327
1.5152,0.2884,39.0600,70,97,85330
1.4761,0.2688,39.2500,70,97,85335
1.4858,0.2639,39.2200,70,97,85338
1.5054,0.2737,39.2200,70,97,85341
1.5200,0.2835,39.3200,70,97,85344
1.5787,0.2884,39.0300,70,97,85348
1.5396,0.2688,39.2200,70,97,85351
1.5640,0.2590,39.2200,70,97,85354
1.5738,0.2639,39.2500,70,97,85357
1.5591,0.2688,39.2500,70,97,85361
1.6325,0.2884,39.1200,70,97,85364
1.6031,0.2688,39.1200,70,97,85367
1.5982,0.2542,39.2200,70,97,85370
1.6080,0.2786,39.3200,70,97,85374
1.6276,0.2639,39.3200,70,97,85378
1.6911,0.2884,39.0300,70,97,85381
1.6325,0.2688,39.1900,70,97,85384
1.6325,0.2639,39.1900,70,97,85388
1.6422,0.2688,39.3200,70,97,85391
1.6520,0.2688,39.2800,70,97,85394
1.7155,0.2786,39.0000,70,97,85397
1.6813,0.2737,39.2200,70,97,85401
1.6862,0.2639,39.1900,70,97,85404
1.6813,0.2688,39.1600,70,97,85407
1.6716,0.2639,39.3500,70,97,85410
1.7351,0.2884,39.0000,70,97,85414
1.7107,0.2688,39.1200,70,97,85417
1.7107,0.2639,39.1600,70,97,85421
1.7107,0.2737,39.2200,70,97,85424
1.7058,0.2688,39.2500,70,97,85428
1.7595,0.2933,39.0000,70,97,85431
1.7107,0.2688,39.1900,70,97,85434
1.7107,0.2639,39.2200,70,97,85437
1.7155,0.2688,39.3200,70,97,85441
1.7058,0.2737,39.2500,70,97,85444
1.7498,0.2933,38.9600,70,97,85447
1.7009,0.2493,39.2500,70,97,85451
1.7058,0.2590,39.1600,70,97,85454
1.7009,0.2688,39.2200,70,97,85457
1.6862,0.2639,39.2800,70,97,85460
1.7351,0.2933,39.0000,70,97,85464
1.6911,0.2688,39.1600,70,97,85468
1.6764,0.2639,39.2200,70,97,85471
1.6764,0.2688,39.2500,70,97,85474
1.6862,0.2590,39.2800,70,97,85477
1.7400,0.2884,38.9600,70,97,85481
1.6862,0.2688,39.2200,70,97,85484
1.6813,0.2639,39.2200,70,97,85487
1.6911,0.2688,39.2200,70,97,85490
1.6764,0.2639,39.2500,70,97,85494
1.7400,0.2884,38.9600,70,97,85497
1.6960,0.2688,39.1900,70,97,85500
1.7107,0.2688,39.2200,70,97,85504
1.6911,0.2737,39.3200,70,97,85508
1.6764,0.2639,39.3200,70,97,85511
1.7400,0.2884,39.1900,70,97,85514
1.7204,0.2737,39.1200,70,97,85517
1.7107,0.2542,39.2200,70,97,85521
1.7253,0.2737,39.2200,70,97,85524
1.7204,0.2884,39.3200,70,97,85527
1.7693,0.2884,39.2200,70,97,85531
1.7155,0.2688,39.1600,70,97,85534
1.7253,0.2590,39.2200,70,97,85537
1.7351,0.2737,39.1900,70,97,85540
1.7302,0.2737,39.2200,70,97,85544
1.7840,0.2884,39.4400,70,97,85548
1.7400,0.2688,39.2500,70,97,85551
1.7546,0.2590,39.3200,70,97,85554
1.7595,0.2737,39.3200,70,97,85558
1.7546,0.2933,39.2800,70,97,85561
1.8084,0.2884,38.7100,70,97,85564
1.7644,0.2688,39.1200,70,97,85567
1.7644,0.2542,39.2200,70,97,85571
1.7644,0.2688,39.2200,70,97,85574
1.7742,0.2590,39.3200,70,97,85577
1.8377,0.2884,38.6800,70,97,85580
1.7693,0.2688,39.1900,70,97,85584
1.7693,0.2590,39.2800,70,97,85587
1.7644,0.2737,39.2200,70,97,85591
1.7693,0.2688,39.2500,70,97,85594
1.8328,0.2884,38.9600,70,97,85598
1.7937,0.2688,39.1900,70,97,85601
1.7986,0.2590,39.2200,70,97,85604
1.7937,0.2737,39.2200,70,97,85607
1.7791,0.2639,39.2500,70,97,85611
1.8426,0.2884,39.0000,70,97,85614
1.8133,0.2737,39.1200,70,97,85617
1.8231,0.2493,39.2200,70,97,85620
1.8182,0.2688,39.2500,70,97,85624
1.8182,0.2737,39.2500,70,97,85627
1.8671,0.2884,38.9600,70,97,85630
1.8084,0.2933,39.1200,70,97,85634
1.8182,0.2590,39.2200,70,97,85638
1.8231,0.2688,39.2200,70,97,85641
1.8133,0.2688,39.3200,70,97,85644
1.8622,0.2884,38.9600,70,97,85647
1.8084,0.2639,39.1600,70,97,85651
1.8133,0.2590,39.2200,70,97,85654
1.8182,0.2688,39.2200,71,97,85657
1.8280,0.2688,39.3200,71,97,85661
1.8475,0.2639,39.2200,71,97,85664
1.8866,0.2786,39.1600,71,97,85667
1.8328,0.2688,39.2200,71,97,85671
1.8768,0.2639,39.1200,71,97,85675
1.8524,0.2590,39.2500,71,97,85678
1.8768,0.2835,39.2200,71,97,85681
1.9306,0.2786,39.1200,71,97,85685
1.9257,0.2688,39.2200,71,97,85688
1.9599,0.2737,39.1200,71,97,85691
1.9257,0.2688,39.2200,71,97,85694
1.9257,0.2835,39.2500,71,97,85698
1.9599,0.2786,38.4300,71,97,85701
1.9404,0.2688,39.1900,71,97,85704
1.9550,0.2639,39.1600,71,97,85707
1.9110,0.2737,39.2200,71,97,85711
1.8915,0.2639,39.2500,71,97,85714
1.9013,0.2786,39.0600,71,97,85718
1.8475,0.2688,39.2200,71,97,85721
1.8524,0.2933,39.1900,71,97,85725
1.8231,0.2590,39.2200,71,97,85728
1.8084,0.2639,39.3200,71,97,85731
1.8280,0.2786,39.1200,71,97,85734
1.8133,0.2590,39.2200,71,97,85738
1.7986,0.2786,39.1600,71,97,85741
1.7693,0.2688,39.3500,71,97,85744
1.7693,0.2639,39.2500,71,97,85747
1.8035,0.2786,39.1600,71,97,85751
1.7742,0.2786,39.2200,71,97,85754
1.7889,0.3030,39.1200,71,97,85757
1.7644,0.2688,39.1600,71,97,85761
1.7595,0.2639,39.2500,71,97,85765
1.7400,0.2786,39.0600,71,97,85768
1.6422,0.2639,39.2200,71,97,85771
1.6031,0.2639,39.0900,71,97,85774
1.5982,0.2688,39.2500,71,97,85778
1.7107,0.2590,39.2500,71,97,85781
1.9892,0.2786,39.1200,71,97,85784
2.3069,0.2688,39.2200,71,97,85787
2.7468,0.2688,39.1200,71,97,85791
3.1085,0.2688,39.2500,71,97,85794
3.4751,0.2639,39.2800,71,97,85797
3.8319,0.2786,39.1200,71,97,85800
3.8661,0.2688,39.2200,71,97,85805
3.7146,0.2639,39.1200,71,97,85808
3.3138,0.2590,39.2500,71,97,85811
2.8250,0.2639,39.2800,71,97,85814
2.3754,0.2688,39.0300,71,97,85818
1.9159,0.2493,39.2200,71,97,85821
1.6520,0.2639,39.1200,71,97,85824
1.4907,0.2688,39.3200,71,97,85827
1.4370,0.2688,39.2200,71,97,85831
1.4614,0.2737,39.0900,71,97,85834
1.4516,0.2688,39.2200,71,97,85837
1.4907,0.2639,39.2200,71,97,85840
1.5249,0.2493,39.2500,71,97,85844
1.5738,0.2493,39.2500,71,97,85848
1.6129,0.2835,39.1200,71,97,85851
1.5934,0.2688,39.0900,71,97,85854
1.6129,0.2639,39.1600,71,97,85858
1.6178,0.2688,39.2200,71,97,85861
1.6373,0.2493,39.2500,71,97,85864
1.6862,0.2835,39.0600,71,97,85867
1.6520,0.2688,39.2200,71,97,85871
1.6716,0.2688,39.2200,71,97,85874
1.6716,0.2688,39.2500,71,97,85877
1.7009,0.2493,39.2500,71,97,85880
1.7498,0.2884,39.1200,71,97,85884
1.7351,0.2688,39.1600,71,97,85888
1.7595,0.2639,39.1600,71,97,85891
1.7449,0.2688,39.3800,71,97,85894
1.7595,0.2590,39.2500,71,97,85898
1.8182,0.2835,39.1200,71,97,85901
1.7986,0.2737,39.2200,71,97,85904
1.8231,0.2639,39.1200,71,97,85907
1.8231,0.2688,39.3200,71,97,85911
1.8377,0.2639,39.2800,71,97,85914
1.8817,0.2786,39.0600,71,97,85917
1.8524,0.2688,39.2200,71,97,85920
1.8817,0.2639,39.1600,71,97,85924
1.8817,0.2688,39.2500,71,97,85927
1.8964,0.2639,39.2500,71,97,85931
1.9404,0.2835,39.0600,71,97,85934
1.9208,0.3079,39.2200,71,97,85938
1.9404,0.2639,39.1600,71,97,85941
1.9501,0.2688,39.2200,71,97,85944
1.9550,0.2688,39.2500,71,97,85947
2.0088,0.2786,39.3500,71,97,85951
1.9746,0.2737,39.2200,71,97,85954
1.9844,0.2639,39.1600,71,97,85957
1.9795,0.2493,39.2200,71,97,85960
2.0088,0.2737,39.3200,71,97,85964
2.0772,0.2786,39.0600,71,97,85967
2.0430,0.2688,39.2500,71,97,85970
2.0577,0.2639,39.0900,71,97,85974
2.0577,0.2688,39.2500,71,97,85978
2.0772,0.2639,39.2500,71,97,85981
2.1554,0.2835,39.0600,71,97,85984
2.1212,0.2688,39.2200,71,97,85987
2.1457,0.2639,39.1900,71,97,85991
2.1408,0.2590,39.2200,71,97,85994
2.1554,0.2639,39.2800,71,97,85997
2.2434,0.2835,39.4800,71,97,86000
2.2239,0.2688,39.1900,71,97,86004
2.2483,0.2639,39.1900,71,97,86007
2.2630,0.2688,39.2500,71,97,86010
2.2776,0.2688,39.2500,71,97,86013
2.3607,0.2884,39.0600,71,97,86018
2.3265,0.2688,39.1900,71,97,86021
2.3900,0.2639,39.1600,71,97,86024
2.3803,0.2688,39.2200,71,97,86027
2.4047,0.2688,39.4800,71,97,86031
2.4878,0.2884,39.0600,71,97,86034
2.4389,0.2737,39.1900,71,97,86037
2.4585,0.2639,39.1600,71,97,86040
2.4633,0.2688,39.2200,71,97,86044
2.4731,0.2688,39.2500,71,97,86047
2.5513,0.2884,39.0600,71,97,86050
2.4878,0.2737,39.1900,71,97,86053
2.4731,0.2639,39.1600,71,97,86057
2.4536,0.2639,39.1900,71,97,86061
2.4389,0.2639,39.2500,71,97,86064
2.4731,0.2688,39.0600,71,97,86067
2.3509,0.2737,39.2200,71,97,86071
2.2874,0.2639,39.1600,71,97,86074
2.2141,0.2688,39.3200,71,97,86077
2.1408,0.2639,39.2500,71,97,86080
2.1310,0.2786,39.0300,71,97,86084
1.9941,0.2835,39.1900,71,97,86087
1.9159,0.2639,39.4100,71,97,86090
1.8133,0.2688,39.2500,71,97,86093
1.7351,0.2639,39.2500,71,97,86097
1.7253,0.2835,39.0300,71,97,86100
1.6325,0.2835,39.1600,71,97,86104
1.5689,0.2639,39.4100,71,97,86107
1.5200,0.2688,39.2200,71,97,86111
1.4712,0.2639,39.2500,71,97,86114
1.4956,0.2835,38.9300,71,97,86117
1.4174,0.2737,39.1900,71,97,86120
1.4125,0.2786,39.1600,71,97,86124
1.4076,0.2688,39.0900,71,97,86127
1.3930,0.2688,39.2800,71,97,86130
1.4418,0.2835,39.0000,71,97,86133
1.4027,0.2688,39.1900,71,97,86137
1.4125,0.2590,39.2200,71,97,86140
1.4467,0.2737,39.2200,71,97,86144
1.4174,0.2737,39.2200,71,97,86147
1.4761,0.3079,39.0600,71,97,86151
1.4467,0.2737,39.1200,71,97,86154
1.4418,0.2639,39.2200,71,97,86157
1.4565,0.2688,39.2200,71,97,86160
1.4809,0.2737,39.3200,71,97,86164
1.5494,0.2884,39.0000,71,97,86167
1.5005,0.2688,39.1900,71,97,86170
1.5054,0.2639,39.2200,71,97,86173
1.5152,0.2688,39.1900,71,97,86177
1.5249,0.2639,39.3200,71,97,86180
1.5982,0.2884,39.0000,71,97,86183
1.5640,0.2493,39.2200,71,97,86187
1.5836,0.2639,39.2500,71,97,86191
1.5836,0.2688,39.2800,71,97,86194
1.5689,0.2639,39.3200,71,97,86197
1.6325,0.2688,39.0000,71,97,86200
1.6129,0.2737,39.1200,71,97,86204
1.6178,0.2639,39.2200,71,97,86207
1.6276,0.2688,39.2500,71,97,86210
1.6373,0.2639,39.2500,71,97,86213
1.7155,0.2786,39.0000,71,97,86217
1.6422,0.2688,39.1900,71,97,86220
1.6569,0.2688,39.2200,71,97,86223
1.6618,0.2688,39.3200,71,97,86226
1.6716,0.2688,39.2200,71,97,86231
1.7302,0.2884,38.9600,71,97,86234
1.6813,0.2688,39.1600,71,97,86237
1.6960,0.2590,39.2200,71,97,86240
1.6960,0.2688,39.2200,71,97,86244
1.7009,0.2737,39.2200,71,97,86247
1.7546,0.2933,39.0000,71,97,86250
1.7204,0.2688,39.0900,71,97,86253
1.7009,0.2493,39.2500,71,97,86257
1.7204,0.2688,39.2200,71,97,86260
1.7253,0.3030,39.2200,71,97,86263
1.7840,0.2884,38.9600,71,97,86266
1.7449,0.2786,39.1600,71,97,86270
1.7107,0.2688,39.2500,71,97,86274
1.7107,0.2688,39.1600,71,97,86278
1.6764,0.2737,39.2200,71,97,86281
1.6618,0.2639,39.2200,71,97,86284
1.7009,0.2884,39.1200,71,97,86287
1.6911,0.2688,39.1900,71,97,86291
1.7155,0.2688,39.1200,71,97,86294
1.7058,0.2737,39.2500,71,97,86297
1.7107,0.2639,39.2800,71,97,86300
1.7498,0.2835,39.1200,71,97,86304
1.7155,0.2639,39.1900,71,97,86307
1.7449,0.2688,39.2500,71,97,86310
1.7351,0.2688,39.2500,71,97,86313
1.7693,0.2493,39.2500,71,97,86318
1.7693,0.2786,39.1900,71,97,86321
1.7400,0.2933,39.3200,71,97,86324
1.7693,0.2688,39.1900,71,97,86327
1.7449,0.2688,39.2200,71,97,86331
1.7546,0.2639,39.2500,71,97,86334
1.8084,0.2786,39.1600,71,97,86337
1.7546,0.2786,39.1900,71,97,86340
1.7546,0.2688,39.1600,71,97,86344
1.7498,0.2688,39.1600,71,97,86347
1.7644,0.2639,39.2500,71,97,86350
1.7986,0.2835,39.0900,71,97,86353
1.7595,0.2737,39.3200,71,97,86358
1.7742,0.2688,39.0900,71,97,86361
1.7546,0.2688,39.2500,71,97,86364
1.7889,0.2493,39.2200,71,97,86367
1.7937,0.2786,39.1200,71,97,86371
1.7742,0.2639,39.2200,71,97,86374
1.7889,0.2688,39.2800,71,97,86377
1.7546,0.2688,39.2500,71,97,86380
1.7595,0.2639,39.2200,71,97,86384
1.7986,0.2786,39.1200,71,97,86387
1.7840,0.2639,39.1900,71,97,86390
1.8035,0.2688,39.1200,71,97,86393
1.7937,0.2688,39.2200,71,97,86397
1.7986,0.2639,39.2500,71,97,86401
1.8280,0.2737,39.0600,71,97,86404
1.7889,0.2688,39.3500,71,97,86407
1.8133,0.2688,39.1600,71,97,86411
1.8035,0.2688,39.2200,71,97,86414
1.7937,0.2933,39.2200,71,97,86417
1.8280,0.2786,39.1200,71,97,86420
1.7937,0.2688,39.2200,71,97,86424
1.8084,0.2737,39.1600,71,97,86427
1.7889,0.2786,39.2500,71,97,86430
1.7889,0.2933,39.2800,71,97,86433
1.8328,0.2786,39.1200,71,97,86437
1.8035,0.2688,39.1900,71,97,86440
1.8084,0.2737,39.0900,71,97,86444
1.8035,0.2688,39.2200,71,97,86447
1.8133,0.2639,39.2500,71,97,86451
1.8671,0.2786,39.0600,71,97,86454
1.8084,0.2688,39.2500,71,97,86457
1.8133,0.2639,39.2800,71,97,86460
1.7986,0.2688,39.2200,71,97,86464
1.8035,0.2639,39.2500,71,97,86467
1.8524,0.3079,39.1200,71,97,86470
1.8231,0.2737,39.2200,71,97,86473
1.8377,0.2639,39.1600,71,97,86477
1.8084,0.2688,39.2200,71,97,86480
1.7986,0.2639,39.2500,71,97,86483
1.8475,0.2884,39.0900,71,97,86487
1.8231,0.2688,39.1900,71,97,86491
1.8328,0.2639,39.1200,71,97,86494
1.8182,0.2688,39.2500,71,97,86497
1.8719,0.2688,39.2200,71,97,86500
1.8768,0.2835,39.0600,71,97,86504
1.8524,0.2688,39.2200,71,97,86507
1.8817,0.2639,39.1600,71,97,86510
1.8817,0.2688,39.2500,71,97,86513
1.8866,0.2639,39.2200,71,97,86517
1.9355,0.2786,38.5200,71,97,86520
1.9013,0.2688,39.2200,71,97,86523
1.9257,0.2493,39.1900,71,97,86526
1.9110,0.2590,39.2500,71,97,86531
1.9257,0.2933,39.2500,71,97,86534
1.9795,0.2835,39.1600,71,97,86537
1.9453,0.2688,39.1900,71,97,86541
1.9501,0.2639,39.1600,71,97,86544
1.9355,0.2688,39.2200,71,97,86547
1.9795,0.2639,39.2200,71,97,86550
1.9892,0.3030,39.0300,71,97,86554
1.9257,0.2688,39.3200,71,97,86557
1.9110,0.2639,39.1600,71,97,86560
1.8671,0.2688,39.2200,71,97,86563
1.8524,0.2737,39.3200,71,97,86567
1.8866,0.2835,39.0900,71,97,86571
1.8377,0.2688,39.1900,71,97,86574
1.8377,0.2639,39.1600,71,97,86577
1.7986,0.2786,39.2200,71,97,86581
1.7742,0.2933,39.1900,71,97,86584
1.8084,0.2786,39.0900,71,97,86587
1.7742,0.2688,39.2200,71,97,86590
1.7693,0.2688,39.1600,71,97,86594
1.7595,0.2688,39.2200,71,97,86597
1.7546,0.2737,39.3200,71,97,86600
1.7937,0.2786,39.0000,71,97,86603
1.7498,0.2688,39.2200,71,97,86607
1.7595,0.2737,39.1600,71,97,86610
1.7204,0.2688,39.2200,71,97,86614
1.6716,0.2688,39.2800,71,97,86617
1.6373,0.2835,39.1200,71,97,86621
1.5640,0.2688,39.1900,71,97,86624
1.6325,0.2639,39.1600,71,97,86627
1.7204,0.2737,39.2500,71,97,86630
1.9648,0.2639,39.2200,71,97,86634
2.3754,0.2835,39.3800,71,97,86637
2.7419,0.2688,39.1900,71,97,86640
3.1476,0.2737,39.1600,71,97,86643
3.4995,0.2688,39.2500,71,97,86647
3.7732,0.2737,39.2500,71,97,86650
3.9150,0.2786,39.0600,71,97,86653
3.6461,0.2688,39.1200,71,97,86657
3.2796,0.2639,39.1600,71,97,86661
2.7664,0.2688,39.2200,71,97,86664
2.2678,0.2590,39.2500,71,97,86667
1.9355,0.2835,39.0300,71,97,86670
1.6276,0.2688,39.2200,71,97,86674
1.5054,0.2590,39.1600,71,97,86677
1.4370,0.2688,39.2200,71,97,86680
1.4272,0.2884,39.2500,71,97,86683
1.4907,0.2835,39.0600,71,97,86687
1.4956,0.2737,39.1900,71,97,86690
1.5396,0.2737,39.1600,71,97,86693
1.5640,0.2737,39.2500,71,97,86696
1.5885,0.2639,39.3800,71,97,86701
1.6373,0.2786,39.0600,71,97,86704
1.5982,0.2688,39.2200,71,97,86707
1.6276,0.2590,39.1600,71,97,86710
1.6325,0.2737,39.2200,71,97,86714
1.6422,0.2688,39.2200,71,97,86717
1.6764,0.2835,39.0900,71,97,86720
1.6569,0.2688,39.1900,71,97,86723
1.6813,0.2688,39.1900,71,97,86727
1.6813,0.2688,39.2500,71,97,86730
1.6960,0.2639,39.3800,71,97,86733
1.7498,0.2835,39.0600,71,97,86736
1.7253,0.2639,39.1900,71,97,86740
1.7351,0.2639,39.3500,71,97,86744
1.7400,0.2688,39.2200,71,97,86747
1.7644,0.2639,39.2500,71,97,86750
1.8182,0.2688,39.0600,71,97,86754
1.7742,0.2737,39.1900,71,97,86757
1.7937,0.2786,39.1600,71,97,86760
1.7937,0.2688,39.2200,71,97,86763
1.8084,0.2639,39.2500,71,97,86767
1.9013,0.2786,39.0900,71,97,86770
1.8573,0.2737,39.1900,71,97,86773
1.8768,0.2639,38.4600,71,97,86776
1.8671,0.2688,39.2500,71,97,86780
1.8671,0.2639,39.2500,71,97,86784
1.9355,0.2835,39.0900,71,97,86787
1.9159,0.2639,39.2200,71,97,86790
1.9404,0.2639,39.2800,71,97,86794
1.9404,0.2688,39.4100,71,97,86797
1.9550,0.2639,39.2500,71,97,86800
2.0088,0.2835,39.0300,71,97,86803
1.9697,0.2688,39.2800,71,97,86807
1.9941,0.2639,39.1900,71,97,86810
2.0235,0.2786,39.2500,71,97,86813
2.0186,0.2688,39.3500,71,97,86816
2.0870,0.2884,39.0600,71,97,86820
2.0430,0.2884,39.2200,71,97,86823
2.0674,0.2639,39.1900,71,97,86827
2.1065,0.2737,39.2200,71,97,86830
2.0919,0.2639,39.2500,71,97,86834
2.1750,0.2884,39.0000,71,97,86837
2.1359,0.2737,39.1900,71,97,86840
2.1457,0.2639,39.2200,71,97,86843
2.1652,0.2688,39.2200,71,97,86847
2.1896,0.2688,39.2200,71,97,86850
2.2825,0.2884,39.0900,71,97,86853
2.2385,0.2737,39.1900,71,97,86856
2.2776,0.2590,39.1900,71,97,86860
2.2727,0.2688,39.1600,71,97,86863
2.2972,0.2639,39.2200,71,97,86866
2.4242,0.2884,39.0300,71,97,86870
2.3656,0.2688,39.1900,71,97,86874
2.3851,0.2590,39.2500,71,97,86877
2.3949,0.2688,39.2800,71,97,86880
2.4682,0.2688,39.2200,71,97,86885
2.4731,0.2639,39.2500,71,97,86888
2.4927,0.2786,39.0300,71,97,86891
2.4291,0.2688,39.1600,71,97,86895
2.4487,0.2688,39.1200,71,97,86898
2.4047,0.2688,39.1900,71,97,86901
2.3656,0.2639,39.2800,71,97,86904
2.3509,0.2786,39.1200,71,97,86908
2.2630,0.2688,39.2200,71,97,86912
2.2385,0.2737,39.1600,71,97,86915
2.1163,0.2688,39.3200,71,97,86918
2.0381,0.2639,39.2500,71,97,86922
1.9990,0.2786,39.2500,71,97,86925
1.8866,0.2737,39.1900,71,97,86928
1.8280,0.2737,39.1200,71,97,86931
1.7693,0.2688,39.2200,71,97,86935
1.6862,0.2639,39.2200,71,97,86938
1.6618,0.2786,39.0600,71,97,86941
1.5689,0.2688,39.2200,71,97,86944
1.5640,0.2688,39.1200,71,97,86948
1.4712,0.2737,39.3200,71,97,86951
1.4467,0.2639,39.1600,71,97,86955
1.4565,0.2786,39.1200,71,97,86958
1.4272,0.2688,39.2800,71,97,86962
1.4418,0.2688,39.1200,71,97,86965
1.3978,0.2737,39.2500,71,97,86968
1.3930,0.2542,39.3200,71,97,86971
1.4272,0.2786,39.1600,71,97,86975
1.4174,0.2688,39.1200,71,97,86978
1.4418,0.2688,39.1200,71,97,86981
1.4370,0.2688,39.1900,71,97,86984
1.4467,0.2590,39.3200,71,97,86988
1.4809,0.2786,39.1200,71,97,86991
1.4516,0.2688,39.2200,71,97,86994
1.4907,0.2688,39.1200,71,97,86998
1.4809,0.2688,39.2200,71,97,87002
1.5005,0.2688,39.2200,71,97,87005
1.5347,0.2786,39.1200,71,97,87008
1.5200,0.2688,39.2200,71,97,87011
1.5494,0.2786,39.1200,71,97,87015
1.5396,0.2737,39.2200,71,97,87018
1.5543,0.2688,39.0900,71,97,87021
1.5934,0.2786,39.1200,71,97,87024
1.5982,0.2688,39.2200,71,97,87028
1.5934,0.2688,39.1200,71,97,87031
1.5934,0.2737,39.2200,71,97,87034
1.6178,0.2639,39.3200,71,97,87037
1.6569,0.2786,39.0600,71,97,87042
1.6227,0.2688,39.2200,71,97,87045
1.6373,0.2737,39.1900,71,97,87048
1.6276,0.3079,39.2200,71,97,87051
1.6373,0.2639,39.2200,71,97,87055
1.6862,0.2786,39.1200,71,97,87058
1.6813,0.2590,39.2200,71,97,87061
1.7009,0.2688,39.0900,71,97,87064
1.6764,0.2688,39.2200,71,97,87068
1.6716,0.2639,39.2500,71,97,87071
1.7351,0.2786,39.1200,71,97,87074
1.7058,0.3128,39.2500,71,97,87077
1.7253,0.2639,39.4800,71,97,87081
1.7107,0.2688,39.2200,71,97,87085
1.7155,0.2639,39.2800,71,97,87088
1.7498,0.2786,39.0000,71,97,87091
1.7155,0.2590,39.2200,71,97,87095
1.7351,0.2933,39.1200,71,97,87098
1.7253,0.2688,39.2200,71,97,87101
1.7302,0.2639,39.2500,71,97,87104
1.7840,0.2786,39.1200,71,97,87108
1.7351,0.2590,39.2200,71,97,87111
1.7595,0.2688,39.1200,71,97,87114
1.7449,0.2688,39.2200,71,97,87117
1.7449,0.2639,39.2500,71,97,87121
1.7791,0.2786,39.1200,71,97,87124
1.7498,0.2737,39.1900,71,97,87128
1.7595,0.2639,39.1200,71,97,87131
1.7449,0.2737,39.2200,71,97,87135
1.7595,0.2639,39.3800,71,97,87138
1.8035,0.2786,39.0600,71,97,87141
1.7693,0.2688,39.2200,71,97,87144
1.7742,0.2786,39.1200,71,97,87148
1.7546,0.2688,39.1600,71,97,87151
1.7546,0.2639,39.2500,71,97,87154
1.7986,0.2786,39.1200,71,97,87157
1.7791,0.2737,39.2200,71,97,87161
1.7986,0.2688,39.2200,71,97,87164
1.7644,0.2688,39.1900,71,97,87168
1.7546,0.2639,39.2500,71,97,87171
1.7889,0.2835,39.1200,71,97,87175
1.7742,0.2737,39.1900,71,97,87178
1.7889,0.2688,39.6000,71,97,87181
1.7693,0.2688,39.3500,71,97,87184
1.7986,0.2639,39.2200,71,97,87188
1.8035,0.2835,39.0300,71,97,87191
1.7742,0.2835,39.1900,71,97,87194
1.7937,0.2688,39.1200,71,97,87197
1.7791,0.2688,39.2500,71,97,87201
1.7889,0.2590,39.2500,71,97,87204
1.8231,0.2981,39.0900,71,97,87207
1.7937,0.2688,39.2200,71,97,87211
1.8231,0.2639,39.1200,71,97,87215
1.8133,0.2590,39.3200,71,97,87218
1.8035,0.2737,39.3200,71,97,87221
1.8475,0.2786,39.1600,71,97,87224
1.8084,0.2688,39.2500,71,97,87228
1.8182,0.2688,39.1200,71,97,87231
1.8280,0.2688,39.2500,71,97,87234
1.8035,0.2639,39.2500,71,97,87237
1.8426,0.2786,39.0600,71,97,87241
1.7986,0.2688,39.1900,71,97,87244
1.8084,0.2493,39.1600,71,97,87247
1.7937,0.2933,39.2200,71,97,87250
1.7986,0.2639,39.4800,71,97,87255
1.8524,0.2786,39.2500,71,97,87258
1.8280,0.2688,39.1900,71,97,87261
1.8377,0.2737,39.1600,71,97,87264
1.8084,0.2688,39.2200,71,97,87268
1.8035,0.2639,39.3500,71,97,87271
1.8524,0.2688,39.0900,71,97,87274
1.8280,0.2786,39.1600,71,97,87277
1.8377,0.2639,39.2500,71,97,87281
1.8231,0.2688,39.2800,71,97,87284
1.8182,0.2639,39.2500,71,97,87287
1.8475,0.2737,39.0300,71,97,87290
1.7986,0.2737,39.2200,71,97,87294
1.8133,0.2639,39.2200,71,97,87298
1.8084,0.2688,39.2800,71,97,87301
1.8084,0.2688,39.2200,71,97,87304
1.8475,0.2835,39.1200,71,97,87308
1.8084,0.2688,39.1900,71,97,87311
1.8182,0.2639,39.1600,71,97,87314
1.8133,0.2737,39.2200,71,97,87317
1.8182,0.2590,39.2500,71,97,87321
1.8524,0.2981,39.0900,71,97,87324
1.8133,0.2688,39.1600,71,97,87327
1.8035,0.2639,39.1600,71,97,87330
1.7986,0.2688,39.2200,71,97,87334
1.8182,0.2688,39.2200,71,97,87337
1.8719,0.2786,39.0000,71,97,87341
1.8231,0.2688,38.4000,71,97,87345
1.8280,0.2639,39.1600,71,97,87348
1.8328,0.2688,39.2200,71,97,87351
1.8084,0.2590,39.2500,71,97,87354
1.8671,0.2835,39.0600,71,97,87357
1.8377,0.2688,39.2200,71,97,87361
1.8475,0.2590,39.1600,71,97,87364
1.8280,0.2688,39.1900,71,97,87367
1.8133,0.2639,39.3500,71,97,87371
1.8671,0.2884,39.0600,71,97,87374
1.8524,0.2737,39.1600,71,97,87377
1.8377,0.2639,39.1600,71,97,87380
1.8328,0.3030,39.3200,71,97,87385
1.8377,0.2639,39.3200,71,97,87388
1.8817,0.2786,39.0600,71,97,87391
1.8426,0.2688,39.1900,71,97,87394
1.8622,0.2639,39.1900,71,97,87398
1.8622,0.2688,39.2200,71,97,87401
1.8719,0.2639,39.3200,71,97,87404
1.9208,0.2835,39.0900,71,97,87407
1.8866,0.2688,39.1900,71,97,87411
1.9013,0.2590,39.1600,71,97,87414
1.8915,0.2688,39.3500,71,97,87417
1.9013,0.2639,39.2800,71,97,87420
1.9697,0.2835,39.0600,71,97,87425
1.9306,0.2737,39.1900,71,97,87428
1.9355,0.2639,39.6700,71,97,87431
1.9404,0.2688,39.1600,71,97,87434
1.9550,0.2639,39.2500,71,97,87438
2.0137,0.2786,39.0600,71,97,87441
1.9453,0.2737,39.1900,71,97,87444
1.9404,0.2786,39.0900,71,97,87447
1.9208,0.2688,39.2200,71,97,87451
1.9110,0.2493,39.2500,71,97,87454
1.9501,0.2933,39.0300,71,97,87457
1.8915,0.2688,38.3300,71,97,87460
1.8768,0.2639,39.1600,71,97,87464
1.8377,0.2688,39.2200,71,97,87468
1.8133,0.2639,39.2500,71,97,87471
1.8524,0.2835,39.0600,71,97,87474
1.8084,0.2737,39.1900,71,97,87478
1.7986,0.2493,39.1900,71,97,87481
1.7889,0.2737,39.2200,71,97,87484
1.7791,0.2639,39.3200,71,97,87487
1.8231,0.3177,39.1200,71,97,87491
1.7498,0.2737,39.1600,71,97,87495
1.6862,0.2688,39.2200,71,97,87499
1.6764,0.2737,39.0900,71,97,87502
1.5836,0.2688,39.3200,71,97,87505
1.6080,0.2639,39.2500,71,97,87508
1.7449,0.2786,38.9600,71,97,87513
1.9550,0.2688,39.2200,71,97,87516
2.3167,0.2786,39.0600,71,97,87519
2.6931,0.2639,39.2200,71,97,87522
3.1134,0.2688,39.1900,71,97,87526
3.5288,0.2786,39.1200,71,97,87529
3.7146,0.2688,39.2500,71,97,87532
3.8270,0.2688,39.1200,71,97,87535
3.5875,0.2590,39.3200,71,97,87539
3.2356,0.2639,39.2200,71,97,87542
2.7957,0.2737,39.1600,71,97,87545
2.3021,0.2688,39.2200,71,97,87548
1.9257,0.3030,39.1200,71,97,87553
1.6178,0.2688,39.3200,71,97,87556
1.4663,0.2639,38.6200,71,97,87559
1.4223,0.2737,39.1900,71,97,87562
1.4174,0.2688,39.2500,71,97,87566
1.4565,0.2688,39.1200,71,97,87569
1.4565,0.2639,39.2200,71,97,87572
1.4956,0.2688,39.2200,71,97,87575
1.5543,0.2786,39.0600,71,97,87579
1.5494,0.2688,39.2200,71,97,87582
1.6129,0.2737,39.0900,71,97,87585
1.5982,0.2835,39.2500,71,97,87588
1.6129,0.2688,39.1600,71,97,87592
1.6373,0.2786,39.1600,71,97,87596
1.6325,0.2688,39.2200,71,97,87599
1.6716,0.2737,39.0600,71,97,87602
1.6569,0.2688,39.2500,71,97,87606
1.6764,0.2884,39.2500,71,97,87609
1.7058,0.2786,39.1900,71,97,87612
1.6960,0.2688,39.2200,71,97,87615
1.7302,0.2786,39.0900,71,97,87619
1.7204,0.2737,39.3200,71,97,87622
1.7449,0.2688,39.1200,71,97,87625
1.7889,0.2786,39.0900,71,97,87628
1.7595,0.2688,39.2200,71,97,87632
1.7889,0.2786,39.1200,71,97,87635
1.7693,0.2688,39.0900,71,97,87639
1.7937,0.2639,39.2800,71,97,87642
1.8377,0.2688,39.1600,71,97,87646
1.8377,0.2737,39.2200,71,97,87649
1.8768,0.2688,39.1200,71,97,87652
1.8475,0.2688,39.2200,71,97,87655
1.8573,0.2639,39.2200,71,97,87659
1.8964,0.2737,39.1900,71,97,87662
1.8866,0.2688,39.2200,71,97,87665
1.9355,0.2688,39.0600,71,97,87668
1.9208,0.2688,39.4400,71,97,87672
1.9404,0.2639,39.2500,71,97,87675
1.9697,0.2786,39.0600,71,97,87678
1.9453,0.2737,39.2200,71,97,87682
1.9941,0.2737,39.0300,71,97,87686
1.9844,0.2688,39.2500,71,97,87689
1.9941,0.2688,39.2500,71,97,87692
2.0186,0.2835,39.1600,71,97,87695
2.0088,0.2688,39.1600,71,97,87699
2.0479,0.2688,39.1200,71,97,87702
2.0283,0.2639,39.1900,71,97,87705
2.0479,0.2737,39.2200,71,97,87708
2.0919,0.2786,38.3300,71,97,87712
2.0821,0.2688,39.2200,71,97,87715
2.1114,0.2737,39.1200,71,97,87718
2.1017,0.2590,39.2500,71,97,87721
2.1310,0.2688,39.2200,71,97,87726
2.1896,0.2786,39.0600,71,97,87729
2.1603,0.2688,39.2200,71,97,87732
2.1994,0.2737,39.1900,71,97,87735
2.1896,0.2884,39.1900,71,97,87739
2.2190,0.2639,39.1900,71,97,87742
2.2776,0.2786,39.1200,71,97,87745
2.2923,0.2688,39.2200,71,97,87748
2.3265,0.2639,39.0900,71,97,87752
2.3069,0.2688,39.4400,71,97,87755
2.3265,0.2639,39.2500,71,97,87758
