ecg,gsr,temp,hr,spo2,timest
1.8426,0.1075,40.0600,74,98,342828
1.8768,0.1075,40.0000,74,98,342831
1.8475,0.0929,40.1000,74,98,342835
1.8475,0.1026,40.0300,74,98,342838
1.8671,0.0978,40.0000,74,98,342841
1.8426,0.1026,40.1300,74,98,342845
1.8671,0.1026,39.9300,74,98,342848
1.8231,0.0733,40.1300,74,98,342851
1.8280,0.0978,40.2000,74,98,342855
1.8328,0.1075,40.0300,74,98,342858
1.8084,0.1026,40.1000,74,98,342861
1.8475,0.1075,39.8900,74,98,342864
1.8280,0.1124,40.0000,74,98,342868
1.8084,0.0978,40.1600,74,98,342872
1.8084,0.1124,40.1000,74,98,342875
1.8035,0.0929,40.1000,74,98,342879
1.8573,0.1124,39.9600,74,98,342882
1.8182,0.1026,40.0300,74,98,342885
1.8084,0.0978,40.2300,74,98,342889
1.8133,0.1026,40.1000,74,98,342892
1.8280,0.0929,40.1000,74,98,342895
1.8573,0.1124,40.0600,74,98,342898
1.8231,0.1026,40.0300,74,98,342902
1.8231,0.0733,40.0300,74,98,342905
1.8084,0.1026,40.0600,74,98,342908
1.8084,0.1075,40.1000,74,98,342913
1.8426,0.1075,40.1000,74,98,342916
1.8280,0.1026,40.0600,74,98,342919
1.8719,0.1075,39.9600,74,98,342923
1.8866,0.1026,39.2200,74,98,342926
1.9550,0.1075,40.1000,74,98,342929
2.0821,0.1124,40.0000,74,98,342933
2.1408,0.1026,40.0600,74,98,342936
2.2630,0.1075,40.0000,74,98,342939
2.3412,0.0929,40.0300,74,98,342942
2.4585,0.1026,40.1300,74,98,342946
2.6149,0.1075,40.0300,74,98,342949
2.6979,0.1026,40.1000,74,98,342952
2.7224,0.1026,39.9300,74,98,342957
2.5122,0.1026,40.0600,74,98,342960
2.2532,0.1026,40.1000,74,98,342963
2.0088,0.1124,40.1600,74,98,342967
1.7742,0.1075,40.1000,74,98,342970
1.7009,0.1026,39.8600,74,98,342973
1.6373,0.0978,40.0600,74,98,342976
1.6569,0.1026,40.0600,74,98,342980
1.7009,0.1075,40.0600,74,98,342983
1.7204,0.1026,40.1000,74,98,342986
1.7840,0.1124,39.8300,74,98,342990
1.7595,0.1026,40.0300,74,98,342993
1.7546,0.0978,40.1000,74,98,342996
1.7546,0.1075,40.1000,74,98,343000
1.7498,0.1124,40.0600,74,98,343004
1.8084,0.1124,39.9300,74,98,343007
1.7644,0.1417,40.0600,74,98,343010
1.7693,0.1026,40.0300,74,98,343014
1.7644,0.1075,40.1300,74,98,343017
1.7693,0.1026,40.0600,74,98,343020
1.8035,0.1124,39.9600,74,98,343024
1.7840,0.1075,40.0600,74,98,343027
1.7889,0.1026,40.0000,74,98,343030
1.7937,0.1026,40.1000,74,98,343033
1.7791,0.1026,40.1300,74,98,343037
1.7986,0.1417,40.0600,74,98,343041
1.7889,0.1075,40.1000,74,98,343044
1.8035,0.1075,39.9600,74,98,343048
1.7791,0.1466,40.2300,74,98,343051
1.7840,0.1026,40.1000,74,98,343054
1.8133,0.1124,40.0000,74,98,343058
1.7937,0.1026,40.1000,74,98,343061
1.8182,0.1026,39.9300,74,98,343064
1.8035,0.1026,40.0300,74,98,343068
1.8426,0.1075,40.1000,74,98,343071
1.8280,0.1075,39.8900,74,98,343074
1.8231,0.1026,40.1000,74,98,343077
1.8671,0.1075,39.8900,74,98,343081
1.8377,0.1075,40.3000,74,98,343085
1.8377,0.1075,40.1300,74,98,343088
1.8622,0.1124,40.0300,74,98,343092
1.8475,0.0978,40.1000,74,98,343095
1.9110,0.1124,39.8600,74,98,343098
1.8671,0.1124,40.0000,74,98,343102
1.8671,0.1026,40.0600,74,98,343105
1.8768,0.1075,40.1300,74,98,343108
1.8768,0.1075,40.1000,74,98,343112
1.9453,0.1124,39.9600,74,98,343115
1.9110,0.1124,40.0300,74,98,343118
1.9110,0.1026,40.0300,74,98,343121
1.9159,0.1075,40.0600,74,98,343126
1.9208,0.1075,40.1300,74,98,343129
1.9648,0.1124,39.9300,74,98,343132
1.9355,0.1124,40.1000,74,98,343136
1.9844,0.1075,39.9600,74,98,343139
1.9501,0.1075,40.1000,74,98,343142
1.9550,0.1075,40.0600,74,98,343146
1.9990,0.1173,40.0000,74,98,343149
1.9697,0.0733,40.0600,74,98,343152
2.0039,0.1124,40.1000,74,98,343155
1.9795,0.1075,40.0600,74,98,343159
1.9892,0.0929,40.1000,74,98,343162
2.0088,0.1075,40.0000,74,98,343165
1.9990,0.1075,40.1000,74,98,343170
2.0332,0.1075,39.9300,74,98,343173
1.9941,0.1075,40.1000,74,98,343176
2.0039,0.1026,40.2000,74,98,343180
2.0235,0.1124,40.3300,74,98,343183
1.9941,0.1075,40.1300,74,98,343186
2.0332,0.1075,39.9300,74,98,343189
2.0039,0.1222,40.0000,74,98,343193
1.9892,0.1075,40.1000,74,98,343196
1.9990,0.1075,40.3000,74,98,343199
1.9795,0.1466,40.1000,74,98,343203
2.0235,0.1124,39.8600,74,98,343206
1.9697,0.1075,40.3000,74,98,343209
1.9550,0.1075,40.1000,74,98,343214
1.9746,0.0929,40.1000,74,98,343217
1.9208,0.1075,40.1000,74,98,343220
1.9550,0.1173,39.8300,74,98,343223
1.9013,0.1075,40.0000,74,98,343227
1.8671,0.1026,40.0600,74,98,343230
1.8866,0.1075,40.1000,74,98,343233
1.8231,0.1075,40.2300,74,98,343237
1.8475,0.1271,39.9600,74,98,343240
1.7986,0.1124,40.0600,74,98,343243
1.7840,0.1075,39.9600,74,98,343247
1.7498,0.1173,40.1300,74,98,343250
1.7400,0.1075,40.0000,74,98,343254
1.7595,0.1222,39.9300,74,98,343257
1.7204,0.1075,40.1000,74,98,343261
1.7302,0.1124,39.9300,74,98,343264
1.7009,0.0929,40.1300,74,98,343267
1.6960,0.1075,40.1000,74,98,343271
1.7155,0.1124,40.0300,74,98,343274
1.6862,0.1075,40.1000,74,98,343277
1.7204,0.1075,40.0300,74,98,343281
1.6911,0.1173,40.0600,74,98,343284
1.6960,0.1075,40.1000,74,98,343287
1.7204,0.1124,39.9600,74,98,343291
1.7009,0.1075,40.1000,74,98,343294
1.7498,0.1075,39.9300,74,98,343298
1.7107,0.1075,40.1300,74,98,343301
1.7155,0.1026,40.1300,74,98,343305
1.7351,0.1124,40.1000,74,98,343308
1.7155,0.1173,40.1000,74,98,343311
1.7644,0.1124,39.9600,74,98,343315
1.7351,0.1222,40.0300,74,98,343318
1.7253,0.1075,40.1300,74,98,343321
1.7302,0.1075,40.1000,74,98,343325
1.7302,0.0929,40.1000,74,98,343328
1.7840,0.1271,39.9300,74,98,343331
1.7546,0.1075,40.0300,74,98,343335
1.7498,0.0929,40.0300,74,98,343339
1.7644,0.1124,40.3300,74,98,343342
1.7644,0.1026,40.1300,74,98,343345
1.8035,0.1173,40.0000,74,98,343349
1.7840,0.1124,40.0000,74,98,343352
1.7889,0.1026,40.0300,74,98,343355
1.7791,0.1124,40.1300,74,98,343359
1.7986,0.1075,40.1000,74,98,343362
1.8084,0.1026,40.1300,74,98,343366
1.8182,0.1173,40.0300,74,98,343369
1.8035,0.1320,40.1600,74,98,343372
1.8426,0.1124,39.9300,74,98,343376
1.8133,0.1124,40.0300,74,98,343379
1.8133,0.1026,40.1000,74,98,343383
1.8133,0.1124,40.0600,74,98,343387
1.8035,0.1173,40.1300,74,98,343390
1.8573,0.1173,39.8600,74,98,343393
1.8231,0.1124,40.0600,74,98,343396
1.8182,0.1173,40.1300,74,98,343400
1.8280,0.1124,40.0600,74,98,343403
1.8084,0.1075,40.1300,74,98,343406
1.8671,0.1271,39.9300,74,98,343410
1.8573,0.1173,40.0300,74,98,343413
1.8182,0.1075,40.3000,74,98,343416
1.8133,0.1124,40.1000,74,98,343420
1.8084,0.1075,40.2000,74,98,343424
1.8426,0.1515,39.9600,74,98,343427
1.8133,0.1124,40.0600,74,98,343431
1.8280,0.1124,39.9300,74,98,343434
1.8035,0.1124,40.1000,74,98,343437
1.8084,0.1075,40.1000,74,98,343440
1.8426,0.1173,39.9600,74,98,343444
1.8035,0.1124,40.1000,74,98,343447
1.8280,0.1320,40.0000,74,98,343450
1.8084,0.0929,40.1000,74,98,343454
1.7986,0.1124,40.1000,74,98,343457
1.8133,0.1075,40.0300,74,98,343460
1.7986,0.1124,40.1000,74,98,343464
1.8280,0.1124,39.9600,74,98,343468
1.8035,0.1173,40.0600,74,98,343471
1.8035,0.1124,40.1300,74,98,343475
1.8231,0.1222,40.0000,74,98,343478
1.7986,0.0929,40.1000,74,98,343481
1.8377,0.1173,39.9600,74,98,343484
1.8328,0.1026,40.0600,74,98,343488
1.7986,0.1124,40.1300,74,98,343491
1.8084,0.1515,40.0600,74,98,343494
1.7889,0.1173,40.1000,74,98,343498
1.8426,0.1173,39.8300,74,98,343501
1.8133,0.1320,40.0000,74,98,343504
1.8035,0.1075,40.0600,74,98,343508
1.8035,0.1124,40.1600,74,98,343512
1.7986,0.1075,40.1300,74,98,343515
1.8524,0.1271,39.9300,74,98,343518
1.8084,0.1173,40.0600,74,98,343522
1.8084,0.0929,40.0300,74,98,343525
1.8084,0.1124,40.1000,74,98,343528
1.8035,0.1124,40.3000,74,98,343532
1.8377,0.1271,40.0000,74,98,343535
1.8231,0.1124,40.0600,74,98,343538
1.8280,0.1124,40.0300,74,98,343542
1.8133,0.1124,40.1000,74,98,343545
1.8133,0.1124,40.2000,74,98,343548
1.8573,0.1173,40.0300,74,98,343553
1.8231,0.1124,40.0300,74,98,343556
1.8426,0.1173,40.0300,74,98,343559
1.8133,0.1124,40.2000,74,98,343562
1.8182,0.1124,40.1300,74,98,343566
1.8426,0.1222,40.0300,74,98,343569
1.8084,0.1173,40.1000,74,98,343572
1.8377,0.1124,39.9300,74,98,343576
1.8133,0.1124,40.0000,74,98,343579
1.8133,0.1173,40.1300,74,98,343582
1.8231,0.1173,40.0300,74,98,343586
1.8231,0.1124,40.1000,74,98,343589
1.8768,0.1173,39.8000,74,98,343592
1.8524,0.1124,40.0600,74,98,343597
1.8524,0.1124,40.1300,74,98,343600
1.8622,0.1173,40.0600,74,98,343603
1.8524,0.1124,40.2000,74,98,343606
1.9062,0.1320,39.8600,74,98,343610
1.8719,0.1124,40.0300,74,98,343613
1.8622,0.1075,40.2300,74,98,343616
1.8866,0.1173,40.1000,74,98,343620
1.8622,0.1124,40.3300,74,98,343623
1.9013,0.1271,40.0000,74,98,343626
1.8671,0.1173,40.0300,74,98,343630
1.8622,0.1124,40.0300,74,98,343633
1.8426,0.1173,40.1600,74,98,343636
1.8426,0.1124,40.1600,74,98,343641
1.8817,0.1222,39.9300,74,98,343644
1.8817,0.1222,40.1000,74,98,343647
1.8817,0.1222,40.0000,74,98,343651
1.8475,0.1124,40.1000,74,98,343654
1.8426,0.1222,40.1000,74,98,343657
1.8573,0.1173,40.0300,74,98,343660
1.8328,0.1466,40.1000,74,98,343664
1.8475,0.1173,39.9300,74,98,343667
1.8133,0.1124,40.1000,74,98,343670
1.8084,0.1124,40.1000,74,98,343674
1.8231,0.1222,40.0000,74,98,343677
1.8182,0.1222,40.1000,74,98,343681
1.8426,0.1173,40.0000,74,98,343685
1.8084,0.1173,40.0600,74,98,343688
1.8084,0.1124,40.1300,74,98,343691
1.8133,0.1173,40.0300,74,98,343695
1.8084,0.1173,40.1300,74,98,343698
1.8573,0.1222,39.8600,74,98,343701
1.8280,0.1173,40.0300,74,98,343704
1.8035,0.1173,40.1000,74,98,343708
1.8133,0.1173,40.1000,74,98,343711
1.8133,0.1124,40.1300,74,98,343714
1.8671,0.1271,39.8600,74,98,343718
1.8280,0.1173,40.1000,74,98,343721
1.8328,0.1075,40.0000,74,98,343725
1.8231,0.1173,40.1000,74,98,343729
1.8280,0.1124,40.1000,74,98,343732
1.8573,0.1173,40.0300,74,98,343735
1.8475,0.1173,40.1300,74,98,343739
1.8866,0.1173,40.0000,74,98,343742
1.9062,0.1173,40.1300,74,98,343745
1.9795,0.1124,40.0600,74,98,343748
2.0870,0.1173,40.0300,74,98,343752
2.1701,0.1124,40.1300,74,98,343755
2.2923,0.1173,39.9600,74,98,343758
2.3656,0.1124,40.1000,74,98,343762
2.4976,0.1124,40.2000,74,98,343766
2.6491,0.1173,40.0300,74,98,343769
2.7126,0.1124,40.1000,74,98,343773
2.7077,0.1173,39.8900,74,98,343776
2.4829,0.1173,40.0000,74,98,343779
2.2043,0.1124,40.1000,74,98,343783
1.9453,0.1222,40.0300,74,98,343786
1.7107,0.1173,40.1000,74,98,343789
1.6422,0.1222,40.2300,74,98,343792
1.5934,0.1124,40.0300,74,98,343796
1.6129,0.1124,40.2600,74,98,343799
1.6667,0.1173,40.0600,74,98,343802
1.6960,0.1124,40.1600,74,98,343806
1.7742,0.1320,39.9300,74,98,343810
1.7498,0.1222,40.0000,74,98,343813
1.7498,0.1466,40.1000,74,98,343817
1.7498,0.1173,40.1000,74,98,343820
1.7595,0.1124,40.0300,74,98,343823
1.8328,0.1222,40.0000,74,98,343827
1.7791,0.1173,40.1000,74,98,343830
1.7840,0.1173,39.9600,74,98,343833
1.7742,0.1173,40.1000,74,98,343836
1.7693,0.1124,40.1300,74,98,343840
1.8035,0.1222,39.9300,74,98,343843
1.7791,0.1124,40.0300,74,98,343846
1.8084,0.1222,40.0000,74,98,343851
1.7742,0.1173,40.2000,74,98,343854
1.7742,0.1124,40.1600,74,98,343857
1.7937,0.1222,40.0300,74,98,343861
1.7791,0.1173,40.1300,74,98,343864
1.8084,0.1124,40.0000,74,98,343867
1.7840,0.1173,40.0600,74,98,343871
1.7889,0.1124,40.1300,74,98,343874
1.8133,0.1417,40.0000,74,98,343877
1.8035,0.1124,40.1000,74,98,343881
1.8377,0.1222,39.8600,74,98,343884
1.8084,0.1173,40.0600,74,98,343887
1.8133,0.1173,40.1600,74,98,343890
1.8231,0.1075,40.2300,74,98,343895
1.8182,0.1173,40.1600,74,98,343898
1.8768,0.1369,39.8300,74,98,343901
1.8426,0.1222,40.1000,74,98,343905
1.8377,0.1271,40.0600,74,98,343908
1.8475,0.1173,40.0600,74,98,343911
1.8524,0.1369,40.1000,74,98,343915
1.9062,0.1222,39.9300,74,98,343918
1.8719,0.1222,40.1000,74,98,343921
1.8866,0.1124,40.0300,74,98,343925
1.8768,0.1222,40.1600,74,98,343928
1.8817,0.1124,40.1000,74,98,343931
1.9208,0.1222,40.0300,74,98,343936
1.9062,0.1075,40.0600,74,98,343939
1.9355,0.1173,39.9600,74,98,343942
1.9159,0.1124,40.0600,74,98,343945
1.9208,0.1173,40.1000,74,98,343949
1.9453,0.1173,40.0300,74,98,343952
1.9404,0.1173,40.1000,74,98,343955
1.9648,0.1124,39.9600,74,98,343959
1.9501,0.1271,40.1000,74,98,343962
1.9941,0.1173,40.1000,74,98,343965
1.9892,0.1222,40.0300,74,98,343969
1.9990,0.1222,40.1000,74,98,343972
1.9990,0.1124,40.1600,74,98,343976
2.0577,0.1320,39.1900,74,98,343980
2.0088,0.1222,40.0300,74,98,343983
1.9941,0.1173,40.1000,74,98,343987
1.9990,0.1173,40.1000,74,98,343990
1.9892,0.1173,40.1300,74,98,343993
2.0381,0.1271,39.9300,74,98,343996
2.0137,0.1222,40.0600,74,98,344000
2.0137,0.1124,40.0000,74,98,344003
1.9892,0.1173,40.2600,74,98,344006
1.9795,0.1173,40.1000,74,98,344010
1.9990,0.1222,40.0600,74,98,344013
1.9697,0.1173,40.3000,74,98,344016
1.9697,0.1271,39.9600,74,98,344020
1.9257,0.1173,40.1000,74,98,344024
1.9062,0.1222,40.2600,74,98,344027
1.9159,0.1124,39.9600,74,98,344030
1.8719,0.1173,40.0600,74,98,344034
1.8915,0.1026,40.0000,74,98,344037
1.8377,0.1124,40.0600,74,98,344040
1.8231,0.1173,40.1300,74,98,344044
1.8182,0.1222,40.0300,74,98,344047
1.7840,0.1173,40.1600,74,98,344050
1.7937,0.1173,39.8900,74,98,344054
1.7498,0.1173,40.1600,74,98,344057
1.7302,0.1173,40.1600,74,98,344060
1.7351,0.1271,40.0300,74,98,344065
1.7155,0.1124,40.0600,74,98,344068
1.7546,0.1271,39.8600,74,98,344071
1.7058,0.1320,40.0000,74,98,344074
1.7058,0.1026,40.2300,74,98,344078
1.6960,0.1222,40.1000,74,98,344081
1.6911,0.1173,40.1300,74,98,344084
1.7449,0.1320,39.8900,74,98,344088
1.7058,0.1222,40.0600,74,98,344091
1.6911,0.1173,40.0600,74,98,344094
1.6862,0.1173,40.2000,74,98,344098
1.6862,0.1173,40.1000,74,98,344101
1.7253,0.1271,39.9300,74,98,344104
1.6960,0.1075,40.0000,74,98,344109
1.7107,0.1173,40.0000,74,98,344112
1.7058,0.1124,40.1000,74,98,344115
1.7107,0.1173,40.1300,74,98,344118
1.7351,0.1222,40.0000,74,98,344122
1.7253,0.1222,40.0600,74,98,344125
1.7546,0.1320,39.9600,74,98,344128
1.7351,0.1124,40.1000,74,98,344132
1.7400,0.1369,40.1000,74,98,344135
1.7595,0.1173,40.0000,74,98,344138
1.7498,0.1173,39.2800,74,98,344142
1.7742,0.1515,39.9300,74,98,344145
1.7546,0.1173,40.1300,74,98,344148
1.7644,0.1173,40.1000,74,98,344153
1.7840,0.1222,40.0300,74,98,344156
1.7644,0.1124,40.1000,74,98,344159
1.8084,0.1222,39.8900,74,98,344162
1.7889,0.1271,39.9600,74,98,344166
1.8035,0.1173,40.1300,74,98,344169
1.7889,0.1222,40.0300,74,98,344172
1.7840,0.1173,40.1000,74,98,344176
1.8377,0.1271,39.8300,74,98,344179
1.7986,0.1124,40.0600,74,98,344182
1.7986,0.1124,40.1600,74,98,344186
1.8035,0.1173,40.1000,74,98,344189
1.7986,0.1124,40.1000,74,98,344193
1.8524,0.1320,39.9600,74,98,344197
1.8231,0.1222,40.1000,74,98,344200
1.8182,0.1124,40.0000,74,98,344203
1.8133,0.1711,40.0600,74,98,344206
1.8133,0.1124,40.1300,74,98,344210
1.8426,0.1271,40.0600,74,98,344213
1.8182,0.1222,40.1000,74,98,344216
1.8328,0.1222,40.0000,74,98,344220
1.8084,0.1124,40.1000,74,98,344223
1.8084,0.1173,40.1000,74,98,344226
1.8377,0.1320,39.9600,74,98,344230
1.8084,0.1124,40.1300,74,98,344233
1.8328,0.1173,40.0300,74,98,344237
1.8084,0.1173,40.0300,74,98,344241
1.7986,0.1173,40.1300,74,98,344244
1.8133,0.1222,40.0300,74,98,344247
1.7986,0.1173,40.1300,74,98,344251
1.8671,0.1271,39.8900,74,98,344254
1.7986,0.1222,40.0600,74,98,344257
1.7937,0.1222,40.0600,74,98,344260
1.8182,0.1124,40.0600,74,98,344264
1.7889,0.1173,40.1000,74,98,344267
1.8280,0.1271,39.8900,74,98,344270
1.7889,0.1173,40.0300,74,98,344274
1.7889,0.1173,40.2600,74,98,344278
1.8084,0.1271,40.0600,74,98,344281
1.7840,0.1173,40.2600,74,98,344285
1.8328,0.1369,39.8600,74,98,344288
1.7986,0.1222,40.0300,74,98,344291
1.7840,0.1173,40.0600,74,98,344294
1.7791,0.1124,40.1000,74,98,344298
1.7791,0.1173,40.1000,74,98,344301
1.8377,0.1222,39.9600,74,98,344304
1.7889,0.1222,40.1000,74,98,344308
1.8182,0.1173,40.0000,74,98,344311
1.7840,0.1222,40.2300,74,98,344314
1.7840,0.1124,40.1300,74,98,344318
1.8084,0.1271,40.0000,74,98,344322
1.7889,0.1222,40.2000,74,98,344325
1.8133,0.1271,40.0000,74,98,344329
1.7889,0.1222,40.1300,74,98,344332
1.7889,0.1173,40.1300,74,98,344335
1.8231,0.1222,40.0000,74,98,344338
1.7889,0.1222,40.2300,74,98,344342
1.8133,0.1711,39.9300,74,98,344345
1.7937,0.1222,40.1600,74,98,344348
1.7937,0.1173,40.1000,74,98,344352
1.8084,0.1271,40.0300,74,98,344355
1.7840,0.1320,40.1000,74,98,344358
1.8231,0.1222,39.8900,74,98,344363
1.7986,0.1222,40.0300,74,98,344366
1.7889,0.1222,40.1300,74,98,344369
1.8035,0.1222,40.1000,74,98,344373
1.8035,0.1222,40.0600,74,98,344376
1.8622,0.1271,39.8300,74,98,344379
1.8231,0.1271,40.1000,74,98,344383
1.8182,0.1124,40.1000,74,98,344386
1.8231,0.1222,40.0600,74,98,344389
1.8475,0.1173,40.1000,74,98,344392
1.8719,0.1320,39.9600,74,98,344396
1.8475,0.1271,40.0000,74,98,344399
1.8377,0.1173,40.0300,74,98,344402
1.8328,0.1222,40.1000,74,98,344407
1.8377,0.1173,40.2300,74,98,344410
1.8524,0.1320,40.0000,74,98,344413
1.8231,0.1222,40.0600,74,98,344417
1.8671,0.1173,39.9600,74,98,344420
1.8133,0.1271,40.0600,74,98,344423
1.8182,0.1222,40.1000,74,98,344426
1.8524,0.1271,40.0000,74,98,344430
1.8231,0.1124,40.1000,74,98,344433
1.8573,0.1173,40.0000,74,98,344436
1.8475,0.1222,40.1000,74,98,344440
1.8280,0.1124,40.1600,74,98,344443
1.8280,0.1369,40.0300,74,98,344446
1.8084,0.1271,40.1000,74,98,344451
1.8328,0.1222,39.9300,74,98,344454
1.7986,0.1271,40.0300,74,98,344457
1.8035,0.1173,40.1000,74,98,344461
1.8084,0.1320,40.2300,74,98,344464
1.7840,0.1417,40.1000,74,98,344467
1.8426,0.1271,39.8600,74,98,344470
1.7791,0.1173,40.0300,74,98,344474
1.7937,0.1124,40.1300,74,98,344477
1.7937,0.1271,40.0600,74,98,344480
1.7889,0.1222,40.1000,74,98,344484
1.8377,0.1369,39.9600,74,98,344487
1.7986,0.1173,40.0600,74,98,344491
1.7937,0.1173,40.0600,74,98,344495
1.7889,0.1271,40.1000,74,98,344498
1.7986,0.1222,40.1000,74,98,344501
1.8328,0.1320,39.9600,74,98,344505
1.8084,0.1222,40.1000,74,98,344508
1.8084,0.1222,40.0000,74,98,344511
1.7986,0.1222,39.2200,74,98,344514
1.7986,0.1173,40.1300,74,98,344518
1.8377,0.1271,39.9600,74,98,344521
1.8377,0.1271,40.1000,74,98,344524
1.9062,0.1222,39.9600,74,98,344528
1.9501,0.1222,39.9600,74,98,344531
2.0332,0.1124,40.1000,74,98,344535
2.1603,0.1222,40.0300,74,98,344539
2.2483,0.1222,40.1000,74,98,344542
2.3949,0.1222,40.0000,74,98,344545
2.4878,0.1466,40.0300,74,98,344549
2.6149,0.1173,40.1000,74,98,344552
2.7322,0.1271,40.0300,74,98,344555
2.6540,0.1173,40.1000,74,98,344558
2.5024,0.1222,39.8600,74,98,344562
2.2092,0.1271,40.0000,74,98,344565
1.9208,0.1271,40.1000,74,98,344568
1.7155,0.1222,40.0300,74,98,344572
1.5885,0.1222,40.1600,74,98,344576
1.6129,0.1320,39.8300,74,98,344579
1.7595,0.1320,40.0000,74,98,344583
1.7449,0.1271,39.9300,74,98,344586
1.7693,0.1173,40.0000,74,98,344590
1.7351,0.1222,40.1600,74,98,344593
1.7351,0.1271,40.1000,74,98,344596
1.7546,0.1271,40.1600,74,98,344600
1.7400,0.1271,40.1000,74,98,344603
1.7595,0.1124,39.9600,74,98,344606
1.7449,0.1222,40.1300,74,98,344609
1.7889,0.1222,40.1600,74,98,344613
1.7840,0.1271,39.9300,74,98,344616
1.7693,0.1222,40.1000,74,98,344620
1.7986,0.1222,39.9300,74,98,344624
1.7840,0.1222,40.0600,74,98,344627
1.7840,0.1222,40.1600,74,98,344630
1.8035,0.1271,40.0600,74,98,344634
1.7986,0.1222,40.1300,74,98,344637
1.8426,0.1271,39.8900,74,98,344640
1.8182,0.1124,40.0600,74,98,344644
1.8133,0.1222,40.2000,74,98,344647
1.8328,0.1369,40.0300,74,98,344650
1.8231,0.1222,40.1000,74,98,344653
1.8768,0.1271,39.7700,74,98,344657
1.8524,0.1222,40.0300,74,98,344660
1.8426,0.1173,40.1600,74,98,344664
1.8524,0.1222,40.1300,74,98,344668
1.8475,0.1320,40.1000,74,98,344671
1.9013,0.1369,39.9600,74,98,344674
1.8622,0.1320,40.1000,74,98,344678
1.8622,0.1173,40.0300,74,98,344681
1.8573,0.1222,40.1300,74,98,344684
1.8964,0.1222,40.1000,74,98,344688
1.9062,0.1320,39.9600,74,98,344691
1.8817,0.1271,40.1000,74,98,344694
1.9110,0.1222,39.9600,74,98,344698
1.8866,0.1222,40.1300,74,98,344701
1.8915,0.1662,40.1000,74,98,344705
1.9257,0.1320,40.0300,74,98,344708
1.9110,0.1222,39.9600,74,98,344712
1.9453,0.1271,40.0000,74,98,344715
1.9159,0.1173,40.1000,74,98,344718
1.9257,0.1466,40.1000,74,98,344722
1.9550,0.1222,40.0000,74,98,344725
1.9404,0.1222,40.1600,74,98,344728
1.9795,0.1613,39.9300,74,98,344732
1.9599,0.1222,40.1000,74,98,344735
1.9746,0.1124,40.1300,74,98,344738
1.9990,0.1271,40.0600,74,98,344742
1.9844,0.1271,40.1600,74,98,344745
2.0381,0.1271,39.9600,74,98,344749
2.0088,0.1271,40.0600,74,98,344752
1.9990,0.1369,40.1000,74,98,344756
2.0088,0.1222,40.0600,74,98,344759
2.0039,0.1222,40.1000,74,98,344762
2.0577,0.1369,39.8300,74,98,344766
2.0137,0.1222,40.0000,74,98,344769
2.0039,0.1173,40.2000,74,98,344772
2.0088,0.1417,40.1000,74,98,344776
1.9990,0.1222,40.1300,74,98,344779
2.0528,0.1369,39.9600,74,98,344782
2.0137,0.1271,40.0600,74,98,344785
2.0039,0.1173,40.0300,74,98,344790
1.9746,0.1271,40.1000,74,98,344793
1.9648,0.1466,40.1300,74,98,344796
1.9892,0.1124,40.0300,74,98,344800
1.9501,0.1271,40.1600,74,98,344803
1.9501,0.1222,40.0300,74,98,344806
1.9110,0.1222,40.1000,74,98,344810
1.8915,0.1222,40.0600,74,98,344813
1.9013,0.1369,39.9600,74,98,344816
1.8524,0.1222,40.2300,74,98,344819
1.8622,0.1222,40.0000,74,98,344823
1.8133,0.1173,40.0600,74,98,344826
1.7937,0.1222,40.1000,74,98,344829
1.7840,0.1271,40.0600,74,98,344834
1.7546,0.1222,40.1600,74,98,344837
1.7693,0.1222,39.8900,74,98,344840
1.7302,0.1222,40.2300,74,98,344844
1.7155,0.1173,40.1000,74,98,344847
1.7400,0.1320,40.0300,74,98,344850
1.7058,0.1222,40.1300,74,98,344854
1.7449,0.1124,39.8600,74,98,344857
1.7009,0.1173,40.0000,74,98,344860
1.7009,0.1222,40.1000,74,98,344863
1.7107,0.1271,40.0600,74,98,344867
1.7009,0.1173,40.1600,74,98,344870
1.7595,0.1417,39.8600,74,98,344873
1.7204,0.1271,40.1300,74,98,344878
1.7155,0.1271,40.0600,74,98,344881
1.7155,0.1271,40.1300,74,98,344884
1.7155,0.1173,40.1000,74,98,344888
1.7595,0.1320,39.8900,74,98,344891
1.7253,0.1271,40.0600,74,98,344894
1.7400,0.1222,40.0000,74,98,344898
1.7351,0.1222,40.1000,74,98,344901
1.7351,0.1173,40.1300,74,98,344904
1.7546,0.1271,40.0300,74,98,344907
1.7449,0.1271,40.0300,74,98,344911
1.7889,0.1222,40.0000,74,98,344914
1.7498,0.1222,40.3300,74,98,344918
1.7595,0.1222,40.1000,74,98,344922
1.7693,0.1222,40.0000,74,98,344925
1.7595,0.1417,40.1300,74,98,344928
1.7889,0.1222,39.9300,74,98,344932
1.7644,0.1222,40.1300,74,98,344935
1.7742,0.1222,40.1300,74,98,344938
1.7937,0.1369,40.0300,74,98,344942
1.7693,0.1222,40.1300,74,98,344945
1.8084,0.1271,39.8900,74,98,344948
1.7840,0.1271,39.9600,74,98,344952
1.7791,0.1222,40.1600,74,98,344955
1.7889,0.1271,40.1000,74,98,344958
1.7889,0.1222,40.2000,74,98,344962
1.8377,0.1222,39.8000,74,98,344966
1.7986,0.1271,40.1300,74,98,344969
1.7986,0.1515,40.0600,74,98,344972
1.8084,0.1124,40.0600,74,98,344976
1.7986,0.1222,40.1000,74,98,344979
1.8524,0.1417,39.8600,74,98,344982
1.8328,0.1320,39.9300,74,98,344986
1.8182,0.1222,40.0300,74,98,344989
1.8133,0.1271,40.2300,74,98,344992
1.8133,0.1222,40.1000,74,98,344996
1.8377,0.1320,40.0300,74,98,344999
1.8133,0.1271,40.0000,74,98,345003
1.8280,0.1271,39.9600,74,98,345006
1.8035,0.1222,40.1300,74,98,345010
1.8182,0.1173,40.1000,74,98,345013
1.8377,0.1320,40.0000,74,98,345016
1.8035,0.1222,40.1000,74,98,345020
1.8231,0.1124,39.9600,74,98,345023
1.7986,0.1173,40.1000,74,98,345026
1.8231,0.1173,40.1300,74,98,345030
1.8133,0.1222,40.0300,74,98,345033
1.7986,0.1222,40.1000,74,98,345036
1.8328,0.1271,39.9600,74,98,345040
1.8133,0.1271,40.0600,74,98,345043
1.8035,0.1222,40.1300,74,98,345047
1.8280,0.1662,40.1000,74,98,345050
1.8084,0.1124,40.1000,74,98,345054
1.8475,0.1320,39.8600,74,98,345057
1.8182,0.1271,40.0300,74,98,345060
1.8035,0.1222,40.5700,74,98,345064
1.8035,0.1222,40.0600,74,98,345067
1.7937,0.1222,40.1000,74,98,345070
1.8426,0.1417,39.8900,74,98,345074
1.7986,0.1369,40.0300,74,98,345077
1.7840,0.1222,39.9600,74,98,345080
1.7791,0.1124,40.1000,74,98,345084
1.7791,0.1222,40.1000,74,98,345088
1.8182,0.1124,39.8900,74,98,345091
1.7889,0.1173,40.1000,74,98,345095
1.8182,0.1124,39.9600,74,98,345098
1.7937,0.1271,39.9600,74,98,345101
1.7986,0.1271,40.1300,74,98,345104
1.8133,0.1320,40.0300,74,98,345108
1.7986,0.1417,40.0600,74,98,345111
1.8573,0.1320,40.0000,74,98,345114
1.7986,0.1271,40.1600,74,98,345118
1.7986,0.1613,40.1000,74,98,345121
1.8084,0.1124,40.0000,74,98,345124
1.7986,0.1271,40.1300,74,98,345128
1.8231,0.1271,39.9300,74,98,345132
1.8035,0.1271,40.1300,74,98,345135
1.8035,0.1515,40.1000,74,98,345138
1.8231,0.1320,40.0300,74,98,345142
1.8035,0.1222,40.1000,74,98,345145
1.8475,0.1124,39.8600,74,98,345148
1.8280,0.1271,40.0000,74,98,345152
1.8084,0.1173,40.1000,74,98,345155
1.8182,0.1271,40.1000,74,98,345158
1.8084,0.1271,40.1000,74,98,345162
1.8622,0.1369,39.8300,74,98,345165
1.8182,0.1271,40.0300,74,98,345168
1.8133,0.1173,40.0300,74,98,345172
1.8280,0.1369,40.0600,74,98,345176
1.8035,0.1124,40.1000,74,98,345179
1.8622,0.1417,39.9600,74,98,345183
1.8377,0.1320,40.0600,74,98,345186
1.8377,0.1222,40.0000,74,98,345189
1.8280,0.1271,40.1300,74,98,345192
1.8231,0.1222,40.1000,74,98,345197
1.8377,0.1222,40.1600,74,98,345201
1.8719,0.1320,40.0300,74,98,345204
1.8524,0.1271,40.0600,74,98,345207
1.8817,0.1271,39.9300,74,98,345210
1.8671,0.1271,39.9600,74,98,345214
1.8622,0.1173,40.1300,74,98,345218
1.8671,0.1320,40.1000,74,98,345221
1.8622,0.1271,40.1000,74,98,345225
1.9062,0.1320,40.4000,74,98,345228
1.8671,0.1271,40.0300,74,98,345231
1.8573,0.1222,40.2000,74,98,345235
1.8915,0.1222,40.1000,74,98,345238
1.8328,0.1222,40.2300,74,98,345241
1.8915,0.1466,39.8900,74,98,345245
1.8573,0.1320,39.6700,74,98,345248
1.8475,0.1271,40.1000,74,98,345251
1.8475,0.1271,40.1000,74,98,345255
1.8475,0.1369,40.1300,74,98,345259
1.8817,0.1369,40.0300,74,98,345262
1.8524,0.1271,40.0600,74,98,345265
1.8622,0.1222,40.0000,74,98,345269
1.8328,0.1271,40.0600,74,98,345272
1.8280,0.1369,40.0600,74,98,345275
1.8475,0.1124,39.9600,74,98,345279
1.8084,0.1564,40.0600,74,98,345282
1.8280,0.1369,40.1000,74,98,345285
1.7986,0.1222,40.1000,74,98,345289
1.7889,0.1271,40.0600,74,98,345292
1.8035,0.1320,40.0000,74,98,345295
1.7937,0.1271,40.1000,74,98,345298
1.8182,0.1271,39.9300,74,98,345303
1.7937,0.1271,40.0600,74,98,345306
1.7937,0.1222,40.0000,74,98,345309
1.8133,0.1466,40.0000,74,98,345313
1.7937,0.1271,40.1000,74,98,345316
1.8280,0.1320,40.0300,74,98,345319
1.7889,0.1173,40.0600,74,98,345323
1.7937,0.1222,40.1000,74,98,345326
1.8035,0.1320,40.0600,74,98,345329
1.7986,0.1271,40.1000,74,98,345333
1.8524,0.1320,39.8300,74,98,345336
1.8328,0.1417,40.1000,74,98,345339
1.8182,0.1124,40.1000,74,98,345342
1.8377,0.1222,40.0600,74,98,345347
1.8915,0.1271,40.1300,74,98,345350
1.9746,0.1417,39.0900,74,98,345353
2.0088,0.1369,40.0600,74,98,345357
2.1017,0.1124,40.0000,74,98,345360
2.1896,0.1271,40.2000,74,98,345363
2.2825,0.1417,40.1000,74,98,345367
2.4487,0.1320,39.9600,74,98,345370
2.5513,0.1320,40.0600,74,98,345373
2.6833,0.1271,39.9600,74,98,345376
2.7077,0.1271,40.1300,74,98,345380
2.6051,0.1320,40.0600,74,98,345383
2.3998,0.1124,40.0600,74,98,345387
2.1065,0.1271,40.1000,74,98,345391
1.8817,0.1320,40.0600,74,98,345394
1.7058,0.1271,40.0600,74,98,345397
1.6471,0.1222,40.1300,74,98,345401
1.6667,0.1369,40.0000,74,98,345404
1.6667,0.1271,40.1600,74,98,345407
1.7204,0.1466,39.9600,74,98,345411
1.7253,0.1271,40.0000,74,98,345414
1.7351,0.1271,40.1600,74,98,345417
1.7546,0.1320,40.1000,74,98,345420
1.7400,0.1271,40.1600,74,98,345424
1.7791,0.1369,39.8600,74,98,345427
1.7498,0.1271,40.2000,74,98,345431
1.7449,0.1222,40.1600,74,98,345435
1.7595,0.1320,40.1000,74,98,345438
1.7449,0.1466,40.0600,74,98,345441
1.7986,0.1369,39.8300,74,98,345445
1.7644,0.1320,40.1000,74,98,345448
1.7644,0.1222,40.1300,74,98,345451
1.7595,0.1271,40.1300,74,98,345455
1.7546,0.1271,40.1000,74,98,345458
1.8133,0.1417,39.9300,74,98,345461
1.7791,0.1271,40.1000,74,98,345464
1.7889,0.1271,40.0300,74,98,345468
1.7791,0.1369,40.1000,74,98,345472
1.7742,0.1271,40.1000,74,98,345475
1.8182,0.1320,39.9300,74,98,345479
1.7840,0.1271,40.1000,74,98,345482
1.8133,0.1271,39.9600,74,98,345485
1.8084,0.1271,40.1300,74,98,345489
1.8035,0.1271,39.7300,74,98,345492
1.8573,0.1320,40.0300,74,98,345495
1.8182,0.1271,40.1000,74,98,345499
1.8475,0.1271,39.9300,74,98,345502
1.8182,0.1222,40.1600,74,98,345505
1.8231,0.1320,40.1300,74,98,345509
1.8475,0.1320,39.9600,74,98,345512
1.8328,0.1271,40.1300,74,98,345516
1.8768,0.1466,39.8600,74,98,345519
1.8475,0.1222,40.0300,74,98,345523
1.8573,0.1271,40.1000,74,98,345526
1.8719,0.1320,40.2600,74,98,345529
1.8671,0.1222,40.1300,74,98,345533
1.9257,0.1369,39.8300,74,98,345536
1.9306,0.1369,40.0300,74,98,345539
1.8915,0.1222,40.1000,74,98,345543
1.9355,0.1320,40.0600,74,98,345546
1.9013,0.1271,40.1300,74,98,345549
1.9746,0.1417,39.9300,74,98,345553
1.9404,0.1320,40.0600,74,98,345556
1.9501,0.1222,40.1000,74,98,345560
1.9501,0.1271,40.0600,74,98,345563
1.9550,0.1124,40.1300,74,98,345567
1.9941,0.1320,39.9600,74,98,345570
1.9941,0.1320,40.0300,74,98,345573
1.9990,0.1271,40.0000,74,98,345577
1.9844,0.1271,40.2300,74,98,345580
1.9941,0.1271,40.1300,74,98,345583
2.0137,0.1564,40.0300,74,98,345587
2.0137,0.1222,40.1300,74,98,345590
2.0381,0.1320,40.0000,74,98,345593
2.0088,0.1222,40.1000,74,98,345597
2.0137,0.1271,40.1600,74,98,345601
2.0430,0.1320,39.9600,74,98,345604
2.0283,0.1271,40.1000,74,98,345607
2.0479,0.1271,39.9300,74,98,345611
2.0235,0.1271,40.0300,74,98,345614
2.0088,0.1320,40.1300,74,98,345617
2.0186,0.1320,40.0600,74,98,345621
1.9941,0.1271,40.1600,74,98,345624
2.0332,0.1320,39.8600,74,98,345627
1.9844,0.1369,40.0600,74,98,345631
1.9697,0.1271,40.1000,74,98,345634
1.9795,0.1320,40.1000,74,98,345637
1.9453,0.1320,40.0600,74,98,345640
1.9697,0.1320,39.9600,74,98,345645
1.9501,0.1271,40.0000,74,98,345648
1.8915,0.1222,40.1000,74,98,345651
1.8768,0.1417,40.0600,74,98,345655
1.8475,0.1271,40.1000,74,98,345658
1.8866,0.1417,39.9600,74,98,345661
1.8280,0.1320,40.0300,74,98,345665
1.7937,0.1271,40.0300,74,98,345668
1.7693,0.1271,40.1600,74,98,345671
1.7546,0.1369,40.0600,74,98,345674
1.7791,0.1320,39.9300,74,98,345678
1.7302,0.1271,40.0600,74,98,345681
1.7351,0.1320,40.0000,74,98,345684
1.7107,0.1271,40.1000,74,98,345689
1.6960,0.1271,40.1300,74,98,345692
1.7155,0.1320,40.0300,74,98,345695
1.6862,0.1320,40.1000,74,98,345699
1.7058,0.1320,40.0000,74,98,345702
1.6911,0.1320,40.1600,74,98,345705
1.6764,0.1271,40.1600,74,98,345709
1.6862,0.1271,40.0000,74,98,345712
1.6813,0.1271,40.1000,74,98,345715
1.7009,0.1271,39.9300,74,98,345718
1.6813,0.1222,40.1000,74,98,345722
1.6862,0.1271,40.1300,74,98,345725
1.7058,0.1711,40.0000,74,98,345729
1.6911,0.1271,40.1000,74,98,345733
1.7302,0.1369,39.8900,74,98,345736
1.7155,0.1320,40.0000,74,98,345739
1.7058,0.1271,40.1300,74,98,345743
1.7204,0.1320,40.0300,74,98,345746
1.7204,0.1271,40.0600,74,98,345749
1.7693,0.1369,39.8000,74,98,345752
1.7253,0.1271,40.0300,74,98,345756
1.7351,0.1222,40.0600,74,98,345759
1.7449,0.1369,40.1000,74,98,345762
1.7449,0.1271,40.1000,74,98,345766
1.7937,0.1466,39.9300,74,98,345769
1.7791,0.1124,40.0300,74,98,345773
1.7742,0.1271,40.1300,74,98,345777
1.8084,0.1222,40.1300,74,98,345780
1.7742,0.1271,40.0600,74,98,345783
1.8133,0.1369,40.0000,74,98,345787
1.7889,0.1320,40.1000,74,98,345790
1.7937,0.1320,39.9600,74,98,345793
1.7742,0.1271,40.1300,74,98,345796
1.7840,0.1271,40.3000,74,98,345800
1.8182,0.1369,39.9600,74,98,345803
1.8133,0.1320,40.0600,74,98,345808
1.8035,0.1271,40.1300,74,98,345811
1.8475,0.1369,39.8900,74,98,345815
1.8133,0.1271,40.1000,74,98,345819
1.8084,0.1222,40.1000,74,98,345822
1.8231,0.1320,40.0600,74,98,345825
1.8035,0.1271,40.1300,74,98,345829
1.8573,0.1271,39.8000,74,98,345832
1.8182,0.1271,40.0600,74,98,345835
1.8133,0.1173,40.1000,74,98,345839
1.8133,0.1320,40.1000,74,98,345842
1.8084,0.1271,40.1000,74,98,345845
1.8573,0.1417,39.9600,74,98,345849
1.8182,0.1320,40.1300,74,98,345852
1.8133,0.1222,40.0300,74,98,345856
1.7937,0.1222,40.0600,74,98,345859
1.8182,0.1222,40.1000,74,98,345863
1.8280,0.1320,39.9300,74,98,345866
1.8280,0.1320,40.0600,74,98,345869
1.8182,0.1320,40.0300,74,98,345873
1.7889,0.1271,40.3600,74,98,345876
1.7889,0.1271,40.1000,74,98,345879
1.8084,0.1369,40.0300,74,98,345883
1.7889,0.1271,40.1000,74,98,345886
1.8182,0.1369,40.0000,74,98,345889
1.7937,0.1271,40.0600,74,98,345893
1.7937,0.1271,40.1300,74,98,345896
1.8133,0.1320,39.9600,74,98,345900
1.7986,0.1271,40.2000,74,98,345903
1.8280,0.1271,39.9300,74,98,345907
1.7937,0.1271,40.2600,74,98,345910
1.8084,0.1320,40.1000,74,98,345913
1.8280,0.1320,40.0600,74,98,345917
1.8035,0.1662,40.1000,74,98,345920
1.8475,0.1320,39.8600,74,98,345923
1.8182,0.1320,39.9600,74,98,345927
1.7986,0.1369,40.1600,74,98,345930
1.8035,0.1320,40.1000,74,98,345933
1.7937,0.1271,39.7700,74,98,345936
1.8475,0.1466,39.8600,74,98,345940
1.8084,0.1320,39.9600,74,98,345944
1.7986,0.1711,40.1000,74,98,345947
1.8035,0.1320,40.0300,74,98,345951
1.7986,0.1271,40.1300,74,98,345954
1.8426,0.1417,39.9300,74,98,345957
1.8182,0.1320,40.0600,74,98,345961
1.8182,0.1271,40.0600,74,98,345964
1.8035,0.1222,40.0000,74,98,345967
1.8035,0.1271,40.2300,74,98,345971
1.8328,0.1271,40.1000,74,98,345974
1.8133,0.1320,40.1000,74,98,345977
1.8328,0.1320,39.9600,74,98,345980
1.8084,0.1271,40.1000,74,98,345985
1.8133,0.1271,40.1000,74,98,345988
1.8426,0.1417,40.0000,74,98,345991
1.8133,0.1271,40.2300,74,98,345995
1.8377,0.1369,39.9600,74,98,345998
1.8133,0.1271,40.0600,74,98,346001
1.8133,0.1271,40.0000,74,98,346005
1.8280,0.1320,40.0000,74,98,346008
1.8133,0.1271,40.3600,74,98,346011
1.8475,0.1369,39.8900,74,98,346015
1.8133,0.1320,40.0600,74,98,346018
1.8084,0.1515,40.1000,74,98,346021
1.8328,0.1369,40.0300,74,98,346024
1.8182,0.1271,40.1000,74,98,346029
1.8719,0.1369,39.6700,74,98,346032
1.8426,0.1271,40.0300,74,98,346035
1.8377,0.1271,39.2200,74,98,346039
1.8719,0.1369,40.0600,74,98,346042
1.8377,0.1320,40.1300,74,98,346045
1.8915,0.1515,39.8900,74,98,346049
1.8524,0.1369,40.0300,74,98,346052
1.8475,0.1271,40.0000,74,98,346055
1.8475,0.1320,40.1000,74,98,346059
1.8475,0.1271,40.2000,74,98,346062
1.8817,0.1320,39.9300,74,98,346065
1.8475,0.1320,40.1000,74,98,346068
1.8524,0.1222,40.0000,74,98,346073
1.8328,0.1320,40.1000,74,98,346076
1.8280,0.1320,40.0600,74,98,346079
1.8573,0.1417,40.0000,74,98,346083
1.8426,0.1320,40.1000,74,98,346086
1.8671,0.1320,40.0300,74,98,346089
1.8377,0.1271,40.1300,74,98,346093
1.8377,0.1271,40.0300,74,98,346096
1.8475,0.1320,40.0000,74,98,346099
1.8328,0.1320,40.1000,74,98,346102
1.8426,0.1271,40.0300,74,98,346106
1.8084,0.1369,40.1000,74,98,346109
1.8084,0.1271,40.2000,74,98,346113
1.8231,0.1320,40.0300,74,98,346117
1.7937,0.1271,40.1000,74,98,346120
1.8328,0.1320,39.9600,74,98,346123
1.8084,0.1271,40.0000,74,98,346127
1.7937,0.1124,40.1000,74,98,346130
1.8035,0.1564,40.0600,74,98,346133
1.7937,0.1369,40.0300,74,98,346137
1.8475,0.1369,39.8600,74,98,346140
1.7986,0.1369,40.0000,74,98,346143
1.7986,0.1222,40.1000,74,98,346146
1.8084,0.1320,40.0600,74,98,346150
1.8035,0.1271,40.0600,74,98,346153
1.8573,0.1466,39.8900,74,98,346157
1.8231,0.1417,40.0300,74,98,346161
1.8133,0.1222,40.0300,74,98,346164
1.8133,0.1320,40.1000,74,98,346167
1.8084,0.1369,40.1000,74,98,346171
1.8475,0.1417,39.9600,74,98,346174
1.8328,0.1320,40.1000,74,98,346177
1.8671,0.1369,40.0000,74,98,346180
1.8768,0.1564,40.0600,74,98,346184
1.9453,0.1271,40.1000,74,98,346187
2.0674,0.1369,39.9600,74,98,346190
2.1310,0.1369,40.0600,74,98,346194
2.2825,0.1369,40.0000,74,98,346198
2.3314,0.1271,40.1000,74,98,346201
2.4585,0.1271,40.1600,74,98,346205
2.6149,0.1124,40.0300,74,98,346208
2.7028,0.1320,40.0000,74,98,346211
2.7322,0.1320,39.9300,74,98,346215
2.5464,0.1320,40.0600,74,98,346218
2.2874,0.1271,40.1000,74,98,346221
2.0381,0.1466,39.9600,74,98,346224
1.8035,0.1271,40.1000,74,98,346228
1.7009,0.1320,39.8600,74,98,346231
1.6276,0.1173,40.1000,74,98,346234
1.6520,0.1271,40.1000,74,98,346238
1.6911,0.1515,40.1000,74,98,346242
1.7107,0.1271,40.1000,74,98,346245
1.7742,0.1515,39.8000,74,98,346249
1.7546,0.1320,40.0300,74,98,346252
1.7449,0.1271,40.1300,74,98,346255
1.7449,0.1320,40.0600,74,98,346258
1.7400,0.1271,40.1300,74,98,346262
1.7889,0.1466,39.8900,74,98,346265
1.7498,0.1320,40.0600,74,98,346268
1.7498,0.1271,40.0000,74,98,346272
1.7595,0.1320,40.1000,74,98,346275
1.7449,0.1320,40.1300,74,98,346278
1.7840,0.1369,40.0000,74,98,346283
1.7644,0.1369,40.1000,74,98,346286
1.7791,0.1320,40.0000,74,98,346289
1.7595,0.1320,40.1000,74,98,346293
1.7742,0.1369,40.1300,74,98,346296
1.7840,0.1369,39.4800,74,98,346299
1.7742,0.1417,40.2300,74,98,346302
1.8084,0.1369,40.0300,74,98,346306
1.7791,0.1271,40.0600,74,98,346309
1.7889,0.1271,40.1000,74,98,346312
1.8182,0.1417,40.0600,74,98,346316
1.8280,0.1222,40.1000,74,98,346319
1.8328,0.1271,39.9300,74,98,346322
1.8133,0.1417,40.0000,74,98,346327
1.8231,0.1124,40.1300,74,98,346330
1.8280,0.1417,40.0300,74,98,346333
1.8133,0.1369,40.1300,74,98,346337
1.8573,0.1369,39.8300,74,98,346340
1.8328,0.1320,40.0600,74,98,346343
1.8280,0.1271,40.1300,74,98,346346
1.8475,0.1369,40.0600,74,98,346350
1.8426,0.1222,40.1000,74,98,346353
1.9013,0.1417,39.8000,74,98,346356
1.8671,0.1320,39.9600,74,98,346360
1.8671,0.1271,40.0300,74,98,346363
1.8768,0.1320,40.1000,74,98,346366
1.8719,0.1320,39.7700,74,98,346371
1.9404,0.1417,39.9600,74,98,346374
1.8964,0.1320,40.1000,74,98,346377
1.9062,0.1271,40.0300,74,98,346381
1.9062,0.1320,40.1000,74,98,346384
1.9159,0.1320,40.2000,74,98,346387
1.9844,0.1369,39.9300,74,98,346390
1.9404,0.1320,40.0000,74,98,346394
1.9648,0.1564,39.9300,74,98,346397
1.9501,0.1320,40.1000,74,98,346400
1.9599,0.1320,40.1000,74,98,346404
1.9892,0.1515,40.0300,74,98,346407
1.9844,0.1320,40.1000,74,98,346411
2.0137,0.1320,40.0000,74,98,346415
1.9844,0.1271,39.8600,74,98,346418
1.9941,0.1222,40.1000,74,98,346423
1.9990,0.1320,40.1000,74,98,346426
2.0088,0.1417,40.1000,74,98,346429
1.9892,0.1320,40.1300,74,98,346432
2.0381,0.1369,39.8300,74,98,346436
2.0088,0.1369,40.0300,74,98,346439
1.9844,0.1271,40.1000,74,98,346442
1.9795,0.1417,40.0600,74,98,346446
1.9697,0.1320,40.1000,74,98,346449
2.0235,0.1466,39.9300,74,98,346452
1.9648,0.1320,40.0600,74,98,346457
1.9550,0.1271,40.0300,74,98,346460
1.9355,0.1564,40.0600,74,98,346463
1.9159,0.1320,40.1600,74,98,346466
1.9404,0.1417,40.0000,74,98,346470
1.8964,0.1466,40.0600,74,98,346473
1.8768,0.1320,40.0000,74,98,346476
1.8328,0.1320,40.2000,74,98,346480
1.8182,0.1564,40.0600,74,98,346483
1.8182,0.1320,40.0600,74,98,346486
1.7840,0.1320,40.2000,74,98,346490
1.7889,0.1417,40.0300,74,98,346493
1.7449,0.1320,40.0600,74,98,346497
1.7302,0.1320,40.1300,74,98,346500
1.7351,0.1466,39.9600,74,98,346504
1.6960,0.1320,40.0300,74,98,346507
1.7058,0.1271,39.9300,74,98,346510
1.6813,0.1320,40.0300,74,98,346514
1.6716,0.1320,40.1300,74,98,346517
1.6862,0.1369,40.0600,74,98,346520
1.6764,0.1320,40.2000,74,98,346524
1.7107,0.1466,39.8600,74,98,346527
1.6862,0.1369,40.1300,74,98,346530
1.6813,0.1320,40.1000,74,98,346534
1.7009,0.1369,40.0600,74,98,346537
1.6862,0.1320,40.2300,74,98,346541
1.7351,0.1760,39.8300,74,98,346544
1.7009,0.1320,39.8900,74,98,346548
1.7009,0.1271,40.1000,74,98,346551
1.7009,0.1320,40.1000,74,98,346554
1.7058,0.1320,40.2000,74,98,346558
1.7644,0.1515,39.9300,74,98,346561
1.7302,0.1369,40.0300,74,98,346564
1.7253,0.1271,40.0300,74,98,346568
1.7253,0.1417,40.1000,74,98,346571
1.7253,0.1320,40.1000,74,98,346574
1.7693,0.1417,39.9300,74,98,346578
1.7449,0.1320,40.1000,74,98,346582
1.7595,0.1320,39.9600,74,98,346585
1.7498,0.1369,40.1000,74,98,346588
1.7498,0.1320,40.1000,74,98,346592
1.7742,0.1515,40.1000,74,98,346595
1.7693,0.1369,40.1000,74,98,346598
1.7937,0.1417,40.0300,74,98,346602
1.7693,0.1320,40.0300,74,98,346605
1.7889,0.1271,40.1300,74,98,346608
1.7937,0.1320,39.9300,74,98,346612
1.7840,0.1369,40.0600,74,98,346615
1.8035,0.1369,39.9300,74,98,346618
1.7840,0.1320,40.0600,74,98,346621
1.7889,0.1369,40.1600,74,98,346626
1.8133,0.1417,40.0000,74,98,346629
1.7937,0.1417,40.1000,74,98,346632
1.8377,0.1369,39.9300,74,98,346636
1.8182,0.1369,39.9300,74,98,346639
1.8035,0.1222,40.1000,74,98,346642
1.8084,0.1369,40.1300,74,98,346646
1.7986,0.1369,40.1000,74,98,346649
1.8524,0.1417,39.8300,74,98,346652
1.8133,0.1369,40.0300,74,98,346656
1.8133,0.1271,40.1300,74,98,346659
1.8182,0.1417,40.1000,74,98,346662
1.8133,0.1124,40.1000,74,98,346665
1.8524,0.1466,39.9600,74,98,346670
1.8328,0.1320,40.1000,74,98,346673
1.8133,0.1320,39.0900,74,98,346676
1.7986,0.1222,40.1000,74,98,346680
1.7986,0.1320,40.2000,74,98,346683
1.8182,0.1564,40.0300,74,98,346686
1.7986,0.1369,40.0600,74,98,346690
1.8084,0.1369,39.9600,74,98,346693
1.7840,0.1369,40.1600,74,98,346696
1.7889,0.1320,40.1300,74,98,346700
1.8182,0.1417,39.9600,74,98,346703
1.7889,0.1320,40.1000,74,98,346706
1.8182,0.1320,40.0000,74,98,346711
1.7937,0.1222,40.0300,74,98,346714
1.7889,0.1320,40.1600,74,98,346717
1.8084,0.1320,40.0300,74,98,346720
1.7937,0.1320,40.1300,74,98,346724
1.8182,0.1369,40.1000,74,98,346727
1.7937,0.1320,40.0300,74,98,346730
1.7791,0.1320,40.0600,74,98,346734
1.8035,0.1369,40.1000,74,98,346737
1.7791,0.1320,40.1000,74,98,346740
1.8231,0.1417,39.8900,74,98,346744
1.7889,0.1320,40.1300,74,98,346747
1.7889,0.1564,40.1000,74,98,346750
1.7986,0.1369,40.1000,74,98,346755
1.7937,0.1662,40.1000,74,98,346758
1.8426,0.1515,39.8900,74,98,346761
1.8035,0.1417,40.1000,74,98,346764
1.7937,0.1466,40.1000,74,98,346768
1.7889,0.1320,40.3300,74,98,346771
1.7840,0.1417,40.1000,74,98,346774
1.8231,0.1124,39.9300,74,98,346778
1.8133,0.1369,40.1000,74,98,346781
1.8084,0.1369,40.0000,74,98,346784
1.7889,0.1320,40.1300,74,98,346788
1.7840,0.1271,40.1000,74,98,346791
1.8084,0.1417,40.0300,74,98,346795
1.7889,0.1369,40.1600,74,98,346799
1.8084,0.1320,40.0000,74,98,346802
1.7840,0.1320,40.1000,74,98,346805
1.7889,0.1320,40.2300,74,98,346808
1.7986,0.1369,40.0000,74,98,346812
1.7840,0.1320,40.1000,74,98,346815
1.8084,0.1320,39.9600,74,98,346818
1.7937,0.1320,40.1000,74,98,346822
1.7791,0.1320,40.1000,74,98,346825
1.7986,0.1711,40.1000,74,98,346828
1.7840,0.1320,40.1000,74,98,346832
1.8280,0.1369,40.0000,74,98,346835
1.8084,0.1369,40.0000,74,98,346839
1.8182,0.1369,40.1000,74,98,346842
1.8280,0.1613,40.0600,74,98,346846
1.8475,0.1369,40.1000,74,98,346849
1.8622,0.1369,39.8300,74,98,346852
1.8231,0.1369,40.1000,74,98,346856
1.8231,0.1271,40.1000,74,98,346859
1.8328,0.1711,40.1000,74,98,346862
1.8328,0.1320,40.1300,74,98,346866
1.8866,0.1515,39.9600,74,98,346869
1.8573,0.1417,40.0300,74,98,346872
1.8377,0.1320,40.1000,74,98,346876
1.8231,0.1271,40.1000,74,98,346880
1.8182,0.1320,40.1000,74,98,346883
1.8426,0.1466,40.0000,74,98,346886
1.8280,0.1320,40.1000,74,98,346890
1.8377,0.1369,40.0000,74,98,346893
1.8231,0.1369,40.0600,74,98,346896
1.8328,0.1124,40.1300,74,98,346900
1.8622,0.1466,39.9600,74,98,346903
1.8328,0.1320,40.1000,74,98,346906
1.8524,0.1417,39.9600,74,98,346910
1.8426,0.1222,40.1000,74,98,346913
1.8035,0.1320,39.8300,74,98,346916
1.8328,0.1466,40.0300,74,98,346920
1.7840,0.1369,40.1000,74,98,346924
1.8133,0.1369,39.9300,74,98,346927
1.7937,0.1369,40.0300,74,98,346930
1.7889,0.1320,40.1300,74,98,346934
1.8133,0.1515,40.0000,74,98,346937
1.7986,0.1320,40.1000,74,98,346940
1.8377,0.1417,39.8600,74,98,346944
1.7937,0.1320,40.0300,74,98,346947
1.8035,0.1320,40.1000,74,98,346950
1.8133,0.1369,40.0300,74,98,346954
1.8084,0.1320,40.1300,74,98,346957
1.8573,0.1417,39.8300,74,98,346960
1.8231,0.1320,40.0300,74,98,346963
1.8280,0.1271,40.0600,74,98,346968
1.8133,0.1369,40.1300,74,98,346971
1.8426,0.1320,40.1300,74,98,346974
1.8671,0.1417,39.9300,74,98,346978
1.8377,0.1124,40.0600,74,98,346981
1.8426,0.1320,40.0300,74,98,346984
1.8426,0.1369,40.1000,74,98,346988
1.8768,0.1124,40.1300,74,98,346991
1.9550,0.1417,39.9600,74,98,346994
2.0430,0.1369,40.1000,74,98,346998
2.1261,0.1320,39.9600,74,98,347001
2.2043,0.1320,40.0600,74,98,347004
2.3069,0.1369,40.1000,74,98,347008
2.4585,0.1369,40.0300,74,98,347012
2.5758,0.1369,40.2000,74,98,347015
2.7273,0.1613,40.0300,74,98,347018
2.7077,0.1320,40.0600,74,98,347022
2.5758,0.1320,40.1300,74,98,347025
2.3607,0.1466,40.0300,74,98,347028
1.5689,0.1369,40.1300,74,98,347033
1.5982,0.1369,40.1000,74,98,347036
1.7009,0.1417,39.8300,74,98,347040
1.7009,0.1369,40.0600,74,98,347043
1.7253,0.1320,40.1000,74,98,347046
1.7498,0.1369,40.2300,74,98,347049
1.7449,0.1369,40.1000,74,98,347054
1.8035,0.1515,39.9600,74,98,347057
1.7693,0.1417,40.0300,74,98,347060
1.7644,0.1320,40.0300,74,98,347064
1.7546,0.1369,40.1000,74,98,347067
1.7546,0.1320,40.1000,74,98,347070
1.7840,0.1466,40.0300,74,98,347074
1.7595,0.1369,40.0600,74,98,347077
1.7791,0.1124,39.9600,74,98,347080
1.7546,0.1222,40.1000,74,98,347084
1.7595,0.1320,40.1000,74,98,347087
1.7986,0.1466,39.9600,74,98,347090
1.7742,0.1320,40.0600,74,98,347094
1.8133,0.1417,40.0600,74,98,347098
1.7937,0.1320,40.1000,74,98,347101
1.7889,0.1320,40.1300,74,98,347104
1.8231,0.1466,40.0300,74,98,347108
1.8133,0.1320,40.1000,74,98,347111
1.8377,0.1369,40.0300,74,98,347114
1.8426,0.1369,40.0300,74,98,347118
1.8133,0.1320,40.1000,74,98,347121
1.8426,0.1417,40.0300,74,98,347124
1.8231,0.1320,40.1000,74,98,347128
1.8719,0.1417,39.8000,74,98,347131
1.8328,0.1320,40.0300,74,98,347134
1.8475,0.1320,40.1000,74,98,347138
1.8524,0.1417,40.1000,74,98,347142
1.8524,0.1320,40.1000,74,98,347145
1.9062,0.1466,39.8900,74,98,347148
1.8671,0.1320,40.0600,74,98,347152
1.8622,0.1271,40.1000,74,98,347155
1.8671,0.1466,40.1000,74,98,347158
1.8719,0.1320,40.1000,74,98,347162
1.9257,0.1417,39.9300,74,98,347165
1.8915,0.1369,40.0300,74,98,347168
1.9013,0.1369,39.9300,74,98,347172
1.9110,0.1320,40.1000,74,98,347175
1.9062,0.1320,40.1000,74,98,347179
1.9453,0.1515,39.9600,74,98,347182
1.9306,0.1369,40.0600,74,98,347186
1.9550,0.1369,40.0300,74,98,347189
1.9355,0.1466,40.1000,74,98,347192
1.9404,0.1320,40.2300,74,98,347196
1.9550,0.1369,40.0000,74,98,347199
1.9550,0.1369,40.1000,74,98,347202
1.9892,0.1320,39.9600,74,98,347206
1.9648,0.1320,40.1000,74,98,347209
1.9746,0.1320,40.1300,74,98,347212
1.9990,0.1320,40.0000,74,98,347216
1.9844,0.1369,40.1000,74,98,347219
2.0235,0.1466,39.8900,74,98,347223
1.9990,0.1369,40.0000,74,98,347226
1.9892,0.1320,40.1000,74,98,347230
2.0186,0.1369,40.1300,74,98,347233
1.9844,0.1320,40.1000,74,98,347236
2.0283,0.1417,39.8900,74,98,347240
1.9795,0.1369,40.0600,74,98,347243
1.9746,0.1320,40.1600,74,98,347246
1.9844,0.1271,40.1000,74,98,347250
1.9697,0.1369,40.1000,74,98,347253
2.0235,0.1515,40.0600,74,98,347256
1.9795,0.1124,40.0000,74,98,347260
1.9550,0.1320,40.0600,74,98,347264
1.9453,0.1369,40.1600,74,98,347267
1.9306,0.1369,40.1000,74,98,347270
1.9599,0.1711,39.9600,74,98,347274
1.9159,0.1417,40.0600,74,98,347277
1.9062,0.1320,40.0000,74,98,347280
1.8573,0.1369,40.1000,74,98,347284
1.8426,0.1320,40.1300,74,98,347287
1.8573,0.1417,39.9300,74,98,347290
1.8035,0.1369,40.1300,74,98,347294
1.8133,0.1417,40.0000,74,98,347297
1.7693,0.1320,40.1000,74,98,347300
1.7546,0.1369,40.1000,74,98,347304
1.7546,0.1320,40.0000,74,98,347308
1.7302,0.1369,40.1000,74,98,347311
1.7449,0.1369,40.0600,74,98,347314
1.7253,0.1320,40.0600,74,98,347318
1.7058,0.1320,40.1000,74,98,347321
1.7155,0.1417,40.4000,74,98,347324
1.6960,0.1466,40.1000,74,98,347328
1.7204,0.1369,39.8900,74,98,347331
1.6911,0.1369,40.1000,74,98,347334
1.7204,0.1417,40.1000,74,98,347338
1.7155,0.1417,40.1300,74,98,347341
1.7009,0.1369,40.1000,74,98,347344
1.7400,0.1417,39.8600,74,98,347347
1.7204,0.1417,40.0000,74,98,347352
1.7058,0.1369,40.1000,74,98,347355
1.7107,0.1369,40.1300,74,98,347358
1.7058,0.1808,40.2300,74,98,347362
1.7644,0.1515,39.9300,74,98,347365
1.7253,0.1466,40.0000,74,98,347368
1.7302,0.1320,40.0300,74,98,347372
1.7302,0.1369,40.1300,74,98,347375
1.7302,0.1613,40.1600,74,98,347378
1.7693,0.1417,39.9600,74,98,347382
1.7546,0.1369,40.0600,74,98,347385
1.7693,0.1369,39.9600,74,98,347388
1.7546,0.1369,40.2000,74,98,347392
1.7595,0.1369,40.1000,74,98,347396
1.7840,0.1417,40.0600,74,98,347399
1.7742,0.1369,40.0000,74,98,347402
1.7986,0.1466,40.0000,74,98,347406
1.7791,0.1369,40.2300,74,98,347409
1.7889,0.1417,40.1000,74,98,347412
1.8133,0.1417,39.9600,74,98,347416
1.7937,0.1320,40.1000,74,98,347419
1.8182,0.1369,39.9600,74,98,347422
1.7986,0.1417,40.0000,74,98,347426
1.7986,0.1369,40.1000,74,98,347429
1.8035,0.1417,40.0300,74,98,347432
1.7937,0.1369,40.1000,74,98,347436
1.8377,0.1417,39.8600,74,98,347440
1.7986,0.1613,40.0600,74,98,347443
1.7986,0.1369,40.1000,74,98,347446
1.8133,0.1417,40.0600,74,98,347450
1.7937,0.1369,40.0000,74,98,347453
1.8475,0.1466,39.8000,74,98,347456
1.8084,0.1369,39.9600,74,98,347460
1.8035,0.1320,40.1000,74,98,347463
1.8035,0.1369,40.1000,74,98,347466
1.8035,0.1369,40.2600,74,98,347469
1.8719,0.1515,39.9300,74,98,347473
1.8231,0.1417,40.0300,74,98,347476
1.8133,0.1369,40.0300,74,98,347480
1.7986,0.1369,40.1000,74,98,347484
1.7986,0.1466,40.0600,74,98,347487
1.8377,0.1466,39.9600,74,98,347490
1.8035,0.1466,40.0600,74,98,347494
1.8328,0.1369,39.9600,74,98,347497
1.7986,0.1369,40.3000,74,98,347500
1.7937,0.1857,40.1000,74,98,347504
1.8133,0.1417,40.0300,74,98,347507
1.7937,0.1417,40.0600,74,98,347510
1.8182,0.1369,40.0000,74,98,347513
1.7889,0.1320,40.1600,74,98,347517
1.7937,0.1369,40.1000,74,98,347521
1.8035,0.1369,39.9600,74,98,347524
1.7889,0.1320,40.1000,74,98,347528
1.8182,0.1320,39.9300,74,98,347531
1.7840,0.1320,40.0600,74,98,347534
1.7937,0.1320,40.1000,74,98,347538
1.8133,0.1417,40.1600,74,98,347541
1.7986,0.1320,40.1000,74,98,347544
1.8426,0.1417,39.9600,74,98,347548
1.8084,0.1466,40.0300,74,98,347551
1.7937,0.1369,40.1300,74,98,347554
1.7937,0.1613,40.0600,74,98,347557
1.7937,0.1369,40.0600,74,98,347561
1.8475,0.1515,39.8300,74,98,347565
1.8035,0.1369,40.0300,74,98,347568
1.8035,0.1124,40.0600,74,98,347572
1.8084,0.1417,40.0300,74,98,347575
1.8035,0.1369,40.0600,74,98,347578
1.8475,0.1515,39.9300,74,98,347582
1.8231,0.1417,40.0600,74,98,347585
1.8182,0.1417,40.0600,74,98,347588
1.8328,0.1369,40.1000,74,98,347591
1.8035,0.1369,40.1600,74,98,347595
1.8328,0.1515,40.0000,74,98,347598
1.8133,0.1124,40.0600,74,98,347601
1.8328,0.1369,39.9600,74,98,347606
1.8084,0.1124,40.1000,74,98,347609
1.8133,0.1320,40.1000,74,98,347612
1.8475,0.1466,39.9300,74,98,347616
1.8231,0.1369,40.1000,74,98,347619
1.8524,0.1369,40.0000,74,98,347622
1.8377,0.1369,40.0300,74,98,347626
1.8280,0.1369,40.1000,74,98,347629
1.8377,0.1417,40.0300,74,98,347632
1.8182,0.1369,40.1000,74,98,347635
1.8377,0.1369,39.8900,74,98,347639
1.8817,0.1515,39.8600,74,98,347644
1.8475,0.1369,40.0300,74,98,347648
1.8475,0.1369,40.0600,74,98,347651
1.8377,0.1369,40.1000,74,98,347654
1.8328,0.1320,40.1000,74,98,347658
1.8866,0.1564,39.9600,74,98,347661
1.8573,0.1417,39.8900,74,98,347664
1.8622,0.1369,40.0000,74,98,347668
1.8524,0.1417,40.0600,74,98,347671
1.8524,0.1417,40.1000,74,98,347674
1.8817,0.1466,39.9600,74,98,347678
1.8426,0.1466,40.0600,74,98,347681
1.8817,0.1369,39.9600,74,98,347684
1.8328,0.1369,40.1300,74,98,347688
1.8328,0.1369,40.1000,74,98,347692
1.8524,0.1417,40.0000,74,98,347695
1.8426,0.1466,40.1600,74,98,347698
1.8768,0.1369,39.9600,74,98,347702
1.8377,0.1320,40.1000,74,98,347705
1.8377,0.1466,40.1300,74,98,347708
1.8573,0.1417,39.9600,74,98,347712
1.8280,0.1417,40.0600,74,98,347715
1.8475,0.1417,39.8900,74,98,347718
1.8084,0.1369,40.0600,74,98,347722
1.8084,0.1417,40.1000,74,98,347725
1.8280,0.1417,40.1000,74,98,347728
1.8035,0.1369,40.1600,74,98,347731
1.8719,0.1466,39.8600,74,98,347736
1.8182,0.1417,40.2300,74,98,347739
1.7986,0.1369,40.1000,74,98,347742
1.8035,0.1369,40.1300,74,98,347746
1.7986,0.1417,40.1000,74,98,347749
1.8573,0.1515,39.9300,74,98,347752
1.8377,0.1466,40.0600,74,98,347756
1.8084,0.1320,40.0600,74,98,347759
1.8035,0.1369,39.6000,74,98,347762
1.8035,0.1271,40.1000,74,98,347766
1.8426,0.1466,39.9600,74,98,347769
1.8182,0.1320,40.1000,74,98,347772
1.8377,0.1369,40.0000,74,98,347776
1.8084,0.1369,40.2300,74,98,347780
1.8133,0.1417,40.1000,74,98,347783
1.8328,0.1466,40.1600,74,98,347786
1.8524,0.1417,40.1000,74,98,347790
1.9257,0.1320,40.0000,74,98,347793
1.9844,0.1369,40.1000,74,98,347796
2.0870,0.1320,40.1300,74,98,347800
2.2043,0.1466,40.0600,74,98,347803
2.2678,0.1417,40.1000,74,98,347806
2.4145,0.1369,39.9600,74,98,347810
2.5269,0.1466,40.0300,74,98,347813
2.6442,0.1320,40.1300,74,98,347816
2.7419,0.1515,40.0600,74,98,347821
2.6588,0.1320,40.1000,74,98,347824
2.5024,0.1417,39.8900,74,98,347827
2.1848,0.1417,40.1000,74,98,347830
1.9159,0.1369,40.1000,74,98,347834
1.7546,0.1417,40.0600,74,98,347837
1.6569,0.1369,40.3300,74,98,347840
1.7155,0.1417,39.8300,74,98,347844
1.6764,0.1369,40.0300,74,98,347847
1.6960,0.1369,40.0600,74,98,347850
1.7253,0.1417,40.1300,74,98,347854
1.7302,0.1369,40.1000,74,98,347857
1.7889,0.1515,39.9600,74,98,347860
1.7498,0.1369,40.1000,74,98,347864
1.7595,0.1320,40.0300,74,98,347868
1.7400,0.1417,40.1000,74,98,347871
1.7400,0.1320,40.1000,74,98,347874
1.7644,0.1466,39.9600,74,98,347878
1.7449,0.1466,40.2300,74,98,347881
1.7693,0.1369,39.9600,74,98,347884
1.7498,0.1564,40.1600,74,98,347888
1.7546,0.1124,40.1000,74,98,347891
1.7791,0.1662,40.0000,74,98,347894
1.7595,0.1369,40.1000,74,98,347898
1.7889,0.1369,39.0900,74,98,347901
1.7644,0.1466,40.1000,74,98,347905
1.7644,0.1320,40.1300,74,98,347908
1.7889,0.1417,40.0000,74,98,347912
1.7791,0.1417,40.1300,74,98,347915
1.8084,0.1417,39.9300,74,98,347918
1.7840,0.1369,40.1300,74,98,347922
1.7937,0.1369,40.1000,74,98,347925
1.8133,0.1417,40.1000,74,98,347928
1.7986,0.1417,40.1000,74,98,347932
1.8524,0.1417,39.8600,74,98,347935
1.8231,0.1417,40.0300,74,98,347938
1.8231,0.1369,40.2600,74,98,347942
1.8377,0.1417,40.0600,74,98,347945
1.8377,0.1369,40.1300,74,98,347949
1.9013,0.1515,39.8300,74,98,347952
1.8622,0.1417,40.1000,74,98,347956
1.8622,0.1369,40.0300,74,98,347959
1.8671,0.1417,39.3800,74,98,347962
1.8671,0.1417,40.1000,74,98,347966
1.9110,0.1466,39.9600,74,98,347969
1.8964,0.1369,40.0600,74,98,347972
1.9159,0.1466,40.0000,74,98,347976
1.8817,0.1369,40.1000,74,98,347979
1.8866,0.1466,40.0600,74,98,347982
1.9159,0.1417,40.1000,74,98,347986
1.9062,0.1369,40.2000,74,98,347990
1.9404,0.1515,39.9600,74,98,347993
1.9208,0.1369,40.0300,74,98,347997
1.9306,0.1369,40.1000,74,98,348000
1.9648,0.1466,40.1300,74,98,348003
1.9795,0.1369,40.1000,74,98,348006
1.9795,0.1320,39.9300,74,98,348010
1.9648,0.1369,40.2000,74,98,348013
1.9648,0.1466,40.1000,74,98,348016
1.9844,0.1466,40.0300,74,98,348020
1.9746,0.1369,40.2000,74,98,348023
2.0235,0.1466,39.8900,74,98,348026
1.9941,0.1417,40.0600,74,98,348030
1.9892,0.1369,40.1600,74,98,348034
2.0381,0.1417,40.1000,74,98,348037
1.9941,0.1369,40.1000,74,98,348040
2.0528,0.1466,39.8000,74,98,348044
2.0137,0.1320,40.0300,74,98,348047
2.0088,0.1320,40.1300,74,98,348050
2.0088,0.1466,40.1000,74,98,348054
2.0088,0.1369,40.1000,74,98,348057
2.0528,0.1515,39.9600,74,98,348060
2.0039,0.1417,40.0300,74,98,348064
1.9844,0.1369,40.1000,74,98,348067
1.9697,0.1417,40.2300,74,98,348070
1.9550,0.1857,40.1000,74,98,348073
1.9844,0.1466,39.9300,74,98,348078
1.9355,0.1515,40.1600,74,98,348081
1.9355,0.1369,40.0000,74,98,348084
1.9013,0.1417,40.1000,74,98,348088
1.8817,0.1417,40.1000,74,98,348091
1.8915,0.1417,40.0000,74,98,348094
1.8524,0.1760,40.1000,74,98,348098
1.8622,0.1320,40.0300,74,98,348101
1.8084,0.1369,40.1300,74,98,348104
1.7889,0.1369,40.1000,74,98,348108
1.7840,0.1417,40.0000,74,98,348111
1.7546,0.1417,40.0600,74,98,348114
1.7595,0.1466,39.9300,74,98,348118
1.7253,0.1369,40.3300,74,98,348122
1.7155,0.1271,40.1000,74,98,348125
1.7302,0.1466,40.0600,74,98,348128
1.7302,0.1369,40.1000,74,98,348132
1.7253,0.1417,39.9600,74,98,348135
1.7058,0.1417,40.0000,74,98,348138
1.6960,0.1320,40.1000,74,98,348142
1.6960,0.1417,39.9600,74,98,348145
1.6862,0.1369,40.1000,74,98,348148
1.7351,0.1466,39.8300,74,98,348152
1.6960,0.1369,40.0300,74,98,348155
1.6960,0.1124,40.1000,74,98,348158
1.7009,0.1417,40.1000,74,98,348162
1.6911,0.1369,40.0600,74,98,348166
1.7498,0.1515,39.9300,74,98,348169
1.7155,0.1466,40.0000,74,98,348172
1.7155,0.1466,40.0600,74,98,348176
1.7155,0.1417,40.0600,74,98,348179
1.7155,0.1417,40.1000,74,98,348182
1.7546,0.1515,40.0000,74,98,348186
1.7351,0.1417,40.0600,74,98,348189
1.7449,0.1417,40.2600,74,98,348192
1.7253,0.1417,40.1300,74,98,348195
1.7302,0.1369,40.0600,74,98,348199
1.7840,0.1417,39.9600,74,98,348203
1.7351,0.1417,40.2300,74,98,348206
1.7693,0.1515,40.0000,74,98,348210
1.7449,0.1320,40.0600,74,98,348213
1.7498,0.1369,40.1000,74,98,348216
1.7742,0.1320,40.1000,74,98,348220
1.7693,0.1417,40.1300,74,98,348223
1.7986,0.1369,39.9300,74,98,348226
1.7742,0.1369,40.0600,74,98,348230
1.7840,0.1369,40.1300,74,98,348233
1.8084,0.1466,40.0000,74,98,348236
1.7889,0.1320,39.8300,74,98,348239
1.8280,0.1417,39.9300,74,98,348243
1.7791,0.1320,40.0600,74,98,348247
1.7889,0.1369,40.1000,74,98,348250
1.7986,0.1564,40.0600,74,98,348254
1.7937,0.1417,40.1300,74,98,348258
1.7986,0.1369,40.1000,74,98,348262
1.8377,0.1466,39.8000,74,98,348265
1.8035,0.1124,40.0600,74,98,348268
1.8133,0.1417,40.0300,74,98,348272
1.7937,0.1417,40.1300,74,98,348275
1.7889,0.1466,40.1000,74,98,348278
1.8133,0.1466,40.1600,74,98,348282
1.7937,0.1466,40.0600,74,98,348285
1.8084,0.1466,40.0000,74,98,348289
1.7791,0.1417,40.1000,74,98,348292
1.8133,0.1417,40.1000,74,98,348296
1.7937,0.1417,40.0000,74,98,348299
1.7840,0.1417,40.1000,74,98,348302
1.8035,0.1466,39.9300,74,98,348306
1.7791,0.1369,40.2300,74,98,348309
1.7840,0.1320,40.1000,74,98,348312
1.8084,0.1466,40.0600,74,98,348316
1.7889,0.1369,40.1300,74,98,348319
1.8280,0.1124,39.8900,74,98,348322
1.8035,0.1417,40.1000,74,98,348325
1.7889,0.1369,40.1600,74,98,348329
1.7937,0.1417,40.1300,74,98,348333
1.7840,0.1466,40.1000,74,98,348336
1.8377,0.1466,39.8300,74,98,348340
1.7889,0.1417,40.0300,74,98,348343
1.7840,0.1369,40.1000,74,98,348346
1.7889,0.1417,40.0600,74,98,348350
1.7791,0.1417,40.1300,74,98,348353
1.8328,0.1564,39.9300,74,98,348356
1.8035,0.1466,40.0000,74,98,348360
1.7937,0.1466,40.0300,74,98,348363
1.7840,0.1417,40.1000,74,98,348366
1.7791,0.1369,40.1300,74,98,348369
1.8377,0.1417,40.0000,74,98,348374
1.7889,0.1417,40.0600,74,98,348377
1.8035,0.1417,39.9600,74,98,348380
1.7840,0.1417,40.1000,74,98,348384
1.7889,0.1369,40.1000,74,98,348387
1.8231,0.1466,39.9600,74,98,348390
1.7937,0.1417,40.1000,74,98,348394
1.8182,0.1662,40.0300,74,98,348397
1.7986,0.1369,40.0600,74,98,348400
1.7986,0.1369,40.1600,74,98,348404
1.8035,0.1417,40.0300,74,98,348407
1.7986,0.1417,40.1000,74,98,348410
1.8280,0.1760,39.8900,74,98,348413
1.8035,0.1369,40.0600,74,98,348418
1.8084,0.1369,40.1000,74,98,348421
1.8328,0.1515,39.9600,74,98,348424
1.8328,0.1466,40.1000,74,98,348428
1.8573,0.1417,39.8900,74,98,348431
1.8182,0.1369,40.0300,74,98,348434
1.8182,0.1369,40.1000,74,98,348438
1.8475,0.1417,40.1300,74,98,348441
1.8084,0.1417,40.3000,74,98,348444
1.8573,0.1515,39.8300,74,98,348448
1.8231,0.1417,40.0600,74,98,348451
1.8133,0.1369,40.1300,74,98,348454
1.8231,0.1417,40.1000,74,98,348457
1.8280,0.1369,40.2000,74,98,348462
1.8866,0.1515,39.9300,74,98,348465
1.8426,0.1906,40.0600,74,98,348468
1.8475,0.1417,40.0000,74,98,348472
1.8377,0.1417,40.1000,74,98,348475
1.8377,0.1417,40.1600,74,98,348478
1.8573,0.1320,39.9600,74,98,348482
1.8524,0.1417,40.1000,74,98,348485
1.8719,0.1711,40.0300,74,98,348488
1.8475,0.1417,40.1000,74,98,348492
1.8475,0.1369,40.1000,74,98,348495
1.8573,0.1417,40.0300,74,98,348498
1.8377,0.1417,40.1000,74,98,348502
1.8573,0.1369,40.0600,74,98,348506
1.8280,0.1417,40.1000,74,98,348509
1.8280,0.1369,40.1000,74,98,348512
1.8475,0.1417,39.9600,74,98,348516
1.8280,0.1417,40.2000,74,98,348519
1.8622,0.1466,39.8900,74,98,348522
1.8328,0.1417,40.0300,74,98,348526
1.8231,0.1369,40.0600,74,98,348529
1.8328,0.1466,40.0600,74,98,348532
1.8133,0.1417,40.2000,74,98,348536
1.8475,0.1466,39.8300,74,98,348539
1.8084,0.1417,40.0600,74,98,348542
1.7937,0.1417,39.5700,74,98,348546
1.7937,0.1466,40.0600,74,98,348550
1.7840,0.1417,40.1000,74,98,348553
1.8328,0.1515,40.1000,74,98,348556
1.7986,0.1466,40.0000,74,98,348560
1.7889,0.1320,40.0600,74,98,348563
1.7889,0.1417,40.0000,74,98,348566
1.7889,0.1417,40.1300,74,98,348570
1.8328,0.1515,40.2600,74,98,348573
1.8133,0.1466,40.0600,74,98,348576
1.8133,0.1417,40.0000,74,98,348579
1.7986,0.1466,40.1000,74,98,348583
1.8035,0.1369,40.1000,74,98,348587
1.8377,0.1466,39.9300,74,98,348590
1.8084,0.1417,40.1000,74,98,348594
1.8328,0.1466,39.9600,74,98,348597
1.8231,0.1369,40.1000,74,98,348600
1.8084,0.1369,40.1000,74,98,348604
1.8328,0.1564,40.0300,74,98,348607
1.8377,0.1417,40.0600,74,98,348610
1.9110,0.1417,39.9300,74,98,348614
1.9550,0.1564,40.0600,74,98,348617
2.0479,0.1369,40.1000,74,98,348620
2.1701,0.1417,39.9300,74,98,348623
2.2434,0.1417,40.1300,74,98,348627
2.4242,0.1320,39.8900,74,98,348631
2.4878,0.1417,40.0600,74,98,348634
2.6197,0.1466,40.2300,74,98,348638
2.7273,0.1466,40.0600,74,98,348641
2.6491,0.1417,40.1000,74,98,348644
2.5415,0.1515,39.8300,74,98,348648
2.2043,0.1466,40.0000,74,98,348651
1.9208,0.1369,40.1000,74,98,348654
1.7253,0.1417,40.0600,74,98,348657
1.6373,0.1417,40.0000,74,98,348661
1.6667,0.1564,39.8600,74,98,348664
1.6520,0.1466,40.0300,74,98,348667
1.6813,0.1369,40.1000,74,98,348672
1.7107,0.1417,40.1000,74,98,348675
1.7155,0.1417,40.1300,74,98,348678
1.7742,0.1515,39.9600,74,98,348682
1.7302,0.1466,40.0300,74,98,348685
1.7351,0.1466,40.0000,74,98,348688
1.7204,0.1417,40.1300,74,98,348692
1.7302,0.1466,40.2300,74,98,348695
1.7449,0.1466,40.0300,74,98,348698
1.7400,0.1417,40.2000,74,98,348701
1.7644,0.1466,40.1000,74,98,348705
1.7449,0.1417,40.1600,74,98,348708
1.7498,0.1417,40.0600,74,98,348711
1.7840,0.1466,40.0000,74,98,348716
1.7595,0.1417,40.0000,74,98,348719
1.7889,0.1466,39.9300,74,98,348722
1.7693,0.1417,40.0300,74,98,348726
1.7693,0.1417,40.1300,74,98,348729
1.7840,0.1466,40.0300,74,98,348732
1.7742,0.1417,40.0600,74,98,348736
1.8182,0.1466,39.8900,74,98,348739
1.7840,0.1417,40.0300,74,98,348742
1.7840,0.1369,40.1300,74,98,348745
1.8035,0.1417,40.0600,74,98,348749
1.7937,0.1417,40.1000,74,98,348752
1.8524,0.1515,39.8600,74,98,348755
1.8133,0.1417,40.0000,74,98,348760
1.8231,0.1369,40.0600,74,98,348763
1.8328,0.1417,40.1000,74,98,348766
1.8328,0.1417,40.0600,74,98,348770
1.8915,0.1564,39.9300,74,98,348773
1.8524,0.1466,40.0300,74,98,348776
1.8573,0.1369,40.1000,74,98,348779
1.8573,0.1320,40.1000,74,98,348783
1.8524,0.1417,40.1000,74,98,348786
1.8964,0.1515,39.9300,74,98,348789
1.8671,0.1417,40.1300,74,98,348793
1.8915,0.1662,40.0000,74,98,348796
1.8817,0.1417,40.1000,74,98,348800
1.8866,0.1417,40.2300,74,98,348804
1.9110,0.1515,40.0300,74,98,348807
1.9013,0.1417,40.1000,74,98,348810
1.9404,0.1466,40.0000,74,98,348814
1.9110,0.1515,40.1000,74,98,348817
1.9257,0.1417,40.1000,74,98,348820
1.9501,0.1417,40.1000,74,98,348823
1.9453,0.1417,40.1000,74,98,348827
1.9795,0.1417,39.9300,74,98,348830
1.9892,0.1417,40.1000,74,98,348833
1.9795,0.1369,40.1000,74,98,348837
1.9941,0.1466,39.2200,74,98,348840
1.9844,0.1417,40.1300,74,98,348844
2.0332,0.1466,39.8600,74,98,348848
2.0088,0.1417,40.0000,74,98,348851
2.0088,0.1466,40.1000,74,98,348854
2.0088,0.1417,40.0300,74,98,348858
1.9990,0.1417,40.0600,74,98,348861
2.0528,0.1906,39.8000,74,98,348864
2.0283,0.1662,40.1000,74,98,348869
2.0039,0.1466,40.1000,74,98,348872
1.9941,0.1417,40.0000,74,98,348875
1.9697,0.1417,40.1300,74,98,348879
1.9599,0.1320,40.1000,74,98,348882
1.9746,0.1515,40.0600,74,98,348886
1.9501,0.1417,40.3300,74,98,348890
1.9501,0.1466,39.9600,74,98,348893
1.9062,0.1417,40.1300,74,98,348896
1.8866,0.1466,40.1000,74,98,348900
1.8915,0.1515,40.3600,74,98,348903
1.8524,0.1369,40.2300,74,98,348906
1.8524,0.1417,39.9300,74,98,348909
1.8182,0.1417,40.0300,74,98,348913
1.7986,0.1320,40.1000,74,98,348916
1.7986,0.1466,40.0000,74,98,348919
1.7693,0.1369,40.1000,74,98,348923
1.7937,0.1466,39.8900,74,98,348926
1.7449,0.1466,40.0600,74,98,348930
1.7253,0.1369,40.1000,74,98,348934
1.7351,0.1515,40.1000,74,98,348937
1.7058,0.1515,40.1000,74,98,348940
1.7449,0.1515,39.8300,74,98,348944
1.7009,0.1369,40.0000,74,98,348947
1.6911,0.1124,40.1000,74,98,348950
1.6911,0.1466,40.0600,74,98,348953
1.6862,0.1417,40.1300,74,98,348957
1.7351,0.1515,39.8600,74,98,348960
1.7107,0.1515,40.0300,74,98,348963
1.6960,0.1369,40.0300,74,98,348967
1.6911,0.1369,40.1000,74,98,348971
1.6960,0.1417,40.1300,74,98,348974
1.7302,0.1515,39.8900,74,98,348978
1.7107,0.1417,40.1300,74,98,348981
1.7302,0.1417,39.9300,74,98,348984
1.7155,0.1417,40.1000,74,98,348988
1.7204,0.1417,40.1000,74,98,348991
1.7449,0.1515,40.3300,74,98,348994
1.7302,0.1466,40.1000,74,98,348997
1.7595,0.1466,40.0000,74,98,349001
1.7351,0.1417,40.1600,74,98,349004
1.7449,0.1417,40.1600,74,98,349007
1.7546,0.1466,40.0300,74,98,349011
1.7546,0.1320,40.1000,74,98,349015
1.7742,0.1417,39.9600,74,98,349018
1.7546,0.1466,40.1000,74,98,349022
1.7644,0.1417,40.1300,74,98,349025
1.7840,0.1662,40.0000,74,98,349028
1.7693,0.1417,40.1000,74,98,349032
1.8133,0.1466,39.8900,74,98,349035
1.7937,0.1466,40.0000,74,98,349038
1.7840,0.1417,40.1600,74,98,349041
1.7937,0.1515,40.0600,74,98,349045
1.7889,0.1417,40.1000,74,98,349048
1.8426,0.1515,39.8300,74,98,349051
1.8377,0.1466,40.0600,74,98,349056
1.7986,0.1369,40.0600,74,98,349059
1.8035,0.1466,40.0600,74,98,349062
1.7986,0.1515,40.1600,74,98,349066
1.8475,0.1564,39.9600,74,98,349069
1.8182,0.1515,40.0300,74,98,349072
1.8231,0.1417,40.0300,74,98,349075
1.8035,0.1515,40.1000,74,98,349079
1.8084,0.1417,40.1000,74,98,349082
1.8328,0.1515,40.0300,74,98,349085
1.8182,0.1369,40.1000,74,98,349089
1.8377,0.1466,39.9600,74,98,349092
1.8035,0.1417,40.1600,74,98,349095
1.8328,0.1320,40.1000,74,98,349100
1.8280,0.1515,40.1300,74,98,349103
1.7986,0.1466,40.1000,74,98,349106
1.8182,0.1417,40.1000,74,98,349110
1.7889,0.1466,40.0000,74,98,349113
1.7986,0.1320,40.1300,74,98,349116
1.8035,0.1711,39.9600,74,98,349120
1.7889,0.1320,40.1000,74,98,349123
1.8280,0.1466,39.8900,74,98,349126
1.7986,0.1369,40.0300,74,98,349129
1.7937,0.1417,40.1300,74,98,349133
1.8133,0.1515,40.1000,74,98,349136
1.7889,0.1369,40.1000,74,98,349139
1.8328,0.1515,39.8600,74,98,349144
1.7840,0.1417,40.0300,74,98,349147
1.8084,0.1417,40.1300,74,98,349150
1.7889,0.1466,40.3300,74,98,349154
1.7791,0.1417,40.1000,74,98,349157
1.8426,0.1515,40.4000,74,98,349160
1.8035,0.1613,40.0300,74,98,349163
1.8084,0.1369,40.0600,74,98,349167
1.7937,0.1417,40.1000,74,98,349170
1.7937,0.1466,40.1000,74,98,349173
1.8426,0.1564,39.9300,74,98,349177
1.8035,0.1515,40.0600,74,98,349180
1.8084,0.1466,40.0000,74,98,349184
1.7986,0.1466,40.1000,74,98,349188
1.7937,0.1417,39.8000,74,98,349191
1.8231,0.1320,40.0300,74,98,349194
1.7986,0.1417,40.0600,74,98,349197
1.8231,0.1466,40.1000,74,98,349201
1.8231,0.1564,40.0600,74,98,349204
1.7986,0.1417,40.1000,74,98,349207
1.8084,0.1417,40.0300,74,98,349211
1.8328,0.1417,40.1600,74,98,349214
1.8231,0.1417,40.0300,74,98,349217
1.7986,0.1369,40.1000,74,98,349221
1.8084,0.1417,40.1000,74,98,349224
1.8280,0.1515,39.9600,74,98,349228
1.8084,0.1466,40.1000,74,98,349232
1.8426,0.1417,39.8900,74,98,349235
1.8182,0.1417,40.0000,74,98,349238
1.7986,0.1466,40.1000,74,98,349241
1.8182,0.1466,40.2000,74,98,349245
1.8084,0.1466,40.1000,74,98,349248
1.8573,0.1320,39.8300,74,98,349251
1.8084,0.1417,40.0600,74,98,349255
1.8035,0.1466,40.2000,74,98,349258
1.8084,0.1466,40.0600,74,98,349261
1.7986,0.1417,40.1000,74,98,349265
1.8524,0.1613,39.8600,74,98,349268
1.8231,0.1466,40.0600,74,98,349272
1.8182,0.1369,40.5300,74,98,349275
1.8475,0.1417,40.1000,74,98,349279
1.8377,0.1417,40.1000,74,98,349282
1.8768,0.1564,39.9600,74,98,349285
1.8524,0.1466,40.1000,74,98,349289
1.8622,0.1417,40.0300,74,98,349292
1.8475,0.1417,40.1000,74,98,349295
1.8524,0.1417,40.0300,74,98,349299
1.8866,0.1466,39.9300,74,98,349302
1.8573,0.1417,40.1000,74,98,349305
1.8817,0.1466,39.9600,74,98,349309
1.8524,0.1417,40.1300,74,98,349313
1.8328,0.1417,40.2000,74,98,349316
1.8866,0.1417,40.0300,74,98,349319
1.8377,0.1417,40.0600,74,98,349323
1.8622,0.1417,40.0600,74,98,349326
1.8377,0.1466,40.0600,74,98,349329
1.8475,0.1320,40.0600,74,98,349333
1.8768,0.1466,39.9600,74,98,349336
1.8524,0.1466,40.1300,74,98,349339
1.8817,0.1466,39.8900,74,98,349343
1.8426,0.1417,40.3300,74,98,349346
1.8475,0.1320,40.1000,74,98,349349
1.8475,0.1515,40.0600,74,98,349352
1.8182,0.1466,40.1000,74,98,349357
1.8573,0.1515,39.8300,74,98,349360
1.8231,0.1466,40.0300,74,98,349363
1.8084,0.1320,40.1300,74,98,349367
1.8035,0.1466,40.0300,74,98,349370
1.7937,0.1417,40.1600,74,98,349373
1.8426,0.1613,39.8600,74,98,349377
1.7986,0.1466,40.0300,74,98,349380
1.8280,0.1466,40.0600,74,98,349383
1.7986,0.1466,40.1000,74,98,349387
1.7937,0.1417,40.1000,74,98,349390
1.8280,0.1515,39.9600,74,98,349393
1.8084,0.1466,39.5100,74,98,349396
1.8133,0.1515,40.0300,74,98,349401
1.7937,0.1466,40.1000,74,98,349404
1.7937,0.1466,40.1000,74,98,349407
1.8182,0.1564,40.0600,74,98,349411
1.8035,0.1466,40.0600,74,98,349414
1.8280,0.1515,39.9600,74,98,349417
1.7937,0.1417,40.1000,74,98,349421
1.8133,0.1466,40.1300,74,98,349424
1.8671,0.1515,40.0000,74,98,349427
1.8964,0.1466,40.0600,74,98,349431
2.0039,0.1466,39.9300,74,98,349434
2.0870,0.1417,40.1300,74,98,349437
2.1750,0.1564,40.1000,74,98,349441
2.2972,0.1515,40.0300,74,98,349445
2.3998,0.1417,39.3800,74,98,349448
2.5806,0.1466,39.8600,74,98,349451
2.6686,0.1466,40.0300,74,98,349455
2.7077,0.1417,40.0600,74,98,349458
2.6442,0.1417,40.0300,74,98,349461
2.3705,0.1124,40.1000,74,98,349465
2.1505,0.1515,39.9600,74,98,349468
1.8377,0.1466,40.0000,74,98,349471
1.6422,0.1417,40.1000,74,98,349474
1.5640,0.1466,40.1000,74,98,349478
1.7058,0.1417,40.1600,74,98,349483
1.7253,0.1369,40.0600,74,98,349487
1.7644,0.1515,39.9600,74,98,349490
1.7449,0.1760,40.0600,74,98,349493
1.7840,0.1417,39.9600,74,98,349497
1.7498,0.1417,40.1000,74,98,349500
1.7498,0.1417,40.0600,74,98,349503
1.7791,0.1466,40.0300,74,98,349507
1.7595,0.1466,40.1000,74,98,349510
1.7937,0.1417,39.9300,74,98,349513
1.7693,0.1417,40.0600,74,98,349517
1.7742,0.1417,40.1300,74,98,349520
1.8133,0.1515,39.9600,74,98,349523
1.7791,0.1417,40.3000,74,98,349527
1.8133,0.1564,39.8900,74,98,349531
1.7840,0.1417,39.9600,74,98,349534
1.7937,0.1466,40.1000,74,98,349537
1.8035,0.1466,40.0600,74,98,349541
1.7937,0.1369,40.1000,74,98,349544
1.8377,0.1564,39.8300,74,98,349547
1.8133,0.1466,39.9600,74,98,349551
1.7986,0.1369,40.1600,74,98,349554
1.8084,0.1466,40.0000,74,98,349557
1.8084,0.1808,40.1000,74,98,349561
1.8622,0.1662,39.9300,74,98,349564
1.8231,0.1515,40.0300,74,98,349568
1.8280,0.1320,40.0600,74,98,349571
1.8280,0.1466,40.1000,74,98,349575
1.8231,0.1417,40.1000,74,98,349578
1.8622,0.1515,39.9600,74,98,349581
1.8475,0.1515,40.1300,74,98,349585
1.8622,0.1417,40.0000,74,98,349588
1.8475,0.1466,40.1000,74,98,349591
1.8524,0.1417,40.1000,74,98,349595
1.8817,0.1515,40.0600,74,98,349598
1.8719,0.1466,40.0600,74,98,349601
1.9013,0.1515,39.9600,74,98,349605
1.8866,0.1417,40.0000,74,98,349608
1.8964,0.1466,40.1000,74,98,349612
1.9306,0.1320,40.0300,74,98,349615
1.9062,0.1466,40.1000,74,98,349619
1.9355,0.1417,39.9300,74,98,349622
1.9257,0.1417,40.1300,74,98,349625
1.9306,0.1369,40.1000,74,98,349629
1.9550,0.1515,40.2300,74,98,349632
1.9550,0.1515,40.0600,74,98,349635
2.0039,0.1320,39.9300,74,98,349639
1.9697,0.1466,40.1000,74,98,349642
1.9746,0.1417,40.1000,74,98,349645
1.9990,0.1417,40.0300,74,98,349648
1.9746,0.1417,40.1000,74,98,349652
2.0283,0.1515,39.8300,74,98,349656
1.9844,0.1417,40.0300,74,98,349659
1.9844,0.1417,40.1000,74,98,349663
1.9892,0.1711,40.0600,74,98,349666
1.9795,0.1417,40.1300,74,98,349669
2.0430,0.1613,40.0300,74,98,349673
1.9941,0.1515,40.0600,74,98,349676
1.9892,0.1417,40.0300,74,98,349679
1.9795,0.1515,40.1000,74,98,349683
1.9844,0.1417,40.1000,74,98,349686
2.0137,0.1466,39.8900,74,98,349689
1.9746,0.1417,40.0600,74,98,349692
1.9892,0.1466,39.9300,74,98,349697
1.9599,0.1466,40.1000,74,98,349700
1.9501,0.1320,40.1000,74,98,349703
1.9648,0.1515,40.1300,74,98,349707
1.9306,0.1466,40.1000,74,98,349710
1.9404,0.1515,40.0300,74,98,349713
1.8915,0.1466,40.0600,74,98,349717
1.8817,0.1417,40.1000,74,98,349720
1.8719,0.1466,40.0600,74,98,349723
1.8426,0.1466,40.0600,74,98,349726
1.8475,0.1466,39.9300,74,98,349730
1.8084,0.1417,40.1000,74,98,349733
1.7937,0.1466,40.1000,74,98,349736
1.7986,0.1515,40.0300,74,98,349741
1.7595,0.1613,40.0600,74,98,349744
1.8231,0.1564,39.8900,74,98,349747
1.7498,0.1515,40.4300,74,98,349751
1.7253,0.1662,40.1000,74,98,349754
1.7253,0.1466,40.1600,74,98,349757
1.7107,0.1466,40.1000,74,98,349761
1.7498,0.1564,39.8300,74,98,349764
1.7155,0.1466,40.0300,74,98,349767
1.7009,0.1369,40.0600,74,98,349771
1.7009,0.1466,40.1300,74,98,349774
1.6960,0.1515,40.1000,74,98,349777
1.7400,0.1613,39.9300,74,98,349780
1.7155,0.1515,40.0300,74,98,349785
1.7253,0.1369,40.0000,74,98,349788
1.7107,0.1466,40.2000,74,98,349791
1.7302,0.1369,40.1000,74,98,349795
1.7400,0.1515,39.8000,74,98,349798
1.7302,0.1466,40.0300,74,98,349801
1.7791,0.1466,40.0000,74,98,349805
1.7253,0.1466,40.1000,74,98,349808
1.7351,0.1466,40.1000,74,98,349811
1.7693,0.1515,39.9600,74,98,349814
1.7449,0.1711,40.1000,74,98,349818
1.7840,0.1466,40.0000,74,98,349821
1.7498,0.1417,40.0300,74,98,349825
1.7840,0.1466,40.1000,74,98,349829
1.7742,0.1515,40.0300,74,98,349832
1.7644,0.1466,40.1300,74,98,349835
1.7986,0.1466,39.8900,74,98,349839
1.7791,0.1808,40.0600,74,98,349842
1.8035,0.1466,40.1300,74,98,349845
1.8084,0.1515,40.0300,74,98,349849
1.7889,0.1466,40.2000,74,98,349852
1.8328,0.1564,39.8600,74,98,349855
1.7937,0.1417,40.0000,74,98,349858
1.7986,0.1369,40.1600,74,98,349862
1.8133,0.1515,40.0300,74,98,349865
1.7937,0.1369,40.1000,74,98,349869
1.8426,0.1613,39.8600,74,98,349873
1.8084,0.1417,40.0600,74,98,349876
1.7986,0.1417,40.0600,74,98,349879
1.7986,0.1466,40.0600,74,98,349883
1.7986,0.1466,40.0600,74,98,349886
1.8524,0.1564,39.9300,74,98,349889
1.8133,0.1466,40.0300,74,98,349893
1.8280,0.1515,39.9600,74,98,349896
1.8133,0.1466,40.1000,74,98,349899
1.8133,0.1466,39.2200,74,98,349902
1.8524,0.1515,40.0000,74,98,349906
1.8280,0.1466,40.1000,74,98,349910
1.8426,0.1466,39.9600,74,98,349913
1.8182,0.1466,40.2300,74,98,349917
1.8133,0.1515,40.1000,74,98,349920
1.8133,0.1466,40.0300,74,98,349923
1.8084,0.1466,40.0000,74,98,349927
1.8280,0.1515,40.0000,74,98,349930
1.7986,0.1466,40.0300,74,98,349933
1.7937,0.1466,40.1600,74,98,349936
1.8133,0.1564,39.9600,74,98,349940
1.7937,0.1466,40.3600,74,98,349943
1.8231,0.1564,39.8600,74,98,349946
1.8035,0.1515,40.0000,74,98,349950
1.7937,0.1417,40.0600,74,98,349954
1.8035,0.1515,40.1300,74,98,349957
1.7937,0.1466,40.1000,74,98,349961
1.8377,0.1564,39.8300,74,98,349964
1.7986,0.1466,40.0600,74,98,349967
1.7986,0.1417,40.1000,74,98,349971
1.8035,0.1515,40.1000,74,98,349974
1.7937,0.1808,40.1300,74,98,349977
1.8573,0.1613,39.8900,74,98,349980
1.8084,0.1760,40.0300,74,98,349984
1.8231,0.1320,40.0000,74,98,349987
1.7937,0.1466,40.1000,74,98,349990
1.7937,0.1515,40.1300,74,98,349995
1.8280,0.1515,40.1000,74,98,349998
1.8035,0.1808,40.1000,74,98,350001
1.8182,0.1466,40.0000,74,98,350005
1.8035,0.1466,40.0600,74,98,350008
1.8084,0.1417,40.1000,74,98,350011
1.8475,0.1564,39.9600,74,98,350015
1.8084,0.1466,40.1600,74,98,350018
1.8377,0.1564,40.0300,74,98,350021
1.8084,0.1417,40.0600,74,98,350024
1.8084,0.1466,40.1000,74,98,350028
1.8231,0.1613,40.0300,74,98,350031
1.8035,0.1466,40.1000,74,98,350034
1.8280,0.1466,40.0300,74,98,350039
1.7986,0.1417,40.0600,74,98,350042
1.7986,0.1417,40.1000,74,98,350045
1.8182,0.1515,40.1000,74,98,350049
1.8377,0.1466,40.1000,74,98,350052
1.8328,0.1515,39.8900,74,98,350055
1.7889,0.1369,40.0600,74,98,350059
1.7889,0.1466,40.1000,74,98,350062
1.8035,0.1515,40.0600,74,98,350065
1.7889,0.1466,40.1000,74,98,350068
1.8524,0.1515,39.8300,74,98,350072
1.8280,0.1662,40.1000,74,98,350075
1.8280,0.1417,40.1300,74,98,350078
1.8377,0.1808,40.0600,74,98,350083
1.8426,0.1417,40.1000,74,98,350086
1.8915,0.1515,39.9600,74,98,350089
1.8768,0.1515,40.0000,74,98,350094
1.8573,0.1417,40.2300,74,98,350097
1.8719,0.1515,39.9600,74,98,350101
1.8328,0.1515,40.1300,74,98,350104
1.8377,0.1466,40.1000,74,98,350107
1.8475,0.1564,40.0300,74,98,350111
1.8671,0.1515,40.1000,74,98,350114
1.8622,0.1466,39.9600,74,98,350117
1.8426,0.1417,40.1300,74,98,350120
1.8475,0.1466,40.1000,74,98,350125
1.8671,0.1613,40.1000,74,98,350128
1.8426,0.1466,39.7700,74,98,350131
1.8964,0.1564,39.8600,74,98,350135
1.8524,0.1515,40.0300,74,98,350138
1.8231,0.1466,40.0000,74,98,350141
1.8231,0.1515,40.0600,74,98,350145
1.8084,0.1466,40.0300,74,98,350148
1.8524,0.1662,39.8300,74,98,350151
1.8084,0.1466,40.0000,74,98,350155
1.8035,0.1417,40.0300,74,98,350158
1.7986,0.1417,40.1000,74,98,350161
1.7986,0.1466,40.1000,74,98,350164
1.8524,0.1662,39.9300,74,98,350169
1.8231,0.1515,40.0300,74,98,350172
1.8133,0.1466,40.0000,74,98,350175
1.7986,0.1320,40.1000,74,98,350179
1.8035,0.1466,40.1000,74,98,350182
1.8328,0.1515,40.0300,74,98,350185
1.8280,0.1515,40.0600,74,98,350189
1.8328,0.1466,40.0000,74,98,350192
1.8084,0.1417,40.1000,74,98,350195
1.8182,0.1320,40.1000,74,98,350198
1.8524,0.1515,40.0600,74,98,350202
1.8573,0.1320,40.1000,74,98,350205
1.8524,0.1515,40.0000,74,98,350209
1.8426,0.1417,40.0600,74,98,350213
1.8817,0.1466,40.1000,74,98,350216
1.9648,0.1515,40.1600,74,98,350219
2.0381,0.1466,40.1000,74,98,350223
2.1603,0.1466,39.9300,74,98,350226
2.2287,0.1466,40.0000,74,98,350229
2.3314,0.1466,40.1000,74,98,350233
2.4927,0.1564,40.0000,74,98,350236
2.5904,0.1466,40.0600,74,98,350239
2.7615,0.1808,39.8900,74,98,350242
2.7077,0.1417,40.1000,74,98,350246
2.5562,0.1466,40.2000,74,98,350249
2.3265,0.1417,40.1000,74,98,350253
2.0235,0.1466,40.1600,74,98,350257
1.8475,0.1662,39.8300,74,98,350260
1.6764,0.1515,40.0300,74,98,350263
1.6325,0.1417,40.0600,74,98,350267
1.6471,0.1466,40.1000,74,98,350270
1.6813,0.1466,40.3000,74,98,350273
1.7595,0.1564,39.9600,74,98,350277
1.7449,0.1515,40.1000,74,98,350280
1.7595,0.1613,40.0300,74,98,350283
1.7546,0.1515,40.1300,74,98,350286
1.7498,0.1466,40.1000,74,98,350290
1.7840,0.1564,39.9600,74,98,350294
1.7595,0.1515,40.0600,74,98,350297
1.7693,0.1711,40.0000,74,98,350301
1.7498,0.1466,40.1300,74,98,350304
1.7498,0.1515,40.0600,74,98,350307
1.7742,0.1466,40.0300,74,98,350311
1.7546,0.1564,40.1000,74,98,350314
1.7840,0.1466,39.9300,74,98,350317
1.7546,0.1466,40.1000,74,98,350321
1.7644,0.1466,40.0600,74,98,350324
1.8035,0.1320,40.0000,74,98,350327
1.7742,0.1466,40.1000,74,98,350330
1.8133,0.1466,39.9300,74,98,350334
1.7986,0.1466,40.2000,74,98,350338
1.7937,0.1466,40.2000,74,98,350341
1.8133,0.1515,40.0300,74,98,350345
1.8035,0.1466,40.2000,74,98,350348
1.8475,0.1515,39.8900,74,98,350351
1.8133,0.1466,40.1600,74,98,350355
1.8133,0.1417,40.1000,74,98,350358
1.8231,0.1515,40.1000,74,98,350361
1.8231,0.1466,40.1000,74,98,350365
1.8866,0.1662,39.8600,74,98,350368
1.8426,0.1515,40.0000,74,98,350371
1.8475,0.1466,40.0300,74,98,350374
1.8377,0.1515,40.1000,74,98,350379
1.8475,0.1515,40.1000,74,98,350382
1.8915,0.1613,40.0300,74,98,350385
1.8622,0.1515,40.0600,74,98,350389
1.8768,0.1515,39.9600,74,98,350392
1.8671,0.1466,40.1600,74,98,350395
1.8768,0.1417,40.1000,74,98,350399
1.9208,0.1564,40.1000,74,98,350402
1.9306,0.1466,40.1000,74,98,350405
1.9355,0.1564,40.0000,74,98,350409
1.9159,0.1466,40.1300,74,98,350412
1.9257,0.1369,40.1000,74,98,350415
1.9501,0.1515,40.2300,74,98,350418
1.9404,0.1662,40.1000,74,98,350423
2.0039,0.1466,39.9300,74,98,350426
1.9501,0.1466,40.1300,74,98,350429
1.9550,0.1466,40.1600,74,98,350433
1.9892,0.1564,39.9600,74,98,350436
1.9746,0.1466,40.2600,74,98,350439
2.0381,0.1564,39.8600,74,98,350443
1.9941,0.1417,39.4800,74,98,350446
2.0039,0.1613,40.1000,74,98,350449
2.0235,0.1515,40.1000,74,98,350452
2.0088,0.1466,40.2300,74,98,350456
2.0674,0.1564,39.8300,74,98,350459
2.0626,0.1320,40.0300,74,98,350462
2.0137,0.1466,40.1300,74,98,350467
2.0137,0.1466,40.1000,74,98,350470
2.0430,0.1466,40.1000,74,98,350473
2.0674,0.1662,39.8900,74,98,350477
2.0088,0.1515,40.0600,74,98,350480
2.0039,0.1564,40.0300,74,98,350483
2.0039,0.1466,40.0600,74,98,350486
1.9941,0.1417,40.1000,74,98,350490
2.0235,0.1515,39.9600,74,98,350493
1.9844,0.1515,40.0300,74,98,350496
1.9795,0.1466,40.0300,74,98,350500
1.9404,0.1515,40.1300,74,98,350503
1.9257,0.1466,40.1300,74,98,350507
1.9257,0.1515,40.1600,74,98,350511
1.9159,0.1515,40.1000,74,98,350514
1.8915,0.1515,39.9600,74,98,350517
1.8426,0.1320,40.1300,74,98,350521
1.8328,0.1466,40.1600,74,98,350524
1.8426,0.1515,39.9600,74,98,350527
1.7937,0.1466,40.1000,74,98,350530
1.7937,0.1515,39.9300,74,98,350534
1.7595,0.1466,40.0300,74,98,350537
1.7400,0.1466,39.3500,74,98,350540
1.7449,0.1515,40.0300,74,98,350544
1.7155,0.1466,40.1000,74,98,350547
1.7400,0.1515,39.8900,74,98,350551
1.6960,0.1515,40.0600,74,98,350555
1.7009,0.1466,40.1000,74,98,350558
1.7107,0.1515,40.0300,74,98,350561
1.6862,0.1417,40.1000,74,98,350564
1.7253,0.1564,39.8600,74,98,350568
1.6862,0.1808,39.9600,74,98,350571
1.6911,0.1466,40.1000,74,98,350574
1.7009,0.1515,39.9600,74,98,350578
1.7058,0.1564,40.1000,74,98,350581
1.7449,0.1662,39.8600,74,98,350584
1.7204,0.1515,40.0300,74,98,350588
1.7107,0.1417,40.0600,74,98,350592
1.7009,0.1515,40.0600,74,98,350595
1.7351,0.1320,40.1300,74,98,350599
1.7449,0.1515,39.9600,74,98,350602
1.7155,0.1515,40.1000,74,98,350605
1.7351,0.1515,40.0300,74,98,350608
1.7204,0.1760,40.1000,74,98,350612
1.7302,0.1320,40.1000,74,98,350615
1.7546,0.1564,40.0000,74,98,350618
1.7449,0.1711,40.1000,74,98,350622
1.7742,0.1564,40.0300,74,98,350625
1.7498,0.1515,40.3600,74,98,350628
1.7693,0.1466,40.1000,74,98,350632
1.7742,0.1515,40.0000,74,98,350636
1.7644,0.1515,40.0600,74,98,350639
1.7889,0.1613,39.9300,74,98,350642
1.7693,0.1466,40.1300,74,98,350646
1.7742,0.1417,40.1000,74,98,350649
1.7986,0.1515,40.0300,74,98,350652
1.7840,0.1466,40.1000,74,98,350656
1.8524,0.1564,39.8600,74,98,350659
1.8133,0.1564,40.0000,74,98,350662
1.8084,0.1466,40.0600,74,98,350666
1.8231,0.1564,40.0600,74,98,350669
1.8084,0.1466,40.1600,74,98,350672
1.8622,0.1564,39.8000,74,98,350676
1.8133,0.1515,40.0300,74,98,350680
1.8182,0.1417,40.0600,74,98,350683
1.8280,0.1515,40.0600,74,98,350686
1.8084,0.1466,40.1000,74,98,350690
1.8573,0.1662,40.0000,74,98,350693
1.8231,0.1564,39.7700,74,98,350696
1.8133,0.1466,40.0000,74,98,350700
1.8133,0.1515,40.1000,74,98,350703
1.7986,0.1466,40.1300,74,98,350708
1.7986,0.1466,40.2000,74,98,350711
1.8328,0.1564,39.9600,74,98,350714
1.7937,0.1515,40.1000,74,98,350718
1.8182,0.1564,39.9300,74,98,350722
1.8035,0.1515,40.0300,74,98,350725
1.7986,0.1515,40.1000,74,98,350729
1.8084,0.1515,40.1600,74,98,350732
1.7937,0.1613,40.1000,74,98,350735
1.8377,0.1564,39.8900,74,98,350738
1.7937,0.1711,40.0600,74,98,350742
1.7889,0.1417,40.2300,74,98,350745
1.8035,0.1515,40.0600,74,98,350748
1.7840,0.1515,39.9600,74,98,350752
1.8328,0.1564,39.8300,74,98,350755
1.7889,0.1466,40.3000,74,98,350758
1.7840,0.1369,40.1000,74,98,350763
1.7889,0.1515,40.0600,74,98,350766
1.7889,0.1760,40.1000,74,98,350769
1.8426,0.1662,39.9600,74,98,350773
1.8133,0.1515,40.0000,74,98,350776
1.8182,0.1466,40.0600,74,98,350779
1.7937,0.1515,40.1000,74,98,350783
1.7889,0.1320,40.1600,74,98,350786
1.8231,0.1564,39.9600,74,98,350789
1.7889,0.1515,40.1000,74,98,350792
1.8133,0.1515,39.9600,74,98,350796
1.7937,0.1515,40.1000,74,98,350799
1.7986,0.1466,40.1000,74,98,350802
1.8182,0.1564,40.1000,74,98,350807
1.8035,0.1466,40.1000,74,98,350810
1.8280,0.1564,40.0000,74,98,350813
1.7986,0.1515,40.1000,74,98,350817
1.7986,0.1466,40.1300,74,98,350820
1.8182,0.1564,39.9600,74,98,350823
1.8035,0.1515,40.1000,74,98,350826
1.8280,0.1515,39.9300,74,98,350830
1.8084,0.1564,40.1300,74,98,350833
1.8084,0.1466,40.1300,74,98,350836
1.8524,0.1564,40.0000,74,98,350840
1.8084,0.1515,40.2300,74,98,350843
1.8475,0.1564,39.8600,74,98,350846
1.8231,0.1564,40.0600,74,98,350851
1.8133,0.1466,40.1600,74,98,350854
1.8182,0.1564,40.0600,74,98,350857
1.8133,0.1515,40.1000,74,98,350861
1.8622,0.1662,39.8000,74,98,350864
1.8231,0.1515,39.2500,74,98,350867
1.8133,0.1369,40.1000,74,98,350870
1.8182,0.1515,40.1300,74,98,350874
1.8133,0.1515,40.1000,74,98,350877
1.8573,0.1515,39.9600,74,98,350880
1.8280,0.1564,40.0000,74,98,350884
1.8280,0.1466,40.0000,74,98,350887
1.7986,0.1515,40.1000,74,98,350891
1.7986,0.1515,40.1300,74,98,350895
1.8280,0.1564,39.8300,74,98,350898
1.8133,0.1466,40.1000,74,98,350901
1.8524,0.1564,39.9600,74,98,350905
1.8328,0.1515,40.1000,74,98,350908
1.8524,0.1515,40.1000,74,98,350911
1.8817,0.1515,40.0000,74,98,350914
1.8524,0.1417,40.1000,74,98,350918
1.8768,0.1515,39.9300,74,98,350921
1.8475,0.1515,40.1000,74,98,350924
1.8866,0.1515,40.1000,74,98,350928
1.8671,0.1515,40.0000,74,98,350931
1.8817,0.1466,40.1000,74,98,350935
1.8817,0.1515,39.8900,74,98,350939
1.8475,0.1515,40.0300,74,98,350942
1.8328,0.1515,40.1000,74,98,350945
1.8573,0.1515,40.0300,74,98,350949
1.8328,0.1515,40.1000,74,98,350952
1.8817,0.1564,39.8600,74,98,350955
1.8377,0.1466,40.0300,74,98,350958
1.8377,0.1466,40.1000,74,98,350962
1.8524,0.1564,40.0600,74,98,350965
1.8426,0.1466,40.1000,74,98,350968
1.8964,0.1662,39.8900,74,98,350972
1.8524,0.1515,40.0000,74,98,350976
1.8328,0.1417,40.0300,74,98,350979
1.8182,0.1515,40.0600,74,98,350983
1.8084,0.1564,40.0600,74,98,350986
1.8475,0.1564,39.9300,74,98,350989
1.8084,0.1662,40.0600,74,98,350992
1.8133,0.1515,40.1000,74,98,350996
1.7986,0.1515,40.1000,74,98,350999
1.7889,0.1466,40.1000,74,98,351002
1.8182,0.1564,39.9600,74,98,351006
1.7986,0.1515,40.3000,74,98,351009
1.8182,0.1515,39.9600,74,98,351012
1.7840,0.1515,40.1000,74,98,351016
1.7937,0.1613,40.1300,74,98,351020
1.8035,0.1564,40.0000,74,98,351023
1.7986,0.1564,40.1000,74,98,351027
1.8280,0.1466,39.9600,74,98,351030
1.8084,0.1515,40.2600,74,98,351033
1.8084,0.1466,40.1000,74,98,351036
1.8231,0.1613,40.0000,74,98,351040
1.8084,0.1515,40.3000,74,98,351043
1.8475,0.1808,39.8600,74,98,351046
1.8328,0.1564,40.0000,74,98,351050
1.8377,0.1515,40.1300,74,98,351053
1.8817,0.1515,40.0600,74,98,351056
1.9404,0.1466,40.1300,74,98,351060
2.0870,0.1613,39.8300,74,98,351064
2.1408,0.1515,40.0300,74,98,351067
2.2287,0.1466,40.0600,74,98,351071
2.3607,0.1564,40.0600,74,98,351074
2.4731,0.1515,40.0600,74,98,351077
2.6735,0.1662,39.9600,74,98,351080
2.7370,0.1564,40.0000,74,98,351084
2.7077,0.1466,40.0300,74,98,351087
2.5367,0.1515,40.1300,74,98,351090
2.2727,0.1515,40.1000,74,98,351094
2.0381,0.1613,40.0000,74,98,351097
1.7937,0.1613,40.0600,74,98,351100
1.6862,0.1564,40.0000,74,98,351105
1.6471,0.1466,40.1000,74,98,351108
1.6569,0.1515,40.1000,74,98,351111
1.7204,0.1564,39.8900,74,98,351114
1.7155,0.1564,40.0600,74,98,351118
1.7546,0.1564,39.9600,74,98,351121
1.7302,0.1515,39.9600,74,98,351124
1.7351,0.1466,40.1000,74,98,351128
1.7546,0.1515,40.0300,74,98,351131
1.7400,0.1564,40.1000,74,98,351134
1.7595,0.1466,39.9600,74,98,351138
1.7400,0.1515,40.0600,74,98,351141
1.7449,0.1466,40.1300,74,98,351144
1.7644,0.1564,39.9600,74,98,351148
1.7449,0.1515,40.1000,74,98,351152
1.7840,0.1564,40.2300,74,98,351155
1.7498,0.1466,40.0600,74,98,351158
1.7546,0.1515,40.1000,74,98,351162
1.7644,0.1515,40.0600,74,98,351165
1.7546,0.1515,40.2000,74,98,351168
1.8084,0.2004,39.8600,74,98,351172
1.8035,0.1417,40.0300,74,98,351175
1.7693,0.1466,40.1000,74,98,351178
1.7791,0.1564,40.1300,74,98,351182
1.7742,0.1515,40.1000,74,98,351185
1.8328,0.1760,39.8900,74,98,351188
1.7937,0.1515,40.0600,74,98,351192
1.7986,0.1466,40.0600,74,98,351196
1.7889,0.1564,40.1000,74,98,351199
1.7986,0.1515,40.1000,74,98,351202
1.8377,0.1662,40.1000,74,98,351206
1.8280,0.1515,40.0600,74,98,351209
1.8377,0.1515,40.2300,74,98,351212
1.8182,0.1515,40.1000,74,98,351216
1.8280,0.1515,40.1300,74,98,351219
1.8671,0.1564,40.0300,74,98,351222
1.8426,0.1515,40.1600,74,98,351226
1.8719,0.1613,40.0000,74,98,351229
1.8475,0.1515,39.4800,74,98,351233
1.8524,0.1466,40.1000,74,98,351236
1.8866,0.1515,40.0300,74,98,351240
1.8671,0.1564,40.1000,74,98,351243
1.9013,0.1564,39.9300,74,98,351246
1.8964,0.1515,39.1900,74,98,351250
1.8964,0.1417,40.1000,74,98,351253
1.9208,0.1564,40.1000,74,98,351256
1.9208,0.1515,40.0600,74,98,351260
1.9697,0.1662,39.8600,74,98,351263
1.9453,0.1515,40.1600,74,98,351266
1.9453,0.1515,40.1000,74,98,351270
1.9697,0.1515,40.1600,74,98,351273
1.9599,0.1613,40.1300,74,98,351277
2.0332,0.1662,39.8300,74,98,351280
1.9892,0.1515,40.0000,74,98,351284
1.9892,0.1466,40.1300,74,98,351287
1.9892,0.1515,39.5400,74,98,351290
1.9941,0.1320,40.1000,74,98,351294
2.0479,0.1662,39.9600,74,98,351297
2.0137,0.1515,40.0000,74,98,351300
2.0186,0.1613,40.0000,74,98,351304
2.0039,0.1515,40.1000,74,98,351307
1.9990,0.1515,40.0300,74,98,351310
2.0332,0.1760,39.9300,74,98,351314
1.9892,0.1564,40.0300,74,98,351319
1.9746,0.1515,40.1300,74,98,351323
1.9892,0.1466,39.9300,74,98,351326
1.9453,0.1515,40.1000,74,98,351329
1.9306,0.1515,40.1600,74,98,351332
1.9404,0.1613,40.0000,74,98,351336
1.8964,0.1515,40.2000,74,98,351339
1.9208,0.1466,39.8600,74,98,351342
1.8622,0.1466,40.0600,74,98,351346
1.8524,0.1515,40.0600,74,98,351349
1.8524,0.1564,40.1000,74,98,351352
1.8182,0.1515,40.1000,74,98,351356
1.8475,0.1613,39.8300,74,98,351360
1.7986,0.1564,40.0000,74,98,351363
1.7693,0.1564,40.1000,74,98,351367
1.7546,0.1466,40.1000,74,98,351370
1.7400,0.1613,40.1000,74,98,351373
1.7742,0.1613,39.9300,74,98,351376
1.7204,0.1466,40.1000,74,98,351380
1.7107,0.1515,40.1000,74,98,351383
1.6911,0.1515,40.1000,74,98,351386
1.6813,0.1662,40.0600,74,98,351390
1.6960,0.1515,39.9600,74,98,351393
1.6813,0.1857,40.0300,74,98,351396
1.7009,0.1564,39.9600,74,98,351400
1.6764,0.1515,40.1000,74,98,351404
1.6813,0.1515,40.1000,74,98,351407
1.6911,0.1515,40.0000,74,98,351411
1.7155,0.1564,40.1000,74,98,351414
1.7155,0.1515,39.9600,74,98,351417
1.7058,0.1515,40.1000,74,98,351420
1.6960,0.1515,40.1300,74,98,351424
1.7302,0.1760,39.9600,74,98,351427
1.7107,0.1564,40.1000,74,98,351430
1.7498,0.1564,39.8900,74,98,351434
1.7302,0.1564,40.0000,74,98,351437
1.7155,0.1515,40.3000,74,98,351440
1.7351,0.1564,40.0600,74,98,351444
1.7302,0.1515,40.0600,74,98,351448
1.7791,0.1613,39.8300,74,98,351451
1.7351,0.1564,40.0600,74,98,351455
1.7449,0.1515,40.2600,74,98,351458
1.7498,0.1564,40.0600,74,98,351461
1.7595,0.1515,40.1000,74,98,351464
1.8035,0.1711,39.8300,74,98,351468
1.7742,0.1662,40.0300,74,98,351471
1.7693,0.1515,40.0300,74,98,351474
1.7693,0.1564,40.0600,74,98,351478
1.7693,0.1515,40.1300,74,98,351481
1.8084,0.1613,40.0000,74,98,351484
1.7840,0.1515,40.1600,74,98,351489
1.7937,0.1613,39.9600,74,98,351492
1.7742,0.1515,40.1600,74,98,351495
1.7791,0.1564,40.1000,74,98,351499
1.8084,0.1564,39.9600,74,98,351502
1.7840,0.1857,40.1000,74,98,351505
1.8084,0.1564,40.0000,74,98,351509
1.7840,0.1466,40.1000,74,98,351512
1.7889,0.1515,40.1000,74,98,351515
1.8035,0.1515,40.1000,74,98,351518
1.7937,0.1515,40.0300,74,98,351522
1.8231,0.1564,39.8900,74,98,351525
1.7986,0.1515,40.1600,74,98,351528
1.7986,0.1466,40.1000,74,98,351533
1.8231,0.1613,40.0300,74,98,351536
1.8035,0.1515,40.1000,74,98,351539
1.8426,0.1564,39.8600,74,98,351543
1.7986,0.1466,40.0300,74,98,351546
1.8035,0.1613,40.1000,74,98,351549
1.8133,0.1564,40.0600,74,98,351552
1.8035,0.1711,40.1000,74,98,351556
1.8524,0.1613,39.8300,74,98,351559
1.8133,0.1515,39.6700,74,98,351562
1.7986,0.1466,40.1000,74,98,351566
1.8035,0.1515,40.0600,74,98,351569
1.7986,0.1417,40.1000,74,98,351572
1.8426,0.1613,39.9300,74,98,351577
1.8035,0.1466,40.1000,74,98,351580
1.8035,0.1564,40.0000,74,98,351583
1.7937,0.1515,40.1300,74,98,351587
1.7889,0.1711,40.1000,74,98,351590
1.8182,0.1613,40.0000,74,98,351593
1.7937,0.1564,40.1000,74,98,351597
1.8084,0.1564,39.9600,74,98,351600
1.7840,0.1515,40.1000,74,98,351603
1.8035,0.1564,40.1300,74,98,351606
1.7986,0.1515,40.0000,74,98,351610
1.7889,0.1515,40.0000,74,98,351613
1.8231,0.1564,39.9300,74,98,351617
1.7889,0.1564,40.1000,74,98,351621
1.8084,0.1515,40.1000,74,98,351624
1.8133,0.1515,40.1000,74,98,351627
1.7889,0.1564,40.1000,74,98,351631
1.8231,0.1564,39.8900,74,98,351634
1.8035,0.1515,40.0000,74,98,351637
1.7986,0.1515,40.1300,74,98,351640
1.7986,0.1662,40.0300,74,98,351644
1.7986,0.1564,40.1000,74,98,351647
1.8328,0.1613,39.9600,74,98,351650
1.8182,0.1564,40.0600,74,98,351654
1.7889,0.1515,40.1000,74,98,351657
1.7937,0.1564,40.0000,74,98,351661
1.7889,0.1564,40.1000,74,98,351665
1.8426,0.1711,39.8600,74,98,351668
1.8084,0.1564,40.0000,74,98,351671
1.8035,0.1466,40.0300,74,98,351675
1.7986,0.1515,40.0600,74,98,351678
1.7986,0.1515,40.1000,74,98,351681
1.8377,0.1662,40.0600,74,98,351684
1.8084,0.1808,40.0300,74,98,351688
1.8377,0.1564,39.9600,74,98,351691
1.7937,0.1515,40.1300,74,98,351694
1.7889,0.1564,40.1000,74,98,351698
1.8280,0.1613,39.9600,74,98,351702
1.7986,0.1564,40.1000,74,98,351705
1.8231,0.1515,40.0000,74,98,351709
1.7937,0.1564,40.1300,74,98,351712
1.7986,0.1515,40.1300,74,98,351715
1.8133,0.1564,40.0300,74,98,351719
1.8035,0.1564,40.1000,74,98,351722
1.8231,0.1515,39.9600,74,98,351725
1.7937,0.1369,40.1000,74,98,351728
1.7889,0.1515,40.1300,74,98,351732
1.8084,0.1906,40.0300,74,98,351735
1.7986,0.1564,40.1000,74,98,351738
1.8426,0.1515,39.9300,74,98,351742
1.8182,0.1466,40.0600,74,98,351746
1.8328,0.1515,40.2000,74,98,351749
1.8573,0.1564,40.0300,74,98,351753
1.8524,0.1515,40.1000,74,98,351756
1.9013,0.1662,39.8000,74,98,351759
1.8573,0.1564,40.0000,74,98,351763
1.8426,0.1466,40.0600,74,98,351766
1.8426,0.1564,40.1000,74,98,351769
1.8475,0.1564,40.1000,74,98,351772
1.9013,0.1662,39.8600,74,98,351776
1.8622,0.1564,40.0600,74,98,351779
1.8622,0.1564,40.0300,74,98,351782
1.8524,0.1613,40.0600,74,98,351787
1.8622,0.1564,40.1000,74,98,351790
1.8622,0.1515,39.9600,74,98,351793
1.8377,0.1662,40.1000,74,98,351797
1.8475,0.1564,39.9600,74,98,351800
1.8328,0.1515,40.2300,74,98,351803
1.8426,0.1564,40.1000,74,98,351807
1.8622,0.1515,40.0000,74,98,351810
1.8622,0.1320,40.1000,74,98,351813
1.8768,0.1515,40.0300,74,98,351816
1.8377,0.1564,40.0600,74,98,351820
1.8328,0.1515,40.1000,74,98,351823
1.8426,0.1613,40.0600,74,98,351826
1.8426,0.1564,40.0600,74,98,351831
1.8377,0.1564,39.8900,74,98,351834
1.8084,0.1515,40.0000,74,98,351837
1.7986,0.1515,40.1000,74,98,351841
1.8035,0.1711,40.0000,74,98,351844
1.8084,0.1564,40.1300,74,98,351847
1.8231,0.1613,39.8600,74,98,351851
1.7889,0.1613,40.0600,74,98,351854
1.7937,0.1515,40.1000,74,98,351857
1.8035,0.1613,40.0300,74,98,351860
1.7937,0.1564,40.1300,74,98,351864
1.8475,0.1613,39.8300,74,98,351867
1.8084,0.1662,40.1000,74,98,351870
1.7889,0.1466,40.1000,74,98,351875
1.8035,0.1564,40.1600,74,98,351878
1.7986,0.1564,40.1000,74,98,351881
1.8475,0.1662,39.9600,74,98,351885
1.8084,0.1662,40.0600,74,98,351888
1.8377,0.1564,40.0000,74,98,351891
1.8133,0.1515,40.1000,74,98,351895
1.8573,0.1564,40.1000,74,98,351898
1.8964,0.1613,40.0300,74,98,351901
1.9257,0.1564,40.1000,74,98,351904
2.0381,0.1564,39.9600,74,98,351908
2.1017,0.1515,40.1000,74,98,351911
2.1945,0.1417,40.1000,74,98,351915
2.3265,0.1564,40.0300,74,98,351919
2.4291,0.1515,40.0300,74,98,351922
2.5953,0.1564,39.9300,74,98,351925
2.6833,0.1564,39.8600,74,98,351929
1.8475,0.1564,40.0600,74,98,351933
1.6960,0.1515,40.1300,74,98,351937
1.6422,0.1564,40.1000,74,98,351940
1.6373,0.1564,40.0600,74,98,351943
1.7155,0.1711,39.8300,74,98,351947
1.7058,0.1564,40.0300,74,98,351950
1.7204,0.1320,40.0600,74,98,351953
1.7253,0.1515,40.0600,74,98,351956
1.7253,0.1564,40.1000,74,98,351961
1.7693,0.1613,39.9300,74,98,351964
1.7400,0.1564,40.1300,74,98,351967
1.7449,0.1564,40.0000,74,98,351971
1.7351,0.1515,40.0300,74,98,351974
1.7351,0.1564,40.1000,74,98,351977
1.7644,0.1613,40.0000,74,98,351981
1.7498,0.1564,40.0600,74,98,351984
1.7644,0.1564,39.9600,74,98,351987
1.7449,0.1515,40.1000,74,98,351991
1.7498,0.1515,40.1000,74,98,351994
1.7595,0.1515,40.0000,74,98,351997
1.7546,0.1613,40.0300,74,98,352001
1.7840,0.1564,39.9300,74,98,352005
1.7546,0.1564,40.1600,74,98,352008
1.7595,0.1564,40.1000,74,98,352011
1.7889,0.1613,40.0000,74,98,352015
1.7742,0.1320,40.1000,74,98,352018
1.8133,0.1515,39.8900,74,98,352021
1.7937,0.1662,40.1000,74,98,352025
1.7889,0.1564,40.1000,74,98,352028
1.8035,0.1711,40.1000,74,98,352031
1.7986,0.1564,40.1000,74,98,352035
1.8524,0.1613,39.8600,74,98,352038
1.8475,0.1564,39.9600,74,98,352041
1.8133,0.1515,40.1000,74,98,352045
1.8328,0.1564,40.0300,74,98,352049
1.8231,0.1564,40.2300,74,98,352052
1.8866,0.1711,39.8900,74,98,352055
1.8524,0.1662,40.0300,74,98,352059
1.8475,0.1564,40.0600,74,98,352062
1.8475,0.1515,40.1000,74,98,352065
1.8524,0.1564,40.1000,74,98,352069
1.8915,0.1662,40.0600,74,98,352072
1.8768,0.1564,40.1000,74,98,352075
1.8915,0.1564,40.0000,74,98,352079
1.8768,0.1564,40.1000,74,98,352082
1.8915,0.1564,40.1300,74,98,352086
1.9355,0.1906,39.9600,74,98,352089
1.9159,0.1564,40.1000,74,98,352093
1.9501,0.1613,40.0600,74,98,352096
1.9306,0.1466,40.0600,74,98,352099
1.9404,0.1564,40.1000,74,98,352103
1.9599,0.1564,39.9600,74,98,352106
1.9501,0.1613,40.0600,74,98,352109
1.9795,0.1564,39.9300,74,98,352113
1.9648,0.1564,40.0600,74,98,352116
1.9746,0.1564,40.1000,74,98,352119
2.0039,0.1662,39.9600,74,98,352122
1.9844,0.1515,40.1000,74,98,352126
2.0283,0.1613,39.8600,74,98,352130
1.9844,0.1466,40.0600,74,98,352133
1.9892,0.1515,39.9600,74,98,352137
2.0088,0.1613,40.0600,74,98,352140
1.9892,0.1515,39.9600,74,98,352143
2.0430,0.1662,39.8300,74,98,352147
1.9990,0.1564,40.0300,74,98,352150
1.9892,0.1466,40.1000,74,98,352153
2.0235,0.1564,40.1000,74,98,352157
1.9844,0.1564,40.1000,74,98,352160
2.0381,0.1711,39.8300,74,98,352163
1.9844,0.1564,40.0600,74,98,352166
1.9746,0.1515,40.0300,74,98,352171
1.9550,0.1515,40.0600,74,98,352174
1.9404,0.1564,40.1000,74,98,352177
1.9599,0.1613,39.9600,74,98,352181
1.9257,0.1613,40.1000,74,98,352184
1.9159,0.1564,39.9600,74,98,352187
1.8817,0.1515,40.1000,74,98,352191
1.8622,0.1613,40.1000,74,98,352194
1.8671,0.1515,40.0300,74,98,352197
1.8328,0.1662,40.0600,74,98,352200
1.8377,0.1662,40.0000,74,98,352204
1.7889,0.1515,40.0600,74,98,352207
1.7644,0.1564,40.1000,74,98,352210
1.7693,0.1613,40.0000,74,98,352215
1.7302,0.1564,40.1000,74,98,352218
1.7400,0.1564,39.9600,74,98,352221
1.7107,0.1564,40.0000,74,98,352225
1.6960,0.1564,40.1000,74,98,352228
1.7058,0.1613,40.2300,74,98,352231
1.6862,0.1564,40.0600,74,98,352235
1.7253,0.1564,39.8600,74,98,352238
1.6862,0.1564,40.0600,74,98,352241
1.7009,0.1564,40.1000,74,98,352244
1.6911,0.1613,40.0600,74,98,352248
1.6764,0.1515,40.1300,74,98,352251
1.7204,0.1613,39.8300,74,98,352254
1.6911,0.1515,39.9600,74,98,352259
1.6764,0.1417,40.1000,74,98,352262
1.6911,0.1564,40.1600,74,98,352265
1.6813,0.1564,40.1000,74,98,352269
1.7351,0.1711,40.0000,74,98,352272
1.7155,0.1906,40.1000,74,98,352275
1.7351,0.1564,40.0300,74,98,352279
1.7107,0.1564,40.0600,74,98,352282
1.7155,0.1564,40.1000,74,98,352285
1.7546,0.1613,39.9300,74,98,352288
1.7302,0.1564,40.1000,74,98,352292
1.7498,0.1564,39.9600,74,98,352295
1.7302,0.1564,40.1000,74,98,352299
1.7302,0.1564,40.1000,74,98,352303
1.7595,0.1613,40.0000,74,98,352306
1.7498,0.1613,40.1000,74,98,352309
1.7742,0.1515,40.0000,74,98,352313
1.7449,0.1760,40.0600,74,98,352316
1.7498,0.1564,40.1000,74,98,352319
1.7742,0.1564,40.0000,74,98,352323
1.7693,0.1564,40.0600,74,98,352326
1.7986,0.1564,39.9300,74,98,352329
1.7693,0.1515,40.1300,74,98,352332
1.7791,0.1613,40.1000,74,98,352336
1.8035,0.1613,40.0300,74,98,352339
1.7889,0.1564,40.1000,74,98,352343
1.8377,0.1613,39.8900,74,98,352347
1.8133,0.1662,40.0000,74,98,352350
1.7937,0.1515,40.1300,74,98,352353
1.8133,0.1564,40.0600,74,98,352357
1.8035,0.1564,40.1000,74,98,352360
1.8524,0.1711,40.2300,74,98,352363
1.8133,0.1515,40.0600,74,98,352367
1.8084,0.1515,40.1000,74,98,352370
1.8084,0.1564,40.0600,74,98,352373
1.8084,0.1613,40.1000,74,98,352376
1.8524,0.1515,40.0000,74,98,352380
1.8231,0.1613,40.0300,74,98,352384
1.8231,0.1564,40.0000,74,98,352387
1.8035,0.1515,40.1600,74,98,352391
1.8084,0.1564,40.1000,74,98,352394
1.8231,0.1613,40.1000,74,98,352397
1.8084,0.1613,40.0600,74,98,352401
1.8280,0.1613,39.9600,74,98,352404
1.8035,0.1515,40.1000,74,98,352407
1.8084,0.1564,40.0600,74,98,352410
1.8280,0.1613,40.0000,74,98,352414
1.7937,0.1711,40.1600,74,98,352417
1.8133,0.1564,39.9600,74,98,352420
1.7937,0.1515,40.2000,74,98,352424
1.7937,0.1613,40.2300,74,98,352428
1.8035,0.1613,39.8900,74,98,352431
1.7889,0.1662,40.1000,74,98,352435
1.8280,0.1564,39.8900,74,98,352438
1.7937,0.1564,40.2000,74,98,352441
1.7889,0.1662,40.1000,74,98,352445
1.8035,0.1613,40.0300,74,98,352448
1.7791,0.1564,40.2300,74,98,352451
1.8231,0.1711,39.8600,74,98,352454
1.7840,0.1515,40.0000,74,98,352458
1.7791,0.2053,40.1600,74,98,352461
1.7889,0.1564,40.0600,74,98,352464
1.7791,0.1515,40.0600,74,98,352468
1.8328,0.1760,39.8600,74,98,352472
1.7986,0.1613,40.0600,74,98,352475
1.7889,0.1515,40.1300,74,98,352479
1.7937,0.1564,40.1000,74,98,352482
1.7937,0.1515,40.0300,74,98,352485
1.8280,0.1662,39.9300,74,98,352489
1.7986,0.1515,40.1000,74,98,352492
1.8084,0.1564,39.9600,74,98,352495
1.7889,0.1613,40.1000,74,98,352498
1.7937,0.1564,40.1000,74,98,352502
1.8133,0.1613,39.9600,74,98,352505
1.7937,0.1564,40.0600,74,98,352508
1.8182,0.1613,39.9600,74,98,352513
1.7937,0.1857,40.1300,74,98,352516
1.7937,0.1564,40.1000,74,98,352519
1.8035,0.1564,39.9600,74,98,352523
1.7986,0.1564,40.1000,74,98,352526
1.8133,0.1564,40.0600,74,98,352529
1.7889,0.1564,40.1600,74,98,352532
1.7986,0.1515,40.1000,74,98,352536
1.8231,0.1564,40.0300,73,98,352539
1.8182,0.1564,40.0600,73,98,352544
1.8035,0.1564,40.1300,73,98,352547
1.8573,0.1711,39.9300,73,98,352550
1.8084,0.1515,40.0300,73,98,352555
1.8035,0.1515,40.0600,73,98,352558
1.8328,0.1564,40.1000,73,98,352561
1.8084,0.1564,40.1000,73,98,352565
1.8524,0.1613,39.9300,73,98,352568
1.8280,0.1564,40.0300,73,98,352571
1.8426,0.1564,40.0000,73,98,352575
1.8328,0.1564,40.0600,73,98,352578
1.8377,0.1564,40.1000,73,98,352581
1.8573,0.1613,40.2000,73,98,352584
1.8475,0.1808,40.0300,73,98,352588
1.8719,0.1466,39.9600,73,98,352591
1.8524,0.1613,40.0300,73,98,352594
1.8671,0.1564,40.1300,73,98,352599
1.8817,0.1613,39.9600,73,98,352602
1.8426,0.1515,40.1000,73,98,352605
1.8573,0.1564,40.1000,73,98,352609
1.8280,0.1564,40.0000,73,98,352612
1.8182,0.1564,40.1000,73,98,352615
1.8328,0.1613,39.3800,73,98,352619
1.8231,0.1564,40.0600,73,98,352622
1.8719,0.1515,39.9300,73,98,352625
1.8426,0.1564,40.0600,73,98,352628
1.8280,0.1564,40.1000,73,98,352632
1.8475,0.1613,40.2600,73,98,352635
1.8182,0.1564,40.1000,73,98,352638
1.8622,0.1613,39.8300,73,98,352643
1.8377,0.1613,40.0000,73,98,352646
1.8035,0.1515,40.1000,73,98,352649
1.7986,0.1564,40.0600,73,98,352653
1.7937,0.1564,40.1000,73,98,352656
1.8426,0.1711,39.8600,73,98,352659
1.8133,0.1564,40.0300,73,98,352663
1.8035,0.1564,40.0300,73,98,352666
1.7986,0.1564,40.1000,73,98,352669
1.7986,0.1564,40.1000,73,98,352672
1.8328,0.1613,39.8900,73,98,352676
1.7986,0.1613,40.1000,73,98,352679
1.8231,0.1564,40.0300,73,98,352683
1.8035,0.1515,40.0600,73,98,352687
1.8035,0.1564,40.1000,73,98,352690
1.8328,0.1662,40.0300,73,98,352693
1.8084,0.1564,40.0600,73,98,352697
1.8328,0.1613,40.0300,73,98,352700
1.8182,0.1564,40.1300,73,98,352703
1.8133,0.1515,40.0600,73,98,352706
1.8231,0.1564,40.0000,73,98,352710
1.8182,0.1564,40.1000,73,98,352713
1.8524,0.1564,39.9300,73,98,352716
1.8426,0.1564,40.1000,73,98,352720
1.8817,0.1515,40.1600,73,98,352723
1.9648,0.1564,40.0300,73,98,352727
2.0430,0.1564,39.9300,73,98,352731
2.1896,0.1662,39.8600,73,98,352734
2.2678,0.1613,40.0000,73,98,352737
2.3656,0.1515,40.2300,73,98,352741
2.5171,0.1613,40.1000,73,98,352744
2.6393,0.1515,40.1000,73,98,352747
2.8055,0.1662,39.7700,73,98,352750
2.7126,0.1515,40.0000,73,98,352754
2.5122,0.1515,40.0300,73,98,352757
2.2581,0.1662,40.1000,73,98,352760
1.9697,0.1564,40.1300,73,98,352764
1.7840,0.1711,39.8900,73,98,352768
1.6227,0.1613,40.0300,73,98,352771
1.5640,0.1564,40.0000,73,98,352775
1.5738,0.1564,40.0600,73,98,352778
1.6276,0.1564,40.0300,73,98,352781
1.7009,0.1662,39.8900,73,98,352785
1.7107,0.1662,40.1000,73,98,352788
1.7449,0.1564,40.0000,73,98,352791
1.7449,0.1808,40.0600,73,98,352794
1.7546,0.1613,40.1000,73,98,352798
1.7840,0.1515,39.9600,73,98,352801
1.7693,0.1808,40.1000,73,98,352804
1.7937,0.1613,40.0000,73,98,352808
1.7693,0.1515,40.0600,73,98,352812
1.7742,0.1515,40.2000,73,98,352815
1.7937,0.1613,40.0300,73,98,352819
1.7791,0.1515,40.1600,73,98,352822
1.7986,0.1613,39.8900,73,98,352825
1.7791,0.1564,40.1300,73,98,352828
1.7840,0.1613,40.1600,73,98,352832
1.8084,0.1662,40.0300,73,98,352835
1.7889,0.1564,40.1300,73,98,352838
1.8328,0.1662,39.8600,73,98,352842
1.7937,0.1515,40.0000,73,98,352845
1.8035,0.1613,40.1000,73,98,352848
1.8182,0.1613,40.0600,73,98,352852
1.8084,0.1662,40.1000,73,98,352856
1.8573,0.1711,39.8300,73,98,352859
1.8231,0.1613,40.0300,73,98,352863
1.8133,0.1564,40.0600,73,98,352866
1.8133,0.1564,40.1600,73,98,352869
1.8182,0.1515,40.1000,73,98,352872
1.8768,0.1662,39.9300,73,98,352876
1.8328,0.1760,40.0600,73,98,352879
1.8426,0.1613,40.0000,73,98,352882
1.8475,0.1564,40.1000,73,98,352886
1.8524,0.1564,40.1000,73,98,352889
1.8964,0.1662,39.9600,73,98,352892
1.8817,0.1613,40.0600,73,98,352897
1.9208,0.1662,39.9600,73,98,352900
1.8866,0.1564,40.1300,73,98,352903
1.8964,0.1564,40.1000,73,98,352907
1.9062,0.1564,40.1000,73,98,352910
1.8964,0.1564,40.1000,73,98,352913
1.9306,0.1564,40.0000,73,98,352916
1.9013,0.1564,40.1000,73,98,352920
1.9110,0.1662,40.1300,73,98,352923
1.9404,0.1613,40.0600,73,98,352926
1.9208,0.1613,40.1600,73,98,352930
1.9844,0.1613,39.9300,73,98,352933
1.9453,0.1564,40.4300,73,98,352936
1.9599,0.1564,40.1000,73,98,352941
1.9501,0.1613,40.0000,73,98,352944
1.9453,0.1662,40.1000,73,98,352947
2.0039,0.1613,39.8600,73,98,352951
1.9697,0.1662,40.0300,73,98,352954
1.9795,0.1564,40.1000,73,98,352957
1.9941,0.1613,40.0600,73,98,352960
1.9892,0.1515,40.1600,73,98,352964
2.0479,0.1711,39.8900,73,98,352967
2.0137,0.1613,40.0300,73,98,352970
1.9941,0.1564,40.0300,73,98,352974
1.9990,0.1564,40.1000,73,98,352977
1.9990,0.1564,40.1300,73,98,352980
2.0381,0.1711,39.9600,73,98,352985
1.9990,0.1662,40.1600,73,98,352988
2.0283,0.1564,39.9600,73,98,352991
1.9795,0.1564,40.1600,73,98,352995
2.0039,0.1564,40.1000,73,98,352998
1.9990,0.1662,39.9600,73,98,353001
1.9550,0.1613,40.1000,73,98,353004
1.9795,0.1613,39.9600,73,98,353008
1.9306,0.1564,40.1300,73,98,353011
1.9355,0.1564,40.1000,73,98,353014
1.9257,0.1613,40.0600,73,98,353018
1.8964,0.1613,40.1000,73,98,353021
1.9062,0.1564,39.9600,73,98,353025
1.8671,0.1564,40.0000,73,98,353029
1.8817,0.1564,40.1000,73,98,353032
1.8573,0.1613,39.9600,73,98,353035
1.8182,0.1564,40.1600,73,98,353039
1.8377,0.1613,39.9600,73,98,353042
1.8133,0.1564,40.0300,73,98,353045
1.7693,0.1515,40.1000,73,98,353048
1.7644,0.1662,40.0600,73,98,353052
1.7449,0.1564,40.1000,73,98,353055
1.7840,0.1662,39.7300,73,98,353058
1.7449,0.1711,40.0300,73,98,353062
1.7204,0.1564,40.1000,73,98,353065
1.7155,0.1760,40.1300,73,98,353069
1.7155,0.1564,40.1000,73,98,353073
1.7498,0.1711,40.0300,73,98,353076
1.7058,0.1613,40.0600,73,98,353079
1.7107,0.1564,40.0300,73,98,353083
1.7058,0.1760,40.0600,73,98,353086
1.7302,0.1564,40.1000,73,98,353089
1.7400,0.1662,39.9300,73,98,353092
1.7253,0.1613,40.1000,73,98,353096
1.7400,0.1564,40.0000,73,98,353099
1.7253,0.1564,39.4400,73,98,353102
1.7302,0.1564,40.1000,73,98,353106
1.7498,0.1564,40.0000,73,98,353110
1.7400,0.1613,40.1300,73,98,353113
1.7644,0.1662,40.0000,73,98,353117
1.7400,0.1662,40.2300,73,98,353120
1.7546,0.1564,40.1000,73,98,353123
1.7742,0.1662,39.4400,73,98,353126
1.7498,0.1564,40.1300,73,98,353130
1.7889,0.1613,39.8600,73,98,353133
1.8035,0.1662,40.0000,73,98,353136
1.7742,0.1564,40.1000,73,98,353140
1.7889,0.1613,40.0300,73,98,353143
1.7791,0.1564,40.1000,73,98,353146
1.8231,0.1613,39.8000,73,98,353150
1.8328,0.1760,39.8900,73,98,353155
1.8133,0.1515,40.0300,73,98,353159
1.8035,0.1564,40.0300,73,98,353162
1.8231,0.1613,40.0600,73,98,353165
1.7986,0.1564,40.2300,73,98,353169
1.8280,0.1613,40.0300,73,98,353172
1.8035,0.1613,40.1000,73,98,353175
1.8231,0.1613,39.0600,73,98,353179
1.8084,0.1564,40.1000,73,98,353182
1.8035,0.1564,40.1000,73,98,353185
1.8377,0.1662,39.9300,73,98,353188
1.8035,0.1564,40.1000,73,98,353192
1.8328,0.1613,40.0000,73,98,353196
1.8084,0.1466,40.0600,73,98,353199
1.8133,0.1564,40.1000,73,98,353203
1.8280,0.1613,40.1300,73,98,353206
1.8133,0.1613,40.0600,73,98,353209
1.8377,0.1564,39.8900,73,98,353213
1.8084,0.1760,40.0300,73,98,353216
1.7986,0.1613,40.1000,73,98,353219
1.8182,0.1662,40.0300,73,98,353222
1.7937,0.1564,40.0600,73,98,353226
1.8328,0.1613,39.8600,73,98,353229
1.7889,0.1564,40.0300,73,98,353232
1.7986,0.1564,40.1000,73,98,353236
1.7937,0.1613,40.1000,73,98,353240
1.7889,0.1564,40.1300,73,98,353243
1.8475,0.1760,39.8900,73,98,353247
1.8035,0.1613,40.0300,73,98,353250
1.8035,0.1564,40.0600,73,98,353253
1.7889,0.1564,40.1000,73,98,353257
1.7889,0.1613,40.0600,73,98,353260
1.8377,0.1613,39.9300,73,98,353263
1.7986,0.1857,40.1000,73,98,353266
1.7986,0.1564,40.0000,73,98,353270
1.7889,0.1515,40.1300,73,98,353273
1.7889,0.1564,40.1000,73,98,353276
1.8182,0.1662,39.9600,73,98,353281
1.7937,0.1760,40.0600,73,98,353284
1.8182,0.1564,39.9300,73,98,353287
1.7840,0.1564,40.1600,73,98,353291
1.7791,0.1564,40.1000,73,98,353294
1.7937,0.1564,40.1000,73,98,353297
1.7840,0.1711,40.1000,73,98,353301
1.8084,0.1564,39.9600,73,98,353304
1.7840,0.1564,40.1000,73,98,353307
1.7889,0.1515,40.0600,73,98,353310
1.8133,0.1613,40.0000,73,98,353314
1.7889,0.1564,40.2000,73,98,353317
1.8182,0.1711,39.8900,73,98,353320
1.8035,0.1564,40.0000,73,98,353325
1.7937,0.1564,40.0000,73,98,353328
1.8084,0.1613,40.0600,73,98,353331
1.7937,0.1515,40.1000,73,98,353335
1.8377,0.1662,39.8600,73,98,353338
1.8035,0.1564,40.0300,73,98,353341
1.7986,0.1515,39.4400,73,98,353344
1.8133,0.1613,40.0600,73,98,353348
1.7986,0.1564,40.0600,73,98,353351
1.8524,0.1711,39.8900,73,98,353354
1.8133,0.1613,39.9600,73,98,353358
1.8084,0.1564,40.0300,73,98,353361
1.8084,0.1613,40.1000,73,98,353364
1.8084,0.1515,40.1000,73,98,353369
1.8524,0.1711,39.9600,73,98,353372
1.8231,0.1613,40.0600,73,98,353375
1.8328,0.1564,40.0000,73,98,353379
1.8133,0.1515,40.1300,73,98,353382
1.8133,0.1564,40.1600,73,98,353385
1.8475,0.1711,39.9300,73,98,353389
1.8182,0.1515,40.1000,73,98,353392
1.8768,0.1662,39.9600,73,98,353395
1.8133,0.1515,40.1000,73,98,353398
1.8084,0.1613,40.0600,73,98,353402
1.8280,0.1613,40.0000,73,98,353405
1.8084,0.1564,40.1300,73,98,353409
1.8328,0.1564,39.9300,73,98,353413
1.8133,0.1515,40.0600,73,98,353416
1.8280,0.1662,40.1000,73,98,353419
1.8671,0.1662,39.9600,73,98,353423
1.8524,0.1564,40.1000,73,98,353426
1.9062,0.1564,39.8900,73,98,353429
1.8475,0.1515,40.0600,73,98,353433
1.8719,0.1564,40.1000,73,98,353436
1.8622,0.1613,40.0600,73,98,353439
1.8719,0.1613,40.1000,73,98,353442
1.9013,0.1662,39.8300,73,98,353446
1.8671,0.1613,40.0300,73,98,353449
1.8817,0.1564,40.1000,73,98,353453
1.8426,0.1613,40.1300,73,98,353457
1.8280,0.1564,40.1000,73,98,353460
1.8817,0.1711,39.9600,73,98,353463
1.8671,0.1613,40.0600,73,98,353467
1.8475,0.1515,40.0000,73,98,353470
1.8426,0.1808,40.1600,73,98,353473
1.8768,0.1564,40.1000,73,98,353477
1.8817,0.1662,40.1000,73,98,353480
1.8573,0.1613,40.0300,73,98,353483
1.8719,0.1515,40.0000,73,98,353486
1.8426,0.1564,40.0600,73,98,353490
1.8377,0.1564,40.1000,73,98,353494
1.8475,0.1564,40.0600,73,98,353497
1.8231,0.1662,40.1000,73,98,353501
1.8426,0.1613,40.0300,73,98,353504
1.8035,0.1564,40.1000,73,98,353507
1.8084,0.1564,40.1600,73,98,353511
1.8182,0.1662,40.0300,73,98,353514
1.8231,0.1564,40.0600,73,98,353517
1.8280,0.1613,39.8900,73,98,353520
1.8035,0.1564,40.0000,73,98,353524
1.7937,0.1613,40.0600,73,98,353527
1.8133,0.1613,40.0600,73,98,353530
1.8035,0.1613,40.0600,73,98,353534
1.8426,0.1564,39.8600,73,98,353538
1.8133,0.1613,40.0600,73,98,353541
1.8084,0.1857,40.1000,73,98,353545
1.8182,0.1662,40.0300,73,98,353548
1.8133,0.1515,40.0000,73,98,353551
1.8622,0.1808,39.8300,73,98,353555
1.8231,0.1613,40.0000,73,98,353558
1.8133,0.1564,40.1000,73,98,353561
1.8231,0.1613,40.1000,73,98,353564
1.8377,0.1662,40.1000,73,98,353568
1.9306,0.1711,39.9600,73,98,353571
1.9648,0.1613,40.1300,73,98,353574
2.0968,0.1564,40.0000,73,98,353579
2.1457,0.1564,39.8000,73,98,353582
2.2434,0.1515,40.0600,73,98,353585
2.3998,0.1662,39.9300,73,98,353589
2.4878,0.1564,40.0600,73,98,353592
2.6491,0.1857,39.8600,73,98,353595
2.7273,0.1564,40.1000,73,98,353599
2.7126,0.1515,40.1300,73,98,353602
2.5758,0.1613,40.0300,73,98,353605
2.2874,0.1613,40.1000,73,98,353608
2.0381,0.1564,39.9300,73,98,353612
1.7937,0.1564,40.1000,73,98,353615
1.6862,0.1515,40.1000,73,98,353618
1.6667,0.1613,40.0000,73,98,353623
1.6813,0.1613,40.0600,73,98,353626
1.7204,0.1613,39.9300,73,98,353629
1.7155,0.1808,40.1000,73,98,353633
1.7302,0.1564,40.1000,73,98,353636
1.7498,0.1613,40.0000,73,98,353639
1.7302,0.1564,40.1000,73,98,353642
1.7791,0.1662,40.0600,73,98,353646
1.7498,0.1711,40.0000,73,98,353649
1.7351,0.1564,40.1300,73,98,353652
1.7400,0.1662,40.1000,73,98,353656
1.7351,0.1564,40.1000,73,98,353659
1.7889,0.1760,39.8600,73,98,353662
1.7498,0.1613,40.0300,73,98,353667
1.7449,0.1515,40.0300,73,98,353670
1.7498,0.1613,40.0600,73,98,353673
1.7644,0.1613,40.1300,73,98,353677
1.7889,0.1711,40.0000,73,98,353680
1.7644,0.1662,40.1000,73,98,353683
1.7644,0.1564,40.0000,73,98,353686
1.7595,0.1613,40.1600,73,98,353690
1.7986,0.1564,40.1000,73,98,353693
1.7937,0.1515,40.0600,73,98,353696
1.7791,0.1711,40.0300,73,98,353700
1.8035,0.1613,40.0300,73,98,353703
1.7937,0.1613,40.1000,73,98,353707
1.8035,0.1564,40.1000,73,98,353711
1.8426,0.1662,40.0000,73,98,353714
1.8182,0.1564,40.1000,73,98,353717
1.8475,0.1564,39.9600,73,98,353721
1.8328,0.1613,40.0600,73,98,353724
1.8328,0.1564,40.1300,73,98,353727
1.8524,0.1613,40.0300,73,98,353730
1.8426,0.1564,40.1300,73,98,353734
1.8768,0.1662,39.8900,73,98,353737
1.8524,0.1613,40.0000,73,98,353740
1.8524,0.1662,40.0600,73,98,353744
1.8768,0.1662,40.0300,73,98,353747
1.8573,0.1564,40.2000,73,98,353751
1.9110,0.1906,39.8600,73,98,353755
1.8768,0.1564,40.0300,73,98,353758
1.8768,0.1564,40.1300,73,98,353761
1.8866,0.1662,40.1000,73,98,353764
1.9355,0.1515,40.1000,73,98,353769
1.9453,0.1564,40.0600,73,98,353772
1.9892,0.1662,39.9600,73,98,353776
1.9648,0.1613,40.1000,73,98,353779
1.9941,0.1613,39.9600,73,98,353782
1.9746,0.1564,40.1600,73,98,353786
1.9844,0.1564,40.1000,73,98,353789
2.0088,0.1662,40.0000,73,98,353793
2.0039,0.1613,40.1000,73,98,353797
2.0381,0.1564,39.9600,73,98,353800
2.0039,0.1564,40.1000,73,98,353803
2.0088,0.1613,40.1300,73,98,353806
2.0235,0.1613,40.0000,73,98,353810
2.0088,0.1613,40.0600,73,98,353813
2.0332,0.1515,39.9300,73,98,353816
1.9990,0.1662,40.1000,73,98,353820
1.9990,0.1564,40.1000,73,98,353823
2.0137,0.1711,40.0600,73,98,353826
2.0088,0.1564,40.1300,73,98,353830
2.0332,0.1662,39.8600,73,98,353833
1.9941,0.1613,40.0000,73,98,353837
1.9697,0.1613,40.0600,73,98,353840
1.9697,0.1613,39.8600,73,98,353844
1.9501,0.1515,40.1000,73,98,353847
1.9892,0.1662,39.8300,73,98,353850
1.9257,0.1564,40.0000,73,98,353854
1.9013,0.1564,40.0600,73,98,353857
1.8915,0.1613,40.2000,73,98,353860
1.8671,0.1808,40.0600,73,98,353864
1.8964,0.1760,39.9600,73,98,353867
1.8475,0.1662,40.1600,73,98,353870
1.8426,0.1613,40.0300,73,98,353874
1.7840,0.1515,40.1000,73,98,353878
1.7644,0.1662,40.0600,73,98,353881
1.7840,0.1662,40.0300,73,98,353884
1.7400,0.1613,40.0300,73,98,353888
1.7351,0.1662,39.9600,73,98,353891
1.7058,0.1613,40.4000,73,98,353894
1.6960,0.1515,40.1000,73,98,353898
1.7204,0.1662,39.9300,73,98,353901
1.6862,0.1613,40.0600,73,98,353904
1.7204,0.1613,40.0000,73,98,353908
1.6862,0.1564,40.1600,73,98,353911
1.6911,0.1662,40.1000,73,98,353914
1.7058,0.1613,40.1000,73,98,353918
1.6911,0.1662,40.1000,73,98,353922
1.7204,0.1613,39.8900,73,98,353925
1.6960,0.1662,40.0600,73,98,353928
1.7204,0.1564,40.1300,73,98,353932
1.7155,0.1662,39.9600,73,98,353935
1.6911,0.1613,40.2300,73,98,353938
1.7351,0.1662,39.8600,73,98,353942
1.7009,0.1564,40.0600,73,98,353945
1.7058,0.1564,40.1000,73,98,353948
1.7204,0.1613,40.0300,73,98,353952
1.7204,0.1564,40.1300,73,98,353955
1.7693,0.1760,39.9600,73,98,353958
1.7400,0.1466,39.9600,73,98,353963
1.7498,0.1564,40.0600,73,98,353966
1.7400,0.1613,39.2200,73,98,353969
1.7449,0.1711,40.1300,73,98,353972
1.7889,0.1662,39.9600,73,98,353976
1.7595,0.1613,40.0600,73,98,353979
1.7693,0.1515,40.0000,73,98,353982
1.7546,0.1613,40.1000,73,98,353986
1.7546,0.1564,40.1000,73,98,353989
1.7742,0.1662,39.9600,73,98,353992
1.7644,0.1613,40.0600,73,98,353996
1.8182,0.1613,39.9300,73,98,353999
1.7595,0.1515,39.3800,73,98,354002
1.7644,0.1662,40.1000,73,98,354007
1.7742,0.1613,40.0000,73,98,354010
1.7742,0.1613,40.0000,73,98,354013
1.8035,0.1564,39.9600,73,98,354016
1.7840,0.1564,40.1000,73,98,354020
1.7889,0.1564,40.0600,73,98,354023
1.8231,0.1613,39.9600,73,98,354026
1.7937,0.1662,40.0600,73,98,354030
1.8280,0.1662,39.8900,73,98,354033
1.8133,0.1613,40.0000,73,98,354036
1.7986,0.1613,40.1000,73,98,354040
1.8133,0.1662,40.0600,73,98,354043
1.7986,0.1662,40.1600,73,98,354046
1.8475,0.1760,39.8300,73,98,354050
1.8084,0.1613,39.9600,73,98,354054
1.8035,0.1515,40.1000,73,98,354057
1.8084,0.1613,40.0600,73,98,354060
1.7937,0.1613,40.1300,73,98,354064
1.8475,0.1760,39.8600,73,98,354067
1.8084,0.1662,39.6700,73,98,354070
1.7986,0.1564,40.0000,73,98,354074
1.7937,0.1515,40.0600,73,98,354077
1.7889,0.1662,40.1000,73,98,354080
1.8231,0.1711,40.0000,73,98,354084
1.7986,0.1613,40.0000,73,98,354087
1.8035,0.1564,40.0000,73,98,354091
1.7889,0.1613,40.1000,73,98,354094
1.7889,0.1564,40.1000,73,98,354098
1.8231,0.1613,39.9300,73,98,354101
1.7937,0.1613,40.1000,73,98,354104
1.8182,0.1613,40.0000,73,98,354108
1.7889,0.1515,40.1000,73,98,354111
1.7840,0.1564,40.0000,73,98,354114
1.7889,0.1662,40.0600,73,98,354118
1.7791,0.1613,40.1300,73,98,354121
1.7937,0.1613,39.9300,73,98,354124
1.7742,0.1564,40.0600,73,98,354128
