ecg,gsr,temp,hr,spo2,timest
3.1916,0.3275,39.3500,84,96,255413
3.2111,0.3372,39.3800,84,96,255416
3.1720,0.3372,39.3500,84,96,255419
3.2356,0.3470,39.0600,84,96,255423
3.1769,0.3372,39.2500,84,96,255426
3.1329,0.3324,39.3500,84,96,255429
3.1476,0.3372,39.3200,84,96,255433
3.1183,0.3324,39.3200,84,96,255436
3.1720,0.3519,39.1200,84,96,255439
3.0938,0.3372,39.2800,84,96,255443
3.0694,0.3324,39.2200,84,96,255447
3.0401,0.3372,39.3500,84,96,255450
3.0108,0.3275,39.3500,84,96,255453
3.0156,0.3421,39.3200,84,96,255457
2.9130,0.3324,39.3200,84,96,255460
2.8837,0.3372,39.2200,84,96,255463
2.8104,0.3372,39.3500,84,96,255467
2.7810,0.3275,39.3500,84,96,255470
2.7761,0.3372,39.2800,84,96,255473
2.7224,0.3275,39.3500,84,96,255477
2.7273,0.3421,38.5500,84,96,255480
2.6588,0.3324,39.3200,84,96,255483
2.6344,0.3324,39.2200,84,96,255488
2.6735,0.3372,39.2500,84,96,255491
2.6100,0.3324,39.2800,84,96,255494
2.6344,0.3372,39.1600,84,96,255498
2.5953,0.3372,39.2500,84,96,255501
2.5513,0.3715,39.3800,84,96,255504
2.5758,0.3421,39.3200,84,96,255507
2.5415,0.3372,39.3500,84,96,255511
2.6100,0.3470,39.0900,84,96,255514
2.5513,0.3372,39.3500,84,96,255517
2.5073,0.3226,39.3500,84,96,255521
2.4976,0.3372,39.3500,84,96,255524
2.4731,0.3324,39.3500,84,96,255527
2.5513,0.3519,39.1600,84,96,255532
2.4829,0.3421,39.2800,84,96,255535
2.4780,0.3275,39.2800,84,96,255538
2.4340,0.3324,39.3800,84,96,255542
2.4438,0.3421,39.3800,84,96,255545
2.4340,0.3470,39.1200,84,96,255548
2.3803,0.3324,39.2800,84,96,255552
2.3705,0.3421,39.2200,84,96,255555
2.2874,0.3324,39.3800,84,96,255558
2.2287,0.3324,39.3500,84,96,255561
2.1848,0.3470,39.3200,84,96,255565
2.0821,0.3372,39.3500,84,96,255568
2.1114,0.3421,39.2200,84,96,255571
2.1408,0.3275,39.2800,84,96,255576
2.2727,0.3324,39.3800,84,96,255579
2.5073,0.3324,39.1900,84,96,255582
2.7517,0.3324,39.3500,84,96,255586
3.0010,0.3372,39.0900,84,96,255589
3.0303,0.3666,39.3200,84,96,255592
2.9668,0.3324,39.3500,84,96,255596
2.9032,0.3421,39.2800,84,96,255599
2.7859,0.3372,39.3500,84,96,255602
2.7664,0.3421,39.0900,84,96,255605
2.6197,0.3324,39.2500,84,96,255609
2.5220,0.3324,39.3500,84,96,255612
2.4536,0.3372,39.3500,84,96,255616
2.3656,0.3324,39.3500,84,96,255620
2.3558,0.3470,39.0600,84,96,255623
2.2483,0.3324,39.2800,84,96,255626
2.1945,0.3324,39.2800,84,96,255630
2.1896,0.3324,39.2800,84,96,255633
2.1603,0.3324,39.3500,84,96,255636
2.1848,0.3421,39.1200,84,96,255640
2.1261,0.3372,39.3200,84,96,255643
2.1261,0.3372,39.2200,84,96,255646
2.1065,0.3324,39.3500,84,96,255650
2.1065,0.3324,39.4100,84,96,255653
2.1505,0.3421,39.2200,84,96,255656
2.0919,0.3324,39.3800,84,96,255660
2.1017,0.3421,39.1600,84,96,255664
2.0968,0.3275,39.3200,84,96,255667
2.0870,0.3324,39.3500,84,96,255670
2.1114,0.3324,39.2200,84,96,255674
2.1114,0.3324,39.3500,84,96,255677
2.1212,0.3324,39.1200,84,96,255680
2.0772,0.3275,39.3800,84,96,255684
2.0821,0.3275,39.2800,84,96,255687
2.1065,0.3372,39.3200,84,96,255690
2.0968,0.3324,39.3500,84,96,255694
2.1359,0.3470,39.1200,84,96,255697
2.0968,0.3372,39.2800,84,96,255700
2.0577,0.3324,39.3500,84,96,255704
2.0919,0.3324,39.2800,84,96,255708
2.0626,0.3324,39.3500,84,96,255711
2.1212,0.3470,39.0300,84,96,255714
2.0870,0.3421,39.2200,84,96,255718
2.0479,0.3275,39.3200,84,96,255721
2.0332,0.3568,39.3200,84,96,255724
2.0186,0.3324,39.3500,84,96,255728
2.0626,0.3470,39.1900,84,96,255731
2.0137,0.3421,39.3200,84,96,255734
1.9990,0.3275,39.2500,84,96,255738
1.9697,0.3324,39.3800,84,96,255741
1.9550,0.3275,39.3800,84,96,255745
1.9697,0.3421,39.2500,84,96,255748
1.9257,0.3324,39.3200,84,96,255752
1.9306,0.3324,39.2200,84,96,255755
1.8866,0.3324,39.3200,84,96,255758
1.8768,0.3324,39.3500,84,96,255762
1.8964,0.3666,39.2500,84,96,255765
1.8719,0.3324,39.3200,84,96,255768
1.9208,0.3324,39.1900,84,96,255772
1.8964,0.3324,39.2500,84,96,255775
1.8866,0.3666,39.3500,84,96,255778
1.8964,0.3372,39.0300,84,96,255782
1.8768,0.3372,39.3800,84,96,255785
1.9257,0.3421,39.1600,84,96,255789
1.9159,0.3519,38.8400,84,96,255793
1.8768,0.3470,39.2800,84,96,255796
1.8377,0.3324,39.2800,84,96,255800
1.8280,0.3568,39.3200,84,96,255803
1.8133,0.3324,39.3800,84,96,255806
1.8475,0.3470,39.2500,84,96,255810
1.8133,0.3324,39.4100,84,96,255813
1.8475,0.3470,39.2200,84,96,255816
1.8426,0.3324,39.3800,84,96,255820
1.8524,0.3226,39.3500,84,96,255823
1.8915,0.3421,39.1900,84,96,255826
1.8671,0.3275,39.3200,84,96,255831
1.9110,0.3372,39.2200,84,96,255834
1.9159,0.3324,39.3200,84,96,255837
1.9404,0.3324,39.3500,84,96,255840
1.9941,0.3324,39.2200,84,96,255844
1.9697,0.3324,39.3500,84,96,255847
2.0235,0.3372,39.1600,84,96,255850
2.0381,0.3324,39.3200,84,96,255854
2.0821,0.3324,38.5800,84,96,255857
2.1505,0.3519,39.2800,84,96,255860
2.1505,0.3324,39.3500,84,96,255864
2.2043,0.3421,39.0300,84,96,255867
2.1505,0.3324,39.2500,84,96,255870
2.1603,0.3324,39.3200,84,96,255875
2.2043,0.3324,39.4400,84,96,255878
2.1945,0.3324,39.4400,84,96,255881
2.2630,0.3568,39.1200,84,96,255884
2.2043,0.3372,39.2800,84,96,255888
2.1896,0.3275,39.3200,84,96,255891
2.1896,0.3275,39.3500,84,96,255894
2.1945,0.3324,39.4100,84,96,255898
2.2434,0.3470,39.1900,84,96,255901
2.2043,0.3372,39.4100,84,96,255904
2.1945,0.3372,39.2200,84,96,255908
2.1505,0.3324,39.3800,84,96,255911
2.1359,0.3079,39.4100,84,96,255915
2.1652,0.3372,39.2200,84,96,255919
2.1212,0.3324,39.3500,84,96,255922
2.1310,0.3666,39.2500,84,96,255925
2.0723,0.3324,39.3200,84,96,255929
2.0479,0.3324,39.3200,84,96,255932
2.0577,0.3421,39.2500,84,96,255935
2.0332,0.3275,39.3200,84,96,255938
2.0577,0.3568,39.1600,84,96,255942
2.0186,0.3324,39.3500,84,96,255945
2.0088,0.3324,39.3800,84,96,255948
2.0235,0.3470,39.2200,84,96,255952
1.9892,0.3324,39.4100,84,96,255955
2.0430,0.3666,39.0900,84,96,255959
2.0235,0.3275,39.2500,84,96,255963
1.9844,0.3275,39.4100,84,96,255966
1.9746,0.3372,39.3200,84,96,255969
1.9355,0.3324,39.4100,84,96,255973
1.9795,0.3519,39.0600,84,96,255976
1.9453,0.3421,39.2200,84,96,255979
1.9159,0.3372,39.3200,84,96,255982
1.9110,0.3079,39.3500,84,96,255986
1.8915,0.3324,39.3500,84,96,255989
1.9257,0.3519,39.2200,84,96,255992
1.8964,0.3519,39.2800,84,96,255996
1.9208,0.3324,39.1600,84,96,256000
1.8915,0.3324,39.4100,84,96,256003
1.8719,0.3324,39.3500,84,96,256007
1.8524,0.3372,39.3500,84,96,256010
1.8182,0.3372,39.3500,84,96,256013
1.8231,0.3421,39.2200,84,96,256017
1.7840,0.3324,39.3500,84,96,256020
1.7840,0.3275,39.4400,84,96,256023
1.7937,0.3372,39.2200,84,96,256027
1.7498,0.3324,39.3800,84,96,256030
1.7644,0.3372,39.1900,84,96,256033
1.7595,0.3372,39.2500,84,96,256037
1.7595,0.3324,39.3800,84,96,256040
1.7937,0.3421,39.2500,84,96,256044
1.7742,0.3324,39.3800,84,96,256047
1.8231,0.3372,39.0900,84,96,256051
1.7889,0.3324,39.2200,84,96,256054
1.8084,0.3324,39.4400,84,96,256057
1.8280,0.3372,39.2800,84,96,256061
1.8182,0.3324,39.2800,84,96,256064
1.8719,0.3519,39.0600,84,96,256067
1.8328,0.3421,39.1200,84,96,256071
1.8573,0.3324,39.3500,84,96,256074
1.8377,0.3079,39.2500,84,96,256077
1.8719,0.3324,39.3500,84,96,256081
1.8622,0.3470,39.1600,84,96,256084
1.8035,0.3421,39.2800,84,96,256088
1.7986,0.3324,39.2500,84,96,256091
1.7889,0.3519,39.3800,84,96,256095
1.8133,0.3372,39.3500,84,96,256098
1.8768,0.3421,39.1900,84,96,256101
1.9013,0.3372,39.3200,84,96,256105
1.9257,0.3372,39.2500,84,96,256108
1.9159,0.3226,39.2800,84,96,256111
1.9355,0.3324,39.3500,84,96,256115
1.9648,0.3324,39.2200,84,96,256118
1.9501,0.3324,39.3500,84,96,256121
1.9697,0.3324,39.1600,84,96,256125
1.9501,0.3324,39.2800,84,96,256129
1.9404,0.3324,39.4100,84,96,256132
1.9550,0.3372,39.2200,84,96,256136
1.9355,0.3324,39.3500,84,96,256139
1.9892,0.3421,39.0900,84,96,256142
1.9550,0.3275,39.2800,84,96,256145
1.9501,0.3275,39.3500,84,96,256149
1.9746,0.3372,39.2800,84,96,256152
1.9844,0.3324,39.3500,84,96,256155
2.0528,0.3470,39.0300,84,96,256159
2.0186,0.3421,39.2200,84,96,256162
2.0088,0.3275,39.3200,84,96,256165
1.9550,0.3372,39.1900,84,96,256169
1.9110,0.3372,39.3500,84,96,256173
1.9550,0.3519,39.1900,84,96,256176
1.9013,0.3372,39.1600,84,96,256180
1.8719,0.3324,39.2800,84,96,256183
1.8475,0.3324,39.3500,84,96,256186
1.8231,0.3275,39.3800,84,96,256189
1.8524,0.3275,39.2200,84,96,256193
1.8280,0.3324,39.3800,84,96,256196
1.8426,0.3324,39.2200,84,96,256199
1.8133,0.3324,39.4100,84,96,256203
1.7889,0.3324,39.3500,84,96,256206
1.7742,0.3275,39.2800,84,96,256209
1.7449,0.3324,39.3800,84,96,256214
1.7937,0.3372,39.2500,84,96,256217
1.7498,0.3324,39.3500,84,96,256220
1.7400,0.3275,39.3500,84,96,256224
1.7351,0.3421,39.2200,84,96,256227
1.6764,0.3324,39.3500,84,96,256230
1.6862,0.3421,39.1200,84,96,256234
1.6618,0.3372,39.2500,84,96,256237
1.6325,0.3324,39.3800,84,96,256240
1.6325,0.3372,39.2800,84,96,256244
1.5934,0.3568,39.3800,84,96,256247
1.6276,0.3421,39.0600,84,96,256250
1.5934,0.3324,39.3200,84,96,256253
1.5738,0.3324,39.3200,84,96,256258
1.5640,0.3324,39.2800,84,96,256261
1.5298,0.3372,39.3800,84,96,256264
1.5347,0.3470,39.1600,84,96,256268
1.4418,0.3421,39.2800,84,96,256271
1.3881,0.3324,39.2500,84,96,256274
1.3734,0.3324,39.3500,84,96,256278
1.4418,0.3324,39.3800,84,96,256281
1.6080,0.3372,39.2800,84,96,256284
1.7791,0.3324,39.3200,84,96,256288
2.0430,0.3372,39.3800,84,96,256291
2.2092,0.3324,39.3500,84,96,256294
2.2678,0.3275,39.3500,84,96,256297
2.2483,0.3470,39.2200,84,96,256302
2.1114,0.3324,39.3200,84,96,256305
2.0381,0.3324,39.6000,84,96,256308
1.9110,0.3324,39.2500,84,96,256312
1.7889,0.3324,39.3500,84,96,256315
1.6960,0.3372,39.1900,84,96,256318
1.5885,0.3275,39.3500,84,96,256322
1.5249,0.3372,39.1600,84,96,256325
1.4223,0.3324,39.3200,84,96,256328
1.3685,0.3324,39.3200,84,96,256332
1.3539,0.3372,39.2800,84,96,256335
1.3099,0.3324,39.4100,84,96,256338
1.3343,0.3470,39.0900,84,96,256343
1.2952,0.3324,39.2500,84,96,256346
1.2757,0.3324,39.3500,84,96,256349
1.2659,0.3324,39.3500,84,96,256352
1.2561,0.3324,39.3200,84,96,256356
1.3196,0.3519,39.1200,84,96,256359
1.3050,0.3324,39.2200,84,96,256362
1.3294,0.3324,39.2800,84,96,256366
1.3490,0.3324,39.3800,84,96,256369
1.3587,0.3324,39.3500,84,96,256372
1.4076,0.3421,39.1900,84,96,256376
1.4076,0.3324,39.3500,84,96,256379
1.4370,0.3372,39.2500,84,96,256382
1.4223,0.3324,39.3800,84,96,256387
1.4076,0.3275,39.3500,84,96,256390
1.4174,0.3421,39.2500,84,96,256393
1.4174,0.3324,39.3500,84,96,256397
1.4418,0.3372,39.2500,84,96,256400
1.4174,0.3372,39.1900,84,96,256403
1.5200,0.3275,39.2800,84,96,256407
1.5152,0.3275,39.3500,84,96,256410
1.5103,0.3470,39.3800,84,96,256413
1.4809,0.3275,39.3500,84,96,256417
1.5005,0.3470,39.0900,84,96,256420
1.4809,0.3372,39.5700,84,96,256423
1.4809,0.3470,39.3500,84,96,256428
1.5005,0.3372,39.3200,84,96,256431
1.4907,0.3324,39.4100,84,96,256434
1.5445,0.3519,39.1200,84,96,256438
1.5347,0.3372,39.2800,84,96,256441
1.5347,0.3324,39.2800,84,96,256444
1.5445,0.3324,39.3500,84,96,256447
1.5347,0.3324,39.4100,84,96,256451
1.5591,0.3421,39.2200,84,96,256454
1.5298,0.3324,39.3800,84,96,256457
1.5445,0.3715,39.2200,84,96,256461
1.5396,0.3324,39.3500,84,96,256464
1.5445,0.3324,39.3500,84,96,256467
1.5591,0.3372,39.3800,84,96,256472
1.5298,0.3324,39.3500,84,96,256475
1.5494,0.3421,39.2500,84,96,256478
1.5347,0.3324,39.3500,84,96,256482
1.5347,0.3324,39.0600,84,96,256485
1.5640,0.3470,39.2800,84,96,256488
1.5494,0.3324,39.3500,84,96,256492
1.5738,0.3372,39.1200,84,96,256495
1.5787,0.3372,39.2800,84,96,256498
1.5689,0.3324,39.3500,84,96,256501
1.6373,0.3275,39.2500,84,96,256505
1.5982,0.3324,39.3500,84,96,256508
1.6422,0.3372,39.0900,84,96,256512
1.6129,0.3372,39.1900,84,96,256516
1.6031,0.3617,39.3500,84,96,256519
1.6227,0.3372,39.3200,84,96,256522
1.6276,0.3324,39.3500,84,96,256526
1.7009,0.3519,39.1200,84,96,256529
1.6373,0.3372,39.2800,84,96,256532
1.6471,0.3324,39.2800,84,96,256536
1.6325,0.3324,39.2800,84,96,256539
1.6471,0.3275,39.3800,84,96,256542
1.6716,0.3421,39.2200,84,96,256546
1.6422,0.3275,39.3200,84,96,256549
1.6373,0.3372,39.2800,84,96,256552
1.6031,0.3275,39.3500,84,96,256557
1.5885,0.3324,39.3800,84,96,256560
1.6129,0.3421,39.2200,84,96,256563
1.5934,0.3324,39.3500,84,96,256566
1.6129,0.3372,39.2200,84,96,256570
1.5738,0.3324,39.2500,84,96,256573
1.5543,0.3421,39.3500,84,96,256576
1.5591,0.3372,39.1600,84,96,256580
1.5836,0.3324,39.3500,84,96,256583
1.6178,0.3372,39.1200,84,96,256586
1.6422,0.3275,39.3200,84,96,256590
1.6129,0.3324,39.3500,84,96,256593
1.6276,0.3324,39.2800,84,96,256596
1.6031,0.3324,39.3500,84,96,256601
1.6520,0.3568,39.0600,84,96,256604
1.6276,0.3324,39.2200,84,96,256607
1.6178,0.3275,39.3500,84,96,256611
1.6422,0.3275,39.3200,84,96,256614
1.6129,0.3666,39.3500,84,96,256617
1.6716,0.3470,39.1600,84,96,256621
1.6471,0.3470,39.2200,84,96,256624
1.6667,0.3372,39.2800,84,96,256627
1.6716,0.3666,39.3800,84,96,256630
1.7107,0.3324,39.3200,84,96,256634
1.7302,0.3421,39.2500,84,96,256637
1.7449,0.3324,39.3200,84,96,256641
1.7595,0.3372,39.2200,84,96,256645
1.7498,0.3324,39.3200,84,96,256648
1.7595,0.3324,39.3500,84,96,256651
1.7840,0.3421,39.2500,84,96,256655
1.7742,0.3324,39.3200,84,96,256658
1.8133,0.3324,39.2200,84,96,256661
1.8328,0.3275,39.3200,84,96,256665
1.8182,0.3275,39.3800,84,96,256668
1.8426,0.3324,39.2200,84,96,256671
1.8328,0.3324,39.4100,84,96,256675
1.8768,0.3372,39.1200,84,96,256678
1.8524,0.3324,39.2800,84,96,256681
1.8622,0.3324,39.3800,84,96,256685
1.8768,0.3372,39.2800,84,96,256689
1.8475,0.3372,39.3500,84,96,256692
1.9257,0.3470,39.0600,84,96,256695
1.8768,0.3372,39.2500,84,96,256699
1.8817,0.3275,39.3200,84,96,256702
1.9208,0.3324,39.3500,84,96,256705
1.9355,0.3324,39.3500,84,96,256709
1.9892,0.3519,39.1600,84,96,256712
1.9404,0.3421,39.2800,84,96,256715
1.9208,0.3324,39.2800,84,96,256719
1.9110,0.3324,39.3500,84,96,256722
1.9110,0.3324,39.2800,84,96,256726
1.9404,0.3372,39.2200,84,96,256729
1.8964,0.3372,39.3500,84,96,256733
1.9013,0.3470,39.2500,84,96,256736
1.9062,0.3275,39.3500,84,96,256739
1.8866,0.3470,39.3200,84,96,256743
1.9306,0.3372,39.2800,84,96,256746
1.9110,0.3079,39.3500,84,96,256749
1.9404,0.3421,39.2500,84,96,256753
1.9159,0.3275,39.3500,84,96,256756
1.9159,0.3324,39.1900,84,96,256759
1.9550,0.3372,39.2500,84,96,256763
1.9355,0.3324,39.3500,84,96,256766
1.9550,0.3324,39.1600,84,96,256770
1.9257,0.3372,39.3800,84,96,256774
1.8915,0.3421,39.3500,84,96,256777
1.9208,0.3421,39.2200,84,96,256780
1.9062,0.3421,39.3500,84,96,256783
1.9795,0.3421,39.0900,84,96,256787
1.9599,0.3666,39.2500,84,96,256790
1.9550,0.3324,39.3800,84,96,256793
1.9501,0.3372,39.4400,84,96,256797
1.9501,0.3421,39.3500,84,96,256800
2.0235,0.3470,39.1200,84,96,256803
1.9990,0.3372,39.2800,84,96,256807
1.9892,0.3275,39.2800,84,96,256811
1.9990,0.3324,38.6800,84,96,256814
2.0186,0.3324,39.3500,84,96,256818
2.0674,0.3470,39.3200,84,96,256821
2.0577,0.3324,39.3200,84,96,256824
2.0919,0.3324,39.2200,84,96,256827
2.0626,0.3324,39.3200,84,96,256831
2.0528,0.3324,39.3500,84,96,256834
2.0772,0.3421,39.3200,84,96,256837
2.0430,0.3421,39.3500,84,96,256841
2.1017,0.3421,39.2500,84,96,256844
2.0381,0.3275,39.2800,84,96,256847
2.0283,0.3372,39.2800,84,96,256851
2.0381,0.3372,39.2200,84,96,256855
2.0235,0.3324,39.3800,84,96,256858
2.0821,0.3372,39.1600,84,96,256862
2.0528,0.3324,38.5500,84,96,256865
2.0332,0.3324,39.3500,84,96,256868
2.0186,0.3372,39.2500,84,96,256871
1.9208,0.3324,39.3500,84,96,256875
1.9013,0.3421,39.1200,84,96,256878
1.8231,0.3324,39.2800,84,96,256881
1.7986,0.3324,39.3500,84,96,256885
1.7889,0.3372,39.3200,84,96,256888
1.7400,0.3324,39.3800,84,96,256891
1.7595,0.3470,39.0600,84,96,256896
1.7155,0.3372,39.2800,84,96,256899
1.7058,0.3275,39.3800,84,96,256902
1.7107,0.3079,39.3200,84,96,256906
1.7009,0.3324,39.3800,84,96,256909
1.7546,0.3519,39.1600,84,96,256912
1.6960,0.3372,39.2500,84,96,256916
1.7155,0.3372,39.2500,84,96,256919
1.6960,0.3324,38.5800,84,96,256922
1.7107,0.3324,39.3800,84,96,256925
1.7400,0.3421,39.2500,84,96,256929
1.7058,0.3324,39.3800,84,96,256932
1.7058,0.3421,39.1900,84,96,256935
1.6716,0.3324,39.3500,84,96,256940
1.6667,0.3470,39.3500,84,96,256943
1.6716,0.3324,39.2500,84,96,256946
1.6373,0.3324,39.3800,84,96,256950
1.6227,0.3275,39.2200,84,96,256953
1.5738,0.3226,39.3500,84,96,256956
1.5591,0.3324,39.3500,84,96,256960
1.5738,0.3421,39.2500,84,96,256963
1.5396,0.3324,39.2800,84,96,256966
1.5347,0.3372,39.1900,84,96,256970
1.4614,0.3372,39.2500,84,96,256973
1.3881,0.3324,39.3800,84,96,256976
1.3196,0.3372,39.3200,84,96,256980
1.2463,0.3421,39.3500,84,96,256984
1.2708,0.3470,39.0600,84,96,256987
1.3196,0.3421,39.2500,84,96,256990
1.4565,0.3275,39.3200,84,96,256994
1.6764,0.3372,39.2200,84,96,256997
1.9501,0.3324,39.3500,84,96,257000
2.2239,0.3470,39.2200,84,96,257004
2.2483,0.3372,39.2800,84,96,257007
2.1945,0.3324,39.2500,84,96,257010
2.0919,0.3324,38.7100,84,96,257014
1.6422,0.3324,39.3500,84,96,257017
1.5689,0.3324,39.3500,84,96,257021
1.5543,0.3421,39.3200,84,96,257025
1.5103,0.3324,39.3500,84,96,257028
1.5396,0.3372,39.1600,84,96,257032
1.5347,0.3372,39.2500,84,96,257035
1.5298,0.3324,39.3800,84,96,257038
1.5543,0.3421,39.2200,84,96,257042
1.5347,0.3324,39.4400,84,96,257045
1.5836,0.3568,39.0900,84,96,257048
1.5738,0.3372,39.2500,84,96,257051
1.5836,0.3324,39.3500,84,96,257055
1.6031,0.3372,39.3200,84,96,257058
1.6080,0.3324,39.4100,84,96,257061
1.6813,0.3666,39.0900,84,96,257065
1.6862,0.3079,39.2800,84,96,257069
1.7107,0.3324,39.2800,84,96,257072
1.7253,0.3324,39.3200,84,96,257076
1.7546,0.3324,39.3500,84,96,257079
1.7986,0.3421,39.2200,84,96,257082
1.7742,0.3421,39.3200,84,96,257086
1.8182,0.3372,39.2200,84,96,257089
1.8182,0.3421,39.3500,84,96,257092
1.8231,0.3324,39.3500,84,96,257096
1.8573,0.3470,39.1900,84,96,257099
1.8280,0.3324,39.3800,84,96,257102
1.8573,0.3470,39.3200,84,96,257106
1.8426,0.3324,39.2500,84,96,257110
1.8475,0.3324,39.3500,84,96,257113
1.8671,0.3372,39.1900,84,96,257116
1.8328,0.3275,39.3500,84,96,257120
1.8426,0.3372,39.1200,84,96,257123
1.7986,0.3372,39.3200,84,96,257126
1.7742,0.3324,39.3500,84,96,257130
1.7742,0.3421,39.2800,84,96,257133
1.7498,0.3372,39.3500,84,96,257136
1.7351,0.3470,39.1200,84,96,257140
1.6813,0.3372,39.2500,84,96,257143
1.6618,0.3324,39.4400,84,96,257146
1.6813,0.3324,39.3200,84,96,257150
1.6911,0.3324,39.2500,84,96,257154
1.7498,0.3568,39.1200,84,96,257157
1.7107,0.3372,39.3500,84,96,257161
1.7107,0.3324,39.2800,84,96,257164
1.7253,0.3372,39.3500,84,96,257167
1.7351,0.3324,39.4400,84,96,257171
1.7742,0.3421,39.2200,84,96,257174
1.7400,0.3275,39.3200,84,96,257177
1.7351,0.3372,39.1900,84,96,257180
1.7058,0.3275,39.3800,84,96,257184
1.7204,0.3324,39.3500,84,96,257187
1.7498,0.3421,39.3200,84,96,257190
1.7351,0.3324,39.3500,84,96,257195
1.7498,0.3324,39.2200,84,96,257198
1.7058,0.3324,39.3200,84,96,257201
1.6813,0.3324,39.2500,84,96,257205
1.6862,0.3421,39.2200,84,96,257208
1.6471,0.3324,39.3500,84,96,257211
1.6667,0.3617,39.1600,84,96,257215
1.6129,0.3275,39.2200,84,96,257218
1.5885,0.3275,39.3500,84,96,257221
1.5836,0.3372,39.2800,84,96,257225
1.5934,0.3324,39.3500,84,96,257228
1.6276,0.3470,39.0900,84,96,257231
1.6080,0.3372,39.2200,84,96,257234
1.5934,0.3519,39.3200,84,96,257239
1.5982,0.3372,39.3200,84,96,257242
1.6129,0.3421,39.4400,84,96,257245
1.6764,0.3519,39.2200,84,96,257249
1.6862,0.3372,39.3200,84,96,257252
1.7253,0.3324,39.2800,84,96,257255
1.7791,0.3617,39.3200,84,96,257259
1.8426,0.3324,39.3500,84,96,257262
1.9550,0.3421,39.2200,84,96,257265
2.0137,0.3372,39.3200,84,96,257269
2.0968,0.3372,39.1900,84,96,257272
2.1065,0.3324,39.4400,84,96,257275
2.1261,0.3324,39.2500,84,96,257280
2.1457,0.3372,39.2500,84,96,257283
2.1408,0.3372,39.3500,84,96,257286
2.1848,0.3372,39.2500,84,96,257289
2.1750,0.3324,39.3500,84,96,257293
2.1750,0.3324,39.3800,84,96,257296
2.1945,0.3372,39.2200,84,96,257299
2.1457,0.3324,39.3200,84,96,257303
2.1603,0.3275,39.1200,84,96,257306
2.1359,0.3372,39.2500,84,96,257309
2.1065,0.3324,39.3500,84,96,257313
2.1163,0.3421,39.2500,84,96,257316
2.0674,0.3470,39.3500,84,96,257319
2.1017,0.3470,39.0900,84,96,257324
2.0381,0.3372,39.2200,84,96,257327
2.0137,0.3324,39.3500,84,96,257330
2.0137,0.3275,39.3200,84,96,257333
1.9697,0.3324,39.4100,84,96,257337
1.9844,0.3666,39.1200,84,96,257340
1.9110,0.3372,39.1600,84,96,257343
1.8866,0.3324,39.2500,84,96,257347
1.8817,0.3372,39.3200,84,96,257350
1.8719,0.3275,39.3500,84,96,257353
1.8915,0.3470,39.2200,84,96,257357
1.8377,0.3421,39.3200,84,96,257360
1.8377,0.3372,39.2200,84,96,257363
1.8475,0.3275,39.3200,84,96,257368
1.8280,0.3324,39.4400,84,96,257371
1.8622,0.3470,39.1900,84,96,257374
1.8231,0.3324,39.3500,84,96,257378
1.8622,0.3421,39.2200,84,96,257381
1.7937,0.3079,39.1600,84,96,257384
1.7889,0.3324,39.3200,84,96,257388
1.8280,0.3372,39.5100,84,96,257391
1.8328,0.3421,39.3500,84,96,257394
1.8866,0.3421,39.1200,84,96,257397
1.8622,0.3372,39.2500,84,96,257401
1.8622,0.3226,39.3500,84,96,257404
1.9062,0.3421,39.3200,84,96,257408
1.9062,0.3372,39.3500,84,96,257412
1.9648,0.3470,39.0900,84,96,257415
1.9257,0.3372,39.2200,84,96,257418
1.9110,0.3275,39.3500,84,96,257422
1.9208,0.3372,39.3500,84,96,257425
1.9208,0.3617,39.3500,84,96,257428
1.9941,0.3568,39.1200,84,96,257432
1.9648,0.3372,39.2800,84,96,257435
1.9550,0.3275,39.2800,84,96,257438
1.9257,0.3372,39.3200,84,96,257442
1.9062,0.3324,39.3500,84,96,257445
1.9453,0.3470,39.1600,84,96,257448
1.9306,0.3079,39.3200,84,96,257452
1.9404,0.3372,39.2200,84,96,257456
1.9110,0.3324,39.3800,84,96,257459
1.9062,0.3324,39.3800,84,96,257462
1.9306,0.3519,39.2500,84,96,257466
1.9159,0.3324,39.3500,84,96,257469
1.9550,0.3421,39.2200,84,96,257472
1.9208,0.3324,39.3200,84,96,257476
1.9159,0.3324,39.3500,84,96,257479
1.9208,0.3470,39.2500,84,96,257482
1.9110,0.3324,39.3200,84,96,257486
1.9355,0.3372,39.2200,84,96,257489
1.9257,0.3324,39.3200,84,96,257492
1.9257,0.3324,39.3500,84,96,257497
1.9404,0.3275,39.2800,84,96,257500
1.8915,0.3324,39.3500,84,96,257503
1.9404,0.3372,39.0600,84,96,257506
1.9404,0.3372,39.2200,84,96,257510
1.9501,0.3079,38.9000,84,96,257513
1.9795,0.3421,39.3200,84,96,257516
1.9795,0.3324,39.3500,84,96,257520
2.0479,0.3470,39.0900,84,96,257523
2.0430,0.3421,39.2500,84,96,257526
2.0479,0.3324,39.3200,84,96,257530
2.0723,0.3421,39.3800,84,96,257533
2.0821,0.3324,39.3500,84,96,257537
2.1261,0.3470,39.2500,84,96,257540
2.0821,0.3470,39.3800,84,96,257544
2.1017,0.3470,39.2200,84,96,257547
2.1114,0.3324,39.3500,84,96,257550
2.1212,0.3568,39.3500,84,96,257554
2.1554,0.3421,39.2500,84,96,257557
2.1261,0.3372,39.3200,84,96,257560
2.1701,0.3275,39.1900,84,96,257564
2.1359,0.3324,39.3200,84,96,257567
2.1701,0.3324,39.3500,84,96,257570
2.2287,0.3470,39.2200,84,96,257574
2.1994,0.3372,39.3500,84,96,257577
2.2043,0.3372,39.2800,84,96,257581
2.1603,0.3372,39.2500,84,96,257585
2.1457,0.3275,39.3500,84,96,257588
2.1652,0.3617,39.3200,84,96,257591
2.1505,0.3324,39.3200,84,96,257594
2.1848,0.3421,39.2200,84,96,257598
2.1359,0.3275,39.2800,84,96,257601
2.1114,0.3324,39.4100,84,96,257604
2.1261,0.3372,39.3200,84,96,257608
2.1261,0.3324,39.4400,84,96,257611
2.1945,0.3568,39.0300,84,96,257614
2.1457,0.3421,39.2500,84,96,257618
2.1261,0.3372,39.3200,84,96,257622
2.1310,0.3372,39.3500,84,96,257625
2.2092,0.3372,39.3500,84,96,257630
2.2141,0.3324,39.3200,84,96,257633
2.2678,0.3470,39.1900,84,96,257637
2.2483,0.3372,39.3500,84,96,257640
2.2825,0.3372,39.2200,84,96,257643
2.2385,0.3324,39.2500,84,96,257647
2.2092,0.3324,39.3500,84,96,257650
2.2141,0.3372,39.1900,84,96,257653
2.1799,0.3372,39.5400,84,96,257656
2.1945,0.3372,39.1600,84,96,257660
2.1359,0.3372,39.2800,84,96,257664
2.0821,0.3324,39.3500,84,96,257667
2.0479,0.3372,39.2500,84,96,257671
1.9795,0.3372,39.2800,84,96,257674
1.9795,0.3470,39.0900,84,96,257677
1.9013,0.3372,39.2800,84,96,257681
1.9013,0.3324,39.3500,84,96,257684
1.9941,0.3372,39.3200,84,96,257687
2.0821,0.3372,39.3500,84,96,257691
2.3558,0.3568,39.0600,84,96,257694
2.5611,0.3421,39.3200,84,96,257697
2.7468,0.3324,39.4100,84,96,257700
2.8201,0.3372,39.3500,84,96,257704
2.7419,0.3372,39.3500,84,96,257708
2.6931,0.3519,39.1600,84,96,257711
2.5562,0.3421,39.4100,84,96,257715
2.4682,0.3470,39.2500,84,96,257718
2.3460,0.3372,39.3500,84,96,257721
2.2287,0.3372,39.3800,84,96,257725
2.1701,0.3275,39.2200,84,96,257728
2.0626,0.3372,39.3500,84,96,257731
2.0381,0.3421,39.2200,84,96,257735
1.9844,0.3324,39.3500,84,96,257738
1.9648,0.3372,39.5700,84,96,257741
1.9550,0.3421,39.2500,84,96,257744
1.9404,0.3275,39.3500,84,96,257748
1.9648,0.3372,39.1900,84,96,257752
1.9550,0.3372,39.3500,84,96,257755
1.9990,0.3324,38.6500,84,96,257759
2.0479,0.3324,39.2200,84,96,257762
2.0430,0.3372,39.1600,84,96,257765
2.0821,0.3421,39.1200,84,96,257769
2.0968,0.3372,39.2500,84,96,257772
2.0674,0.3372,39.4800,84,96,257775
2.1554,0.3372,39.2800,84,96,257779
2.1212,0.3372,39.3500,84,96,257782
2.1896,0.3470,39.0600,84,96,257785
2.1701,0.3275,39.3500,84,96,257789
2.1603,0.3324,39.3500,84,96,257793
2.1945,0.3617,39.3200,84,96,257796
2.2239,0.3372,39.3500,84,96,257799
2.3167,0.3519,39.1600,84,96,257803
2.2972,0.3470,39.3200,84,96,257806
2.3069,0.3372,39.2800,84,96,257809
2.3167,0.3421,39.3200,84,96,257813
2.3460,0.3372,39.2200,84,96,257816
2.4145,0.3519,39.2500,84,96,257819
2.3949,0.3372,39.3500,84,96,257823
2.4145,0.3421,39.1900,84,96,257826
2.3851,0.3324,39.3200,84,96,257829
2.3900,0.3275,39.3200,84,96,257833
2.4438,0.3470,39.2200,84,96,257837
2.4389,0.3372,39.4400,84,96,257840
2.4927,0.3421,39.3200,84,96,257843
2.4731,0.3372,39.2500,84,96,257847
2.4682,0.3372,39.3800,84,96,257850
2.5024,0.3421,39.2500,84,96,257853
2.4927,0.3372,39.2500,84,96,257857
2.5464,0.3372,39.1200,84,96,257860
2.5171,0.3372,38.5800,84,96,257863
2.5024,0.3617,39.3500,84,96,257867
2.5318,0.3372,39.2800,84,96,257870
2.5073,0.3372,39.3500,84,96,257873
2.5855,0.3470,39.0600,84,96,257878
2.5415,0.3421,39.2200,84,96,257881
2.5415,0.3324,39.3800,84,96,257884
2.5318,0.3421,39.3200,84,96,257887
2.5073,0.3372,39.4100,84,96,257891
2.5806,0.3861,39.1200,84,96,257894
2.5562,0.3421,39.3200,84,96,257897
2.5660,0.3324,38.6800,84,96,257901
2.5709,0.3421,39.3500,84,96,257904
2.5562,0.3372,39.3800,84,96,257907
2.5953,0.3470,39.1200,84,96,257911
2.5562,0.3421,39.3200,84,96,257914
2.5806,0.3372,39.1900,84,96,257917
2.5709,0.3470,39.3500,84,96,257922
2.5758,0.3372,39.3500,84,96,257925
2.5953,0.3470,39.2500,84,96,257928
2.5611,0.3470,39.3200,84,96,257931
2.6295,0.3372,39.2200,84,96,257935
2.5660,0.3372,39.3500,84,96,257938
2.5806,0.3275,39.3200,84,96,257941
2.6051,0.3372,39.2500,84,96,257945
2.5953,0.3372,39.3200,84,96,257948
2.6393,0.3421,39.3200,84,96,257951
2.6246,0.3372,39.2500,84,96,257955
2.6540,0.3421,39.3500,84,96,257958
2.7077,0.3421,39.2200,84,96,257961
2.6833,0.3324,39.3500,84,96,257966
2.7419,0.3470,39.1200,84,96,257969
2.7126,0.3421,39.2500,84,96,257972
2.7077,0.3324,39.3500,84,96,257975
2.7517,0.3421,39.2500,84,96,257979
2.7468,0.3372,39.3500,84,96,257982
2.8348,0.3470,39.0900,84,96,257985
2.7810,0.3421,39.2200,84,96,257989
2.7517,0.3324,39.3200,84,96,257992
2.7664,0.3421,39.3800,84,96,257995
2.7566,0.3275,39.3500,84,96,257999
2.8348,0.3568,39.1600,84,96,258002
2.7664,0.3812,39.3200,84,96,258006
2.7468,0.3372,39.2500,84,96,258010
2.7175,0.3372,39.4100,84,96,258013
2.7077,0.3372,39.3500,84,96,258016
2.7468,0.3470,39.2200,84,96,258020
2.7028,0.3421,39.3200,84,96,258023
2.7077,0.3421,39.2200,84,96,258026
2.6491,0.3421,39.3200,84,96,258029
2.6246,0.3372,39.3800,84,96,258033
2.6540,0.3666,39.1900,84,96,258036
2.6100,0.3372,39.3500,84,96,258039
2.6344,0.3372,39.2800,84,96,258043
2.5806,0.3324,39.3200,84,96,258046
2.5562,0.3275,39.3200,84,96,258050
2.5611,0.3666,39.2200,84,96,258054
2.5367,0.3372,39.3200,84,96,258057
2.5904,0.3421,39.1200,84,96,258060
2.5464,0.3372,39.2800,84,96,258064
2.5269,0.3372,39.3500,84,96,258067
2.5367,0.3470,39.2500,84,96,258070
2.4976,0.3812,39.3200,84,96,258073
2.5758,0.3470,39.0900,84,96,258077
2.5367,0.3372,39.1600,84,96,258080
2.5318,0.3275,39.3800,84,96,258083
2.5318,0.3421,39.3800,84,96,258087
2.5024,0.3421,39.3500,84,96,258091
2.5709,0.3568,39.1200,84,96,258094
2.5415,0.3470,39.4400,84,96,258098
2.5415,0.3372,39.2800,84,96,258101
2.5415,0.3372,39.4800,84,96,258104
2.5171,0.3715,39.3800,84,96,258108
2.5562,0.3519,39.1900,84,96,258111
2.5073,0.3470,39.3200,84,96,258114
2.5220,0.3372,39.2500,84,96,258117
2.5024,0.3421,39.3200,84,96,258121
2.4878,0.3372,39.3500,84,96,258124
2.4927,0.3421,39.2500,84,96,258127
2.4487,0.3372,39.4100,84,96,258131
2.4780,0.3421,39.2200,84,96,258135
2.4731,0.3324,39.3200,84,96,258138
2.5073,0.3470,39.3500,84,96,258142
2.5464,0.3275,39.2500,84,96,258145
2.5171,0.3372,39.3200,84,96,258148
2.5415,0.3519,39.1600,84,96,258152
2.5073,0.3372,39.3500,84,96,258155
2.4976,0.3812,39.3500,84,96,258158
2.4927,0.3421,39.2500,84,96,258161
2.4340,0.3617,39.3500,84,96,258165
2.4829,0.3519,39.0900,84,96,258168
2.3900,0.3421,39.2800,84,96,258171
2.3607,0.3372,39.4400,84,96,258176
2.3705,0.3470,39.3200,84,96,258179
2.3412,0.3372,39.3500,84,96,258182
2.3851,0.3568,39.0600,84,96,258186
2.3314,0.3470,39.2500,84,96,258189
2.3021,0.3324,39.3200,84,96,258192
2.3069,0.3421,39.3500,84,96,258196
2.2972,0.3372,39.3500,84,96,258199
2.3460,0.3568,39.1600,84,96,258202
2.2727,0.3372,39.2800,84,96,258205
2.2434,0.3372,39.3500,84,96,258209
2.2043,0.3421,39.3200,84,96,258212
2.1945,0.3372,39.3500,84,96,258215
2.2239,0.3519,39.2500,84,96,258220
2.1896,0.3372,39.3200,84,96,258223
2.2043,0.3421,39.2200,84,96,258226
2.1701,0.3372,39.3500,84,96,258230
2.1848,0.3079,39.3800,84,96,258233
2.2434,0.3763,39.1900,84,96,258236
2.3216,0.3470,39.2500,84,96,258241
2.2776,0.3372,39.4100,84,96,258244
2.3363,0.3568,39.1200,84,96,258248
2.2825,0.3372,39.2500,84,96,258251
2.2483,0.3372,39.4400,84,96,258254
2.2336,0.3470,39.2800,84,96,258258
2.2141,0.3372,39.3500,84,96,258262
2.2923,0.3519,39.1200,84,96,258265
2.2678,0.3470,39.2800,84,96,258268
2.2385,0.3324,39.3200,84,96,258272
2.1896,0.3421,39.3200,84,96,258275
2.1261,0.3372,39.3200,84,96,258278
2.1261,0.3568,39.1900,84,96,258282
2.0626,0.3421,39.3200,84,96,258285
2.0577,0.3372,39.3200,84,96,258288
2.0235,0.3372,39.3500,84,96,258292
1.9892,0.3372,39.3800,84,96,258295
2.0039,0.3470,39.1900,84,96,258298
1.9599,0.3372,39.2200,84,96,258302
1.9795,0.3519,39.1900,84,96,258306
1.9404,0.3324,39.3200,84,96,258309
1.9208,0.3666,39.3500,84,96,258313
1.9208,0.3372,39.2500,84,96,258316
1.8915,0.3372,39.2800,84,96,258319
1.9208,0.3421,39.2200,84,96,258322
1.9062,0.3372,39.3500,84,96,258326
1.9062,0.3324,39.3500,84,96,258329
1.9110,0.3421,39.2200,84,96,258332
1.8622,0.3372,39.2200,84,96,258336
1.8719,0.3519,39.1200,84,96,258339
1.8182,0.3372,39.2500,84,96,258342
1.8182,0.3324,39.3500,84,96,258347
1.8182,0.3421,39.2800,84,96,258350
1.7840,0.3372,39.3500,84,96,258353
1.8035,0.3519,39.1200,84,96,258357
1.7449,0.3372,39.2800,84,96,258360
1.7155,0.3324,39.3200,84,96,258363
1.7009,0.3421,39.3500,84,96,258367
1.6813,0.3372,39.3500,84,96,258370
1.6813,0.3421,39.1600,84,96,258373
1.5982,0.3421,39.3200,84,96,258376
1.5640,0.3421,39.2500,84,96,258380
1.4809,0.3372,39.3500,84,96,258383
1.4321,0.3372,39.3500,84,96,258386
1.4272,0.3421,39.2500,84,96,258391
1.4174,0.3324,39.3500,84,96,258394
1.4809,0.3421,39.2200,84,96,258397
1.5640,0.3372,39.3200,84,96,258401
1.6960,0.3421,39.3500,84,96,258404
1.7498,0.3372,39.2800,84,96,258407
1.6569,0.3372,39.3500,84,96,258411
1.5347,0.3324,39.1900,84,96,258414
1.3294,0.3372,39.3800,84,96,258417
1.1975,0.3372,39.3500,84,96,258421
1.0899,0.3470,39.2500,84,96,258424
0.9629,0.3324,39.3500,84,96,258427
0.8700,0.3421,39.1200,84,96,258430
0.7625,0.3421,39.2800,84,96,258435
0.6745,0.3324,39.3200,84,96,258438
0.6207,0.3421,39.2800,84,96,258441
0.5670,0.3372,39.5400,84,96,258445
0.5670,0.3519,39.0600,84,96,258448
0.5474,0.3372,39.2500,84,96,258451
0.5327,0.3324,39.3500,84,96,258455
0.5327,0.3421,39.3200,84,96,258458
0.5425,0.3324,39.3500,84,96,258461
0.5816,0.3568,39.1200,84,96,258464
0.5914,0.3470,39.3200,84,96,258468
0.6354,0.3324,39.2800,84,96,258471
0.6207,0.3372,39.3500,84,96,258475
0.6354,0.3421,39.3500,84,96,258479
0.6843,0.3470,39.2200,84,96,258482
0.6940,0.3372,39.3500,84,96,258485
0.7234,0.3421,39.2200,84,96,258489
0.7283,0.3372,38.6200,84,96,258492
0.7283,0.3372,39.3500,84,96,258495
0.7478,0.3470,39.1900,84,96,258499
0.7380,0.3372,39.3200,84,96,258502
0.7674,0.3372,39.2500,84,96,258505
0.7576,0.3324,39.2800,84,96,258508
0.7820,0.3324,39.3800,84,96,258512
0.8016,0.3275,39.2200,84,96,258515
0.8113,0.3372,39.3500,84,96,258519
0.8504,0.3372,39.1200,84,96,258523
0.8749,0.3324,39.2800,84,96,258526
0.9140,0.3324,39.3500,84,96,258529
0.9482,0.3421,39.2200,84,96,258533
0.9531,0.3421,39.4400,84,96,258536
0.9824,0.3470,39.1200,84,96,258539
0.9922,0.3324,39.2500,84,96,258542
1.0411,0.3372,39.3500,84,96,258546
1.0557,0.3372,39.1200,84,96,258549
1.0704,0.3372,39.3500,84,96,258552
1.0606,0.3470,39.0600,84,96,258556
0.9922,0.3372,39.2800,84,96,258560
1.0166,0.3275,39.3800,84,96,258563
1.0411,0.3372,39.3200,84,96,258567
1.0655,0.3079,39.4100,84,96,258570
1.1193,0.3763,39.1600,84,96,258573
1.0997,0.3421,39.2800,84,96,258577
1.0948,0.3324,39.5400,84,96,258580
1.0948,0.3324,39.3500,84,96,258583
1.0948,0.3324,39.3500,84,96,258586
1.1241,0.3470,39.2500,84,96,258590
1.0948,0.3470,39.3800,84,96,258593
1.0850,0.3421,39.2500,84,96,258596
1.0704,0.3421,39.3500,84,96,258600
1.0704,0.3324,39.1900,84,96,258604
1.0899,0.3372,39.2800,84,96,258607
1.0948,0.3275,39.3200,84,96,258611
1.0948,0.3421,39.2200,84,96,258614
1.0606,0.3324,39.2200,84,96,258617
1.0459,0.3372,39.3800,84,96,258620
1.0557,0.3519,39.2200,84,96,258624
1.0411,0.3324,39.3800,84,96,258627
1.0704,0.3324,39.1600,84,96,258630
1.0459,0.3324,39.2500,84,96,258634
1.0117,0.3324,39.2200,84,96,258637
1.0264,0.3421,39.1900,84,96,258640
1.0068,0.3079,39.5400,84,96,258644
1.0215,0.3421,39.1600,84,96,258648
1.0068,0.3275,39.2800,84,96,258651
1.0117,0.3275,39.3800,84,96,258654
1.0411,0.3421,39.2800,84,96,258658
1.0459,0.3324,39.3500,84,96,258661
1.1095,0.3470,39.0900,84,96,258664
1.1193,0.3324,39.2200,84,96,258668
1.1388,0.3324,39.3500,84,96,258671
1.1535,0.3372,39.3800,84,96,258674
1.1584,0.3324,39.3500,84,96,258678
1.1975,0.3519,39.1200,84,96,258681
1.1828,0.3421,39.3200,84,96,258684
1.1975,0.3324,39.2800,84,96,258689
1.2121,0.3324,39.3500,84,96,258692
1.2023,0.3324,39.3800,84,96,258695
1.2317,0.3421,39.1600,84,96,258698
1.2219,0.3372,39.3500,84,96,258702
1.2463,0.3372,39.2500,84,96,258705
1.2512,0.3275,39.3500,84,96,258708
1.2512,0.3324,39.3200,84,96,258712
1.2708,0.3421,39.2500,84,96,258715
1.2512,0.3324,39.3500,84,96,258718
1.2757,0.3421,39.3200,84,96,258722
1.2610,0.3324,39.3200,84,96,258725
1.2757,0.3324,39.3500,84,96,258728
1.2903,0.3372,39.2500,84,96,258733
1.2610,0.3324,39.4800,84,96,258736
1.2659,0.3421,39.1200,84,96,258739
1.2463,0.3275,39.2800,84,96,258743
1.2561,0.3324,39.3500,84,96,258746
1.2757,0.3372,39.3800,84,96,258749
1.2414,0.3275,39.3500,84,96,258753
1.2512,0.3421,39.1200,84,96,258756
1.2072,0.3324,39.2200,84,96,258759
1.1877,0.3324,39.3800,84,96,258762
1.1975,0.3324,39.3200,84,96,258766
1.1877,0.3324,39.3500,84,96,258769
1.2170,0.3470,39.1600,84,96,258772
1.1730,0.3372,39.2800,84,96,258777
1.1486,0.3324,39.2800,84,96,258780
1.1486,0.3324,39.4400,84,96,258783
1.1584,0.3324,39.4400,84,96,258787
1.1828,0.3372,39.2200,84,96,258790
1.1584,0.3324,39.3200,84,96,258793
1.1535,0.3372,39.2500,84,96,258797
1.1339,0.3324,39.3500,84,96,258800
1.1388,0.3470,39.3500,84,96,258803
1.1632,0.3372,39.2800,84,96,258806
1.1486,0.3324,39.3500,84,96,258810
1.1730,0.3421,39.2500,84,96,258813
1.1388,0.3324,39.3500,84,96,258817
1.1339,0.3470,39.3500,84,96,258821
1.1437,0.3421,39.2200,84,96,258824
1.1339,0.3324,39.4100,84,96,258827
1.1535,0.3275,39.1200,84,96,258831
1.1339,0.3079,39.2200,84,96,258834
1.0997,0.3421,39.3500,84,96,258837
1.0997,0.3470,39.2500,84,96,258841
1.0704,0.3324,39.3500,84,96,258844
1.0997,0.3519,39.1200,84,96,258847
1.0899,0.3568,39.1600,84,96,258852
1.0802,0.3421,39.3200,84,96,258855
1.0753,0.3324,39.2800,84,96,258860
1.0508,0.3324,39.3800,84,96,258863
1.0264,0.3275,39.3500,84,96,258866
1.0459,0.3470,39.0900,84,96,258869
1.0264,0.3568,39.3800,84,96,258873
1.0313,0.3372,39.2200,84,96,258876
1.0215,0.3568,39.3800,84,96,258879
1.0459,0.3324,39.3500,84,96,258883
1.0313,0.3470,39.2800,84,96,258886
1.0264,0.3324,39.3500,84,96,258889
1.0606,0.3372,39.2200,84,96,258893
1.0459,0.3324,39.5100,84,96,258896
1.0411,0.3666,39.3500,84,96,258899
1.0411,0.3372,39.1600,84,96,258904
1.0215,0.3666,39.3500,84,96,258907
1.0264,0.3421,39.1600,84,96,258910
1.0411,0.3421,39.3200,84,96,258913
1.0802,0.3372,39.3500,84,96,258917
1.1095,0.3421,39.2500,84,96,258920
1.1095,0.3324,39.4400,84,96,258923
1.1535,0.3421,39.0900,84,96,258927
1.1584,0.3324,39.2800,84,96,258930
1.1828,0.3372,39.3800,84,96,258933
1.2121,0.3372,39.3200,84,96,258937
1.2072,0.3324,39.3500,84,96,258940
1.2268,0.3519,39.1600,84,96,258944
1.1877,0.3324,39.3200,84,96,258948
1.1779,0.3324,39.2800,84,96,258951
1.1681,0.3372,39.3200,84,96,258954
1.1535,0.3275,39.3500,84,96,258957
1.1681,0.3421,39.1600,84,96,258961
1.1388,0.3372,39.3200,84,96,258964
1.1681,0.3372,39.3200,84,96,258967
1.1779,0.3324,39.3500,84,96,258971
1.1975,0.3324,39.3500,84,96,258974
1.2268,0.3275,39.2200,84,96,258977
1.2023,0.3324,39.3500,84,96,258981
1.1828,0.3421,39.2200,84,96,258984
1.1339,0.3324,39.3200,84,96,258988
1.1193,0.3324,39.3500,84,96,258992
1.1193,0.3617,39.2500,84,96,258995
1.1046,0.3275,39.3500,84,96,258998
1.0850,0.3324,39.1600,84,96,259002
1.0362,0.3275,39.3500,84,96,259005
1.0020,0.3324,39.4400,84,96,259008
0.9971,0.3421,39.2800,84,96,259011
0.9726,0.3275,39.4400,84,96,259015
0.9775,0.3666,39.1200,84,96,259018
0.9580,0.3275,39.2800,84,96,259021
0.9286,0.3275,39.3500,84,96,259025
0.9384,0.3372,39.2800,84,96,259028
0.9580,0.3324,39.3800,84,96,259032
0.9775,0.3421,39.0600,84,96,259036
0.9629,0.3421,39.3200,84,96,259039
0.9433,0.3226,39.3200,84,96,259042
0.9433,0.3079,39.3200,84,96,259045
0.9384,0.3275,39.2500,84,96,259049
0.9775,0.3568,39.1600,84,96,259052
0.9629,0.3372,39.3200,84,96,259055
0.9580,0.3275,39.2800,84,96,259059
0.9629,0.3324,39.3500,84,96,259062
0.9091,0.3372,39.5400,84,96,259065
0.9189,0.3470,39.2500,84,96,259069
0.8993,0.3324,39.3500,84,96,259073
0.9091,0.3324,39.2800,84,96,259076
0.8847,0.3275,39.3500,84,96,259080
0.8602,0.3275,39.3200,84,96,259083
0.8309,0.3470,39.2200,84,96,259086
0.7722,0.3275,39.3500,84,96,259089
0.7185,0.3372,39.2500,84,96,259093
0.7136,0.3275,39.2500,84,96,259096
0.7918,0.3275,39.3500,84,96,259099
0.8847,0.3372,39.3800,84,96,259103
1.0606,0.3617,39.3500,84,96,259106
1.3392,0.3324,39.1900,84,96,259109
1.5396,0.3324,39.2800,84,96,259113
1.6569,0.3324,39.3500,84,96,259117
1.6520,0.3372,39.2800,84,96,259120
1.5640,0.3519,39.3200,84,96,259124
1.5249,0.3275,39.1200,84,96,259127
1.4027,0.3372,39.2500,84,96,259130
1.3245,0.3275,39.3500,84,96,259133
1.1926,0.3324,39.3800,84,96,259137
1.0802,0.3324,39.3500,84,96,259140
1.0166,0.3470,39.0900,84,96,259143
0.9238,0.3372,39.2800,84,96,259147
0.8553,0.3372,39.3200,84,96,259150
0.8260,0.3324,39.3800,84,96,259153
0.7771,0.3275,39.3200,84,96,259158
0.7918,0.3275,39.1900,84,96,259161
0.7429,0.3372,39.4100,84,96,259164
0.7185,0.3568,39.2800,84,96,259168
0.7038,0.3275,39.3500,84,96,259171
0.7038,0.3275,39.4800,84,96,259174
0.7429,0.3372,39.2200,84,96,259177
0.6940,0.3275,39.3200,84,96,259181
0.6843,0.3372,39.2200,84,96,259184
0.6647,0.3324,39.3500,84,96,259187
0.6696,0.3275,39.3500,84,96,259191
0.6794,0.3372,39.2800,84,96,259194
0.6891,0.3275,39.3500,84,96,259197
0.6647,0.3079,39.2200,84,96,259202
0.6452,0.3275,39.3800,84,96,259205
0.6598,0.3324,39.3500,84,96,259208
0.6647,0.3372,39.2500,84,96,259211
0.6598,0.3226,39.3200,84,96,259215
0.6794,0.3324,39.1600,84,96,259218
0.6794,0.3324,39.2500,84,96,259221
0.6843,0.3275,39.2800,84,96,259225
0.7087,0.3372,39.2500,84,96,259228
0.7038,0.3275,39.3500,84,96,259231
0.7478,0.3421,39.0900,84,96,259235
0.7527,0.3275,39.2500,84,96,259238
0.7527,0.3275,39.3800,84,96,259241
0.7576,0.3519,39.2800,84,96,259246
0.7625,0.3275,39.3800,84,96,259249
0.7967,0.3470,39.0900,84,96,259252
0.7967,0.3372,39.2800,84,96,259255
0.7967,0.3324,39.3200,84,96,259259
0.7967,0.3324,39.3500,84,96,259262
0.7820,0.3275,39.3800,84,96,259265
0.8162,0.3372,39.1900,84,96,259269
0.7967,0.3079,39.3200,84,96,259272
0.8260,0.3324,39.3200,84,96,259275
0.8456,0.3275,39.3500,84,96,259279
0.8456,0.3275,39.3500,84,96,259282
0.8651,0.3617,39.1900,84,96,259286
0.8504,0.3324,39.3800,84,96,259289
0.8700,0.3324,39.6000,84,96,259293
0.8749,0.3568,39.3200,84,96,259296
0.8798,0.3275,39.3500,84,96,259299
0.8944,0.3372,38.5500,84,96,259303
0.8798,0.3275,39.3800,84,96,259306
0.8993,0.3470,39.3200,84,96,259309
0.8993,0.3275,39.3200,84,96,259313
0.9042,0.3275,39.4400,84,96,259316
0.9042,0.3519,39.2500,84,96,259319
0.8895,0.3177,39.3200,84,96,259322
0.8847,0.3324,39.1600,84,96,259326
0.8798,0.3275,39.3500,84,96,259330
0.8895,0.3275,39.4400,84,96,259333
0.9189,0.3372,39.3500,84,96,259337
0.8944,0.3177,39.3500,84,96,259340
0.9091,0.3372,39.1200,84,96,259343
0.8993,0.3372,39.2800,84,96,259347
0.9042,0.3275,39.4400,84,96,259350
0.9286,0.3372,39.2800,84,96,259353
0.9286,0.3275,39.3500,84,96,259356
0.9482,0.3421,39.0600,84,96,259360
0.9238,0.3372,39.2500,84,96,259363
0.8993,0.3324,39.3200,84,96,259366
0.9140,0.3324,39.3500,84,96,259371
0.9335,0.3275,39.3800,84,96,259374
0.9873,0.3372,39.1900,84,96,259377
0.9873,0.3324,39.2800,84,96,259381
1.0020,0.3470,39.3200,84,96,259384
1.0215,0.3275,39.3500,84,96,259387
1.0508,0.3275,39.5100,84,96,259390
1.0997,0.3470,39.3200,84,96,259394
1.0997,0.3372,39.3200,84,96,259397
1.1095,0.3324,39.2500,84,96,259400
1.1095,0.3324,39.3200,84,96,259404
1.1193,0.3275,39.3500,84,96,259407
1.1584,0.3421,39.1900,84,96,259410
1.1486,0.3275,39.3500,84,96,259415
1.1877,0.3324,39.2200,84,96,259418
1.1632,0.3275,39.2800,84,96,259421
1.1486,0.3275,39.2200,84,96,259425
1.1437,0.3324,39.1900,84,96,259428
1.1388,0.3079,39.3800,84,96,259431
1.1632,0.3324,39.1200,84,96,259435
1.1388,0.3275,39.2800,84,96,259438
1.1046,0.3226,39.4100,84,96,259441
1.0850,0.3470,39.3200,84,96,259444
1.0606,0.3275,39.3500,84,96,259448
1.0557,0.3372,39.1200,84,96,259451
1.0264,0.3372,39.2500,84,96,259454
1.0362,0.3275,39.3800,84,96,259459
0.9873,0.3324,39.3800,84,96,259462
0.7771,0.3275,39.3500,84,96,259467
0.6794,0.3324,39.3500,84,96,259470
0.6061,0.3372,39.1900,84,96,259473
0.5083,0.3226,39.3500,84,96,259477
0.4497,0.3421,39.2200,84,96,259480
0.3861,0.3275,39.3500,84,96,259483
0.3275,0.3226,39.3800,84,96,259486
0.3079,0.3324,39.2800,84,96,259490
0.2346,0.3275,39.3500,84,96,259493
0.2248,0.3372,39.3200,84,96,259496
0.2053,0.3275,39.2800,84,96,259501
0.2151,0.3177,39.3500,84,96,259504
0.2346,0.3275,39.3200,84,96,259507
0.2444,0.3372,39.3200,84,96,259511
0.2639,0.3275,39.1900,84,96,259514
0.2688,0.3275,39.5100,84,96,259517
0.3030,0.3275,39.3500,84,96,259521
0.3666,0.3275,39.2200,84,96,259524
0.3470,0.3275,39.3800,84,96,259527
0.3666,0.3372,39.1200,84,96,259530
0.3715,0.3275,39.2500,84,96,259534
0.3812,0.3275,39.3800,84,96,259537
0.4106,0.3324,39.2800,84,96,259540
0.4301,0.3275,39.3500,84,96,259545
0.4448,0.3372,39.0600,84,96,259548
0.4399,0.3275,39.3200,84,96,259551
0.4692,0.3226,39.3500,84,96,259555
0.4545,0.3275,39.3200,84,96,259558
0.4741,0.3226,39.2800,84,96,259561
0.5181,0.3519,39.1600,84,96,259564
0.5034,0.3324,39.3200,84,96,259568
0.5083,0.3275,39.2800,84,96,259571
0.5132,0.3324,39.3500,84,96,259574
0.5327,0.3275,39.5400,84,96,259578
0.5718,0.3666,39.2200,84,96,259581
0.6061,0.3324,39.3200,84,96,259585
0.5963,0.3324,39.2200,84,96,259589
0.6158,0.3226,39.3500,84,96,259592
0.6109,0.3275,39.3500,84,96,259595
0.6305,0.3372,39.2200,84,96,259598
0.6354,0.3275,39.3200,84,96,259602
0.6745,0.3275,39.2500,84,96,259605
0.6354,0.3226,39.4100,84,96,259608
0.6403,0.3275,39.3500,84,96,259612
0.6452,0.3324,39.2200,84,96,259615
0.6452,0.3275,39.2800,84,96,259618
0.6745,0.3372,39.1600,84,96,259622
0.6891,0.3275,39.2800,84,96,259625
0.6989,0.3275,39.2800,84,96,259629
0.7185,0.3421,39.2500,84,96,259633
0.7429,0.3275,39.3500,84,96,259636
0.7576,0.3372,39.2200,84,96,259639
0.7918,0.3324,39.2800,84,96,259642
0.8065,0.3226,39.3500,84,96,259646
0.8358,0.3324,39.3200,84,96,259649
0.8407,0.3275,39.3500,84,96,259652
0.8749,0.3421,39.1600,84,96,259656
0.8847,0.3421,39.2500,84,96,259659
0.9140,0.3177,39.3200,84,96,259662
0.8944,0.3568,39.3200,84,96,259666
0.8895,0.3177,39.3500,84,96,259670
0.9042,0.3470,39.1900,84,96,259673
0.8993,0.3324,39.3200,84,96,259676
0.9091,0.3519,39.2800,84,96,259680
0.9384,0.3324,39.3500,84,96,259683
0.9531,0.3275,39.3800,84,96,259686
0.9726,0.3372,39.2500,84,96,259690
0.9726,0.3275,39.3500,84,96,259693
0.9286,0.3324,39.2800,84,96,259696
0.9140,0.3324,39.3500,84,96,259700
0.9189,0.3226,39.3500,84,96,259703
0.9335,0.3324,39.2800,84,96,259706
0.9238,0.3324,39.2800,84,96,259710
0.9238,0.3372,39.2500,84,96,259714
0.9091,0.3177,39.3500,84,96,259717
0.9189,0.3177,39.3500,84,96,259720
0.9384,0.3079,39.2800,84,96,259724
0.9238,0.3372,39.3500,84,96,259727
0.9286,0.3275,39.1900,84,96,259730
0.9189,0.3275,39.2200,84,96,259734
0.9189,0.3275,39.3500,84,96,259737
0.9531,0.3372,39.3500,84,96,259740
0.9629,0.3275,39.3500,84,96,259744
0.9971,0.3275,39.0900,84,96,259747
0.9629,0.3226,39.2200,84,96,259750
0.9531,0.3226,39.4400,84,96,259755
0.9531,0.3079,39.2800,84,96,259758
0.9384,0.3226,39.4100,84,96,259761
0.9629,0.3372,39.0300,84,96,259764
0.9384,0.3275,39.2500,84,96,259768
0.9140,0.3177,39.3200,84,96,259771
0.8993,0.3324,39.3500,84,96,259774
0.8895,0.3226,39.3500,84,96,259778
0.9238,0.3421,39.1600,84,96,259781
0.8993,0.3275,39.3200,84,96,259784
0.8553,0.3226,39.2500,84,96,259788
0.8065,0.3177,39.3500,84,96,259791
0.7625,0.3275,39.3500,84,96,259794
0.7331,0.3372,39.1600,84,96,259798
0.6647,0.3177,39.3200,84,96,259802
0.6305,0.3275,39.2200,84,96,259805
0.6207,0.3226,39.3500,84,96,259808
0.6745,0.3519,39.3500,84,96,259812
0.8162,0.3372,39.2800,84,96,259815
1.0117,0.3079,39.4100,84,96,259818
1.2952,0.3324,39.2500,84,96,259822
1.4858,0.3177,39.3200,84,96,259825
1.5836,0.3275,39.3200,84,96,259828
1.5738,0.3275,39.2500,84,96,259832
1.4907,0.3226,39.3500,84,96,259835
1.4418,0.3324,39.1600,84,96,259838
1.3343,0.3177,39.3200,84,96,259842
1.2268,0.3226,39.3500,84,96,259846
1.1339,0.3275,39.5100,84,96,259849
1.0215,0.3226,39.3200,84,96,259852
0.9775,0.3372,39.0900,84,96,259856
0.9091,0.3275,39.2500,84,96,259859
0.8651,0.3128,39.3200,84,96,259862
0.8456,0.3275,39.3800,84,96,259866
0.8113,0.3226,39.3500,84,96,259869
0.8358,0.3470,39.0900,84,96,259872
0.8260,0.3324,39.2800,84,96,259876
0.8309,0.3226,39.2800,84,96,259879
0.8798,0.3275,39.3500,84,96,259883
0.8602,0.3226,39.3500,84,96,259886
0.8944,0.3372,39.1600,84,96,259890
0.8700,0.3324,39.3200,84,96,259893
0.8847,0.3275,39.2200,84,96,259896
0.9042,0.3275,38.9000,84,96,259900
0.9482,0.3275,39.3500,84,96,259903
0.9971,0.3324,39.2500,84,96,259906
0.9971,0.3275,39.3500,84,96,259910
1.0166,0.3372,39.2200,84,96,259913
1.0166,0.3275,39.3500,84,96,259916
1.0362,0.3275,39.3500,84,96,259919
1.0899,0.3324,39.2200,84,96,259923
1.0704,0.3226,39.4800,84,96,259927
1.0899,0.3324,39.2500,84,96,259930
1.0850,0.3324,39.2500,84,96,259934
1.0948,0.3275,39.3500,84,96,259937
1.1290,0.3421,39.1900,84,96,259940
1.1339,0.3226,39.3200,84,96,259944
1.1437,0.3324,39.2200,84,96,259947
1.1193,0.3324,39.2800,84,96,259950
1.0704,0.3226,39.3500,84,96,259954
1.0508,0.3324,39.2800,84,96,259957
0.8358,0.3226,39.3500,84,96,259960
0.5718,0.3372,39.0900,84,96,259963
0.3519,0.3226,39.2800,84,96,259968
0.2102,0.3372,39.3500,84,96,259971
0.1369,0.3275,39.3500,84,96,259974
0.0733,0.3226,39.4800,84,96,259978
0.0391,0.3470,39.0600,84,96,259981
0.0196,0.3226,39.3200,84,96,259984
0.0098,0.3177,39.2800,84,96,259988
0.0049,0.3275,39.3500,84,96,259991
0.0000,0.3226,39.4100,84,96,259994
0.0098,0.3470,39.1900,84,96,259997
0.0000,0.3275,39.5400,84,96,260001
0.0000,0.3177,39.2800,84,96,260004
0.0000,0.3226,39.3200,84,96,260007
0.0000,0.3226,39.3500,84,96,260011
0.0000,0.3372,39.1600,84,96,260015
0.0000,0.3324,39.2800,84,96,260018
0.0000,0.3226,39.2800,84,96,260021
0.0000,0.3226,39.3500,84,96,260024
0.0000,0.3177,39.3800,84,96,260028
0.0147,0.3470,39.1200,84,96,260031
0.0147,0.3324,39.2800,84,96,260034
0.0489,0.3226,39.2800,84,96,260037
0.0587,0.3226,39.2800,84,96,260041
0.0978,0.3226,39.4400,84,96,260044
0.1466,0.3324,39.1900,84,96,260047
0.1857,0.3275,39.3200,84,96,260051
0.2444,0.3324,39.2200,84,96,260055
0.3128,0.3226,39.3500,84,96,260058
0.3959,0.3226,39.3500,84,96,260062
0.4839,0.3275,39.2500,84,96,260065
0.5474,0.3226,39.3500,84,96,260068
0.6109,0.3372,39.2200,84,96,260071
0.6598,0.3226,39.1600,84,96,260075
1.0655,0.3177,39.3200,84,96,260079
1.1290,0.3226,39.5700,84,96,260083
1.2170,0.3275,39.2800,84,96,260086
1.2757,0.3226,39.3500,84,96,260089
1.3685,0.3324,39.0900,84,96,260093
1.3930,0.3275,39.2500,84,96,260097
1.4272,0.3079,39.3800,84,96,260100
1.5054,0.3372,39.3200,84,96,260104
1.5249,0.3226,39.3500,84,96,260107
1.6178,0.3421,39.1200,84,96,260110
1.6178,0.3275,39.2500,84,96,260114
1.6178,0.3177,39.2800,84,96,260117
1.6129,0.3226,39.3200,84,96,260120
1.6129,0.3226,39.3200,84,96,260123
1.6569,0.3275,39.2200,84,96,260127
1.6373,0.3226,39.3800,84,96,260130
1.6618,0.3177,39.2500,84,96,260133
1.6471,0.3226,39.1900,84,96,260137
1.6471,0.3226,39.3500,84,96,260141
1.6764,0.3275,39.2800,84,96,260144
1.6716,0.3226,39.3500,84,96,260148
1.7009,0.3324,39.1900,84,96,260151
1.6716,0.3177,39.3500,84,96,260154
1.6618,0.3226,39.3200,84,96,260158
1.7058,0.3324,39.2500,84,96,260161
1.6471,0.3226,39.4800,84,96,260164
1.7155,0.3226,39.1900,84,96,260168
1.6667,0.3275,39.2500,84,96,260171
1.6325,0.3372,39.3500,84,96,260174
1.6129,0.3275,39.3200,84,96,260178
1.5494,0.3177,39.3200,84,96,260182
1.5494,0.3324,39.1200,84,96,260185
1.5005,0.3275,39.2200,84,96,260188
1.4614,0.3177,39.3500,84,96,260192
1.4370,0.3275,39.3200,84,96,260195
1.3881,0.3177,39.3500,84,96,260198
1.3930,0.3421,39.0900,84,96,260202
1.3587,0.3324,39.3200,84,96,260205
1.3490,0.3226,39.2500,84,96,260208
1.3539,0.3226,39.3500,84,96,260212
1.3490,0.3177,39.4400,84,96,260215
1.3636,0.3715,39.3200,84,96,260218
1.3294,0.3275,39.3500,84,96,260222
1.3245,0.3275,39.1600,84,96,260226
1.3050,0.3226,39.3500,84,96,260229
1.3196,0.3226,39.2800,84,96,260233
1.3392,0.3275,39.1900,84,96,260236
1.2952,0.3275,39.3800,84,96,260239
1.3099,0.3275,39.2200,84,96,260243
1.2854,0.3226,39.3200,84,96,260246
1.2952,0.3715,39.3200,84,96,260249
1.3099,0.3275,38.8700,84,96,260252
1.2903,0.3275,39.3200,84,96,260256
1.2952,0.3275,39.1600,84,96,260259
1.2708,0.3177,39.3200,84,96,260262
1.2805,0.3226,39.3500,84,96,260267
1.3148,0.3275,39.2800,84,96,260270
1.3148,0.3275,39.3500,84,96,260273
1.3392,0.3324,39.0600,84,96,260277
1.3099,0.3275,39.2500,84,96,260280
1.3001,0.3226,39.3500,84,96,260283
1.3148,0.3324,39.3200,84,96,260287
1.3245,0.3226,39.3500,84,96,260290
1.3832,0.3372,39.1200,84,96,260293
1.3539,0.3275,39.2800,84,96,260297
1.3441,0.3226,39.2800,84,96,260300
1.3392,0.3275,39.4400,84,96,260303
1.3343,0.3226,39.3500,84,96,260306
1.3636,0.3324,39.1900,84,96,260311
1.3294,0.3226,39.3200,84,96,260314
1.3245,0.3226,39.2200,84,96,260317
1.2952,0.3324,39.3500,84,96,260321
1.2952,0.3226,39.3500,84,96,260324
1.3294,0.3324,39.2800,84,96,260327
1.3294,0.3177,39.3500,84,96,260331
1.3832,0.3275,39.2200,84,96,260334
1.3685,0.3226,39.3200,84,96,260337
1.3783,0.3079,39.0900,84,96,260341
1.3978,0.3275,39.2200,84,96,260344
1.4076,0.3226,39.3500,84,96,260347
1.4565,0.3275,39.1600,84,96,260352
1.4614,0.3128,39.3200,84,96,260355
1.4614,0.3177,39.3500,84,96,260358
1.4858,0.3275,39.2800,84,96,260361
1.4712,0.3226,39.3500,84,96,260365
1.5249,0.3372,39.0900,84,96,260368
1.5249,0.3275,39.2500,84,96,260371
1.5152,0.3177,39.0300,84,96,260375
1.5103,0.3275,39.3200,84,96,260378
1.5103,0.3226,39.3800,84,96,260381
1.5640,0.3275,39.1200,84,96,260385
1.5787,0.3275,39.2500,84,96,260388
1.6080,0.3177,39.2800,84,96,260391
1.6276,0.3226,39.3500,84,96,260396
1.6373,0.3226,39.3500,84,96,260399
1.6764,0.3275,39.2200,84,96,260402
1.6422,0.3275,39.3500,84,96,260406
1.6716,0.3177,39.2200,84,96,260409
1.6373,0.3079,39.3500,84,96,260412
1.6422,0.3177,39.3500,84,96,260415
1.6276,0.3079,39.2800,84,96,260419
1.5934,0.3226,39.3200,84,96,260422
1.6031,0.3324,39.2500,84,96,260425
1.5787,0.3226,39.3200,84,96,260429
1.5689,0.3226,39.3500,84,96,260432
1.5836,0.3324,39.1900,84,96,260435
1.5396,0.3226,39.3500,84,96,260440
1.5591,0.3275,39.1600,84,96,260443
1.5396,0.3275,39.2500,84,96,260446
1.5494,0.3226,39.2800,84,96,260450
1.5787,0.3275,39.2800,84,96,260453
1.5494,0.3177,39.3200,84,96,260456
1.5836,0.3324,39.0900,84,96,260460
1.5494,0.3275,39.1900,84,96,260463
1.5836,0.3177,39.3500,84,96,260466
1.5738,0.3275,39.3200,84,96,260469
1.5640,0.3226,39.3500,84,96,260473
1.6031,0.3421,39.1200,84,96,260476
1.5591,0.3324,39.3200,84,96,260480
1.5494,0.3226,39.2800,84,96,260484
1.5445,0.3226,39.3800,84,96,260487
1.5543,0.3079,39.3500,84,96,260490
1.5836,0.3324,39.2500,84,96,260494
1.5347,0.3226,39.3200,84,96,260497
1.5200,0.3226,39.2200,84,96,260500
1.5005,0.3177,39.3500,84,96,260504
1.4321,0.3226,39.3500,84,96,260507
1.4223,0.3324,39.1900,84,96,260510
1.3685,0.3079,39.3200,84,96,260514
1.3832,0.3275,39.2200,84,96,260517
1.4321,0.3177,39.2500,84,96,260520
1.5982,0.3226,39.3500,84,96,260524
1.8719,0.3275,39.2200,84,96,260528
2.1457,0.3079,39.0000,84,96,260531
2.4976,0.3275,39.1600,84,96,260534
2.6735,0.3275,39.3200,84,96,260538
2.7077,0.3226,39.3500,84,96,260541
2.7028,0.3324,39.2500,84,96,260544
2.6295,0.3226,39.3500,84,96,260548
2.6491,0.3324,39.0900,84,96,260551
2.5122,0.3226,39.2800,84,96,260554
2.3851,0.3079,39.4800,84,96,260558
2.2923,0.3324,39.3200,84,96,260561
2.1848,0.3226,39.2800,84,96,260564
2.1896,0.3275,39.1200,84,96,260569
2.0821,0.3275,39.3200,84,96,260572
2.0332,0.3177,39.2800,84,96,260575
1.9990,0.3226,39.3500,84,96,260578
1.9697,0.3226,39.3500,84,96,260582
2.0235,0.3275,39.1900,84,96,260585
1.9795,0.3275,39.4400,84,96,260588
1.9844,0.3275,39.2200,84,96,260592
1.9550,0.3226,39.4100,84,96,260595
1.9306,0.3226,39.3500,84,96,260598
1.9355,0.3324,39.2200,84,96,260602
1.8964,0.3226,39.3200,84,96,260605
1.9208,0.3324,39.2200,84,96,260609
1.8866,0.3226,39.3500,84,96,260613
1.8573,0.3177,39.3500,84,96,260616
1.8035,0.3275,39.2200,84,96,260619
1.7155,0.3226,39.5700,84,96,260622
1.6618,0.3324,39.2200,84,96,260626
1.5543,0.3470,39.3200,84,96,260629
1.4663,0.3226,39.3800,84,96,260632
1.4076,0.3275,39.3200,84,96,260636
1.3148,0.3226,39.3500,84,96,260639
1.3001,0.3372,39.2500,84,96,260642
1.2463,0.3372,39.2800,84,96,260646
1.2121,0.3226,39.3800,84,96,260649
1.2023,0.3275,39.3200,84,96,260653
1.1730,0.3226,39.3500,84,96,260657
1.1828,0.3421,39.1200,84,96,260660
1.1632,0.3372,39.2800,84,96,260663
1.1584,0.3226,39.2200,84,96,260667
1.2023,0.3275,39.3500,84,96,260670
1.1877,0.3226,39.3500,84,96,260673
1.2268,0.3372,39.1900,84,96,260677
1.1975,0.3275,39.3200,84,96,260680
1.2023,0.3275,38.5200,84,96,260683
1.2023,0.3324,39.3500,84,96,260686
1.2757,0.3275,39.3500,84,96,260691
1.3050,0.3079,39.3500,84,96,260695
1.3587,0.3324,39.2800,84,96,260699
1.3832,0.3226,39.3500,84,96,260702
1.4614,0.3715,39.1200,84,96,260705
1.4956,0.3324,39.2500,84,96,260709
1.5298,0.3275,39.3200,84,96,260712
1.5982,0.3324,39.3200,84,96,260715
1.6325,0.3275,39.3200,84,96,260719
1.7204,0.3372,39.0600,84,96,260722
1.7253,0.3275,39.2200,84,96,260725
1.7400,0.3177,39.3500,84,96,260729
1.7889,0.3275,39.3800,84,96,260732
1.8328,0.3421,39.3500,84,96,260736
1.9355,0.3470,39.1900,84,96,260740
1.9306,0.3372,39.3200,84,96,260743
1.9501,0.3275,39.2800,84,96,260746
1.9599,0.3275,39.3500,84,96,260749
1.9844,0.3275,39.3500,84,96,260753
2.0528,0.3372,38.5200,84,96,260756
2.0528,0.3275,39.2800,84,96,260759
2.0919,0.3324,39.2200,84,96,260763
2.0772,0.3275,39.2800,84,96,260766
2.0919,0.3324,39.3500,84,96,260769
2.1408,0.3372,39.2200,84,96,260773
2.1310,0.3275,39.3200,84,96,260776
2.1848,0.3079,39.2200,84,96,260780
2.1603,0.3275,39.2800,84,96,260784
2.1750,0.3226,39.3500,84,96,260787
2.1848,0.3324,39.3500,84,96,260790
2.1848,0.3275,39.3500,84,96,260794
2.2434,0.3324,39.1600,84,96,260797
2.2336,0.3275,39.2800,84,96,260800
2.2141,0.3226,39.3500,84,96,260803
2.2239,0.3372,39.2500,84,96,260807
2.1799,0.3275,39.3500,84,96,260810
2.2434,0.3372,38.7400,84,96,260813
2.2190,0.3275,39.2200,84,96,260817
2.2239,0.3226,39.4100,84,96,260820
2.2336,0.3324,39.3200,84,96,260824
2.2141,0.3275,39.3500,84,96,260828
2.2972,0.3470,39.1200,84,96,260831
2.2190,0.3324,39.3800,84,96,260834
2.2092,0.3226,39.2800,84,96,260838
2.1994,0.3372,39.3500,84,96,260841
2.1799,0.3275,39.3800,84,96,260844
2.2043,0.3421,39.1900,84,96,260848
2.1652,0.3324,39.3200,84,96,260851
2.1848,0.3324,39.2200,84,96,260854
2.1848,0.3275,39.3800,84,96,260857
2.1701,0.3226,39.2500,84,96,260861
2.1896,0.3372,39.2500,84,96,260865
2.1505,0.3275,39.3500,84,96,260868
2.1701,0.3372,39.2200,84,96,260872
2.1750,0.3372,39.3200,84,96,260875
2.1554,0.3079,39.3500,84,96,260878
2.1701,0.3324,39.2200,84,96,260882
2.1457,0.3324,39.3500,84,96,260885
2.1701,0.3324,39.2800,84,96,260888
2.1505,0.3372,39.3500,84,96,260892
2.1652,0.3275,39.4400,84,96,260895
2.2043,0.3421,39.2800,84,96,260898
2.1848,0.3275,39.3500,84,96,260901
2.2239,0.3421,39.0900,84,96,260905
2.1848,0.3324,39.2500,84,96,260909
2.1701,0.3275,39.3500,84,96,260912
2.2092,0.3324,39.3200,84,96,260916
2.2043,0.3275,39.3800,84,96,260919
2.2678,0.3666,39.0600,84,96,260922
2.2239,0.3372,39.2500,84,96,260926
2.2043,0.3226,39.2800,84,96,260929
2.2190,0.3324,39.3200,84,96,260932
2.2385,0.3275,39.3500,84,96,260936
2.3021,0.3421,39.1900,84,96,260939
2.2581,0.3275,39.3200,84,96,260942
2.2483,0.3275,39.2800,84,96,260945
2.2092,0.3324,39.3500,84,96,260950
2.1994,0.3275,39.2800,84,96,260953
2.2092,0.3372,39.3200,84,96,260956
2.1652,0.3275,39.3500,84,96,260960
2.1457,0.3324,39.1900,84,96,260963
2.0283,0.3275,39.4400,84,96,260966
1.8573,0.3275,39.3500,84,96,260970
1.6618,0.3372,39.2200,84,96,260973
1.4027,0.3470,39.3500,84,96,260976
1.2072,0.3275,39.1900,84,96,260980
1.0020,0.3275,39.2200,84,96,260983
0.8407,0.3275,39.3500,84,96,260986
0.7185,0.3372,39.2200,84,96,260990
0.6452,0.3275,39.3500,84,96,260994
0.6158,0.3421,39.0900,84,96,260997
0.5914,0.3275,39.2500,84,96,261000
0.5914,0.3275,39.3500,84,96,261004
0.6158,0.3324,39.2800,84,96,261007
0.6403,0.3275,39.4100,84,96,261010
0.6989,0.3421,39.0300,84,96,261014
0.7429,0.3324,39.2500,84,96,261017
0.7967,0.3226,39.5400,84,96,261020
0.8456,0.3324,39.3500,84,96,261024
0.8847,0.3275,39.4800,84,96,261027
0.9629,0.3470,39.1900,84,96,261030
1.0068,0.3275,39.3200,84,96,261035
1.0704,0.3275,39.2500,84,96,261038
1.1290,0.3372,39.3500,84,96,261041
1.1779,0.3324,39.3500,84,96,261044
1.2512,0.3421,39.1600,84,96,261048
1.2952,0.3324,39.3200,84,96,261051
1.3881,0.3324,39.2500,84,96,261054
1.4467,0.3275,39.3500,84,96,261058
1.5347,0.3275,39.3500,84,96,261061
1.6129,0.3275,39.2500,84,96,261064
1.6667,0.3079,39.4100,84,96,261068
1.7498,0.3617,39.2200,84,96,261071
1.7840,0.3275,39.3800,84,96,261074
1.8475,0.3275,39.3500,84,96,261079
1.9062,0.3324,39.3200,84,96,261082
1.9208,0.3324,39.3200,84,96,261085
1.9795,0.3372,39.1200,84,96,261089
1.9697,0.3275,39.2800,84,96,261092
2.0039,0.3275,39.3500,84,96,261095
2.0577,0.3372,39.2200,84,96,261098
2.0968,0.3275,39.3500,84,96,261102
2.1603,0.3421,39.0900,84,96,261105
2.1603,0.3324,39.1200,84,96,261108
2.1750,0.3372,39.3500,84,96,261112
2.2190,0.3324,39.3200,84,96,261115
2.2190,0.3226,39.3200,84,96,261118
2.2776,0.3470,39.1200,84,96,261123
2.2190,0.3372,39.2800,84,96,261126
2.1945,0.3324,39.2800,84,96,261129
2.1994,0.3324,39.3200,84,96,261133
2.1994,0.3275,39.3200,84,96,261136
2.2532,0.3372,39.1900,84,96,261139
2.1994,0.3324,39.4400,84,96,261142
2.2092,0.3421,39.2200,84,96,261146
2.1896,0.3275,39.3500,84,96,261149
2.1896,0.3372,39.3500,84,96,261152
2.2239,0.3372,39.3200,84,96,261156
2.2092,0.3275,39.3800,84,96,261159
2.2385,0.3372,39.2500,84,96,261163
2.1994,0.3275,39.3500,84,96,261167
2.1994,0.3324,39.4400,84,96,261170
2.2483,0.3372,39.2500,84,96,261173
2.2581,0.3324,39.3500,84,96,261177
2.3118,0.3324,39.1600,84,96,261180
2.3021,0.3421,39.2500,84,96,261183
2.2825,0.3275,39.3500,84,96,261187
2.3118,0.3421,39.2500,84,96,261190
2.2923,0.3275,39.3500,84,96,261193
2.3607,0.3421,39.0600,84,96,261196
2.3265,0.3275,39.2200,84,96,261200
2.3021,0.3275,39.3500,84,96,261203
2.3021,0.3324,39.2800,84,96,261207
2.2825,0.3324,39.3200,84,96,261211
2.3363,0.3470,39.0300,84,96,261214
2.2727,0.3421,39.2800,84,96,261217
2.2336,0.3275,39.2800,84,96,261221
2.1799,0.3568,39.3500,84,96,261224
2.1017,0.3275,39.3500,84,96,261227
2.0870,0.3470,39.2500,84,96,261231
2.0626,0.3324,39.3200,84,96,261234
2.1652,0.3275,39.2200,84,96,261237
2.3069,0.3275,39.3500,84,96,261240
2.4878,0.3275,39.3500,84,96,261244
2.7713,0.3372,39.2500,84,96,261248
2.9228,0.3324,39.3500,84,96,261251
3.0254,0.3421,39.3200,84,96,261255
2.9472,0.3275,39.2800,84,96,261258
2.8543,0.3275,39.3500,84,96,261261
2.7810,0.3324,39.2500,84,96,261265
2.6393,0.3275,39.3500,84,96,261268
2.5464,0.3324,39.1600,84,96,261271
2.4047,0.3324,39.2800,84,96,261275
2.2972,0.3275,39.4100,84,96,261278
2.2239,0.3372,39.2500,84,96,261281
2.1212,0.3275,39.3500,84,96,261285
2.1065,0.3715,39.0900,84,96,261288
2.0283,0.3324,39.2800,84,96,261292
2.0088,0.3275,39.3500,84,96,261295
2.0186,0.3226,39.3200,84,96,261299
1.9990,0.3324,39.3500,84,96,261303
1.9990,0.3324,39.3500,84,96,261307
2.0430,0.3421,39.1200,84,96,261310
2.0137,0.3324,39.3200,84,96,261313
2.0088,0.3324,39.2500,84,96,261317
1.9844,0.3324,39.3500,84,96,261320
2.0186,0.3275,39.3800,84,96,261323
2.0479,0.3372,39.2500,84,96,261327
2.0332,0.3372,39.3200,84,96,261330
2.0919,0.3421,39.2500,84,96,261334
2.0235,0.3275,39.1900,84,96,261338
2.0381,0.3324,39.3800,84,96,261341
2.0674,0.3324,39.2500,84,96,261344
2.0577,0.3275,39.3500,84,96,261347
2.0821,0.3470,39.1600,84,96,261351
2.0479,0.3275,39.4100,84,96,261354
2.0479,0.3372,39.3800,84,96,261357
2.0821,0.3275,39.2800,84,96,261361
2.0674,0.3275,39.3200,84,96,261364
2.1065,0.3324,39.1900,84,96,261367
2.0577,0.3275,39.2800,84,96,261371
2.0137,0.3275,39.2200,84,96,261374
2.0186,0.3372,39.3200,84,96,261378
1.9941,0.3079,39.2800,84,96,261382
2.0479,0.3568,39.0600,84,96,261385
2.0039,0.3372,39.2500,84,96,261388
1.9648,0.3275,39.4100,84,96,261391
1.9453,0.3324,39.3200,84,96,261395
1.9110,0.3079,39.3500,84,96,261398
1.9599,0.3470,39.2200,84,96,261401
1.9159,0.3324,39.3200,84,96,261405
1.9159,0.3275,39.3500,84,96,261408
1.8866,0.3324,39.4400,84,96,261411
1.8671,0.3275,39.3500,84,96,261415
1.8719,0.3275,39.2800,84,96,261419
1.8426,0.3324,39.3500,84,96,261422
1.8573,0.3421,39.2200,84,96,261426
1.8280,0.3275,39.3200,84,96,261429
1.8133,0.3324,39.3500,84,96,261432
1.8426,0.3421,39.2500,84,96,261436
1.8084,0.3324,39.3500,84,96,261439
1.8328,0.3324,39.1900,84,96,261442
1.8328,0.3421,38.9600,84,96,261445
1.8182,0.3275,39.3500,84,96,261449
1.8475,0.3421,39.1900,84,96,261452
1.8035,0.3275,39.4400,84,96,261455
1.8426,0.3372,39.0900,84,96,261459
1.8377,0.3324,39.2500,84,96,261463
1.8622,0.3275,39.3500,84,96,261466
1.9062,0.3324,39.3200,84,96,261470
1.9062,0.3275,39.4400,84,96,261473
1.9795,0.3470,39.0600,84,96,261476
1.9844,0.3421,39.3200,84,96,261480
2.0137,0.3226,39.3800,84,96,261483
2.0626,0.3324,39.3500,84,96,261486
2.0772,0.3568,39.3500,84,96,261490
2.1603,0.3470,39.2200,84,96,261493
2.1359,0.3324,39.3200,84,96,261496
2.1750,0.3324,39.6700,84,96,261499
2.1994,0.3324,39.3800,84,96,261504
2.2385,0.3275,39.4800,84,96,261507
2.3216,0.3421,39.1900,84,96,261510
2.3069,0.3372,39.3500,84,96,261514
2.3803,0.3372,39.2200,84,96,261517
2.3656,0.3275,39.3200,84,96,261520
2.3998,0.3324,39.3800,84,96,261524
2.4585,0.3324,39.2500,84,96,261527
2.4487,0.3324,39.3800,84,96,261530
2.5171,0.3275,39.2200,84,96,261534
2.4682,0.3324,39.2800,84,96,261537
2.4829,0.3372,39.3800,84,96,261540
2.5269,0.3372,39.2200,84,96,261544
2.5220,0.3324,39.3200,84,96,261548
2.5904,0.3275,39.1600,84,96,261551
2.5269,0.3275,39.2500,84,96,261554
2.5269,0.3324,39.3500,84,96,261558
2.5611,0.3421,39.2800,84,96,261561
2.5562,0.3324,39.3500,84,96,261564
2.6344,0.3421,39.0300,84,96,261568
2.5855,0.3324,39.3200,84,96,261571
2.5513,0.3275,39.3500,84,96,261574
2.5660,0.3421,39.3200,84,96,261578
2.5367,0.3275,39.3500,84,96,261581
2.6002,0.3470,39.1600,84,96,261584
2.5464,0.3372,39.3200,84,96,261588
2.5269,0.3324,39.3500,84,96,261592
2.4976,0.3324,39.3200,84,96,261595
2.4878,0.3324,39.3500,84,96,261598
2.5367,0.3421,39.1900,84,96,261602
2.5171,0.3324,39.3500,84,96,261605
2.5269,0.3372,39.1900,84,96,261608
2.5122,0.3324,39.3500,84,96,261612
2.4585,0.3324,39.3500,84,96,261615
2.4829,0.3275,39.2800,84,96,261618
2.4633,0.3324,39.3500,84,96,261622
2.4976,0.3372,39.2200,84,96,261625
2.4487,0.3324,39.4100,84,96,261628
2.4340,0.3275,39.3200,84,96,261633
2.4536,0.3372,39.1900,84,96,261636
2.4291,0.3421,39.3500,84,96,261639
2.4878,0.3372,39.1600,84,96,261643
2.4633,0.3372,39.2200,84,96,261646
2.4585,0.3275,39.3500,84,96,261649
2.4487,0.3372,39.2200,84,96,261653
2.4145,0.3324,39.3500,84,96,261656
2.4682,0.3470,39.0600,84,96,261659
2.4291,0.3421,39.1900,84,96,261662
2.4145,0.3275,39.3500,84,96,261666
2.4194,0.3324,39.3800,84,96,261669
2.3900,0.3275,39.3500,84,96,261672
2.4487,0.3519,39.1900,84,96,261677
2.4194,0.3372,39.2800,84,96,261680
2.3900,0.3324,39.3500,84,96,261683
2.3949,0.3324,39.3800,84,96,261687
2.3998,0.3275,39.3500,84,96,261690
2.4340,0.3421,39.2500,84,96,261693
2.4145,0.3372,39.3200,84,96,261697
2.4242,0.3372,39.4100,84,96,261700
2.4047,0.3275,39.3500,84,96,261703
2.4096,0.3324,39.3500,84,96,261706
2.4438,0.3421,39.1900,84,96,261710
2.3998,0.3275,39.3500,84,96,261713
2.4291,0.3372,39.2200,84,96,261716
2.4047,0.3324,39.2500,84,96,261721
2.4096,0.3324,39.3500,84,96,261724
2.4291,0.3421,39.2200,84,96,261727
2.3900,0.3275,39.3500,84,96,261731
2.3998,0.3324,39.2500,84,96,261734
2.3558,0.3372,39.2800,84,96,261737
2.3460,0.3324,39.3500,84,96,261741
2.3803,0.3421,39.2800,84,96,261744
2.3705,0.3324,39.3500,84,96,261747
2.4340,0.3421,39.0600,84,96,261750
2.3851,0.3324,39.2200,84,96,261754
2.3705,0.3324,39.3500,84,96,261757
2.3949,0.3372,39.3200,84,96,261761
2.4096,0.3324,39.3500,84,96,261765
2.4878,0.3519,39.1900,84,96,261768
2.4438,0.3421,39.2800,84,96,261771
2.4389,0.3324,39.2800,84,96,261775
2.4585,0.3372,39.1900,84,96,261778
2.4682,0.3421,39.3500,84,96,261781
2.5464,0.3421,39.1900,84,96,261785
2.5367,0.3372,39.3200,84,96,261788
2.5073,0.3275,39.2500,84,96,261791
2.4682,0.3324,39.4400,84,96,261794
2.4780,0.3324,39.3500,84,96,261798
2.4780,0.3421,39.2200,84,96,261801
2.4389,0.3324,39.3200,84,96,261805
2.4438,0.3324,39.2200,84,96,261809
2.3998,0.3275,39.0300,84,96,261812
2.3900,0.3372,39.3500,84,96,261815
2.4145,0.3275,39.2500,84,96,261819
2.4145,0.3324,39.4400,84,96,261822
2.4780,0.3372,39.1900,84,96,261825
2.4291,0.3324,39.3500,84,96,261829
2.3998,0.3324,39.3200,84,96,261832
2.3803,0.3372,39.3800,84,96,261835
2.3265,0.3372,39.3200,84,96,261839
2.3705,0.3421,39.1900,84,96,261842
2.3509,0.3372,39.2500,84,96,261846
2.3265,0.3275,39.3500,84,96,261849
2.3216,0.3519,39.3200,84,96,261853
2.2727,0.3324,39.3500,84,96,261856
2.3265,0.3470,39.0300,84,96,261859
2.2972,0.3372,39.2200,84,96,261863
2.2972,0.3275,39.3200,84,96,261866
2.3069,0.3421,39.3200,84,96,261869
2.3069,0.3324,39.3500,84,96,261873
2.3656,0.3470,39.1900,84,96,261876
2.3314,0.3324,39.3200,84,96,261879
2.3558,0.3324,39.2800,84,96,261883
2.3607,0.3324,39.3200,84,96,261886
2.3607,0.3324,39.3500,84,96,261890
2.3851,0.3421,39.3200,84,96,261893
2.3460,0.3372,39.3200,84,96,261897
2.3754,0.3372,39.2200,84,96,261900
2.3558,0.3275,39.3200,84,96,261903
2.3705,0.3324,39.3500,84,96,261907
2.4047,0.3421,39.2800,84,96,261910
2.3900,0.3372,39.2200,84,96,261915
2.3314,0.3372,39.3500,84,96,261918
2.3509,0.3421,39.0900,84,96,261921
2.2630,0.3372,39.2200,84,96,261925
2.2287,0.3275,39.3500,84,96,261928
2.1603,0.3372,39.2500,84,96,261932
2.1163,0.3324,39.4400,84,96,261936
2.1896,0.3470,39.0600,84,96,261939
2.1848,0.3421,39.3200,84,96,261942
2.2190,0.3275,39.3200,84,96,261946
2.3021,0.3421,39.3200,84,96,261949
2.3363,0.3324,39.3500,84,96,261952
2.2972,0.3470,39.3500,84,96,261955
2.0577,0.3275,39.3500,84,96,261959
1.8377,0.3372,39.2500,84,96,261962
1.6276,0.3372,39.3200,84,96,261965
1.4418,0.3324,39.3500,84,96,261969
1.2952,0.3470,39.1900,84,96,261972
1.1095,0.3324,39.3500,84,96,261976
1.0068,0.3421,39.1600,84,96,261980
0.9091,0.3324,39.3200,84,96,261983
0.8065,0.3275,39.3800,84,96,261986
0.7674,0.3372,39.1900,84,96,261990
0.7283,0.3421,39.3800,84,96,261993
0.7331,0.3324,39.1900,84,96,261996
0.7087,0.3372,39.2800,84,96,261999
0.7136,0.3421,39.3500,84,96,262003
0.7283,0.3421,39.4400,84,96,262006
0.7625,0.3372,39.3200,84,96,262009
0.8553,0.3421,39.1200,84,96,262013
0.8407,0.3324,39.2800,84,96,262017
0.8895,0.3324,39.3500,84,96,262020
0.9384,0.3421,39.3200,84,96,262024
0.9824,0.3421,39.3200,84,96,262027
1.0802,0.3470,39.0900,84,96,262030
1.1193,0.3372,39.2500,84,96,262034
1.1584,0.3324,39.4400,84,96,262037
1.1877,0.3372,39.3200,84,96,262040
1.2170,0.3324,39.3500,84,96,262043
1.2903,0.3519,39.1600,84,96,262047
1.3050,0.3421,39.3200,84,96,262050
1.3392,0.3421,39.2500,84,96,262053
1.3685,0.3372,39.3500,84,96,262057
1.3881,0.3324,39.3200,84,96,262061
1.4370,0.3421,39.2200,84,96,262064
1.4418,0.3324,39.3200,84,96,262068
1.4907,0.3372,39.2200,84,96,262071
1.5054,0.3324,39.3500,84,96,262074
1.5249,0.3421,39.4400,84,96,262078
1.5591,0.3324,39.3500,84,96,262081
1.5689,0.3226,39.4400,84,96,262084
1.6276,0.3421,39.2200,84,96,262088
1.6520,0.3324,39.3500,84,96,262091
1.6862,0.3324,39.3500,84,96,262094
1.7253,0.3421,39.2500,84,96,262097
1.7155,0.3372,39.3800,84,96,262102
1.7644,0.3666,39.1200,84,96,262105
1.7840,0.3421,39.2800,84,96,262108
1.8084,0.3324,39.4400,84,96,262112
1.8768,0.3470,39.2500,84,96,262115
1.8817,0.3324,39.3800,84,96,262118
1.9550,0.3421,39.0900,84,96,262122
1.9453,0.3372,39.2200,84,96,262125
1.9648,0.3324,39.3500,84,96,262128
2.0137,0.3372,39.2800,84,96,262132
2.0332,0.3324,39.4100,84,96,262135
2.1065,0.3372,39.1600,84,96,262138
2.0772,0.3421,39.5400,84,96,262142
2.0821,0.3324,39.3200,84,96,262146
2.0968,0.3372,39.3800,84,96,262149
2.1261,0.3421,39.2200,84,96,262152
2.2092,0.3470,39.2800,84,96,262156
2.1554,0.3372,39.3500,84,96,262159
2.1750,0.3666,39.1900,84,96,262162
2.1701,0.3372,39.3800,84,96,262166
2.1945,0.3372,39.3200,84,96,262169
2.2678,0.3275,39.1900,84,96,262172
2.2630,0.3372,39.3800,84,96,262176
2.3118,0.3470,39.2500,84,96,262179
2.2923,0.3372,39.2800,84,96,262182
2.3167,0.3372,39.3800,84,96,262187
2.3656,0.3372,39.2200,84,96,262190
2.3705,0.3372,39.3200,84,96,262193
2.4194,0.3421,39.1600,84,96,262196
2.3900,0.3372,39.2800,84,96,262200
2.3803,0.3324,39.3800,84,96,262203
2.4096,0.3519,39.2500,84,96,262206
2.4047,0.3372,39.3200,84,96,262210
2.4829,0.3421,39.0900,84,96,262213
2.4536,0.3372,39.2800,84,96,262216
2.4536,0.3666,39.3500,84,96,262220
2.4780,0.3421,39.2800,84,96,262223
2.4829,0.3568,39.3500,84,96,262226
2.6149,0.3519,39.0900,84,96,262231
2.5562,0.3421,39.3200,84,96,262234
2.5562,0.3324,39.2800,84,96,262237
2.5758,0.3372,39.3500,84,96,262240
2.5806,0.3372,39.2800,84,96,262244
2.6637,0.3421,39.1900,84,96,262247
2.6540,0.3372,39.3800,84,96,262250
2.6833,0.3666,39.2500,84,96,262254
2.6784,0.3079,39.3200,84,96,262257
2.6784,0.3372,39.3200,84,96,262260
2.7126,0.3421,39.2200,84,96,262264
2.6735,0.3372,39.3500,84,96,262267
2.7224,0.3372,39.1900,84,96,262270
2.6637,0.3324,39.3200,84,96,262275
2.6540,0.3324,39.3500,84,96,262278
2.6540,0.3372,39.2500,84,96,262281
2.6197,0.3372,39.3200,84,96,262285
2.6491,0.3324,39.1900,84,96,262288
2.6197,0.3372,39.3800,84,96,262291
2.6588,0.3372,39.4400,84,96,262294
2.6491,0.3421,39.2200,84,96,262298
2.6051,0.3421,39.3500,84,96,262301
2.6588,0.3470,39.1600,84,96,262304
2.6393,0.3421,39.3500,84,96,262308
2.6295,0.3324,39.3500,84,96,262311
2.6588,0.3421,39.2800,84,96,262315
2.6295,0.3324,39.3800,84,96,262319
2.6882,0.3470,39.0600,84,96,262322
2.6295,0.3666,39.1900,84,96,262325
2.6149,0.3324,39.3200,84,96,262329
2.6197,0.3372,39.1600,84,96,262332
2.6393,0.3372,39.3500,84,96,262335
2.6735,0.3568,39.1900,84,96,262338
2.6051,0.3372,39.3200,84,96,262342
2.6002,0.3324,39.2800,84,96,262345
2.5904,0.3372,39.3200,84,96,262348
2.5953,0.3324,39.3500,84,96,262352
2.6393,0.3470,39.2500,84,96,262355
2.5953,0.3372,38.7100,84,96,262359
2.5953,0.3324,39.2500,84,96,262363
2.5415,0.3372,39.2200,84,96,262366
2.5269,0.3324,39.3500,84,96,262369
2.5660,0.3470,39.2800,84,96,262373
2.5513,0.3421,39.3500,84,96,262376
2.5367,0.3372,39.2200,84,96,262379
2.4976,0.3372,39.2500,84,96,262383
2.4829,0.3372,39.3500,84,96,262386
2.5122,0.3470,39.1900,84,96,262389
2.4927,0.3275,39.3500,84,96,262392
2.5415,0.3421,39.1600,84,96,262396
2.4976,0.3421,39.2800,84,96,262400
2.4682,0.3372,39.3500,84,96,262403
2.4780,0.3715,39.2500,84,96,262407
2.4585,0.3275,39.3500,84,96,262410
2.5122,0.3519,39.1600,84,96,262413
2.4585,0.3421,39.2200,84,96,262417
2.4242,0.3324,39.7300,84,96,262420
2.4145,0.3372,39.3500,84,96,262423
2.3998,0.3372,39.3800,84,96,262427
2.4731,0.3617,39.1600,84,96,262430
2.4340,0.3421,39.3200,84,96,262433
2.4389,0.3372,39.2800,84,96,262437
2.4242,0.3372,39.3500,84,96,262440
2.4145,0.3617,39.3500,84,96,262444
2.4731,0.3519,39.1900,84,96,262447
2.4487,0.3470,39.3200,84,96,262451
2.5024,0.3421,39.2200,84,96,262454
2.4487,0.3372,39.3200,84,96,262457
2.4438,0.3372,39.3200,84,96,262461
2.4829,0.3470,39.2800,84,96,262464
2.4633,0.3372,39.3200,84,96,262467
2.5122,0.3470,39.2200,84,96,262471
2.4927,0.3372,39.2800,84,96,262474
2.4976,0.3372,39.2500,84,96,262477
2.5171,0.3372,39.2500,84,96,262481
2.5024,0.3372,39.3500,84,96,262484
2.5611,0.3519,39.1900,84,96,262488
2.5562,0.3324,39.3200,84,96,262491
2.5855,0.3519,39.3500,84,96,262495
2.6295,0.3470,39.2800,84,96,262498
2.5953,0.3372,39.3500,84,96,262501
2.6882,0.3519,39.0900,84,96,262505
2.6393,0.3421,39.2800,84,96,262508
2.6393,0.3372,39.3500,84,96,262511
2.6686,0.3421,39.3500,84,96,262515
2.6393,0.3372,39.4100,84,96,262518
2.6979,0.3568,39.1200,85,96,262521
2.6931,0.3470,39.2500,85,96,262526
2.6246,0.3372,39.3200,85,96,262530
2.6051,0.3421,39.1900,85,96,262534
2.5367,0.3372,39.3500,85,96,262537
2.5073,0.3372,39.3800,85,96,262540
2.4927,0.3421,39.3200,85,96,262544
2.4389,0.3372,39.4400,85,96,262547
2.4242,0.3617,39.2500,85,96,262550
2.3509,0.3372,39.3500,85,96,262553
2.3265,0.3372,39.3200,85,96,262557
2.3363,0.3470,39.2500,85,96,262560
2.2923,0.3421,39.3500,85,96,262563
2.3069,0.3275,39.1600,85,96,262567
2.2678,0.3421,39.4400,85,96,262571
2.2483,0.3861,39.3500,85,96,262574
2.2972,0.3470,39.2800,85,96,262578
2.2972,0.3421,38.7700,85,96,262581
2.3705,0.3519,39.1200,85,96,262584
2.3363,0.3421,39.1900,85,96,262588
2.3118,0.3324,39.3800,85,96,262591
2.3314,0.3421,39.3200,85,96,262594
2.3412,0.3666,39.3200,85,96,262598
2.4291,0.3568,39.1600,85,96,262601
2.3949,0.3421,39.2800,85,96,262604
2.3900,0.3421,39.2500,85,96,262607
2.3998,0.3421,39.3500,85,96,262611
2.4194,0.3470,39.3500,85,96,262615
2.5171,0.3470,39.2500,85,96,262618
2.4731,0.3372,39.2500,85,96,262622
2.4976,0.3421,39.2200,85,96,262625
2.4536,0.3372,39.3200,85,96,262628
2.4438,0.3275,39.3500,85,96,262632
2.4389,0.3519,39.2200,85,96,262635
2.3851,0.3372,39.3200,85,96,262638
2.3705,0.3421,39.2500,85,96,262642
2.3167,0.3372,39.2500,85,96,262645
2.3363,0.3372,39.3500,85,96,262648
2.4731,0.3568,39.2500,85,96,262651
2.6393,0.3421,39.3500,85,96,262656
2.9668,0.3470,39.1600,85,96,262659
3.2258,0.3275,39.2800,85,96,262662
3.3284,0.3372,39.3500,85,96,262666
3.3480,0.3470,39.4800,85,96,262669
3.2209,0.3421,39.3500,85,96,262672
3.2307,0.3568,39.0900,85,96,262676
3.1036,0.3372,39.3200,85,96,262679
3.0010,0.3421,39.3800,85,96,262682
2.9081,0.3372,39.3500,85,96,262686
2.7957,0.3421,39.2200,85,96,262689
2.8299,0.3568,39.0900,85,96,262692
2.6784,0.3470,39.3200,85,96,262695
2.6246,0.3372,39.3500,85,96,262700
2.5953,0.3372,39.3200,85,96,262703
2.5513,0.3372,39.3200,85,96,262706
2.5806,0.3519,39.1900,85,96,262710
2.5269,0.3421,39.3800,85,96,262713
2.5415,0.3421,39.2200,85,96,262716
2.5367,0.3372,39.3500,85,96,262720
2.5367,0.3324,39.3200,85,96,262723
2.5611,0.3470,39.2200,85,96,262726
2.5073,0.3372,39.3200,85,96,262730
2.5220,0.3519,39.2200,85,96,262733
2.4927,0.3372,39.3500,85,96,262736
2.5024,0.3421,39.4400,85,96,262740
2.5171,0.3421,39.2500,85,96,262744
2.4878,0.3470,39.3800,85,96,262747
2.5269,0.3421,39.1900,85,96,262750
2.4976,0.3421,39.3800,85,96,262754
2.5269,0.3470,39.4400,85,96,262757
2.5806,0.3470,39.3500,85,96,262760
2.5709,0.3421,39.3500,85,96,262764
2.6344,0.3519,39.1200,85,96,262767
2.6051,0.3470,39.3500,85,96,262770
2.6002,0.3372,39.3500,85,96,262774
2.6540,0.3470,39.2800,85,96,262777
2.6540,0.3372,39.3800,85,96,262780
2.7468,0.3470,39.0300,85,96,262784
2.7224,0.3275,39.2200,85,96,262788
2.7028,0.3324,39.3800,85,96,262791
2.7224,0.3372,39.3200,85,96,262794
2.7370,0.3372,39.3500,85,96,262798
2.8250,0.3568,39.1600,85,96,262801
2.7664,0.3421,39.2800,85,96,262804
2.7419,0.3372,39.2500,85,96,262808
2.7028,0.3470,39.3800,85,96,262811
2.6931,0.3421,39.3200,85,96,262814
2.7322,0.3470,39.2800,85,96,262818
2.7273,0.3421,39.3500,85,96,262821
2.7126,0.3421,38.6500,85,96,262824
2.6686,0.3372,39.3500,85,96,262829
2.6295,0.3372,39.3500,85,96,262832
2.6491,0.3861,39.2200,85,96,262835
2.6051,0.3421,39.3500,85,96,262838
2.6246,0.3421,39.2800,85,96,262842
2.5758,0.3421,39.2500,85,96,262845
2.5367,0.3372,39.3500,85,96,262848
2.5367,0.3470,39.1900,85,96,262852
2.5073,0.3421,39.3800,85,96,262855
2.5513,0.3470,39.1600,85,96,262858
2.5171,0.3421,39.2800,85,96,262862
2.4878,0.3372,39.3500,85,96,262865
2.4976,0.3519,39.2800,85,96,262868
2.4389,0.3372,39.3500,85,96,262873
2.4829,0.3470,39.0900,85,96,262876
2.4291,0.3275,39.2500,85,96,262879
2.4242,0.3372,39.3500,85,96,262882
2.4194,0.3470,39.3200,85,96,262886
2.3900,0.3372,39.3500,85,96,262889
2.4340,0.3617,39.1200,85,96,262892
2.3851,0.3470,39.3500,85,96,262896
2.3656,0.3372,39.2800,85,96,262899
2.3607,0.3421,39.3200,85,96,262902
2.3509,0.3372,39.3800,85,96,262906
2.3656,0.3519,39.2200,85,96,262909
2.3314,0.3372,39.3800,85,96,262913
2.3460,0.3421,39.2200,85,96,262917
2.3412,0.3421,39.3200,85,96,262920
2.3509,0.3372,39.3500,85,96,262923
2.3803,0.3470,39.2200,85,96,262926
2.3558,0.3421,39.3500,85,96,262930
2.4096,0.3519,39.2200,85,96,262933
2.3949,0.3372,39.3500,85,96,262936
2.4242,0.3372,39.3500,85,96,262940
2.4585,0.3421,39.2500,85,96,262943
2.4487,0.3372,39.3800,85,96,262946
2.4878,0.3372,39.1900,85,96,262950
2.4438,0.3421,39.2200,85,96,262953
2.4633,0.3372,39.3500,85,96,262957
2.5122,0.3470,39.3200,85,96,262961
2.4878,0.3372,39.3500,85,96,262964
2.5415,0.3519,39.1200,85,96,262967
2.5024,0.3470,39.2200,85,96,262970
2.4829,0.3470,39.3200,85,96,262974
2.5122,0.3470,39.2800,85,96,262977
2.5024,0.3372,39.3200,85,96,262980
2.5709,0.3519,39.0600,85,96,262984
2.5122,0.3617,39.2200,85,96,262987
2.4633,0.3372,39.3200,85,96,262990
2.4585,0.3421,39.3200,85,96,262994
2.4438,0.3421,39.3500,85,96,262998
2.5269,0.3568,38.8700,85,96,263001
2.4829,0.3470,39.3200,85,96,263005
2.4976,0.3421,39.2500,85,96,263008
2.4780,0.3421,39.3500,85,96,263011
2.4927,0.3421,39.4400,85,96,263014
2.5367,0.3470,39.2500,85,96,263018
2.5122,0.3421,39.3500,85,96,263021
2.5367,0.3470,39.1900,85,96,263024
2.4976,0.3421,39.3500,85,96,263028
2.4976,0.3372,39.3500,85,96,263031
2.5464,0.3666,39.2200,85,96,263034
2.5367,0.3421,39.4400,85,96,263038
2.5855,0.3421,39.1900,85,96,263042
2.5611,0.3421,39.2500,85,96,263045
2.5269,0.3372,39.3500,85,96,263049
2.5464,0.3470,39.1900,85,96,263052
2.5073,0.3421,39.4100,85,96,263055
2.5562,0.3470,39.1900,85,96,263059
2.5269,0.3372,38.4600,85,96,263062
2.5171,0.3617,39.3800,85,96,263065
2.5464,0.3470,39.2800,85,96,263069
2.5269,0.3421,39.3500,85,96,263072
2.6197,0.3715,39.1200,85,96,263075
2.6100,0.3421,39.2500,85,96,263078
2.6246,0.3421,39.3200,85,96,263083
2.6588,0.3519,39.3200,85,96,263086
2.6393,0.3666,39.3500,85,96,263089
2.7077,0.3617,39.1900,85,96,263093
2.6686,0.3470,39.2800,85,96,263096
2.6784,0.3519,39.3200,85,96,263099
2.6784,0.3421,39.4100,85,96,263103
2.6686,0.3812,39.3500,85,96,263106
2.7126,0.3470,39.1900,85,96,263109
2.6588,0.3372,39.3200,85,96,263113
2.6735,0.3470,39.1900,85,96,263116
2.6442,0.3421,38.6500,85,96,263119
2.6344,0.3372,39.3800,85,96,263122
2.6540,0.3470,39.2500,85,96,263127
2.6002,0.3421,39.3200,85,96,263130
2.6051,0.3470,39.2500,85,96,263133
2.5855,0.3470,39.1200,85,96,263137
2.4682,0.3372,39.2800,85,96,263141
2.4682,0.3421,39.3800,85,96,263145
2.5073,0.3470,39.3200,85,96,263148
2.4487,0.3372,39.4100,85,96,263151
2.4927,0.3519,39.0600,85,96,263155
2.4194,0.3470,39.2500,85,96,263158
2.3803,0.3372,39.3200,85,96,263161
2.3851,0.3470,39.3200,85,96,263164
2.3656,0.3372,39.5700,85,96,263169
2.4096,0.3812,39.1200,85,96,263172
2.3216,0.3470,39.2800,85,96,263175
2.2776,0.3421,39.2500,85,96,263179
2.2630,0.3421,39.3500,85,96,263182
2.2630,0.3421,39.3500,85,96,263185
2.3069,0.3568,39.1900,85,96,263189
2.2776,0.3421,39.3200,85,96,263192
2.2776,0.3470,39.2200,85,96,263195
2.2287,0.3275,39.3500,85,96,263199
2.2141,0.3421,39.3200,85,96,263202
2.2434,0.3421,39.2800,85,96,263205
2.2385,0.3421,39.2800,85,96,263209
2.2776,0.3470,39.3200,85,96,263213
2.2336,0.3421,39.3500,85,96,263216
2.2239,0.3421,39.3500,85,96,263219
2.2581,0.3470,39.2200,85,96,263223
2.2532,0.3763,39.3200,85,96,263226
2.3167,0.3470,39.1600,85,96,263229
2.3118,0.3470,39.1600,85,96,263233
2.3021,0.3470,39.3500,85,96,263236
2.3412,0.3519,39.2500,85,96,263239
2.3069,0.3421,39.3200,85,96,263243
2.3607,0.3470,39.0900,85,96,263246
2.2874,0.3470,38.4300,85,96,263249
2.2336,0.3372,39.3500,85,96,263254
2.1994,0.3470,39.3200,85,96,263257
2.1408,0.3421,39.3500,85,96,263260
2.1799,0.3763,39.1200,85,96,263263
2.1408,0.3470,39.2800,85,96,263267
2.1261,0.3372,39.3200,85,96,263270
2.1261,0.3421,39.3200,85,96,263273
2.0919,0.3666,39.3500,85,96,263277
2.1114,0.3470,39.2200,85,96,263280
2.0577,0.3470,39.2800,85,96,263283
2.0626,0.3666,39.2500,85,96,263287
2.0332,0.3421,39.3200,85,96,263290
2.0137,0.3421,39.3800,85,96,263293
2.0235,0.3519,39.1600,85,96,263298
1.9990,0.3421,39.3800,85,96,263301
2.0528,0.3568,39.2200,85,96,263304
1.9941,0.3372,39.2800,85,96,263307
1.9697,0.3372,39.2500,85,96,263311
1.9550,0.3421,39.1900,85,96,263314
1.9110,0.3421,39.4100,85,96,263317
1.9208,0.3421,39.1900,85,96,263321
1.9062,0.3421,39.2800,85,96,263324
1.9208,0.3666,39.3500,85,96,263327
1.9550,0.3470,39.2500,85,96,263331
1.9306,0.3421,39.3500,85,96,263334
1.9550,0.3519,39.0900,85,96,263337
1.8915,0.3421,39.2800,85,96,263342
1.8817,0.3421,39.3800,85,96,263345
1.8817,0.3519,39.3200,85,96,263348
1.8280,0.3715,39.3200,85,96,263352
1.8182,0.3470,39.0600,85,96,263355
1.7351,0.3519,39.2800,85,96,263358
1.7253,0.3421,39.3200,85,96,263361
1.8133,0.3421,39.4400,85,96,263365
1.9648,0.3421,39.3200,85,96,263368
2.2434,0.3470,39.1600,85,96,263371
2.4682,0.3519,39.2800,85,96,263375
2.6246,0.3275,39.2500,85,96,263378
2.6491,0.3421,39.4100,85,96,263382
2.5953,0.3372,39.3500,85,96,263386
2.5611,0.3470,39.2800,85,96,263389
2.4585,0.3421,39.3200,85,96,263392
2.4047,0.3421,39.1900,85,96,263396
2.2727,0.3421,39.3200,85,96,263399
2.1848,0.3421,39.3800,85,96,263402
2.1261,0.3421,39.2200,85,96,263406
2.0626,0.3275,39.3800,85,96,263409
2.0479,0.3421,39.2200,85,96,263412
1.9892,0.3372,39.3800,85,96,263415
1.9501,0.3421,39.4100,85,96,263419
1.9746,0.3421,39.2500,85,96,263422
1.9795,0.3421,39.5100,85,96,263426
2.0381,0.3421,39.1200,85,96,263430
2.0088,0.3470,39.2800,85,96,263433
1.9990,0.3421,39.4100,85,96,263436
2.0332,0.3519,39.3200,85,96,263440
2.0235,0.3421,39.3500,85,96,263443
2.1065,0.3568,39.0900,85,96,263446
2.0919,0.3470,39.2200,85,96,263450
2.0674,0.3372,39.3800,85,96,263453
2.0674,0.3372,39.3200,85,96,263456
2.0528,0.3421,39.3500,85,96,263459
2.1163,0.3617,39.2500,85,96,263463
2.0821,0.3470,39.3200,85,96,263467
2.0919,0.3372,39.2800,85,96,263470
2.0870,0.3421,39.4100,85,96,263474
2.0968,0.3519,39.3200,85,96,263477
2.1457,0.3568,39.2500,85,96,263480
2.1261,0.3421,39.3800,85,96,263484
2.1652,0.3421,39.2200,85,96,263487
2.1408,0.3519,39.3500,85,96,263490
2.1359,0.3421,39.3500,85,96,263494
2.1701,0.3568,39.1600,85,96,263497
2.1359,0.3421,39.3200,85,96,263500
2.1554,0.3470,39.1600,85,96,263503
2.1212,0.3372,39.3200,85,96,263507
2.1065,0.3372,39.3500,85,96,263511
2.1065,0.3519,39.1900,85,96,263514
2.0723,0.3421,39.3500,85,96,263518
2.1017,0.3470,39.2800,85,96,263521
2.0919,0.3421,39.2800,85,96,263524
2.0919,0.3372,39.3500,85,96,263528
2.1163,0.3470,39.2800,85,96,263531
2.0821,0.3372,39.4400,85,96,263534
2.1163,0.3519,39.0900,85,96,263538
2.0723,0.3421,39.2500,85,96,263541
2.0674,0.3421,39.3800,85,96,263544
2.0870,0.3421,39.3200,85,96,263547
2.1017,0.3470,39.3200,85,96,263552
2.1505,0.3617,39.1200,85,96,263555
2.1017,0.3470,39.2500,85,96,263558
2.1017,0.3421,39.3200,85,96,263562
2.1163,0.3421,39.4100,85,96,263565
2.1212,0.3812,39.3200,85,96,263568
2.1652,0.3519,39.1600,85,96,263572
2.1163,0.3470,39.3200,85,96,263575
2.1114,0.3470,39.2200,85,96,263578
2.0821,0.3421,39.3500,85,96,263582
2.0870,0.3470,39.3500,85,96,263585
2.1261,0.3470,39.2200,85,96,263588
2.1017,0.3421,39.3500,85,96,263591
2.1359,0.3470,39.1900,85,96,263596
2.1505,0.3275,39.3200,85,96,263599
2.2239,0.3421,39.5400,85,96,263602
2.3314,0.3519,39.2500,85,96,263606
2.3900,0.3421,39.3500,85,96,263609
2.4878,0.3421,39.1200,85,96,263612
2.5024,0.3421,39.3500,85,96,263616
2.5464,0.3421,39.3800,85,96,263619
2.6246,0.3519,39.2500,85,96,263622
2.6344,0.3421,39.4400,85,96,263626
2.7224,0.3519,39.0900,85,96,263629
2.7175,0.3470,39.2500,85,96,263632
2.7077,0.3421,39.3800,85,96,263635
2.7566,0.3519,39.2800,85,96,263640
2.7468,0.3421,39.3500,85,96,263643
2.8446,0.3568,39.1200,85,96,263646
2.8250,0.3519,39.2500,85,96,263650
2.8055,0.3372,39.3500,85,96,263653
2.8006,0.3568,39.3200,85,96,263656
2.7761,0.3421,39.3800,85,96,263660
2.8592,0.3617,39.1200,85,96,263663
2.8055,0.3470,39.2800,85,96,263666
2.8006,0.3421,39.2500,85,96,263670
2.7957,0.3324,39.3500,85,96,263673
2.7957,0.3421,39.3800,85,96,263676
2.8495,0.3568,39.2800,85,96,263680
2.8250,0.3519,39.3200,85,96,263684
2.8690,0.3470,39.2200,85,96,263687
2.8446,0.3421,39.3500,85,96,263690
2.8397,0.3421,39.3800,85,96,263694
2.8641,0.3519,39.1600,85,96,263697
2.8104,0.3470,39.3500,85,96,263700
2.8397,0.3519,39.2500,85,96,263704
2.8006,0.3812,39.2500,85,96,263707
2.7859,0.3421,39.3500,85,96,263710
2.7810,0.3470,38.7700,85,96,263714
2.7224,0.3421,39.2200,85,96,263717
2.7322,0.3568,39.1600,85,96,263720
2.6979,0.3470,39.4100,85,96,263724
2.6784,0.3470,39.3500,85,96,263728
2.7028,0.3519,39.2500,85,96,263731
2.6442,0.3421,39.3500,85,96,263734
2.6686,0.3519,39.1200,85,96,263738
2.5953,0.3421,39.2500,85,96,263741
2.5758,0.3324,39.3500,85,96,263744
2.5806,0.3470,39.3200,85,96,263748
2.5367,0.3421,39.3500,85,96,263752
2.5367,0.3421,39.3500,85,96,263756
2.5660,0.3519,39.1900,85,96,263759
2.5024,0.3421,39.3500,85,96,263762
2.4927,0.3519,39.2200,85,96,263767
2.4536,0.3470,39.3500,85,96,263770
2.4438,0.3421,39.3500,85,96,263773
2.4731,0.3470,39.2800,85,96,263777
2.4194,0.3421,38.5800,85,96,263780
2.4242,0.3519,39.2500,85,96,263783
2.3656,0.3421,39.2800,85,96,263786
2.3754,0.3421,39.4400,85,96,263790
2.4340,0.3568,39.2500,85,96,263793
2.4194,0.3421,39.3200,85,96,263796
2.4536,0.3470,39.1200,85,96,263800
2.3998,0.3372,39.3200,85,96,263803
2.3754,0.3421,39.4800,85,96,263806
2.3900,0.3470,39.2800,85,96,263811
2.3705,0.3421,39.5400,85,96,263814
2.4291,0.3617,39.0900,85,96,263817
2.3851,0.3470,39.2500,85,96,263821
2.3363,0.3421,39.4100,85,96,263824
2.3265,0.3519,39.2800,85,96,263827
2.3021,0.3421,39.3500,85,96,263830
2.3705,0.3666,39.0900,85,96,263834
2.3265,0.3470,39.2500,85,96,263837
2.2825,0.3372,39.4800,85,96,263840
2.2825,0.3372,39.3200,85,96,263844
2.2434,0.3421,39.4100,85,96,263847
2.2923,0.3568,39.1900,85,96,263851
2.2727,0.3470,39.3200,85,96,263855
2.2923,0.3470,39.2200,85,96,263858
2.2874,0.3275,39.3500,85,96,263861
2.2483,0.3421,39.3800,85,96,263865
2.2678,0.3470,39.2800,85,96,263868
2.2678,0.3470,39.3200,85,96,263871
2.3167,0.3470,39.2200,85,96,263874
2.2972,0.3421,39.3500,85,96,263878
2.2923,0.3421,39.3500,85,96,263881
2.3265,0.3617,39.2200,85,96,263884
2.2825,0.3421,39.3500,85,96,263888
2.3265,0.3519,39.1900,85,96,263891
2.3363,0.3470,39.3200,85,96,263895
2.3363,0.3421,39.3500,85,96,263899
2.3803,0.3568,39.2800,85,96,263902
2.3509,0.3421,39.3800,85,96,263905
2.4291,0.3519,39.1600,85,96,263909
2.3851,0.3470,39.2200,85,96,263912
2.3998,0.3421,39.3800,85,96,263915
2.3998,0.3470,39.3200,85,96,263919
2.3607,0.3910,39.3200,85,96,263922
2.3998,0.3568,39.0600,85,96,263925
2.3460,0.3519,39.2500,85,96,263928
2.3265,0.3666,39.3200,85,96,263932
2.3412,0.3470,39.3500,85,96,263936
2.3363,0.3568,39.3500,85,96,263939
2.3998,0.3617,39.1600,85,96,263943
2.3607,0.3470,39.2800,85,96,263946
2.3851,0.3421,39.2800,85,96,263949
2.3998,0.3470,39.3200,85,96,263953
2.4047,0.3421,39.4400,85,96,263956
2.4340,0.3617,39.1900,85,96,263959
2.3656,0.3470,39.5100,85,96,263963
2.3558,0.3421,39.1900,85,96,263966
2.3069,0.3421,39.3500,85,96,263969
2.3021,0.3421,39.3800,85,96,263972
2.3265,0.3519,39.2500,85,96,263976
2.2776,0.3421,39.2800,85,96,263980
2.2874,0.3421,39.2200,85,96,263983
2.2385,0.3421,39.2800,85,96,263987
2.2336,0.3421,39.3500,85,96,263990
2.2581,0.3470,39.2800,85,96,263993
2.2385,0.3421,39.3200,85,96,263997
2.2727,0.3470,39.1600,85,96,264000
2.2043,0.3421,39.3200,85,96,264003
2.2190,0.3421,39.4400,85,96,264007
2.1994,0.3470,39.2800,85,96,264010
2.1750,0.3421,39.3500,85,96,264013
2.2483,0.3568,39.0900,85,96,264016
2.1750,0.3470,39.2500,85,96,264020
2.1359,0.3421,39.3500,85,96,264024
2.1261,0.3519,39.2800,85,96,264027
2.1114,0.3421,39.3500,85,96,264031
2.1799,0.3666,39.0900,85,96,264034
2.1505,0.3568,39.2500,85,96,264037
2.1310,0.3421,39.3500,85,96,264041
2.1163,0.3470,39.3200,85,96,264044
2.0968,0.3421,39.3200,85,96,264047
2.1310,0.3568,39.0600,85,96,264051
2.0870,0.3519,39.3200,85,96,264054
2.0723,0.3372,39.2200,85,96,264057
2.0283,0.3421,39.3200,85,96,264060
1.9795,0.3470,39.3500,85,96,264065
1.9306,0.3519,39.3200,85,96,264068
1.8768,0.3519,39.3800,85,96,264071
1.9501,0.3519,39.1900,85,96,264075
1.9648,0.3421,39.3200,85,96,264078
2.1065,0.3421,39.3500,85,96,264081
2.3558,0.3519,39.2200,85,96,264085
2.5806,0.3470,39.3500,85,96,264088
2.7810,0.3470,39.1600,85,96,264091
2.8104,0.3470,39.5700,85,96,264095
2.7322,0.3763,39.3500,85,96,264098
2.6735,0.3568,39.4800,85,96,264101
2.5464,0.3421,39.3500,85,96,264104
2.4829,0.3568,39.0900,85,96,264109
2.3216,0.3519,39.2500,85,96,264112
2.2092,0.3421,39.3200,85,96,264115
2.1310,0.3470,39.3200,85,96,264119
2.0381,0.3421,39.3500,85,96,264122
2.0381,0.3568,39.0600,85,96,264125
1.9355,0.3519,39.2500,85,96,264129
1.9062,0.3372,39.3500,85,96,264132
1.9110,0.3470,39.4100,85,96,264135
1.9257,0.3372,39.3500,85,96,264139
1.9599,0.3568,39.2200,85,96,264142
1.9159,0.3470,39.3200,85,96,264145
1.9257,0.3470,39.2200,85,96,264148
1.9355,0.3812,39.3200,85,96,264153
1.9599,0.3421,39.3200,85,96,264156
2.0088,0.3519,39.2200,85,96,264159
1.9844,0.3470,39.3200,85,96,264163
1.9990,0.3470,39.3800,85,96,264166
1.9844,0.3470,39.2800,85,96,264169
2.0039,0.3275,39.3500,85,96,264173
2.0430,0.3519,39.2800,85,96,264176
2.0137,0.3421,39.3800,85,96,264179
2.0479,0.3519,39.2200,85,96,264183
1.9844,0.3470,39.3200,85,96,264186
1.9795,0.3372,39.3500,85,96,264189
2.0039,0.3519,39.2200,85,96,264193
1.9892,0.3421,39.3500,85,96,264197
2.0235,0.3519,39.1600,85,96,264200
1.9844,0.3372,39.4100,85,96,264203
1.9892,0.3372,39.3500,85,96,264207
2.0186,0.3519,39.2800,85,96,264210
2.0235,0.3519,39.3800,85,96,264213
2.1065,0.3519,39.0900,85,96,264217
2.0577,0.3470,39.2800,85,96,264220
2.0381,0.3421,39.3800,85,96,264223
2.0479,0.3519,39.2800,85,96,264227
2.0430,0.3519,39.3500,85,96,264230
2.1163,0.3666,39.3200,85,96,264233
2.0919,0.3470,39.2800,85,96,264237
2.0723,0.3421,39.3200,85,96,264241
2.0674,0.3519,39.3800,85,96,264244
2.0674,0.3421,39.3500,85,96,264247
2.1359,0.3568,39.1900,85,96,264251
2.1163,0.3470,39.3200,85,96,264254
2.1359,0.3470,39.2200,85,96,264257
2.1114,0.3470,39.4100,85,96,264261
2.1310,0.3421,39.3500,85,96,264264
2.1212,0.3519,39.2800,85,96,264267
2.1114,0.3519,39.3500,85,96,264270
2.1603,0.3568,39.1900,85,96,264274
2.1408,0.3470,39.3200,85,96,264278
2.1408,0.3421,39.3200,85,96,264281
2.1554,0.3519,39.3500,85,96,264285
2.1212,0.3470,39.3500,85,96,264288
2.1505,0.3470,39.1200,85,96,264291
2.1505,0.3519,39.1900,85,96,264295
2.1457,0.3372,39.4400,85,96,264298
2.1652,0.3519,39.1900,85,96,264301
2.1408,0.3421,39.3800,85,96,264305
2.1457,0.3519,39.1200,85,96,264308
2.1163,0.3275,39.2200,85,96,264311
2.1065,0.3421,39.3800,85,96,264315
2.1261,0.3763,39.2800,85,96,264318
2.0968,0.3421,39.3500,85,96,264322
2.1505,0.3568,39.0900,85,96,264325
2.1163,0.3617,39.2800,85,96,264329
2.1310,0.3421,39.3200,85,96,264332
2.1505,0.3470,39.3500,85,96,264335
2.1505,0.3421,39.3500,85,96,264339
2.2190,0.3617,39.1200,85,96,264342
2.1799,0.3617,39.3200,85,96,264345
2.1994,0.3519,39.2500,85,96,264349
2.2239,0.3421,39.3500,85,96,264352
2.2483,0.3421,39.3500,85,96,264355
2.3118,0.3666,39.2500,85,96,264359
2.3803,0.3372,39.2500,85,96,264364
2.3803,0.3421,39.3500,85,96,264368
2.4096,0.3470,39.2500,85,96,264371
2.3803,0.3568,39.2800,85,96,264374
2.3754,0.3470,39.3800,85,96,264378
2.4047,0.3568,39.2200,85,96,264381
2.3900,0.3470,39.3500,85,96,264384
2.4438,0.3568,39.0900,85,96,264387
2.3754,0.3421,39.2200,85,96,264391
2.3558,0.3421,39.3500,85,96,264394
2.3754,0.3470,39.3800,85,96,264397
2.3656,0.3421,39.3500,85,96,264401
2.4340,0.3568,39.0600,85,96,264404
2.3851,0.3519,38.5200,85,96,264408
2.3558,0.3617,39.3200,85,96,264412
2.3558,0.3470,39.5700,85,96,264415
2.3509,0.3812,39.3500,85,96,264418
2.4242,0.3519,39.1900,85,96,264421
2.3851,0.3470,39.3500,85,96,264425
2.3705,0.3470,39.2200,85,96,264428
2.3412,0.3372,39.3200,85,96,264431
2.3216,0.3421,39.4400,85,96,264435
2.3656,0.3519,39.2200,85,96,264438
2.3363,0.3470,39.3500,85,96,264441
2.3607,0.3470,39.2500,85,96,264445
2.3412,0.3275,39.3500,85,96,264449
2.3118,0.3421,39.5400,85,96,264452
2.3118,0.3470,39.2800,85,96,264456
2.2923,0.3470,39.3200,85,96,264459
2.3216,0.3470,39.2800,85,96,264462
2.2874,0.3421,39.3500,85,96,264465
2.2727,0.3421,39.4100,85,96,264469
2.2874,0.3519,39.2200,85,96,264472
2.2483,0.3470,39.5400,85,96,264475
2.2874,0.3470,39.1900,85,96,264479
2.2776,0.3470,39.2200,85,96,264482
2.2532,0.3421,39.3500,85,96,264485
2.2630,0.3519,39.2800,85,96,264489
2.2092,0.3421,39.4100,85,96,264493
2.2532,0.3910,39.0600,85,96,264496
2.2239,0.3470,39.2200,85,96,264500
2.2239,0.3470,39.3500,85,96,264503
2.2385,0.3421,39.3500,85,96,264506
2.2141,0.3470,39.3800,85,96,264509
2.2678,0.3666,39.1200,85,96,264513
2.2336,0.3519,38.8400,85,96,264516
2.2385,0.3519,39.2800,85,96,264519
2.2581,0.3470,39.3500,85,96,264523
2.2678,0.3421,39.3200,85,96,264526
2.2972,0.3568,39.2200,85,96,264529
2.2581,0.3470,39.3500,85,96,264534
2.2630,0.3470,39.2500,85,96,264537
2.2434,0.3275,39.3500,85,96,264540
2.2434,0.3470,39.4100,85,96,264544
2.2678,0.3519,39.1900,85,96,264547
2.2092,0.3470,39.3200,85,96,264550
2.2141,0.3568,39.2200,85,96,264554
2.1750,0.3421,39.3200,85,96,264557
2.1799,0.3421,39.5400,85,96,264560
2.2190,0.3519,39.2200,85,96,264563
2.1994,0.3421,39.3500,85,96,264567
2.2239,0.3470,39.1600,85,96,264570
2.1994,0.3470,39.2800,85,96,264573
2.1945,0.3470,39.3200,85,96,264578
2.2336,0.3470,39.2500,85,96,264581
2.2190,0.3372,39.3500,85,96,264584
2.2678,0.3470,39.1600,85,96,264588
2.2190,0.3421,39.2500,85,96,264591
2.2190,0.3421,39.3500,85,96,264594
2.2434,0.3519,39.3500,85,96,264597
2.2483,0.3372,39.3200,85,96,264601
2.3314,0.3568,39.0600,85,96,264604
2.3021,0.3470,39.2500,85,96,264607
2.2874,0.3324,39.3200,85,96,264611
2.3069,0.3470,39.4100,85,96,264614
2.3216,0.3568,39.3500,85,96,264617
2.4096,0.3666,39.1600,85,96,264622
2.3803,0.3470,39.2800,85,96,264625
2.3705,0.3470,39.2500,85,96,264628
2.3509,0.3470,39.3500,85,96,264632
2.3363,0.3421,39.4400,85,96,264635
2.3705,0.3519,39.2200,85,96,264638
2.3460,0.3470,39.4100,85,96,264641
2.3656,0.3470,39.2200,85,96,264645
2.3412,0.3470,39.3500,85,96,264648
2.3314,0.3421,39.3800,85,96,264651
2.3509,0.3519,39.2800,85,96,264655
2.3607,0.3275,39.3200,85,96,264658
2.4145,0.3568,39.2800,85,96,264662
2.3851,0.3470,39.3500,85,96,264666
2.3265,0.3421,39.4400,85,96,264669
2.3021,0.3715,39.2500,85,96,264672
2.2336,0.3470,39.4400,85,96,264676
2.2483,0.3568,39.1200,85,96,264679
2.2287,0.3470,39.2500,85,96,264682
2.1994,0.3421,38.8100,85,96,264685
2.2141,0.3470,39.2500,85,96,264689
2.1701,0.3421,39.3500,85,96,264692
2.2141,0.3568,39.0900,85,96,264695
2.1896,0.3470,39.2500,85,96,264699
2.1896,0.3421,39.4400,85,96,264702
2.1994,0.3519,39.3500,85,96,264706
2.1750,0.3421,39.3200,85,96,264710
2.2092,0.3666,39.0900,85,96,264713
2.1652,0.3470,39.2800,85,96,264716
2.1359,0.3421,39.4100,85,96,264720
2.1408,0.3519,39.3500,85,96,264723
2.1359,0.3421,39.3500,85,96,264726
2.1750,0.3812,39.2200,85,96,264730
2.1261,0.3470,39.3200,85,96,264733
2.1408,0.3470,39.3200,85,96,264736
2.1310,0.3421,39.3500,85,96,264739
2.1457,0.3421,39.3500,85,96,264743
2.1848,0.3617,39.1900,85,96,264747
2.1457,0.3470,39.3500,85,96,264750
2.1603,0.3617,39.2500,85,96,264754
2.1310,0.3421,39.2800,85,96,264757
2.1310,0.3421,39.4800,85,96,264760
2.1457,0.3470,39.2200,85,96,264764
2.0919,0.3421,39.3800,85,96,264767
2.0626,0.3715,39.1900,85,96,264770
1.9697,0.3470,39.2800,85,96,264774
1.8964,0.3421,39.3800,85,96,264777
1.9159,0.3519,39.2500,85,96,264780
1.9110,0.3421,39.4100,85,96,264783
2.0674,0.3666,39.0900,85,96,264787
2.2043,0.3421,39.2800,85,96,264791
2.4487,0.3421,39.3800,85,96,264794
2.7175,0.3519,39.3200,85,96,264798
2.8641,0.3421,39.3500,85,96,264801
2.9570,0.3568,39.0600,85,96,264804
2.8152,0.3519,39.2800,85,96,264808
2.7077,0.3421,39.3500,85,96,264811
2.6588,0.3519,39.3200,85,96,264814
2.5318,0.3421,39.3500,85,96,264818
2.4927,0.3617,39.1200,85,96,264821
2.3558,0.3470,39.3200,85,96,264824
2.2727,0.3421,39.2500,85,96,264827
2.1848,0.3519,39.3500,85,96,264832
2.1212,0.3421,39.3500,85,96,264835
2.1163,0.3519,39.2200,85,96,264838
2.0821,0.3470,39.3200,85,96,264842
2.0968,0.3470,39.3200,85,96,264845
2.0577,0.3421,39.3500,85,96,264848
2.0479,0.3519,39.3500,85,96,264852
2.0528,0.3421,39.3200,85,96,264855
2.0332,0.3421,39.3500,85,96,264858
2.0723,0.3519,39.2200,85,96,264862
2.0430,0.3470,39.3800,85,96,264865
2.0381,0.3372,39.3500,85,96,264868
2.0528,0.3519,39.2500,85,96,264871
2.0332,0.3470,39.3800,85,96,264876
2.0772,0.3519,39.1200,85,96,264879
2.0870,0.3519,39.2500,85,96,264882
2.0919,0.3421,39.5100,85,96,264886
2.1310,0.3470,39.2500,85,96,264889
2.1114,0.3421,39.3500,85,96,264892
2.1750,0.3568,39.1200,85,96,264896
2.1603,0.3470,39.2500,85,96,264899
2.1701,0.3421,39.3800,85,96,264902
2.2043,0.3519,39.3200,85,96,264905
2.2043,0.3421,39.3500,85,96,264909
2.2678,0.3617,39.0900,85,96,264912
2.2434,0.3519,39.2500,85,96,264915
2.2434,0.3421,39.2800,85,96,264920
2.2630,0.3372,39.3500,85,96,264923
2.2678,0.3421,38.6200,85,96,264926
2.3216,0.3812,39.1900,85,96,264930
2.2776,0.3470,39.3500,85,96,264933
2.2972,0.3470,39.2500,85,96,264936
2.2972,0.3275,39.3200,85,96,264940
2.3167,0.3421,39.4400,85,96,264943
2.3851,0.3617,39.1900,85,96,264946
2.3265,0.3470,39.3200,85,96,264950
2.3509,0.3568,39.2200,85,96,264953
2.3265,0.3421,39.2800,85,96,264956
2.3363,0.3421,39.4100,85,96,264960
2.3705,0.3470,39.2200,85,96,264964
2.3412,0.3421,39.5100,85,96,264967
2.3509,0.3519,39.1900,85,96,264970
2.3069,0.3617,39.0600,85,96,264975
2.2483,0.3470,39.2500,85,96,264978
2.2287,0.3421,39.2800,85,96,264982
2.2336,0.3421,39.3200,85,96,264985
2.2190,0.3421,39.3800,85,96,264988
2.2727,0.3763,39.1200,85,96,264992
2.2043,0.3470,39.3200,85,96,264995
2.1750,0.3421,39.2500,85,96,264998
2.1848,0.3470,39.3500,85,96,265003
2.1799,0.3421,39.3800,85,96,265006
2.2434,0.3715,39.1600,85,96,265009
2.2287,0.3470,39.0900,85,96,265013
2.2483,0.3470,39.2500,85,96,265016
2.2483,0.3470,39.4400,85,96,265019
2.2385,0.3421,39.3200,85,96,265022
2.2825,0.3568,39.2200,85,96,265026
2.2776,0.3470,39.3500,85,96,265029
2.3314,0.3519,39.4800,85,96,265032
2.3021,0.3372,39.2800,85,96,265036
2.2972,0.3421,39.3500,85,96,265039
2.3118,0.3519,39.2500,85,96,265042
2.3167,0.3421,39.3500,85,96,265047
2.3754,0.3470,39.1600,85,96,265050
2.3656,0.3421,39.3200,85,96,265053
2.3803,0.3421,39.3200,85,96,265057
2.4047,0.3470,39.2500,85,96,265060
2.3851,0.3470,39.2800,85,96,265063
2.4487,0.3617,39.1200,85,96,265066
2.4340,0.3519,39.2500,85,96,265070
2.4242,0.3421,39.4400,85,96,265073
2.4438,0.3519,39.3200,85,96,265076
2.4096,0.3421,39.2800,85,96,265080
2.4633,0.3617,39.0600,85,96,265083
2.4194,0.3568,39.2800,85,96,265086
2.3851,0.3372,39.3200,85,96,265091
2.4096,0.3470,39.3500,85,96,265094
2.3265,0.3421,39.3500,85,96,265097
2.3314,0.3617,39.1900,85,96,265101
2.2385,0.3470,39.3200,85,96,265104
2.2092,0.3470,38.5800,85,96,265107
2.1652,0.3470,39.3500,85,96,265110
2.1261,0.3421,39.3500,85,96,265114
2.1065,0.3763,39.2800,85,96,265117
2.0332,0.3470,39.3500,85,96,265120
2.0235,0.3568,39.2200,85,96,265124
1.9795,0.3372,39.3200,85,96,265127
1.9648,0.3421,39.3500,85,96,265131
1.9697,0.3568,39.2200,85,96,265135
1.9110,0.3421,39.5700,85,96,265138
1.9062,0.3519,39.2500,85,96,265141
1.8768,0.3470,39.2500,85,96,265145
1.8719,0.3421,39.3500,85,96,265148
1.8964,0.3519,39.1900,85,96,265151
1.8671,0.3421,39.3500,85,96,265155
1.8866,0.3470,39.1600,85,96,265158
1.8524,0.3421,39.3200,85,96,265161
1.8328,0.3421,39.3500,85,96,265164
1.8524,0.3470,39.3200,85,96,265168
1.8377,0.3421,39.2800,85,96,265171
1.9110,0.3519,39.0900,85,96,265175
1.8280,0.3470,39.2200,85,96,265179
1.8035,0.3519,39.3200,85,96,265182
1.8035,0.3470,39.2800,85,96,265185
1.8182,0.3470,39.3500,85,96,265189
1.8964,0.3617,39.1200,85,96,265192
1.8524,0.3470,39.4400,85,96,265195
1.8377,0.3421,39.2500,85,96,265199
1.8231,0.3421,39.3500,85,96,265202
1.8573,0.3372,39.3500,85,96,265205
1.8671,0.3470,39.2200,85,96,265208
1.8377,0.3421,39.3500,85,96,265212
1.8475,0.3470,39.2200,85,96,265216
1.8084,0.3421,39.2800,85,96,265219
1.8084,0.3470,39.3500,85,96,265223
1.8377,0.3568,39.2500,85,96,265226
1.8280,0.3421,39.3500,85,96,265229
1.8719,0.3470,39.2200,85,96,265233
1.8426,0.3421,38.4900,85,96,265236
1.8622,0.3421,39.3200,85,96,265239
1.8475,0.3470,39.2500,85,96,265243
1.8377,0.3617,39.3200,85,96,265246
1.8817,0.3519,39.1200,85,96,265249
1.8426,0.3421,39.3200,85,96,265253
1.8328,0.3421,39.3500,85,96,265256
1.8280,0.3421,39.3200,85,96,265260
1.7937,0.3421,38.5200,85,96,265263
1.8622,0.3666,39.0900,85,96,265267
1.8524,0.3470,39.2500,85,96,265270
1.8426,0.3421,39.3200,85,96,265273
1.8426,0.3470,39.3200,85,96,265277
1.8280,0.3421,39.3500,85,96,265280
1.8817,0.3617,39.1200,85,96,265283
1.8573,0.3519,39.1900,85,96,265287
1.8475,0.3617,39.2500,85,96,265290
1.8328,0.3421,39.3200,85,96,265293
1.8133,0.3421,39.3200,85,96,265297
1.8280,0.3519,39.2200,85,96,265300
1.7937,0.3470,39.2800,85,96,265304
1.8133,0.3519,39.2200,85,96,265308
1.7791,0.3421,39.3500,85,96,265311
1.7791,0.3421,39.3500,85,96,265314
1.7595,0.3421,39.3200,85,96,265317
1.7302,0.3470,39.3500,85,96,265321
1.7546,0.3519,39.2500,85,96,265324
1.7302,0.3421,39.3200,85,96,265327
1.7742,0.3372,39.3500,85,96,265331
1.7791,0.3470,39.4400,85,96,265334
1.7498,0.3421,39.3500,85,96,265337
1.7595,0.3519,39.1600,85,96,265341
1.7400,0.3519,39.2200,85,96,265345
1.7204,0.3372,39.3500,85,96,265348
1.7498,0.3568,39.2500,85,96,265352
1.7204,0.3421,39.3200,85,96,265355
1.7546,0.3763,39.1200,85,96,265358
1.7253,0.3470,39.2200,85,96,265362
1.7253,0.3421,39.3200,85,96,265365
1.7595,0.3470,39.3200,85,96,265368
1.7840,0.3421,39.3500,85,96,265371
1.8377,0.3617,39.0900,85,96,265375
1.7791,0.3470,39.3200,85,96,265378
1.7351,0.3421,39.2800,85,96,265381
1.7107,0.3275,39.3500,85,96,265385
1.7009,0.3421,39.3500,85,96,265389
1.7498,0.3568,39.1900,85,96,265392
1.6960,0.3421,39.3500,85,96,265396
1.6960,0.3812,39.3200,85,96,265399
1.6667,0.3421,39.3800,85,96,265402
1.6618,0.3519,39.3200,85,96,265406
1.6911,0.3568,39.1900,85,96,265409
1.6569,0.3372,39.3500,85,96,265412
1.6716,0.3519,39.2200,85,96,265416
1.6325,0.3715,39.2500,85,96,265419
1.6276,0.3421,39.3500,85,96,265422
1.6520,0.3519,39.1900,85,96,265426
1.6618,0.3421,39.3500,85,96,265430
1.7058,0.3519,39.1200,85,96,265433
1.6960,0.3421,39.2800,85,96,265436
1.6911,0.3421,39.4100,85,96,265440
1.7253,0.3519,39.2500,85,96,265443
1.7204,0.3421,39.3500,85,96,265446
1.7840,0.3715,39.0300,85,96,265450
1.7644,0.3421,39.2500,85,96,265453
1.7644,0.3617,39.3800,85,96,265456
1.7791,0.3470,39.2800,85,96,265460
1.7791,0.3421,39.3800,85,96,265463
1.8524,0.3470,39.1200,85,96,265466
1.8231,0.3470,39.2500,85,96,265470
1.8084,0.3324,39.2800,85,96,265474
1.7742,0.3421,39.1900,85,96,265477
1.7449,0.3519,39.4400,85,96,265480
1.7595,0.3568,38.4900,85,96,265484
1.7155,0.3275,39.2800,85,96,265487
1.7107,0.3470,39.2200,85,96,265490
1.6911,0.3421,39.3800,85,96,265494
1.7498,0.3421,39.3500,85,96,265497
1.8719,0.3519,39.2500,85,96,265500
2.0723,0.3470,39.3500,85,96,265504
2.3558,0.3519,39.2500,85,96,265507
2.5758,0.3421,39.2800,85,96,265510
2.7175,0.3275,39.3800,85,96,265515
2.7175,0.3470,39.2200,85,96,265518
2.6100,0.3275,39.3500,85,96,265521
2.5611,0.3519,39.1600,85,96,265525
2.4291,0.3372,39.3200,85,96,265528
2.3216,0.3421,39.3500,85,96,265531
2.2239,0.3519,39.3200,85,96,265534
2.0968,0.3421,39.3500,85,96,265538
2.0626,0.3519,39.0600,85,96,265541
1.9746,0.3519,39.0600,85,96,265544
1.9257,0.3421,39.3200,85,96,265548
1.9013,0.3568,39.3200,85,96,265551
1.8719,0.3421,39.3500,85,96,265554
1.9013,0.3666,39.0300,85,96,265559
1.8622,0.3470,39.2500,85,96,265562
1.8426,0.3421,39.3200,85,96,265565
1.8524,0.3470,39.2800,85,96,265569
1.8768,0.3421,39.3200,85,96,265572
1.9062,0.3519,39.2200,85,96,265575
1.8719,0.3372,39.3200,85,96,265578
1.8866,0.3470,39.2500,85,96,265582
1.8768,0.3421,39.3800,85,96,265585
1.8671,0.3470,39.3500,85,96,265590
1.8817,0.3421,39.3500,85,96,265593
1.9208,0.3470,39.1600,85,96,265596
1.9110,0.3421,39.3500,85,96,265601
1.9355,0.3470,39.1600,85,96,265604
1.8915,0.3470,39.2800,85,96,265607
1.8573,0.3421,39.3200,85,96,265611
1.8866,0.3470,39.2500,85,96,265614
1.8671,0.3421,39.3500,85,96,265617
1.9355,0.3568,39.0900,85,96,265621
1.9062,0.3470,39.1900,85,96,265624
1.8817,0.3421,39.3500,85,96,265627
1.8866,0.3470,39.3200,85,96,265631
1.8964,0.3421,39.3500,85,96,265634
1.9697,0.3666,39.1900,85,96,265637
1.9355,0.3519,39.3500,85,96,265641
1.9208,0.3421,39.2800,85,96,265645
1.9110,0.3275,39.3200,85,96,265648
1.8964,0.3421,39.3500,85,96,265651
1.9453,0.3519,39.2500,85,96,265655
1.9306,0.3421,39.2800,85,96,265658
1.9599,0.3421,39.2200,85,96,265661
1.9306,0.3421,39.3200,85,96,265665
1.9306,0.3421,39.3500,85,96,265668
1.9550,0.3568,39.2800,85,96,265671
1.9550,0.3372,39.3500,85,96,265675
1.9892,0.3470,39.2200,85,96,265678
1.9795,0.3421,39.2200,85,96,265681
1.9697,0.3421,39.3500,85,96,265686
1.9941,0.3519,39.1900,85,96,265689
1.9697,0.3421,39.3200,85,96,265692
2.0137,0.3470,39.1600,85,96,265696
1.9990,0.3275,39.2800,85,96,265699
1.9746,0.3421,39.3500,85,96,265702
1.9892,0.3715,39.2800,85,96,265705
1.9648,0.3421,39.3500,85,96,265709
2.0137,0.3568,39.0900,85,96,265712
2.0039,0.3470,39.2200,85,96,265715
2.0137,0.3275,39.3500,85,96,265719
2.0381,0.3470,39.3200,85,96,265722
2.0283,0.3421,39.3500,85,96,265725
2.0968,0.3666,39.1600,85,96,265730
2.0626,0.3519,39.3200,85,96,265733
2.0870,0.3275,39.2800,85,96,265736
2.0919,0.3421,39.3200,85,96,265740
2.1261,0.3372,39.3500,85,96,265743
2.1359,0.3568,39.0900,85,96,265746
2.1261,0.3372,39.3200,85,96,265749
2.1212,0.3470,39.2200,85,96,265753
2.1163,0.3421,39.3500,85,96,265756
2.1310,0.3275,39.3500,85,96,265759
2.1554,0.3470,39.2200,85,96,265763
2.1261,0.3372,39.3500,85,96,265766
2.1408,0.3519,39.2200,85,96,265769
2.1065,0.3372,39.3500,85,96,265774
2.1163,0.3421,39.3500,85,96,265777
2.1457,0.3470,39.2500,85,96,265780
2.1554,0.3421,39.3500,85,96,265784
2.1457,0.3470,39.1600,85,96,265787
2.1017,0.3421,39.3200,85,96,265790
2.0870,0.3421,39.3500,85,96,265794
2.1017,0.3568,39.2500,85,96,265797
2.0723,0.3421,39.3800,85,96,265800
2.1017,0.3617,39.0900,85,96,265803
2.0528,0.3519,39.2500,85,96,265807
2.0235,0.3275,39.3200,85,96,265810
2.0381,0.3519,39.3200,85,96,265814
2.0186,0.3372,39.3500,85,96,265818
2.0674,0.3568,39.1900,85,96,265821
2.0039,0.3519,39.2500,85,96,265824
1.9648,0.3372,39.3200,85,96,265828
1.9599,0.3470,39.3500,85,96,265831
1.9550,0.3421,39.3500,85,96,265834
2.0137,0.3617,39.1900,85,96,265837
1.9746,0.3519,39.2800,85,96,265841
1.9648,0.3470,39.2500,85,96,265844
1.9306,0.3470,39.3500,85,96,265847
1.9159,0.3275,39.3200,85,96,265851
1.9453,0.3519,39.0900,85,96,265854
1.9306,0.3421,39.3500,85,96,265858
1.9404,0.3470,39.1900,85,96,265862
1.9013,0.3421,39.3500,85,96,265865
1.8866,0.3470,39.3200,85,96,265868
1.9110,0.3519,39.2200,85,96,265872
1.8817,0.3421,39.3200,85,96,265875
1.9159,0.3470,39.2200,85,96,265878
1.8915,0.3470,39.2200,85,96,265882
1.8573,0.3372,39.3200,85,96,265885
1.8817,0.3861,39.1900,85,96,265888
1.8719,0.3421,39.3500,85,96,265891
1.9208,0.3519,39.1600,85,96,265895
1.9550,0.3421,39.2500,85,96,265899
1.9208,0.3421,39.3800,85,96,265902
1.9257,0.3861,39.2800,85,96,265906
1.8964,0.3421,39.3500,85,96,265909
1.9404,0.3568,39.0900,85,96,265912
1.9159,0.3275,39.2200,85,96,265916
1.9208,0.3372,39.3500,85,96,265919
1.9306,0.3617,39.2800,85,96,265922
1.9062,0.3421,39.3800,85,96,265926
1.9501,0.3666,39.1600,85,96,265929
1.9110,0.3470,39.3200,85,96,265932
1.9159,0.3421,39.2800,85,96,265935
1.9306,0.3421,39.3500,85,96,265939
1.9306,0.3421,39.3500,85,96,265943
1.9599,0.3617,39.1900,85,96,265946
1.9257,0.3470,39.2200,85,96,265950
1.9501,0.3568,39.1900,85,96,265953
1.9355,0.3421,39.3500,85,96,265956
1.9453,0.3421,39.3200,85,96,265960
1.9844,0.3519,39.2500,85,96,265963
1.9648,0.3470,39.3500,85,96,265966
2.0235,0.3519,39.2200,85,96,265970
1.9941,0.3421,39.3200,85,96,265973
2.0137,0.3421,39.4400,85,96,265976
2.0430,0.3519,39.2200,85,96,265980
2.0186,0.3421,39.5100,85,96,265984
2.0381,0.3617,39.1200,85,96,265987
2.0039,0.3372,39.3200,85,96,265990
2.0235,0.3421,39.3200,85,96,265994
2.0723,0.3470,39.3200,85,96,265997
2.0577,0.3421,38.5500,85,96,266000
2.1114,0.3812,39.0900,85,96,266004
2.0674,0.3470,39.2500,85,96,266007
2.0430,0.3421,39.3800,85,96,266010
2.0772,0.3519,39.3200,85,96,266014
2.0479,0.3470,39.3500,85,96,266017
2.1114,0.3666,39.4800,85,96,266020
2.0772,0.3470,39.2800,85,96,266024
2.0528,0.3421,39.3200,85,96,266028
2.0626,0.3470,39.3200,85,96,266031
2.0821,0.3372,39.3500,85,96,266034
2.1652,0.3470,39.2200,85,96,266038
2.1408,0.3519,39.3200,85,96,266041
2.1603,0.3470,39.2200,85,96,266044
2.1457,0.3470,39.3500,85,96,266048
2.1603,0.3372,39.3500,85,96,266051
2.1799,0.3519,39.2800,85,96,266054
2.1701,0.3421,39.2500,85,96,266058
2.2287,0.3519,39.1900,85,96,266061
2.1701,0.3421,39.5100,85,96,266064
2.1750,0.3372,39.3500,85,96,266068
2.2239,0.3568,39.2200,85,96,266072
2.2141,0.3421,39.3200,85,96,266075
2.2630,0.3470,39.2800,85,96,266078
2.2532,0.3715,39.2200,85,96,266082
2.2239,0.3421,39.3500,85,96,266085
2.2239,0.3568,39.1600,85,96,266088
2.1848,0.3421,39.3500,85,96,266092
2.2336,0.3519,39.0600,85,96,266095
2.2092,0.3519,39.2200,85,96,266098
2.1994,0.3421,39.2200,85,96,266102
2.2043,0.3519,39.3200,85,96,266105
2.1701,0.3470,39.3500,85,96,266108
2.2190,0.3568,39.1200,85,96,266113
2.2043,0.3519,39.2500,85,96,266116
2.1652,0.3372,39.3200,85,96,266119
2.1603,0.3617,39.3200,85,96,266122
2.1408,0.3421,39.4100,85,96,266126
2.1848,0.3861,39.1600,85,96,266129
2.1408,0.3470,39.3200,85,96,266132
2.1554,0.3421,39.2500,85,96,266136
2.1603,0.3470,39.3500,85,96,266139
2.1554,0.3421,39.3500,85,96,266142
2.1848,0.3568,39.1900,85,96,266146
2.1408,0.3470,39.2500,85,96,266149
2.1603,0.3470,39.1900,85,96,266152
2.1408,0.3470,39.3200,85,96,266157
2.1408,0.3421,39.3800,85,96,266160
2.1554,0.3470,39.2500,85,96,266163
2.1114,0.3470,39.3500,85,96,266166
2.1310,0.3519,39.2200,85,96,266170
2.0968,0.3421,39.2800,85,96,266173
2.1065,0.3470,39.3200,85,96,266176
2.1261,0.3470,39.2500,85,96,266180
2.0821,0.3421,39.3800,85,96,266183
2.0772,0.3519,39.1600,85,96,266186
2.0088,0.3372,38.6500,85,96,266190
1.9697,0.3666,39.3800,85,96,266193
1.9404,0.3519,39.2800,85,96,266196
2.3265,0.3470,39.3200,85,96,266201
2.5806,0.3421,39.4100,85,96,266204
2.8152,0.3763,39.1600,85,96,266208
2.7859,0.3470,39.3500,85,96,266211
2.7077,0.3470,39.2500,85,96,266214
2.6100,0.3519,39.3200,85,96,266217
2.5318,0.3421,39.3500,85,96,266221
2.4731,0.3519,39.2500,85,96,266224
2.3558,0.3275,39.3200,85,96,266227
2.2336,0.3519,39.2200,85,96,266231
2.1163,0.3470,39.3500,85,96,266234
2.0577,0.3275,39.3500,85,96,266237
2.0381,0.3470,39.2800,85,96,266242
2.0039,0.3568,39.3500,85,96,266245
2.0283,0.3519,39.2500,85,96,266248
1.9844,0.3421,39.3200,85,96,266252
1.9795,0.3421,39.3500,85,96,266255
2.0088,0.3519,39.3200,85,96,266258
2.0088,0.3519,39.3500,85,96,266261
2.0723,0.3519,39.1900,85,96,266265
2.0674,0.3519,39.2800,85,96,266268
2.0479,0.3421,39.3200,85,96,266271
2.0723,0.3568,39.2500,85,96,266275
2.0479,0.3470,39.3500,85,96,266278
2.1114,0.3617,39.0900,85,96,266281
2.0968,0.3470,39.2200,85,96,266286
2.0870,0.3470,39.3800,85,96,266289
2.0919,0.3861,39.2800,85,96,266292
2.0723,0.3470,39.3500,85,96,266295
2.1359,0.3470,39.0600,85,96,266299
2.1163,0.3812,39.2500,85,96,266302
2.1408,0.3372,39.2800,85,96,266305
2.1212,0.3470,39.3500,85,96,266309
2.1359,0.3470,39.3500,85,96,266312
2.1505,0.3617,39.5100,85,96,266315
2.1114,0.3519,39.3200,85,96,266319
2.1310,0.3470,39.2500,85,96,266322
2.1359,0.3470,39.3500,85,96,266326
2.1359,0.3421,39.3500,85,96,266330
2.1750,0.3617,39.6000,85,96,266333
2.1701,0.3519,39.3500,85,96,266336
2.1652,0.3519,39.1900,85,96,266340
2.1505,0.3421,39.3200,85,96,266343
2.1603,0.3421,39.3500,85,96,266346
2.1750,0.3470,39.2500,85,96,266349
2.1310,0.3763,39.3500,85,96,266353
2.1408,0.3519,39.2200,85,96,266356
2.1114,0.3470,39.2800,85,96,266359
2.1065,0.3421,39.3500,85,96,266363
2.1261,0.3470,39.1900,85,96,266366
2.0968,0.3421,39.3500,85,96,266370
2.1163,0.3519,39.1200,85,96,266374
2.0674,0.3421,39.2800,85,96,266377
2.0674,0.3421,39.4400,85,96,266380
2.0821,0.3470,39.3200,85,96,266383
2.0723,0.3421,39.3500,85,96,266387
2.1212,0.3568,39.0900,85,96,266390
2.0772,0.3470,39.2800,85,96,266393
2.0577,0.3470,39.2200,85,96,266397
2.0821,0.3519,39.2800,85,96,266400
2.0919,0.3421,39.3200,85,96,266403
2.1652,0.3666,39.1200,85,96,266407
2.1310,0.3519,39.2800,85,96,266411
2.1065,0.3421,39.2800,85,96,266414
2.1065,0.3715,39.3200,85,96,266418
2.1212,0.3470,39.3500,85,96,266421
2.1945,0.3568,39.1600,85,96,266424
2.1750,0.3519,39.3200,85,96,266427
2.1750,0.3470,39.2200,85,96,266431
2.1505,0.3470,39.2500,85,96,266434
2.1799,0.3470,39.1200,85,96,266437
2.1848,0.3519,39.2800,85,96,266441
2.1750,0.3470,39.3500,85,96,266444
2.2092,0.3470,39.2200,85,96,266447
2.1799,0.3470,39.3500,85,96,266451
2.1750,0.3470,39.3500,85,96,266455
2.2141,0.3519,39.2500,85,96,266458
2.2092,0.3470,39.3800,85,96,266462
2.2581,0.3959,39.2200,85,96,266465
2.2630,0.3470,39.2500,85,96,266468
2.2532,0.3470,39.2800,85,96,266471
2.2776,0.3568,39.2200,85,96,266475
2.2630,0.3470,39.3500,85,96,266478
2.3265,0.3519,39.1200,85,96,266481
2.3167,0.3519,39.2500,85,96,266485
2.3167,0.3421,39.3500,85,96,266488
2.3314,0.3519,39.1900,85,96,266491
2.3021,0.3421,39.3500,85,96,266496
2.3705,0.3617,39.0600,85,96,266499
2.3412,0.3470,39.1900,85,96,266502
2.3460,0.3470,39.3500,85,96,266505
2.3607,0.3470,39.3200,85,96,266509
2.3412,0.3470,39.3500,85,96,266512
2.4194,0.3666,39.1200,85,96,266515
2.3558,0.3519,39.3200,85,96,266519
2.3607,0.3715,39.2500,85,96,266522
2.3656,0.3470,38.7100,85,96,266525
2.3607,0.3421,39.3500,85,96,266529
2.3949,0.3568,39.1900,85,96,266532
2.3412,0.3812,39.3200,85,96,266535
2.3558,0.3519,39.2200,85,96,266540
2.3412,0.3470,39.4100,85,96,266543
2.3460,0.3617,39.3800,85,96,266546
2.3656,0.3568,39.2800,85,96,266549
2.3118,0.3470,39.3500,85,96,266553
2.3216,0.3568,39.3200,85,96,266556
2.2825,0.3470,39.3200,85,96,266559
2.2825,0.3421,39.3500,85,96,266563
2.2923,0.3519,39.3200,85,96,266566
2.2678,0.3470,39.3500,85,96,266569
2.2825,0.3470,39.1900,85,96,266573
2.2581,0.3470,39.3200,85,96,266576
2.2678,0.3470,39.3500,85,96,266579
2.3069,0.3568,39.3200,85,96,266584
2.3167,0.3372,39.3500,85,96,266587
2.3314,0.3568,39.1200,85,96,266590
2.2874,0.3519,39.2200,85,96,266593
2.2581,0.3372,39.3500,85,96,266597
2.2776,0.3470,39.2500,85,96,266600
2.2630,0.3421,39.4400,85,96,266603
2.3265,0.3568,39.0600,85,96,266607
2.2776,0.3861,39.2200,85,96,266610
2.2581,0.3372,39.3200,85,96,266613
2.2385,0.3519,39.3200,85,96,266617
2.2385,0.3715,39.3800,85,96,266620
2.2972,0.3617,39.1900,85,96,266624
2.2532,0.3470,39.3200,85,96,266628
2.2385,0.3372,39.2500,85,96,266631
2.1994,0.3421,39.3500,85,96,266634
2.1750,0.3421,39.3500,85,96,266637
2.1945,0.3568,39.2500,85,96,266641
2.1603,0.3470,38.7100,85,96,266644
2.1603,0.3519,39.1900,85,96,266647
2.1017,0.3470,39.3500,85,96,266651
2.0772,0.3470,39.3500,85,96,266654
2.1017,0.3568,39.2200,85,96,266657
2.0772,0.3470,39.5400,85,96,266661
2.1212,0.3470,39.2200,85,96,266664
2.0968,0.3275,39.2500,85,96,266668
2.0821,0.3470,39.3800,85,96,266672
2.0919,0.3568,39.2200,85,96,266675
2.0674,0.3275,39.3200,85,96,266678
2.1163,0.3519,39.1600,85,96,266681
2.1065,0.3519,39.2800,85,96,266685
2.1114,0.3519,39.3500,85,96,266688
2.1212,0.3910,39.3200,85,96,266691
2.1017,0.3470,39.3500,85,96,266695
2.1652,0.3568,39.0900,85,96,266698
2.1505,0.3617,39.2500,85,96,266701
2.1848,0.3470,39.3800,85,96,266705
2.2092,0.3470,39.3800,85,96,266708
2.2190,0.3372,39.3500,85,96,266712
2.2825,0.3470,39.0900,85,96,266715
2.2581,0.3519,39.3200,85,96,266719
2.2678,0.3421,39.2800,85,96,266722
