ecg,gsr,temp,hr,spo2,timest
1.9355,0.1515,38.2400,76,97,209731
1.9844,0.1564,37.9900,76,97,209734
1.9355,0.1564,38.1500,76,97,209737
1.9355,0.1564,38.0800,76,97,209741
1.9110,0.1515,38.2100,76,97,209744
1.8964,0.1515,38.1500,76,97,209747
1.9110,0.1564,38.0500,76,97,209752
1.8622,0.1515,38.1800,76,97,209755
1.8573,0.1515,37.9900,76,97,209758
1.8035,0.1320,38.2100,76,97,209761
1.7791,0.1515,38.1800,76,97,209765
1.7693,0.1564,38.1800,76,97,209768
1.7204,0.1515,38.2400,76,97,209771
1.7204,0.1613,38.0200,76,97,209775
1.6716,0.1417,38.1800,76,97,209778
1.6618,0.1515,38.3000,76,97,209781
1.6716,0.1564,38.0500,76,97,209785
1.6471,0.1515,38.2100,76,97,209788
1.6716,0.1564,37.9900,76,97,209792
1.6716,0.1564,38.0800,76,97,209795
1.6373,0.1515,38.1800,76,97,209799
1.6471,0.1564,38.1500,76,97,209802
1.6276,0.1515,38.2100,76,97,209805
1.6813,0.1613,37.9900,76,97,209809
1.6422,0.1564,38.1100,76,97,209812
1.6227,0.1466,38.3000,76,97,209815
1.6178,0.1466,38.2400,76,97,209819
1.6520,0.1417,38.2100,76,97,209822
1.6716,0.1711,37.9600,76,97,209825
1.6422,0.1564,38.1500,76,97,209829
1.6569,0.1466,38.1500,76,97,209832
1.6716,0.1662,38.1800,76,97,209836
1.6764,0.1515,38.2100,76,97,209840
1.7058,0.1662,38.0800,76,97,209843
1.6764,0.1564,38.1100,76,97,209846
1.6862,0.1515,38.0800,76,97,209849
1.6716,0.1466,38.1800,76,97,209853
1.6813,0.1515,38.2100,76,97,209856
1.7107,0.1564,37.9900,76,97,209859
1.6911,0.1515,38.1800,76,97,209863
1.7155,0.1515,38.0800,76,97,209866
1.7058,0.1564,38.1500,76,97,209869
1.7155,0.1515,38.2400,76,97,209873
1.7400,0.1466,38.0800,76,97,209876
1.7155,0.1564,38.2100,76,97,209880
1.7302,0.1564,38.0500,76,97,209883
1.7204,0.1515,38.1100,76,97,209887
1.7253,0.1515,38.2100,76,97,209890
1.7253,0.1564,38.1500,76,97,209893
1.7155,0.1515,38.3000,76,97,209897
1.7498,0.1613,37.9600,76,97,209900
1.7204,0.1515,38.2400,76,97,209903
1.7302,0.1515,38.2100,76,97,209907
1.7840,0.1564,38.1800,76,97,209910
1.7400,0.1515,38.2700,76,97,209913
1.7791,0.1564,37.9000,76,97,209917
1.7449,0.1564,38.1100,76,97,209921
1.7302,0.1466,38.1500,76,97,209924
1.7400,0.1515,38.1800,76,97,209927
1.7449,0.1515,37.6200,76,97,209931
1.8035,0.1662,37.9900,76,97,209934
1.7840,0.1564,38.0800,76,97,209939
1.7498,0.1515,38.1800,76,97,209942
1.7693,0.1613,37.9600,76,97,209945
1.7400,0.1417,38.2100,76,97,209949
1.7449,0.1515,38.2100,76,97,209952
1.7546,0.1515,38.0200,76,97,209955
1.7546,0.1515,38.1800,76,97,209959
1.7889,0.1564,38.0200,76,97,209963
1.7644,0.1564,38.2100,76,97,209966
1.7791,0.1417,38.2100,76,97,209970
1.7840,0.1564,37.9300,76,97,209973
1.7791,0.1417,38.1800,76,97,209976
1.8035,0.1515,37.9300,76,97,209979
1.7791,0.1515,38.1100,76,97,209983
1.7644,0.1515,38.2100,76,97,209986
1.7546,0.1564,38.0200,76,97,209989
1.7449,0.1662,38.1800,76,97,209993
1.7986,0.1613,37.9300,76,97,209996
1.7644,0.1515,38.1500,76,97,209999
1.7693,0.1417,38.1800,76,97,210003
1.7742,0.1515,38.2100,76,97,210007
1.7791,0.1808,38.2100,76,97,210010
1.8377,0.1760,37.9900,76,97,210014
1.7742,0.1564,38.2400,76,97,210017
1.7644,0.1466,38.1100,76,97,210020
1.7693,0.1320,38.1800,76,97,210023
1.7644,0.1515,38.4600,76,97,210027
1.8280,0.1613,38.0800,76,97,210030
1.7742,0.1564,38.1800,76,97,210033
1.7889,0.1515,38.0200,76,97,210037
1.7742,0.1515,38.1800,76,97,210040
1.7742,0.1515,38.2100,76,97,210043
1.8182,0.1515,38.0200,76,97,210048
1.7986,0.1515,38.1800,76,97,210051
1.8231,0.1613,38.0800,76,97,210054
1.7889,0.1466,38.1800,76,97,210057
1.7889,0.1515,38.2100,76,97,210061
1.7986,0.1613,38.0800,76,97,210064
1.7840,0.1417,38.2100,76,97,210067
1.8182,0.1564,37.9900,76,97,210071
1.8084,0.1564,38.1100,76,97,210074
1.8133,0.1515,38.2100,76,97,210077
1.8231,0.1515,38.1800,76,97,210081
1.8084,0.1515,38.2100,76,97,210084
1.8475,0.1564,37.9300,76,97,210087
1.8084,0.1466,38.2400,76,97,210092
1.8231,0.1417,38.2100,76,97,210095
1.8475,0.1564,38.1800,76,97,210098
1.8475,0.1564,38.1800,76,97,210101
1.9110,0.1613,37.9600,76,97,210105
1.8817,0.1515,38.1100,76,97,210108
1.8768,0.1662,38.1800,76,97,210111
1.8817,0.1515,38.2100,76,97,210115
1.8866,0.1466,38.1800,76,97,210118
1.9355,0.1613,37.9900,76,97,210121
1.9110,0.1515,38.1500,76,97,210125
1.9550,0.1515,38.0800,76,97,210128
1.9159,0.1515,38.1800,76,97,210131
1.9159,0.1515,38.2100,76,97,210136
1.9355,0.1564,38.0500,76,97,210139
1.9110,0.1515,38.2400,76,97,210142
1.9257,0.1515,38.0200,76,97,210145
1.9062,0.1515,38.2100,76,97,210149
1.8817,0.1515,38.2700,76,97,210152
1.8768,0.1320,38.1500,76,97,210155
1.8524,0.1515,38.1800,76,97,210159
1.8719,0.1515,38.1500,76,97,210162
1.8328,0.1515,38.2100,76,97,210165
1.8280,0.1515,38.2100,76,97,210169
1.8328,0.1515,38.1800,76,97,210172
1.7937,0.1515,38.2400,76,97,210176
1.7937,0.1564,37.9600,76,97,210180
1.7546,0.1564,38.0800,76,97,210183
1.7302,0.1515,38.2100,76,97,210186
1.7351,0.1564,38.1500,76,97,210189
1.7302,0.1515,38.1800,76,97,210193
1.7742,0.1564,38.0800,76,97,210196
1.7498,0.1564,38.1100,76,97,210199
1.7351,0.1515,38.2700,76,97,210203
1.7351,0.1515,38.1800,76,97,210206
1.7302,0.1515,38.2100,76,97,210209
1.7840,0.1808,37.9300,76,97,210213
1.7400,0.1564,38.1800,76,97,210216
1.7449,0.1466,38.1500,76,97,210220
1.7498,0.1564,38.1800,76,97,210224
1.7449,0.1515,38.1100,76,97,210227
1.7986,0.1613,38.0500,76,97,210230
1.7253,0.1564,38.1800,76,97,210233
1.7400,0.1515,38.0800,76,97,210237
1.7546,0.1466,38.2400,76,97,210240
1.8280,0.1515,38.2100,76,97,210243
1.9648,0.1613,38.0200,76,97,210247
2.0723,0.1515,38.1800,76,97,210250
2.2532,0.1515,38.0500,76,97,210253
2.4145,0.1515,38.3000,76,97,210257
2.6197,0.1760,38.1800,76,97,210260
2.7322,0.1515,38.1100,76,97,210264
2.6246,0.1515,38.3600,76,97,210267
2.4829,0.1564,38.1100,76,97,210271
2.2434,0.1466,38.1500,76,97,210274
2.0577,0.1662,38.2400,76,97,210277
1.9306,0.1564,38.1100,76,97,210281
1.8328,0.1515,38.1800,76,97,210284
1.8231,0.1515,37.9600,76,97,210287
1.7449,0.1515,38.2100,76,97,210291
1.7253,0.1515,38.3000,76,97,210294
1.7155,0.1906,38.1500,76,97,210297
1.6813,0.1515,38.2100,76,97,210301
1.7009,0.1613,37.9000,76,97,210305
1.6569,0.1564,38.1100,76,97,210308
1.6325,0.1466,38.2100,76,97,210311
1.6618,0.1564,38.1800,76,97,210315
1.6227,0.1515,38.1800,76,97,210318
1.6716,0.1711,37.9900,76,97,210321
1.6373,0.1515,38.1800,76,97,210325
1.6471,0.1760,38.0800,76,97,210328
1.6471,0.1320,38.1800,76,97,210331
1.6520,0.1515,38.2100,76,97,210335
1.6911,0.1613,38.0200,76,97,210338
1.6716,0.1320,38.1800,76,97,210341
1.6862,0.1564,38.0800,76,97,210345
1.6764,0.1515,38.1800,76,97,210349
1.6911,0.1515,38.2100,76,97,210352
1.7155,0.1564,38.0200,76,97,210355
1.7058,0.1564,38.1800,76,97,210359
1.7351,0.1613,37.9600,76,97,210362
1.7058,0.1857,38.2100,76,97,210365
1.7058,0.1515,38.1800,76,97,210369
1.7400,0.1613,38.0800,76,97,210372
1.7253,0.1466,38.1800,76,97,210375
1.7595,0.1564,38.0200,76,97,210379
1.7449,0.1564,38.1100,76,97,210382
1.7351,0.1515,38.2400,76,97,210385
1.7498,0.1564,38.1500,76,97,210390
1.7449,0.1760,38.2400,76,97,210393
1.7986,0.1564,37.9000,76,97,210396
1.7791,0.1564,38.1100,76,97,210399
1.7742,0.1515,38.2100,76,97,210403
1.7791,0.1564,38.1800,76,97,210406
1.7742,0.1515,38.2100,76,97,210409
1.8328,0.1613,37.9000,76,97,210413
1.7986,0.1515,38.0800,76,97,210416
1.8084,0.1466,38.1500,76,97,210419
1.8182,0.1564,38.1800,76,97,210423
1.8280,0.1515,38.2100,76,97,210426
1.8719,0.1613,38.0200,76,97,210429
1.8377,0.1564,38.1800,76,97,210433
1.8377,0.1515,38.1500,76,97,210437
1.8377,0.1515,38.2100,76,97,210440
1.8377,0.1515,38.2100,76,97,210443
1.8768,0.1564,38.0200,76,97,210447
1.8573,0.1564,38.1800,76,97,210450
1.8915,0.1515,38.0500,76,97,210453
1.8866,0.1564,38.1800,76,97,210457
1.9062,0.1515,38.2100,76,97,210460
1.9404,0.1662,38.0800,76,97,210463
1.9208,0.1515,38.1800,76,97,210467
1.9550,0.1564,38.1500,76,97,210470
1.9257,0.1466,38.1800,76,97,210473
1.9599,0.1417,38.2100,76,97,210477
1.9501,0.1515,38.1800,76,97,210481
1.9404,0.1515,38.1800,76,97,210484
2.0088,0.1564,37.9900,76,97,210487
1.9599,0.1515,38.2700,76,97,210491
1.9795,0.1808,38.2100,76,97,210494
2.0137,0.1613,38.1500,76,97,210497
1.9941,0.1564,38.1800,76,97,210501
2.0479,0.1564,37.9000,76,97,210504
2.0088,0.1564,38.1100,76,97,210507
1.9990,0.1564,38.2100,76,97,210510
2.0088,0.1906,38.1500,76,97,210514
2.0039,0.1564,38.3000,76,97,210518
2.0626,0.1613,37.9000,76,97,210521
2.0186,0.1515,38.1500,76,97,210525
1.9941,0.1564,38.2100,76,97,210528
2.0137,0.1564,38.1800,76,97,210531
1.9599,0.1515,38.2100,76,97,210535
1.9941,0.1711,37.9900,76,97,210538
1.9257,0.1564,38.2700,76,97,210541
1.9110,0.1466,38.1800,76,97,210544
1.8817,0.1564,38.1800,76,97,210548
1.7498,0.1515,38.2400,76,97,210553
1.7302,0.1515,38.2400,76,97,210556
1.7351,0.1613,38.0500,76,97,210560
1.7009,0.1515,38.1500,76,97,210563
1.7107,0.1564,38.0500,76,97,210567
1.6911,0.1515,38.1100,76,97,210570
1.6716,0.1515,38.2100,76,97,210573
1.6813,0.1564,38.1100,76,97,210577
1.6667,0.1564,38.2700,76,97,210580
1.6960,0.1613,37.9900,76,97,210583
1.6764,0.1564,38.1100,76,97,210587
1.6569,0.1515,38.1800,76,97,210590
1.6618,0.1613,38.1500,76,97,210593
1.6569,0.1515,38.1800,76,97,210597
1.7058,0.1613,37.8700,76,97,210600
1.6716,0.1515,38.1500,76,97,210604
1.6813,0.1515,38.1500,76,97,210607
1.7009,0.1564,38.1800,76,97,210611
1.6911,0.1515,38.2700,76,97,210614
1.7595,0.1613,38.0200,76,97,210617
1.7107,0.1515,38.1500,76,97,210621
1.7107,0.1515,38.1100,76,97,210624
1.7058,0.1564,38.2100,76,97,210627
1.7155,0.1515,38.2700,76,97,210631
1.7546,0.1662,38.0200,76,97,210634
1.7253,0.1515,38.2400,76,97,210637
1.7449,0.1466,38.0500,76,97,210641
1.7302,0.1515,38.2100,76,97,210644
1.7302,0.1564,38.2400,76,97,210648
1.7937,0.1613,38.0800,76,97,210651
1.7351,0.1466,38.2100,76,97,210655
1.7644,0.1613,38.1100,76,97,210658
1.7400,0.1417,38.1800,76,97,210661
1.7546,0.1515,38.2100,76,97,210665
1.7693,0.1515,38.1100,76,97,210668
1.7546,0.1515,38.2100,76,97,210671
1.7840,0.1564,37.9900,76,97,210675
1.7498,0.1466,38.2100,76,97,210678
1.7449,0.1515,38.2100,76,97,210681
1.7693,0.1613,38.0800,76,97,210685
1.7351,0.1515,38.1800,76,97,210689
1.7889,0.1613,37.9300,76,97,210692
1.7644,0.1662,38.0800,76,97,210695
1.7546,0.1515,38.2400,76,97,210699
1.7595,0.1515,38.1500,76,97,210702
1.7889,0.1417,38.1800,76,97,210705
1.8084,0.1711,37.9300,76,97,210709
1.7693,0.1564,38.1100,76,97,210712
1.7595,0.1466,38.1500,76,97,210715
1.7644,0.1564,38.2100,76,97,210719
1.7644,0.1515,38.2100,76,97,210722
1.8084,0.1613,38.0200,76,97,210725
1.7742,0.1515,38.1500,76,97,210729
1.7840,0.1564,38.0800,76,97,210733
1.7644,0.1515,38.2100,76,97,210736
1.7644,0.1515,38.2100,76,97,210739
1.7986,0.1613,38.1100,76,97,210743
1.7889,0.1515,38.2100,76,97,210746
1.8133,0.1613,38.0500,76,97,210749
1.7840,0.1515,38.2100,76,97,210753
1.7889,0.1515,38.0500,76,97,210756
1.8182,0.1564,38.0500,76,97,210759
1.7937,0.1515,38.2100,76,97,210763
1.8182,0.1515,37.7400,76,97,210766
1.7889,0.1564,38.1100,76,97,210769
1.7986,0.1515,38.2100,76,97,210772
1.7986,0.1906,38.1100,76,97,210777
1.7791,0.1564,38.2100,76,97,210780
1.8231,0.1564,37.9600,76,97,210783
1.7986,0.1515,38.1100,76,97,210787
1.7840,0.1515,38.2100,76,97,210790
1.7889,0.1564,38.1500,76,97,210793
1.7791,0.1515,38.2100,76,97,210797
1.8328,0.1613,37.9300,76,97,210800
1.7937,0.1564,38.1800,76,97,210803
1.8035,0.1515,38.2100,76,97,210807
1.8133,0.1515,38.2400,76,97,210810
1.7986,0.1515,38.2100,76,97,210813
1.8475,0.1711,37.9600,76,97,210817
1.8035,0.1564,38.1100,76,97,210821
1.8133,0.1466,38.1100,76,97,210824
1.8035,0.1613,38.1800,76,97,210827
1.8377,0.1515,38.2100,76,97,210831
1.8377,0.1613,38.0800,76,97,210834
1.8084,0.1564,38.1800,76,97,210837
1.8231,0.1564,38.0800,76,97,210841
1.7937,0.1515,38.3300,76,97,210844
1.7986,0.1564,38.2700,76,97,210847
1.8231,0.1515,38.0500,76,97,210851
1.7986,0.1515,38.2100,76,97,210854
1.8280,0.1613,38.0500,76,97,210857
1.8035,0.1515,38.2100,76,97,210861
1.8084,0.1515,38.2400,76,97,210865
1.8182,0.1564,38.1100,76,97,210868
1.8133,0.1515,38.2100,76,97,210871
1.8475,0.1662,38.0200,76,97,210875
1.8280,0.1564,38.2100,76,97,210878
1.8426,0.1613,38.1800,76,97,210881
1.8671,0.1613,38.0800,76,97,210885
1.8622,0.1515,38.2100,76,97,210888
1.9159,0.1564,37.9300,76,97,210891
1.9062,0.1564,38.1100,76,97,210895
1.9062,0.1515,38.2400,76,97,210898
1.9306,0.1515,38.1800,76,97,210902
1.9306,0.1515,38.3300,76,97,210905
1.9795,0.1662,37.9000,76,97,210909
1.9306,0.1515,38.1100,76,97,210912
1.9159,0.1466,38.1500,76,97,210915
1.9159,0.1564,38.2100,76,97,210919
1.9110,0.1515,38.1500,76,97,210922
1.9941,0.1662,38.0500,76,97,210925
1.9159,0.1564,38.1800,76,97,210929
1.9110,0.1515,38.1100,76,97,210932
1.8915,0.1564,38.2100,76,97,210935
1.8866,0.1515,38.2400,76,97,210939
1.9306,0.1564,38.1100,76,97,210942
1.8768,0.1515,38.2400,76,97,210946
1.8768,0.1564,38.0500,76,97,210949
1.8328,0.1613,38.1800,76,97,210953
1.8280,0.1515,38.2100,76,97,210956
1.8524,0.1613,38.0200,76,97,210959
1.8231,0.1515,38.1800,76,97,210963
1.8426,0.1515,38.0200,76,97,210966
1.8084,0.1564,38.1800,76,97,210969
1.7986,0.1320,38.2100,76,97,210973
1.7986,0.1564,38.0800,76,97,210976
1.7644,0.1564,38.2400,76,97,210979
1.8084,0.1564,38.0200,76,97,210982
1.7595,0.1515,38.1100,76,97,210987
1.7546,0.1515,38.1800,76,97,210990
1.7595,0.1564,38.1800,76,97,210993
1.7546,0.1515,38.2100,76,97,210997
1.7986,0.1808,37.9300,76,97,211000
1.7644,0.1515,38.1800,76,97,211003
1.7742,0.1515,38.2100,76,97,211007
1.7791,0.1564,38.1800,76,97,211010
1.7644,0.1515,38.0800,76,97,211013
1.8182,0.1613,37.9300,76,97,211017
1.7498,0.1515,38.2100,76,97,211020
1.7449,0.1466,38.1500,76,97,211023
1.7791,0.1515,38.2100,76,97,211026
1.8280,0.1515,38.1800,76,97,211031
1.9501,0.1613,37.9900,76,97,211034
2.0235,0.1466,38.2400,76,97,211037
2.1896,0.1564,38.0800,76,97,211041
2.3314,0.1515,38.2100,76,97,211044
2.5464,0.1515,37.9300,76,97,211047
2.7419,0.1613,38.0800,76,97,211051
2.7175,0.1515,38.2100,76,97,211054
2.6344,0.1662,38.0500,76,97,211057
2.4145,0.1417,38.2400,76,97,211061
2.2190,0.1515,38.2400,76,97,211064
2.0528,0.1857,38.1500,76,97,211067
1.9062,0.1515,38.1800,76,97,211070
1.8524,0.1515,38.0800,76,97,211075
1.7840,0.1466,38.1800,76,97,211078
1.7449,0.1515,38.2100,76,97,211081
1.7498,0.1564,38.3000,76,97,211085
1.7155,0.1466,38.2100,76,97,211088
1.7351,0.1564,37.9300,76,97,211091
1.7058,0.1564,38.0800,76,97,211095
1.6911,0.1320,38.2100,76,97,211098
1.7009,0.1564,38.1100,76,97,211101
1.6862,0.1466,38.2400,76,97,211104
1.7595,0.1564,37.9300,76,97,211108
1.6960,0.1515,38.1100,76,97,211111
1.6862,0.1564,38.2100,76,97,211115
1.7009,0.1564,38.1800,76,97,211119
1.6960,0.1515,38.2100,76,97,211122
1.7498,0.1662,37.9300,76,97,211125
1.7107,0.1515,38.2400,76,97,211129
1.7058,0.1711,38.1100,76,97,211132
1.7058,0.1564,38.1800,76,97,211135
1.7009,0.1515,38.1800,76,97,211139
1.7449,0.1613,38.0800,76,97,211142
1.7253,0.1564,38.1800,76,97,211145
1.7498,0.1515,38.2400,76,97,211148
1.7400,0.1564,38.2100,76,97,211152
1.7498,0.1515,38.2100,76,97,211155
1.7840,0.1564,38.0200,76,97,211159
1.7986,0.1613,38.1500,76,97,211163
1.7986,0.1515,38.2100,76,97,211166
1.8426,0.1564,37.9600,76,97,211170
1.8182,0.1564,38.1100,76,97,211173
1.8328,0.1515,38.2400,76,97,211176
1.8475,0.1564,38.1500,76,97,211180
1.8426,0.1515,38.2100,76,97,211183
1.9062,0.1613,37.9900,76,97,211186
1.8768,0.1515,38.1800,76,97,211190
1.8817,0.1515,38.1800,76,97,211193
1.8866,0.1564,38.2100,76,97,211196
1.8817,0.1515,38.3300,76,97,211201
1.9306,0.1906,37.9300,76,97,211204
1.9208,0.1564,38.1800,76,97,211207
1.8768,0.1466,38.1500,76,97,211210
1.8719,0.1564,38.1800,76,97,211214
1.8719,0.1564,38.1800,76,97,211217
1.9208,0.1613,37.9900,76,97,211220
1.8964,0.1564,38.1800,76,97,211224
1.9257,0.1515,38.1800,76,97,211227
1.9208,0.1711,38.2100,76,97,211230
1.9599,0.1515,38.1800,76,97,211234
1.9746,0.1613,38.0200,76,97,211237
1.9550,0.1564,38.1800,76,97,211240
1.9892,0.1564,38.0500,76,97,211244
1.9844,0.1515,38.1800,76,97,211248
1.9990,0.1515,38.2400,76,97,211251
2.0235,0.1564,38.1500,76,97,211254
2.0186,0.1515,38.3000,76,97,211258
2.0430,0.1515,38.0800,76,97,211261
2.0186,0.1417,38.1800,76,97,211264
2.0332,0.1515,38.2100,76,97,211268
2.0723,0.1564,38.1800,76,97,211271
2.0577,0.1564,38.2100,76,97,211274
2.1065,0.1564,37.9600,76,97,211277
2.0772,0.1515,38.1800,76,97,211281
2.0674,0.1564,38.2100,76,97,211284
2.0772,0.1515,38.1500,76,97,211288
2.0674,0.1515,38.2100,76,97,211292
2.1261,0.1662,37.9000,76,97,211295
2.0870,0.1515,38.1100,76,97,211298
2.0626,0.1564,38.2100,76,97,211302
2.0430,0.1515,38.1500,76,97,211305
2.0186,0.1564,38.1800,76,97,211308
2.0528,0.1662,37.9300,76,97,211311
1.9844,0.1515,38.1500,76,97,211315
1.9746,0.1466,38.1500,76,97,211318
1.9355,0.1515,38.2100,76,97,211321
1.9257,0.1515,38.2100,76,97,211325
1.9306,0.1662,38.0500,76,97,211329
1.8768,0.1808,38.1800,76,97,211332
1.8524,0.1857,38.0800,76,97,211336
1.8133,0.1515,38.2700,76,97,211339
1.7937,0.1466,38.2100,76,97,211342
1.8133,0.1613,38.0200,76,97,211346
1.7693,0.1955,38.2400,76,97,211349
1.7742,0.1564,38.1100,76,97,211352
1.7351,0.1564,38.3000,76,97,211355
1.7253,0.1515,38.2100,76,97,211359
1.7449,0.1564,38.0800,76,97,211362
1.7204,0.1515,38.1800,76,97,211365
1.7498,0.1515,38.0200,76,97,211369
1.7253,0.1466,38.1500,76,97,211373
1.7204,0.1515,38.2400,76,97,211376
1.7253,0.1857,38.1500,76,97,211380
1.7204,0.1515,38.2100,76,97,211383
1.7546,0.1515,37.9900,76,97,211386
1.7302,0.1564,38.2100,76,97,211390
1.7400,0.1515,38.2100,76,97,211393
1.7644,0.1613,38.1100,76,97,211396
1.7449,0.1515,38.2100,76,97,211399
1.7937,0.1613,37.9000,76,97,211403
1.7595,0.1564,38.0800,76,97,211406
1.7498,0.1515,38.2100,76,97,211409
1.7546,0.1564,38.1500,76,97,211414
1.7595,0.1515,38.2100,76,97,211417
1.8182,0.1711,38.1100,76,97,211420
1.7840,0.1564,38.1500,76,97,211424
1.7889,0.1515,38.1100,76,97,211427
1.7889,0.1466,38.1800,76,97,211430
1.7889,0.1417,38.2400,76,97,211433
1.8231,0.1515,38.0800,76,97,211437
1.8035,0.1466,38.1800,76,97,211440
1.8231,0.1564,38.0800,76,97,211443
1.8035,0.1564,38.1800,76,97,211447
1.8035,0.1613,38.2100,76,97,211450
1.8231,0.1564,38.1500,76,97,211453
1.8084,0.1515,38.3300,76,97,211458
1.8328,0.1760,38.0500,76,97,211461
1.8084,0.1515,38.1100,76,97,211464
1.8182,0.1564,38.1800,76,97,211468
1.8475,0.1613,38.0500,76,97,211471
1.8280,0.1515,38.1500,76,97,211474
1.8524,0.1564,38.0200,76,97,211477
1.8280,0.1515,38.1100,76,97,211481
1.8133,0.1515,37.5300,76,97,211484
1.8280,0.1613,38.1100,76,97,211487
1.8133,0.1515,38.3300,76,97,211491
1.8524,0.1564,37.9300,76,97,211494
1.8182,0.1515,38.1500,76,97,211497
1.7986,0.1417,38.2100,76,97,211502
1.8084,0.1564,38.1800,76,97,211505
1.8084,0.1564,38.2400,76,97,211508
1.8671,0.1613,37.8700,76,97,211512
1.8280,0.1515,38.1500,76,97,211515
1.8231,0.1564,38.1800,76,97,211518
1.8182,0.1515,38.2100,76,97,211521
1.8035,0.1515,38.2100,76,97,211525
1.8426,0.1711,38.0200,76,97,211528
1.8182,0.1515,38.1500,76,97,211531
1.8231,0.1760,38.1800,76,97,211535
1.8231,0.1515,38.3000,76,97,211538
1.8280,0.1515,38.2400,76,97,211542
1.8671,0.1613,38.0500,76,97,211546
1.8328,0.1662,38.1800,76,97,211549
1.8719,0.1564,38.0500,76,97,211552
1.8231,0.1515,38.1800,76,97,211556
1.8280,0.1515,38.1800,76,97,211559
1.8671,0.1613,38.0800,76,97,211562
1.8377,0.1515,38.1800,76,97,211565
1.8768,0.1564,38.0800,76,97,211569
1.8475,0.1466,38.1500,76,97,211572
1.8768,0.1515,38.2100,76,97,211575
1.8475,0.1515,38.2100,76,97,211579
1.8280,0.1515,38.1800,76,97,211582
1.8573,0.1564,38.0500,76,97,211586
1.8280,0.1515,38.2400,76,97,211590
1.8377,0.1515,38.1800,76,97,211593
1.8622,0.1613,38.1100,76,97,211596
1.8671,0.1515,38.2100,76,97,211600
1.8817,0.1515,37.9900,76,97,211603
1.8475,0.1662,38.0500,76,97,211606
1.8328,0.1466,38.2100,76,97,211609
1.8475,0.1515,38.2100,76,97,211613
1.8475,0.1515,38.2100,76,97,211616
1.9013,0.1613,37.9300,76,97,211619
1.8622,0.1466,38.1100,76,97,211623
1.8573,0.1466,38.1500,76,97,211627
1.8671,0.1515,38.2700,76,97,211630
1.8671,0.1515,38.2100,76,97,211634
1.9110,0.1515,38.0200,76,97,211637
1.8622,0.1662,38.1500,76,97,211640
1.8671,0.1515,38.0800,76,97,211644
1.8475,0.1515,38.1800,76,97,211647
1.8768,0.1417,38.2100,76,97,211650
1.8866,0.1613,38.1800,76,97,211653
1.8768,0.1515,38.3300,76,97,211657
1.9013,0.1613,38.0500,76,97,211660
1.8866,0.1515,38.2100,76,97,211663
1.8964,0.1515,38.2400,76,97,211667
1.9795,0.1613,38.0500,76,97,211671
1.9355,0.1515,38.1500,76,97,211674
1.9746,0.1564,38.0500,76,97,211678
1.9648,0.1515,38.0800,76,97,211681
1.9648,0.1515,38.2100,76,97,211684
1.9746,0.1564,38.1800,76,97,211687
1.9550,0.1515,38.2100,76,97,211691
1.9844,0.1564,38.1500,76,97,211694
1.9795,0.1564,38.1100,76,97,211697
1.9697,0.1564,38.1800,76,97,211701
1.9892,0.1515,38.1500,76,97,211704
1.9795,0.1515,38.1800,76,97,211707
2.0235,0.1613,37.9300,76,97,211712
1.9550,0.1564,38.1500,76,97,211715
1.9404,0.1515,38.2400,76,97,211718
1.9208,0.1515,38.1500,76,97,211722
1.8964,0.1515,38.2100,76,97,211725
1.9404,0.1711,37.6500,76,97,211728
1.8964,0.1906,38.0800,76,97,211731
1.8817,0.1662,38.1100,76,97,211735
1.8768,0.1564,38.2100,76,97,211738
1.8573,0.1515,38.2100,76,97,211741
1.8817,0.1613,37.9900,76,97,211745
1.8377,0.1564,38.1800,76,97,211748
1.8377,0.1564,38.0800,76,97,211751
1.8182,0.1515,38.2100,76,97,211756
1.8133,0.1515,38.1500,76,97,211759
1.8377,0.1564,38.0500,76,97,211762
1.8035,0.1515,38.2400,76,97,211766
1.8231,0.1515,38.0200,76,97,211769
1.8328,0.1515,38.1800,76,97,211772
1.8133,0.1515,38.2100,76,97,211776
1.8035,0.1515,38.2100,76,97,211779
1.7937,0.1515,38.1500,76,97,211782
1.7693,0.1515,38.2400,76,97,211786
1.8280,0.1613,37.9000,76,97,211789
1.8475,0.1564,38.1500,76,97,211792
1.9013,0.1515,38.2100,76,97,211796
2.0088,0.1564,38.1800,76,97,211800
2.1310,0.1564,38.2100,76,97,211803
2.3509,0.1515,37.9600,76,97,211807
2.4878,0.1906,38.1100,76,97,211810
2.6735,0.1564,38.1500,76,97,211813
2.7517,0.1564,38.2100,76,97,211816
2.6784,0.1515,38.2400,76,97,211820
2.5709,0.1613,38.0200,76,97,211823
2.3069,0.1515,37.4300,76,97,211826
2.1261,0.1515,38.0500,76,97,211830
1.9697,0.1564,38.2100,76,97,211833
1.8964,0.1515,38.2100,76,97,211836
1.8768,0.1613,38.1100,76,97,211841
1.8280,0.1515,38.1800,76,97,211844
1.8280,0.1515,37.4000,76,97,211847
1.7791,0.1515,38.2400,76,97,211851
1.7546,0.1515,38.2700,76,97,211854
1.7546,0.1808,38.0500,76,97,211857
1.7155,0.1515,38.2100,76,97,211860
1.7351,0.1515,38.0500,76,97,211864
1.7009,0.1466,38.1100,76,97,211867
1.7253,0.1515,38.2100,76,97,211870
1.7253,0.1808,38.1800,76,97,211874
1.7107,0.1515,38.1800,76,97,211877
1.7595,0.1515,38.3000,76,97,211880
1.7400,0.1564,38.1100,76,97,211885
1.7546,0.1515,38.2100,76,97,211888
1.7595,0.1515,38.1800,76,97,211891
1.7546,0.1564,38.2100,76,97,211894
1.8084,0.1613,37.9000,76,97,211898
1.7595,0.1515,38.0800,76,97,211901
1.7595,0.1466,38.2100,76,97,211904
1.7644,0.1564,38.1800,76,97,211908
1.7644,0.1466,38.2100,76,97,211911
1.8426,0.1760,37.9600,76,97,211914
1.8084,0.1564,38.1500,76,97,211918
1.8133,0.1369,38.1500,76,97,211921
1.8182,0.1711,38.2400,76,97,211924
1.8182,0.1515,38.2100,76,97,211929
1.8524,0.1613,38.0200,76,97,211932
1.8475,0.1564,38.2100,76,97,211935
1.8280,0.1564,38.0500,76,97,211939
1.8182,0.1515,38.0500,76,97,211942
1.8280,0.1760,38.1500,76,97,211945
1.8622,0.1613,38.0200,76,97,211948
1.8426,0.1515,37.5900,76,97,211952
1.8768,0.1906,38.0500,76,97,211955
1.8671,0.1515,38.1800,76,97,211958
1.8719,0.1515,38.2700,76,97,211962
1.8817,0.1417,38.1800,76,97,211965
1.8768,0.1320,38.1800,76,97,211969
1.9062,0.1564,37.3400,76,97,211973
1.9110,0.1564,38.2100,76,97,211976
1.8817,0.1515,38.2100,76,97,211979
1.8964,0.1564,38.1100,76,97,211982
1.8817,0.1515,38.2100,76,97,211986
1.9257,0.1564,37.9000,76,97,211989
1.9159,0.1564,38.0800,76,97,211992
1.9208,0.1515,38.2100,76,97,211996
1.9453,0.1613,38.1500,76,97,211999
1.9453,0.1320,38.2400,76,97,212002
2.0088,0.1613,38.2100,76,97,212006
1.9844,0.1564,38.1500,76,97,212009
1.9795,0.1466,38.1800,76,97,212013
1.9844,0.1515,38.2100,76,97,212017
1.9844,0.1515,38.2100,76,97,212020
2.0528,0.1711,37.9900,76,97,212023
2.0137,0.1564,38.1800,76,97,212026
2.0479,0.1417,38.1100,76,97,212030
2.0332,0.1564,38.1800,76,97,212033
2.0332,0.1857,38.2100,76,97,212036
2.0772,0.1613,38.0800,76,97,212040
2.0577,0.1515,38.2100,76,97,212043
2.0723,0.1515,38.0500,76,97,212046
2.0528,0.1320,38.2100,76,97,212050
2.0577,0.1515,38.1800,76,97,212054
2.1017,0.1613,38.1100,76,97,212057
2.0626,0.1564,38.1800,76,97,212060
2.1114,0.1564,38.0500,76,97,212064
2.0772,0.1515,38.0200,76,97,212067
2.0772,0.1515,38.2100,76,97,212070
2.1310,0.1662,38.0800,76,97,212074
2.0577,0.1515,38.2100,76,97,212077
2.0870,0.1515,38.2400,76,97,212080
2.0430,0.1466,38.1500,76,97,212084
2.0479,0.1515,38.2100,76,97,212087
2.0186,0.1515,38.1800,76,97,212090
1.9892,0.1515,38.3000,76,97,212093
1.9990,0.1613,37.9600,76,97,212098
1.9404,0.1515,38.2100,76,97,212101
1.9208,0.1515,38.0500,76,97,212104
1.9159,0.1613,38.1100,76,97,212108
1.8671,0.1564,38.2100,76,97,212111
1.8866,0.1711,37.9300,76,97,212114
1.8475,0.1564,38.1100,76,97,212118
1.8133,0.1515,38.1500,76,97,212121
1.8035,0.1515,38.2100,76,97,212124
1.7840,0.1515,38.2100,76,97,212127
1.8182,0.1711,37.9300,76,97,212131
1.7595,0.1515,38.1500,76,97,212134
1.7400,0.1515,38.1100,76,97,212137
1.7546,0.1564,38.2100,76,97,212142
1.7253,0.1515,38.2100,76,97,212145
1.7595,0.1857,38.0800,76,97,212148
1.7204,0.1564,38.1800,76,97,212152
1.7253,0.1515,38.1500,76,97,212155
1.7155,0.1564,38.2100,76,97,212158
1.7204,0.1515,38.2100,76,97,212162
1.7400,0.1613,38.1500,76,97,212165
1.7253,0.1515,38.1800,76,97,212168
1.7449,0.1564,38.0800,76,97,212171
1.7351,0.1564,38.2100,76,97,212175
1.7351,0.1515,38.2100,76,97,212178
1.7693,0.1613,38.1100,76,97,212182
1.7498,0.1515,38.2100,76,97,212186
1.7742,0.1515,38.0200,76,97,212189
1.7644,0.1564,38.1100,76,97,212192
1.7742,0.1515,38.2100,76,97,212196
1.7889,0.1466,38.1100,76,97,212199
1.7791,0.1320,38.2100,76,97,212202
1.8182,0.1515,38.0500,76,97,212206
1.7889,0.1564,38.1100,76,97,212209
1.7791,0.1515,38.1800,76,97,212212
1.7889,0.1515,38.1500,76,97,212215
1.7986,0.1515,38.2100,76,97,212219
1.8377,0.1613,37.9000,76,97,212222
1.7937,0.1564,38.1500,76,97,212226
1.8084,0.1466,38.2100,76,97,212230
1.8280,0.1515,38.2400,76,97,212233
1.8328,0.1515,38.1800,76,97,212236
1.8768,0.1662,37.9900,76,97,212240
1.8426,0.1564,38.1100,76,97,212243
1.8035,0.1564,38.1500,76,97,212246
1.7889,0.1808,38.2100,76,97,212250
1.7840,0.1515,38.2100,76,97,212253
1.8231,0.1613,38.0800,76,97,212256
1.8280,0.1564,38.2400,76,97,212259
1.8182,0.1515,38.1100,76,97,212263
1.7937,0.1466,38.3000,76,97,212267
1.8035,0.1320,38.2100,76,97,212270
1.8280,0.1613,37.3700,76,97,212274
1.8084,0.1711,38.1800,76,97,212277
1.8377,0.1564,38.0200,76,97,212280
1.8084,0.1466,38.1800,76,97,212284
1.8084,0.1711,38.2400,76,97,212287
1.8182,0.1564,38.1100,76,97,212290
1.8084,0.1515,38.3000,76,97,212294
1.8328,0.1515,37.9900,76,97,212297
1.8035,0.1515,38.1800,76,97,212300
1.8084,0.1515,38.2400,76,97,212303
1.8622,0.1613,38.1800,76,97,212307
1.8035,0.1515,38.1500,76,97,212311
1.8426,0.1564,37.9300,76,97,212314
1.8133,0.1564,38.1500,76,97,212318
1.8084,0.1515,38.2100,76,97,212321
1.8182,0.1515,38.1800,76,97,212324
1.8133,0.1564,38.2400,76,97,212328
1.8719,0.1760,37.9300,76,97,212331
1.8328,0.1515,38.1100,76,97,212334
1.8231,0.1662,38.1500,76,97,212338
1.8182,0.1564,38.2100,76,97,212341
1.7937,0.1515,38.4000,76,97,212344
1.8231,0.1613,38.0500,76,97,212347
1.7840,0.1564,38.1800,76,97,212352
1.7986,0.1515,38.0800,76,97,212355
1.7937,0.1515,38.1500,76,97,212358
1.8035,0.1515,38.2100,76,97,212362
1.8328,0.1613,38.3000,76,97,212365
1.8280,0.1613,38.1800,76,97,212368
1.8475,0.1564,38.0500,76,97,212372
1.8280,0.1515,38.2100,76,97,212375
1.8377,0.1417,38.2100,76,97,212378
1.8671,0.1613,38.1500,75,97,212381
1.8328,0.1613,38.1500,75,97,212385
1.8328,0.1515,38.2100,75,97,212389
1.8768,0.1564,37.9300,75,97,212392
1.8573,0.1564,38.1500,75,97,212396
1.8328,0.1515,38.3300,75,97,212399
1.8377,0.1808,38.1500,75,97,212403
1.8622,0.1515,38.2100,75,97,212406
1.8915,0.1711,38.2100,75,97,212409
1.8377,0.1564,38.1500,75,97,212413
1.8280,0.1466,38.1800,75,97,212416
1.8280,0.1564,38.0500,75,97,212419
1.8231,0.1515,38.1800,75,97,212423
1.8622,0.1662,37.3700,75,97,212426
1.8280,0.1613,38.1500,75,97,212429
1.8377,0.1564,38.1100,75,97,212433
1.8280,0.1515,38.2100,75,97,212436
1.8524,0.1515,38.1800,75,97,212440
1.8964,0.1613,37.9000,75,97,212443
1.8866,0.1564,38.1800,75,97,212447
1.9208,0.1515,38.0500,75,97,212450
1.8964,0.1564,38.2100,75,97,212453
1.9013,0.1417,38.1800,75,97,212457
1.9355,0.1564,38.3600,75,97,212460
1.9257,0.1466,38.2100,75,97,212463
1.9550,0.1564,38.0200,75,97,212467
1.9257,0.1515,38.2100,75,97,212470
1.9257,0.1417,38.1800,75,97,212473
1.9306,0.1515,38.1500,75,97,212477
1.9306,0.1466,38.1500,75,97,212481
1.9746,0.1564,37.9600,75,97,212484
1.9453,0.1515,38.1100,75,97,212487
1.9550,0.1515,38.2100,75,97,212491
1.9453,0.1515,38.2100,75,97,212494
1.9208,0.1515,38.1800,75,97,212497
1.9453,0.1515,37.9300,75,97,212501
1.8866,0.1515,38.0800,75,97,212504
1.8475,0.1466,38.1800,75,97,212507
1.8377,0.1515,38.2100,75,97,212511
1.8231,0.1417,38.2100,75,97,212514
1.8719,0.1515,38.0200,75,97,212517
1.8280,0.1564,38.1800,75,97,212521
1.8182,0.1466,38.1100,75,97,212525
1.7889,0.1515,38.2100,75,97,212528
1.7644,0.1417,38.2100,75,97,212531
1.7742,0.1613,38.0800,75,97,212535
1.7498,0.1515,38.2400,75,97,212538
1.7742,0.1564,38.0800,75,97,212541
1.7498,0.1564,38.1800,75,97,212545
1.7498,0.1417,38.1800,75,97,212548
1.7644,0.1564,38.1500,75,97,212551
1.7498,0.1515,38.1500,75,97,212555
1.7791,0.1564,38.1100,75,97,212558
1.7498,0.1515,38.1800,75,97,212561
1.7546,0.1515,38.2100,75,97,212566
1.7791,0.1613,38.1800,75,97,212569
1.7742,0.1515,38.1800,75,97,212572
1.7791,0.1564,37.9900,75,97,212575
1.7449,0.1515,38.1800,75,97,212579
1.7302,0.1564,38.2100,75,97,212582
1.7546,0.1564,38.1100,75,97,212585
1.7840,0.1466,38.2100,75,97,212589
1.8964,0.1613,37.9000,75,97,212592
1.9550,0.1515,38.1500,75,97,212595
2.0626,0.1564,38.2100,75,97,212599
2.2141,0.1564,38.1800,75,97,212602
2.3900,0.1515,38.2700,75,97,212605
2.6588,0.1662,37.9600,75,97,212610
2.6735,0.1515,38.1500,75,97,212613
2.6002,0.1515,38.1800,75,97,212616
2.4682,0.1613,38.2400,75,97,212619
2.2385,0.1515,38.3000,75,97,212623
2.1017,0.1906,38.0200,75,97,212626
1.9257,0.1564,38.1800,75,97,212629
1.8377,0.1515,38.0800,75,97,212633
1.7791,0.1515,38.2100,75,97,212636
1.7498,0.1515,38.2100,75,97,212639
1.7546,0.1613,38.0800,75,97,212643
1.7107,0.1564,38.1800,75,97,212646
1.7058,0.1564,38.0200,75,97,212649
1.6667,0.1515,38.2400,75,97,212653
1.6569,0.1466,38.2100,75,97,212657
1.6618,0.1613,38.1100,75,97,212660
1.6422,0.1613,38.1800,75,97,212663
1.6862,0.1564,38.0800,75,97,212667
1.6471,0.1466,38.1800,75,97,212670
1.6471,0.1613,38.3300,75,97,212673
1.6618,0.1564,38.1100,75,97,212677
1.6520,0.1515,38.2400,75,97,212680
1.6862,0.1564,37.9900,75,97,212683
1.6618,0.1515,38.2100,75,97,212687
1.6716,0.1613,38.1800,75,97,212690
1.6862,0.1564,38.1500,75,97,212694
1.6716,0.1564,38.1800,75,97,212698
1.7253,0.1613,37.9300,75,97,212701
1.7058,0.1564,38.1100,75,97,212704
1.6960,0.1417,38.2100,75,97,212707
1.7058,0.1515,38.4000,75,97,212711
1.7009,0.1564,38.2700,75,97,212714
1.7546,0.1613,37.9000,75,97,212717
1.7253,0.1564,38.2400,75,97,212721
1.7351,0.1564,38.1500,75,97,212724
1.7400,0.1515,38.2100,75,97,212727
1.7449,0.1515,38.2100,75,97,212731
1.7840,0.1662,38.0200,75,97,212734
1.7449,0.1564,38.1800,75,97,212738
1.7644,0.1515,38.1500,75,97,212741
1.7498,0.1857,38.1800,75,97,212745
1.7595,0.1515,38.2100,75,97,212748
1.7889,0.1711,38.1500,75,97,212751
1.7840,0.1564,38.2100,75,97,212755
1.8084,0.1515,38.0500,75,97,212758
1.7889,0.1515,38.1800,75,97,212761
1.7840,0.1320,38.2100,75,97,212765
1.8133,0.1515,38.0800,75,97,212768
1.7840,0.1466,38.2100,75,97,212771
1.8084,0.1564,38.0800,75,97,212775
1.7986,0.1564,38.1100,75,97,212779
1.7986,0.1515,38.2100,75,97,212782
1.8182,0.1564,38.1100,75,97,212785
1.8035,0.1515,38.2700,75,97,212789
1.8475,0.1515,37.9600,75,97,212792
1.8280,0.1515,38.1500,75,97,212795
1.8280,0.1515,38.2100,75,97,212799
1.8573,0.1564,38.2100,75,97,212802
1.8524,0.1515,38.2400,75,97,212805
1.9110,0.1760,37.9600,75,97,212809
1.8768,0.1515,38.1500,75,97,212812
1.8866,0.1466,38.1800,75,97,212815
1.9013,0.1662,38.1800,75,97,212818
1.9110,0.1515,38.3000,75,97,212823
1.9746,0.1711,37.9300,75,97,212826
1.9355,0.1564,38.2400,75,97,212829
1.9404,0.1466,38.1500,75,97,212833
1.9648,0.1564,38.1800,75,97,212836
1.9648,0.1515,38.2400,75,97,212839
2.0088,0.1613,38.2400,75,97,212843
1.9795,0.1613,38.1800,75,97,212846
1.9844,0.1564,38.0800,75,97,212849
1.9648,0.1515,38.1500,75,97,212853
1.9697,0.1711,38.2100,75,97,212856
2.0088,0.1515,38.0500,75,97,212859
2.0039,0.1515,38.1800,75,97,212862
2.0283,0.1515,38.0500,75,97,212867
1.9795,0.1515,38.2700,75,97,212870
1.9599,0.1515,38.2400,75,97,212873
1.9599,0.1564,38.1500,75,97,212877
1.9355,0.1515,38.2400,75,97,212880
1.9550,0.1564,38.0500,75,97,212883
1.9013,0.1515,38.2400,75,97,212887
1.8866,0.1564,38.2100,75,97,212890
1.8817,0.1564,38.0800,75,97,212893
1.8328,0.1564,38.2100,75,97,212896
1.8426,0.1564,37.9600,75,97,212900
1.8084,0.1515,38.1100,75,97,212903
1.7742,0.1515,38.2100,75,97,212907
1.7644,0.1564,38.1500,75,97,212911
1.7253,0.1515,38.4000,75,97,212914
1.7400,0.1857,37.9000,75,97,212917
1.6813,0.1564,38.1500,75,97,212921
1.6667,0.1515,38.2700,75,97,212924
1.6569,0.1564,38.1800,75,97,212927
1.6520,0.1320,38.2100,75,97,212930
1.6862,0.1711,37.9600,75,97,212934
1.6422,0.1564,38.1800,75,97,212937
1.6520,0.1466,38.1800,75,97,212940
1.6569,0.1515,38.1500,75,97,212944
1.6471,0.1515,38.2400,75,97,212947
1.6716,0.1662,38.0500,75,97,212951
1.6325,0.1564,38.1800,75,97,212955
1.6373,0.1515,38.0800,75,97,212958
1.6227,0.1466,38.1800,75,97,212961
1.6325,0.1515,38.1500,75,97,212965
1.6716,0.1613,38.0800,75,97,212968
1.6520,0.1564,38.1800,75,97,212971
1.6813,0.1613,38.0800,75,97,212974
1.6569,0.1515,38.2400,75,97,212978
1.6618,0.1515,38.2100,75,97,212981
1.6862,0.1564,38.1800,75,97,212984
1.6716,0.1515,38.2100,75,97,212988
1.7058,0.1564,38.0200,75,97,212992
1.6764,0.1564,37.9600,75,97,212995
1.6764,0.1515,38.1500,75,97,212999
1.7009,0.1515,38.2400,75,97,213002
1.7155,0.1515,38.1100,75,97,213006
1.7058,0.1515,38.2100,75,97,213009
1.7644,0.1662,37.9300,75,97,213012
1.7400,0.1711,38.0500,75,97,213015
1.7253,0.1417,38.1500,75,97,213019
1.7204,0.1515,38.1100,75,97,213022
1.7155,0.1466,38.2100,75,97,213025
1.7595,0.1613,37.9900,75,97,213029
1.7204,0.1662,38.1800,75,97,213032
1.7351,0.1564,38.0800,75,97,213036
1.7155,0.1515,38.2400,75,97,213040
1.7155,0.1906,38.2100,75,97,213043
1.7449,0.1515,38.0500,75,97,213046
1.7204,0.1515,38.2700,75,97,213050
1.7400,0.1564,38.0200,75,97,213053
1.7204,0.1564,38.2100,75,97,213056
1.7107,0.1515,38.2100,75,97,213059
1.7204,0.1857,38.1500,75,97,213063
1.7204,0.1564,38.2100,75,97,213066
1.7498,0.1515,38.0500,75,97,213069
1.7204,0.1515,38.1800,75,97,213073
1.7302,0.1515,38.2100,75,97,213076
1.7498,0.1613,38.0800,75,97,213080
1.7351,0.1515,38.2100,75,97,213084
1.7546,0.1515,38.1500,75,97,213087
1.7400,0.1564,38.0800,75,97,213090
1.7400,0.1564,38.1800,75,97,213094
1.7400,0.1564,38.2100,75,97,213097
1.7302,0.1515,38.1800,75,97,213100
1.7791,0.1564,37.9300,75,97,213103
1.7400,0.1564,38.1100,75,97,213107
1.7351,0.1564,38.2100,75,97,213110
1.7351,0.1515,38.1800,75,97,213113
1.7253,0.1564,38.2100,75,97,213117
1.7791,0.1711,37.9300,75,97,213121
1.7253,0.1613,38.1500,75,97,213124
1.7351,0.1466,38.1500,75,97,213128
1.7302,0.1808,38.2400,75,97,213131
1.7302,0.1515,38.2400,75,97,213134
1.7644,0.1662,37.3700,75,97,213138
1.7546,0.1613,38.1800,75,97,213141
1.7449,0.1564,38.0500,75,97,213144
1.7302,0.1515,38.2400,75,97,213147
1.7400,0.1515,38.2400,75,97,213151
1.7791,0.1613,38.0200,75,97,213154
1.7498,0.1711,38.1800,75,97,213157
1.7595,0.1613,38.0800,75,97,213161
1.7351,0.1515,38.1800,75,97,213165
1.7302,0.1857,38.2100,75,97,213168
1.7498,0.1564,38.1500,75,97,213172
1.7351,0.1711,38.3000,75,97,213175
1.7644,0.1564,38.0200,75,97,213178
1.7351,0.1515,38.2100,75,97,213182
1.7302,0.1417,38.2400,75,97,213185
1.7351,0.1515,38.2400,75,97,213188
1.7204,0.1613,38.1800,75,97,213191
1.7644,0.1564,37.9300,75,97,213195
1.7351,0.1515,38.1500,75,97,213198
1.7498,0.1320,38.2100,75,97,213201
1.7644,0.1515,38.2100,75,97,213206
1.7546,0.1515,38.2100,75,97,213209
1.7937,0.1613,37.8300,75,97,213212
1.7693,0.1613,38.0800,75,97,213216
1.7400,0.1466,38.1800,75,97,213219
1.7449,0.1515,38.1500,75,97,213222
1.7889,0.1564,38.2100,75,97,213226
1.8182,0.1662,38.0500,75,97,213229
1.7889,0.1515,38.1500,75,97,213232
1.7986,0.1564,38.0800,75,97,213235
1.7889,0.1515,38.2100,75,97,213239
1.7937,0.1515,38.2100,75,97,213242
1.8328,0.1564,38.0500,75,97,213245
1.8133,0.1564,38.2100,75,97,213250
1.8426,0.1515,38.1500,75,97,213253
1.8622,0.1564,38.1800,75,97,213256
1.8328,0.1564,38.1800,75,97,213260
1.8475,0.1564,38.1100,75,97,213263
1.8475,0.1515,38.1800,75,97,213266
1.8719,0.1564,38.1100,75,97,213270
1.8573,0.1515,38.1800,75,97,213273
1.8671,0.1808,38.2100,75,97,213276
1.9062,0.1613,38.0800,75,97,213279
1.8671,0.1515,38.1100,75,97,213283
1.8915,0.1857,38.0500,75,97,213286
1.8719,0.1564,38.0800,75,97,213289
1.8524,0.1515,38.1800,75,97,213294
1.8475,0.1564,38.1500,75,97,213297
1.8231,0.1515,38.2400,75,97,213300
1.8475,0.1613,37.9000,75,97,213304
1.7986,0.1515,38.1500,75,97,213307
1.7791,0.1515,38.2100,75,97,213310
1.7937,0.1564,38.1800,75,97,213314
1.7644,0.1564,38.2100,75,97,213317
1.7986,0.1711,37.9300,75,97,213320
1.7449,0.1515,38.1500,75,97,213323
1.7351,0.1857,38.1100,75,97,213327
1.7204,0.1564,38.1800,75,97,213330
1.7058,0.1515,38.2100,75,97,213334
1.7302,0.1613,38.0500,75,97,213338
1.6862,0.1564,38.1800,75,97,213341
1.6911,0.1515,37.4000,75,97,213344
1.6764,0.1564,38.2100,75,97,213348
1.6813,0.1515,38.1800,75,97,213351
1.7204,0.1857,38.0500,75,97,213354
1.7009,0.1564,38.1800,75,97,213358
1.7253,0.1515,38.0500,75,97,213361
1.6960,0.1564,38.2400,75,97,213364
1.6960,0.1564,38.1800,75,97,213367
1.7155,0.1515,38.1100,75,97,213371
1.6862,0.1564,38.1800,75,97,213374
1.7107,0.1564,38.0800,75,97,213378
1.6960,0.1515,38.2100,75,97,213382
1.7449,0.1515,38.2400,75,97,213385
1.8280,0.1564,38.1100,75,97,213388
1.9257,0.1515,38.2700,75,97,213392
2.1017,0.1760,37.9600,75,97,213395
2.2239,0.1515,38.2400,75,97,213398
2.4291,0.1515,38.1800,75,97,213401
2.6344,0.1613,38.1500,75,97,213405
2.6735,0.1515,38.0500,75,97,213408
2.6540,0.1857,37.9000,75,97,213411
2.4487,0.1564,38.1100,75,97,213415
2.2190,0.1564,38.2100,75,97,213419
2.0283,0.1613,38.1500,75,97,213422
1.8768,0.1466,38.1800,75,97,213426
1.8426,0.1711,37.9600,75,97,213429
1.7498,0.1564,38.1500,75,97,213432
1.7107,0.1515,38.1500,75,97,213436
1.6764,0.1515,38.2400,75,97,213439
1.6569,0.1564,38.1800,75,97,213442
1.6667,0.1515,38.0200,75,97,213445
1.6227,0.1515,38.1800,75,97,213449
1.6520,0.1564,38.0800,75,97,213452
1.6080,0.1564,38.2100,75,97,213455
1.6129,0.1760,38.2100,75,97,213459
1.6373,0.1613,38.1800,75,97,213463
1.6129,0.1515,37.9900,75,97,213466
1.6373,0.1466,38.0500,75,97,213470
1.6227,0.1564,38.2100,75,97,213473
1.6276,0.1515,38.2400,75,97,213476
1.6569,0.1613,38.0800,75,97,213480
1.6373,0.1515,38.1800,75,97,213483
1.7009,0.1564,37.9900,75,97,213486
1.6569,0.1515,38.1500,75,97,213489
1.6667,0.1515,38.1100,75,97,213493
1.6813,0.1564,38.1100,75,97,213496
1.6716,0.1515,38.2100,75,97,213499
1.7204,0.1564,37.9600,75,97,213504
1.7009,0.1564,38.2400,75,97,213507
1.7009,0.1515,38.2100,75,97,213510
1.7155,0.1564,38.1800,75,97,213514
1.7107,0.1515,38.2100,75,97,213517
1.7546,0.1613,37.8700,75,97,213520
1.7107,0.1564,38.1800,75,97,213523
1.7155,0.1466,38.1500,75,97,213527
1.7302,0.1564,38.1800,75,97,213530
1.7400,0.1515,38.2100,75,97,213533
1.8035,0.1760,37.9900,75,97,213537
1.7742,0.1564,38.1500,75,97,213540
1.7742,0.1515,38.1500,75,97,213543
1.7693,0.1564,38.1800,75,97,213548
1.7791,0.1515,38.3000,75,97,213551
1.8133,0.1662,38.0200,75,97,213554
1.7889,0.1515,38.1800,75,97,213558
1.8084,0.1564,38.1500,75,97,213561
1.7986,0.1564,38.2100,75,97,213564
1.8133,0.1515,38.1800,75,97,213567
1.8377,0.1857,38.1500,75,97,213571
1.8475,0.1564,38.1800,75,97,213574
1.8573,0.1613,38.1100,75,97,213577
1.8328,0.1515,38.2100,75,97,213581
1.8426,0.1515,38.2100,75,97,213584
1.8524,0.1564,38.2700,75,97,213587
1.8475,0.1466,38.1800,75,97,213592
1.8866,0.1564,37.9900,75,97,213595
1.8622,0.1711,38.1800,75,97,213598
1.8768,0.1515,38.2100,75,97,213602
1.9013,0.1564,38.1800,75,97,213605
1.9453,0.1515,38.1800,75,97,213609
1.9599,0.1515,38.2100,75,97,213612
2.0283,0.1711,37.9900,75,97,213615
1.9941,0.1564,38.1500,75,97,213619
2.0088,0.1515,38.0800,75,97,213622
2.0039,0.1515,38.2700,75,97,213625
2.0039,0.1760,38.2400,75,97,213628
2.0430,0.1613,38.0500,75,97,213633
2.0235,0.1564,38.1800,75,97,213636
2.0332,0.1564,38.1100,75,97,213639
2.0186,0.1515,38.1500,75,97,213643
2.0186,0.1515,38.2100,75,97,213646
2.0381,0.1613,37.8300,75,97,213649
2.0137,0.1515,38.2100,75,97,213652
2.0332,0.1564,38.0500,75,97,213656
1.9990,0.1564,38.2100,75,97,213659
1.9990,0.1515,38.2100,75,97,213662
2.0186,0.1515,38.0500,75,97,213666
1.9648,0.1564,38.1800,75,97,213669
1.9599,0.1515,38.3600,75,97,213672
1.9062,0.1564,38.1100,75,97,213677
1.8768,0.1515,38.2100,75,97,213680
1.8622,0.1564,38.1100,75,97,213683
1.8182,0.1515,38.2100,75,97,213687
1.8328,0.1564,38.0200,75,97,213690
1.7840,0.1564,38.1800,75,97,213693
1.7595,0.1515,38.1800,75,97,213696
1.7498,0.1564,38.0500,75,97,213700
1.7204,0.1564,38.2100,75,97,213703
1.7498,0.1662,37.9000,75,97,213706
1.6911,0.1515,38.1500,75,97,213710
1.6764,0.1417,38.1800,75,97,213713
1.6764,0.1515,38.2400,75,97,213716
1.6764,0.1564,38.1800,75,97,213721
1.7351,0.1711,37.9900,75,97,213724
1.7009,0.1711,38.1100,75,97,213727
1.7009,0.1564,38.1100,75,97,213730
1.6911,0.1515,38.2100,75,97,213734
1.6960,0.1564,38.2400,75,97,213737
1.7400,0.1613,37.9900,75,97,213740
1.7107,0.1515,38.2400,75,97,213744
1.7302,0.1564,38.1100,75,97,213747
1.7155,0.1564,38.2400,75,97,213750
1.7253,0.1515,38.2100,75,97,213754
1.7840,0.1564,38.0800,75,97,213757
1.7449,0.1515,38.1800,75,97,213761
1.7742,0.1613,38.0800,75,97,213765
1.7498,0.1320,38.2100,75,97,213768
1.7400,0.1515,38.2100,75,97,213771
1.7498,0.1613,38.1500,75,97,213774
1.7449,0.1564,38.2100,75,97,213778
1.7742,0.1515,38.0500,75,97,213781
1.7546,0.1515,38.2100,75,97,213784
1.7595,0.1515,38.2400,75,97,213788
1.7840,0.1613,38.3600,75,97,213791
1.7791,0.1564,38.2100,75,97,213794
1.8133,0.1613,38.1100,75,97,213798
1.7937,0.1564,38.1100,75,97,213801
1.7791,0.1515,38.1800,75,97,213805
1.7840,0.1613,38.2400,75,97,213809
1.7742,0.1564,38.1800,75,97,213812
1.8280,0.1613,37.9000,75,97,213815
1.7840,0.1564,38.1500,75,97,213818
1.7889,0.1466,38.1800,75,97,213822
1.7889,0.1515,38.1800,75,97,213825
1.7889,0.1417,38.2100,75,97,213828
1.8377,0.1515,38.1100,75,97,213832
1.7937,0.1564,38.1800,75,97,213835
1.7986,0.1564,38.0800,75,97,213838
1.7840,0.1515,38.0800,75,97,213842
1.7840,0.1515,38.1800,75,97,213846
1.8231,0.1613,38.0800,75,97,213849
1.8133,0.1515,38.1800,75,97,213852
1.8280,0.1564,38.0500,75,97,213856
1.8084,0.1564,38.2400,75,97,213859
1.8133,0.1515,37.6200,75,97,213862
1.8377,0.1613,38.0500,75,97,213866
1.8133,0.1515,38.2100,75,97,213869
1.8377,0.1662,38.0800,75,97,213872
1.8084,0.1320,38.1100,75,97,213876
1.7986,0.1515,38.2100,75,97,213879
1.8084,0.1564,38.1100,75,97,213882
1.7889,0.1417,38.2100,75,97,213886
1.8182,0.1515,38.1800,75,97,213890
1.8231,0.1564,38.1500,75,97,213893
1.7986,0.1515,38.2400,75,97,213896
1.8133,0.1564,38.1500,75,97,213900
1.8035,0.1564,38.2100,75,97,213903
1.8426,0.1564,37.9300,75,97,213906
1.8084,0.1613,38.2400,75,97,213910
1.8231,0.1515,38.2100,75,97,213913
1.8377,0.1564,38.1800,75,97,213916
1.8328,0.1515,38.2100,75,97,213920
1.8866,0.1808,37.9300,75,97,213923
1.8719,0.1564,38.1100,75,97,213926
1.8328,0.1466,38.2100,75,97,213931
1.8280,0.1564,38.2100,75,97,213934
1.8328,0.1515,38.2100,75,97,213937
1.8768,0.1613,38.0800,75,97,213940
1.8377,0.1564,38.1800,75,97,213944
1.8426,0.1515,38.1100,75,97,213947
1.8182,0.1564,38.2100,75,97,213950
1.8182,0.1515,38.2400,75,97,213954
1.8475,0.1613,38.0200,75,97,213957
1.8328,0.1564,38.1800,75,97,213960
1.8573,0.1564,38.0500,75,97,213964
1.8328,0.1515,38.2400,75,97,213967
1.8524,0.1564,38.2100,75,97,213970
1.8328,0.1515,38.1800,75,97,213975
1.8280,0.1711,38.1800,75,97,213978
1.8475,0.1564,38.0500,75,97,213981
1.8182,0.1515,38.2100,75,97,213984
1.8182,0.1564,38.2100,75,97,213988
1.8377,0.1613,38.0800,75,97,213991
1.8182,0.1564,38.2100,75,97,213994
1.8622,0.1564,37.9900,75,97,213998
1.8524,0.1515,38.0800,75,97,214001
1.8426,0.1613,38.2700,75,97,214004
1.8622,0.1564,38.2100,75,97,214008
1.8622,0.1808,38.1800,75,97,214011
1.9306,0.1662,37.9000,75,97,214014
1.9062,0.1515,38.0800,75,97,214019
1.9062,0.1564,38.2100,75,97,214022
1.9062,0.1564,38.1800,75,97,214025
1.9062,0.1515,37.7100,75,97,214028
1.9697,0.1711,37.9300,75,97,214032
1.9306,0.1515,38.1500,75,97,214035
1.9306,0.1564,38.1100,75,97,214038
1.9208,0.1564,38.2100,75,97,214042
1.9110,0.1564,38.1800,75,97,214045
1.9746,0.1613,38.0800,75,97,214048
1.9355,0.1515,38.1800,75,97,214052
1.9550,0.1564,38.1100,75,97,214055
1.9453,0.1564,38.1800,75,97,214059
1.9453,0.1515,38.4300,75,97,214063
2.0039,0.1564,38.1100,75,97,214066
1.9257,0.1515,38.1800,75,97,214069
1.9355,0.1662,38.0800,75,97,214072
1.8964,0.1466,38.1500,75,97,214076
1.8817,0.1515,38.2100,75,97,214079
1.9062,0.1613,38.0800,75,97,214082
1.8573,0.1515,38.2100,75,97,214086
1.8768,0.1515,38.0200,75,97,214089
1.8475,0.1662,38.1500,75,97,214092
1.8426,0.1515,38.2100,75,97,214096
1.8377,0.1613,38.1500,75,97,214099
1.8377,0.1564,38.2100,75,97,214103
1.8377,0.1564,38.0200,75,97,214106
1.7889,0.1564,38.1800,75,97,214110
1.7889,0.1515,38.2100,75,97,214113
1.7889,0.1564,38.0800,75,97,214116
1.7742,0.1564,38.2400,75,97,214120
1.8182,0.1515,37.2800,75,97,214123
1.7840,0.1808,38.1100,75,97,214126
1.7889,0.1417,38.1500,75,97,214130
1.7791,0.1515,38.1800,75,97,214133
1.7791,0.1515,38.2100,75,97,214136
1.8231,0.1662,37.9600,75,97,214140
1.7791,0.1564,38.2100,75,97,214144
1.7644,0.1515,38.2700,75,97,214147
1.7351,0.1466,38.1800,75,97,214151
1.7351,0.1564,38.2100,75,97,214154
1.7889,0.1613,38.0800,75,97,214157
1.8524,0.1564,38.1800,75,97,214160
1.9257,0.1564,38.0500,75,97,214164
2.0137,0.1515,37.8300,75,97,214167
2.1554,0.1515,38.2100,75,97,214170
2.3363,0.1515,38.1100,75,97,214174
2.5269,0.1515,38.2400,75,97,214177
2.7322,0.1564,38.0800,75,97,214180
2.7175,0.1515,38.2400,75,97,214184
2.6100,0.1564,38.2100,75,97,214188
2.4585,0.1613,38.1100,75,97,214191
2.2287,0.1857,38.2100,75,97,214194
2.0821,0.1564,37.9600,75,97,214198
1.9257,0.1564,38.1100,75,97,214201
1.8328,0.1515,38.1800,75,97,214204
1.7889,0.1564,38.1500,75,97,214208
1.7351,0.1515,38.2400,75,97,214211
1.7693,0.1564,37.9300,75,97,214214
1.7155,0.1711,38.0500,75,97,214218
1.6764,0.1515,38.1800,75,97,214221
1.6813,0.1515,38.1100,75,97,214225
1.6667,0.1564,38.2100,75,97,214228
1.6618,0.1564,38.2400,75,97,214232
1.6813,0.1613,38.1100,75,97,214236
1.6618,0.1564,38.1800,75,97,214239
1.6862,0.1564,38.0200,75,97,214242
1.6764,0.1515,38.2100,75,97,214246
1.6911,0.1515,38.4000,75,97,214249
1.7546,0.1613,38.1800,75,97,214252
1.7107,0.1515,38.2400,75,97,214255
1.7400,0.1564,38.0500,75,97,214259
1.7155,0.1466,38.1500,75,97,214262
1.7253,0.1515,38.2400,75,97,214265
1.7546,0.1613,38.1800,75,97,214269
1.7302,0.1564,38.2400,75,97,214273
1.7644,0.1564,37.9900,75,97,214276
1.7351,0.1564,38.1500,75,97,214280
1.7449,0.1515,38.2100,75,97,214283
1.7595,0.1515,38.1500,75,97,214286
1.7546,0.1564,38.1800,75,97,214290
1.7937,0.1613,38.1100,75,97,214293
1.7546,0.1515,38.1800,75,97,214296
1.7644,0.1515,38.2100,75,97,214299
1.7791,0.1564,38.1800,75,97,214303
1.7889,0.1564,38.2400,75,97,214306
1.8475,0.1760,37.9300,75,97,214309
1.8084,0.1564,38.1100,75,97,214313
1.8035,0.1466,38.1500,75,97,214317
1.8084,0.1564,38.1800,75,97,214320
1.7986,0.1564,38.2400,75,97,214324
1.8377,0.1613,38.0200,75,97,214327
1.8133,0.1564,38.1800,75,97,214330
1.8280,0.1515,37.7400,75,97,214334
1.8182,0.1564,38.2100,75,97,214337
1.8231,0.1515,38.1800,75,97,214340
1.8671,0.1760,38.0500,75,97,214343
1.8524,0.1564,38.1800,75,97,214347
1.8915,0.1564,38.0200,75,97,214350
1.8524,0.1515,38.0200,75,97,214353
1.8671,0.1515,38.2100,75,97,214358
1.8768,0.1564,38.1500,75,97,214361
1.8817,0.1564,38.3000,75,97,214364
1.9257,0.1564,38.0200,75,97,214368
1.9013,0.1515,38.2100,75,97,214371
1.9110,0.1466,38.2400,75,97,214374
1.9501,0.1564,38.1100,75,97,214377
1.9404,0.1564,38.2400,75,97,214381
2.0039,0.1564,37.9600,75,97,214384
1.9746,0.1564,38.1100,75,97,214387
1.9746,0.1515,38.2700,75,97,214391
1.9941,0.1564,38.1800,75,97,214394
1.9844,0.1515,38.3600,75,97,214397
2.0430,0.1564,37.9000,75,97,214402
2.0088,0.1515,38.1100,75,97,214405
2.0039,0.1515,38.2100,75,97,214408
2.0039,0.1564,38.1800,75,97,214412
1.9892,0.1564,38.2100,75,97,214415
2.0381,0.1711,37.9600,75,97,214418
1.9795,0.1613,38.1500,75,97,214421
1.9941,0.1320,38.1800,75,97,214425
1.9697,0.1564,38.1800,75,97,214428
1.9648,0.1564,38.2100,75,97,214431
1.9941,0.1662,38.1800,75,97,214435
1.9453,0.1564,38.1800,75,97,214438
1.9453,0.1564,38.0800,75,97,214441
1.9013,0.1515,38.2700,75,97,214446
1.8817,0.1564,38.2100,75,97,214449
1.9013,0.1613,38.0500,75,97,214452
1.8328,0.1515,38.1800,75,97,214455
1.8573,0.1613,38.0800,75,97,214459
1.7791,0.1466,38.2100,75,97,214462
1.7498,0.1515,38.1800,75,97,214465
1.7351,0.1515,38.1800,75,97,214469
1.7009,0.1515,38.1800,75,97,214472
1.7058,0.1515,38.0200,75,97,214475
1.6764,0.1515,38.1100,75,97,214479
1.6667,0.1466,38.2400,75,97,214482
1.6618,0.1564,38.1500,75,97,214486
1.6373,0.1515,38.1800,75,97,214490
1.6667,0.1662,37.9900,75,97,214493
1.6227,0.1515,38.1800,75,97,214496
1.6227,0.1515,38.2400,75,97,214499
1.6276,0.1564,38.2400,75,97,214503
1.6178,0.1515,38.1800,75,97,214506
1.6667,0.1613,37.9000,75,97,214509
1.6373,0.1515,38.0800,75,97,214513
1.6276,0.1466,38.1500,75,97,214516
1.6325,0.1515,38.1800,75,97,214519
1.6276,0.1515,38.2100,75,97,214523
1.6764,0.1662,37.9900,75,97,214526
1.6373,0.1515,38.1100,75,97,214530
1.6471,0.1564,38.0800,75,97,214534
1.6422,0.1515,38.2100,75,97,214537
1.6471,0.1515,38.1800,75,97,214540
1.6813,0.1564,38.0500,75,97,214543
1.6618,0.1564,38.1800,75,97,214547
1.6764,0.1515,38.0500,75,97,214550
1.6569,0.1662,38.1800,75,97,214553
1.6569,0.1515,38.2100,75,97,214557
1.6862,0.1564,38.1100,75,97,214560
1.6911,0.1564,38.1800,75,97,214563
1.7155,0.1564,38.0800,75,97,214567
1.7009,0.1564,38.2100,75,97,214571
1.7058,0.1515,38.2100,75,97,214574
1.7253,0.1613,38.0800,75,97,214578
1.7058,0.1515,38.2100,75,97,214581
1.7449,0.1515,37.9900,75,97,214584
1.7302,0.1564,38.0800,75,97,214587
1.7400,0.1515,38.2100,75,97,214591
1.7155,0.1564,38.0800,75,97,214594
1.7009,0.1515,38.2700,75,97,214597
1.7400,0.1564,37.9300,75,97,214601
1.7155,0.1564,38.1500,75,97,214604
1.7058,0.1515,38.2100,75,97,214607
1.7155,0.1564,38.1800,75,97,214611
1.7058,0.1515,38.2700,75,97,214615
1.7595,0.1906,37.9300,75,97,214618
1.7253,0.1515,38.1500,75,97,214621
1.7253,0.1466,37.4600,75,97,214625
1.7155,0.1564,38.1800,75,97,214628
1.7058,0.1515,38.3300,75,97,214631
1.7449,0.1613,38.0500,75,97,214635
1.7155,0.1564,38.1500,75,97,214638
1.7204,0.1515,38.0800,75,97,214641
1.7107,0.1564,38.2100,75,97,214645
1.7155,0.1515,38.2400,75,97,214648
1.7449,0.1564,38.0200,75,97,214651
1.7204,0.1515,38.3600,75,97,214656
1.7400,0.1564,38.0500,75,97,214659
1.7253,0.1417,38.2700,75,97,214662
1.7253,0.1515,38.2100,75,97,214665
1.7449,0.1711,38.0500,75,97,214669
1.7204,0.1515,38.1800,75,97,214672
1.7498,0.1515,38.1100,75,97,214675
1.7155,0.1466,38.1800,75,97,214679
1.7204,0.1515,38.1800,75,97,214682
1.7302,0.1906,38.1100,75,97,214685
1.7204,0.1515,38.1800,75,97,214689
1.7595,0.1515,38.0200,75,97,214692
1.7302,0.1564,38.2100,75,97,214695
1.7302,0.1515,38.1800,75,97,214700
1.7400,0.1564,38.1500,75,97,214703
1.7302,0.1515,38.2100,75,97,214706
1.7644,0.1515,37.2500,75,97,214709
1.7400,0.1564,38.0800,75,97,214713
1.7498,0.1515,38.2100,75,97,214716
1.7302,0.1906,38.2100,75,97,214719
1.7302,0.1564,38.1800,75,97,214723
1.7840,0.1711,38.0200,75,97,214726
1.7351,0.1613,38.1500,75,97,214729
1.7204,0.1417,38.1500,75,97,214733
1.7155,0.1515,38.3000,75,97,214736
1.7155,0.1662,38.2100,75,97,214739
1.7546,0.1613,38.0500,75,97,214744
1.7302,0.1515,38.0800,75,97,214747
1.7498,0.2004,38.1100,75,97,214750
1.7351,0.1564,38.2100,75,97,214753
1.7351,0.1515,38.1500,75,97,214757
1.7644,0.1613,38.1100,75,97,214760
1.7400,0.1515,38.2400,75,97,214763
1.7644,0.1564,38.0200,75,97,214767
1.7400,0.1515,38.2100,75,97,214770
1.7400,0.1515,38.3000,75,97,214773
1.7693,0.1613,38.1100,75,97,214777
1.7449,0.1515,38.1800,75,97,214780
1.7791,0.1564,38.0500,75,97,214784
1.7742,0.1564,38.1100,75,97,214788
1.7889,0.1515,38.1800,75,97,214791
1.8035,0.1564,38.1100,75,97,214794
1.7889,0.1515,38.2100,75,97,214797
1.8426,0.1515,37.9300,75,97,214801
1.8231,0.1613,38.1100,75,97,214804
1.8328,0.1515,38.2100,75,97,214807
1.8524,0.1564,38.1800,75,97,214811
1.8622,0.1417,38.1800,75,97,214814
1.8964,0.1564,37.9300,75,97,214817
1.8573,0.1515,38.1800,75,97,214821
1.8524,0.1466,38.1800,75,97,214824
1.8622,0.1515,38.1500,75,97,214828
1.8768,0.1417,38.2100,75,97,214832
1.8328,0.1466,38.1500,75,97,214835
1.8426,0.1760,38.0200,75,97,214839
1.7986,0.1515,38.1800,75,97,214842
1.8084,0.1564,38.1500,75,97,214845
1.7742,0.1662,38.2100,75,97,214848
1.7791,0.1515,38.2100,75,97,214852
1.7937,0.1564,38.1100,75,97,214855
1.7742,0.1515,38.2700,75,97,214858
1.7840,0.1515,38.0200,75,97,214862
1.7595,0.1515,38.1500,75,97,214865
1.7204,0.1515,38.2100,75,97,214868
1.7155,0.1711,38.1800,75,97,214873
1.6862,0.1515,38.2100,75,97,214876
1.7351,0.1564,37.9300,75,97,214879
1.6862,0.1466,38.1800,75,97,214883
1.6960,0.1466,38.2100,75,97,214886
1.7058,0.1613,38.1800,75,97,214889
1.6862,0.1515,38.4000,75,97,214893
1.7302,0.1662,37.9000,75,97,214896
1.7204,0.1564,38.1100,75,97,214899
1.6960,0.1466,38.1800,75,97,214902
1.7009,0.2004,38.2100,75,97,214906
1.7009,0.1466,38.2100,75,97,214909
1.7498,0.1662,38.0200,75,97,214913
1.7009,0.1515,38.1100,75,97,214917
1.7009,0.1466,38.0800,75,97,214920
1.7253,0.1417,38.1800,75,97,214923
1.7791,0.1515,38.2100,75,97,214927
1.9013,0.1662,38.0500,75,97,214930
1.9892,0.1417,38.1800,75,97,214933
2.1554,0.1515,38.0800,75,97,214936
2.2972,0.1515,38.1800,75,97,214940
2.5024,0.1466,38.2100,75,97,214943
2.6540,0.1515,38.4600,75,97,214946
2.6149,0.1515,38.2100,75,97,214950
2.5073,0.1564,38.1100,75,97,214953
2.2727,0.1515,38.1100,75,97,214957
2.0772,0.1417,38.1800,75,97,214961
1.9501,0.1564,38.1100,75,97,214964
1.8328,0.1466,38.2100,75,97,214967
1.8084,0.1564,38.0200,75,97,214970
1.7546,0.1466,38.3300,75,97,214974
1.7204,0.2004,38.1800,75,97,214977
1.7107,0.1515,38.1500,75,97,214980
1.6667,0.1515,38.2400,75,97,214984
1.6862,0.1564,37.9000,75,97,214987
1.6422,0.1466,37.9900,75,97,214990
1.6227,0.1515,38.1800,75,97,214994
1.6178,0.1515,38.1500,75,97,214998
1.6080,0.1466,38.2100,75,97,215001
1.6618,0.1662,37.9000,75,97,215005
1.6276,0.1515,38.0800,75,97,215008
1.6325,0.1466,38.2400,75,97,215011
1.6422,0.1515,38.1800,75,97,215014
1.6422,0.1466,38.2100,75,97,215018
1.7155,0.1662,37.9900,75,97,215021
1.6716,0.1515,38.1500,75,97,215024
1.7155,0.1417,38.0800,75,97,215028
1.6813,0.1515,38.2400,75,97,215031
1.7204,0.1417,38.1800,75,97,215034
1.7204,0.1564,38.0500,75,97,215038
1.6960,0.1466,38.1800,75,97,215042
1.7155,0.1515,38.0800,75,97,215045
1.6960,0.1466,38.2700,75,97,215049
1.7107,0.1466,38.2400,75,97,215052
1.7742,0.1564,38.1100,75,97,215055
1.7302,0.1466,38.2400,75,97,215058
1.7644,0.1466,38.0800,75,97,215062
1.7351,0.1417,38.2100,75,97,215065
1.7449,0.1466,38.2400,75,97,215068
1.7595,0.1515,38.1100,75,97,215072
1.7595,0.1466,38.2100,75,97,215075
1.7986,0.1564,37.9900,75,97,215078
1.7742,0.1515,38.2400,75,97,215083
1.7840,0.1466,38.1800,75,97,215086
1.7937,0.1515,38.2100,75,97,215089
1.7889,0.1466,38.1800,75,97,215093
1.8377,0.1564,38.2400,75,97,215096
1.8133,0.1564,38.1100,75,97,215099
1.8084,0.1466,38.2400,75,97,215102
1.8231,0.1515,38.2100,75,97,215106
1.8377,0.1466,38.2400,75,97,215109
1.9013,0.1662,38.0200,75,97,215112
1.8719,0.1564,38.1800,75,97,215116
1.8622,0.1417,38.1100,75,97,215119
1.8573,0.1515,38.1800,75,97,215122
1.8817,0.1466,38.2100,75,97,215127
1.9110,0.1515,38.0200,75,97,215130
1.8866,0.1515,38.1500,75,97,215133
1.9257,0.1466,38.0800,75,97,215137
1.9110,0.1466,38.2100,75,97,215140
1.9208,0.1613,38.2100,75,97,215143
1.9453,0.1564,38.1500,75,97,215146
1.9404,0.1515,38.2400,75,97,215150
1.9746,0.1515,38.0800,75,97,215153
1.9550,0.1466,38.2100,75,97,215156
1.9648,0.1466,38.2100,75,97,215160
2.0088,0.1613,38.0800,75,97,215163
1.9941,0.1466,38.1800,75,97,215166
2.0332,0.1466,38.0200,75,97,215171
2.0137,0.1515,38.1800,75,97,215174
2.0235,0.1466,38.1800,75,97,215177
2.0430,0.1662,38.1500,75,97,215180
2.0332,0.1369,38.2400,75,97,215184
2.0968,0.1564,37.9600,75,97,215187
2.0577,0.1515,38.1100,75,97,215190
2.0479,0.1466,38.4000,75,97,215194
2.0479,0.1613,38.1500,75,97,215197
2.0283,0.1320,38.2100,75,97,215200
2.0723,0.1564,37.9300,75,97,215204
2.0283,0.1466,38.2400,75,97,215207
2.0332,0.1466,38.2100,75,97,215211
2.0381,0.1515,38.1500,75,97,215214
2.0137,0.1369,38.1800,75,97,215218
2.0479,0.1613,37.9300,75,97,215221
1.9892,0.1515,38.1100,75,97,215224
1.9501,0.1417,38.1500,75,97,215228
1.9257,0.1515,38.1800,75,97,215231
1.8915,0.1466,38.2100,75,97,215234
1.9062,0.1564,37.9900,75,97,215238
1.8426,0.1515,38.2100,75,97,215241
1.8328,0.1711,38.0500,75,97,215244
1.8133,0.1466,38.2100,75,97,215247
1.7937,0.1466,38.2100,75,97,215251
1.7937,0.1808,38.1100,75,97,215255
1.7449,0.1564,38.2100,75,97,215258
1.7351,0.1515,38.0800,75,97,215262
1.6911,0.1515,38.1800,75,97,215265
1.6764,0.1466,38.2100,75,97,215268
1.6960,0.1417,38.1800,75,97,215272
1.6911,0.1466,38.1800,75,97,215275
1.7204,0.1466,38.0500,75,97,215278
1.7009,0.1808,38.3000,75,97,215282
1.7009,0.1466,38.2100,75,97,215285
1.7253,0.1515,38.0800,75,97,215288
1.7009,0.1515,38.2400,75,97,215291
1.7546,0.1417,37.9900,75,97,215296
1.7302,0.1466,38.0800,75,97,215299
1.7253,0.1466,38.2100,75,97,215302
1.7400,0.1515,38.1500,75,97,215306
1.7302,0.1124,38.2100,75,97,215309
1.7693,0.1515,37.9000,75,97,215312
1.7449,0.1320,38.1500,75,97,215316
1.7400,0.1417,38.2400,75,97,215319
1.7498,0.1466,38.1500,75,97,215322
1.7449,0.1417,38.2100,75,97,215325
1.8133,0.1613,37.8700,75,97,215329
1.7791,0.1466,38.1500,75,97,215332
1.7840,0.1417,38.1500,75,97,215335
1.7791,0.1417,38.1800,75,97,215340
1.7693,0.1466,38.2100,75,97,215343
1.8084,0.1515,38.0500,75,97,215346
1.8084,0.1417,38.1800,75,97,215350
1.7986,0.1466,38.0800,75,97,215353
1.7840,0.1466,38.1800,75,97,215356
1.7937,0.1124,38.2100,75,97,215360
1.8377,0.1515,37.9900,75,97,215363
1.8084,0.1417,38.1800,75,97,215366
1.8377,0.1466,38.0200,75,97,215369
1.8035,0.1466,38.1500,75,97,215373
1.8035,0.1466,38.2400,75,97,215376
1.8231,0.1515,38.1100,75,97,215379
1.8084,0.1466,38.3300,75,97,215384
1.8426,0.1466,38.0200,75,97,215387
1.8231,0.1369,38.1500,75,97,215390
1.8280,0.1417,38.4600,75,97,215394
1.8377,0.1613,38.1100,75,97,215397
1.8231,0.1466,38.2400,75,97,215400
1.8573,0.1466,37.9600,75,97,215404
1.8328,0.1417,38.2100,75,97,215407
1.8475,0.1515,38.2100,75,97,215410
1.8622,0.1515,38.1100,75,97,215413
1.8377,0.1417,38.1800,75,97,215417
1.8817,0.1564,37.9300,75,97,215420
1.8426,0.1662,38.0800,75,97,215424
1.8328,0.1369,38.2100,75,97,215428
1.8426,0.1466,38.1800,75,97,215431
1.8377,0.1417,38.1800,75,97,215434
1.8915,0.1613,37.9900,75,97,215438
1.8817,0.1515,38.1500,75,97,215441
1.8622,0.1466,38.2400,75,97,215445
1.8866,0.1515,38.0800,75,97,215448
1.8426,0.1417,38.2100,75,97,215451
1.8377,0.1417,38.2400,75,97,215455
1.8426,0.1417,38.1500,75,97,215458
1.8328,0.1417,38.2400,75,97,215461
1.8524,0.1466,38.0200,75,97,215464
1.8328,0.1417,38.2100,75,97,215469
1.8377,0.1417,38.2400,75,97,215472
1.8622,0.1417,38.1800,75,97,215475
1.8475,0.1417,38.2100,75,97,215479
1.8866,0.1760,37.9600,75,97,215482
1.8671,0.1466,38.0800,75,97,215485
1.8475,0.1417,38.3000,75,97,215489
1.8622,0.1466,38.1500,75,97,215492
1.8524,0.1417,38.2400,75,97,215495
1.9013,0.1564,37.8700,75,97,215499
1.8622,0.1417,38.1500,75,97,215502
1.8524,0.1369,38.5800,75,97,215505
1.8524,0.1466,38.1800,75,97,215508
1.8524,0.1417,38.1800,75,97,215513
1.9062,0.1613,38.0200,75,97,215516
1.8524,0.1466,38.1800,75,97,215519
1.8671,0.1417,38.1500,75,97,215523
1.8622,0.1515,38.2400,75,97,215526
1.8671,0.1417,38.2100,75,97,215529
1.9062,0.1466,38.0800,75,97,215533
1.8817,0.1466,38.1800,75,97,215536
1.8964,0.1417,38.1100,75,97,215539
1.8768,0.1417,38.1800,75,97,215543
1.8768,0.1417,38.3600,75,97,215546
1.9159,0.1515,38.0500,75,97,215549
1.9013,0.1417,38.2400,75,97,215553
1.9355,0.1515,38.0800,75,97,215557
1.9159,0.1417,38.1500,75,97,215560
1.9257,0.1417,38.2100,75,97,215563
1.9501,0.1466,38.1100,75,97,215567
1.9501,0.1320,38.2100,75,97,215570
1.9892,0.1417,37.9900,75,97,215573
1.9697,0.1466,38.1800,75,97,215577
1.9648,0.1417,38.1800,75,97,215580
1.9746,0.1466,38.1500,75,97,215583
1.9697,0.1369,38.2100,75,97,215587
2.0332,0.1515,37.9300,75,97,215590
1.9990,0.1369,38.1800,75,97,215593
2.0283,0.1320,38.2100,75,97,215597
2.0332,0.1466,38.1800,75,97,215601
2.0088,0.1417,38.2400,75,97,215604
2.0479,0.1515,37.9000,75,97,215607
1.9892,0.1320,38.1800,75,97,215611
1.9550,0.1369,38.1800,75,97,215614
1.9404,0.1369,38.1800,75,97,215617
1.9208,0.1417,38.2100,75,97,215621
1.9648,0.1515,37.9900,75,97,215624
1.9159,0.1417,38.1800,75,97,215627
1.9159,0.1369,38.0800,75,97,215630
1.9062,0.1369,38.1800,75,97,215634
1.9110,0.1417,38.2100,75,97,215638
1.9208,0.1515,38.0200,75,97,215641
1.8719,0.1466,38.2100,75,97,215645
1.8866,0.1320,38.0500,75,97,215648
1.8426,0.1417,38.2400,75,97,215651
1.8426,0.1466,38.2100,75,97,215655
1.8426,0.1417,38.1500,75,97,215658
1.8182,0.1369,38.2400,75,97,215661
1.8377,0.1320,38.1100,75,97,215665
1.8035,0.1369,38.2100,75,97,215668
1.8035,0.1369,38.2100,75,97,215671
1.8328,0.1466,38.1100,75,97,215674
1.8328,0.1369,38.1800,75,97,215678
1.8671,0.1417,37.9900,75,97,215682
1.8475,0.1466,38.2400,75,97,215685
1.8328,0.1320,38.2100,75,97,215689
1.8377,0.1515,38.1500,75,97,215692
1.8182,0.1417,38.2100,75,97,215695
1.8866,0.1466,37.8700,75,97,215699
1.9013,0.1369,38.1100,75,97,215702
1.9599,0.1369,38.2100,75,97,215705
2.0626,0.1417,38.2400,75,97,215709
2.1945,0.1417,38.2700,75,97,215712
2.4194,0.1564,37.9300,75,97,215715
2.5660,0.1466,38.1500,75,97,215718
2.7810,0.1320,38.1100,75,97,215723
2.8201,0.1417,38.1800,75,97,215726
2.7273,0.1417,38.2100,75,97,215729
2.6100,0.1515,38.0500,75,97,215733
2.3656,0.1417,38.1800,75,97,215736
2.1799,0.1369,38.1100,75,97,215739
2.0137,0.1417,38.1800,75,97,215743
1.9159,0.1369,38.2100,75,97,215746
1.8964,0.1417,38.0200,75,97,215749
1.8377,0.1417,38.1800,75,97,215753
1.8328,0.1417,38.0200,75,97,215756
1.7840,0.1320,38.2100,75,97,215759
1.7644,0.1369,38.2400,75,97,215762
1.7693,0.1466,38.1100,75,97,215767
1.7400,0.1369,38.2100,75,97,215770
1.7693,0.1369,38.1100,75,97,215773
1.7546,0.1320,38.1800,75,97,215777
1.7644,0.1369,38.2400,75,97,215780
1.7791,0.1417,38.1500,75,97,215783
1.8035,0.1417,38.1800,75,97,215787
1.7986,0.1417,37.9600,75,97,215790
1.7644,0.1417,38.2100,75,97,215793
1.7693,0.1369,38.2100,75,97,215797
1.7889,0.1515,38.1500,75,97,215800
1.7742,0.1369,38.2100,75,97,215803
1.8328,0.1515,37.9000,75,97,215806
1.8328,0.1466,38.1500,75,97,215811
1.7986,0.1320,38.1800,75,97,215814
1.8182,0.1417,38.2100,75,97,215817
1.8084,0.1369,38.1800,75,97,215821
1.8768,0.1515,38.0200,75,97,215824
1.8328,0.1466,38.1800,75,97,215827
1.8475,0.1369,38.1100,75,97,215831
1.8573,0.1320,38.2100,75,97,215834
1.8719,0.1369,38.2100,75,97,215837
1.9062,0.1466,38.1100,75,97,215841
1.8866,0.1417,38.1800,75,97,215844
1.8964,0.1417,38.0500,75,97,215847
1.8719,0.1369,38.2100,75,97,215851
1.8768,0.1369,38.2100,75,97,215855
1.9062,0.1466,38.1500,75,97,215858
1.8964,0.1417,38.1800,75,97,215861
1.9257,0.1320,38.0800,75,97,215865
1.8915,0.1613,38.2100,75,97,215868
1.8964,0.1369,38.2100,75,97,215871
1.9306,0.1466,38.1100,75,97,215875
1.9110,0.1369,38.1800,75,97,215878
1.9550,0.1124,38.0500,75,97,215881
1.9404,0.1369,38.1100,75,97,215885
1.9453,0.1515,38.2100,75,97,215888
1.9697,0.1466,38.0200,75,97,215891
1.9550,0.1613,38.2100,75,97,215895
2.0186,0.1417,37.9300,75,97,215899
1.9746,0.1369,38.1500,75,97,215902
1.9648,0.1466,38.2100,75,97,215905
1.9746,0.1124,38.2100,75,97,215909
1.9697,0.1369,38.2700,75,97,215912
2.0332,0.1417,37.9000,75,97,215915
1.9990,0.1369,38.1800,75,97,215919
2.0039,0.1320,38.1500,75,97,215922
2.0137,0.1760,38.1800,75,97,215925
2.0186,0.1369,38.2100,75,97,215928
2.0870,0.1515,38.4000,75,97,215932
2.0577,0.1417,38.1500,75,97,215936
2.0723,0.1369,38.1800,75,97,215939
2.0821,0.1369,38.1100,75,97,215943
2.0919,0.1613,38.2400,75,97,215946
2.1701,0.1466,38.0200,75,97,215949
2.1114,0.1369,38.1800,75,97,215953
2.1261,0.1711,38.0500,75,97,215956
2.1017,0.1124,38.2100,75,97,215959
2.0968,0.1124,38.2100,75,97,215962
2.1212,0.1417,38.1100,75,97,215966
2.1017,0.1369,38.1800,75,97,215969
2.1457,0.1417,38.0800,75,97,215972
2.1114,0.1417,38.1800,75,97,215976
2.1114,0.1320,38.2100,75,97,215980
2.1212,0.1369,38.0800,75,97,215983
2.1017,0.1369,38.1800,75,97,215987
2.1163,0.1369,37.9900,75,97,215990
2.0674,0.1369,38.2100,75,97,215993
2.0528,0.1369,38.2100,75,97,215997
2.0528,0.1417,38.0800,75,97,216000
2.0088,0.1369,38.3000,75,97,216003
2.0283,0.1417,37.9000,75,97,216006
1.9746,0.1417,38.1100,75,97,216010
1.9404,0.1369,38.2100,75,97,216013
1.9208,0.1515,38.1500,75,97,216016
1.9110,0.1369,38.2100,75,97,216020
1.9110,0.1417,37.9300,75,97,216024
1.8426,0.1369,38.1100,75,97,216027
1.8133,0.1271,38.1800,75,97,216031
1.7986,0.1613,38.1800,75,97,216034
1.7791,0.1369,38.2100,75,97,216037
1.8133,0.1515,37.9600,75,97,216040
1.7498,0.1320,38.1800,75,97,216044
1.7546,0.1320,38.2100,75,97,216047
1.7400,0.1515,38.2400,75,97,216050
1.7400,0.1369,38.2100,75,97,216054
1.7449,0.1417,38.2100,75,97,216057
1.7840,0.1417,38.1800,75,97,216061
1.7644,0.1369,38.1800,75,97,216065
1.7889,0.1369,38.0800,75,97,216068
1.7644,0.1320,38.2100,75,97,216072
1.7644,0.1515,38.2100,75,97,216075
1.7840,0.1417,38.2700,75,97,216078
1.7791,0.1515,38.2100,75,97,216082
1.8280,0.1320,37.9300,75,97,216085
1.8035,0.1369,38.0500,75,97,216088
1.7937,0.1320,38.1800,75,97,216091
1.8328,0.1369,38.1500,75,97,216095
1.7937,0.1320,38.2400,75,97,216098
1.8328,0.1417,37.9000,75,97,216101
1.7889,0.1124,38.1800,75,97,216105
1.7889,0.1271,38.2100,75,97,216109
1.8280,0.1369,38.1800,75,97,216112
1.8035,0.1320,38.2100,75,97,216116
1.8719,0.1515,37.9300,75,97,216119
1.8475,0.1124,38.1100,75,97,216122
1.8328,0.1320,38.1100,75,97,216126
1.8133,0.1320,38.1800,75,97,216129
1.8133,0.1124,38.2100,75,97,216132
1.8475,0.1417,38.0200,75,97,216135
1.8231,0.1369,38.1800,75,97,216139
1.8426,0.1369,38.0500,75,97,216142
1.8231,0.1369,38.2100,75,97,216145
1.8182,0.1320,38.2400,75,97,216150
1.8328,0.1417,38.1100,75,97,216153
1.8084,0.1369,38.2100,75,97,216156
1.8328,0.1417,38.0800,75,97,216160
1.8182,0.1320,38.1500,75,97,216163
1.8426,0.1320,38.2100,75,97,216166
1.8328,0.1320,38.2400,75,97,216170
1.8280,0.1369,38.2400,75,97,216173
1.8768,0.1320,38.0200,75,97,216176
1.8182,0.1320,38.2100,75,97,216179
1.8182,0.1222,38.2100,75,97,216183
1.8328,0.1417,37.9900,75,97,216186
1.8084,0.1369,38.2100,75,97,216189
1.8426,0.1369,37.9300,75,97,216194
1.8182,0.1369,38.0500,75,97,216197
1.8035,0.1369,38.2100,75,97,216200
1.8133,0.1417,38.1800,75,97,216204
1.8084,0.1320,38.2100,75,97,216207
1.8524,0.1466,37.9300,75,97,216210
1.8133,0.1320,38.1500,75,97,216214
1.8035,0.1271,38.1500,75,97,216217
1.8084,0.1320,38.1500,75,97,216220
1.8084,0.1369,38.2100,75,97,216223
1.8573,0.1515,38.0500,75,97,216227
1.8084,0.1320,38.2400,75,97,216230
1.8182,0.1320,38.0800,75,97,216233
1.8084,0.1320,38.2100,75,97,216238
1.8084,0.1320,38.3000,75,97,216241
1.8377,0.1515,38.0200,75,97,216244
1.8133,0.1369,38.1800,75,97,216248
1.8280,0.1320,38.0500,75,97,216251
1.8035,0.1369,38.1800,75,97,216254
1.8377,0.1320,38.2100,75,97,216257
1.8377,0.1417,38.0500,75,97,216261
1.8084,0.1369,38.2400,75,97,216264
1.8475,0.1320,38.0500,75,97,216267
1.8133,0.1271,38.1500,75,97,216271
1.8133,0.1662,38.1800,75,97,216274
1.8280,0.1369,38.1100,75,97,216278
1.8084,0.1613,38.2100,75,97,216282
1.8377,0.1320,37.9900,75,97,216285
1.8084,0.1320,38.1500,75,97,216288
1.8035,0.1320,38.1800,75,97,216291
1.8133,0.1369,38.1500,75,97,216295
1.8084,0.1320,38.2100,75,97,216298
1.8524,0.1515,37.9300,75,97,216301
1.8182,0.1320,38.1800,75,97,216305
1.8328,0.1320,38.2400,75,97,216308
1.8475,0.1320,38.1500,75,97,216311
1.8280,0.1320,38.2400,75,97,216315
1.8719,0.1417,37.9300,75,97,216318
1.8377,0.1369,38.1100,75,97,216322
1.8280,0.1271,37.9000,75,97,216326
1.8377,0.1369,38.1800,75,97,216329
1.8524,0.1320,38.2100,75,97,216332
1.9110,0.1417,37.9600,75,97,216335
1.8866,0.1369,38.1500,75,97,216339
1.9013,0.1320,38.0800,75,97,216342
1.8964,0.1320,38.1100,75,97,216345
1.9013,0.1369,38.1800,75,97,216349
1.9355,0.1417,38.0500,75,97,216352
1.9110,0.1369,38.2100,75,97,216355
1.9306,0.1417,38.0500,75,97,216359
1.9110,0.1320,38.2100,75,97,216363
1.9257,0.1466,38.2400,75,97,216366
1.9404,0.1320,38.1500,75,97,216370
1.9306,0.1320,38.1800,75,97,216373
1.9550,0.1369,37.8700,75,97,216376
1.9208,0.1320,38.1100,75,97,216379
1.9159,0.1320,38.1800,75,97,216383
1.9257,0.1320,38.1100,75,97,216386
1.8866,0.1320,38.2100,75,97,216389
1.8964,0.1369,37.9600,75,97,216393
1.8622,0.1369,38.1100,75,97,216396
1.8426,0.1320,38.2100,75,97,216399
1.8475,0.1369,38.2100,75,97,216403
1.8280,0.1320,38.2100,75,97,216407
1.8622,0.1417,38.1500,75,97,216410
1.8035,0.1320,38.1100,75,97,216414
1.7840,0.1320,38.1800,75,97,216417
1.7742,0.1613,38.1800,75,97,216420
1.7644,0.1320,38.2100,75,97,216423
1.8035,0.1515,37.9600,75,97,216427
1.7693,0.1320,38.2100,75,97,216430
1.7449,0.1271,38.1500,75,97,216433
1.7498,0.1369,38.1800,75,97,216437
1.7546,0.1320,38.2400,75,97,216440
1.8035,0.1466,38.0800,75,97,216443
1.7840,0.1369,38.1800,75,97,216448
1.7937,0.1320,38.0800,75,97,216451
1.7742,0.1271,38.2100,75,97,216454
1.7791,0.1320,38.2100,75,97,216457
1.8133,0.1417,38.0200,75,97,216461
1.7742,0.1369,38.1800,75,97,216464
1.7840,0.1369,38.0500,75,97,216467
1.7449,0.1320,38.3000,75,97,216471
1.7693,0.1320,38.2400,75,97,216474
1.8573,0.1369,38.1100,75,97,216477
1.9208,0.1320,38.2100,75,97,216481
2.0772,0.1320,38.0500,75,97,216484
2.1848,0.1271,38.1500,75,97,216487
2.3558,0.1124,38.2100,75,97,216491
2.5855,0.1369,38.0800,75,97,216495
2.7126,0.1320,38.2100,75,97,216498
2.7566,0.1369,38.0200,75,97,216501
2.5513,0.1320,38.2400,75,97,216505
2.3558,0.1369,38.2100,75,97,216508
2.1701,0.1417,38.1500,75,97,216511
1.9746,0.1320,38.3000,75,97,216515
1.9453,0.1417,37.9300,75,97,216518
1.8231,0.1369,38.1100,75,97,216521
1.7693,0.1320,38.2100,75,97,216525
1.7449,0.1369,38.2100,75,97,216528
1.7107,0.1613,38.1800,75,97,216531
1.7498,0.1320,37.9600,75,97,216535
1.6813,0.1760,38.1500,75,97,216539
1.6911,0.1320,38.1500,75,97,216542
1.6667,0.1320,38.0500,75,97,216545
1.6667,0.1271,38.1800,75,97,216549
1.7009,0.1320,38.0500,75,97,216552
1.6813,0.1369,38.1800,75,97,216555
1.6960,0.1320,38.2100,75,97,216559
1.6911,0.1515,38.2100,75,97,216562
1.6960,0.1320,38.2400,75,97,216565
1.7204,0.1613,38.1100,75,97,216569
1.7107,0.1369,38.1800,75,97,216572
1.7302,0.1369,38.0500,75,97,216576
1.7058,0.1369,38.2400,75,97,216579
1.7155,0.1320,38.2100,75,97,216583
1.7498,0.1417,38.1500,75,97,216586
1.7302,0.1320,38.2100,75,97,216589
1.7595,0.1320,37.6500,75,97,216593
1.7449,0.1369,38.1100,75,97,216596
1.7449,0.1124,38.1800,75,97,216599
1.7742,0.1369,38.1100,75,97,216603
1.7595,0.1369,38.1800,75,97,216606
1.8084,0.1369,37.9600,75,97,216609
1.7840,0.1466,38.1500,75,97,216613
1.7791,0.1320,38.2400,75,97,216616
1.7937,0.1369,38.1800,75,97,216620
1.7840,0.1320,38.1800,75,97,216623
1.8280,0.1417,37.9000,75,97,216627
1.7840,0.1320,38.2100,75,97,216630
1.7889,0.1320,38.2400,75,97,216633
1.7986,0.1369,38.2400,75,97,216637
1.8035,0.1320,38.2100,75,97,216640
1.8866,0.1515,37.9900,75,97,216643
1.8377,0.1369,38.1500,75,97,216647
1.8377,0.1271,38.0200,75,97,216650
1.8426,0.1369,38.2100,75,97,216653
1.8573,0.1320,37.7700,75,97,216656
1.9013,0.1466,38.0200,75,97,216660
1.9355,0.1515,38.1100,75,97,216665
1.9257,0.1320,38.2100,75,97,216669
1.9501,0.1320,38.0200,75,97,216672
1.9257,0.1271,38.1500,75,97,216675
1.9257,0.1320,38.2100,75,97,216679
1.9404,0.1369,38.1800,75,97,216682
1.9355,0.1320,38.1800,75,97,216685
1.9892,0.1369,37.9000,75,97,216689
1.9599,0.1417,38.2100,75,97,216692
1.9697,0.1320,38.2100,75,97,216695
1.9941,0.1369,38.1500,75,97,216699
1.9844,0.1320,38.2100,75,97,216702
2.0430,0.1417,37.9000,75,97,216706
2.0186,0.1369,38.1500,75,97,216709
2.0186,0.1369,38.2100,75,97,216713
2.0332,0.1369,38.2100,75,97,216716
2.0332,0.1320,38.2100,75,97,216719
2.1017,0.1466,37.9300,75,97,216723
2.0577,0.1369,38.1800,75,97,216726
2.0626,0.1271,38.1500,75,97,216729
2.0626,0.1369,38.1800,75,97,216733
2.0674,0.1320,38.2100,75,97,216736
2.1163,0.1466,38.0500,75,97,216739
2.0723,0.1417,38.2100,75,97,216742
2.0772,0.1369,38.1800,75,97,216747
2.0479,0.1320,38.2400,75,97,216750
2.0283,0.1320,38.1100,75,97,216753
2.0479,0.1515,38.1100,75,97,216757
2.0332,0.1320,38.1800,75,97,216760
2.0088,0.1320,38.0500,75,97,216763
1.9550,0.1320,38.2400,75,97,216767
1.9306,0.1369,38.2100,75,97,216770
1.9355,0.1417,38.0500,75,97,216773
1.8719,0.1369,38.2700,75,97,216776
1.8817,0.1369,38.0800,75,97,216780
1.8035,0.1320,38.1500,75,97,216783
1.7889,0.1320,38.1800,75,97,216786
1.7840,0.1369,38.0800,75,97,216791
1.7546,0.1320,38.2700,75,97,216794
1.7693,0.1613,38.0500,75,97,216797
1.7302,0.1320,38.1100,75,97,216801
1.7107,0.1320,38.2700,75,97,216804
1.7107,0.1320,38.2100,75,97,216807
1.7009,0.1320,38.2100,75,97,216810
1.7449,0.1417,37.9300,75,97,216814
1.7107,0.1320,38.1800,75,97,216817
1.7204,0.1320,38.2700,75,97,216820
1.7155,0.1369,38.2400,75,97,216824
1.7107,0.1369,38.2100,75,97,216827
1.7595,0.1466,37.9900,75,97,216830
1.7302,0.1515,38.0800,75,97,216835
1.7204,0.1271,38.1500,75,97,216838
1.7253,0.1320,38.2100,75,97,216841
1.7302,0.1320,38.2100,75,97,216845
1.7840,0.1417,38.0200,75,97,216848
1.7595,0.1369,38.1500,75,97,216851
1.7693,0.1369,38.0800,75,97,216854
1.7546,0.1320,37.4900,75,97,216858
1.7693,0.1320,38.2100,75,97,216861
1.8084,0.1320,38.0500,75,97,216864
1.7791,0.1320,38.1800,75,97,216868
1.7986,0.1369,37.4300,75,97,216871
1.7840,0.1369,38.2100,75,97,216875
1.7889,0.1320,38.2700,75,97,216879
1.8035,0.1515,38.1500,75,97,216882
1.7986,0.1369,38.1800,75,97,216885
1.8231,0.1320,38.0800,75,97,216888
1.7937,0.1320,38.2400,75,97,216892
1.7986,0.1369,38.2100,75,97,216895
1.8231,0.1417,38.2100,75,97,216898
1.7937,0.1320,38.2100,75,97,216902
1.8280,0.1369,37.9600,75,97,216905
1.8182,0.1369,38.0800,75,97,216908
1.8182,0.1320,38.2100,75,97,216912
1.8328,0.1417,38.1500,75,97,216915
1.8231,0.1320,38.2100,75,97,216919
1.8622,0.1417,37.9300,75,97,216923
1.8573,0.1320,38.1100,75,97,216926
1.8280,0.1320,38.2100,75,97,216929
1.8328,0.1369,38.1800,75,97,216932
1.8475,0.1369,38.2100,75,97,216936
1.8866,0.1515,37.9300,75,97,216939
1.8426,0.1369,38.1500,75,97,216942
1.8426,0.1320,38.1500,75,97,216946
1.8377,0.1320,38.1800,75,97,216949
1.8377,0.1320,38.2100,75,97,216952
1.8719,0.1466,38.1100,75,97,216956
1.8426,0.1369,38.1800,75,97,216960
1.8524,0.1320,38.0800,75,97,216963
1.8475,0.1369,38.2100,75,97,216967
1.8573,0.1124,38.2100,75,97,216970
1.8915,0.1417,38.0200,75,97,216973
1.8524,0.1369,38.1800,75,97,216976
1.8719,0.1417,38.0800,75,97,216980
1.8328,0.1320,38.3300,75,97,216983
1.8231,0.1369,38.2700,75,97,216986
1.8426,0.1417,38.1500,75,97,216990
1.8280,0.1369,38.2100,75,97,216993
1.8573,0.1124,38.0200,75,97,216996
1.8377,0.1320,38.4000,75,97,217000
1.8475,0.1417,38.2100,75,97,217004
1.8377,0.1369,38.0200,75,97,217007
1.8231,0.1564,38.2400,75,97,217011
1.8671,0.1369,37.9600,75,97,217014
1.8231,0.1320,38.3300,75,97,217017
1.8280,0.1222,38.2100,75,97,217020
1.8475,0.1369,38.2100,75,97,217024
1.8377,0.1369,38.2100,75,97,217027
1.8915,0.1417,37.9000,75,97,217030
1.8671,0.1369,38.1100,75,97,217034
1.8475,0.1271,38.1800,75,97,217037
1.8328,0.1613,38.1800,75,97,217040
1.8426,0.1369,38.2100,75,97,217044
1.8817,0.1466,38.0800,75,97,217048
1.8622,0.1369,38.1800,75,97,217051
1.8573,0.1320,38.0800,75,97,217055
1.8524,0.1320,38.2100,75,97,217058
1.8524,0.1320,38.1800,75,97,217061
1.8915,0.1369,38.0500,75,97,217064
1.8573,0.1320,38.2100,75,97,217068
1.8768,0.1369,38.0800,75,97,217071
1.8524,0.1320,38.2100,75,97,217074
1.8475,0.1320,38.2100,75,97,217078
1.8524,0.1369,38.1500,75,97,217081
1.8426,0.1320,38.1800,75,97,217084
1.8524,0.1417,38.0800,75,97,217089
1.8280,0.1369,38.2400,75,97,217092
1.8377,0.1320,38.2100,75,97,217095
1.8573,0.1417,37.8300,75,97,217099
1.8328,0.1320,38.2100,75,97,217102
1.8622,0.1369,38.0800,75,97,217105
1.8475,0.1369,38.0800,75,97,217108
1.8426,0.1320,38.2400,75,97,217112
1.8719,0.1417,38.1100,75,97,217115
1.8719,0.1320,38.2100,75,97,217118
1.9257,0.1417,37.9900,75,97,217122
1.9306,0.1369,38.1800,75,97,217125
1.9208,0.1124,38.2100,75,97,217128
1.9404,0.1369,38.1100,75,97,217133
1.9453,0.1369,38.2100,75,97,217136
1.9990,0.1417,37.9600,75,97,217139
1.9501,0.1369,38.1800,75,97,217143
1.9501,0.1369,38.1500,75,97,217146
1.9599,0.1369,38.2400,75,97,217149
1.9746,0.1124,38.1800,75,97,217152
2.0283,0.1466,37.9000,75,97,217156
1.9844,0.1369,38.3300,75,97,217159
1.9795,0.1369,38.0800,75,97,217162
1.9501,0.1320,37.4900,75,97,217166
1.9453,0.1369,38.2100,75,97,217169
1.9746,0.1417,38.0200,75,97,217172
1.9159,0.1417,38.1800,75,97,217177
1.9208,0.1320,38.0500,75,97,217180
1.8671,0.1320,38.2100,75,97,217183
1.8475,0.1320,38.2700,75,97,217186
1.8768,0.1320,38.0800,75,97,217190
1.8377,0.1369,38.2400,75,97,217193
1.8573,0.1320,38.0500,75,97,217196
1.8133,0.1320,38.1800,75,97,217200
1.8084,0.1369,38.2100,75,97,217203
1.8084,0.1369,38.1800,75,97,217206
1.7937,0.1369,38.2400,75,97,217210
1.8182,0.1369,37.9900,75,97,217213
1.7791,0.1369,38.2100,75,97,217217
1.7986,0.1320,38.2100,75,97,217221
1.8035,0.1417,38.1500,75,97,217224
1.7889,0.1271,38.2100,75,97,217227
1.8377,0.1417,37.9300,75,97,217230
1.8035,0.1369,38.1100,75,97,217234
1.7791,0.1369,38.2100,75,97,217237
1.7791,0.1369,38.1800,75,97,217240
1.7693,0.1369,38.2100,75,97,217244
1.8231,0.1515,37.9300,75,97,217247
1.8035,0.1417,38.1500,75,97,217250
1.7595,0.1320,38.2100,75,97,217254
1.7498,0.1369,38.3300,75,97,217257
1.7644,0.1222,38.2100,75,97,217261
1.8475,0.1417,38.0500,75,97,217265
1.8915,0.1369,38.1800,75,97,217268
2.0381,0.1369,38.1800,75,97,217271
2.1457,0.1369,38.1800,76,97,217274
2.5562,0.1320,38.2700,76,97,217279
2.3754,0.1369,38.2100,76,97,217282
2.2092,0.1369,38.1100,76,97,217286
2.0088,0.1320,38.2100,76,97,217289
1.9453,0.1369,37.9600,76,97,217292
1.8768,0.1320,38.1100,76,97,217296
1.8328,0.1320,38.2700,76,97,217299
1.8231,0.1417,38.1500,76,97,217303
1.7840,0.1320,38.4000,76,97,217307
1.7937,0.1515,37.9000,76,97,217310
1.7253,0.1369,38.1800,76,97,217313
1.6862,0.1320,38.2100,76,97,217317
1.6716,0.1124,38.1800,76,97,217320
1.6618,0.1320,38.3300,76,97,217323
1.7058,0.1515,37.9300,76,97,217326
1.6569,0.1369,38.1500,76,97,217330
1.6667,0.1271,38.1500,76,97,217333
1.6667,0.1369,38.1800,76,97,217336
1.6667,0.1320,38.2400,76,97,217340
1.7155,0.1320,38.0800,76,97,217344
1.6813,0.1417,38.1800,76,97,217347
1.6960,0.1369,38.0800,76,97,217351
1.6911,0.1369,38.1800,76,97,217354
1.7058,0.1320,38.1500,76,97,217357
1.7498,0.1711,38.0200,76,97,217361
1.7302,0.1369,38.1800,76,97,217364
1.7595,0.1417,38.1100,76,97,217367
1.7644,0.1320,38.1800,76,97,217370
1.7449,0.1320,38.2100,76,97,217374
1.7742,0.1417,38.1800,76,97,217377
1.7595,0.1369,38.2100,76,97,217380
1.7840,0.1369,38.0200,76,97,217384
1.7937,0.1320,38.1500,76,97,217388
1.7742,0.1320,38.2100,76,97,217391
1.7840,0.1662,38.1500,76,97,217395
1.7693,0.1320,38.2100,76,97,217398
1.8035,0.1417,37.2800,76,97,217401
1.7742,0.1320,38.2100,76,97,217405
1.7791,0.1320,38.2100,76,97,217408
1.7937,0.1466,38.1500,76,97,217411
1.7937,0.1320,38.1100,76,97,217415
1.8524,0.1515,37.9000,76,97,217418
1.8231,0.1369,38.1500,76,97,217421
1.8133,0.1271,38.1500,76,97,217424
1.8231,0.1369,38.1800,76,97,217428
1.8231,0.1369,38.2400,76,97,217432
1.8915,0.1124,37.9900,76,97,217435
1.8573,0.1711,38.1500,76,97,217439
1.8622,0.1369,38.1100,76,97,217442
1.8524,0.1369,38.2100,76,97,217445
1.8573,0.1417,38.2100,76,97,217449
1.8964,0.1417,38.1500,76,97,217452
1.8817,0.1662,38.2100,76,97,217455
1.9306,0.1320,38.0500,76,97,217459
1.9110,0.1320,38.2100,76,97,217462
1.9208,0.1320,38.2400,76,97,217465
1.9404,0.1417,38.1800,76,97,217468
1.9306,0.1369,38.1800,76,97,217473
1.9599,0.1320,38.0800,76,97,217476
1.9306,0.1320,38.2100,76,97,217479
1.9355,0.1320,38.2100,76,97,217483
1.9697,0.1515,38.0800,76,97,217486
1.9599,0.1320,38.2100,76,97,217489
2.0088,0.1369,37.5300,76,97,217493
2.0039,0.1417,38.0800,76,97,217496
2.0039,0.1613,38.2100,76,97,217499
2.0332,0.1417,38.1500,76,97,217502
2.0235,0.1320,38.2400,76,97,217506
2.0772,0.1369,37.9300,76,97,217509
2.0479,0.1369,38.1500,76,97,217512
2.0430,0.1320,38.0800,76,97,217517
2.0528,0.1369,37.8000,76,97,217520
2.0430,0.1320,38.2100,76,97,217523
2.0968,0.1466,37.8700,76,97,217527
2.0479,0.1320,38.1500,76,97,217530
2.0528,0.1222,38.1800,76,97,217533
2.0528,0.1662,38.2400,76,97,217536
2.0381,0.1124,38.2100,76,97,217540
2.0772,0.1515,37.8700,76,97,217543
2.0088,0.1417,38.1500,76,97,217546
1.9892,0.1369,38.1100,76,97,217550
1.9355,0.1320,38.1500,76,97,217553
1.9208,0.1417,38.2100,76,97,217556
1.9159,0.1417,38.0500,76,97,217561
1.8573,0.1564,38.2400,76,97,217564
1.8475,0.1369,38.0800,76,97,217567
1.7986,0.1320,38.2100,76,97,217570
1.7840,0.1515,38.1500,76,97,217574
1.7889,0.1466,38.0500,76,97,217577
1.7449,0.1320,38.2100,76,97,217580
1.7546,0.1417,38.1100,76,97,217584
1.7253,0.1369,38.1800,76,97,217587
1.7058,0.1320,38.3300,76,97,217590
1.7107,0.1369,38.1500,76,97,217594
1.7107,0.1320,38.2100,76,97,217597
1.7302,0.1369,38.0800,76,97,217601
1.7058,0.1320,38.1800,76,97,217605
1.7009,0.1320,38.2100,76,97,217608
1.7107,0.1417,38.3600,76,97,217611
1.7302,0.1417,38.2100,76,97,217614
1.7351,0.1369,37.9600,76,97,217618
1.7155,0.1662,38.1100,76,97,217621
1.7009,0.1320,38.2100,76,97,217624
1.7107,0.1369,38.0800,76,97,217628
1.7009,0.1564,38.2100,76,97,217631
1.7498,0.1466,37.9000,76,97,217634
1.7204,0.1369,38.1100,76,97,217638
1.7155,0.1271,38.1800,76,97,217641
1.7253,0.1369,38.1800,76,97,217645
1.7302,0.1320,38.1800,76,97,217648
1.7889,0.1564,37.9900,76,97,217652
1.7498,0.1320,38.1800,76,97,217655
1.7644,0.1320,38.0800,76,97,217658
1.7644,0.1613,38.1800,76,97,217662
1.7644,0.1320,38.2700,76,97,217665
1.7937,0.1711,38.0800,76,97,217668
1.7791,0.1369,38.1800,76,97,217672
1.8035,0.1369,38.0800,76,97,217675
1.7889,0.1369,38.1800,76,97,217678
1.7937,0.1369,38.2100,76,97,217681
1.8328,0.1417,38.0800,76,97,217686
1.7937,0.1320,38.2400,76,97,217689
1.8182,0.1417,38.1500,76,97,217692
1.7889,0.1417,38.1800,76,97,217696
1.7986,0.1320,38.2400,76,97,217699
1.8133,0.1515,38.0800,76,97,217702
1.7937,0.1369,38.2100,76,97,217706
1.8231,0.1369,38.0200,76,97,217709
1.8035,0.1369,38.1800,76,97,217712
1.8328,0.1369,38.2100,76,97,217716
1.8280,0.1369,38.1500,76,97,217719
1.8182,0.1369,38.2100,76,97,217722
1.8622,0.1417,37.9300,76,97,217725
1.8231,0.1564,38.1500,76,97,217730
1.8377,0.1320,38.2100,76,97,217733
1.8426,0.1369,38.0800,76,97,217736
1.8280,0.1369,38.1800,76,97,217740
1.8817,0.1417,37.9300,76,97,217743
1.8426,0.1369,38.1500,76,97,217746
1.8182,0.1271,38.2100,76,97,217750
1.8280,0.1369,38.1500,76,97,217753
1.8280,0.1320,38.2100,76,97,217756
1.8817,0.1466,37.9900,76,97,217760
1.8524,0.1369,38.1800,76,97,217763
1.8671,0.1124,38.1100,76,97,217766
1.8426,0.1320,38.2100,76,97,217769
1.8426,0.1564,38.2100,76,97,217774
1.8719,0.1417,38.0500,76,97,217777
1.8426,0.1320,38.1500,76,97,217780
1.9013,0.1369,38.0500,76,97,217784
1.8377,0.1320,38.2100,76,97,217787
1.8426,0.1515,38.2400,76,97,217790
1.8622,0.1369,38.1500,76,97,217794
1.8622,0.1320,38.2400,76,97,217797
1.8866,0.1369,38.0500,76,97,217800
1.8573,0.1320,38.4000,76,97,217804
1.8573,0.1320,38.1100,76,97,217807
1.8719,0.1466,38.0800,76,97,217810
1.8524,0.1320,38.2100,76,97,217814
1.8866,0.1369,37.9600,76,97,217818
1.8768,0.1320,38.1100,76,97,217821
1.8622,0.1320,38.2100,76,97,217824
1.8622,0.1369,38.2100,76,97,217828
1.8475,0.1320,38.2100,76,97,217831
1.8964,0.1417,37.9000,76,97,217834
1.8671,0.1320,38.1500,76,97,217838
1.8671,0.1320,38.2400,76,97,217841
1.8719,0.1369,38.1800,76,97,217844
1.8671,0.1320,38.2100,76,97,217848
1.9159,0.1515,37.9300,76,97,217851
1.8866,0.1417,38.1800,76,97,217854
1.8768,0.1271,38.1500,76,97,217858
1.8719,0.1613,38.1800,76,97,217862
1.8671,0.1320,38.2100,76,97,217865
1.9062,0.1466,38.1100,76,97,217868
1.8817,0.1466,38.1800,76,97,217872
1.9013,0.1320,38.0800,76,97,217875
1.8964,0.1271,38.2100,76,97,217878
1.9062,0.1320,38.2100,76,97,217882
1.9453,0.1417,38.0200,76,97,217885
1.9746,0.1369,38.0800,76,97,217890
1.9697,0.1271,38.2700,76,97,217893
2.0137,0.1320,37.9600,76,97,217896
1.9941,0.1369,38.0800,76,97,217901
1.9892,0.1564,38.2400,76,97,217904
2.0186,0.1320,38.1500,76,97,217907
1.9941,0.1320,38.2100,76,97,217910
2.0430,0.1417,37.9000,76,97,217914
1.9990,0.1124,38.1800,76,97,217917
2.0039,0.1320,38.2700,76,97,217920
2.0186,0.1662,38.2100,76,97,217924
2.0137,0.1320,38.2700,76,97,217927
2.0626,0.1466,37.9000,76,97,217930
2.0039,0.1466,38.1100,76,97,217934
1.9599,0.1515,38.1500,76,97,217937
1.9355,0.1369,38.2100,76,97,217940
1.9159,0.1320,38.2100,76,97,217944
1.9599,0.1466,38.0200,76,97,217948
1.9159,0.1369,38.1500,76,97,217951
1.9159,0.1369,38.0800,76,97,217954
1.8915,0.1320,38.2100,76,97,217958
1.8768,0.1320,38.2400,76,97,217961
1.8915,0.1417,38.0500,76,97,217964
1.8524,0.1320,38.1800,76,97,217968
1.8671,0.1369,38.0200,76,97,217971
1.8377,0.1369,38.2100,76,97,217974
1.8328,0.1320,38.2100,76,97,217977
1.8475,0.1271,38.1500,76,97,217981
1.8426,0.1369,38.2100,76,97,217985
1.8671,0.1369,37.6500,76,97,217988
1.8280,0.1320,38.2100,76,97,217992
1.8280,0.1320,38.2100,76,97,217995
1.8426,0.1466,38.1500,76,97,217998
1.8280,0.1320,38.2100,76,97,218002
1.8671,0.1369,37.9900,76,97,218005
1.8524,0.1369,38.0800,76,97,218008
1.8328,0.1320,38.2100,76,97,218012
1.8328,0.1417,38.1800,76,97,218015
1.8231,0.1320,38.2400,76,97,218018
1.8866,0.1417,37.9300,76,97,218021
1.9208,0.1320,38.1500,76,97,218025
1.9746,0.1320,38.2400,76,97,218029
2.0919,0.1369,38.2100,76,97,218032
2.2239,0.1369,38.2400,76,97,218036
2.4633,0.1515,37.9300,76,97,218039
2.6442,0.1320,38.1500,76,97,218042
2.8006,0.1320,38.1500,76,97,218046
2.8250,0.1369,38.1100,76,97,218049
2.7077,0.1369,38.1100,76,97,218052
2.5758,0.1466,38.0800,76,97,218056
2.3216,0.1369,38.0800,76,97,218059
2.1457,0.1320,38.0500,76,97,218062
1.9941,0.1369,38.2400,76,97,218065
1.9110,0.1320,38.3300,76,97,218070
1.8964,0.1466,38.0500,76,97,218073
1.8280,0.1320,38.1800,76,97,218076
1.8182,0.1369,38.0200,76,97,218080
1.7693,0.1369,38.2100,76,97,218083
1.7498,0.1320,38.2100,76,97,218086
1.7644,0.1760,38.0500,76,97,218090
1.7253,0.1369,38.1800,76,97,218093
1.7449,0.1320,38.0800,76,97,218096
1.7155,0.1369,38.1800,76,97,218099
1.7253,0.1271,38.2400,76,97,218103
1.7498,0.1369,38.1100,76,97,218106
1.7498,0.1271,38.1800,76,97,218109
1.7889,0.1369,37.9900,76,97,218114
1.7546,0.1369,38.2100,76,97,218117
1.7644,0.1320,38.1800,76,97,218120
1.7742,0.1417,38.2700,76,97,218124
1.7693,0.1417,38.2100,76,97,218127
1.8231,0.1417,37.9300,76,97,218130
1.8035,0.1417,38.0800,76,97,218134
1.8280,0.1320,38.2400,76,97,218137
1.8133,0.1369,38.2100,76,97,218140
1.8133,0.1369,38.2100,76,97,218143
1.8768,0.1564,37.9600,76,97,218147
1.8377,0.1515,38.2100,76,97,218150
1.8377,0.1369,38.1500,76,97,218153
1.8328,0.1369,38.2700,76,97,218158
1.8426,0.1320,38.2100,76,97,218161
1.8964,0.1124,38.0500,76,97,218164
1.8622,0.1369,38.4000,76,97,218168
1.8768,0.1369,38.0800,76,97,218171
1.8817,0.1369,38.2100,76,97,218174
1.8671,0.1320,38.1800,76,97,218177
1.8964,0.1466,38.2100,76,97,218181
1.8817,0.1320,38.1800,76,97,218184
1.9013,0.1417,38.1500,76,97,218187
1.8768,0.1369,38.1800,76,97,218191
1.8768,0.1320,38.3000,76,97,218194
1.9159,0.1466,38.0800,76,97,218198
1.9013,0.1320,38.1800,76,97,218202
1.9355,0.1320,38.0500,76,97,218205
1.9257,0.1613,38.1500,76,97,218208
1.9355,0.1369,38.2100,76,97,218212
1.9453,0.1417,38.1800,76,97,218215
1.9306,0.1369,38.3000,76,97,218218
1.9844,0.1417,37.9600,76,97,218221
1.9697,0.1369,38.1800,76,97,218225
1.9795,0.1369,38.2100,76,97,218228
1.9990,0.1417,38.1500,76,97,218231
1.9990,0.1369,38.2100,76,97,218235
2.0528,0.1466,37.9300,76,97,218238
1.9941,0.1369,38.2100,76,97,218242
2.0039,0.1271,38.2100,76,97,218246
2.0088,0.1369,38.1800,76,97,218249
2.0186,0.1369,38.1800,76,97,218252
2.1261,0.1564,37.9600,76,97,218256
2.0674,0.1417,38.1500,76,97,218259
2.0723,0.1320,38.2700,76,97,218262
2.0772,0.1320,38.2100,76,97,218265
2.0870,0.1320,38.2400,76,97,218269
2.1408,0.1466,38.0800,76,97,218272
2.1065,0.1417,38.1800,76,97,218275
2.1310,0.1320,38.0800,76,97,218279
2.1065,0.1369,38.1800,76,97,218283
2.1114,0.1320,38.2100,76,97,218286
2.1505,0.1662,38.0800,76,97,218289
2.1163,0.1320,38.1800,76,97,218293
2.1408,0.1369,38.0500,76,97,218296
2.1114,0.1369,38.1500,76,97,218299
2.1163,0.1124,38.2400,76,97,218303
2.1310,0.1369,38.2700,76,97,218306
2.1163,0.1417,38.2100,76,97,218309
2.1359,0.1124,38.0800,76,97,218313
2.0870,0.1417,38.2400,76,97,218316
2.0772,0.1369,38.2100,76,97,218319
2.1017,0.1417,38.1100,76,97,218323
2.0577,0.1466,38.1800,76,97,218327
2.0674,0.1369,37.9600,76,97,218330
2.0137,0.1369,38.0800,76,97,218333
1.9599,0.1320,38.2100,76,97,218337
1.9355,0.1124,38.1500,76,97,218340
1.8817,0.1320,38.2100,76,97,218343
1.9013,0.1417,37.9900,76,97,218347
1.8475,0.1369,38.1500,76,97,218350
1.8182,0.1320,38.2100,76,97,218353
1.8084,0.1124,38.1800,76,97,218357
1.7889,0.1369,38.2100,76,97,218360
1.8328,0.1808,37.9300,76,97,218363
1.7840,0.1369,38.1800,76,97,218368
1.7937,0.1320,38.0800,76,97,218371
1.7937,0.1466,38.1800,76,97,218374
1.7840,0.1369,38.2100,76,97,218377
1.8182,0.1760,38.1100,76,97,218381
1.8182,0.1369,38.1500,76,97,218384
1.8035,0.1369,38.0800,76,97,218387
1.7889,0.1417,38.2400,76,97,218391
1.7937,0.1320,38.2100,76,97,218394
1.8231,0.1417,38.0200,76,97,218397
1.7889,0.1320,38.2100,76,97,218401
1.8182,0.1417,38.0500,76,97,218404
1.7937,0.1369,38.3000,76,97,218407
1.7986,0.1271,38.2100,76,97,218411
1.8328,0.1417,38.1100,76,97,218415
1.8133,0.1369,38.2100,76,97,218418
1.8426,0.1369,38.0500,76,97,218421
1.8182,0.1320,38.1500,76,97,218425
1.8280,0.1271,38.2700,76,97,218428
1.8475,0.1369,38.1500,76,97,218431
1.8377,0.1369,38.3000,76,97,218435
1.8719,0.1466,37.9900,76,97,218438
1.8377,0.1369,38.2400,76,97,218441
1.8426,0.1515,38.1800,76,97,218445
1.8573,0.1417,38.1800,76,97,218448
1.8328,0.1320,38.2100,76,97,218451
1.8768,0.1466,37.9600,76,97,218455
1.8573,0.1417,38.2100,76,97,218459
1.8475,0.1271,38.2400,76,97,218462
1.8524,0.1369,38.1800,76,97,218465
1.8524,0.1271,38.2400,76,97,218469
1.9159,0.1515,37.9900,76,97,218472
1.8719,0.1320,38.1500,76,97,218475
1.8671,0.1417,38.1500,76,97,218479
1.8573,0.1369,38.2100,76,97,218482
1.8524,0.1369,38.2100,76,97,218485
1.8915,0.1466,38.0500,76,97,218489
1.8719,0.1369,37.6200,76,97,218492
1.8866,0.1417,38.0500,76,97,218496
1.8622,0.1369,38.2400,76,97,218499
1.8524,0.1369,38.2400,76,97,218504
1.8573,0.1320,38.2100,76,97,218507
1.8915,0.1369,38.1100,76,97,218511
1.8671,0.1369,38.2100,76,97,218514
1.9208,0.1369,37.9600,76,97,218517
1.8866,0.1417,38.1800,76,97,218521
1.8768,0.1369,38.2100,76,97,218524
1.8817,0.1417,38.2400,76,97,218527
1.8719,0.1271,38.2400,76,97,218531
1.9599,0.1320,37.9000,76,97,218534
1.8915,0.1369,38.1100,76,97,218537
1.8866,0.1320,38.1800,76,97,218542
1.8817,0.1417,38.2400,76,97,218545
1.8671,0.1369,38.2400,76,97,218548
1.9208,0.1515,37.9900,76,97,218551
1.8671,0.1369,38.3300,76,97,218555
1.8671,0.1417,38.0200,76,97,218558
1.8622,0.1369,38.2100,76,97,218561
1.8622,0.1369,38.2100,76,97,218565
1.8964,0.1466,38.0800,76,97,218568
1.8719,0.1369,38.0800,76,97,218571
1.8866,0.1369,38.0200,76,97,218575
1.8622,0.1369,38.1800,76,97,218578
1.8622,0.1417,38.2700,76,97,218582
1.9257,0.1466,38.0500,76,97,218586
1.8622,0.1369,38.2100,76,97,218589
1.8915,0.1466,38.1100,76,97,218592
1.8768,0.1320,38.1500,76,97,218595
1.8719,0.1369,38.2100,76,97,218599
1.8915,0.1417,38.1100,76,97,218602
1.8768,0.1320,38.2100,76,97,218605
1.9110,0.1369,37.9600,76,97,218609
1.8866,0.1369,38.1100,76,97,218612
1.8768,0.1320,38.2100,76,97,218615
1.8866,0.1417,38.1500,76,97,218619
1.8768,0.1466,38.2100,76,97,218622
1.9159,0.1417,37.9600,76,97,218626
1.8915,0.1369,38.1800,76,97,218630
1.8817,0.1369,38.2100,76,97,218633
1.8964,0.1369,38.2100,76,97,218636
1.8817,0.1369,38.2100,76,97,218639
1.9355,0.1515,37.9600,76,97,218643
1.9013,0.1466,38.0800,76,97,218646
1.8866,0.1320,38.1800,76,97,218649
1.9062,0.1369,38.3300,76,97,218653
1.9110,0.1466,38.2400,76,97,218656
1.9746,0.1515,37.9900,76,97,218659
1.9355,0.1515,38.1500,76,97,218663
1.9453,0.1369,38.1100,76,97,218667
1.9355,0.1369,38.1100,76,97,218670
1.9404,0.1320,38.2100,76,97,218674
1.9795,0.1417,38.0200,76,97,218677
1.9501,0.1320,38.2400,76,97,218680
1.9795,0.1369,38.0500,76,97,218683
1.9599,0.1320,38.2100,76,97,218687
1.9648,0.1466,38.2400,76,97,218690
1.9844,0.1320,38.1500,76,97,218693
1.9844,0.1369,38.2400,76,97,218697
2.0137,0.1466,38.0500,76,97,218700
1.9795,0.1369,38.2100,76,97,218703
1.9795,0.1369,38.0800,76,97,218707
2.0235,0.1466,38.0800,76,97,218711
1.9648,0.1320,38.2400,76,97,218714
1.9795,0.1369,37.9900,76,97,218717
1.9306,0.1662,38.0800,76,97,218721
1.9013,0.1369,38.2100,76,97,218724
1.9062,0.1417,38.1500,76,97,218727
1.8866,0.1124,38.2100,76,97,218731
1.9306,0.1417,37.9300,76,97,218734
1.9062,0.1320,38.1500,76,97,218737
1.8768,0.1369,38.2400,76,97,218741
1.8622,0.1417,38.1800,76,97,218744
1.8377,0.1369,38.2100,76,97,218747
1.8866,0.1515,37.9300,76,97,218752
1.8671,0.1369,38.1800,76,97,218755
1.8182,0.1320,38.1800,76,97,218758
1.8084,0.1466,38.1800,76,97,218761
1.7937,0.1369,38.2400,76,97,218765
1.8426,0.1515,38.0200,76,97,218768
1.8182,0.1369,38.1500,76,97,218771
1.8377,0.1369,38.0800,76,97,218775
1.8182,0.1320,38.2400,76,97,218778
1.8524,0.1369,38.2100,76,97,218781
1.8573,0.1466,38.0500,76,97,218785
1.8328,0.1369,38.2100,76,97,218788
1.8377,0.1417,38.0500,76,97,218791
1.7937,0.1369,38.4000,76,97,218796
1.7840,0.1711,38.2400,76,97,218799
1.8231,0.1417,38.0800,76,97,218802
1.8524,0.1369,38.2100,76,97,218805
1.9550,0.1417,38.0500,76,97,218809
2.0528,0.1369,38.1800,76,97,218812
2.1799,0.1369,38.2700,76,97,218815
2.3509,0.1466,38.1100,76,97,218819
2.5464,0.1369,38.2400,76,97,218822
2.7615,0.1417,37.9600,76,97,218825
2.7761,0.1320,38.2100,76,97,218829
2.6491,0.1369,38.2100,76,97,218832
2.4829,0.1417,38.1500,76,97,218835
2.2581,0.1369,38.1800,76,97,218839
2.1212,0.1466,37.9300,76,97,218843
1.9501,0.1369,38.1100,76,97,218846
1.8719,0.1320,38.2700,76,97,218849
1.8671,0.1320,38.2100,76,97,218853
1.8035,0.1369,38.2100,76,97,218856
1.8231,0.1515,37.9900,76,97,218859
1.7546,0.1417,38.1800,76,97,218863
1.7302,0.1369,38.1500,76,97,218866
1.7107,0.1369,38.2100,76,97,218869
1.7155,0.1369,38.2100,76,97,218873
1.7449,0.1564,38.0500,76,97,218876
1.7204,0.1369,38.2100,76,97,218880
1.7253,0.1369,38.0800,76,97,218883
1.7009,0.1466,38.2100,76,97,218887
1.7155,0.1466,38.1800,76,97,218890
1.7302,0.1417,38.2700,76,97,218893
1.7302,0.1417,38.1800,76,97,218897
1.7889,0.1417,38.0800,76,97,218900
1.7449,0.1369,38.4000,76,97,218903
1.7546,0.1417,38.2400,76,97,218907
1.7937,0.1466,38.0800,76,97,218910
1.7644,0.1369,38.3600,76,97,218913
1.7889,0.1466,38.0200,76,97,218917
1.7742,0.1369,38.1100,76,97,218920
1.7742,0.1369,38.4000,76,97,218924
1.7937,0.1417,38.1100,76,97,218927
1.7840,0.1369,38.2100,76,97,218931
1.8280,0.1711,37.9600,76,97,218934
1.8035,0.1466,38.1100,76,97,218937
1.7986,0.1711,38.2100,76,97,218941
1.8035,0.1320,38.1800,76,97,218944
1.8084,0.1369,38.2100,76,97,218947
1.8671,0.1466,37.9000,76,97,218951
1.8280,0.1124,38.1500,76,97,218954
1.8280,0.1320,38.4300,76,97,218957
1.8328,0.1369,38.1800,76,97,218960
1.8280,0.1369,38.2700,76,97,218964
1.8866,0.1515,37.9900,76,97,218968
1.8573,0.1417,38.1800,76,97,218971
1.8573,0.1369,38.1100,76,97,218975
1.8573,0.1369,38.2100,76,97,218978
1.8573,0.1369,38.2100,76,97,218981
1.8964,0.1369,38.0200,76,97,218985
1.8768,0.1417,38.1800,76,97,218988
1.9110,0.1417,38.0500,76,97,218991
1.9062,0.1369,38.2100,76,97,218995
1.9257,0.1369,38.2400,76,97,218998
1.9453,0.1711,38.1100,76,97,219001
1.9306,0.1320,38.2100,76,97,219005
1.9501,0.1417,38.0800,76,97,219009
1.9208,0.1369,38.1800,76,97,219012
1.9404,0.1320,38.2100,76,97,219015
1.9501,0.1417,38.1500,76,97,219019
1.9501,0.1369,38.2100,76,97,219022
2.0186,0.1369,37.9900,76,97,219025
1.9746,0.1369,38.3600,76,97,219029
1.9941,0.1369,38.1800,76,97,219032
2.0235,0.1417,38.1500,76,97,219035
2.0137,0.1369,38.2100,76,97,219039
2.0723,0.1466,37.9300,76,97,219042
2.0577,0.1417,38.1500,76,97,219045
2.0528,0.1271,38.2100,76,97,219048
2.0674,0.1417,38.1800,76,97,219053
2.0674,0.1369,38.0800,76,97,219056
2.1261,0.1515,37.9000,76,97,219059
2.0772,0.1417,38.1100,76,97,219063
2.0674,0.1320,38.2700,76,97,219066
2.0674,0.1417,38.1800,76,97,219069
2.0723,0.1369,38.2100,76,97,219073
2.1359,0.1515,38.0200,76,97,219076
2.0870,0.1417,38.1500,76,97,219079
2.0870,0.1369,38.1100,76,97,219082
2.0821,0.1417,38.2100,76,97,219086
2.0723,0.1369,38.2400,76,97,219089
2.1163,0.1417,38.0800,76,97,219092
2.0626,0.1417,38.1800,76,97,219097
2.0577,0.1417,38.0800,76,97,219100
2.0039,0.1369,38.2100,76,97,219103
1.9844,0.1466,38.2100,76,97,219107
1.9844,0.1466,37.9900,76,97,219110
1.8475,0.1417,38.0500,76,97,219115
1.8133,0.1369,38.2100,76,97,219118
1.8280,0.1417,37.9600,76,97,219121
1.7889,0.1417,37.9600,76,97,219124
1.7644,0.1515,38.2100,76,97,219128
1.7644,0.1417,38.1800,76,97,219131
1.7400,0.1369,38.3000,76,97,219134
1.7791,0.1417,37.9300,76,97,219139
1.7351,0.1369,38.2700,76,97,219142
1.7302,0.1369,38.1800,76,97,219145
1.7253,0.1417,38.1800,76,97,219149
1.7204,0.1515,38.2100,76,97,219152
1.7840,0.1564,37.9600,76,97,219155
1.7449,0.1466,38.4000,76,97,219159
1.7449,0.1417,38.1100,76,97,219162
1.7498,0.1417,38.1100,76,97,219165
1.7546,0.1369,38.2100,76,97,219169
1.7791,0.1466,38.0200,76,97,219172
1.7449,0.1369,38.1800,76,97,219175
1.7644,0.1417,38.0800,76,97,219179
1.7498,0.1369,38.1800,76,97,219183
1.7546,0.1320,38.2100,76,97,219186
1.7791,0.1466,38.0500,76,97,219189
1.7644,0.1369,38.2400,76,97,219193
1.7986,0.1808,38.1100,76,97,219196
1.7791,0.1320,38.2100,76,97,219199
1.7889,0.1369,37.9600,76,97,219203
1.7986,0.1417,38.1500,76,97,219206
1.7840,0.1369,38.2100,76,97,219209
1.8231,0.1369,38.1500,76,97,219212
1.8084,0.1369,38.2100,76,97,219216
1.8182,0.1369,38.1800,76,97,219219
1.8377,0.1466,38.1100,76,97,219223
1.8133,0.1417,38.2400,76,97,219227
1.8524,0.1466,37.9300,76,97,219230
1.8328,0.1417,38.1100,76,97,219233
1.8133,0.1369,38.2100,76,97,219237
1.8231,0.1417,38.1800,76,97,219240
1.8133,0.1515,38.1800,76,97,219243
1.8719,0.1564,37.9300,76,97,219247
1.8280,0.1417,38.1100,76,97,219250
1.8280,0.1369,38.1800,76,97,219253
1.8280,0.1417,38.1500,76,97,219257
1.8377,0.1711,38.2100,76,97,219260
1.8817,0.1515,38.0800,76,97,219264
1.8426,0.1417,38.1500,76,97,219267
1.8475,0.1124,38.1100,76,97,219271
1.8231,0.1417,38.1100,76,97,219274
1.8182,0.1369,38.2400,76,97,219277
1.8377,0.1466,38.1500,76,97,219281
1.8280,0.1417,38.1800,76,97,219284
1.8475,0.1417,38.0500,76,97,219287
1.8182,0.1369,38.2100,76,97,219291
1.8231,0.1369,38.2100,76,97,219294
1.8524,0.1466,38.0500,76,97,219297
1.8377,0.1369,38.2100,76,97,219301
1.8768,0.1369,38.0800,76,97,219304
1.8573,0.1369,38.0800,76,97,219308
1.8475,0.1369,38.1800,76,97,219311
1.8622,0.1417,38.1100,76,97,219315
1.8377,0.1369,38.2100,76,97,219318
1.8768,0.1124,37.9600,76,97,219321
1.8524,0.1369,38.1100,76,97,219325
1.8377,0.1466,38.2100,76,97,219328
1.8426,0.1417,38.1800,76,97,219331
1.8280,0.1369,38.2400,76,97,219335
1.8719,0.1515,37.9000,76,97,219338
1.8280,0.1369,38.1800,76,97,219341
1.8328,0.1271,38.1800,76,97,219345
1.8426,0.1417,38.1800,76,97,219348
1.8573,0.1369,38.2100,76,97,219352
1.8915,0.1515,37.9300,76,97,219355
1.8524,0.1466,38.1500,76,97,219359
1.8573,0.1320,38.1100,76,97,219362
1.8475,0.1466,38.2400,76,97,219365
1.8426,0.1320,38.2100,76,97,219369
1.8768,0.1466,37.9900,76,97,219372
1.8524,0.1417,38.1800,76,97,219375
1.8671,0.1417,38.1100,76,97,219379
1.8475,0.1369,38.2100,76,97,219382
1.8573,0.1124,38.2100,76,97,219385
1.8866,0.1662,38.1100,76,97,219389
1.8573,0.1369,38.1800,76,97,219393
1.8866,0.1466,38.0800,76,97,219396
1.8524,0.1369,38.4300,76,97,219399
1.8524,0.1369,38.2700,76,97,219403
1.8719,0.1417,38.2100,76,97,219406
1.8622,0.1417,38.1800,76,97,219409
1.8866,0.1417,37.9900,76,97,219413
1.8475,0.1369,38.2100,76,97,219416
1.8475,0.1124,38.2100,76,97,219419
1.8719,0.1466,38.1100,76,97,219423
1.8573,0.1369,38.2100,76,97,219426
1.9013,0.1466,37.8300,76,97,219429
1.8719,0.1417,38.1100,76,97,219433
1.8524,0.1369,38.2100,76,97,219437
1.8671,0.1515,38.1800,76,97,219440
1.8671,0.1369,38.2100,76,97,219444
1.9355,0.1515,37.9300,76,97,219447
1.9013,0.1417,38.1500,76,97,219450
1.9062,0.1369,38.1500,76,97,219453
1.9062,0.1417,38.2100,76,97,219457
1.9110,0.1369,38.2100,76,97,219460
1.9599,0.1466,38.0200,76,97,219463
1.9306,0.1417,38.2100,76,97,219467
1.9550,0.1417,38.1100,76,97,219470
1.9453,0.1466,38.2100,76,97,219473
1.9648,0.1369,38.1800,76,97,219478
1.9844,0.1466,38.1500,76,97,219481
1.9746,0.1417,38.2400,76,97,219484
1.9990,0.1564,38.1100,76,97,219488
1.9697,0.1369,38.2100,76,97,219491
1.9746,0.1369,38.1800,76,97,219494
2.0039,0.1466,38.0800,76,97,219497
1.9746,0.1417,37.5300,76,97,219501
1.9892,0.1466,38.0200,76,97,219504
1.9453,0.1320,38.1100,76,97,219507
1.9306,0.1369,38.1500,76,97,219511
1.9306,0.1417,38.1500,76,97,219514
1.9013,0.1369,38.2100,76,97,219517
1.9355,0.1466,37.9300,76,97,219522
1.8964,0.1417,38.1500,76,97,219525
1.8817,0.1369,38.1100,76,97,219528
1.9013,0.1369,38.1800,76,97,219532
1.8671,0.1369,38.2100,76,97,219535
1.9013,0.1711,37.8700,76,97,219538
1.8426,0.1369,38.1800,76,97,219541
1.8280,0.1320,38.1500,76,97,219545
1.8133,0.1369,38.2100,76,97,219548
1.7937,0.1369,37.4900,76,97,219551
1.8524,0.1613,38.0500,76,97,219555
1.8035,0.1417,38.1800,76,97,219558
1.8133,0.1369,38.2400,76,97,219561
1.8084,0.1417,38.2100,76,97,219566
1.8084,0.1369,38.2100,76,97,219569
1.8328,0.1515,37.9900,76,97,219572
1.7986,0.1417,38.1800,76,97,219576
1.8182,0.1417,38.0200,76,97,219579
1.7986,0.1417,38.2100,76,97,219582
1.8035,0.1369,38.2100,76,97,219585
1.8182,0.1515,37.5900,76,97,219589
1.7742,0.1906,38.2100,76,97,219592
1.8035,0.1466,38.1100,76,97,219595
1.7791,0.1369,38.1100,76,97,219599
1.8475,0.1369,38.2100,76,97,219602
1.9062,0.1417,38.1500,76,97,219606
1.9990,0.1466,38.2100,76,97,219610
2.1554,0.1320,38.0200,76,97,219613
2.2825,0.1417,38.3600,76,97,219616
2.4878,0.1564,38.2100,76,97,219619
2.7028,0.1466,38.1500,76,97,219623
2.7273,0.1662,38.2400,76,97,219626
2.6833,0.1466,37.9300,76,97,219629
2.4682,0.1417,38.2100,76,97,219633
2.2385,0.1417,38.2400,76,97,219636
2.0723,0.1417,38.1800,76,97,219639
1.9404,0.1369,38.0800,76,97,219643
1.9257,0.1613,37.9300,76,97,219646
1.8426,0.1417,38.1100,76,97,219650
1.7986,0.1369,38.1500,76,97,219654
1.7791,0.1124,38.1800,76,97,219657
1.7546,0.1417,38.1100,76,97,219660
1.7889,0.1564,38.0500,76,97,219663
1.7351,0.1417,38.1800,76,97,219667
1.7204,0.1369,38.4600,76,97,219670
1.6960,0.1466,38.2100,76,97,219673
1.6911,0.1417,38.3000,76,97,219677
1.7107,0.1613,38.1100,76,97,219680
1.6960,0.1320,38.2100,76,97,219683
1.6960,0.1417,38.0500,76,97,219687
1.6813,0.1320,38.2400,76,97,219691
1.6911,0.1417,38.2100,76,97,219694
1.7302,0.1515,38.1500,76,97,219698
1.7058,0.1320,38.2100,76,97,219701
1.7400,0.1417,38.0800,76,97,219704
1.7155,0.1369,37.4000,76,97,219707
1.7253,0.1417,38.1800,76,97,219711
1.7449,0.1466,38.1100,76,97,219714
1.7400,0.1417,38.2700,76,97,219717
1.7742,0.1466,38.0200,76,97,219721
1.8133,0.1760,37.9000,76,97,219725
1.7742,0.1417,38.2100,76,97,219729
1.7840,0.1369,38.1500,76,97,219732
1.8084,0.1466,38.1800,76,97,219736
1.7937,0.1417,38.2400,76,97,219740
1.8573,0.1564,38.0200,76,97,219743
1.8280,0.1466,38.1800,76,97,219746
1.8377,0.1369,38.1500,76,97,219750
1.8377,0.1417,38.2100,76,97,219753
1.8328,0.1369,38.2100,76,97,219756
1.8622,0.1613,38.0200,76,97,219759
1.8328,0.1417,38.3600,76,97,219763
1.8524,0.1369,38.0500,76,97,219766
1.8524,0.1417,38.2700,76,97,219769
1.8328,0.1417,38.2400,76,97,219773
1.8622,0.1613,38.1800,76,97,219777
1.8377,0.1466,38.1800,76,97,219780
1.8719,0.1417,38.0800,76,97,219784
1.8524,0.1369,38.1800,76,97,219787
1.8719,0.1417,38.2700,76,97,219790
1.8964,0.1417,38.1800,76,97,219794
1.8964,0.1417,38.2100,76,97,219797
1.9355,0.1417,37.9300,76,97,219800
1.9110,0.1417,38.2700,76,97,219803
1.9257,0.1369,38.3000,76,97,219807
1.9501,0.1466,38.1800,76,97,219810
1.9404,0.1417,38.2100,76,97,219813
1.9892,0.1466,37.9600,76,97,219817
1.9746,0.1320,38.1100,76,97,219821
1.9550,0.1417,38.2100,76,97,219824
1.9697,0.1466,38.1500,76,97,219828
1.9795,0.1417,38.2100,76,97,219831
2.0479,0.1515,37.9300,76,97,219834
1.9990,0.1466,38.1500,76,97,219838
2.0039,0.1369,38.1500,76,97,219841
2.0088,0.1417,38.2400,76,97,219844
2.0137,0.1564,38.1800,76,97,219847
2.0674,0.1564,38.0500,76,97,219851
2.0283,0.1417,38.1800,76,97,219854
2.0332,0.1417,38.2100,76,97,219857
2.0186,0.1564,38.2100,76,97,219862
2.0235,0.1417,38.2100,76,97,219865
2.0528,0.1515,38.0800,76,97,219868
2.0283,0.1662,38.1500,76,97,219871
2.0772,0.1417,38.0500,76,97,219875
2.0088,0.1417,38.2100,76,97,219878
1.9990,0.1417,37.4600,76,97,219881
2.0137,0.1515,38.1100,76,97,219885
1.9599,0.1124,38.2100,76,97,219888
1.9697,0.1466,38.0800,76,97,219891
1.9062,0.1417,38.2100,76,97,219895
1.8964,0.1124,38.2700,76,97,219898
1.8573,0.1760,38.1100,76,97,219901
1.8084,0.1369,38.2100,76,97,219905
1.8182,0.1515,37.9900,76,97,219909
1.7742,0.1369,38.0800,76,97,219912
1.7498,0.1320,38.2100,76,97,219915
1.7351,0.1466,38.2100,76,97,219919
1.7107,0.1515,38.2100,76,97,219922
1.7351,0.1466,37.9600,76,97,219925
1.6813,0.1369,38.1800,76,97,219929
1.6813,0.1417,38.2100,76,97,219932
1.6764,0.1466,38.1500,76,97,219935
1.6569,0.1417,38.2400,76,97,219939
1.6960,0.1515,38.0200,76,97,219942
1.6667,0.1369,38.0500,76,97,219945
1.6569,0.1369,38.1800,76,97,219949
1.6618,0.1466,38.3000,76,97,219953
1.6569,0.1466,38.1800,76,97,219956
1.7107,0.1564,38.0200,76,97,219959
1.6716,0.1466,38.1800,76,97,219963
1.7009,0.1369,38.1100,76,97,219966
1.6667,0.1417,38.2100,76,97,219969
1.6813,0.1417,38.1500,76,97,219973
1.7107,0.1466,38.0500,76,97,219976
1.6764,0.1417,38.2400,76,97,219979
1.7058,0.1466,38.0200,76,97,219983
1.6911,0.1417,38.2100,76,97,219986
1.6813,0.1417,38.1500,76,97,219990
1.6911,0.1417,38.2100,76,97,219993
1.6813,0.1417,38.3000,76,97,219997
1.7058,0.1466,38.1100,76,97,220000
1.6911,0.1417,38.2400,76,97,220003
1.7107,0.1417,38.2400,76,97,220007
1.7449,0.1320,38.0500,76,97,220010
1.7253,0.1417,38.2100,76,97,220013
1.7840,0.1466,37.9900,76,97,220017
1.7204,0.1417,38.0800,76,97,220020
1.7107,0.1417,38.2100,76,97,220023
1.7204,0.1515,38.2100,76,97,220027
1.7155,0.1417,38.2100,76,97,220030
1.7595,0.1564,37.9000,76,97,220034
1.7302,0.1417,38.1500,76,97,220037
1.7204,0.1417,38.4000,76,97,220041
1.7253,0.1466,38.1800,76,97,220044
1.7204,0.1417,38.1800,76,97,220047
1.7742,0.1613,37.9600,76,97,220051
1.7302,0.1320,38.1800,76,97,220054
1.7253,0.1369,38.2400,76,97,220057
1.7302,0.1466,38.1800,76,97,220061
1.7351,0.1417,38.3000,76,97,220064
1.7791,0.1564,38.0500,76,97,220067
1.7791,0.1466,38.1800,76,97,220071
1.7498,0.1417,38.0800,76,97,220075
1.7302,0.1760,38.2100,76,97,220078
1.7449,0.1466,38.2100,76,97,220081
1.7791,0.1515,38.0500,76,97,220085
1.7595,0.1417,38.1800,76,97,220088
1.7791,0.1466,38.0500,76,97,220091
1.7546,0.1417,38.0800,76,97,220095
1.7449,0.1417,38.2400,76,97,220098
1.7595,0.1515,38.1100,76,97,220101
1.7302,0.1417,38.1100,76,97,220105
1.7595,0.1417,38.0500,76,97,220108
1.7400,0.1369,38.1800,76,97,220111
1.7400,0.1417,38.2700,76,97,220114
1.7498,0.1466,38.1800,76,97,220119
1.7400,0.1124,38.2100,76,97,220122
1.7595,0.1466,37.9900,76,97,220125
1.7302,0.1417,38.2100,76,97,220129
1.7351,0.1417,38.2400,76,97,220132
1.7498,0.1515,38.1800,76,97,220135
1.7351,0.1417,38.2700,76,97,220139
1.7889,0.1515,37.9000,76,97,220142
1.7644,0.1466,38.1100,76,97,220145
1.7595,0.1369,38.5800,76,97,220149
1.7644,0.1466,38.1800,76,97,220152
1.7498,0.1417,38.4000,76,97,220155
1.7937,0.1857,37.9900,76,97,220158
1.7498,0.1466,38.1500,76,97,220163
1.7449,0.1417,38.0800,76,97,220166
1.7302,0.1466,38.2100,76,97,220169
1.7253,0.1417,38.2100,76,97,220173
1.7546,0.1515,38.0800,76,97,220176
1.7155,0.1417,38.1800,76,97,220179
1.7351,0.1466,38.0500,76,97,220183
1.7204,0.1466,38.2100,76,97,220186
1.7302,0.1320,38.2400,76,97,220189
1.7449,0.1515,38.1500,76,97,220192
1.7253,0.1466,38.2700,76,97,220196
1.7498,0.1466,38.0800,76,97,220199
1.7351,0.1417,38.3000,76,97,220203
1.7449,0.1417,38.2100,76,97,220207
1.7742,0.1320,38.0800,76,97,220210
1.7400,0.1417,37.9600,76,97,220213
1.7546,0.1417,38.0800,76,97,220217
1.7351,0.1417,38.1100,76,97,220220
1.7351,0.1417,38.2100,76,97,220223
1.7693,0.1417,38.1100,76,97,220227
1.7449,0.1417,38.2100,76,97,220230
1.7791,0.1515,37.9000,76,97,220233
1.7498,0.1515,38.1100,76,97,220236
1.7449,0.1417,38.2400,76,97,220240
1.7595,0.1466,38.1800,76,97,220243
1.7595,0.1417,38.2100,76,97,220247
1.8035,0.1515,37.9000,76,97,220251
1.7644,0.1417,38.1500,76,97,220254
1.7742,0.1369,38.1800,76,97,220257
1.7840,0.1466,38.2400,76,97,220261
1.7840,0.1417,38.2100,76,97,220264
1.8524,0.1613,38.0200,76,97,220267
1.8231,0.1466,38.1800,76,97,220271
1.8280,0.1417,38.1100,76,97,220274
1.8231,0.1906,38.2100,76,97,220277
1.8280,0.1369,38.2100,76,97,220280
1.8768,0.1564,38.0200,76,97,220284
1.8622,0.1417,38.1800,76,97,220288
1.8866,0.1466,38.1100,76,97,220291
1.8671,0.1417,38.1500,76,97,220295
1.8573,0.1320,38.2100,76,97,220298
1.8817,0.1515,38.0800,76,97,220301
1.8426,0.1466,38.1800,76,97,220305
1.8524,0.1515,38.0800,76,97,220308
1.8084,0.1417,38.2700,76,97,220311
1.7986,0.1320,38.2100,76,97,220315
1.7889,0.1466,38.1500,76,97,220318
1.7644,0.1515,38.2100,76,97,220321
1.7791,0.1466,37.9900,76,97,220324
1.7449,0.1417,38.2100,76,97,220328
1.7351,0.1466,38.2100,76,97,220332
1.7351,0.1564,38.1500,76,97,220335
1.6960,0.1466,38.2400,76,97,220340
1.6764,0.1369,38.2400,76,97,220343
1.7107,0.1613,38.0800,76,97,220347
1.6569,0.1466,38.2100,76,97,220350
1.6520,0.1369,38.1800,76,97,220353
1.6569,0.1466,38.2100,76,97,220357
1.6667,0.1417,38.2100,76,97,220360
1.7107,0.1515,38.0500,76,97,220363
1.6960,0.1466,38.2100,76,97,220367
1.7107,0.1466,38.0800,76,97,220370
1.6764,0.1369,38.2100,76,97,220374
1.6667,0.1417,38.2400,76,97,220377
1.6813,0.1515,37.9300,76,97,220381
1.6960,0.1466,38.2100,76,97,220384
1.7791,0.1515,38.2100,76,97,220387
1.8426,0.1417,38.2100,76,97,220391
1.9697,0.1417,38.0800,76,97,220394
2.1457,0.1564,38.1100,76,97,220397
2.3021,0.1417,38.0800,76,97,220401
2.5464,0.1466,37.9900,76,97,220404
2.6637,0.1466,38.0800,76,97,220407
2.6491,0.1369,38.2100,76,97,220410
2.5318,0.1515,38.1100,76,97,220414
2.3216,0.1417,38.2100,76,97,220418
2.1652,0.1515,37.9600,76,97,220421
1.9550,0.1466,38.1800,76,97,220425
1.8182,0.1417,38.2100,76,97,220428
1.7498,0.1466,37.7100,76,97,220431
1.6960,0.1466,38.2100,76,97,220435
1.7107,0.1564,37.9000,76,97,220438
1.6471,0.1417,38.2100,76,97,220441
1.6325,0.1466,38.1800,76,97,220445
1.6178,0.1466,38.1800,76,97,220448
1.5934,0.1466,38.2100,76,97,220451
1.6227,0.1613,38.0500,76,97,220454
1.5738,0.1515,38.2100,76,97,220459
1.5787,0.1466,38.0800,76,97,220462
1.5640,0.1466,38.2100,76,97,220465
1.5689,0.1466,38.2100,76,97,220469
1.6227,0.1564,38.0200,76,97,220472
1.5982,0.1466,38.1800,76,97,220475
1.6276,0.1466,38.0500,76,97,220479
1.6080,0.1417,38.2100,76,97,220482
1.6129,0.1417,38.2100,76,97,220485
1.6422,0.1711,38.0800,76,97,220489
1.6227,0.1466,38.2100,76,97,220492
1.6667,0.1466,38.0800,76,97,220495
1.6471,0.1417,38.1800,76,97,220498
1.6569,0.1466,38.2400,76,97,220503
1.6618,0.1466,38.1500,76,97,220506
1.6911,0.1369,38.1800,76,97,220509
1.6960,0.1466,38.0200,76,97,220513
1.6764,0.1466,38.2100,76,97,220516
1.6862,0.1417,38.2100,76,97,220519
1.6911,0.1515,38.1500,76,97,220523
1.6813,0.1466,38.2100,76,97,220526
1.7204,0.1515,37.9000,76,97,220529
1.7058,0.1417,38.1800,76,97,220533
1.7107,0.1417,38.2100,76,97,220536
1.7253,0.1466,38.1800,76,97,220539
1.7302,0.1466,38.2100,76,97,220542
1.7840,0.1613,38.0500,76,97,220547
1.7498,0.1515,38.1500,76,97,220550
1.7498,0.1417,38.1100,76,97,220553
1.7595,0.1417,38.2100,76,97,220557
1.7644,0.1466,38.2100,76,97,220560
1.7937,0.1564,38.0800,76,97,220563
1.7644,0.1662,38.2100,76,97,220567
1.7693,0.1466,38.0800,76,97,220570
1.7595,0.1466,38.2100,76,97,220573
1.7693,0.1466,38.2400,76,97,220576
1.8133,0.1515,38.1500,76,97,220580
1.7986,0.1466,38.2100,76,97,220583
1.8377,0.1515,38.0500,76,97,220587
1.8182,0.1466,38.2400,76,97,220591
1.8280,0.1466,38.2100,76,97,220594
1.8671,0.1564,38.0800,76,97,220597
1.8377,0.1466,38.2100,76,97,220601
1.8622,0.1466,38.0500,76,97,220604
1.8475,0.1417,38.1100,76,97,220607
1.8524,0.1466,38.3000,76,97,220611
1.8964,0.1515,38.1500,76,97,220614
1.8866,0.1466,38.2100,76,97,220617
1.9404,0.1515,38.0200,76,97,220620
1.9257,0.1466,38.1500,76,97,220624
1.9257,0.1417,38.2100,76,97,220627
1.9404,0.1515,38.2400,76,97,220631
1.9355,0.1515,38.1800,76,97,220635
1.9892,0.1564,37.9300,76,97,220638
1.9648,0.1515,38.1800,76,97,220641
1.9599,0.1466,38.2100,76,97,220645
1.9697,0.1515,38.2100,76,97,220648
1.9697,0.1466,38.2100,76,97,220651
2.0332,0.1613,37.9300,76,97,220655
1.9941,0.1564,38.1100,76,97,220658
1.9795,0.1417,38.1500,76,97,220661
1.9844,0.1466,38.2100,76,97,220664
1.9599,0.1466,37.5300,76,97,220668
1.9941,0.1613,38.0200,76,97,220672
1.9550,0.1466,38.1800,76,97,220675
1.9550,0.1466,38.0500,76,97,220679
1.9159,0.1515,38.1800,76,97,220682
1.8915,0.1466,38.2100,76,97,220685
1.8866,0.1564,38.0500,76,97,220689
1.8280,0.1417,38.2100,76,97,220692
1.8231,0.1515,38.0800,76,97,220695
1.7742,0.1466,38.3000,76,97,220699
1.7595,0.1515,38.2100,76,97,220702
1.7449,0.1515,38.1500,76,97,220705
1.7253,0.1515,38.2100,76,97,220708
1.7498,0.1417,38.0200,76,97,220712
1.6764,0.1466,38.2100,76,97,220716
1.6667,0.1466,38.2100,76,97,220719
1.6764,0.1515,38.1100,76,97,220723
1.6422,0.1515,38.2100,76,97,220726
1.6569,0.1564,37.9600,76,97,220729
1.6276,0.1466,38.0800,76,97,220733
1.6227,0.1466,38.2100,76,97,220736
1.6276,0.1515,38.2100,76,97,220739
1.6276,0.1662,38.3000,76,97,220743
1.6960,0.1564,37.9000,76,97,220746
1.6471,0.1466,37.9300,76,97,220749
1.6422,0.1515,38.2400,76,97,220752
1.6422,0.1466,38.2100,76,97,220756
1.6325,0.1466,38.2700,76,97,220760
1.6667,0.1613,38.0200,76,97,220763
1.6227,0.1466,38.1800,76,97,220767
1.6325,0.1466,38.1100,76,97,220770
1.6422,0.1417,38.2100,76,97,220773
1.6471,0.1466,38.2100,76,97,220777
1.6911,0.1564,38.1100,76,97,220780
1.6764,0.1466,38.2400,76,97,220783
1.6960,0.1515,38.1100,76,97,220787
1.6862,0.1466,38.2700,76,97,220790
1.7009,0.1466,38.1800,76,97,220793
1.7449,0.1662,38.0500,76,97,220796
1.7253,0.1466,38.2100,76,97,220801
1.7546,0.1613,38.0800,76,97,220804
1.7400,0.1369,38.1500,76,97,220807
1.7155,0.1417,38.2100,76,97,220811
1.7351,0.1564,38.1100,76,97,220814
1.7204,0.1466,38.2100,76,97,220817
1.7546,0.1564,38.0500,76,97,220821
1.7351,0.1466,38.1100,76,97,220824
1.7302,0.1320,38.2100,76,97,220827
1.7302,0.1564,38.1800,76,97,220830
1.7204,0.1808,38.2100,76,97,220834
1.7693,0.1564,37.9300,76,97,220837
1.7351,0.1466,38.1500,76,97,220840
1.7400,0.1466,38.2100,76,97,220845
1.7546,0.1515,38.1800,76,97,220848
1.7400,0.1417,38.2100,76,97,220851
1.7937,0.1613,37.9300,76,97,220855
1.7644,0.1515,38.0800,76,97,220858
1.7498,0.1466,38.1500,76,97,220861
1.7449,0.1466,38.2400,76,97,220865
1.7351,0.1417,38.1500,76,97,220868
1.7791,0.1564,38.0200,76,97,220871
1.7449,0.1515,38.1800,76,97,220874
1.7546,0.1417,38.1100,76,97,220878
1.7546,0.1466,38.2100,76,97,220881
1.7498,0.1466,38.2100,76,97,220884
1.8035,0.1564,38.0500,76,97,220889
1.7595,0.1466,38.2100,76,97,220892
1.7840,0.1466,38.4300,76,97,220895
1.7595,0.1466,38.3000,76,97,220899
1.7595,0.1466,38.2100,76,97,220902
1.7742,0.1515,38.1500,76,97,220905
1.7595,0.1466,38.2100,76,97,220909
1.7889,0.1466,38.0800,76,97,220912
1.7742,0.1466,38.2100,76,97,220915
1.7498,0.1466,38.2100,76,97,220918
1.7693,0.1515,38.0500,76,97,220922
1.7400,0.1466,38.2100,76,97,220925
1.7742,0.1515,38.0200,76,97,220929
1.7546,0.1466,38.0800,76,97,220933
1.7498,0.1466,38.2100,76,97,220936
1.7742,0.1515,38.1500,76,97,220939
1.7644,0.1466,38.3300,76,97,220943
1.8133,0.1564,37.9900,76,97,220946
1.8377,0.1613,38.0500,76,97,220951
1.7840,0.1515,38.2100,76,97,220954
1.7791,0.1515,38.1100,76,97,220957
1.7595,0.1466,38.1800,76,97,220960
1.7693,0.1466,38.2400,76,97,220964
1.8035,0.1564,38.1800,76,97,220967
1.7986,0.1515,38.1800,76,97,220971
1.8133,0.1515,38.0800,76,97,220975
1.7840,0.1466,38.2100,76,97,220978
1.7889,0.1466,38.2400,76,97,220981
1.8182,0.1466,38.0500,76,97,220985
1.7840,0.1466,38.1800,76,97,220988
1.8133,0.1466,38.0200,76,97,220991
1.7791,0.1466,38.1500,76,97,220995
1.7840,0.1466,38.2100,76,97,220998
1.8084,0.1515,38.1100,76,97,221001
1.7937,0.1564,38.2100,76,97,221004
1.8182,0.1466,37.9900,76,97,221008
1.7937,0.1369,38.1100,76,97,221011
1.7840,0.1466,38.2100,76,97,221015
1.8084,0.1515,38.2400,76,97,221019
1.8133,0.1417,38.2100,76,97,221022
1.8768,0.1564,37.9300,76,97,221025
