ecg,gsr,temp,hr,spo2,timest
1.6618,0.1808,38.9600,76,97,126277
1.6862,0.1955,38.9300,76,97,126280
1.6716,0.1515,39.0300,76,97,126284
1.6813,0.1808,39.0600,76,97,126287
1.7058,0.1906,38.9600,76,97,126290
1.6862,0.1808,39.0300,76,97,126295
1.7107,0.2102,38.9000,76,97,126298
1.6862,0.1760,39.0000,76,97,126301
1.6960,0.1808,39.0300,76,97,126304
1.7155,0.1857,39.0000,76,97,126308
1.7107,0.1857,39.0600,76,97,126311
1.7400,0.1955,38.8400,76,97,126314
1.7107,0.1857,39.0300,76,97,126318
1.7204,0.1808,39.0600,76,97,126321
1.7449,0.1906,38.9600,76,97,126324
1.7400,0.1857,39.0600,76,97,126328
1.7937,0.1955,38.7700,76,97,126331
1.7546,0.1857,39.1600,76,97,126334
1.7498,0.1760,39.0300,76,97,126338
1.7644,0.1857,39.0300,76,97,126342
1.7693,0.2053,39.0300,76,97,126345
1.8280,0.2053,38.8400,76,97,126348
1.7889,0.1857,39.0000,76,97,126352
1.7791,0.1808,38.9600,76,97,126355
1.7791,0.1808,39.0300,76,97,126358
1.7791,0.1808,39.0900,76,97,126362
1.8328,0.1955,38.9000,76,97,126365
1.7986,0.1808,39.0300,76,97,126368
1.8133,0.1808,38.9600,76,97,126372
1.7986,0.1906,39.0600,76,97,126375
1.8035,0.1808,39.0300,76,97,126379
1.8280,0.1906,38.9600,76,97,126382
1.8231,0.1857,39.0600,76,97,126386
1.8475,0.1857,38.9000,76,97,126389
1.8280,0.1857,39.0300,76,97,126392
1.8280,0.1808,39.0600,76,97,126396
1.8622,0.1906,38.9300,76,97,126399
1.8426,0.1857,39.0300,76,97,126402
1.8817,0.1808,38.9000,76,97,126406
1.8622,0.1760,38.9600,76,97,126409
1.8817,0.1857,39.0300,76,97,126412
1.8915,0.1857,39.0300,76,97,126416
1.8817,0.1808,39.0000,76,97,126419
1.9306,0.1808,38.8400,76,97,126423
1.9208,0.1808,38.9600,76,97,126426
1.9208,0.1808,39.0300,76,97,126430
1.9355,0.1906,39.0600,76,97,126433
1.9355,0.1808,39.0600,76,97,126436
1.9892,0.1955,38.8100,76,97,126440
1.9501,0.1808,39.0600,76,97,126443
1.9599,0.1760,39.0600,76,97,126446
1.9844,0.1857,39.0000,76,97,126449
1.9746,0.1808,39.0300,76,97,126453
2.0332,0.2004,38.7700,76,97,126456
1.9941,0.1857,38.9300,76,97,126459
1.9844,0.1760,38.9300,76,97,126464
1.9941,0.1857,39.0300,76,97,126467
1.9892,0.1808,39.1600,76,97,126470
2.0430,0.1955,38.8400,76,97,126474
1.9941,0.1857,39.1200,76,97,126477
1.9990,0.1857,38.9300,76,97,126480
1.9844,0.1808,39.0600,76,97,126484
1.9795,0.1808,39.1200,76,97,126487
2.0039,0.1955,38.9000,76,97,126490
1.9550,0.1808,39.0300,76,97,126493
1.9550,0.1857,38.9000,76,97,126497
1.9110,0.1808,38.9600,76,97,126500
1.8768,0.1808,39.0300,76,97,126503
1.8719,0.1857,38.9600,76,97,126508
1.8328,0.1808,39.0300,76,97,126511
1.8328,0.1955,38.9300,76,97,126514
1.7742,0.1808,39.0300,76,97,126518
1.7498,0.1808,39.0300,76,97,126521
1.7546,0.1906,38.9000,76,97,126524
1.7107,0.1760,39.0300,76,97,126527
1.7204,0.1857,38.8400,76,97,126531
1.6764,0.1808,38.9300,76,97,126534
1.6520,0.1808,39.0300,76,97,126537
1.6569,0.1906,39.0000,76,97,126541
1.6373,0.1808,39.0600,76,97,126544
1.6813,0.1906,38.7700,76,97,126547
1.6569,0.1711,38.9600,76,97,126552
1.6422,0.1808,39.0600,76,97,126555
1.6422,0.2199,39.0000,76,97,126558
1.6325,0.1760,39.0300,76,97,126561
1.6911,0.1955,38.7400,76,97,126565
1.6520,0.1857,38.9600,76,97,126568
1.6569,0.1711,39.0000,76,97,126571
1.6569,0.1955,38.9600,76,97,126575
1.6569,0.1808,39.0600,76,97,126578
1.7009,0.2004,38.9300,76,97,126581
1.6813,0.1906,39.0000,76,97,126585
1.6764,0.1711,38.9300,76,97,126588
1.6764,0.1808,39.0300,76,97,126592
1.6764,0.1760,39.0300,76,97,126596
1.7253,0.1906,38.9300,76,97,126599
1.6960,0.1857,39.0300,76,97,126602
1.7155,0.1906,38.9000,76,97,126605
1.7009,0.1808,39.0600,76,97,126609
1.7009,0.1808,39.0600,76,97,126612
1.7204,0.1906,38.1800,76,97,126615
1.7009,0.1760,39.0300,76,97,126619
1.7400,0.1906,38.9000,76,97,126622
1.7204,0.1808,39.0300,76,97,126625
1.7155,0.1808,38.5500,76,97,126628
1.7302,0.1955,39.0000,76,97,126632
1.7204,0.1808,39.0600,76,97,126636
1.7351,0.1808,38.8700,76,97,126639
1.7204,0.1808,39.0300,76,97,126643
1.7302,0.1808,39.0300,76,97,126646
1.7498,0.1906,38.9600,76,97,126649
1.7253,0.1857,39.0300,76,97,126653
1.7546,0.1906,38.8100,76,97,126656
1.7351,0.1906,38.9000,76,97,126659
1.7546,0.1808,39.0300,76,97,126662
1.7449,0.1857,39.0900,76,97,126666
1.7351,0.1808,39.0300,76,97,126669
1.7889,0.1906,38.7400,76,97,126672
1.8084,0.1955,38.9000,75,97,126676
1.7400,0.1857,39.0000,75,97,126680
1.7498,0.1808,38.9300,75,97,126684
1.7400,0.2297,39.0600,75,97,126687
1.7449,0.1515,39.0300,75,97,126690
1.7693,0.1906,38.9600,75,97,126694
1.7546,0.1808,39.0300,75,97,126697
1.7693,0.1857,38.9000,75,97,126700
1.7351,0.1857,39.0300,75,97,126704
1.7449,0.1808,39.2200,75,97,126707
1.7791,0.1955,38.9000,75,97,126710
1.7546,0.1808,38.3000,75,97,126713
1.7791,0.1808,38.9000,75,97,126717
1.7498,0.1857,38.9300,75,97,126721
1.7498,0.1808,39.0300,75,97,126724
1.7595,0.1760,38.9300,75,97,126728
1.7546,0.1808,39.0300,75,97,126731
1.7840,0.1857,38.1100,75,97,126734
1.7595,0.1857,39.0000,75,97,126738
1.7400,0.1760,39.0300,75,97,126741
1.7546,0.1857,39.0000,75,97,126744
1.7449,0.1808,39.1200,75,97,126747
1.7889,0.2004,38.7700,75,97,126751
1.7498,0.1808,39.0000,75,97,126754
1.7546,0.1808,39.0600,75,97,126757
1.7595,0.1857,39.0000,75,97,126761
1.7595,0.1711,39.0300,75,97,126765
1.7937,0.2004,38.7100,75,97,126768
1.7644,0.2053,38.9300,75,97,126772
1.7595,0.1760,39.0000,75,97,126775
1.7595,0.1857,39.0600,75,97,126778
1.7546,0.1760,39.0600,75,97,126781
1.7986,0.1906,38.8700,75,97,126785
1.7644,0.1857,39.0300,75,97,126788
1.7791,0.1711,38.9300,75,97,126791
1.7644,0.1808,39.0300,75,97,126795
1.7595,0.2004,39.0600,75,97,126798
1.7937,0.1906,38.9000,75,97,126801
1.7595,0.1808,39.0300,75,97,126806
1.7840,0.1857,39.0900,75,97,126809
1.7693,0.2102,39.0300,75,97,126812
1.7742,0.1808,39.0600,75,97,126815
1.7840,0.1857,39.0300,75,97,126819
1.7693,0.1760,39.0000,75,97,126822
1.7986,0.1857,38.7100,75,97,126825
1.7693,0.1808,39.0600,75,97,126829
1.8035,0.1808,39.0300,75,97,126832
1.8182,0.1906,38.9300,75,97,126835
1.7986,0.1808,39.0600,75,97,126839
1.8280,0.1857,38.8400,75,97,126842
1.8280,0.1808,38.9300,75,97,126845
1.8377,0.1808,39.0900,75,97,126849
1.8866,0.1906,39.0000,75,97,126853
1.8524,0.1808,39.0600,75,97,126856
1.8964,0.1906,38.7700,75,97,126859
1.8671,0.1857,38.9600,75,97,126863
1.8573,0.1808,39.0300,75,97,126866
1.8719,0.1857,39.0000,75,97,126869
1.8817,0.1857,39.0300,75,97,126873
1.9453,0.1955,38.7400,75,97,126876
1.9110,0.1857,38.9600,75,97,126879
1.9159,0.1711,39.0300,75,97,126883
1.9208,0.1857,38.9600,75,97,126886
1.9110,0.1857,39.0300,75,97,126889
1.9599,0.2004,38.2700,75,97,126893
1.9110,0.1955,39.0600,75,97,126897
1.9062,0.1857,38.9600,75,97,126900
1.8524,0.1808,39.0300,75,97,126903
1.8280,0.1857,39.0600,75,97,126907
1.8475,0.1906,38.8700,75,97,126910
1.8133,0.1857,39.0000,75,97,126913
1.8182,0.1808,38.9000,75,97,126917
1.7840,0.1857,39.0300,75,97,126920
1.7742,0.1808,39.0300,75,97,126923
1.7840,0.1808,38.9600,75,97,126926
1.7498,0.1808,39.0300,75,97,126930
1.7693,0.1906,39.3200,75,97,126934
1.7302,0.1857,39.0300,75,97,126937
1.7204,0.1808,39.0300,75,97,126941
1.7155,0.1857,38.9600,75,97,126944
1.7351,0.1711,39.0600,75,97,126947
1.7351,0.1808,38.9300,75,97,126951
1.7204,0.1857,39.0300,75,97,126954
1.7253,0.1808,39.0600,75,97,126957
1.7449,0.2199,39.0000,75,97,126961
1.7253,0.1808,39.0300,75,97,126964
1.7693,0.1906,38.9000,75,97,126967
1.7498,0.1857,39.0000,75,97,126970
1.7400,0.1808,39.0300,75,97,126974
1.7253,0.1857,39.0300,75,97,126978
1.7107,0.2199,39.0600,75,97,126981
1.7791,0.1906,38.7400,75,97,126985
1.7986,0.1857,38.9600,75,97,126988
1.8671,0.1711,39.0300,75,97,126991
1.9892,0.1857,39.0300,75,97,126995
2.1163,0.1808,39.0300,75,97,126998
2.3363,0.2004,38.8400,75,97,127001
2.4633,0.1857,39.0300,75,97,127004
2.6246,0.1808,38.9600,75,97,127008
2.6295,0.1857,39.0300,75,97,127011
2.5073,0.1955,39.0300,75,97,127014
2.3558,0.1955,38.9300,75,97,127019
2.1163,0.1857,39.0000,75,97,127022
1.9550,0.1857,38.9000,75,97,127025
1.8280,0.1808,39.0600,75,97,127029
1.7742,0.1808,39.0300,75,97,127032
1.7742,0.1906,38.8700,75,97,127035
1.7253,0.1808,39.0300,75,97,127039
1.7155,0.1906,38.9000,75,97,127042
1.6813,0.1760,38.9600,75,97,127045
1.6716,0.1808,39.0300,75,97,127048
1.6862,0.1808,38.9300,75,97,127052
1.6520,0.1808,39.0300,75,97,127055
1.6764,0.1857,38.8400,75,97,127058
1.6520,0.1857,39.0000,75,97,127063
1.6520,0.1711,39.0600,75,97,127066
1.6569,0.1906,39.0000,75,97,127069
1.6569,0.1808,39.0900,75,97,127073
1.6960,0.2053,38.8100,75,97,127076
1.6667,0.1808,39.0000,75,97,127079
1.6716,0.1808,39.0900,75,97,127082
1.6862,0.1808,39.0000,75,97,127086
1.6862,0.1515,39.0900,75,97,127089
1.7351,0.1955,38.7100,75,97,127092
1.7155,0.1857,39.0000,75,97,127096
1.7058,0.1760,39.0300,75,97,127099
1.7058,0.1857,39.0000,75,97,127102
1.7302,0.1711,39.0600,75,97,127107
1.7644,0.2004,38.8400,75,97,127110
1.7302,0.1857,38.9600,75,97,127113
1.7449,0.1760,38.9600,75,97,127116
1.7351,0.1808,39.1600,75,97,127120
1.7400,0.1857,39.0600,75,97,127123
1.7791,0.1906,38.9000,75,97,127126
1.7546,0.1808,39.0300,75,97,127130
1.7840,0.1808,39.0300,75,97,127133
1.7693,0.1760,39.0600,75,97,127136
1.7742,0.1808,39.0600,75,97,127140
1.7937,0.1906,39.0900,75,97,127143
1.7840,0.1760,39.0000,75,97,127147
1.8231,0.1906,38.8700,75,97,127150
1.8084,0.1808,39.0300,75,97,127154
1.8084,0.1760,39.0600,75,97,127157
1.8377,0.1906,38.9300,75,97,127160
1.8084,0.2297,39.0300,75,97,127164
1.8377,0.1955,38.8400,75,97,127167
1.8231,0.1808,38.9600,75,97,127170
1.8280,0.1808,38.9600,75,97,127174
1.8573,0.1857,38.9300,75,97,127177
1.8426,0.1808,39.0900,75,97,127180
1.8817,0.1857,38.7700,75,97,127183
1.8719,0.1857,39.0000,75,97,127187
1.8719,0.1808,39.0600,75,97,127191
1.8915,0.1857,39.0000,75,97,127194
1.8866,0.1857,39.0600,75,97,127198
1.9355,0.1955,38.7700,75,97,127201
1.8964,0.1857,39.0000,75,97,127204
1.9062,0.1808,39.0600,75,97,127208
1.9257,0.1857,39.0300,75,97,127211
1.9306,0.1857,39.0300,75,97,127214
1.9941,0.2053,38.8100,75,97,127217
1.9550,0.1857,39.0300,75,97,127221
1.9550,0.1857,38.9600,75,97,127224
1.9697,0.1857,39.0300,75,97,127227
1.9795,0.1955,39.0600,75,97,127232
2.0381,0.1906,38.8400,75,97,127235
2.0088,0.1857,38.9000,75,97,127238
2.0137,0.1808,38.9000,75,97,127242
1.9990,0.1857,39.0600,75,97,127245
2.0088,0.1857,39.0300,75,97,127248
2.0430,0.1906,38.9000,75,97,127251
2.0186,0.1808,39.0300,75,97,127255
2.0430,0.2053,38.9000,75,97,127258
2.0137,0.1857,39.0300,75,97,127261
2.0137,0.1808,39.0300,75,97,127265
2.0283,0.1906,38.9600,75,97,127268
2.0137,0.1906,39.0000,75,97,127271
2.0430,0.1906,38.9600,75,97,127276
1.9990,0.1808,39.1200,75,97,127279
1.9795,0.1857,39.0300,75,97,127282
1.9941,0.1906,38.9300,75,97,127285
1.8377,0.1857,39.0000,75,97,127289
1.8035,0.1808,39.0600,75,97,127292
1.8231,0.1906,38.7400,75,97,127296
1.7693,0.1857,38.9600,75,97,127299
1.7449,0.1760,39.0300,75,97,127302
1.7351,0.1857,39.0300,75,97,127306
1.7058,0.1808,39.0600,75,97,127309
1.7498,0.2199,38.8100,75,97,127312
1.7009,0.1857,39.0300,75,97,127316
1.6960,0.1808,39.0000,75,97,127320
1.6862,0.2053,39.0600,75,97,127323
1.6764,0.1808,39.0600,75,97,127327
1.7058,0.1955,38.8700,75,97,127330
1.6813,0.2151,39.0000,75,97,127333
1.6911,0.1711,38.9300,75,97,127336
1.6862,0.1906,39.0300,75,97,127340
1.7204,0.1760,39.0600,75,97,127343
1.7204,0.1906,38.8100,75,97,127346
1.6911,0.1760,39.0600,75,97,127350
1.7204,0.1808,38.9300,75,97,127353
1.6911,0.1808,39.0300,75,97,127356
1.6960,0.1808,39.0300,75,97,127361
1.7204,0.1906,38.9600,75,97,127364
1.7058,0.1808,39.0600,75,97,127367
1.7302,0.1857,38.8400,75,97,127370
1.7107,0.1808,39.0000,75,97,127374
1.7204,0.1808,39.0600,75,97,127377
1.7351,0.1857,38.9600,75,97,127380
1.7449,0.1808,39.0300,75,97,127384
1.7693,0.1857,38.9000,75,97,127387
1.7351,0.1808,39.0300,75,97,127390
1.7351,0.1808,39.1200,75,97,127394
1.7693,0.1711,39.0000,75,97,127397
1.7498,0.1808,39.0900,75,97,127400
1.7986,0.1955,38.7400,75,97,127404
1.7742,0.1808,38.9300,75,97,127408
1.7546,0.1760,39.0000,75,97,127411
1.7644,0.1857,39.0300,75,97,127414
1.7693,0.1808,39.0300,75,97,127418
1.8231,0.2004,38.8400,75,97,127421
1.7742,0.1857,39.0000,75,97,127424
1.7742,0.1808,39.0300,75,97,127428
1.7644,0.1857,39.0600,75,97,127431
1.7644,0.1808,39.0300,75,97,127434
1.8035,0.1906,38.9000,75,97,127438
1.7840,0.1857,39.0300,75,97,127441
1.7889,0.1711,38.9300,75,97,127444
1.7742,0.1808,39.0300,75,97,127448
1.7742,0.1808,39.0600,75,97,127452
1.7937,0.1906,38.9600,75,97,127455
1.7889,0.1808,39.0300,75,97,127458
1.8231,0.1808,38.9300,75,97,127462
1.7889,0.1808,39.0300,75,97,127465
1.7840,0.1808,39.0300,75,97,127468
1.8133,0.1906,38.4600,75,97,127472
1.8035,0.1808,39.0300,75,97,127475
1.8133,0.1857,38.8400,75,97,127478
1.7986,0.1808,38.9300,75,97,127482
1.7986,0.1857,39.0300,75,97,127485
1.7986,0.1906,38.9600,75,97,127489
1.7889,0.1760,39.0300,75,97,127492
1.8328,0.1955,38.7700,75,97,127496
1.8084,0.1857,38.9600,75,97,127499
1.8035,0.1857,39.0600,75,97,127502
1.8084,0.1857,39.0300,75,97,127506
1.7937,0.1808,39.0300,75,97,127509
1.8426,0.1955,38.7400,75,97,127512
1.8035,0.1808,38.9600,75,97,127516
1.8035,0.1760,39.0300,75,97,127519
1.7986,0.1857,39.0300,75,97,127522
1.7986,0.1808,39.0900,75,97,127525
1.8426,0.2102,38.8700,75,97,127529
1.8084,0.1808,38.9600,75,97,127533
1.8084,0.1808,38.9300,75,97,127536
1.8084,0.1857,39.0300,75,97,127540
1.8084,0.1808,39.0300,75,97,127543
1.8426,0.1906,38.8100,75,97,127546
1.8035,0.1857,39.0300,75,97,127550
1.8231,0.1857,38.9300,75,97,127553
1.8035,0.1808,39.0300,75,97,127556
1.8084,0.1808,39.0300,75,97,127560
1.8328,0.1906,38.9300,75,97,127563
1.8084,0.1906,39.0600,75,97,127566
1.8328,0.1955,38.9300,75,97,127569
1.8084,0.1808,38.9300,75,97,127574
1.8133,0.1857,39.0300,75,97,127577
1.8328,0.1857,38.9600,75,97,127580
1.8231,0.1808,39.0600,75,97,127584
1.8377,0.1711,38.8400,75,97,127587
1.8182,0.1906,39.0600,75,97,127590
1.8231,0.1760,39.0600,75,97,127594
1.8475,0.1906,38.9300,75,97,127597
1.8328,0.1857,39.0300,75,97,127600
1.8768,0.1906,38.8400,75,97,127604
1.8475,0.1857,39.0000,75,97,127607
1.8280,0.1760,39.0300,75,97,127610
1.8377,0.1857,39.0000,75,97,127613
1.8328,0.1808,39.0300,75,97,127618
1.8866,0.1955,38.7700,75,97,127621
1.8475,0.1857,38.8400,75,97,127624
1.8328,0.1760,39.0000,75,97,127628
1.8426,0.1857,39.0300,75,97,127631
1.8524,0.1808,39.0900,75,97,127634
1.9306,0.2297,38.8700,75,97,127638
1.9062,0.1808,39.0300,75,97,127641
1.9208,0.1808,38.9300,75,97,127644
1.9159,0.1857,39.0300,75,97,127647
1.9159,0.1808,39.0600,75,97,127651
1.9501,0.1906,38.9300,75,97,127654
1.9306,0.2004,39.0300,75,97,127657
1.9453,0.1857,38.9300,75,97,127662
1.9257,0.1808,39.0300,75,97,127665
1.9257,0.1760,39.0300,75,97,127668
1.9795,0.1955,38.9000,75,97,127672
1.9599,0.1808,39.0300,75,97,127675
2.0039,0.1906,38.9300,75,97,127678
1.9746,0.1711,39.0300,75,97,127681
1.9697,0.1808,39.0900,75,97,127685
1.9648,0.1906,38.9600,75,97,127688
1.9257,0.1808,39.0600,75,97,127691
1.9306,0.1857,38.8700,75,97,127695
1.8817,0.1808,39.0000,75,97,127698
1.8671,0.1808,39.1900,75,97,127702
1.8573,0.1955,39.0000,75,97,127706
1.8377,0.1808,39.0300,75,97,127709
1.8622,0.1906,38.9000,75,97,127712
1.8182,0.1711,39.0000,75,97,127716
1.8133,0.1808,39.0600,75,97,127719
1.8133,0.1857,38.9600,75,97,127722
1.7937,0.1808,39.0300,75,97,127725
1.8280,0.1906,38.7100,75,97,127729
1.7986,0.1857,38.9600,75,97,127732
1.7693,0.1760,39.0900,75,97,127735
1.7693,0.1857,39.0000,75,97,127739
1.7644,0.1808,39.0300,75,97,127742
1.8182,0.2004,38.8400,75,97,127746
1.7742,0.1857,39.0000,75,97,127750
1.7791,0.1808,38.9600,75,97,127753
1.7693,0.1906,39.0300,75,97,127756
1.7889,0.1857,39.0300,75,97,127759
1.8084,0.1906,38.9000,75,97,127763
1.7742,0.1808,39.0300,75,97,127766
1.8133,0.1808,38.9000,75,97,127769
1.7546,0.1808,39.0900,75,97,127773
1.7693,0.1808,39.0300,75,97,127776
1.8328,0.1808,39.0000,75,97,127779
1.8817,0.1515,39.0300,75,97,127783
2.0088,0.1906,38.9000,75,97,127787
2.1114,0.1808,39.0600,75,97,127790
2.2727,0.1760,39.0300,75,97,127793
2.4536,0.1906,39.0000,75,97,127797
2.6100,0.1906,39.0300,75,97,127800
2.7224,0.1955,38.8700,75,97,127803
2.6246,0.1808,38.9600,75,97,127807
2.4438,0.1808,38.9600,75,97,127810
2.2581,0.1906,38.9600,75,97,127813
2.0577,0.1808,39.1200,75,97,127817
1.9599,0.1857,38.8100,75,97,127820
1.8524,0.1857,39.0000,75,97,127823
1.8035,0.1808,39.0300,75,97,127826
1.7840,0.1857,39.0000,75,97,127831
1.7595,0.1857,39.0600,75,97,127834
1.7937,0.1955,38.7700,75,97,127837
1.7351,0.1808,38.9600,75,97,127841
1.7253,0.1760,39.0600,75,97,127844
1.7107,0.1857,39.0300,75,97,127847
1.6960,0.1906,39.0300,75,97,127851
1.7791,0.2053,38.8100,75,97,127854
1.7155,0.1906,39.0600,75,97,127857
1.7155,0.1808,39.0000,75,97,127860
1.7155,0.1808,39.0300,75,97,127864
1.7155,0.1808,38.9000,75,97,127867
1.7546,0.2053,38.8400,75,97,127870
1.7351,0.1857,39.0000,75,97,127875
1.7546,0.1857,38.9000,75,97,127878
1.7840,0.1857,39.0300,75,97,127881
1.7546,0.1808,39.0600,75,97,127885
1.7840,0.2248,38.9000,75,97,127888
1.7840,0.1857,39.0300,75,97,127891
1.7937,0.1906,38.9000,75,97,127895
1.7791,0.1808,39.0900,75,97,127898
1.7986,0.1808,39.0300,75,97,127902
1.8084,0.1808,39.0300,75,97,127905
1.8328,0.1906,39.0000,75,97,127908
1.8231,0.1808,39.0300,75,97,127911
1.8671,0.1906,38.7700,75,97,127916
1.8475,0.1711,38.9600,75,97,127919
1.8328,0.1808,39.0600,75,97,127922
1.8622,0.1808,39.0000,75,97,127926
1.8426,0.1808,39.0300,75,97,127929
1.8964,0.2004,38.7700,75,97,127932
1.8671,0.1808,39.0000,75,97,127936
1.8573,0.1760,39.0000,75,97,127939
1.8622,0.1857,39.0600,75,97,127942
1.8719,0.1857,39.0600,75,97,127945
1.9257,0.2004,38.9000,75,97,127949
1.8915,0.1857,38.9300,75,97,127952
1.8964,0.1808,38.9300,75,97,127955
1.8915,0.1857,39.0600,75,97,127960
1.8964,0.2053,39.0600,75,97,127963
1.9257,0.1955,38.9300,75,97,127966
1.9208,0.1857,39.0300,75,97,127970
1.9404,0.2151,38.9000,75,97,127973
1.9208,0.1808,39.0300,75,97,127976
1.9355,0.1808,39.0000,75,97,127979
1.9795,0.1857,38.9000,75,97,127983
1.9599,0.1808,39.0600,75,97,127986
2.0039,0.1857,39.0300,75,97,127989
1.9795,0.1857,38.9000,75,97,127993
1.9941,0.1808,39.0600,75,97,127996
2.0137,0.1906,38.9300,75,97,128000
2.0088,0.1857,39.0300,75,97,128004
2.0821,0.1808,38.8400,75,97,128007
2.0381,0.1808,38.9600,75,97,128010
2.0381,0.1808,38.9600,75,97,128013
2.0577,0.2004,38.9600,75,97,128017
2.0674,0.1808,39.0300,75,97,128020
2.0968,0.1906,38.8100,75,97,128023
2.0626,0.1808,39.1200,75,97,128027
2.0626,0.1808,39.0000,75,97,128030
2.0772,0.1808,39.0000,75,97,128033
2.0577,0.1808,39.0300,75,97,128037
2.1114,0.1906,38.7400,75,97,128040
2.0772,0.1906,39.0000,75,97,128044
2.0528,0.1808,39.0300,75,97,128047
2.0577,0.1808,39.0300,75,97,128051
2.0626,0.1711,39.0300,75,97,128054
2.0870,0.2004,38.7700,75,97,128057
2.0283,0.1857,39.0000,75,97,128061
1.9990,0.1760,39.0300,75,97,128064
1.9844,0.1857,39.0300,75,97,128067
1.9550,0.1711,39.0300,75,97,128070
1.9844,0.2004,38.8700,75,97,128074
1.9013,0.1906,39.0000,75,97,128077
1.8768,0.1808,38.9600,75,97,128080
1.8475,0.1857,39.0600,75,97,128084
1.8280,0.1808,39.0300,75,97,128088
1.8426,0.1955,38.9600,75,97,128091
1.8035,0.1808,39.0000,75,97,128094
1.7840,0.1711,38.9000,75,97,128098
1.7498,0.1808,39.0600,75,97,128101
1.7449,0.1906,39.0300,75,97,128104
1.7693,0.1955,38.8700,75,97,128108
1.7351,0.1808,39.0900,75,97,128111
1.7449,0.1906,38.8700,75,97,128114
1.7107,0.1857,39.0300,75,97,128118
1.7058,0.1808,39.0300,75,97,128121
1.7253,0.1906,39.0000,75,97,128124
1.7058,0.1857,39.0300,75,97,128128
1.7302,0.1906,38.9000,75,97,128132
1.7058,0.1711,39.0300,75,97,128135
1.7058,0.1808,39.1200,75,97,128138
1.7204,0.2102,39.0600,75,97,128142
1.7302,0.1711,39.0300,75,97,128145
1.7595,0.1857,38.8400,75,97,128148
1.7400,0.1857,39.0300,75,97,128152
1.7400,0.1808,39.0300,75,97,128155
1.7644,0.1906,38.9300,75,97,128158
1.7498,0.2151,39.0300,75,97,128161
1.7937,0.1955,38.7700,75,97,128165
1.7791,0.1857,38.6200,75,97,128168
1.7595,0.1857,39.0600,75,97,128172
1.7644,0.1857,39.2200,75,97,128176
1.7546,0.1857,39.0300,75,97,128179
1.8133,0.2004,38.7700,75,97,128182
1.7791,0.1857,39.0600,75,97,128186
1.8084,0.1711,39.0000,75,97,128189
1.7840,0.1857,39.0600,75,97,128192
1.7791,0.1808,39.0600,75,97,128195
1.8328,0.1906,38.9000,75,97,128199
1.7986,0.1857,39.0600,75,97,128202
1.8133,0.1711,38.9600,75,97,128205
1.8035,0.1857,38.3300,75,97,128209
1.7986,0.1808,39.0300,75,97,128212
1.8280,0.1906,39.0000,75,97,128216
1.8133,0.1857,39.0300,75,97,128219
1.8280,0.1857,38.9300,75,97,128223
1.8377,0.1711,39.0300,75,97,128226
1.8133,0.1808,39.0300,75,97,128229
1.8426,0.2004,38.8700,75,97,128233
1.8133,0.1808,39.0300,75,97,128236
1.8377,0.1906,38.9600,75,97,128239
1.8133,0.1760,39.0000,75,97,128243
1.8182,0.1808,39.0300,75,97,128246
1.8377,0.1906,38.9300,75,97,128249
1.8524,0.1857,39.0600,75,97,128253
1.8377,0.1857,38.8700,75,97,128257
1.8133,0.1857,38.9600,75,97,128260
1.8182,0.1808,39.0300,75,97,128263
1.8328,0.1906,39.0900,75,97,128267
1.8231,0.1808,39.0300,75,97,128270
1.8573,0.1955,38.8100,75,97,128273
1.8133,0.1808,39.0900,75,97,128277
1.8182,0.1955,39.0600,75,97,128280
1.8328,0.1906,39.0000,75,97,128283
1.8231,0.1808,39.1200,75,97,128287
1.8671,0.1955,38.7400,75,97,128290
1.8231,0.1857,38.9600,75,97,128293
1.8133,0.1760,39.0000,75,97,128296
1.8328,0.1711,39.0300,75,97,128301
1.8231,0.1808,38.9300,75,97,128304
1.8817,0.2053,38.8700,75,97,128307
1.8377,0.1857,38.9600,75,97,128311
1.8328,0.1808,38.9300,75,97,128314
1.8377,0.1857,39.0300,75,97,128317
1.8231,0.1808,39.0300,75,97,128321
1.8524,0.2102,38.9000,75,97,128324
1.8377,0.1808,39.0300,75,97,128327
1.8524,0.1857,38.9300,75,97,128331
1.8377,0.1906,39.0300,75,97,128334
1.8377,0.1808,39.0600,75,97,128337
1.8524,0.1857,38.2100,75,97,128340
1.8475,0.1857,39.0600,75,97,128345
1.8768,0.1906,38.9000,75,97,128348
1.8426,0.1808,39.0600,75,97,128351
1.8377,0.1808,39.0000,75,97,128355
1.8915,0.2004,38.9000,75,97,128358
1.8328,0.1808,38.8400,75,97,128361
1.8573,0.1857,38.8700,75,97,128365
1.8671,0.1808,38.9300,75,97,128368
1.8377,0.1808,39.0300,75,97,128371
1.8475,0.1857,38.9300,75,97,128374
1.8377,0.1857,39.0300,75,97,128378
1.8768,0.1906,38.8100,75,97,128381
1.8524,0.1906,39.0000,75,97,128385
1.8475,0.1857,39.0600,75,97,128389
1.8622,0.1857,39.0000,75,97,128392
1.8475,0.1808,39.0300,75,97,128395
1.8915,0.1955,38.7100,75,97,128399
1.8573,0.1808,39.0000,75,97,128402
1.8524,0.1808,39.0300,75,97,128405
1.8622,0.1955,38.9600,75,97,128408
1.8573,0.1808,39.0600,75,97,128412
1.9013,0.2053,38.8100,75,97,128415
1.8622,0.1906,38.9600,75,97,128418
1.8573,0.1857,38.9600,75,97,128422
1.8719,0.1857,39.2500,75,97,128425
1.8817,0.1857,39.0600,75,97,128429
1.9404,0.1955,38.8400,75,97,128433
1.9110,0.1808,39.0300,75,97,128436
1.9453,0.1760,38.9000,75,97,128439
1.9159,0.1808,39.0300,75,97,128442
1.9257,0.1808,38.3000,75,97,128446
1.9550,0.1955,38.9000,75,97,128449
1.9306,0.1808,39.0300,75,97,128452
1.9550,0.1857,38.9000,75,97,128456
1.9355,0.1808,39.0300,75,97,128459
1.9501,0.1808,39.0600,75,97,128462
1.9844,0.1857,39.0000,75,97,128466
1.9795,0.1515,39.0300,75,97,128470
2.0088,0.1857,38.8400,75,97,128473
1.9697,0.1711,39.0300,75,97,128476
1.9599,0.1808,39.1200,75,97,128480
1.9746,0.1955,38.9300,75,97,128483
1.9355,0.1808,39.0300,75,97,128486
1.9404,0.1857,38.9000,75,97,128490
1.8964,0.1857,38.9300,75,97,128493
1.8768,0.1711,39.0600,75,97,128496
1.8719,0.1906,39.0000,75,97,128500
1.8524,0.1857,39.0600,75,97,128503
1.8964,0.1955,38.7700,75,97,128506
1.8426,0.1906,38.8700,75,97,128512
1.7937,0.1857,39.0000,75,97,128515
1.7937,0.1808,38.9000,75,97,128518
1.7791,0.1906,39.0300,75,97,128522
1.7742,0.1515,39.0300,75,97,128525
1.8133,0.1955,39.0000,75,97,128528
1.7937,0.1808,39.0600,75,97,128532
1.8182,0.1808,38.9300,75,97,128535
1.7937,0.1808,39.0600,75,97,128538
1.7986,0.1808,39.0300,75,97,128542
1.8231,0.1906,38.8700,75,97,128545
1.7840,0.2151,39.0600,75,97,128548
1.8035,0.1955,38.9000,75,97,128551
1.7937,0.1808,39.0300,75,97,128556
1.8328,0.1808,39.0600,75,97,128559
1.9110,0.2248,39.0000,75,97,128562
1.9844,0.1808,39.0600,75,97,128566
2.1408,0.1711,38.9000,75,97,128569
2.2532,0.1808,39.0300,75,97,128572
2.4242,0.1808,39.0000,75,97,128575
2.6344,0.2199,38.9600,75,97,128579
2.7419,0.1711,39.0900,75,97,128582
2.7761,0.1857,38.9000,75,97,128585
2.6100,0.1857,39.0600,75,97,128589
2.4047,0.1857,39.0600,75,97,128592
2.2141,0.1906,39.0000,75,97,128595
2.0137,0.1857,39.0000,75,97,128600
1.9257,0.1857,38.7700,75,97,128603
1.8280,0.1857,38.9300,75,97,128606
1.7742,0.1808,38.3300,75,97,128609
1.7644,0.1857,39.0300,75,97,128613
1.7351,0.1808,39.0300,75,97,128616
1.7742,0.1955,38.7400,75,97,128619
1.7253,0.1857,38.9600,75,97,128623
1.7107,0.1760,39.0000,75,97,128626
1.7058,0.1760,39.0300,75,97,128629
1.7107,0.1808,39.0300,75,97,128633
1.7546,0.2004,38.8700,75,97,128636
1.7253,0.1857,38.9600,75,97,128640
1.7204,0.1808,38.9600,75,97,128643
1.7204,0.1808,39.0600,75,97,128647
1.7253,0.1808,39.0600,75,97,128650
1.7693,0.2053,38.9000,75,97,128653
1.7840,0.1857,39.0300,75,97,128657
1.7644,0.1857,38.9300,75,97,128660
1.7546,0.1906,39.0300,75,97,128663
1.7644,0.1857,39.0300,75,97,128667
1.7986,0.1906,38.8700,75,97,128670
1.7791,0.1906,39.0000,75,97,128673
1.8084,0.1955,38.9000,75,97,128676
1.7937,0.1711,39.0300,75,97,128680
1.7889,0.1808,39.0600,75,97,128684
1.8182,0.1857,38.9300,75,97,128687
1.8035,0.1808,38.8400,75,97,128691
1.8377,0.1808,38.8400,75,97,128694
1.8280,0.1760,39.0000,75,97,128697
1.8280,0.1808,39.0600,75,97,128701
1.8377,0.1857,38.8700,75,97,128704
1.8328,0.1760,39.0600,75,97,128707
1.8768,0.1906,38.8100,75,97,128710
1.8475,0.1808,39.0900,75,97,128714
1.8524,0.2053,39.0300,75,97,128717
1.8671,0.1857,39.0000,75,97,128720
1.8475,0.2004,39.0600,75,97,128724
1.8964,0.1955,38.7700,75,97,128728
1.8768,0.1857,38.9600,75,97,128731
1.8671,0.1808,39.1200,75,97,128735
1.8671,0.1760,39.0300,75,97,128738
1.8768,0.1808,39.0600,75,97,128741
1.9355,0.2004,39.1900,75,97,128744
1.9208,0.1808,38.9600,75,97,128748
1.9110,0.1711,39.0000,75,97,128751
1.9159,0.1808,39.0600,75,97,128754
1.9159,0.1857,39.0300,75,97,128758
1.9746,0.1955,38.9300,75,97,128761
1.9257,0.1808,39.0000,75,97,128764
1.9453,0.1857,38.9300,75,97,128769
1.9404,0.1808,39.0300,75,97,128772
1.9550,0.1808,39.0600,75,97,128775
1.9892,0.1906,38.9300,75,97,128778
1.9795,0.1808,39.0300,75,97,128782
2.0039,0.1857,38.9000,75,97,128785
1.9892,0.1857,39.0600,75,97,128788
2.0039,0.1711,39.0600,75,97,128792
2.0479,0.1955,38.9000,75,97,128795
2.0283,0.1808,39.0300,75,97,128798
2.0626,0.2004,38.8700,75,97,128802
2.0381,0.1857,39.0000,75,97,128805
2.0870,0.1760,39.0600,75,97,128808
2.0821,0.1857,38.9600,75,97,128812
2.0674,0.1808,39.1900,75,97,128816
2.1017,0.1857,38.8700,75,97,128819
2.0772,0.1760,38.9600,75,97,128822
2.0772,0.1808,39.0300,75,97,128826
2.0919,0.1857,38.9600,75,97,128829
2.0821,0.2053,39.0600,75,97,128832
2.1261,0.1955,38.8100,75,97,128835
2.0870,0.1808,39.0900,75,97,128839
2.0821,0.1808,39.1600,75,97,128842
2.0919,0.2199,39.0000,75,97,128845
2.0626,0.1808,39.0300,75,97,128849
2.1017,0.1906,38.8100,75,97,128852
2.0528,0.1857,38.9600,75,97,128856
2.0137,0.1760,39.0600,75,97,128860
1.9941,0.1857,39.0300,75,97,128863
1.9599,0.1808,39.2200,75,97,128866
1.9941,0.2053,38.7700,75,97,128869
1.9257,0.1857,38.9600,75,97,128873
1.8866,0.1711,39.0000,75,97,128876
1.8622,0.1808,39.0300,75,97,128879
1.8280,0.1808,39.1200,75,97,128883
1.8524,0.2053,38.9000,75,97,128886
1.7986,0.1808,39.0300,75,97,128889
1.7937,0.1808,38.9300,75,97,128893
1.7693,0.1808,38.9600,75,97,128897
1.7644,0.1808,39.0600,75,97,128900
1.7693,0.1906,39.0000,75,97,128903
1.7400,0.1857,39.0000,75,97,128907
1.7546,0.1808,38.8400,75,97,128910
1.7351,0.1808,39.0600,75,97,128913
1.7351,0.1515,39.0600,75,97,128917
1.7595,0.2151,38.8700,75,97,128920
1.7302,0.1808,39.0600,75,97,128923
1.7546,0.1857,38.8400,75,97,128927
1.7693,0.1711,39.0000,75,97,128930
1.7498,0.1808,39.1200,75,97,128933
1.7742,0.1857,38.9300,75,97,128936
1.7595,0.1808,39.0600,75,97,128941
1.7840,0.1857,38.8400,75,97,128944
1.7693,0.1760,38.9600,75,97,128947
1.7644,0.1515,39.0600,75,97,128951
1.7791,0.1857,38.9300,75,97,128954
1.7791,0.1808,39.0600,75,97,128957
1.8084,0.1906,38.7700,75,97,128961
1.7693,0.1808,39.0000,75,97,128964
1.7742,0.1808,39.0300,75,97,128967
1.7986,0.1857,39.0000,75,97,128970
1.7889,0.1808,39.0600,75,97,128974
1.8426,0.1955,38.7400,75,97,128977
1.8035,0.1857,38.9600,75,97,128980
1.7889,0.1760,39.0300,75,97,128985
1.7937,0.1808,39.0000,75,97,128988
1.7937,0.1808,39.0300,75,97,128991
1.8524,0.2004,38.8400,75,97,128995
1.8231,0.1711,38.9600,75,97,128998
1.8182,0.1808,38.9600,75,97,129001
1.8084,0.1857,39.0000,75,97,129004
1.8084,0.1760,39.0300,75,97,129008
1.8475,0.1857,38.8700,75,97,129011
1.8231,0.1808,39.0000,75,97,129014
1.8377,0.1808,38.9000,75,97,129018
1.8475,0.1808,39.0600,75,97,129021
1.8182,0.1808,38.5200,75,97,129025
1.8328,0.1955,39.0600,75,97,129029
1.8280,0.1808,39.0300,75,97,129032
1.8524,0.1906,39.0300,75,97,129035
1.8524,0.1857,39.0300,75,97,129038
1.8231,0.1711,39.0300,75,97,129042
1.8426,0.1906,38.8400,75,97,129045
1.8231,0.1808,39.0300,75,97,129048
1.8426,0.1808,38.4600,75,97,129052
1.8280,0.1760,38.9300,75,97,129055
1.8231,0.1808,39.0600,75,97,129058
1.8328,0.1955,38.9600,75,97,129062
1.8231,0.1808,39.0600,75,97,129065
1.8573,0.1857,38.8100,75,97,129069
1.8377,0.2102,39.0000,75,97,129073
1.8328,0.1760,39.0600,75,97,129076
1.8377,0.1857,39.0300,75,97,129079
1.8280,0.1808,39.2200,75,97,129082
1.8719,0.1955,38.7400,75,97,129086
1.8231,0.1808,39.1200,75,97,129089
1.8280,0.1760,39.0300,75,97,129092
1.8377,0.1857,39.0300,75,97,129096
1.8231,0.1808,39.0000,75,97,129099
1.8719,0.2004,38.8400,75,97,129102
1.8377,0.1857,39.0000,75,97,129106
1.8328,0.1760,39.0900,75,97,129110
1.8573,0.1808,39.0300,75,97,129113
1.8328,0.1808,39.0600,75,97,129116
1.8622,0.1906,38.8700,75,97,129120
1.8524,0.1857,39.0300,75,97,129124
1.8328,0.2004,39.0000,75,97,129128
1.8573,0.2102,38.9000,75,97,129131
1.8377,0.1760,39.0000,75,97,129134
1.8377,0.1808,39.0300,75,97,129138
1.8475,0.2004,39.0600,75,97,129141
1.8426,0.1857,39.0300,75,97,129144
1.8671,0.1857,38.8400,75,97,129148
1.8328,0.1857,39.0600,75,97,129152
1.8280,0.1808,39.0300,75,97,129155
1.8573,0.1906,39.0000,75,97,129158
1.8426,0.1857,39.0300,75,97,129162
1.8866,0.1711,38.8100,75,97,129165
1.8524,0.1857,38.8700,75,97,129168
1.8328,0.1906,39.0600,75,97,129172
1.8426,0.1857,39.0300,75,97,129175
1.8426,0.1808,39.0300,75,97,129178
1.8964,0.1955,38.8100,75,97,129182
1.8573,0.1808,39.0300,75,97,129185
1.8426,0.1760,38.9600,75,97,129188
1.8524,0.1711,39.0000,75,97,129191
1.8426,0.1808,39.0600,75,97,129196
1.8915,0.2004,38.8400,75,97,129199
1.8573,0.1857,39.0000,75,97,129202
1.8524,0.1808,38.9300,75,97,129206
1.8524,0.1808,39.0000,75,97,129209
1.8719,0.1711,39.0300,75,97,129212
1.9062,0.1906,39.0600,75,97,129216
1.9013,0.1808,39.0000,75,97,129219
1.9257,0.1857,38.9000,75,97,129222
1.9110,0.1515,39.0600,75,97,129225
1.9110,0.1808,39.0300,75,97,129229
1.9404,0.2004,38.8700,75,97,129232
1.9159,0.1808,39.0300,75,97,129235
1.9453,0.1906,39.0300,75,97,129240
1.9257,0.1857,39.0300,75,97,129243
1.9355,0.1711,39.0300,75,97,129246
1.9599,0.1955,38.9300,75,97,129250
1.9453,0.1808,39.0300,75,97,129253
1.9844,0.1857,38.8400,75,97,129256
1.9599,0.1857,38.9600,75,97,129260
1.9453,0.1808,39.0600,75,97,129263
1.9404,0.1857,38.8400,75,97,129266
1.9013,0.1808,39.0600,75,97,129269
1.9159,0.1906,38.8100,75,97,129273
1.8573,0.1808,39.0300,75,97,129276
1.8475,0.1906,39.0600,75,97,129280
1.8573,0.1857,39.0000,75,97,129284
1.8280,0.1808,39.0900,75,97,129287
1.8622,0.1906,38.7700,75,97,129290
1.8133,0.1857,38.9300,75,97,129293
1.7889,0.1760,39.0300,75,97,129297
1.7840,0.1857,39.0300,75,97,129300
1.7693,0.1711,39.0600,75,97,129303
1.8182,0.2004,38.8100,75,97,129307
1.7595,0.1711,39.0000,75,97,129310
1.7546,0.1711,38.9300,75,97,129313
1.7498,0.1808,39.0300,75,97,129317
1.7498,0.1808,39.0300,75,97,129320
1.7889,0.1906,38.9600,75,97,129324
1.7546,0.1808,39.0000,75,97,129328
1.7644,0.1906,38.9000,75,97,129331
1.7840,0.1857,39.0300,75,97,129334
1.7546,0.1808,39.1600,75,97,129337
1.7791,0.2199,39.0300,75,97,129341
1.7595,0.1808,39.0300,75,97,129344
1.7693,0.1906,38.9000,75,97,129347
1.7400,0.1760,39.0600,75,97,129351
1.7742,0.1808,39.0300,75,97,129354
1.8622,0.1955,38.9300,75,97,129357
1.9306,0.1808,39.0300,75,97,129361
2.0772,0.1808,38.9000,75,97,129364
2.1848,0.1711,38.9600,75,97,129368
2.3412,0.1808,39.1200,75,97,129371
2.5562,0.1711,38.9300,75,97,129375
2.6491,0.1515,39.0300,75,97,129378
2.6637,0.1857,38.8700,75,97,129381
2.4731,0.1808,39.0000,75,97,129385
2.2532,0.1808,39.0300,75,97,129388
2.0626,0.1857,39.0600,75,97,129391
1.8964,0.1808,39.2200,75,97,129394
1.8475,0.1857,38.7700,75,97,129398
1.7644,0.1808,38.9000,75,97,129401
1.7400,0.2004,39.0900,75,97,129404
1.7253,0.1906,39.0600,75,97,129409
1.6960,0.1808,39.0600,75,97,129412
1.7253,0.1955,38.7700,75,97,129415
1.6764,0.2199,38.9600,75,97,129419
1.6520,0.1711,39.0300,75,97,129422
1.6520,0.1808,39.0300,75,97,129425
1.6471,0.1760,39.0300,75,97,129428
1.6911,0.1955,38.8400,75,97,129432
1.6520,0.1857,38.9600,75,97,129435
1.6813,0.1857,38.9000,75,97,129438
1.6569,0.1808,39.0300,75,97,129442
1.6667,0.1808,38.9600,75,97,129445
1.6960,0.2199,38.9000,75,97,129448
1.6667,0.1808,39.0600,75,97,129453
1.6764,0.1857,38.9000,75,97,129456
1.6764,0.1857,39.0600,75,97,129459
1.6813,0.1808,39.0300,75,97,129463
1.7009,0.1857,38.9600,75,97,129466
1.6911,0.1857,39.0000,75,97,129469
1.7107,0.1906,38.9300,75,97,129472
1.6960,0.1808,39.0300,75,97,129476
1.7009,0.1760,39.0600,75,97,129479
1.7400,0.1711,38.9600,75,97,129482
1.7107,0.1857,39.0300,75,97,129486
1.7693,0.1808,38.8400,75,97,129489
1.7204,0.1808,38.9300,75,97,129492
1.7204,0.1808,39.0900,75,97,129497
1.7400,0.1906,39.0000,75,97,129500
1.7400,0.1711,39.0300,75,97,129503
1.7791,0.1906,38.7400,75,97,129506
1.7546,0.1857,39.0000,75,97,129510
1.7840,0.1808,39.0300,75,97,129513
1.7644,0.1857,39.0300,75,97,129516
1.7644,0.1808,39.0600,75,97,129520
1.8231,0.1906,38.7700,75,97,129523
1.7840,0.1857,39.0000,75,97,129526
1.7889,0.1760,39.0300,75,97,129529
1.7937,0.1857,39.0300,75,97,129533
1.7937,0.1711,39.0300,75,97,129537
1.8524,0.2004,38.8400,75,97,129540
1.8133,0.1955,39.0000,75,97,129544
1.8231,0.1711,38.9300,75,97,129547
1.8133,0.1808,39.0300,75,97,129550
1.8524,0.1711,39.0600,75,97,129554
1.8671,0.1906,38.8700,75,97,129557
1.8671,0.1808,39.0000,75,97,129560
1.8671,0.1808,38.9000,75,97,129564
1.8524,0.1808,39.0300,75,97,129567
1.8524,0.1808,39.1600,75,97,129570
1.8915,0.1906,38.9300,75,97,129573
1.8719,0.1515,39.0300,75,97,129577
1.9062,0.1857,38.9000,75,97,129581
1.8964,0.1711,39.0300,75,97,129584
1.9062,0.1760,38.9600,75,97,129588
1.9208,0.1857,38.9600,75,97,129591
1.9208,0.1808,39.0300,75,97,129594
1.9550,0.1808,38.9000,75,97,129598
1.9501,0.1808,39.0600,75,97,129601
1.9501,0.1808,39.0600,75,97,129604
1.9844,0.1906,38.9300,75,97,129607
1.9599,0.1906,39.0300,75,97,129611
1.9990,0.1906,38.8400,75,97,129614
1.9892,0.1857,38.9600,75,97,129617
1.9844,0.1808,39.0300,75,97,129622
2.0137,0.1906,39.0000,75,97,129625
1.9844,0.1808,39.0600,75,97,129628
2.0283,0.1906,38.1100,75,97,129632
1.9795,0.1808,38.9600,75,97,129635
1.9990,0.1711,39.0300,75,97,129638
1.9697,0.1857,39.0300,75,97,129641
1.9550,0.1808,39.1200,75,97,129645
1.9892,0.2053,38.7700,75,97,129648
1.9208,0.1808,38.9300,75,97,129651
1.8915,0.1760,39.0300,75,97,129655
1.8768,0.1857,39.0000,75,97,129658
1.8475,0.1808,39.0300,75,97,129661
1.8671,0.1906,38.8700,75,97,129666
1.8133,0.1711,38.9600,75,97,129669
1.7644,0.1808,39.2800,75,97,129672
1.7302,0.1711,39.0300,75,97,129675
1.6960,0.1808,39.0600,75,97,129679
1.7155,0.1906,38.9000,75,97,129682
1.6716,0.1857,39.0000,75,97,129685
1.6667,0.1808,38.8700,75,97,129689
1.6373,0.1808,39.1600,75,97,129692
1.6276,0.1857,39.0600,75,97,129695
1.6471,0.1906,39.0000,75,97,129699
1.6227,0.1808,38.9300,75,97,129702
1.6422,0.1906,38.9000,75,97,129705
1.6080,0.1808,39.0000,75,97,129709
1.5982,0.1515,39.0600,75,97,129713
1.6031,0.1857,39.0000,75,97,129716
1.6031,0.1857,39.0300,75,97,129719
1.6325,0.1857,38.9000,75,97,129723
1.6080,0.1906,39.0000,75,97,129726
1.6129,0.1808,39.0300,75,97,129729
1.6373,0.1955,38.9000,75,97,129732
1.6520,0.1857,39.0300,75,97,129737
1.6520,0.1760,39.0300,75,97,129741
1.7058,0.2102,38.7400,75,97,129744
1.6764,0.1711,38.9600,75,97,129747
1.6764,0.1760,39.0000,75,97,129751
1.6764,0.2102,39.0900,75,97,129755
1.6716,0.1760,39.0300,75,97,129758
1.7107,0.1955,38.9600,75,97,129761
1.6813,0.1808,39.0000,75,97,129765
1.6960,0.1857,38.9600,75,97,129768
1.6862,0.1808,39.0300,75,97,129771
1.6813,0.1808,39.1200,75,97,129775
1.7009,0.1906,39.0000,75,97,129778
1.6862,0.1857,39.0000,75,97,129781
1.7107,0.1857,38.9000,75,97,129784
1.6911,0.1711,39.0600,75,97,129788
1.7009,0.1808,39.0600,75,97,129792
1.7302,0.1906,38.9000,75,97,129795
1.7009,0.1857,39.0000,75,97,129799
1.7253,0.2053,38.9600,75,97,129802
1.7009,0.1760,39.0000,75,97,129805
1.7009,0.1808,39.0600,75,97,129808
1.7253,0.1857,38.9000,75,97,129812
1.7107,0.1760,39.0600,75,97,129815
1.7644,0.1808,38.8700,75,97,129818
1.7155,0.1808,39.0000,75,97,129822
1.7155,0.1808,38.9600,75,97,129825
1.7204,0.1857,39.0000,75,97,129828
1.7204,0.1515,39.0300,75,97,129832
1.7546,0.1906,38.7400,75,97,129836
1.7204,0.1760,39.0000,75,97,129839
1.7204,0.1808,39.0600,75,97,129842
1.7351,0.1906,39.0600,75,97,129846
1.7253,0.1857,39.0600,75,97,129849
1.7644,0.1955,38.8100,75,97,129852
1.7351,0.1857,38.2100,75,97,129856
1.7204,0.1808,39.0600,75,97,129859
1.7253,0.1857,39.0300,75,97,129862
1.7204,0.1808,39.0600,75,97,129866
1.7742,0.2053,38.8400,75,97,129869
1.7351,0.1857,39.0300,75,97,129872
1.7253,0.1760,39.0000,75,97,129875
1.7107,0.1711,39.0300,75,97,129880
1.7204,0.1515,39.0600,75,97,129883
1.7595,0.1906,38.8700,75,97,129886
1.7595,0.1760,39.0300,75,97,129890
1.7400,0.1808,38.9300,75,97,129893
1.7204,0.1955,39.0300,75,97,129896
1.7204,0.1808,39.0300,75,97,129900
1.7400,0.1906,39.1200,75,97,129903
1.7302,0.1857,39.0000,75,97,129906
1.7498,0.1906,38.9300,75,97,129909
1.7253,0.1808,39.1900,75,97,129913
1.7204,0.1906,39.0600,75,97,129916
1.7449,0.1955,38.9000,75,97,129920
1.7204,0.1808,39.0000,75,97,129924
1.7498,0.1857,38.9000,75,97,129927
1.7253,0.1711,38.9600,75,97,129930
1.7253,0.1808,39.0300,75,97,129934
1.7351,0.1857,38.9600,75,97,129937
1.7204,0.1808,39.0300,75,97,129940
1.7498,0.1857,38.8400,75,97,129943
1.7302,0.1808,39.0000,75,97,129947
1.7253,0.1760,39.0300,75,97,129950
1.7351,0.1857,39.0000,75,97,129953
1.7253,0.1808,39.0900,75,97,129957
1.7644,0.1955,38.8100,75,97,129960
1.7204,0.1808,39.0300,75,97,129964
1.7253,0.1808,39.0600,75,97,129968
1.7400,0.1857,39.0000,75,97,129971
1.7302,0.1711,39.0900,75,97,129974
1.7742,0.1906,38.0200,75,97,129977
1.7351,0.1857,39.0000,75,97,129981
1.7253,0.1760,39.0000,75,97,129984
1.7302,0.1808,39.1600,75,97,129987
1.7351,0.1906,39.0600,75,97,129991
1.7840,0.1955,38.8400,75,97,129994
1.7449,0.1955,39.0600,75,97,129997
1.7840,0.1711,38.9300,75,97,130001
1.7546,0.1808,39.0300,75,97,130004
1.7742,0.1808,39.1200,75,97,130008
1.8182,0.1808,38.9000,75,97,130011
1.8084,0.1515,39.0300,75,97,130015
1.8328,0.1857,38.9000,75,97,130018
1.8133,0.1808,39.0300,75,97,130021
1.8231,0.1808,39.0300,75,97,130025
1.8328,0.1857,39.0000,75,97,130028
1.8231,0.2151,39.0300,75,97,130031
1.8622,0.1711,38.9000,75,97,130035
1.8280,0.1808,39.0000,75,97,130038
1.8426,0.1857,39.0600,75,97,130041
1.8866,0.1906,38.9300,75,97,130044
1.8671,0.1808,39.0600,75,97,130049
1.8915,0.1857,38.8400,75,97,130052
1.8671,0.1808,38.9000,75,97,130055
1.8426,0.1808,39.0600,75,97,130059
1.8280,0.1808,38.9600,75,97,130062
1.8231,0.1760,39.0300,75,97,130065
1.8133,0.1906,38.8100,75,97,130069
1.7644,0.1906,39.0000,75,97,130072
1.7498,0.1760,39.0600,75,97,130075
1.7449,0.1857,39.0000,75,97,130078
1.7253,0.1808,39.0300,75,97,130082
1.7644,0.1857,38.7400,75,97,130085
1.7155,0.1808,39.0300,75,97,130088
1.7009,0.1760,39.0000,75,97,130093
1.6911,0.1711,39.0300,75,97,130096
1.6764,0.1808,39.0300,75,97,130099
1.7204,0.2053,38.8400,75,97,130103
1.6764,0.1857,39.0000,75,97,130106
1.6716,0.1808,38.9600,75,97,130109
1.6667,0.1808,39.0300,75,97,130113
1.6667,0.1808,38.9000,75,97,130116
1.6960,0.2004,38.8700,75,97,130119
1.6764,0.1808,39.0000,75,97,130122
1.6960,0.1515,38.9000,75,97,130126
1.6813,0.1808,39.2800,75,97,130129
1.6862,0.1808,39.0300,75,97,130132
1.7058,0.1906,38.9300,75,97,130137
1.6716,0.1808,39.2200,75,97,130140
1.6911,0.1906,38.9000,75,97,130143
1.6813,0.1808,39.0300,75,97,130146
1.7400,0.1515,39.0300,75,97,130150
1.8182,0.1857,38.9300,75,97,130153
1.9404,0.1808,39.0300,75,97,130156
2.0626,0.1808,38.9000,75,97,130160
2.1799,0.1808,38.9600,75,97,130163
2.3607,0.1711,39.0300,75,97,130166
2.5660,0.1906,38.9300,75,97,130170
2.5904,0.1906,39.0600,75,97,130173
2.5415,0.1906,38.8400,75,97,130177
2.3363,0.1808,38.9600,75,97,130180
2.1163,0.1808,39.0600,75,97,130184
1.9453,0.1857,39.0000,75,97,130187
1.8035,0.1808,39.0300,75,97,130190
1.7791,0.1906,38.7700,75,97,130194
1.7107,0.1857,39.0000,75,97,130197
1.6716,0.1808,39.0600,75,97,130200
1.6618,0.1857,39.0300,75,97,130204
1.6471,0.1857,39.0600,75,97,130207
1.6813,0.2004,38.7700,75,97,130210
1.6276,0.1857,39.0000,75,97,130214
1.6178,0.1711,39.0000,75,97,130217
1.5982,0.1857,39.0300,75,97,130221
1.6031,0.1857,39.0300,75,97,130224
1.6471,0.2004,38.9300,75,97,130228
1.6178,0.1857,39.1600,75,97,130231
1.6227,0.1711,38.9300,75,97,130234
1.6178,0.2199,39.0300,75,97,130238
1.6325,0.1808,39.0600,75,97,130241
1.6618,0.1906,38.9300,75,97,130244
1.6422,0.1906,38.8100,75,97,130248
1.6813,0.1808,38.9000,75,97,130251
1.6471,0.1808,39.0600,75,97,130254
1.6520,0.1808,39.0900,75,97,130257
1.6764,0.2053,38.9300,75,97,130262
1.6618,0.1808,39.0300,75,97,130265
1.6960,0.1808,38.5800,75,97,130268
1.6764,0.2053,39.0000,75,97,130272
1.6813,0.1808,39.0300,75,97,130275
1.6911,0.1857,38.2400,75,97,130278
1.6862,0.1808,39.0300,75,97,130282
1.7253,0.1857,38.8400,75,97,130285
1.7058,0.1808,39.0600,75,97,130288
1.7204,0.1760,39.0300,75,97,130291
1.7351,0.1906,39.0000,75,97,130295
1.7253,0.2151,39.0300,75,97,130298
1.7693,0.1906,38.7700,75,97,130301
1.7498,0.1857,39.0600,75,97,130306
1.7449,0.1808,39.0300,75,97,130309
1.7595,0.1808,39.0000,75,97,130312
1.7546,0.1808,39.0600,75,97,130316
1.8084,0.1955,38.7100,75,97,130319
1.7840,0.1857,38.9600,75,97,130322
1.7742,0.1760,39.0300,75,97,130325
1.7889,0.1857,39.2500,75,97,130329
1.8035,0.1857,39.0600,75,97,130332
1.8377,0.2004,38.9300,75,97,130335
1.7986,0.1857,39.0000,75,97,130339
1.8084,0.1906,38.9600,75,97,130342
1.8035,0.1711,39.0300,75,97,130345
1.8426,0.1808,39.0600,75,97,130351
1.8622,0.1808,38.4000,75,97,130354
1.9062,0.2199,38.9000,75,97,130358
1.8817,0.1808,39.0300,75,97,130361
1.9208,0.1808,38.9000,75,97,130364
1.9062,0.1808,38.9600,75,97,130367
1.9159,0.1808,39.0000,75,97,130371
1.9550,0.1857,38.9600,75,97,130374
1.9453,0.1808,39.0300,75,97,130377
1.9892,0.2102,38.7700,75,97,130381
1.9648,0.1857,38.9600,75,97,130384
1.9648,0.1808,39.0300,75,97,130387
1.9844,0.1857,39.0000,75,97,130392
1.9795,0.1808,39.0600,75,97,130395
2.0430,0.1906,38.8100,75,97,130398
1.9990,0.1906,39.0000,75,97,130401
2.0283,0.1808,39.0600,75,97,130405
2.0088,0.1857,39.0000,75,97,130408
1.9990,0.1808,39.0300,75,97,130411
2.0577,0.2004,38.7400,75,97,130415
2.0186,0.1857,38.9300,75,97,130418
1.9990,0.1711,39.0300,75,97,130421
1.9892,0.1857,39.0300,75,97,130425
1.9746,0.1857,39.0300,75,97,130428
2.0137,0.1955,38.9600,75,97,130432
1.9550,0.1808,39.0000,75,97,130435
1.9599,0.1808,38.9300,75,97,130439
1.8915,0.1515,39.0600,75,97,130442
1.8573,0.1808,39.0000,75,97,130445
1.8524,0.1955,38.9000,75,97,130449
1.8035,0.1808,39.0300,75,97,130452
1.7986,0.1808,38.3300,75,97,130455
1.7595,0.1808,39.0300,75,97,130459
1.7302,0.1808,39.0300,75,97,130462
1.7253,0.1906,39.0300,75,97,130465
1.6911,0.1760,39.0600,75,97,130468
1.7155,0.1808,38.9300,75,97,130472
1.6716,0.1808,39.0300,75,97,130476
1.6667,0.1760,39.0300,75,97,130479
1.6862,0.1906,38.9000,75,97,130483
1.6520,0.1760,39.0300,75,97,130486
1.6716,0.1808,38.8700,75,97,130489
1.6422,0.1808,38.9600,75,97,130493
1.6373,0.1808,39.0600,75,97,130496
1.6520,0.1857,38.9600,75,97,130499
1.6422,0.1808,39.0300,75,97,130502
1.6813,0.1906,38.7700,75,97,130506
1.6618,0.1808,38.9600,75,97,130509
1.6667,0.1808,39.1200,75,97,130512
1.6862,0.1906,39.0300,75,97,130516
1.6813,0.1808,39.0600,75,97,130520
1.7253,0.1906,38.7400,75,97,130523
1.7155,0.1857,39.0600,75,97,130527
1.6911,0.1760,39.0000,75,97,130530
1.7058,0.1808,39.0000,75,97,130533
1.7107,0.1808,39.0300,75,97,130536
1.7644,0.2004,38.8400,75,97,130540
1.7302,0.1906,39.0000,75,97,130543
1.7204,0.1760,39.0600,75,97,130546
1.7155,0.1808,39.0300,75,97,130550
1.7204,0.1515,39.0300,75,97,130553
1.7644,0.1906,38.8400,75,97,130556
1.7351,0.1808,39.0000,75,97,130561
1.7498,0.1808,38.9300,75,97,130564
1.7302,0.2004,39.0600,75,97,130567
1.7302,0.1857,39.0600,75,97,130570
1.7644,0.1906,38.9000,75,97,130574
1.7449,0.1808,39.1200,75,97,130577
1.7742,0.2151,38.8700,75,97,130580
1.7546,0.1808,39.0600,75,97,130584
1.7546,0.1808,38.9600,75,97,130587
1.7693,0.1808,38.9600,75,97,130590
1.7644,0.1808,39.1200,75,97,130594
1.7889,0.1808,38.9000,75,97,130597
1.7644,0.1808,39.0300,75,97,130600
1.7644,0.1808,39.0600,75,97,130604
1.7840,0.1906,38.9600,75,97,130608
1.7693,0.1857,39.0600,75,97,130611
1.8084,0.1857,38.8700,75,97,130614
1.7889,0.1857,38.9000,75,97,130618
1.7791,0.1808,39.0600,75,97,130621
1.7889,0.1857,39.0300,75,97,130624
1.7742,0.1857,39.0300,75,97,130628
1.8182,0.1955,38.7700,75,97,130631
1.7840,0.1857,38.9600,75,97,130634
1.7791,0.1857,39.0600,75,97,130637
1.7840,0.1808,39.0000,75,97,130641
1.7742,0.1808,39.0300,75,97,130644
1.8231,0.2004,38.7700,75,97,130648
1.8084,0.1808,39.0000,75,97,130652
1.7889,0.1760,39.0000,75,97,130655
1.7986,0.1808,39.0900,75,97,130658
1.7889,0.1906,39.0600,75,97,130662
1.8280,0.2004,38.9300,75,97,130665
1.8035,0.1857,38.9600,75,97,130668
1.7986,0.1808,38.9300,75,97,130671
1.7986,0.1808,39.0600,75,97,130675
1.7986,0.1808,39.0600,75,97,130678
1.8328,0.1906,38.7400,75,97,130681
1.8328,0.1808,39.0000,75,97,130685
1.8231,0.1808,38.9300,75,97,130689
1.7937,0.1808,39.0600,75,97,130692
1.7986,0.1808,39.0300,75,97,130696
1.8231,0.1906,38.9000,75,97,130699
1.8084,0.1808,39.0300,75,97,130702
1.8280,0.1906,38.9300,75,97,130705
1.7986,0.1906,39.0600,75,97,130709
1.8133,0.1760,39.0600,75,97,130712
1.8133,0.1857,39.0000,75,97,130715
1.8084,0.1808,39.0300,75,97,130719
1.8280,0.1808,38.8700,75,97,130722
1.7986,0.1808,39.0600,75,97,130725
1.7986,0.1760,39.0600,75,97,130728
1.8182,0.2004,38.9000,75,97,130733
1.8035,0.1808,39.0300,75,97,130736
1.8328,0.1857,38.8400,75,97,130739
1.8231,0.1906,38.9300,75,97,130743
1.8084,0.1711,39.0900,75,97,130746
1.8231,0.1906,38.9600,75,97,130749
1.8182,0.1760,39.0300,75,97,130753
1.8622,0.1906,38.7700,75,97,130756
1.8231,0.1808,38.9600,75,97,130759
1.8475,0.1711,39.0600,75,97,130763
1.8133,0.1808,39.0600,75,97,130766
1.8035,0.1808,39.1200,75,97,130769
1.8622,0.2004,38.7700,75,97,130772
1.8231,0.1515,39.0000,75,97,130777
1.8328,0.1760,38.9300,75,97,130780
1.8280,0.1857,39.0300,75,97,130783
1.8280,0.1808,39.0900,75,97,130787
1.8671,0.1955,38.9000,75,97,130790
1.8475,0.1808,38.9600,75,97,130793
1.8622,0.1808,38.9300,75,97,130797
1.8622,0.1760,39.0600,75,97,130800
1.8768,0.1760,39.0300,75,97,130803
1.9159,0.1906,38.8400,75,97,130806
1.8915,0.1808,39.0300,75,97,130810
1.9306,0.1857,38.9300,75,97,130813
1.9110,0.1808,39.0900,75,97,130817
1.9110,0.1857,39.0300,75,97,130821
1.9404,0.1857,38.9300,75,97,130824
1.9208,0.1808,39.0300,75,97,130827
1.9550,0.1955,38.9000,75,97,130831
1.9648,0.1760,39.0000,75,97,130834
1.9599,0.1808,38.9600,75,97,130837
1.9795,0.1760,39.0000,75,97,130840
1.9648,0.1808,39.0300,75,97,130844
1.9892,0.1857,38.8400,75,97,130847
1.9453,0.1760,39.0000,75,97,130850
1.9306,0.1760,39.0300,75,97,130854
1.9306,0.1906,39.0000,75,97,130857
1.8866,0.2053,39.0300,75,97,130861
1.9257,0.1906,38.8100,75,97,130865
1.8622,0.1857,38.9300,75,97,130868
1.8377,0.1760,39.0600,75,97,130871
1.8377,0.1808,39.0300,75,97,130874
1.8231,0.1808,38.9600,75,97,130878
1.8671,0.1955,38.7700,75,97,130881
1.8133,0.1808,39.0000,75,97,130884
1.7986,0.1711,39.0300,75,97,130888
1.7986,0.1808,39.0300,75,97,130891
1.7840,0.1711,39.0600,75,97,130894
1.8280,0.2004,38.9000,75,97,130898
1.7840,0.2102,39.0000,75,97,130902
1.7791,0.1857,39.0000,75,97,130905
1.7644,0.1808,39.0300,75,97,130908
1.7693,0.1760,39.0600,75,97,130912
1.8377,0.1711,38.9300,75,97,130915
1.7840,0.1808,39.0600,75,97,130918
1.8035,0.1808,39.0600,75,97,130922
1.7791,0.1760,39.0600,75,97,130925
1.7742,0.1760,39.0600,75,97,130928
1.7937,0.1906,38.9000,75,97,130932
1.7840,0.1711,39.0300,75,97,130935
1.8328,0.1857,38.9300,75,97,130938
1.8524,0.1711,39.0000,75,97,130941
1.9355,0.1711,39.0300,75,97,130946
2.0528,0.1857,38.9600,75,97,130949
2.1652,0.1857,39.0600,75,97,130952
2.3558,0.1808,38.9300,75,97,130956
2.4829,0.1857,38.7700,75,97,130960
2.2239,0.1760,38.9600,75,97,130964
2.0479,0.1760,39.0300,75,97,130967
1.9110,0.1808,39.0000,75,97,130970
1.8231,0.1760,39.0600,75,97,130974
1.8377,0.2004,38.8100,75,97,130977
1.7791,0.1808,39.0000,75,97,130980
1.7595,0.1711,38.9600,75,97,130983
1.7400,0.1760,39.0000,75,97,130988
1.7302,0.1760,39.0600,75,97,130991
1.7546,0.1906,38.8700,75,97,130994
1.7155,0.1760,39.0600,75,97,130998
1.7204,0.1711,38.9300,75,97,131001
1.7107,0.1760,39.0300,75,97,131004
1.7155,0.1760,39.0600,75,97,131008
1.7449,0.1857,38.9000,75,97,131011
1.7155,0.1760,38.9300,75,97,131014
1.7400,0.1808,38.9300,75,97,131018
1.7253,0.1760,39.0600,75,97,131021
1.7400,0.1711,39.1200,75,97,131024
1.7595,0.1711,39.0000,75,97,131027
1.7546,0.1760,39.0300,75,97,131032
1.7791,0.1955,38.9000,75,97,131035
1.7644,0.1760,39.0300,75,97,131038
1.7742,0.1760,39.0300,75,97,131042
1.8035,0.1711,38.9300,75,97,131045
1.7889,0.1760,39.1200,75,97,131048
1.8231,0.1857,38.8400,75,97,131052
1.8084,0.1808,38.9300,75,97,131055
1.7937,0.1760,39.2200,75,97,131058
1.8182,0.1808,39.0300,75,97,131061
1.8133,0.1711,39.2200,75,97,131065
1.8768,0.1906,38.7700,75,97,131068
1.8328,0.1760,39.2500,75,97,131072
1.8280,0.1760,39.0600,75,97,131076
1.8671,0.1808,39.0000,75,97,131079
1.8377,0.1515,39.0600,75,97,131082
1.8964,0.1955,38.7700,75,97,131086
1.8573,0.1808,39.0000,75,97,131089
1.8573,0.1711,39.0000,75,97,131092
1.8573,0.1760,39.0300,75,97,131095
1.8622,0.1760,39.0600,75,97,131099
1.9110,0.1906,38.8400,75,97,131102
1.8817,0.2053,39.0000,75,97,131105
1.8964,0.1760,38.9300,75,97,131109
1.8817,0.1760,38.9600,75,97,131112
1.8866,0.1760,39.0600,75,97,131116
1.9355,0.1857,38.8400,75,97,131120
1.9062,0.1760,39.0600,75,97,131123
1.9355,0.1857,38.9000,75,97,131126
1.9159,0.1760,39.0600,75,97,131130
1.9159,0.1760,39.0000,75,97,131133
1.9648,0.1857,38.9300,75,97,131136
1.9355,0.1760,39.0600,75,97,131139
1.9746,0.1808,38.9000,75,97,131143
1.9599,0.1808,39.0000,75,97,131146
1.9746,0.1515,39.0600,75,97,131149
1.9892,0.1808,39.0000,75,97,131153
1.9844,0.1760,39.0000,75,97,131156
2.0626,0.1857,38.8400,75,97,131160
2.0137,0.1760,39.0300,75,97,131164
2.0235,0.1711,39.0300,75,97,131167
2.0479,0.1808,38.9600,75,97,131170
2.0381,0.1760,39.0300,75,97,131173
2.0968,0.1857,38.7700,75,97,131177
2.0772,0.1906,38.9300,75,97,131180
2.0723,0.1711,39.0600,75,97,131183
2.0870,0.2053,39.0300,75,97,131187
2.0821,0.2102,39.0300,75,97,131190
2.1408,0.1711,38.7400,75,97,131193
2.0968,0.1906,38.9300,75,97,131197
2.0821,0.1760,39.0000,75,97,131201
2.0821,0.1808,39.0300,75,97,131204
2.0870,0.1760,39.0600,75,97,131207
2.1359,0.1955,38.9300,75,97,131211
2.0723,0.1857,39.0000,75,97,131214
2.0626,0.1760,38.9600,75,97,131217
2.0528,0.1808,39.0300,75,97,131221
2.0381,0.1760,38.4000,75,97,131224
2.0626,0.1906,38.9000,75,97,131227
2.0088,0.1955,39.0000,75,97,131230
1.9844,0.2102,38.9000,75,97,131234
1.9404,0.1760,39.0300,75,97,131237
1.9110,0.1760,39.0000,75,97,131240
1.9257,0.1857,38.8700,75,97,131245
1.8719,0.1760,39.0300,75,97,131248
1.8622,0.1808,38.9000,75,97,131251
1.8133,0.1760,38.9000,75,97,131254
1.7937,0.1662,39.0600,75,97,131258
1.8035,0.1857,38.9300,75,97,131261
1.7693,0.1760,39.0300,75,97,131264
1.7986,0.1760,38.9000,75,97,131268
1.7546,0.1711,39.0000,75,97,131271
1.7449,0.1760,38.9300,75,97,131274
1.7449,0.1808,39.0000,75,97,131278
1.7253,0.1760,39.0600,75,97,131281
1.7644,0.1760,38.8400,75,97,131284
1.7351,0.1760,39.0300,75,97,131288
1.7400,0.1760,39.0600,75,97,131292
1.7498,0.1906,38.9300,75,97,131295
1.7253,0.1662,39.0600,75,97,131298
1.7791,0.1857,38.8100,75,97,131302
1.7644,0.1808,38.9000,75,97,131305
1.7546,0.2102,39.0300,75,97,131308
1.7644,0.1808,39.0000,75,97,131312
1.7644,0.1760,39.1200,75,97,131315
1.8182,0.1906,38.8100,75,97,131318
1.7840,0.1711,39.0600,75,97,131322
1.7840,0.1808,39.0000,75,97,131325
1.7986,0.1808,39.0300,75,97,131329
1.7889,0.1760,39.0300,75,97,131332
1.8377,0.2004,38.8700,75,97,131336
1.8133,0.1906,38.9600,75,97,131339
1.8035,0.1760,38.9600,75,97,131342
1.8133,0.1808,39.0300,75,97,131346
1.8133,0.1515,39.0600,75,97,131349
1.8377,0.1906,39.0000,75,97,131352
1.8133,0.1955,38.9600,75,97,131356
1.8280,0.1808,38.9000,75,97,131359
1.8133,0.1760,39.0300,75,97,131362
1.8182,0.1662,39.0300,75,97,131365
1.8573,0.1906,38.9000,75,97,131369
1.8231,0.1760,39.0900,75,97,131373
1.8475,0.1857,39.0000,75,97,131376
1.8280,0.1711,39.0300,75,97,131380
1.8280,0.1760,39.0300,75,97,131383
1.8475,0.1857,39.0000,75,97,131386
1.8328,0.1760,39.0300,75,97,131390
1.8524,0.1760,38.9000,75,97,131393
1.8328,0.1760,38.9600,75,97,131396
1.8280,0.1711,39.0300,75,97,131399
1.8573,0.1857,38.9600,75,97,131403
1.8377,0.1808,39.0300,75,97,131406
1.8768,0.1711,38.8400,75,97,131409
1.8280,0.1955,39.0000,75,97,131414
1.8280,0.1760,39.0900,75,97,131417
1.8426,0.1808,38.9600,75,97,131420
1.8328,0.1760,39.0600,75,97,131424
1.8817,0.1857,38.7400,75,97,131427
1.8524,0.1808,38.9600,75,97,131430
1.8328,0.1760,39.0600,75,97,131433
1.8328,0.1808,39.0300,75,97,131437
1.8328,0.1760,39.0000,75,97,131440
1.9013,0.2053,38.8400,75,97,131443
1.8524,0.1808,39.0000,75,97,131447
1.8573,0.1711,38.9600,75,97,131450
1.8622,0.1857,39.0600,75,97,131453
1.8475,0.1760,39.0300,75,97,131458
1.8768,0.1857,38.8700,75,97,131461
1.8622,0.1808,39.0000,75,97,131464
1.8768,0.1760,38.9600,75,97,131467
1.8475,0.1760,39.0300,75,97,131471
1.8671,0.1760,39.0600,75,97,131474
1.8719,0.1857,39.0000,75,97,131477
1.8524,0.1760,39.0000,75,97,131481
1.8768,0.1906,38.9000,75,97,131484
1.8524,0.1711,39.0300,75,97,131487
1.8524,0.1760,39.0300,75,97,131491
1.8866,0.1857,38.9000,75,97,131494
1.8573,0.1760,39.1200,75,97,131497
1.8817,0.1711,38.8700,75,97,131502
1.8671,0.1760,38.9600,75,97,131505
1.8622,0.1760,39.0600,75,97,131508
1.8768,0.1808,38.9600,75,97,131511
1.8524,0.1760,39.0300,75,97,131515
1.8915,0.1711,38.8100,75,97,131518
1.8719,0.1808,38.9600,75,97,131521
1.8671,0.1760,39.0600,75,97,131525
1.8817,0.1857,39.0000,75,97,131528
1.8622,0.1760,39.0900,75,97,131531
1.9062,0.1955,38.8100,75,97,131535
1.8719,0.1760,39.0300,75,97,131538
1.8671,0.1711,39.0300,75,97,131542
1.8768,0.1808,39.0000,75,97,131546
1.8719,0.1760,39.0600,75,97,131549
1.9208,0.2004,38.8700,75,97,131552
1.8817,0.1857,38.9600,75,97,131555
1.8719,0.1760,39.0300,75,97,131559
1.8719,0.1857,39.0300,75,97,131562
1.8768,0.1760,39.0600,75,97,131565
1.9110,0.1857,38.8400,75,98,131569
1.8915,0.1760,38.9300,75,98,131573
1.8817,0.1711,39.0300,75,98,131577
1.9062,0.1760,38.9000,75,98,131580
1.8866,0.2004,39.0000,75,98,131584
1.9013,0.1760,39.0300,75,98,131588
1.9404,0.1808,38.8700,75,98,131591
1.9355,0.1760,38.9600,75,98,131594
1.9941,0.1857,38.8400,75,98,131597
1.9453,0.1760,39.0000,75,98,131601
1.9648,0.1760,39.0300,75,98,131604
1.9746,0.1857,39.0300,75,98,131607
1.9599,0.1711,39.0300,75,98,131611
2.0186,0.1955,38.7700,75,98,131614
1.9892,0.1808,38.9600,75,98,131617
1.9795,0.1808,39.0600,75,98,131621
1.9941,0.1808,38.9300,75,98,131624
1.9941,0.1808,39.0600,75,98,131628
2.0626,0.2004,38.8400,75,98,131632
2.0235,0.1808,39.0000,75,98,131635
2.0088,0.1711,39.0000,75,98,131638
1.9892,0.1711,39.0300,75,98,131641
1.9599,0.1760,39.0600,75,98,131645
1.9844,0.1906,38.1800,75,98,131648
1.9648,0.1808,39.0000,75,98,131651
1.9257,0.1711,38.9300,75,98,131655
1.8915,0.1760,39.1600,75,98,131658
1.8817,0.1760,39.0600,75,98,131661
1.8964,0.1857,39.0300,75,98,131665
1.8719,0.1808,39.0600,75,98,131668
1.8866,0.1711,38.9300,75,98,131672
1.8622,0.1808,39.0300,75,98,131675
1.8524,0.1808,39.0300,75,98,131679
1.8671,0.1906,38.5200,75,98,131682
1.8280,0.1711,39.0300,75,98,131685
1.8426,0.1760,38.8700,75,98,131689
1.8231,0.1760,39.0000,75,98,131692
1.8280,0.1760,39.0600,75,98,131695
1.8377,0.1808,39.2500,75,98,131699
1.8182,0.2004,39.0300,75,98,131702
1.8817,0.1711,38.8100,75,98,131705
1.8377,0.1808,38.9600,75,98,131709
1.8377,0.1760,39.0600,75,98,131713
1.8622,0.1857,38.4000,75,98,131716
1.8280,0.2053,39.0300,75,98,131719
1.8573,0.1857,38.7700,75,98,131723
1.8133,0.1760,39.1200,75,98,131726
1.8328,0.1711,39.0300,75,98,131729
1.8866,0.1808,39.0900,75,98,131733
1.9599,0.1760,39.0600,75,98,131736
2.1163,0.1906,38.8100,75,98,131739
2.1994,0.1808,39.0300,75,98,131743
2.3412,0.1711,38.9600,75,98,131746
2.5269,0.1808,38.9600,75,98,131749
2.6882,0.1760,39.1600,75,98,131752
2.7761,0.1906,38.8700,75,98,131757
2.6149,0.1760,39.0600,75,98,131760
2.4389,0.1808,38.9000,75,98,131763
2.2141,0.2297,39.0300,75,98,131767
2.0430,0.1760,39.0600,75,98,131770
1.9599,0.1857,38.9300,75,98,131773
1.8768,0.1808,39.0300,75,98,131777
1.8573,0.1857,38.9000,75,98,131780
1.8133,0.1760,39.0300,75,98,131783
1.7937,0.1808,39.0300,75,98,131786
1.7986,0.1857,38.9600,75,98,131790
1.7595,0.1515,39.0600,75,98,131793
1.7693,0.1808,39.2800,75,98,131796
1.7351,0.1760,39.0600,75,98,131801
1.7302,0.1760,39.0600,75,98,131804
1.7498,0.2199,38.9300,75,98,131807
1.7351,0.1760,39.0300,75,98,131811
1.7693,0.1808,38.7700,75,98,131814
1.7498,0.1808,38.8700,75,98,131817
1.7449,0.1760,39.0900,75,98,131820
1.7546,0.1857,39.0300,75,98,131824
1.7449,0.1760,39.0300,75,98,131827
1.7986,0.1955,38.7700,75,98,131830
1.7742,0.1808,38.9300,75,98,131834
1.7742,0.1760,39.0600,75,98,131837
1.7889,0.1515,39.0000,75,98,131841
1.7791,0.1857,39.0600,75,98,131845
1.8328,0.1955,38.7400,75,98,131848
1.8133,0.1808,38.9600,75,98,131851
1.8084,0.1760,39.0600,75,98,131855
1.8133,0.1808,39.0600,75,98,131858
1.8133,0.1760,39.1200,75,98,131861
1.8719,0.2053,38.8700,75,98,131864
1.8377,0.1808,39.0000,75,98,131868
1.8524,0.1760,38.7100,75,98,131871
1.8475,0.1711,39.0600,75,98,131874
1.8475,0.1760,39.0300,75,98,131878
1.8915,0.1906,38.8700,75,98,131881
1.8573,0.1808,39.0300,75,98,131885
1.8817,0.1808,38.9000,75,98,131889
1.8671,0.1808,39.0600,75,98,131892
1.8768,0.1760,39.0600,75,98,131895
1.9062,0.2004,38.9300,75,98,131898
1.9110,0.1711,39.0300,75,98,131902
1.9208,0.1515,38.9000,75,98,131905
1.8964,0.1760,39.0000,75,98,131908
1.9013,0.1808,39.0600,75,98,131912
1.9257,0.1808,38.9300,75,98,131915
1.9159,0.1760,39.0900,75,98,131918
1.9501,0.1808,38.8400,75,98,131922
1.9208,0.1760,39.0600,75,98,131926
1.9306,0.1760,39.0600,75,98,131929
1.9599,0.1857,39.0300,75,98,131932
1.9501,0.1760,39.0300,75,98,131936
1.9892,0.1857,38.8400,75,98,131939
1.9697,0.1906,38.9600,75,98,131942
1.9648,0.1515,39.0600,75,98,131946
1.9844,0.1857,39.0300,75,98,131949
1.9795,0.1760,39.0300,75,98,131952
2.0479,0.1906,38.7400,75,98,131956
2.0039,0.1808,38.9600,75,98,131959
2.0137,0.1760,39.0300,75,98,131962
2.0283,0.1808,39.0300,75,98,131965
2.0283,0.1760,39.0600,75,98,131970
2.1017,0.2004,38.8100,75,98,131973
2.0772,0.1906,38.9600,75,98,131976
2.0626,0.1760,38.9600,75,98,131980
2.0674,0.1808,39.0600,75,98,131983
2.0919,0.1760,39.0300,75,98,131986
2.1163,0.1906,38.9300,75,98,131990
2.0919,0.1808,39.0600,75,98,131993
2.1065,0.1808,38.9300,75,98,131996
2.0870,0.1711,39.0600,75,98,131999
2.0821,0.1760,39.0900,75,98,132003
2.1212,0.1906,38.8400,75,98,132006
2.0968,0.1711,39.0300,75,98,132009
2.1261,0.1857,38.9300,75,98,132014
2.0968,0.1808,39.0300,75,98,132017
2.1212,0.1760,39.0600,75,98,132020
2.1017,0.1857,38.9300,75,98,132024
2.0577,0.1808,39.0300,75,98,132027
2.0674,0.1808,38.8700,75,98,132030
2.0283,0.1760,39.0000,75,98,132033
1.9844,0.1760,39.0600,75,98,132037
1.9746,0.1808,38.9300,75,98,132040
1.9257,0.1906,39.0300,75,98,132043
1.9257,0.1857,38.8400,75,98,132047
1.8719,0.2004,39.0300,75,98,132050
1.8719,0.1760,39.0600,75,98,132054
1.8475,0.1906,38.9600,75,98,132057
1.7986,0.1906,39.0000,75,98,132061
1.8182,0.1906,38.7700,75,98,132064
1.7889,0.1906,38.9000,75,98,132067
1.7644,0.1711,39.0300,75,98,132071
1.7595,0.1857,39.0000,75,98,132074
1.7400,0.1760,39.0300,75,98,132077
1.7840,0.1906,38.7400,75,98,132081
1.7351,0.1808,39.0600,75,98,132084
1.7351,0.1760,39.0300,75,98,132087
1.7449,0.1808,39.0000,75,98,132090
1.7449,0.1760,39.0300,75,98,132094
1.8035,0.2004,38.8700,75,98,132098
1.7693,0.1857,38.9600,75,98,132101
1.7595,0.1760,38.9600,75,98,132105
1.7546,0.1857,39.0300,75,98,132108
1.7546,0.1760,39.1200,75,98,132111
1.7937,0.1955,38.9300,75,98,132115
1.7644,0.1808,39.0300,75,98,132118
1.7742,0.1808,38.9300,75,98,132121
1.7693,0.1760,39.0300,75,98,132124
1.7791,0.1760,39.0600,75,98,132128
1.8084,0.1857,38.9600,75,98,132131
1.7889,0.1711,39.0300,75,98,132134
1.8231,0.1857,39.1200,75,98,132139
1.7986,0.1760,39.0300,75,98,132142
1.8035,0.1760,39.0600,75,98,132145
1.8280,0.1857,38.9600,75,98,132149
1.8182,0.1808,39.0600,75,98,132152
1.8475,0.1808,38.8700,75,98,132155
1.8231,0.2053,39.0000,75,98,132159
1.8231,0.1760,39.0600,75,98,132162
1.8377,0.1906,38.9300,75,98,132165
1.8182,0.1760,38.9600,75,98,132168
1.8622,0.1955,38.8100,75,98,132172
1.8231,0.1711,39.0300,75,98,132175
1.8231,0.1808,39.0300,75,98,132178
1.8377,0.1857,39.0000,75,98,132183
1.8328,0.1808,39.0300,75,98,132187
1.8328,0.1711,39.0300,75,98,132191
1.8915,0.1808,38.8700,75,98,132194
1.8426,0.1808,39.0300,75,98,132197
1.8573,0.1857,38.9600,75,98,132201
1.8377,0.1808,39.0900,75,98,132204
1.8377,0.1760,39.0600,75,98,132207
1.8768,0.1857,38.9300,75,98,132210
1.8426,0.1808,39.0300,75,98,132214
1.8671,0.2151,38.9600,75,98,132217
1.8426,0.1760,39.0300,75,98,132220
1.8426,0.1760,39.0600,75,98,132225
1.8524,0.1808,38.9300,75,98,132228
1.8328,0.1760,39.1200,75,98,132231
1.8622,0.1808,38.8700,75,98,132235
1.8426,0.1760,38.9600,75,98,132238
1.8475,0.1711,39.0300,75,98,132241
1.8719,0.1906,38.9600,75,98,132245
1.8475,0.1760,39.0300,75,98,132248
1.8866,0.1857,38.8100,75,98,132251
1.8622,0.1857,38.9300,75,98,132255
1.8573,0.1760,39.0600,75,98,132258
1.8573,0.1857,39.0000,75,98,132261
1.8768,0.1760,39.0300,75,98,132264
1.8915,0.1906,38.7400,75,98,132269
1.8524,0.2053,39.0600,75,98,132272
1.8768,0.1711,39.0000,75,98,132275
1.8573,0.1808,39.0300,75,98,132279
1.8573,0.1760,39.0900,75,98,132282
1.9404,0.2053,38.9000,75,98,132285
1.8817,0.1857,38.9600,75,98,132289
1.8671,0.1808,39.0000,75,98,132292
1.8866,0.1760,39.0300,75,98,132295
1.8622,0.1760,39.2500,75,98,132298
1.8964,0.1857,38.9600,75,98,132302
1.8768,0.1857,39.0300,75,98,132305
1.8866,0.1955,38.9000,75,98,132308
1.8622,0.1808,39.0600,75,98,132313
1.8622,0.1760,38.4900,75,98,132316
1.9013,0.1857,38.9000,75,98,132319
1.8768,0.1515,39.0300,75,98,132323
1.8964,0.1857,39.0000,75,98,132326
1.8671,0.2004,39.0600,75,98,132329
1.8622,0.1760,39.0300,75,98,132332
1.8817,0.1857,39.0300,75,98,132336
1.8719,0.1906,39.0600,75,98,132339
1.8964,0.1857,38.8700,75,98,132342
1.8719,0.1760,39.0000,75,98,132346
1.8671,0.1955,39.0300,75,98,132349
1.8866,0.1906,38.9600,75,98,132353
1.8671,0.1760,38.9600,75,98,132357
1.9110,0.1906,38.8400,75,98,132360
1.8768,0.1760,39.0300,75,98,132363
1.8768,0.1760,39.0600,75,98,132367
1.8817,0.1808,39.0000,75,98,132370
1.8719,0.1760,39.1600,75,98,132373
1.9208,0.2004,38.7400,75,98,132376
1.8964,0.1857,38.9300,75,98,132380
1.8866,0.1760,39.0300,75,98,132383
1.8915,0.1808,39.0300,75,98,132386
1.8964,0.1760,39.0600,75,98,132390
1.9599,0.2004,38.8700,75,98,132393
1.9355,0.1808,39.0000,75,98,132397
1.9404,0.1760,38.9600,75,98,132401
1.9404,0.1808,39.0600,75,98,132404
1.9697,0.1808,39.0300,75,98,132407
1.9746,0.1857,38.9300,75,98,132410
1.9550,0.1857,38.9600,75,98,132414
2.0039,0.1808,38.9000,75,98,132417
1.9648,0.1808,39.0300,75,98,132420
1.9648,0.1760,39.0600,75,98,132424
1.9892,0.1808,39.0000,75,98,132427
1.9795,0.1760,39.0300,75,98,132430
2.0039,0.1857,38.9300,75,98,132434
1.9795,0.1857,39.0600,75,98,132438
1.9844,0.1711,39.0600,75,98,132441
1.9941,0.1955,38.8700,75,98,132444
1.9404,0.1808,39.0300,75,98,132448
1.9355,0.1808,38.8700,75,98,132451
1.8964,0.2053,38.9600,75,98,132454
1.8768,0.1711,39.0900,75,98,132458
1.8866,0.1906,39.0600,75,98,132461
1.8622,0.1857,39.0900,75,98,132464
1.8915,0.1857,38.8400,75,98,132468
1.8475,0.2004,39.0000,75,98,132471
1.8280,0.1760,39.0300,75,98,132474
1.8377,0.1857,38.9600,75,98,132477
1.8133,0.1760,39.1600,75,98,132482
1.8524,0.1808,38.7700,75,98,132485
1.8035,0.1760,38.9000,75,98,132488
1.7889,0.1808,39.0300,75,98,132492
1.7889,0.1857,39.0300,75,98,132495
1.7840,0.1760,39.0900,75,98,132498
1.8377,0.2199,38.8700,75,98,132502
1.7986,0.1711,38.9600,75,98,132505
1.7889,0.1760,39.0600,75,98,132508
1.8084,0.1857,39.0300,75,98,132512
1.7889,0.1857,39.0300,75,98,132515
1.8328,0.1906,38.9300,75,98,132518
1.8035,0.1711,39.0300,75,98,132521
1.7937,0.1808,38.9300,75,98,132526
1.7742,0.1808,39.0300,75,98,132529
1.8231,0.1711,38.8700,75,98,132532
1.8719,0.1857,38.8700,75,98,132536
1.9453,0.1808,39.0300,75,98,132539
2.0821,0.1857,39.0000,75,98,132542
2.1896,0.1808,38.9600,75,98,132546
2.3509,0.1711,39.0300,75,98,132549
2.5415,0.1808,39.2800,75,98,132552
2.6833,0.2053,39.0600,75,98,132555
2.7273,0.1857,38.9000,75,98,132559
2.5709,0.1808,39.0300,75,98,132562
2.3803,0.1760,39.0600,75,98,132566
2.1994,0.1906,38.9300,75,98,132570
1.9941,0.1711,39.0600,75,98,132573
1.9062,0.1857,38.8100,75,98,132576
1.8182,0.1711,38.9600,75,98,132580
1.7742,0.1760,39.0600,75,98,132583
1.7546,0.1808,39.0000,75,98,132586
1.7400,0.1711,39.0300,75,98,132589
1.7546,0.1906,38.8700,75,98,132593
1.7155,0.1808,39.0000,75,98,132596
1.7058,0.1711,39.0900,75,98,132599
1.7155,0.1857,39.0000,75,98,132603
1.6960,0.1760,39.0300,75,98,132606
1.7595,0.2004,38.7700,75,98,132610
1.7009,0.1808,38.9300,75,98,132614
1.6960,0.1760,39.1600,75,98,132617
1.7009,0.1857,39.0600,75,98,132620
1.7009,0.1760,39.0300,75,98,132623
1.7449,0.1906,38.8700,75,98,132627
1.7058,0.1808,39.0000,75,98,132630
1.7204,0.1808,38.9300,75,98,132633
1.7204,0.1760,39.0000,75,98,132637
1.7546,0.1808,39.0600,75,98,132640
1.7693,0.1906,38.8700,75,98,132643
1.7449,0.1808,38.8700,75,98,132647
1.7644,0.1808,38.8700,75,98,132651
1.7498,0.1808,39.0600,75,98,132654
1.7595,0.1760,39.2200,75,98,132657
1.7986,0.1906,38.9300,75,98,132661
1.7791,0.1808,39.0600,75,98,132664
1.8084,0.1857,38.9600,75,98,132667
1.7791,0.1760,39.0900,75,98,132671
1.7889,0.1760,39.0600,75,98,132674
1.8133,0.1808,39.0000,75,98,132677
1.8084,0.1760,39.0300,75,98,132681
1.8426,0.1808,38.8400,75,98,132684
1.8084,0.2004,39.0600,75,98,132687
1.8084,0.1857,39.0300,75,98,132690
1.8231,0.1857,38.9600,75,98,132695
1.8182,0.1808,39.0600,75,98,132698
1.8768,0.1906,38.8100,75,98,132701
1.8524,0.1857,38.9600,75,98,132705
1.8377,0.1760,39.0000,75,98,132708
1.8426,0.1808,39.0000,75,98,132711
1.8475,0.1808,39.0600,75,98,132715
1.9062,0.1906,38.7100,75,98,132718
1.8768,0.1808,39.0000,75,98,132721
1.8768,0.1711,39.0300,75,98,132724
1.8817,0.1808,39.0300,75,98,132728
1.8866,0.1760,39.0300,75,98,132731
1.9453,0.1906,38.8700,75,98,132734
1.9208,0.2053,38.9600,75,98,132739
1.9257,0.1711,38.9600,75,98,132742
1.9159,0.1808,39.0600,75,98,132745
1.9208,0.1808,39.0600,75,98,132749
1.9599,0.1955,38.9300,75,98,132752
1.9404,0.1808,39.0300,75,98,132755
1.9648,0.1515,38.9300,75,98,132758
1.9648,0.1760,39.0600,75,98,132762
1.9648,0.1808,39.0600,75,98,132765
2.0088,0.1906,38.8700,75,98,132768
1.9941,0.1711,39.0300,75,98,132772
2.0283,0.1857,38.9300,75,98,132775
2.0088,0.1760,39.0300,75,98,132779
2.0186,0.1955,39.0600,75,98,132783
2.0430,0.1857,38.9600,75,98,132786
2.0235,0.1808,38.9600,75,98,132789
2.0479,0.1808,38.9000,75,98,132792
2.0283,0.1808,38.8100,75,98,132796
2.0332,0.1760,39.0000,75,98,132800
2.0381,0.1760,39.0600,75,98,132804
2.0528,0.1906,39.0000,75,98,132807
2.0430,0.1760,39.0600,75,98,132810
2.0723,0.1955,38.7400,75,98,132814
2.0186,0.1857,38.2700,75,98,132817
1.9746,0.1760,39.0300,75,98,132820
1.9550,0.1515,39.0300,75,98,132824
1.9208,0.1760,39.0300,75,98,132828
1.9550,0.2004,38.8400,75,98,132831
1.8719,0.1808,39.0000,75,98,132834
1.8377,0.1760,39.0600,75,98,132838
1.8035,0.1711,39.0300,75,98,132841
1.7791,0.1760,39.0600,75,98,132844
1.7937,0.2004,38.9000,75,98,132848
1.7595,0.1808,39.0000,75,98,132851
1.7351,0.1808,38.9300,75,98,132854
1.7058,0.1808,39.0600,75,98,132857
1.6960,0.1711,39.0300,75,98,132861
1.7107,0.1906,39.0000,75,98,132865
1.6911,0.1808,39.0300,75,98,132868
1.7009,0.1857,38.9000,75,98,132872
1.6667,0.1760,39.0300,75,98,132875
1.6667,0.1760,39.0600,75,98,132878
1.6960,0.1906,38.9000,75,98,132882
1.6960,0.1760,39.0300,75,98,132885
1.7107,0.1808,38.9000,75,98,132888
1.6764,0.1760,39.0000,75,98,132891
1.6813,0.1760,38.9300,75,98,132895
1.7009,0.1857,38.9600,75,98,132898
1.6911,0.1808,39.0600,75,98,132901
1.7253,0.1857,38.9000,75,98,132905
1.7204,0.1857,38.9300,75,98,132909
1.7058,0.1711,39.0600,75,98,132912
1.7253,0.1955,39.0000,75,98,132916
1.7155,0.1711,39.0300,75,98,132919
1.7498,0.1906,38.8100,75,98,132922
1.7155,0.1760,38.9600,75,98,132925
1.7204,0.1760,39.0600,75,98,132929
1.7351,0.1857,38.9000,75,98,132932
1.7253,0.1760,39.0600,75,98,132935
1.7742,0.2004,38.9000,75,98,132939
1.7449,0.1857,38.9600,75,98,132942
1.7351,0.1760,39.0300,75,98,132945
1.7400,0.1808,39.0600,75,98,132950
1.7351,0.1906,39.0300,75,98,132953
1.8133,0.1906,38.8700,75,98,132956
1.7449,0.1808,39.1600,75,98,132960
1.7546,0.1808,38.9300,75,98,132963
1.7498,0.1808,39.0300,75,98,132966
1.7449,0.1760,39.0300,75,98,132969
1.7742,0.1906,38.9300,75,98,132973
1.7498,0.1808,39.2200,75,98,132976
1.7644,0.1808,38.8700,75,98,132979
1.7449,0.1808,39.0600,75,98,132983
1.7546,0.1857,39.0300,75,98,132986
1.7693,0.1808,38.9300,75,98,132989
1.7644,0.1808,39.2200,75,98,132994
1.7840,0.1760,38.9000,75,98,132997
1.7546,0.1808,39.0600,75,98,133000
1.7546,0.1760,39.0600,75,98,133003
1.7889,0.1857,38.9300,75,98,133007
1.7693,0.1808,39.0600,75,98,133010
1.7986,0.1857,38.8400,75,98,133013
1.7840,0.1711,38.9300,75,98,133017
1.7644,0.1808,39.0600,75,98,133020
1.7791,0.1857,39.0000,75,98,133023
1.7546,0.1808,39.0600,75,98,133027
1.7986,0.1906,38.2700,75,98,133030
1.7595,0.1711,39.0000,75,98,133033
1.7546,0.1760,39.0600,75,98,133038
1.7644,0.1857,39.0600,75,98,133041
1.7546,0.1808,39.0300,75,98,133044
1.8084,0.2004,38.7700,75,98,133047
1.7742,0.1808,38.9300,75,98,133051
1.7595,0.1760,39.0300,75,98,133054
1.7644,0.1808,39.0900,75,98,133057
1.7595,0.1808,39.0600,75,98,133061
1.8133,0.1955,38.9300,75,98,133064
1.7840,0.1857,38.8700,75,98,133067
1.7889,0.2053,38.9000,75,98,133071
1.7742,0.1808,39.0900,75,98,133074
1.7693,0.1760,39.0300,75,98,133078
1.8231,0.1808,38.8700,75,98,133081
1.7693,0.1808,39.0900,75,98,133085
1.7889,0.1808,38.8700,75,98,133088
1.7693,0.1711,39.0600,75,98,133091
1.7644,0.1760,39.2200,75,98,133095
1.7889,0.1711,38.9600,75,98,133098
1.7644,0.1808,39.0300,75,98,133101
1.7937,0.1808,38.9000,75,98,133105
1.7742,0.1760,39.0000,75,98,133108
1.7791,0.1760,39.0600,75,98,133111
1.7889,0.1808,38.1800,75,98,133114
1.7693,0.1808,39.0300,75,98,133118
1.7937,0.1808,38.8400,75,98,133122
1.7742,0.1808,39.0600,75,98,133125
1.7840,0.1711,39.0300,75,98,133129
1.7986,0.1906,38.9600,75,98,133132
1.7742,0.1857,39.0600,75,98,133135
1.8084,0.1906,38.8100,75,98,133139
1.7889,0.1857,39.0000,75,98,133142
1.7791,0.1760,39.0900,75,98,133145
1.7889,0.1808,39.0000,75,98,133148
1.7742,0.1808,39.0600,75,98,133152
1.8280,0.1906,38.7100,75,98,133155
1.7791,0.1808,38.9600,75,98,133158
1.7840,0.1760,39.0300,75,98,133163
1.7937,0.2053,39.0000,75,98,133166
1.7840,0.1857,39.0600,75,98,133169
1.8328,0.2004,38.8700,75,98,133173
1.7937,0.1857,39.0600,75,98,133176
1.7840,0.1760,38.9600,75,98,133179
1.7791,0.1808,39.0300,75,98,133182
1.7937,0.1808,39.0600,75,98,133186
1.8426,0.2297,38.9300,75,98,133189
1.8280,0.1857,39.0300,75,98,133192
1.8475,0.1808,38.2100,75,98,133196
1.8377,0.1760,39.0600,75,98,133199
1.8426,0.1760,39.2500,75,98,133202
1.8866,0.1857,38.9300,75,98,133207
1.8671,0.1808,39.1200,75,98,133210
1.8964,0.2004,38.9300,75,98,133213
1.8671,0.1760,39.0000,75,98,133217
1.8768,0.1808,39.0300,75,98,133220
1.8964,0.1857,39.0000,75,98,133223
1.9013,0.1808,39.0300,75,98,133226
1.9355,0.1808,38.9000,75,98,133230
1.9110,0.2053,39.0300,75,98,133233
1.9404,0.1808,39.0300,75,98,133236
1.9208,0.1857,38.9300,75,98,133240
1.8915,0.1711,39.1200,75,98,133243
1.9159,0.1808,38.8100,75,98,133246
1.8622,0.1760,39.0000,75,98,133251
1.8377,0.2053,39.0300,75,98,133254
1.8280,0.1857,39.0000,75,98,133257
1.7986,0.1808,39.0300,75,98,133260
1.8377,0.1955,38.7400,75,98,133264
1.8035,0.1857,38.9600,75,98,133267
1.7840,0.1760,39.0900,75,98,133270
1.8084,0.1857,39.0600,75,98,133274
1.7595,0.1711,39.0300,75,98,133277
1.8035,0.2004,38.8700,75,98,133280
1.7595,0.1711,39.0000,75,98,133284
1.7449,0.1760,38.9300,75,98,133287
1.7351,0.1808,39.2500,75,98,133291
1.7253,0.1808,39.0300,75,98,133294
1.7546,0.1906,38.9000,75,98,133298
1.7253,0.1857,39.0600,75,98,133301
1.7302,0.1906,38.8700,75,98,133304
1.7107,0.1808,39.0600,75,98,133308
1.7253,0.1760,39.0900,75,98,133311
1.7498,0.1906,38.9600,75,98,133314
1.7400,0.1808,39.0300,75,98,133318
1.7498,0.1857,38.9300,75,98,133321
1.7351,0.1808,39.0300,75,98,133324
1.7204,0.1808,39.0600,75,98,133327
1.7742,0.1906,38.9000,75,98,133331
1.7937,0.1808,39.0300,75,98,133335
1.8964,0.1808,38.9000,75,98,133338
1.9746,0.1760,39.0000,75,98,133342
2.0968,0.1760,39.0600,75,98,133345
2.2678,0.1857,38.9600,75,98,133348
2.4291,0.1808,39.0300,75,98,133352
2.6540,0.1857,38.8700,75,98,133355
2.6637,0.2053,39.0000,75,98,133358
2.5660,0.1808,39.0300,75,98,133361
2.4291,0.1906,38.9300,75,98,133365
2.1896,0.1808,39.0600,75,98,133368
2.0479,0.1906,38.7400,75,98,133371
1.8622,0.1760,39.0000,75,98,133376
1.7791,0.1760,39.0600,75,98,133379
1.7449,0.1857,39.0000,75,98,133382
1.7449,0.1857,39.0600,75,98,133385
1.7498,0.1906,38.7700,75,98,133389
1.7009,0.1857,38.8700,75,98,133392
1.6716,0.1760,39.0300,75,98,133395
1.6569,0.1808,39.0300,75,98,133399
1.6520,0.1808,39.0000,75,98,133402
1.7009,0.2004,38.8700,74,98,133405
1.6716,0.2053,38.9300,74,98,133410
1.6716,0.1808,39.0600,74,98,133413
1.6960,0.1906,39.0000,74,98,133417
1.6813,0.2053,39.0300,74,98,133421
1.7155,0.1711,39.0300,74,98,133424
1.6960,0.1808,38.9300,74,98,133427
1.6960,0.1808,38.9600,74,98,133431
1.7351,0.1808,38.9000,74,98,133434
1.7204,0.1808,39.0600,74,98,133437
1.7253,0.1808,39.0600,74,98,133441
1.7449,0.1906,39.0000,74,98,133444
1.7302,0.1711,39.0300,74,98,133447
1.7693,0.1857,38.8400,74,98,133451
1.7595,0.1857,38.9300,74,98,133454
1.7546,0.1760,39.0300,74,98,133457
1.7644,0.1857,38.9600,74,98,133460
1.7498,0.1760,39.0900,74,98,133465
1.8035,0.1906,38.8400,74,98,133468
1.7742,0.1808,38.9600,74,98,133471
1.7791,0.1760,39.0600,74,98,133475
1.7937,0.1857,39.1900,74,98,133478
1.7840,0.1760,39.0300,74,98,133481
1.8377,0.2004,38.8100,74,98,133485
1.8035,0.1857,38.9300,74,98,133488
1.8133,0.1711,39.0000,74,98,133491
1.8133,0.1808,39.1200,74,98,133495
1.8524,0.1857,39.0300,74,98,133498
1.8622,0.1955,38.9600,74,98,133501
1.8328,0.1857,39.0000,74,98,133505
1.8475,0.1808,38.9300,74,98,133509
1.8426,0.1808,39.0000,74,98,133512
1.8524,0.1760,39.0600,74,98,133515
1.8964,0.1711,38.8400,74,98,133519
1.8719,0.1857,39.0600,74,98,133522
1.9062,0.1711,38.9000,74,98,133525
1.8768,0.1808,39.1200,74,98,133529
1.8817,0.1857,39.2500,74,98,133532
1.9159,0.1857,38.9600,74,98,133535
1.9013,0.1808,39.0300,74,98,133539
1.9306,0.1760,38.8700,74,98,133542
1.9110,0.1760,39.0300,74,98,133545
1.9208,0.1808,39.0300,74,98,133549
1.9599,0.1857,38.9000,74,98,133553
1.9550,0.1808,39.0600,74,98,133556
1.9892,0.1857,38.8100,74,98,133559
1.9941,0.1760,39.0300,74,98,133563
1.9697,0.1808,39.0600,74,98,133566
1.9941,0.1906,38.9000,74,98,133569
1.9844,0.1808,39.0300,74,98,133573
2.0430,0.1906,38.8400,74,98,133576
2.0186,0.1857,38.9600,74,98,133579
2.0039,0.1662,39.0300,74,98,133582
2.0137,0.1857,39.0300,74,98,133586
2.0137,0.1808,39.0900,74,98,133590
2.0821,0.2004,38.7400,74,98,133593
2.0723,0.1711,39.0000,74,98,133597
2.0332,0.1760,38.9600,74,98,133600
2.0332,0.1857,39.0300,74,98,133603
2.0186,0.1808,39.1600,74,98,133606
2.0674,0.2053,38.9000,74,98,133610
2.0577,0.1906,38.9600,74,98,133613
2.0088,0.1760,39.0000,74,98,133616
1.9795,0.1808,39.0300,74,98,133620
1.9453,0.1808,39.0300,74,98,133623
1.9550,0.1955,38.9300,74,98,133626
1.9013,0.1857,39.0000,74,98,133630
1.8866,0.1808,38.9000,74,98,133634
1.8377,0.1808,39.0300,74,98,133637
1.8133,0.1808,39.0600,74,98,133640
1.8133,0.2004,38.9000,74,98,133644
1.7644,0.1808,39.0300,74,98,133647
1.7742,0.1906,38.9300,74,98,133650
1.7302,0.1760,39.0300,74,98,133654
1.7302,0.1760,39.0300,74,98,133657
1.7155,0.1857,38.9000,74,98,133660
1.6862,0.1808,39.0300,74,98,133664
1.6960,0.1760,38.8700,74,98,133667
1.6618,0.1808,39.0000,74,98,133670
1.6618,0.1760,39.1200,74,98,133673
1.6813,0.1808,38.9000,74,98,133678
1.6618,0.1808,39.0900,74,98,133681
1.6911,0.1857,38.8400,74,98,133684
1.6569,0.1760,39.0600,74,98,133688
1.6667,0.1808,39.0600,74,98,133691
1.6960,0.1906,38.4000,74,98,133694
1.6813,0.1760,39.0300,74,98,133698
1.7302,0.1906,38.8100,74,98,133701
1.7058,0.1857,38.9600,74,98,133704
1.6960,0.1808,39.0300,74,98,133707
1.7107,0.1808,39.0300,74,98,133711
1.7155,0.1808,39.0600,74,98,133714
1.7742,0.2004,38.7700,74,98,133718
1.7351,0.1808,39.0000,74,98,133722
1.7253,0.1760,39.0000,74,98,133725
1.7351,0.1906,39.0300,74,98,133728
1.7253,0.1760,39.0600,74,98,133732
1.7742,0.1906,38.9000,74,98,133735
1.7546,0.1906,39.0000,74,98,133738
1.7498,0.1760,38.9300,74,98,133741
1.7449,0.1808,39.0600,74,98,133745
1.7449,0.1711,39.0600,74,98,133748
1.7742,0.1906,38.9600,74,98,133751
1.7644,0.1857,39.0300,74,98,133755
1.7840,0.1857,38.9000,74,98,133758
1.7595,0.1808,39.2500,74,98,133762
1.7546,0.1808,39.0600,74,98,133766
1.7937,0.1906,38.9300,74,98,133769
1.7644,0.1808,38.9600,74,98,133772
1.7937,0.1857,38.9300,74,98,133775
1.7693,0.1760,38.9600,74,98,133779
1.7693,0.1808,39.0300,74,98,133782
1.7840,0.1857,38.7700,74,98,133785
1.7644,0.1808,39.0600,74,98,133789
1.7986,0.1857,38.8400,74,98,133792
1.8035,0.1760,38.9600,74,98,133795
1.7742,0.1711,39.0300,74,98,133799
1.7937,0.2102,38.9300,74,98,133803
1.8035,0.1760,39.0600,74,98,133806
1.8133,0.1906,38.7700,74,98,133809
1.7693,0.1760,39.0000,74,98,133813
1.7791,0.1808,39.0300,74,98,133816
1.7840,0.1857,39.0000,74,98,133819
1.7742,0.1808,39.0300,74,98,133823
1.8231,0.2004,38.8100,74,98,133826
1.7937,0.1808,38.9300,74,98,133829
1.7840,0.1760,39.0900,74,98,133833
1.8133,0.1808,39.0900,74,98,133836
1.7840,0.1808,39.0600,74,98,133839
1.8280,0.2004,38.9000,74,98,133842
1.7889,0.2004,39.0000,74,98,133847
1.7889,0.1808,39.0600,74,98,133850
1.7986,0.1857,39.0300,74,98,133853
1.7889,0.1808,39.0600,74,98,133857
1.8231,0.1906,38.1500,74,98,133860
1.7937,0.1808,39.0000,74,98,133863
1.7986,0.1711,38.9300,74,98,133867
1.7840,0.1808,39.0900,74,98,133870
1.7889,0.1808,39.0600,74,98,133873
1.8035,0.1857,39.0000,74,98,133876
1.7889,0.1808,39.0600,74,98,133880
1.8133,0.1857,38.9300,74,98,133883
1.7889,0.1808,39.0600,74,98,133886
1.7937,0.1808,39.0900,74,98,133891
1.8231,0.1955,38.9000,74,98,133894
1.7986,0.1808,39.0300,74,98,133897
1.8280,0.1808,38.9000,74,98,133901
1.7986,0.1808,38.9600,74,98,133904
1.7937,0.1760,39.0300,74,98,133907
1.8084,0.1857,39.0000,74,98,133910
1.7986,0.2053,39.0600,74,98,133914
1.8671,0.1808,38.8400,74,98,133917
1.8035,0.1808,39.0900,74,98,133920
1.7937,0.1808,39.1900,74,98,133924
1.8231,0.2004,39.0000,74,98,133927
1.7986,0.1808,39.0600,74,98,133931
1.8524,0.1906,38.8100,74,98,133935
1.8084,0.1760,39.0600,74,98,133938
1.8182,0.1808,39.0600,74,98,133941
1.8182,0.1857,39.0300,74,98,133944
1.7986,0.1760,39.0300,74,98,133948
1.8475,0.1906,38.7700,74,98,133951
1.8182,0.1857,39.2500,74,98,133954
1.8084,0.1857,38.9600,74,98,133958
1.8084,0.1808,39.0300,74,98,133961
1.8035,0.1857,39.0600,74,98,133964
1.8426,0.1955,38.8700,74,98,133968
1.8133,0.1808,39.0000,74,98,133971
1.8280,0.1906,38.9000,74,98,133975
1.8084,0.1711,39.0300,74,98,133978
1.8231,0.1808,39.0600,74,98,133982
1.8573,0.1955,38.9000,74,98,133985
1.8573,0.1808,39.0000,74,98,133988
1.8866,0.1857,38.9300,74,98,133992
1.8719,0.1955,39.0600,74,98,133995
1.8866,0.1760,39.0600,74,98,133998
1.9013,0.1808,38.9000,74,98,134002
1.8915,0.1857,39.0600,74,98,134005
1.9257,0.1857,38.9600,74,98,134008
1.8866,0.1808,39.0300,74,98,134011
1.8964,0.1760,39.0600,74,98,134016
1.9306,0.1711,38.9300,74,98,134019
1.9404,0.1857,39.0900,74,98,134024
1.9208,0.1808,38.2700,74,98,134027
1.9501,0.1955,38.7700,74,98,134030
1.8866,0.1808,38.9600,74,98,134034
1.8573,0.1760,39.0300,74,98,134037
1.8573,0.1711,39.0000,74,98,134040
1.8280,0.1808,39.0600,74,98,134044
1.8671,0.2004,39.2200,74,98,134047
1.8231,0.1808,38.9300,74,98,134050
1.7986,0.1760,38.9600,74,98,134053
1.7791,0.1808,39.0600,74,98,134057
1.7742,0.1808,39.0300,74,98,134061
1.7986,0.1906,39.0300,74,98,134064
1.7644,0.1906,39.0300,74,98,134068
1.7644,0.1857,38.9000,74,98,134071
1.7351,0.1808,39.0900,74,98,134074
1.7351,0.1808,39.0600,74,98,134078
1.7644,0.1808,38.9300,74,98,134081
1.7400,0.1906,39.0300,74,98,134084
1.7595,0.1857,38.9000,74,98,134088
1.7644,0.1711,39.0300,74,98,134091
1.7351,0.1808,39.0600,74,98,134094
1.7791,0.1906,38.9600,74,98,134097
1.7449,0.1808,39.0300,74,98,134102
1.7644,0.1808,38.8100,74,98,134105
1.7351,0.1808,39.0300,74,98,134108
1.7253,0.1760,39.0600,74,98,134112
1.7498,0.2248,38.9000,74,98,134115
1.7742,0.1711,39.0600,74,98,134118
1.8768,0.1857,38.8700,74,98,134122
1.9453,0.1760,39.0000,74,98,134125
2.0674,0.1808,39.1200,74,98,134128
2.2239,0.1857,38.9300,74,98,134131
2.3851,0.1808,39.0300,74,98,134135
2.6344,0.1906,38.7700,74,98,134138
2.6686,0.1857,39.0000,74,98,134141
2.5953,0.1760,39.0300,74,98,134146
2.4047,0.1808,39.0900,74,98,134149
2.1896,0.1808,39.1600,74,98,134152
2.0577,0.2053,38.8400,74,98,134156
1.8768,0.1857,39.0000,74,98,134159
1.8035,0.1760,39.0000,74,98,134162
1.7693,0.1808,39.0300,74,98,134165
1.7351,0.1662,39.0300,74,98,134169
1.7595,0.1906,39.0000,74,98,134172
1.7155,0.1857,39.0300,74,98,134175
1.7302,0.1857,38.9300,74,98,134179
1.6764,0.1808,39.0600,74,98,134182
1.6667,0.1760,39.0600,74,98,134185
1.6813,0.1906,39.0000,74,98,134190
1.6569,0.1808,39.0300,74,98,134193
1.6764,0.1857,38.9600,74,98,134196
1.6667,0.1711,39.0600,74,98,134199
1.6667,0.1808,39.0900,74,98,134203
1.7009,0.2004,38.9000,74,98,134206
1.6764,0.1808,39.0600,74,98,134209
1.7058,0.1808,38.9000,74,98,134213
1.6813,0.1760,38.3300,74,98,134216
1.6911,0.1808,39.0300,74,98,134219
1.7155,0.1857,38.9600,74,98,134223
1.7058,0.2151,39.0300,74,98,134226
1.7400,0.1857,38.8400,74,98,134230
1.7155,0.1808,38.9300,74,98,134233
1.7155,0.1857,39.0300,74,98,134237
1.7449,0.1906,38.9600,74,98,134240
1.7253,0.1955,39.0300,74,98,134243
1.7791,0.1955,38.8100,74,98,134247
1.7351,0.1760,38.9300,74,98,134250
1.7400,0.1760,39.0900,74,98,134253
1.7498,0.1857,39.0300,74,98,134257
1.7498,0.1760,39.0600,74,98,134260
1.8035,0.2004,38.8100,74,98,134263
1.7742,0.1808,38.9600,74,98,134267
1.7644,0.2004,38.9600,74,98,134270
1.7644,0.1808,39.0600,74,98,134274
1.7693,0.1808,39.0600,74,98,134277
1.8182,0.1857,38.8700,74,98,134281
1.7937,0.1808,39.0300,74,98,134284
1.8035,0.1808,38.9300,74,98,134287
1.7937,0.2004,39.0300,74,98,134291
1.7937,0.2151,39.0600,74,98,134294
1.8280,0.1906,38.9300,74,98,134297
1.8182,0.1857,39.0300,74,98,134301
1.8573,0.1857,38.9000,74,98,134304
1.8280,0.1808,39.0600,74,98,134307
1.8280,0.1760,38.9300,74,98,134310
1.8377,0.1711,38.9600,74,98,134315
1.8426,0.1808,38.7100,74,98,134318
1.8719,0.2004,38.8700,74,98,134321
1.8671,0.1808,39.0300,74,98,134325
1.8719,0.1760,39.0900,74,98,134328
1.9110,0.1711,38.9600,74,98,134331
1.8866,0.1808,39.0300,74,98,134335
1.9257,0.1906,38.8400,74,98,134338
1.9159,0.1808,38.9300,74,98,134341
1.9159,0.1808,39.0300,74,98,134345
1.9404,0.1857,39.0300,74,98,134348
1.9306,0.1808,39.1600,74,98,134351
1.9892,0.2053,38.8100,74,98,134354
1.9599,0.1808,39.0000,74,98,134359
1.9648,0.1808,39.1600,74,98,134362
1.9844,0.1906,39.0000,74,98,134365
1.9795,0.1808,39.0600,74,98,134369
2.0381,0.2004,38.7700,74,98,134372
1.9990,0.1955,38.9000,74,98,134375
1.9941,0.1857,39.0000,74,98,134379
2.0039,0.1857,39.0300,74,98,134382
2.0039,0.1808,39.0300,74,98,134385
2.0577,0.2248,38.8700,74,98,134388
2.0235,0.1808,39.0000,74,98,134392
2.0137,0.1711,38.9600,74,98,134395
1.9990,0.1906,39.0300,74,98,134398
1.9990,0.1760,39.0600,74,98,134403
2.0381,0.1906,38.9000,74,98,134406
1.9941,0.1808,39.0600,74,98,134409
1.9941,0.1808,38.9000,74,98,134412
1.9746,0.1857,39.0300,74,98,134416
1.9404,0.1808,39.0600,74,98,134419
1.9501,0.1906,38.9600,74,98,134422
1.9013,0.2199,39.0600,74,98,134426
1.9257,0.1857,38.9000,74,98,134429
1.8328,0.1808,39.0600,74,98,134432
1.8035,0.1808,39.0600,74,98,134436
1.7889,0.2053,38.8700,74,98,134439
1.7595,0.1857,39.0600,74,98,134443
1.7644,0.1808,38.9300,74,98,134446
1.7155,0.1857,39.0600,74,98,134450
1.7009,0.1808,39.0600,74,98,134453
1.7107,0.1906,38.9300,74,98,134456
1.6716,0.2053,39.0600,74,98,134460
1.6911,0.1857,38.8400,74,98,134463
1.6764,0.1808,38.9600,74,98,134466
1.6569,0.1857,39.0300,74,98,134470
1.6618,0.1857,39.2800,74,98,134473
1.6618,0.1857,39.0300,74,98,134476
1.6960,0.1906,38.8100,74,98,134479
1.6667,0.1760,38.9600,74,98,134483
1.6618,0.1711,39.0600,74,98,134487
1.6764,0.1857,39.0300,74,98,134490
1.6569,0.2053,39.0000,74,98,134494
1.7058,0.2053,38.8100,74,98,134497
1.6764,0.1906,39.0000,74,98,134500
1.6764,0.1760,38.9300,74,98,134504
1.7155,0.1857,39.0300,74,98,134507
1.6862,0.1808,39.2500,74,98,134510
1.7253,0.2297,38.8700,74,98,134513
1.7058,0.1857,39.0000,74,98,134517
1.7155,0.1808,38.9300,74,98,134520
1.7107,0.1760,39.0000,74,98,134523
1.7107,0.1808,39.0600,74,98,134528
1.7400,0.1906,39.0000,74,98,134531
1.7155,0.2053,39.0300,74,98,134534
1.7400,0.1857,38.9000,74,98,134538
1.7253,0.1711,39.0600,74,98,134541
1.7253,0.1808,39.1200,74,98,134544
1.7546,0.1906,38.9300,74,98,134547
1.7351,0.1808,39.0600,74,98,134551
1.7644,0.1808,38.9000,74,98,134554
1.7742,0.1760,39.0300,74,98,134557
1.7595,0.1808,39.0600,74,98,134561
1.7742,0.1857,39.0000,74,98,134564
1.7595,0.2004,39.0300,74,98,134567
1.7840,0.1857,38.8400,74,98,134572
1.7546,0.1808,39.0000,74,98,134575
1.7595,0.1808,39.0600,74,98,134578
1.7742,0.1955,38.9300,74,98,134581
1.7644,0.1808,39.0900,74,98,134585
1.8035,0.1906,38.7700,74,98,134588
1.7889,0.1711,38.9300,74,98,134591
1.7693,0.1808,38.2700,74,98,134595
1.7791,0.1857,39.0000,74,98,134598
1.7840,0.1808,39.0300,74,98,134601
1.8377,0.1906,38.7700,74,98,134605
1.7937,0.1857,39.0000,74,98,134608
1.7889,0.1515,39.0300,74,98,134611
1.7937,0.1857,39.0300,74,98,134615
1.7889,0.1760,39.0600,74,98,134619
1.8475,0.2004,38.8700,74,98,134622
1.8133,0.1906,38.9600,74,98,134625
1.7986,0.1760,39.0000,74,98,134629
1.7889,0.1808,39.0300,74,98,134632
1.7937,0.1808,39.0900,74,98,134637
1.7889,0.1808,39.0600,74,98,134640
1.8182,0.1906,38.8100,74,98,134643
1.7937,0.1808,39.0300,74,98,134647
1.8280,0.1808,38.9000,74,98,134650
1.8035,0.1808,39.0000,74,98,134653
1.8035,0.1808,39.0600,74,98,134657
1.8084,0.1857,39.0600,74,98,134661
1.7986,0.1760,39.0600,74,98,134664
1.8231,0.1857,38.8400,74,98,134667
1.8035,0.1808,39.0600,74,98,134671
1.7986,0.1808,39.0600,74,98,134674
1.8231,0.1955,38.9600,74,98,134677
1.7937,0.1808,39.2200,74,98,134681
1.8377,0.2248,38.8100,74,98,134684
1.7937,0.1760,38.9600,74,98,134687
1.8035,0.1808,39.0600,74,98,134690
1.8133,0.1906,39.0300,74,98,134694
1.8035,0.1808,39.0600,74,98,134697
1.8524,0.1955,38.7700,74,98,134701
1.8182,0.1857,38.9300,74,98,134705
1.8133,0.1515,39.0000,74,98,134708
1.8133,0.1760,39.0300,74,98,134711
1.8182,0.1808,39.0600,74,98,134715
1.8671,0.1955,38.7700,74,98,134718
1.8280,0.1857,39.0000,74,98,134721
1.8328,0.1808,38.9600,74,98,134724
1.8280,0.1808,39.0300,74,98,134728
1.8280,0.1857,39.0300,74,98,134731
1.8573,0.1955,38.9300,74,98,134734
1.8377,0.1857,39.0000,74,98,134738
1.8426,0.1808,38.9000,74,98,134742
1.8231,0.1808,39.0600,74,98,134745
1.8231,0.1808,39.0600,74,98,134749
1.8426,0.1808,39.0000,74,98,134752
1.8426,0.1857,39.0300,74,98,134755
1.8475,0.1906,38.9300,74,98,134758
1.8182,0.1760,39.0600,74,98,134762
1.8182,0.1808,39.0600,74,98,134765
1.8524,0.1906,38.9300,74,98,134768
1.8328,0.1711,39.0600,74,98,134772
1.8573,0.1857,38.8700,74,98,134775
1.8426,0.1857,38.9600,74,98,134778
1.8475,0.1808,39.0600,74,98,134782
1.8768,0.1808,39.0000,74,98,134786
1.8964,0.1857,39.0300,74,98,134789
1.9355,0.1906,38.8100,74,98,134792
1.9110,0.1808,39.0000,74,98,134796
1.9159,0.1857,39.0300,74,98,134799
1.9306,0.1906,39.0000,74,98,134802
1.9159,0.1808,39.0600,74,98,134806
1.9697,0.1906,38.7700,74,98,134809
1.9501,0.1857,38.9300,74,98,134812
1.9453,0.1760,39.0300,74,98,134816
1.9550,0.1906,39.0300,74,98,134819
1.9599,0.1808,39.0600,74,98,134822
2.0332,0.2004,38.8400,74,98,134825
1.9892,0.1857,39.0000,74,98,134830
1.9795,0.1760,39.0900,74,98,134833
1.9550,0.1808,39.0300,74,98,134836
1.9306,0.1808,39.0300,74,98,134840
1.9453,0.1906,38.8400,74,98,134843
1.8964,0.1857,39.0300,74,98,134846
1.8817,0.1515,38.9000,74,98,134850
1.8573,0.1857,39.0600,74,98,134853
1.8671,0.1711,39.0300,74,98,134856
1.8573,0.1906,38.8400,74,98,134859
1.8280,0.1857,39.0000,74,98,134863
1.8377,0.1857,38.9000,74,98,134866
1.8084,0.1515,39.0600,74,98,134870
1.7986,0.2151,39.0600,74,98,134874
1.7889,0.1808,38.9300,74,98,134877
1.7742,0.1808,39.0600,74,98,134880
1.7937,0.1808,38.9000,74,98,134884
1.7644,0.1808,39.0600,74,98,134887
1.7644,0.1808,39.0600,74,98,134890
1.7889,0.1906,39.0600,74,98,134893
1.7937,0.1711,39.0300,74,98,134897
1.7937,0.1857,38.8400,74,98,134900
1.7742,0.1760,39.0000,74,98,134903
1.7742,0.1711,39.0600,74,98,134907
1.7840,0.2151,39.0300,74,98,134910
1.7644,0.1808,39.0600,74,98,134914
1.8035,0.1906,38.8100,74,98,134918
1.7644,0.1808,38.9300,74,98,134921
1.7889,0.1857,39.0600,74,98,134924
1.8622,0.1857,39.0300,74,98,134927
1.9453,0.1808,39.0900,74,98,134931
2.1212,0.2004,38.7400,74,98,134934
2.2190,0.1808,38.9300,74,98,134937
2.3607,0.1760,38.5800,74,98,134941
2.5562,0.1808,39.0600,74,98,134944
2.6833,0.1808,39.0300,74,98,134947
2.7273,0.2004,38.8400,74,98,134951
2.5367,0.1955,39.0000,74,98,134955
2.3363,0.1808,38.9600,74,98,134958
2.1261,0.2102,39.0600,74,98,134962
1.9599,0.1760,39.0600,74,98,134965
1.8866,0.1955,38.8700,74,98,134968
1.8035,0.1857,39.0300,74,98,134971
1.7937,0.1857,38.8700,74,98,134975
1.7546,0.1808,39.0600,74,98,134978
1.7400,0.1808,39.0600,74,98,134981
1.7498,0.1955,38.9300,74,98,134985
1.7253,0.1515,39.0600,74,98,134988
1.7449,0.1857,38.9600,74,98,134991
1.7155,0.1760,39.0000,74,98,134995
1.7058,0.1808,39.1200,74,98,134999
1.7204,0.2151,38.9000,74,98,135002
1.7058,0.1808,39.0300,74,98,135005
1.7253,0.1857,38.8400,74,98,135009
1.7107,0.1808,39.0300,74,98,135012
1.7155,0.1808,39.0300,74,98,135015
1.7302,0.1906,38.9600,74,98,135019
1.7204,0.1808,39.0300,74,98,135022
1.7693,0.1955,38.8100,74,98,135025
1.7644,0.1857,38.9000,74,98,135029
1.7546,0.1808,39.0600,74,98,135032
1.7693,0.1808,39.0600,74,98,135035
1.7644,0.1808,39.0300,74,98,135038
1.8133,0.1955,38.7400,74,98,135043
1.7791,0.1857,38.9600,74,98,135046
1.7742,0.1906,39.0300,74,98,135049
1.8133,0.1711,39.0300,74,98,135053
1.7937,0.1808,39.0600,74,98,135056
1.8426,0.2004,38.8700,74,98,135059
1.8133,0.1955,38.9300,74,98,135063
1.8084,0.1808,39.0000,74,98,135066
1.8182,0.1808,39.1200,74,98,135069
1.8524,0.1857,39.0300,74,98,135072
1.8573,0.1906,38.9600,74,98,135076
1.8328,0.1857,39.0000,74,98,135079
1.8671,0.1808,38.9300,74,98,135083
1.8328,0.1808,38.9300,74,98,135087
1.8426,0.1857,39.0300,74,98,135090
1.8817,0.1906,38.9000,74,98,135093
1.8573,0.1760,39.0000,74,98,135097
1.8817,0.1808,38.9600,74,98,135100
1.8622,0.1760,39.0300,74,98,135103
1.8719,0.1760,39.1600,74,98,135106
1.9013,0.1857,38.9600,74,98,135110
1.8915,0.1808,39.2200,74,98,135113
1.9159,0.1857,38.8700,74,98,135116
1.8866,0.1808,39.0600,74,98,135120
1.8866,0.1808,39.0600,74,98,135123
1.9159,0.1955,38.9000,74,98,135127
1.9159,0.1808,39.0600,74,98,135131
1.9599,0.1906,38.8100,74,98,135134
1.9208,0.1760,39.0000,74,98,135137
1.9257,0.1711,39.0300,74,98,135141
1.9550,0.1857,39.0900,74,98,135144
1.9550,0.1857,39.0600,74,98,135147
2.0283,0.1955,38.7400,74,98,135150
1.9892,0.1857,39.0000,74,98,135154
1.9892,0.1760,38.5500,74,98,135157
1.9990,0.1808,39.0300,74,98,135160
1.9941,0.1808,39.0600,74,98,135164
2.0674,0.2004,38.8400,74,98,135168
2.0577,0.1906,39.0000,74,98,135171
2.0430,0.1760,38.9600,74,98,135174
2.0479,0.1857,39.0300,74,98,135178
2.0479,0.1808,39.1600,74,98,135181
2.1017,0.2004,38.8700,74,98,135184
2.1017,0.1857,39.0000,74,98,135188
2.0870,0.1808,38.9600,74,98,135191
2.0674,0.1808,38.9000,74,98,135194
2.0919,0.1808,39.0600,74,98,135198
2.0870,0.1906,38.9600,74,98,135201
2.0577,0.1857,39.0300,74,98,135204
2.0821,0.1857,38.8400,74,98,135207
2.0577,0.1808,39.0300,74,98,135212
2.0479,0.1808,39.0300,74,98,135215
2.0723,0.1906,38.8700,74,98,135218
2.0186,0.2248,39.0300,74,98,135222
2.0235,0.1955,38.9300,74,98,135225
1.9746,0.1515,39.0300,74,98,135228
1.9501,0.2102,39.0300,74,98,135232
1.9355,0.1857,39.0000,74,98,135235
1.8915,0.1808,39.0600,74,98,135238
1.8866,0.1857,38.8400,74,98,135241
1.7986,0.1906,38.7700,74,98,135246
1.7400,0.1711,38.9300,74,98,135249
1.7400,0.1760,39.0300,74,98,135254
1.7449,0.2053,39.0300,74,98,135257
1.7302,0.1808,39.0600,74,98,135260
1.7791,0.2004,38.8400,74,98,135264
1.7351,0.1857,38.9300,74,98,135267
1.7204,0.1711,38.9600,74,98,135270
1.7155,0.1760,39.0600,74,98,135274
1.7204,0.1711,39.0600,74,98,135277
1.7546,0.1906,38.8700,74,98,135280
1.7253,0.1857,39.0300,74,98,135283
1.7351,0.1808,38.9000,74,98,135287
1.7155,0.1808,39.0300,74,98,135290
1.7253,0.1760,39.0600,74,98,135293
1.7644,0.1906,38.9300,74,98,135298
1.7546,0.2297,39.0300,74,98,135301
1.7791,0.1906,38.9000,74,98,135304
1.7546,0.1808,39.0600,74,98,135308
1.7546,0.1808,38.9300,74,98,135311
1.7742,0.2004,39.0300,74,98,135314
1.7595,0.1808,39.0600,74,98,135317
1.7986,0.1808,38.9000,74,98,135321
1.7693,0.2102,39.0900,74,98,135324
1.7693,0.1857,39.0600,74,98,135327
1.7840,0.1955,38.9300,74,98,135331
1.7742,0.1808,39.0600,74,98,135334
1.8475,0.1808,38.8400,74,98,135337
1.7986,0.1857,38.9300,74,98,135342
1.7889,0.1808,39.0300,74,98,135345
1.8133,0.1857,39.0000,74,98,135348
1.7937,0.1808,39.0300,74,98,135351
1.8377,0.1906,38.9000,74,98,135355
1.8035,0.1808,38.9600,74,98,135358
1.7986,0.1808,39.0600,74,98,135361
1.8133,0.1857,39.0000,74,98,135365
1.7986,0.1808,39.0300,74,98,135368
1.8475,0.2346,38.7700,74,98,135371
1.8133,0.1857,38.9000,74,98,135375
1.7986,0.1760,39.0300,74,98,135378
1.8084,0.1857,39.0300,74,98,135382
1.8035,0.1808,39.0300,74,98,135385
1.8475,0.2102,38.8700,74,98,135389
1.8182,0.1857,39.0000,74,98,135392
1.8133,0.1808,38.9000,74,98,135395
1.8084,0.1808,39.0300,74,98,135399
1.7986,0.1808,39.0300,74,98,135402
1.8328,0.1906,38.9300,74,98,135405
1.8035,0.1857,39.0300,74,98,135409
1.8231,0.1857,38.9000,74,98,135412
1.8084,0.1808,39.0300,74,98,135415
1.8133,0.1760,39.0300,74,98,135418
1.8377,0.1906,38.9600,74,98,135422
1.8133,0.1808,39.0300,74,98,135426
1.8377,0.1857,38.9000,74,98,135429
1.8084,0.1760,39.0300,74,98,135433
1.8133,0.1808,39.0600,74,98,135436
1.8328,0.1760,38.9000,74,98,135439
1.8182,0.1808,39.0300,74,98,135443
1.8377,0.1857,38.9000,74,98,135446
1.8084,0.1808,39.0300,74,98,135449
1.8133,0.1808,39.0300,74,98,135452
1.8328,0.1906,38.8400,74,98,135456
1.8182,0.1711,39.0600,74,98,135459
1.8524,0.1906,38.7700,74,98,135462
1.8231,0.1955,38.9600,74,98,135467
1.8035,0.1808,39.0900,74,98,135470
1.8133,0.1906,39.0000,74,98,135473
1.8084,0.1711,39.0300,74,98,135477
1.8671,0.1906,38.7700,74,98,135480
1.8231,0.1906,38.9600,74,98,135483
1.8377,0.1711,39.0300,74,98,135487
1.8182,0.1857,39.1200,74,98,135490
1.8133,0.2053,39.0600,74,98,135493
1.8622,0.2004,38.8700,74,98,135496
1.8426,0.1906,38.9600,74,98,135500
1.8328,0.1808,38.9000,74,98,135503
1.8231,0.1808,39.0600,74,98,135506
1.8182,0.1808,39.0300,74,98,135511
1.8671,0.1955,38.9600,74,98,135514
1.8280,0.1857,38.9600,74,98,135517
1.8426,0.1760,38.9000,74,98,135521
1.8182,0.1808,39.0000,74,98,135524
1.8133,0.1808,39.0600,74,98,135527
1.8475,0.2297,38.9000,74,98,135530
1.8231,0.1808,39.0600,74,98,135534
1.8475,0.1906,39.1200,74,98,135537
1.8182,0.1808,39.0000,74,98,135540
1.8182,0.1808,39.0600,74,98,135544
1.8328,0.1857,38.9000,74,98,135547
1.8231,0.1906,39.0600,74,98,135550
1.8426,0.1857,38.8400,74,98,135555
1.8280,0.2004,38.9600,74,98,135558
1.8280,0.1808,39.0600,74,98,135561
1.8475,0.1955,38.9300,74,98,135564
1.8231,0.1808,39.0600,74,98,135568
1.8622,0.2102,38.8100,74,98,135571
1.8328,0.1760,39.0600,74,98,135574
1.8475,0.1711,39.0300,74,98,135578
1.8719,0.1857,39.0300,74,98,135581
1.8671,0.1955,39.0600,74,98,135584
1.9208,0.1906,38.7400,74,98,135588
1.8964,0.1857,38.9300,74,98,135591
1.8915,0.1857,39.0300,74,98,135595
1.9013,0.1808,39.0900,74,98,135599
1.9013,0.1808,39.0300,74,98,135602
1.9550,0.2004,38.8400,74,98,135605
1.9110,0.1515,39.0300,74,98,135608
1.9306,0.1808,38.9000,74,98,135612
1.9404,0.1906,39.0000,74,98,135615
1.9550,0.1760,39.0600,74,98,135618
1.9941,0.1955,38.9300,74,98,135622
1.9697,0.1857,38.9300,74,98,135625
1.9648,0.1857,38.9000,74,98,135628
1.9306,0.1808,39.0600,74,98,135632
1.9110,0.1808,39.0300,74,98,135635
1.9062,0.1906,39.0000,74,98,135639
1.8719,0.1808,39.0300,74,98,135642
1.8671,0.1906,38.9000,74,98,135646
1.8280,0.1857,39.0600,74,98,135649
1.8182,0.1711,39.0300,74,98,135652
1.8524,0.1906,38.9300,74,98,135656
1.8231,0.1808,39.0900,74,98,135659
1.8280,0.1808,38.9000,74,98,135662
1.7937,0.1808,38.6800,74,98,135666
1.7791,0.1808,39.0300,74,98,135669
1.7840,0.1857,39.0000,74,98,135672
1.7644,0.1808,38.9300,74,98,135675
1.7937,0.1955,38.8100,74,98,135680
1.7644,0.1857,39.0300,74,98,135683
1.7546,0.1906,39.0600,74,98,135686
1.7840,0.1955,38.9600,74,98,135690
1.7546,0.1808,39.0300,74,98,135693
1.8084,0.1906,38.7700,74,98,135696
1.7840,0.1760,38.9600,74,98,135700
1.7693,0.1808,39.0600,74,98,135703
1.7644,0.1857,39.0000,74,98,135706
1.7546,0.1808,39.0300,74,98,135709
1.7937,0.2004,38.8100,74,98,135713
1.7546,0.1857,39.1600,74,98,135716
1.7693,0.1760,39.0000,74,98,135719
1.8133,0.1808,38.8700,74,98,135724
1.8817,0.2053,39.0600,74,98,135727
2.0332,0.1955,38.9000,74,98,135730
2.1261,0.1857,39.2500,74,98,135734
2.2874,0.1857,38.9300,74,98,135737
2.4585,0.1808,39.0300,74,98,135740
2.6295,0.1808,39.0600,74,98,135743
2.7077,0.1955,38.9600,74,98,135747
2.6002,0.1857,39.0300,74,98,135750
2.4291,0.1857,38.9300,74,98,135753
2.1994,0.2053,39.0300,74,98,135757
2.0186,0.1808,39.0600,74,98,135760
1.8915,0.1808,38.9600,74,98,135763
1.7986,0.1857,39.0300,74,98,135768
1.7840,0.1857,38.9300,74,98,135771
1.7302,0.1906,39.0300,74,98,135774
1.7204,0.1808,39.0600,74,98,135778
1.7253,0.1906,38.9600,74,98,135781
1.6911,0.1808,39.0300,74,98,135784
1.7058,0.1857,38.8400,74,98,135787
1.6813,0.1857,38.9000,74,98,135791
1.6667,0.1808,39.0300,74,98,135794
1.6764,0.1906,39.0000,74,98,135797
1.6764,0.1808,38.6500,74,98,135801
1.7155,0.1906,38.7700,74,98,135804
1.6813,0.1808,39.0000,74,98,135808
1.6764,0.1808,39.0600,74,98,135812
1.7009,0.1955,39.0300,74,98,135815
1.6960,0.1906,39.0300,74,98,135818
1.7546,0.1955,38.7700,74,98,135821
1.7204,0.2053,39.1900,74,98,135825
1.7107,0.1760,39.0000,74,98,135828
1.7204,0.1857,39.0600,74,98,135831
1.7204,0.1808,39.0300,74,98,135835
1.7791,0.2004,38.8700,74,98,135838
1.7498,0.1857,39.0000,74,98,135841
1.7546,0.1808,38.9600,74,98,135844
1.7449,0.1808,39.0300,74,98,135848
1.7889,0.1711,39.0300,74,98,135852
1.7937,0.1906,38.8700,74,98,135855
1.8035,0.2102,38.9600,74,98,135860
1.8035,0.1857,39.0600,74,98,135863
1.8377,0.1857,38.8400,74,98,135867
1.8133,0.1808,39.0300,74,98,135870
1.8182,0.1808,39.0300,74,98,135873
1.8377,0.1906,38.9600,74,98,135877
1.8231,0.1760,39.0600,74,98,135880
1.8719,0.1906,38.8400,74,98,135883
1.8377,0.1760,39.0600,74,98,135887
1.8377,0.1808,39.0300,74,98,135890
1.8524,0.1857,39.0000,74,98,135894
1.8524,0.1760,39.0300,74,98,135897
1.8915,0.1955,38.7400,74,98,135901
1.8719,0.1857,39.0300,74,98,135904
1.8817,0.1760,39.0300,74,98,135907
1.8817,0.1857,39.2500,74,98,135911
1.8817,0.1857,39.0600,74,98,135914
1.9453,0.2004,38.8400,74,98,135917
1.9110,0.1955,38.9600,74,98,135921
1.9257,0.1808,38.9600,74,98,135924
1.9306,0.1857,38.9300,74,98,135927
1.9355,0.1906,39.0600,74,98,135931
1.9746,0.1906,38.9300,74,98,135934
1.9648,0.1857,39.0300,74,98,135938
1.9892,0.1955,38.9000,74,98,135941
1.9844,0.1808,39.0300,74,98,135945
1.9990,0.1808,39.0900,74,98,135948
2.0235,0.1857,39.0300,74,98,135951
2.0137,0.1711,39.0000,74,98,135955
2.0577,0.1906,38.9300,74,98,135958
2.0283,0.2053,39.0300,74,98,135961
2.0381,0.1906,39.0300,74,98,135965
2.0870,0.1906,38.9300,74,98,135968
2.0626,0.1808,39.0300,74,98,135971
2.0870,0.1955,38.9000,74,98,135974
2.0870,0.1808,38.9600,74,98,135979
2.0674,0.1808,39.0900,74,98,135982
2.0821,0.1906,39.0000,74,98,135985
2.0674,0.1906,38.9600,74,98,135989
2.1017,0.1808,38.8700,74,98,135992
2.0577,0.1808,39.0000,74,98,135995
2.0430,0.1808,39.0600,74,98,135998
2.0626,0.1906,39.0300,74,98,136002
2.0283,0.1760,38.9600,74,98,136005
2.0528,0.2004,38.8100,74,98,136008
1.9892,0.1760,39.0000,74,98,136012
1.9599,0.1808,39.0900,74,98,136015
1.9501,0.1808,39.0000,74,98,136018
1.9062,0.1711,39.0300,74,98,136023
1.9257,0.1906,38.7400,74,98,136026
1.8671,0.1857,38.9300,74,98,136029
1.8231,0.1711,39.0300,74,98,136032
1.7937,0.1857,39.0600,74,98,136036
1.7693,0.1711,39.0600,74,98,136039
1.7937,0.2004,38.9600,74,98,136042
1.7546,0.1857,39.0000,74,98,136046
1.7791,0.1760,38.9600,74,98,136049
1.7302,0.1857,39.0300,74,98,136052
1.7155,0.2102,39.0600,74,98,136056
1.7449,0.1955,38.9000,74,98,136059
1.7204,0.1857,39.0300,74,98,136062
1.7302,0.1857,38.9000,74,98,136066
1.7107,0.1808,39.0300,74,98,136070
1.7058,0.1808,39.0600,74,98,136073
1.7155,0.1906,39.0300,74,98,136076
1.7058,0.1808,39.0300,74,98,136080
1.7400,0.1955,38.9300,74,98,136083
1.7204,0.1808,38.9300,74,98,136086
1.7253,0.1857,39.0300,74,98,136090
1.7595,0.1906,38.9000,74,98,136093
1.7351,0.1808,39.0300,74,98,136096
1.7595,0.1808,38.8700,74,98,136099
1.7498,0.1808,38.9600,74,98,136103
1.7546,0.1808,39.2200,74,98,136107
1.7644,0.1857,39.0000,74,98,136110
1.7546,0.1515,39.0300,74,98,136114
1.7937,0.1906,38.7700,74,98,136117
1.7595,0.1857,39.0000,74,98,136120
1.7742,0.1808,39.0300,74,98,136124
1.7986,0.1906,39.0000,74,98,136127
1.7791,0.1808,38.9300,74,98,136130
1.8231,0.1955,38.7700,74,98,136133
1.7840,0.1808,39.0300,74,98,136137
1.7840,0.1760,39.0600,74,98,136140
1.8231,0.1857,39.0000,74,98,136143
1.7986,0.1808,39.2200,74,98,136147
1.8475,0.2004,38.8100,74,98,136151
1.8133,0.1906,38.9300,74,98,136154
1.7986,0.1808,39.1200,74,98,136158
1.8084,0.1857,39.0600,74,98,136161
1.8084,0.1808,39.0600,74,98,136164
1.8573,0.1955,38.9300,74,98,136167
1.8182,0.1808,39.0300,74,98,136171
1.8280,0.1857,39.0000,74,98,136174
1.8133,0.1906,39.0900,74,98,136177
1.8133,0.2102,39.0600,74,98,136181
1.8475,0.1906,38.9300,74,98,136184
1.8328,0.1857,39.0000,74,98,136187
1.8426,0.1857,38.9000,74,98,136192
1.8133,0.1808,39.0300,74,98,136195
1.8084,0.1808,39.2500,74,98,136198
1.8280,0.1857,39.0000,74,98,136201
1.8084,0.1857,39.0600,74,98,136205
1.8426,0.1857,38.9300,74,98,136208
1.8133,0.1808,39.0600,74,98,136211
1.8084,0.1808,39.0600,74,98,136215
1.8328,0.1906,38.9300,74,98,136218
1.8084,0.1808,39.0300,74,98,136221
1.8426,0.1808,38.8400,74,98,136225
1.8231,0.1857,38.9300,74,98,136228
1.8084,0.1955,39.0600,74,98,136231
1.8231,0.1906,39.0000,74,98,136235
1.8084,0.1808,39.0300,74,98,136239
1.8524,0.1857,38.8100,74,98,136242
1.8280,0.1808,39.0000,74,98,136245
1.8231,0.1808,39.0600,74,98,136249
1.8328,0.1906,39.0300,74,98,136252
1.8133,0.1857,39.0300,74,98,136255
1.8573,0.1906,38.7700,74,98,136259
1.8231,0.1857,38.9000,74,98,136262
1.8182,0.1711,39.0300,74,98,136265
1.8231,0.1857,38.9000,74,98,136268
1.8182,0.1808,39.0600,74,98,136272
1.8671,0.2004,38.8700,74,98,136275
1.8328,0.1906,39.0000,74,98,136279
1.8671,0.1808,38.9300,74,98,136283
1.8231,0.1808,38.9600,74,98,136286
1.8231,0.1760,39.0600,74,98,136289
1.8622,0.1906,38.8700,74,98,136293
1.8280,0.1857,39.0600,74,98,136296
1.8573,0.1857,38.9000,74,98,136299
1.8328,0.1808,39.0600,74,98,136302
1.8328,0.1808,39.0600,74,98,136306
1.8573,0.2297,39.0000,74,98,136309
1.8475,0.1711,39.0300,74,98,136312
1.8524,0.1857,38.8700,74,98,136316
1.8231,0.1857,39.0300,74,98,136320
1.8280,0.1808,39.0600,74,98,136323
1.8475,0.2102,38.9000,74,98,136327
1.8475,0.1711,39.0300,74,98,136330
1.8573,0.1857,38.9000,74,98,136333
1.8280,0.1711,39.0600,74,98,136337
1.8280,0.1808,39.0600,74,98,136340
1.8524,0.1906,39.0000,74,98,136343
1.8719,0.1711,39.0300,74,98,136346
1.8817,0.1906,38.8100,74,98,136350
1.8524,0.1857,38.9300,74,98,136353
1.8426,0.1711,39.0600,74,98,136356
1.8524,0.1906,39.0300,74,98,136360
1.8475,0.1760,39.0600,74,98,136364
1.9013,0.1906,38.0500,74,98,136367
1.8573,0.1808,39.0000,74,98,136371
1.8524,0.1760,39.0000,74,98,136374
1.8719,0.1857,39.0300,74,98,136377
1.8817,0.1808,39.0900,74,98,136380
1.9550,0.2053,38.8700,74,98,136384
1.9355,0.1906,38.9300,74,98,136387
1.9306,0.1808,39.0300,74,98,136390
1.9306,0.2199,39.0000,74,98,136394
1.9355,0.1808,39.0300,74,98,136397
1.9697,0.1906,38.9300,74,98,136400
1.9501,0.1906,39.0000,74,98,136404
1.9697,0.1711,38.9000,74,98,136408
1.9550,0.1808,39.1600,74,98,136411
1.9599,0.1906,39.0600,74,98,136414
2.0039,0.1906,38.8700,74,98,136418
1.9795,0.1857,39.0900,74,98,136421
2.0088,0.1906,38.9000,74,98,136424
1.9795,0.1808,39.0300,74,98,136428
1.9746,0.1760,39.0600,74,98,136431
1.9697,0.1857,38.9600,74,98,136434
1.9208,0.1955,39.0300,74,98,136438
1.9208,0.1808,38.9000,74,98,136441
1.8768,0.1808,39.0300,74,98,136444
1.8671,0.1808,39.0600,74,98,136448
1.8719,0.1906,38.9000,74,98,136452
1.8475,0.1857,39.0300,74,98,136455
1.8719,0.1711,38.8400,74,98,136458
1.8328,0.1857,39.0600,74,98,136462
1.8280,0.1808,39.0600,74,98,136465
1.8328,0.1906,38.9600,74,98,136468
1.7693,0.1906,39.0600,74,98,136473
1.7742,0.1857,39.0900,74,98,136476
1.8133,0.1955,38.8700,74,98,136480
1.7791,0.1906,39.0600,74,98,136483
1.7840,0.1857,38.9600,74,98,136486
1.7791,0.1857,39.0900,74,98,136489
1.7791,0.2053,39.0600,74,98,136494
1.8231,0.1955,38.9000,74,98,136497
1.7742,0.1515,39.0000,74,98,136500
1.7742,0.1857,38.8400,74,98,136504
1.7595,0.1711,39.0600,74,98,136507
1.8035,0.1808,39.0900,74,98,136510
1.8866,0.1857,39.0000,74,98,136514
1.9648,0.1808,39.0300,74,98,136517
2.1114,0.1906,38.9600,74,98,136520
2.2141,0.1808,39.0300,74,98,136523
2.3803,0.1711,39.0600,74,98,136527
2.6051,0.1906,38.5800,74,98,136530
2.6882,0.1760,39.0600,74,98,136534
2.7028,0.1711,38.8700,74,98,136538
2.5024,0.1808,38.9600,74,98,136541
2.2825,0.1808,39.0300,74,98,136544
2.1065,0.1955,39.0000,74,98,136548
1.9404,0.1808,39.0600,74,98,136551
1.8964,0.1906,39.0000,74,98,136554
1.8231,0.1857,39.0000,74,98,136557
1.7889,0.1808,39.0600,74,98,136561
1.7840,0.1906,39.0000,74,98,136564
1.7449,0.1808,39.1600,74,98,136567
1.7742,0.1955,38.8100,74,98,136571
1.7253,0.1808,38.8400,74,98,136574
1.7107,0.1808,39.0300,74,98,136578
1.7107,0.1711,39.0300,74,98,136582
1.6862,0.1808,39.0300,74,98,136585
1.7302,0.1955,38.8700,74,98,136588
1.6960,0.1906,39.0600,74,98,136591
1.6960,0.1808,39.0300,74,98,136595
1.7204,0.1857,39.0300,74,98,136598
1.7009,0.1808,39.1600,74,98,136601
1.7400,0.2199,38.8700,74,98,136605
1.7155,0.1857,39.0300,74,98,136608
1.7400,0.1857,38.9000,74,98,136611
1.7302,0.1808,39.0600,74,98,136615
1.7400,0.1808,39.0600,74,98,136619
1.7644,0.1906,38.3300,74,98,136622
1.7498,0.1857,39.0300,74,98,136625
1.7693,0.1711,38.9000,74,98,136629
1.7546,0.1808,39.1200,74,98,136632
1.7644,0.1808,39.0600,74,98,136635
1.7791,0.1857,38.9600,74,98,136639
1.7693,0.1808,38.9600,74,98,136642
1.7986,0.1857,38.9000,74,98,136645
1.7791,0.1808,39.1200,74,98,136649
1.7889,0.1808,39.0300,74,98,136652
1.8231,0.1808,38.9300,74,98,136655
1.7937,0.1808,39.0000,74,98,136659
1.8280,0.2053,38.8100,74,98,136663
1.8182,0.1906,38.9600,74,98,136666
1.8084,0.1808,39.0000,74,98,136669
1.8280,0.1857,39.0300,74,98,136673
1.8231,0.1808,39.0600,74,98,136676
1.8671,0.1906,38.7700,74,98,136679
1.8280,0.1955,38.9600,74,98,136683
1.8524,0.1808,39.0600,74,98,136686
1.8475,0.1906,39.0000,74,98,136689
1.8475,0.1808,39.2500,74,98,136693
1.9062,0.2053,38.8100,74,98,136696
1.8719,0.1906,38.9300,74,98,136699
1.8573,0.1857,39.0000,74,98,136702
1.8622,0.1808,39.0300,74,98,136707
1.8671,0.1808,39.0900,74,98,136710
1.9208,0.2102,38.9300,74,98,136713
1.8964,0.1857,39.0300,74,98,136717
1.9110,0.1808,38.9300,74,98,136720
1.9208,0.1857,39.0600,74,98,136723
1.9062,0.1808,39.0600,74,98,136727
1.9550,0.1906,38.8700,74,98,136730
1.9355,0.1760,39.0300,74,98,136733
1.9599,0.1857,38.9300,74,98,136736
1.9501,0.1808,39.0900,74,98,136740
1.9550,0.1808,39.0300,74,98,136743
1.9844,0.1906,38.9600,74,98,136747
1.9844,0.1515,39.0300,74,98,136751
2.0235,0.1906,38.9000,74,98,136754
1.9892,0.1711,39.0300,74,98,136757
2.0039,0.1808,39.0600,74,98,136761
2.0235,0.1857,38.9600,74,98,136764
2.0088,0.1857,39.0600,74,98,136767
2.0626,0.1808,38.8700,74,98,136770
2.0186,0.1808,39.0600,74,98,136774
2.0283,0.1808,39.0600,74,98,136777
2.0479,0.1906,38.9600,74,98,136780
2.0381,0.1711,39.0600,74,98,136784
2.0626,0.1955,38.8100,74,98,136787
2.0430,0.1857,39.0300,74,98,136791
2.0235,0.1808,38.9600,74,98,136794
2.0332,0.1857,39.0300,74,98,136798
1.9990,0.1808,39.0600,74,98,136801
2.0332,0.1906,38.8700,74,98,136804
1.9697,0.1857,38.9600,74,98,136808
1.9501,0.1808,39.0600,74,98,136811
1.9404,0.1857,39.0000,74,98,136814
1.9013,0.2053,39.0600,74,98,136818
1.9208,0.1906,38.8100,74,98,136821
1.8622,0.1906,38.9000,74,98,136824
1.8231,0.1857,38.9600,74,98,136827
1.8035,0.1857,39.0300,74,98,136832
1.7791,0.2297,39.0300,74,98,136835
1.7889,0.1955,38.9300,74,98,136838
1.7351,0.1857,39.0000,74,98,136842
1.7204,0.1857,39.0000,74,98,136845
1.7009,0.1857,39.0600,74,98,136848
1.6813,0.1808,39.0600,74,98,136852
1.7009,0.1906,38.9300,74,98,136855
1.6618,0.1857,39.0600,74,98,136858
1.6618,0.1711,38.9300,74,98,136861
1.6422,0.1808,39.1600,74,98,136865
1.6422,0.1857,39.0600,74,98,136868
1.6667,0.1906,38.9600,74,98,136871
1.6520,0.1906,39.0300,74,98,136876
1.6716,0.1808,38.9000,74,98,136879
1.6471,0.1515,39.0300,74,98,136882
1.6520,0.1857,39.0600,74,98,136886
1.6667,0.1857,38.9300,74,98,136889
1.6667,0.1808,38.9000,74,98,136892
1.7009,0.1857,38.8700,74,98,136895
1.6813,0.1808,39.0900,74,98,136899
1.6813,0.1808,39.0900,74,98,136902
1.7009,0.2004,38.9600,74,98,136905
1.6911,0.1857,39.0300,74,98,136909
1.7351,0.1906,38.1800,74,98,136912
1.7155,0.1857,38.9600,74,98,136915
1.6960,0.1515,39.1200,74,98,136920
1.7058,0.1857,39.0300,74,98,136923
1.6960,0.1808,39.1200,74,98,136926
1.7498,0.2053,38.7700,74,98,136930
1.7155,0.1857,39.0000,74,98,136933
1.7155,0.1760,39.0000,74,98,136936
1.7204,0.2151,39.0600,74,98,136939
1.7107,0.1760,39.0600,74,98,136943
1.7546,0.2004,38.9300,74,98,136946
1.7351,0.1955,39.0000,74,98,136949
1.7302,0.1808,38.9600,74,98,136953
1.7155,0.1857,38.8700,74,98,136956
1.7253,0.1808,39.0300,74,98,136960
1.7449,0.1906,39.0000,74,98,136964
1.7302,0.1808,39.0300,74,98,136967
1.7595,0.1711,38.9000,74,98,136970
1.7302,0.1808,39.2500,74,98,136973
1.7351,0.1857,39.0600,74,98,136977
1.7644,0.1906,38.9300,74,98,136980
1.7400,0.1760,39.0300,74,98,136983
1.7644,0.1711,38.9000,74,98,136987
1.7449,0.1808,39.0300,74,98,136990
1.7449,0.2102,39.0600,74,98,136993
1.7546,0.1857,38.9600,74,98,136997
1.7400,0.1808,39.0900,74,98,137000
1.7693,0.2004,38.8400,74,98,137004
1.7498,0.1808,39.0000,74,98,137008
1.7546,0.1808,39.0600,74,98,137011
1.7791,0.2053,39.0000,74,98,137014
1.7546,0.1857,39.0600,74,98,137017
1.7889,0.1906,38.7700,74,98,137021
1.7400,0.1808,38.9600,74,98,137024
1.7449,0.1906,39.0600,74,98,137027
1.7595,0.1906,39.0300,74,98,137031
1.7546,0.1808,39.0600,74,98,137034
1.8280,0.2053,38.7400,74,98,137037
1.7742,0.1857,38.9300,74,98,137040
1.7546,0.1760,39.0600,74,98,137044
1.7644,0.1808,39.0300,74,98,137048
1.7449,0.1808,39.0600,74,98,137051
1.7889,0.2004,38.9000,74,98,137055
1.7498,0.1955,39.0300,74,98,137058
1.7595,0.1857,38.9300,74,98,137061
1.7449,0.1857,39.0300,74,98,137065
1.7498,0.1955,39.0300,74,98,137068
1.7937,0.1955,38.9000,74,98,137071
1.7840,0.1857,39.0000,74,98,137074
1.7889,0.1857,38.9300,74,98,137078
1.7595,0.1955,39.0600,74,98,137081
1.7644,0.1808,39.0600,74,98,137086
1.7595,0.1808,39.0600,74,98,137090
1.7791,0.1906,39.0000,74,98,137093
1.7840,0.1711,39.0600,74,98,137097
1.7986,0.1906,38.8400,74,98,137100
1.7791,0.1906,38.9600,74,98,137103
1.7644,0.1857,39.0600,74,98,137107
1.7693,0.1857,39.0000,74,98,137110
1.7693,0.1857,39.0300,74,98,137113
1.8084,0.1906,38.8100,74,98,137117
1.7742,0.1857,39.0300,74,98,137120
1.8035,0.1760,39.0300,74,98,137123
1.7791,0.1857,39.0300,74,98,137126
1.7644,0.1808,39.0900,74,98,137131
1.8133,0.2297,38.8700,74,98,137134
1.7840,0.1955,38.9300,74,98,137137
1.7742,0.1808,39.0000,74,98,137141
1.7742,0.1857,39.0600,74,98,137144
1.7693,0.1808,39.1200,74,98,137147
1.8035,0.2004,38.9300,74,98,137151
1.7791,0.1857,39.0300,74,98,137154
1.7889,0.1857,39.0000,74,98,137157
1.7840,0.1857,39.0900,74,98,137160
1.7889,0.1808,39.0600,74,98,137164
1.8328,0.1906,38.8700,74,98,137167
1.8133,0.1857,39.0300,74,98,137170
1.8475,0.1906,38.9000,74,98,137175
1.8426,0.1808,39.1600,74,98,137178
1.8524,0.1857,39.0600,74,98,137181
1.8817,0.1857,39.0000,74,98,137185
1.8671,0.1808,39.0300,74,98,137188
1.8915,0.1906,38.9000,74,98,137191
1.8671,0.1808,39.0300,74,98,137194
1.8768,0.1808,39.0600,74,98,137198
1.9062,0.1857,38.9000,74,98,137201
1.9306,0.1857,39.0600,74,98,137204
1.9501,0.1857,38.8700,74,98,137208
1.8964,0.1808,39.0600,74,98,137211
1.9110,0.1760,39.0300,74,98,137214
1.9208,0.1906,39.0300,74,98,137219
1.9013,0.1906,39.0300,74,98,137222
1.9257,0.1906,38.8100,74,98,137225
1.8719,0.1906,38.9600,74,98,137228
1.8280,0.1808,39.0600,74,98,137232
1.8182,0.1857,39.0300,74,98,137235
1.8035,0.1808,39.1200,74,98,137238
1.8475,0.2053,38.8100,74,98,137242
1.7937,0.1857,38.9600,74,98,137245
1.7742,0.1760,39.0000,74,98,137248
1.7791,0.1711,39.0000,74,98,137252
1.7498,0.1808,39.0600,74,98,137255
1.7889,0.2004,38.9300,74,98,137259
1.7546,0.1857,39.0000,74,98,137262
1.7400,0.1857,38.9300,74,98,137266
1.7253,0.1857,39.0300,74,98,137269
1.7204,0.1711,39.0600,74,98,137272
1.7449,0.1906,38.9600,74,98,137276
1.7302,0.2004,39.0300,74,98,137279
1.7449,0.1808,38.9000,74,98,137282
1.7253,0.1808,39.1600,74,98,137286
1.7253,0.1857,39.0300,74,98,137289
1.7498,0.1906,38.9300,74,98,137292
1.7302,0.1808,39.0300,74,98,137296
1.7498,0.1857,38.9300,74,98,137299
1.7107,0.1760,39.0000,74,98,137303
1.7107,0.1760,39.0600,74,98,137306
1.7400,0.1906,39.0300,74,98,137310
1.7693,0.1857,39.0600,74,98,137313
1.8719,0.1808,38.8100,74,98,137316
1.9550,0.1808,39.0300,74,98,137320
2.0821,0.1808,39.0600,74,98,137323
2.2483,0.2199,39.0000,74,98,137326
2.3900,0.1857,39.0600,74,98,137330
2.6246,0.1955,38.7700,74,98,137333
2.6344,0.1760,39.0000,74,98,137336
2.5611,0.1808,39.0900,74,98,137339
2.4194,0.1955,38.9600,74,98,137344
2.1945,0.1808,39.0900,74,98,137347
2.0528,0.1955,38.7700,74,98,137350
1.8671,0.2053,38.9600,74,98,137354
1.7742,0.1711,39.0300,74,98,137357
1.7302,0.1955,39.0600,74,98,137360
1.7058,0.1711,39.0600,74,98,137364
1.7351,0.2053,38.8700,74,98,137367
1.6813,0.2199,39.0000,74,98,137370
1.6716,0.1808,38.9600,74,98,137373
1.6618,0.1857,39.0600,74,98,137377
1.6569,0.1808,39.0000,74,98,137380
1.6862,0.2053,38.9000,74,98,137383
1.6618,0.1857,39.0300,74,98,137388
1.6667,0.1857,38.9600,74,98,137391
1.6520,0.1857,39.0600,74,98,137394
1.6618,0.1808,39.1200,74,98,137398
1.7009,0.1955,39.0300,74,98,137401
1.6667,0.1857,39.0600,74,98,137404
1.6960,0.1906,39.0000,74,98,137407
1.6716,0.1857,39.0600,74,98,137411
1.6862,0.1808,39.0600,74,98,137414
1.7155,0.1906,38.9300,74,98,137417
1.7204,0.1857,39.0000,74,98,137421
1.7253,0.1857,38.9000,74,98,137424
1.7058,0.1808,39.0900,74,98,137427
1.7058,0.1808,38.9600,74,98,137432
1.7302,0.1906,38.9600,74,98,137435
1.7253,0.1808,39.0600,74,98,137438
1.7693,0.1906,38.7700,74,98,137441
1.7449,0.1711,39.0000,74,98,137445
1.7351,0.1808,39.0600,74,98,137448
1.7693,0.1906,39.0000,74,98,137451
1.7546,0.1808,39.0600,74,98,137455
1.8084,0.1906,38.8100,74,98,137458
1.7791,0.1808,39.0300,74,98,137461
1.7840,0.1760,39.0900,74,98,137465
1.7937,0.1906,39.0300,74,98,137468
1.7889,0.1808,39.1600,74,98,137472
1.8622,0.2053,38.8100,74,98,137475
1.8133,0.1857,39.0000,74,98,137479
1.8133,0.1808,38.9600,74,98,137482
1.8182,0.1857,39.0300,74,98,137485
1.8084,0.1808,39.0600,74,98,137489
1.8524,0.1955,38.8700,74,98,137492
1.8231,0.1857,39.0300,74,98,137495
1.8426,0.1857,38.9300,74,98,137499
1.8426,0.1857,39.0300,74,98,137502
1.8426,0.1808,39.0600,74,98,137505
1.8719,0.2053,38.9300,74,98,137508
1.8573,0.1857,39.0300,74,98,137512
1.8768,0.1906,39.0900,74,98,137516
1.9013,0.1808,39.0600,74,98,137519
1.8768,0.1808,39.0600,74,98,137523
1.9013,0.1808,38.5500,74,98,137526
1.8915,0.2004,39.0300,74,98,137529
1.9599,0.1808,38.9000,74,98,137533
1.9159,0.1808,39.0600,74,98,137536
1.9355,0.1808,39.1200,74,98,137539
2.0039,0.1955,38.9600,74,98,137542
1.9599,0.1808,39.0600,74,98,137546
1.9941,0.1857,38.9600,74,98,137549
1.9844,0.1808,38.9300,74,98,137552
1.9844,0.1515,39.0600,74,98,137556
2.0430,0.1906,39.0000,74,98,137560
