ecg,gsr,temp,hr,spo2,timest
1.7302,0.3959,36.3400,84,93,208115
1.6960,0.3959,36.3700,84,93,208119
1.6716,0.4057,36.4300,84,93,208122
1.6618,0.4008,36.3400,84,93,208125
1.7253,0.3861,36.2200,84,93,208129
1.7742,0.4008,36.3400,84,93,208133
1.7546,0.3861,36.3700,84,93,208136
1.7351,0.4497,36.1900,84,93,208139
1.6764,0.4008,36.2800,84,93,208143
1.6960,0.4154,36.1000,84,93,208146
1.7204,0.4008,36.2200,84,93,208149
1.7498,0.4008,36.5500,84,93,208153
1.7693,0.3861,36.2500,84,93,208156
1.6960,0.4008,36.3700,84,93,208159
1.6911,0.4154,36.0400,84,93,208163
1.6667,0.4008,36.3100,84,93,208166
1.7107,0.4008,36.2800,84,93,208169
1.7546,0.3959,36.3400,84,93,208174
1.7253,0.4301,36.4000,84,93,208177
1.7155,0.4252,36.0700,84,93,208180
1.6373,0.4154,36.2500,84,93,208183
1.6422,0.3861,36.2800,84,93,208187
1.6960,0.4008,36.3400,84,93,208190
1.7253,0.4057,36.3700,84,93,208193
1.7351,0.4203,36.2200,84,93,208197
1.6569,0.4057,36.3100,84,93,208200
1.6129,0.4399,36.1900,84,93,208203
1.6031,0.4008,36.3100,84,93,208207
1.6422,0.3910,36.3100,84,93,208210
1.7009,0.4106,36.5200,84,93,208214
1.6716,0.4057,36.3400,84,93,208218
1.6325,0.4057,36.3100,84,93,208221
1.5689,0.4008,36.2800,84,93,208224
1.5934,0.4008,36.4900,84,93,208228
1.6569,0.4057,36.1600,84,93,208231
1.6667,0.4008,36.3400,84,93,208234
1.6569,0.4057,36.1000,84,93,208237
1.5787,0.4008,36.2800,84,93,208241
1.5591,0.4057,36.3400,84,93,208244
1.6129,0.4057,36.2800,84,93,208247
1.6471,0.4008,36.3700,84,93,208251
1.7107,0.4106,36.0400,84,93,208254
1.6422,0.4008,36.3700,84,93,208258
1.5982,0.3910,36.3700,84,93,208262
1.5836,0.4057,36.4600,84,93,208265
1.6129,0.3959,36.3700,84,93,208268
1.7204,0.4252,36.0700,84,93,208272
1.7204,0.4057,36.2800,84,93,208275
1.6911,0.3959,36.2800,84,93,208278
1.6520,0.3959,36.3100,84,93,208282
1.6373,0.3861,36.3400,84,93,208285
1.7058,0.4106,36.1300,84,93,208288
1.7204,0.4106,36.1900,84,93,208291
1.7155,0.4057,36.2200,84,93,208295
1.6471,0.4008,36.3400,84,93,208299
1.5934,0.3959,36.3400,84,93,208302
1.5885,0.4106,36.1900,84,93,208306
1.6080,0.3959,36.3400,84,93,208309
1.6569,0.4106,36.2500,84,93,208312
1.6325,0.4057,36.3400,84,93,208316
1.5787,0.4008,36.1900,84,93,208319
1.5298,0.4057,36.2500,84,93,208322
1.5200,0.3959,36.3700,84,93,208326
1.5934,0.4057,36.1000,84,93,208329
1.6325,0.4008,36.3700,84,93,208332
1.6373,0.4008,36.3400,84,93,208336
1.6031,0.4057,36.2800,84,93,208339
1.5591,0.4008,36.3100,84,93,208343
1.6178,0.4203,36.1000,84,93,208346
1.6520,0.4057,36.2800,84,93,208350
1.6716,0.4008,36.4000,84,93,208353
1.6716,0.4057,36.2800,84,93,208356
1.6080,0.4008,36.3700,84,93,208360
1.6129,0.4154,36.0400,84,93,208363
1.5934,0.4008,36.1300,84,93,208366
1.6325,0.3959,36.2800,84,93,208370
1.6764,0.4057,36.3400,84,93,208373
1.6667,0.4008,36.3700,84,93,208376
1.6520,0.4106,36.1600,84,93,208380
1.5885,0.4057,36.3100,84,93,208384
1.6080,0.4008,36.1900,84,93,208387
1.6618,0.4106,36.3400,84,93,208390
1.7058,0.3959,36.4300,84,93,208394
1.7009,0.4154,36.3100,84,93,208397
1.6325,0.4008,36.3400,84,93,208400
1.6227,0.4057,36.1900,84,93,208404
1.6569,0.4008,36.5200,84,93,208407
1.7253,0.4154,36.3700,84,93,208410
1.7791,0.4057,36.2200,84,93,208414
1.7204,0.4008,36.3400,84,93,208417
1.6862,0.4057,36.1300,84,93,208420
1.6911,0.4008,36.2200,84,93,208424
1.7986,0.4008,36.5200,84,93,208428
1.9697,0.4106,36.2500,84,93,208431
2.0039,0.4008,36.3400,84,93,208435
1.9941,0.4154,36.0400,84,93,208438
1.8426,0.3959,36.2800,84,93,208441
1.6911,0.4008,36.3400,84,93,208445
1.5787,0.4057,36.3100,84,93,208448
1.4761,0.4008,36.3100,84,93,208451
1.4565,0.4203,36.0400,84,93,208454
1.4223,0.4057,36.1000,84,93,208458
1.4761,0.3959,36.3100,84,93,208461
1.5640,0.4008,36.3400,84,93,208464
1.7155,0.4008,36.3400,84,93,208468
1.8426,0.4154,36.2200,84,93,208472
1.8524,0.4057,36.3400,84,93,208475
1.8084,0.4008,36.2200,84,93,208479
1.7351,0.3959,36.3400,84,93,208482
1.7058,0.4008,36.3700,84,93,208485
1.7693,0.4106,36.1300,84,93,208489
1.7889,0.4008,36.3700,84,93,208492
1.8084,0.4106,36.1900,84,93,208495
1.7400,0.4008,36.3400,84,93,208499
1.6960,0.4008,36.5200,84,93,208502
1.7498,0.4106,36.2200,84,93,208505
1.7498,0.4008,36.3400,84,93,208508
1.8426,0.3959,36.1300,84,93,208513
1.8035,0.4008,36.2500,84,93,208516
1.7546,0.3959,36.3700,84,93,208519
1.7107,0.4057,36.2200,84,93,208523
1.6911,0.4008,36.3700,84,93,208526
1.7840,0.4106,36.0700,84,93,208529
1.7889,0.3959,36.3100,84,93,208533
1.7889,0.4008,36.4300,84,93,208536
1.7400,0.4106,36.3400,84,93,208539
1.6911,0.4008,36.3100,84,93,208543
1.7351,0.4203,36.0400,84,93,208546
1.7498,0.4057,36.3100,84,93,208549
1.7791,0.4350,36.3100,84,93,208552
1.7791,0.4008,36.3700,84,93,208557
1.7302,0.4106,36.3400,84,93,208560
1.7449,0.4057,36.1300,84,93,208563
1.7400,0.4057,36.2800,84,93,208567
1.7693,0.4008,36.2500,84,93,208570
1.7937,0.4448,36.3400,84,93,208573
1.7840,0.3861,36.3700,84,93,208577
1.7595,0.4106,36.2200,84,93,208580
1.7204,0.4008,36.3400,84,93,208583
1.7644,0.4057,36.1900,84,93,208587
1.7986,0.4008,36.3400,84,93,208590
1.8377,0.3959,36.3400,84,93,208593
1.8280,0.3861,36.2500,84,93,208598
1.7693,0.4106,36.3400,84,93,208601
1.7693,0.4008,36.1600,84,93,208604
1.7742,0.3959,36.3400,84,93,208608
1.8426,0.4008,36.2500,84,93,208611
1.8915,0.4154,36.3100,84,93,208614
1.8719,0.4057,36.2800,84,93,208618
1.8768,0.4057,36.0400,84,93,208621
1.8426,0.4057,36.2800,84,93,208624
1.8671,0.4008,36.3400,84,93,208627
1.9453,0.4106,36.2800,84,93,208631
1.9648,0.4008,36.3700,84,93,208634
1.9990,0.4154,36.0400,84,93,208637
1.9257,0.4057,36.1900,84,93,208642
1.9013,0.3959,36.3100,84,93,208645
1.9501,0.4057,36.3400,84,93,208648
2.0039,0.3861,36.3700,84,93,208652
2.0674,0.4154,36.1600,84,93,208655
1.9892,0.4106,36.3100,84,93,208658
1.9550,0.4008,36.2200,84,93,208662
1.9306,0.4008,36.3400,84,93,208665
1.9062,0.4008,36.3400,84,93,208669
1.8866,0.4008,36.3100,84,93,208672
1.9453,0.4057,36.2500,84,93,208675
1.9355,0.4203,36.3400,84,93,208679
1.9306,0.4057,36.1000,84,93,208683
1.8377,0.4008,36.2200,84,93,208686
1.7644,0.3959,36.3400,84,93,208689
1.7155,0.4350,36.2200,84,93,208693
1.7009,0.3861,36.3700,84,93,208696
1.7302,0.4252,36.0400,84,93,208699
1.6471,0.4008,36.3100,84,93,208703
1.5640,0.3959,36.4000,84,93,208706
1.5152,0.4057,36.3100,84,93,208709
1.4858,0.4008,36.3100,84,93,208713
1.5591,0.4154,36.1000,84,93,208716
1.5445,0.4448,36.2800,84,93,208719
1.5152,0.4008,36.2800,84,93,208723
1.4565,0.4008,36.3400,84,93,208727
1.4272,0.4008,36.3400,84,93,208730
1.4712,0.4154,36.2200,84,93,208734
1.5103,0.3861,36.3400,84,93,208737
1.5640,0.4057,36.1900,84,93,208740
1.5445,0.4008,36.3400,84,93,208743
1.5005,0.4008,36.3400,84,93,208747
1.5005,0.4154,36.2200,84,93,208750
1.5054,0.4008,36.4900,84,93,208753
1.5885,0.4008,36.1900,84,93,208757
1.6080,0.3959,36.3100,84,93,208760
1.5934,0.4008,36.4300,84,93,208763
1.5689,0.3861,36.1900,84,93,208768
1.5445,0.4008,36.5500,84,93,208771
1.6031,0.4106,36.1300,84,93,208774
1.6520,0.4008,36.3700,84,93,208778
1.6960,0.4106,36.3700,84,93,208781
1.6960,0.4057,36.2800,84,93,208784
1.6520,0.3959,36.4300,84,93,208787
1.6667,0.4106,36.0400,84,93,208791
1.6667,0.3959,36.3700,84,93,208794
1.7253,0.3959,36.3700,84,93,208797
1.7595,0.4057,36.3100,84,93,208801
1.7204,0.4008,36.3700,84,93,208804
1.7253,0.4252,36.0400,84,93,208807
1.6911,0.4106,36.2200,84,93,208812
1.7155,0.3959,36.2500,84,93,208815
1.7791,0.4008,36.3400,84,93,208818
1.7986,0.4008,36.3400,84,93,208822
1.8328,0.4106,36.1300,84,93,208825
1.7351,0.4057,36.3100,84,93,208828
1.7253,0.4057,36.2200,84,93,208832
1.7498,0.4057,36.3400,84,93,208835
1.7986,0.4008,36.3700,84,93,208838
1.8328,0.4057,36.2200,84,93,208841
1.7889,0.4008,36.3400,84,93,208845
1.7595,0.4106,36.2500,84,93,208848
1.7400,0.4008,36.3400,84,93,208851
1.7742,0.4008,36.3700,84,93,208856
1.8182,0.4057,36.2500,84,93,208859
1.8084,0.4008,36.3400,84,93,208862
1.7889,0.4057,36.1600,84,93,208866
1.7155,0.4057,36.3400,84,93,208869
1.7155,0.4008,36.3700,84,93,208872
1.7791,0.4154,36.2200,84,93,208876
1.8035,0.4008,36.3700,84,93,208879
1.8328,0.4106,36.1000,84,93,208882
1.7693,0.4106,36.2200,84,93,208885
1.7009,0.4008,36.3100,84,93,208889
1.7107,0.4057,36.2800,84,93,208892
1.7400,0.4008,36.2800,84,93,208896
1.8182,0.4106,36.0100,84,93,208900
1.7742,0.4057,36.2200,84,93,208903
1.7058,0.4008,36.2800,84,93,208906
1.6716,0.4008,36.4300,84,93,208910
1.6764,0.4008,36.3400,84,93,208913
1.7742,0.4154,36.2800,84,93,208916
1.7840,0.4057,36.3100,84,93,208920
1.7644,0.4008,36.2500,84,93,208923
1.6960,0.4106,36.3400,84,93,208926
1.6569,0.4008,36.3700,84,93,208930
1.6862,0.4301,36.2800,84,93,208933
1.7253,0.4008,36.3100,84,93,208936
1.7791,0.4057,36.1600,84,93,208940
1.7400,0.4008,36.3400,84,93,208944
1.6911,0.4008,36.5500,84,93,208947
1.6813,0.4106,36.1900,84,93,208950
1.6813,0.4008,36.5500,84,93,208954
1.7498,0.4057,36.1600,84,93,208957
1.7546,0.4008,36.3100,84,93,208960
1.7253,0.4106,36.3400,84,93,208964
1.6911,0.4057,36.3700,84,93,208967
1.6716,0.4008,36.3400,84,93,208970
1.7351,0.4106,36.1000,84,93,208974
1.7840,0.4057,36.2800,84,93,208977
1.8084,0.4008,36.4300,84,93,208980
1.7937,0.4057,36.2800,84,93,208985
1.7204,0.4008,36.3400,84,93,208988
1.7302,0.4154,35.9800,84,93,208991
1.7058,0.4008,36.2500,84,93,208994
1.7449,0.3959,36.4900,84,93,208998
1.7644,0.4057,36.3400,84,93,209001
1.7107,0.4008,36.3400,84,93,209004
1.7009,0.4154,36.1600,84,93,209008
1.6471,0.4057,36.2800,84,93,209011
1.6716,0.4008,36.2500,84,93,209014
1.7155,0.4008,36.4300,84,93,209018
1.7253,0.4008,36.3400,84,93,209021
1.7204,0.4106,36.2200,84,93,209025
1.6618,0.4057,36.3100,84,93,209029
1.6667,0.4057,36.1600,84,93,209032
1.6911,0.4008,36.3700,84,93,209035
1.7351,0.4008,36.3400,84,93,209039
1.7546,0.4008,36.2200,84,93,209042
1.6960,0.4008,36.3400,84,93,209045
1.6716,0.4057,36.1600,84,93,209048
1.6422,0.3959,36.3400,84,93,209052
1.6862,0.4057,36.3400,84,93,209055
1.7449,0.4057,36.1900,84,93,209058
1.7302,0.4301,36.4000,84,93,209062
1.7204,0.4106,36.0400,84,93,209065
1.6373,0.4008,36.3400,84,93,209069
1.6422,0.3959,36.3400,84,93,209073
1.7107,0.4057,36.3100,84,93,209076
1.7546,0.3861,36.3400,84,93,209079
1.8035,0.4154,35.9800,84,93,209083
1.7253,0.4057,36.2800,84,93,209086
1.6618,0.3959,36.3100,84,93,209089
1.6764,0.4008,36.3100,84,93,209093
1.7204,0.4008,36.3700,84,93,209096
1.8231,0.4252,36.1300,84,93,209099
1.7742,0.4106,36.2500,84,93,209102
1.7253,0.4008,36.2500,84,93,209106
1.7058,0.4154,36.3400,84,93,209110
1.7204,0.4008,36.3400,84,93,209113
1.7840,0.4106,36.2500,84,93,209117
1.7986,0.4106,36.3400,84,93,209120
1.8328,0.4057,36.1300,84,93,209123
1.8426,0.4008,36.3700,84,93,209127
1.9208,0.4008,36.3400,84,93,209130
2.0137,0.3861,36.2500,84,93,209133
2.0528,0.4008,36.3400,84,93,209137
2.0772,0.4057,36.1900,84,93,209140
1.8964,0.4008,36.3400,84,93,209143
1.7204,0.3959,36.3400,84,93,209147
1.5200,0.4057,36.4900,84,93,209150
1.3930,0.3861,36.3700,84,93,209154
1.4418,0.4057,36.0700,84,93,209157
1.5152,0.4154,36.2500,84,93,209161
1.5836,0.4008,36.3700,84,93,209164
1.6471,0.4106,36.2500,84,93,209167
1.6764,0.4008,36.3400,84,93,209171
1.7840,0.4154,35.5700,84,93,209174
1.8182,0.4008,36.2200,84,93,209177
1.8280,0.3959,36.3700,84,93,209181
1.7986,0.4008,36.3400,84,93,209184
1.7302,0.4008,36.4000,84,93,209187
1.7595,0.4301,36.1000,84,93,209191
1.7595,0.4057,36.2800,84,93,209195
1.8084,0.4008,36.2500,84,93,209198
1.8280,0.3959,36.3400,84,93,209201
1.7889,0.4008,36.3700,84,93,209205
1.7791,0.4057,36.2200,84,93,209208
1.7400,0.4008,36.2500,84,93,209211
1.7986,0.4057,36.1900,84,93,209215
1.8377,0.4203,36.3400,84,93,209218
1.8426,0.3959,36.3400,84,93,209221
1.8280,0.4106,36.1900,84,93,209225
1.7595,0.4008,36.3400,84,93,209228
1.7742,0.4057,36.1900,84,93,209231
1.8035,0.3861,36.2800,84,93,209235
1.8524,0.4008,36.3100,84,93,209239
1.8817,0.4057,36.1600,84,93,209242
1.8182,0.4448,36.3400,84,93,209246
1.8035,0.4057,36.1000,84,93,209249
1.7791,0.3959,36.2200,84,93,209252
1.8280,0.4008,36.3400,84,93,209256
1.8866,0.4057,36.3100,84,93,209259
1.8671,0.4008,36.3400,84,93,209262
1.8719,0.4154,36.0100,84,93,209265
1.7937,0.4008,36.2800,84,93,209269
1.8035,0.3959,36.3400,84,93,209272
1.8622,0.4008,36.3400,84,93,209275
1.8328,0.4008,36.4600,84,93,209280
1.8964,0.4008,36.3400,84,93,209283
1.9795,0.4057,36.1600,84,93,209287
1.9501,0.3959,36.3100,84,93,209290
1.9208,0.4106,36.2200,84,93,209293
1.8768,0.4008,36.3400,84,93,209297
1.9062,0.4008,36.3700,84,93,209300
1.9795,0.4057,36.2200,84,93,209303
1.9990,0.4008,36.3700,84,93,209307
1.9990,0.4301,36.1300,84,93,209310
1.9355,0.3861,36.2800,84,93,209313
1.9208,0.4301,36.3400,84,93,209317
1.9844,0.4106,36.2800,84,93,209320
2.0283,0.4301,36.3400,84,93,209324
2.1163,0.4057,36.0700,84,93,209328
2.0479,0.3910,36.2800,84,93,209331
2.0186,0.4008,36.3700,84,93,209334
2.0186,0.4057,36.3400,84,93,209337
2.0821,0.3959,36.3400,84,93,209341
2.1652,0.4203,36.0400,84,93,209344
2.1457,0.4301,36.2500,84,93,209347
2.1017,0.3959,36.3100,84,93,209351
2.0528,0.4106,36.3400,84,93,209354
2.0381,0.4008,36.3700,84,93,209357
2.1212,0.4106,36.5200,84,93,209361
2.1359,0.4057,36.2800,84,93,209364
2.1408,0.4057,36.1900,84,93,209368
2.1065,0.3959,36.3400,84,93,209372
2.0039,0.4008,36.4300,84,93,209375
1.9941,0.4106,36.2200,84,93,209378
1.9795,0.4008,36.3100,84,93,209381
2.0088,0.4057,36.6100,84,93,209385
1.9501,0.4008,36.3400,84,93,209388
1.8671,0.4008,36.3700,84,93,209391
1.7986,0.4008,36.2500,84,93,209395
1.7351,0.4008,36.3400,84,93,209398
1.7546,0.4350,36.1900,84,93,209401
1.7400,0.4008,36.1900,84,93,209405
1.7155,0.4350,36.3400,84,93,209409
1.6764,0.4057,36.1600,84,93,209412
1.6227,0.3959,36.3400,84,93,209416
1.6178,0.4106,36.0100,84,93,209419
1.6422,0.4057,36.2500,84,93,209422
1.6618,0.4008,35.7500,84,93,209426
1.6667,0.4057,36.2800,84,93,209429
1.6031,0.4008,36.3400,84,93,209432
1.6031,0.4154,36.0100,84,93,209435
1.5787,0.4008,36.2200,84,93,209439
1.6276,0.3959,36.3100,84,93,209442
1.6618,0.4057,36.3100,84,93,209445
1.6471,0.3959,36.3700,84,93,209449
1.6471,0.4154,35.3900,84,93,209453
1.5836,0.4057,36.3100,84,93,209456
1.5934,0.4008,36.2500,84,93,209460
1.6422,0.4008,36.3400,84,93,209463
1.6862,0.4252,36.3400,84,93,209466
1.6960,0.4057,36.2800,84,93,209470
1.6325,0.4057,36.3100,84,93,209473
1.6129,0.4057,36.1900,84,93,209476
1.6129,0.4008,36.3400,84,93,209480
1.6667,0.4008,36.3400,84,93,209483
1.7302,0.4106,36.1600,84,93,209486
1.7009,0.3861,36.3400,84,93,209490
1.6716,0.4106,36.1900,84,93,209494
1.6325,0.4008,36.2500,84,93,209497
1.6520,0.4008,36.5500,84,93,209500
1.7302,0.4106,36.1900,84,93,209504
1.7400,0.4008,36.2800,84,93,209507
1.7449,0.4106,36.0700,84,93,209510
1.6764,0.4106,36.5800,84,93,209514
1.6520,0.4350,36.3400,84,93,209517
1.7009,0.4057,36.2800,84,93,209520
1.7449,0.4008,36.3400,84,93,209524
1.8182,0.4154,35.9800,84,93,209527
1.7449,0.4106,36.2500,84,93,209530
1.6960,0.3959,36.3100,84,93,209534
1.6862,0.4057,36.3100,84,93,209538
1.7204,0.4008,36.4000,84,93,209541
1.8182,0.4252,36.1600,84,93,209545
1.8133,0.4057,36.2800,84,93,209548
1.7595,0.4106,36.2800,84,93,209551
1.7009,0.4008,36.3400,84,93,209554
1.6911,0.4008,36.3100,84,93,209558
1.7693,0.4106,36.1600,84,93,209561
1.8035,0.4057,36.2800,84,93,209564
1.8280,0.4057,36.1600,84,93,209568
1.7693,0.4008,36.3400,84,93,209571
1.7204,0.4008,36.3400,84,93,209574
1.7351,0.4057,36.2500,84,93,209579
1.7644,0.4008,36.3400,84,93,209582
1.8328,0.3959,36.2200,84,93,209585
1.8133,0.3959,36.3100,84,93,209589
1.7693,0.4008,36.3700,84,93,209592
1.7400,0.4057,36.1900,84,93,209595
1.7400,0.3959,36.3400,84,93,209598
1.8280,0.4057,36.1000,84,93,209602
1.8573,0.4008,36.3400,84,93,209605
1.8719,0.4008,36.3400,84,93,209608
1.8524,0.4057,36.2800,84,93,209612
1.8084,0.4008,36.3700,84,93,209615
1.8817,0.4106,35.9800,84,93,209618
1.9306,0.4057,36.2200,84,93,209623
1.9599,0.4008,36.4000,84,93,209626
1.9697,0.4057,36.3100,84,93,209629
1.8964,0.4008,36.3700,84,93,209633
1.8964,0.4203,36.1300,84,93,209636
1.8573,0.4106,36.3400,84,93,209639
1.8768,0.3959,36.2500,84,93,209643
1.9013,0.4008,36.3400,84,93,209646
1.8719,0.4350,36.3400,84,93,209649
1.8524,0.4106,36.1900,84,93,209652
1.7840,0.4106,36.3100,84,93,209656
1.7986,0.4057,36.1900,84,93,209659
1.8231,0.4057,36.3400,84,93,209662
1.8524,0.4008,36.3700,84,93,209667
1.8377,0.4008,36.2500,84,93,209670
1.7693,0.4008,36.3400,84,93,209673
1.7595,0.4106,36.2200,84,93,209677
1.7546,0.4008,36.3400,84,93,209680
1.8035,0.4008,36.4300,84,93,209683
1.8524,0.4106,36.2200,84,93,209687
1.8035,0.4008,36.3400,84,93,209690
1.8133,0.4106,36.1000,84,93,209693
1.7351,0.4057,36.2200,84,93,209696
1.7498,0.4057,36.3700,84,93,209700
1.8280,0.4057,36.2500,84,93,209703
1.8280,0.3959,36.3400,84,93,209707
1.8524,0.4106,36.0100,84,93,209711
1.7644,0.4008,36.2500,84,93,209714
1.7449,0.4008,36.3100,84,93,209717
1.8084,0.3959,36.3100,84,93,209721
1.8475,0.3959,36.5500,84,93,209724
1.9013,0.4252,36.1000,84,93,209727
1.8084,0.4057,36.2500,84,93,209731
1.7498,0.4008,36.2500,84,93,209734
1.7693,0.4008,36.3400,84,93,209737
1.8866,0.4008,36.3700,84,93,209741
2.0870,0.4106,36.2200,84,93,209744
2.1652,0.4057,36.3100,84,93,209747
2.1603,0.4008,36.2200,84,93,209751
2.0381,0.4008,36.3400,84,93,209755
1.9257,0.3959,36.3400,84,93,209758
1.7742,0.4154,35.9800,84,93,209761
1.5934,0.3959,36.3100,84,93,209765
1.4858,0.4106,36.2200,84,93,209768
1.4174,0.4008,36.3400,84,93,209771
1.4663,0.4008,36.3400,84,93,209775
1.6031,0.4057,36.2200,84,93,209778
1.7449,0.4008,36.3400,84,93,209781
1.8964,0.4106,36.1000,84,93,209785
1.9159,0.4106,36.2800,84,93,209788
1.8866,0.3959,36.3400,84,93,209792
1.8573,0.4057,36.2800,84,93,209796
1.8328,0.4008,36.3400,84,93,209799
1.9257,0.4106,36.0400,84,93,209802
1.9110,0.4057,36.2800,84,93,209805
1.8964,0.3861,36.3700,84,93,209809
1.8426,0.4057,36.3100,84,93,209812
1.7986,0.4008,36.3700,84,93,209815
1.8524,0.4741,36.1000,84,93,209819
1.8622,0.4057,36.2800,84,93,209822
1.8964,0.3959,36.4600,84,93,209825
1.8866,0.4057,36.3400,84,93,209829
1.8377,0.4399,36.3400,84,93,209832
1.8377,0.4106,36.1300,84,93,209836
1.8280,0.3861,36.3100,84,93,209840
1.8866,0.4057,36.2500,84,93,209843
1.8866,0.3959,36.3400,84,93,209846
1.8719,0.4008,36.4300,84,93,209850
1.8328,0.4203,36.2500,84,93,209853
1.7840,0.4057,36.3400,84,93,209856
1.8280,0.4106,36.1900,84,93,209860
1.8524,0.3959,36.3400,84,93,209863
1.8866,0.4057,36.3400,84,93,209866
1.8719,0.4008,36.2200,84,93,209869
1.8035,0.3959,36.3100,84,93,209873
1.8035,0.4057,36.1300,84,93,209876
1.8035,0.3959,36.3700,84,93,209880
1.8573,0.4008,36.4300,84,93,209884
1.9062,0.3959,36.3100,84,93,209887
1.9208,0.3861,36.3400,84,93,209891
1.9453,0.4008,36.3400,84,93,209894
1.9599,0.4057,36.1300,84,93,209897
1.8915,0.4154,36.2800,84,93,209901
1.8817,0.3861,36.2200,84,93,209904
1.9110,0.4008,36.3400,84,93,209907
1.9795,0.4008,36.3400,84,93,209911
2.0137,0.4154,36.1900,84,93,209914
1.9648,0.4008,36.3400,84,93,209917
1.9453,0.4057,36.1900,84,93,209922
1.9257,0.3959,36.3700,84,93,209925
1.9844,0.4008,36.3400,84,93,209928
2.0577,0.3959,36.2500,84,93,209932
2.0626,0.4008,36.3400,84,93,209935
2.0626,0.4008,36.2500,84,93,209938
2.0235,0.4008,36.3400,84,93,209941
2.0137,0.4008,36.3700,84,93,209945
2.0870,0.4057,36.1600,84,93,209948
2.1261,0.3959,36.3400,84,93,209951
2.1750,0.4106,36.0100,84,93,209955
2.1114,0.4106,36.2800,84,93,209958
2.0577,0.4008,36.3400,84,93,209961
2.0919,0.4106,36.2500,84,93,209966
2.1310,0.4008,36.3400,84,93,209969
2.2190,0.4154,36.0100,84,93,209972
2.1652,0.4008,36.2200,84,93,209976
2.0968,0.3959,36.3100,84,93,209979
2.0577,0.4057,36.3100,84,93,209982
2.0186,0.4008,35.7500,84,93,209985
2.1017,0.4154,36.1300,84,93,209989
2.0626,0.4057,36.3400,84,93,209992
2.0039,0.4106,36.2500,84,93,209995
1.9110,0.4008,36.3400,84,93,209999
1.8280,0.4008,36.3400,84,93,210002
1.8280,0.4154,36.2500,84,93,210006
1.8084,0.4057,36.3100,84,93,210010
1.8280,0.4057,36.2200,84,93,210013
1.7400,0.4106,36.3400,84,93,210016
1.6716,0.4008,36.3400,84,93,210020
1.6325,0.4154,36.1900,84,93,210023
1.6129,0.4008,36.3100,84,93,210026
1.6862,0.3959,36.1900,84,93,210030
1.6618,0.3959,36.2200,84,93,210033
1.6325,0.4008,36.3400,84,93,210036
1.5982,0.4008,36.1600,84,93,210039
1.5591,0.4008,36.3400,84,93,210043
1.5982,0.4106,36.1300,84,93,210046
1.6276,0.3959,36.2800,84,93,210050
1.6520,0.3959,36.3400,84,93,210054
1.6373,0.4154,36.2800,84,93,210057
1.5738,0.3959,36.3400,84,93,210060
1.5885,0.4154,36.0400,84,93,210064
1.5885,0.4008,36.2200,84,93,210067
1.6471,0.4008,36.3400,84,93,210070
1.6813,0.4008,36.3400,84,93,210074
1.6618,0.4008,36.3700,84,93,210077
1.6667,0.4203,36.1600,84,93,210080
1.6227,0.4106,36.2800,84,93,210084
1.6471,0.4008,36.2500,84,93,210087
1.7107,0.4106,36.3400,84,93,210091
1.7253,0.3861,36.3400,84,93,210094
1.7253,0.4106,36.1300,84,93,210098
1.6569,0.4057,36.3100,84,93,210101
1.6618,0.3959,36.1900,84,93,210104
1.6764,0.4008,36.3100,84,93,210108
1.7546,0.3959,36.3400,84,93,210111
1.7644,0.4008,36.1900,84,93,210114
1.7107,0.4057,36.3400,84,93,210118
1.6960,0.4008,36.1900,84,93,210121
1.6764,0.3959,36.3100,84,93,210124
1.7351,0.4008,36.3400,84,93,210128
1.7937,0.3959,36.2200,84,93,210131
1.7889,0.4008,36.2800,84,93,210135
1.7791,0.4399,36.1000,84,93,210139
1.7058,0.4008,36.3400,84,93,210142
1.7058,0.3910,36.3400,84,93,210145
1.7742,0.4057,36.2800,84,93,210148
1.7986,0.4008,36.3400,84,93,210152
1.8426,0.4154,36.0100,84,93,210155
1.7693,0.4057,36.2200,84,93,210158
1.7204,0.3959,36.4000,84,93,210162
1.7351,0.4008,36.3100,84,93,210165
1.7791,0.4008,36.4000,84,93,210168
1.8622,0.4154,36.1000,84,93,210172
1.8231,0.4057,36.3400,84,93,210176
1.7595,0.4008,36.2200,84,93,210179
1.7204,0.4008,36.3400,84,93,210183
1.7302,0.4057,36.3400,84,93,210186
1.8133,0.4106,36.2200,84,93,210189
1.8573,0.4008,36.3400,84,93,210193
1.8328,0.4057,36.1900,84,93,210196
1.7693,0.4008,36.3400,84,93,210199
1.7400,0.4008,36.1900,84,93,210203
1.7742,0.4008,36.2800,84,93,210206
1.8280,0.4008,36.3400,84,93,210209
1.8719,0.4008,36.1900,84,93,210212
1.8377,0.4008,36.3400,84,93,210216
1.7644,0.4008,36.3400,84,93,210220
1.7546,0.4057,36.1900,84,93,210223
1.7546,0.4008,36.4000,84,93,210227
1.8475,0.4106,36.0700,84,93,210230
1.8573,0.4008,36.2200,84,93,210233
1.8280,0.4008,36.3100,84,93,210237
1.7986,0.4057,36.2800,84,93,210240
1.7498,0.4008,36.5800,84,93,210243
1.8231,0.4154,36.0400,84,93,210247
1.8377,0.4008,36.1900,84,93,210250
1.8524,0.3910,36.3400,84,93,210253
1.8133,0.4057,36.3400,84,93,210256
1.7644,0.4008,36.3700,84,93,210260
1.8182,0.4154,36.1000,84,93,210264
1.8035,0.4057,36.2500,84,93,210267
1.8622,0.3959,36.2800,84,93,210271
1.8671,0.4008,36.4000,84,93,210274
1.8231,0.4008,36.3700,84,93,210277
1.7937,0.4106,36.2500,84,93,210281
1.7498,0.4008,36.3100,84,93,210284
1.7986,0.4057,36.1900,84,93,210287
1.8377,0.4008,36.3400,84,93,210291
1.8475,0.4008,36.3400,84,93,210294
1.8377,0.4106,36.1600,84,93,210297
1.7693,0.4008,36.3400,84,93,210301
1.7840,0.4106,36.1900,84,93,210305
1.8084,0.3959,36.3100,84,93,210308
1.8524,0.4008,36.3700,84,93,210311
1.8768,0.4057,36.1900,84,93,210315
1.8133,0.4008,36.3700,84,93,210318
1.7889,0.3959,36.1000,84,93,210321
1.7693,0.4008,36.2500,84,93,210325
1.8133,0.4154,36.3400,84,93,210328
1.8768,0.4057,36.3100,84,93,210331
1.8622,0.4008,36.3400,84,93,210335
1.8622,0.4106,36.0700,84,93,210338
1.7937,0.4008,36.2800,84,93,210341
1.7742,0.4008,36.3700,84,93,210345
1.8328,0.4057,36.3100,84,93,210349
1.8719,0.4008,36.3400,84,93,210352
1.9208,0.4301,36.1000,84,93,210355
1.8719,0.4057,36.2500,84,93,210359
1.7937,0.3959,36.3700,84,93,210362
1.8280,0.4008,36.3400,84,93,210365
1.8866,0.4008,36.3100,84,93,210369
1.9697,0.4106,36.1300,84,93,210372
1.9404,0.4154,36.3400,84,93,210375
1.8817,0.4008,36.1900,84,93,210379
1.8035,0.4008,36.3400,84,93,210382
1.8084,0.4008,36.3400,84,93,210385
1.8817,0.4057,36.2200,84,93,210390
1.8964,0.4106,36.3400,84,93,210393
1.8915,0.4106,36.1900,84,93,210396
1.8035,0.4154,36.3700,84,93,210400
1.7644,0.4008,36.3700,84,93,210403
1.7840,0.4008,36.2200,84,93,210406
1.8231,0.4008,36.3400,84,93,210409
1.8768,0.4008,36.2500,84,93,210413
1.8377,0.4008,36.3400,84,93,210416
1.7937,0.4008,36.3700,84,93,210419
1.7791,0.4106,36.2800,84,93,210423
1.7889,0.4008,36.4000,84,93,210426
1.8768,0.4106,36.0400,84,93,210429
1.8817,0.4057,36.2500,84,93,210434
1.8328,0.4008,36.3100,84,93,210437
1.7937,0.4057,36.2800,84,93,210440
1.7546,0.4008,36.3400,84,93,210444
1.8426,0.4057,36.0400,84,93,210447
1.8573,0.4057,36.1900,84,93,210450
1.8573,0.3910,36.3100,84,93,210453
1.8377,0.4008,36.2500,84,93,210457
1.7889,0.4008,36.3400,84,93,210460
1.8280,0.4154,36.1600,84,93,210463
1.8426,0.4008,36.3400,84,93,210467
1.9013,0.4008,36.2200,84,93,210470
1.9062,0.4008,36.4300,84,93,210473
1.8622,0.3861,36.3700,84,93,210478
1.8328,0.4154,36.2500,84,93,210481
1.7986,0.4008,36.3400,84,93,210484
1.8475,0.4057,36.1900,84,93,210488
1.8768,0.4008,36.4900,84,93,210491
1.9013,0.4350,36.3700,84,93,210494
1.9208,0.4106,36.2200,84,93,210498
2.0577,0.4057,36.2200,84,93,210501
2.1261,0.3959,36.3400,84,93,210505
2.1799,0.4154,36.4300,84,93,210508
2.1457,0.3861,36.2500,84,93,210511
2.1457,0.4252,36.3100,84,93,210515
2.0870,0.4057,36.4000,84,93,210519
1.9208,0.4008,36.4600,84,93,210522
1.7400,0.4203,36.1000,84,93,210525
1.5249,0.4057,36.2800,84,93,210529
1.4956,0.4008,36.2500,84,93,210532
1.6129,0.4008,36.3400,84,93,210535
1.7449,0.4008,36.3700,84,93,210539
1.8719,0.4106,36.2200,84,93,210542
1.8573,0.4008,36.1900,84,93,210545
1.8964,0.4106,36.2200,84,93,210549
1.8915,0.4350,36.4000,84,93,210552
1.9355,0.4008,36.3400,84,93,210555
2.0137,0.4154,36.1600,84,93,210560
1.9599,0.3861,36.3100,84,93,210563
1.9159,0.4106,36.1900,84,93,210566
1.8524,0.3959,36.2800,84,93,210570
1.8671,0.4008,36.3400,84,93,210573
1.9501,0.4057,36.1900,84,93,210576
1.9501,0.4008,36.3400,84,93,210579
1.9599,0.4057,36.1600,84,93,210583
1.8866,0.4008,36.2800,84,93,210586
1.8573,0.4008,36.4000,84,93,210589
1.8964,0.4106,36.2500,84,93,210593
1.9257,0.4008,36.5200,84,93,210596
1.9941,0.4203,36.0400,84,93,210599
1.9208,0.4008,36.1900,84,93,210604
1.8671,0.4008,36.3700,84,93,210607
1.8426,0.4057,36.3100,84,93,210610
1.8622,0.3959,36.3400,84,93,210614
1.9648,0.4203,36.1000,84,93,210617
1.9501,0.4057,36.2800,84,93,210620
1.9110,0.4008,36.2800,84,93,210624
1.8719,0.4057,36.4000,84,93,210627
1.8524,0.4008,36.3100,84,93,210630
1.9404,0.4106,36.1300,84,93,210633
1.9501,0.4057,36.3100,84,93,210637
1.9746,0.3959,36.2200,84,93,210640
1.9013,0.4008,36.3400,84,93,210643
1.8671,0.3959,36.3400,84,93,210648
1.8622,0.4106,36.1900,84,93,210651
1.8866,0.3959,36.3400,84,93,210654
1.9697,0.4106,36.2200,84,93,210658
1.9453,0.4008,36.3100,84,93,210661
1.9257,0.4008,36.3400,84,93,210664
1.8915,0.4008,36.2200,84,93,210668
1.8817,0.4008,36.3400,84,93,210671
1.9648,0.4008,36.1300,84,93,210674
1.9892,0.4008,36.3400,84,93,210678
1.9941,0.4057,36.3400,84,93,210681
1.9648,0.4057,36.3100,84,93,210684
1.9159,0.4008,36.3400,84,93,210688
1.9599,0.4106,36.0400,84,93,210692
1.9844,0.4106,36.2800,84,93,210695
2.0283,0.4008,36.3700,84,93,210698
2.0479,0.4252,36.3100,84,93,210702
2.0039,0.3959,36.3400,84,93,210705
2.0430,0.4203,36.1900,84,93,210708
2.0332,0.4106,36.2200,84,93,210712
2.0772,0.3959,36.3100,84,93,210715
2.1261,0.4008,36.3100,84,93,210718
2.1261,0.4008,36.3400,84,93,210722
2.1310,0.4057,36.2200,84,93,210725
2.0772,0.4057,36.2800,84,93,210728
2.0968,0.4008,36.2200,84,93,210732
2.1359,0.4008,36.3400,84,93,210736
2.1848,0.4008,36.3400,84,93,210739
2.1994,0.4399,36.2800,84,93,210742
2.1408,0.4008,36.3400,84,93,210746
2.1261,0.4057,36.2500,84,93,210749
2.1065,0.4008,36.3400,84,93,210752
2.1457,0.4008,36.4000,84,93,210756
2.1896,0.4008,36.2200,84,93,210759
2.1261,0.4008,36.4300,84,93,210762
2.0626,0.4008,36.1600,84,93,210766
1.9746,0.4008,36.2500,84,93,210769
1.9453,0.4008,36.4000,84,93,210772
2.0137,0.4057,36.1600,84,93,210776
1.9404,0.4008,36.3400,84,93,210780
1.9110,0.4106,36.0400,84,93,210783
1.7937,0.4057,36.3100,84,93,210786
1.7204,0.4008,36.4000,84,93,210790
1.7498,0.3959,36.2800,84,93,210793
1.7204,0.4008,36.4900,84,93,210796
1.7546,0.4106,36.0400,84,93,210800
1.6716,0.4008,36.2500,84,93,210803
1.6129,0.3959,36.3100,84,93,210806
1.5885,0.4057,36.3100,84,93,210810
1.6031,0.3959,36.3400,84,93,210813
1.6911,0.4203,36.1900,84,93,210817
1.6764,0.4106,36.2800,84,93,210821
1.6276,0.4008,36.3700,84,93,210824
1.5738,0.4008,36.3400,84,93,210827
1.5640,0.4008,36.3400,84,93,210830
1.6373,0.4057,36.1300,84,93,210834
1.6716,0.4057,36.1600,84,93,210837
1.7302,0.4057,36.1900,84,93,210840
1.6373,0.4008,36.3700,84,93,210844
1.6227,0.3959,36.3400,84,93,210847
1.5982,0.4057,36.1900,84,93,210850
1.6227,0.3959,36.3400,84,93,210854
1.6911,0.4008,36.1600,84,93,210857
1.6862,0.4008,36.3100,84,93,210861
1.6667,0.4008,36.4300,84,93,210865
1.6569,0.4106,36.2200,84,93,210868
1.6373,0.4008,36.4600,84,93,210871
1.7204,0.4057,36.1000,84,93,210875
1.7449,0.4008,36.3400,84,93,210878
1.7449,0.4008,36.3400,84,93,210881
1.7058,0.4057,36.2800,84,93,210884
1.6520,0.4008,36.3400,84,93,210888
1.7009,0.4154,36.0100,84,93,210891
1.7204,0.4057,36.2200,84,93,210894
1.7498,0.4106,36.3400,84,93,210898
1.7498,0.4008,36.3700,84,93,210902
1.6862,0.4008,36.3400,84,93,210905
1.6862,0.4203,36.1000,84,93,210909
1.6569,0.4301,36.2200,84,93,210912
1.6960,0.4008,36.2500,84,93,210915
1.7351,0.4008,36.3400,84,93,210919
1.7595,0.3959,36.3400,84,93,210922
1.7107,0.4106,36.2500,84,93,210925
1.6618,0.3959,36.3100,84,93,210928
1.6764,0.4057,36.2200,84,93,210932
1.7107,0.3959,36.3400,84,93,210935
1.7595,0.4057,36.3400,84,93,210938
1.7644,0.4008,36.2800,84,93,210942
1.7009,0.4008,36.4000,84,93,210946
1.6911,0.4008,36.1900,84,93,210949
1.6862,0.4008,36.3700,84,93,210953
1.7449,0.4008,36.3400,84,93,210956
1.8035,0.4106,36.2200,84,93,210959
1.7546,0.4252,36.3400,84,93,210963
1.7253,0.4057,36.1000,84,93,210966
1.6764,0.4106,36.2200,84,93,210969
1.6862,0.3861,36.3700,84,93,210973
1.7693,0.4057,36.2500,84,93,210976
1.7840,0.4008,36.4600,84,93,210979
1.8133,0.4154,36.0100,84,93,210982
1.7351,0.4008,36.1600,84,93,210987
1.7107,0.4008,36.3400,84,93,210990
1.7400,0.4057,36.3100,84,93,210993
1.7889,0.4008,36.4000,84,93,210997
1.8524,0.4154,36.0700,84,93,211000
1.7791,0.4057,36.2500,84,93,211003
1.7253,0.4008,36.2500,84,93,211007
1.7107,0.4008,35.6300,84,93,211010
1.7449,0.4008,36.3400,84,93,211013
1.8231,0.4106,36.2200,84,93,211017
1.8084,0.4008,36.3100,84,93,211020
1.7937,0.4008,36.1900,84,93,211023
1.7302,0.4008,36.3400,84,93,211027
1.7155,0.4008,36.2500,84,93,211031
1.7840,0.4154,36.1900,84,93,211034
1.8182,0.4106,36.3400,84,93,211038
1.8524,0.4057,36.1900,84,93,211041
1.7937,0.3959,36.2800,84,93,211044
1.7498,0.4008,36.3400,84,93,211047
1.7644,0.4057,36.1900,84,93,211051
1.7986,0.3959,36.3400,84,93,211054
1.8817,0.4057,36.2500,84,93,211057
1.8671,0.4008,36.2800,84,93,211061
1.8475,0.4008,36.4300,84,93,211064
1.8231,0.4008,36.2500,84,93,211067
1.8035,0.3861,36.3700,84,93,211072
1.8817,0.4106,36.0100,84,93,211075
1.8671,0.4008,36.3400,84,93,211078
1.8475,0.4057,36.3700,84,93,211082
1.8035,0.4057,36.4600,84,93,211085
1.7498,0.4008,36.3400,84,93,211088
1.7937,0.4252,36.0700,84,93,211092
1.7889,0.4057,36.2800,84,93,211095
1.8280,0.4008,36.3700,84,93,211098
1.8035,0.4008,36.3100,84,93,211101
1.7449,0.4008,36.4300,84,93,211105
1.7302,0.4106,36.1600,84,93,211108
1.7644,0.4008,36.2200,84,93,211112
1.7253,0.4008,36.3100,84,93,211116
1.7791,0.4008,36.1600,84,93,211119
1.8231,0.4008,36.3100,84,93,211123
1.8573,0.3959,36.3400,84,93,211126
1.8377,0.4057,36.2800,84,93,211129
1.7595,0.3959,36.3100,84,93,211133
1.7546,0.4106,36.0700,84,93,211136
1.7498,0.3959,36.2800,84,93,211139
1.8035,0.4008,36.3400,84,93,211143
1.8377,0.4057,36.3100,84,93,211146
1.8035,0.3959,36.3400,84,93,211149
1.7840,0.4203,36.0100,84,93,211153
1.7253,0.3959,36.2800,84,93,211156
1.7449,0.3959,36.2200,84,93,211160
1.8133,0.4008,36.3700,84,93,211164
1.8377,0.4154,36.4000,84,93,211167
1.8426,0.4106,36.1300,84,93,211170
1.7742,0.4008,36.2800,84,93,211174
1.7595,0.4057,36.2200,84,93,211177
1.7937,0.4008,36.3400,84,93,211180
1.8475,0.4008,36.3100,84,93,211183
1.8768,0.4057,36.4300,84,93,211187
1.8035,0.4008,36.3400,84,93,211190
1.7889,0.4106,36.1900,84,93,211193
1.8182,0.4057,36.3700,84,93,211197
1.9795,0.4008,36.3400,84,93,211201
2.1554,0.4008,36.2800,84,93,211204
2.2043,0.4008,36.3400,84,93,211208
2.1848,0.4057,36.1300,84,93,211211
2.0381,0.4057,36.3400,84,93,211214
1.8817,0.3861,36.3400,84,93,211218
1.7498,0.4106,36.2500,84,93,211221
1.5982,0.4008,36.3100,84,93,211224
1.5298,0.4106,36.0400,84,93,211227
1.4956,0.4057,36.2500,84,93,211231
1.5298,0.4008,36.3100,84,93,211234
1.6373,0.4057,36.2800,84,93,211237
1.7351,0.4106,36.3100,84,93,211241
1.8768,0.4154,36.0100,84,93,211245
1.8573,0.3959,36.1900,84,93,211248
1.7937,0.3959,36.3100,84,93,211252
1.7400,0.4057,36.3400,84,93,211255
1.7302,0.4008,36.3700,84,93,211258
1.7986,0.4154,36.2200,84,93,211262
1.8035,0.4057,36.2800,84,93,211265
1.7889,0.4008,36.1900,84,93,211268
1.7546,0.4008,36.3400,84,93,211272
1.6911,0.4008,36.3400,84,93,211275
1.7351,0.4057,36.2500,84,93,211278
1.7546,0.4008,36.4900,84,93,211281
1.8133,0.4106,36.2200,84,93,211286
1.7791,0.4008,36.3400,84,93,211289
1.7449,0.4008,36.3400,84,93,211292
1.7351,0.4154,36.2200,84,93,211296
1.7400,0.4008,36.3400,84,93,211299
1.8133,0.4008,36.1300,84,93,211302
1.8280,0.4057,36.2200,84,93,211306
1.8133,0.4008,36.3700,84,93,211309
1.8084,0.4203,36.2200,84,93,211312
1.7351,0.4008,36.3400,84,93,211316
1.7937,0.4008,36.0400,84,93,211319
1.8231,0.4057,36.2800,84,93,211322
1.8475,0.4008,36.4000,84,93,211326
1.8377,0.4106,36.3100,84,93,211330
1.7791,0.4008,36.3400,84,93,211333
1.7937,0.4203,36.0400,84,93,211336
1.7840,0.4008,36.2200,84,93,211340
1.8377,0.3959,36.2800,84,93,211343
1.8573,0.3959,36.3400,84,93,211346
1.8328,0.4008,36.3400,84,93,211350
1.8377,0.4203,36.1600,84,93,211353
1.7840,0.4008,36.4000,84,93,211356
1.8231,0.4057,36.2500,84,93,211360
1.8817,0.4008,36.3400,84,93,211363
1.9013,0.4008,36.3100,84,93,211366
1.9013,0.4057,36.1300,84,93,211371
1.8280,0.3959,36.3100,84,93,211374
1.8328,0.4057,36.1900,84,93,211377
1.8475,0.4106,36.3400,84,93,211380
1.9062,0.3959,36.3700,84,93,211384
1.9453,0.4008,36.2200,84,93,211387
1.9013,0.4008,36.3400,84,93,211390
1.8915,0.4057,36.3400,84,93,211394
1.9062,0.3959,36.3100,84,93,211397
1.9306,0.4008,36.3700,84,93,211400
2.0283,0.4057,36.2200,84,93,211404
1.9941,0.4008,36.4300,84,93,211407
1.9990,0.4008,36.1000,84,93,211410
1.9306,0.4008,36.3700,84,93,211415
1.9404,0.4008,36.3100,84,93,211418
2.0088,0.3959,36.3100,84,93,211421
2.0479,0.4008,36.3700,84,93,211424
2.1065,0.4154,36.0100,84,93,211428
2.0381,0.4057,36.3400,84,93,211431
1.9892,0.4252,36.3400,84,93,211434
2.0088,0.4057,36.3100,84,93,211438
2.0479,0.4008,36.3400,84,93,211441
2.1505,0.4203,36.1000,84,93,211444
2.1065,0.4106,36.2800,84,93,211448
2.0332,0.3959,36.2800,84,93,211451
1.9697,0.4008,36.2800,84,93,211454
1.9501,0.4008,36.3700,84,93,211459
2.0430,0.4154,36.1600,84,93,211462
1.9892,0.4057,36.3400,84,93,211465
1.9404,0.4301,36.1900,84,93,211468
1.8328,0.4008,36.3400,84,93,211472
1.7498,0.4008,36.3700,84,93,211475
1.7400,0.4057,36.2800,84,93,211478
1.7302,0.4008,36.3100,84,93,211482
1.7400,0.4106,36.1900,84,93,211485
1.6764,0.4008,36.3400,84,93,211488
1.6227,0.4008,36.3700,84,93,211492
1.5689,0.4106,36.2200,84,93,211495
1.5494,0.3959,36.3400,84,93,211499
1.6031,0.4057,36.1300,84,93,211503
1.6129,0.4203,36.2800,84,93,211506
1.5836,0.4008,36.3400,84,93,211509
1.5445,0.4008,36.2200,84,93,211513
1.4956,0.4008,36.3400,84,93,211516
1.5494,0.4106,36.2200,84,93,211519
1.5738,0.4008,36.2500,84,93,211522
1.5934,0.4008,36.3700,84,93,211526
1.5787,0.4057,36.3100,84,93,211529
1.5103,0.3861,36.3400,84,93,211532
1.5347,0.4154,36.0100,84,93,211536
1.5298,0.4008,36.2500,84,93,211539
1.5738,0.3959,36.2800,84,93,211543
1.6031,0.4057,36.3400,84,93,211547
1.5738,0.3959,36.3400,84,93,211550
1.5640,0.4154,36.2500,84,93,211553
1.5298,0.4057,36.2800,84,93,211557
1.5738,0.4008,36.2200,84,93,211560
1.6325,0.4106,36.3100,84,93,211563
1.6520,0.4057,36.3400,84,93,211567
1.6520,0.4106,36.1300,84,93,211570
1.5787,0.4057,36.3100,84,93,211573
1.5787,0.4106,36.1900,84,93,211576
1.5934,0.4008,36.2800,84,93,211580
1.6520,0.4008,36.3400,84,93,211584
1.6764,0.4008,36.1600,84,93,211587
1.6325,0.4008,36.3100,84,93,211591
1.5982,0.4057,36.1300,84,93,211594
1.5640,0.4008,36.2800,84,93,211597
1.6080,0.4008,36.3700,84,93,211601
1.6764,0.4106,36.2500,84,93,211604
1.6764,0.4008,36.2500,84,93,211607
1.6764,0.4106,36.0400,84,93,211611
1.5982,0.3959,36.2800,84,93,211614
1.5982,0.3959,36.3100,84,93,211617
1.6520,0.4057,36.3100,84,93,211621
1.6960,0.4399,36.3100,84,93,211624
1.7449,0.4154,36.0100,84,93,211628
1.6716,0.4008,36.1900,84,93,211631
1.6178,0.3959,36.2800,84,93,211635
1.6373,0.4057,36.3400,84,93,211638
1.6471,0.4008,36.3400,84,93,211641
1.7204,0.4106,36.1600,84,93,211645
1.6813,0.4057,36.2500,84,93,211648
1.6129,0.4008,36.1900,84,93,211651
1.5543,0.4008,36.3400,84,93,211655
1.5445,0.4008,36.3400,84,93,211658
1.5982,0.4106,36.2200,84,93,211661
1.6129,0.4008,36.3100,84,93,211665
1.6227,0.4106,36.1600,84,93,211668
1.5445,0.4008,36.3400,84,93,211672
1.5054,0.4008,36.3400,84,93,211676
1.5200,0.4008,36.3100,84,93,211679
1.5494,0.4399,36.3100,84,93,211682
1.5885,0.3861,36.1300,84,93,211685
1.5347,0.3959,36.3400,84,93,211689
1.4858,0.4008,36.3100,84,93,211692
1.4907,0.4106,36.2200,84,93,211695
1.4712,0.4252,36.3400,84,93,211699
1.5494,0.4106,36.0100,84,93,211702
1.5494,0.4057,36.2800,84,93,211705
1.5054,0.3959,36.3400,84,93,211709
1.4516,0.4154,36.2800,84,93,211713
1.4027,0.4008,36.3700,84,93,211716
1.4516,0.4203,36.0100,84,93,211720
1.3978,0.4106,36.2200,84,93,211723
1.4272,0.4008,36.3400,84,93,211727
1.5054,0.4057,36.1600,84,93,211730
1.5298,0.4008,36.3400,84,93,211733
1.5249,0.4057,36.3400,84,93,211737
1.5152,0.4008,36.2800,84,93,211740
1.5347,0.4008,36.3400,84,93,211743
1.6129,0.3861,36.2200,84,93,211747
1.6764,0.4008,36.3400,84,93,211750
1.6862,0.4008,36.3400,84,93,211753
1.6862,0.4252,36.1900,84,93,211757
1.6276,0.4008,36.4000,84,93,211761
1.6422,0.4106,36.1000,84,93,211764
1.6716,0.4057,36.2200,84,93,211767
1.7155,0.4008,36.3100,84,93,211771
1.7449,0.4057,36.2800,84,93,211774
1.6764,0.4106,36.3700,84,93,211777
1.6618,0.4057,36.0100,84,93,211781
1.6373,0.4008,36.1900,84,93,211784
1.6911,0.3959,36.3400,84,93,211787
1.7400,0.4008,36.3100,84,93,211791
1.7449,0.4008,36.3400,84,93,211794
1.7546,0.4203,36.1000,84,93,211798
1.6911,0.4106,36.2800,84,93,211802
1.6862,0.4008,36.2500,84,93,211805
1.7400,0.4154,36.3100,84,93,211808
1.7889,0.4008,36.3700,84,93,211811
1.8035,0.4106,36.2200,84,93,211815
1.7204,0.3959,36.3100,84,93,211818
1.6813,0.4057,36.1900,84,93,211821
1.6520,0.4008,36.3400,84,93,211825
1.6764,0.4008,36.3400,84,93,211828
1.7204,0.4154,36.1900,84,93,211831
1.6764,0.3959,36.3100,84,93,211835
1.6471,0.4057,36.1900,84,93,211838
1.5934,0.4008,36.2800,84,93,211842
1.6227,0.4008,36.3400,84,93,211846
1.6960,0.3959,36.1600,84,93,211849
1.7204,0.3959,36.3400,84,93,211852
1.7253,0.4057,36.0700,84,93,211856
1.6520,0.3861,36.2500,84,93,211859
1.6227,0.4008,36.3700,84,93,211862
1.6667,0.4057,36.2800,84,93,211865
1.6911,0.4008,36.3700,84,93,211869
1.7498,0.4399,36.0400,84,93,211872
1.6960,0.4008,36.3400,84,93,211875
1.6520,0.4008,36.3400,84,93,211879
1.6227,0.4057,36.3100,84,93,211883
1.6325,0.4106,36.3700,84,93,211886
1.7498,0.4203,36.1000,84,93,211890
1.7986,0.4106,36.2800,84,93,211893
1.8622,0.3959,36.2500,84,93,211896
1.9501,0.4057,36.3100,84,93,211900
1.9941,0.3861,36.3400,84,93,211903
2.0723,0.4154,36.1300,84,93,211906
2.0332,0.4057,36.2200,84,93,211910
1.9306,0.4057,36.1900,84,93,211913
1.6716,0.4008,36.2800,84,93,211916
1.4223,0.3959,36.3400,84,93,211920
1.2854,0.4154,36.1900,84,93,211923
1.2952,0.4008,36.3400,84,93,211927
1.4321,0.4057,36.1300,84,93,211930
1.5445,0.3959,36.3400,84,93,211934
1.5982,0.4057,36.3400,84,93,211937
1.6373,0.4057,36.2200,84,93,211940
1.6520,0.4106,36.3400,84,93,211944
1.7058,0.4057,36.1000,84,93,211947
1.7400,0.4057,36.3100,84,93,211950
1.7107,0.4008,36.3400,84,93,211954
1.6813,0.4057,36.3100,84,93,211957
1.6227,0.4008,36.4000,84,93,211960
1.6569,0.4497,36.0100,84,93,211964
1.6813,0.4106,36.2500,84,93,211968
1.7155,0.3959,36.4900,84,93,211971
1.7449,0.3861,36.3100,84,93,211975
1.7058,0.4008,36.3100,84,93,211978
1.7400,0.4203,36.1600,84,93,211981
1.7449,0.4106,36.2200,84,93,211984
1.7937,0.4008,36.2500,84,93,211988
1.8231,0.4008,36.4000,84,93,211991
1.7937,0.4057,36.3400,84,93,211994
1.7498,0.3861,36.1900,84,93,211998
1.7009,0.4154,36.3100,84,93,212001
1.6813,0.3861,36.1900,84,93,212004
1.7155,0.4008,36.3400,84,93,212008
1.7644,0.4008,36.3400,84,93,212012
1.7840,0.3959,36.2500,84,93,212015
1.7351,0.4008,36.3100,84,93,212019
1.7302,0.4057,36.1900,84,93,212022
1.7107,0.4008,36.3400,84,93,212025
1.7498,0.3959,36.3400,84,93,212029
1.7840,0.4057,36.4300,84,93,212032
1.7400,0.4008,36.3400,84,93,212035
1.7204,0.4057,36.1000,84,93,212038
1.6667,0.4008,36.1300,84,93,212042
1.6667,0.4008,36.3100,84,93,212045
1.7351,0.4106,36.2200,84,93,212048
1.7498,0.4008,36.3400,84,93,212052
1.7742,0.4154,36.0100,84,93,212056
1.6911,0.4008,36.2200,84,93,212059
1.6569,0.4154,36.3100,84,93,212063
1.6813,0.4057,36.3100,84,93,212066
1.7204,0.4057,36.3400,84,93,212069
1.7889,0.4203,36.1000,84,93,212073
1.7400,0.4203,36.2500,84,93,212076
1.6911,0.3959,36.2500,84,93,212079
1.6667,0.4008,36.3400,84,93,212083
1.6862,0.4008,36.3400,84,93,212086
1.7742,0.4448,36.2800,84,93,212089
1.8084,0.4008,36.3100,84,93,212092
1.8133,0.4057,36.1600,84,93,212097
1.7693,0.4008,36.3400,84,93,212100
1.7644,0.4008,36.3400,84,93,212103
1.8377,0.4106,36.1600,84,93,212107
1.8817,0.4008,36.3100,84,93,212110
1.9355,0.4106,36.2200,84,93,212113
1.8964,0.3861,36.2800,84,93,212117
1.8671,0.4057,36.3400,84,93,212120
1.8964,0.4057,36.1900,84,93,212123
1.9404,0.3959,36.3100,84,93,212127
2.0332,0.4057,36.0700,84,93,212130
2.0332,0.4203,36.2800,84,93,212133
1.9844,0.4008,36.3400,84,93,212137
1.9599,0.4448,36.2800,84,93,212141
1.9453,0.3959,36.3400,84,93,212144
2.0283,0.4106,36.3700,84,93,212147
2.0235,0.3959,36.2500,84,93,212151
2.0088,0.4008,36.3400,84,93,212154
1.9453,0.3959,36.3100,84,93,212157
1.8573,0.4008,36.3100,84,93,212161
1.8964,0.4252,36.0700,84,93,212164
1.8426,0.4057,36.2500,84,93,212167
1.8280,0.4008,36.2500,84,93,212171
1.7840,0.4008,36.3700,84,93,212174
1.6960,0.4057,36.3400,84,93,212177
1.6618,0.4154,36.1300,84,93,212182
1.6520,0.4106,36.2800,84,93,212185
1.6569,0.4057,36.1900,84,93,212188
1.6667,0.4203,36.3400,84,93,212192
1.6471,0.4008,36.3400,84,93,212195
1.6178,0.4203,36.2200,84,93,212198
1.5543,0.4008,36.3400,84,93,212201
1.5787,0.4106,36.1900,84,93,212205
1.6080,0.4008,36.3100,84,93,212208
1.6471,0.4008,36.3100,84,93,212211
1.6716,0.4008,36.2200,84,93,212215
1.5885,0.4008,36.3100,84,93,212218
1.5738,0.4057,36.1600,84,93,212221
1.5738,0.4008,36.3400,84,93,212226
1.6325,0.4008,36.3100,84,93,212229
1.7009,0.4106,36.2500,84,93,212232
1.6716,0.3959,36.3400,84,93,212236
1.6716,0.4106,36.2200,84,93,212239
1.6373,0.4057,36.2200,84,93,212242
1.6520,0.4008,36.4300,84,93,212246
1.7204,0.4057,36.3100,84,93,212249
1.7546,0.4008,36.3400,84,93,212252
1.7791,0.4154,36.0400,84,93,212255
1.6960,0.4057,36.2200,84,93,212259
1.6520,0.4301,36.2800,84,93,212262
1.6764,0.4008,36.3400,84,93,212265
1.7253,0.4008,36.3400,84,93,212270
1.7791,0.4106,36.1600,84,93,212273
1.7253,0.3959,36.2800,84,93,212276
1.6764,0.4057,36.1600,84,93,212280
1.6471,0.3959,36.3400,84,93,212283
1.6862,0.4008,36.1600,84,93,212286
1.7498,0.4106,36.2800,84,93,212290
1.7546,0.4008,36.3400,84,93,212293
1.7400,0.4106,36.1900,84,93,212296
1.6716,0.4008,36.3700,84,93,212300
1.6618,0.4008,36.3400,84,93,212303
1.7302,0.4106,36.1900,84,93,212306
1.7546,0.4203,36.3100,84,93,212310
1.7840,0.3861,36.1000,84,93,212314
1.7302,0.4008,36.2200,84,93,212317
1.6813,0.4008,36.3400,84,93,212320
1.6960,0.4106,36.2200,84,93,212324
1.7107,0.4008,36.3400,84,93,212327
1.7742,0.4106,36.0400,84,93,212330
1.7937,0.4448,36.1300,84,93,212334
1.8035,0.4057,36.2500,84,93,212337
1.8133,0.4008,36.1900,84,93,212341
1.7791,0.4057,36.3400,84,93,212344
1.7400,0.4008,36.3400,84,93,212347
1.7644,0.4106,36.2500,84,93,212352
1.7937,0.4057,36.2800,84,93,212355
1.8671,0.3959,36.1600,84,93,212358
1.8280,0.3959,36.3400,84,93,212362
1.7742,0.4008,36.3400,84,93,212365
1.7498,0.4252,36.1600,84,93,212368
1.7155,0.4008,36.4300,84,93,212372
1.7693,0.4008,36.1600,84,93,212375
1.7742,0.4008,36.2500,84,93,212378
1.7644,0.4008,36.3700,84,93,212381
1.7351,0.4057,36.1600,84,93,212385
1.6862,0.4008,36.3400,84,93,212388
1.7400,0.4106,36.0700,84,93,212391
1.7644,0.4057,36.3700,84,93,212396
1.7840,0.3959,36.3400,84,93,212399
1.7693,0.4057,36.2800,84,93,212402
1.7546,0.3959,36.3400,84,93,212406
1.7400,0.4154,36.0100,84,93,212409
1.7302,0.4008,36.2200,84,93,212412
1.7644,0.3959,36.3400,84,93,212416
1.8035,0.4008,36.3100,84,93,212419
1.7400,0.4057,36.3700,84,93,212422
1.7498,0.4252,36.1000,84,93,212426
1.6960,0.4106,36.3100,84,93,212429
1.7351,0.4008,36.2200,84,93,212432
1.7840,0.4057,36.3100,84,93,212435
1.8231,0.4008,36.3400,84,93,212440
1.8231,0.4106,36.1900,84,93,212443
1.7546,0.4057,36.3100,84,93,212446
1.7400,0.4057,36.1900,84,93,212450
1.7400,0.3959,36.3400,84,93,212453
1.7840,0.4008,36.4300,84,93,212456
1.8133,0.4057,36.1300,84,93,212460
1.7546,0.4008,36.4300,84,93,212463
1.7302,0.4497,36.1600,84,93,212466
1.6813,0.4008,36.3100,84,93,212470
1.7204,0.4057,36.3400,84,93,212473
1.7693,0.4057,36.2200,84,93,212476
1.7742,0.3959,36.3400,84,93,212481
1.7351,0.4057,36.0100,84,93,212484
1.6618,0.3959,36.3100,84,93,212487
1.6569,0.4154,36.3100,84,93,212491
1.7204,0.4057,36.2800,84,93,212494
1.7742,0.4008,36.3400,84,93,212497
1.8280,0.4154,35.7800,84,93,212500
1.7498,0.4057,36.2200,84,93,212504
1.7009,0.3959,36.3400,84,93,212507
1.7204,0.3959,36.2800,84,93,212510
1.7791,0.4008,36.3400,84,93,212514
1.8671,0.4252,36.1600,84,93,212517
1.8280,0.4106,36.1300,84,93,212520
1.7595,0.4008,36.1900,84,93,212525
1.7009,0.4008,36.3400,84,93,212528
1.7009,0.4008,36.3400,84,93,212531
1.7644,0.4106,36.2200,84,93,212535
1.7889,0.4008,36.2800,84,93,212538
1.7986,0.4106,36.1600,84,93,212541
1.7351,0.4008,36.3400,84,93,212544
1.7155,0.4008,36.3400,84,93,212548
1.7351,0.4057,36.3400,84,93,212551
1.7742,0.4008,36.3400,84,93,212554
1.8280,0.4008,36.1900,84,93,212558
1.7889,0.4008,36.3400,84,93,212561
1.7449,0.3861,36.3400,84,93,212564
1.7449,0.4057,36.1900,84,93,212569
1.7449,0.4008,36.4000,84,93,212572
1.8182,0.4106,36.0400,84,93,212575
1.8280,0.4057,36.2200,84,93,212579
1.7986,0.4008,36.5200,84,93,212582
1.7791,0.4057,36.2500,84,93,212585
1.7595,0.4008,36.2200,84,93,212589
1.8964,0.4203,35.9800,84,93,212592
2.0137,0.4008,36.2200,84,93,212595
2.1408,0.3910,36.3100,84,93,212598
2.1652,0.4057,36.3100,84,93,212602
2.0674,0.4008,36.3100,84,93,212605
1.9746,0.4154,36.1300,84,93,212609
1.7644,0.4399,36.2800,84,93,212613
1.5738,0.3861,36.2500,84,93,212616
1.4076,0.4350,36.3100,84,93,212619
1.3196,0.4008,36.3400,84,93,212623
1.3490,0.4203,36.2200,84,93,212626
1.4223,0.4008,36.3100,84,93,212629
1.5591,0.4057,36.1600,84,93,212633
1.6764,0.4008,36.3400,84,93,212636
1.7644,0.4252,36.3100,84,93,212639
1.8182,0.4106,36.1900,84,93,212643
1.7937,0.3959,36.3100,84,93,212646
1.7840,0.4008,36.1600,84,93,212649
1.7742,0.4057,36.2500,84,93,212654
1.8280,0.4008,36.3400,84,93,212657
1.8671,0.4057,36.1900,84,93,212660
1.8182,0.4008,36.4300,84,93,212663
1.8035,0.4106,36.0700,84,93,212667
1.7644,0.4008,36.3100,84,93,212670
1.7889,0.4008,36.3100,84,93,212673
1.8426,0.4106,36.2800,84,93,212677
1.8328,0.4008,36.3400,84,93,212680
1.8377,0.4154,36.0100,84,93,212683
1.7693,0.4008,36.3100,84,93,212687
1.7742,0.4106,36.3400,84,93,212690
1.8182,0.4008,36.3100,84,93,212694
1.8475,0.3910,36.3400,84,93,212698
1.8964,0.4203,36.1300,84,93,212701
1.8084,0.4008,36.2800,84,93,212704
1.7693,0.3959,36.2500,84,93,212707
1.7693,0.4057,36.3400,84,93,212711
1.8084,0.3959,36.3700,84,93,212714
1.8768,0.4106,36.1000,84,93,212717
1.8524,0.4057,36.3100,84,93,212721
1.8231,0.4057,36.1600,84,93,212724
1.7742,0.4008,36.3400,84,93,212727
1.7986,0.4008,36.4900,84,93,212731
1.8719,0.4057,36.1900,84,93,212734
1.8964,0.4008,36.3400,84,93,212738
1.9110,0.4203,36.1900,84,93,212742
1.8426,0.4008,36.3100,84,93,212745
1.8084,0.4057,36.3400,84,93,212748
1.8328,0.4057,36.2200,84,93,212752
1.8719,0.4008,36.3100,84,93,212755
1.9453,0.4057,36.0700,84,93,212758
1.9013,0.3959,36.3100,84,93,212761
1.8768,0.4008,36.3400,84,93,212765
1.8573,0.4057,36.2500,84,93,212768
1.8719,0.3861,36.3400,84,93,212771
1.9648,0.4203,35.9800,84,93,212775
1.9648,0.4057,36.2500,84,93,212779
1.9404,0.4008,36.3400,84,93,212782
1.9208,0.4057,36.3100,84,93,212786
1.9013,0.4008,36.3100,84,93,212789
1.9844,0.4252,36.1300,84,93,212792
2.0137,0.4106,36.2200,84,93,212796
2.0430,0.4008,36.2800,84,93,212799
2.0283,0.4008,36.2500,84,93,212802
2.0039,0.4057,36.3400,84,93,212806
2.0430,0.4057,36.1600,84,93,212809
2.0772,0.4057,36.2800,84,93,212812
2.1505,0.4203,36.1900,84,93,212815
2.1652,0.4008,36.3700,84,93,212819
2.1408,0.4057,36.3400,84,93,212823
2.1163,0.4057,36.2800,84,93,212826
2.0870,0.4057,36.3100,84,93,212830
2.1505,0.4106,36.2200,84,93,212833
2.1603,0.4008,36.3400,84,93,212836
2.1799,0.3959,36.3400,84,93,212840
2.1701,0.4106,36.4300,84,93,212843
2.0968,0.4008,36.3400,84,93,212846
2.0821,0.4057,36.1300,84,93,212850
2.0723,0.4301,36.2200,84,93,212853
2.0772,0.4008,36.3400,84,93,212856
2.0919,0.4106,36.2200,84,93,212859
1.9795,0.4008,36.3400,84,93,212864
1.9501,0.4106,36.0100,84,93,212867
1.8768,0.4008,36.2200,84,93,212870
1.8719,0.4008,36.3100,84,93,212874
1.9013,0.3959,36.3100,84,93,212877
1.8426,0.4008,36.3400,84,93,212880
1.8133,0.4252,35.9800,84,93,212884
1.7058,0.4008,36.2200,84,93,212887
1.6716,0.4008,36.2800,84,93,212890
1.7058,0.4008,36.3700,84,93,212894
1.7400,0.4057,36.3400,84,93,212897
1.7791,0.4154,36.1600,84,93,212900
1.7058,0.4008,36.2800,84,93,212904
1.6667,0.4008,36.1900,84,93,212908
1.6520,0.4057,36.3100,84,93,212911
1.6911,0.4008,36.3400,84,93,212914
1.7546,0.4106,36.1300,84,93,212918
1.7155,0.4008,36.3700,84,93,212921
1.6960,0.4448,36.1600,84,93,212924
1.6373,0.3861,36.3400,84,93,212928
1.6422,0.4252,36.3400,84,93,212931
1.7058,0.4057,36.1300,84,93,212934
1.7302,0.3959,36.3700,84,93,212938
1.7546,0.4057,36.1300,84,93,212941
1.8768,0.4252,36.0100,84,93,212945
1.8377,0.4008,36.2500,84,93,212948
1.8035,0.3959,36.3100,84,93,212952
1.8035,0.4057,36.3100,84,93,212956
1.8328,0.4057,36.3400,84,93,212959
1.9453,0.4154,36.1300,84,93,212962
1.9453,0.4106,36.2500,84,93,212966
1.9062,0.4008,36.2500,84,93,212969
1.8524,0.4057,36.3400,84,93,212972
1.8475,0.4008,36.3400,84,93,212976
1.9306,0.4203,36.1300,84,93,212979
1.9746,0.4008,36.4000,84,93,212982
2.0186,0.4301,36.1600,84,93,212985
1.9795,0.4008,36.3400,84,93,212989
1.9599,0.4008,36.3400,84,93,212993
2.0039,0.4106,36.2200,84,93,212996
2.0479,0.3861,36.3400,84,93,213000
2.1603,0.4057,36.3400,84,93,213003
2.1750,0.3959,36.3100,84,93,213006
2.1603,0.3959,36.3100,84,93,213010
2.1261,0.4008,36.2500,84,93,213013
2.0968,0.4008,36.3400,84,93,213016
2.1554,0.4057,36.0400,84,93,213020
2.1603,0.4008,36.3700,84,93,213023
2.1310,0.4008,36.3400,84,93,213026
2.0919,0.4057,36.2500,84,93,213029
1.9990,0.4008,36.3400,84,93,213033
2.0088,0.4106,36.0100,84,93,213037
2.0186,0.4057,36.2200,84,93,213040
2.0137,0.4008,36.4000,84,93,213044
1.9941,0.3959,36.3100,84,93,213047
1.9013,0.3959,36.3400,84,93,213050
1.8768,0.4203,36.0400,84,93,213054
1.8182,0.4057,36.1600,84,93,213057
1.8377,0.3959,36.2500,84,93,213060
1.8573,0.4008,35.9000,84,93,213064
1.8377,0.4106,36.3400,84,93,213067
1.8182,0.4106,36.1600,84,93,213070
1.7351,0.4301,36.2800,84,93,213073
1.7253,0.3861,36.2200,84,93,213078
1.7351,0.3959,36.3400,84,93,213081
1.7644,0.4057,36.3100,84,93,213084
1.7986,0.4057,36.2800,84,93,213088
1.7107,0.4008,36.2800,84,93,213091
1.7107,0.4057,36.2200,84,93,213094
1.6764,0.4008,36.3400,84,93,213098
1.7302,0.4008,36.3400,84,93,213101
1.7791,0.4057,36.5500,84,93,213104
1.7400,0.4008,36.3700,84,93,213108
1.7155,0.4057,36.1300,84,93,213111
1.6716,0.3959,36.2200,84,93,213114
1.6471,0.4008,36.3400,84,93,213118
1.7009,0.4106,36.3400,84,93,213122
1.7155,0.4057,36.3400,84,93,213125
1.7986,0.4057,36.0100,84,93,213129
1.8377,0.4154,36.1900,84,93,213132
1.9062,0.4008,36.3400,84,93,213135
1.9550,0.4057,36.1900,84,93,213138
1.9355,0.4008,36.3400,84,93,213142
1.8768,0.4203,36.1000,84,93,213145
1.6276,0.4106,36.2200,84,93,213148
1.3685,0.4008,35.5100,84,93,213152
1.2219,0.4008,36.3400,84,93,213155
1.1877,0.4008,36.3700,84,93,213158
1.3441,0.4106,36.2200,84,93,213163
1.4321,0.4008,36.2800,84,93,213166
1.5200,0.3959,36.1900,84,93,213169
1.5005,0.4008,36.3100,84,93,213173
1.4956,0.4008,36.3100,84,93,213176
1.5445,0.4106,36.1600,84,93,213179
1.5591,0.3959,36.3100,84,93,213183
1.5640,0.4106,35.6300,84,93,213186
1.4809,0.3910,36.2800,84,93,213189
1.4125,0.4057,36.3400,84,93,213192
1.3930,0.4154,36.2200,84,93,213196
1.4027,0.4008,36.3400,84,93,213199
1.4565,0.4057,36.0700,84,93,213202
1.4418,0.4008,36.2800,84,93,213207
1.3978,0.4008,36.3400,84,93,213210
1.3636,0.4057,36.2500,84,93,213213
1.3245,0.4008,36.3400,84,93,213217
1.3734,0.4154,36.0100,84,93,213220
1.3539,0.4008,36.2500,84,93,213223
1.3539,0.3959,36.3400,84,93,213227
1.3099,0.4008,36.2800,84,93,213230
1.2561,0.4008,36.3400,84,93,213233
1.2708,0.4203,36.0700,84,93,213237
1.2659,0.4252,36.2500,84,93,213240
1.2903,0.3861,36.2800,84,93,213243
1.3099,0.4008,36.3100,84,93,213248
1.2366,0.4008,36.3400,84,93,213251
1.2219,0.4106,36.1300,84,93,213254
1.2072,0.4057,36.3400,84,93,213257
1.2414,0.4301,36.1900,84,93,213261
1.2561,0.4008,36.3400,84,93,213264
1.2512,0.4008,36.4000,84,93,213267
1.2219,0.4106,36.2200,84,93,213271
1.1681,0.4008,36.2800,84,93,213274
1.1975,0.4106,36.1900,84,93,213277
1.2366,0.3959,36.2200,84,93,213281
1.2708,0.4008,36.3400,84,93,213284
1.2757,0.4057,36.2800,84,93,213287
1.2317,0.4057,36.3100,84,93,213292
1.2121,0.4057,36.1000,84,93,213295
1.2317,0.4008,36.3400,84,93,213298
1.2854,0.4008,36.3700,84,93,213301
1.3343,0.4301,36.3400,84,93,213305
1.3245,0.4008,35.7500,84,93,213308
1.3148,0.4154,36.0100,84,93,213311
1.2854,0.4057,36.2800,84,93,213315
1.3148,0.4106,36.3700,84,93,213318
1.3881,0.4057,36.2800,84,93,213321
1.4223,0.3959,36.3400,84,93,213325
1.4565,0.4203,36.0400,84,93,213328
1.4076,0.3861,36.2200,84,93,213331
1.3881,0.4057,36.2500,84,93,213336
1.4370,0.4008,36.3100,84,93,213339
1.5005,0.4008,36.3400,84,93,213342
1.5787,0.4154,36.1300,84,93,213346
1.5543,0.4057,36.2500,84,93,213349
1.5347,0.4106,36.1900,84,93,213352
1.5347,0.4008,36.3400,84,93,213356
1.5836,0.4008,36.3400,84,93,213359
1.6764,0.4057,36.2800,84,93,213362
1.7009,0.4252,36.3400,84,93,213365
1.7058,0.4106,36.1900,84,93,213369
1.6373,0.4008,36.3100,84,93,213372
1.6276,0.4008,36.3400,84,93,213376
1.6764,0.4497,36.2800,84,93,213380
1.6960,0.4008,36.3400,84,93,213383
1.7058,0.4057,36.1000,84,93,213386
1.6227,0.4057,36.2200,84,93,213390
1.5445,0.4008,36.2200,84,93,213393
1.5200,0.4106,36.2200,84,93,213396
1.5054,0.4008,36.5200,84,93,213400
1.5494,0.4448,36.0100,84,93,213403
1.5054,0.3959,36.3400,84,93,213406
1.4321,0.4252,36.3700,84,93,213410
1.3734,0.4057,36.3100,84,93,213413
1.3441,0.4008,36.3400,84,93,213416
1.3930,0.4252,36.0400,84,93,213420
1.3978,0.3959,36.2500,84,93,213424
1.3832,0.4008,36.2800,84,93,213427
1.3392,0.4008,36.3100,84,93,213430
1.3001,0.4008,36.3400,84,93,213434
1.3441,0.4154,35.4200,84,93,213437
1.3832,0.3959,36.2800,84,93,213440
1.4223,0.4057,36.3400,84,93,213444
1.4223,0.4008,36.3400,84,93,213447
1.3978,0.4008,36.3400,84,93,213450
1.3930,0.4057,36.1600,84,93,213454
1.4467,0.3959,36.3100,84,93,213457
1.4907,0.4106,36.1900,84,93,213460
1.5152,0.4008,36.3100,84,93,213465
1.5249,0.3861,36.3100,84,93,213468
1.5249,0.3959,36.1600,84,93,213471
1.4858,0.4008,36.3400,84,93,213474
1.5445,0.4057,36.1300,84,93,213478
1.6080,0.4008,36.2800,84,93,213481
1.6667,0.4008,36.3700,84,93,213484
1.6862,0.4154,36.2500,84,93,213488
1.6422,0.4008,36.3400,84,93,213491
1.6471,0.4106,36.0400,84,93,213494
1.6373,0.4008,35.9000,84,93,213498
1.7058,0.4106,36.3700,84,93,213501
1.7595,0.3861,36.3100,84,93,213505
1.7498,0.4008,36.3400,84,93,213509
1.7693,0.4252,36.1300,84,93,213512
1.7400,0.4057,36.2500,84,93,213515
1.7791,0.3959,36.3100,84,93,213519
1.8573,0.3861,36.3100,84,93,213522
1.9013,0.4008,36.3400,84,93,213525
1.9355,0.4106,36.1000,84,93,213528
1.8866,0.4057,36.2800,84,93,213532
1.8964,0.4008,36.1900,84,93,213535
1.9257,0.4057,36.3400,84,93,213538
1.9892,0.4008,36.3400,84,93,213542
2.0479,0.4057,36.2800,84,93,213545
2.0137,0.4008,36.3400,84,93,213549
2.0332,0.4106,36.1900,84,93,213553
1.9648,0.3959,36.3100,84,93,213556
2.0137,0.4008,36.4600,84,93,213560
2.0186,0.4008,36.4000,84,93,213563
2.0968,0.4106,36.2500,84,93,213566
2.1408,0.3959,36.2500,84,93,213570
2.2043,0.4106,36.0100,84,93,213573
2.1457,0.4057,36.2200,84,93,213576
2.0870,0.4008,36.3400,84,93,213579
2.1065,0.4057,36.3100,84,93,213583
2.1457,0.4008,36.3700,84,93,213586
2.2581,0.4154,36.1000,84,93,213590
2.2239,0.4057,36.1900,84,93,213594
2.1652,0.4008,36.2500,84,93,213597
2.1261,0.4008,36.3400,84,93,213600
2.1212,0.4008,36.3700,84,93,213604
2.2336,0.4203,36.1600,84,93,213607
2.2190,0.4057,36.1300,84,93,213610
2.2239,0.4057,36.2200,84,93,213614
2.1652,0.4008,36.3100,84,93,213617
2.1359,0.4008,36.3400,84,93,213620
2.1848,0.4057,36.3100,84,93,213624
2.2190,0.4008,36.3400,84,93,213627
2.3021,0.4106,36.2200,84,93,213630
2.2630,0.3959,36.3400,84,93,213634
2.2190,0.4008,35.9500,84,93,213638
2.2092,0.4008,36.2200,84,93,213641
2.1994,0.4008,36.3400,84,93,213644
2.2727,0.4008,36.0700,84,93,213648
2.2923,0.3959,36.2200,84,93,213651
2.2532,0.4008,36.3100,84,93,213654
2.2336,0.3861,36.2200,84,93,213658
2.1848,0.4008,36.3400,84,93,213661
2.2581,0.4057,36.0400,84,93,213664
2.2776,0.4106,36.2200,84,93,213668
2.2923,0.4008,36.3400,84,93,213671
2.2923,0.4057,36.3100,84,93,213675
2.2287,0.4008,36.3400,84,93,213678
2.2630,0.4154,36.0400,84,93,213682
2.2385,0.4106,36.1900,84,93,213685
2.2776,0.3959,36.2800,84,93,213688
2.3021,0.4008,36.3100,84,93,213692
2.2727,0.4008,36.3400,84,93,213695
2.2678,0.4154,36.1900,84,93,213698
2.2092,0.4057,36.3100,84,93,213702
2.2385,0.4008,36.2800,84,93,213705
2.2727,0.4008,36.3100,84,93,213708
2.2825,0.4008,36.3100,84,93,213712
2.3118,0.4106,36.1300,84,93,213715
2.2190,0.4008,36.2800,84,93,213719
2.2190,0.4106,36.1600,84,93,213723
2.2190,0.4008,36.3400,84,93,213726
2.2630,0.4008,36.0700,84,93,213729
2.3167,0.3959,36.2200,84,93,213732
2.2483,0.4008,36.2800,84,93,213736
2.2239,0.4057,36.1600,84,93,213739
2.1799,0.4008,36.3100,84,93,213742
2.2141,0.4106,36.3100,84,93,213746
2.2776,0.4057,36.2200,84,93,213749
2.2630,0.3910,36.3100,84,93,213752
2.2678,0.4106,36.0400,84,93,213756
2.1750,0.4008,36.3100,84,93,213760
2.1848,0.3959,36.3400,84,93,213763
2.2141,0.4057,36.3100,84,93,213767
2.2483,0.4008,36.3700,84,93,213770
2.3118,0.4154,36.0100,84,93,213773
2.2385,0.4057,36.2200,84,93,213776
2.1848,0.3959,36.4000,84,93,213780
2.1896,0.4057,36.2800,84,93,213783
2.2190,0.4008,36.3400,84,93,213786
2.3118,0.4448,35.8700,84,93,213790
2.2630,0.4057,36.3400,84,93,213793
2.1945,0.4008,36.1900,84,93,213796
2.1457,0.3861,36.3700,84,93,213800
2.1505,0.4057,36.3100,84,93,213804
2.2483,0.4057,36.1900,84,93,213807
2.2678,0.4008,36.3100,84,93,213811
2.2825,0.4057,36.1900,84,93,213814
2.1945,0.4008,36.3100,84,93,213817
2.1408,0.3861,36.3100,84,93,213821
2.1505,0.4008,36.2200,84,93,213824
2.1945,0.4057,36.2800,84,93,213827
2.2287,0.4008,36.1900,84,93,213830
2.1799,0.3959,36.3100,84,93,213834
2.1065,0.4008,36.4300,84,93,213837
2.0870,0.4106,36.2200,84,93,213840
2.0723,0.4008,36.3400,84,93,213844
2.1261,0.4350,36.0700,84,93,213848
2.1261,0.4057,36.2200,84,93,213851
2.0772,0.4008,36.4000,84,93,213855
2.0528,0.4106,36.2500,84,93,213858
1.9844,0.4008,36.3400,84,93,213861
2.0577,0.4106,36.0100,84,93,213865
2.0723,0.4008,36.6400,84,93,213868
2.0870,0.4008,36.3400,84,93,213871
2.0577,0.4057,36.3100,84,93,213874
1.9892,0.4008,36.3400,84,93,213878
2.0039,0.4203,36.0400,84,93,213881
1.9746,0.4057,36.2200,84,93,213884
2.0088,0.4008,36.2500,84,93,213889
2.0235,0.4057,36.3400,84,93,213892
1.9892,0.4008,36.3100,84,93,213895
1.9648,0.4252,36.1900,84,93,213899
1.9062,0.4008,36.5500,84,93,213902
1.9404,0.4399,35.9200,84,93,213905
1.9697,0.4008,36.3100,84,93,213909
1.9795,0.3959,36.3400,84,93,213912
1.9697,0.4154,36.1900,84,93,213915
1.8866,0.4008,36.3100,84,93,213919
1.8866,0.4106,36.1900,84,93,213922
1.8817,0.3910,36.2800,84,93,213925
1.9159,0.4008,36.2500,84,93,213928
1.9355,0.4057,36.1600,84,93,213933
1.8817,0.4008,36.3400,84,93,213936
1.8817,0.4057,36.1000,84,93,213939
1.8426,0.4008,36.3700,84,93,213943
1.8719,0.4008,36.3400,84,93,213946
1.9208,0.4057,36.2500,84,93,213949
1.9208,0.4008,36.2200,84,93,213953
1.9746,0.4203,36.0100,84,93,213956
1.9746,0.4008,36.1900,84,93,213959
2.0479,0.3959,36.3400,84,93,213963
2.1065,0.4008,36.3100,84,93,213966
2.0968,0.4057,36.3700,84,93,213969
2.0430,0.4203,36.0100,84,93,213972
1.8133,0.4057,36.2500,84,93,213977
1.5836,0.4301,36.2800,84,93,213980
1.4272,0.4057,36.4000,84,93,213983
1.4027,0.4008,36.3400,84,93,213987
1.5200,0.4106,36.1300,84,93,213990
1.5885,0.4154,36.2800,84,93,213993
1.6373,0.4057,36.1900,84,93,213997
1.6520,0.4057,36.3100,84,93,214000
1.7009,0.4008,36.3400,84,93,214003
1.7937,0.4497,36.1900,84,93,214007
1.8084,0.3959,36.3100,84,93,214010
1.8084,0.4057,36.1600,84,93,214013
1.7253,0.3959,36.3100,84,93,214018
1.6813,0.4008,36.3100,84,93,214021
1.6960,0.4106,36.2200,84,93,214024
1.7253,0.4008,36.3400,84,93,214027
1.7791,0.4154,36.1300,84,93,214031
1.7302,0.4008,36.3400,84,93,214034
1.6813,0.4008,36.3400,84,93,214037
1.6471,0.4057,36.2800,84,93,214041
1.6569,0.4008,36.3100,84,93,214044
1.7449,0.4106,35.9800,84,93,214047
1.7546,0.4057,36.2800,84,93,214051
1.7107,0.4252,36.3400,84,93,214054
1.6716,0.4057,36.2500,84,93,214057
1.6373,0.4008,36.3100,84,93,214062
1.6960,0.4252,36.1300,84,93,214065
1.7107,0.3861,36.1900,84,93,214068
1.7155,0.4008,36.2800,84,93,214072
1.6813,0.4008,36.3100,84,93,214075
1.6178,0.4252,36.3100,84,93,214078
1.6276,0.4106,36.1900,84,93,214082
1.6422,0.4057,36.3100,84,93,214085
1.7009,0.4057,36.2200,84,93,214088
1.7009,0.4252,36.3100,84,93,214091
1.6716,0.3861,36.3400,84,93,214095
1.6373,0.4106,36.2500,84,93,214098
1.6178,0.4008,36.3100,84,93,214102
1.6764,0.4106,36.1900,84,93,214106
1.7107,0.4008,36.1900,84,93,214109
1.7351,0.4252,36.3400,84,93,214112
1.7204,0.4057,36.2200,84,93,214116
1.6618,0.4008,36.3100,84,93,214119
1.6813,0.4057,36.4900,84,93,214122
1.7107,0.4008,36.2200,84,93,214126
1.7546,0.4008,36.3100,84,93,214129
1.7889,0.4106,36.2500,84,93,214132
1.7351,0.4008,36.3100,84,93,214136
1.7498,0.4106,36.0100,84,93,214139
1.7204,0.4008,36.1900,84,93,214142
1.8084,0.4008,36.3700,84,93,214147
1.8328,0.4057,36.3100,84,93,214150
1.8328,0.4057,36.3400,84,93,214153
1.8426,0.4203,36.0400,84,93,214156
1.7791,0.4106,36.2500,84,93,214160
1.7889,0.4008,36.2500,84,93,214163
1.8475,0.4106,36.3100,84,93,214166
1.8622,0.4008,36.3400,84,93,214170
1.9208,0.4008,36.3700,84,93,214173
1.9990,0.4106,36.1900,84,93,214177
1.9746,0.4008,36.3400,84,93,214180
1.9599,0.4008,36.0700,84,93,214183
1.9013,0.4008,36.2500,84,93,214188
1.9306,0.4008,36.3400,84,93,214191
2.0039,0.4106,36.1600,84,93,214194
2.0088,0.4008,36.3400,84,93,214198
2.0186,0.4057,36.1000,84,93,214201
1.9306,0.4057,36.2800,84,93,214204
1.8719,0.3861,36.3400,84,93,214207
1.8768,0.4057,36.2800,84,93,214211
1.8768,0.3861,36.3100,84,93,214214
1.9159,0.4154,36.0400,84,93,214217
1.8133,0.4008,36.2500,84,93,214221
1.7302,0.4252,36.3400,84,93,214224
1.6716,0.4057,36.2800,84,93,214227
1.6764,0.4008,36.3100,84,93,214232
1.7204,0.4203,36.1000,84,93,214235
1.6716,0.4057,36.2500,84,93,214238
1.6031,0.4008,36.2800,84,93,214242
1.5249,0.4203,36.3400,84,93,214245
1.4712,0.4008,36.3400,84,93,214248
1.5103,0.4203,36.1300,84,93,214252
1.5249,0.4057,36.1900,84,93,214255
1.5347,0.4008,36.1600,84,93,214258
1.4761,0.4008,36.3400,84,93,214262
1.4223,0.4154,36.3100,84,93,214265
1.4174,0.4106,36.2500,84,93,214268
1.4272,0.3959,36.3400,84,93,214272
1.5054,0.4008,36.1600,84,93,214276
1.5005,0.3959,36.3100,84,93,214279
1.4761,0.4008,36.4300,84,93,214282
1.4663,0.4057,36.2200,84,93,214286
1.4321,0.4008,36.2800,84,93,214289
1.5005,0.4106,36.0700,84,93,214292
1.5298,0.4008,36.2500,84,93,214296
1.5445,0.4057,36.3400,84,93,214299
1.5200,0.4057,36.2800,84,93,214302
1.4663,0.3959,36.3400,84,93,214306
1.5005,0.4106,36.0400,84,93,214309
1.5249,0.4106,36.1900,84,93,214312
1.5494,0.4008,36.3100,84,93,214317
1.5689,0.4008,36.2800,84,93,214320
1.5103,0.3861,36.3100,84,93,214323
1.5200,0.4203,36.1000,84,93,214326
1.4956,0.4106,36.2500,84,93,214330
1.5347,0.4008,36.2200,84,93,214333
1.5787,0.4008,36.3400,84,93,214336
1.5738,0.4008,36.3100,84,93,214340
1.5591,0.4106,36.1900,84,93,214343
1.5152,0.4057,36.2800,84,93,214346
1.5494,0.4008,36.1900,84,93,214350
1.5934,0.4008,36.3400,84,93,214353
1.6422,0.4008,36.3400,84,93,214356
1.6471,0.4008,36.2500,84,93,214361
1.6227,0.4057,36.3100,84,93,214364
1.5738,0.4057,36.1900,84,93,214367
1.5689,0.4008,36.2800,84,93,214371
1.6227,0.4008,36.2500,84,93,214374
1.6862,0.4106,36.1600,84,93,214377
1.6520,0.4106,36.3100,84,93,214380
1.6227,0.4106,36.0700,84,93,214384
1.5836,0.4057,36.0700,84,93,214387
1.6031,0.4008,36.3400,84,93,214390
1.6862,0.4057,36.2500,84,93,214394
1.7058,0.4008,36.3400,84,93,214397
1.7400,0.4106,36.0700,84,93,214401
1.6520,0.4106,36.2200,84,93,214405
1.6276,0.3861,36.3100,84,93,214408
1.6618,0.4008,36.2800,84,93,214411
1.7155,0.4008,36.3400,84,93,214415
1.7889,0.4203,36.0700,84,93,214418
1.7253,0.4057,36.2800,84,93,214421
1.6667,0.4106,36.2200,84,93,214425
1.6373,0.4008,36.3100,84,93,214428
1.6667,0.4008,36.3400,84,93,214431
1.7449,0.4106,36.2800,84,93,214434
1.7449,0.4252,36.3100,84,93,214438
1.7204,0.4057,36.2200,84,93,214441
1.6667,0.3959,36.3100,84,93,214445
1.6422,0.3959,36.4300,84,93,214449
1.7107,0.4057,36.1900,84,93,214452
1.7351,0.4106,36.2800,84,93,214455
1.7693,0.4008,36.1300,84,93,214459
1.7058,0.4008,36.2800,84,93,214462
1.6618,0.4008,36.3400,84,93,214465
1.6667,0.4106,36.1600,84,93,214469
1.6764,0.4008,36.3700,84,93,214472
1.7595,0.4106,35.9800,84,93,214475
1.7498,0.4057,36.2800,84,93,214479
1.7058,0.4057,36.3400,84,93,214482
1.6862,0.4057,36.2500,84,93,214486
1.6764,0.4008,36.3400,84,93,214490
1.7840,0.4106,35.9800,84,93,214493
1.7791,0.4008,36.2500,84,93,214496
1.8084,0.4008,36.3400,84,93,214499
1.7595,0.4057,36.3100,84,93,214503
1.7253,0.4301,36.3400,84,93,214506
1.7889,0.4203,36.1300,84,93,214509
1.8035,0.4106,36.2800,84,93,214513
1.8377,0.4008,36.1900,84,93,214516
1.8133,0.4008,36.3400,84,93,214519
1.7498,0.4008,36.4900,84,93,214523
1.7546,0.4154,36.1300,84,93,214526
1.7155,0.4057,36.2500,84,93,214530
1.8035,0.4106,36.1600,84,93,214534
1.7742,0.4008,36.4300,84,93,214537
1.7546,0.4057,36.3100,84,93,214540
1.7155,0.4057,36.2500,84,93,214544
1.6520,0.4399,36.3100,84,93,214547
1.6764,0.4008,36.2200,84,93,214550
1.7155,0.3959,36.3700,84,93,214553
1.7889,0.4008,36.3100,84,93,214557
1.7644,0.4057,36.2200,84,93,214560
1.7302,0.4008,36.3400,84,93,214563
1.7058,0.4106,36.1300,84,93,214567
1.7009,0.4008,36.3100,84,93,214571
1.7546,0.4008,35.8100,84,93,214574
1.7986,0.3959,36.2800,84,93,214578
1.7693,0.4106,36.3400,84,93,214581
1.7644,0.4154,35.9800,84,93,214584
1.7155,0.4057,36.2500,84,93,214588
1.7351,0.3959,36.3100,84,93,214591
1.7889,0.3959,36.2800,84,93,214594
1.8035,0.4008,36.4600,84,93,214598
1.8231,0.4203,36.1000,84,93,214601
1.7351,0.4106,36.2500,84,93,214604
1.7107,0.4057,36.1900,84,93,214608
1.7351,0.4008,36.3100,84,93,214611
1.7889,0.4008,36.3100,84,93,214615
1.8328,0.4057,36.1600,84,93,214618
1.7791,0.4106,36.2800,84,93,214622
1.7498,0.4057,36.1600,84,93,214625
1.7302,0.3959,36.3400,84,93,214628
1.7791,0.4008,36.1000,84,93,214632
1.8671,0.4008,36.2200,84,93,214635
1.8866,0.4008,36.3400,84,93,214638
1.8719,0.4008,36.1000,84,93,214642
1.7840,0.4008,36.3100,84,93,214645
1.7986,0.4008,36.3400,84,93,214648
1.9306,0.4106,36.2200,84,93,214652
2.0283,0.4008,36.3100,84,93,214656
2.1261,0.4106,36.0700,84,93,214659
2.0626,0.4057,36.2200,84,93,214663
1.9453,0.4008,36.3400,84,93,214666
1.8573,0.4057,36.2800,84,93,214669
1.7351,0.4008,36.3100,84,93,214672
1.6520,0.4106,36.0100,84,93,214676
1.4907,0.4154,36.1900,84,93,214679
1.4272,0.4008,36.3400,84,93,214682
1.4663,0.4057,36.2800,84,93,214686
1.5836,0.3959,36.3100,84,93,214689
1.7937,0.4203,36.1000,84,93,214692
1.8866,0.4106,36.2800,84,93,214696
1.9257,0.4008,36.2200,84,93,214700
1.9208,0.4008,36.3100,84,93,214703
1.8622,0.4008,36.3700,84,93,214707
1.8964,0.4057,36.2200,84,93,214710
1.9159,0.4008,36.3400,84,93,214713
1.9648,0.4008,36.1600,84,93,214717
1.9208,0.4008,36.4000,84,93,214720
1.8622,0.4008,36.3100,84,93,214723
1.8475,0.4154,36.1900,84,93,214726
1.8231,0.3910,36.3100,84,93,214730
1.8915,0.4057,36.1900,84,93,214733
1.8964,0.4057,36.2500,84,93,214736
1.8817,0.4008,36.3100,84,93,214740
1.8475,0.4106,36.1300,84,93,214744
1.7937,0.4008,35.6600,84,93,214747
1.8475,0.4203,36.0400,84,93,214751
1.8817,0.4057,36.1600,84,93,214754
1.9062,0.4008,36.3400,84,93,214757
1.9013,0.4057,36.2500,84,93,214761
1.8328,0.4057,36.3100,84,93,214764
1.8524,0.4154,36.0100,84,93,214767
1.8475,0.4008,36.2200,84,93,214771
1.8915,0.3959,36.3100,84,93,214774
1.9159,0.4008,36.3400,84,93,214777
1.9110,0.4008,36.3400,84,93,214781
1.9404,0.4008,36.4600,84,93,214785
1.9501,0.4203,36.1000,84,93,214788
1.8866,0.4057,36.3100,84,93,214792
1.8915,0.4252,36.1900,84,93,214795
1.9062,0.4008,36.2800,84,93,214798
1.9550,0.4154,36.3700,84,93,214802
1.9892,0.4057,36.1900,84,93,214805
1.9404,0.4057,36.3100,84,93,214808
1.9208,0.4057,36.1300,84,93,214812
1.9208,0.3959,36.2800,84,93,214815
1.9404,0.4008,36.3400,84,93,214818
2.0088,0.4301,36.2500,84,93,214822
2.0039,0.3959,36.3100,84,93,214825
2.0039,0.4106,36.0700,84,93,214829
1.9550,0.4008,36.2800,84,93,214833
1.9355,0.3861,36.3400,84,93,214836
1.9941,0.4106,36.2800,84,93,214839
2.0381,0.4008,36.3100,84,93,214843
2.0968,0.4203,36.0100,84,93,214846
2.0186,0.4057,36.2500,84,93,214849
1.9697,0.3959,36.2800,84,93,214852
1.9892,0.4057,36.2800,84,93,214856
2.0430,0.4057,36.3400,84,93,214859
2.1505,0.4106,36.1000,84,93,214862
2.1212,0.4057,36.1300,84,93,214866
2.0821,0.3959,36.1900,84,93,214870
2.0283,0.4008,36.2800,84,93,214873
2.0528,0.4008,36.3100,84,93,214877
2.1457,0.4106,36.2500,84,93,214880
2.1701,0.4106,36.3100,84,93,214883
2.1896,0.4057,36.1600,84,93,214887
2.1114,0.4008,36.3400,84,93,214890
2.0626,0.4008,36.3400,84,93,214893
2.0674,0.4008,36.4000,84,93,214896
2.0870,0.4008,36.3700,84,93,214900
2.1261,0.4057,36.1300,84,93,214903
2.0430,0.4008,36.2800,84,93,214906
1.9599,0.4008,36.4600,84,93,214910
1.9062,0.4154,36.1900,84,93,214914
1.8524,0.4008,36.3100,84,93,214917
1.8866,0.4106,36.0700,84,93,214921
1.8524,0.4057,36.1900,84,93,214924
1.7791,0.4252,36.3100,84,93,214927
1.7155,0.4057,36.2800,84,93,214931
1.6325,0.4008,36.3400,84,93,214934
1.6618,0.4154,36.0100,84,93,214937
1.6618,0.4008,36.1900,84,93,214940
1.6667,0.3959,36.3100,84,93,214944
1.6276,0.4057,36.2800,84,93,214947
1.5591,0.4008,36.3100,84,93,214950
1.5885,0.4203,36.1000,84,93,214955
1.5787,0.4057,36.3400,84,93,214958
1.6276,0.4008,36.2200,84,93,214961
1.6471,0.4008,36.4300,84,93,214965
1.6227,0.3959,36.3400,84,93,214968
1.5982,0.4106,36.2800,84,93,214971
1.5640,0.4057,36.2800,84,93,214975
1.6080,0.4057,36.1900,84,93,214978
1.6716,0.4008,36.3100,84,93,214981
1.6667,0.4008,36.3400,84,93,214985
1.6813,0.4106,36.1900,84,93,214988
1.5934,0.4008,36.3100,84,93,214991
1.6031,0.4106,36.1600,84,93,214994
1.6227,0.4008,36.3700,84,93,214999
1.6764,0.4008,36.3400,84,93,215002
1.7009,0.4057,36.3100,84,93,215005
1.6373,0.4057,36.3400,84,93,215009
1.6129,0.4057,36.0700,84,93,215012
1.5836,0.4350,36.2500,84,93,215015
1.6276,0.4008,36.3400,84,93,215019
1.6911,0.4106,36.2800,84,93,215022
1.6862,0.3861,36.3400,84,93,215025
1.6862,0.4106,36.0400,84,93,215029
1.6080,0.4008,36.2500,84,93,215032
1.6080,0.3959,36.3400,84,93,215035
1.6716,0.4057,36.3100,84,93,215040
1.7204,0.3910,36.3100,84,93,215043
1.7742,0.4203,36.1000,84,93,215046
1.7107,0.4203,36.1900,84,93,215049
1.6813,0.4008,36.2200,84,93,215053
1.6862,0.4106,36.3400,84,93,215056
1.7498,0.4008,36.3400,84,93,215059
1.8475,0.4106,36.1000,84,93,215063
1.8475,0.3861,36.2800,84,93,215066
1.8231,0.4106,36.1600,84,93,215069
1.7693,0.4008,36.3700,84,93,215073
1.7693,0.4154,36.3100,84,93,215076
1.8280,0.4057,36.2200,84,93,215079
1.8328,0.4203,36.3100,84,93,215084
1.8231,0.4057,36.1600,84,93,215087
1.7546,0.4057,36.3400,84,93,215090
1.7253,0.4008,36.3400,84,93,215094
1.7498,0.4057,36.2200,84,93,215097
1.7840,0.3861,36.3100,84,93,215100
1.8377,0.4057,36.0700,84,93,215104
1.7791,0.4008,35.6600,84,93,215107
1.7253,0.4252,36.3400,84,93,215110
1.7058,0.4057,36.2800,84,93,215113
1.7253,0.3959,36.3100,84,93,215117
1.8182,0.4154,35.3400,84,93,215120
1.8182,0.4106,36.2200,84,93,215123
1.7742,0.3959,36.2800,84,93,215128
1.7351,0.4057,36.2800,84,93,215131
1.7107,0.3910,36.3400,84,93,215134
1.7937,0.3861,36.1000,84,93,215138
1.8475,0.4057,36.2200,84,93,215141
1.8328,0.4008,35.6000,84,93,215144
1.7986,0.4350,36.4000,84,93,215148
1.7546,0.4008,36.3100,84,93,215151
1.7693,0.4106,36.0700,84,93,215154
1.8133,0.4057,36.3100,84,93,215158
1.8719,0.4057,36.1600,84,93,215161
1.8817,0.4008,36.3400,84,93,215164
1.8426,0.4008,36.4300,84,93,215169
1.8084,0.4106,36.2200,84,93,215172
1.7791,0.4008,36.3100,84,93,215175
1.8280,0.4057,36.1600,84,93,215178
1.8671,0.4008,36.3100,84,93,215182
1.9306,0.3959,36.3100,84,93,215185
2.0088,0.4057,36.2500,84,93,215188
2.0479,0.4008,36.3100,84,93,215192
2.1310,0.4106,36.0700,84,93,215195
2.1310,0.4057,36.1900,84,93,215198
2.0870,0.4008,36.3100,84,93,215202
1.9795,0.4106,36.2500,84,93,215205
1.7400,0.4057,36.3400,84,93,215208
1.5591,0.4154,35.9800,84,93,215213
1.4370,0.4057,36.1900,84,93,215216
1.4907,0.3959,36.2500,84,93,215219
1.6764,0.3959,36.3100,84,93,215223
1.7791,0.4008,36.3400,84,93,215226
1.8915,0.4448,36.1000,84,93,215229
1.8817,0.4057,36.2800,84,93,215232
1.9257,0.4008,36.1900,84,93,215236
1.9795,0.4008,36.3100,84,93,215239
2.0088,0.4008,36.2800,84,93,215242
2.0186,0.4106,36.2500,84,93,215246
1.9306,0.4057,36.3100,84,93,215249
1.9062,0.4057,36.1900,84,93,215252
1.8915,0.4008,36.3700,84,93,215257
1.9404,0.4106,36.3400,84,93,215260
2.0088,0.3861,36.1600,84,93,215263
1.9746,0.4106,36.3100,84,93,215267
1.9501,0.4057,36.1600,84,93,215270
1.8817,0.3910,36.2800,84,93,215273
1.8964,0.4008,36.3100,84,93,215276
1.9746,0.4106,36.1300,84,93,215280
1.9795,0.3861,36.3400,84,93,215283
1.9941,0.4203,36.0700,84,93,215286
1.9159,0.4057,36.2800,84,93,215290
1.8768,0.4008,36.3400,84,93,215293
1.9110,0.3861,36.2800,84,93,215297
1.9501,0.4008,36.4000,84,93,215301
2.0186,0.4154,35.9800,84,93,215304
1.9453,0.4008,36.2800,84,93,215307
1.8866,0.4008,36.3100,84,93,215311
1.8768,0.4057,36.2500,84,93,215314
1.9062,0.3959,36.3400,84,93,215317
2.0088,0.4203,36.0700,84,93,215321
1.9892,0.4106,36.2500,84,93,215324
1.9550,0.3861,36.2200,84,93,215327
1.9062,0.4008,36.3100,84,93,215330
1.8817,0.4008,36.4300,84,93,215334
1.9550,0.4106,36.1300,84,93,215337
1.9941,0.4057,36.3100,84,93,215341
2.0235,0.4106,36.1600,84,93,215345
1.9648,0.4008,36.3400,84,93,215348
1.9159,0.4057,36.3400,84,93,215351
1.9257,0.4106,36.2200,84,93,215355
1.9550,0.4008,36.3400,84,93,215358
2.0430,0.4057,36.1900,84,93,215361
2.0235,0.4008,36.3100,84,93,215365
1.9941,0.4008,36.3400,84,93,215368
1.9599,0.4057,36.2200,84,93,215371
1.9453,0.4008,36.3100,84,93,215375
2.0332,0.4057,36.0700,84,93,215378
2.0479,0.4350,36.3400,84,93,215382
2.0674,0.3959,36.2800,84,93,215385
2.0528,0.4057,36.3400,84,94,215389
2.1554,0.4057,36.2800,84,94,215392
2.1261,0.4008,36.3400,84,94,215396
2.1408,0.4154,36.1300,84,94,215399
2.1310,0.4057,36.2500,84,94,215402
2.1750,0.4008,36.2200,84,94,215406
2.2043,0.3910,36.2800,84,94,215409
2.1896,0.4008,36.2800,84,94,215412
2.1603,0.4497,36.1600,84,94,215416
2.0919,0.4008,36.3100,84,94,215419
2.1017,0.4057,36.1600,84,94,215422
2.1114,0.4008,36.3400,84,94,215427
2.1261,0.4008,36.3100,84,94,215430
2.0919,0.3959,36.2500,84,94,215433
1.9892,0.4008,36.3100,84,94,215436
1.9404,0.4057,36.1300,84,94,215440
1.8817,0.4008,36.3400,84,94,215443
1.8866,0.4057,36.3400,84,94,215446
1.8866,0.4057,36.2500,84,94,215450
1.8133,0.4008,36.3400,84,94,215453
1.7546,0.4106,36.0400,84,94,215456
1.6764,0.4057,36.1900,84,94,215460
1.6471,0.4008,36.3400,84,94,215463
1.7155,0.4154,36.2500,84,94,215467
1.6911,0.4008,36.3400,84,94,215471
1.6911,0.4203,35.9800,84,94,215474
1.5982,0.4008,36.1300,84,94,215477
1.5836,0.3910,36.2800,84,94,215481
1.5787,0.4057,36.2200,84,94,215484
1.6129,0.4008,36.3400,84,94,215487
1.6813,0.4203,36.1300,84,94,215491
1.6129,0.4106,36.2800,84,94,215494
1.5640,0.4008,36.1600,84,94,215497
1.5396,0.4106,36.3400,84,94,215500
1.5787,0.4008,36.3700,84,94,215504
1.6618,0.4057,36.2200,84,94,215507
1.6716,0.4057,36.4900,84,94,215511
1.6569,0.3959,36.1600,84,94,215515
1.5982,0.4008,36.3100,84,94,215518
1.5885,0.4106,36.3100,84,94,215521
1.6520,0.4106,35.8100,84,94,215525
1.6813,0.3861,36.3100,84,94,215528
1.7155,0.4008,36.1600,84,94,215531
1.6667,0.3959,36.2500,84,94,215535
1.6129,0.4154,36.3400,84,94,215538
1.6227,0.4106,36.0700,84,94,215541
1.6471,0.3959,36.3400,84,94,215545
1.7302,0.4057,36.1600,84,94,215548
1.7155,0.3959,36.2500,84,94,215552
1.6667,0.4008,36.3400,84,94,215556
1.6276,0.4106,36.2800,84,94,215559
1.6129,0.4008,36.3400,84,94,215562
1.7009,0.4154,36.0400,84,94,215565
1.7155,0.4008,36.2500,84,94,215569
1.7155,0.3959,36.2800,84,94,215572
1.6813,0.4057,36.3400,84,94,215575
1.6373,0.4106,36.3400,84,94,215579
1.6911,0.4203,36.2800,84,94,215582
1.7107,0.4106,36.2800,84,94,215585
1.7498,0.4008,36.1900,84,94,215589
1.7302,0.4106,36.3100,84,94,215592
1.6813,0.4008,36.3400,84,94,215596
1.6667,0.4106,36.1300,84,94,215600
1.6569,0.4057,36.3100,84,94,215603
1.7253,0.4106,36.1600,84,94,215606
1.7449,0.4008,36.3100,84,94,215610
1.7302,0.3910,36.3400,84,94,215613
1.7058,0.4008,36.1600,84,94,215616
1.6667,0.4057,36.3400,84,94,215620
1.7107,0.4057,36.1300,84,94,215623
1.7400,0.4008,36.2800,84,94,215626
1.7644,0.3861,36.3400,84,94,215629
1.7498,0.4057,36.2500,84,94,215633
1.6911,0.4008,36.2800,84,94,215636
1.6764,0.4106,36.0100,84,94,215640
1.6569,0.4008,36.2800,84,94,215644
1.7302,0.4008,36.2500,84,94,215647
1.7791,0.3959,36.3100,84,94,215650
1.7351,0.4106,36.3400,84,94,215654
1.7253,0.4203,36.0100,84,94,215657
1.6764,0.4301,36.1900,84,94,215660
1.6911,0.3861,36.2800,84,94,215664
1.7644,0.4008,36.3100,84,94,215667
1.7595,0.4008,36.3400,84,94,215670
1.7742,0.4106,36.1600,84,94,215674
1.7058,0.4057,36.3700,84,94,215677
1.6862,0.4301,36.1900,84,94,215681
1.7058,0.4008,36.3100,84,94,215684
1.7546,0.4008,36.3100,84,94,215688
1.7986,0.4106,36.1600,84,94,215691
1.7400,0.4008,36.2500,84,94,215694
1.7009,0.4106,36.2200,84,94,215698
1.6569,0.4008,36.3400,84,94,215701
1.6960,0.4106,36.3400,84,94,215704
1.7546,0.4008,36.2500,84,94,215708
1.7644,0.4203,36.3100,84,94,215711
1.7449,0.4057,36.1000,84,94,215714
1.6862,0.4008,36.3100,84,94,215718
1.6764,0.4008,36.3100,84,94,215721
1.7449,0.4106,36.2200,84,94,215725
1.7889,0.4008,36.2800,84,94,215729
1.8280,0.4106,36.0400,84,94,215732
1.7595,0.4057,36.2500,84,94,215735
1.6911,0.4008,36.3400,84,94,215738
1.7058,0.4057,36.2500,84,94,215742
1.7351,0.4057,36.3400,84,94,215745
1.8280,0.3861,36.0100,84,94,215748
1.7986,0.4057,36.1600,84,94,215752
1.7351,0.3959,36.2800,84,94,215755
1.7204,0.4057,36.2800,84,94,215758
1.6813,0.4008,36.3400,84,94,215762
1.7644,0.4154,36.1600,84,94,215766
1.7791,0.4057,36.2500,84,94,215769
1.7742,0.3959,36.1900,84,94,215773
1.7155,0.4008,36.3400,84,94,215776
1.6862,0.4008,36.3100,84,94,215779
1.7155,0.4057,36.2500,84,94,215783
1.7644,0.3959,36.3100,84,94,215786
1.8182,0.4106,36.1900,84,94,215789
1.7889,0.4008,36.3400,84,94,215793
1.7351,0.4008,36.3400,84,94,215796
1.7253,0.4008,36.1900,84,94,215799
1.7253,0.4008,36.2800,84,94,215802
1.7937,0.4008,36.1000,84,94,215806
1.8035,0.4008,36.2200,84,94,215810
1.7791,0.4008,36.1900,84,94,215813
1.7498,0.4154,36.1900,84,94,215817
1.6960,0.4057,36.3100,84,94,215820
1.7546,0.4106,36.0400,84,94,215823
1.7791,0.4008,36.2500,84,94,215827
1.8084,0.4008,36.3400,84,94,215830
1.8035,0.4057,36.4000,84,94,215833
1.7449,0.4106,36.3100,84,94,215837
1.7742,0.4154,35.9800,84,94,215840
1.7889,0.3959,36.2200,84,94,215843
1.8377,0.3959,36.2800,84,94,215847
1.8817,0.3861,36.3100,84,94,215851
1.8671,0.4008,36.3100,84,94,215854
1.8719,0.4154,36.1600,84,94,215857
1.8182,0.4350,36.2500,84,94,215861
1.8524,0.4057,36.1900,84,94,215864
1.8768,0.4008,36.3100,84,94,215867
1.8719,0.4008,36.3400,84,94,215871
1.8426,0.4106,36.1000,84,94,215874
1.7498,0.4008,36.3100,84,94,215877
1.7400,0.4106,36.1300,84,94,215881
1.7498,0.4008,36.3100,84,94,215884
1.7937,0.4008,36.3700,84,94,215887
1.8182,0.3861,36.1900,84,94,215891
1.7546,0.4008,36.3100,84,94,215895
1.7302,0.4057,36.1000,84,94,215898
1.6862,0.4008,36.3400,84,94,215902
1.7546,0.4008,36.3100,84,94,215905
1.7693,0.4057,36.3100,84,94,215908
1.7546,0.4252,36.3100,84,94,215911
1.7498,0.4106,36.0100,84,94,215915
1.6716,0.3959,36.2800,84,94,215918
1.6618,0.4008,36.3700,84,94,215921
1.7400,0.3959,36.3100,84,94,215925
1.7498,0.4008,36.3100,84,94,215928
1.7937,0.4252,36.0400,84,94,215931
1.7155,0.4057,36.3400,84,94,215936
1.6667,0.4008,36.2800,84,94,215939
1.6911,0.4057,36.3700,84,94,215942
1.7498,0.4008,36.3400,84,94,215946
1.8426,0.4106,36.1300,84,94,215949
1.8084,0.4057,36.2500,84,94,215952
1.7595,0.4057,36.1900,84,94,215956
1.7155,0.3959,36.3100,84,94,215959
1.7400,0.4008,36.3400,84,94,215962
1.8084,0.4106,36.1900,84,94,215966
1.8133,0.4008,36.3100,84,94,215969
1.8328,0.4057,36.2500,84,94,215972
1.8133,0.4008,36.3100,84,94,215975
1.8768,0.4008,36.2800,84,94,215980
1.9844,0.4057,36.2200,84,94,215983
2.0430,0.4008,36.3100,84,94,215986
2.0723,0.4008,36.1300,84,94,215990
1.9501,0.4008,36.3100,84,94,215993
1.7840,0.4008,36.3100,84,94,215996
1.6276,0.4057,36.2500,84,94,216000
1.7155,0.4057,36.3100,84,94,216003
1.7644,0.4008,36.3100,84,94,216007
1.9013,0.4252,36.0700,84,94,216010
1.9355,0.4106,36.1900,84,94,216013
1.9404,0.3861,36.2500,84,94,216017
1.8964,0.4008,36.3100,84,94,216020
1.8328,0.4008,36.3100,84,94,216024
1.8328,0.4106,36.0400,84,94,216027
1.8426,0.3959,36.2800,84,94,216031
1.8866,0.4057,36.1900,84,94,216034
1.8671,0.3959,36.3400,84,94,216037
1.8280,0.4106,36.3400,84,94,216041
1.7889,0.4008,36.2500,84,94,216044
1.7644,0.4203,36.3100,84,94,216047
1.8280,0.4057,36.1900,84,94,216051
1.8524,0.4008,36.3100,84,94,216054
1.8524,0.4008,36.3100,84,94,216057
1.8328,0.4106,36.2500,84,94,216061
1.7595,0.4008,36.3100,84,94,216065
1.7693,0.4057,36.0700,84,94,216068
1.7889,0.4057,36.1900,84,94,216072
1.8182,0.4008,36.3100,84,94,216075
1.8475,0.4106,36.2200,84,94,216078
1.7840,0.4057,36.3400,84,94,216082
1.7937,0.4154,35.9800,84,94,216085
1.7595,0.4008,36.1900,84,94,216088
1.8182,0.3959,36.3400,84,94,216091
1.8671,0.4008,36.3100,84,94,216095
1.8573,0.3959,36.3400,84,94,216098
1.8671,0.4203,36.1000,84,94,216101
1.7791,0.4057,36.2500,84,94,216105
1.7791,0.4106,36.2800,84,94,216109
1.8231,0.4008,36.3100,84,94,216112
1.8622,0.3959,36.3400,84,94,216116
1.8817,0.4106,36.2200,84,94,216119
1.8035,0.4057,36.3100,84,94,216122
1.7889,0.4057,36.1600,84,94,216126
1.7937,0.4057,36.3100,84,94,216129
1.8524,0.4008,36.5200,84,94,216132
1.9306,0.4203,36.1600,84,94,216136
1.9062,0.4008,36.3100,84,94,216139
1.8964,0.4057,36.1600,84,94,216142
1.8426,0.3959,36.3100,84,94,216146
1.8817,0.3959,36.3400,84,94,216150
1.9501,0.4154,36.1300,84,94,216153
1.9648,0.4008,36.3100,84,94,216156
1.9844,0.4106,36.0700,84,94,216160
1.9159,0.3959,36.2800,84,94,216163
1.8915,0.4008,36.3100,84,94,216166
1.9404,0.4008,36.2500,84,94,216170
1.9941,0.4008,36.3100,84,94,216173
2.0870,0.4154,35.6600,84,94,216176
2.0283,0.4008,36.2500,84,94,216180
1.9892,0.4008,36.4900,84,94,216183
1.9844,0.4106,36.3100,84,94,216186
2.0235,0.3959,36.3100,84,94,216190
2.1457,0.4203,36.0700,84,94,216194
2.1261,0.4008,36.2800,84,94,216197
2.0968,0.4154,36.1900,84,94,216201
2.0430,0.4008,36.4000,84,94,216204
2.0235,0.4008,36.4300,84,94,216207
2.1017,0.4057,36.1000,84,94,216210
2.1310,0.4057,36.2800,84,94,216214
2.1408,0.4057,36.1600,84,94,216217
2.0919,0.4008,36.3100,84,94,216220
2.0186,0.4008,36.3100,84,94,216224
2.0039,0.4106,36.1600,84,94,216227
2.0137,0.4057,36.3100,84,94,216230
2.0332,0.4057,36.1600,84,94,216235
1.9746,0.4203,36.3100,84,94,216238
1.9062,0.4008,36.3100,84,94,216241
1.8377,0.4057,36.2200,84,94,216244
1.7840,0.4008,36.3400,84,94,216248
1.7889,0.4057,36.0700,84,94,216251
1.7693,0.4008,36.3100,84,94,216254
1.7400,0.4008,36.3400,84,94,216258
1.6862,0.4106,36.2200,84,94,216261
1.6031,0.4106,36.3100,84,94,216264
1.6129,0.4106,36.0400,84,94,216268
1.6227,0.4106,36.1900,84,94,216271
1.6422,0.3861,36.4000,84,94,216274
1.6520,0.4057,36.2800,84,94,216279
1.5836,0.4008,36.3400,84,94,216282
1.5787,0.4203,35.9800,84,94,216285
1.5396,0.4057,36.2800,84,94,216289
1.5640,0.4203,36.2500,84,94,216292
1.6080,0.4057,36.2800,84,94,216295
1.6080,0.4008,36.3400,84,94,216298
1.6129,0.4252,36.1600,84,94,216302
1.5543,0.4057,36.2800,84,94,216305
1.5689,0.3959,36.1600,84,94,216308
1.6129,0.4008,36.4000,84,94,216312
1.6471,0.4008,36.3400,84,94,216315
1.6569,0.4057,36.2500,84,94,216318
1.5982,0.4252,36.2800,84,94,216323
1.5787,0.4057,36.1600,84,94,216326
1.5787,0.4008,36.3400,84,94,216329
1.6422,0.4008,36.4000,84,94,216333
1.7058,0.4057,36.1900,84,94,216336
1.6862,0.4008,36.3100,84,94,216339
1.6667,0.4057,36.1900,84,94,216343
1.6227,0.3959,36.2200,84,94,216346
1.6276,0.4008,36.3400,84,94,216349
1.7009,0.4057,36.1900,84,94,216352
1.7253,0.4008,36.4000,84,94,216356
1.7400,0.4448,36.0100,84,94,216359
1.6667,0.3861,36.2500,84,94,216363
1.6373,0.4106,36.3100,84,94,216367
1.6764,0.4057,36.2800,84,94,216370
1.7204,0.4008,36.3400,84,94,216373
1.8084,0.4154,35.9800,84,94,216377
1.7302,0.4008,36.2200,84,94,216380
1.6764,0.3861,36.2800,84,94,216383
1.6569,0.4252,36.3100,84,94,216387
1.6862,0.4008,36.3700,84,94,216390
1.7791,0.4203,36.1600,84,94,216393
1.7742,0.4057,36.2800,84,94,216397
1.7449,0.3959,36.1900,84,94,216400
1.6813,0.4008,36.1900,84,94,216403
1.6862,0.3959,36.3100,84,94,216407
1.7302,0.4106,36.1300,84,94,216411
1.7693,0.4008,36.3100,84,94,216414
1.7986,0.4057,36.2200,84,94,216417
1.7400,0.4008,36.3100,84,94,216421
1.6960,0.3959,36.3400,84,94,216424
1.6960,0.4057,36.1600,84,94,216427
1.7302,0.4008,36.3100,84,94,216431
1.7937,0.4008,36.1000,84,94,216434
1.7937,0.3959,36.2800,84,94,216437
1.7546,0.4008,36.3100,84,94,216441
1.7204,0.4057,36.2500,84,94,216444
1.6911,0.4008,36.3100,84,94,216448
1.7546,0.4106,36.0100,84,94,216452
1.7644,0.4008,36.3400,84,94,216455
1.7742,0.3959,36.3100,84,94,216458
1.7449,0.4057,36.2500,84,94,216461
1.6862,0.4008,36.4000,84,94,216465
1.7204,0.4154,35.9800,84,94,216468
1.7498,0.4057,36.2200,84,94,216471
1.7546,0.3959,36.2800,84,94,216475
1.7595,0.4008,36.3100,84,94,216478
1.7155,0.4008,36.3100,84,94,216481
1.7400,0.4203,36.0700,84,94,216485
1.7204,0.4057,36.2500,84,94,216488
1.7644,0.3959,36.1900,84,94,216492
1.7986,0.4008,36.3100,84,94,216496
1.7889,0.4057,36.3100,84,94,216499
1.7693,0.4106,36.1900,84,94,216502
1.7155,0.4008,36.2800,84,94,216506
1.7644,0.4057,36.1600,84,94,216509
1.7840,0.3959,36.1600,84,94,216512
1.8280,0.4008,36.3100,84,94,216515
1.8280,0.4008,36.2200,84,94,216519
1.7791,0.4008,36.3100,84,94,216522
1.7791,0.4057,36.1600,84,94,216525
1.7791,0.3959,36.3400,84,94,216529
1.8377,0.4008,36.1300,84,94,216532
1.9257,0.4057,36.2200,84,94,216536
1.8719,0.4008,36.3100,84,94,216540
1.8719,0.4106,36.0400,84,94,216543
1.8133,0.4497,36.2200,84,94,216546
1.7986,0.4008,36.3400,84,94,216550
1.8524,0.4301,36.2200,84,94,216553
1.8622,0.4008,36.3100,84,94,216556
1.8719,0.4448,35.9800,84,94,216560
1.7791,0.4057,36.1000,84,94,216563
1.7302,0.3910,36.2800,84,94,216566
1.7400,0.3861,36.3100,84,94,216569
1.7791,0.4008,36.3100,84,94,216573
1.8719,0.4154,36.1000,84,94,216577
1.7889,0.4057,36.1000,84,94,216580
1.7693,0.4057,36.2200,84,94,216584
1.7155,0.4008,36.2800,84,94,216587
1.7644,0.4008,36.3100,84,94,216590
1.8426,0.4057,36.2200,84,94,216594
1.8377,0.4008,36.3100,84,94,216597
1.8133,0.4057,36.1300,84,94,216600
1.7400,0.4008,36.3400,84,94,216604
1.7351,0.4008,36.3100,84,94,216607
1.7986,0.4057,36.2200,84,94,216610
1.7595,0.4057,36.3700,84,94,216614
1.7937,0.4008,36.3400,84,94,216617
1.8964,0.4106,36.0100,84,94,216622
1.8622,0.3959,36.2200,84,94,216625
1.8231,0.4008,36.3400,84,94,216628
1.7840,0.4154,36.2800,84,94,216632
1.7791,0.4008,36.3100,84,94,216635
1.8719,0.4252,36.0700,84,94,216638
1.8671,0.4057,36.2500,84,94,216642
1.8377,0.4008,36.2200,84,94,216645
1.7889,0.4008,36.3100,84,94,216648
1.7742,0.4008,36.3400,84,94,216651
1.8328,0.4106,36.2200,84,94,216655
1.8671,0.3959,36.3100,84,94,216658
1.9110,0.4008,36.1600,84,94,216662
1.9013,0.3959,36.3100,84,94,216666
1.9110,0.4008,36.4000,84,94,216669
2.0137,0.4301,36.1600,84,94,216672
2.0968,0.4057,36.3100,84,94,216676
2.2092,0.4106,36.1900,84,94,216679
2.2043,0.3959,36.2200,84,94,216682
2.1212,0.4008,36.3700,84,94,216686
1.9746,0.4106,36.1600,84,94,216689
1.7498,0.4008,36.3100,84,94,216692
1.6227,0.4106,36.0700,84,94,216696
1.5738,0.4008,36.4300,84,94,216699
1.6178,0.4008,36.3400,84,94,216702
1.6911,0.4057,36.2500,84,94,216706
1.7058,0.4154,36.3100,84,94,216710
1.7889,0.4057,35.9800,84,94,216713
1.8377,0.4106,36.2500,84,94,216716
1.8915,0.4008,36.3400,84,94,216720
1.9159,0.4008,36.3100,84,94,216723
1.8622,0.4008,36.3100,84,94,216726
1.8573,0.4350,36.0400,84,94,216730
1.7644,0.4057,36.2800,84,94,216733
1.7742,0.4008,36.3100,84,94,216736
1.8084,0.4008,36.2800,84,94,216740
1.8182,0.4008,36.3400,84,94,216743
1.8231,0.4106,36.1000,84,94,216747
1.7595,0.4057,36.2500,84,94,216750
1.7498,0.4057,36.1900,84,94,216754
1.7742,0.4008,36.2200,84,94,216757
1.8328,0.4008,36.3100,84,94,216760
1.8719,0.4057,36.2500,84,94,216764
1.8231,0.3959,36.3100,84,94,216767
1.7840,0.4057,36.3400,84,94,216770
1.7449,0.4008,36.3100,84,94,216774
1.7937,0.4008,36.3100,84,94,216777
1.8719,0.3959,36.2200,84,94,216780
1.8426,0.4008,36.3700,84,94,216784
1.8231,0.4154,36.0700,84,94,216787
1.7498,0.4106,36.3400,84,94,216791
1.7498,0.4008,36.3400,84,94,216795
1.8133,0.4057,36.2500,84,94,216798
1.8622,0.4008,36.3700,84,94,216801
1.9110,0.4497,35.9800,84,94,216805
1.8426,0.3861,36.2500,84,94,216808
1.7840,0.4057,36.2800,84,94,216811
1.7937,0.4057,36.4300,84,94,216814
1.8426,0.4106,36.3400,84,94,216818
1.9404,0.4203,36.1000,84,94,216821
1.9062,0.4154,36.1900,84,94,216824
1.8475,0.4008,36.2200,84,94,216828
1.8133,0.4154,36.3100,84,94,216832
1.8377,0.4008,36.3400,84,94,216835
1.9306,0.4154,36.1300,84,94,216839
1.9648,0.4057,36.2800,84,94,216842
1.9697,0.4057,36.1600,84,94,216845
1.9013,0.3861,36.3100,84,94,216849
1.8719,0.4106,36.3400,84,94,216852
1.9062,0.4008,36.2200,84,94,216855
1.9550,0.3959,36.2800,84,94,216859
2.0235,0.4106,36.1600,84,94,216862
1.9795,0.4057,36.3400,84,94,216865
1.9355,0.3959,36.3400,84,94,216869
1.9404,0.4057,36.2200,84,94,216872
1.9501,0.4008,36.3400,84,94,216876
2.0528,0.4008,36.0400,84,94,216879
2.0821,0.4057,36.1600,84,94,216883
2.0528,0.4008,36.3100,84,94,216886
2.0430,0.4057,36.2200,84,94,216889
2.0137,0.4008,36.3100,84,94,216893
2.0870,0.4154,36.0100,84,94,216896
2.1359,0.4008,36.1900,84,94,216899
2.1261,0.4008,36.3400,84,94,216903
2.1212,0.4057,36.3100,84,94,216906
2.0723,0.3959,36.3100,84,94,216909
2.1065,0.4203,36.1000,84,94,216913
2.0919,0.4057,36.2500,84,94,216916
2.1261,0.3959,36.2500,84,94,216920
2.1554,0.3959,36.3100,84,94,216923
2.0723,0.3959,36.3100,84,94,216927
2.0332,0.4154,36.2200,84,94,216930
1.9550,0.4008,36.3100,84,94,216933
1.9648,0.4154,36.1600,84,94,216937
1.9648,0.4399,36.3100,84,94,216940
1.9404,0.4008,36.3100,84,94,216943
1.8915,0.4106,36.1600,84,94,216947
1.7742,0.4008,36.3100,84,94,216950
1.7449,0.4399,36.1600,84,94,216953
1.7204,0.3959,36.2800,84,94,216957
1.7351,0.4008,36.3100,84,94,216961
1.7253,0.4057,36.1000,84,94,216964
1.6520,0.4057,36.3100,84,94,216968
1.6178,0.4057,36.0700,84,94,216971
1.5738,0.3910,36.2500,84,94,216974
1.5982,0.4008,36.3100,84,94,216978
1.6422,0.4057,36.2500,84,94,216981
1.6227,0.4008,36.3400,84,94,216984
1.6080,0.4154,36.0100,84,94,216987
1.5298,0.4008,36.2800,84,94,216991
1.5396,0.4008,36.3100,84,94,216994
1.5982,0.3959,36.2800,84,94,216997
1.6325,0.4301,36.3100,84,94,217001
1.6764,0.4203,36.0700,84,94,217005
1.5982,0.4350,36.2200,84,94,217008
1.5494,0.4008,36.2200,84,94,217012
1.5591,0.4008,36.3100,84,94,217015
1.6129,0.4008,36.3400,84,94,217018
1.6862,0.4106,36.1000,84,94,217022
1.6618,0.4057,36.4000,84,94,217025
1.6227,0.4106,36.1600,84,94,217028
1.5738,0.4008,36.3400,84,94,217032
1.5934,0.4008,36.4300,84,94,217035
1.6618,0.4057,36.2200,84,94,217038
1.6813,0.4008,36.2200,84,94,217041
1.6911,0.4106,36.2200,84,94,217046
1.6276,0.4008,36.3100,84,94,217049
1.6080,0.4008,36.3400,84,94,217052
1.6422,0.4057,36.0100,84,94,217056
1.6862,0.3910,36.2500,84,94,217059
1.7449,0.4057,36.0700,84,94,217062
1.7498,0.4008,36.3400,84,94,217066
1.6764,0.4008,36.5500,84,94,217069
1.6911,0.4497,36.2200,84,94,217072
1.7253,0.4008,36.3700,84,94,217076
1.8768,0.4106,36.0100,84,94,217079
1.8524,0.4057,36.1900,84,94,217082
1.8084,0.4154,36.3400,84,94,217086
1.7644,0.4057,36.1300,84,94,217090
1.7253,0.3959,36.3100,84,94,217093
1.7937,0.4252,36.1000,84,94,217096
1.8035,0.4154,36.2200,84,94,217100
1.8084,0.4008,36.1900,84,94,217103
1.7791,0.4057,36.3100,84,94,217106
1.7107,0.4008,36.5200,84,94,217110
1.7107,0.4154,36.1600,84,94,217113
1.7107,0.4008,36.3100,84,94,217116
1.7840,0.4154,36.1600,84,94,217120
1.7546,0.4008,36.4300,84,94,217123
1.7351,0.3959,36.3400,84,94,217126
1.6764,0.4008,36.2500,84,94,217131
1.6520,0.4106,36.3100,84,94,217134
1.7058,0.4106,35.8700,84,94,217137
1.7302,0.4008,36.3100,84,94,217141
1.7351,0.4008,36.3100,84,94,217144
1.7155,0.4057,36.1900,84,94,217147
1.6569,0.4399,36.3400,84,94,217151
1.6813,0.4106,36.1000,84,94,217154
1.7058,0.4057,36.1900,84,94,217157
1.7351,0.4008,36.3100,84,94,217160
1.7546,0.4203,36.2500,84,94,217164
1.7107,0.4008,36.3100,84,94,217167
1.7009,0.4154,36.0100,84,94,217170
1.6813,0.4008,36.1900,84,94,217175
1.7302,0.4008,36.2500,84,94,217178
1.8377,0.3959,36.2800,84,94,217181
1.8035,0.4008,36.2800,84,94,217185
1.7986,0.4203,36.1000,84,94,217188
1.7107,0.4057,36.1600,84,94,217191
1.7204,0.3959,36.2200,84,94,217195
1.8231,0.4057,35.5400,84,94,217198
1.9648,0.3861,36.3400,84,94,217201
2.1114,0.4154,36.2200,84,94,217205
2.1163,0.4008,36.4900,84,94,217208
2.0968,0.4008,36.1600,84,94,217211
2.0235,0.4008,36.4600,84,94,217216
1.9355,0.4008,36.3100,84,94,217219
1.8231,0.4106,36.1600,84,93,217222
1.7840,0.4154,36.2200,84,93,217227
1.8671,0.3861,36.3100,84,93,217230
1.9257,0.4497,35.9800,84,93,217234
1.8573,0.4008,36.2800,84,93,217237
1.8182,0.3959,36.3400,84,93,217240
1.8426,0.4057,36.2800,84,93,217243
1.8719,0.4057,36.3100,84,93,217247
1.9453,0.4057,36.0100,84,93,217250
1.8719,0.4154,36.2200,84,93,217253
1.8084,0.4008,36.2500,84,93,217257
1.7840,0.4008,36.2800,84,93,217261
1.8133,0.4008,36.3400,84,93,217264
1.9013,0.4154,36.1300,84,93,217268
1.8964,0.4008,36.2800,84,93,217271
1.8768,0.4057,36.2800,84,93,217274
1.8133,0.3861,36.3100,84,93,217278
1.7986,0.4106,36.3400,84,93,217281
1.8719,0.4154,36.1600,84,93,217284
1.8964,0.4008,36.3100,84,93,217288
1.9257,0.4106,36.1900,84,93,217291
1.8524,0.4008,36.2500,84,93,217294
1.8035,0.4008,36.3400,84,93,217298
1.8084,0.3959,36.1900,84,93,217302
1.8377,0.4008,36.3100,84,93,217305
1.9159,0.4057,36.1000,84,93,217308
1.9013,0.4008,36.2500,84,93,217312
1.8573,0.4008,36.3400,84,93,217315
1.8280,0.4106,36.2200,84,93,217318
1.8182,0.4008,36.3100,84,93,217322
1.9013,0.4203,36.0100,84,93,217325
1.9062,0.4008,36.6400,84,93,217328
1.9159,0.4057,36.3100,84,93,217332
1.8817,0.4057,36.2800,84,93,217335
1.8280,0.3959,36.3400,84,93,217338
1.8866,0.4203,36.0400,84,93,217342
1.8915,0.4057,36.2500,84,93,217346
1.9355,0.4008,35.5700,84,93,217349
1.9404,0.3861,36.3100,84,93,217353
1.8866,0.4008,36.3100,84,93,217356
1.9110,0.4106,36.1000,84,93,217359
1.8866,0.4057,36.2800,84,93,217362
1.9501,0.4057,36.1600,84,93,217366
1.9746,0.4008,36.3400,84,93,217369
1.9648,0.3959,36.3100,84,93,217372
1.9501,0.4106,36.1900,84,93,217376
1.8964,0.4106,36.3100,84,93,217379
1.9550,0.4057,36.4000,84,93,217382
1.9941,0.3959,36.3100,84,93,217387
2.0381,0.4008,36.3100,84,93,217390
2.0381,0.4057,36.1900,84,93,217393
1.9844,0.4008,36.3100,84,93,217397
1.9892,0.4057,36.0700,84,93,217400
1.9941,0.4008,36.3100,84,93,217403
2.0528,0.4008,36.3100,84,93,217407
2.1017,0.4057,36.2500,84,93,217410
2.0772,0.4057,36.3100,84,93,217413
2.0821,0.4106,36.0400,84,93,217416
2.0235,0.4057,36.2200,84,93,217420
2.0283,0.4301,36.3100,84,93,217423
2.0968,0.4057,36.2800,84,93,217426
2.1017,0.4008,36.3100,84,93,217431
2.1114,0.4252,36.0100,84,93,217434
2.0235,0.4106,36.1600,84,93,217437
1.9550,0.4008,36.2500,84,93,217441
1.9550,0.4057,36.3100,84,93,217444
2.0039,0.4008,36.3100,84,93,217447
1.9941,0.4154,36.1300,84,93,217451
1.8866,0.4057,36.2800,84,93,217454
1.8035,0.4008,36.1600,84,93,217457
1.7302,0.4106,36.3100,84,93,217460
1.7253,0.4008,36.4300,84,93,217464
1.7546,0.4154,36.2800,84,93,217467
1.7204,0.4008,36.3700,84,93,217470
1.6716,0.4448,36.1600,84,93,217475
1.5787,0.4008,36.2200,84,93,217478
1.5347,0.4008,36.3400,84,93,217481
1.5934,0.4057,36.2200,84,93,217485
1.6080,0.4008,36.3100,84,93,217488
1.6276,0.4057,36.0700,84,93,217491
1.5689,0.4008,36.2200,84,93,217495
1.5152,0.4008,36.3100,84,93,217498
1.5298,0.4057,36.1900,84,93,217501
1.5640,0.4008,36.3400,84,93,217505
1.6569,0.4154,36.0100,84,93,217508
1.6471,0.4008,36.2500,84,93,217511
1.6080,0.4008,36.3100,84,93,217516
1.5836,0.4106,36.2800,84,93,217519
1.5738,0.4008,36.1900,84,93,217522
1.7009,0.4203,36.0100,84,93,217525
1.6813,0.4008,36.1900,84,93,217529
1.7155,0.4008,36.2500,84,93,217532
1.6422,0.4008,36.3400,84,93,217535
1.6422,0.3959,36.3400,84,93,217539
1.6618,0.4154,36.1300,84,93,217542
1.7009,0.4057,36.2800,84,93,217545
1.7449,0.4008,36.1600,84,93,217549
1.7302,0.4008,36.3100,84,93,217552
1.6813,0.4008,36.3100,84,93,217555
1.6813,0.4106,36.1300,84,93,217560
1.6716,0.4106,36.3100,84,93,217563
1.7400,0.3861,36.1900,84,93,217566
1.7546,0.3959,36.2800,84,93,217570
1.7449,0.4008,36.3100,84,93,217573
1.7107,0.4154,36.1600,84,93,217576
1.6716,0.3861,36.3100,84,93,217579
1.7155,0.4057,36.0700,84,93,217583
1.7498,0.4008,36.2500,84,93,217586
1.7840,0.4154,36.3100,84,93,217589
1.7840,0.3861,36.2500,84,93,217593
1.7204,0.4008,36.3100,84,93,217596
1.7400,0.4057,36.0100,84,93,217600
1.7302,0.4350,36.2200,84,93,217604
1.7889,0.4008,36.3400,84,93,217607
1.8231,0.4057,36.4900,84,93,217610
1.7840,0.4008,36.3100,84,93,217614
1.7937,0.4252,36.0400,84,93,217617
1.7351,0.3959,36.2200,84,93,217620
1.7498,0.3959,36.2500,84,93,217624
1.7986,0.4008,36.3100,84,93,217627
1.8182,0.4008,36.4900,84,93,217630
1.8328,0.4057,36.1000,84,93,217633
1.7644,0.4057,36.2500,84,93,217637
1.7449,0.4594,36.1900,84,93,217640
1.7693,0.4008,36.4600,84,93,217644
1.8182,0.4057,36.3100,84,93,217648
1.8573,0.4057,36.1900,84,93,217651
1.7986,0.4057,36.2800,84,93,217654
1.7742,0.4057,36.1900,84,93,217658
1.7302,0.4008,36.3100,84,93,217661
1.7742,0.4008,36.3400,84,93,217664
1.8328,0.4057,36.2200,84,93,217668
1.8426,0.4008,36.3100,84,93,217671
1.8182,0.3861,36.1000,84,93,217674
1.7742,0.4008,36.3100,84,93,217678
1.7351,0.4008,36.3100,84,93,217681
1.8035,0.4154,36.2200,84,93,217684
1.8377,0.4008,36.4000,84,93,217688
1.8817,0.4106,35.9500,84,93,217692
1.8182,0.4057,36.1900,84,93,217695
1.7546,0.4008,36.3100,84,93,217698
1.7693,0.4057,36.2500,84,93,217702
1.7986,0.4008,36.3700,84,93,217705
1.8964,0.4399,35.9800,84,93,217708
1.8622,0.4057,35.5100,84,93,217712
1.8182,0.4008,36.2800,84,93,217715
1.7742,0.4008,36.3100,84,93,217718
1.7742,0.4057,36.3400,84,93,217722
1.8671,0.4154,36.1300,84,93,217725
1.8915,0.4057,36.2500,84,93,217729
1.8622,0.4008,36.1900,84,93,217733
1.8133,0.4057,36.3100,84,93,217736
1.7644,0.4008,36.3100,84,93,217739
1.8035,0.4057,36.2200,84,93,217742
1.8328,0.4008,36.5200,84,93,217746
1.8866,0.4008,36.1600,84,93,217749
1.8475,0.4008,36.3700,84,93,217752
1.7937,0.3959,36.3100,84,93,217756
1.7742,0.4106,36.1900,84,93,217759
1.7742,0.3959,36.2800,84,93,217762
1.8475,0.4057,36.2500,84,93,217766
1.8622,0.4008,36.1900,84,93,217769
1.8426,0.4008,36.3400,84,93,217773
1.8328,0.4203,36.1900,84,93,217777
1.7693,0.4008,35.6600,84,93,217780
1.8280,0.4203,36.0100,84,93,217783
1.8524,0.4008,36.2500,84,93,217787
1.8671,0.4008,36.3100,84,93,217790
1.8426,0.4057,36.2800,84,93,217793
1.7840,0.4252,36.2200,84,93,217796
1.8084,0.4057,35.9800,84,93,217800
1.7986,0.4057,36.1900,84,93,217803
1.8524,0.3959,36.2500,84,93,217806
1.8719,0.4154,36.3400,84,93,217810
1.8426,0.4008,36.4000,84,93,217814
1.8377,0.4203,36.1300,84,93,217817
1.7791,0.4057,36.2800,84,93,217821
1.8133,0.4057,36.1600,84,93,217824
1.8524,0.4008,36.3700,84,93,217827
1.8622,0.4008,36.3100,84,93,217831
1.8622,0.4106,36.1000,84,93,217834
1.8768,0.4057,36.1300,84,93,217839
1.8377,0.4008,36.3100,84,93,217842
1.8328,0.4057,36.0700,84,93,217845
1.8328,0.4057,36.2500,84,93,217849
1.8866,0.4008,36.3100,84,93,217852
1.9599,0.4106,36.2500,84,93,217856
1.9501,0.4008,36.4000,84,93,217860
1.9453,0.4106,35.9500,84,93,217863
1.8377,0.4008,36.2200,84,93,217866
1.8133,0.3959,36.2200,84,93,217869
1.8573,0.4008,36.3100,84,93,217873
1.8866,0.4008,36.3100,84,93,217876
1.9648,0.4203,36.0700,84,93,217879
1.8377,0.4057,36.2500,84,93,217883
1.7791,0.3959,36.2200,84,93,217886
1.7644,0.4008,36.3100,84,93,217889
1.7986,0.3959,36.3100,84,93,217893
1.8719,0.4106,36.1000,84,93,217896
1.8426,0.4008,36.2800,84,93,217900
1.8035,0.4057,36.1600,84,93,217904
1.7498,0.4008,36.3100,84,93,217907
1.7595,0.4008,36.2200,84,93,217910
1.8573,0.4057,36.1900,84,93,217914
1.8426,0.4008,36.3400,84,93,217917
1.8475,0.4252,36.1300,84,93,217920
1.7644,0.3861,36.2800,84,93,217923
1.7253,0.3910,36.3100,84,93,217927
1.7449,0.4057,36.2200,84,93,217930
1.7840,0.4008,36.3100,84,93,217933
1.8377,0.4106,36.0700,84,93,217937
1.7840,0.3959,36.3100,84,93,217940
1.7351,0.3959,36.3100,84,93,217944
1.7155,0.4106,36.2500,84,93,217948
1.7253,0.4008,36.3400,84,93,217951
1.8573,0.4154,35.9800,84,93,217954
1.8133,0.4106,36.2500,84,93,217958
1.7791,0.3959,36.3100,84,93,217961
1.7302,0.3959,36.2800,84,93,217964
1.7058,0.4008,36.3400,84,93,217968
1.7840,0.4203,36.0700,84,93,217971
1.8035,0.4106,36.2200,84,93,217974
1.8133,0.4106,36.1900,84,93,217978
1.7889,0.4008,36.3100,84,93,217981
1.7498,0.4008,36.3400,84,93,217985
1.7546,0.4057,36.1600,84,93,217988
1.7693,0.4057,36.2800,84,93,217992
1.8719,0.3959,36.1900,84,93,217995
1.8866,0.4008,36.2800,84,93,217998
1.9501,0.4008,36.3400,84,93,218002
2.0186,0.4252,36.1900,84,93,218005
2.0479,0.3861,36.3100,84,93,218008
2.1065,0.4008,35.4500,84,93,218012
2.0626,0.4008,36.3100,84,93,218015
1.9355,0.4008,36.3100,84,93,218018
1.7351,0.4106,36.2200,84,93,218022
1.4907,0.4008,36.3400,84,93,218025
1.3978,0.4008,36.0400,84,93,218029
1.4321,0.4008,36.2200,84,93,218033
1.5591,0.4008,36.2800,84,93,218036
1.6911,0.4057,36.2200,84,93,218039
1.7253,0.4399,36.2800,84,93,218042
1.7986,0.4154,35.9800,84,93,218046
1.7937,0.4057,36.2200,84,93,218049
1.8328,0.3959,36.3100,84,93,218052
1.8671,0.4057,36.2800,84,93,218056
1.8573,0.4008,36.3400,84,93,218059
1.8573,0.4203,36.0700,84,93,218062
1.7791,0.4057,36.2500,84,93,218066
1.7742,0.4008,36.2200,84,93,218070
1.8084,0.3959,36.3100,84,93,218073
1.8426,0.4008,36.3100,84,93,218077
1.8622,0.4106,36.2200,84,93,218080
1.7889,0.4008,36.2800,84,93,218083
1.7595,0.4057,36.1600,84,93,218087
1.7595,0.3910,36.3100,84,93,218090
1.8133,0.4008,36.3700,84,93,218093
1.8719,0.4106,36.1600,84,93,218097
1.8426,0.4008,36.3700,84,93,218100
1.8182,0.4008,36.1600,84,93,218103
1.7644,0.3959,36.2200,84,93,218106
1.7937,0.4252,36.3100,84,93,218110
1.8671,0.4057,36.1300,84,93,218114
1.9110,0.3959,36.3100,84,93,218117
1.8866,0.4106,36.1300,84,93,218121
1.8035,0.4057,36.2800,84,93,218124
1.7644,0.4057,36.3100,84,93,218127
1.7986,0.4106,36.2500,84,93,218131
1.8426,0.4008,36.3100,84,93,218134
1.9110,0.4497,35.9800,84,93,218137
1.8426,0.4008,36.2500,84,93,218141
1.7840,0.4008,36.2800,84,93,218144
1.7693,0.4106,36.2200,84,93,218147
1.7937,0.4008,36.3400,84,93,218151
1.9013,0.4203,36.1000,84,93,218155
1.8915,0.4057,36.4000,84,93,218158
1.8671,0.4057,36.1900,84,93,218161
1.8133,0.4008,35.6600,84,93,218165
1.7937,0.4008,36.3100,84,93,218168
1.8622,0.4106,36.1000,84,93,218171
1.9110,0.4057,36.2500,84,93,218175
1.9453,0.4057,36.1300,84,93,218178
1.8915,0.4057,36.3100,84,93,218181
1.8475,0.4008,36.3400,84,93,218185
1.8622,0.4106,36.1900,84,93,218188
1.8915,0.4008,36.4600,84,93,218191
1.9795,0.4106,36.1600,84,93,218195
1.9746,0.4008,36.3100,84,93,218199
1.9648,0.3959,36.3400,84,93,218202
1.9355,0.4057,36.1300,84,93,218206
1.9355,0.3959,36.3100,84,93,218209
2.0283,0.4106,36.0400,84,93,218212
2.0528,0.3959,36.2800,84,93,218216
2.0626,0.4008,36.3700,84,93,218219
2.0381,0.4106,36.2800,84,93,218222
1.9892,0.4008,36.3400,84,93,218225
2.0528,0.4106,35.9800,84,93,218229
2.0772,0.3861,36.2200,84,93,218232
2.1114,0.3959,36.5200,84,93,218235
2.1261,0.4057,36.2800,84,93,218240
2.0772,0.4008,36.3400,84,93,218243
2.1017,0.4203,35.9000,84,93,218246
2.0772,0.4154,36.2500,84,93,218250
2.1017,0.3959,36.2200,84,93,218253
2.1163,0.4008,36.3100,84,93,218256
2.0870,0.4008,36.3400,84,93,218260
2.0674,0.4057,36.1600,84,93,218263
1.9697,0.4057,36.2800,84,93,218266
1.9453,0.4203,36.1600,84,93,218269
1.9306,0.4008,36.3100,84,93,218273
1.9550,0.3959,36.3100,84,93,218276
1.8817,0.4008,36.4900,84,93,218279
1.7742,0.4106,36.3400,84,93,218284
1.7204,0.4057,36.1900,84,93,218287
1.6618,0.4008,36.3100,84,93,218290
1.6716,0.3959,36.3100,84,93,218294
1.7009,0.4057,36.2200,84,93,218297
1.6422,0.3861,36.3100,84,93,218300
1.5982,0.4154,36.1000,84,93,218304
1.5396,0.3861,36.1900,84,93,218307
1.5347,0.4008,36.3100,84,93,218310
1.5885,0.4057,36.2200,84,93,218314
1.5836,0.4106,36.3100,84,93,218317
1.5885,0.4106,36.1300,84,93,218320
1.5152,0.4008,36.1600,84,93,218323
1.4858,0.4008,36.5200,84,93,218328
1.5152,0.4057,36.2800,84,93,218331
1.5591,0.4008,36.4900,84,93,218334
1.6276,0.4154,36.1000,84,93,218338
1.5591,0.4057,36.4900,84,93,218341
1.5152,0.3959,36.2200,84,93,218344
1.4956,0.4057,36.2800,84,93,218348
1.5200,0.4008,36.3100,84,93,218351
1.6178,0.4106,36.2200,84,93,218354
1.6276,0.4057,35.9500,84,93,218358
1.6080,0.4154,36.1900,84,93,218361
1.5347,0.4008,36.3400,84,93,218364
1.5200,0.4008,36.3100,84,93,218369
1.5787,0.4106,36.1600,84,93,218372
1.6080,0.4057,36.2800,84,93,218375
1.6520,0.3959,36.1600,84,93,218379
1.5885,0.3910,36.5200,84,93,218382
1.5543,0.3959,36.3100,84,93,218385
1.5543,0.4106,36.1300,84,93,218388
1.5787,0.4008,35.7500,84,93,218392
1.6618,0.4154,36.0400,84,93,218395
1.6569,0.4057,36.2800,84,93,218398
1.6227,0.3910,36.3100,84,93,218402
1.5885,0.4057,36.2800,84,93,218405
1.5738,0.4008,36.3400,84,93,218408
1.6618,0.4154,35.9800,84,93,218413
1.6813,0.4008,36.2200,84,93,218416
1.6813,0.3959,36.3100,84,93,218419
1.6764,0.4106,36.2800,84,93,218423
1.5982,0.4057,36.3100,84,93,218426
1.6520,0.4203,36.1300,84,93,218429
1.6764,0.4106,36.2200,84,93,218433
1.7155,0.4008,36.1600,84,93,218436
1.6960,0.4057,36.2200,84,93,218439
1.6471,0.4008,36.3700,84,93,218443
1.6325,0.4203,36.1000,84,93,218446
1.6520,0.3861,36.1300,84,93,218451
1.6129,0.4252,36.3400,84,93,218455
1.6618,0.4057,36.0400,84,93,218458
1.7058,0.4008,36.2500,84,93,218462
1.7400,0.4008,36.3400,84,93,218465
1.7351,0.4057,36.0700,84,93,218468
1.6716,0.4008,36.3100,84,93,218471
1.6716,0.4106,36.0100,84,93,218475
1.6520,0.4008,36.2200,84,93,218478
1.6960,0.4008,36.3100,84,93,218481
1.7449,0.4008,36.2800,84,93,218485
1.7155,0.4008,36.4000,84,93,218488
1.7107,0.4448,36.0400,84,93,218491
1.6520,0.4057,36.1900,84,93,218496
1.6764,0.4008,36.2200,84,93,218499
1.7302,0.4008,36.3100,84,93,218502
1.7351,0.4008,36.3100,84,93,218506
1.7253,0.4106,36.1300,84,93,218509
1.6764,0.4057,36.2800,84,93,218512
1.6716,0.4057,36.2200,84,93,218516
1.6911,0.4008,36.3100,84,93,218519
1.7400,0.4008,36.3700,84,93,218522
1.7742,0.4106,36.1900,84,93,218525
1.7204,0.4008,36.2800,84,93,218529
1.6862,0.4106,36.3400,84,93,218532
1.6618,0.4008,36.2800,84,93,218535
1.7155,0.4008,36.3100,84,93,218540
1.7840,0.4057,36.1900,84,93,218543
1.7937,0.4008,36.3100,84,93,218546
1.7693,0.4008,36.0700,84,93,218550
1.6862,0.4008,36.1600,84,93,218553
1.6667,0.3959,36.3100,84,93,218556
1.7253,0.4106,36.2200,84,93,218560
1.7400,0.4008,36.3100,84,93,218563
1.7693,0.4106,36.0700,84,93,218566
1.6960,0.4057,36.1600,84,93,218570
1.6178,0.4008,36.3400,84,93,218573
1.6227,0.4057,36.2800,84,93,218576
1.6520,0.4008,36.3400,84,93,218579
1.7449,0.4252,36.0400,84,93,218584
1.7351,0.4057,36.2500,84,93,218587
1.6911,0.3910,36.2500,84,93,218590
1.6569,0.4008,36.2800,84,93,218594
1.6667,0.4057,36.3100,84,93,218597
1.7498,0.4057,36.1600,84,93,218600
1.7693,0.4008,36.2500,84,93,218604
1.7742,0.4057,36.1900,84,93,218607
1.7155,0.4008,36.2800,84,93,218610
1.6813,0.4008,36.3100,84,93,218614
1.7009,0.4106,36.1900,84,93,218617
1.7400,0.4008,36.2800,84,93,218620
1.7791,0.4057,36.1900,84,93,218624
1.7302,0.4057,36.3100,84,93,218628
1.6764,0.4008,36.3100,84,93,218631
1.6520,0.4448,36.1600,84,93,218634
1.6422,0.4008,36.2800,84,93,218638
1.7058,0.4301,36.0700,84,93,218641
1.7253,0.4008,36.1900,84,93,218644
1.7058,0.4008,36.4000,84,93,218648
1.6716,0.4057,36.1600,84,93,218651
1.6276,0.4008,36.3100,84,93,218654
1.6911,0.4106,36.0100,84,93,218658
1.7204,0.3959,36.2500,84,93,218661
1.7498,0.4008,36.3100,84,93,218664
1.7449,0.4057,36.2800,84,93,218669
1.7009,0.4106,36.3100,84,93,218672
1.7253,0.4154,36.0100,84,93,218675
1.7107,0.4057,36.2200,84,93,218678
1.7351,0.3959,36.2800,84,93,218682
1.7840,0.4008,36.2800,84,93,218685
1.8328,0.4008,36.3400,84,93,218688
1.9453,0.4154,36.1600,84,93,218692
2.0088,0.4057,36.1900,84,93,218695
2.0821,0.4106,36.1600,84,93,218698
2.0870,0.4008,36.2800,84,93,218702
2.0088,0.3959,36.3100,84,93,218705
1.8524,0.4106,36.1300,84,93,218708
1.5934,0.4106,36.3400,84,93,218713
1.4418,0.4106,36.1900,84,93,218716
1.4076,0.4350,36.2800,84,93,218719
1.5054,0.4008,36.3100,84,93,218723
1.6471,0.4057,36.1600,84,93,218726
1.7302,0.4008,36.3100,84,93,218729
1.7351,0.4057,36.1300,84,93,218732
1.7400,0.4154,36.2500,84,93,218736
1.7986,0.4008,36.3100,84,93,218739
1.8475,0.4154,36.1900,84,93,218742
1.8377,0.4008,36.3100,84,93,218746
1.8231,0.4203,36.0100,84,93,218749
1.7253,0.3959,36.2800,84,93,218753
1.7204,0.4008,36.2800,84,93,218757
1.7840,0.4057,36.2800,84,93,218760
1.8084,0.3959,36.3100,84,93,218763
1.8524,0.4154,35.9500,84,93,218767
1.7595,0.4106,36.1600,84,93,218770
1.6960,0.3959,36.1900,84,93,218773
1.6960,0.4008,36.3100,84,93,218777
1.7302,0.4008,36.3700,84,93,218780
1.8133,0.4154,36.0700,84,93,218783
1.7889,0.4057,36.1300,84,93,218787
1.7400,0.4106,36.1600,84,93,218790
1.6764,0.4008,36.5200,84,93,218793
1.6716,0.4057,36.3100,84,93,218797
1.7449,0.4106,36.2200,84,93,218801
1.7693,0.3959,36.2800,84,93,218804
1.7840,0.4106,36.1600,84,93,218807
1.7204,0.3959,36.3100,84,93,218811
1.7009,0.4008,36.3400,84,93,218814
1.7351,0.4106,36.2200,84,93,218817
1.7840,0.4008,36.3100,84,93,218821
1.8328,0.4008,36.0700,84,93,218824
1.7889,0.4008,36.3100,84,93,218827
1.7400,0.4008,36.1900,84,93,218831
1.7351,0.4154,36.1900,84,93,218834
1.7449,0.4008,36.3100,84,93,218838
1.8426,0.4106,36.0100,84,93,218842
1.8622,0.4057,36.5500,84,93,218845
1.8280,0.4008,36.3100,84,93,218848
1.7986,0.4057,36.2200,84,93,218851
1.7644,0.4008,36.3100,84,93,218855
1.8524,0.4154,35.8400,84,93,218858
1.8866,0.3861,36.1600,84,93,218861
1.9110,0.4252,36.2500,84,93,218865
1.8866,0.4057,36.3100,84,93,218868
1.8377,0.4203,36.3400,84,93,218871
1.8768,0.4154,36.1300,84,93,218875
1.8915,0.4106,36.2800,84,93,218878
1.9550,0.4008,36.1600,84,93,218882
1.9648,0.4008,36.2800,84,93,218886
1.9404,0.3861,36.3100,84,93,218889
1.9257,0.4106,36.2200,84,93,218892
1.9110,0.4008,36.3100,84,93,218896
1.9892,0.4301,36.1600,84,93,218899
2.0235,0.4008,36.1900,84,93,218902
2.0479,0.3959,36.3400,84,93,218905
2.0577,0.4106,36.1600,84,93,218909
1.9990,0.4008,36.3100,84,93,218912
2.0235,0.4008,36.1000,84,93,218915
2.0479,0.3861,36.2200,84,93,218919
2.0968,0.4008,36.3400,84,93,218923
2.1310,0.4154,36.1900,84,93,218926
2.0674,0.4008,36.3100,84,93,218930
2.0626,0.4106,36.0100,84,93,218933
2.0235,0.4057,36.3400,84,93,218936
2.0479,0.4057,36.3400,84,93,218940
2.0968,0.4057,36.2500,84,93,218943
2.0626,0.4008,36.3700,84,93,218946
2.0381,0.4252,35.9800,84,93,218949
1.9159,0.4008,36.3700,84,93,218953
1.8719,0.3861,36.2800,84,93,218956
1.8817,0.4057,36.0100,84,93,218959
1.8768,0.4008,36.3100,84,93,218963
1.8817,0.4154,36.0100,84,93,218967
1.7791,0.4057,36.2500,84,93,218970
1.6764,0.4008,36.1900,84,93,218974
1.6373,0.4008,36.3100,84,93,218977
1.6471,0.4008,36.4300,84,93,218980
1.6764,0.4106,36.1000,84,93,218984
1.6276,0.4057,36.4300,84,93,218987
1.5640,0.4154,36.1300,84,93,218990
1.4956,0.4008,36.3400,84,93,218994
1.4956,0.4399,36.3100,84,93,218997
1.5591,0.4008,36.1900,84,93,219000
1.5738,0.4008,36.3100,84,93,219003
1.5836,0.4008,36.1300,84,93,219008
1.5103,0.4008,36.2800,84,93,219011
1.4761,0.3959,36.3100,84,93,219014
1.5005,0.4057,36.1900,84,93,219018
1.5347,0.4008,36.3100,84,93,219021
1.5934,0.4057,36.1600,84,93,219024
1.5543,0.4008,36.3100,84,93,219028
1.5054,0.4008,36.2800,84,93,219031
1.4907,0.4057,36.2200,84,93,219034
1.5103,0.4008,36.3100,84,93,219038
1.6080,0.4154,35.9800,84,93,219041
1.6129,0.4057,36.1300,84,93,219044
1.5836,0.3959,36.2800,84,93,219048
1.5738,0.4057,36.2800,84,93,219052
1.5200,0.4008,36.3100,84,93,219055
1.6031,0.4203,36.1600,84,93,219058
1.5494,0.4106,36.2200,84,93,219063
1.5836,0.4008,36.4300,84,93,219067
1.6618,0.4106,36.1600,84,93,219070
1.6667,0.4008,36.3100,84,93,219073
1.6373,0.3959,36.3100,84,93,219076
1.6031,0.4008,36.2800,84,93,219080
1.5885,0.3959,36.3100,84,93,219083
1.6520,0.4057,36.0700,84,93,219086
1.6764,0.4008,36.3100,84,93,219090
1.6862,0.4008,36.3400,84,93,219094
1.6569,0.4106,36.2500,84,93,219097
1.5885,0.4008,36.3100,84,93,219101
1.6227,0.4106,35.9800,84,93,219104
1.6520,0.4057,36.1600,84,93,219107
1.6960,0.4008,36.3100,84,93,219111
1.7204,0.4106,36.2500,84,93,219114
1.6764,0.4008,36.3100,84,93,219117
1.6911,0.4057,36.0400,84,93,219121
1.6569,0.4252,36.2200,84,93,219124
1.6911,0.4008,36.2200,84,93,219127
1.7302,0.4203,36.2200,84,93,219130
1.7204,0.4008,36.3100,84,93,219134
1.6960,0.4497,36.1300,84,93,219138
1.6325,0.4057,36.3400,84,93,219141
1.6520,0.4448,36.1600,84,93,219145
1.6911,0.4008,36.3100,84,93,219148
1.7302,0.4008,36.3100,84,93,219151
1.7449,0.4057,36.2800,84,93,219155
1.6911,0.4154,36.3100,84,93,219158
1.6813,0.4106,36.4600,84,93,219161
1.6813,0.3861,36.3100,84,93,219165
1.7302,0.4008,36.3100,84,93,219168
1.7840,0.4057,36.1600,84,93,219171
1.7351,0.4008,36.3400,84,93,219175
1.6960,0.4057,36.0400,84,93,219179
1.6422,0.4057,36.1000,84,93,219182
1.6471,0.3959,36.3100,84,93,219186
1.7253,0.4106,36.2500,84,93,219189
1.7449,0.4008,36.3100,84,93,219192
1.7791,0.4106,35.9500,84,93,219196
1.7009,0.4008,36.1900,84,93,219199
1.6813,0.4008,36.3100,84,93,219202
1.7253,0.4057,36.2800,84,93,219205
1.7791,0.4008,36.4000,84,93,219209
1.8719,0.4594,36.1000,84,93,219212
1.8231,0.4057,36.2500,84,93,219215
1.7840,0.4008,36.2200,84,93,219219
1.7644,0.4008,36.3400,84,93,219223
1.7840,0.3959,36.3100,84,93,219226
1.8475,0.4106,36.1900,84,93,219230
1.8231,0.3959,36.2500,84,93,219233
1.7742,0.4057,36.1900,84,93,219236
1.6960,0.3861,36.3100,84,93,219240
1.6716,0.4008,36.3100,84,93,219243
1.7253,0.4057,36.1600,84,93,219246
1.7449,0.4106,36.3100,84,93,219250
1.7644,0.3861,36.1600,84,93,219253
1.6960,0.4106,36.2500,84,93,219256
1.6422,0.4008,36.3400,84,93,219259
1.6471,0.4154,36.1300,84,93,219264
1.6764,0.4008,36.3100,84,93,219267
1.7498,0.4057,36.0400,84,93,219270
1.7351,0.4008,36.2200,84,93,219274
1.6911,0.3959,36.3400,84,93,219277
1.6618,0.4057,36.3700,84,93,219280
1.6471,0.4106,36.3100,84,93,219284
1.7351,0.4154,35.9800,84,93,219287
1.7449,0.4106,36.1900,84,93,219290
1.7449,0.3959,36.3400,84,93,219294
1.7155,0.4008,36.2800,84,93,219297
1.6667,0.4008,36.3100,84,93,219300
1.7155,0.4154,36.1000,84,93,219304
1.7155,0.4057,36.3100,84,93,219308
1.7693,0.4008,36.1900,84,93,219311
1.7498,0.4008,36.2800,84,93,219315
1.7155,0.4008,36.3100,84,93,219318
1.7009,0.4106,36.1300,84,93,219321
1.6667,0.4057,36.2800,84,93,219324
1.7155,0.4057,36.1300,84,93,219328
1.7840,0.4008,36.3100,84,93,219331
1.8622,0.4008,36.2200,84,93,219334
1.9746,0.4008,36.1900,84,93,219338
2.0332,0.4008,36.3400,84,93,219341
2.1114,0.4008,36.1600,84,93,219344
2.0919,0.4008,36.2800,84,93,219348
2.0137,0.4008,36.3100,84,93,219352
1.8328,0.4057,36.1900,84,93,219355
1.5738,0.4008,36.3100,84,93,219359
1.4027,0.4057,36.0400,84,93,219362
1.3930,0.3959,36.3100,84,93,219365
1.4712,0.4008,36.3400,84,93,219368
1.6178,0.4008,36.2200,84,93,219372
1.6862,0.4008,36.2500,84,93,219375
1.7498,0.4106,36.0100,84,93,219378
1.7351,0.4057,36.2200,84,93,219382
1.7693,0.4008,36.3400,84,93,219385
1.8328,0.4057,36.2800,84,93,219388
1.8426,0.3910,36.3100,84,93,219393
1.8622,0.4203,36.0700,84,93,219396
1.7937,0.4106,36.2200,84,93,219399
1.7351,0.4008,36.1900,84,93,219403
1.7889,0.3959,36.3100,84,93,219406
1.8084,0.4008,36.4000,84,93,219409
1.8573,0.4350,36.1600,84,93,219413
1.8084,0.3861,36.2800,84,93,219416
1.7644,0.4057,36.1600,84,93,219419
1.7253,0.4008,36.3100,84,93,219422
1.7644,0.4008,36.3100,84,93,219426
