ecg,gsr,temp,hr,spo2,timest
1.9355,0.2688,38.8700,70,97,376043
1.9844,0.2786,38.7400,70,97,376046
1.9795,0.2737,38.7100,70,97,376050
2.0039,0.2737,38.8700,70,97,376053
2.0381,0.2835,38.7700,70,97,376056
2.0283,0.2786,39.0600,70,97,376060
2.0723,0.2835,38.6500,70,97,376064
2.0577,0.2688,38.8100,70,97,376067
2.0870,0.2737,38.9000,70,97,376070
2.1261,0.2786,38.7700,70,97,376074
2.1457,0.2737,38.8700,70,97,376077
2.2190,0.2835,38.7100,70,97,376080
2.2092,0.2737,38.9300,70,97,376084
2.2385,0.2737,38.8700,70,97,376087
2.2727,0.2981,38.8400,70,97,376090
2.2825,0.2737,38.8700,70,97,376094
2.3705,0.2884,38.5800,70,97,376097
2.3460,0.2737,38.7700,70,97,376100
2.3509,0.2737,38.8700,70,97,376103
2.3656,0.2786,38.8400,70,97,376108
2.3754,0.2737,38.9300,70,97,376111
2.4487,0.2981,38.7700,70,97,376114
2.3754,0.2786,38.7700,70,97,376118
2.3607,0.2737,38.8100,70,97,376121
2.3265,0.2835,38.8100,70,97,376124
2.3265,0.2737,38.8700,70,97,376128
2.3069,0.2884,38.7100,70,97,376131
2.2141,0.2786,38.8700,70,97,376134
2.1652,0.2786,38.7400,70,97,376138
2.0626,0.2786,38.8700,70,97,376141
1.9844,0.2835,38.8700,70,97,376144
1.9453,0.2835,38.3300,70,97,376147
1.8622,0.2786,38.8400,70,97,376152
1.8231,0.2884,38.7700,70,97,376155
1.7498,0.2688,38.8700,70,97,376158
1.6667,0.2737,39.1600,70,97,376162
1.6325,0.2786,38.7400,70,97,376165
1.5445,0.3030,38.8700,70,97,376168
1.5298,0.2835,38.6500,70,97,376172
1.4712,0.2786,38.7400,70,97,376175
1.4418,0.2786,38.8700,70,97,376178
1.4223,0.2835,38.8700,70,97,376182
1.3930,0.2737,38.8700,70,97,376185
1.4076,0.2835,38.6200,70,97,376188
1.3734,0.2786,38.7700,70,97,376193
1.3685,0.2688,38.9000,70,97,376196
1.3636,0.2786,38.7700,70,97,376199
1.3636,0.2737,38.8700,70,97,376202
1.4223,0.2981,38.6200,70,97,376206
1.3978,0.2786,38.8100,70,97,376209
1.4174,0.2737,38.8100,70,97,376212
1.4223,0.2786,38.8700,70,97,376216
1.4125,0.2737,38.9000,70,97,376219
1.4565,0.2933,38.7400,70,97,376222
1.4418,0.2786,38.9300,70,97,376226
1.4761,0.2786,38.7400,70,97,376229
1.4761,0.2786,38.8700,70,97,376232
1.5249,0.2737,38.8700,70,97,376237
1.5200,0.2884,38.7100,70,97,376240
1.4858,0.2835,38.8400,70,97,376243
1.5103,0.2835,38.7700,70,97,376246
1.5103,0.2737,38.2700,70,97,376250
1.5347,0.2786,38.8700,70,97,376253
1.5591,0.2835,38.9600,70,97,376256
1.5445,0.2737,38.8700,70,97,376260
1.5787,0.2786,38.7400,70,97,376263
1.5591,0.2737,38.8100,70,97,376266
1.5787,0.2737,38.9300,70,97,376270
1.5982,0.2835,38.8100,70,97,376273
1.5982,0.2786,38.8700,70,97,376276
1.6373,0.2835,38.5800,70,97,376281
1.5885,0.2737,38.8400,70,97,376284
1.6178,0.2737,38.8400,70,97,376287
1.6325,0.2835,38.8400,70,97,376291
1.6373,0.2737,38.8700,70,97,376294
1.6764,0.2981,38.5800,70,97,376297
1.6422,0.3079,38.7400,70,97,376300
1.6716,0.2688,38.8400,70,97,376304
1.6569,0.2835,38.8700,70,97,376307
1.6618,0.2737,38.8700,70,97,376310
1.7253,0.2884,38.9300,70,97,376314
1.6862,0.2835,38.8100,70,97,376317
1.7009,0.2786,37.9000,70,97,376321
1.6911,0.2786,38.8100,70,97,376325
1.7107,0.2688,38.9000,70,97,376328
1.7546,0.2835,38.7100,70,97,376331
1.7204,0.2835,38.9000,70,97,376335
1.7400,0.2688,38.7100,70,97,376338
1.7058,0.2786,38.9000,69,97,376341
1.7253,0.2933,38.8700,69,97,376346
1.7449,0.2688,38.8700,69,97,376349
1.7107,0.2835,38.8700,69,97,376352
1.6716,0.2737,38.9000,69,97,376356
1.7302,0.2884,37.9600,69,97,376359
1.7155,0.2884,38.7700,69,97,376363
1.7204,0.2688,38.8700,69,97,376367
1.7351,0.2933,38.8400,69,97,376370
1.7400,0.2688,38.8700,69,97,376373
1.8084,0.2981,38.6500,69,97,376377
1.7791,0.2688,38.7400,69,97,376380
1.7791,0.2737,38.8100,69,97,376383
1.7791,0.2639,38.8400,69,97,376387
1.7889,0.2688,38.9300,69,97,376390
1.8426,0.2884,38.7400,69,97,376393
1.8035,0.2737,38.9300,69,97,376396
1.8377,0.2786,38.8400,69,97,376400
1.8133,0.2786,38.8700,69,97,376403
1.8084,0.2737,38.9000,69,97,376407
1.8426,0.2884,38.7700,69,97,376411
1.8426,0.2786,38.8400,69,97,376414
1.8719,0.2786,38.8100,69,97,376417
1.8475,0.2786,38.8700,69,97,376421
1.8475,0.2737,38.9600,69,97,376424
1.8671,0.2786,38.7400,69,97,376427
1.8328,0.2737,38.8700,69,97,376431
1.8719,0.2786,38.6800,69,97,376434
1.8573,0.2737,38.8400,69,97,376437
1.8671,0.2835,38.8700,69,97,376441
1.8915,0.2884,38.8100,69,97,376444
1.8622,0.2737,38.8700,69,97,376448
1.9110,0.2835,38.6200,69,97,376451
1.8719,0.2884,38.7700,69,97,376455
1.8817,0.2688,38.8700,69,97,376458
1.8915,0.2786,38.8400,69,97,376461
1.8768,0.2835,38.8700,69,97,376465
1.9208,0.2884,38.5800,69,97,376468
1.8671,0.3079,38.7700,69,97,376471
1.8915,0.2737,38.8400,69,97,376475
1.9062,0.2786,38.8700,69,97,376478
1.9013,0.2737,38.8700,69,97,376481
1.9697,0.3030,38.6500,69,97,376485
1.9355,0.2884,38.8100,69,97,376488
1.9501,0.2737,38.8100,69,97,376492
1.9599,0.2737,38.8400,69,97,376495
1.9795,0.2737,38.9000,69,97,376499
2.0381,0.2786,38.6800,69,97,376502
2.0088,0.2786,38.8100,69,97,376505
2.0381,0.2786,38.7400,69,97,376509
2.0235,0.2786,38.8400,69,97,376512
2.0430,0.2737,38.8700,69,97,376515
2.0674,0.2884,38.7700,69,97,376519
2.0186,0.2737,38.8700,69,97,376522
2.0479,0.2884,38.7400,69,97,376525
1.9844,0.2688,38.8700,69,97,376528
1.9746,0.2835,38.8700,69,97,376532
1.9795,0.2786,38.8400,69,97,376536
1.9550,0.2786,38.9000,69,97,376539
1.9746,0.2737,38.6800,69,97,376543
1.9159,0.2786,38.8400,69,97,376546
1.9159,0.2737,38.8700,69,97,376549
1.9159,0.2835,38.8400,69,97,376553
1.8768,0.2688,38.8400,69,97,376556
1.9208,0.2884,38.6200,69,97,376559
1.9208,0.2835,38.7700,69,97,376563
1.8573,0.2737,38.8700,69,97,376566
1.8573,0.2786,38.8400,69,97,376569
1.8475,0.2737,38.8700,69,97,376572
1.9062,0.2933,38.6800,69,97,376577
1.8671,0.2786,38.7400,69,97,376580
1.8524,0.2737,38.8700,69,97,376583
1.8426,0.2835,38.8700,69,97,376587
1.8231,0.2737,38.9600,69,97,376590
1.8671,0.2884,38.6800,69,97,376593
1.7546,0.2786,38.8400,69,97,376597
1.7351,0.2786,38.7400,69,97,376600
1.7302,0.2786,38.7700,69,97,376603
1.8377,0.2688,38.9300,69,97,376607
2.0674,0.2835,38.9600,69,97,376610
2.3754,0.2835,38.8400,69,97,376613
2.8201,0.2835,38.7100,69,97,376617
3.2111,0.2835,38.8700,69,97,376621
3.5386,0.2737,38.8700,69,97,376624
3.8172,0.2884,38.7100,69,97,376627
3.8368,0.2688,38.8400,69,97,376631
3.7243,0.2786,38.6800,69,97,376634
3.3431,0.2786,38.7700,69,97,376637
2.8837,0.2737,38.8700,69,97,376641
2.4389,0.2884,38.7400,69,97,376644
2.0088,0.2737,38.8700,69,97,376647
1.7595,0.2835,38.7100,69,97,376651
1.5738,0.2884,38.8100,69,97,376654
1.5103,0.2737,38.8700,69,97,376657
1.5152,0.2835,38.8400,69,97,376662
1.5298,0.2737,38.8700,69,97,376665
1.5982,0.2884,38.9300,69,97,376668
1.5982,0.2737,38.8100,69,97,376671
1.6373,0.2688,38.8700,69,97,376675
1.6911,0.3128,38.8700,69,97,376678
1.7155,0.2786,38.8700,69,97,376681
1.8035,0.2933,38.6800,69,97,376685
1.7644,0.2786,38.8400,69,97,376688
1.7791,0.2835,38.7700,69,97,376691
1.7742,0.2786,38.9600,69,97,376695
1.7889,0.2737,38.8700,69,97,376698
1.8328,0.2884,38.7700,69,97,376701
1.8133,0.2786,38.8400,69,97,376706
1.8426,0.2786,38.7100,69,97,376709
1.8328,0.2737,38.8700,69,97,376712
1.8671,0.2688,38.8700,69,97,376716
1.9159,0.2884,38.7400,69,97,376719
1.9110,0.2737,38.8700,69,97,376722
1.9501,0.2786,38.7400,69,97,376725
1.9208,0.2786,38.8400,69,97,376729
1.9306,0.2737,38.9300,69,97,376732
1.9648,0.2786,38.9600,69,97,376735
1.9892,0.2737,38.8700,69,97,376739
2.0283,0.2835,38.6800,69,97,376742
1.9990,0.2737,38.8700,69,97,376745
1.9990,0.2737,38.8700,69,97,376750
2.0186,0.2884,38.8100,69,97,376753
2.0186,0.2737,38.8700,69,97,376756
2.0870,0.2884,38.5800,69,97,376760
2.0577,0.2835,38.8100,69,97,376763
2.0528,0.2688,38.9300,69,97,376766
2.0626,0.2835,38.8700,69,97,376769
2.0577,0.2737,38.8700,69,97,376773
2.1359,0.2884,38.6200,69,97,376776
2.1065,0.2786,38.7400,69,97,376779
2.1114,0.2737,38.8100,69,97,376783
2.1212,0.2786,39.0600,69,97,376786
2.1359,0.3177,38.8700,69,97,376790
2.2043,0.2933,38.7100,69,97,376794
2.1750,0.2786,38.8100,69,97,376797
2.2092,0.2737,38.7400,69,97,376800
2.1994,0.2786,38.8700,69,97,376803
2.2043,0.2737,38.8700,69,97,376807
2.2483,0.2688,38.8400,69,97,376810
2.2483,0.2786,38.9600,69,97,376813
2.3021,0.3128,38.7100,69,97,376817
2.2874,0.2786,39.0000,69,97,376820
2.3021,0.2786,38.8400,69,97,376823
2.3460,0.2884,38.7400,69,97,376827
2.3118,0.2786,38.7700,69,97,376830
2.3607,0.2786,38.6800,69,97,376834
2.3460,0.2737,38.8100,69,97,376837
2.3754,0.2737,38.9600,69,97,376841
2.4047,0.2884,38.7100,69,97,376844
2.3949,0.2786,38.8700,69,97,376847
2.4633,0.2786,38.6200,69,97,376851
2.4536,0.2688,38.8100,69,97,376854
2.4731,0.2737,38.0200,69,97,376857
2.5122,0.2933,38.8100,69,97,376861
2.5220,0.2737,38.9300,69,97,376864
2.6002,0.2884,38.6200,69,97,376867
2.5464,0.2737,38.8400,69,97,376871
2.5660,0.2737,38.8400,69,97,376875
2.5806,0.2737,38.8400,69,97,376878
2.5709,0.2786,38.8700,69,97,376881
2.6491,0.3226,38.6200,69,97,376885
2.5855,0.2688,38.8100,69,97,376888
2.5660,0.2786,38.1800,69,97,376891
2.5709,0.2835,38.8400,69,97,376895
2.5073,0.2737,38.9300,69,97,376898
2.5122,0.2884,38.6800,69,97,376901
2.4047,0.2835,38.8400,69,97,376905
2.3460,0.2786,38.7400,69,97,376908
2.2532,0.2737,38.8700,69,97,376911
2.1848,0.2737,39.0000,69,97,376915
2.1457,0.2835,38.7100,69,97,376919
2.0381,0.2688,38.8400,69,97,376922
1.9892,0.2835,37.8700,69,97,376925
1.8768,0.2737,38.9000,69,97,376929
1.8133,0.2737,39.0000,69,97,376932
1.7742,0.2737,38.7700,69,97,376935
1.7498,0.2835,38.8700,69,97,376939
1.7107,0.2786,38.6800,69,97,376942
1.6373,0.2688,38.8700,69,97,376945
1.6031,0.2688,38.9600,69,97,376949
1.5982,0.2835,38.7400,69,97,376952
1.5640,0.2688,38.8400,69,97,376956
1.5543,0.2737,38.8100,69,97,376960
1.6080,0.2933,38.6200,69,97,376963
1.5738,0.2884,38.5200,69,97,376967
1.5738,0.2884,38.8100,69,97,376970
1.5885,0.2786,38.8400,69,97,376973
1.6080,0.2737,38.8100,69,97,376976
1.6667,0.2835,38.7100,69,97,376980
1.6520,0.2786,38.9300,69,97,376983
1.6911,0.3030,38.8100,69,97,376986
1.6862,0.2786,38.8400,69,97,376990
1.6960,0.3030,38.8700,69,97,376993
1.7302,0.2835,38.8100,69,97,376996
1.7351,0.2786,38.8700,69,97,377000
1.8133,0.2835,38.7400,69,97,377004
1.7595,0.2786,38.8400,69,97,377007
1.7986,0.2737,38.9300,69,97,377011
1.8035,0.2884,39.1200,69,97,377014
1.7644,0.2786,38.9300,69,97,377017
1.8035,0.2786,38.7100,69,97,377021
1.7986,0.2786,38.8100,69,97,377024
1.8133,0.2737,38.8700,69,97,377027
1.8377,0.2884,38.7700,69,97,377030
1.8133,0.2737,38.9300,69,97,377034
1.8671,0.2981,38.6500,69,97,377037
1.8377,0.2737,38.8400,69,97,377040
1.8426,0.2786,38.8700,69,97,377044
1.8671,0.2786,38.8400,69,97,377048
1.8671,0.2786,38.9000,69,97,377051
1.9257,0.2933,38.5800,69,97,377055
1.8719,0.2835,38.7700,69,97,377058
1.9013,0.2786,38.8400,69,97,377061
1.9110,0.2786,38.8700,69,97,377065
1.9062,0.2786,38.8700,69,97,377068
1.9404,0.2933,38.6500,69,97,377071
1.8915,0.3030,38.8100,69,97,377074
1.8915,0.2786,38.7700,69,97,377078
1.8768,0.2786,38.8400,69,97,377081
1.8866,0.2688,38.9300,69,97,377084
1.9355,0.2884,38.1800,69,97,377089
1.9013,0.2786,38.8400,69,97,377092
1.9257,0.2835,38.8400,69,97,377095
1.8964,0.2786,38.8700,69,97,377099
1.9159,0.2737,38.8700,69,97,377102
1.9501,0.2835,38.7400,69,97,377105
1.9110,0.2786,38.9300,69,97,377109
1.9550,0.2786,38.7100,69,97,377112
1.9062,0.2737,38.8400,69,97,377115
1.9159,0.2688,38.8700,69,97,377118
1.9355,0.2786,38.7700,69,97,377122
1.9404,0.2786,38.8400,69,97,377125
1.9746,0.2835,37.8700,69,97,377128
1.9257,0.2688,38.9300,69,97,377133
1.9306,0.2737,38.9000,69,97,377136
1.9453,0.2786,38.8100,69,97,377139
1.9306,0.2786,38.8100,69,97,377143
1.9941,0.2933,38.5800,69,97,377146
1.9648,0.2835,38.7700,69,97,377149
1.9501,0.2786,38.8700,69,97,377153
1.9550,0.2786,38.8400,69,97,377156
1.9501,0.2737,38.8700,69,97,377159
2.0235,0.3030,38.6500,69,97,377162
1.9795,0.2884,38.7700,69,97,377166
1.9746,0.2737,38.7700,69,97,377169
1.9746,0.2737,38.9300,69,97,377172
1.9599,0.2737,38.9600,69,97,377177
1.9941,0.2884,38.7100,69,97,377180
1.9404,0.2786,38.8100,69,97,377183
1.8817,0.3030,38.7400,69,97,377187
1.7498,0.2786,38.8700,69,97,377190
1.6471,0.2737,38.8400,69,97,377193
1.5982,0.2835,38.5800,69,97,377197
1.5445,0.3030,38.8700,69,97,377200
1.5494,0.2786,38.7700,69,97,377203
1.5103,0.2786,38.8700,69,97,377207
1.5152,0.2737,38.8700,69,97,377210
1.5298,0.2884,38.6800,69,97,377213
1.5054,0.2688,38.8700,69,97,377217
1.5445,0.2786,38.7700,69,97,377221
1.5445,0.2737,38.7400,69,97,377224
1.5640,0.2737,38.8700,69,97,377227
1.5934,0.2835,38.7400,69,97,377231
1.5738,0.2786,38.8700,69,97,377234
1.6276,0.2884,38.6500,69,97,377237
1.6129,0.2688,38.7700,69,97,377241
1.6178,0.2737,38.9000,69,97,377244
1.6422,0.3030,38.8100,69,97,377247
1.6569,0.2737,38.8700,69,97,377251
1.7107,0.2933,38.5800,69,97,377254
1.6667,0.2786,38.8100,69,97,377257
1.6960,0.2737,38.8400,69,97,377261
1.7058,0.2786,38.8400,69,97,377265
1.7058,0.2786,38.8700,69,97,377268
1.7546,0.2933,38.7100,69,97,377271
1.7302,0.2835,38.8100,69,97,377275
1.7449,0.2737,38.7100,69,97,377278
1.7449,0.2786,38.8700,69,97,377281
1.7644,0.2737,38.8700,69,97,377285
1.8133,0.2688,38.6800,69,97,377288
1.7889,0.3079,38.8700,69,97,377291
1.8280,0.2786,38.7100,69,97,377295
1.8182,0.2786,38.8400,69,97,377298
1.8524,0.2737,38.8700,69,97,377302
1.8964,0.2835,38.7100,69,97,377305
1.9110,0.2786,38.8700,69,97,377309
1.9306,0.2786,38.7100,69,97,377312
1.8915,0.2884,38.8100,69,97,377315
1.9062,0.2737,38.8700,69,97,377319
1.9404,0.2786,38.8100,69,97,377322
1.9746,0.2786,38.9300,69,97,377325
2.0137,0.2835,38.5800,69,97,377329
1.9746,0.2737,38.8700,69,97,377332
1.9844,0.2688,38.9600,69,97,377335
1.9892,0.2835,38.8400,69,97,377339
1.9795,0.2933,38.8700,69,97,377342
2.0430,0.2933,38.5800,69,97,377346
2.0088,0.2835,38.7400,69,97,377350
1.9892,0.2737,38.8700,69,97,377353
1.9746,0.2786,38.8400,69,97,377356
1.9501,0.2737,38.9000,69,97,377359
1.9990,0.2981,38.6800,69,97,377363
1.9501,0.2835,38.8100,69,97,377366
1.9355,0.2835,38.8100,69,97,377369
1.9159,0.2786,38.8700,69,97,377373
1.9013,0.2737,38.8700,69,97,377376
1.9257,0.2884,38.6800,69,97,377379
1.8817,0.2786,38.8400,69,97,377383
1.9404,0.2737,38.7100,69,97,377387
1.8622,0.2786,38.9300,69,97,377390
1.8524,0.2786,38.9300,69,97,377394
1.8719,0.2786,38.7400,69,97,377397
1.8866,0.2786,38.8700,69,97,377400
1.8964,0.2786,38.7400,69,97,377403
1.8377,0.2786,38.8700,69,97,377407
1.8084,0.2786,38.8700,69,97,377410
1.7644,0.3079,38.7400,69,97,377413
1.6911,0.2786,38.8700,69,97,377417
1.7449,0.2835,38.6200,69,97,377420
1.8426,0.2786,38.7400,69,97,377423
2.0577,0.2786,38.9600,69,97,377427
2.4145,0.2884,38.8100,69,97,377431
2.7761,0.2737,38.8700,69,97,377434
3.2698,0.2933,38.5800,69,97,377438
3.5826,0.2786,38.8400,69,97,377441
3.8612,0.2688,38.8700,69,97,377444
3.9687,0.2835,38.8400,69,97,377447
3.8074,0.2786,38.8700,69,97,377451
3.5386,0.3030,38.6200,69,97,377454
2.9423,0.2688,38.8400,69,97,377457
2.4389,0.2737,38.8100,69,97,377461
2.0235,0.2884,38.8700,69,97,377464
1.7302,0.2786,38.8400,69,97,377467
1.6129,0.2933,38.8100,69,97,377472
1.5347,0.2835,38.8700,69,97,377475
1.5298,0.2786,38.2700,69,97,377478
1.5347,0.2786,38.8700,69,97,377482
1.5689,0.2786,38.8400,69,97,377485
1.6373,0.2884,38.7700,69,97,377488
1.6325,0.2981,38.8400,69,97,377492
1.6813,0.2933,38.7400,69,97,377495
1.6618,0.2737,38.8100,69,97,377498
1.6862,0.2737,38.9000,69,97,377501
1.7155,0.2835,38.7100,69,97,377505
1.7058,0.2786,38.8400,69,97,377508
1.7351,0.2786,38.6800,69,97,377511
1.7204,0.2737,38.8400,69,97,377516
1.7302,0.2737,38.8700,69,97,377519
1.7595,0.2884,38.8100,69,97,377522
1.7791,0.2786,38.8700,69,97,377526
1.8377,0.2884,38.5800,69,97,377529
1.7937,0.2688,38.8100,69,97,377532
1.8035,0.2737,38.8400,69,97,377536
1.8231,0.2786,38.8400,69,97,377539
1.8182,0.2737,38.8700,69,97,377542
1.8964,0.2981,38.5800,69,97,377545
1.8671,0.2835,38.8700,69,97,377549
1.8671,0.2688,38.8100,69,97,377552
1.8719,0.2835,38.9000,69,97,377555
1.8817,0.2786,38.8400,69,97,377560
1.9501,0.2884,38.7100,69,97,377563
1.9941,0.2884,38.7400,69,97,377567
1.9404,0.2786,38.8700,69,97,377570
1.9844,0.2786,38.7400,69,97,377573
1.9453,0.2737,38.8100,69,97,377577
1.9501,0.2737,39.0600,69,97,377580
1.9697,0.2786,38.8100,69,97,377583
1.9844,0.2786,38.8400,69,97,377587
2.0479,0.3030,38.6500,69,97,377590
2.0283,0.2786,38.8700,69,97,377593
2.0430,0.2786,38.9000,69,97,377597
2.0626,0.2835,38.7400,69,97,377601
2.0528,0.2786,38.8700,69,97,377604
2.1261,0.2884,38.5800,69,97,377607
2.1163,0.2835,38.8100,69,97,377611
2.1310,0.2786,38.8700,69,97,377614
2.1457,0.2835,38.8100,69,97,377617
2.1408,0.2688,38.8700,69,97,377621
2.2190,0.2981,38.7700,69,97,377624
2.1848,0.2786,38.7400,69,97,377627
2.2043,0.2688,38.8100,69,97,377631
2.2239,0.2835,38.8700,69,97,377634
2.2483,0.2835,38.8700,69,97,377637
2.3167,0.2884,38.8100,69,97,377641
2.2874,0.2786,38.8400,69,97,377645
2.3216,0.2786,38.7700,69,97,377648
2.3118,0.2835,38.9000,69,97,377651
2.3412,0.2786,38.8700,69,97,377655
2.3851,0.2884,38.7700,69,97,377658
2.3705,0.2835,38.8400,69,97,377661
2.4291,0.2835,38.7400,69,97,377665
2.4047,0.2737,38.8700,69,97,377668
2.4291,0.2786,38.9300,69,97,377671
2.4829,0.2884,38.7400,69,97,377675
2.4487,0.2786,38.9000,69,97,377678
2.4927,0.3128,38.7400,69,97,377681
2.4829,0.2786,38.7700,69,97,377686
2.4829,0.2786,38.8700,69,97,377689
2.5122,0.2688,38.7400,69,97,377692
2.4682,0.2786,38.9000,69,97,377695
2.4878,0.2835,38.6800,69,97,377699
2.3998,0.2835,38.8100,69,97,377702
2.3460,0.2786,38.8700,69,97,377705
2.3118,0.2884,38.8400,69,97,377709
2.2434,0.2786,38.8700,69,97,377712
2.2287,0.2933,38.5800,69,97,377715
2.0821,0.2786,38.8100,69,97,377719
1.9990,0.2737,38.8400,69,97,377722
1.9208,0.2884,38.8400,69,97,377725
1.8280,0.2786,38.8700,69,97,377730
1.8280,0.2884,38.6500,69,97,377733
1.7253,0.2884,37.9300,69,97,377736
1.6569,0.2835,38.7700,69,97,377739
1.5885,0.2835,38.8400,69,97,377743
1.5591,0.2786,38.9300,69,97,377746
1.5347,0.2884,38.7700,69,97,377749
1.4712,0.2835,38.8400,69,97,377753
1.4614,0.2835,38.7700,69,97,377756
1.4223,0.2835,38.9000,69,97,377759
1.4174,0.2786,38.8700,69,97,377763
1.4272,0.3177,38.7400,69,97,377766
1.4076,0.2786,38.8700,69,97,377769
1.4418,0.2835,38.6800,69,97,377774
1.4272,0.2688,38.8400,69,97,377777
1.4125,0.2786,38.9300,69,97,377780
1.4370,0.2835,38.8100,69,97,377783
1.4516,0.2786,38.8700,69,97,377787
1.4956,0.2835,38.6500,69,97,377790
1.4907,0.2786,38.9300,69,97,377793
1.5103,0.3079,38.9000,69,97,377797
1.5347,0.2884,38.7700,69,97,377800
1.5200,0.2786,38.8700,69,97,377803
1.6080,0.2933,38.5800,69,97,377807
1.5885,0.2688,38.7400,69,97,377810
1.6031,0.2786,38.9000,69,97,377814
1.6178,0.2835,38.8700,69,97,377818
1.6178,0.2786,38.8700,69,97,377821
1.6862,0.2981,38.6200,69,97,377824
1.6569,0.2884,38.7400,69,97,377828
1.6764,0.2688,38.8700,69,97,377831
1.6813,0.2786,38.9300,69,97,377834
1.6960,0.2786,38.8700,69,97,377837
1.7400,0.2884,38.7700,69,97,377841
1.7058,0.2835,38.8400,69,97,377844
1.7400,0.2786,38.7400,69,97,377847
1.7253,0.2786,38.8700,69,97,377851
1.7302,0.2786,38.8700,69,97,377854
1.7595,0.2884,38.8400,69,97,377858
1.7595,0.2688,38.8400,69,97,377862
1.7840,0.2884,38.7400,69,97,377865
1.7546,0.2835,38.8700,69,97,377868
1.7791,0.2786,38.8700,69,97,377872
1.8084,0.2884,38.7100,69,97,377875
1.7742,0.2786,38.8700,69,97,377878
1.7986,0.2786,38.7100,69,97,377881
1.7791,0.2737,38.7700,69,97,377885
1.7986,0.2737,38.8700,69,97,377888
1.8328,0.2933,38.7700,69,97,377891
1.8084,0.2786,38.8700,69,97,377895
1.8475,0.2884,38.5800,69,97,377899
1.8133,0.2835,38.8400,69,97,377902
1.8084,0.2737,38.8700,69,97,377906
1.8280,0.2786,38.8400,69,97,377909
1.8328,0.2786,38.0200,69,97,377912
1.8915,0.3226,38.5500,69,97,377916
1.8328,0.2835,38.7700,69,97,377919
1.8328,0.2835,38.8400,69,97,377922
1.8328,0.2835,38.8400,69,97,377925
1.8280,0.2786,38.9300,69,97,377929
1.8964,0.2981,37.8300,69,97,377932
1.8719,0.2933,38.7700,69,97,377935
1.8719,0.2786,38.7400,69,97,377939
1.8524,0.2737,38.8700,69,97,377943
1.8573,0.2786,38.9000,69,97,377946
1.8964,0.2884,38.6500,69,97,377950
1.8622,0.2835,38.8400,69,97,377953
1.8817,0.2835,38.7100,69,97,377956
1.8573,0.2688,38.8700,69,97,377960
1.8622,0.2786,38.8700,69,97,377963
1.8915,0.2884,38.7400,69,97,377966
1.8768,0.2786,38.8700,69,97,377969
1.9159,0.2786,38.7100,69,97,377973
1.8719,0.2688,38.8100,69,97,377976
1.8719,0.2786,38.9600,69,97,377979
1.8866,0.2786,38.8100,69,97,377984
1.8866,0.2786,38.9600,69,97,377987
1.9355,0.3128,38.6500,69,97,377990
1.8964,0.2786,38.8400,69,97,377994
1.9062,0.2835,38.9300,69,97,377997
1.9110,0.2884,38.8400,69,97,378000
1.9159,0.2786,38.8700,69,97,378004
1.9501,0.2884,38.5800,69,97,378007
1.9306,0.2835,38.8100,69,97,378010
1.9306,0.2737,38.8700,69,97,378014
1.9599,0.2835,38.8400,69,97,378017
1.9110,0.2786,38.8700,69,97,378020
1.9697,0.2981,38.6500,69,97,378023
1.9257,0.2884,38.7700,69,97,378028
1.9306,0.2786,38.7700,69,97,378031
1.9306,0.2786,38.8700,69,97,378034
1.9404,0.2786,38.8700,69,97,378038
1.9697,0.2933,38.7100,69,97,378041
1.9355,0.2786,38.8400,69,97,378044
1.9697,0.2981,38.7700,69,97,378048
1.9404,0.2786,38.8700,69,97,378051
1.9404,0.2737,38.8400,69,97,378054
1.9599,0.2835,38.7400,69,97,378058
1.9355,0.2786,38.8700,69,97,378061
1.9892,0.2884,38.7100,69,97,378064
1.9355,0.2786,38.8700,69,97,378068
1.9453,0.2786,38.9000,69,97,378072
1.9697,0.2884,38.9000,69,97,378075
1.9501,0.2884,38.8700,69,97,378078
1.9648,0.2835,38.6500,69,97,378082
1.9453,0.2786,38.7400,69,97,378085
1.9501,0.2688,38.8400,69,97,378088
1.9697,0.2933,38.7700,69,97,378092
1.9453,0.2786,38.9300,69,97,378095
1.9941,0.2884,38.6200,69,97,378098
1.9355,0.2835,38.7700,69,97,378102
1.9306,0.2737,38.9000,69,97,378105
1.9501,0.2884,38.8700,69,97,378108
1.9746,0.2786,38.8700,69,97,378112
2.0088,0.2981,38.5500,69,97,378116
1.9404,0.2835,38.8100,69,97,378119
1.9453,0.2737,38.8100,69,97,378122
1.9355,0.2981,38.8400,69,97,378126
1.9355,0.2786,38.8700,69,97,378129
1.9892,0.2933,38.7700,69,97,378132
1.9599,0.2835,38.8400,69,97,378136
1.9697,0.2835,38.7100,69,97,378139
1.9501,0.2786,38.9300,69,97,378142
1.9599,0.2737,38.8400,69,97,378146
2.0088,0.2884,38.7100,69,97,378149
1.9795,0.2786,38.8700,69,97,378152
2.0137,0.2884,38.7700,69,97,378157
1.9746,0.2786,38.7100,69,97,378160
1.9795,0.2737,38.8700,69,97,378163
1.9990,0.2835,38.6200,69,97,378166
1.9795,0.2835,38.9000,69,97,378170
2.0137,0.2835,38.6800,69,97,378173
1.9697,0.2884,38.6200,69,97,378176
1.9599,0.2786,38.8400,69,97,378180
1.9599,0.2688,38.9000,69,97,378183
1.9404,0.2835,38.9300,69,97,378187
1.9013,0.2786,38.8700,69,97,378190
1.9697,0.2981,38.6500,69,97,378193
1.9404,0.2933,38.8100,69,97,378198
1.9404,0.2737,38.8100,69,97,378201
1.9404,0.2884,38.8400,69,97,378204
1.9306,0.2688,38.8700,69,97,378207
1.9844,0.2884,38.6500,69,97,378211
1.9550,0.2688,38.8100,69,97,378214
1.9648,0.2786,38.7700,69,97,378217
1.9550,0.2884,38.8400,69,97,378221
1.9648,0.2688,38.8700,69,97,378224
1.9990,0.2835,38.7100,69,97,378227
2.0039,0.2786,38.8400,69,97,378231
2.0235,0.2835,38.8100,69,97,378234
1.9990,0.2737,38.9000,69,97,378237
2.0137,0.2786,38.8700,69,97,378242
2.0283,0.2835,38.6500,69,97,378245
2.0332,0.2835,38.8700,69,97,378248
2.0772,0.2786,38.7100,69,97,378251
2.0381,0.2786,38.8700,69,97,378255
2.0528,0.2835,38.8700,69,97,378258
2.0870,0.2884,38.7400,69,97,378261
2.0528,0.2835,38.8100,69,97,378265
2.1065,0.2786,38.6200,69,97,378268
2.0821,0.2786,38.7400,69,97,378271
2.0919,0.2786,38.8700,69,97,378275
2.1163,0.2884,38.8100,69,97,378278
2.0821,0.2786,38.8700,69,97,378281
2.1261,0.2933,38.6200,69,97,378285
2.0674,0.2786,38.7700,69,97,378289
2.0479,0.2737,38.9300,69,97,378292
2.0479,0.2786,38.8400,69,97,378295
2.0283,0.2786,38.8700,69,97,378299
2.0723,0.2981,38.6200,69,97,378302
2.0235,0.2786,38.8100,69,97,378305
1.9746,0.2737,38.8100,69,97,378309
1.9501,0.2835,38.8400,69,97,378312
1.9355,0.2786,39.0600,69,97,378315
1.9795,0.3079,38.7100,69,97,378319
1.9257,0.2786,38.8400,69,97,378322
1.9306,0.2786,38.7400,69,97,378326
1.8964,0.2786,38.8700,69,97,378329
1.8866,0.2737,38.9300,69,97,378333
1.9257,0.2786,38.6800,69,97,378336
1.8866,0.2835,38.8100,69,97,378339
1.9013,0.2786,38.7100,69,97,378343
1.8475,0.2786,38.8700,69,97,378346
1.8035,0.2786,38.8700,69,97,378349
1.7644,0.2835,38.7400,69,97,378353
1.6960,0.2786,38.8400,69,97,378356
1.7449,0.2786,38.7100,69,97,378359
1.7986,0.2786,38.7100,69,97,378363
2.0137,0.2786,38.8700,69,97,378366
2.3607,0.2835,38.8100,69,97,378370
2.7566,0.2786,38.8400,69,97,378373
3.2649,0.2835,38.6200,69,97,378377
3.5777,0.2786,38.8700,69,97,378380
3.8905,0.2835,38.8700,69,97,378383
4.0127,0.2835,38.8400,69,97,378387
3.8172,0.2835,38.8700,69,97,378390
3.5533,0.2933,38.5800,69,97,378393
2.9912,0.2835,38.7400,69,97,378397
2.4780,0.2737,38.8700,69,97,378400
2.0723,0.2835,38.8400,69,97,378403
1.7791,0.2737,38.9300,69,97,378407
1.6862,0.2981,38.6500,69,97,378411
1.5836,0.2786,38.8100,69,97,378414
1.5787,0.2786,38.7700,69,97,378417
1.5885,0.3177,38.9000,69,97,378421
1.6178,0.2688,38.8400,69,97,378424
1.6716,0.2884,38.6500,69,97,378427
1.7009,0.2786,38.8400,69,97,378431
1.7204,0.2786,38.7700,69,97,378434
1.7107,0.2835,38.8400,69,97,378437
1.7253,0.2786,38.9600,69,97,378441
1.7449,0.2835,38.8100,69,97,378444
1.7351,0.2786,38.8700,69,97,378447
1.7693,0.2884,38.8100,69,97,378451
1.7449,0.2786,38.1500,69,97,378455
1.7693,0.2835,38.8700,69,97,378458
1.7986,0.2884,38.7700,69,97,378461
1.7742,0.2786,38.8400,69,97,378465
1.8231,0.2688,38.6500,69,97,378468
1.8133,0.2786,38.7700,69,97,378471
1.8280,0.2737,38.8400,69,97,378475
1.8671,0.2884,38.8400,69,97,378478
1.8524,0.2835,38.9000,69,97,378481
1.9013,0.2884,38.5800,69,97,378485
1.8719,0.2786,38.7400,69,97,378488
1.8768,0.2786,38.8700,69,97,378491
1.9013,0.2835,38.7700,69,97,378496
1.9159,0.3177,38.8400,69,97,378499
1.9892,0.3030,38.6500,69,97,378502
1.9355,0.2835,38.8400,69,97,378506
1.9501,0.2737,38.8100,69,97,378509
1.9501,0.2786,38.8400,69,97,378512
1.9648,0.2786,38.8400,69,97,378515
2.0332,0.3324,38.7400,69,97,378519
2.0186,0.2688,38.8400,69,97,378522
2.0381,0.2786,38.8400,69,97,378525
2.0186,0.2786,38.8400,69,97,378529
2.0235,0.2786,38.9600,69,97,378532
2.0723,0.2933,38.6800,69,97,378535
2.0430,0.2835,38.8400,69,97,378540
2.0772,0.3177,38.7100,69,97,378543
2.0528,0.2786,38.8400,69,97,378546
2.0674,0.2786,38.8400,69,97,378550
2.0968,0.2835,38.7400,69,97,378553
2.0919,0.2786,38.8400,69,97,378556
2.1359,0.2835,38.6800,69,97,378559
2.1114,0.2688,38.8400,69,97,378563
2.1163,0.2835,38.8700,69,97,378566
2.1457,0.2835,38.8100,69,97,378569
2.1505,0.3079,38.8400,69,97,378573
2.2434,0.2884,38.6500,69,97,378576
2.1896,0.2786,38.8700,69,97,378579
2.2287,0.2786,38.8700,69,97,378584
2.2385,0.2835,38.8400,69,97,378587
2.2434,0.2786,38.8700,69,97,378590
2.3314,0.2933,38.7700,69,97,378594
2.3167,0.2884,38.8100,69,97,378597
2.3363,0.2688,38.8400,69,97,378600
2.3558,0.2835,38.8400,69,97,378603
2.3705,0.2688,38.8400,69,97,378607
2.4536,0.2884,38.5800,69,97,378610
2.4389,0.2835,38.7700,69,97,378613
2.4682,0.2786,38.8100,69,97,378617
2.4780,0.2786,38.8100,69,97,378620
2.5122,0.2786,38.8400,69,97,378624
2.5562,0.2884,38.7400,69,97,378628
2.5220,0.2786,38.8400,69,97,378631
2.5855,0.2835,38.9300,69,97,378634
2.5660,0.2737,38.8400,69,97,378638
2.5806,0.2786,38.8400,69,97,378641
2.6002,0.2737,38.8100,69,97,378644
2.5855,0.2786,38.8700,69,97,378647
2.6197,0.2786,38.7100,69,97,378651
2.5611,0.2786,38.8700,69,97,378654
2.5415,0.2786,38.8400,69,97,378657
2.5318,0.2688,38.7400,69,97,378661
2.4389,0.2786,38.8400,69,97,378664
2.4194,0.2933,38.6500,69,97,378668
2.3314,0.2835,38.7700,69,97,378672
2.2532,0.2835,38.8700,69,97,378675
2.1994,0.2884,39.0300,69,97,378678
2.0919,0.2737,38.8700,69,97,378682
2.0528,0.2933,38.5800,69,97,378685
1.9159,0.2835,38.7400,69,97,378688
1.8280,0.2835,38.8700,69,97,378692
1.7791,0.2786,38.8400,69,97,378695
1.7253,0.2737,38.8400,69,97,378698
1.7302,0.2981,38.6500,69,97,378701
1.6325,0.2835,38.8100,69,97,378705
1.5982,0.2737,38.8100,69,97,378708
1.5591,0.2786,38.8400,69,97,378712
1.5347,0.2786,38.8700,69,97,378716
1.5543,0.2933,38.7700,69,97,378719
1.5200,0.2835,38.7700,69,97,378722
1.5298,0.3177,38.7100,69,97,378726
1.5005,0.2786,38.8400,69,97,378729
1.5054,0.3079,38.8700,69,97,378732
1.5347,0.2884,38.7100,69,97,378736
1.5152,0.3030,38.8400,69,97,378739
1.5494,0.2835,38.7400,69,97,378742
1.5298,0.2737,38.8700,69,97,378745
1.5445,0.3030,38.8700,69,97,378749
1.5787,0.2786,38.7400,69,97,378753
1.5738,0.2786,38.7100,69,97,378756
1.6276,0.2786,38.6800,69,97,378760
1.5982,0.2786,38.9000,69,97,378763
1.6031,0.2688,38.9000,69,97,378766
1.6227,0.2884,38.8100,69,97,378770
1.6325,0.2786,38.8700,69,97,378773
1.6911,0.2981,38.5800,69,97,378776
1.6569,0.2786,38.8400,69,97,378780
1.6813,0.2786,38.8700,69,97,378783
1.6862,0.2835,38.8400,69,97,378786
1.7107,0.2835,38.8400,69,97,378790
1.7009,0.2688,38.8700,69,97,378793
1.7253,0.2884,38.7400,69,97,378798
1.6960,0.2835,38.8700,69,97,378801
1.7204,0.2835,38.7100,69,97,378804
1.7009,0.2835,38.8700,69,97,378807
1.7253,0.2786,38.8700,69,97,378811
1.7498,0.2933,38.7400,69,97,378814
1.7302,0.2688,38.8700,69,97,378817
1.7742,0.2835,38.7400,69,97,378821
1.7449,0.2835,38.8400,69,97,378824
1.7498,0.2786,38.9300,69,97,378827
1.7742,0.2835,38.8100,69,97,378831
1.7595,0.2786,38.9300,69,97,378834
1.7937,0.3079,38.6200,69,97,378838
1.7693,0.2786,38.8700,69,97,378842
1.7840,0.2835,38.8400,69,97,378845
1.8426,0.2933,38.7700,69,97,378848
1.7742,0.2786,38.8700,69,97,378851
1.8328,0.2933,38.5800,69,97,378855
1.7986,0.2835,39.1600,69,97,378858
1.8035,0.2835,38.8700,69,97,378861
1.8084,0.2786,38.7700,69,97,378865
1.7986,0.3079,38.8700,69,97,378868
1.8475,0.2981,38.5800,69,97,378871
1.7986,0.2884,38.7700,69,97,378875
1.8133,0.2737,38.8100,69,97,378878
1.8035,0.2786,38.9600,69,97,378882
1.8231,0.2737,38.8700,69,97,378886
1.8671,0.2884,38.7700,69,97,378889
1.8280,0.2786,38.8400,69,97,378892
1.8377,0.2786,38.7400,69,97,378895
1.8084,0.2835,38.8400,69,97,378899
1.8084,0.2786,38.8700,69,97,378902
1.8328,0.2884,38.8700,69,97,378905
1.8084,0.2786,38.8400,69,97,378909
1.8377,0.2835,38.7400,69,97,378912
1.8035,0.2835,38.8700,69,97,378915
1.8035,0.2737,38.8700,69,97,378919
1.8475,0.3030,38.7100,69,97,378923
1.8182,0.2786,38.8700,69,97,378926
1.8426,0.3128,38.7100,69,97,378930
1.8182,0.2786,38.7700,69,97,378933
1.8084,0.2737,38.8400,69,97,378936
1.8280,0.2884,38.7700,69,97,378940
1.8084,0.2786,38.9000,69,97,378943
1.8573,0.2933,38.6200,69,97,378946
1.8133,0.2835,38.7700,69,97,378949
1.7986,0.2737,38.8700,69,97,378953
1.8084,0.2688,38.8400,69,97,378956
1.8084,0.2786,38.7400,69,97,378959
1.8719,0.2933,38.5500,69,97,378963
1.8182,0.2786,38.8100,69,97,378967
1.8573,0.2737,38.8700,69,97,378970
1.8084,0.2835,38.4600,69,97,378974
1.8084,0.2737,38.8700,69,97,378977
1.8524,0.2981,38.6800,69,97,378980
1.8280,0.2835,38.8100,69,97,378984
1.8426,0.2786,38.7400,69,97,378987
1.8035,0.2737,38.9000,69,97,378990
1.8035,0.2786,38.9300,69,97,378993
1.8328,0.2884,38.0800,69,97,378997
1.7937,0.2786,38.9000,69,97,379000
1.8182,0.2688,38.7100,69,97,379003
1.7937,0.2786,38.7700,69,97,379008
1.7889,0.2737,38.9300,69,97,379011
1.8084,0.2884,38.8400,69,97,379014
1.7693,0.2688,38.8400,69,97,379018
1.8035,0.2786,38.7400,69,97,379021
1.7693,0.2737,38.8100,69,97,379024
1.7742,0.2786,38.8700,69,97,379028
1.7791,0.2884,38.8100,69,97,379031
1.7693,0.2688,38.8400,69,97,379034
1.7937,0.2835,38.5800,69,97,379037
1.7546,0.2786,38.8700,69,97,379041
1.7693,0.2737,39.0900,69,97,379044
1.7791,0.2786,38.8100,69,97,379047
1.7498,0.2786,38.5200,69,97,379052
1.7937,0.2933,38.5800,69,97,379055
1.7546,0.2835,38.8400,69,97,379058
1.7498,0.2981,38.8400,69,97,379062
1.7546,0.2835,39.0300,69,97,379065
1.7449,0.2786,38.8700,69,97,379068
1.7986,0.2981,38.6500,69,97,379072
1.7400,0.2981,38.7700,69,97,379075
1.7400,0.2737,38.7700,69,97,379078
1.7351,0.2786,38.8700,69,97,379081
1.7498,0.2786,38.8400,69,97,379085
1.7889,0.2933,38.7100,69,97,379088
1.7400,0.2786,38.8400,69,97,379091
1.7595,0.2786,38.7400,69,97,379096
1.7204,0.2737,38.9600,69,97,379099
1.7204,0.2688,38.8700,69,97,379102
1.7449,0.2835,38.7700,69,97,379106
1.7449,0.2786,38.9000,69,97,379109
1.7498,0.2884,38.7400,69,97,379112
1.7058,0.2737,38.8400,69,97,379116
1.7058,0.2688,38.8700,69,97,379119
1.7351,0.2884,38.7100,69,97,379122
1.7058,0.2786,38.8400,69,97,379126
1.7302,0.2835,39.1200,69,97,379129
1.7155,0.2835,38.8100,69,97,379132
1.7058,0.2786,39.0000,69,97,379136
1.7253,0.2884,38.7400,69,97,379140
1.6960,0.2786,38.9300,69,97,379143
1.7449,0.2884,38.6200,69,97,379146
1.6960,0.2786,38.7700,69,97,379150
1.6911,0.2737,38.8700,69,97,379153
1.6960,0.2786,38.8100,69,97,379156
1.6960,0.2786,38.8700,69,97,379160
1.7742,0.2884,38.5500,69,97,379163
1.7302,0.2835,38.8100,69,97,379166
1.7351,0.2835,38.8100,69,97,379170
1.7253,0.2786,38.8400,69,97,379173
1.7302,0.2737,38.8700,69,97,379176
1.7693,0.2933,38.7100,69,97,379180
1.7449,0.2981,38.8100,69,97,379184
1.7595,0.2786,38.7400,69,97,379187
1.7449,0.2884,38.8400,69,97,379190
1.7449,0.2737,38.8700,69,97,379194
1.7840,0.3079,38.6500,69,97,379197
1.7498,0.2786,38.8400,69,97,379200
1.7742,0.3079,38.7700,69,97,379204
1.7449,0.2786,38.7100,69,97,379207
1.7302,0.2786,38.8700,69,97,379210
1.7204,0.2737,38.7400,69,97,379214
1.6618,0.2688,38.8400,69,97,379217
1.6716,0.2786,38.7400,69,97,379220
1.6227,0.2835,38.8400,69,97,379224
1.6178,0.2786,39.0600,69,97,379228
1.6129,0.2786,38.7700,69,97,379231
1.5934,0.2688,38.8400,69,97,379234
1.6129,0.2835,38.5800,69,97,379238
1.5689,0.2737,38.8400,69,97,379241
1.5689,0.2786,38.8700,69,97,379244
1.5640,0.2835,38.8400,69,97,379248
1.5298,0.2688,38.8700,69,97,379251
1.5640,0.2688,38.5500,69,97,379254
1.5249,0.2835,38.7700,69,97,379258
1.5152,0.2737,38.8400,69,97,379261
1.4956,0.2835,38.8100,69,97,379265
1.4516,0.2786,38.8400,69,97,379269
1.4370,0.2981,38.7700,69,97,379272
1.3587,0.2835,38.7700,69,97,379275
1.3881,0.2737,38.8100,69,97,379278
1.5005,0.2786,38.8700,69,97,379282
1.7693,0.2737,38.9300,69,97,379285
2.1261,0.2884,38.9600,69,97,379288
2.4976,0.2688,38.8400,69,97,379292
2.9179,0.2786,38.7400,69,97,379295
3.2014,0.2786,38.8400,69,97,379298
3.4360,0.2786,38.9300,69,97,379302
3.4897,0.3324,38.8100,69,97,379305
3.2698,0.2786,38.8400,69,97,379309
2.9277,0.2835,38.7100,69,97,379313
2.3949,0.2688,38.8700,69,97,379316
1.9355,0.2737,38.9000,69,97,379319
1.6129,0.2786,38.7400,69,97,379322
1.3148,0.2786,38.7400,69,97,379326
1.2072,0.2786,38.6800,69,97,379329
1.1388,0.2786,38.7400,69,97,379332
1.1290,0.2737,38.8700,69,97,379336
1.1584,0.2884,38.7700,69,97,379339
1.1632,0.2786,38.8400,69,97,379342
1.2659,0.2884,38.5800,69,97,379346
1.2317,0.2835,38.7400,69,97,379350
1.2512,0.2737,38.8700,69,97,379353
1.2805,0.2786,38.8400,69,97,379357
1.3001,0.2835,38.8700,69,97,379360
1.3539,0.2981,38.5800,69,97,379363
1.3294,0.2786,38.8100,69,97,379366
1.3392,0.2737,38.8100,69,97,379370
1.3245,0.2786,38.8700,69,97,379373
1.3343,0.2688,38.8400,69,97,379376
1.3832,0.2884,38.7100,69,97,379380
1.3930,0.2786,38.8400,69,97,379383
1.4125,0.2786,38.7400,69,97,379386
1.3978,0.2835,38.8400,69,97,379390
1.4027,0.2786,38.8700,69,97,379394
1.4321,0.2884,38.7100,69,97,379397
1.5054,0.2835,38.7100,69,97,379401
1.4467,0.2737,38.8700,69,97,379404
1.4761,0.2835,38.5800,69,97,379408
1.4467,0.2835,38.8100,69,97,379411
1.4516,0.2786,38.9300,69,97,379414
1.4663,0.2835,38.8400,69,97,379418
1.4761,0.2786,38.9600,69,97,379421
1.5738,0.2884,38.5800,69,97,379424
1.5152,0.2786,38.9300,69,97,379427
1.5445,0.2737,38.8700,69,97,379431
1.5591,0.2835,38.8400,69,97,379435
1.5982,0.2835,38.8700,69,97,379438
1.6276,0.2981,38.0200,69,97,379442
1.6080,0.3079,38.8100,69,97,379445
1.6325,0.2835,38.7700,69,97,379448
1.6422,0.2786,38.8400,69,97,379452
1.6471,0.2737,38.8700,69,97,379455
1.6911,0.2884,38.6800,69,97,379458
1.6618,0.2786,38.8400,69,97,379462
1.6960,0.2786,38.7400,69,97,379465
1.6911,0.2737,38.8400,69,97,379468
1.7155,0.2786,38.9300,69,97,379472
1.7498,0.2884,38.7400,69,97,379475
1.7155,0.2786,38.8700,69,97,379479
1.7693,0.2786,38.7400,69,97,379482
1.7400,0.2688,38.8700,69,97,379486
1.7595,0.2786,38.8700,69,97,379489
1.7986,0.2835,38.7700,69,97,379492
1.7986,0.2786,38.9300,69,97,379496
1.8426,0.3324,38.6500,69,97,379499
1.8133,0.2786,39.0900,69,97,379502
1.8426,0.2737,38.8700,69,97,379506
1.8768,0.2835,38.8100,69,97,379509
1.8817,0.2786,38.8700,69,97,379512
1.9599,0.2884,38.5800,69,97,379516
1.9453,0.2835,38.7700,69,97,379520
1.9550,0.2737,38.8700,69,97,379523
1.9844,0.2884,38.8400,69,97,379526
1.9892,0.2688,38.9300,69,97,379530
2.0674,0.2981,38.6200,69,97,379533
2.0283,0.2835,38.7400,69,97,379536
2.0235,0.2737,38.8100,69,97,379540
2.0283,0.2786,38.7400,69,97,379543
2.0430,0.3177,38.8700,69,97,379546
2.0968,0.2933,38.7100,69,97,379550
2.0479,0.2786,39.0600,69,97,379553
2.0430,0.2835,38.7400,69,97,379556
1.9844,0.2737,38.8700,69,97,379559
1.9355,0.2737,38.8700,69,97,379564
1.9257,0.2933,38.8100,69,97,379567
1.8573,0.2786,38.9000,69,97,379570
1.8182,0.2835,38.7100,69,97,379574
1.7107,0.2786,38.9000,69,97,379577
1.6325,0.2639,38.8700,69,97,379580
1.5689,0.2884,38.8100,69,97,379584
1.4663,0.2737,38.8400,69,97,379587
1.4174,0.2786,38.6800,69,97,379590
1.3294,0.2835,38.7400,69,97,379594
1.2561,0.2786,38.8700,69,97,379597
1.2170,0.2884,38.7400,69,97,379600
1.1437,0.2688,38.8700,69,97,379604
1.1339,0.2835,38.5800,69,97,379608
1.0850,0.2835,38.8100,69,97,379611
1.0459,0.2786,38.8700,69,97,379614
1.0264,0.2835,38.8400,69,97,379618
1.0068,0.2688,38.8400,69,97,379621
1.0215,0.2933,38.5800,69,97,379624
0.9824,0.2786,38.8400,69,97,379628
0.9922,0.2737,38.8700,69,97,379631
0.9824,0.2835,38.8400,69,97,379634
0.9726,0.2786,38.8700,69,97,379638
1.0020,0.2884,38.6200,69,97,379641
0.9873,0.2688,38.7700,69,97,379644
1.0068,0.2737,38.8400,69,97,379648
1.0215,0.2786,38.8400,69,97,379652
1.0264,0.2786,38.8700,69,97,379655
1.0557,0.3030,38.6500,69,97,379658
1.0362,0.2688,38.8100,69,97,379662
1.0508,0.2786,38.7400,69,97,379665
1.0606,0.2786,38.4900,69,97,379668
1.0802,0.2737,38.8700,69,97,379672
1.0997,0.2688,38.7100,69,97,379675
1.0899,0.2786,38.8400,69,97,379678
1.1095,0.2835,38.7100,69,97,379681
1.0948,0.2835,38.8400,69,97,379685
1.1095,0.2786,39.0000,69,97,379688
1.1388,0.2835,38.7700,69,97,379692
1.1535,0.2688,38.8400,69,97,379696
1.1779,0.2786,38.0800,69,97,379699
1.1535,0.2786,38.8700,69,97,379702
1.1681,0.2737,38.9300,69,97,379706
1.1975,0.2884,38.7100,69,97,379709
1.1828,0.2786,38.9300,69,97,379712
1.2317,0.2933,38.6800,69,97,379715
1.2023,0.2786,38.7400,69,97,379719
1.2023,0.2933,38.8400,69,97,379722
1.2317,0.2884,38.7700,69,97,379725
1.2219,0.2786,38.8700,69,97,379729
1.2708,0.2884,38.6200,69,97,379732
1.2317,0.2884,38.7400,69,97,379736
1.2317,0.2737,38.8400,69,97,379740
1.2366,0.2786,38.9000,69,97,379743
1.2414,0.2933,38.8400,69,97,379746
1.2952,0.2981,38.6200,69,97,379750
1.2659,0.2737,38.8100,69,97,379753
1.2757,0.2737,38.7700,69,97,379756
1.2610,0.2835,38.8400,69,97,379760
1.2561,0.2786,38.8700,69,97,379763
1.2952,0.2981,38.7700,69,97,379766
1.2952,0.2688,38.8100,69,97,379769
1.3148,0.2786,38.7400,69,97,379773
1.3001,0.2786,38.8700,69,97,379777
1.2952,0.2786,38.8700,69,97,379780
1.3148,0.2981,38.7400,69,97,379784
1.2903,0.2786,38.9000,69,97,379787
1.3245,0.2884,38.7400,69,97,379790
1.3343,0.2737,38.8400,69,97,379794
1.3245,0.2786,38.9000,69,97,379797
1.3392,0.2835,38.7100,69,97,379800
1.3196,0.2786,38.9600,69,97,379804
1.3636,0.2786,38.7100,69,97,379807
1.3245,0.2786,38.8400,69,97,379810
1.3343,0.2835,38.8700,69,97,379813
1.3343,0.2835,38.8100,69,97,379817
1.3343,0.2786,38.8400,69,97,379821
1.3734,0.2884,38.5800,69,97,379824
1.3392,0.2835,38.8400,69,97,379828
1.3441,0.2737,38.8700,69,97,379831
1.3587,0.2835,38.8100,69,97,379834
1.3392,0.2786,38.5800,69,97,379838
1.4174,0.2884,38.6200,69,97,379841
1.3587,0.2884,38.7700,69,97,379844
1.3636,0.2737,38.7700,69,97,379848
1.3734,0.2786,38.8700,69,97,379851
1.3734,0.2688,38.8700,69,97,379854
1.4027,0.2884,38.6800,69,97,379858
1.3734,0.2933,38.7700,69,97,379862
1.3783,0.2786,38.7400,69,97,379865
1.3685,0.2786,38.8100,69,97,379868
1.3832,0.2737,38.8700,69,97,379872
1.4076,0.2884,38.7700,69,97,379875
1.3783,0.2786,38.8700,69,97,379878
1.4027,0.2688,38.7100,69,97,379882
1.3734,0.2737,38.0200,69,97,379885
1.3832,0.2835,38.8400,69,97,379888
1.4125,0.2835,38.8400,69,97,379892
1.4076,0.2786,38.8400,69,97,379895
1.4272,0.2786,38.6800,69,97,379898
1.3930,0.2639,38.8700,69,97,379902
1.3978,0.2688,38.8700,69,97,379906
1.4223,0.2884,38.7700,69,97,379909
1.4076,0.2786,38.8400,69,97,379913
1.4418,0.2884,38.5800,69,97,379916
1.4516,0.2884,38.7400,69,97,379919
1.4174,0.2737,38.9300,69,97,379922
1.4272,0.2835,38.8100,69,97,379926
1.4223,0.2786,38.8700,69,97,379929
1.4761,0.2884,38.5800,69,97,379932
1.4370,0.2884,38.7400,69,97,379936
1.4321,0.2737,38.8100,69,97,379939
1.4321,0.2786,38.8400,69,97,379942
1.4467,0.2786,38.8700,69,97,379947
1.4858,0.2884,38.7100,69,97,379950
1.4516,0.2786,38.8400,69,97,379953
1.4761,0.2786,38.7100,69,97,379957
1.4467,0.2786,38.8400,69,97,379960
1.4467,0.2786,38.8400,69,97,379963
1.4712,0.2835,38.9600,69,97,379967
1.4663,0.2884,38.8400,69,97,379970
1.4907,0.2884,38.7400,69,97,379973
1.4516,0.2737,38.8400,69,97,379976
1.4614,0.2786,38.8400,69,97,379980
1.4809,0.2835,38.7400,69,97,379983
1.4565,0.2786,38.8700,69,97,379986
1.4907,0.2835,38.6500,69,97,379991
1.4809,0.2786,38.7700,69,97,379994
1.4858,0.2786,38.8400,69,97,379997
1.4956,0.2884,38.7700,69,97,380001
1.4809,0.2786,38.9600,69,97,380004
1.5298,0.2933,38.5800,69,97,380007
1.5543,0.2933,38.6800,69,97,380011
1.5005,0.2786,38.8700,69,97,380014
1.5054,0.2737,38.7700,69,97,380018
1.4809,0.2786,38.8700,69,97,380021
1.4712,0.2786,39.0000,69,97,380024
1.5005,0.2933,38.7700,69,97,380028
1.4858,0.2835,38.8100,69,97,380032
1.5200,0.2786,38.8400,69,97,380035
1.4956,0.2786,38.8400,69,97,380038
1.5200,0.2737,38.9300,69,97,380042
1.5494,0.2884,38.7400,69,97,380045
1.5200,0.2786,38.8400,69,97,380048
1.5494,0.2884,38.7400,69,97,380052
1.5494,0.2737,38.8400,69,97,380055
1.5640,0.2786,38.9300,69,97,380058
1.5885,0.2688,38.7100,69,97,380062
1.5787,0.2786,38.9300,69,97,380065
1.6227,0.2835,38.6500,69,97,380068
1.6080,0.2786,38.8400,69,97,380072
1.6276,0.2835,38.8400,69,97,380076
1.6520,0.2835,38.8100,69,97,380079
1.6569,0.2786,38.8100,69,97,380082
1.7107,0.2688,38.5800,69,97,380086
1.6667,0.3128,38.8400,69,97,380089
1.6911,0.2737,38.8400,69,97,380092
1.7058,0.2835,38.8100,69,97,380096
1.7009,0.2786,38.9000,69,97,380099
1.7498,0.2981,38.1100,69,97,380102
1.7155,0.2884,38.8100,69,97,380106
1.6813,0.2737,38.8400,69,97,380109
1.6618,0.2786,38.9300,69,97,380112
1.6276,0.2786,38.8700,69,97,380116
1.6520,0.2933,38.6800,69,97,380120
1.5982,0.2835,38.2100,69,97,380123
1.5885,0.2737,38.7400,69,97,380127
1.5689,0.2884,38.8700,69,97,380130
1.5787,0.2786,38.9300,69,97,380133
1.6031,0.2884,38.6800,69,97,380136
1.5640,0.2786,38.9600,69,97,380140
1.5738,0.3079,38.7100,69,97,380143
1.5200,0.2786,38.9600,69,97,380146
1.5103,0.3128,38.8400,69,97,380150
1.5298,0.2835,38.8100,69,97,380153
1.5298,0.2835,38.8700,69,97,380156
1.5494,0.2688,38.7700,69,97,380161
1.4858,0.2884,38.8700,69,97,380164
1.4761,0.2786,38.8400,69,97,380167
1.3881,0.2835,38.7100,69,97,380171
1.3294,0.2688,38.8700,69,97,380174
1.3930,0.2884,38.5500,69,97,380177
1.5200,0.2884,38.7400,69,97,380180
1.7449,0.2688,38.8700,69,97,380184
2.1065,0.2933,38.8100,69,97,380187
2.4976,0.2688,38.8700,69,97,380190
2.9961,0.2884,38.5200,69,97,380194
3.3187,0.2835,38.7100,69,97,380197
3.5728,0.2737,38.7700,69,97,380200
3.6364,0.2835,38.8400,69,97,380205
3.4360,0.2786,38.9300,69,97,380208
3.1378,0.3226,38.6500,69,97,380211
2.5660,0.2835,38.8100,69,97,380215
2.0870,0.2786,38.7100,69,97,380218
1.6862,0.2835,38.8400,69,97,380221
1.4174,0.2786,38.8400,69,97,380224
1.3245,0.2981,38.7700,69,97,380228
1.2512,0.2786,38.8400,69,97,380231
1.2805,0.3079,38.7100,69,97,380234
1.2903,0.2786,38.8700,69,97,380238
1.3245,0.2786,38.9000,69,97,380241
1.3783,0.2933,38.7100,69,97,380244
1.3734,0.2786,38.8400,69,97,380249
1.4272,0.2688,38.7100,69,97,380252
1.4223,0.2786,38.7700,69,97,380255
1.4516,0.2786,38.8700,69,97,380259
1.4809,0.2884,38.7100,69,97,380262
1.4663,0.2835,38.8400,69,97,380265
1.5005,0.2835,38.6500,69,97,380268
1.4956,0.3030,38.7700,69,97,380272
1.5200,0.2786,38.8700,69,97,380275
1.5494,0.2835,38.8100,69,97,380278
1.5640,0.2786,38.8700,69,97,380282
1.6129,0.2933,38.5800,69,97,380285
1.5885,0.2786,38.8400,69,97,380289
1.6178,0.2688,38.8700,69,97,380293
1.6325,0.2835,38.8700,69,97,380296
1.6373,0.2786,38.8700,69,97,380299
1.7009,0.2981,38.6200,69,97,380303
1.7058,0.2786,38.7700,69,97,380306
1.6862,0.2737,38.8100,69,97,380309
1.7058,0.2835,38.8400,69,97,380313
1.7155,0.2786,38.8700,69,97,380316
1.7693,0.2933,38.6800,69,97,380319
1.7449,0.2835,38.7400,69,97,380322
1.7644,0.2786,38.7100,69,97,380326
1.7595,0.2688,38.8400,69,97,380329
1.7889,0.2786,38.6200,69,97,380333
1.8426,0.2933,38.7100,69,97,380337
1.8182,0.2835,38.9300,69,97,380340
1.8622,0.2835,38.7400,69,97,380343
1.8328,0.2786,38.9600,69,97,380347
1.8671,0.2835,38.8400,69,97,380350
1.8817,0.2835,38.8700,69,97,380353
1.8915,0.2786,38.8700,69,97,380357
1.9404,0.2835,38.6800,69,97,380360
1.9208,0.2835,38.9000,69,97,380363
1.9355,0.2786,38.8700,69,97,380366
1.9501,0.2884,38.8700,69,97,380370
1.9404,0.2786,38.8700,69,97,380374
2.0088,0.3079,38.6200,69,97,380377
1.9941,0.3177,38.8100,69,97,380381
1.9941,0.2786,38.8700,69,97,380384
2.0137,0.2786,38.8100,69,97,380387
2.0088,0.2786,38.8400,69,97,380391
2.0870,0.2933,38.5800,69,97,380394
2.0626,0.2835,38.7700,69,97,380397
2.0772,0.2737,38.8400,69,97,380401
2.0968,0.2835,38.8400,69,97,380404
2.1114,0.2786,38.9000,69,97,380407
2.1945,0.2981,38.6800,69,97,380410
2.1652,0.2835,38.8100,69,97,380414
2.2092,0.2786,38.7700,69,97,380418
2.2141,0.2786,38.7700,69,97,380421
2.2385,0.2688,38.8700,69,97,380425
2.2972,0.2884,38.7700,69,97,380428
2.3314,0.2786,38.8400,69,97,380431
2.3558,0.2835,38.8100,69,97,380435
2.3509,0.2688,38.8400,69,97,380438
2.3754,0.2786,38.6500,69,97,380441
2.4242,0.2981,38.7100,69,97,380445
2.3949,0.2786,38.9300,69,97,380448
2.4487,0.2835,38.7100,69,97,380451
2.4340,0.2786,38.7700,69,97,380454
2.4585,0.2786,38.9300,69,97,380459
2.4976,0.2884,38.7100,69,97,380462
2.4438,0.2786,38.9000,69,97,380465
2.4731,0.2835,38.5800,69,97,380469
2.4047,0.2786,38.7400,69,97,380472
2.3754,0.2786,38.8400,69,97,380475
2.3509,0.2884,38.8100,69,97,380479
2.2825,0.2835,38.8400,69,97,380482
2.2727,0.2884,38.6500,69,97,380485
2.1603,0.2786,38.8100,69,97,380488
2.0626,0.2786,38.8700,69,97,380492
1.9941,0.2884,38.7100,69,97,380495
1.9013,0.2835,38.8700,69,97,380498
1.8768,0.2981,38.6800,69,97,380503
1.7693,0.2884,38.7100,69,97,380506
1.6862,0.2737,38.8400,69,97,380509
1.6667,0.2786,38.8100,69,97,380513
1.5885,0.2786,38.8400,69,97,380516
1.5885,0.2933,38.6500,69,97,380519
1.5103,0.2884,38.8100,69,97,380523
1.4761,0.2884,38.7400,69,97,380526
1.4418,0.2786,38.8400,69,97,380529
1.4272,0.2786,38.9300,69,97,380532
1.4467,0.2884,38.7100,69,97,380536
1.4125,0.2835,38.9300,69,97,380539
1.4321,0.2933,38.7100,69,97,380542
1.3978,0.2786,38.8700,69,97,380547
1.4076,0.2737,38.8700,69,97,380550
1.4272,0.2835,38.8100,69,97,380553
1.4370,0.3030,38.8700,69,97,380557
1.4761,0.2835,38.7100,69,97,380560
1.4516,0.2835,38.8400,69,97,380563
1.4761,0.2786,38.8700,69,97,380567
1.5347,0.2933,38.7100,69,97,380570
1.5005,0.2786,38.9000,69,97,380573
1.5640,0.2981,38.5800,69,97,380577
1.5640,0.2835,38.7400,69,97,380580
1.5738,0.2786,38.8700,69,97,380583
1.5885,0.2884,38.8100,69,97,380587
1.5836,0.2786,38.8700,69,97,380591
1.6520,0.3030,38.5500,69,97,380594
1.6178,0.2835,38.7100,69,97,380597
1.6276,0.2737,38.8100,69,97,380601
1.6325,0.2835,38.8400,69,97,380604
1.6373,0.2786,38.8100,69,97,380607
1.6911,0.2981,38.7100,69,97,380611
1.6618,0.2835,38.6500,69,97,380614
1.6911,0.2835,38.7400,69,97,380617
1.6813,0.2835,38.8400,69,97,380621
1.7155,0.2786,38.8700,69,97,380624
1.7302,0.2786,38.9300,69,97,380628
1.7400,0.2884,38.4300,69,97,380632
1.7009,0.2786,38.8700,69,97,380635
1.7400,0.2688,38.6800,69,97,380639
1.7400,0.2786,38.7400,69,97,380642
1.7546,0.2737,38.8700,69,97,380645
1.7840,0.2933,38.5500,69,97,380648
1.7595,0.2786,38.8400,69,97,380652
1.8084,0.2884,38.6200,69,97,380655
1.7742,0.2835,38.7700,69,97,380658
1.7889,0.2786,38.9000,69,97,380662
1.8035,0.2835,38.7700,69,97,380665
1.8035,0.2737,38.8700,69,97,380668
1.8475,0.2884,38.5800,69,97,380673
1.7937,0.2835,38.7700,69,97,380676
1.8084,0.2737,38.8400,69,97,380679
1.8133,0.2835,38.9000,69,97,380682
1.8377,0.2786,38.8400,69,97,380686
1.8671,0.2981,38.6200,69,97,380689
1.8377,0.2835,38.8100,69,97,380692
1.8426,0.2786,38.7400,69,97,380696
1.8328,0.2786,38.9300,69,97,380699
1.8328,0.2786,38.9000,69,97,380702
1.8817,0.2933,38.6800,69,97,380706
1.8475,0.2835,38.9000,69,97,380709
1.8671,0.3030,38.7100,69,97,380712
1.8426,0.2835,38.8700,69,97,380717
1.8671,0.2786,38.9000,69,97,380720
1.9013,0.2688,38.7700,69,97,380723
1.8768,0.2786,38.9600,69,97,380727
1.9062,0.2786,38.7100,69,97,380730
1.8524,0.2786,38.8100,69,97,380733
1.8524,0.2786,38.8700,69,97,380736
1.8719,0.2835,38.7700,69,97,380740
1.8768,0.2786,38.8700,69,97,380743
1.9208,0.2933,38.6500,69,97,380746
1.8817,0.2786,39.0600,69,97,380750
1.8915,0.2737,38.8700,69,97,380753
1.9110,0.2884,38.8100,69,97,380756
1.9013,0.2786,38.8700,69,97,380761
1.9550,0.2688,38.5800,69,97,380764
1.9306,0.2835,39.0300,69,97,380767
1.9159,0.2835,38.8700,69,97,380771
1.9159,0.2835,37.9900,69,97,380774
1.9062,0.3030,38.8400,69,97,380777
1.9746,0.3030,38.6500,69,97,380780
1.9306,0.2884,38.7100,69,97,380784
1.9257,0.2639,38.7700,69,97,380787
1.9208,0.2835,38.8700,69,97,380790
1.9257,0.2786,38.8700,69,97,380794
1.9746,0.2933,38.7100,69,97,380797
1.9404,0.2835,38.8700,69,97,380801
1.9648,0.2786,38.7400,69,97,380805
1.9404,0.2835,38.9000,69,97,380808
1.9306,0.2786,38.8700,69,97,380811
1.9550,0.2884,38.8100,69,97,380814
1.9501,0.2786,38.9300,69,97,380818
1.9892,0.2835,38.7100,69,97,380821
1.9599,0.2835,38.9300,69,97,380824
1.9892,0.2737,38.8700,69,97,380828
1.9844,0.2884,38.7400,69,97,380831
1.9550,0.2786,38.8400,69,97,380834
1.9697,0.2786,38.6800,69,97,380838
1.9648,0.2884,38.7700,69,97,380841
1.9648,0.2786,38.8400,69,97,380845
1.9892,0.2933,38.7400,69,97,380849
1.9648,0.2688,38.8700,69,97,380852
2.0088,0.2884,38.7400,69,97,380855
1.9746,0.2737,38.7700,69,97,380859
1.9795,0.2688,38.8400,69,97,380862
1.9892,0.2835,38.7700,69,97,380865
1.9941,0.2835,38.8400,69,97,380868
2.0430,0.2933,38.6500,69,97,380872
1.9892,0.2688,38.8100,69,97,380875
1.9892,0.2737,38.8400,69,97,380878
1.9941,0.2737,38.8400,69,97,380882
1.9892,0.2786,38.8700,69,97,380886
2.0528,0.2933,38.6500,69,97,380889
2.0039,0.2835,38.8100,69,97,380893
2.0088,0.2786,38.9300,69,97,380896
1.9941,0.2835,38.8400,69,97,380899
1.9990,0.2688,38.8700,69,97,380903
2.0381,0.2933,38.6500,69,97,380906
1.9990,0.2835,38.8100,69,97,380909
2.0137,0.2835,38.7400,69,97,380912
1.9941,0.2835,38.8700,69,97,380916
2.0039,0.2786,38.8700,69,97,380919
2.0381,0.2981,38.7400,69,97,380922
2.0137,0.2835,38.8700,69,97,380926
2.0479,0.2884,38.7400,69,97,380930
2.0039,0.2786,38.7700,69,97,380933
1.9990,0.2835,38.8400,69,97,380937
2.0235,0.2688,38.7700,69,97,380940
2.0088,0.2786,37.9900,69,97,380943
2.0381,0.2835,38.6500,69,97,380946
1.9990,0.2835,38.8700,69,97,380950
2.0039,0.2786,38.8400,69,97,380953
2.0186,0.2981,38.7700,69,97,380956
1.9990,0.2786,38.9000,69,97,380960
2.0577,0.2933,38.6500,69,97,380963
2.0430,0.2786,38.7700,69,97,380966
2.0235,0.2786,38.8700,69,97,380971
2.0332,0.2884,38.7700,69,97,380974
2.0137,0.2737,38.8700,69,97,380977
2.0821,0.2933,38.5800,69,97,380980
2.0283,0.2884,38.7400,69,97,380984
2.0186,0.2737,38.8400,69,97,380987
2.0235,0.2835,38.9000,69,97,380990
2.0186,0.2981,38.8700,69,97,380994
2.1212,0.3030,38.6500,69,97,380997
2.0430,0.2835,38.9000,69,97,381000
2.0626,0.2786,38.8400,69,97,381004
2.0674,0.2835,38.9300,69,97,381007
2.0577,0.2786,39.1200,69,97,381010
2.1065,0.2981,38.7400,69,97,381014
2.0870,0.2786,38.8100,69,97,381018
2.1163,0.2835,38.7400,69,97,381021
2.1017,0.2835,38.8400,69,97,381024
2.1114,0.2786,38.8400,69,97,381028
2.1554,0.3275,38.6800,69,97,381031
2.1163,0.2835,38.8400,69,97,381034
2.1505,0.2884,38.7400,69,97,381038
2.1212,0.2737,38.8400,69,97,381041
2.1261,0.2786,38.7400,69,97,381044
2.1359,0.2688,38.7400,69,97,381048
2.0723,0.2786,38.9300,69,97,381051
2.0821,0.2835,38.6500,69,97,381054
2.0283,0.2786,38.7700,69,97,381058
2.0186,0.2786,38.8400,69,97,381062
2.0332,0.2786,38.8100,69,97,381065
2.0186,0.2786,38.8400,69,97,381068
2.0528,0.2884,38.6200,69,97,381072
1.9844,0.2786,38.8400,69,97,381075
1.9844,0.2786,38.8100,69,97,381078
1.9844,0.2688,38.8100,69,97,381082
1.9648,0.2835,38.8400,69,97,381085
2.0137,0.2981,38.5500,69,97,381088
1.9648,0.2835,38.7700,69,97,381092
1.9550,0.2786,38.8700,69,97,381095
1.9453,0.2835,38.8400,69,97,381099
1.9208,0.2835,38.8400,69,97,381102
1.9257,0.2933,38.6500,69,97,381106
1.8084,0.2933,38.7700,69,97,381109
1.7546,0.2786,38.7700,69,97,381112
1.7546,0.3128,38.9000,69,97,381116
1.8866,0.2835,38.9300,69,97,381119
2.1505,0.2884,38.8100,69,97,381122
2.4682,0.2835,38.8400,69,97,381126
2.9228,0.2835,38.7100,69,97,381129
3.2893,0.2786,38.8400,69,97,381132
3.6852,0.2786,38.8700,69,97,381136
4.0078,0.2981,38.8700,69,97,381139
4.1153,0.2884,38.8400,69,97,381143
3.9589,0.2786,38.7400,69,97,381146
3.4946,0.2737,38.9000,69,97,381150
2.9961,0.2786,38.8400,69,97,381153
2.5220,0.2884,38.7700,69,97,381156
2.1212,0.2786,38.8700,69,97,381160
1.8866,0.2884,38.7400,69,97,381163
1.7400,0.3128,38.8100,69,97,381166
1.6862,0.2786,38.8700,69,97,381170
1.6960,0.2981,38.8100,69,97,381173
1.6960,0.2835,38.8400,69,97,381176
1.7595,0.2884,38.6200,69,97,381180
1.7498,0.2835,38.7400,69,97,381184
1.7693,0.2786,39.2200,69,97,381187
1.7937,0.2786,38.8400,69,97,381190
1.7889,0.2786,39.0000,69,97,381194
1.8475,0.3275,38.6500,69,97,381197
1.7986,0.2835,38.8100,69,97,381200
1.8182,0.2933,38.7700,69,97,381204
1.8133,0.2688,38.8700,69,97,381207
1.8182,0.3079,38.8700,69,97,381210
1.8915,0.2688,38.7400,69,97,381214
1.8524,0.2835,38.9000,69,97,381217
1.8964,0.2737,38.7700,69,97,381220
1.8866,0.2786,38.9000,69,97,381224
1.8964,0.3079,38.8700,69,97,381228
1.9355,0.2884,38.7400,69,97,381231
1.9746,0.2835,38.7100,69,97,381235
1.9453,0.2786,38.8400,69,97,381238
1.9844,0.2835,38.6200,69,97,381242
1.9501,0.2884,38.7700,69,97,381245
1.9550,0.2786,38.8700,69,97,381248
1.9795,0.2835,38.8400,69,97,381251
1.9844,0.2835,38.8400,69,97,381255
2.0479,0.2933,38.5500,69,97,381258
2.0137,0.2786,38.8100,69,97,381261
2.0479,0.2737,38.8700,69,97,381265
2.0674,0.2835,38.8700,69,97,381268
2.0870,0.2786,38.8400,69,97,381272
2.1701,0.2981,38.6500,69,97,381276
2.1261,0.2884,38.8400,69,97,381279
2.1505,0.2737,38.7700,69,97,381282
2.1603,0.2884,38.8400,69,97,381286
2.1799,0.2786,38.8400,69,97,381289
2.2385,0.2884,38.6500,69,97,381292
2.2141,0.2688,38.8100,69,97,381295
2.2385,0.2786,38.9000,69,97,381299
2.2239,0.2884,38.8700,69,97,381302
2.2483,0.2786,38.8400,69,97,381305
2.2972,0.2933,38.7400,69,97,381309
2.2727,0.2835,38.8400,69,97,381313
2.3265,0.2884,38.7400,69,97,381316
2.2923,0.2786,38.8400,69,97,381320
2.3167,0.2786,38.8400,69,97,381323
2.3509,0.2786,38.8100,69,97,381326
2.3705,0.2688,38.8400,69,97,381330
2.4291,0.2835,38.7400,69,97,381333
2.3949,0.2786,38.8700,69,97,381336
2.4194,0.2786,38.9600,69,97,381339
2.4731,0.2835,38.8100,69,97,381343
2.4585,0.2786,38.8700,69,97,381346
2.5562,0.2884,38.5800,69,97,381349
2.5562,0.2884,38.8100,69,97,381353
2.5660,0.2835,38.8400,69,97,381357
2.5953,0.2884,38.8100,69,97,381360
2.5953,0.2786,38.8700,69,97,381364
2.7224,0.2981,38.5800,69,97,381367
2.6686,0.2835,38.6800,69,97,381370
2.6833,0.2835,38.7700,69,97,381374
2.6784,0.2835,38.9000,69,97,381377
2.6931,0.2786,38.8400,69,97,381380
2.7664,0.2884,38.6800,69,97,381383
2.7126,0.2786,38.8400,69,97,381387
2.7615,0.2688,38.7400,69,97,381390
2.6882,0.2835,38.8400,69,97,381393
2.6588,0.2688,38.8400,69,97,381398
2.6540,0.2884,38.8400,69,97,381401
2.5855,0.2786,38.8400,69,97,381404
2.5758,0.2884,38.7400,69,97,381408
2.4731,0.2786,38.9300,69,97,381411
2.3998,0.2786,39.0300,69,97,381414
2.3460,0.2786,38.7400,69,97,381418
2.2190,0.2786,38.8400,69,97,381421
2.1701,0.2835,38.7100,69,97,381424
2.0772,0.2786,38.8100,69,97,381428
2.0088,0.2786,38.8700,69,97,381431
1.9648,0.2884,38.7400,69,97,381434
1.8524,0.2786,38.8700,69,97,381437
1.8328,0.2884,38.6200,69,97,381442
1.7449,0.2835,38.7700,69,97,381445
1.7009,0.2786,38.8400,69,97,381448
1.6716,0.2786,38.8400,69,97,381452
1.6422,0.2786,38.9600,69,97,381455
1.6667,0.2933,38.5500,69,97,381458
1.5982,0.2786,38.7700,69,97,381462
1.6325,0.2786,38.8100,69,97,381465
1.5934,0.2835,39.0300,69,97,381468
1.5836,0.2786,38.9000,69,97,381472
1.6325,0.2981,38.7400,69,97,381475
1.6080,0.2933,38.8700,69,97,381478
1.6227,0.2786,38.7700,69,97,381481
1.6276,0.2835,38.8400,69,97,381486
1.6422,0.2786,38.9300,69,97,381489
1.6911,0.2933,38.6800,69,97,381492
1.6569,0.2933,38.8100,69,97,381496
1.6862,0.2786,38.7100,69,97,381499
1.6813,0.2786,39.0000,69,97,381502
1.7058,0.3030,38.9000,69,97,381506
1.7498,0.2933,38.7400,69,97,381509
1.7400,0.2786,39.0600,69,97,381512
1.7791,0.2835,38.7100,69,97,381516
1.7498,0.2737,38.8100,69,97,381519
1.7498,0.2786,38.8400,69,97,381522
1.7693,0.2688,38.7700,69,97,381526
1.7840,0.2786,39.0600,69,97,381530
1.8280,0.2835,38.6500,69,97,381533
1.7889,0.2786,38.9000,69,97,381536
1.7986,0.2786,38.9000,69,97,381540
1.8182,0.2786,38.7700,69,97,381543
1.7937,0.2786,38.9600,69,97,381546
1.8671,0.2933,38.5800,69,97,381550
1.8426,0.2835,38.8400,69,97,381553
1.8328,0.2737,38.8700,69,97,381556
1.8377,0.2835,38.9300,69,97,381560
1.8328,0.2835,38.8700,69,97,381563
1.9062,0.2981,38.7400,69,97,381566
1.8671,0.2933,38.7400,69,97,381571
1.8671,0.2786,38.9000,69,97,381574
1.8622,0.2884,38.8700,69,97,381577
1.8622,0.2786,38.8700,69,97,381580
1.9013,0.2933,38.7400,69,97,381584
1.8768,0.2835,38.8700,69,97,381587
1.9062,0.3079,38.7100,69,97,381590
1.8817,0.2835,38.8700,69,97,381594
1.8768,0.2786,38.8700,69,97,381597
1.8915,0.2688,38.8400,69,97,381600
1.8964,0.2786,38.9300,69,97,381604
1.9404,0.2835,38.7400,69,97,381607
1.9062,0.2835,38.8100,69,97,381611
1.9110,0.2786,38.8400,69,97,381615
1.9355,0.2884,38.7400,69,97,381618
1.8915,0.2737,38.8400,69,97,381621
1.9306,0.2835,38.6200,69,97,381624
1.9159,0.2835,38.7100,69,97,381628
1.9404,0.2786,38.8700,69,97,381631
1.9453,0.2884,38.7100,69,97,381634
1.9159,0.2835,38.8700,69,97,381638
1.9648,0.2884,38.6800,69,97,381641
1.9257,0.2786,38.7700,69,97,381644
1.9159,0.2688,38.8400,69,97,381648
1.9257,0.2737,38.8400,69,97,381651
1.9208,0.2786,38.8400,69,97,381655
1.9795,0.2981,38.5800,69,97,381659
1.9257,0.2786,38.8100,69,97,381662
1.9355,0.2835,38.8100,69,97,381665
1.9355,0.2835,38.8400,69,97,381669
1.9355,0.2835,38.8700,69,97,381672
1.9648,0.2933,38.8100,69,97,381675
1.9355,0.2835,38.8100,69,97,381678
1.9453,0.2786,38.7400,69,97,381682
1.9306,0.2786,38.9000,69,97,381685
1.9501,0.2688,38.8700,69,97,381688
1.9892,0.2884,38.6200,69,97,381692
1.9501,0.2688,38.8400,69,97,381696
1.9697,0.2884,38.6500,69,97,381699
1.9355,0.2786,38.8400,69,97,381703
1.9550,0.2786,38.8700,69,97,381706
1.9795,0.2786,38.7100,69,97,381709
1.9599,0.2786,38.8700,69,97,381713
1.9844,0.2786,39.1600,69,97,381716
1.9404,0.2786,38.8100,69,97,381719
1.9306,0.2786,38.8700,69,97,381723
1.9648,0.2786,38.8100,69,97,381726
1.9453,0.2786,38.8700,69,97,381729
1.9941,0.2933,38.6200,69,97,381732
1.9404,0.2786,38.8400,69,97,381736
1.9453,0.2737,38.8400,69,97,381740
1.9501,0.2835,38.8400,69,97,381743
1.9404,0.2786,38.8400,69,97,381747
2.0088,0.2981,38.5500,69,97,381750
1.9746,0.2835,38.7400,69,97,381753
1.9648,0.2737,38.8400,69,97,381757
1.9599,0.2835,38.8100,69,97,381760
1.9648,0.2835,38.8700,69,97,381763
2.0235,0.2933,38.4900,69,97,381767
1.9892,0.2835,38.7700,69,97,381770
1.9892,0.2786,38.7400,69,97,381773
1.9746,0.2884,38.8700,69,97,381776
1.9795,0.2835,38.8700,69,97,381780
2.0088,0.2884,38.8100,69,97,381784
1.9795,0.2786,38.8400,69,97,381787
2.0235,0.2835,38.7100,69,97,381791
1.9844,0.2933,38.8700,69,97,381794
1.9795,0.2786,38.8700,69,97,381797
2.0137,0.2737,38.8100,69,97,381801
1.9746,0.2786,38.9300,69,97,381804
2.0283,0.2786,38.6800,69,97,381807
1.9941,0.2786,38.8700,69,97,381811
1.9990,0.2786,38.8400,69,97,381814
2.0137,0.2786,38.7400,69,97,381817
1.9746,0.2737,38.9300,69,97,381820
2.0186,0.2786,38.6200,69,97,381825
2.0039,0.2835,38.7700,69,97,381828
1.9990,0.2786,38.9000,69,97,381831
2.0235,0.2884,38.7700,69,97,381835
1.9795,0.2786,38.8700,69,97,381838
2.0381,0.2884,38.5800,69,97,381841
2.0479,0.3079,38.7400,69,97,381845
1.9990,0.2884,38.8100,69,97,381848
2.0137,0.2786,38.7400,69,97,381852
1.9941,0.2786,38.8100,69,97,381855
1.9941,0.2786,38.8400,69,97,381858
2.0283,0.2884,38.7700,69,97,381862
2.0137,0.2786,38.9300,69,97,381865
2.0479,0.2835,38.7700,69,97,381869
2.0479,0.2786,38.8400,69,97,381872
2.0577,0.2786,38.8400,69,97,381876
2.1065,0.3030,38.7100,69,97,381879
2.0674,0.2786,38.8700,69,97,381882
2.0968,0.2737,38.8100,69,97,381886
2.0577,0.2737,38.8100,69,97,381889
2.0626,0.2786,38.9300,69,97,381892
2.0723,0.2933,38.6800,69,97,381896
2.0186,0.2688,38.8400,69,97,381899
2.0332,0.2835,38.8400,69,97,381902
1.9990,0.2786,38.7400,69,97,381906
1.9453,0.2786,38.8700,69,97,381910
1.9501,0.2786,38.8100,69,97,381913
1.9453,0.2786,38.8700,69,97,381916
1.9892,0.2835,38.5800,69,97,381920
1.9208,0.2786,38.9300,69,97,381923
1.9159,0.2786,38.8700,69,97,381926
1.9110,0.2835,38.8400,69,97,381930
1.9013,0.2786,38.8700,69,97,381933
1.9648,0.2981,38.7100,69,97,381936
1.9110,0.2933,38.8700,69,97,381940
1.9013,0.2835,38.8100,69,97,381943
1.8671,0.2786,38.8400,69,97,381946
1.8280,0.2737,38.8700,69,97,381950
1.8231,0.2884,38.7100,69,97,381954
1.7644,0.2835,38.8100,69,97,381957
1.7986,0.2737,38.7100,69,97,381961
1.8671,0.2786,38.8400,69,97,381964
2.1017,0.2786,39.0000,69,97,381967
2.4682,0.2981,38.7400,69,97,381970
2.8397,0.2786,38.8400,69,97,381974
3.3040,0.2884,38.7100,69,97,381977
3.5777,0.2737,38.8400,69,97,381980
3.8025,0.2786,38.9000,69,97,381984
3.8759,0.2737,38.8100,69,97,381987
3.6755,0.2786,38.8700,69,97,381990
3.3773,0.2786,38.6800,69,97,381995
2.8495,0.2786,38.8400,69,97,381998
2.3803,0.2786,39.1200,69,97,382001
2.0039,0.2835,38.8100,69,97,382004
1.7107,0.2786,38.8700,69,97,382008
1.6031,0.2884,38.7700,69,97,382011
1.5396,0.2835,38.7400,69,97,382014
1.5347,0.2688,38.8700,69,97,382018
1.5591,0.2884,38.7700,69,97,382021
1.5640,0.2786,38.8700,69,97,382024
1.6471,0.2884,38.7100,69,97,382028
1.6569,0.2835,38.7100,69,97,382031
1.6911,0.2737,38.8400,69,97,382034
1.7302,0.2786,38.8400,69,97,382039
1.7449,0.2786,38.8400,69,97,382042
1.8035,0.3030,38.7400,69,97,382045
1.7595,0.2835,38.8400,69,97,382048
1.7889,0.2737,38.8100,69,97,382052
1.8084,0.2786,38.8400,69,97,382055
1.7986,0.2786,38.8100,69,97,382058
1.8377,0.2884,38.7700,69,97,382062
1.8280,0.2786,38.8400,69,97,382065
1.8622,0.3030,38.7400,69,97,382068
1.8426,0.2786,38.8400,69,97,382072
1.8671,0.2835,38.8700,69,97,382075
1.9062,0.2884,38.7400,69,97,382078
1.8768,0.2786,38.8400,69,97,382083
1.9110,0.2786,38.6800,69,97,382086
1.8915,0.2737,38.7400,69,97,382089
1.9159,0.2835,38.9300,69,97,382093
1.9453,0.2835,38.7400,69,97,382096
1.9453,0.2786,38.9300,69,97,382099
1.9795,0.2835,38.0800,69,97,382102
1.9453,0.2884,38.7700,69,97,382106
1.9550,0.2688,38.8700,69,97,382109
1.9844,0.2835,38.7700,69,97,382112
1.9892,0.2737,38.8700,69,97,382116
2.0626,0.2884,38.6200,69,97,382119
2.0137,0.2737,38.8100,69,97,382123
2.0186,0.2786,38.8400,69,97,382127
2.0235,0.2835,38.7700,69,97,382130
2.0332,0.2786,38.8700,69,97,382133
2.1163,0.2981,38.6800,69,97,382137
2.1017,0.2884,38.8700,69,97,382140
2.0919,0.2737,38.7700,69,97,382143
2.1017,0.2835,38.8400,69,97,382146
2.0968,0.2786,38.8700,69,97,382150
2.1505,0.2884,38.7400,69,97,382153
2.1310,0.2835,38.8100,69,97,382156
2.1554,0.2786,38.3600,69,97,382160
2.1359,0.2786,38.8400,69,97,382163
2.1505,0.2786,38.8700,69,97,382167
2.1896,0.2981,38.8100,69,97,382171
2.1701,0.2786,38.8400,69,97,382174
2.2239,0.2884,37.9000,69,97,382177
2.1945,0.2835,38.8700,69,97,382180
2.2141,0.2786,38.8700,69,97,382184
2.2385,0.2835,38.8100,69,97,382187
2.2483,0.2688,38.8400,69,97,382190
2.3118,0.2786,38.7700,69,97,382194
2.2972,0.2688,38.8400,69,97,382197
2.3216,0.2786,38.7700,69,97,382200
2.3754,0.2835,38.7700,69,97,382204
2.3412,0.2786,38.1800,69,97,382208
2.4242,0.2786,38.6200,69,97,382211
2.4291,0.2835,38.7400,69,97,382215
2.4389,0.2786,38.7700,69,97,382218
2.4731,0.2835,38.8100,69,97,382221
2.4633,0.2786,38.0200,69,97,382225
2.5562,0.2933,38.5800,69,97,382228
2.5220,0.2835,38.8400,69,97,382231
2.5220,0.2688,38.8400,69,97,382234
2.5415,0.2786,38.8400,69,97,382238
2.5415,0.2786,38.8700,69,97,382241
2.6051,0.2884,38.7100,69,97,382244
2.5318,0.2786,38.8400,69,97,382248
2.5562,0.2737,38.7100,69,97,382252
2.4829,0.2786,38.9600,69,97,382255
2.4389,0.2786,38.8700,69,97,382259
2.4291,0.2884,38.0500,69,97,382262
2.3412,0.2835,38.8700,69,97,382265
2.3069,0.2786,38.7100,69,97,382269
2.1994,0.2981,38.8700,69,97,382272
2.1359,0.2835,38.8700,69,97,382275
2.0919,0.2884,38.7400,69,97,382278
1.9697,0.2835,38.8400,69,97,382282
1.9257,0.2786,38.7700,69,97,382285
1.8280,0.3030,38.7700,69,97,382288
1.7791,0.2737,38.9300,69,97,382292
1.7400,0.2981,38.6800,69,97,382296
1.6813,0.2786,38.8400,69,97,382299
1.6471,0.2835,38.6500,69,97,382303
1.5836,0.2786,38.7700,69,97,382306
1.5396,0.2786,38.8700,69,97,382309
1.5494,0.2933,38.8700,69,97,382313
1.5347,0.2688,38.9000,69,97,382316
1.5787,0.2884,38.5500,69,97,382319
1.5249,0.2786,38.8100,69,97,382322
1.5249,0.2737,38.9000,69,97,382326
1.5200,0.2835,38.8700,69,97,382329
1.5152,0.2786,38.8700,69,97,382332
1.5738,0.3030,38.6500,69,97,382337
1.5543,0.2884,38.8100,69,97,382340
1.5494,0.2737,38.4000,69,97,382343
1.5494,0.2786,38.9300,69,97,382347
1.5591,0.2786,38.8700,69,97,382350
1.6178,0.2884,38.6800,69,97,382353
1.5982,0.2933,38.9300,69,97,382357
1.6276,0.2835,38.7100,69,97,382360
1.6129,0.2786,38.8700,69,97,382363
1.6325,0.2688,38.8700,69,97,382367
1.6618,0.3030,38.7400,69,97,382370
1.6764,0.2786,38.8400,69,97,382373
1.6960,0.2884,38.7400,69,97,382376
1.6618,0.2737,38.8400,69,97,382381
1.6667,0.2835,38.8700,69,97,382384
1.6813,0.2835,38.8100,69,97,382387
1.6862,0.2786,38.8400,69,97,382391
1.7351,0.2835,38.6200,69,97,382394
1.7058,0.2786,38.8700,69,97,382397
1.7155,0.2786,38.8700,69,97,382401
1.7351,0.2884,38.7400,69,97,382404
1.7009,0.2737,38.8700,69,97,382407
1.7546,0.2933,38.5800,69,97,382411
1.7498,0.2835,38.7700,69,97,382414
1.7595,0.2786,38.9000,69,97,382417
1.7742,0.2835,38.8100,69,97,382420
1.7644,0.2786,38.8400,69,97,382425
1.8475,0.2884,38.5500,69,97,382428
1.7742,0.2835,38.7400,69,97,382431
1.7742,0.2737,38.7700,69,97,382435
1.7791,0.2786,38.8400,69,97,382438
1.7840,0.2933,38.8700,69,97,382441
1.8280,0.2933,38.6800,69,97,382445
1.7791,0.2786,38.9000,69,97,382448
1.8084,0.2884,38.7700,69,97,382451
1.7937,0.2786,38.8400,69,97,382455
1.7693,0.2786,38.8100,69,97,382458
1.7742,0.2737,38.8700,69,97,382462
1.7791,0.2884,38.7100,69,97,382466
1.7351,0.2835,38.8400,69,97,382469
1.7546,0.2835,38.6500,69,97,382473
1.7400,0.2835,38.7700,69,97,382476
1.7595,0.2688,38.9000,69,97,382479
1.7937,0.3030,38.7400,69,97,382482
1.7742,0.2786,38.8700,69,97,382486
1.8280,0.2884,37.7700,69,97,382489
1.7791,0.2884,38.7400,69,97,382492
1.7889,0.2786,38.8700,69,97,382496
1.8084,0.2835,38.8700,69,97,382499
1.8231,0.2835,38.8400,69,97,382502
1.8817,0.2981,38.5800,69,97,382507
1.8182,0.2786,38.8100,69,97,382510
1.8182,0.2737,38.7700,69,97,382513
1.8133,0.2786,38.8400,69,97,382516
1.8035,0.2786,38.8100,69,97,382520
1.8573,0.2933,38.7400,69,97,382523
1.8377,0.2835,38.7100,69,97,382526
1.8524,0.2835,38.7100,69,97,382530
1.8231,0.2786,38.9600,69,97,382533
1.8280,0.2688,38.8400,69,97,382536
1.8719,0.2884,38.8400,69,97,382540
1.8426,0.2688,38.8400,69,97,382543
1.8671,0.2884,39.1600,69,97,382546
1.8426,0.2737,38.8100,69,97,382551
1.8475,0.2786,38.9000,69,97,382554
1.8964,0.2835,38.6800,69,97,382557
1.8524,0.2786,38.9600,69,97,382561
1.8915,0.3030,38.6800,69,97,382564
1.8573,0.2786,38.7700,69,97,382567
1.8524,0.2737,38.8400,69,97,382571
1.8622,0.2835,38.8100,69,97,382574
1.8573,0.2786,38.8700,69,97,382577
1.9208,0.2884,38.6200,69,97,382580
1.8622,0.2884,38.8100,69,97,382584
1.8817,0.2786,38.8700,69,97,382587
1.8768,0.2835,38.7700,69,97,382590
1.8573,0.2786,38.8400,69,97,382595
1.9208,0.2981,38.5800,69,97,382598
1.8915,0.2786,38.7400,69,97,382601
1.8866,0.2737,38.8100,69,97,382605
1.8915,0.2835,38.8400,69,97,382608
1.8768,0.2786,38.8400,69,97,382611
1.9208,0.2884,38.6800,69,97,382615
1.8866,0.2835,38.8100,69,97,382618
1.9013,0.2786,38.7400,69,97,382621
1.8866,0.2786,38.8400,69,97,382624
1.8915,0.2737,38.8400,69,97,382628
1.9501,0.2786,38.6800,69,97,382631
1.8817,0.2786,38.8400,69,97,382635
1.9257,0.2835,38.8100,69,97,382639
1.9013,0.2786,38.8400,69,97,382642
1.9062,0.2835,38.8400,69,97,382645
1.9257,0.2835,38.8100,69,97,382649
1.9159,0.2786,38.9600,69,97,382652
1.9501,0.2884,38.6800,69,97,382655
1.9110,0.2786,38.8400,69,97,382659
1.9208,0.2835,38.8700,69,97,382662
1.9355,0.2884,38.8700,69,97,382665
1.9062,0.2786,38.8400,69,97,382669
1.9404,0.2884,38.6800,69,97,382672
1.9110,0.2933,38.7400,69,97,382675
1.9062,0.2688,38.8400,69,97,382679
1.9306,0.2835,38.7700,69,97,382683
1.9159,0.2688,38.8700,69,97,382686
1.9648,0.2933,38.5500,69,97,382689
1.9062,0.2835,38.7400,69,97,382693
1.8964,0.2737,38.8400,69,97,382696
1.9013,0.2786,38.8400,69,97,382699
1.9110,0.2786,38.9000,69,97,382703
1.9648,0.2981,38.6800,69,97,382706
1.9062,0.2786,38.8400,69,97,382709
1.9159,0.2786,38.7400,69,97,382713
1.8964,0.2786,38.8400,69,97,382716
1.8964,0.2786,38.8400,69,97,382720
1.9404,0.2688,38.7700,69,97,382723
1.9110,0.2786,38.8400,69,97,382727
1.9453,0.3030,38.6800,69,97,382730
1.9159,0.2786,38.8700,69,97,382733
1.9306,0.3079,38.9000,69,97,382737
1.9746,0.2884,38.7100,69,97,382740
1.9599,0.2786,38.8700,69,97,382743
2.0039,0.2835,38.7100,69,97,382747
1.9648,0.2688,38.8100,69,97,382750
1.9746,0.2737,38.8400,69,97,382753
2.0088,0.2835,38.7100,69,97,382757
1.9990,0.2786,38.8400,69,97,382760
2.0479,0.2933,38.6200,69,97,382764
2.0088,0.2786,38.7400,69,97,382767
1.9941,0.2786,38.8700,69,97,382771
1.9990,0.2835,38.8400,69,97,382774
1.9844,0.2786,38.8400,69,97,382777
2.0235,0.2884,38.6200,69,97,382781
1.9404,0.2786,38.8100,69,97,382784
1.9355,0.2737,38.8400,69,97,382787
1.9110,0.2835,38.8400,69,97,382791
1.8866,0.2884,38.9000,69,97,382794
1.9453,0.2981,38.6200,69,97,382797
1.9013,0.2835,38.9300,69,97,382801
1.8964,0.2786,38.8400,69,97,382804
1.8817,0.2835,39.0300,69,97,382808
1.8622,0.3275,38.8400,69,97,382811
1.8915,0.2884,38.6500,69,97,382815
1.8524,0.2884,38.8100,69,97,382818
1.8671,0.2786,38.7400,69,97,382821
1.8426,0.2933,38.8700,69,97,382825
1.8231,0.2786,38.8700,69,97,382828
1.8182,0.2981,38.7100,69,97,382831
1.7302,0.2737,38.8400,69,97,382835
1.7058,0.2884,38.7100,69,97,382838
1.6422,0.2835,38.8700,69,97,382841
1.6764,0.2737,38.9300,69,97,382845
1.8231,0.2786,38.7700,69,97,382849
2.0479,0.2786,38.8400,69,97,382852
2.4438,0.2786,38.8400,69,97,382855
2.8299,0.2786,38.8400,69,97,382859
3.2551,0.2786,38.8700,69,97,382862
3.6461,0.2835,38.8100,69,97,382865
3.8612,0.2786,38.8100,69,97,382869
3.9834,0.2884,38.5800,69,97,382872
3.7146,0.2835,38.8100,69,97,382875
3.2845,0.2786,38.7100,69,97,382879
2.8006,0.2835,38.8100,69,97,382882
2.3021,0.2786,38.9600,69,97,382885
1.9746,0.3128,38.6200,69,97,382889
1.6813,0.2835,37.8700,69,97,382893
1.5494,0.2688,38.7700,69,97,382896
1.5249,0.2835,38.9300,69,97,382899
1.5249,0.2737,38.9000,69,97,382903
1.5885,0.2933,38.6800,69,97,382906
1.5689,0.2835,38.8100,69,97,382909
1.6080,0.2737,38.7700,69,97,382913
1.6325,0.2688,38.8400,69,97,382916
1.6471,0.2786,38.8400,69,97,382919
1.6862,0.2884,38.8100,69,97,382923
1.6813,0.2835,38.8700,69,97,382926
1.7009,0.2786,38.7100,69,97,382929
1.6716,0.2737,38.8400,69,97,382934
1.6862,0.2688,38.9000,69,97,382937
1.7302,0.2884,38.8400,69,97,382940
1.7155,0.2688,38.8400,69,97,382944
1.7546,0.2786,38.7400,69,97,382947
1.7595,0.2737,38.8400,69,97,382950
1.7498,0.2737,38.9600,69,97,382953
1.7791,0.2835,38.7100,69,97,382957
1.7742,0.2786,38.9000,69,97,382960
1.8280,0.2933,38.5800,69,97,382963
1.8035,0.2835,38.7700,69,97,382967
1.8084,0.2786,38.9600,69,97,382970
1.8573,0.2786,38.8400,69,97,382973
1.8280,0.2786,38.8400,69,97,382978
1.8964,0.2933,38.5500,69,97,382981
1.8573,0.2786,38.8100,69,97,382984
1.8719,0.2737,38.8400,69,97,382988
1.8719,0.2835,39.0900,69,97,382991
1.8671,0.2786,38.8400,69,97,382994
1.9404,0.2981,38.4300,69,97,382998
1.9208,0.2786,38.8100,69,97,383001
1.9306,0.2786,38.7700,69,97,383004
1.9208,0.2835,38.8400,69,97,383007
1.9257,0.2786,38.9000,69,97,383011
1.9697,0.2884,38.9000,69,97,383014
1.9550,0.2835,38.7700,69,97,383017
1.9941,0.2835,38.7100,69,97,383022
1.9844,0.2835,38.8700,69,97,383025
2.0137,0.2688,38.8400,69,97,383028
2.0479,0.2884,38.8100,69,97,383032
2.0528,0.2786,38.8700,69,97,383035
2.0870,0.2884,38.7400,69,97,383038
2.0577,0.2786,38.8700,69,97,383041
2.0772,0.2737,38.8400,69,97,383045
2.0968,0.2835,38.7700,69,97,383048
2.0968,0.2786,38.8700,69,97,383051
2.1359,0.2933,38.6500,69,97,383055
2.1163,0.2786,38.1500,69,97,383058
2.1457,0.2933,38.9000,69,97,383062
2.1750,0.2835,38.7700,69,97,383066
2.2678,0.2835,38.7400,69,97,383070
2.2678,0.2737,38.7700,69,97,383074
2.3754,0.3030,38.6500,69,97,383077
2.3069,0.2884,38.8400,69,97,383080
2.3216,0.2835,38.7700,69,97,383084
2.3509,0.2786,38.8400,69,97,383087
2.3900,0.2786,38.8100,69,97,383090
2.4731,0.2884,38.7100,69,97,383093
2.4536,0.2835,38.9300,69,97,383097
2.4976,0.2786,38.8100,69,97,383100
2.4878,0.2786,38.8700,69,97,383104
2.5122,0.2737,38.9000,69,97,383108
2.5611,0.2884,38.8100,69,97,383111
2.5513,0.2786,38.7700,69,97,383114
2.5855,0.2981,38.7400,69,97,383118
2.5269,0.2786,38.9300,69,97,383121
2.5220,0.2737,38.8400,69,97,383124
2.5318,0.2884,38.7700,69,97,383128
2.4487,0.2786,38.8400,69,97,383131
2.4340,0.2835,38.6500,69,97,383134
2.3412,0.2786,38.7700,69,97,383137
2.2825,0.2737,38.8400,69,97,383141
2.2141,0.2981,38.7100,69,97,383144
2.1212,0.2688,38.8400,69,97,383148
2.0870,0.2884,38.6200,69,97,383152
1.9697,0.2786,38.8100,69,97,383155
1.8622,0.2786,38.8700,69,97,383158
1.7889,0.3079,38.8100,69,97,383162
1.7155,0.2688,38.8700,69,97,383165
1.7107,0.2981,38.5800,69,97,383168
1.6080,0.2786,38.7700,69,97,383172
1.5640,0.2737,39.2800,69,97,383175
1.5249,0.2786,38.8400,69,97,383178
1.4761,0.2737,38.8700,69,97,383181
1.4907,0.2933,38.6800,69,97,383185
1.4663,0.2835,38.8700,69,97,383188
1.4614,0.2835,38.7100,69,97,383192
1.4418,0.2786,38.8400,69,97,383196
1.4418,0.2835,38.8700,69,97,383199
1.4663,0.2884,38.6500,69,97,383202
1.4321,0.2786,38.8100,69,97,383206
1.4663,0.2835,38.9300,69,97,383209
1.4614,0.2786,38.8700,69,97,383212
1.4712,0.2786,38.8100,69,97,383216
1.5005,0.2835,38.7400,69,97,383219
1.4809,0.2786,38.8400,69,97,383222
1.5396,0.2884,38.6800,69,97,383226
1.5298,0.2688,38.7700,69,97,383229
1.5445,0.2786,38.8100,69,97,383233
1.5640,0.2786,38.8100,69,97,383236
1.5738,0.2786,38.9300,69,97,383240
1.6178,0.2884,38.6800,69,97,383243
1.5934,0.2737,38.8400,69,97,383246
1.6227,0.2835,38.8400,69,97,383250
1.6373,0.2884,38.6500,69,97,383253
1.6520,0.2786,38.8700,69,97,383256
1.6716,0.2884,38.4600,69,97,383260
1.6520,0.2835,38.7400,69,97,383263
1.6569,0.2737,38.9000,69,97,383266
1.6764,0.2835,38.8100,69,97,383270
1.6862,0.2786,38.8400,69,97,383273
1.7351,0.2884,38.6800,69,97,383277
1.6911,0.2835,38.9000,69,97,383281
1.6960,0.2737,38.8100,69,97,383284
1.7058,0.2737,38.8400,69,97,383287
1.7204,0.2786,38.7100,69,97,383290
1.7595,0.2884,38.7100,69,97,383294
1.7253,0.2786,38.9300,69,97,383297
1.7498,0.2835,38.7100,69,97,383300
1.7204,0.2786,39.0600,69,97,383304
1.7253,0.2737,38.8400,69,97,383307
1.7498,0.2835,38.8700,69,97,383310
1.7449,0.2835,38.8400,69,97,383314
1.7644,0.2786,38.7100,69,97,383318
1.7351,0.2688,38.8400,69,97,383321
1.7351,0.2737,39.0900,69,97,383325
1.7595,0.2933,38.7400,69,97,383328
1.7351,0.2786,38.8700,69,97,383331
1.7742,0.2737,38.6200,69,97,383335
1.7546,0.2835,38.7400,69,97,383338
1.7498,0.2786,38.9000,69,97,383341
1.7644,0.2884,38.7700,69,97,383344
1.7546,0.2786,38.8400,69,97,383348
1.8231,0.2884,38.5200,69,97,383351
1.7693,0.2884,38.7400,69,97,383354
1.7546,0.2688,38.8400,69,97,383358
1.7546,0.2981,38.8400,69,97,383362
1.7644,0.2688,38.8700,69,97,383365
1.8231,0.2981,38.6800,69,97,383369
1.7840,0.2786,38.8100,69,97,383372
1.7937,0.2786,38.7400,69,97,383375
1.7742,0.2786,38.8700,69,97,383379
1.7742,0.2786,38.9300,69,97,383382
1.8182,0.2884,38.7400,69,97,383385
1.8035,0.2835,38.8400,69,97,383389
1.8280,0.3079,38.7100,69,97,383392
1.7986,0.2835,38.8700,69,97,383395
1.7937,0.2786,38.8700,69,97,383398
1.8280,0.2933,38.7100,69,97,383403
1.7889,0.2786,38.8700,69,97,383406
1.8280,0.2688,38.7100,69,97,383409
1.8035,0.2737,38.8700,69,97,383413
1.8084,0.2737,38.9000,69,97,383416
1.8231,0.2884,38.7100,69,97,383419
1.7937,0.2688,38.8400,69,97,383423
1.8377,0.2835,38.6500,69,97,383426
1.8084,0.2786,38.7400,69,97,383429
1.8084,0.2688,38.8400,69,97,383433
1.8182,0.2835,38.9000,69,97,383436
1.8084,0.2737,38.8400,69,97,383439
1.8573,0.2933,38.6200,69,97,383442
1.8182,0.2737,38.8100,69,97,383447
1.8231,0.2688,38.8700,69,97,383450
1.8328,0.2884,38.8400,69,97,383453
1.8133,0.2786,38.8100,69,97,383457
1.9013,0.2981,38.6200,69,97,383460
1.8328,0.2835,38.7700,69,97,383463
1.8377,0.2737,38.7700,69,97,383467
1.8426,0.2835,38.8700,69,97,383470
1.8377,0.3128,38.8700,69,97,383473
1.8719,0.2884,38.6800,69,97,383477
1.8328,0.2835,38.8100,69,97,383480
1.8475,0.2786,38.6800,69,97,383483
1.8377,0.2786,38.8700,69,97,383488
1.8573,0.2688,38.9300,69,97,383491
1.8768,0.2933,39.0600,69,97,383494
1.8377,0.2835,38.8700,69,97,383497
1.8622,0.2884,38.7400,69,97,383501
1.8182,0.2786,38.8400,69,97,383504
1.8280,0.2688,38.8700,69,97,383507
1.8475,0.2835,38.7700,69,97,383511
1.8328,0.2786,38.8400,69,97,383514
1.8671,0.2835,38.5800,69,97,383517
1.8280,0.2786,38.8700,69,97,383521
1.8426,0.2786,38.8400,69,97,383524
1.8671,0.2688,38.8100,69,97,383527
1.8475,0.2933,38.8700,69,97,383532
1.9013,0.2884,38.5500,69,97,383535
1.8671,0.2835,38.7400,69,97,383538
1.8915,0.2786,38.8400,69,97,383541
1.8671,0.2835,38.8700,69,97,383545
1.8866,0.2786,38.8700,69,97,383548
1.9208,0.2981,38.6200,69,97,383551
1.9062,0.2884,38.7100,69,97,383555
1.8426,0.2737,38.8100,69,97,383558
1.8475,0.2835,38.8400,69,97,383561
1.8622,0.2688,38.8400,69,97,383565
1.9110,0.2933,38.6500,69,97,383568
1.8768,0.2786,38.8400,69,97,383571
1.8964,0.2835,38.7700,69,97,383576
1.8768,0.2786,38.9300,69,97,383579
1.8573,0.2737,38.8700,69,97,383582
1.8915,0.2884,38.8100,69,97,383586
1.8817,0.2737,39.0000,69,97,383589
1.9159,0.2835,38.8100,69,97,383592
1.8768,0.2786,38.8100,69,97,383595
1.8817,0.2737,38.8700,69,97,383599
1.9013,0.2884,38.8400,69,97,383602
1.8671,0.2688,38.8400,69,97,383605
1.9110,0.2835,38.6500,69,97,383609
1.9013,0.2835,38.7400,69,97,383612
1.8964,0.2786,38.8700,69,97,383616
1.9404,0.2884,38.7400,69,97,383620
1.8915,0.2786,38.8400,69,97,383623
1.9453,0.2933,38.5500,69,97,383626
1.9110,0.2786,38.7700,69,97,383630
1.9013,0.3128,38.8700,69,97,383633
1.9062,0.2688,38.8100,69,97,383636
1.8964,0.2786,38.7100,69,97,383640
1.9648,0.2884,38.5500,69,97,383643
1.8964,0.2786,38.7700,69,97,383646
1.9013,0.2786,38.8100,69,97,383649
1.8964,0.2835,38.8400,69,97,383653
1.8768,0.2835,38.8700,69,97,383656
1.9306,0.2933,38.7100,69,97,383660
1.9013,0.2786,38.8400,69,97,383664
1.9257,0.2786,38.7400,69,97,383667
1.9013,0.2786,38.8400,69,97,383670
1.9013,0.2786,38.8400,69,97,383674
1.9257,0.3079,38.6500,68,97,383677
1.9013,0.2835,38.7100,68,97,383682
1.8475,0.2786,38.8100,68,97,383685
1.8671,0.2835,38.6800,68,97,383688
1.8231,0.2786,38.7100,68,97,383692
1.8280,0.2786,38.8400,68,97,383695
1.8622,0.2835,38.8100,68,97,383698
1.8768,0.2688,38.8400,68,97,383703
1.9453,0.2884,38.5800,68,97,383706
1.8915,0.2981,38.8100,68,97,383709
1.9453,0.2737,38.8700,68,97,383712
1.9355,0.2835,38.8700,68,97,383716
1.9453,0.2786,38.8400,68,97,383719
2.0186,0.3128,38.6200,68,97,383722
1.9795,0.2786,38.8100,68,97,383726
1.9892,0.2737,38.8400,68,97,383729
1.9795,0.2786,38.8400,68,97,383732
1.9697,0.2786,38.8400,68,97,383736
1.9941,0.2933,38.6500,68,97,383739
1.9208,0.2737,38.8100,68,97,383742
1.9159,0.2835,38.7100,68,97,383747
1.8768,0.2786,38.8400,68,97,383750
1.9013,0.2786,38.8700,68,97,383753
1.9062,0.2933,38.7100,68,97,383757
1.8671,0.2786,38.8400,68,97,383760
1.8866,0.2835,38.7400,68,97,383763
1.8328,0.2737,38.8400,68,97,383766
1.8328,0.2786,38.8400,68,97,383770
1.8377,0.2786,38.7700,68,97,383773
1.8280,0.2786,38.9300,68,97,383776
1.8622,0.2835,38.7700,68,97,383780
1.8377,0.2835,38.8400,68,97,383783
1.7937,0.2786,38.9300,68,97,383787
1.8084,0.2884,38.8100,68,97,383791
1.7155,0.2835,38.9300,68,97,383794
1.7253,0.2933,38.6200,68,97,383797
1.6471,0.2835,38.7700,68,97,383801
1.6569,0.2786,38.8700,68,97,383804
1.7644,0.2835,38.9000,68,97,383807
1.9844,0.2835,38.8400,68,97,383811
2.4096,0.2981,38.6200,68,97,383814
2.7810,0.3079,38.7400,68,97,383817
3.2111,0.2786,38.7700,68,97,383820
3.5484,0.2786,38.8400,68,97,383824
3.8270,0.2786,38.8700,68,97,383827
3.9883,0.2884,38.6800,68,97,383831
3.7097,0.2786,39.0000,68,97,383835
3.3578,0.2835,38.7400,68,97,383838
2.8299,0.2786,38.8400,68,97,383841
2.3314,0.2737,38.8700,68,97,383845
1.9648,0.2884,38.8100,68,97,383848
1.6911,0.2835,38.8100,68,97,383851
1.6129,0.2884,38.7100,68,97,383855
1.5152,0.2737,38.8700,68,97,383858
1.5152,0.2786,38.8700,68,97,383861
1.5494,0.2884,38.7400,68,97,383864
1.5445,0.2786,38.8400,68,97,383868
1.5982,0.2786,38.6500,68,97,383872
1.6520,0.2786,38.7700,68,97,383875
1.6520,0.2786,38.8400,68,97,383879
1.6813,0.2933,38.7400,68,97,383882
1.6520,0.2786,38.8400,68,97,383885
1.6911,0.3030,38.6200,68,97,383889
1.6716,0.2835,38.7700,68,97,383892
1.6764,0.2786,38.8700,68,97,383895
1.7009,0.2786,38.8100,68,97,383899
1.7107,0.2786,38.8700,68,97,383902
1.7742,0.2933,38.5200,68,97,383905
1.7253,0.2786,38.7700,68,97,383908
1.7449,0.2737,38.8100,68,97,383912
1.7595,0.2786,38.8400,68,97,383916
1.7693,0.2737,38.8400,68,97,383919
1.8280,0.2981,38.6800,68,97,383923
1.7889,0.2835,38.8100,68,97,383926
1.8133,0.2835,38.7100,68,97,383929
1.7986,0.2884,38.8400,68,97,383933
1.8182,0.2786,38.8700,68,97,383936
1.8671,0.2884,38.6500,68,97,383939
1.8426,0.2835,38.8400,68,97,383943
1.8768,0.2884,38.7400,68,97,383946
1.8475,0.2688,38.9000,68,97,383949
1.8817,0.2786,38.3600,68,97,383953
1.9208,0.2835,38.8100,68,97,383956
1.9013,0.2786,39.0000,68,97,383960
1.9404,0.2835,38.6800,68,97,383963
1.9110,0.2737,38.8100,68,97,383967
1.9208,0.2737,39.0900,68,97,383970
1.9501,0.2835,38.7400,68,97,383973
1.9648,0.2786,38.8700,68,97,383977
2.0283,0.2835,38.5800,68,97,383980
1.9892,0.2688,38.8100,68,97,383983
1.9990,0.2737,38.9300,68,97,383987
2.0186,0.2786,38.8700,68,97,383990
2.0186,0.2786,38.7700,68,97,383993
2.0919,0.3177,38.5500,68,97,383997
2.0723,0.2835,38.8100,68,97,384001
2.0723,0.2737,38.8400,68,97,384004
2.1114,0.2835,38.8100,68,97,384007
2.0821,0.2786,38.8700,68,97,384011
2.1652,0.2981,38.6200,68,97,384014
2.1408,0.2884,38.7400,68,97,384017
2.1408,0.2786,38.7700,68,97,384021
2.1457,0.2933,38.8100,68,97,384024
2.1652,0.2688,38.8700,68,97,384027
2.2239,0.2884,38.6500,68,97,384031
2.2239,0.2835,38.8100,68,97,384034
2.2483,0.2786,38.7100,68,97,384037
2.2385,0.2786,38.8400,68,97,384040
2.2678,0.2688,38.8700,68,97,384045
2.3118,0.2835,38.6800,68,97,384048
2.3167,0.2786,38.8400,68,97,384051
2.3851,0.2688,38.7700,68,97,384055
2.3705,0.2884,38.7100,68,97,384058
2.4145,0.2835,38.8700,68,97,384061
2.4633,0.2884,38.7100,68,97,384065
2.4389,0.2835,38.8400,68,97,384068
2.4976,0.2835,38.7100,68,97,384071
2.4976,0.2786,38.8100,68,97,384075
2.5269,0.2835,38.8400,68,97,384078
2.5758,0.2884,38.7400,68,97,384081
2.5415,0.2737,38.8400,68,97,384084
2.6051,0.2835,38.6800,68,97,384089
2.5464,0.2884,38.7700,68,97,384092
2.5318,0.2835,38.8400,68,97,384095
2.5318,0.2835,38.8100,68,97,384099
2.4976,0.2786,39.0300,68,97,384102
2.5171,0.2981,38.5800,68,97,384105
2.3900,0.2786,39.1600,68,97,384109
2.3314,0.3079,38.8700,68,97,384112
2.2727,0.2835,38.8400,68,97,384115
2.1799,0.2786,38.8700,68,97,384118
2.1652,0.3030,38.6800,68,97,384122
2.0381,0.2884,38.7400,68,97,384125
1.9453,0.2737,38.8700,68,97,384129
1.8622,0.2786,38.8400,68,97,384133
1.7937,0.3079,38.8400,68,97,384136
1.7742,0.2884,38.6800,68,97,384139
1.6716,0.3079,38.8700,68,97,384143
1.6325,0.2786,38.7100,68,97,384146
1.5640,0.2786,38.8700,68,97,384149
1.5347,0.2835,38.8700,68,97,384153
1.5347,0.2884,38.7700,68,97,384156
1.4858,0.2786,38.8400,68,97,384159
1.4956,0.2884,38.7400,68,97,384162
1.4370,0.2786,38.8700,68,97,384166
1.4223,0.2786,38.8400,68,97,384169
1.4370,0.2835,38.8100,68,97,384173
1.4418,0.2835,38.8400,68,97,384177
1.4761,0.2835,38.7700,68,97,384180
1.4907,0.2786,38.8400,68,97,384183
1.4712,0.2786,38.8400,68,97,384187
1.4956,0.3079,38.7400,68,97,384190
1.4858,0.2786,38.8700,68,97,384193
1.5445,0.2884,38.7100,68,97,384197
1.5494,0.2786,38.7100,68,97,384200
1.5445,0.2786,38.8400,68,97,384203
1.5543,0.2884,38.7700,68,97,384206
1.5445,0.2688,38.8400,68,97,384210
1.6129,0.2884,38.5200,68,97,384214
1.5836,0.2835,38.7100,68,97,384217
1.5836,0.2737,38.8400,68,97,384221
1.5934,0.2786,38.8700,68,97,384224
1.6031,0.2786,38.8700,68,97,384227
1.6569,0.2933,38.6500,68,97,384231
1.6276,0.2786,38.7700,68,97,384234
1.6569,0.2835,38.7400,68,97,384237
1.6471,0.2786,38.8400,68,97,384241
1.6422,0.2786,38.8400,68,97,384244
1.6764,0.2884,38.7700,68,97,384247
1.6716,0.2786,38.8100,68,97,384251
1.7107,0.2835,38.8700,68,97,384254
1.6911,0.2786,38.8400,68,97,384258
1.7009,0.2786,38.8400,68,97,384262
1.7449,0.2884,38.7700,68,97,384265
1.6764,0.2786,38.9000,68,97,384268
1.7400,0.2835,38.6800,68,97,384271
1.7009,0.2786,38.7700,68,97,384275
1.7204,0.2786,38.7100,68,97,384278
1.7400,0.2884,38.7100,68,97,384281
1.7107,0.2786,38.8700,68,97,384285
1.7449,0.2933,38.5800,68,97,384288
1.7889,0.3030,38.6200,68,97,384293
1.7058,0.2835,38.8100,68,97,384296
1.7009,0.2884,38.8100,68,97,384300
1.6960,0.2835,38.8400,68,97,384304
1.6862,0.2786,38.8700,68,97,384307
1.7400,0.2884,38.7100,68,97,384310
1.7107,0.2835,38.8100,68,97,384314
1.7204,0.2835,38.7400,68,97,384317
1.7058,0.2835,38.8700,68,97,384320
1.7204,0.2786,38.8400,68,97,384323
1.7595,0.2884,38.6500,68,97,384327
1.7351,0.2835,38.8100,68,97,384330
1.7595,0.2933,38.7400,68,97,384333
1.7449,0.2737,38.9000,68,97,384337
1.7595,0.2835,38.8700,68,97,384340
1.7937,0.2835,38.7100,68,97,384344
1.7742,0.2786,38.8700,68,97,384348
1.8182,0.2786,38.6800,68,97,384351
1.7595,0.2786,38.8100,68,97,384354
1.7644,0.2786,38.8700,68,97,384357
1.8035,0.2786,38.7700,68,97,384361
1.7937,0.2786,38.8400,68,97,384364
1.8377,0.2835,38.6500,68,97,384367
1.7986,0.2786,38.9000,68,97,384371
1.8035,0.2786,38.8700,68,97,384374
1.8182,0.2835,38.7400,68,97,384377
1.7937,0.2786,38.8100,68,97,384381
1.8622,0.2933,38.5500,68,97,384385
1.8328,0.2835,38.6200,68,97,384388
1.8231,0.2737,38.8400,68,97,384392
1.8182,0.2835,38.8700,68,97,384395
1.8084,0.2737,38.8400,68,97,384398
1.8719,0.2688,38.6500,68,97,384401
1.8280,0.2884,38.7400,68,97,384405
1.8182,0.2786,38.7700,68,97,384408
1.8133,0.2786,38.8400,68,97,384411
1.8133,0.2737,38.8400,68,97,384415
1.8426,0.2884,38.6800,68,97,384418
1.8182,0.2835,38.8100,68,97,384421
1.8524,0.2835,38.7400,68,97,384425
1.8231,0.2835,38.8700,68,97,384429
1.8133,0.2786,38.8400,68,97,384432
1.8377,0.2786,38.8100,68,97,384436
1.8328,0.2688,38.8400,68,97,384439
1.8719,0.2835,38.6800,68,97,384442
1.8377,0.2688,38.8700,68,97,384446
1.8377,0.2786,38.8700,68,97,384449
1.8475,0.2884,38.7400,68,97,384452
1.8133,0.2786,38.8400,68,97,384455
1.8573,0.2786,38.6200,68,97,384459
1.8475,0.2786,38.5800,68,97,384462
1.8524,0.2737,38.8700,68,97,384465
1.8719,0.2884,38.7700,68,97,384470
1.8377,0.2786,38.8100,68,97,384473
1.8866,0.2884,38.5500,68,97,384476
1.8328,0.2835,38.7100,68,97,384480
1.8426,0.2737,38.8400,68,97,384483
1.8475,0.2835,38.8400,68,97,384486
1.8524,0.2786,38.8700,68,97,384490
1.9062,0.2981,38.6200,68,97,384493
1.8426,0.2884,38.8100,68,97,384496
1.8475,0.2688,38.8100,68,97,384499
1.8475,0.2786,38.8400,68,97,384503
1.8426,0.2786,38.8700,68,97,384506
1.8866,0.2933,38.7100,68,97,384509
1.8573,0.2835,38.8100,68,97,384514
1.8817,0.2786,38.4600,68,97,384517
1.8573,0.2786,38.8400,68,97,384520
1.8671,0.2786,38.8100,68,97,384524
1.8964,0.2884,38.6800,68,97,384527
1.8524,0.2835,38.7700,68,97,384530
1.8768,0.2688,38.7400,68,97,384534
1.8524,0.2737,38.8700,68,97,384537
1.8719,0.2786,38.8400,68,97,384540
1.8915,0.2884,38.7100,68,97,384544
1.8671,0.2737,38.8400,68,97,384547
1.8964,0.2835,38.6500,68,97,384550
1.8573,0.2981,38.7100,68,97,384553
1.8573,0.2688,38.8700,68,97,384558
1.8719,0.2835,38.9300,68,97,384561
1.8719,0.2835,38.8400,68,97,384564
1.9257,0.2884,38.5500,68,97,384568
1.8964,0.2737,38.8400,68,97,384571
1.8719,0.2786,39.0000,68,97,384574
1.8719,0.2786,38.8100,68,97,384578
1.8622,0.2786,38.9300,68,97,384581
1.9306,0.2884,38.5800,68,97,384584
1.8964,0.2835,38.7700,68,97,384588
1.8866,0.2737,38.7700,68,97,384591
1.8768,0.2835,38.9600,68,97,384594
1.8719,0.2933,38.9000,68,97,384599
1.9306,0.2884,38.6800,68,97,384602
1.9013,0.2835,38.9000,68,97,384605
1.9110,0.2786,38.7400,68,97,384608
1.9159,0.2786,38.8400,68,97,384612
1.8964,0.2786,39.0900,68,97,384615
1.9355,0.2884,38.6800,68,97,384618
1.8964,0.2786,38.8400,68,97,384622
1.9257,0.2835,38.7100,68,97,384625
1.8866,0.2688,38.8400,68,97,384628
1.8719,0.2786,38.9000,68,97,384632
1.8964,0.2835,38.8100,68,97,384635
1.8817,0.2786,38.8400,68,97,384638
1.9159,0.2786,38.6500,68,97,384642
1.8866,0.2786,38.8100,68,97,384646
1.8817,0.2786,38.8700,68,97,384649
1.8866,0.2688,38.7400,68,97,384652
1.8475,0.2786,38.9000,68,97,384656
1.9013,0.2786,38.6800,68,97,384659
1.8719,0.2835,38.7400,68,97,384662
1.8817,0.2786,38.8400,68,97,384666
1.8964,0.2884,38.7700,68,97,384669
1.8719,0.2786,38.9000,68,97,384672
1.9257,0.2933,38.5200,68,97,384676
1.8866,0.2835,38.7400,68,97,384679
1.8915,0.2737,38.8400,68,97,384683
1.9013,0.2835,38.8100,68,97,384686
1.9110,0.2786,38.7100,68,97,384690
1.9746,0.3030,38.6500,68,97,384693
1.9257,0.2835,38.8700,68,97,384696
1.9453,0.3079,38.7400,68,97,384700
1.9501,0.2786,38.8100,68,97,384703
1.9550,0.2786,38.8400,68,97,384706
1.9941,0.2884,38.7400,68,97,384710
1.9501,0.3030,38.8700,68,97,384713
1.9453,0.2835,38.6800,68,97,384716
1.8915,0.2786,38.1100,68,97,384720
1.8768,0.2835,38.8700,68,97,384723
1.9013,0.2933,38.6800,68,97,384727
1.8573,0.2737,38.8400,68,97,384731
1.8817,0.2688,38.7400,68,97,384734
1.8524,0.2737,38.8700,68,97,384737
1.9013,0.2737,38.8400,68,97,384740
1.8915,0.2835,38.6800,68,97,384744
1.8573,0.2737,38.9000,68,97,384747
1.8768,0.2835,38.6500,68,97,384750
1.8231,0.2737,38.7700,68,97,384754
1.8133,0.2786,38.8700,68,97,384757
1.8328,0.2835,38.9600,68,97,384760
1.8231,0.2737,38.8400,68,97,384764
1.8426,0.2884,38.5800,68,97,384768
1.7351,0.2835,38.8400,68,97,384771
1.6862,0.2786,38.3000,68,97,384775
1.6667,0.2884,38.8100,68,97,384778
1.7204,0.2786,38.8700,68,97,384781
1.9550,0.3030,38.6800,68,97,384784
2.2092,0.2884,38.7700,68,97,384788
2.5611,0.2688,38.8100,68,97,384791
2.9717,0.2835,38.8400,68,97,384794
3.3431,0.2786,38.8400,68,97,384798
3.7146,0.3275,38.6500,68,97,384801
3.8270,0.2835,38.7700,68,97,384804
3.7683,0.2786,38.7400,68,97,384808
3.4848,0.2786,38.8400,68,97,384812
3.0254,0.2786,38.8400,68,97,384815
2.5806,0.2835,38.6800,68,97,384819
2.1065,0.2786,38.8400,68,97,384822
1.7937,0.2835,37.8300,68,97,384825
1.5543,0.2737,38.8400,68,97,384828
1.4516,0.2786,38.8100,68,97,384832
1.4370,0.2786,38.7400,68,97,384835
1.4321,0.2786,38.8400,68,97,384838
1.5152,0.2835,38.6800,68,97,384842
1.4956,0.2835,38.9000,68,97,384845
1.5396,0.2737,38.8400,68,97,384848
1.5787,0.2835,38.9300,68,97,384852
1.5885,0.2786,38.8700,68,97,384856
1.6422,0.2835,38.6200,68,97,384859
1.6422,0.2933,38.8100,68,97,384863
1.6618,0.2688,38.8400,68,97,384866
1.6813,0.2786,38.7700,68,97,384869
1.6667,0.2786,38.8400,68,97,384872
1.7204,0.2933,38.4300,68,97,384876
1.6813,0.2786,38.7700,68,97,384879
1.7009,0.2737,38.9000,68,97,384882
1.7253,0.2786,38.8100,68,97,384886
1.7595,0.2786,38.8400,68,97,384889
1.7937,0.2981,38.5800,68,97,384892
1.7546,0.2786,38.8100,68,97,384897
1.7693,0.2786,38.6800,68,97,384900
1.7693,0.2786,38.8100,68,97,384903
1.8035,0.2688,38.8400,68,97,384908
1.8133,0.2786,38.8700,68,97,384911
1.8426,0.2884,38.8100,68,97,384915
1.8084,0.2835,38.8400,68,97,384918
1.8377,0.2786,38.6800,68,97,384921
1.8280,0.2786,38.8100,68,97,384925
1.8524,0.2786,38.9000,68,97,384928
1.8915,0.2933,38.7100,68,97,384931
1.8768,0.2884,38.8700,68,97,384934
1.9257,0.2933,38.5800,68,97,384939
1.9013,0.2835,38.7400,68,97,384942
1.9355,0.2835,38.8400,68,97,384945
1.9306,0.2835,38.7700,68,97,384949
1.9453,0.2737,38.8700,68,97,384952
2.0137,0.2688,38.5500,68,97,384955
1.9599,0.2786,38.7700,68,97,384959
1.9697,0.2688,38.8400,68,97,384962
1.9795,0.2786,38.9300,68,97,384965
1.9990,0.2835,38.8400,68,97,384969
2.0674,0.2981,38.8100,68,97,384972
2.0381,0.2835,38.7700,68,97,384975
2.0772,0.2737,38.7400,68,97,384978
2.0430,0.2786,38.8400,68,97,384983
2.0577,0.2835,38.8400,68,97,384986
2.1163,0.2884,38.7100,68,97,384989
2.1457,0.2835,38.8100,68,97,384993
2.1505,0.2835,38.6800,68,97,384996
2.1310,0.2786,38.8400,68,97,384999
2.1554,0.2835,38.8400,68,97,385003
2.2092,0.2933,38.7100,68,97,385006
2.1945,0.2933,38.8400,68,97,385009
2.2678,0.2835,38.7400,68,97,385013
2.2483,0.2737,38.8700,68,97,385016
2.2727,0.2786,38.8400,68,97,385019
2.3118,0.2835,38.7700,68,97,385022
2.3412,0.2786,38.9000,68,97,385027
2.4047,0.2835,38.6200,68,97,385030
2.3754,0.2835,38.8400,68,97,385033
2.4047,0.2786,38.8700,68,97,385037
2.4340,0.2835,38.9600,68,97,385040
2.4291,0.2786,38.8400,68,97,385043
2.5122,0.2884,38.6500,68,97,385047
2.4878,0.2884,38.7400,68,97,385050
2.4927,0.2786,38.8400,68,97,385053
2.4878,0.2835,38.8100,68,97,385057
2.4585,0.2737,38.8700,68,97,385060
2.5073,0.2981,38.5500,68,97,385063
2.4145,0.2884,38.7400,68,97,385067
2.3607,0.2737,38.8100,68,97,385071
2.3069,0.2835,38.9000,68,97,385074
2.2678,0.2786,38.8400,68,97,385077
2.2239,0.2933,38.6800,68,97,385081
2.0968,0.2786,38.8700,68,97,385084
2.0332,0.2737,38.7700,68,97,385087
1.9453,0.2786,38.9300,68,97,385091
1.8622,0.2786,38.8700,68,97,385094
1.8084,0.2884,38.7700,68,97,385097
1.7204,0.2835,38.8100,68,97,385100
1.6716,0.2688,38.7100,68,97,385104
1.5885,0.2835,38.9000,68,97,385107
1.5591,0.2786,38.8400,68,97,385111
1.5445,0.2884,38.7400,68,97,385115
1.4712,0.2786,38.8400,68,97,385118
1.4712,0.2786,38.7400,68,97,385121
1.4321,0.2786,38.7700,68,97,385125
1.4321,0.2786,38.8400,68,97,385128
1.4516,0.2884,38.7100,68,97,385131
1.4272,0.2786,38.8400,68,97,385135
1.4614,0.2884,38.6200,68,97,385138
1.4272,0.2884,38.7400,68,97,385141
1.4272,0.2688,38.8400,68,97,385145
1.4467,0.2835,38.8100,68,97,385148
1.4663,0.2786,38.8400,68,97,385152
1.5200,0.2933,38.5800,68,97,385155
1.4761,0.2786,38.8100,68,97,385159
1.4858,0.2737,38.9300,68,97,385162
1.5298,0.2786,38.8100,68,97,385165
1.5005,0.2786,38.7700,68,97,385169
1.5738,0.3226,38.6500,68,97,385172
1.5689,0.2884,38.7700,68,97,385175
1.5738,0.2786,38.7400,68,97,385179
1.5689,0.2786,38.8400,68,97,385182
1.5787,0.2884,38.8400,68,97,385185
1.6178,0.2835,38.6800,68,97,385189
1.6031,0.2835,38.8100,68,97,385192
1.6325,0.2835,38.6800,68,97,385196
1.6178,0.2786,38.8700,68,97,385200
1.6325,0.2786,38.8400,68,97,385203
1.6667,0.2933,38.7400,68,97,385206
1.6667,0.2786,38.8100,68,97,385209
1.6911,0.2786,38.7400,68,97,385213
1.6667,0.2737,38.7700,68,97,385216
1.6569,0.2786,38.8400,68,97,385219
1.6764,0.2786,38.7700,68,97,385223
1.6813,0.2786,38.8100,68,97,385226
1.7302,0.2884,38.7100,68,97,385229
1.7009,0.2688,38.8700,68,97,385233
1.7155,0.2786,38.9300,68,97,385236
1.7302,0.2981,38.7400,68,97,385240
1.6960,0.2786,38.7700,68,97,385244
1.7498,0.2981,38.5500,68,97,385247
1.7351,0.2835,38.7400,68,97,385250
1.7400,0.2737,38.8400,68,97,385253
1.7449,0.2835,38.8700,68,97,385257
1.7302,0.2786,38.8700,68,97,385260
1.7791,0.2933,38.6500,68,97,385263
1.7351,0.2835,38.8100,68,97,385267
1.7302,0.2786,38.7400,68,97,385270
1.7351,0.2835,38.8400,68,97,385273
1.7449,0.2786,38.8400,68,97,385277
1.7546,0.2884,38.5800,68,97,385281
1.7302,0.2835,38.8400,68,97,385284
1.7595,0.2688,38.7100,68,97,385288
1.7351,0.2786,38.8400,68,97,385291
1.7400,0.2786,38.8400,68,97,385294
1.7546,0.2835,38.7700,68,97,385298
1.7449,0.2835,38.8400,68,97,385301
1.7742,0.2835,38.6800,68,97,385304
1.7449,0.2786,38.9300,68,97,385307
1.7546,0.2786,38.7700,68,97,385311
1.7791,0.2933,38.7100,68,97,385314
1.7449,0.2933,38.7700,68,97,385317
1.7791,0.2688,38.6200,68,97,385321
1.7595,0.2786,38.8100,68,97,385325
1.7595,0.2737,38.8400,68,97,385328
1.7889,0.2884,38.8400,68,97,385332
1.7595,0.2786,38.8700,68,97,385335
1.8035,0.2884,38.5800,68,97,385338
1.7546,0.2835,38.7400,68,97,385342
1.7498,0.2688,38.8700,68,97,385345
1.7644,0.2786,38.9000,68,97,385348
1.7742,0.2786,38.7100,68,97,385351
1.8377,0.2884,38.5800,68,97,385355
1.7791,0.2933,38.7700,68,97,385358
1.7791,0.2737,38.7700,68,97,385361
1.7742,0.2835,38.8400,68,97,385366
1.7742,0.2786,38.8100,68,97,385369
1.8231,0.2933,38.8100,68,97,385372
1.8035,0.2835,38.8100,68,97,385376
1.8231,0.2786,38.7400,68,97,385379
1.7986,0.2786,38.8400,68,97,385382
1.8035,0.2786,38.8700,68,97,385386
1.8475,0.2884,38.6800,68,97,385389
1.8182,0.2835,38.8100,68,97,385392
1.8524,0.2884,38.7100,68,97,385396
1.8133,0.2737,38.8400,68,97,385399
1.8133,0.2835,38.8400,68,97,385402
1.8280,0.2835,38.8100,68,97,385405
1.8035,0.2835,38.8400,68,97,385410
1.8328,0.2688,38.6500,68,97,385413
1.7889,0.3128,38.8400,68,97,385416
1.7791,0.2688,38.8400,68,97,385420
1.7840,0.2835,38.7700,68,97,385423
1.7791,0.2786,38.8700,68,97,385426
1.8328,0.2835,38.5800,68,97,385430
1.7889,0.2786,38.8400,68,97,385433
1.8035,0.2786,38.8700,68,97,385436
1.8035,0.3177,38.8400,68,97,385440
1.7889,0.2737,38.8400,68,97,385443
1.8524,0.2933,38.5800,68,97,385446
1.8280,0.2835,38.8100,68,97,385451
1.8280,0.2884,38.7700,68,97,385454
1.8280,0.2835,38.8400,68,97,385457
1.8182,0.2786,38.8100,68,97,385460
1.8915,0.2933,38.6800,68,97,385464
1.8182,0.2835,38.9000,68,97,385467
1.8280,0.2737,38.6800,68,97,385470
1.8182,0.2688,38.8400,68,97,385474
1.8231,0.2786,38.8100,68,97,385477
1.8426,0.2884,38.6800,68,97,385480
1.8084,0.2786,38.9300,68,97,385484
1.8426,0.2786,38.7400,68,97,385487
1.8182,0.2786,38.8100,68,97,385490
1.8231,0.2835,38.8700,68,97,385495
1.8328,0.2835,38.8100,68,97,385498
1.8280,0.3177,38.8700,68,97,385501
1.8866,0.2786,38.6800,68,97,385504
1.8231,0.2933,38.8400,68,97,385508
1.8377,0.2786,38.8400,68,97,385511
1.8524,0.2786,38.7100,68,97,385514
1.8671,0.2786,38.8100,68,97,385519
1.8231,0.2786,38.8700,68,97,385522
1.8622,0.3030,38.6200,68,97,385526
1.8035,0.2884,38.7400,68,97,385529
1.7889,0.2981,38.8100,68,97,385532
1.7986,0.2786,38.8700,68,97,385537
1.8133,0.2786,38.8400,68,97,385540
1.8719,0.2884,38.6800,68,97,385543
1.8231,0.2835,38.8700,68,97,385547
1.8622,0.2835,38.7400,68,97,385550
1.8231,0.2786,38.8100,68,97,385553
1.8377,0.2786,38.8400,68,97,385557
1.8671,0.2884,38.8100,68,97,385560
1.8622,0.2786,38.8400,68,97,385563
1.8915,0.2884,38.8100,68,97,385566
1.8573,0.2786,38.8400,68,97,385570
1.8622,0.2786,38.8400,68,97,385573
1.9013,0.2688,38.7400,68,97,385576
1.8671,0.2786,38.8400,68,97,385581
1.9013,0.2835,38.6500,68,97,385584
1.8768,0.2786,38.6800,68,97,385587
1.8671,0.2737,38.8700,68,97,385591
1.8866,0.2884,38.7400,68,97,385594
1.8573,0.2786,38.8400,68,97,385597
1.9159,0.2884,38.5500,68,97,385601
1.8817,0.2786,38.7100,68,97,385604
1.8573,0.2786,38.8700,68,97,385607
1.8622,0.2981,38.7700,68,97,385611
1.8671,0.2786,38.8400,68,97,385614
1.9355,0.2981,38.6200,68,97,385617
1.8866,0.2688,38.8100,68,97,385620
1.8915,0.2737,39.0300,68,97,385625
1.9159,0.2835,38.8100,68,97,385628
1.8768,0.2786,38.9300,68,97,385631
1.9306,0.2981,38.7100,68,97,385635
1.9159,0.2786,38.8400,68,97,385638
1.9453,0.2786,38.7100,68,97,385641
1.9306,0.2786,38.8400,68,97,385645
1.9355,0.2786,38.8400,68,97,385648
1.9697,0.2884,38.6500,68,97,385651
1.9501,0.2981,38.8700,68,97,385655
2.0039,0.2884,38.7100,68,97,385658
1.9648,0.2786,38.8400,68,97,385661
1.9550,0.2786,38.8700,68,97,385665
1.9501,0.2835,38.6800,68,97,385669
1.8866,0.2786,38.8400,68,97,385672
1.9257,0.2835,38.6800,68,97,385675
1.8524,0.2786,38.7700,68,97,385679
1.8524,0.3030,38.8400,68,97,385682
1.8671,0.2786,38.7700,68,97,385685
1.8377,0.2786,38.8700,68,97,385689
1.8719,0.2933,38.5800,68,97,385692
1.8182,0.2737,38.8400,68,97,385695
1.8231,0.2786,38.8100,68,97,385699
1.8280,0.2835,38.8100,68,97,385702
1.7986,0.2835,38.8400,68,97,385705
1.8426,0.2884,38.5200,68,97,385709
1.7986,0.2835,38.7400,68,97,385713
1.7840,0.2737,38.9000,68,97,385716
1.7644,0.2835,38.8100,68,97,385719
1.7058,0.2737,38.8400,68,97,385723
1.6862,0.2981,38.6500,68,97,385726
1.6031,0.3177,38.7700,68,97,385729
1.6276,0.2835,38.7400,68,97,385733
1.7400,0.2786,38.8700,68,97,385736
1.9941,0.2786,38.8400,68,97,385739
2.3998,0.2884,38.6500,68,97,385743
2.7615,0.2835,38.7700,68,97,385746
3.1965,0.2835,38.7100,68,97,385750
3.5191,0.2786,38.8400,68,97,385753
3.7830,0.2786,38.8400,68,97,385757
3.8612,0.2835,38.8100,68,97,385760
3.6070,0.2835,38.8400,68,97,385763
3.2551,0.2933,38.7400,68,97,385767
2.6686,0.2884,38.8400,68,97,385770
2.1848,0.2688,38.8400,68,97,385773
1.8280,0.2884,38.6800,68,97,385777
1.5640,0.2786,38.8400,68,97,385780
1.4663,0.2835,38.6200,68,97,385783
1.4076,0.2786,38.7100,68,97,385787
1.4076,0.2786,38.8700,68,97,385790
1.4467,0.2884,38.7700,68,97,385794
1.4467,0.2688,38.8400,68,97,385797
1.5298,0.2884,38.5500,68,97,385801
1.5298,0.2835,38.7400,68,97,385804
1.5200,0.2786,38.9600,68,97,385807
1.5396,0.2884,38.8400,68,97,385811
1.5445,0.2786,38.8700,68,97,385814
1.6080,0.2981,38.5800,68,97,385817
1.5689,0.2835,38.8100,68,97,385821
1.5787,0.2737,38.8100,68,97,385824
1.5787,0.2786,38.8400,68,97,385827
1.5836,0.2688,38.8700,68,97,385831
1.6422,0.2933,38.0800,68,97,385835
1.6325,0.2835,38.8100,68,97,385838
1.6618,0.2786,38.7700,68,97,385841
1.6471,0.2835,38.8100,68,97,385845
1.6520,0.2786,38.8400,68,97,385848
1.6813,0.2933,38.6500,68,97,385851
1.6569,0.2835,38.8700,68,97,385855
1.6911,0.2835,38.6500,68,97,385858
1.6911,0.2786,38.8400,68,97,385861
1.7009,0.2786,38.7400,68,97,385865
1.7302,0.2786,38.7100,68,97,385868
1.6960,0.2786,38.8400,68,97,385871
1.7498,0.2786,38.8100,68,97,385875
1.7302,0.2688,38.7700,68,97,385879
1.7498,0.2786,38.8100,68,97,385882
1.7742,0.2835,38.7400,68,97,385885
1.7742,0.2786,38.8400,68,97,385889
1.8133,0.2933,38.5800,68,97,385892
1.7791,0.2786,38.0200,68,97,385895
1.8035,0.2737,38.8400,68,97,385899
1.8182,0.2835,38.8100,68,97,385902
1.8035,0.2884,38.8400,68,97,385905
1.8719,0.2933,38.5500,68,97,385909
1.8426,0.2835,38.6200,68,97,385912
1.8475,0.2737,38.8400,68,97,385915
1.8719,0.2786,38.7700,68,97,385920
1.8768,0.2786,38.9300,68,97,385923
1.9355,0.2981,38.7700,68,97,385926
1.8964,0.2884,38.7400,68,97,385929
1.8964,0.2737,38.7700,68,97,385933
1.9062,0.2786,38.8400,68,97,385936
1.9599,0.2737,38.8400,68,97,385939
1.9795,0.2884,38.6800,68,97,385943
1.9453,0.2835,38.8100,68,97,385946
1.9795,0.2786,38.6500,68,97,385949
1.9599,0.2835,38.8400,68,97,385953
1.9844,0.2786,38.8100,68,97,385956
2.0235,0.2835,38.8100,68,97,385959
2.0332,0.2786,38.8100,68,97,385964
2.0821,0.2884,38.8100,68,97,385967
2.0528,0.2786,38.8100,68,97,385970
2.0674,0.2786,38.8400,68,97,385973
2.1163,0.3079,38.7400,68,97,385977
2.1114,0.2786,38.9300,68,97,385980
2.1750,0.2835,38.6200,68,97,385983
2.1701,0.2835,38.7400,68,97,385987
2.1896,0.2786,38.9300,68,97,385990
2.2385,0.2688,38.7700,68,97,385993
2.2287,0.2786,38.8400,68,97,385997
2.3069,0.2884,38.7700,68,97,386000
2.2825,0.2786,38.8100,68,97,386003
2.2727,0.2786,38.8400,68,97,386008
2.2874,0.2835,38.8100,68,97,386011
2.3021,0.2786,38.8400,68,97,386014
2.3754,0.2933,38.5500,68,97,386017
2.3265,0.2786,38.7400,68,97,386021
2.3021,0.2737,38.8700,68,97,386024
2.2678,0.2737,38.8700,68,97,386027
2.2239,0.2737,38.7700,68,97,386031
2.2385,0.2933,38.6800,68,97,386034
2.1603,0.2835,38.8400,68,97,386037
2.1065,0.2786,38.7700,68,97,386041
2.0088,0.2786,38.8400,68,97,386044
1.9208,0.2786,38.9300,68,97,386048
1.8622,0.2933,38.7100,68,97,386052
1.7449,0.2835,38.7700,68,97,386055
1.6862,0.2884,38.6800,68,97,386058
1.5934,0.2688,38.8400,68,97,386061
1.5200,0.2835,38.9000,68,97,386065
1.4761,0.2933,38.7100,68,97,386068
1.3832,0.2786,38.7400,68,97,386071
1.3587,0.2884,38.7100,68,97,386075
1.2854,0.2737,38.7700,68,97,386078
1.2561,0.2884,38.8400,68,97,386081
1.2268,0.2835,38.7700,68,97,386085
1.1975,0.2786,38.8100,68,97,386088
1.2023,0.2786,38.6200,68,97,386092
1.1632,0.2786,38.7700,68,97,386096
1.1681,0.2737,38.8700,68,97,386099
1.1779,0.2884,38.8400,68,97,386102
1.1535,0.2835,38.9300,68,97,386105
1.1828,0.2884,38.9300,68,97,386109
1.1681,0.2933,38.7100,68,97,386112
1.1779,0.2688,38.8700,68,97,386115
1.1828,0.2933,38.7700,68,97,386119
1.2121,0.2835,38.8400,68,97,386122
1.2268,0.2981,38.6200,68,97,386125
1.2610,0.2688,38.6800,68,97,386130
1.2317,0.2786,38.8400,68,97,386134
1.2463,0.2933,38.6800,68,97,386138
1.2170,0.2786,38.8400,68,97,386141
1.2268,0.2737,38.7100,68,97,386144
1.2903,0.2786,38.8100,68,97,386148
1.2659,0.2786,38.8400,68,97,386151
1.3001,0.2835,38.6800,68,97,386154
1.2854,0.2786,39.0900,68,97,386158
1.3001,0.2688,38.8400,68,97,386161
1.3294,0.2884,38.7100,68,97,386164
1.3196,0.2884,38.8400,68,97,386167
1.3685,0.2884,38.6200,68,97,386171
1.3587,0.2835,38.7100,68,97,386174
1.3636,0.2786,38.8400,68,97,386178
1.3783,0.2884,38.7700,68,97,386182
1.4027,0.2737,38.8400,68,97,386185
1.4174,0.2933,38.5500,68,97,386188
1.3685,0.2835,38.7100,68,97,386192
1.3685,0.2737,38.9000,68,97,386195
1.3734,0.2737,38.8100,68,97,386198
1.3881,0.2688,38.8400,68,97,386202
1.4370,0.2981,38.6500,68,97,386205
1.4027,0.2786,38.8400,68,97,386208
1.4076,0.2786,38.7400,68,97,386211
1.3930,0.2884,38.8400,68,97,386215
1.3881,0.2786,38.8400,68,97,386219
1.4272,0.2933,38.7400,68,97,386222
1.4272,0.2835,38.8400,68,97,386226
1.4418,0.2835,38.7100,68,97,386229
1.4174,0.2786,38.8400,68,97,386232
1.4223,0.2786,38.8400,68,97,386236
1.4370,0.2884,38.6200,68,97,386239
1.3978,0.2786,38.8400,68,97,386242
1.4272,0.2835,38.7100,68,97,386246
1.3978,0.2786,38.7700,68,97,386249
1.4076,0.2835,38.9300,68,97,386252
1.4223,0.2884,38.6800,68,97,386256
1.3978,0.2786,38.8400,68,97,386259
1.4321,0.2884,38.6800,68,97,386263
1.4076,0.2835,38.7700,68,97,386266
1.4027,0.2786,38.8400,68,97,386270
1.4321,0.2786,38.8100,68,97,386273
1.3930,0.2786,38.8700,68,97,386276
1.4321,0.3177,38.5500,68,97,386280
1.3930,0.2786,38.8400,68,97,386283
1.4076,0.2639,38.8400,68,97,386286
1.4125,0.2835,38.8400,68,97,386290
1.4076,0.2737,38.8400,68,97,386293
1.4418,0.2981,38.5800,68,97,386296
1.4125,0.2835,38.7700,68,97,386300
1.4223,0.2737,38.7700,68,97,386304
1.4174,0.2835,38.8100,68,97,386307
1.4125,0.2786,38.8700,68,97,386311
1.4418,0.2835,38.6800,68,97,386314
1.4027,0.2835,38.8100,68,97,386317
1.4174,0.2786,38.7100,68,97,386320
1.4125,0.2786,38.8400,68,97,386324
1.4223,0.2786,38.7700,68,97,386327
1.4858,0.2884,38.7400,68,97,386330
1.4223,0.2786,38.9600,68,97,386334
1.4418,0.3324,38.8100,68,97,386337
1.4076,0.2737,38.8100,68,97,386340
1.4125,0.2981,38.8400,68,97,386344
1.4370,0.2835,38.7700,68,97,386348
1.4272,0.2786,38.8700,68,97,386351
1.4516,0.2786,38.6500,68,97,386355
1.4076,0.3079,38.8400,68,97,386358
1.4174,0.2786,38.8400,68,97,386361
1.4321,0.2884,38.7700,68,97,386364
1.4174,0.2786,38.8400,68,97,386368
1.4614,0.2884,38.5500,68,97,386371
1.4370,0.2835,38.7400,68,97,386374
1.4272,0.2786,38.0200,68,97,386378
1.4321,0.2688,38.8100,68,97,386381
1.4321,0.2786,38.8400,68,97,386384
1.5152,0.2884,38.5800,68,97,386388
1.4467,0.3177,38.7700,68,97,386392
1.4272,0.2737,38.7700,68,97,386395
1.4370,0.2786,38.8400,68,97,386399
1.4467,0.2688,38.8400,68,97,386402
1.4907,0.2884,38.6800,68,97,386405
1.4565,0.2737,38.8100,68,97,386409
1.4712,0.2835,38.7100,68,97,386412
1.4418,0.2835,38.8700,68,97,386415
1.4321,0.2786,38.8400,68,97,386418
1.4663,0.2933,38.7700,68,97,386422
1.4663,0.2786,38.8100,68,97,386425
1.4956,0.2884,38.6800,68,97,386428
1.4565,0.2786,38.8400,68,97,386433
1.4516,0.2786,38.8400,68,97,386436
1.4663,0.2884,38.7400,68,97,386439
1.4370,0.2786,38.8400,68,97,386443
1.4761,0.2835,38.6500,68,97,386446
1.4663,0.2835,38.7400,68,97,386449
1.4663,0.2786,38.8400,68,97,386453
1.4858,0.2933,38.7400,68,97,386456
1.4516,0.2786,38.8400,68,97,386459
1.5005,0.3275,38.5200,68,97,386463
1.4712,0.2835,38.7400,68,97,386466
1.4712,0.3128,38.8700,68,97,386469
1.4614,0.2835,38.8100,68,97,386473
1.4663,0.2884,38.8400,68,97,386477
1.5054,0.2981,38.6800,68,97,386480
1.4614,0.3030,38.7700,68,97,386483
1.4809,0.2737,38.7700,68,97,386487
1.4614,0.2835,38.8400,68,97,386490
1.4516,0.2737,38.8400,68,97,386493
1.4809,0.2933,38.9000,68,97,386497
1.4614,0.2981,38.8700,68,97,386500
1.4809,0.2786,38.7100,68,97,386503
1.4663,0.2786,38.8700,68,97,386507
1.4761,0.2786,38.8400,68,97,386510
1.5005,0.2981,38.6500,68,97,386513
1.4663,0.2688,38.8700,68,97,386518
1.4809,0.2884,38.7100,68,97,386521
1.4858,0.2737,38.8400,68,97,386524
1.4858,0.2786,38.8400,68,97,386527
1.5103,0.2884,38.6800,68,97,386531
1.4761,0.2786,38.9000,68,97,386534
1.4956,0.2835,38.6500,68,97,386537
1.4663,0.2786,38.7700,68,97,386541
1.4712,0.2835,38.8400,68,97,386544
1.4907,0.2835,38.8100,68,97,386547
1.4907,0.2786,38.8400,68,97,386551
1.5249,0.2933,38.5800,68,97,386554
1.4809,0.3030,38.8100,68,97,386557
1.4956,0.2835,38.8400,68,97,386562
1.5054,0.2835,38.5200,68,97,386565
1.4956,0.2835,38.8400,68,97,386568
1.5494,0.2981,38.6500,68,97,386572
1.5152,0.2786,38.7400,68,97,386575
1.5005,0.2737,38.8100,68,97,386578
1.5054,0.2835,38.8400,68,97,386581
1.5054,0.2688,38.8400,68,97,386585
1.5689,0.2933,38.7400,68,97,386588
1.5347,0.2884,38.7700,68,97,386591
1.5445,0.2786,38.8400,68,97,386595
1.5445,0.2786,38.9300,68,97,386598
1.5640,0.2786,38.7100,68,97,386601
1.6080,0.2884,38.6800,68,97,386606
1.5836,0.2688,38.8400,68,97,386609
1.6129,0.2835,38.7100,68,97,386612
1.5738,0.2688,38.8400,68,97,386616
1.5738,0.2786,38.8400,68,97,386619
1.5982,0.2835,38.7700,68,97,386622
1.6031,0.2835,39.0600,68,97,386625
1.6422,0.2933,38.6800,68,97,386629
1.6080,0.2786,39.0600,68,97,386632
1.6129,0.2786,38.8400,68,97,386635
1.6276,0.2884,38.7100,68,97,386639
1.6178,0.2835,38.8400,68,97,386642
1.6667,0.2884,38.6500,68,97,386646
1.6667,0.2835,38.8100,68,97,386650
1.6716,0.2786,38.8400,68,97,386653
1.6960,0.2933,38.7400,68,97,386656
1.6667,0.2786,38.8400,68,97,386660
1.7253,0.2981,38.5200,68,97,386663
1.6862,0.2835,38.7400,68,97,386666
1.6667,0.2884,38.8700,68,97,386670
1.6520,0.2835,38.8400,68,97,386673
1.6276,0.2786,38.8400,68,97,386676
1.6716,0.2884,38.6800,68,97,386679
1.6031,0.2835,38.8400,68,97,386683
1.6178,0.2737,38.7100,68,97,386686
1.6031,0.2835,38.8400,68,97,386690
1.5934,0.2835,38.8400,68,97,386694
1.6129,0.2884,38.7100,68,97,386697
1.6178,0.2835,38.8100,68,97,386700
1.6080,0.2835,38.7100,68,97,386704
1.5787,0.2835,38.8400,68,97,386707
1.5787,0.2786,38.8700,68,97,386710
1.5934,0.2884,38.7100,68,97,386714
1.5396,0.2835,38.8400,68,97,386717
1.5445,0.2835,38.7700,68,97,386720
1.4858,0.2786,38.7700,68,97,386723
1.4467,0.2786,38.8400,68,97,386727
1.3978,0.2933,38.6800,68,97,386731
1.3490,0.2835,38.8100,68,97,386734
1.4174,0.2933,38.6800,68,97,386738
3.1378,0.3030,38.5800,68,97,386742
3.3724,0.2835,38.7700,68,97,386746
3.5582,0.2835,38.7700,68,97,386749
3.4946,0.2835,38.5200,68,97,386752
3.2014,0.2786,38.8400,68,97,386756
2.8299,0.2981,38.7700,68,97,386759
2.2825,0.2835,38.9300,68,97,386762
1.8426,0.2884,38.7100,68,97,386766
1.4956,0.2835,38.8400,68,97,386769
1.3050,0.2786,38.9300,68,97,386772
1.2512,0.2884,38.6800,68,97,386777
1.2072,0.2884,38.7700,68,97,386780
1.2366,0.2884,38.6800,68,97,386783
1.2414,0.2786,38.8100,68,97,386786
1.2854,0.2737,38.8100,68,97,386790
1.3441,0.2835,38.7100,68,97,386793
1.3587,0.2884,38.8100,68,97,386796
1.4076,0.2688,38.6800,68,97,386800
1.3783,0.2786,38.8400,68,97,386803
1.3930,0.2884,38.8400,68,97,386806
1.4125,0.2835,38.7700,68,97,386810
1.4321,0.2786,38.8400,68,97,386813
1.4761,0.2933,38.6200,68,97,386817
1.4516,0.2786,38.8400,68,97,386821
1.4663,0.2688,38.8400,68,97,386824
1.4858,0.2884,38.8400,68,97,386827
1.4907,0.2786,38.8700,68,97,386830
1.5591,0.2933,38.5500,68,97,386834
1.5543,0.2884,38.7400,68,97,386837
1.5591,0.2786,38.9000,68,97,386840
1.5689,0.2835,38.8100,68,97,386844
1.5689,0.2786,38.8400,68,97,386847
1.6422,0.2884,38.6800,68,97,386850
1.6178,0.2884,38.8100,68,97,386854
1.6325,0.2835,38.7400,68,97,386857
1.6325,0.2835,38.9300,68,97,386861
1.6471,0.2835,38.9000,68,97,386865
1.6862,0.2884,38.6500,68,97,386868
1.6764,0.3324,38.8100,68,97,386871
1.7155,0.2835,38.7100,68,97,386875
1.6911,0.2835,38.8700,68,97,386878
1.7009,0.2786,38.8400,68,97,386881
1.7253,0.3030,38.7700,68,97,386884
1.7253,0.2786,38.8700,68,97,386888
1.7791,0.2835,38.7100,68,97,386891
1.7644,0.2786,38.8700,68,97,386894
1.7742,0.2786,38.8400,68,97,386898
1.7986,0.2933,38.7400,68,97,386902
1.7791,0.2835,38.9600,68,97,386905
1.8328,0.2835,38.6200,68,97,386909
1.8328,0.2835,38.8100,68,97,386912
1.8475,0.2737,38.8700,68,97,386915
1.8817,0.2884,38.7400,68,97,386919
1.8573,0.3324,38.8700,68,97,386922
1.9159,0.2688,38.5500,68,97,386925
1.8866,0.2884,38.7100,68,97,386929
1.9062,0.2786,38.8400,68,97,386932
1.9306,0.2835,38.8100,68,97,386935
1.9550,0.2786,38.8400,68,97,386938
2.0088,0.3030,38.6200,68,97,386942
1.9599,0.2835,38.8100,68,97,386946
1.9795,0.2786,38.8100,68,97,386949
2.0039,0.2835,38.8400,68,97,386953
2.0235,0.2835,38.8400,68,97,386956
2.0968,0.2981,38.6200,68,97,386959
2.0821,0.2933,38.8400,68,97,386963
2.1261,0.2835,38.7100,68,97,386966
2.1212,0.2835,38.8400,68,97,386969
2.1603,0.2786,38.9000,68,97,386972
2.2287,0.2933,38.6800,68,97,386976
2.2190,0.2786,38.8100,68,97,386979
2.2630,0.2884,38.7400,68,97,386982
2.2483,0.2786,38.8100,68,97,386987
2.2776,0.2688,38.8400,68,97,386990
2.3314,0.2933,38.7400,68,97,386993
2.3216,0.2786,38.8400,68,97,386997
2.3705,0.2786,38.6500,68,97,387000
2.3460,0.2688,38.7700,68,97,387003
2.3460,0.2786,38.8400,68,97,387007
2.3705,0.2884,38.7400,68,97,387010
2.3705,0.2688,38.8700,68,97,387013
2.4194,0.2884,38.5800,68,97,387016
2.3314,0.2737,38.8400,68,97,387020
2.3021,0.2786,38.8400,68,97,387023
2.2581,0.2786,38.8100,68,97,387026
2.1848,0.2786,38.9300,68,97,387031
2.1848,0.2981,38.5500,68,97,387034
2.0772,0.2884,38.8700,68,97,387037
1.9892,0.2786,38.7700,68,97,387041
1.9013,0.2884,38.8100,68,97,387044
1.8133,0.2786,38.9000,68,97,387047
1.7840,0.3030,38.6500,68,97,387051
1.6716,0.2884,38.7700,68,97,387054
1.5885,0.2835,38.7700,68,97,387057
1.5347,0.2835,38.7700,68,97,387060
1.4565,0.2786,38.8400,68,97,387064
1.4272,0.2933,38.6800,68,97,387067
1.3539,0.2835,38.9300,68,97,387070
1.3343,0.2933,38.6800,68,97,387075
1.2659,0.2835,38.8700,68,97,387078
1.2561,0.2786,38.8400,68,97,387081
1.2512,0.2835,38.7400,68,97,387085
1.2659,0.2981,38.8400,68,97,387088
1.2610,0.2835,38.7100,68,97,387091
1.2757,0.2786,38.8400,68,97,387095
1.2512,0.2786,38.9000,68,97,387098
1.2659,0.2835,38.6800,68,97,387101
1.2366,0.2835,38.9300,68,97,387105
1.2708,0.2835,38.5800,68,97,387108
1.2805,0.2835,38.7100,68,97,387111
1.2952,0.2786,38.8400,68,97,387115
1.3245,0.2884,38.7400,68,97,387119
1.3099,0.2786,38.8400,68,97,387122
1.3539,0.2981,38.5500,68,97,387125
1.3245,0.2933,38.7400,68,97,387129
1.3392,0.2786,38.8400,68,97,387132
1.3587,0.2835,38.8700,68,97,387135
1.3783,0.2835,38.8700,68,97,387139
1.4223,0.3030,38.7700,68,97,387142
1.3734,0.2786,38.8100,68,97,387145
1.3978,0.2737,38.7400,68,97,387149
1.4027,0.2884,38.8100,68,97,387152
1.4027,0.2835,39.0300,68,97,387155
1.4467,0.2933,38.7400,68,97,387160
1.4321,0.2884,38.9300,68,97,387163
1.4467,0.3030,38.8100,68,97,387166
1.4272,0.2786,38.8400,68,97,387169
1.4370,0.2835,38.8400,68,97,387173
1.4712,0.2981,38.7100,68,97,387176
1.4516,0.2786,38.8400,68,97,387179
1.4663,0.2835,38.7100,68,97,387183
1.4418,0.2737,38.7700,68,97,387186
1.4614,0.2786,38.8400,68,97,387189
1.4956,0.2884,38.6800,68,97,387193
1.4614,0.2835,38.8400,68,97,387196
1.5103,0.2884,38.6200,68,97,387200
1.4712,0.2835,38.7400,68,97,387204
1.4761,0.2786,38.8100,68,97,387207
1.4956,0.2835,38.8100,68,97,387210
1.5054,0.2786,38.8400,68,97,387214
1.5543,0.2933,38.5500,68,97,387217
1.5103,0.2835,38.7700,68,97,387220
1.5152,0.2786,38.8400,68,97,387223
1.5152,0.2884,38.8700,68,97,387227
1.5054,0.2688,38.8400,68,97,387230
1.5640,0.3030,38.5800,68,97,387233
1.5347,0.3079,38.7700,68,97,387237
1.5249,0.2884,38.7700,68,97,387240
1.5152,0.2835,38.7100,68,97,387244
1.5396,0.2835,38.9300,68,97,387248
1.5494,0.2933,38.7400,68,97,387251
1.5249,0.2688,38.7700,68,97,387254
1.5298,0.2786,38.8700,68,97,387258
1.5054,0.2933,38.8400,68,97,387261
1.5103,0.2786,38.9300,68,97,387264
1.5249,0.2884,38.6800,68,97,387267
1.5200,0.2786,38.8400,68,97,387271
1.5298,0.2884,38.7100,68,97,387274
1.4956,0.2933,38.8400,68,97,387277
1.4956,0.2786,38.8400,68,97,387281
1.5054,0.2884,38.7700,68,97,387284
1.5005,0.2835,38.8400,68,97,387288
1.5347,0.2835,38.6800,68,97,387292
1.5054,0.3079,38.8100,68,97,387295
1.5152,0.2786,38.8400,68,97,387298
1.5200,0.3079,38.7400,68,97,387302
1.4907,0.2835,38.8400,68,97,387305
1.5347,0.2884,38.5800,68,97,387308
1.5200,0.2884,38.7400,68,97,387311
1.5152,0.2688,38.8400,68,97,387315
1.5396,0.2933,38.7700,68,97,387318
1.5103,0.2786,38.8400,68,97,387321
1.5494,0.2933,38.5500,68,97,387325
1.5103,0.2835,38.7100,68,97,387329
1.5054,0.2981,38.8100,68,97,387332
1.5152,0.2835,38.8400,68,97,387336
1.5103,0.2835,38.8700,68,97,387339
1.5494,0.2884,38.6800,68,97,387342
1.5005,0.2786,38.7100,68,97,387346
