ecg,gsr,temp,hr,spo2,timest
1.7742,0.1466,38.1800,80,97,144804
1.7449,0.1564,38.2100,80,97,144807
1.7498,0.1515,38.2700,80,97,144811
1.7644,0.1564,38.1100,80,97,144815
1.7546,0.1515,38.4600,80,97,144818
1.7937,0.1711,38.0500,80,97,144821
1.7693,0.1564,38.2400,80,97,144824
1.7693,0.1515,38.2400,80,97,144828
1.7840,0.1564,38.2400,80,97,144831
1.7644,0.1564,38.2700,80,97,144834
1.8133,0.1613,38.0200,80,97,144838
1.7693,0.1564,38.2100,80,97,144841
1.7791,0.1515,38.3300,80,97,144844
1.7889,0.1613,38.1800,80,97,144848
1.7791,0.1515,38.2700,80,97,144851
1.8573,0.1760,38.0500,80,97,144855
1.7986,0.1613,38.2100,80,97,144859
1.7937,0.1515,38.3600,80,97,144862
1.8035,0.1564,38.2400,80,97,144865
1.7986,0.1515,38.2400,80,97,144868
1.8328,0.1662,38.0800,80,97,144872
1.7986,0.1613,38.2100,80,97,144875
1.7937,0.1564,38.2100,80,97,144878
1.7742,0.1613,38.2700,80,97,144882
1.7791,0.1564,38.2700,80,97,144885
1.8084,0.1613,38.2100,80,97,144888
1.8084,0.1564,38.2400,80,97,144892
1.8524,0.1515,38.1500,80,97,144896
1.8377,0.1564,38.2700,80,97,144899
1.8475,0.1564,38.2700,80,97,144902
1.8671,0.1564,38.2100,80,97,144906
1.8719,0.1760,38.2700,80,97,144909
1.9062,0.1564,38.0800,80,97,144912
1.8915,0.1515,38.2700,80,97,144916
1.8964,0.1466,38.2400,80,97,144919
1.9159,0.1613,38.1100,80,97,144922
1.8964,0.1760,38.2400,80,97,144926
1.9501,0.1564,37.9900,80,97,144929
1.9306,0.1613,38.4300,80,97,144932
1.9257,0.1613,38.3000,80,97,144936
1.9453,0.1613,38.2400,80,97,144940
1.9159,0.1662,38.2400,80,97,144943
1.9697,0.1662,37.9600,80,97,144946
1.9110,0.1662,38.1100,80,97,144950
1.9110,0.1417,38.2400,80,97,144953
1.8671,0.1515,38.3300,80,97,144956
1.8377,0.1515,38.3000,80,97,144960
1.8768,0.1711,38.0500,80,97,144963
1.8182,0.1564,38.2100,80,97,144966
1.8133,0.1515,38.1500,80,97,144970
1.8084,0.1515,38.2700,80,97,144973
1.7937,0.1564,38.3000,80,97,144976
1.8182,0.1662,38.1800,80,97,144980
1.7937,0.1515,38.2400,80,97,144984
1.7986,0.1564,38.2700,80,97,144987
1.7644,0.1564,38.2400,80,97,144990
1.7546,0.1564,38.2400,80,97,144994
1.7889,0.1613,38.1800,80,97,144997
1.7644,0.1515,38.4300,80,97,145000
1.7840,0.1613,38.1500,80,97,145004
1.7595,0.1564,38.2100,80,97,145007
1.7644,0.1515,38.4600,80,97,145010
1.7791,0.1564,38.1500,80,97,145014
1.7742,0.1515,38.3000,80,97,145017
1.8084,0.1564,38.0500,80,97,145020
1.7791,0.1564,38.2400,80,97,145025
1.7644,0.1564,38.2700,80,97,145028
1.7546,0.1613,38.1800,80,97,145031
1.7400,0.1564,38.2700,80,97,145034
1.8035,0.1613,37.9900,80,97,145038
1.8280,0.1564,38.2400,80,97,145041
1.9208,0.1564,38.2700,80,97,145044
2.0626,0.1613,38.3000,80,97,145048
2.1945,0.1564,38.2700,80,97,145051
2.4242,0.1662,37.9300,80,97,145054
2.5709,0.1564,38.1500,80,97,145058
2.6882,0.1613,38.3000,80,97,145061
2.6833,0.1564,38.1500,80,97,145064
2.5415,0.1564,38.3000,80,97,145068
2.4242,0.1662,38.0200,81,97,145072
1.8133,0.1613,38.2400,81,97,145076
1.7693,0.1515,38.4000,81,97,145079
1.7644,0.1662,38.1800,81,97,145082
1.7155,0.1564,38.2700,81,97,145085
1.7009,0.1564,38.2400,81,97,145089
1.7302,0.1564,38.1800,81,97,145092
1.6911,0.1564,38.3300,81,97,145095
1.7107,0.1515,38.1100,81,97,145099
1.6764,0.1515,38.2700,81,97,145102
1.6862,0.1515,38.3000,81,97,145105
1.7107,0.1662,38.2100,81,97,145110
1.6911,0.1515,38.2100,81,97,145113
1.7351,0.1613,37.9900,81,97,145116
1.7107,0.1613,38.1800,81,97,145120
1.6960,0.1613,38.3000,81,97,145123
1.7058,0.1613,38.2400,81,97,145126
1.7058,0.1515,38.3600,81,97,145129
1.7644,0.1857,37.9600,81,97,145133
1.7400,0.1564,38.0800,81,97,145136
1.7400,0.1515,38.6200,81,97,145139
1.7449,0.1564,38.2400,81,97,145143
1.7498,0.1564,38.2400,81,97,145146
1.7986,0.1711,38.1500,81,97,145149
1.7693,0.1564,38.2400,81,97,145154
1.7791,0.1564,38.1500,81,97,145157
1.7791,0.1808,38.2700,81,97,145160
1.7840,0.1564,38.2700,81,97,145163
1.8133,0.1515,38.1800,81,97,145167
1.8084,0.1564,38.2100,81,97,145170
1.8377,0.1564,38.1100,81,97,145173
1.8280,0.1564,38.2400,81,97,145177
1.8377,0.1564,38.2700,81,97,145180
1.8768,0.1662,38.1100,81,97,145183
1.8524,0.1613,38.2700,81,97,145187
1.8768,0.1515,38.1500,81,97,145190
1.8426,0.1613,38.2100,81,97,145193
1.8524,0.1515,38.2700,81,97,145198
1.8817,0.1466,38.1100,81,97,145201
1.8866,0.1564,38.2400,81,97,145204
1.9110,0.1613,38.1800,81,97,145208
1.8915,0.1564,38.2700,81,97,145211
1.8915,0.1564,38.2700,81,97,145214
1.9013,0.1613,38.2400,81,97,145217
1.9159,0.1564,38.3000,81,97,145221
1.9453,0.1613,37.9900,81,97,145224
1.9062,0.1613,38.2700,81,97,145227
1.9453,0.1564,38.2700,81,97,145231
1.9306,0.1564,38.3600,81,97,145234
1.9404,0.1564,38.2700,81,97,145238
2.0088,0.1711,38.0200,81,97,145242
1.9697,0.1613,38.3000,81,97,145245
1.9697,0.1515,38.2400,81,97,145248
1.9795,0.1515,38.2400,81,97,145251
1.9844,0.1515,38.2100,81,97,145255
2.0479,0.1662,38.0800,81,97,145258
2.0235,0.1613,38.2400,81,97,145261
2.0332,0.1564,38.1500,81,97,145265
2.0186,0.1564,38.2400,81,97,145268
2.0381,0.1564,38.2700,81,97,145271
2.0772,0.1613,38.2100,81,97,145275
2.0626,0.1613,38.2700,81,97,145278
2.0772,0.1564,38.1100,81,97,145282
2.0479,0.1515,38.2700,81,97,145285
2.0626,0.1564,38.2400,81,97,145289
2.0821,0.1564,38.2100,81,97,145292
2.0674,0.1515,38.3300,81,97,145295
2.0919,0.1564,38.1500,81,97,145299
2.0479,0.1564,38.2400,81,97,145302
2.0430,0.1515,38.3300,81,97,145305
2.0626,0.1613,38.1500,81,97,145309
2.0381,0.1564,38.3000,81,97,145312
2.0674,0.1564,38.0500,81,97,145315
2.0283,0.1564,38.2100,81,97,145318
1.9990,0.1515,38.2700,81,97,145323
2.0039,0.1564,38.1500,81,97,145326
1.9550,0.1515,38.3000,81,97,145329
1.9795,0.1760,38.0200,81,97,145333
1.9159,0.1466,38.2100,81,97,145336
1.9013,0.1564,38.3000,81,97,145339
1.8768,0.1564,38.2400,81,97,145343
1.8475,0.1564,38.2700,81,97,145346
1.8768,0.1662,37.9600,81,97,145349
1.8182,0.1564,38.2100,81,97,145353
1.8035,0.1515,38.2100,81,97,145356
1.8035,0.1564,38.2400,81,97,145359
1.7840,0.1564,38.2100,81,97,145362
1.8280,0.1711,38.3600,81,97,145367
1.7937,0.1662,38.2100,81,97,145370
1.7889,0.1564,38.1500,81,97,145373
1.7693,0.1564,38.2700,81,97,145377
1.7693,0.1564,38.3000,81,97,145380
1.7937,0.1613,37.8300,81,97,145383
1.7644,0.1564,38.2400,81,97,145387
1.7840,0.1564,38.1100,81,97,145390
1.7595,0.1711,38.2700,81,97,145393
1.7742,0.1564,38.2400,81,97,145397
1.7889,0.1515,38.1100,81,97,145400
1.7791,0.1564,38.2700,81,97,145403
1.8182,0.1564,38.0800,81,97,145406
1.7937,0.1515,38.2400,81,97,145411
1.7937,0.1564,38.3000,81,97,145414
1.8035,0.1564,38.2100,81,97,145417
1.8035,0.1515,37.5300,81,97,145421
1.8377,0.1857,38.0500,81,97,145424
1.8133,0.1564,38.2700,81,97,145427
1.8231,0.1515,38.3000,81,97,145431
1.8475,0.1662,38.1800,81,97,145434
1.8280,0.1515,38.1500,81,97,145437
1.8719,0.1906,38.0500,81,97,145440
1.8475,0.1564,38.1500,81,97,145444
1.8328,0.1515,38.2400,81,97,145447
1.8426,0.1564,38.2400,81,97,145451
1.8377,0.1564,38.2700,81,97,145455
1.9013,0.1711,37.9900,81,97,145458
1.8671,0.1613,38.1500,81,97,145461
1.8524,0.1515,38.4000,81,97,145465
1.8524,0.1564,38.3600,81,97,145468
1.8475,0.1564,38.2700,81,97,145471
1.8964,0.1711,38.1800,81,97,145475
1.8964,0.1564,38.2700,81,97,145478
1.8768,0.1515,38.1500,81,97,145481
1.8622,0.1613,38.2700,81,97,145484
1.8622,0.1515,38.4300,81,97,145488
1.8817,0.1613,38.2100,81,97,145491
1.8719,0.1515,38.2400,81,97,145495
1.8964,0.1613,38.1100,81,97,145499
1.8622,0.1515,38.2400,81,97,145502
1.8573,0.1515,38.2700,81,97,145505
1.8866,0.1613,38.1100,81,97,145509
1.8524,0.1515,38.2100,81,97,145512
1.8768,0.1564,38.0500,81,97,145515
1.8622,0.1564,38.1800,81,97,145519
1.8622,0.1466,38.2700,81,97,145522
1.8817,0.1662,38.2100,81,97,145525
1.8573,0.1857,38.2400,81,97,145529
1.8964,0.1613,38.0200,81,97,145532
1.8671,0.1515,38.1800,81,97,145536
1.8622,0.1613,38.2700,81,97,145539
1.8719,0.1515,38.2400,81,97,145543
1.8622,0.1564,38.3000,81,97,145546
1.9159,0.1613,37.9900,81,97,145549
1.8671,0.1662,38.1800,81,97,145553
1.8915,0.1417,38.2400,81,97,145556
1.8671,0.1564,38.3000,81,97,145559
1.8622,0.1564,38.2700,81,97,145563
1.9013,0.1515,38.1100,81,97,145566
1.8768,0.1613,38.3000,81,97,145569
1.8866,0.1564,38.1800,81,97,145573
1.8866,0.1564,38.4000,81,97,145576
1.8915,0.1515,38.3300,81,97,145580
1.9208,0.1613,38.0800,81,97,145583
1.8964,0.1564,38.4300,81,97,145587
1.9062,0.1662,38.1100,81,97,145590
1.8768,0.1613,38.2400,81,97,145593
1.8719,0.1515,38.0200,81,97,145597
1.8866,0.1564,38.1800,81,97,145600
1.8817,0.1564,38.2700,81,97,145603
1.9110,0.1515,38.1500,81,97,145607
1.9159,0.1564,38.2400,81,97,145610
1.9013,0.1515,38.3000,81,97,145613
1.9208,0.1564,38.1100,81,97,145616
1.9159,0.1515,38.3000,81,97,145620
1.9697,0.1564,38.0800,81,97,145624
1.9257,0.1515,38.1800,81,97,145627
1.9404,0.1515,38.2400,81,97,145631
1.9648,0.1613,38.2100,81,97,145634
1.9501,0.1564,38.3000,81,97,145637
1.9941,0.1662,37.9900,81,97,145641
1.9795,0.1515,38.1100,81,97,145644
1.9648,0.1515,38.2700,81,97,145647
1.9844,0.1613,38.2100,81,97,145651
1.9795,0.1515,38.3600,81,97,145654
2.0870,0.1711,37.9600,81,97,145657
2.0186,0.1564,38.4300,81,97,145660
2.0235,0.1662,38.2400,81,97,145665
2.0332,0.1564,38.2400,81,97,145668
2.0332,0.1515,38.2700,81,97,145671
2.0870,0.1613,38.1100,81,97,145675
2.0479,0.1564,38.2400,81,97,145678
2.0332,0.1564,38.2100,81,97,145681
1.9990,0.1515,38.4000,81,97,145685
1.9013,0.1515,38.2400,81,97,145688
1.9062,0.1564,38.3000,81,97,145692
1.9208,0.1662,38.1500,81,97,145695
1.8817,0.1564,38.4600,81,97,145698
1.8964,0.1760,38.0500,81,97,145701
1.8671,0.1564,38.1800,81,97,145705
1.8573,0.1564,38.2700,81,97,145709
1.8671,0.1662,38.1800,81,97,145712
1.8328,0.1515,38.2700,81,97,145716
1.8671,0.1613,38.1800,81,97,145719
1.8524,0.1564,38.2400,81,97,145722
1.8231,0.1564,38.2700,81,97,145726
1.8328,0.1466,38.2100,81,97,145729
1.8328,0.1564,38.2700,81,97,145732
1.8817,0.1662,37.9900,81,97,145736
1.8426,0.1564,38.2100,81,97,145739
1.8475,0.1466,38.2700,81,97,145742
1.8475,0.1662,38.2700,81,97,145745
1.8377,0.1564,38.2400,81,97,145750
1.8915,0.1711,38.0500,81,97,145753
1.8768,0.1564,38.2100,81,97,145756
1.9355,0.1564,38.1500,81,97,145760
2.0088,0.1564,38.2100,81,97,145763
2.1114,0.1564,38.3000,81,97,145766
2.2825,0.1613,38.0800,81,97,145770
2.4194,0.1613,38.2400,81,97,145773
2.6393,0.1564,38.0800,81,97,145776
2.7810,0.1564,38.3300,81,97,145780
2.8006,0.1515,38.2700,81,97,145783
2.7322,0.1613,38.2400,81,97,145786
2.4976,0.1515,38.2700,81,97,145789
2.3265,0.1857,38.1100,81,97,145794
2.1065,0.1564,38.2700,81,97,145797
1.9795,0.1515,38.3600,81,97,145800
1.9110,0.1613,38.2100,81,97,145804
1.8573,0.1515,38.2700,81,97,145807
1.8573,0.1564,38.0500,81,97,145810
1.8035,0.1564,38.2700,81,97,145814
1.7889,0.1564,38.2700,81,97,145817
1.7791,0.1564,38.1800,81,97,145820
1.7449,0.1515,38.2700,81,97,145823
1.7595,0.1613,38.0200,81,97,145827
1.7253,0.1613,38.1800,81,97,145830
1.7107,0.1564,38.3000,81,97,145833
1.7302,0.1613,38.2100,81,97,145838
1.7204,0.1564,38.2400,81,97,145841
1.7791,0.1711,37.9600,81,97,145844
1.7449,0.1564,38.1500,81,97,145848
1.7400,0.1515,38.1800,81,97,145851
1.7449,0.1857,38.2700,81,97,145854
1.7498,0.1564,38.2700,81,97,145858
1.8084,0.1711,38.0800,81,97,145861
1.7791,0.1613,38.2400,81,97,145864
1.7986,0.1564,38.1500,81,97,145867
1.7937,0.1564,38.2700,81,97,145871
1.8035,0.1564,38.2400,81,97,145874
1.8328,0.1613,38.4300,81,97,145878
1.8182,0.1564,38.3000,81,97,145882
1.8475,0.1564,38.0800,81,97,145885
1.8182,0.1662,38.2700,81,97,145888
1.8182,0.1564,38.3000,81,97,145892
1.8524,0.1662,38.1800,81,97,145895
1.8328,0.1564,38.2400,81,97,145898
1.8622,0.1564,38.1800,81,97,145902
1.8426,0.1760,38.1800,81,97,145905
1.8426,0.1564,38.2400,81,97,145908
1.8768,0.1662,38.1100,81,97,145912
1.8719,0.1564,38.2400,81,97,145915
1.9110,0.1515,38.0500,81,97,145918
1.8768,0.1613,38.2400,81,97,145922
1.8817,0.1564,38.2700,81,97,145926
1.8817,0.1515,38.3000,81,97,145929
1.8719,0.1857,38.2700,81,97,145932
1.9208,0.1662,37.9600,81,97,145936
1.8817,0.1515,38.2100,81,97,145939
1.8915,0.1613,38.2400,81,97,145942
1.9159,0.1564,38.2400,81,97,145946
1.9257,0.1564,38.2700,81,97,145949
2.0039,0.1711,38.0500,81,97,145952
1.9648,0.1613,38.2100,81,97,145955
1.9599,0.1515,38.2400,81,97,145959
1.9550,0.1564,38.2400,81,97,145963
1.9550,0.1564,38.2700,81,97,145966
1.9990,0.1808,38.0800,81,97,145970
1.9844,0.1613,38.2400,81,97,145973
1.9892,0.1515,38.2100,81,97,145976
1.9746,0.1564,38.2700,81,97,145980
1.9795,0.1564,38.2700,81,97,145983
2.0137,0.1564,38.1800,81,97,145986
1.9990,0.1564,38.2400,81,97,145989
2.0381,0.1662,38.0800,81,97,145993
2.0137,0.1564,38.2700,81,97,145996
2.0186,0.1515,38.2100,81,97,145999
2.0430,0.1613,38.1800,81,97,146003
2.0430,0.1564,38.2700,81,97,146007
2.0821,0.1564,38.1500,81,97,146010
2.0577,0.1564,38.3000,81,97,146014
2.0723,0.1564,38.2700,81,97,146017
2.0919,0.1613,38.1500,81,97,146020
2.0626,0.1613,38.2700,81,97,146023
2.0919,0.1564,38.0200,81,97,146027
2.0674,0.1515,38.1800,81,97,146030
2.0528,0.1515,38.3600,81,97,146033
2.0870,0.1662,38.1800,81,97,146037
2.0577,0.1515,38.2400,81,97,146040
2.1017,0.1613,37.9900,81,97,146043
2.0381,0.1564,38.2100,81,97,146048
2.0186,0.1564,38.2700,81,97,146051
2.0039,0.1564,38.2100,81,97,146054
1.9746,0.1564,38.2700,81,97,146057
2.0039,0.1613,37.9900,81,97,146061
1.9306,0.1515,38.2100,81,97,146064
1.9062,0.1515,38.2400,81,97,146067
1.9208,0.1564,38.2400,81,97,146071
1.8524,0.1515,38.2700,81,97,146074
1.8719,0.1711,38.0800,81,97,146077
1.8231,0.1613,38.2100,81,97,146081
1.8035,0.1564,38.1500,81,97,146084
1.7742,0.1564,38.2700,81,97,146087
1.7546,0.1515,38.3300,81,97,146092
1.7840,0.1711,38.0800,81,97,146095
1.7546,0.1613,38.2400,81,97,146098
1.7742,0.1515,38.1500,81,97,146101
1.7498,0.1564,38.2700,81,97,146105
1.7498,0.1564,38.2700,81,97,146108
1.7644,0.1564,38.2400,81,97,146111
1.7400,0.1662,38.2400,81,97,146115
1.7742,0.1564,38.1100,81,97,146118
1.7498,0.1515,38.2700,81,97,146121
1.7693,0.1564,38.2700,81,97,146125
1.7840,0.1564,38.1500,81,97,146128
1.7791,0.1906,38.2400,81,97,146131
1.8328,0.1564,38.0800,81,97,146135
1.7693,0.1515,38.2700,81,97,146139
1.7742,0.1515,38.3300,81,97,146142
1.8133,0.1662,38.1800,81,97,146145
1.7937,0.1515,38.3600,81,97,146149
1.8817,0.1613,37.9900,81,97,146152
1.8231,0.1515,38.1500,81,97,146155
1.8035,0.1515,38.2700,81,97,146159
1.8182,0.1515,38.2100,81,97,146162
1.8035,0.1515,38.2100,81,97,146165
1.8524,0.1808,38.0500,81,97,146169
1.8133,0.1515,38.1500,81,97,146172
1.8035,0.1515,38.2400,81,97,146176
1.8035,0.1564,38.3000,81,97,146179
1.8133,0.1564,38.2700,81,97,146183
1.8622,0.1711,37.9600,81,97,146186
1.8328,0.1564,38.3000,81,97,146189
1.8622,0.1564,38.1500,81,97,146193
1.8377,0.1564,38.2400,81,97,146196
1.8328,0.1564,38.2700,81,97,146199
1.8622,0.1613,38.2100,81,97,146203
1.8475,0.1613,38.2400,81,97,146206
1.8622,0.1515,38.1100,81,97,146209
1.8280,0.1564,38.2400,81,97,146213
1.8328,0.1515,38.2700,81,97,146216
1.8524,0.1564,38.1100,81,97,146220
1.8280,0.1564,38.3000,81,97,146223
1.8524,0.1515,38.0800,81,97,146227
1.8328,0.1760,38.1500,81,97,146230
1.8182,0.1564,38.2700,81,97,146233
1.8475,0.1613,38.1100,81,97,146237
1.8573,0.1564,38.2700,81,97,146240
1.8671,0.1613,38.0200,81,97,146243
1.8280,0.1564,38.2400,81,97,146247
1.8280,0.1564,38.2700,81,97,146250
1.8377,0.1515,38.2100,81,97,146253
1.8280,0.1906,38.3000,81,97,146257
1.8768,0.1662,37.9900,81,97,146260
1.8377,0.1564,38.3300,81,97,146264
1.8377,0.1613,38.2400,81,97,146267
1.8377,0.1613,38.2400,81,97,146271
1.8280,0.1564,38.2700,81,97,146274
1.8915,0.1760,38.0500,81,97,146277
1.8524,0.1515,38.2100,81,97,146281
1.8475,0.1515,38.1800,81,97,146284
1.8524,0.1564,38.3000,81,97,146287
1.8475,0.1515,38.1800,81,97,146291
1.8817,0.1662,38.0800,81,97,146294
1.8573,0.1613,38.1500,81,97,146298
1.8426,0.1564,38.2700,81,97,146301
1.8671,0.1564,38.1100,81,97,146305
1.8426,0.1564,38.2400,81,97,146309
1.8426,0.1515,38.3000,81,97,146312
1.8524,0.1564,38.2100,81,97,146315
1.8377,0.1564,38.2400,81,97,146318
1.8768,0.1613,37.8000,81,97,146322
1.8719,0.1564,38.2700,81,97,146325
1.8426,0.1564,38.2700,81,97,146328
1.8622,0.1662,38.1800,81,97,146332
1.8475,0.1564,38.2400,81,97,146335
1.8964,0.1662,37.9600,81,97,146338
1.8719,0.1613,38.1800,81,97,146342
1.8719,0.1515,38.2700,81,97,146345
1.8964,0.1613,38.2100,81,97,146349
1.8964,0.1564,38.3000,81,97,146353
1.9599,0.1711,38.0500,81,97,146356
1.9257,0.1662,38.1800,81,97,146359
1.9306,0.1564,38.1800,81,97,146362
1.9306,0.1564,38.3000,81,97,146366
1.9355,0.1711,38.2400,81,97,146369
1.9844,0.1662,38.1500,81,97,146372
1.9599,0.1564,38.2400,81,97,146376
1.9892,0.1613,38.1800,81,97,146379
1.9746,0.1515,38.3300,81,97,146382
1.9892,0.1564,38.2700,81,97,146386
1.9795,0.1613,38.2100,81,97,146390
1.9648,0.1564,38.2400,81,97,146393
1.9795,0.1906,38.1500,81,97,146396
1.9355,0.1564,38.2400,81,97,146400
1.9159,0.1515,38.2100,81,97,146403
1.9501,0.1662,38.1100,81,97,146406
1.8915,0.1564,38.2400,81,97,146410
1.9062,0.1613,38.0500,81,97,146413
1.8817,0.1515,38.1500,81,97,146416
1.8671,0.1564,38.2400,81,97,146420
1.8817,0.1662,38.1500,81,97,146423
1.8426,0.1515,38.3000,81,97,146426
1.8671,0.1564,38.0500,81,97,146430
1.8182,0.1564,38.2400,81,97,146434
1.7986,0.1515,38.2700,81,97,146437
1.7937,0.1662,38.2400,81,97,146440
1.7742,0.1564,38.2700,81,97,146444
1.8231,0.1515,37.9600,81,97,146447
1.7791,0.1613,38.2100,81,97,146450
1.7889,0.1564,38.2400,81,97,146454
1.7986,0.1662,38.3000,81,97,146457
1.7986,0.1564,38.3000,81,97,146460
1.8573,0.1711,38.0500,81,97,146464
1.8182,0.1613,38.2700,81,97,146467
1.8231,0.1564,38.1800,81,97,146470
1.7986,0.1564,38.2100,81,97,146475
1.7840,0.1564,38.2700,81,97,146478
1.8035,0.1515,38.0500,81,97,146481
1.7791,0.1613,38.2100,81,97,146484
1.8280,0.1564,38.1500,81,97,146488
1.8622,0.1564,38.2400,81,97,146491
1.9599,0.1515,38.2700,81,97,146494
2.1017,0.1613,38.2100,81,97,146498
2.2385,0.1564,38.4600,81,97,146501
2.4536,0.1662,38.1500,81,97,146504
2.6246,0.1564,38.2400,81,97,146508
2.7615,0.1515,38.3600,81,97,146511
2.7566,0.1564,38.2100,81,97,146514
2.6051,0.1515,38.2700,81,97,146518
2.4291,0.1564,38.0800,81,97,146522
2.1848,0.1564,38.3000,81,97,146525
2.0186,0.1564,38.2700,81,97,146528
1.9355,0.1613,38.3600,81,97,146532
1.8426,0.1564,38.2700,81,97,146535
1.8426,0.1613,37.5600,81,97,146538
1.7840,0.1613,38.1800,81,97,146542
1.7400,0.1564,38.2700,81,97,146545
1.7351,0.1662,38.2100,81,97,146548
1.7107,0.1564,38.2700,81,97,146552
1.7449,0.1711,37.9600,81,97,146555
1.6960,0.1515,38.1100,81,97,146558
1.6911,0.1564,38.2100,81,97,146562
1.7009,0.1808,38.3000,81,97,146566
1.7058,0.1662,38.2700,81,97,146569
1.7595,0.1711,38.0800,81,97,146572
1.7155,0.1613,38.2100,81,97,146576
1.7546,0.1564,38.1500,81,97,146579
1.7058,0.1564,38.3000,81,97,146582
1.7107,0.1613,38.2400,81,97,146586
1.7400,0.1662,38.1800,81,97,146589
1.7253,0.1564,38.2700,81,97,146592
1.7498,0.1564,38.1100,81,97,146596
1.7351,0.1564,38.1100,81,97,146599
1.7498,0.1564,38.2400,81,97,146603
1.7986,0.1662,38.1500,81,97,146606
1.7840,0.1613,38.2700,81,97,146610
1.8426,0.1564,38.1100,81,97,146613
1.7889,0.1515,38.2400,81,97,146616
1.7889,0.1662,38.3000,81,97,146620
1.7986,0.1515,38.1800,81,97,146623
1.7889,0.1564,38.2700,81,97,146626
1.8524,0.1613,38.0200,81,97,146630
1.7986,0.1564,38.3000,81,97,146633
1.7986,0.1515,38.1500,81,97,146636
1.8377,0.1613,38.2100,81,97,146640
1.8133,0.1564,38.2700,81,97,146643
1.8719,0.2004,38.0200,81,97,146647
1.8475,0.1564,38.2100,81,97,146650
1.8475,0.1515,38.3000,81,97,146654
1.8475,0.1613,38.1800,81,97,146657
1.8475,0.1564,38.2700,81,97,146660
1.9013,0.1711,37.9900,81,97,146664
1.8964,0.1662,38.2100,81,97,146667
1.8671,0.1515,38.2100,81,97,146670
1.8719,0.1613,38.2400,81,97,146674
1.8768,0.1515,38.2700,81,97,146677
1.9306,0.1613,38.1100,81,97,146680
1.9208,0.1515,38.2100,81,97,146684
1.9404,0.1613,38.1100,81,97,146688
1.9599,0.1564,38.2700,81,97,146691
1.9355,0.1564,38.3300,81,97,146694
1.9550,0.1711,38.1800,81,97,146698
1.9355,0.1564,38.2400,81,97,146701
1.9648,0.1662,38.2100,81,97,146704
1.9453,0.1564,38.2400,81,97,146708
1.9648,0.1564,38.2700,81,97,146711
1.9844,0.1760,38.2100,81,97,146714
1.9795,0.1564,38.2400,81,97,146718
2.0088,0.1515,38.0800,81,97,146721
1.9892,0.1760,38.2100,81,97,146724
2.0088,0.1662,38.2400,81,97,146727
2.0430,0.1613,38.2400,81,97,146732
2.0332,0.1564,38.2700,81,97,146735
2.0772,0.1662,38.0200,81,97,146738
2.0674,0.1613,38.2100,81,97,146742
2.0479,0.1564,38.2700,81,97,146745
2.0723,0.1662,38.1800,81,97,146748
2.0528,0.1564,38.2700,81,97,146752
2.1065,0.1662,37.9900,81,97,146755
2.0577,0.1662,38.1800,81,97,146758
2.0528,0.1564,38.2700,81,97,146761
2.0528,0.1613,38.2400,81,97,146765
2.0479,0.1564,38.2700,81,97,146768
2.1017,0.1711,38.0500,81,97,146771
2.0479,0.1515,38.2100,81,97,146776
2.0332,0.1515,38.3300,81,97,146779
2.0137,0.1515,38.3000,81,97,146782
1.9941,0.1564,38.3000,81,97,146786
2.0137,0.1711,38.1500,81,97,146789
1.9746,0.1564,38.2100,81,97,146792
1.9306,0.1564,38.1500,81,97,146796
1.9013,0.1564,38.2400,81,97,146799
1.8622,0.1564,38.3000,81,97,146802
1.8671,0.1711,38.2100,81,97,146805
1.8231,0.1613,38.2400,81,97,146809
1.8231,0.1613,38.1100,81,97,146812
1.8133,0.1564,38.2400,81,97,146816
1.7644,0.1564,38.2400,81,97,146820
1.7644,0.1564,38.1800,81,97,146823
1.7498,0.1564,38.2400,81,97,146826
1.7644,0.1564,38.0800,81,97,146830
1.7351,0.1711,38.2700,81,97,146833
1.7351,0.1515,38.3000,81,97,146836
1.7449,0.1613,38.2400,81,97,146840
1.7400,0.1564,38.2400,81,97,146843
1.7889,0.1613,38.0200,81,97,146846
1.7546,0.1564,38.2400,81,97,146849
1.7693,0.1564,38.2700,81,97,146853
1.7840,0.1613,38.2400,81,97,146856
1.7840,0.1564,38.2700,81,97,146860
1.8280,0.1515,37.9900,81,97,146864
1.8035,0.1711,38.1500,81,97,146867
1.7986,0.1564,38.2400,81,97,146870
1.8035,0.1711,38.2400,81,97,146874
1.7937,0.1564,38.2700,81,97,146877
1.8426,0.1711,38.0500,81,97,146880
1.7986,0.1711,38.1800,81,97,146884
1.7889,0.1564,38.1500,81,97,146887
1.7791,0.1564,37.5300,81,97,146890
1.7791,0.1662,38.3000,81,97,146893
1.8035,0.1662,38.1500,81,97,146897
1.7889,0.1564,38.2100,81,97,146900
1.8133,0.1857,38.1100,81,97,146904
1.8035,0.1515,38.2700,81,97,146908
1.8133,0.1564,38.2700,81,97,146911
1.8231,0.1515,38.2700,81,97,146915
1.8475,0.1613,38.1500,81,97,146918
1.8231,0.1564,38.2700,81,97,146921
1.8768,0.1613,37.9900,81,97,146925
1.8426,0.1515,38.1500,81,97,146928
1.8328,0.1515,38.1500,81,97,146931
1.8573,0.1613,38.2100,81,97,146935
1.8475,0.1808,38.3000,81,97,146938
1.8915,0.1662,37.9300,81,97,146941
1.8475,0.1564,38.2400,81,97,146945
1.8328,0.1613,38.2400,81,97,146949
1.8377,0.1613,38.3000,81,97,146952
1.8328,0.1564,38.2400,81,97,146955
1.8817,0.1711,38.0500,81,97,146959
1.8280,0.1515,38.2400,81,97,146962
1.8182,0.1564,38.1500,81,97,146965
1.8084,0.1564,38.2400,81,97,146969
1.8084,0.1515,38.2400,81,97,146972
1.8817,0.1613,38.1800,81,97,146975
1.8328,0.1613,38.2100,81,97,146979
1.8524,0.1564,38.1100,81,97,146982
1.8377,0.1564,38.2700,81,97,146985
1.8426,0.1515,38.2400,81,97,146989
1.8817,0.1662,38.1800,81,97,146993
1.8475,0.1564,38.3300,81,97,146996
1.8719,0.1662,38.1800,81,97,146999
1.8328,0.1515,38.1800,81,97,147003
1.8280,0.1515,38.4000,81,97,147006
1.8524,0.1564,38.1100,81,97,147009
1.8328,0.1515,38.2700,81,97,147013
1.8671,0.1564,38.0200,81,97,147016
1.8475,0.1564,38.2400,81,97,147019
1.8524,0.1564,38.3300,81,97,147023
1.8671,0.1808,38.2100,81,97,147026
1.8622,0.1564,38.2700,81,97,147030
1.9013,0.1662,38.0200,81,97,147033
1.8475,0.1466,38.2100,81,97,147037
1.8524,0.1564,38.2700,81,97,147040
1.8524,0.1613,38.2100,81,97,147043
1.8426,0.1515,38.2400,81,97,147047
1.8915,0.1711,38.0500,81,97,147050
1.8622,0.1613,38.1800,81,97,147053
1.8475,0.1515,38.2100,81,97,147057
1.8426,0.1564,38.2400,81,97,147060
1.8377,0.1515,38.2400,81,97,147063
1.8768,0.1564,38.0500,81,97,147067
1.8524,0.1564,38.2100,81,97,147070
1.8622,0.1564,38.1500,81,97,147074
1.8671,0.1564,38.2400,81,97,147077
1.8671,0.1515,37.9600,81,97,147081
1.9110,0.1613,38.1800,81,97,147084
1.9062,0.1564,38.2400,81,97,147087
1.9501,0.1613,38.1500,81,97,147091
1.9306,0.1564,38.2400,81,97,147094
1.9404,0.1515,38.3000,81,97,147097
1.9550,0.1613,38.1800,81,97,147101
1.9453,0.1564,38.2700,81,97,147104
1.9697,0.1564,38.0800,81,97,147107
1.9404,0.1564,38.3000,81,97,147111
1.9746,0.1515,38.2700,81,97,147115
1.9941,0.1613,38.2100,81,97,147118
1.9892,0.1564,38.2400,81,97,147121
2.0332,0.1613,37.9600,81,97,147125
2.0186,0.1857,38.1500,81,97,147128
2.0039,0.1564,38.2700,81,97,147131
2.0186,0.1613,38.1800,81,97,147135
1.9795,0.1564,38.2400,81,97,147138
2.0088,0.1662,37.9600,81,97,147141
1.9306,0.1515,38.1500,81,97,147145
1.9013,0.1564,38.2400,81,97,147148
1.8964,0.1564,38.2400,81,97,147151
1.8817,0.1515,38.2400,81,97,147154
1.9404,0.2004,38.0200,81,97,147159
1.8866,0.1662,38.2100,81,97,147162
1.8768,0.1515,38.1800,81,97,147165
1.8524,0.1662,38.2400,81,97,147169
1.8328,0.1564,38.4000,81,97,147172
1.8671,0.1662,38.1800,81,97,147175
1.8328,0.1613,38.2400,81,97,147179
1.8231,0.1564,38.1100,81,97,147182
1.7937,0.1515,38.2700,81,97,147185
1.7937,0.1906,38.2700,81,97,147189
1.8573,0.1711,38.0800,81,97,147192
1.8035,0.1515,38.0800,81,97,147195
1.8280,0.1955,38.1500,81,97,147200
1.8084,0.1564,38.2100,81,97,147203
1.8133,0.1564,38.2700,81,97,147206
1.8280,0.1564,38.1500,81,97,147209
1.8182,0.1564,38.2700,81,97,147213
1.8377,0.1564,38.1500,81,97,147216
1.7937,0.1564,38.2700,81,97,147219
1.7937,0.1564,38.2700,81,97,147223
1.8231,0.1613,38.2100,81,97,147226
1.8817,0.1564,38.2700,81,97,147229
2.0039,0.1515,37.9900,81,97,147233
2.0821,0.1564,38.2400,81,97,147236
2.2434,0.1564,38.2700,81,97,147239
2.3998,0.1515,38.2400,81,97,147243
2.6002,0.1564,38.2400,81,97,147247
2.8152,0.1662,37.9600,81,97,147250
2.7566,0.1613,38.2400,81,97,147253
2.6149,0.1466,38.2100,81,97,147257
2.4242,0.1613,38.2400,81,97,147260
2.2043,0.1564,38.2700,81,97,147263
2.0919,0.1760,38.0800,81,97,147267
1.9550,0.1613,38.2400,81,97,147270
1.8817,0.1564,38.1500,81,97,147273
1.8280,0.1564,38.2400,81,97,147277
1.7937,0.1564,38.2700,81,97,147280
1.7986,0.1711,38.1500,81,97,147283
1.7546,0.1515,38.2100,81,97,147287
1.7595,0.1564,38.3000,81,97,147291
1.7302,0.1662,38.2700,81,97,147294
1.7253,0.1564,38.2700,81,97,147297
1.7351,0.1613,38.2100,81,97,147301
1.7204,0.1564,38.2700,81,97,147304
1.7449,0.1613,38.2400,81,97,147307
1.7204,0.1564,38.2400,81,97,147311
1.7302,0.1564,38.3300,81,97,147314
1.7498,0.1662,38.1500,81,97,147317
1.7302,0.1564,38.2700,81,97,147321
1.7546,0.1955,38.0200,81,97,147324
1.7400,0.1662,38.1500,81,97,147328
1.7351,0.1515,38.2700,81,97,147331
1.7644,0.1662,38.1500,81,97,147335
1.7595,0.1564,38.2700,81,97,147338
1.8133,0.1613,37.9900,81,97,147341
1.7840,0.1564,38.2100,81,97,147345
1.7840,0.1515,38.3300,81,97,147348
1.7889,0.1466,38.2400,81,97,147351
1.7840,0.1564,38.3300,81,97,147355
1.8426,0.1760,37.9600,81,97,147358
1.8084,0.1564,38.2100,81,97,147361
1.8035,0.1515,38.2100,81,97,147365
1.8133,0.1564,38.2400,81,97,147368
1.8231,0.1564,38.3000,81,97,147372
1.8671,0.1662,38.1100,81,97,147375
1.8622,0.1564,38.2400,81,97,147379
1.8573,0.1515,38.1500,81,97,147382
1.8475,0.1613,38.2700,81,97,147385
1.8524,0.1515,38.2700,81,97,147389
1.8915,0.1662,38.0800,81,97,147392
1.8768,0.1564,38.2400,81,97,147395
1.8964,0.1613,38.1500,81,97,147399
1.8671,0.1613,38.2400,81,97,147402
1.8768,0.1564,38.2700,81,97,147405
1.8964,0.1613,38.1800,81,97,147409
1.8915,0.1564,38.2700,81,97,147412
1.9306,0.1564,38.0800,81,97,147416
1.9062,0.1613,38.3000,81,97,147419
1.9110,0.1564,38.2400,81,97,147423
1.9110,0.1613,38.5200,81,97,147426
1.9110,0.1857,38.2400,81,97,147429
1.9550,0.1613,38.0200,81,97,147433
1.9208,0.1564,38.2400,81,97,147436
1.9257,0.1564,38.3000,81,97,147439
1.9404,0.1613,38.2100,81,97,147443
1.9453,0.1613,38.3000,81,97,147446
2.0137,0.1662,37.9600,81,97,147449
1.9941,0.1613,38.2100,81,97,147452
1.9990,0.1564,38.4000,81,97,147457
2.0235,0.1613,38.2400,81,97,147460
2.0186,0.1564,38.2700,81,97,147463
2.0772,0.1711,38.0500,81,97,147467
2.0381,0.1662,38.1800,81,97,147470
2.0332,0.1515,38.1800,81,97,147473
2.0332,0.1564,37.8000,81,97,147477
2.0381,0.1564,38.3300,81,97,147480
2.0919,0.2151,38.1100,81,97,147483
2.0528,0.1613,38.2400,81,97,147486
2.0674,0.1515,38.1800,81,97,147490
2.0577,0.1564,38.2100,81,97,147493
2.0674,0.1564,38.2400,81,97,147496
2.0968,0.1662,38.0800,81,97,147501
2.0723,0.1613,38.1500,81,97,147504
2.0870,0.1613,38.1100,81,97,147507
2.0528,0.1515,38.2400,81,97,147511
2.0430,0.1564,38.2700,81,97,147514
2.0577,0.1711,38.1100,81,97,147517
1.9501,0.2004,38.1500,81,97,147522
1.9159,0.1564,38.2700,81,97,147525
1.9453,0.1662,37.9900,81,97,147528
1.8719,0.1564,38.4000,81,97,147532
1.8377,0.1613,38.2700,81,97,147535
1.8133,0.1613,38.2400,81,97,147538
1.7840,0.1564,38.3000,81,97,147543
1.8280,0.1613,37.9300,81,97,147546
1.7644,0.1564,38.5500,81,97,147549
1.7595,0.1564,38.2400,81,97,147553
1.7595,0.1515,38.2400,81,97,147556
1.7498,0.1613,38.2400,81,97,147559
1.7986,0.1711,38.0800,81,97,147563
1.7644,0.1613,38.2100,81,97,147566
1.7644,0.1564,38.1500,81,97,147569
1.7498,0.1564,38.2100,81,97,147572
1.7546,0.1564,38.2700,81,97,147576
1.7937,0.1515,38.0800,81,97,147579
1.7791,0.1564,38.2400,81,97,147582
1.7889,0.1613,38.1100,81,97,147587
1.7546,0.1564,38.2100,81,97,147590
1.7595,0.1613,38.2700,81,97,147593
1.7889,0.1564,38.1800,81,97,147597
1.7937,0.1564,38.2400,81,97,147600
1.8377,0.1564,38.1100,81,97,147603
1.8133,0.1515,38.4300,81,97,147607
1.8084,0.1564,38.2700,81,97,147610
1.8084,0.1613,38.2100,81,97,147613
1.7937,0.1515,38.2400,81,97,147616
1.8280,0.1564,38.0800,81,97,147620
1.8035,0.1564,38.2700,81,97,147623
1.8084,0.1564,38.2700,81,97,147627
1.8328,0.1613,38.3600,81,97,147631
1.8182,0.1564,38.2400,81,97,147634
1.8622,0.1662,37.9600,81,97,147637
1.8426,0.1564,38.1800,81,97,147641
1.8377,0.1564,38.2700,81,97,147644
1.8475,0.1662,38.2100,81,97,147647
1.8328,0.1564,38.2700,81,97,147651
1.8768,0.1760,38.1500,81,97,147654
1.8328,0.1613,38.1500,81,97,147657
1.8280,0.1515,38.3000,81,97,147660
1.8328,0.1857,38.2400,81,97,147664
1.8377,0.1662,38.2700,81,97,147667
1.8719,0.1711,38.1100,81,97,147671
1.8328,0.1662,38.2400,81,97,147675
1.8426,0.1564,38.1500,81,97,147678
1.8280,0.1564,38.4600,81,97,147681
1.8377,0.1564,38.2700,81,97,147685
1.8622,0.1662,38.2700,81,97,147688
1.8524,0.1662,38.2400,81,97,147691
1.8768,0.1613,38.1100,81,97,147695
1.8573,0.1613,38.2400,81,97,147698
1.8622,0.1515,38.2700,81,97,147701
1.8915,0.1955,38.1800,81,97,147704
1.8622,0.1515,38.2700,81,97,147708
1.8768,0.1564,38.0500,81,97,147712
1.8719,0.1564,38.1100,81,97,147715
1.8426,0.1564,38.2400,81,97,147719
1.8768,0.1662,38.1100,81,97,147722
1.8524,0.1564,38.2700,81,97,147725
1.8915,0.1613,37.9900,81,97,147729
1.8475,0.1564,38.2400,81,97,147732
1.8475,0.1564,37.9600,81,97,147735
1.8524,0.1613,38.2700,81,97,147739
1.8475,0.1564,38.2700,81,97,147742
1.8915,0.1662,37.9000,81,97,147745
1.8524,0.1564,38.1800,81,97,147748
1.8475,0.1564,38.3000,81,97,147752
1.8524,0.1515,38.3000,81,97,147756
1.8475,0.1515,38.2700,81,97,147759
1.9013,0.1711,38.0500,81,97,147763
1.8671,0.1662,38.1500,81,97,147766
1.8622,0.1564,38.1800,81,97,147769
1.8524,0.1662,38.2400,81,97,147773
1.8524,0.1564,38.2700,81,97,147776
1.8915,0.1711,38.1100,81,97,147779
1.8671,0.1515,38.2400,81,97,147783
1.8817,0.1613,38.0800,81,97,147786
1.8768,0.1564,38.2700,81,97,147789
1.8524,0.1564,38.3000,81,97,147792
1.8622,0.1613,38.2400,81,97,147796
1.8426,0.1564,38.2400,81,97,147800
1.8719,0.1613,38.1100,81,97,147803
1.8377,0.1564,38.2400,81,97,147807
1.8426,0.1564,38.3300,81,97,147810
1.8475,0.1613,38.0800,81,97,147813
1.8426,0.1515,38.2700,81,97,147817
1.8768,0.1613,38.0500,81,97,147820
1.8622,0.1613,38.2400,81,97,147823
1.9013,0.1613,38.2400,81,97,147827
1.9013,0.1662,38.2700,81,97,147830
1.8915,0.1564,38.2700,81,97,147833
1.9453,0.1662,37.9600,81,97,147836
1.9355,0.1613,38.1500,81,97,147841
1.9306,0.1564,38.2700,81,97,147844
1.9599,0.1613,38.2700,81,97,147847
1.9501,0.1466,38.3000,81,97,147851
2.0283,0.1760,37.9900,81,97,147854
1.9501,0.1564,38.1100,81,97,147857
1.9404,0.1564,38.2100,81,97,147861
1.9795,0.1564,38.2400,81,97,147864
1.9648,0.1515,38.2700,81,97,147867
2.0186,0.1711,38.1100,81,97,147871
1.9795,0.1564,38.2400,81,97,147874
1.9844,0.1564,38.1800,81,97,147877
1.9599,0.1760,38.2400,81,97,147880
1.9501,0.1515,38.4300,81,97,147885
1.9550,0.1857,38.1800,81,97,147888
1.9062,0.1564,38.2400,81,97,147891
1.9013,0.1515,38.1100,81,97,147895
1.8573,0.1564,38.2400,81,97,147898
1.8328,0.1515,38.2700,81,97,147901
1.8622,0.1613,38.1500,81,97,147905
1.8231,0.1564,38.1800,81,97,147908
1.8328,0.1857,38.0800,81,97,147911
1.7986,0.1564,38.1500,81,97,147915
1.7889,0.1564,38.3000,81,97,147918
1.7986,0.1564,38.0800,81,97,147921
1.7693,0.1466,38.2400,81,97,147924
1.7889,0.1613,38.0200,81,97,147929
1.7595,0.1564,38.2400,81,97,147932
1.7546,0.1564,38.3000,81,97,147935
1.7693,0.1613,38.2400,81,97,147939
1.7595,0.1564,38.2400,81,97,147942
1.8035,0.1711,37.9900,81,97,147945
1.7595,0.1564,38.2100,81,97,147949
1.7644,0.1662,38.2700,81,97,147952
1.7693,0.1613,38.2700,81,97,147955
1.7546,0.1808,38.3000,81,97,147958
1.7889,0.1760,38.0200,81,97,147962
1.7351,0.1613,38.2100,81,97,147965
1.7253,0.1564,38.4000,81,97,147969
1.7400,0.1613,38.2400,81,97,147973
1.7937,0.1564,38.3300,81,97,147976
1.9208,0.1760,38.0200,81,97,147979
2.0235,0.1613,38.2100,81,97,147983
2.1652,0.1564,38.2100,81,97,147986
2.2972,0.1564,38.2700,81,97,147989
2.4878,0.1564,38.2700,81,97,147993
2.6637,0.1613,38.1500,81,97,147996
2.6393,0.1613,38.2700,81,97,147999
2.5611,0.1613,38.1100,81,97,148002
2.3412,0.1564,38.2100,81,97,148006
2.1603,0.1564,38.2700,81,97,148009
1.9795,0.1515,38.2100,81,97,148013
1.8573,0.1564,38.2400,81,97,148017
1.8280,0.1564,38.0800,81,97,148020
1.7498,0.1564,38.3000,81,97,148023
1.7155,0.1564,38.2700,81,97,148027
1.7204,0.1613,38.1500,81,97,148030
1.6764,0.1564,38.2700,81,97,148033
1.6813,0.1662,38.0200,81,97,148036
1.6373,0.1613,38.1500,81,97,148040
1.6227,0.1515,38.2700,81,97,148043
1.6325,0.1662,38.2100,81,97,148046
1.6080,0.1564,38.1800,81,97,148050
1.6422,0.1955,37.9600,81,97,148054
1.6031,0.1515,38.1500,81,97,148057
1.6129,0.1564,38.4600,81,97,148061
1.6471,0.1613,38.2400,81,97,148064
1.6276,0.1564,38.2700,81,97,148067
1.6764,0.1711,38.0200,81,97,148071
1.6422,0.1613,38.2400,81,97,148074
1.6471,0.1564,38.2400,81,97,148077
1.6471,0.1564,38.2400,81,97,148080
1.6569,0.1564,38.2700,81,97,148084
1.6960,0.1711,38.1500,81,97,148087
1.6716,0.1515,38.3000,81,97,148090
1.6862,0.1613,38.1100,81,97,148094
1.6764,0.1515,38.2700,81,97,148098
1.6813,0.1564,38.2400,81,97,148101
1.7155,0.1613,38.1100,81,97,148105
1.6911,0.1564,38.2400,81,97,148108
1.7155,0.1906,38.1500,81,97,148111
1.7009,0.1564,38.2400,81,97,148115
1.7107,0.1515,38.2700,81,97,148118
1.7351,0.1662,38.1500,81,97,148121
1.7253,0.1515,38.2400,81,97,148124
1.7546,0.1564,38.0500,81,97,148128
1.7986,0.1760,37.9600,81,97,148133
1.7595,0.1564,38.2100,81,97,148136
1.7498,0.1515,38.2400,81,97,148140
1.7498,0.1613,38.2400,81,97,148143
1.7498,0.1564,38.3000,81,97,148147
1.8182,0.1711,38.0500,81,97,148150
1.7840,0.1515,38.2400,81,97,148153
1.7937,0.1564,38.1500,81,97,148157
1.7840,0.1515,38.2400,81,97,148160
1.7840,0.1613,38.3000,81,97,148163
1.8182,0.1613,38.0800,81,97,148167
1.8035,0.1515,37.4900,81,97,148170
1.8231,0.1613,38.0800,81,97,148173
1.8133,0.1564,38.2700,81,97,148177
1.8231,0.1515,38.2700,81,97,148180
1.8475,0.1662,38.2400,81,97,148184
1.8622,0.1564,38.2700,81,97,148187
1.8768,0.1662,38.1500,81,97,148191
1.8426,0.1662,38.2400,81,97,148194
1.8573,0.1564,38.2700,81,97,148197
1.8671,0.1613,38.2100,81,97,148201
1.8671,0.1662,38.2700,81,97,148204
1.9110,0.1515,38.0500,81,97,148207
1.8915,0.1564,38.2700,81,97,148211
1.9013,0.1564,38.2700,81,97,148214
1.9208,0.1662,38.3300,81,97,148217
1.9110,0.1564,38.2400,81,97,148221
1.9501,0.1662,37.9900,81,97,148225
1.9257,0.1662,38.1800,81,97,148228
1.9159,0.1564,38.3000,81,97,148231
1.9306,0.1662,38.2100,81,97,148235
1.9159,0.1564,38.3000,81,97,148238
1.9648,0.1711,37.9900,81,97,148241
1.9208,0.1515,38.1800,81,97,148245
1.8964,0.1515,37.4600,81,97,148248
1.8817,0.1466,38.3000,81,97,148251
1.8719,0.1564,38.2700,81,97,148255
1.8866,0.1711,38.0800,81,97,148258
1.8280,0.1662,38.2100,81,97,148261
1.8035,0.1564,38.1100,81,97,148265
1.7644,0.1613,38.4000,81,97,148269
1.7400,0.1564,38.2700,81,97,148272
1.7302,0.1662,38.2100,81,97,148275
1.6911,0.1613,38.3000,81,97,148279
1.7155,0.1662,38.1500,81,97,148282
1.6471,0.1564,38.1500,81,97,148285
1.6325,0.1564,38.2400,81,97,148289
1.6422,0.1662,38.3000,81,97,148292
1.6031,0.1564,38.2700,81,97,148295
1.6031,0.1564,38.0800,81,97,148299
1.5787,0.1564,38.1500,81,97,148302
1.5738,0.1564,38.2400,81,97,148305
1.5934,0.1613,38.2400,81,97,148310
1.5836,0.1662,38.2700,81,97,148313
1.6227,0.1515,38.0200,81,97,148316
1.5934,0.1662,38.2400,81,97,148319
1.6129,0.1564,38.3000,81,97,148323
1.5934,0.1613,38.2400,81,97,148326
1.5885,0.1662,38.2400,81,97,148329
1.6422,0.1662,37.9600,81,97,148333
1.5982,0.1564,38.2400,81,97,148336
1.5934,0.1564,38.2400,81,97,148339
1.5934,0.1613,38.2400,81,97,148343
1.5836,0.1515,38.2400,81,97,148346
1.6325,0.2004,38.0500,81,97,148349
1.6178,0.1613,38.1800,81,97,148354
1.6031,0.1515,38.1500,81,97,148357
1.6471,0.1564,38.2400,81,97,148360
1.6178,0.1515,38.2700,81,97,148364
1.6520,0.1613,38.1100,81,97,148367
1.6325,0.1613,38.2400,81,97,148370
1.6471,0.1515,38.0800,81,97,148373
1.6227,0.1564,38.2700,81,97,148377
1.6276,0.1515,38.2700,81,97,148380
1.6422,0.1711,38.1800,81,97,148383
1.6422,0.1564,38.2700,81,97,148387
1.6716,0.1613,38.0800,81,97,148390
1.6569,0.1613,38.2400,81,97,148393
1.6520,0.1564,38.2700,81,97,148398
1.6569,0.1857,38.2400,81,97,148401
1.6520,0.1564,38.2400,81,97,148404
1.6764,0.1515,38.0500,81,97,148407
1.6520,0.1564,38.2100,81,97,148411
1.6520,0.1515,38.2700,81,97,148414
1.6716,0.1662,38.1800,81,97,148417
1.6471,0.1564,38.2700,81,97,148421
1.6862,0.1662,37.9900,81,97,148424
1.6667,0.1662,38.1500,81,97,148427
1.6520,0.1564,38.2700,81,97,148431
1.6569,0.1613,37.7400,81,97,148434
1.6422,0.1564,38.2400,81,97,148438
1.6862,0.1711,37.9600,81,97,148442
1.6471,0.1564,38.1500,81,97,148445
1.6422,0.1564,38.2400,81,97,148448
1.6520,0.1564,38.4600,81,97,148451
1.6520,0.1662,38.2700,81,97,148455
1.7009,0.1711,38.1100,81,97,148458
1.6618,0.1613,38.2700,81,97,148461
1.6764,0.1662,38.1500,81,97,148465
1.6618,0.1613,37.9900,81,97,148468
1.6569,0.1564,38.2700,81,97,148471
1.6862,0.1662,38.1800,81,97,148475
1.6667,0.1857,38.2400,81,97,148478
1.6960,0.1613,38.1100,81,97,148482
1.6667,0.1564,38.1500,81,97,148486
1.7058,0.1564,38.2700,81,97,148489
1.7058,0.1515,38.1500,81,97,148492
1.6813,0.1564,38.2400,81,97,148495
1.7009,0.1662,38.1100,81,97,148499
1.6618,0.1564,38.1800,81,97,148502
1.6569,0.1515,38.2700,81,97,148505
1.6813,0.1613,38.1100,81,97,148509
1.6618,0.1564,38.2700,81,97,148512
1.7009,0.1760,37.9900,81,97,148515
1.6764,0.1564,38.2700,81,97,148519
1.6764,0.1564,38.4300,81,97,148523
1.7009,0.1662,38.2400,81,97,148526
1.6667,0.1564,38.2700,81,97,148530
1.7204,0.1662,37.7400,81,97,148533
1.6911,0.1564,38.2100,81,97,148536
1.6764,0.1613,38.2700,81,97,148539
1.6764,0.1613,38.2100,81,97,148543
1.6667,0.1564,38.2700,81,97,148546
1.7253,0.1760,38.0200,81,97,148549
1.6960,0.1662,38.2100,81,97,148553
1.6911,0.1564,38.1800,81,97,148556
1.6862,0.1662,38.2400,81,97,148559
1.6911,0.1515,38.2400,81,97,148563
1.7351,0.1857,38.1100,81,97,148567
1.7253,0.1613,38.2700,81,97,148570
1.7498,0.1613,38.1100,81,97,148574
1.7449,0.1564,38.2700,81,97,148577
1.7546,0.1613,38.2400,81,97,148580
1.7889,0.1662,38.2100,81,97,148584
1.7840,0.1564,38.2100,81,97,148587
1.8182,0.1906,38.1500,81,97,148590
1.7889,0.1564,38.2700,81,97,148593
1.7840,0.1564,38.2700,81,97,148597
1.7937,0.1662,38.1800,81,97,148600
1.7986,0.1564,38.2700,81,97,148603
1.8328,0.1564,38.0800,81,97,148608
1.8426,0.1564,38.2700,81,97,148611
1.8377,0.1564,38.2700,81,97,148614
1.8524,0.1662,38.2400,81,97,148618
1.8182,0.1564,38.2700,81,97,148621
1.8328,0.1662,37.9600,81,97,148624
1.7889,0.1662,38.1800,81,97,148627
1.7546,0.1564,38.2700,81,97,148631
1.7351,0.2053,38.2100,81,97,148634
1.7155,0.1564,38.2400,81,97,148637
1.7498,0.1662,37.9600,81,97,148641
1.7302,0.1613,38.1100,81,97,148644
1.7009,0.1564,38.2100,81,97,148647
1.6960,0.1613,38.2400,81,97,148652
1.6862,0.1564,38.2700,81,97,148655
1.7155,0.1515,38.0800,81,97,148658
1.6667,0.1613,38.2100,81,97,148662
1.6667,0.1564,38.1500,81,97,148665
1.6520,0.1564,38.3300,81,97,148668
1.6471,0.1662,38.2400,81,97,148671
1.6764,0.1515,38.1800,81,97,148675
1.6569,0.1613,38.2400,81,97,148678
1.6716,0.1564,38.0800,81,97,148681
1.6373,0.1564,38.3000,81,97,148685
1.6471,0.1564,38.3000,81,97,148688
1.6716,0.1613,38.1500,81,97,148691
1.6471,0.1564,38.2400,81,97,148696
1.6960,0.1564,38.1100,81,97,148699
1.6373,0.1564,38.0800,81,97,148702
1.6373,0.1564,38.2400,81,97,148706
1.6569,0.1613,38.1100,81,97,148709
1.6716,0.1564,37.5300,81,97,148712
1.7595,0.1613,38.0200,81,97,148715
1.8231,0.1564,38.2400,81,97,148719
1.9501,0.1613,38.3000,81,97,148722
2.1163,0.1662,38.2400,81,97,148725
2.2923,0.1515,38.2700,81,97,148729
2.5660,0.1662,37.9900,81,97,148732
2.6393,0.1564,38.2400,81,97,148736
2.6197,0.1515,38.4000,81,97,148740
2.4878,0.1711,38.2400,81,97,148743
1.7009,0.1564,38.2700,81,97,148748
1.6569,0.1564,38.2700,81,97,148751
1.6764,0.1808,38.0800,81,97,148754
1.6422,0.1613,38.2400,81,97,148758
1.6373,0.1613,38.1100,81,97,148761
1.6031,0.1564,38.2700,81,97,148764
1.5738,0.1515,38.2700,81,97,148767
1.5689,0.1613,38.1800,81,97,148771
1.5591,0.1564,38.2700,81,97,148774
1.5934,0.1564,38.1500,81,97,148777
1.5787,0.1564,38.2400,81,97,148782
1.5787,0.1564,38.2700,81,97,148785
1.5885,0.1564,38.1800,81,97,148788
1.5885,0.1564,38.2400,81,97,148792
1.6276,0.1613,37.9900,81,97,148795
1.6080,0.1564,38.2700,81,97,148798
1.6178,0.1515,38.2700,81,97,148802
1.6520,0.1662,38.3000,81,97,148805
1.6422,0.1564,38.2700,81,97,148808
1.6764,0.1662,38.0500,81,97,148811
1.6764,0.1613,38.2100,81,97,148815
1.6764,0.1564,38.2700,81,97,148818
1.7009,0.1613,38.2400,81,97,148822
1.6911,0.1760,38.2400,81,97,148826
1.7351,0.1711,37.9900,81,97,148829
1.7009,0.1662,38.1500,81,97,148832
1.7204,0.1564,38.2700,81,97,148836
1.7058,0.1515,38.2700,81,97,148839
1.7155,0.1564,38.3000,81,97,148842
1.7595,0.1711,38.1800,81,97,148845
1.7302,0.1613,38.2400,81,97,148849
1.7449,0.1564,38.1500,81,97,148852
1.7400,0.1564,38.2400,81,97,148855
1.7400,0.1564,38.2700,81,97,148859
1.7644,0.1662,38.2100,81,97,148862
1.7546,0.1515,38.2400,81,97,148866
1.7791,0.1613,38.1800,81,97,148870
1.7693,0.1564,38.2700,81,97,148873
1.7791,0.1515,38.2700,81,97,148876
1.8133,0.1662,38.1500,81,97,148880
1.7937,0.1564,38.2700,81,97,148883
1.8084,0.1808,38.0800,81,97,148886
1.7889,0.1564,38.1800,81,97,148889
1.8084,0.1564,38.2700,81,97,148893
1.8280,0.1906,38.0800,81,97,148896
1.8231,0.1564,38.3000,81,97,148899
1.8573,0.1613,38.0200,81,97,148903
1.8377,0.1564,38.3000,81,97,148907
1.8524,0.1564,38.4000,81,97,148910
1.8719,0.1613,38.2100,81,97,148914
1.8719,0.1515,38.3000,81,97,148917
1.9257,0.1906,37.9900,81,97,148920
1.8817,0.1564,38.2400,81,97,148923
1.8915,0.1515,38.3300,81,97,148927
1.9159,0.1662,38.2400,81,97,148930
1.9110,0.1515,38.3300,81,97,148933
1.9795,0.1711,38.0200,81,97,148937
1.9453,0.1613,38.2100,81,97,148940
1.9404,0.1515,38.1500,81,97,148943
1.9453,0.1613,38.2400,81,97,148947
1.9599,0.1564,38.2700,81,97,148951
2.0381,0.1613,38.0500,81,97,148954
1.9795,0.1613,38.3000,81,97,148958
1.9892,0.1613,38.1500,81,97,148961
1.9746,0.1564,38.2400,81,97,148964
1.9746,0.1564,38.2700,81,97,148967
1.9941,0.1662,38.2100,81,97,148971
1.9892,0.1613,38.2400,81,97,148974
2.0039,0.1662,38.1500,81,97,148977
1.9697,0.1564,38.2700,81,97,148981
1.9990,0.1564,38.2700,81,97,148984
1.9697,0.1515,38.2100,81,97,148987
1.9501,0.1613,38.2700,81,97,148992
1.9941,0.1564,38.0800,81,97,148995
1.9208,0.1564,38.2700,81,97,148998
1.9013,0.1760,38.2700,81,97,149001
1.9355,0.1613,38.1500,81,97,149005
1.8573,0.1857,38.2400,81,97,149008
1.8671,0.1613,38.0200,81,97,149011
1.8231,0.1613,38.1800,81,97,149015
1.7889,0.1564,38.2700,81,97,149018
1.7840,0.1613,37.5300,81,97,149021
1.7449,0.1613,38.3000,81,97,149025
1.7791,0.1613,37.9600,81,97,149028
1.7107,0.1564,38.0800,81,97,149031
1.7009,0.1417,38.3600,81,97,149036
1.7009,0.1613,38.2400,81,97,149039
1.6960,0.1515,38.2700,81,97,149042
1.7400,0.1760,37.9600,81,97,149045
1.6862,0.1613,38.2100,81,97,149049
1.6911,0.1515,38.1800,81,97,149052
1.6911,0.1662,38.2400,81,97,149055
1.6960,0.1564,38.3000,81,97,149059
1.7302,0.1711,38.1100,81,97,149062
1.7400,0.1662,38.2100,81,97,149065
1.7107,0.1564,38.1100,81,97,149069
1.7009,0.1515,38.2400,81,97,149072
1.7058,0.1564,38.2700,81,97,149075
1.7449,0.1662,38.0800,81,97,149080
1.7253,0.1662,38.2100,81,97,149083
1.7449,0.1515,38.1500,81,97,149086
1.7155,0.1515,38.2400,81,97,149089
1.7302,0.1564,38.2700,81,97,149093
1.7595,0.1613,38.1500,81,97,149096
1.7644,0.1564,38.2700,81,97,149099
1.7937,0.1564,38.1500,81,97,149103
1.7644,0.1564,38.2100,81,97,149106
1.7644,0.1515,38.2400,81,97,149109
1.7742,0.1955,38.2100,81,97,149113
1.7546,0.1564,38.2400,81,97,149116
1.8084,0.1515,38.0500,81,97,149120
1.7742,0.2053,38.2700,81,97,149124
1.7889,0.1564,38.2700,81,97,149127
1.7937,0.1613,38.2400,81,97,149130
1.8084,0.1564,38.2400,81,97,149133
1.8328,0.1662,37.9900,81,97,149137
1.8133,0.1613,38.1800,81,97,149140
1.8182,0.1564,38.2400,81,97,149143
1.8084,0.1613,38.3300,81,97,149147
1.7937,0.1515,38.2400,81,97,149150
1.8328,0.1515,38.0500,81,97,149153
1.8035,0.1857,38.1800,81,97,149157
1.7986,0.1564,38.1800,81,97,149160
1.7889,0.1564,38.2400,81,97,149164
1.7889,0.1515,38.2700,81,97,149168
1.8231,0.1613,38.1500,81,97,149171
1.7986,0.1564,38.3600,81,97,149174
1.8231,0.1808,38.1500,81,97,149177
1.8035,0.1613,38.2400,81,97,149181
1.7986,0.1564,38.2400,81,97,149184
1.8182,0.1613,38.2100,81,97,149187
1.8035,0.1564,38.4300,81,97,149191
1.8377,0.1564,38.1100,81,97,149194
1.8182,0.1515,38.2400,81,97,149197
1.8182,0.1564,38.2700,81,97,149201
1.8377,0.1613,38.1500,81,97,149204
1.8231,0.1613,38.3000,81,97,149208
1.8622,0.1613,38.0200,81,97,149212
1.8426,0.1564,38.2100,81,97,149215
1.8231,0.1808,38.2700,81,97,149218
1.8328,0.1662,38.2400,81,97,149221
1.8035,0.1564,38.2400,81,97,149225
1.8426,0.1711,37.9600,81,97,149228
1.7937,0.1564,38.2100,81,97,149231
1.8084,0.1466,38.2700,81,97,149235
1.8231,0.1564,38.2400,81,97,149238
1.8182,0.1515,38.2400,81,97,149241
1.8671,0.1760,38.0200,81,97,149245
1.8182,0.1613,38.2400,81,97,149249
1.8182,0.1564,38.1800,81,97,149252
1.8133,0.1515,38.3000,81,97,149256
1.8182,0.1613,38.2700,81,97,149259
1.8622,0.1515,38.1800,81,97,149262
1.8328,0.1613,38.2400,81,97,149265
1.8768,0.1564,38.1800,81,97,149269
1.8280,0.1564,38.2400,81,97,149272
1.8280,0.1613,38.2700,81,97,149275
1.8573,0.1662,38.1100,81,97,149279
1.8328,0.1564,38.2400,81,97,149282
1.8426,0.1662,38.1500,81,97,149285
1.8182,0.2004,38.2400,81,97,149289
1.8377,0.1613,38.2700,81,97,149293
1.8573,0.1564,38.1500,81,97,149296
1.8671,0.1564,38.2400,81,97,149300
1.9110,0.1515,38.0500,81,97,149303
1.8915,0.1564,38.2700,81,97,149306
1.8866,0.1564,38.2700,81,97,149310
1.9062,0.1613,38.2700,81,97,149313
1.8964,0.1857,38.2400,81,97,149316
1.9453,0.1613,38.0200,81,97,149319
1.9013,0.1564,38.2100,81,97,149323
1.9062,0.1564,38.2700,81,97,149326
1.9257,0.1613,38.3000,81,97,149329
1.9208,0.1564,38.2400,81,97,149334
1.9941,0.1515,37.9600,81,97,149337
1.9697,0.1857,38.1800,81,97,149340
1.9599,0.1515,38.2400,81,97,149344
1.9697,0.1613,38.2400,81,97,149347
1.9599,0.1711,38.2400,81,97,149350
2.0039,0.1662,38.0800,81,97,149354
1.8719,0.1613,38.2100,81,97,149358
1.8524,0.1613,38.2400,81,97,149362
1.9013,0.1662,38.1100,81,97,149365
1.8524,0.1564,38.3300,81,97,149368
1.8768,0.1564,38.2700,81,97,149371
1.8426,0.1515,38.1800,81,97,149376
1.8182,0.1515,38.2700,81,97,149379
1.8377,0.1564,38.0800,81,97,149382
1.7937,0.1564,38.2700,81,97,149386
1.7791,0.1564,38.2700,81,97,149389
1.7840,0.1613,38.1800,81,97,149392
1.7644,0.1613,38.3000,81,97,149396
1.8084,0.1613,37.9900,81,97,149399
1.7889,0.1613,38.2400,81,97,149402
1.7742,0.1613,38.2700,81,97,149406
1.7889,0.1613,38.3000,81,97,149409
1.7840,0.1613,38.2700,81,97,149412
1.8377,0.1711,37.9600,81,97,149415
1.8035,0.1564,38.1500,81,97,149420
1.7840,0.1466,38.2400,81,97,149423
1.7742,0.1564,38.2700,81,97,149426
1.7742,0.1515,38.2400,81,97,149430
1.8622,0.1613,38.1100,81,97,149433
1.8817,0.1564,38.2700,81,97,149436
1.9941,0.1564,38.1800,81,97,149440
2.1114,0.1515,38.3000,81,97,149443
2.2776,0.1613,38.2700,81,97,149446
2.4878,0.1515,38.2100,81,97,149450
2.6637,0.1906,38.2400,81,97,149453
2.8006,0.1564,38.1100,81,97,149456
2.7175,0.1515,37.7100,81,97,149459
2.5562,0.1515,38.3000,81,97,149464
2.3851,0.1662,38.1100,81,97,149467
2.1408,0.1564,38.2100,81,97,149470
1.9990,0.1564,38.0800,81,97,149474
1.8768,0.1564,38.1800,81,97,149477
1.8182,0.1564,37.9000,81,97,149480
1.8084,0.1613,38.1100,81,97,149484
1.7742,0.1564,38.2400,81,97,149487
1.7840,0.1613,38.0200,81,97,149490
1.7302,0.1564,38.2700,81,97,149494
1.7107,0.1564,38.2700,81,97,149497
1.7058,0.1711,38.2100,81,97,149500
1.6813,0.1564,38.2400,81,97,149504
1.7302,0.1662,37.9900,81,97,149508
1.6911,0.1564,38.2100,81,97,149511
1.6862,0.1564,38.2400,81,97,149514
1.6911,0.1613,38.2700,81,97,149518
1.6960,0.1564,38.3000,81,97,149521
1.7595,0.1711,38.0200,81,97,149524
1.7302,0.1564,38.2400,81,97,149528
1.7400,0.1564,38.1800,81,97,149531
1.7351,0.1662,38.2700,81,97,149534
1.7400,0.1564,38.2400,81,97,149538
1.7840,0.1662,38.0800,81,97,149541
1.7791,0.1662,38.2400,81,97,149544
1.7986,0.1564,38.1100,81,97,149548
1.7840,0.1613,38.2700,81,97,149552
1.7889,0.1564,38.2700,81,97,149555
1.8133,0.1613,38.1500,81,97,149558
1.7937,0.1564,38.2400,81,97,149562
1.8231,0.1613,38.1500,81,97,149565
1.7937,0.1564,38.2700,81,97,149568
1.8035,0.1515,38.2700,81,97,149572
1.8182,0.1564,38.2400,81,97,149575
1.8084,0.1662,38.2400,81,97,149578
1.8377,0.1564,38.0800,81,97,149582
1.8182,0.1613,38.3000,81,97,149585
1.8377,0.1564,38.2400,81,97,149588
1.8475,0.1613,38.2400,81,97,149592
1.8622,0.1564,38.2700,81,97,149596
1.8768,0.1613,37.9900,81,97,149599
1.8622,0.1613,38.2700,81,97,149602
1.8524,0.1760,38.2700,81,97,149606
1.8719,0.1613,38.2700,81,97,149609
1.8622,0.1662,38.3000,81,97,149612
1.9159,0.1662,37.9600,81,97,149616
1.8817,0.1711,38.1100,81,97,149619
1.8964,0.1564,38.2100,81,97,149622
1.9110,0.1564,38.3000,81,97,149626
1.9208,0.1613,38.2100,81,97,149629
1.9795,0.1760,38.0500,81,97,149633
1.9306,0.1515,38.2400,81,97,149636
1.9355,0.1564,38.1500,81,97,149640
1.9404,0.1564,38.2700,81,97,149643
1.9501,0.1564,38.2700,81,97,149646
1.9892,0.1711,38.1800,81,97,149650
1.9697,0.1564,38.2400,81,97,149653
2.0039,0.1564,38.0800,81,97,149656
1.9990,0.1564,38.2400,81,97,149660
1.9990,0.1564,38.2700,81,97,149663
2.0283,0.1662,37.8000,81,97,149666
2.0088,0.1564,38.3000,81,97,149669
2.0381,0.1662,38.1500,81,97,149673
2.0137,0.1564,38.2400,81,97,149677
2.0186,0.1564,38.2700,81,97,149680
2.0381,0.1613,38.1500,81,97,149684
2.0332,0.1564,38.2700,81,97,149687
2.0626,0.1564,38.0800,81,97,149690
2.0381,0.1760,38.2400,81,97,149694
2.0528,0.1564,38.2400,81,97,149697
2.0577,0.1515,38.2100,81,97,149700
2.0479,0.1564,38.4000,81,97,149703
2.0870,0.1613,38.0200,81,97,149707
2.0381,0.1564,38.2400,81,97,149710
2.0479,0.1564,38.2700,81,97,149713
2.0577,0.1613,38.1800,81,97,149718
2.0381,0.1564,38.2700,81,97,149721
2.0870,0.1662,37.9600,81,97,149724
2.0430,0.1613,38.2100,81,97,149727
1.9990,0.1760,38.2700,81,97,149731
1.9795,0.1613,38.2400,81,97,149734
1.9453,0.1515,38.2400,81,97,149737
1.9844,0.1760,38.0200,81,97,149741
1.9257,0.1662,38.1800,81,97,149744
1.8964,0.1564,38.1800,81,97,149747
1.8671,0.1564,38.2400,81,97,149751
1.8377,0.1564,38.2700,81,97,149754
1.8426,0.1662,38.1100,81,97,149757
1.7937,0.1564,38.3300,81,97,149762
1.7986,0.1613,38.1500,81,97,149765
1.7644,0.1564,38.2400,81,97,149768
1.7498,0.1613,38.2700,81,97,149772
1.7546,0.1613,38.2700,81,97,149775
1.7400,0.1515,38.1100,81,97,149778
1.7644,0.1711,38.1100,81,97,149781
1.7400,0.1564,38.2700,81,97,149785
1.7351,0.1613,38.2700,81,97,149788
1.7644,0.1613,38.1100,81,97,149791
1.7546,0.1564,38.2700,81,97,149795
1.7791,0.1613,38.0500,81,97,149798
1.7742,0.1613,38.2700,81,97,149801
1.7791,0.1564,38.2400,81,97,149806
1.7986,0.1662,38.1100,81,97,149809
1.7742,0.1613,38.2700,81,97,149812
1.8084,0.1613,37.9900,81,97,149816
1.7693,0.1515,38.2400,81,97,149819
1.7693,0.1564,38.2400,81,97,149822
1.7840,0.1564,38.2400,81,97,149825
1.7889,0.1515,38.3300,81,97,149829
1.8377,0.1662,37.9600,81,97,149832
1.7937,0.1564,38.2400,81,97,149835
1.7986,0.1466,38.2100,81,97,149839
1.8280,0.1613,38.2100,81,97,149842
1.8231,0.1564,38.2700,81,97,149846
1.8719,0.1711,38.0800,81,97,149850
1.8377,0.1613,38.2100,81,97,149853
1.8328,0.1564,38.1500,81,97,149856
1.8231,0.1564,38.2100,81,97,149860
1.8426,0.1564,38.2700,81,97,149863
1.8719,0.1662,38.0800,81,97,149866
1.8475,0.1808,38.2400,81,97,149869
1.8768,0.1662,38.1100,81,97,149873
1.8280,0.1515,38.1500,81,97,149876
1.8280,0.1564,38.3000,81,97,149879
1.8475,0.1564,38.1800,81,97,149883
1.8377,0.1515,38.3000,81,97,149886
1.8671,0.1466,38.1100,81,97,149890
1.8377,0.1515,38.2400,81,97,149894
1.8377,0.1466,38.3000,81,97,149897
1.8573,0.1564,38.2100,81,97,149900
1.8622,0.1515,38.0800,81,97,149904
1.8915,0.1564,38.0500,81,97,149907
1.8671,0.1515,38.2700,81,97,149910
1.8671,0.1515,38.2400,81,97,149913
1.8866,0.1613,38.1800,81,97,149917
1.8524,0.1515,38.2700,81,97,149920
1.8964,0.1613,37.9900,81,97,149923
1.8622,0.1515,38.1800,81,97,149927
1.8377,0.1613,38.3000,81,97,149931
1.8426,0.1515,38.2400,81,97,149934
1.8328,0.2053,38.2700,81,97,149938
1.9062,0.1760,38.0200,81,97,149941
1.8622,0.1662,38.1800,81,97,149944
1.8573,0.1564,38.1800,81,97,149948
1.8573,0.1564,38.2400,81,97,149951
1.8524,0.1515,37.5600,81,97,149954
1.8915,0.1662,38.1100,81,97,149957
1.8671,0.1515,38.3000,81,97,149961
1.8915,0.1515,38.1100,81,97,149964
1.8768,0.1564,38.2700,81,97,149967
1.8524,0.1515,38.2700,81,97,149972
1.8622,0.1515,38.3000,81,97,149976
1.8915,0.1613,38.1100,81,97,149980
1.8719,0.1515,38.2100,81,97,149983
1.9013,0.1613,38.0200,81,97,149986
1.8768,0.1613,38.1500,81,97,149990
1.8622,0.1515,38.2700,81,97,149993
1.8817,0.1613,38.2100,81,97,149996
1.8573,0.1515,38.2100,81,97,150000
1.9159,0.1613,37.9600,81,97,150003
1.8622,0.1564,38.0800,81,97,150006
1.8622,0.1857,38.2400,81,97,150010
1.8768,0.1564,38.2700,81,97,150013
1.8817,0.1515,38.4000,81,97,150017
1.9550,0.1760,38.0500,81,97,150020
1.9257,0.1564,38.2700,81,97,150024
1.9404,0.1515,38.2100,81,97,150027
1.9404,0.1662,38.2400,81,97,150030
1.9550,0.1515,38.2400,81,97,150034
1.9990,0.1613,38.1500,81,97,150037
1.9746,0.1515,38.2400,81,97,150040
1.9844,0.1808,38.1100,81,97,150044
1.9697,0.1564,38.2700,81,97,150047
1.9844,0.1515,38.3000,81,97,150050
2.0332,0.1662,38.1100,81,97,150054
2.0088,0.1564,38.2400,81,97,150057
2.0381,0.1613,38.1100,81,97,150061
2.0039,0.1515,38.2400,81,97,150064
2.0088,0.1564,38.2700,81,97,150068
2.0039,0.1564,38.1800,81,97,150071
1.9746,0.1515,38.2700,81,97,150074
1.9795,0.1564,38.0800,81,97,150078
1.9257,0.1515,38.1800,81,97,150081
1.9062,0.1564,38.2700,81,97,150084
1.9062,0.1515,38.2100,81,97,150088
1.8915,0.1515,38.2400,81,97,150091
1.9306,0.1564,37.9900,81,97,150094
1.8964,0.1515,38.2700,81,97,150097
1.8866,0.1515,38.2400,81,97,150102
1.8768,0.1564,38.2400,81,97,150105
1.8475,0.1564,38.2400,81,97,150108
1.8817,0.1613,37.9300,81,97,150112
1.8377,0.1564,38.3600,81,97,150115
1.8182,0.1564,38.3000,81,97,150118
1.8231,0.1515,38.2100,81,97,150122
1.8182,0.1808,38.2400,81,97,150125
1.8719,0.1613,38.0800,81,97,150128
1.8475,0.1564,38.1800,81,97,150132
1.8719,0.1564,38.1500,81,97,150135
1.8328,0.1564,38.2700,81,97,150138
1.8328,0.1906,38.2400,81,97,150141
1.8719,0.1613,38.1500,81,97,150146
1.8426,0.1808,38.2400,81,97,150149
1.8622,0.1613,38.0800,81,97,150152
1.8231,0.1515,38.2400,81,97,150156
1.8084,0.1564,38.2700,81,97,150159
1.8328,0.1564,38.2100,81,97,150162
1.8671,0.1564,38.3600,81,97,150166
1.9795,0.1564,38.1800,81,97,150169
2.0577,0.1515,38.2700,81,97,150172
2.1945,0.1515,38.2700,81,97,150176
2.3754,0.1613,38.1800,81,97,150179
2.5415,0.1711,38.3000,81,97,150182
2.7810,0.1564,38.0200,81,97,150185
2.7957,0.1515,38.2100,81,97,150190
2.6784,0.1515,38.2400,81,97,150193
2.5269,0.1613,38.1800,81,97,150196
2.2825,0.1515,38.2700,81,97,150200
2.1505,0.1662,37.9600,81,97,150203
1.9795,0.1564,38.1800,81,97,150206
1.9110,0.1515,38.2700,81,97,150210
1.8768,0.1564,38.2400,81,97,150213
1.8377,0.1515,38.0500,81,97,150216
1.8622,0.2102,37.9900,81,97,150220
1.7840,0.1564,38.2100,81,97,150223
1.7644,0.1515,38.1800,81,97,150226
1.7546,0.1564,38.2400,81,97,150230
1.7449,0.1515,38.3600,81,97,150234
1.7791,0.1711,38.1500,81,97,150237
1.7449,0.1564,38.4600,81,97,150240
1.7546,0.1613,38.1500,81,97,150244
1.7400,0.1564,38.1500,81,97,150247
1.7498,0.1466,38.2400,81,97,150250
1.7889,0.1613,38.0800,81,97,150254
1.7693,0.1564,38.2400,81,97,150257
1.8035,0.1662,38.1500,81,97,150260
1.7742,0.1515,38.2400,81,97,150264
1.7693,0.1662,38.2100,81,97,150267
1.7791,0.1564,38.1500,81,97,150270
1.7644,0.1808,38.2700,81,97,150275
1.7986,0.1564,38.0500,81,97,150278
1.7693,0.1515,38.2400,81,97,150281
1.7742,0.1906,38.2400,81,97,150284
1.7889,0.1564,38.2100,81,97,150288
1.7889,0.1564,38.4300,81,97,150291
1.8426,0.1906,37.9900,81,97,150294
1.8182,0.1515,38.2400,81,97,150298
1.8328,0.1515,38.2400,81,97,150301
1.8475,0.1564,38.2400,81,97,150304
1.8426,0.1564,38.2700,81,97,150308
1.9110,0.1613,37.9600,81,97,150311
1.8768,0.1613,38.1800,81,97,150315
1.8719,0.1515,38.2400,81,97,150318
1.8768,0.1564,38.3300,81,97,150322
1.8768,0.1515,38.2400,81,97,150325
1.9306,0.1613,38.0500,81,97,150328
1.9062,0.1613,38.0800,81,97,150332
1.9062,0.1906,38.1500,81,97,150335
1.9062,0.1564,38.2700,81,97,150338
1.9062,0.1564,38.2700,81,97,150342
1.9404,0.1662,38.1500,81,97,150345
1.9306,0.1564,38.2400,81,97,150348
1.9550,0.1515,37.9300,81,97,150352
1.9355,0.1662,38.2400,81,97,150355
1.9404,0.1515,38.4000,81,97,150359
1.9599,0.1515,38.1800,81,97,150362
1.9501,0.1564,38.2400,81,97,150366
1.9892,0.1515,38.3000,81,97,150369
1.9795,0.1564,38.2400,81,97,150372
1.9697,0.1515,38.3300,81,97,150376
1.9844,0.1662,38.1800,81,97,150379
1.9648,0.1515,38.2400,81,97,150382
2.0039,0.1662,38.0200,81,97,150386
1.9990,0.1564,38.1100,81,97,150389
2.0088,0.1564,38.2700,81,97,150392
2.0528,0.1662,38.0800,81,97,150396
2.0430,0.1515,38.2400,81,97,150400
2.0968,0.1613,38.0200,81,97,150403
2.0626,0.1515,38.2100,81,97,150406
2.0674,0.1515,38.2100,81,97,150410
2.1114,0.1564,38.2400,81,97,150413
2.0772,0.1564,38.2700,81,97,150416
2.1359,0.1662,37.9600,81,97,150420
2.0821,0.1564,38.1500,81,97,150423
2.0870,0.1515,38.2400,81,97,150426
2.0919,0.1906,38.2400,81,97,150430
2.0919,0.1564,38.2700,81,97,150433
2.1457,0.1711,38.0800,81,97,150436
2.0968,0.1515,38.2100,81,97,150439
2.0870,0.1564,38.1500,81,97,150444
2.0723,0.1564,38.1100,81,97,150447
2.0723,0.1857,38.3000,81,97,150450
2.1114,0.1613,38.0500,81,97,150454
2.0626,0.1613,38.2700,81,97,150457
2.0674,0.1613,38.0800,81,97,150460
2.0088,0.1564,38.2700,81,97,150464
1.9795,0.1564,38.2700,81,97,150467
1.9746,0.1808,38.2400,81,97,150470
1.9550,0.1564,38.2700,81,97,150473
1.9453,0.1613,38.1800,81,97,150477
1.8866,0.1515,38.2400,81,97,150480
1.8573,0.1564,38.3300,81,97,150483
1.8475,0.1564,38.1500,81,97,150488
1.8280,0.1613,38.2400,81,97,150491
1.8377,0.1564,38.0800,81,97,150494
1.8035,0.1613,38.2700,81,97,150498
1.7937,0.1564,38.2400,81,97,150501
1.8133,0.1662,38.2100,81,97,150504
1.7937,0.1564,38.2700,81,97,150508
1.8133,0.1613,37.9900,81,97,150511
1.7889,0.1662,38.1800,81,97,150514
1.7693,0.1564,38.2700,81,97,150517
1.7742,0.1613,38.1800,81,97,150521
1.7840,0.1564,38.2400,81,97,150524
1.8182,0.1515,37.9900,81,97,150528
1.8182,0.1564,38.1500,81,97,150532
1.7937,0.1515,38.2400,81,97,150535
1.8035,0.1564,38.2100,81,97,150538
1.8084,0.1564,38.2700,81,97,150542
1.8524,0.1711,38.0800,81,97,150545
1.8035,0.1564,37.7100,81,97,150548
1.8182,0.1515,38.1500,81,97,150552
1.8084,0.1564,38.2400,81,97,150555
1.8035,0.1564,38.2700,81,97,150558
1.8622,0.1662,38.1800,81,97,150561
1.8231,0.1515,38.2700,81,97,150565
1.8475,0.1760,38.0800,81,97,150568
1.8328,0.1515,38.2700,81,97,150572
1.8377,0.1515,38.3300,81,97,150576
1.8671,0.1564,38.0800,81,97,150579
1.8964,0.1613,38.1800,81,97,150584
1.8573,0.1564,38.2700,81,97,150587
1.9013,0.1613,37.9600,81,97,150590
1.8671,0.1564,38.1800,81,97,150594
1.8622,0.1515,38.3300,81,97,150597
1.8671,0.1564,38.2100,81,97,150600
1.8524,0.1515,38.2400,81,97,150604
1.9110,0.1711,38.0500,81,97,150607
1.8622,0.1564,38.2100,81,97,150610
1.8622,0.1515,38.1500,81,97,150614
1.8671,0.1564,38.2700,81,97,150618
1.8768,0.1515,37.9600,81,97,150621
1.9208,0.1711,38.0800,81,97,150624
1.8768,0.1613,38.2100,81,97,150628
1.8768,0.1515,38.1500,81,97,150631
1.8671,0.1564,38.3000,81,97,150634
1.8622,0.1515,38.2700,81,97,150638
1.8964,0.1613,38.0200,81,97,150641
1.8719,0.1515,38.2400,81,97,150644
1.8915,0.1613,38.1100,81,97,150648
1.8671,0.1564,38.2400,81,97,150651
1.8719,0.1515,38.1100,81,97,150654
1.8915,0.1564,38.1500,81,97,150659
1.8719,0.1515,37.6200,81,97,150662
1.8915,0.1760,38.0800,81,97,150665
1.8573,0.1564,38.2400,81,97,150668
1.8671,0.1515,38.3000,81,97,150672
1.8817,0.1613,38.1800,81,97,150675
1.8671,0.1564,38.2400,81,97,150678
1.9013,0.1613,38.0200,81,97,150682
1.8622,0.1564,38.2400,81,97,150685
1.8622,0.1515,38.2700,81,97,150688
1.8719,0.1955,38.2100,81,97,150692
1.8622,0.1515,38.3600,81,97,150695
1.9110,0.1613,37.9300,81,97,150699
1.8817,0.1564,38.2400,81,97,150702
1.8622,0.1515,38.3000,81,97,150706
1.8622,0.1564,38.2400,81,97,150709
1.8622,0.1564,38.2700,81,97,150712
1.9257,0.1662,38.0500,81,97,150716
1.8915,0.1515,38.1800,81,97,150719
1.8866,0.1564,38.1500,81,97,150722
1.9110,0.1613,38.2400,81,97,150726
1.8719,0.1515,38.2700,81,97,150729
1.9062,0.1857,38.1500,81,97,150732
1.8866,0.1515,38.2400,81,97,150736
1.9159,0.1564,38.2700,81,97,150739
1.8915,0.1613,38.2700,81,97,150743
1.8866,0.1515,38.3000,81,97,150747
1.9355,0.1857,38.1800,81,97,150750
1.8817,0.1515,38.2400,81,97,150753
1.9257,0.1613,38.1500,81,97,150756
1.9159,0.1564,38.2700,81,97,150760
1.9355,0.1515,38.2400,81,97,150763
1.9844,0.1613,38.1500,81,97,150766
1.9453,0.1711,38.2700,81,97,150770
1.9990,0.1564,38.0200,81,97,150773
1.9746,0.1564,38.1100,81,97,150776
1.9697,0.1564,38.2700,81,97,150780
1.9892,0.1515,38.1800,81,97,150784
1.9697,0.1515,38.2400,81,97,150787
2.0381,0.1613,37.9900,81,97,150791
1.9941,0.1515,38.2100,81,97,150794
2.0137,0.1760,38.3000,81,97,150797
2.0577,0.1564,38.2400,81,97,150800
2.0186,0.1564,38.2700,81,97,150804
2.0626,0.1711,37.9900,81,97,150807
1.9941,0.1564,38.2100,81,97,150810
1.9746,0.1564,38.1800,81,97,150814
1.9501,0.1466,38.2400,81,97,150817
1.9306,0.1515,38.2100,81,97,150820
1.9550,0.1857,38.0800,81,97,150824
1.9355,0.1564,38.2100,81,97,150828
1.9013,0.1564,38.1500,81,97,150831
1.8719,0.1564,38.2700,81,97,150835
1.8719,0.1564,38.2700,81,97,150838
1.9062,0.1662,38.1100,81,97,150841
1.8671,0.1564,38.2100,81,97,150844
1.8671,0.1613,38.0800,81,97,150848
1.8231,0.1564,38.2700,81,97,150851
1.8133,0.1515,38.2700,81,97,150854
1.8280,0.1515,38.1100,81,97,150858
1.8133,0.1613,38.2400,81,97,150861
1.8475,0.1515,38.1100,81,97,150864
1.8182,0.1466,38.2400,81,97,150868
1.8182,0.1515,38.2700,81,97,150872
1.8231,0.1906,38.1800,81,97,150875
1.8182,0.1564,38.2700,81,97,150879
1.8573,0.1515,38.0200,81,97,150882
1.8084,0.1417,38.2400,81,97,150885
1.8182,0.1515,38.2700,81,97,150888
1.8133,0.1662,38.2400,81,97,150892
1.7986,0.1564,38.2700,81,97,150895
1.8622,0.1613,37.9300,81,97,150898
1.8622,0.1613,38.1800,81,97,150902
1.9257,0.1466,38.1800,81,97,150905
2.0332,0.1564,38.2400,81,97,150908
2.1554,0.1564,38.3300,81,97,150913
2.3705,0.1955,38.0500,81,97,150916
2.5269,0.1613,38.2400,81,97,150919
2.7077,0.1515,38.2400,81,97,150923
2.7615,0.1564,38.3000,81,97,150926
2.6882,0.1564,38.2700,81,97,150929
2.5660,0.1662,38.1100,81,97,150932
2.3265,0.1564,38.2700,81,97,150936
2.1799,0.1613,38.1100,81,97,150939
1.9892,0.1515,38.2700,81,97,150942
1.9257,0.1564,38.2400,81,97,150946
1.8768,0.1515,38.2100,81,97,150949
1.8280,0.1564,38.2400,81,97,150952
1.8280,0.1613,38.1500,81,97,150957
1.7644,0.1564,38.1100,81,97,150960
1.7400,0.1613,38.2700,81,97,150963
1.7449,0.1515,38.1800,81,97,150967
1.7155,0.1613,38.2400,81,97,150970
1.7351,0.1515,38.0500,81,97,150973
1.7155,0.1613,38.1500,81,97,150976
1.7253,0.1564,38.2700,81,97,150980
1.7449,0.1662,38.1500,81,97,150983
1.7302,0.1564,38.2400,81,97,150986
1.7693,0.1613,37.9900,81,97,150990
1.7351,0.1564,38.1500,81,97,150993
1.7400,0.1564,38.3300,81,97,150996
1.7498,0.1515,38.1100,81,97,151001
1.7546,0.1613,38.2400,81,97,151004
1.8133,0.1711,37.9900,81,97,151007
1.7840,0.1613,38.2100,81,97,151011
1.7889,0.1564,38.2100,81,97,151014
1.7889,0.1564,38.2700,81,97,151017
1.7840,0.1564,38.2400,81,97,151020
1.8280,0.1711,38.1100,81,97,151024
1.7937,0.1515,38.2400,81,97,151027
1.8084,0.1564,38.1500,81,97,151030
1.8035,0.1564,38.2700,81,97,151034
1.8426,0.1564,38.2400,81,97,151037
1.8426,0.1613,38.1100,81,97,151041
1.8231,0.1564,38.2700,81,97,151045
1.8328,0.1515,38.1100,81,97,151048
1.8133,0.1515,38.2400,81,97,151051
1.8328,0.1564,38.2400,81,97,151055
1.8475,0.1564,38.1100,81,97,151058
1.8426,0.1564,38.2700,81,97,151061
1.8768,0.1564,38.0800,81,97,151064
1.8524,0.1564,38.3000,81,97,151068
1.8573,0.1760,38.2700,81,97,151071
1.8768,0.1564,38.2400,81,97,151074
1.8817,0.1564,38.2400,81,97,151078
1.9306,0.1613,38.0200,81,97,151081
1.9013,0.1515,38.2400,81,97,151085
1.9110,0.1515,38.1100,81,97,151089
1.9501,0.1613,38.2100,81,97,151092
1.9208,0.1564,38.2400,81,97,151095
1.9795,0.1662,37.9300,81,97,151099
1.9550,0.1613,38.2100,81,97,151102
1.9453,0.1564,38.2400,81,97,151105
1.9599,0.1515,38.2400,81,97,151108
1.9501,0.1564,38.2400,81,97,151112
2.0088,0.1760,38.0500,81,97,151115
1.9746,0.1613,38.1800,81,97,151118
1.9697,0.1564,38.2100,81,97,151122
1.9697,0.1564,38.2400,81,97,151126
1.9795,0.1564,38.2700,81,97,151129
2.0332,0.1662,38.0800,81,97,151133
2.0137,0.1613,38.2400,81,97,151136
2.0381,0.1564,38.1100,81,97,151139
2.0235,0.1564,38.2400,81,97,151142
2.0283,0.1564,38.2700,81,97,151146
2.0577,0.1613,38.2100,81,97,151149
2.0430,0.1564,38.2400,81,97,151152
2.0723,0.1613,38.1100,81,97,151156
2.0430,0.1564,38.2400,81,97,151159
2.0479,0.1515,38.2400,81,97,151162
2.0821,0.1613,38.1800,81,97,151166
2.0577,0.1515,38.2700,81,97,151170
2.0821,0.1564,38.1100,81,97,151173
2.0674,0.1564,38.1800,81,97,151177
2.0674,0.1564,38.2700,81,97,151180
2.0870,0.1662,38.1100,81,97,151183
2.0626,0.1564,38.2400,81,97,151186
2.0968,0.1613,38.0200,81,97,151190
1.9892,0.1711,38.0200,81,97,151194
1.9208,0.1564,38.1800,81,97,151198
1.8915,0.1808,38.2400,81,97,151201
1.8768,0.1613,38.2400,81,97,151204
1.8475,0.1515,38.2700,81,97,151208
1.8671,0.1711,38.0800,81,97,151212
1.8133,0.1613,38.2100,81,97,151215
1.7937,0.1564,38.1500,81,97,151219
1.7644,0.1515,38.3000,81,97,151222
1.7546,0.1515,38.2700,81,97,151225
1.7986,0.1662,38.0800,81,97,151228
1.7595,0.1564,37.5900,81,97,151232
1.7742,0.1564,38.0800,81,97,151235
1.7449,0.1613,38.2700,81,97,151238
1.7400,0.1564,37.8700,81,97,151242
1.7546,0.1564,38.1800,81,97,151245
1.7498,0.1564,38.2400,81,97,151248
1.7742,0.1564,38.1100,81,97,151252
1.7449,0.1564,38.2400,81,97,151256
1.7546,0.1515,38.2700,81,97,151259
1.7742,0.1564,38.1800,81,97,151263
1.7693,0.1564,38.2400,81,97,151266
1.8084,0.1613,38.0500,81,97,151269
1.7791,0.1662,38.2400,81,97,151272
1.7840,0.1564,38.2700,81,97,151276
1.8035,0.1662,38.3600,81,97,151279
1.7840,0.1564,38.2700,81,97,151282
1.8377,0.1662,37.9900,81,97,151286
1.8182,0.1515,38.1100,81,97,151289
1.8133,0.1564,38.2700,81,97,151292
1.8133,0.1466,38.2100,81,97,151297
1.7986,0.1564,38.2700,81,97,151300
1.8475,0.1760,38.0200,81,97,151303
1.8133,0.1613,38.1800,81,97,151307
1.8084,0.1515,38.1800,81,97,151310
1.8035,0.1564,38.2700,81,97,151313
1.7986,0.1564,38.2400,81,97,151316
1.8328,0.1662,38.1100,81,97,151320
1.8084,0.1613,38.2400,81,97,151323
1.8231,0.1515,38.1100,81,97,151326
1.8231,0.1564,38.2400,81,97,151330
1.8231,0.1564,38.2400,81,97,151333
1.8475,0.1662,38.2100,81,97,151336
1.8377,0.1564,38.2400,81,97,151341
1.8622,0.1515,38.0200,81,97,151344
1.8524,0.1662,38.2700,81,97,151347
1.8377,0.1515,38.2700,81,97,151351
1.8622,0.1662,38.1100,81,97,151354
1.8377,0.1515,38.2700,81,97,151357
1.8622,0.1564,38.0200,81,97,151361
1.8377,0.1564,38.1500,81,97,151364
1.8328,0.1515,38.2700,81,97,151367
1.8671,0.1613,38.1500,81,97,151370
1.8328,0.1564,38.2400,81,97,151374
1.8768,0.1613,37.9900,81,97,151377
1.8426,0.1564,38.1800,81,97,151380
1.8426,0.1515,38.2700,81,97,151385
1.8475,0.1564,38.2400,81,97,151388
1.8426,0.1564,38.2700,81,97,151391
1.8915,0.1711,37.9600,81,97,151395
1.8475,0.1564,38.2100,81,97,151398
1.8426,0.1515,38.2700,81,97,151401
1.8671,0.1613,38.2400,81,97,151405
1.8377,0.1564,38.2100,81,97,151408
1.8817,0.1711,38.1100,81,97,151411
1.8475,0.1613,38.2100,81,97,151414
1.8475,0.1613,38.1100,81,97,151418
1.8231,0.1564,38.2400,81,97,151421
1.8280,0.1662,38.2700,81,97,151425
1.8964,0.1662,38.0500,81,97,151429
1.8426,0.1613,37.4600,81,97,151432
1.8671,0.1662,38.1100,81,97,151435
1.8377,0.1564,38.2400,81,97,151439
1.8426,0.1515,38.4300,81,97,151442
1.8622,0.1662,38.1800,81,97,151445
1.8524,0.1515,38.2400,81,97,151449
1.8817,0.1564,38.0800,81,97,151452
1.8671,0.1564,38.2400,81,97,151455
1.8622,0.1515,38.3000,81,97,151458
1.8671,0.1564,38.1800,81,97,151462
1.8426,0.1564,38.2700,81,97,151465
1.8866,0.1613,37.6800,81,97,151469
1.8866,0.1564,38.2100,81,97,151473
1.8573,0.1564,38.2400,81,97,151476
1.8671,0.1613,38.2100,81,97,151479
1.8475,0.1515,38.2700,81,97,151483
1.8915,0.2004,37.9900,81,97,151486
1.8817,0.1613,38.1800,81,97,151489
1.8719,0.1515,38.2400,81,97,151493
1.8964,0.1613,38.2100,81,97,151496
1.8915,0.1515,38.2700,81,97,151499
1.9648,0.1808,38.0500,81,97,151502
1.9404,0.1613,38.1800,81,97,151506
1.9453,0.1515,37.7400,81,97,151510
1.9404,0.1662,38.2400,81,97,151513
1.9453,0.1515,38.2700,81,97,151517
1.9795,0.1613,38.1500,81,97,151520
1.9599,0.1515,38.2700,81,97,151523
1.9892,0.1564,38.0800,81,97,151527
1.9990,0.1564,38.2400,81,97,151530
1.9844,0.1515,38.2400,81,97,151533
1.9892,0.1564,38.2100,81,97,151537
1.9697,0.1564,38.2700,81,97,151540
1.9892,0.1613,38.1500,81,97,151543
1.9404,0.1515,38.2700,81,97,151546
1.9208,0.1515,38.2100,81,97,151550
1.9257,0.1564,38.1800,81,97,151554
1.8817,0.1564,38.2700,81,97,151557
1.9013,0.1711,38.0200,81,97,151561
1.8817,0.1564,38.1500,81,97,151564
1.8719,0.1515,38.3300,81,97,151567
1.8817,0.1662,38.1800,81,97,151571
1.8377,0.1564,38.3600,81,97,151574
1.8671,0.1662,38.0200,81,97,151577
1.8084,0.1564,38.0200,81,97,151581
1.8035,0.1760,38.2700,81,97,151584
1.8035,0.1613,38.2400,81,97,151587
1.7937,0.1564,38.3300,81,97,151591
1.8280,0.1857,37.9900,81,97,151595
1.7742,0.1564,38.2100,81,97,151598
1.7742,0.1564,38.1800,81,97,151601
1.7742,0.1515,38.2700,81,97,151605
1.7840,0.1564,38.2400,81,97,151608
1.8328,0.1711,38.1500,81,97,151611
1.7986,0.1564,38.2400,81,97,151615
1.8084,0.1906,38.1800,81,97,151618
1.7840,0.1515,38.2400,81,97,151621
1.7791,0.1515,38.2700,81,97,151625
1.8084,0.1662,38.0500,81,97,151628
1.8035,0.1564,38.2400,81,97,151631
1.8622,0.1613,38.1100,81,97,151635
1.9013,0.1564,38.1800,81,97,151639
1.9990,0.1564,38.2700,81,97,151642
2.1505,0.1564,38.1800,81,97,151645
2.2825,0.1515,38.2400,81,97,151649
2.5024,0.1711,38.0800,81,97,151652
2.6784,0.1564,38.2400,81,97,151655
2.7468,0.1564,38.2700,81,97,151659
2.6931,0.1613,38.1800,81,97,151662
2.5171,0.1564,38.2700,81,97,151665
2.3558,0.1613,37.9900,81,97,151669
2.1114,0.1564,38.2400,81,97,151672
1.9599,0.1515,38.1500,81,97,151675
1.8671,0.1564,38.2400,81,97,151680
1.8035,0.1564,38.3000,81,97,151683
1.8133,0.1662,37.9300,81,97,151686
1.7742,0.1613,38.1800,81,97,151689
1.7155,0.1515,38.2400,81,97,151693
1.7155,0.1613,38.2400,81,97,151696
1.6764,0.1564,37.8700,81,97,151699
1.7302,0.1808,38.0500,81,97,151703
1.6960,0.1613,38.1800,81,97,151706
1.7009,0.1564,38.2100,81,97,151709
1.6960,0.1662,38.2400,81,97,151713
1.6862,0.1564,38.2700,81,97,151716
1.7155,0.1662,38.1100,81,97,151719
1.7009,0.1564,38.2400,81,97,151724
1.7253,0.1515,38.1100,81,97,151727
1.7155,0.1662,38.2700,81,97,151730
1.7253,0.1515,37.6500,81,97,151733
1.7546,0.1564,38.2100,81,97,151737
1.7449,0.1564,38.2400,81,97,151740
1.7742,0.1564,38.1500,81,97,151743
1.7351,0.1515,38.2400,81,97,151747
1.7498,0.1857,38.2400,81,97,151750
1.7742,0.1662,38.1800,81,97,151753
1.7595,0.1662,38.2700,81,97,151757
1.7937,0.1564,38.0200,81,97,151760
1.7840,0.1515,38.1800,81,97,151763
1.7791,0.1564,38.0200,81,97,151768
1.8084,0.1662,38.1800,81,97,151771
1.7840,0.1515,38.3000,81,97,151774
1.8280,0.1662,38.0200,81,97,151777
1.7937,0.1613,38.1800,81,97,151781
1.7986,0.1564,38.2700,81,97,151784
1.8084,0.1613,38.2400,81,97,151787
1.8377,0.1564,38.2700,81,97,151791
1.8768,0.1760,38.0200,81,97,151794
1.8377,0.1564,38.2100,81,97,151797
1.8426,0.1564,38.2100,81,97,151801
1.8573,0.1613,38.2700,81,97,151804
1.8622,0.1613,38.2400,81,97,151810
1.8768,0.1564,38.2700,81,97,151813
1.9208,0.1662,38.1500,81,97,151816
1.9013,0.1564,38.2400,81,97,151820
1.9306,0.1515,38.0800,81,97,151823
1.8964,0.1564,38.1500,81,97,151826
1.9208,0.1564,38.2700,81,97,151829
1.9404,0.1613,38.1800,81,97,151833
1.9355,0.1613,38.3000,81,97,151836
1.9941,0.1613,38.0200,81,97,151839
1.9550,0.1564,38.1500,81,97,151843
1.9501,0.1662,38.2700,81,97,151846
1.9599,0.1613,38.2400,81,97,151849
1.9599,0.1564,38.2100,81,97,151854
2.0235,0.1613,37.9900,81,97,151857
1.9844,0.1564,38.2100,81,97,151860
1.9941,0.1564,38.2700,81,97,151864
2.0088,0.1662,38.2400,81,97,151867
2.0088,0.1564,38.2400,81,97,151870
2.0821,0.2004,37.9900,81,97,151873
2.0528,0.1564,38.2100,81,97,151877
2.0430,0.1564,38.2100,81,97,151880
2.0381,0.1613,38.2100,81,97,151883
2.0235,0.1564,38.2400,81,97,151887
2.0674,0.1662,38.0500,81,97,151890
2.0381,0.1613,38.2100,81,97,151894
2.0381,0.1662,38.1800,81,97,151898
2.0186,0.1613,38.2400,81,97,151901
2.0186,0.1564,38.3600,81,97,151904
2.0381,0.1711,38.1500,81,97,151907
2.0039,0.1515,38.2400,81,97,151911
2.0088,0.1613,38.1500,81,97,151914
1.9648,0.1564,38.2400,81,97,151917
1.9404,0.1515,38.2700,81,97,151921
1.9306,0.1564,38.2100,81,97,151924
1.8866,0.1564,38.2700,81,97,151927
1.8866,0.1564,38.1100,81,97,151931
1.8524,0.1613,38.3000,81,97,151934
1.8084,0.1564,38.2700,81,97,151938
1.8133,0.1515,37.6200,81,97,151941
1.7742,0.1564,38.2400,81,97,151945
1.7889,0.1613,38.0200,81,97,151948
1.7546,0.1515,38.1500,81,97,151951
1.7595,0.1564,38.2700,81,97,151955
1.7400,0.1906,38.1100,81,97,151958
1.7107,0.1564,38.2700,81,97,151961
1.7449,0.1662,37.9600,81,97,151965
1.7058,0.1564,38.1800,81,97,151968
1.7204,0.1564,38.2700,81,97,151971
1.7107,0.1515,37.5900,81,97,151975
1.7107,0.1613,38.3000,81,97,151979
1.7644,0.1760,37.9900,81,97,151982
1.7155,0.1564,38.4300,81,97,151985
1.7204,0.1564,38.2100,81,97,151989
1.7253,0.1613,38.2400,81,97,151992
1.7253,0.1613,38.2400,81,97,151995
1.7644,0.1711,38.1100,81,97,151999
1.7253,0.1857,38.2100,81,97,152002
1.7400,0.1564,38.1500,81,97,152005
1.7155,0.1564,38.2700,81,97,152009
1.7546,0.1564,38.2400,81,97,152012
1.7498,0.1515,38.1100,81,97,152015
1.7400,0.1662,38.2400,81,97,152019
1.7595,0.1613,38.1100,81,97,152023
1.7302,0.1564,38.2100,81,97,152026
1.7351,0.1564,38.2700,81,97,152030
1.7644,0.1564,38.1500,81,97,152033
1.7693,0.1662,38.2400,81,97,152036
1.8084,0.1662,38.0800,81,97,152039
1.7889,0.1515,38.2400,81,97,152043
1.7840,0.1515,38.2400,81,97,152046
1.7840,0.1613,38.1800,81,97,152049
1.7742,0.1564,38.1500,81,97,152053
1.8280,0.1613,38.0200,81,97,152056
1.7693,0.1564,38.2400,81,97,152059
1.7742,0.1515,38.2700,81,97,152064
1.7937,0.1613,38.2100,81,97,152067
1.7840,0.1564,38.2700,81,97,152070
1.8475,0.1613,37.9600,81,97,152073
1.8133,0.1613,38.1800,81,97,152077
1.7937,0.1515,38.2700,81,97,152080
1.7937,0.1613,38.2100,81,97,152083
1.7742,0.1564,38.3000,81,97,152087
1.8231,0.1760,38.0500,81,97,152090
1.7937,0.1613,38.2100,81,97,152093
1.7986,0.1564,38.2400,81,97,152097
1.7937,0.1564,38.2700,81,97,152100
1.7889,0.1564,38.3000,81,97,152103
1.8182,0.2004,38.1500,81,97,152108
1.7889,0.1564,38.2400,81,97,152111
1.7937,0.1515,38.4900,81,97,152114
1.7791,0.1662,38.2400,81,97,152117
1.7791,0.1564,38.3000,81,97,152121
1.7889,0.1613,38.2100,81,97,152124
1.7840,0.1564,38.2400,81,97,152127
1.8035,0.1662,38.1500,81,97,152131
1.8084,0.1564,38.2400,81,97,152134
1.7791,0.1564,38.2700,81,97,152137
1.7937,0.1662,38.1800,81,97,152141
1.7693,0.1613,38.2400,81,97,152144
1.8035,0.1564,38.0200,81,97,152147
1.7986,0.1808,38.1500,81,97,152152
1.8084,0.1564,38.2700,81,97,152155
1.8231,0.1711,38.1500,81,97,152158
1.8035,0.1564,38.2400,81,97,152161
1.8328,0.1613,37.9900,81,97,152165
1.7840,0.1515,38.2400,81,97,152168
1.8035,0.1564,38.2400,81,97,152171
1.7889,0.1515,38.3000,81,97,152175
1.7840,0.1515,38.2700,81,97,152178
1.8377,0.1613,37.9300,81,97,152181
1.7937,0.1564,38.2400,81,97,152185
1.7937,0.1564,38.2100,81,97,152188
1.8035,0.1613,38.3000,81,97,152192
1.8084,0.1564,38.2400,81,97,152196
1.8622,0.1711,38.0800,81,97,152199
1.8035,0.1613,38.2100,81,97,152202
1.7840,0.1564,38.1500,81,97,152205
1.7693,0.1515,38.2400,81,97,152209
1.7693,0.1564,38.3600,81,97,152212
1.8133,0.1662,38.1100,81,97,152215
1.7840,0.1613,38.4000,81,97,152219
1.8084,0.1857,38.0800,81,97,152222
1.7986,0.1564,38.2700,81,97,152225
1.8133,0.1515,38.2400,81,97,152229
1.8524,0.1662,38.1500,81,97,152232
1.8524,0.1564,38.2400,81,97,152236
1.8915,0.1564,38.1800,81,97,152240
1.8622,0.1613,38.2100,81,97,152243
1.8671,0.1515,38.3000,81,97,152246
1.8719,0.1662,38.2100,81,97,152249
1.8573,0.1564,38.2400,81,97,152253
1.8866,0.1613,38.0800,81,97,152256
1.8573,0.1564,38.2700,81,97,152259
1.8671,0.1564,38.2700,81,97,152263
1.8915,0.1613,38.0800,81,97,152266
1.8964,0.1662,38.2700,81,97,152269
1.9648,0.1662,37.9900,81,97,152273
1.9306,0.1613,38.1500,81,97,152276
1.9110,0.1564,38.3000,81,97,152280
1.9110,0.1613,38.2700,81,97,152283
1.8768,0.1613,38.3000,81,97,152287
1.9062,0.1760,37.9900,81,97,152290
1.8377,0.1613,38.1100,81,97,152293
1.8475,0.1564,38.2100,81,97,152297
1.7986,0.1564,38.2400,81,97,152300
1.7889,0.1564,38.2700,81,97,152303
1.8182,0.1711,38.1100,81,97,152307
1.7595,0.1564,38.1500,81,97,152310
1.7546,0.1613,38.1800,81,97,152313
1.7302,0.1515,38.2400,81,97,152317
1.7253,0.1564,38.3000,81,97,152321
1.7400,0.1613,38.2100,81,97,152324
1.7155,0.1564,38.0800,81,97,152327
1.7302,0.1613,38.0800,81,97,152331
1.7155,0.1564,38.2700,81,97,152334
1.7204,0.1564,38.2700,81,97,152337
1.7449,0.1662,38.1100,81,97,152341
1.7155,0.1613,38.2400,81,97,152344
1.7302,0.1564,38.0500,81,97,152347
1.7155,0.1564,38.1800,81,97,152351
1.7155,0.1515,38.2400,81,97,152354
1.7693,0.1613,38.1100,81,97,152357
1.7155,0.1564,38.2400,81,97,152361
1.7400,0.1613,38.0200,81,97,152365
1.7498,0.1613,38.2400,81,97,152368
1.7449,0.1515,38.2400,81,97,152371
1.8084,0.1711,38.2100,81,97,152375
1.8964,0.1564,38.2400,81,97,152378
2.0577,0.1662,38.0200,81,97,152381
2.1750,0.1564,38.2100,81,97,152385
2.3069,0.1564,38.2700,81,97,152388
2.5073,0.1564,38.2700,81,97,152391
2.6344,0.1564,38.2400,81,97,152395
2.6882,0.1760,37.9900,81,97,152398
2.4731,0.1711,38.2100,81,97,152401
2.2678,0.1515,38.2100,81,97,152406
2.0626,0.1613,38.2400,81,97,152409
1.9062,0.1564,38.2700,81,97,152412
1.8524,0.1662,38.1800,81,97,152415
1.6325,0.1564,37.4600,81,97,152420
1.6080,0.1564,38.2700,81,97,152423
1.6227,0.1564,38.0800,81,97,152427
1.5982,0.1564,38.2700,81,97,152430
1.5982,0.1613,38.2700,81,97,152433
1.6227,0.1564,38.1800,81,97,152437
1.6031,0.1564,38.2700,81,97,152440
1.6422,0.1613,37.9600,81,97,152443
1.6080,0.1564,38.3000,81,97,152448
1.6178,0.1515,38.2400,81,97,152451
1.6178,0.1662,38.2400,81,97,152454
1.6129,0.1564,38.2400,81,97,152458
1.6618,0.1662,37.9600,81,97,152461
1.6422,0.1613,38.2100,81,97,152464
1.6373,0.1515,38.2700,81,97,152467
1.6520,0.1613,38.2400,81,97,152471
1.6569,0.1564,38.3000,81,97,152474
1.7204,0.1711,38.0500,81,97,152477
1.6911,0.1662,38.1800,81,97,152481
1.6862,0.1515,38.1800,81,97,152484
1.6862,0.1564,38.2100,81,97,152487
1.6960,0.1564,38.2700,81,97,152492
1.7107,0.1662,38.1500,81,97,152495
1.6764,0.1906,38.2400,81,97,152498
1.6960,0.1613,38.1100,81,97,152501
1.6862,0.1564,38.2400,81,97,152505
1.6911,0.1808,38.2400,81,97,152508
1.7155,0.1613,38.2100,81,97,152511
1.7058,0.1564,38.2700,81,97,152515
1.7351,0.1613,38.1500,81,97,152518
1.7253,0.1613,37.8300,81,97,152521
1.7449,0.1564,38.2700,81,97,152525
1.7742,0.1662,38.2400,81,97,152528
1.7546,0.1564,38.2400,81,97,152531
1.7840,0.1564,38.0500,81,97,152536
1.7644,0.1564,37.9000,81,97,152539
1.7644,0.1564,38.2700,81,97,152542
1.7889,0.1662,38.1500,81,97,152545
1.7840,0.1564,38.2400,81,97,152549
1.8280,0.1857,38.0200,81,97,152552
1.7791,0.1564,38.2100,81,97,152555
1.7986,0.1564,38.3000,81,97,152559
1.8084,0.1613,38.2100,81,97,152562
1.8084,0.1564,38.2400,81,97,152565
1.8622,0.1613,37.9600,81,97,152569
1.8084,0.1564,38.2100,81,97,152572
1.8133,0.1711,38.2700,81,97,152576
1.8280,0.1613,38.2400,81,97,152579
1.8426,0.1564,38.2700,81,97,152583
1.9110,0.1711,38.0500,81,97,152586
1.8719,0.1613,38.2400,81,97,152589
1.8817,0.1906,38.1800,81,97,152593
1.8817,0.1613,38.2400,81,97,152596
1.8817,0.1613,38.3000,81,97,152599
1.9257,0.1662,38.1100,81,97,152603
1.9062,0.1857,38.1800,81,97,152606
1.9257,0.1613,38.0800,81,97,152609
1.9110,0.1564,38.2700,81,97,152613
1.9110,0.1564,38.2700,81,97,152616
1.9453,0.1662,38.2100,81,97,152620
1.9306,0.1515,38.4000,81,97,152624
1.9648,0.1613,38.0800,81,97,152627
1.9550,0.1564,38.2700,81,97,152630
1.9355,0.1515,38.2700,81,97,152633
1.9404,0.1857,38.1800,81,97,152637
1.9257,0.1564,38.2700,81,97,152640
1.9501,0.1564,38.1500,81,97,152643
1.9159,0.1564,38.2400,81,97,152647
1.8915,0.1515,38.2700,81,97,152650
1.8915,0.1760,38.1800,81,97,152653
1.8524,0.1515,38.0500,81,97,152657
1.8768,0.1662,37.9600,81,97,152660
1.8328,0.1613,38.1800,81,97,152664
1.7986,0.1564,38.2400,81,97,152667
1.7889,0.1662,38.2100,81,97,152671
1.7498,0.1564,38.3000,81,97,152674
1.7742,0.1662,37.9600,81,97,152677
1.7107,0.1564,38.0800,81,97,152681
1.6862,0.1564,38.2100,81,97,152684
1.6569,0.1515,38.3000,81,97,152687
1.6373,0.1613,38.3000,81,97,152691
1.6618,0.1711,38.0800,81,97,152694
1.6129,0.1613,38.1800,81,97,152697
1.6129,0.1613,38.1500,81,97,152701
1.6129,0.1564,38.2400,81,97,152705
1.6080,0.1808,38.3000,81,97,152708
1.6569,0.1613,38.1800,81,97,152711
1.5982,0.1515,38.2400,81,97,152715
1.6080,0.1662,38.1500,81,97,152718
1.5934,0.1564,38.2700,81,97,152721
1.6031,0.1564,38.2700,81,97,152725
1.6373,0.1662,38.1100,81,97,152728
1.6178,0.1613,38.3300,81,97,152731
1.6422,0.1564,38.0800,81,97,152735
1.6227,0.1564,38.2100,81,97,152738
1.6325,0.1564,38.0200,81,97,152741
1.6618,0.1662,38.1100,81,97,152745
1.6422,0.1515,38.1800,81,97,152749
1.6667,0.1564,38.0200,81,97,152752
1.6422,0.1564,38.2400,81,97,152755
1.6471,0.1515,38.2700,81,97,152759
1.6667,0.1613,38.1800,81,97,152762
1.6716,0.1564,38.1100,81,97,152765
1.7155,0.1662,37.9600,81,97,152769
1.6716,0.1564,38.3300,81,97,152772
1.6667,0.1662,38.3000,81,97,152775
1.6667,0.1613,38.2100,81,97,152779
1.6618,0.1662,38.2400,81,97,152782
1.7155,0.1711,38.0200,81,97,152785
1.6911,0.1613,38.2400,81,97,152790
1.6911,0.1564,38.2100,81,97,152793
1.6862,0.1613,38.2400,81,97,152796
1.6911,0.1564,38.2400,81,97,152800
1.7253,0.1662,38.0500,81,97,152803
1.7009,0.1613,38.1800,81,97,152806
1.7107,0.1564,38.1100,81,97,152809
1.6911,0.1564,38.2400,81,97,152813
1.6764,0.1564,38.2400,81,97,152816
1.7058,0.1662,38.1500,81,97,152819
1.6862,0.1515,38.3000,81,97,152823
1.7204,0.1613,38.1800,81,97,152826
1.6960,0.1564,38.1800,81,97,152829
1.7107,0.1564,38.3000,81,97,152834
1.7107,0.1515,38.1800,81,97,152837
1.7107,0.1564,38.1500,81,97,152840
1.7449,0.1564,38.0500,81,97,152843
1.7155,0.1564,38.0200,81,97,152847
1.7058,0.1711,38.2700,81,97,152850
1.7253,0.1613,38.1800,81,97,152853
1.6862,0.1808,38.2400,81,97,152857
1.7302,0.1613,37.9900,81,97,152860
1.7058,0.1613,38.1500,81,97,152863
1.7058,0.1515,38.3300,81,97,152867
1.7302,0.1613,38.2700,81,97,152870
1.7155,0.1564,38.3300,81,97,152873
1.7644,0.1808,37.9300,81,97,152878
1.7351,0.1613,38.1100,81,97,152881
1.7204,0.1515,38.2400,81,97,152884
1.7204,0.1613,38.2400,81,97,152887
1.7058,0.1564,38.2700,81,97,152891
1.7498,0.1711,38.3300,81,97,152894
1.7058,0.1613,38.2400,81,97,152897
1.7204,0.1564,38.1800,81,97,152901
1.7253,0.1564,38.2700,81,97,152904
1.7253,0.1515,38.2400,81,97,152907
1.7449,0.1711,38.1500,81,97,152911
1.7155,0.1564,38.2100,81,97,152914
1.7302,0.1613,38.3300,81,97,152918
1.7009,0.1564,38.2700,81,97,152922
1.7107,0.1515,38.2400,81,97,152925
1.7351,0.1613,38.1800,81,97,152928
1.7107,0.1613,38.3300,81,97,152932
1.7449,0.1662,38.1100,81,97,152935
1.7302,0.1564,38.2100,81,97,152938
1.7351,0.1564,38.2700,81,97,152941
1.7595,0.1613,38.0800,81,97,152945
1.7253,0.1515,38.3000,81,97,152948
1.7546,0.1662,38.0500,81,97,152951
1.7302,0.1613,38.1800,81,97,152955
1.7302,0.1515,38.4000,81,97,152958
1.7449,0.1662,38.2400,81,97,152962
1.7351,0.1564,38.2700,81,97,152966
1.8035,0.1662,37.9300,81,97,152969
1.7742,0.1564,38.2100,81,97,152972
1.7937,0.1564,38.2700,81,97,152976
1.8035,0.1613,38.2100,81,97,152979
1.7986,0.1564,38.2700,81,97,152982
1.8524,0.1760,38.0500,81,97,152985
1.8475,0.1662,38.2100,81,97,152989
1.8084,0.1564,38.1800,81,97,152992
1.8133,0.1564,38.2100,81,97,152995
1.8231,0.1515,38.2700,81,97,152999
1.8719,0.1662,38.0500,81,97,153003
1.8622,0.1613,38.2100,81,97,153006
1.8719,0.1613,38.1500,81,97,153010
1.8377,0.1613,38.2700,81,97,153013
1.8524,0.1564,38.3000,81,97,153016
1.8817,0.1613,38.1100,81,97,153020
1.8524,0.1515,38.2400,81,97,153023
1.8671,0.1662,38.1500,81,97,153026
1.8133,0.1564,37.9900,80,97,153029
1.7351,0.1515,38.2400,80,97,153034
1.7400,0.1613,38.2100,80,97,153038
1.7498,0.1613,38.2400,80,97,153041
1.7253,0.1808,38.2400,80,97,153044
1.7595,0.1613,37.9600,80,97,153048
1.7204,0.1613,38.4900,80,97,153052
1.6862,0.1466,38.2400,80,97,153055
1.6716,0.1613,38.2100,80,97,153058
1.6569,0.1613,38.2400,80,97,153062
1.7058,0.1711,38.0500,80,97,153065
1.6911,0.1955,38.1800,80,97,153068
1.6911,0.1564,38.1500,80,97,153072
1.6911,0.1564,38.3000,80,97,153075
1.6911,0.1808,38.2400,80,97,153078
1.7204,0.1711,38.0800,80,97,153082
1.6911,0.1564,38.2700,80,97,153085
1.7058,0.1613,38.1800,80,97,153089
1.6764,0.1564,38.2400,80,97,153092
1.6667,0.1515,38.2700,80,97,153096
1.6862,0.1613,38.2100,80,97,153099
1.7204,0.1808,38.2700,80,97,153102
1.8182,0.1662,38.1800,80,97,153106
1.8964,0.1564,38.2400,80,97,153109
2.0283,0.1857,38.2700,80,97,153112
2.2092,0.1613,38.1800,80,97,153116
2.3607,0.1662,38.2700,80,97,153119
2.6246,0.1613,38.0500,80,97,153122
2.6393,0.1564,38.1500,80,97,153126
2.5513,0.1515,38.2400,80,97,153129
2.4145,0.1711,38.1500,80,97,153133
2.1750,0.1564,38.2700,80,97,153136
2.0283,0.1662,37.9900,80,97,153140
1.8524,0.1515,38.1800,80,97,153143
1.7693,0.1564,38.2400,80,97,153146
1.7302,0.1564,38.2400,80,97,153150
1.6960,0.1515,38.2400,80,97,153153
1.7204,0.1711,38.0500,80,97,153156
1.6569,0.1564,38.2100,80,97,153160
1.6422,0.1515,38.2400,80,97,153163
1.6227,0.1662,38.2400,80,97,153166
1.6080,0.1564,38.2700,80,97,153170
1.6373,0.1711,38.1100,80,97,153174
1.6031,0.1564,38.2400,80,97,153177
1.6178,0.1564,38.1100,80,97,153180
1.5982,0.1564,38.2400,80,97,153184
1.6129,0.1564,38.2400,80,97,153187
1.6471,0.1662,38.0800,80,97,153190
1.6178,0.1857,38.2400,80,97,153194
1.6325,0.1662,38.1100,80,97,153197
1.6178,0.1515,37.4900,80,97,153200
1.6227,0.1857,38.2400,80,97,153204
1.6520,0.1613,37.9000,80,97,153207
1.6520,0.1906,38.2400,80,97,153210
1.6862,0.1613,38.1100,80,97,153214
1.6764,0.1564,38.2100,80,97,153218
1.6764,0.1760,38.2700,80,97,153221
1.6911,0.1662,38.1800,80,97,153224
1.6764,0.1515,38.2400,80,97,153228
1.7253,0.1613,37.9900,80,97,153231
1.6911,0.1515,38.2400,80,97,153234
1.6862,0.1662,38.2700,80,97,153238
1.6911,0.1613,38.2400,80,97,153241
1.6911,0.1613,38.2400,80,97,153244
1.7498,0.1515,37.9300,80,97,153248
1.7302,0.1662,38.2100,80,97,153251
1.7351,0.1564,38.2400,80,97,153254
1.7449,0.1662,38.2100,80,97,153259
1.7449,0.1564,38.2400,80,97,153262
1.7986,0.1711,37.9900,80,97,153265
1.7791,0.1613,38.1800,80,97,153269
1.7742,0.1564,38.0800,80,97,153272
1.7644,0.1857,38.2400,80,97,153275
1.7595,0.1564,38.2400,80,97,153278
1.7889,0.1760,38.0800,80,97,153282
1.7644,0.1613,38.2400,80,97,153285
1.7986,0.1613,38.0800,80,97,153288
1.7840,0.1564,38.2700,80,97,153292
1.7986,0.1564,38.2400,80,97,153295
1.8084,0.1613,38.1500,80,97,153298
1.7986,0.1662,38.3000,80,97,153303
1.8377,0.1564,38.1100,80,97,153306
1.8182,0.1760,38.2700,80,97,153309
1.8377,0.1564,38.2400,80,97,153313
1.8622,0.1613,38.2100,80,97,153316
1.8524,0.1564,38.2700,80,97,153319
1.8964,0.1613,37.4000,80,97,153322
1.8866,0.1857,38.1100,80,97,153326
1.9110,0.1564,38.2700,80,97,153329
1.9306,0.1711,38.1500,80,97,153332
1.9159,0.1564,38.2700,80,97,153336
1.9697,0.1662,38.2100,80,97,153339
1.9404,0.1564,38.1500,80,97,153342
1.9404,0.1515,38.2700,80,97,153347
1.9501,0.1564,38.2100,80,97,153350
1.9550,0.1613,38.2700,80,97,153353
2.0088,0.1760,38.0200,80,97,153357
1.9550,0.1613,38.2400,80,97,153360
1.9599,0.1662,38.2100,80,97,153363
1.9599,0.1564,38.2700,80,97,153366
1.9648,0.1662,38.2400,80,97,153370
2.0137,0.1711,38.1100,80,97,153373
1.9844,0.1613,38.2100,80,97,153376
1.9892,0.1564,38.1100,80,97,153380
1.9599,0.1564,37.5900,80,97,153383
1.9453,0.2053,38.3000,80,97,153387
1.9844,0.1662,38.0800,80,97,153391
1.9306,0.1613,38.2100,80,97,153394
1.9355,0.1711,38.1800,80,97,153397
1.8866,0.1564,38.2400,80,97,153401
1.8622,0.1564,38.2700,80,97,153404
1.8622,0.1515,38.1100,80,97,153407
1.8231,0.1564,38.2400,80,97,153410
1.8231,0.1564,38.0500,80,97,153414
1.7840,0.1564,38.2400,80,97,153417
1.7498,0.1613,38.2400,80,97,153420
1.7253,0.1515,38.1800,80,97,153424
1.6911,0.1564,38.2700,80,97,153427
1.7107,0.1662,37.9900,80,97,153431
1.6618,0.1515,38.2100,80,97,153435
1.6764,0.1564,38.2700,80,97,153438
1.6569,0.1613,38.2400,80,97,153441
1.6422,0.1564,38.2400,80,97,153445
1.6862,0.1662,37.9600,80,97,153448
1.6618,0.1857,38.1500,80,97,153451
1.6618,0.1564,38.2400,80,97,153454
1.6569,0.1613,38.2100,80,97,153458
1.6618,0.1564,38.2400,80,97,153461
1.6862,0.1515,38.0800,80,97,153464
1.6667,0.1613,38.1500,80,97,153468
1.6716,0.1564,38.1800,80,97,153472
1.6618,0.1564,38.3000,80,97,153475
1.6618,0.1662,38.2400,80,97,153479
1.6960,0.1662,38.0800,80,97,153482
1.6862,0.1564,38.2400,80,97,153485
1.7302,0.1564,38.0800,80,97,153489
1.7107,0.1515,38.2700,80,97,153492
1.7107,0.1662,38.2400,80,97,153495
1.7253,0.1613,38.2100,80,97,153498
1.7155,0.1564,38.1800,80,97,153502
1.7498,0.1564,38.1100,80,97,153505
1.7155,0.1564,38.2400,80,97,153508
1.7546,0.1662,38.2700,80,97,153512
1.7546,0.1515,38.1500,80,97,153516
1.7253,0.1564,38.2700,80,97,153519
1.7546,0.1613,38.0200,80,97,153523
1.7302,0.1613,38.4000,80,97,153526
1.7253,0.1662,38.2400,80,97,153529
1.7546,0.1662,38.2100,80,97,153533
1.7400,0.1564,38.2400,80,97,153536
1.7937,0.1613,37.9900,80,97,153539
1.7595,0.1955,38.1500,80,97,153543
1.7595,0.1564,38.2100,80,97,153546
1.7644,0.1515,38.2700,80,97,153549
1.7889,0.1711,38.2400,80,97,153552
1.8035,0.1711,38.0500,80,97,153556
1.7498,0.1711,38.2100,80,97,153560
1.7595,0.1564,38.2100,80,97,153563
1.7546,0.1564,38.2700,80,97,153567
1.7595,0.1564,38.2400,80,97,153570
1.7986,0.1662,38.4000,80,97,153573
1.7644,0.1564,38.2100,80,97,153577
1.7644,0.1564,38.1100,80,97,153580
1.7449,0.1662,38.2400,80,97,153583
1.7449,0.1515,38.3000,80,97,153587
1.7840,0.1662,38.0800,80,97,153590
1.7693,0.1564,38.2400,80,97,153593
1.8035,0.1662,38.1800,80,97,153596
1.7742,0.1515,38.1800,80,97,153601
1.7937,0.1564,38.2700,80,97,153604
1.7986,0.1515,38.1100,80,97,153607
1.7937,0.1662,38.3000,80,97,153611
1.8035,0.1564,38.0800,80,97,153614
1.7742,0.1564,38.1500,80,97,153617
1.7644,0.1564,38.2700,80,97,153621
1.7840,0.1613,38.2400,80,97,153624
1.7791,0.1564,38.2400,80,97,153627
1.8377,0.1613,37.9900,80,97,153631
1.7791,0.1613,38.2400,80,97,153634
1.7937,0.1564,38.2400,80,97,153637
1.7840,0.1613,38.2700,80,97,153640
1.7937,0.1515,38.2400,80,97,153646
1.7889,0.1564,38.2700,80,97,153649
1.8524,0.1613,38.1100,80,97,153653
1.8084,0.1613,38.0800,80,97,153656
1.8182,0.1760,38.1100,80,97,153659
1.7986,0.1564,38.2400,80,97,153663
1.7986,0.1515,38.3000,80,97,153666
1.8182,0.1711,38.1100,80,97,153669
1.7986,0.1515,38.2400,80,97,153673
1.8231,0.1662,38.1100,80,97,153676
1.8035,0.1564,38.2400,80,97,153679
1.8035,0.1564,38.1500,80,97,153683
1.8084,0.1564,38.1800,80,97,153687
1.8035,0.1564,38.2700,80,97,153690
1.8426,0.1564,38.0800,80,97,153693
1.8426,0.1564,38.2400,80,97,153697
1.8768,0.1564,38.2700,80,97,153700
1.8915,0.1662,38.1100,80,97,153703
1.8768,0.1564,38.3000,80,97,153707
1.9159,0.1613,37.9900,80,97,153710
1.8964,0.1613,38.1500,80,97,153713
1.8866,0.1564,38.2700,80,97,153717
1.8964,0.1613,38.2400,80,97,153720
1.8866,0.1564,38.2400,80,97,153723
1.9501,0.1662,37.9300,80,97,153726
1.9306,0.1613,38.1100,80,97,153731
1.9306,0.1564,38.2400,80,97,153734
1.9453,0.1564,38.2400,80,97,153737
1.9453,0.1564,38.2100,80,97,153741
1.9941,0.1711,38.0800,80,97,153744
1.9355,0.1515,38.2100,80,97,153747
1.9110,0.1564,38.1500,80,97,153751
1.8768,0.1564,38.2400,80,97,153754
1.8475,0.1564,38.2400,80,97,153757
1.8671,0.1613,38.1800,80,97,153761
1.8231,0.1613,38.2400,80,97,153764
1.8426,0.1564,38.1500,80,97,153767
1.7986,0.1564,38.2700,80,97,153771
1.7937,0.1564,38.2100,80,97,153775
1.8133,0.1662,38.1100,80,97,153778
1.7791,0.1613,38.2400,80,97,153781
1.7986,0.1564,38.0800,80,97,153785
1.7595,0.1564,38.1500,80,97,153788
1.7546,0.1613,38.2400,80,97,153791
1.7742,0.1613,37.9900,80,97,153795
1.7498,0.1564,38.2700,80,97,153798
1.8084,0.1564,38.0200,80,97,153801
1.7595,0.1515,38.1800,80,97,153805
1.7546,0.1564,38.2700,80,97,153808
1.7937,0.1662,38.2400,80,97,153811
1.7644,0.1564,38.2700,80,97,153815
1.8133,0.1808,38.0200,80,97,153819
1.7791,0.1564,38.2700,80,97,153822
1.7742,0.1564,38.2100,80,97,153825
1.7644,0.1613,38.2700,80,97,153829
1.7546,0.1564,37.7400,80,97,153832
1.8231,0.1662,37.9900,80,97,153835
1.8426,0.1613,38.1800,80,97,153839
1.9257,0.1564,38.1800,80,97,153842
2.0528,0.1515,38.2100,80,97,153845
2.1945,0.1564,38.1100,80,97,153849
2.4096,0.1760,38.0500,80,97,153852
2.5806,0.1662,38.2100,80,97,153856
2.7370,0.1613,38.1500,80,97,153859
2.7322,0.1515,38.3000,80,97,153863
2.6540,0.1564,38.2700,80,97,153866
2.4780,0.1662,38.1500,80,97,153869
2.2336,0.1564,38.1500,80,97,153873
2.0723,0.1662,38.0800,80,97,153876
1.9159,0.1564,38.2400,80,97,153879
1.8328,0.1564,38.2700,80,97,153883
1.7986,0.1613,38.1800,80,97,153886
1.7498,0.1515,38.2400,80,97,153889
1.7546,0.1515,38.1500,80,97,153892
1.7107,0.1564,38.2400,80,97,153896
1.6960,0.1515,38.2700,80,97,153900
1.7058,0.1613,38.1500,80,97,153903
1.6813,0.1662,38.2100,80,97,153907
1.7107,0.1613,38.0200,80,97,153910
1.6862,0.1613,38.2400,80,97,153913
1.6813,0.1711,38.3000,80,97,153917
1.7058,0.1662,38.2100,80,97,153920
1.6911,0.1564,38.3000,80,97,153923
1.7400,0.1662,37.9600,80,97,153927
1.7204,0.1564,38.2100,80,97,153930
1.7204,0.1515,38.2400,80,97,153933
1.7253,0.1564,38.2700,80,97,153936
1.7204,0.1564,38.2400,80,97,153940
1.7693,0.1760,37.9300,80,97,153944
1.7302,0.1613,38.1800,80,97,153947
1.7351,0.1564,38.2100,80,97,153951
1.7400,0.1564,38.2400,80,97,153954
1.7498,0.1515,38.3600,80,97,153957
1.7937,0.1711,38.1800,80,97,153961
1.7693,0.1613,38.2400,80,97,153964
1.7791,0.1613,38.1100,80,97,153967
1.7644,0.1613,38.2400,80,97,153971
1.7791,0.1613,38.2400,80,97,153974
1.8231,0.1662,38.1100,80,97,153977
1.8035,0.1662,38.2100,80,97,153981
1.8280,0.1662,38.1500,80,97,153985
1.7986,0.1515,38.1500,80,97,153988
1.7986,0.1662,38.2400,80,97,153991
1.8280,0.1613,38.0500,80,97,153995
1.8182,0.1515,38.2400,80,97,153998
1.8622,0.1613,38.0500,80,97,154001
1.8426,0.1564,38.4300,80,97,154005
1.8426,0.1613,38.2700,80,97,154008
1.8622,0.1515,38.2100,80,97,154011
1.8573,0.1857,38.2400,80,97,154015
1.9062,0.1613,37.9900,80,97,154018
1.8768,0.1564,38.2100,80,97,154021
1.9062,0.1662,38.2400,80,97,154025
1.8964,0.1515,38.2400,80,97,154029
1.8817,0.1564,38.2400,80,97,154032
1.9404,0.1711,37.9900,80,97,154035
1.9013,0.1613,38.2100,80,97,154039
1.8964,0.1564,38.2100,80,97,154042
1.9159,0.1808,38.1800,80,97,154045
1.9208,0.1515,38.2700,80,97,154049
1.9795,0.1662,38.0800,80,97,154052
1.9697,0.1662,38.1800,80,97,154055
1.9697,0.1613,38.1800,80,97,154059
1.9550,0.1564,38.2700,80,97,154062
1.9599,0.1564,38.0200,80,97,154065
1.9990,0.1613,38.0800,80,97,154070
1.9795,0.1613,38.2400,80,97,154073
2.0186,0.1613,38.0800,80,97,154076
2.0088,0.1662,38.2400,80,97,154079
2.0235,0.1564,38.3000,80,97,154083
2.0479,0.1613,38.2700,80,97,154086
2.0332,0.1613,38.3000,80,97,154089
2.0577,0.1564,38.1800,80,97,154093
2.0283,0.1613,38.2100,80,97,154096
2.0381,0.1613,38.2400,80,97,154099
2.0723,0.1662,38.1100,80,97,154103
2.0381,0.1564,38.2100,80,97,154106
2.0577,0.1662,38.0200,80,97,154109
2.0381,0.1564,38.1500,80,97,154113
2.0332,0.1564,38.2400,80,97,154117
2.0674,0.1613,38.1100,80,97,154120
2.0235,0.1564,38.2700,80,97,154123
2.0626,0.1662,38.1500,80,97,154127
2.0137,0.1466,38.1800,80,97,154130
2.0039,0.1564,38.2400,80,97,154133
1.9697,0.1515,38.2100,80,97,154137
1.9453,0.1564,38.2400,80,97,154140
1.9697,0.1662,37.9300,80,97,154143
1.8964,0.1564,38.1100,80,97,154146
1.8622,0.1564,38.2400,80,97,154150
1.8328,0.1515,38.2400,80,97,154153
1.8035,0.1662,38.2400,80,97,154157
1.8231,0.1711,38.2100,80,97,154161
1.7840,0.1808,38.1500,80,97,154164
1.7644,0.1662,38.1500,80,97,154167
1.7449,0.1564,38.2100,80,97,154171
1.7351,0.1466,38.2700,80,97,154174
1.7693,0.1662,38.1800,80,97,154177
1.7449,0.1564,38.2400,80,97,154181
1.7449,0.1613,38.0800,80,97,154184
1.7155,0.1564,38.2100,80,97,154187
1.7155,0.1564,38.2400,80,97,154190
1.7449,0.1662,38.1800,80,97,154194
1.7204,0.1662,38.3000,80,97,154198
1.7546,0.1662,38.1100,80,97,154201
1.7253,0.1564,38.2100,80,97,154205
1.7351,0.1564,38.2400,80,97,154208
1.7351,0.1662,38.1800,80,97,154211
1.7351,0.1564,38.4000,80,97,154215
1.7742,0.1564,38.0500,80,97,154218
1.7595,0.1564,38.3000,80,97,154221
1.7742,0.1515,38.2400,80,97,154224
1.8035,0.1711,38.1500,80,97,154228
1.7742,0.1564,38.3000,80,97,154231
1.8133,0.1613,37.9600,80,97,154234
1.7840,0.1613,38.1500,80,97,154238
1.7644,0.1564,38.2700,80,97,154242
1.7791,0.1515,38.2100,80,97,154245
1.7742,0.1564,38.2700,80,97,154249
1.8377,0.1808,38.0200,80,97,154252
1.8084,0.1613,38.1100,80,97,154257
1.7840,0.1564,38.2700,80,97,154260
1.8133,0.1613,38.0800,80,97,154263
1.7986,0.1564,38.2400,80,97,154267
1.8084,0.1564,38.4600,80,97,154270
1.8231,0.1613,38.1500,80,97,154273
1.8084,0.1564,38.2700,80,97,154277
1.8133,0.1564,38.1500,80,97,154280
1.8182,0.1564,38.2400,80,97,154284
1.8035,0.1515,38.2700,80,97,154287
1.8280,0.1662,38.1800,80,97,154291
1.8035,0.1564,38.2700,80,97,154294
1.8328,0.1613,38.0800,80,97,154297
1.8084,0.1564,38.1500,80,97,154301
1.8182,0.1564,38.2700,80,97,154304
1.8182,0.1662,38.1500,80,97,154307
1.7889,0.1613,38.2400,80,97,154311
1.8328,0.1662,37.9600,80,97,154314
1.7986,0.1564,38.1800,80,97,154317
1.7986,0.1564,38.2400,80,97,154321
1.8035,0.1613,38.2400,80,97,154324
1.7937,0.1613,38.2400,80,97,154328
1.8426,0.1760,38.0500,80,97,154331
1.8133,0.1564,38.2100,80,97,154335
1.7889,0.1564,38.1800,80,97,154338
1.7889,0.1613,38.2100,80,97,154341
1.7840,0.1564,38.2700,80,97,154345
1.8328,0.1711,38.1800,80,97,154348
1.8035,0.1760,38.2100,80,97,154351
1.8133,0.1564,38.1100,80,97,154355
1.7986,0.1515,38.2100,80,97,154358
1.7986,0.1564,38.2400,80,97,154361
1.8280,0.1662,38.0800,80,97,154365
1.8084,0.1613,38.2100,80,97,154369
1.8133,0.1515,38.1500,80,97,154372
1.7840,0.1564,38.2400,80,97,154375
1.7889,0.1564,38.2700,80,97,154379
1.8133,0.1613,38.1100,80,97,154382
1.7986,0.1613,38.2400,80,97,154385
1.8231,0.1564,38.0800,80,97,154389
1.7937,0.1564,38.2700,80,97,154392
1.7937,0.1808,38.2700,80,97,154395
1.7986,0.1613,38.1800,80,97,154399
1.7889,0.1564,38.1800,80,97,154402
1.8231,0.1662,37.9600,80,97,154405
1.7840,0.1515,38.2400,80,97,154409
1.7840,0.1564,38.2700,80,97,154413
1.8084,0.1613,38.2100,80,97,154416
1.7742,0.1564,38.2700,80,97,154419
1.8231,0.1662,37.9300,80,97,154423
1.8035,0.1515,38.2100,80,97,154426
1.8035,0.1515,38.2100,80,97,154429
1.8280,0.1613,38.2400,80,97,154433
1.8328,0.1564,38.2700,80,97,154436
1.9013,0.1857,38.0500,80,97,154439
1.8817,0.1515,38.1500,80,97,154443
1.8768,0.1564,38.1100,80,97,154446
1.8866,0.1613,38.1800,80,97,154449
1.8719,0.1564,38.2400,80,97,154452
1.9013,0.1906,38.0800,80,97,154457
1.8768,0.1564,38.2400,80,97,154460
1.9013,0.1515,38.1500,80,97,154463
1.8866,0.1857,38.2400,80,97,154467
1.8964,0.1515,38.2400,80,97,154470
1.9110,0.1662,38.1800,80,97,154473
1.8915,0.1564,38.2400,80,97,154477
1.9159,0.1662,38.2100,80,97,154480
1.8671,0.1662,38.2400,80,97,154483
1.8671,0.1564,38.3300,80,97,154487
1.8817,0.1662,38.1500,80,97,154490
1.8133,0.1564,38.3300,80,97,154493
1.8182,0.1564,38.0200,80,97,154498
1.7986,0.1564,38.1100,80,97,154501
1.7889,0.1515,38.2100,80,97,154504
1.8133,0.1662,38.1800,80,97,154507
1.7791,0.1564,38.2400,80,97,154511
1.8280,0.1613,37.9900,80,97,154514
1.7595,0.1711,38.1500,80,97,154517
1.7302,0.1564,38.2700,80,97,154521
1.7302,0.1515,38.3300,80,97,154524
1.7155,0.1613,38.3000,80,97,154527
1.7595,0.1711,37.9900,80,97,154531
1.7058,0.1613,38.2400,80,97,154534
1.6960,0.1564,38.1800,80,97,154537
1.7009,0.1564,38.2400,80,97,154542
1.7009,0.1564,38.2400,80,97,154545
1.7449,0.1613,38.1100,80,97,154548
1.7155,0.1613,38.3000,80,97,154551
1.7204,0.1564,38.1500,80,97,154555
1.7009,0.1515,38.2400,80,97,154558
1.6960,0.1564,38.2400,80,97,154561
1.7155,0.1662,38.0800,80,97,154565
1.7107,0.1613,38.2100,80,97,154568
1.7302,0.1613,38.0800,80,97,154571
1.7546,0.1613,38.2700,80,97,154575
1.8671,0.1564,38.2700,80,97,154578
1.9844,0.1564,38.1100,80,97,154582
2.0968,0.1662,38.2400,80,97,154585
2.2825,0.1564,38.0800,80,97,154589
2.4487,0.1564,38.2100,80,97,154592
2.6051,0.1564,38.1800,80,97,154595
2.6295,0.1564,38.1800,80,97,154599
2.5024,0.1564,38.3000,80,97,154602
2.3509,0.1613,38.0500,80,97,154605
2.1065,0.1564,38.2400,80,97,154609
1.9355,0.1613,38.3000,80,97,154612
1.8328,0.1613,38.2100,80,97,154615
1.7546,0.1564,38.2400,80,97,154618
1.7644,0.1662,37.9600,80,97,154622
1.6960,0.1613,38.1100,80,97,154626
1.6618,0.1515,38.2700,80,97,154629
1.6520,0.1613,38.1800,80,97,154633
1.6227,0.1564,38.3000,80,97,154636
1.6618,0.1711,37.9900,80,97,154639
1.6178,0.1613,38.1500,80,97,154643
1.6227,0.1564,38.2100,80,97,154646
1.5836,0.1515,38.3300,80,97,154649
1.5787,0.1857,38.3000,80,97,154653
1.6520,0.1760,38.0800,80,97,154656
1.5982,0.1515,38.2100,80,97,154659
1.6227,0.1564,38.1500,80,97,154662
1.6178,0.1564,38.2400,80,97,154667
1.6325,0.1564,38.1100,80,97,154670
1.6520,0.1662,38.2100,80,97,154673
1.6276,0.1515,38.3000,80,97,154677
1.6471,0.1662,38.1100,80,97,154680
1.6325,0.1515,37.9900,80,97,154683
1.6422,0.1564,38.2100,80,97,154687
1.6667,0.1662,38.1800,80,97,154690
1.6569,0.1711,38.2400,80,97,154693
1.6813,0.1564,38.0800,80,97,154697
1.6716,0.1564,38.2100,80,97,154700
1.6764,0.1662,38.3000,80,97,154703
1.6960,0.1515,38.0800,80,97,154706
1.6862,0.1564,38.2700,80,97,154711
1.7253,0.1711,37.9900,80,97,154714
1.7058,0.1662,38.2100,80,97,154717
1.7107,0.1564,38.1800,80,97,154721
1.7253,0.1613,38.2400,80,97,154724
1.7204,0.1564,38.2400,80,97,154727
1.7693,0.1760,37.9900,80,97,154731
1.7302,0.1662,38.2100,80,97,154734
1.7302,0.1711,38.2400,80,97,154737
1.7253,0.1613,38.2400,80,97,154741
1.7449,0.1564,38.2400,80,97,154744
1.8084,0.1711,38.0800,80,97,154747
1.7693,0.1613,38.3000,80,97,154750
1.7742,0.1808,38.1500,80,97,154755
1.7693,0.1515,38.2400,80,97,154758
1.7693,0.1564,38.2700,80,97,154761
1.8133,0.1613,38.0500,80,97,154765
1.7986,0.1613,38.1100,80,97,154768
1.8133,0.1564,38.1500,80,97,154771
1.7937,0.1564,38.2400,80,97,154775
1.8035,0.1564,38.2400,80,97,154778
1.8328,0.1613,38.1500,80,97,154781
1.8280,0.1515,38.2400,80,97,154785
1.8622,0.1662,38.0800,80,97,154788
1.8426,0.1564,38.2400,80,97,154791
1.8328,0.1515,38.2400,80,97,154795
1.8817,0.1662,38.1800,80,97,154799
1.8573,0.1564,38.2400,80,97,154802
1.9013,0.1564,38.0500,80,97,154805
1.8964,0.1564,38.2400,80,97,154809
1.9355,0.1564,38.2700,80,97,154812
1.9306,0.1662,38.2100,80,97,154815
1.9110,0.1564,38.2400,80,97,154819
1.9648,0.1662,37.9900,80,97,154822
1.9453,0.1613,38.0800,80,97,154825
1.9355,0.1564,38.2400,80,97,154829
1.9501,0.1613,38.2400,80,97,154832
1.9355,0.1564,38.3000,80,97,154835
1.9892,0.1613,37.9600,80,97,154839
1.9599,0.1613,38.0800,80,97,154843
1.9453,0.2053,38.2100,80,97,154846
1.9453,0.1564,38.2400,80,97,154849
1.9404,0.1564,38.3000,80,97,154853
1.9844,0.2053,38.1100,80,97,154856
1.9257,0.1613,38.2400,80,97,154859
1.9257,0.1564,38.0800,80,97,154863
1.9062,0.1417,38.2400,80,97,154866
1.7742,0.1564,38.2700,80,97,154871
1.7644,0.1564,38.2700,80,97,154874
1.7644,0.1662,38.0500,80,97,154877
1.7058,0.1613,38.2400,80,97,154882
1.7058,0.1613,38.0500,80,97,154885
1.6716,0.1515,38.1800,80,97,154888
1.6471,0.1564,38.2400,80,97,154891
1.6667,0.1711,38.1800,80,97,154895
1.6325,0.1564,38.2700,80,97,154898
1.6618,0.1613,37.9900,80,97,154901
1.6325,0.1564,38.1800,80,97,154905
1.6178,0.1564,38.2400,80,97,154908
1.6227,0.1613,38.3600,80,97,154911
1.6178,0.1564,38.2400,80,97,154915
1.6667,0.1515,38.0500,80,97,154918
1.6276,0.1564,38.2100,80,97,154921
1.6129,0.1564,38.2100,80,97,154925
1.6227,0.1613,38.2400,80,97,154929
1.6178,0.1564,38.2700,80,97,154932
1.6764,0.1808,38.1100,80,97,154935
1.6569,0.1613,38.1800,80,97,154939
1.6569,0.1515,38.1500,80,97,154942
1.6520,0.1564,38.2700,80,97,154945
1.6569,0.1564,38.2700,80,97,154949
1.6960,0.1662,38.0800,80,97,154952
1.6813,0.1613,38.2100,80,97,154955
1.6911,0.1613,38.0800,80,97,154959
1.6716,0.1564,38.2400,80,97,154962
1.6764,0.1564,38.3000,80,97,154966
1.6960,0.1564,38.0500,80,97,154970
1.6911,0.1564,38.2100,80,97,154973
1.7302,0.1564,38.1100,80,97,154976
1.7009,0.1515,38.2100,80,97,154979
1.6960,0.1564,38.2400,80,97,154983
1.7107,0.1613,38.1100,80,97,154986
1.6960,0.1564,38.2100,80,97,154989
1.7253,0.1564,38.0500,80,97,154993
1.7058,0.1564,38.2700,80,97,154996
1.7107,0.1564,38.2700,80,97,154999
1.7595,0.1662,38.2100,80,97,155003
1.7107,0.1564,38.2100,80,97,155006
1.7449,0.1662,38.0200,80,97,155010
1.7155,0.1515,38.1500,80,97,155013
1.7009,0.1564,38.1800,80,97,155017
1.7155,0.1613,38.2100,80,97,155020
1.7058,0.1564,38.2700,80,97,155023
1.7595,0.1760,37.9900,80,97,155027
1.7351,0.1613,38.2400,80,97,155030
1.7155,0.1515,38.1800,80,97,155033
1.7107,0.1515,38.2400,80,97,155037
1.7009,0.1564,38.2700,80,97,155040
1.7840,0.1711,38.0800,80,97,155043
1.7253,0.1613,38.2700,80,97,155047
1.7400,0.1613,38.1500,80,97,155051
1.7400,0.1564,38.3000,80,97,155054
1.7400,0.1564,38.2400,80,97,155057
1.7546,0.1662,38.1800,80,97,155061
1.7302,0.1613,38.2400,80,97,155064
1.7400,0.1613,38.0800,80,97,155067
1.7253,0.1662,38.2100,80,97,155071
1.7253,0.1515,38.2700,80,97,155074
1.7644,0.1857,38.0800,80,97,155077
1.7400,0.1613,38.1800,80,97,155081
1.7644,0.1564,38.2100,80,97,155084
1.7400,0.1613,38.2100,80,97,155087
1.7595,0.1564,38.2700,80,97,155090
1.7693,0.1711,38.1100,80,97,155095
1.7546,0.1564,38.2400,80,97,155098
1.7840,0.1613,38.0200,80,97,155101
1.7595,0.1613,38.1800,80,97,155105
1.7546,0.1564,38.2700,80,97,155108
1.7742,0.1662,38.3000,80,97,155111
1.7644,0.1613,38.2700,80,97,155115
1.7986,0.1515,37.9600,80,97,155118
1.7449,0.1613,38.1500,80,97,155121
1.7449,0.1564,38.2400,80,97,155125
1.7498,0.1613,38.2400,80,97,155128
1.7498,0.1515,38.2700,80,97,155131
1.8084,0.1760,38.0500,80,97,155136
1.7889,0.1613,38.1800,80,97,155139
1.7693,0.1515,38.1800,80,97,155142
1.7889,0.1564,38.2100,80,97,155145
1.7693,0.1564,38.2700,80,97,155149
1.8035,0.1662,38.0200,80,97,155152
1.7791,0.1613,38.2100,80,97,155155
1.7840,0.1613,38.1800,80,97,155159
1.7644,0.1564,38.2700,80,97,155162
1.7693,0.1564,38.2400,80,97,155165
1.7937,0.1613,38.1100,80,97,155169
1.7889,0.1564,38.2400,80,97,155172
1.8231,0.1662,38.1500,80,97,155175
1.8084,0.1564,38.2400,80,97,155179
1.8231,0.1564,38.3000,80,97,155183
1.8426,0.1711,38.1500,80,97,155186
1.8377,0.1564,38.2700,80,97,155189
1.8671,0.1564,38.1800,80,97,155193
1.8426,0.1564,38.2400,80,97,155196
1.8475,0.1515,38.3600,80,97,155199
1.8671,0.1662,38.1800,80,97,155203
1.8573,0.1564,38.2700,80,97,155206
1.9110,0.1613,37.9900,80,97,155209
1.9062,0.1613,38.1500,80,97,155213
1.9013,0.1515,38.2700,80,97,155216
1.9257,0.1613,38.1800,80,97,155219
1.9062,0.1564,38.2400,80,97,155224
1.9599,0.1760,37.9900,80,97,155227
1.9062,0.1613,38.1500,80,97,155230
1.8719,0.1564,38.2100,80,97,155233
1.8573,0.1613,38.2100,80,97,155237
1.8280,0.1515,38.2700,80,97,155240
1.8622,0.1662,38.0500,80,97,155243
1.8084,0.1613,38.1800,80,97,155247
1.8035,0.1564,38.1100,80,97,155250
1.8084,0.1564,38.2400,80,97,155253
1.7791,0.1564,38.1800,80,97,155257
1.7889,0.1613,38.1800,80,97,155260
1.7546,0.1515,38.2700,80,97,155264
1.7693,0.1613,38.0200,80,97,155268
1.7400,0.1564,38.2700,80,97,155271
1.7351,0.1515,38.3300,80,97,155274
1.7595,0.1711,38.0800,80,97,155277
1.7302,0.1515,38.2400,80,97,155281
1.7498,0.1564,38.1100,80,97,155284
1.7546,0.1564,38.1800,80,97,155287
1.7204,0.1515,38.2700,80,97,155291
1.7449,0.1564,38.0800,80,97,155294
1.7302,0.1564,38.2400,80,97,155297
1.7693,0.1613,37.8300,80,97,155301
1.7498,0.1613,38.1800,80,97,155304
1.7302,0.1515,38.2100,80,97,155308
1.7351,0.1662,38.1800,80,97,155312
1.7107,0.1564,38.2700,80,97,155315
1.7693,0.1662,37.9600,80,97,155318
1.7791,0.1564,38.1500,80,97,155321
1.8622,0.1564,38.2400,80,97,155325
1.9844,0.1613,38.2100,80,97,155328
2.1212,0.1564,38.3600,80,97,155331
2.3558,0.1857,38.0500,80,97,155335
2.4976,0.1613,38.2100,80,97,155338
2.6442,0.1515,38.1800,80,97,155341
2.6442,0.1564,38.2400,80,97,155345
2.5220,0.1515,38.2700,80,97,155348
2.3851,0.1662,38.0500,80,97,155352
2.1652,0.1613,38.2100,80,97,155356
2.0137,0.1564,37.4000,80,97,155359
1.8866,0.1564,38.2400,80,97,155362
1.8475,0.1564,38.2400,80,97,155365
1.8035,0.1613,38.0200,80,97,155369
1.7498,0.1613,38.2100,80,97,155372
1.7644,0.1662,38.1500,80,97,155375
1.6911,0.1564,38.2700,80,97,155379
1.6667,0.1515,38.2700,80,97,155382
1.6618,0.1515,38.2100,80,97,155385
1.6373,0.1711,38.2400,80,97,155389
1.6618,0.1564,38.0500,80,97,155393
1.6325,0.1613,38.2400,80,97,155396
1.6325,0.1564,38.2400,80,97,155400
1.6569,0.1613,38.2100,80,97,155403
1.6520,0.1564,38.2400,80,97,155406
1.6960,0.1662,38.0500,80,97,155409
1.6862,0.1662,38.1500,80,97,155413
1.6764,0.1564,38.2400,80,97,155416
1.6960,0.1613,38.1800,80,97,155419
1.6813,0.1613,38.2700,80,97,155423
1.7351,0.1662,37.9900,80,97,155426
1.7302,0.1613,38.0800,80,97,155429
1.7204,0.1564,38.1800,80,97,155433
1.7351,0.1613,38.1800,80,97,155437
1.7351,0.1564,38.3000,80,97,155440
1.7937,0.1711,38.0800,80,97,155444
1.7644,0.1613,38.1800,80,97,155447
1.7644,0.1564,38.1800,80,97,155450
1.7546,0.1515,38.2700,80,97,155453
1.7546,0.1564,38.2400,80,97,155457
1.7889,0.1662,38.1500,80,97,155460
1.7644,0.1857,38.2400,80,97,155463
1.8084,0.1613,38.0800,80,97,155467
1.7742,0.1564,38.2700,80,97,155470
1.7791,0.1613,38.2700,80,97,155473
1.8084,0.1515,38.1500,80,96,155478
1.8524,0.1662,38.3600,80,96,155481
1.8377,0.1564,38.2700,80,96,155485
1.8866,0.1613,37.9900,80,96,155488
1.8622,0.1466,38.1500,80,96,155491
1.8573,0.1564,38.2700,80,96,155495
1.8768,0.1613,38.1500,80,96,155498
1.8671,0.1662,38.2400,80,96,155501
1.9208,0.1711,37.9900,80,96,155504
1.8817,0.1711,38.1800,80,96,155508
1.8768,0.1564,38.1800,80,96,155511
1.8866,0.1564,38.2400,80,96,155514
1.8964,0.1564,38.2700,80,96,155518
1.9501,0.1711,38.0800,80,96,155522
1.9257,0.1564,38.3000,80,96,155525
1.9453,0.1564,38.1500,80,96,155529
1.9746,0.1613,38.2400,80,96,155532
1.9550,0.1515,38.2700,80,96,155535
2.0039,0.1857,38.1100,80,96,155539
1.9941,0.1613,38.2700,80,96,155542
2.0088,0.1613,38.1100,80,96,155545
1.9795,0.1857,38.2700,80,96,155548
1.9892,0.1564,38.2700,80,96,155552
2.0283,0.1613,38.2100,80,96,155555
2.0088,0.1564,38.2400,80,96,155558
2.0430,0.1906,38.1100,80,96,155563
2.0479,0.1564,38.2100,80,96,155566
2.0283,0.1515,38.2400,80,96,155569
2.0479,0.1613,38.3600,80,96,155573
2.0381,0.1760,38.2400,80,96,155576
2.0821,0.1662,38.0500,80,96,155579
2.0430,0.1564,38.2100,80,96,155582
2.0381,0.1613,38.2400,80,96,155586
2.0479,0.1662,38.1800,80,96,155589
2.0186,0.1564,38.4000,80,96,155592
2.0528,0.1662,37.9900,80,96,155596
2.0137,0.1613,38.1500,80,96,155599
1.9697,0.1564,38.3300,80,96,155602
1.9844,0.1662,38.2100,80,96,155607
1.9208,0.1515,38.2700,80,96,155610
1.9501,0.1711,37.9900,80,96,155613
1.8964,0.1613,38.0800,80,96,155617
1.8573,0.1515,38.2400,80,96,155620
1.8475,0.1662,38.2400,80,96,155623
1.8182,0.1564,38.2700,80,96,155626
1.8328,0.1711,38.0800,80,96,155630
1.7791,0.1613,38.2100,80,96,155633
1.7595,0.1564,38.1100,80,96,155636
1.7302,0.1613,38.3000,80,96,155640
1.7253,0.1564,38.2700,80,96,155643
1.7449,0.1662,38.2100,80,96,155646
1.7204,0.1564,38.2100,80,96,155651
1.7302,0.1613,38.1100,80,96,155654
1.7155,0.1662,38.2700,80,96,155657
1.7253,0.1662,38.2400,80,96,155660
1.7449,0.1662,38.0200,80,96,155664
1.7155,0.1564,38.2400,80,96,155667
1.7400,0.1564,38.1500,80,96,155670
1.7155,0.1564,38.1800,80,96,155674
1.7400,0.1564,38.2400,80,96,155677
1.7595,0.1613,38.0200,80,96,155680
1.7449,0.1564,38.2700,80,96,155684
1.7742,0.1515,38.0200,80,96,155687
1.7644,0.1564,38.1800,80,96,155691
1.7644,0.1564,38.3300,80,96,155695
1.7889,0.1613,38.0800,80,96,155698
1.7986,0.1613,38.2400,80,96,155701
1.8084,0.1662,37.9600,80,96,155704
1.7644,0.1564,38.1800,80,96,155708
1.7644,0.1564,38.2700,80,96,155711
1.7840,0.1613,38.1800,80,96,155714
1.7840,0.1564,38.2700,80,96,155718
1.8475,0.1711,38.0200,80,96,155721
1.8133,0.1515,38.1500,80,96,155724
1.8035,0.1613,38.2100,80,96,155728
1.8035,0.1613,38.2700,80,96,155731
1.7986,0.1613,38.3000,80,96,155735
1.8475,0.1613,37.8700,80,96,155739
1.8328,0.1613,38.4000,80,96,155742
1.8475,0.1466,38.1800,80,96,155745
1.8328,0.1564,38.2100,80,96,155748
1.8231,0.1564,38.2100,80,96,155752
1.8377,0.1662,38.0800,80,96,155755
1.8231,0.1515,38.2100,80,96,155758
1.8475,0.1711,38.0800,80,96,155762
1.8280,0.1564,38.2400,80,96,155765
1.8280,0.1564,38.4000,80,96,155768
1.8328,0.1564,38.1500,80,96,155772
1.8182,0.1662,38.2400,80,96,155776
1.8426,0.1515,38.0800,80,96,155779
1.8475,0.1564,38.2700,80,96,155783
1.8231,0.1564,38.2400,80,96,155786
1.8524,0.1857,38.1800,80,96,155789
1.8328,0.1515,38.2700,80,96,155792
1.8671,0.1613,38.0800,80,96,155796
1.8671,0.1613,38.1500,80,96,155799
1.8328,0.1515,38.3300,80,96,155802
1.8671,0.1662,38.1800,80,96,155806
1.8328,0.1515,38.2700,80,96,155809
1.8817,0.1760,37.9600,80,96,155812
1.8475,0.1515,38.0800,80,96,155816
1.8377,0.1515,38.2100,80,96,155820
1.8426,0.1613,38.2400,80,96,155823
1.8328,0.1564,38.1500,80,96,155827
1.8866,0.1760,38.0200,80,96,155830
1.8524,0.1515,38.1800,80,96,155833
1.8475,0.1857,38.1500,80,96,155836
1.8377,0.1564,38.2100,80,96,155840
1.8377,0.1564,38.3000,80,96,155843
1.8622,0.1662,38.1800,80,96,155846
1.8426,0.1613,38.1800,80,96,155850
1.8866,0.1564,38.1100,80,96,155853
1.8426,0.1564,38.2700,80,96,155856
1.8475,0.1564,38.2700,80,96,155860
1.8817,0.1662,38.1100,80,96,155864
1.8573,0.1564,38.2400,80,96,155867
1.8817,0.1564,38.0800,80,96,155871
1.8426,0.1564,38.2100,80,96,155874
1.8426,0.1515,38.3000,80,96,155877
1.8524,0.1613,38.1100,80,96,155880
1.8426,0.1613,38.2700,80,96,155884
1.8768,0.1564,38.0200,80,96,155887
1.8524,0.1564,38.2100,80,96,155890
1.8475,0.1466,38.2100,80,96,155894
1.8622,0.1662,38.2400,80,96,155897
1.8475,0.1564,38.2700,80,96,155900
1.9013,0.1662,37.9300,80,96,155905
1.8475,0.1564,38.2100,80,96,155908
1.8475,0.1613,38.2700,80,96,155911
1.8622,0.1613,38.2400,80,96,155915
1.8622,0.1564,38.2400,80,96,155918
1.9159,0.1711,38.2100,80,96,155921
1.9110,0.1662,38.1800,80,96,155925
1.8671,0.1515,38.2100,80,96,155928
1.8915,0.1613,38.2400,80,96,155931
1.8671,0.1515,38.2400,80,96,155934
1.9208,0.2053,38.0800,80,96,155938
1.9159,0.1613,38.2100,80,96,155941
1.9355,0.1564,38.2100,80,96,155944
1.9208,0.1564,38.2400,80,96,155949
1.9208,0.1564,38.3000,80,96,155952
1.9599,0.1613,38.1100,80,96,155955
1.9355,0.1613,38.2400,80,96,155959
1.9648,0.1662,38.1800,80,96,155962
1.9355,0.1662,38.2700,80,96,155965
1.9404,0.1564,38.2100,80,96,155969
1.9648,0.1613,38.1500,80,96,155972
1.9990,0.1564,38.2400,80,96,155975
1.9990,0.1564,38.0500,80,96,155978
1.9795,0.1564,38.2400,80,96,155982
1.9795,0.1662,38.2400,80,96,155985
1.9892,0.1515,38.1800,80,96,155988
1.9795,0.1564,38.2100,80,96,155993
1.9795,0.1613,37.9600,80,96,155996
1.9257,0.1711,38.1500,80,96,155999
1.8964,0.1564,38.2700,80,96,156003
1.9013,0.1613,38.2400,80,96,156006
1.8964,0.1564,38.2400,80,96,156009
1.9208,0.1662,37.9600,80,96,156013
1.8768,0.1662,38.1800,80,96,156016
1.8573,0.1564,38.2400,80,96,156019
1.8328,0.1613,38.3300,80,96,156022
1.8084,0.1466,38.2400,80,96,156026
1.8475,0.1711,38.0800,80,96,156029
1.8035,0.1613,38.2400,80,96,156033
1.7937,0.1564,38.1500,80,96,156037
1.7889,0.1515,38.2400,80,96,156040
1.7889,0.1808,38.2700,80,96,156043
1.8182,0.1662,38.1800,80,96,156047
1.7937,0.1564,38.2700,80,96,156050
1.8182,0.1857,38.1100,80,96,156053
1.8084,0.1564,38.4600,80,96,156057
1.8182,0.1564,38.2400,80,96,156060
1.8475,0.1613,38.0800,80,96,156063
1.8182,0.1564,38.3300,80,96,156066
1.8328,0.1662,38.1800,80,96,156070
1.7986,0.1564,38.1800,80,96,156073
1.7937,0.1564,38.3300,80,96,156077
1.8426,0.1515,38.0800,80,96,156081
1.8817,0.1564,38.2700,80,96,156084
2.0039,0.1613,38.0200,80,96,156087
2.8104,0.1662,37.9600,80,96,156091
2.7322,0.1564,37.9900,80,96,156094
2.5611,0.1515,38.2100,80,96,156098
2.3705,0.1613,38.3000,80,96,156101
2.1701,0.1564,38.2400,80,96,156104
