ecg,gsr,temp,hr,spo2,timest
1.7693,0.3470,38.5200,79,99,98919
1.8133,0.3568,38.3000,79,99,98923
1.8182,0.3568,38.4900,79,99,98926
1.7840,0.3421,38.5800,79,99,98929
1.7937,0.3470,38.7400,79,99,98932
1.7889,0.3470,38.5500,79,99,98936
1.8280,0.3617,38.3300,79,99,98939
1.7986,0.3519,38.7400,79,99,98942
1.7889,0.3470,38.5500,79,99,98946
1.7986,0.3617,38.5500,79,99,98950
1.7791,0.3470,38.5200,79,99,98953
1.8231,0.3519,38.3000,79,99,98956
1.7791,0.3275,38.5500,79,99,98959
1.7937,0.3519,38.5500,79,99,98963
1.8084,0.3519,38.5200,79,99,98966
1.7840,0.3470,38.5500,79,99,98969
1.8182,0.3519,38.3000,79,99,98972
1.7889,0.3470,38.3600,79,99,98976
1.7840,0.3421,38.5500,79,99,98979
1.8035,0.3519,38.4900,79,99,98982
1.7937,0.3519,38.5500,79,99,98985
1.8231,0.3519,38.3000,79,99,98990
1.7791,0.3470,38.4900,79,99,98993
1.7889,0.3421,38.5500,79,99,98996
1.7986,0.3568,38.4900,79,99,98999
1.7889,0.3470,38.5500,79,99,99003
1.8182,0.3519,38.3300,79,99,99006
1.7986,0.3275,38.5800,79,99,99009
1.7937,0.3470,38.5200,79,99,99012
1.8084,0.3568,38.4900,79,99,99016
1.7889,0.3421,38.5500,79,99,99019
1.8280,0.3519,38.3300,79,99,99022
1.7986,0.3470,38.5200,79,99,99025
1.7889,0.3470,38.5500,79,99,99030
1.8084,0.3519,38.4900,79,99,99033
1.8035,0.3666,38.6500,79,99,99036
1.8524,0.3519,38.3300,79,99,99039
1.8377,0.3470,38.4900,79,99,99043
1.8573,0.3470,38.5500,79,99,99046
1.8817,0.3568,38.4600,79,99,99049
1.8671,0.3421,38.5500,79,99,99052
1.9159,0.3470,38.3300,79,99,99056
1.8866,0.3470,38.5800,79,99,99059
1.9062,0.3421,38.6800,79,99,99062
1.9453,0.3568,38.4600,79,99,99065
1.9550,0.3519,38.5500,79,99,99069
2.0283,0.3568,38.3300,79,99,99073
2.0283,0.3470,38.4600,79,99,99076
2.0235,0.3275,38.5500,79,99,99079
2.0577,0.3519,38.4600,79,99,99083
2.0332,0.3470,38.4300,79,99,99086
2.0626,0.3519,38.3300,79,99,99089
2.0088,0.3421,38.4900,79,99,99092
1.9892,0.3421,38.6800,79,99,99096
1.9941,0.3470,38.4300,79,99,99099
1.9501,0.3324,38.5500,79,99,99102
1.9599,0.3470,37.7700,79,99,99105
1.9013,0.3470,38.5800,79,99,99109
1.8915,0.3372,38.5500,79,99,99112
1.8573,0.3812,38.5500,79,99,99116
1.8035,0.3519,38.5800,79,99,99119
1.8035,0.3519,38.3300,79,99,99123
1.7449,0.3372,38.4600,79,99,99126
1.7204,0.3470,38.5800,79,99,99129
1.7155,0.3519,38.4600,79,99,99132
1.7009,0.3470,38.5500,79,99,99136
1.7204,0.3519,38.3600,79,99,99139
1.7400,0.3617,38.3000,79,99,99143
1.6911,0.3372,38.4900,79,99,99146
1.6911,0.3421,38.5200,79,99,99149
1.6862,0.3470,38.5200,79,99,99152
1.6716,0.3421,38.5500,79,99,99156
1.7400,0.3519,38.2700,79,99,99160
1.6520,0.3519,38.4600,79,99,99163
1.5934,0.3421,38.5500,79,99,99166
1.5689,0.3470,38.5200,79,99,99170
1.5738,0.3421,38.5500,79,99,99173
1.6862,0.3568,38.3300,79,99,99176
1.7889,0.3470,38.4000,79,99,99179
1.9990,0.3470,38.5500,79,99,99183
2.2874,0.3715,38.4900,79,99,99186
2.6197,0.3470,38.5800,79,99,99189
3.0547,0.3568,38.2700,79,99,99192
3.3284,0.3421,38.4900,79,99,99196
3.5924,0.3421,38.5800,79,99,99200
3.6901,0.3470,38.5200,79,99,99203
3.5191,0.3421,38.5500,79,99,99206
3.2600,0.3568,38.2700,79,99,99210
2.7713,0.3519,38.4900,79,99,99213
2.3167,0.3324,38.5500,79,99,99216
1.9599,0.3568,38.5200,79,99,99219
1.6911,0.3470,38.5500,79,99,99223
1.5689,0.3568,38.3000,79,99,99226
1.4516,0.3568,38.4600,79,99,99229
1.4076,0.3421,38.5500,79,99,99232
1.3930,0.3470,38.4900,79,99,99236
1.3881,0.3421,38.5200,79,99,99239
1.4321,0.3568,38.3000,79,99,99243
1.4076,0.3421,38.5200,79,99,99246
1.4223,0.3421,38.5500,79,99,99250
1.4418,0.3421,38.5200,79,99,99253
1.4467,0.3421,38.4600,79,99,99256
1.5005,0.3568,38.3000,79,99,99259
1.4907,0.3617,38.4600,79,99,99263
1.4956,0.3421,38.5800,79,99,99266
1.5200,0.3519,38.4900,79,99,99269
1.5249,0.3421,38.5500,79,99,99272
1.5738,0.3568,38.2700,79,99,99276
1.5591,0.3470,38.5500,79,99,99279
1.5738,0.3421,38.5500,79,99,99282
1.6031,0.3519,38.4900,79,99,99286
1.5934,0.3470,38.5200,79,99,99290
1.6471,0.3568,38.2700,79,99,99293
1.6080,0.3421,38.5200,79,99,99296
1.6373,0.3470,38.5500,79,99,99299
1.6569,0.3470,38.5800,79,99,99303
1.6667,0.3470,38.5500,79,99,99306
1.7204,0.3519,38.3000,79,99,99309
1.7058,0.3519,38.5800,79,99,99312
1.7009,0.3470,38.5800,79,99,99316
1.7155,0.3519,38.5500,79,99,99319
1.7058,0.3470,38.7700,79,99,99322
1.7498,0.3470,38.3300,79,99,99325
1.7155,0.3519,38.4900,79,99,99329
1.7302,0.3421,38.7400,79,99,99333
1.7595,0.3519,38.4900,79,99,99336
1.7498,0.3470,38.5500,79,99,99339
1.7937,0.3519,38.3300,79,99,99342
1.7546,0.3470,38.5500,79,99,99346
1.7742,0.3372,38.5500,79,99,99349
1.7693,0.3763,38.5200,79,99,99352
1.7644,0.3421,38.5500,79,99,99355
1.8133,0.3470,38.3300,79,99,99359
1.7986,0.3519,38.4300,79,99,99362
1.7937,0.3421,37.7700,79,99,99365
1.8231,0.3519,38.5200,79,99,99368
1.8475,0.3470,38.5500,79,99,99373
1.8573,0.3519,38.3600,79,99,99376
1.8328,0.3470,38.4900,79,99,99379
1.8426,0.3519,38.5800,79,99,99382
1.8622,0.3617,38.4600,79,99,99386
1.8573,0.3470,38.5500,79,99,99389
1.9013,0.3470,38.3300,79,99,99392
1.8719,0.3470,38.5500,79,99,99395
1.8915,0.3421,38.5800,79,99,99399
1.9159,0.3470,38.5200,79,99,99402
1.9208,0.3421,38.5500,79,99,99405
1.9697,0.3519,38.3300,79,99,99408
1.9550,0.3470,38.4600,79,99,99412
1.9648,0.3421,38.5500,79,99,99416
1.9990,0.3421,38.4600,79,99,99419
2.0088,0.3470,38.5800,79,99,99422
2.0626,0.3617,38.3600,79,99,99426
2.0528,0.3421,38.4600,79,99,99429
2.0723,0.3421,38.5500,79,99,99432
2.1114,0.3519,38.4300,79,99,99435
2.0919,0.3617,38.4900,79,99,99439
2.1359,0.3470,38.3600,79,99,99442
2.1114,0.3470,38.5500,79,99,99445
2.1310,0.3470,38.6200,79,99,99448
2.1554,0.3519,38.4600,79,99,99452
2.1310,0.3470,38.5500,79,99,99456
2.1603,0.3519,38.4300,79,99,99459
2.1261,0.3421,38.4900,79,99,99462
2.1163,0.3421,38.5500,79,99,99466
2.1163,0.3519,38.5200,79,99,99469
2.0821,0.3470,38.5500,79,99,99472
2.0821,0.3519,38.5500,79,99,99475
2.0137,0.3421,38.4900,79,99,99479
1.9892,0.3470,38.5500,79,99,99482
1.9795,0.3470,38.6500,79,99,99485
1.9355,0.3470,38.6200,79,99,99488
1.9208,0.3519,38.4300,79,99,99492
1.8573,0.3372,38.5500,79,99,99495
1.8182,0.3421,38.5500,79,99,99499
1.7986,0.3519,38.4300,79,99,99502
1.7449,0.3470,38.5500,79,99,99506
1.7351,0.3519,38.4300,79,99,99509
1.6911,0.3421,38.4900,79,99,99512
1.6716,0.3421,38.5800,79,99,99515
1.6716,0.3519,37.6500,79,99,99519
1.6569,0.3470,38.5500,79,99,99522
1.6764,0.3470,38.4000,79,99,99525
1.6520,0.3421,38.4900,79,99,99528
1.6520,0.3372,38.5200,79,99,99532
1.6618,0.3470,38.3600,79,99,99535
1.6471,0.3470,38.5500,79,99,99538
1.6764,0.3421,38.4000,79,99,99542
1.6569,0.3568,38.5500,79,99,99546
1.6716,0.3421,38.5500,79,99,99549
1.6911,0.3470,38.4300,79,99,99552
1.6716,0.3421,38.5500,79,99,99555
1.6911,0.3519,38.4000,79,99,99559
1.6716,0.3421,38.4900,79,99,99562
1.6862,0.3421,38.5500,79,99,99565
1.7009,0.3470,38.4600,79,99,99568
1.6960,0.3959,38.5200,79,99,99572
1.7204,0.3470,38.4300,79,99,99575
1.6911,0.3421,38.5200,79,99,99578
1.7009,0.3324,38.5500,79,99,99581
1.7155,0.3470,38.7100,79,99,99586
1.7204,0.3470,38.5500,79,99,99589
1.7498,0.3519,38.4300,79,99,99592
1.7302,0.3372,38.5800,79,99,99595
1.7400,0.3421,37.7400,79,99,99599
1.7644,0.3519,38.4300,79,99,99602
1.7400,0.3470,38.5500,79,99,99605
1.7840,0.3470,38.5500,79,99,99608
1.7595,0.3421,38.4900,79,99,99612
1.7693,0.3372,38.5500,79,99,99615
1.7889,0.3568,38.4600,79,99,99618
1.7742,0.3470,38.5500,79,99,99621
1.7937,0.3519,38.4300,79,99,99625
1.7693,0.3372,38.5500,79,99,99629
1.7840,0.3715,38.5500,79,99,99632
1.7986,0.3470,38.4000,79,99,99635
1.7937,0.3275,38.5500,79,99,99639
1.8280,0.3470,38.4000,79,99,99642
1.8035,0.3470,38.5500,79,99,99645
1.8426,0.3421,38.5500,79,99,99648
1.8328,0.3617,38.4000,79,99,99652
1.7986,0.3421,38.7700,79,99,99655
1.8280,0.3470,38.4300,79,99,99658
1.7937,0.3470,38.5200,79,99,99661
1.8035,0.3421,38.5500,79,99,99665
1.8328,0.3519,38.4900,79,99,99668
1.8426,0.3470,38.5500,79,99,99672
1.8426,0.3519,38.4600,79,99,99675
1.8084,0.3470,38.4000,79,99,99679
1.8133,0.3421,38.5500,79,99,99682
1.8231,0.3275,38.4600,79,99,99685
1.8182,0.3519,38.5200,79,99,99688
1.8377,0.3470,38.4300,79,99,99692
1.7937,0.3470,38.5500,79,99,99695
1.7889,0.3617,38.6200,79,99,99698
1.8084,0.3519,38.4000,79,99,99701
1.7840,0.3470,38.5500,79,99,99705
1.8133,0.3568,38.4300,79,99,99708
1.7840,0.3519,38.5200,79,99,99712
1.7840,0.3421,38.5500,79,99,99715
1.8084,0.3470,38.4600,79,99,99719
1.7840,0.3617,38.5500,79,99,99722
1.8084,0.3519,38.4600,79,99,99725
1.7791,0.3421,38.5500,79,99,99728
1.7742,0.3470,38.5500,79,99,99732
1.7791,0.3519,38.4900,79,99,99735
1.7693,0.3470,38.6800,79,99,99738
1.7937,0.3568,38.4600,79,99,99741
1.7693,0.3421,38.5500,79,99,99745
1.7742,0.3372,38.5500,79,99,99748
1.8035,0.3617,38.4000,79,99,99751
1.7986,0.3519,38.4900,79,99,99757
1.7791,0.3421,38.5800,79,99,99760
1.8133,0.3519,38.3300,79,99,99763
1.7840,0.3470,38.4600,79,99,99767
1.7791,0.3421,38.5800,79,99,99770
1.7986,0.3568,38.4600,79,99,99773
1.7889,0.3470,38.5500,79,99,99776
1.8280,0.3617,38.2700,79,99,99780
1.7937,0.3470,38.6500,79,99,99783
1.8035,0.3421,38.5500,79,99,99786
1.8280,0.3519,38.4600,79,99,99789
1.8280,0.3421,38.5500,79,99,99793
1.8426,0.3519,38.3300,79,99,99796
1.8133,0.3470,38.4300,79,99,99800
1.8084,0.3421,38.5500,79,99,99803
1.8231,0.3470,38.4900,79,99,99807
1.8084,0.3470,38.5200,79,99,99810
1.8426,0.3519,38.3300,79,99,99813
1.8133,0.3372,38.4900,79,99,99816
1.8084,0.3470,38.8100,79,99,99820
1.8182,0.3470,38.4600,79,99,99823
1.7937,0.3372,38.5500,79,99,99826
1.8231,0.3519,38.3300,79,99,99829
1.7937,0.3421,38.4600,79,99,99833
1.8133,0.3470,38.5500,79,99,99836
1.8671,0.3568,38.4600,79,99,99840
1.8231,0.3372,38.5500,79,99,99843
1.8475,0.3617,38.3300,79,99,99847
1.8231,0.3470,38.4600,79,99,99850
1.8182,0.3470,38.5500,79,99,99853
1.8231,0.3519,38.4600,79,99,99856
1.8035,0.3421,38.5500,79,99,99860
1.8280,0.3519,38.4300,79,99,99863
1.7986,0.3421,38.4900,79,99,99866
1.7986,0.3421,38.5500,79,99,99869
1.8182,0.3470,38.3300,79,99,99873
1.8084,0.3470,38.5800,79,99,99876
1.8328,0.3519,38.3000,79,99,99879
1.7986,0.3421,38.5200,79,99,99883
1.8084,0.3421,38.5500,79,99,99887
1.8182,0.3470,38.4600,79,99,99890
1.8133,0.3470,38.5500,79,99,99893
1.8280,0.3519,38.1500,79,99,99896
1.7986,0.3470,38.4600,79,99,99900
1.7937,0.3421,38.5800,79,99,99903
1.8035,0.3568,38.4600,79,99,99906
1.7889,0.3470,38.5500,79,99,99909
1.8622,0.3519,38.3600,79,99,99913
1.8182,0.3372,38.4900,79,99,99916
1.8377,0.3519,38.5500,79,99,99919
1.8671,0.3470,38.3600,79,99,99922
1.8671,0.3470,38.5500,79,99,99927
1.9062,0.3421,38.3600,79,99,99930
1.8817,0.3421,38.5500,79,99,99933
1.9013,0.3421,38.5200,79,99,99936
1.9306,0.3519,38.4600,79,99,99940
1.9306,0.3470,38.5500,79,99,99943
1.9892,0.3519,38.3000,79,99,99946
1.9892,0.3470,37.6500,79,99,99949
2.0137,0.3372,38.5800,79,99,99953
2.0430,0.3519,38.4300,79,99,99956
2.0283,0.3470,38.5500,79,99,99959
2.0479,0.3519,38.4000,79,99,99962
1.9990,0.3470,38.5800,79,99,99966
2.0039,0.3421,38.5500,79,99,99970
2.0039,0.3519,38.4300,79,99,99973
1.9746,0.3470,38.5500,79,99,99976
1.9746,0.3519,38.4300,79,99,99980
1.9110,0.3470,38.5500,79,99,99983
1.8915,0.3421,38.7100,79,99,99986
1.8817,0.3519,38.4600,79,99,99989
1.8231,0.3470,38.5500,79,99,99993
1.8182,0.3519,38.4000,79,99,99996
1.7693,0.3421,38.5500,79,99,99999
1.7498,0.3421,38.7100,79,99,100002
1.7546,0.3519,38.4300,79,99,100006
1.7107,0.3470,38.5500,79,99,100009
1.7400,0.3519,38.3300,79,99,100013
1.7107,0.3470,38.4900,79,99,100017
1.7155,0.3421,38.5500,79,99,100020
1.7351,0.3519,38.4900,79,99,100023
1.7204,0.3421,38.5800,79,99,100027
1.7644,0.3568,38.2700,79,99,100030
1.7253,0.3421,38.4900,79,99,100033
1.7302,0.3421,38.5200,79,99,100036
1.7302,0.3470,38.5200,79,99,100040
1.7058,0.3470,38.6200,79,99,100043
1.7351,0.3568,38.3300,79,99,100046
1.6471,0.3470,38.4900,79,99,100050
1.5836,0.3421,38.2100,79,99,100054
1.5445,0.3470,38.5500,79,99,100057
1.5591,0.3470,38.5500,79,99,100061
1.6667,0.3568,38.3600,79,99,100064
1.7937,0.3470,38.5200,79,99,100067
2.0430,0.3470,38.4300,79,99,100071
2.3265,0.3372,38.5500,79,99,100074
2.6931,0.3519,38.5800,79,99,100077
3.1085,0.3715,38.4900,79,99,100080
3.4018,0.3421,38.5200,79,99,100084
3.6657,0.3568,38.4600,79,99,100087
3.5973,0.3470,38.5800,79,99,100090
3.3529,0.3470,38.5500,79,99,100094
2.9765,0.3470,38.4600,79,99,100098
2.5122,0.3470,38.5800,79,99,100101
2.1408,0.3470,38.3600,79,99,100105
1.7986,0.3421,38.5500,79,99,100108
1.5836,0.3421,38.4000,79,99,100111
1.4761,0.3568,38.4900,79,99,100115
1.4027,0.3470,37.7700,79,99,100118
1.4125,0.3568,38.3000,79,99,100121
1.3978,0.3519,38.4600,79,99,100124
1.3978,0.3421,38.5500,79,99,100128
1.4223,0.3568,38.4900,79,99,100131
1.4321,0.3470,38.5500,79,99,100134
1.4907,0.3568,38.3600,79,99,100139
1.4907,0.3519,38.4900,79,99,100142
1.4761,0.3421,38.5200,79,99,100145
1.4809,0.3470,38.5200,79,99,100149
1.4907,0.3372,38.5500,79,99,100152
1.5445,0.3617,38.4000,79,99,100155
1.5445,0.3519,38.5200,79,99,100159
1.5445,0.3372,38.4600,79,99,100162
1.5396,0.3470,38.6500,79,99,100165
1.5494,0.3519,38.5500,79,99,100168
1.5934,0.3470,38.4900,79,99,100172
1.5787,0.3421,38.6800,79,99,100175
1.6178,0.3519,38.4300,79,99,100178
1.6080,0.3470,38.5500,79,99,100183
1.6276,0.3470,38.5800,79,99,100186
1.6667,0.3568,38.4000,79,99,100189
1.6569,0.3470,38.6500,79,99,100193
1.6960,0.3421,38.4300,79,99,100196
1.6716,0.3470,38.5200,79,99,100199
1.6862,0.3421,38.5500,79,99,100202
1.7009,0.3421,38.5500,79,99,100206
1.6911,0.3470,38.5500,79,99,100209
1.7302,0.3470,38.3300,79,99,100212
1.7155,0.3812,38.5500,79,99,100216
1.7302,0.3421,38.5500,79,99,100219
1.7449,0.3519,38.4600,79,99,100222
1.7302,0.3372,38.5500,79,99,100227
1.7840,0.3568,38.2700,79,99,100230
1.7449,0.3910,38.5200,79,99,100233
1.7644,0.3421,38.5500,79,99,100237
1.7644,0.3470,38.6200,79,99,100240
1.7791,0.3421,38.5500,79,99,100243
1.8231,0.3666,38.3000,79,99,100247
1.7889,0.3470,38.5200,79,99,100250
1.7937,0.3421,38.4900,79,99,100253
1.7986,0.3470,38.5500,79,99,100256
1.7986,0.3421,38.6200,79,99,100260
1.8280,0.3470,38.3600,79,99,100263
1.8084,0.3470,38.6500,79,99,100267
1.8280,0.3470,38.4900,79,99,100271
1.8328,0.3470,38.5500,79,99,100274
1.8280,0.3421,38.5500,79,99,100277
1.8671,0.3519,38.4000,79,99,100281
1.8573,0.3519,38.5200,79,99,100284
1.8866,0.3519,38.4000,79,99,100287
1.8671,0.3470,38.7400,79,99,100290
1.9208,0.3275,38.5500,79,99,100294
1.9306,0.3470,38.5200,79,99,100297
1.9404,0.3470,38.5800,79,99,100300
1.9844,0.3519,38.4000,79,99,100304
1.9697,0.3470,38.6500,79,99,100307
1.9941,0.3421,38.5500,79,99,100311
2.0235,0.3470,38.4600,79,99,100315
2.0137,0.3470,38.5500,79,99,100318
2.0674,0.3519,38.3300,79,99,100321
2.0577,0.3519,38.4300,79,99,100325
2.0626,0.3421,38.5500,79,99,100328
2.0919,0.3519,38.5200,79,99,100331
2.1017,0.3275,38.5500,79,99,100334
2.1652,0.3568,38.3000,79,99,100338
2.1310,0.3519,38.4900,79,99,100341
2.1114,0.3372,38.5500,79,99,100344
2.1212,0.3470,38.5200,79,99,100348
2.1457,0.3421,38.5500,79,99,100352
2.1701,0.3666,38.3300,79,99,100355
2.1114,0.3519,38.4600,79,99,100359
2.0870,0.3421,38.4900,79,99,100362
2.0430,0.3470,38.5200,79,99,100365
1.8280,0.3470,38.5800,79,99,100370
1.7937,0.3421,38.5200,79,99,100373
1.7889,0.3470,38.4300,79,99,100377
1.7253,0.3470,38.4000,79,99,100380
1.7302,0.3470,38.4000,79,99,100383
1.6764,0.3470,38.4900,79,99,100386
1.6618,0.3421,38.5500,79,99,100390
1.6520,0.3568,38.4600,79,99,100393
1.6373,0.3470,38.5500,79,99,100397
1.6667,0.3519,37.5900,79,99,100401
1.6520,0.3519,38.4900,79,99,100404
1.6325,0.3421,38.5500,79,99,100407
1.6373,0.3470,38.4900,79,99,100411
1.6373,0.3421,38.5500,79,99,100414
1.6569,0.3568,38.3000,79,99,100417
1.6373,0.3421,38.4600,79,99,100421
1.6471,0.3421,38.5500,79,99,100424
1.6569,0.3763,38.5200,79,99,100427
1.6471,0.3421,38.5800,79,99,100430
1.7107,0.3666,38.3600,79,99,100434
1.6911,0.3617,38.4900,79,99,100438
1.6764,0.3421,37.9600,79,99,100441
1.6813,0.3470,38.5500,79,99,100445
1.6813,0.3421,38.6200,79,99,100448
1.7204,0.3617,38.3600,79,99,100451
1.6960,0.3470,38.5500,79,99,100455
1.7302,0.3470,38.4000,79,99,100458
1.7155,0.3519,38.5200,79,99,100461
1.7302,0.3519,38.5500,79,99,100465
1.7644,0.3519,38.4600,79,99,100468
1.7644,0.3470,38.5500,79,99,100471
1.7889,0.3568,38.4300,79,99,100474
1.7546,0.3421,38.5200,79,99,100478
1.7546,0.3372,38.5500,79,99,100482
1.7693,0.3470,38.8700,79,99,100485
1.7546,0.3617,38.5500,79,99,100489
1.7840,0.3470,38.3300,79,99,100492
1.7644,0.3470,38.6200,79,99,100495
1.7840,0.3372,38.5500,79,99,100499
1.7986,0.3470,38.4600,79,99,100502
1.7742,0.3372,38.5500,79,99,100505
1.8231,0.3568,38.3000,79,99,100509
1.7889,0.3470,38.5200,79,99,100512
1.7742,0.3568,38.5500,79,99,100515
1.7742,0.3470,38.5500,79,99,100519
1.7693,0.3421,38.5800,79,99,100523
1.8231,0.3666,38.3000,79,99,100526
1.7791,0.3470,38.5200,79,99,100529
1.7693,0.3421,38.4600,79,99,100533
1.7791,0.3470,38.5200,79,99,100536
1.7644,0.3421,38.5500,79,99,100539
1.8035,0.3568,38.4300,79,99,100543
1.7742,0.3470,38.5200,79,99,100546
1.7693,0.3470,38.4300,79,99,100549
1.7449,0.3421,38.5500,79,99,100553
1.7498,0.3421,38.5800,79,99,100556
1.7840,0.3519,38.4900,79,99,100559
1.7742,0.3470,38.5800,79,99,100563
1.7986,0.3568,38.4000,79,99,100567
1.7693,0.3470,38.5500,79,99,100570
1.7791,0.3421,38.6500,79,99,100573
1.7937,0.3568,38.4000,79,99,100577
1.7595,0.3470,38.5500,79,99,100580
1.7840,0.3470,38.4000,79,99,100583
1.7546,0.3519,38.4900,79,99,100587
1.7791,0.3372,38.5500,79,99,100590
1.7595,0.3519,38.4900,79,99,100593
1.7449,0.3372,38.5500,79,99,100597
1.7840,0.3519,38.3000,79,99,100600
1.7546,0.3617,38.5500,79,99,100603
1.7546,0.3275,38.5500,79,99,100608
1.7595,0.3470,38.3600,79,99,100611
1.7400,0.3421,38.5500,79,99,100614
1.7840,0.3568,38.2400,79,99,100617
1.7546,0.3519,38.4600,79,99,100621
1.7693,0.3421,38.5800,79,99,100624
1.7546,0.3470,38.5500,79,99,100627
1.7644,0.3519,38.5800,79,99,100631
1.8133,0.3617,38.3600,79,99,100634
1.7840,0.3519,38.5200,79,99,100637
1.7840,0.3519,38.4900,79,99,100641
1.7791,0.3470,38.5500,79,99,100644
1.7791,0.3421,38.6200,79,99,100647
1.8328,0.3519,38.3600,79,99,100652
1.7742,0.3470,38.5200,79,99,100655
1.7986,0.3568,38.4300,79,99,100658
1.7742,0.3470,38.5500,79,99,100661
1.7889,0.3470,38.6800,79,99,100665
1.8377,0.3568,38.4600,79,99,100668
1.7742,0.3470,38.5500,79,99,100671
1.8035,0.3568,38.4000,79,99,100675
1.7840,0.3421,38.5500,79,99,100678
1.7791,0.3470,38.5800,79,99,100681
1.7889,0.3470,38.4300,79,99,100685
1.8035,0.3470,38.5500,79,99,100688
1.8035,0.3519,38.3600,79,99,100691
1.7693,0.3812,38.5500,79,99,100696
1.7791,0.3275,38.5500,79,99,100699
1.7986,0.3519,38.4600,79,99,100702
1.7840,0.3470,38.5500,79,99,100705
1.8280,0.3568,38.3000,79,99,100709
1.8084,0.3519,38.5200,79,99,100712
1.7986,0.3421,38.5500,79,99,100715
1.7986,0.3470,38.6500,79,99,100719
1.7840,0.3470,38.5500,79,99,100722
1.8231,0.3959,38.2700,79,99,100725
1.7742,0.3470,38.4900,79,99,100729
1.7693,0.3421,38.5200,79,99,100732
1.7693,0.3470,38.5200,79,99,100736
1.7791,0.3421,38.5500,79,99,100739
1.8328,0.3617,38.3600,79,99,100743
1.8035,0.3470,38.4900,79,99,100746
1.7937,0.3470,38.4900,79,99,100749
1.7693,0.3470,38.5500,79,99,100753
1.7742,0.3421,38.5500,79,99,100756
1.7986,0.3519,38.4900,79,99,100759
1.7889,0.3519,38.5200,79,99,100763
1.8035,0.3470,38.4000,79,99,100766
1.7791,0.3470,38.5200,79,99,100769
1.8084,0.3372,38.5500,79,99,100773
1.8133,0.3568,38.4300,79,99,100776
1.8231,0.3470,38.5200,79,99,100780
1.8573,0.3470,38.4000,79,99,100783
1.7986,0.3421,38.4900,79,99,100787
1.7986,0.3421,38.5500,79,99,100790
1.8182,0.3519,38.4600,79,99,100793
1.8133,0.3470,38.4600,79,99,100797
1.8573,0.3568,38.3300,79,99,100800
1.8475,0.3470,38.5500,79,99,100803
1.8524,0.3421,38.5200,79,99,100807
1.8768,0.3519,38.4900,79,99,100810
1.8622,0.3470,38.7400,79,99,100813
1.9208,0.3763,38.2700,79,99,100817
1.8915,0.3421,38.4900,79,99,100820
1.9306,0.3421,38.5200,79,99,100824
1.9550,0.3519,38.5200,79,99,100827
1.9648,0.3470,38.5500,79,99,100831
2.0381,0.3666,38.3000,79,99,100834
1.9990,0.3470,38.5500,79,99,100837
2.0039,0.3519,38.4900,79,99,100841
1.9892,0.3470,38.5500,79,99,100844
1.9941,0.3763,38.5500,79,99,100847
2.0283,0.3568,38.3600,79,99,100851
1.9746,0.3470,38.5200,79,99,100854
1.9648,0.3519,38.4300,79,99,100857
1.9110,0.3470,38.5500,79,99,100861
1.8866,0.3421,38.6500,79,99,100865
1.8915,0.3519,38.4000,79,99,100868
1.8328,0.3470,38.5500,79,99,100871
1.8182,0.3666,38.6200,79,99,100875
1.7546,0.3470,38.5500,79,99,100878
1.7400,0.3421,38.5500,79,99,100881
1.7204,0.3519,38.4600,79,99,100885
1.6862,0.3470,38.5500,79,99,100888
1.6911,0.3470,38.4300,79,99,100891
1.6618,0.3470,38.5500,79,99,100895
1.6618,0.3421,38.6200,79,99,100898
1.6716,0.3617,38.4900,79,99,100901
1.6618,0.3470,38.5200,79,99,100905
1.7009,0.3519,38.3000,79,99,100909
1.6764,0.3519,38.4600,79,99,100912
1.6764,0.3421,38.7700,79,99,100915
1.6911,0.3470,38.5200,79,99,100919
1.6911,0.3421,38.5500,79,99,100922
1.7302,0.3519,38.2400,79,99,100925
1.6618,0.3470,38.4900,79,99,100929
1.6080,0.3421,38.6500,79,99,100932
1.5591,0.3470,38.5200,79,99,100935
1.5543,0.3519,38.5500,79,99,100939
1.6373,0.3617,38.4000,79,99,100942
1.7058,0.3470,38.4900,79,99,100945
1.8671,0.3470,38.4600,79,99,100950
2.1017,0.3372,38.6200,79,99,100953
2.4242,0.3421,38.5500,79,99,100956
2.8201,0.3568,38.5800,79,99,100959
3.1378,0.3470,38.5200,79,99,100963
3.4604,0.3470,38.4300,79,99,100966
3.5777,0.3470,38.5500,79,99,100969
3.4848,0.3421,38.7100,79,99,100973
3.2405,0.3519,38.4000,79,99,100976
1.5005,0.3519,38.4900,79,99,100981
1.3978,0.3470,38.5500,79,99,100984
1.3587,0.3519,38.4300,79,99,100987
1.3196,0.3519,38.4900,79,99,100992
1.3148,0.3421,38.5500,79,99,100995
1.3441,0.3470,38.4900,79,99,100998
1.3587,0.3275,38.5800,79,99,101002
1.4272,0.3568,38.1800,79,99,101005
1.4272,0.3275,38.4300,79,99,101008
1.4418,0.3421,38.5200,79,99,101011
1.4565,0.3812,38.5500,79,99,101015
1.4712,0.3372,38.6800,79,99,101018
1.5200,0.3666,38.4000,79,99,101021
1.4956,0.3519,38.5500,79,99,101025
1.5152,0.3470,38.4600,79,99,101028
1.5103,0.3470,38.5500,79,99,101031
1.5298,0.3421,38.6500,79,99,101036
1.5689,0.3519,38.4300,79,99,101039
1.5591,0.3470,38.5500,79,99,101042
1.5934,0.3519,38.4000,79,99,101046
1.5885,0.3275,38.5500,79,99,101049
1.6031,0.3421,38.5500,79,99,101052
1.6373,0.3519,38.4900,79,99,101056
1.6276,0.3470,38.5500,79,99,101059
1.6667,0.3470,38.4000,79,99,101062
1.6520,0.3421,38.9000,79,99,101065
1.6667,0.3519,38.5500,79,99,101069
1.6911,0.3470,38.4300,79,99,101072
1.6667,0.3470,38.5800,79,99,101075
1.6960,0.3519,38.3300,79,99,101080
1.6618,0.3421,38.5500,79,99,101083
1.6764,0.3470,38.5500,79,99,101086
1.6862,0.3470,38.5200,79,99,101090
1.6911,0.3812,38.5500,79,99,101093
1.7498,0.3568,38.2700,79,99,101096
1.7155,0.3470,38.4900,79,99,101100
1.7155,0.3470,38.5200,79,99,101103
1.7155,0.3470,38.7700,79,99,101106
1.7253,0.3421,38.6200,79,99,101109
1.7889,0.3470,38.3300,79,99,101113
1.7449,0.3470,38.5200,79,99,101116
1.7546,0.3470,38.4600,79,99,101120
1.7595,0.3470,38.5500,79,99,101124
1.7693,0.3421,38.5800,79,99,101127
1.8084,0.3519,38.4000,79,99,101130
1.7937,0.3470,38.5200,79,99,101134
1.8084,0.3470,38.4600,79,99,101137
1.7889,0.3470,38.5200,79,99,101140
1.8084,0.3421,38.5500,79,99,101144
1.8328,0.3519,38.5200,79,99,101147
1.8377,0.3470,38.5500,79,99,101150
1.8768,0.3519,38.4000,79,99,101153
1.8524,0.3470,38.6200,79,99,101157
1.8719,0.3421,38.5500,79,99,101160
1.9013,0.3568,38.4600,79,99,101164
1.8964,0.3812,38.5500,79,99,101168
1.9404,0.3470,38.3600,79,99,101171
1.9257,0.3470,38.4000,79,99,101174
1.9355,0.3421,38.6200,79,99,101178
1.9599,0.3519,38.4900,79,99,101181
1.9599,0.3470,38.5800,79,99,101184
2.0235,0.3617,38.3000,79,99,101188
2.0088,0.3519,38.4600,79,99,101191
2.0186,0.3470,38.5500,79,99,101194
2.0430,0.3470,38.4900,79,99,101197
2.0332,0.3519,38.5500,79,99,101201
2.0919,0.3568,38.2700,79,99,101204
2.0577,0.3470,38.4900,79,99,101208
2.0577,0.3666,38.5500,79,99,101212
2.0577,0.3470,38.5500,79,99,101215
2.0479,0.3421,38.5200,79,99,101218
2.1163,0.3666,38.3600,79,99,101222
2.0528,0.3470,38.4900,79,99,101225
2.0332,0.3421,38.4600,79,99,101228
2.0088,0.3519,38.5500,79,99,101231
1.9892,0.3519,38.5500,79,99,101235
1.9941,0.3568,38.3600,79,99,101238
1.9110,0.3470,38.5200,79,99,101241
1.9013,0.3470,38.4300,79,99,101245
1.8377,0.3519,38.5500,79,99,101249
1.8035,0.3421,38.5500,79,99,101252
1.7889,0.3666,38.3300,79,99,101256
1.7400,0.3372,38.5200,79,99,101259
1.7302,0.3470,38.4600,79,99,101262
1.6764,0.3470,38.5500,79,99,101265
1.6618,0.3470,38.5200,79,99,101269
1.6618,0.3470,38.4000,79,99,101272
1.6373,0.3715,38.5200,79,99,101275
1.6618,0.3519,38.3600,79,99,101279
1.6227,0.3470,38.5500,79,99,101282
1.6276,0.3470,38.5500,79,99,101285
1.6373,0.3568,38.4600,79,99,101289
1.6178,0.3470,38.5500,79,99,101293
1.6618,0.3519,38.3000,79,99,101296
1.6422,0.3470,38.4300,79,99,101300
1.6373,0.3421,38.5200,79,99,101303
1.6422,0.3470,38.5500,79,99,101306
1.6373,0.3470,38.5800,79,99,101310
1.6813,0.3568,38.2700,79,99,101313
1.6422,0.3519,38.5200,79,99,101316
1.6422,0.3470,38.5200,79,99,101319
1.6422,0.3372,38.5200,79,99,101323
1.6569,0.3470,38.5500,79,99,101326
1.7058,0.3617,38.4000,79,99,101329
1.6862,0.3470,38.5200,79,99,101334
1.6911,0.3470,38.4000,79,99,101337
1.6764,0.3470,38.5200,79,99,101340
1.6862,0.3421,38.5500,79,99,101344
1.7107,0.3519,38.3300,79,99,101347
1.7009,0.3519,38.5200,79,99,101350
1.7302,0.3519,38.4300,79,99,101353
1.6960,0.3470,38.5800,79,99,101357
1.7009,0.3568,38.5200,79,99,101360
1.7253,0.3617,38.4300,79,99,101363
1.7009,0.3519,38.5200,79,99,101367
1.7449,0.3519,38.4000,79,99,101370
1.7204,0.3421,38.4900,79,99,101373
1.7351,0.3421,38.4300,79,99,101378
1.7595,0.3470,38.4600,79,99,101381
1.7498,0.3470,38.5800,79,99,101384
1.7840,0.3519,38.3000,79,99,101388
1.7449,0.3470,38.4900,79,99,101391
1.7351,0.3421,38.6200,79,99,101394
1.7400,0.3617,38.4000,79,99,101397
1.7204,0.3372,38.5500,79,99,101401
1.7742,0.3568,38.2700,79,99,101404
1.7449,0.3715,38.4900,79,99,101407
1.7644,0.3470,38.5500,79,99,101411
1.7644,0.3470,38.4900,79,99,101414
1.7400,0.3470,38.5500,79,99,101417
1.7889,0.3617,38.3000,79,99,101422
1.7546,0.3470,38.4600,79,99,101425
1.7449,0.3421,38.5500,79,99,101428
1.7449,0.3470,38.5200,79,99,101432
1.7449,0.3470,38.5800,79,99,101435
1.7791,0.3568,38.3600,79,99,101438
1.7449,0.3470,38.5200,79,99,101441
1.7644,0.3519,38.4300,79,99,101445
1.7400,0.3470,38.4300,79,99,101448
1.7400,0.3568,38.5200,79,99,101451
1.7595,0.3519,38.4300,79,99,101455
1.7351,0.3470,38.7400,79,99,101458
1.7595,0.3568,38.4000,79,99,101462
1.7302,0.3519,38.5500,79,99,101466
1.7302,0.3470,38.7400,79,99,101469
1.7351,0.3617,38.4600,79,99,101472
1.7204,0.3519,38.5500,79,99,101476
1.7400,0.3470,38.4300,79,99,101479
1.7155,0.3519,38.5800,79,99,101482
1.7302,0.3421,38.5500,79,99,101485
1.7498,0.3519,38.6200,79,99,101489
1.7302,0.3519,38.5500,79,99,101492
1.7595,0.3519,38.3000,79,99,101495
1.7253,0.3519,38.4300,79,99,101499
1.7107,0.3421,38.5500,79,99,101502
1.7204,0.3519,38.4900,79,99,101506
1.7204,0.3470,38.5500,79,99,101510
1.7840,0.3568,38.2400,79,99,101513
1.7351,0.3519,38.4900,79,99,101516
1.7302,0.3372,38.5200,79,99,101520
1.7351,0.3470,38.4000,79,99,101523
1.7302,0.3470,38.5200,79,99,101526
1.7791,0.3666,38.4000,79,99,101529
1.7400,0.3519,38.6200,79,99,101533
1.7351,0.3519,38.4600,79,99,101536
1.7253,0.3470,38.5500,79,99,101539
1.7351,0.3470,38.5200,79,99,101543
1.7791,0.3568,38.4600,79,99,101547
1.7449,0.3470,38.5200,79,99,101550
1.7546,0.3861,38.4000,79,99,101554
1.7253,0.3470,38.4900,79,99,101557
1.7302,0.3666,38.5500,79,99,101560
1.7595,0.3568,38.4300,79,99,101564
1.7351,0.3568,38.5500,79,99,101567
1.7693,0.3519,38.4000,79,99,101570
1.7302,0.3421,38.5800,79,99,101574
1.7302,0.3715,38.5500,79,99,101577
1.7498,0.3519,37.8300,79,99,101580
1.7498,0.3519,38.5200,79,99,101583
1.8035,0.3568,38.3300,79,99,101587
1.8524,0.3666,38.3000,79,99,101592
1.8328,0.3470,38.4300,79,99,101596
1.8524,0.3470,38.5200,79,99,101599
1.8768,0.3470,38.5800,79,99,101602
1.9013,0.3421,38.5500,79,99,101606
1.9697,0.3568,38.4000,79,99,101609
1.9453,0.3470,38.5200,79,99,101612
1.9550,0.3421,38.4300,79,99,101616
1.9355,0.3470,38.3600,79,99,101619
1.9355,0.3470,38.5500,79,99,101622
1.9550,0.3568,38.3600,79,99,101626
1.9110,0.3763,38.5500,79,99,101629
1.9208,0.3519,38.4000,79,99,101633
1.8768,0.3421,38.5500,79,99,101636
1.8475,0.3470,38.4900,79,99,101640
1.8328,0.3470,38.4300,79,99,101643
1.7644,0.3470,38.5500,79,99,101646
1.7449,0.3470,38.3300,79,99,101650
1.6716,0.3372,38.5200,79,99,101653
1.6667,0.3421,38.7400,79,99,101656
1.6716,0.3519,38.4300,79,99,101660
1.6325,0.3470,37.9900,79,99,101663
1.6520,0.3519,38.3000,79,99,101666
1.6080,0.3421,38.5200,79,99,101670
1.6227,0.3421,38.6200,79,99,101673
1.6325,0.3421,38.5200,79,99,101677
1.6276,0.3470,38.4000,79,99,101681
1.6716,0.3812,38.2400,79,99,101684
1.6422,0.3519,38.4900,79,99,101687
1.6178,0.3421,38.5200,79,99,101690
1.6080,0.3470,38.5200,79,99,101694
1.6520,0.3275,38.5500,79,99,101697
1.6667,0.3666,38.3600,79,99,101700
1.6129,0.3519,38.4900,79,99,101704
1.5836,0.3421,38.4600,79,99,101707
1.5249,0.3470,38.5500,79,99,101710
1.4956,0.3421,38.5500,79,99,101714
1.5298,0.3568,38.3600,79,99,101718
1.5934,0.3470,38.5200,79,99,101721
1.7058,0.3470,38.4300,79,99,101725
1.8915,0.3470,38.5800,79,99,101728
2.1848,0.3421,38.6800,79,99,101731
2.5415,0.3470,38.4600,79,99,101734
2.8886,0.3470,38.6200,79,99,101738
3.2796,0.3568,38.4300,79,99,101741
3.4946,0.3470,38.7700,79,99,101744
3.5875,0.3470,38.6200,79,99,101748
3.4751,0.3470,38.4600,79,99,101751
3.0694,0.3470,38.5500,79,99,101754
2.6833,0.3617,38.3600,79,99,101758
2.2287,0.3470,38.4300,79,99,101762
1.8573,0.3470,38.4900,79,99,101765
1.6031,0.3470,38.4900,79,99,101769
1.4272,0.3421,38.5500,79,99,101772
1.3685,0.3568,38.2700,79,99,101775
1.3099,0.3519,38.4900,79,99,101778
1.2903,0.3421,38.5500,79,99,101782
1.2952,0.3715,38.5200,79,99,101785
1.3099,0.3470,38.5800,79,99,101788
1.3636,0.3666,38.2700,79,99,101792
1.3636,0.3519,38.4300,79,99,101795
1.3636,0.3421,38.5200,79,99,101798
1.3783,0.3812,38.5500,79,99,101803
1.3978,0.3421,38.6200,79,99,101806
1.4418,0.3763,38.4300,79,99,101809
1.4223,0.3519,38.5200,79,99,101813
1.4467,0.3470,38.4300,79,99,101816
1.4370,0.3372,38.5500,79,99,101819
1.4712,0.3421,38.5500,79,99,101822
1.5103,0.3568,38.4000,79,99,101826
1.5005,0.3470,38.5500,79,99,101829
1.5445,0.3519,38.4000,79,99,101832
1.5249,0.3470,38.5200,79,99,101836
1.5347,0.3470,38.5500,79,99,101839
1.5591,0.3519,38.4600,79,99,101842
1.5445,0.3470,38.5200,79,99,101847
1.5787,0.3519,38.4000,79,99,101850
1.5689,0.3421,38.5200,79,99,101853
1.5885,0.3421,38.5500,79,99,101857
1.6227,0.3470,38.4300,79,99,101860
1.6178,0.3470,38.5500,79,99,101863
1.6618,0.3519,38.2700,79,99,101866
1.6276,0.3421,38.5200,79,99,101870
1.6422,0.3470,38.5200,79,99,101873
1.6569,0.3519,38.5200,79,99,101876
1.6471,0.3470,38.4000,79,99,101880
1.7058,0.3959,38.2400,79,99,101883
1.6813,0.3519,38.4900,79,99,101886
1.6764,0.3421,38.6500,79,99,101891
1.6716,0.3470,38.5200,79,99,101894
1.6764,0.3421,38.5500,79,99,101897
1.7204,0.3666,38.3600,79,99,101901
1.6764,0.3470,38.5200,79,99,101904
1.6911,0.3421,38.4600,79,99,101907
1.6862,0.3763,38.4900,79,99,101910
1.7204,0.3470,38.5500,79,99,101914
1.7449,0.3568,38.4000,79,99,101917
1.7253,0.3470,38.4600,79,99,101920
1.7400,0.3421,38.4000,79,99,101924
1.7302,0.3275,38.5500,79,99,101927
1.7449,0.3421,38.4600,79,99,101931
1.7791,0.3519,38.4900,79,99,101935
1.7937,0.3470,38.6500,79,99,101938
1.8377,0.3568,38.4300,79,99,101941
1.8231,0.3421,38.5500,79,99,101945
1.8377,0.3421,38.5200,79,99,101948
1.8671,0.3470,38.4600,79,99,101951
1.8622,0.3470,38.5500,79,99,101954
1.9110,0.3519,38.3300,79,99,101958
1.9062,0.3470,38.4600,79,99,101961
1.9159,0.3421,38.7100,79,99,101964
1.9501,0.3470,38.4900,79,99,101968
1.9599,0.3470,38.5200,79,99,101971
2.0332,0.3568,38.4600,79,99,101975
2.0186,0.3519,38.4900,79,99,101979
2.0088,0.3421,38.5500,79,99,101982
2.0332,0.3519,38.4900,79,99,101985
2.0235,0.3421,38.5500,79,99,101988
2.0870,0.3666,38.3000,79,99,101992
2.0577,0.3470,38.4600,79,99,101995
2.0528,0.3421,38.5200,79,99,101998
2.0430,0.3470,38.4300,79,99,102002
2.0283,0.3470,38.6800,79,99,102005
2.0772,0.3666,38.3300,79,99,102008
2.0137,0.3519,38.4900,79,99,102012
1.9941,0.3421,38.4900,79,99,102016
1.9599,0.3470,38.5500,79,99,102019
1.9355,0.3421,38.5500,79,99,102023
1.9453,0.3470,38.4000,79,99,102026
1.8817,0.3470,38.5200,79,99,102029
1.8719,0.3519,38.4000,79,99,102032
1.8231,0.3470,38.5500,79,99,102036
1.7889,0.3421,38.6200,79,99,102039
1.7791,0.3519,38.4300,79,99,102042
1.7253,0.3470,38.5500,79,99,102046
1.7302,0.3519,38.5200,79,99,102049
1.6667,0.3519,38.5200,79,99,102052
1.6422,0.3421,38.5500,79,99,102056
1.6373,0.3519,38.5500,79,99,102060
1.6178,0.3470,38.5500,79,99,102063
1.6422,0.3470,38.3600,79,99,102067
1.6227,0.3470,38.5200,79,99,102070
1.6227,0.3421,38.6800,79,99,102073
1.6276,0.3519,38.4900,79,99,102076
1.5934,0.3470,38.5500,79,99,102080
1.6276,0.3568,38.2700,79,99,102083
1.6227,0.3519,38.4600,79,99,102086
1.5934,0.3421,38.5800,79,99,102090
1.6422,0.3275,38.5200,79,99,102093
1.6178,0.3470,38.5500,79,99,102096
1.6667,0.3666,38.2700,79,99,102100
1.6227,0.3519,38.5200,79,99,102104
1.6276,0.3421,38.4900,79,99,102107
1.6471,0.3470,38.5200,79,99,102111
1.6422,0.3421,38.5500,79,99,102114
1.6911,0.3617,38.4000,79,99,102117
1.6862,0.3470,38.4900,79,99,102121
1.7009,0.3470,38.4000,79,99,102124
1.6813,0.3568,38.5500,79,99,102127
1.6764,0.3421,38.4900,79,99,102130
1.7058,0.3812,38.5500,79,99,102134
1.6960,0.3470,38.5500,79,99,102137
1.7204,0.3568,38.4300,79,99,102140
1.6911,0.3372,38.5500,79,99,102145
1.7009,0.3421,38.5500,79,99,102148
1.7302,0.3568,38.4300,79,99,102151
1.7155,0.3470,38.5500,79,99,102155
1.7449,0.3470,38.4000,79,99,102158
1.7253,0.3470,38.4300,79,99,102161
1.7253,0.3421,38.5500,79,99,102164
1.7351,0.3519,38.6200,79,99,102168
1.7302,0.3519,38.5500,79,99,102171
1.7644,0.3519,38.3000,79,99,102174
1.7351,0.3519,37.6800,79,99,102178
1.7302,0.3470,38.5500,79,99,102181
1.7546,0.3470,38.4900,79,99,102184
1.7351,0.3470,38.1100,79,99,102189
1.7889,0.3812,38.3000,79,99,102192
1.7595,0.3470,38.4300,79,99,102195
1.7595,0.3421,38.5200,79,99,102199
1.7937,0.3470,38.5200,79,99,102202
1.7889,0.3372,38.5500,79,99,102207
1.7742,0.3470,38.5800,79,99,102210
1.7889,0.3763,38.3600,79,99,102213
1.7693,0.3470,38.6500,79,99,102217
1.8084,0.3568,38.4300,79,99,102220
1.7791,0.3421,38.5200,79,99,102223
1.7742,0.3421,38.6500,79,99,102226
1.7889,0.3470,38.4300,79,99,102231
1.7644,0.3470,38.5200,79,99,102234
1.7889,0.3519,38.3300,79,99,102237
1.7644,0.3470,38.4600,79,99,102241
1.7595,0.3421,38.5800,79,99,102244
1.7693,0.3666,38.4900,79,99,102247
1.7546,0.3275,38.5500,79,99,102251
1.7937,0.3568,38.2700,79,99,102254
1.7595,0.3421,38.4900,79,99,102257
1.7742,0.3421,38.5500,79,99,102261
1.8182,0.3519,38.5200,79,99,102264
1.7791,0.3421,38.5200,79,99,102267
1.8280,0.3617,38.3000,79,99,102272
1.7986,0.3470,38.4600,79,99,102275
1.7986,0.3421,38.4900,79,99,102278
1.8133,0.3470,38.5200,79,99,102281
1.8280,0.3470,38.6500,79,99,102285
1.8768,0.3568,38.3600,79,99,102288
1.8426,0.3470,38.5200,79,99,102291
1.8671,0.3470,38.4000,79,99,102295
1.8622,0.3470,38.5200,79,99,102298
1.8915,0.3421,38.5500,79,99,102301
1.9501,0.3519,38.3600,79,99,102305
1.9599,0.3470,38.5200,79,99,102308
2.0039,0.3519,38.4300,79,99,102311
1.9795,0.3470,37.9300,79,99,102315
1.9990,0.3372,38.5500,79,99,102319
1.9990,0.3470,38.4600,79,99,102322
1.9892,0.3470,38.5800,79,99,102325
2.0088,0.3421,38.4000,79,99,102329
1.9599,0.3470,38.5500,79,99,102332
1.9453,0.3421,38.5800,79,99,102335
1.9648,0.3519,38.4000,79,99,102339
1.8964,0.3421,38.8100,79,99,102342
1.9404,0.3519,38.3300,79,99,102345
1.8328,0.3470,38.4300,79,99,102349
1.7693,0.3470,38.6500,79,99,102352
1.7498,0.3470,38.5200,79,99,102355
1.7155,0.3470,38.5500,79,99,102359
1.7595,0.3568,38.2400,79,99,102363
1.7155,0.3470,38.4900,79,99,102366
1.7009,0.3421,38.4900,79,99,102369
1.7058,0.3519,38.5200,79,99,102373
1.6911,0.3470,38.5500,79,99,102376
1.7449,0.3666,38.3600,79,99,102379
1.7107,0.3519,38.4600,79,99,102383
1.7155,0.3519,38.4300,79,99,102386
1.7253,0.3275,38.5200,79,99,102389
1.6960,0.3715,38.5200,79,99,102393
1.7595,0.3519,38.4300,79,99,102396
1.7155,0.3470,38.7400,79,99,102400
1.7302,0.3519,38.4300,79,99,102404
1.7107,0.3470,38.5500,79,99,102407
1.6960,0.3421,38.7100,79,99,102410
1.6716,0.3568,38.4300,79,99,102413
1.5934,0.3470,38.4900,79,99,102417
1.6080,0.3519,38.4000,79,99,102420
1.6178,0.3617,38.4900,79,99,102423
1.7058,0.3421,38.5500,79,99,102427
1.8915,0.3568,38.4600,79,99,102430
2.1408,0.3470,38.5200,79,99,102433
2.4731,0.3470,38.3600,79,99,102437
2.7908,0.3470,38.4600,79,99,102440
3.1476,0.3470,38.5500,79,99,102444
3.4946,0.3568,38.4300,79,99,102447
3.6510,0.3470,38.5200,79,99,102451
3.6901,0.3519,38.3000,79,99,102454
3.3480,0.3910,38.5200,79,99,102457
2.9765,0.3421,38.5500,79,99,102461
2.5709,0.3470,38.4900,79,99,102464
2.1457,0.3470,38.6800,79,99,102467
1.8573,0.3568,38.3000,79,99,102471
1.5787,0.3519,38.4300,79,99,102474
1.4223,0.3421,38.5500,79,99,102477
1.3783,0.3519,38.5200,79,99,102480
1.3490,0.3470,38.5500,79,99,102484
1.3881,0.3666,38.3600,79,99,102488
1.3832,0.3470,38.5200,79,99,102491
1.3832,0.3519,38.4600,79,99,102495
1.4027,0.3470,38.3000,79,99,102498
1.4223,0.3421,38.5500,79,99,102501
1.4956,0.3470,38.4000,79,99,102505
1.4712,0.3470,38.5200,79,99,102508
1.4956,0.3470,38.4300,79,99,102511
1.4761,0.3519,38.5500,79,99,102514
1.4907,0.3421,38.6200,79,99,102518
1.5200,0.3421,38.4900,79,99,102521
1.5249,0.3470,38.5200,79,99,102524
1.5640,0.3470,38.4300,79,99,102529
1.5494,0.3470,38.5500,79,99,102532
1.5591,0.3470,38.5200,79,99,102535
1.5738,0.3568,38.4300,79,99,102539
1.5543,0.3372,38.5200,79,99,102542
1.5836,0.3470,38.3600,79,99,102545
1.5689,0.3470,38.4900,79,99,102549
1.5836,0.3519,38.5500,79,99,102552
1.6276,0.3519,38.7700,79,99,102555
1.6471,0.3470,38.5800,79,99,102558
1.6960,0.3617,38.2700,79,99,102562
1.6716,0.3519,38.4900,79,99,102565
1.6569,0.3421,38.5200,79,99,102568
1.6618,0.3519,38.5500,79,99,102573
1.6618,0.3519,38.5500,79,99,102576
1.7204,0.3568,38.2400,79,99,102579
1.7107,0.3470,38.4600,79,99,102583
1.7253,0.3421,38.6500,79,99,102586
1.7498,0.3519,38.5200,79,99,102589
1.7351,0.3421,38.4900,79,99,102593
1.7840,0.3617,38.4300,79,99,102596
1.7595,0.3470,38.5200,79,99,102599
1.7595,0.3470,38.4300,79,99,102602
1.7791,0.3275,38.5500,79,99,102606
1.7351,0.3470,38.6500,79,99,102609
1.7644,0.3519,38.3600,79,99,102612
1.7449,0.3470,38.5200,79,99,102617
1.7791,0.3470,38.3600,79,99,102620
1.7791,0.3372,38.5500,79,99,102623
1.7742,0.3421,38.5800,79,99,102627
1.8133,0.3617,38.4300,79,99,102630
1.8182,0.3470,38.5200,79,99,102633
1.8524,0.3470,38.3600,79,99,102637
1.8426,0.3421,38.5200,79,99,102640
1.8524,0.3470,38.7400,79,99,102643
1.8964,0.3617,38.4000,79,99,102647
1.8866,0.3470,38.5500,79,99,102650
1.9208,0.3519,38.3300,79,99,102653
1.9062,0.3372,38.5500,79,99,102657
1.9404,0.3421,38.5500,79,99,102661
1.9746,0.3568,38.5800,79,99,102664
1.9941,0.3470,38.5500,79,99,102667
2.0332,0.3568,38.2700,79,99,102671
2.0186,0.3470,38.4000,79,99,102674
2.0137,0.3715,38.5200,79,99,102677
2.0186,0.3470,38.5200,79,99,102681
2.0186,0.3470,38.5500,79,99,102684
2.0821,0.3666,38.3300,79,99,102687
2.0430,0.3519,38.4600,79,99,102690
2.0772,0.3421,38.4900,79,99,102694
2.0626,0.3470,38.5200,79,99,102697
2.0577,0.3470,38.7400,79,99,102701
2.1212,0.3861,38.4000,79,99,102705
2.0870,0.3519,38.4900,79,99,102708
2.0626,0.3470,38.4600,79,99,102711
2.0283,0.3470,38.6500,79,99,102715
2.0137,0.3470,38.5500,79,99,102718
2.0332,0.3470,38.4600,79,99,102721
1.9892,0.3470,38.4900,79,99,102724
1.9746,0.3470,38.1500,79,99,102728
1.9208,0.3470,38.5500,79,99,102731
1.8866,0.3421,38.5500,79,99,102734
1.8719,0.3568,38.4000,79,99,102738
1.8133,0.3519,38.5200,79,99,102742
1.8377,0.3519,38.4300,79,99,102745
1.8035,0.3421,38.4900,79,99,102749
1.7791,0.3470,38.5500,79,99,102752
1.7546,0.3519,38.8100,79,99,102755
1.7155,0.3470,38.5500,79,99,102758
1.7400,0.3470,38.3600,79,99,102762
1.6911,0.3470,38.5200,79,99,102765
1.6764,0.3715,38.5500,79,99,102768
1.6764,0.3470,38.4600,79,99,102772
1.6764,0.3470,38.5800,79,99,102775
1.7400,0.3617,38.3000,79,99,102778
1.7204,0.3421,38.4900,79,99,102782
1.7155,0.3421,38.5800,79,99,102786
1.6911,0.3470,38.5200,79,99,102789
1.6520,0.3470,38.5200,79,99,102793
1.6960,0.3715,38.2700,79,99,102796
1.6569,0.3519,38.3600,79,99,102799
1.6520,0.3421,38.4900,79,99,102802
1.6716,0.3470,38.5800,79,99,102806
1.6911,0.3470,38.5200,79,99,102809
1.7595,0.3519,38.3300,79,99,102812
1.7595,0.3519,38.4000,79,99,102817
1.7449,0.3470,37.8000,79,99,102820
1.7595,0.3470,38.4000,79,99,102824
1.7204,0.3470,38.5200,79,99,102828
1.7204,0.3470,38.5500,79,99,102831
1.7351,0.3470,38.4300,79,99,102835
1.7449,0.3470,38.5200,79,99,102838
1.7937,0.3519,38.3600,79,99,102841
1.7791,0.3470,38.6500,79,99,102845
1.8133,0.3470,38.5200,79,99,102848
1.8622,0.3470,38.4300,79,99,102851
1.8231,0.3421,38.5500,79,99,102854
1.8475,0.3519,38.2700,79,99,102858
1.8035,0.3470,38.5200,79,99,102861
1.7986,0.3470,38.5800,79,99,102864
1.7986,0.3470,38.4900,79,99,102868
1.7840,0.3470,38.5500,79,99,102872
1.8475,0.3617,38.1100,79,99,102875
1.8280,0.3519,38.4600,79,99,102879
1.8280,0.3421,38.5500,79,99,102882
1.8035,0.3470,38.5800,79,99,102885
1.7546,0.3421,38.5200,79,99,102888
1.7742,0.3568,38.3600,79,99,102892
1.7546,0.3470,38.5200,79,99,102895
1.7889,0.3421,38.7400,79,99,102898
1.8328,0.3519,38.5500,79,99,102902
1.8328,0.3421,38.5500,79,99,102905
1.8133,0.3470,38.4300,79,99,102908
1.7595,0.3519,38.4900,79,99,102913
1.7937,0.3470,38.4900,79,99,102916
1.8035,0.3421,38.5500,79,99,102919
1.8133,0.3421,38.5500,79,99,102923
1.8280,0.3568,38.4000,79,99,102926
1.7986,0.3275,38.5500,79,99,102929
1.8231,0.3470,38.4000,79,99,102932
1.8035,0.3421,38.5800,79,99,102936
1.8231,0.3666,38.5500,79,99,102939
1.8426,0.3519,38.5200,79,99,102942
1.8377,0.3763,38.5500,79,99,102946
1.8622,0.3519,38.3300,79,99,102949
1.8524,0.3470,38.4000,79,99,102952
1.8622,0.3763,38.5200,79,99,102957
1.8817,0.3519,38.4600,79,99,102960
1.8866,0.3421,38.5500,79,99,102963
1.9697,0.3568,38.2700,79,99,102966
1.9208,0.3421,38.5200,79,99,102970
1.9306,0.3421,38.5200,79,99,102973
1.9453,0.3519,38.5500,79,99,102976
1.9355,0.3421,38.5200,79,99,102980
1.9941,0.3666,38.3000,79,99,102983
1.9208,0.3519,38.4600,79,99,102986
1.8915,0.3421,38.4600,79,99,102990
1.8573,0.3470,38.5500,79,99,102993
1.8133,0.3470,38.6500,79,99,102996
1.8133,0.3568,38.3000,79,99,103001
1.7595,0.3470,38.5200,79,99,103004
1.7644,0.3470,38.4300,79,99,103007
1.7204,0.3470,38.5200,79,99,103011
1.7107,0.3470,38.5800,79,99,103014
1.6667,0.3519,38.4000,79,99,103017
1.6080,0.3470,38.4000,79,99,103020
1.6129,0.3470,38.4000,79,99,103024
1.5934,0.3470,38.5200,79,99,103027
1.5885,0.3421,38.6500,79,99,103030
1.5885,0.3421,38.4300,79,99,103034
1.5738,0.3519,38.5200,79,99,103037
1.6080,0.3470,38.4000,79,99,103041
1.6080,0.3421,38.5500,79,99,103045
1.6276,0.3421,38.5200,79,99,103048
1.6276,0.3519,38.4300,79,99,103051
1.5787,0.3959,38.5500,79,99,103054
1.5982,0.3519,38.3300,79,99,103058
1.5885,0.3470,38.4300,79,99,103061
1.6129,0.3470,38.4600,79,99,103064
1.6276,0.3519,38.4900,79,99,103068
1.5640,0.3470,38.5800,79,99,103071
1.5494,0.3568,38.2700,79,99,103074
1.5152,0.3519,38.4900,79,99,103078
1.5591,0.3421,38.5200,79,99,103081
1.6716,0.3519,38.5200,79,99,103085
1.7986,0.3421,38.5500,79,99,103089
2.1114,0.3666,38.3000,79,99,103092
2.3900,0.3470,38.4600,79,99,103095
2.7517,0.3421,38.4600,79,99,103098
3.1281,0.3470,38.5200,79,99,103102
3.4702,0.3275,38.5500,79,99,103105
3.6950,0.3617,38.4600,79,99,103108
3.5973,0.3519,38.4600,79,99,103112
3.3529,0.3470,38.4300,79,99,103115
2.9277,0.3470,38.5800,79,99,103118
2.4927,0.3568,38.4900,79,99,103122
2.1212,0.3519,38.3600,79,99,103126
1.7400,0.3421,38.6500,79,99,103129
1.5200,0.3519,38.4000,79,99,103132
1.3587,0.3372,38.5800,79,99,103136
1.3245,0.3372,38.5500,79,99,103139
1.2903,0.3519,38.4900,79,99,103142
1.2805,0.3470,38.5500,79,99,103146
1.3148,0.3470,38.4000,79,99,103149
1.3001,0.3421,38.5200,79,99,103152
1.3148,0.3421,37.7100,79,99,103156
1.3392,0.3519,38.4300,79,99,103159
1.3587,0.3470,38.5800,79,99,103162
1.4027,0.3519,38.4000,79,99,103165
1.4125,0.3421,38.5500,79,99,103170
1.4418,0.3421,38.5500,79,99,103173
1.4663,0.3617,38.4900,79,99,103176
1.4614,0.3421,38.6200,79,99,103180
1.5200,0.3666,38.2400,79,99,103183
1.5054,0.3519,38.4600,79,99,103186
1.5249,0.3421,38.5500,79,99,103190
1.5396,0.3519,38.5200,79,99,103193
1.5445,0.3421,38.5500,79,99,103196
1.5982,0.3666,38.3600,79,99,103200
1.5689,0.3470,38.4900,79,99,103203
1.5934,0.3421,38.4600,79,99,103206
1.6129,0.3470,38.5500,79,99,103211
1.6227,0.3470,38.5500,79,99,103214
1.6618,0.3519,38.4900,79,99,103217
1.6422,0.3519,38.4900,79,99,103220
1.6716,0.3519,38.4000,79,99,103224
1.6618,0.3470,38.5200,79,99,103227
1.6618,0.3470,38.5500,79,99,103230
1.6813,0.3519,38.4900,79,99,103234
1.6813,0.3470,38.5500,79,99,103237
1.7058,0.3568,38.4600,79,99,103240
1.6813,0.3470,38.5500,79,99,103244
1.6862,0.3421,38.5800,79,99,103247
1.7155,0.3519,38.4300,79,99,103250
1.7058,0.3470,38.5500,79,99,103255
1.7449,0.3470,38.4300,79,99,103258
1.7351,0.3372,38.4600,79,99,103261
1.7546,0.3421,38.5500,79,99,103264
1.7791,0.3519,38.4600,79,99,103268
1.7742,0.3470,38.5500,79,99,103271
1.8280,0.3568,38.3600,79,99,103274
1.8084,0.3519,38.4900,79,99,103278
1.8035,0.3421,38.5500,79,99,103281
1.8328,0.3470,38.2100,79,99,103284
1.8328,0.3421,38.5500,79,99,103288
1.8964,0.3617,38.2700,79,99,103291
1.8622,0.3372,38.4300,79,99,103294
1.8671,0.3372,38.5200,79,99,103299
1.8768,0.3470,38.4900,79,99,103302
1.8866,0.3421,38.5500,79,99,103305
1.9599,0.3617,38.4300,79,99,103308
1.9355,0.3519,38.4900,79,99,103312
1.9453,0.3519,38.4300,79,99,103315
1.9404,0.3470,38.5500,79,99,103318
1.9550,0.3421,38.5500,79,99,103322
2.0088,0.3568,38.3600,79,99,103325
1.9941,0.3470,38.5200,79,99,103328
2.0381,0.3519,38.4300,79,99,103332
2.0332,0.3470,38.5500,79,99,103335
2.0430,0.3421,38.5800,79,99,103339
2.0821,0.3861,38.4000,79,99,103342
2.0772,0.3519,38.5500,79,99,103346
2.1114,0.3519,38.4300,79,99,103349
2.0821,0.3715,38.5200,79,99,103352
2.1017,0.3470,38.5200,79,99,103356
2.1212,0.3470,37.7100,79,99,103359
2.1065,0.3470,38.5500,79,99,103362
2.1310,0.3519,38.4300,79,99,103366
2.0821,0.3470,38.5800,79,99,103369
2.0723,0.3421,38.4000,79,99,103372
2.0723,0.3519,38.4600,79,99,103375
2.0332,0.3275,38.5500,79,99,103379
2.0577,0.3568,38.3300,79,99,103383
2.0088,0.3470,38.4300,79,99,103386
1.9697,0.3421,38.4600,79,99,103390
1.9550,0.3470,38.5200,79,99,103393
1.9110,0.3470,38.5800,79,99,103396
1.9306,0.3568,38.2100,79,99,103400
1.8622,0.3470,38.4600,79,99,103403
1.8475,0.3421,38.6500,79,99,103406
1.8182,0.3519,38.5200,79,99,103410
1.7889,0.3470,38.5500,79,99,103413
1.8133,0.3617,38.4000,79,99,103416
1.7693,0.3568,38.4900,79,99,103419
1.7595,0.3470,38.4300,79,99,103424
1.7498,0.3470,38.6800,79,99,103427
1.7351,0.3421,38.5500,79,99,103432
1.7449,0.3519,38.5200,79,99,103435
1.7693,0.3519,38.4300,79,99,103438
1.7498,0.3470,38.6500,79,99,103442
1.7840,0.3568,38.3600,79,99,103445
1.7644,0.3470,38.4300,79,99,103448
1.7693,0.3421,38.6800,79,99,103452
1.7840,0.3470,38.4600,79,99,103455
1.7742,0.3470,38.5500,79,99,103458
1.8280,0.3519,38.3300,79,99,103461
1.7986,0.3421,38.4900,79,99,103465
1.7937,0.3275,38.5500,79,99,103469
1.8182,0.3470,38.5800,79,99,103472
1.8084,0.3470,38.5500,79,99,103476
1.8866,0.3568,38.2400,79,99,103479
1.8084,0.3470,38.5200,79,99,103482
1.8084,0.3715,38.5200,79,99,103486
1.8035,0.3470,38.5500,79,99,103489
1.8084,0.3372,38.5500,79,99,103492
1.8719,0.3715,38.4000,79,99,103496
1.8524,0.3519,38.4900,79,99,103499
1.8524,0.3421,38.4300,79,99,103502
1.8426,0.3470,38.5200,79,99,103505
1.8475,0.3421,38.5500,79,99,103510
1.8768,0.3568,38.4300,79,99,103513
1.8573,0.3470,38.5200,79,99,103516
1.8866,0.3470,38.4000,79,99,103520
1.8671,0.3275,38.5500,79,99,103523
1.8622,0.3421,38.5500,79,99,103526
1.8915,0.3617,38.4300,79,99,103530
1.8768,0.3470,38.5200,79,99,103533
1.9013,0.3519,38.4900,79,99,103536
1.8622,0.3421,38.5200,79,99,103540
1.8719,0.3421,38.5200,79,99,103543
1.8768,0.3715,38.4000,79,99,103546
1.8524,0.3470,38.5200,79,99,103549
1.8817,0.3470,38.3300,79,99,103554
1.8475,0.3324,38.5500,79,99,103557
1.8573,0.3519,38.5500,79,99,103560
1.8719,0.3519,38.4600,79,99,103564
1.8426,0.3421,38.5500,79,99,103567
1.8817,0.3568,38.3300,79,99,103570
1.8475,0.3519,38.4300,79,99,103574
1.8377,0.3421,38.5500,79,99,103577
1.8328,0.3568,38.5200,79,99,103580
1.8231,0.3421,38.5500,79,99,103584
1.8768,0.3666,38.3000,79,99,103587
1.8231,0.3519,38.4900,79,99,103590
1.8377,0.3421,38.4900,79,99,103595
1.8524,0.3617,38.5200,79,99,103598
1.8671,0.3421,38.5500,79,99,103601
1.9159,0.3568,38.3300,79,99,103604
1.8964,0.3519,38.4900,79,99,103608
1.9110,0.3470,38.5200,79,99,103611
1.9062,0.3519,38.5500,79,99,103614
1.9208,0.3421,38.5800,79,99,103618
1.9501,0.3519,38.5200,79,99,103621
1.9844,0.3275,38.5200,79,99,103624
2.0039,0.3568,38.5500,79,99,103628
1.9941,0.3421,38.5500,79,99,103631
2.0235,0.3519,38.5500,79,99,103634
2.0479,0.3519,38.3600,79,99,103639
2.0479,0.3275,38.5500,79,99,103642
2.0430,0.3519,38.3600,79,99,103645
2.0137,0.3470,38.7700,79,99,103648
1.9990,0.3421,38.5800,79,99,103652
1.9990,0.3519,38.4900,79,99,103655
1.9550,0.3470,38.5500,79,99,103658
1.9648,0.3519,38.3000,79,99,103662
1.9062,0.3568,38.4900,79,99,103665
1.8622,0.3275,38.5500,79,99,103668
1.8475,0.3519,38.4600,79,99,103672
1.7937,0.3421,38.5500,79,99,103675
1.8133,0.3568,38.2400,79,99,103678
1.7449,0.3421,38.4600,79,99,103682
1.7253,0.3421,38.5500,79,99,103686
1.7009,0.3519,38.5200,79,99,103689
1.6862,0.3421,38.5200,79,99,103692
1.7400,0.3617,38.3600,79,99,103696
1.7107,0.3617,38.5200,79,99,103699
1.7107,0.3421,38.4600,79,99,103702
1.7009,0.3617,38.5200,79,99,103706
1.7107,0.3372,38.5500,79,99,103709
1.7498,0.3568,38.4000,79,99,103712
1.7351,0.3519,38.5500,79,99,103716
1.7400,0.3470,38.4300,79,99,103719
1.7107,0.3470,38.4900,79,99,103723
1.7107,0.3421,38.5200,79,99,103726
1.7253,0.3568,38.4600,79,99,103730
1.6960,0.3470,38.4600,79,99,103733
1.6764,0.3568,38.4300,79,99,103736
1.5982,0.3519,38.5200,79,99,103740
1.5836,0.3421,38.6500,79,99,103743
1.6276,0.3421,38.4600,79,99,103746
1.7107,0.3470,38.5200,79,99,103750
1.9013,0.3519,38.3300,79,99,103753
2.1163,0.3470,38.5200,79,99,103756
2.4389,0.3470,38.6500,79,99,103760
2.8348,0.3568,38.4900,79,99,103763
3.1965,0.3421,38.5200,79,99,103767
3.6217,0.3568,38.3300,79,99,103770
3.8025,0.3470,38.4300,79,99,103774
3.7634,0.3421,38.5500,79,99,103777
3.5239,0.3470,38.7100,79,99,103780
3.1134,0.3470,38.5800,79,99,103784
2.7273,0.3617,38.2700,79,99,103787
2.2336,0.3470,38.4600,79,99,103790
1.8817,0.3421,38.5200,79,99,103794
1.6618,0.3470,38.5200,79,99,103797
1.4956,0.3470,38.5500,79,99,103800
1.4565,0.3617,38.4000,79,99,103804
1.4027,0.3519,38.4600,79,99,103808
1.3783,0.3470,38.4300,79,99,103811
1.3685,0.3470,38.5200,79,99,103814
1.3881,0.3421,38.5500,79,99,103818
1.4223,0.3470,38.5800,79,99,103821
1.4174,0.3763,38.4900,79,99,103824
1.4565,0.3470,38.4000,79,99,103828
1.4516,0.3421,38.5200,79,99,103831
1.4761,0.3421,38.5500,79,99,103834
1.5152,0.3568,38.3600,79,99,103838
1.5054,0.3470,38.5500,79,99,103841
1.5396,0.3421,38.4300,79,99,103844
1.5249,0.3421,38.4600,79,99,103848
1.5543,0.3421,38.5500,79,99,103852
1.5934,0.3519,38.4300,79,99,103855
1.6080,0.3275,38.5500,79,99,103858
1.6520,0.3470,38.3000,79,99,103862
1.6276,0.3470,38.3300,79,99,103865
1.6373,0.3959,38.5500,79,99,103868
1.6618,0.3519,38.4900,79,99,103872
1.6520,0.3470,38.6200,79,99,103875
1.7009,0.3568,38.3000,79,99,103878
1.6716,0.3421,38.4900,79,99,103882
1.6764,0.3421,38.5500,79,99,103885
1.6764,0.3519,38.5200,79,99,103888
1.6764,0.3421,38.8100,79,99,103892
1.7351,0.3568,38.3300,79,99,103896
1.7155,0.3519,38.4900,79,99,103899
1.7204,0.3470,38.4900,79,99,103902
1.7253,0.3470,38.5800,79,99,103906
1.7351,0.3421,38.7700,79,99,103909
1.7791,0.3519,38.3600,79,99,103912
1.7595,0.3617,38.5200,79,99,103916
1.7840,0.3421,38.4300,79,99,103919
1.7791,0.3470,38.5200,79,99,103922
1.7791,0.3470,38.8100,79,99,103926
1.8280,0.3519,38.4300,79,99,103929
1.8084,0.3470,38.5500,79,99,103932
1.8426,0.3568,38.4900,79,99,103937
1.8084,0.3421,38.5500,79,99,103940
1.8182,0.3421,38.5500,79,99,103943
1.8280,0.3470,38.5500,79,99,103946
1.8231,0.3470,38.6500,79,99,103950
1.8573,0.3519,38.4300,79,99,103953
1.8426,0.3470,38.5200,79,99,103956
1.8622,0.3470,38.5500,79,99,103960
1.8915,0.3470,38.4600,79,99,103963
1.8817,0.3470,38.5500,79,99,103966
1.9453,0.3617,38.2700,79,99,103970
1.9306,0.3470,38.4300,79,99,103973
1.9355,0.3568,38.5500,79,99,103976
1.9550,0.3470,38.5800,79,99,103981
1.9599,0.3470,38.4900,79,99,103984
2.0235,0.3519,38.3000,79,99,103987
1.9941,0.3470,38.4600,79,99,103990
2.0039,0.3421,38.6800,79,99,103994
2.0283,0.3617,38.5500,79,99,103997
2.0381,0.3470,38.5200,79,99,104000
2.1163,0.3666,38.3300,79,99,104004
2.0870,0.3568,38.5500,79,99,104007
2.0968,0.3372,38.4600,79,99,104010
2.0968,0.3470,38.5500,79,99,104014
2.1065,0.3421,38.5800,79,99,104017
2.1457,0.3861,38.4000,79,99,104020
2.1212,0.3519,38.4900,79,99,104024
2.1261,0.3470,38.4300,79,99,104028
2.1017,0.3470,38.5200,79,99,104031
2.0968,0.3421,38.5500,79,99,104034
2.1212,0.3470,38.3600,79,99,104038
1.9453,0.3519,38.4300,79,99,104042
1.8915,0.3470,38.5500,79,99,104046
1.8817,0.3519,38.2700,79,99,104049
1.8133,0.3519,38.4600,79,99,104052
1.7742,0.3421,38.5800,79,99,104056
1.7986,0.3519,38.4600,79,99,104059
1.7302,0.3421,38.5500,79,99,104062
1.7546,0.3568,38.3300,79,99,104066
1.7009,0.3470,38.4300,79,99,104070
1.6813,0.3421,38.5500,79,99,104073
1.6813,0.3470,38.5800,79,99,104076
1.6716,0.3421,38.5500,79,99,104080
1.7253,0.3666,38.3300,79,99,104083
1.6911,0.3519,38.4600,79,99,104086
1.6813,0.3372,38.5200,79,99,104090
1.6813,0.3470,38.5200,79,99,104093
1.6911,0.3421,38.5500,79,99,104096
1.7351,0.3568,38.3600,79,99,104100
1.7302,0.3470,38.5200,79,99,104103
1.7400,0.3470,38.4000,79,99,104107
1.7204,0.3421,38.5800,79,99,104110
1.7253,0.3470,38.5800,79,99,104114
1.7498,0.3568,38.4300,79,99,104117
1.7351,0.3470,38.5200,79,99,104120
1.7595,0.3568,38.4000,79,99,104124
1.7253,0.3470,38.5500,79,99,104127
1.7351,0.3421,38.5500,79,99,104130
1.7498,0.3470,38.4300,79,99,104134
1.7449,0.3519,38.5500,79,99,104137
1.7742,0.3470,38.4000,79,99,104140
1.7546,0.3519,38.5500,79,99,104144
1.7693,0.3470,38.5500,79,99,104147
1.7937,0.3568,38.5200,79,99,104151
1.7742,0.3470,38.5500,79,99,104154
1.8133,0.3519,38.2700,79,99,104158
1.7937,0.3519,38.4300,79,99,104161
1.7889,0.3470,38.5500,79,99,104164
1.7937,0.3470,38.4900,79,99,104168
1.7889,0.3568,38.5800,79,99,104171
1.8377,0.3617,38.2100,79,99,104174
1.7986,0.3470,38.6500,79,99,104178
1.7986,0.3372,38.5200,79,99,104181
1.8084,0.3519,38.4900,79,99,104184
1.8035,0.3470,38.5500,79,99,104188
1.8719,0.3666,38.3300,79,99,104192
1.8280,0.3519,38.4900,79,99,104195
1.8328,0.3470,38.4600,79,99,104198
1.8231,0.3470,38.5200,79,99,104202
1.8231,0.3421,38.5500,79,99,104205
1.8573,0.3812,38.4600,79,99,104208
1.8671,0.3519,38.5500,79,99,104212
1.8426,0.3470,38.7700,79,99,104215
1.8475,0.3470,38.5200,79,99,104218
1.8231,0.3421,38.5500,79,99,104222
1.8475,0.3519,38.2400,79,99,104225
1.8182,0.3470,38.5200,79,99,104228
1.8524,0.3519,38.5200,79,99,104232
1.8182,0.3421,38.4900,79,99,104236
1.8524,0.3470,38.5500,79,99,104239
1.8328,0.3519,38.4300,79,99,104242
1.8426,0.3421,38.5200,79,99,104246
1.8475,0.3519,38.3000,79,99,104249
1.8084,0.3421,38.4600,79,99,104252
1.8280,0.3372,38.5200,79,99,104256
1.8231,0.3519,38.4300,79,99,104259
1.8084,0.3421,38.5500,79,99,104262
1.8475,0.3568,38.2700,79,99,104266
1.7986,0.3421,38.4900,79,99,104269
1.7986,0.3470,38.5500,79,99,104272
1.7986,0.3470,38.6500,79,99,104276
1.7889,0.3519,38.5500,79,99,104280
1.8426,0.3666,38.3000,79,99,104283
1.7937,0.3470,38.4600,79,99,104286
1.7742,0.3421,38.5500,79,99,104290
1.7644,0.3470,38.5800,79,99,104293
1.7693,0.3421,38.6500,79,99,104296
1.8133,0.3568,38.3300,79,99,104300
1.7840,0.3470,38.6500,79,99,104303
1.7986,0.3470,38.4600,79,99,104306
1.7937,0.3470,38.5500,79,99,104310
1.7840,0.3421,38.5500,79,99,104313
1.8377,0.3568,38.3600,79,99,104316
1.7986,0.3470,38.5200,79,99,104321
1.8231,0.3519,38.4000,79,99,104324
1.7937,0.3715,38.5200,79,99,104327
1.7986,0.3421,38.5500,79,99,104330
1.8084,0.3470,38.4000,79,99,104334
1.7986,0.3470,38.5200,79,99,104337
1.8328,0.3519,38.4000,79,99,104340
1.8133,0.3470,38.5500,79,99,104344
1.8328,0.3421,38.6800,79,99,104347
1.8622,0.3568,38.4300,79,99,104350
1.8524,0.3470,38.5500,79,99,104354
1.9062,0.3519,38.3600,79,99,104357
1.9208,0.3519,38.4300,79,99,104360
1.8817,0.3421,38.5200,79,99,104364
1.8964,0.3519,38.4900,79,99,104368
1.9306,0.3372,38.5500,79,99,104371
1.9697,0.3568,38.2700,79,99,104374
1.9550,0.3568,38.4900,79,99,104378
1.9844,0.3470,38.5500,79,99,104381
2.0088,0.3470,38.6500,79,99,104384
2.0186,0.3568,38.6500,79,99,104388
2.0870,0.3666,38.3000,79,99,104391
2.0430,0.3470,38.4600,79,99,104394
2.0332,0.3421,38.4900,79,99,104397
2.0235,0.3470,38.6500,79,99,104401
2.0430,0.3372,38.5500,79,99,104404
2.0332,0.3568,38.4000,79,99,104408
1.9746,0.3470,38.4900,79,99,104412
1.9550,0.3470,38.4900,79,99,104415
1.9159,0.3470,38.5800,79,99,104418
1.8964,0.3421,38.6500,79,99,104422
1.8964,0.3959,38.3600,79,99,104425
1.8231,0.3470,38.4900,79,99,104428
1.8182,0.3470,38.5200,79,99,104432
1.7693,0.3666,38.5500,79,99,104435
1.7595,0.3519,38.5500,79,99,104438
1.7693,0.3421,38.4900,79,99,104441
1.7253,0.3470,38.5200,79,99,104445
1.7449,0.3519,38.4000,79,99,104449
1.7058,0.3470,38.4900,79,99,104452
1.7009,0.3372,38.5200,79,99,104456
1.7155,0.3519,38.4000,79,99,104459
1.6960,0.3470,38.5500,79,99,104462
1.7253,0.3519,38.3300,79,99,104466
1.7058,0.3372,38.5500,79,99,104469
1.7155,0.3421,38.5500,79,99,104472
1.7351,0.3568,38.4600,79,99,104475
1.7302,0.3421,38.4900,79,99,104479
1.7840,0.3617,38.4600,79,99,104482
1.7400,0.3617,38.4300,79,99,104485
1.6813,0.3421,38.5500,79,99,104489
1.6227,0.3568,38.5200,79,99,104493
1.6129,0.3421,38.5500,79,99,104496
1.6373,0.3666,38.3300,79,99,104500
1.6862,0.3519,38.4900,79,99,104503
1.8035,0.3421,38.4900,79,99,104506
2.0088,0.3470,38.5200,79,99,104510
2.2825,0.3421,38.5200,79,99,104513
2.6882,0.3568,38.3300,79,99,104516
3.0596,0.3470,38.5200,79,99,104519
3.4604,0.3421,38.4300,79,99,104523
3.7390,0.3470,38.5200,79,99,104526
3.8905,0.3275,38.5500,79,99,104529
3.7732,0.3568,38.4900,79,99,104534
3.3871,0.3470,38.5200,79,99,104537
2.9570,0.3617,38.3600,79,99,104540
2.4340,0.3470,38.6200,79,99,104544
2.0332,0.3421,38.5200,79,99,104547
1.7742,0.3617,38.4300,79,99,104550
1.5396,0.3470,38.6200,79,99,104553
1.4565,0.3519,38.3000,79,99,104557
1.3734,0.3421,38.4900,79,99,104560
1.3587,0.3421,38.5200,79,99,104563
1.3685,0.3519,38.4300,79,99,104567
1.3587,0.3470,38.6500,79,99,104570
1.3978,0.3568,38.2700,79,99,104573
1.3832,0.3470,38.5200,79,99,104578
1.4027,0.3470,38.4300,79,99,104581
1.4321,0.3617,38.5200,79,99,104584
1.4370,0.3421,38.5500,79,99,104588
1.4956,0.3568,38.2100,79,99,104591
1.4761,0.3470,38.4000,79,99,104594
1.4956,0.3421,38.5500,79,99,104598
1.5054,0.3470,38.5200,79,99,104601
1.5298,0.3421,38.4600,79,99,104604
1.5885,0.3617,38.3600,79,99,104607
1.5689,0.3470,38.4600,79,99,104611
1.5836,0.3421,37.8000,79,99,104614
1.6031,0.3470,38.5500,79,99,104617
1.6031,0.3372,38.5500,79,99,104622
1.6471,0.3568,38.3600,79,99,104625
1.6471,0.3470,38.5200,79,99,104628
1.6569,0.3470,38.4000,79,99,104632
1.6422,0.3470,38.4000,79,99,104635
1.6520,0.3470,38.5200,79,99,104638
1.7107,0.3568,38.4000,79,99,104641
1.6813,0.3470,38.5200,79,99,104645
1.7204,0.3568,38.4600,79,99,104648
1.7009,0.3470,38.5200,79,99,104651
1.7204,0.3275,38.5800,79,99,104656
1.7204,0.3421,38.5200,79,99,104659
1.7351,0.3666,38.4600,79,99,104664
1.7351,0.3470,38.7700,79,99,104667
1.7986,0.3568,38.2700,79,99,104670
1.7742,0.3519,38.4600,79,99,104674
1.7742,0.3421,38.6200,79,99,104677
1.7644,0.3470,38.5200,79,99,104680
1.7693,0.3470,38.5500,79,99,104684
1.8231,0.3666,38.2700,79,99,104687
1.7937,0.3470,38.4900,79,99,104690
1.7937,0.3421,38.4000,79,99,104693
1.8035,0.3519,38.5500,79,99,104697
1.8182,0.3421,38.5200,79,99,104700
1.8671,0.3568,38.3300,79,99,104704
1.8573,0.3470,38.4900,79,99,104708
1.8768,0.3470,38.8700,79,99,104711
1.8622,0.3470,38.5200,79,99,104714
1.8817,0.3470,38.7700,79,99,104718
1.9208,0.3519,38.4900,79,99,104721
1.9257,0.3372,38.5500,79,99,104724
1.9795,0.3568,38.4000,79,99,104728
1.9795,0.3421,38.5500,79,99,104731
1.9990,0.3421,38.5200,79,99,104734
2.0430,0.3519,38.4900,79,99,104737
2.0430,0.3421,38.5500,79,99,104741
2.1017,0.3519,38.4000,79,99,104744
2.0626,0.3470,38.4600,79,99,104748
2.0772,0.3470,38.7400,79,99,104752
2.1114,0.3568,38.4300,79,99,104755
2.1114,0.3421,38.5500,79,99,104758
2.1652,0.3519,38.3000,79,99,104762
2.1457,0.3519,38.4900,79,99,104765
2.1408,0.3421,38.5500,79,99,104768
2.1554,0.3519,38.4600,79,99,104771
2.1310,0.3421,38.5800,79,99,104775
2.1750,0.3568,38.2100,79,99,104778
2.0968,0.3421,38.4900,79,99,104781
2.0723,0.3470,38.5500,79,99,104785
2.0430,0.3470,38.4900,79,99,104788
2.0088,0.3421,38.4300,79,99,104792
2.0332,0.3666,38.3000,79,99,104796
1.9697,0.3519,38.4600,79,99,104799
1.8964,0.3421,38.4900,79,99,104802
1.8573,0.3372,38.6200,79,99,104805
1.8280,0.3421,38.5500,79,99,104809
1.8280,0.3568,38.4900,79,99,104812
1.7937,0.3519,38.4900,79,99,104815
1.7595,0.3519,38.4300,79,99,104819
1.7155,0.3470,38.5200,79,99,104822
1.6960,0.3519,38.5800,79,99,104825
1.7058,0.3519,38.4300,79,99,104829
1.6764,0.3470,38.5200,79,99,104833
1.6911,0.3568,38.4000,79,99,104836
1.6569,0.3470,38.5500,79,99,104840
1.6520,0.3421,38.5500,79,99,104843
1.6618,0.3470,38.4300,79,99,104846
1.6667,0.3470,38.5500,79,99,104849
1.6960,0.3470,38.3600,79,99,104853
1.6764,0.3372,38.5500,79,99,104856
1.6911,0.3421,38.5800,79,99,104859
1.7107,0.3519,38.4300,79,99,104863
1.6911,0.3470,38.5500,79,99,104866
1.7351,0.3519,38.2400,79,99,104869
1.7302,0.3519,38.4300,79,99,104873
1.7009,0.3470,38.5200,79,99,104877
1.7009,0.3470,38.5500,79,99,104880
1.7009,0.3372,38.5500,79,99,104884
1.7595,0.3470,38.2400,79,99,104887
1.7302,0.3470,38.4600,79,99,104890
1.7302,0.3959,38.5500,79,99,104893
1.7595,0.3519,38.5200,79,99,104897
1.7302,0.3470,38.6200,79,99,104900
1.7889,0.3959,38.3300,79,99,104903
1.7644,0.3470,38.4600,79,99,104907
1.7693,0.3421,38.4000,79,99,104910
1.7937,0.3470,38.5500,79,99,104913
1.7742,0.3421,38.6200,79,99,104918
1.8035,0.3715,38.4000,79,99,104921
1.7840,0.3519,38.5200,79,99,104924
1.8035,0.3421,38.4000,79,99,104927
1.7791,0.3519,38.5500,79,99,104931
1.7791,0.3421,38.5500,79,99,104934
1.7889,0.3861,38.4000,79,99,104937
1.7546,0.3470,38.5200,79,99,104941
1.7937,0.3519,38.4900,79,99,104944
1.7644,0.3372,38.4600,79,99,104947
1.7791,0.3470,38.5200,79,99,104951
1.8035,0.3568,38.4300,79,99,104954
1.7889,0.3372,38.5500,79,99,104957
1.8231,0.3470,38.4300,79,99,104962
1.7986,0.3421,38.4300,79,99,104965
1.7986,0.3275,38.5500,79,99,104968
1.8280,0.3519,38.7100,79,99,104972
1.8084,0.3470,38.5500,79,99,104975
1.8475,0.3519,38.2700,79,99,104978
1.7986,0.3421,38.4300,79,99,104981
1.8035,0.3470,38.5200,79,99,104985
1.8035,0.3519,38.5200,79,99,104988
1.7986,0.3421,38.7400,79,99,104991
1.8524,0.3763,38.3000,79,99,104995
1.8182,0.3568,38.4300,79,99,104998
1.8084,0.3421,38.5200,79,99,105001
1.8133,0.3763,38.5200,79,99,105006
1.8133,0.3275,38.5500,79,99,105009
1.8622,0.3568,38.3300,79,99,105012
1.8328,0.3519,38.5500,79,99,105015
1.8084,0.3519,38.4300,79,99,105019
1.7889,0.3470,38.5500,79,99,105022
1.7889,0.3470,38.5200,79,99,105025
1.8182,0.3519,38.4000,79,99,105029
1.7937,0.3470,38.5200,79,99,105032
1.8182,0.3470,38.4000,79,99,105035
1.7840,0.3421,38.5200,79,99,105039
1.7693,0.3470,38.5800,79,99,105042
1.7791,0.3519,38.4900,79,99,105046
1.7644,0.3568,38.5500,79,99,105050
1.7937,0.3519,38.4000,79,99,105053
1.7595,0.3421,38.5200,79,99,105056
1.7644,0.3519,38.5200,79,99,105059
1.7840,0.3470,38.4300,79,99,105063
1.7595,0.3470,38.5200,79,99,105066
1.7986,0.3519,38.3300,79,99,105069
1.7791,0.3470,38.4600,79,99,105073
1.7791,0.3421,38.6500,79,99,105076
1.7937,0.3470,38.4900,79,99,105079
1.7742,0.3421,38.5500,79,99,105083
1.8133,0.3910,38.2700,79,99,105086
1.7840,0.3470,38.5200,79,99,105090
1.7791,0.3421,38.5500,79,99,105093
1.7840,0.3421,38.4900,79,99,105097
1.7840,0.3470,38.5500,79,99,105100
1.8328,0.3666,38.2700,79,99,105103
1.8035,0.3519,38.4300,79,99,105107
1.8035,0.3421,38.4900,79,99,105110
1.7986,0.3470,38.5200,79,99,105113
1.8133,0.3275,38.4900,79,99,105117
1.8280,0.3568,38.6500,79,99,105120
1.7889,0.3568,38.5200,79,99,105123
1.7986,0.3470,38.4300,79,99,105127
1.7840,0.3470,38.5200,79,99,105131
1.7937,0.3470,38.5500,79,99,105134
1.8328,0.3568,38.3600,79,99,105137
1.8035,0.3519,38.5500,79,99,105141
1.8622,0.3568,38.3600,79,99,105144
1.8084,0.3470,38.5800,79,99,105147
1.8133,0.3470,38.5800,79,99,105151
1.8426,0.3470,38.4300,79,99,105154
1.8133,0.3470,38.5200,79,99,105157
1.8426,0.3470,38.4000,79,99,105161
1.8084,0.3275,38.4600,79,99,105164
1.8133,0.3421,38.5200,79,99,105167
1.8280,0.3666,38.4000,79,99,105171
1.8133,0.3470,38.5500,79,99,105175
1.8328,0.3519,38.3300,79,99,105178
1.7889,0.3421,38.5200,79,99,105181
1.7986,0.3421,38.5500,79,99,105185
1.8084,0.3519,38.5500,79,99,105188
1.8035,0.3421,38.5500,79,99,105191
1.8475,0.3568,38.2100,79,99,105195
1.8084,0.3519,38.4600,79,99,105198
1.7986,0.3421,38.5500,79,99,105201
1.7937,0.3421,38.5200,79,99,105205
1.8084,0.3275,38.5500,79,99,105208
1.8524,0.3666,38.3300,79,99,105211
1.8377,0.3519,38.4900,79,99,105216
1.7986,0.3421,38.4600,79,99,105219
1.7791,0.3470,38.4300,79,99,105222
1.7791,0.3568,38.5200,79,99,105225
1.8133,0.3519,38.3600,79,99,105229
1.7986,0.3470,38.4600,79,99,105232
1.8133,0.3519,38.4000,79,99,105235
1.7889,0.3275,38.5500,79,99,105239
1.8084,0.3470,38.6200,79,99,105242
1.8475,0.3519,38.4900,79,99,105245
1.8231,0.3470,38.4900,79,99,105249
1.8524,0.3568,38.3600,79,99,105252
1.8182,0.3470,38.5800,79,99,105255
1.8231,0.3421,38.6500,79,99,105260
1.8622,0.3568,38.4600,79,99,105263
1.8622,0.3470,38.5200,79,99,105268
1.8231,0.3421,38.5500,79,99,105271
1.8622,0.3666,38.2400,79,99,105274
1.8231,0.3470,38.4600,79,99,105278
1.8182,0.3372,38.5200,79,99,105281
1.8524,0.3568,38.4900,79,99,105284
1.8084,0.3421,38.5500,79,99,105287
1.8719,0.3617,37.5300,79,99,105291
1.8426,0.3519,38.4600,79,99,105294
1.8426,0.3421,38.4000,79,99,105297
1.8280,0.3470,38.5800,79,99,105302
1.8280,0.3470,38.5200,79,99,105305
1.8622,0.3568,38.5800,79,99,105308
1.8475,0.3470,38.5200,79,99,105312
1.8817,0.3421,38.4000,79,99,105315
1.8719,0.3470,38.5500,79,99,105318
1.8915,0.3470,38.5200,79,99,105321
1.9355,0.3617,38.4000,79,99,105325
1.9159,0.3470,38.5200,79,99,105328
1.9599,0.3666,38.4000,79,99,105331
1.9550,0.3372,38.4900,79,99,105335
1.9697,0.3421,38.5500,79,99,105338
2.0137,0.3519,38.4300,79,99,105341
2.0137,0.3470,38.5500,79,99,105346
2.0479,0.3470,38.4000,79,99,105349
2.0235,0.3617,38.4900,79,99,105352
2.0283,0.3372,38.5200,79,99,105356
2.0381,0.3470,38.4600,79,99,105359
2.0039,0.3470,38.5500,79,99,105362
2.0332,0.3666,38.2400,79,99,105365
1.9697,0.3372,38.4900,79,99,105369
1.9550,0.3421,38.5200,79,99,105372
1.9404,0.3715,38.5200,79,99,105375
1.9110,0.3421,38.5200,79,99,105379
1.9501,0.3568,38.2400,79,99,105382
1.8915,0.3519,38.4600,79,99,105385
1.8524,0.3421,38.5200,79,99,105390
1.8231,0.3421,38.5200,79,99,105393
1.7986,0.3421,38.5200,79,99,105396
1.8231,0.3568,38.3600,79,99,105399
1.7693,0.3470,38.5200,79,99,105403
1.7498,0.3470,38.4300,79,99,105406
1.7253,0.3519,38.5200,79,99,105409
1.7204,0.3421,38.5500,79,99,105413
1.7449,0.3519,38.4000,79,99,105416
1.7204,0.3470,38.5200,79,99,105419
1.7449,0.3470,38.3600,79,99,105423
1.7155,0.3470,38.6200,79,99,105426
1.7400,0.3275,38.5500,79,99,105430
1.7546,0.3470,38.4600,79,99,105434
1.7498,0.3470,38.5500,79,99,105437
1.7889,0.3519,38.4000,79,99,105440
1.7546,0.3421,38.4600,79,99,105444
1.7498,0.3470,38.5500,79,99,105447
1.7253,0.3519,38.4600,79,99,105450
1.6422,0.3372,38.5200,79,99,105453
1.6276,0.3470,38.3000,79,99,105457
1.6031,0.3470,38.5200,79,99,105460
1.6618,0.3421,38.5800,79,99,105463
1.8133,0.3470,38.4900,79,99,105467
2.0039,0.3470,38.6500,79,99,105470
2.3363,0.3568,38.2400,79,99,105474
2.6442,0.3470,38.4600,79,99,105478
3.0156,0.3421,38.5500,79,99,105481
3.4066,0.3617,38.5500,79,99,105484
3.6999,0.3372,38.5500,79,99,105487
3.9541,0.3470,38.2700,79,99,105491
3.7586,0.3617,38.4900,79,99,105494
3.3969,0.3372,38.4900,79,99,105497
2.9277,0.3470,38.5500,79,99,105501
2.4340,0.3421,38.5200,79,99,105504
2.0577,0.3519,38.4300,79,99,105507
1.7155,0.3470,38.5200,79,99,105511
1.5298,0.3470,38.4000,79,99,105515
1.4076,0.3275,38.5500,79,99,105518
1.3636,0.3421,38.6200,79,99,105522
1.3685,0.3568,38.3600,79,99,105525
1.3490,0.3470,38.7400,79,99,105528
1.3881,0.3617,38.4000,79,99,105531
1.3832,0.3470,38.5200,79,99,105535
1.3930,0.3421,38.5500,79,99,105538
1.4370,0.3812,38.4300,79,99,105541
1.4370,0.3470,38.5500,79,99,105545
1.4614,0.3470,38.4000,79,99,105548
1.4516,0.3421,38.4900,79,99,105551
1.4761,0.3421,38.5200,79,99,105555
1.5054,0.3470,38.4300,79,99,105559
1.5103,0.3421,38.5500,79,99,105562
1.5591,0.3470,38.2700,79,99,105566
1.5347,0.3421,38.4600,79,99,105569
1.5591,0.3421,38.6200,79,99,105572
1.5787,0.3519,38.4900,79,99,105575
1.5885,0.3421,38.4900,79,99,105579
1.6422,0.3568,38.2100,79,99,105582
1.6129,0.3519,38.4900,79,99,105585
1.6178,0.3372,38.5200,79,99,105589
1.6276,0.3421,38.4900,79,99,105592
1.6471,0.3470,38.5500,79,99,105595
1.7058,0.3617,38.3000,79,99,105600
1.6764,0.3470,38.4900,79,99,105603
1.6862,0.3421,38.4600,79,99,105606
1.6813,0.3470,38.5200,79,99,105610
1.6911,0.3470,38.5500,79,99,105613
1.7253,0.3519,38.4000,79,99,105616
1.7155,0.3470,38.5200,79,99,105619
1.7351,0.3519,38.4300,79,99,105623
1.7155,0.3470,38.5800,79,99,105626
1.7302,0.3372,38.5500,79,99,105629
1.7595,0.3519,38.4600,79,99,105633
1.7498,0.3470,38.5200,79,99,105636
1.7889,0.3519,38.4000,79,99,105639
1.7595,0.3519,38.5800,79,99,105644
1.7742,0.3421,38.6200,79,99,105647
1.7889,0.3617,38.4300,79,99,105650
1.7791,0.3470,38.4900,79,99,105654
1.8231,0.3519,38.2700,79,99,105657
1.8182,0.3519,38.4300,79,99,105660
1.8280,0.3421,38.6800,79,99,105663
1.8573,0.3519,38.4900,79,99,105667
1.8524,0.3421,38.5200,79,99,105670
1.9062,0.3568,38.2400,79,99,105673
1.8768,0.3470,38.4600,79,99,105677
1.8866,0.3421,38.5200,79,99,105680
1.9062,0.3470,38.5200,79,99,105683
1.9062,0.3470,38.5200,79,99,105688
1.9697,0.3568,38.2700,79,99,105691
1.9501,0.3470,38.4000,79,99,105694
1.9648,0.3421,38.4900,79,99,105698
1.9795,0.3470,38.5200,79,99,105701
2.0039,0.3421,38.5200,79,99,105704
2.0723,0.3861,38.3600,79,99,105707
2.0479,0.3470,38.5200,79,99,105711
2.0821,0.3470,38.4600,79,99,105714
2.0723,0.3470,37.7400,79,99,105717
2.0919,0.3421,38.5200,79,99,105721
2.1408,0.3617,38.3300,79,99,105724
2.1163,0.3470,38.5200,79,99,105728
2.1505,0.3470,38.4900,79,99,105732
2.1408,0.3470,38.5500,79,99,105735
2.1554,0.3372,38.5500,79,99,105738
2.1896,0.3568,38.4900,79,99,105741
2.1652,0.3763,38.4900,79,99,105745
2.1896,0.3568,38.4000,79,99,105748
2.1505,0.3421,38.4900,79,99,105751
2.1554,0.3470,38.5500,79,99,105755
2.1603,0.3470,38.4300,79,99,105758
2.1261,0.3470,38.6200,79,99,105761
2.1212,0.3470,38.3300,79,99,105765
2.0528,0.3421,38.5200,79,99,105768
2.0332,0.3421,38.5500,79,99,105772
2.0235,0.3568,38.5200,79,99,105775
1.9648,0.3275,38.5200,79,99,105779
1.9697,0.3568,38.3300,79,99,105782
1.8964,0.3470,38.4300,79,99,105785
1.8768,0.3421,38.5200,79,99,105789
1.8133,0.3470,37.9900,79,99,105792
1.7791,0.3519,38.5500,79,99,105795
1.8035,0.3617,38.3000,79,99,105799
1.7302,0.3568,38.4600,79,99,105802
1.7058,0.3421,38.4900,79,99,105805
1.6862,0.3470,38.4900,79,99,105809
1.6716,0.3470,38.5200,79,99,105812
1.7302,0.3568,38.3600,79,99,105816
1.6862,0.3470,38.5200,79,99,105819
1.6813,0.3470,38.4300,79,99,105823
1.6716,0.3470,38.5200,79,99,105826
1.6569,0.3421,38.6200,79,99,105829
1.6862,0.3470,38.4600,79,99,105833
1.6716,0.3470,38.5800,79,99,105836
1.6960,0.3519,38.4000,79,99,105839
1.6764,0.3470,38.5500,79,99,105843
1.6862,0.3421,38.5800,79,99,105846
1.7155,0.3519,38.4300,79,99,105849
1.6911,0.3470,38.6800,79,99,105853
1.7351,0.3519,38.4000,79,99,105857
1.7107,0.3421,38.4600,79,99,105860
1.7204,0.3421,38.5500,79,99,105863
1.7449,0.3519,38.4600,79,99,105867
1.7302,0.3470,38.5500,79,99,105870
1.7693,0.3519,38.2700,79,99,105873
1.7937,0.3666,38.4600,79,99,105878
1.7644,0.3470,38.4600,79,99,105881
1.7595,0.3421,38.5200,79,99,105885
1.7595,0.3568,38.5500,79,99,105888
1.7644,0.3421,38.4900,79,99,105891
1.8084,0.3666,38.4300,79,99,105895
1.8231,0.3519,38.5200,79,99,105899
1.8035,0.3470,38.4900,79,99,105902
1.7791,0.3470,38.5500,79,99,105906
1.7889,0.3421,38.5500,79,99,105909
1.8133,0.3470,38.3300,79,99,105912
1.7840,0.3470,38.5200,79,99,105916
1.8133,0.3519,38.4000,79,99,105919
1.7840,0.3470,38.5500,79,99,105922
1.7840,0.3372,38.5200,79,99,105925
1.8133,0.3519,37.8700,79,99,105929
1.7937,0.3421,38.5500,79,99,105932
1.8280,0.3470,38.4000,79,99,105935
1.7889,0.3421,38.4900,79,99,105939
1.8035,0.3421,38.5200,79,99,105943
1.8133,0.3470,38.4300,79,99,105946
1.8084,0.3421,38.5800,79,99,105950
1.8426,0.3421,38.3000,79,99,105953
1.8035,0.3421,38.0200,79,99,105956
1.8084,0.3421,38.5500,79,99,105960
1.8133,0.3519,38.4900,79,99,105963
1.7986,0.3421,37.9000,79,99,105966
1.8426,0.3910,38.2400,79,99,105969
1.8035,0.3519,38.4900,79,99,105973
1.7889,0.3421,38.6500,79,99,105976
1.7791,0.3470,38.4900,79,99,105979
1.7889,0.3421,38.5200,79,99,105984
1.8426,0.3666,38.3300,79,99,105987
1.7986,0.3470,38.5200,79,99,105990
1.7986,0.3421,38.4300,79,99,105994
1.7791,0.3715,38.5200,79,99,105997
1.8084,0.3372,38.5500,79,99,106000
1.8035,0.3519,38.4000,79,99,106003
1.7840,0.3470,38.4900,79,99,106007
1.7937,0.3470,38.4000,79,99,106010
1.7644,0.3421,38.5200,79,99,106013
1.7644,0.3421,37.9000,79,99,106017
1.7791,0.3470,38.4900,79,99,106020
1.7742,0.3275,38.5200,79,99,106023
1.7889,0.3519,38.4300,79,99,106028
1.7742,0.3421,38.5200,79,99,106031
1.7546,0.3421,38.5200,79,99,106034
1.7644,0.3519,38.4300,79,99,106038
1.7400,0.3421,38.5200,79,99,106041
1.7693,0.3470,38.4300,79,99,106044
1.7498,0.3470,38.4300,79,99,106047
1.7498,0.3421,38.5200,79,99,106051
1.7595,0.3519,38.4300,79,99,106054
1.7546,0.3421,38.5500,79,99,106057
1.7937,0.3519,37.6200,79,99,106061
1.7840,0.3519,38.4600,79,99,106064
1.7546,0.3421,38.5500,79,99,106067
1.7595,0.3470,38.5500,79,99,106072
1.7595,0.3421,38.5200,79,99,106075
1.8035,0.3568,38.2400,79,99,106078
1.7644,0.3519,38.4000,79,99,106082
1.7986,0.3470,38.4900,79,99,106085
1.7644,0.3470,38.5200,79,99,106088
1.7595,0.3568,38.5200,79,99,106091
1.8035,0.3617,38.3600,79,99,106095
1.7693,0.3470,38.4900,79,99,106098
1.7840,0.3421,38.5200,79,99,106101
1.7791,0.3470,38.5200,79,99,106105
1.7840,0.3421,38.5800,79,99,106108
1.8133,0.3568,38.3300,79,99,106112
1.7840,0.3421,38.7400,79,99,106116
1.8084,0.3763,38.4000,79,99,106119
1.7791,0.3421,38.5200,79,99,106122
1.7889,0.3421,38.5800,79,99,106126
1.8035,0.3617,38.4000,79,99,106129
1.7840,0.3470,38.5200,79,99,106132
1.8084,0.3470,38.4000,79,99,106135
1.7791,0.3421,38.5200,79,99,106139
1.7889,0.3421,38.5200,79,99,106142
1.8084,0.3470,38.4300,79,99,106145
1.7937,0.3421,38.5200,79,99,106149
1.8231,0.3470,38.3600,79,99,106152
1.8035,0.3421,38.5500,79,99,106156
1.8133,0.3421,38.7100,79,99,106160
1.8426,0.3519,38.4900,79,99,106163
1.8133,0.3421,38.4900,79,99,106166
1.8475,0.3519,38.2700,79,99,106170
1.8084,0.3470,38.4600,79,99,106173
1.7937,0.3421,38.6500,79,99,106176
1.7986,0.3470,38.5200,79,99,106179
1.7937,0.3421,38.5500,79,99,106183
1.8475,0.3666,38.3000,79,99,106186
1.8035,0.3470,38.4600,79,99,106189
1.7986,0.3421,38.0800,79,99,106193
1.8084,0.3421,38.5200,79,99,106196
1.8133,0.3421,38.5500,79,99,106200
1.8622,0.3568,38.3600,79,99,106204
1.8280,0.3568,38.4900,79,99,106207
1.8231,0.3421,38.4300,79,99,106210
1.7937,0.3421,38.7400,79,99,106213
1.8280,0.3372,38.5500,79,99,106217
1.8182,0.3519,38.4600,79,99,106220
1.8035,0.3421,38.4900,79,99,106223
1.8280,0.3470,38.4300,79,99,106227
1.8035,0.3421,38.6200,79,99,106230
1.8133,0.3421,38.5500,79,99,106233
1.8475,0.3519,38.4300,79,99,106237
1.8133,0.3519,38.5200,79,99,106241
1.8475,0.3470,38.3600,79,99,106244
1.8231,0.3421,38.5200,79,99,106248
1.8182,0.3470,38.5500,79,99,106251
1.8231,0.3470,38.5800,79,99,106254
1.8035,0.3421,38.5500,79,99,106258
1.8719,0.3568,38.3000,79,99,106261
1.7986,0.3470,38.4600,79,99,106264
1.7937,0.3470,38.5200,79,99,106267
1.8035,0.3519,38.4600,79,99,106271
1.7986,0.3421,38.5500,79,99,106274
1.8573,0.3568,38.2400,79,99,106277
1.8231,0.3421,38.4300,79,99,106281
1.8377,0.3372,38.5200,79,99,106285
1.8524,0.3275,38.5200,79,99,106288
1.8475,0.3421,38.5200,79,99,106292
1.9110,0.3666,38.3300,79,99,106295
1.8817,0.3470,38.4900,79,99,106298
1.9013,0.3421,38.4900,79,99,106301
1.9257,0.3372,38.5200,79,99,106305
1.9404,0.3421,38.5500,79,99,106308
1.9892,0.3568,38.3600,79,99,106311
1.9795,0.3421,38.4900,79,99,106315
2.0235,0.3470,38.3600,79,99,106318
2.0039,0.3519,38.5200,79,99,106321
2.0088,0.3372,38.5200,79,99,106326
2.0332,0.3470,38.4300,79,99,106329
1.9941,0.3470,38.4600,79,99,106332
2.0088,0.3812,38.4900,79,99,106336
1.9648,0.3470,38.5500,79,99,106339
1.9550,0.3421,38.5500,79,99,106342
1.9501,0.3470,38.0800,79,99,106345
1.9110,0.3421,38.6500,79,99,106349
1.9110,0.3568,38.3600,79,99,106352
1.8622,0.3421,38.5200,79,99,106355
1.8524,0.3421,38.5500,79,99,106359
1.8377,0.3470,38.4600,79,99,106362
1.7889,0.3421,38.5500,79,99,106365
1.7840,0.3519,38.2700,79,99,106370
1.7253,0.3470,38.4600,79,99,106373
1.6764,0.3421,38.5500,79,99,106376
1.6569,0.3421,38.4900,79,99,106380
1.6422,0.3421,38.5200,79,99,106383
1.6569,0.3568,38.2400,79,99,106386
1.6129,0.3519,38.4600,79,99,106389
1.6031,0.3372,38.5200,79,99,106393
1.5934,0.3421,38.5200,79,99,106396
1.5836,0.3324,38.5200,79,99,106399
1.6325,0.3568,38.5200,79,99,106403
1.6276,0.3470,38.4900,79,99,106406
1.6080,0.3421,38.4300,79,99,106409
1.5934,0.3421,38.5200,79,99,106414
1.5934,0.3372,38.5200,79,99,106417
1.5885,0.3568,38.4600,79,99,106420
1.5200,0.3275,38.5200,79,99,106424
1.4858,0.3470,38.4000,79,99,106427
1.4467,0.3421,38.5200,79,99,106430
1.4858,0.3421,38.5200,79,99,106434
1.6227,0.3470,38.4300,79,99,106437
1.7742,0.3421,38.5500,79,99,106440
2.0626,0.3421,38.3600,79,99,106443
2.3558,0.3421,38.5200,79,99,106447
2.7224,0.3470,38.5500,79,99,106450
3.1281,0.3470,38.4300,79,99,106454
3.4409,0.3421,38.5500,79,99,106458
3.7243,0.3519,38.3000,79,99,106461
3.6559,0.3470,38.4600,79,99,106464
3.3773,0.3421,38.7100,79,99,106468
2.9717,0.3470,38.4600,79,99,106471
2.4780,0.3421,38.5500,79,99,106474
2.1114,0.3519,38.2400,79,99,106477
1.7449,0.3421,38.4300,79,99,106481
1.5249,0.3372,38.5500,79,99,106484
1.4027,0.3763,38.5500,79,99,106487
1.3392,0.3666,38.5200,79,99,106491
1.3587,0.3372,38.5500,79,99,106494
1.3930,0.3470,38.3300,79,99,106499
1.4223,0.3421,38.5200,79,99,106502
1.4223,0.3470,38.4000,79,99,106505
1.4272,0.3421,38.5800,79,99,106509
1.4663,0.3421,38.5200,79,99,106512
1.4809,0.3568,38.3300,79,99,106515
1.4761,0.3421,38.5500,79,99,106519
1.5103,0.3421,38.3600,79,99,106522
1.5054,0.3519,38.5500,79,99,106525
1.5249,0.3421,38.5500,79,99,106529
1.5591,0.3470,38.4300,79,99,106532
1.5689,0.3421,38.5500,79,99,106535
1.6227,0.3470,38.2700,79,99,106539
1.5982,0.3421,38.4900,79,99,106543
1.6129,0.3275,38.5200,79,99,106546
1.6373,0.3470,38.3600,79,99,106549
1.6618,0.3372,38.5200,79,99,106553
1.6960,0.3519,38.3300,79,99,106556
1.6716,0.3470,38.4600,79,99,106559
1.6911,0.3421,38.4900,79,99,106563
1.6813,0.3421,38.5800,79,99,106566
1.6911,0.3275,38.5800,79,99,106569
1.7498,0.3519,38.4300,79,99,106573
1.7253,0.3470,38.5200,79,99,106576
1.7351,0.3421,38.4300,79,99,106579
1.7302,0.3421,38.5500,79,99,106584
1.7498,0.3275,38.5200,79,99,106587
1.7791,0.3470,38.4600,79,99,106590
1.7595,0.3910,38.4900,79,99,106593
1.7791,0.3519,38.4000,79,99,106597
1.7595,0.3372,38.5200,79,99,106600
1.7644,0.3470,38.5500,79,99,106603
1.7889,0.3275,38.4600,79,99,106607
1.7840,0.3421,38.6200,79,99,106610
1.8231,0.3715,38.4000,79,99,106613
1.7986,0.3421,38.5500,79,99,106617
1.8084,0.3372,38.5200,79,99,106620
1.8377,0.3470,38.4600,79,99,106624
1.8328,0.3421,38.4900,79,99,106628
1.8817,0.3519,38.3000,79,99,106631
1.8719,0.3421,38.4600,79,99,106634
1.8671,0.3421,38.4900,79,99,106637
1.8866,0.3470,38.4900,79,99,106641
1.8915,0.3421,38.6500,79,99,106644
1.9550,0.3617,38.3000,79,99,106647
1.9306,0.3421,38.4600,79,99,106651
1.9453,0.3372,38.4900,79,99,106654
1.9697,0.3372,38.4900,79,99,106657
1.9844,0.3421,38.5500,79,99,106661
2.0723,0.3617,38.3000,79,99,106664
2.0528,0.3470,38.4600,79,99,106668
2.0772,0.3372,38.4600,79,99,106672
2.0772,0.3421,38.5500,79,99,106675
2.0919,0.3421,38.5500,79,99,106678
2.1359,0.3568,38.4300,79,99,106681
2.1163,0.3470,38.4900,79,99,106685
2.1603,0.3372,38.4300,79,99,106688
2.1408,0.3421,38.4000,79,99,106691
2.1603,0.3372,38.5200,79,99,106695
2.1994,0.3519,38.3300,79,99,106698
2.1750,0.3421,38.4900,79,99,106701
2.2141,0.3519,38.4000,79,99,106705
2.1848,0.3372,38.5200,79,99,106708
2.1896,0.3372,38.6200,79,99,106712
2.1994,0.3275,38.4300,79,99,106716
2.1701,0.3421,38.5500,79,99,106719
2.1750,0.3421,38.3300,79,99,106722
2.1114,0.3372,38.4900,79,99,106725
2.0870,0.3421,38.6200,79,99,106729
2.0723,0.3421,38.4300,79,99,106732
2.0039,0.3275,38.5200,79,99,106735
2.0039,0.3568,38.3000,79,99,106739
1.9110,0.3372,38.5200,79,99,106742
1.8817,0.3421,38.5200,79,99,106745
1.8573,0.3470,38.4600,79,99,106749
1.8133,0.3372,38.5200,79,99,106753
1.8426,0.3519,38.2400,79,99,106756
1.7644,0.3470,38.4600,79,99,106759
1.7302,0.3372,38.5200,79,99,106763
1.7058,0.3421,38.5200,79,99,106766
1.7058,0.3372,38.4600,79,99,106769
1.7498,0.3617,38.3300,79,99,106773
1.6960,0.3470,38.4600,79,99,106776
1.6960,0.3372,38.4300,79,99,106779
1.7009,0.3275,38.5200,79,99,106783
1.7009,0.3421,38.5500,79,99,106786
1.7351,0.3470,38.3600,79,99,106789
1.7204,0.3470,38.4900,79,99,106793
1.7351,0.3470,38.4300,79,99,106797
1.7107,0.3421,38.5200,79,99,106800
1.7204,0.3421,38.5500,79,99,106803
1.7449,0.3421,38.5500,79,99,106807
1.7400,0.3421,38.5200,79,99,106810
1.7791,0.3470,38.4300,79,99,106813
1.7546,0.3617,38.5500,79,99,106817
1.7693,0.3421,38.5200,79,99,106820
1.7937,0.3470,38.4300,79,99,106823
1.7791,0.3372,38.5200,79,99,106827
1.8231,0.3470,38.3300,79,99,106830
1.8084,0.3421,38.4000,79,99,106833
1.8035,0.3421,38.5200,79,99,106838
1.8133,0.3421,38.4600,79,99,106841
1.8035,0.3421,38.5200,79,99,106844
1.8426,0.3519,38.2700,79,99,106847
1.8133,0.3421,38.4600,79,99,106851
1.8084,0.3421,38.5500,79,99,106854
1.8084,0.3470,38.4900,79,99,106857
1.8182,0.3421,38.5500,79,99,106861
1.8719,0.3568,38.2100,79,99,106864
1.8426,0.3421,38.4900,79,99,106867
1.8377,0.3666,38.4900,79,99,106871
1.8377,0.3421,38.5200,79,99,106874
1.8328,0.3763,38.5500,79,99,106877
1.8866,0.3568,38.4000,79,99,106882
1.8524,0.3470,38.4900,79,99,106885
1.8573,0.3421,38.4000,79,99,106888
1.8377,0.3421,38.5500,79,99,106892
1.8475,0.3421,38.5800,79,99,106895
1.8817,0.3519,38.4300,79,99,106898
1.8573,0.3421,38.6800,79,99,106901
1.8915,0.3470,38.3600,79,99,106905
1.8671,0.3421,38.5200,79,99,106908
1.8524,0.3421,37.7100,79,99,106911
1.8573,0.3470,38.4300,79,99,106915
1.8231,0.3421,38.5500,79,99,106918
1.8231,0.3470,38.3300,79,99,106921
1.7889,0.3421,38.4900,79,99,106926
1.8035,0.3421,38.5200,79,99,106929
1.8280,0.3519,38.4300,79,99,106932
1.8133,0.3421,38.5200,79,99,106936
1.8622,0.3715,38.3600,79,99,106939
1.8231,0.3324,38.6800,79,99,106942
1.8328,0.3421,38.5200,79,99,106945
1.8475,0.3470,38.4900,79,99,106949
1.8377,0.3421,38.5500,79,99,106952
1.8866,0.3568,38.2400,79,99,106955
1.8475,0.3470,38.4300,79,99,106959
1.8377,0.3372,38.5200,79,99,106962
1.8328,0.3421,38.5200,79,99,106966
1.8426,0.3421,38.5500,79,99,106970
1.8964,0.3861,38.3300,79,99,106973
1.8475,0.3470,38.4900,79,99,106976
1.8426,0.3421,38.4000,79,99,106980
1.8280,0.3421,38.3000,79,99,106983
1.8182,0.3421,38.5200,79,99,106986
1.8426,0.3519,38.4000,79,99,106989
1.8231,0.3470,38.4900,79,99,106993
1.8328,0.3470,38.4300,79,99,106996
1.7986,0.3421,38.5200,79,99,106999
1.8035,0.3372,38.5500,79,99,107003
1.8182,0.3372,38.4900,79,99,107006
1.8182,0.3421,38.5200,79,99,107010
1.8524,0.3470,38.8400,79,99,107014
1.8182,0.3421,38.5200,79,99,107017
1.8280,0.3421,38.3600,79,99,107020
1.8817,0.3519,38.4300,79,99,107024
1.8377,0.3421,38.5500,79,99,107027
1.8817,0.3519,38.3000,79,99,107030
1.8524,0.3470,38.4300,79,99,107034
1.8377,0.3421,38.5200,79,99,107037
1.8426,0.3470,38.4900,79,99,107040
1.8377,0.3421,38.5500,79,99,107043
1.8866,0.3470,38.2400,79,99,107047
1.8524,0.3470,38.4600,79,99,107051
1.8475,0.3372,38.6500,79,99,107054
1.8524,0.3470,38.4900,79,99,107058
1.8231,0.3421,38.5500,79,99,107061
1.8768,0.3617,38.3300,79,99,107064
1.8377,0.3470,38.4900,79,99,107068
1.8377,0.3421,38.5500,79,99,107071
1.8524,0.3470,38.5200,79,99,107074
1.8328,0.3421,38.5500,79,99,107078
1.8622,0.3617,38.4300,79,99,107081
1.8377,0.3421,38.5200,79,99,107084
1.8573,0.3421,38.4900,79,99,107087
1.8377,0.3421,38.5500,79,99,107091
1.8426,0.3421,38.5500,79,99,107095
1.8719,0.3568,38.4300,79,99,107098
1.8377,0.3470,38.4600,79,99,107102
1.8280,0.3421,38.5500,79,99,107105
1.8671,0.3519,38.4300,79,99,107109
1.8377,0.3275,38.4600,79,99,107112
1.8328,0.3421,38.5200,79,99,107115
1.8475,0.3568,38.4600,79,99,107119
1.8231,0.3421,38.5200,79,99,107122
1.8817,0.3568,38.1800,79,99,107125
1.8328,0.3275,38.4300,79,99,107129
1.8377,0.3372,38.4600,79,99,107132
1.8328,0.3470,38.5200,79,99,107136
1.8328,0.3421,38.5500,79,99,107140
1.8768,0.3519,38.3600,79,99,107143
1.8426,0.3470,38.5200,79,99,107146
1.8426,0.3421,38.4600,79,99,107149
1.8328,0.3421,38.5200,79,99,107153
1.8426,0.3421,38.5200,79,99,107156
1.8719,0.3763,38.3600,79,99,107159
1.8377,0.3421,38.5200,79,99,107163
1.8573,0.3470,38.3600,79,99,107166
1.8280,0.3421,38.5500,79,99,107169
1.8280,0.3421,38.5500,79,99,107173
1.8524,0.3568,38.4300,79,99,107176
1.8377,0.3421,38.4900,79,99,107180
1.8622,0.3421,37.8000,79,99,107184
1.8328,0.3421,38.4900,79,99,107187
1.8475,0.3421,38.5500,79,99,107190
1.8719,0.3617,38.4000,79,99,107194
1.8573,0.3421,38.5200,79,99,107197
1.8915,0.3470,38.3000,79,99,107200
1.8475,0.3421,38.5200,79,99,107203
1.8524,0.3372,38.5200,79,99,107207
1.8573,0.3470,38.4900,79,99,107210
1.8622,0.3372,38.5200,79,99,107213
1.9306,0.3470,38.2400,79,99,107217
1.9062,0.3470,38.4600,79,99,107220
1.9159,0.3324,38.5200,79,99,107224
1.9110,0.3421,38.7400,79,99,107228
1.9208,0.3715,38.5500,79,99,107231
1.9941,0.3617,38.3000,79,99,107234
1.9746,0.3470,38.4300,79,99,107238
1.9941,0.3470,38.4600,79,99,107241
2.0088,0.3421,38.5200,79,99,107244
2.0186,0.3421,38.5500,79,99,107247
2.0772,0.3470,38.3300,79,99,107251
2.0528,0.3470,38.4900,79,99,107254
2.0674,0.3372,38.4300,79,99,107257
2.0381,0.3421,38.5200,79,99,107261
2.0381,0.3421,38.5500,79,99,107265
2.0430,0.3519,38.5200,79,99,107268
1.9990,0.3421,38.5200,79,99,107272
2.0137,0.3519,38.4000,79,99,107275
1.9599,0.3421,38.5200,79,99,107278
1.9404,0.3421,38.5500,79,99,107281
1.9306,0.3519,38.4000,79,99,107285
1.8573,0.3470,38.5500,79,99,107288
1.8377,0.3421,38.4000,79,99,107291
1.7840,0.3421,38.2100,79,99,107295
1.7693,0.3568,38.5500,79,99,107298
1.7595,0.3470,38.4600,79,99,107301
1.7253,0.3421,38.5200,79,99,107305
1.7498,0.3519,38.3000,79,99,107309
1.7107,0.3470,38.5800,79,99,107312
1.7107,0.3421,37.7700,79,99,107315
1.7302,0.3519,38.4600,79,99,107319
1.7204,0.3421,38.4900,79,99,107322
1.7644,0.3519,38.3300,79,99,107325
1.7107,0.3421,38.4600,79,99,107329
1.7204,0.3421,38.5200,79,99,107332
1.7204,0.3421,38.5500,79,99,107335
1.7204,0.3421,38.5500,79,99,107339
1.7644,0.3519,38.3000,79,99,107342
1.6764,0.3372,38.4900,79,99,107345
1.6227,0.3421,38.4900,79,99,107350
1.5640,0.3421,38.5200,79,99,107353
1.5640,0.3421,37.7100,79,99,107356
1.6520,0.3861,38.3300,79,99,107360
1.7449,0.3421,38.4600,79,99,107363
1.9599,0.3470,38.4000,79,99,107366
2.2043,0.3372,38.5200,79,99,107369
2.5562,0.3421,38.5200,79,99,107373
2.9717,0.3470,38.4000,79,99,107376
3.2942,0.3421,38.5200,79,99,107379
3.6315,0.3519,38.4300,79,99,107383
3.7146,0.3421,38.5500,79,99,107386
3.5973,0.3421,38.5500,79,99,107389
3.2942,0.3470,38.4300,79,99,107394
2.8299,0.3421,38.4900,79,99,107397
2.4145,0.3470,38.4300,79,99,107400
1.9892,0.3421,38.6500,79,99,107403
1.7058,0.3470,38.5500,79,99,107407
1.5200,0.3470,38.4900,79,99,107410
1.4174,0.3421,38.6200,79,99,107413
1.4027,0.3470,38.3000,79,99,107417
1.3685,0.3519,38.4600,79,99,107420
1.3685,0.3421,38.5200,79,99,107423
1.3881,0.3519,38.4900,79,99,107427
1.4125,0.3275,38.5200,79,99,107430
1.4712,0.3568,38.3600,79,99,107433
1.4614,0.3470,38.4600,79,99,107438
1.4663,0.3372,38.4900,79,99,107441
1.4712,0.3470,38.5200,79,99,107444
1.5005,0.3372,38.5200,79,99,107447
1.5347,0.3617,38.3600,79,99,107451
1.5249,0.3470,38.4600,79,99,107454
1.5347,0.3421,38.4300,79,99,107457
1.5396,0.3421,38.5500,79,99,107461
1.5934,0.3470,38.5200,79,99,107464
1.5885,0.3470,38.4600,79,99,107467
1.5787,0.3421,38.5500,79,99,107471
1.6422,0.3470,38.4000,79,99,107474
1.6080,0.3421,37.7400,79,99,107478
1.6227,0.3519,38.5200,79,99,107482
1.6471,0.3568,38.4300,79,99,107485
1.6373,0.3568,38.5500,79,99,107488
1.6813,0.3421,38.4300,79,99,107491
1.6618,0.3421,38.5500,79,99,107495
1.6764,0.3372,38.5200,79,99,107498
1.6960,0.3470,38.4300,79,99,107501
1.6813,0.3421,38.5200,79,99,107505
1.7449,0.3519,38.3000,79,99,107508
1.7009,0.3421,38.4000,79,99,107511
1.7107,0.3666,38.5500,79,99,107515
1.7351,0.3470,38.4900,79,99,107518
1.7155,0.3421,38.5500,79,99,107522
1.7791,0.3568,38.2400,79,99,107526
1.7400,0.3421,38.4300,79,99,107529
1.7546,0.3421,38.5200,79,99,107532
1.7693,0.3421,38.5200,79,99,107535
1.7693,0.3421,38.4600,79,99,107539
1.8426,0.3763,38.3000,79,99,107542
1.7840,0.3470,38.4900,79,99,107545
1.7889,0.3421,37.9300,79,99,107549
1.7937,0.3421,38.5200,79,99,107552
1.8133,0.3421,38.5200,79,99,107555
1.8573,0.3763,38.3600,79,99,107559
1.8328,0.3470,37.6800,79,99,107563
1.8573,0.3421,38.4000,79,99,107566
1.8377,0.3372,38.5500,79,99,107570
1.8426,0.3372,38.5200,79,99,107573
1.8719,0.3421,38.4000,79,99,107576
1.8671,0.3470,38.5200,79,99,107580
1.8915,0.3519,38.4300,79,99,107583
1.8768,0.3421,38.5200,79,99,107586
1.9062,0.3421,38.5500,79,99,107589
1.9306,0.3421,38.7700,79,99,107593
1.9404,0.3421,38.5200,79,99,107596
1.9844,0.3421,38.3600,79,99,107599
1.9697,0.3372,38.5200,79,99,107603
1.9941,0.3372,38.5200,79,99,107607
2.0235,0.3470,38.5500,79,99,107610
2.0332,0.3324,38.5500,79,99,107614
2.1017,0.3519,38.2700,79,99,107617
2.0821,0.3470,38.4300,79,99,107620
2.0772,0.3421,38.5200,79,99,107623
2.0968,0.3470,38.4900,79,99,107627
2.1017,0.3421,38.5500,79,99,107630
2.1701,0.3568,38.2100,79,99,107633
2.1310,0.3470,38.4600,79,99,107637
2.1310,0.3372,38.5200,79,99,107640
2.1408,0.3470,38.4900,79,99,107643
2.1652,0.3372,38.5200,79,99,107648
2.1945,0.3617,38.3300,79,99,107651
2.1457,0.3763,38.4600,79,99,107654
2.1261,0.3421,38.4300,79,99,107658
2.0821,0.3421,38.5200,79,99,107661
2.0430,0.3372,38.5200,79,99,107664
2.0381,0.3519,38.4300,79,99,107667
1.9697,0.3470,38.5200,79,99,107671
1.9453,0.3910,38.4000,79,99,107674
1.8866,0.3421,38.5500,79,99,107677
1.8573,0.3421,38.4300,79,99,107681
1.8622,0.3519,38.4300,79,99,107684
1.7840,0.3421,38.5200,79,99,107687
1.7742,0.3519,38.4000,79,99,107692
1.7204,0.3372,38.4900,79,99,107695
1.7009,0.3421,38.5800,79,99,107698
1.7009,0.3519,38.4600,79,99,107702
1.6667,0.3421,38.5200,79,99,107705
1.6813,0.3470,38.3300,79,99,107708
1.6667,0.3519,38.2100,79,99,107712
1.6276,0.3421,38.4300,79,99,107715
1.6325,0.3372,38.5200,79,99,107718
1.6373,0.3470,38.5200,79,99,107722
1.6520,0.3421,38.5200,79,99,107725
1.7058,0.3617,38.3000,79,99,107728
1.6716,0.3470,38.4900,79,99,107732
1.6862,0.3421,38.4600,79,99,107736
1.6716,0.3421,38.4900,79,99,107739
1.6862,0.3275,38.5200,79,99,107743
1.7204,0.3519,38.6200,79,99,107746
1.6911,0.3275,38.4900,79,99,107749
1.7204,0.3470,38.3600,79,99,107753
1.7009,0.3372,38.5200,79,99,107756
1.7107,0.3519,38.5200,79,99,107759
1.7351,0.3519,38.4300,79,99,107762
1.7253,0.3421,38.5200,79,99,107766
1.7546,0.3275,38.4300,79,99,107769
1.7253,0.3372,38.4900,79,99,107772
1.7351,0.3421,38.5200,79,99,107777
1.7595,0.3519,38.4300,79,99,107780
1.7546,0.3421,38.5200,79,99,107783
1.7889,0.3519,38.3000,79,99,107787
1.7546,0.3421,38.5200,79,99,107790
1.7644,0.3421,38.6200,79,99,107793
1.7937,0.3519,38.4900,79,99,107797
1.7546,0.3421,37.9000,79,99,107800
1.8133,0.3568,38.2100,79,99,107803
1.8133,0.3519,38.4300,79,99,107806
1.7693,0.3421,38.5500,79,99,107810
1.7644,0.3470,38.4900,79,99,107813
1.7644,0.3421,38.5200,79,99,107816
1.8182,0.3617,38.2700,79,99,107821
1.7791,0.3470,38.4600,79,99,107824
1.7742,0.3372,38.4600,79,99,107827
1.7644,0.3470,38.5200,79,99,107831
1.7693,0.3470,38.5200,79,99,107834
1.8035,0.3519,38.2400,79,99,107837
1.7791,0.3470,38.4900,79,99,107841
1.7889,0.3421,38.4300,79,99,107844
1.7644,0.3421,38.4900,79,99,107847
1.7742,0.3421,38.4000,79,99,107851
1.7937,0.3470,38.5200,79,99,107854
1.7742,0.3421,38.5200,79,99,107857
1.7986,0.3519,38.4300,79,99,107860
1.7693,0.3421,38.5200,79,99,107865
1.7742,0.3421,38.5200,79,99,107868
1.7986,0.3470,38.4300,79,99,107871
1.7693,0.3470,38.5200,79,99,107875
1.8182,0.3519,38.4300,79,99,107878
1.7791,0.3421,38.4600,79,99,107881
1.7791,0.3421,38.5200,79,99,107885
1.7889,0.3470,38.4300,79,99,107888
1.7742,0.3421,38.5800,79,99,107891
1.8231,0.3568,38.2700,79,99,107894
1.7742,0.3470,38.4600,79,99,107898
1.7693,0.3324,38.5200,79,99,107901
1.7791,0.3470,38.4900,79,99,107905
1.7693,0.3421,38.5800,79,99,107909
1.8133,0.3519,38.2100,79,99,107912
1.7742,0.3421,38.3600,79,99,107915
1.7693,0.3421,38.4900,79,99,107919
1.7693,0.3421,38.5200,79,99,107922
1.7791,0.3421,38.5500,79,99,107925
1.8231,0.3568,38.3600,79,99,107929
1.7791,0.3470,38.5500,79,99,107932
1.7937,0.3421,38.4300,79,99,107935
1.7840,0.3421,38.6800,79,99,107939
1.7937,0.3470,38.5500,79,99,107942
1.8328,0.3470,38.3600,79,99,107945
1.7986,0.3617,38.4900,79,99,107950
1.8182,0.3470,38.4300,79,99,107953
1.7889,0.3421,38.5500,79,99,107956
1.7937,0.3421,38.5500,79,99,107959
1.8231,0.3519,38.4300,79,99,107963
1.7986,0.3421,38.0800,79,99,107966
1.8280,0.3519,38.4000,79,99,107969
1.8280,0.3421,38.5200,79,99,107973
1.7986,0.3421,38.5200,79,99,107976
1.8133,0.3470,38.4000,79,99,107979
1.7986,0.3470,38.5200,79,99,107983
1.8475,0.3372,38.3000,79,99,107986
1.7986,0.3421,38.6200,79,99,107990
1.8035,0.3324,38.5500,79,99,107993
1.8084,0.3470,38.4900,79,99,107997
1.7986,0.3421,38.5200,79,99,108000
1.8426,0.3617,38.3000,79,99,108003
1.8231,0.3470,38.4600,79,99,108007
1.8035,0.3421,38.6800,79,99,108010
1.8084,0.3372,38.4900,79,99,108013
1.8035,0.3421,38.5500,79,99,108017
1.8622,0.3715,38.3000,79,99,108020
1.8231,0.3470,38.4600,79,99,108023
1.8280,0.3372,38.4300,79,99,108027
1.8280,0.3421,38.4900,79,99,108030
1.8328,0.3421,38.5500,79,99,108034
1.8671,0.3519,38.3600,79,99,108037
1.8377,0.3470,38.5200,79,99,108041
1.8328,0.3421,38.4000,79,99,108044
1.8084,0.3568,38.4900,79,99,108047
1.8182,0.3275,38.5200,79,99,108051
1.8328,0.3470,38.5200,79,99,108054
1.8182,0.3666,38.5200,79,99,108057
1.8475,0.3470,38.4000,79,99,108061
1.8133,0.3568,38.5500,79,99,108064
1.8133,0.3421,38.5200,79,99,108067
1.8280,0.3519,38.4300,79,99,108071
1.8035,0.3421,38.5200,79,99,108075
1.8328,0.3421,38.3300,79,99,108078
1.8182,0.3421,38.5500,79,99,108081
1.8231,0.3421,38.5200,79,99,108085
1.8426,0.3470,38.4600,79,99,108088
1.8475,0.3275,38.5200,79,99,108091
1.8915,0.3519,38.2700,79,99,108095
1.8719,0.3519,38.4300,79,99,108098
1.8768,0.3275,38.5500,79,99,108101
1.8915,0.3470,38.4900,79,99,108105
1.8866,0.3372,38.5200,79,99,108108
1.9599,0.3519,38.2400,79,99,108111
1.9257,0.3421,38.4000,79,99,108115
1.9550,0.3324,38.4900,79,99,108119
1.9697,0.3421,38.5500,79,99,108122
2.0235,0.3275,38.5200,79,99,108125
2.0772,0.3568,38.4600,79,99,108129
2.0479,0.3470,38.4600,79,99,108132
2.0577,0.3519,38.4300,79,99,108135
2.0479,0.3421,38.5200,79,99,108139
2.0430,0.3421,38.5500,79,99,108142
2.0626,0.3470,38.3300,79,99,108145
1.9990,0.3421,38.5200,79,99,108149
1.9990,0.3470,38.4000,79,99,108152
1.9501,0.3421,38.5200,79,99,108155
1.9355,0.3372,38.5200,79,99,108160
1.9306,0.3568,38.4300,79,99,108163
1.8719,0.3470,38.5200,79,99,108166
1.8671,0.3519,38.4300,79,99,108169
1.7937,0.3372,38.5200,79,99,108173
1.7840,0.3372,38.5500,79,99,108176
1.7742,0.3470,38.4300,79,99,108179
1.7400,0.3421,38.5200,79,99,108183
1.7595,0.3421,38.3000,79,99,108186
1.7204,0.3421,38.6500,79,99,108189
1.7204,0.3421,38.5500,79,99,108193
1.7253,0.3470,38.4900,79,99,108196
1.7204,0.3421,38.4900,79,99,108199
1.7693,0.3519,38.2700,79,99,108204
1.7400,0.3470,38.4600,79,99,108207
1.7302,0.3421,38.7400,79,99,108210
1.7351,0.3470,38.5200,79,99,108213
1.7253,0.3421,38.5200,79,99,108217
1.7595,0.3617,38.2700,79,99,108220
1.6667,0.3470,38.5200,79,99,108223
1.6031,0.3421,38.4600,79,99,108227
1.5738,0.3470,38.5500,79,99,108230
1.5934,0.3421,38.5200,79,99,108233
1.7107,0.3617,38.3600,79,99,108237
1.8377,0.3519,38.4900,79,99,108240
2.0821,0.3421,38.4000,79,99,108243
2.3705,0.3568,38.5200,79,99,108248
2.7468,0.3421,38.5200,79,99,108251
3.1574,0.3470,38.4900,79,99,108254
3.4653,0.3421,38.5200,79,99,108257
3.7341,0.3519,38.3600,79,99,108261
3.6901,0.3421,38.6200,79,99,108264
3.4555,0.3372,38.5200,79,99,108267
3.0987,0.3519,38.4000,79,99,108271
2.6002,0.3421,38.4600,79,99,108274
2.2141,0.3666,38.3600,79,99,108277
1.8377,0.3421,38.4600,79,99,108281
1.6129,0.3421,38.5200,79,99,108284
1.4858,0.3470,38.4600,79,99,108288
1.4076,0.3421,38.4900,79,99,108292
1.4027,0.3715,38.2700,79,99,108295
1.3832,0.3470,38.4600,79,99,108298
1.3978,0.3372,38.5200,79,99,108301
1.4272,0.3519,38.4600,79,99,108305
1.4370,0.3421,38.4300,79,99,108308
1.4956,0.3470,38.2400,79,99,108311
1.4809,0.3421,38.4300,79,99,108315
1.5054,0.3372,38.5200,79,99,108318
1.5494,0.3372,38.5200,79,99,108321
1.5836,0.3372,38.5500,79,99,108325
1.6031,0.3421,38.5200,79,99,108328
1.6373,0.3519,38.3600,79,99,108333
1.6178,0.3421,38.5500,79,99,108336
1.6569,0.3519,38.4000,79,99,108339
1.6569,0.3372,38.5200,79,99,108343
1.6520,0.3421,38.5200,79,99,108346
1.6960,0.3519,38.4600,79,99,108349
1.6716,0.3421,38.5200,79,99,108353
1.7009,0.3470,38.3300,79,99,108356
1.6862,0.3372,38.4600,79,99,108359
1.6960,0.3421,38.4600,79,99,108362
1.7302,0.3519,38.4300,79,99,108366
1.7204,0.3470,38.5500,79,99,108369
1.7693,0.3470,38.2700,79,99,108372
1.7400,0.3372,38.2700,79,99,108377
1.7595,0.3470,38.4900,79,99,108380
1.7742,0.3470,38.4900,79,99,108383
1.7693,0.3421,38.5500,79,99,108387
1.8231,0.3715,38.2400,79,99,108390
1.7840,0.3519,38.4600,79,99,108393
1.7840,0.3372,38.5500,79,99,108396
1.7840,0.3421,38.4900,79,99,108400
1.7937,0.3421,38.5500,79,99,108403
1.8524,0.3617,38.3000,79,99,108406
1.8231,0.3470,38.4900,79,99,108410
1.8328,0.3421,38.4000,79,99,108413
1.8231,0.3519,38.5200,79,99,108417
1.8377,0.3421,38.5200,79,99,108421
1.8719,0.3519,38.4000,79,99,108424
1.8524,0.3470,38.4900,79,99,108427
1.8817,0.3421,38.4000,79,99,108431
1.8671,0.3421,38.4600,79,99,108434
1.8817,0.3421,38.5200,79,99,108437
1.9062,0.3421,38.3600,79,99,108440
1.8964,0.3421,38.5200,79,99,108444
1.9355,0.3470,38.4000,79,99,108447
1.9110,0.3470,38.5500,79,99,108450
1.9306,0.3421,38.5200,79,99,108454
1.9648,0.3470,38.4600,79,99,108457
1.9599,0.3372,38.5500,79,99,108461
2.0235,0.3519,38.3000,79,99,108465
2.0186,0.3421,38.4300,79,99,108468
2.0283,0.3421,38.4900,79,99,108471
2.0577,0.3519,38.4600,79,99,108475
2.0577,0.3421,38.5500,79,99,108478
2.1212,0.3861,38.2700,79,99,108481
2.1017,0.3421,38.4600,79,99,108484
2.1065,0.3421,38.7400,79,99,108488
2.1261,0.3470,38.4900,79,99,108491
2.1212,0.3421,38.5200,79,99,108494
2.1945,0.3617,38.2100,79,99,108498
2.1603,0.3275,38.4300,79,99,108502
2.1603,0.3372,38.4900,79,99,108505
2.1603,0.3519,38.5200,79,99,108509
2.1652,0.3421,38.5500,79,99,108512
2.1994,0.3519,38.4000,79,99,108515
2.1457,0.3470,38.4600,79,99,108519
2.1408,0.3519,38.4300,79,99,108522
2.0919,0.3666,38.5200,79,99,108525
2.0870,0.3275,38.5200,79,99,108528
2.0674,0.3519,38.3600,79,99,108532
1.9892,0.3421,38.5200,79,99,108535
1.9746,0.3519,38.3600,79,99,108538
1.9110,0.3421,38.5500,79,99,108542
1.8768,0.3421,38.5200,79,99,108546
1.8671,0.3470,38.4300,79,99,108549
1.8084,0.3421,38.5200,79,99,108553
1.7986,0.3421,38.4000,79,99,108556
1.7351,0.3324,38.4900,79,99,108559
1.7155,0.3421,38.5500,79,99,108563
1.7155,0.3519,38.4000,79,99,108566
1.6960,0.3421,38.5500,79,99,108569
1.7204,0.3470,38.3600,79,99,108572
1.6813,0.3372,38.5200,79,99,108576
1.6764,0.3421,38.5200,79,99,108579
1.6813,0.3763,38.4000,79,99,108582
1.6764,0.3421,38.5200,79,99,108587
1.7351,0.3568,38.6500,79,99,108590
1.7155,0.3372,38.4600,79,99,108593
1.6960,0.3372,38.5200,79,99,108597
1.6960,0.3421,38.5200,79,99,108600
1.7107,0.3421,38.5200,79,99,108603
1.7693,0.3617,38.3000,79,99,108607
1.7351,0.3470,38.4900,79,99,108610
1.7449,0.3421,38.4600,79,99,108613
1.7498,0.3372,38.4900,79,99,108616
1.7498,0.3421,38.5200,79,99,108620
1.7937,0.3519,38.3300,79,99,108623
1.8084,0.3372,38.5200,79,99,108626
1.7986,0.3470,38.4300,79,99,108631
1.7742,0.3421,38.5200,79,99,108634
1.7742,0.3421,38.5200,79,99,108637
1.7937,0.3421,38.4300,79,99,108641
1.7840,0.3470,38.5200,79,99,108644
1.8231,0.3519,38.4300,79,99,108647
1.7889,0.3421,38.5200,79,99,108651
1.7986,0.3421,38.5200,79,99,108654
1.8231,0.3470,38.4600,79,99,108657
1.8377,0.3275,38.5200,79,99,108661
1.8475,0.3470,38.4000,79,99,108664
1.8280,0.3470,38.4600,79,99,108667
1.8280,0.3763,38.5200,79,99,108670
1.8328,0.3470,38.4900,79,99,108675
1.8231,0.3421,38.5200,79,99,108678
1.8671,0.3519,38.2700,79,99,108681
1.8377,0.3470,38.4600,79,99,108685
1.8328,0.3617,38.5500,79,99,108688
1.8377,0.3470,38.4900,79,99,108691
1.8280,0.3421,38.4600,79,99,108695
1.8719,0.3568,38.2400,79,99,108698
1.8280,0.3470,38.4300,79,99,108701
1.8182,0.3372,38.4900,79,99,108704
1.8182,0.3275,38.5200,79,99,108708
1.8182,0.3421,38.5800,79,99,108711
1.8768,0.3568,38.3600,79,99,108715
1.8280,0.3470,38.4900,79,99,108719
1.8426,0.3421,38.4600,79,99,108722
1.8280,0.3421,38.5200,79,99,108725
1.8328,0.3421,38.5200,79,99,108729
1.8671,0.3519,38.3000,79,99,108732
1.8231,0.3421,38.4900,79,99,108735
1.8426,0.3568,38.4300,79,99,108739
1.8084,0.3421,38.5200,79,99,108742
1.8182,0.3421,38.5200,79,99,108745
1.8280,0.3470,38.4300,79,99,108749
1.8133,0.3421,38.5200,79,99,108752
1.8426,0.3519,38.3300,79,99,108755
1.8133,0.3421,38.4600,79,99,108759
1.8182,0.3421,38.5200,79,99,108763
1.8377,0.3470,38.4300,79,99,108766
1.8133,0.3421,38.5200,79,99,108769
1.8524,0.3519,38.2700,79,99,108773
1.8084,0.3421,38.4600,79,99,108776
1.8084,0.3372,38.5200,79,99,108779
1.8084,0.3470,38.4900,79,99,108783
1.7986,0.3568,38.5200,79,99,108786
1.8475,0.3617,38.2400,79,99,108789
1.8035,0.3470,38.4000,79,99,108793
1.7986,0.3519,38.4900,79,99,108796
1.7937,0.3421,38.5200,79,99,108800
1.7986,0.3421,38.5500,79,99,108804
1.8524,0.3568,38.4300,79,99,108807
1.8182,0.3470,38.4900,79,99,108810
1.8280,0.3421,38.4000,79,99,108813
1.8084,0.3421,38.5200,79,99,108817
1.8182,0.3421,38.5200,79,99,108820
1.8377,0.3519,38.3300,79,99,108823
1.8182,0.3470,38.4900,79,99,108827
1.8328,0.3470,38.4300,79,99,108830
1.8084,0.3715,38.5200,79,99,108833
1.8133,0.3421,38.5200,79,99,108837
1.8280,0.3372,38.1500,79,99,108840
1.8280,0.3421,38.5200,79,99,108844
1.8622,0.3421,38.4900,79,99,108848
1.8328,0.3421,38.5500,79,99,108851
1.8426,0.3421,38.4600,79,99,108854
1.8475,0.3519,38.4600,79,99,108857
1.8231,0.3421,38.4600,79,99,108861
1.8524,0.3519,38.2700,79,99,108864
1.8231,0.3470,38.4300,79,99,108867
1.8133,0.3421,38.1800,79,99,108871
1.8182,0.3470,38.4900,79,99,108874
1.8133,0.3421,38.5800,79,99,108877
1.8719,0.3568,38.2400,79,99,108881
1.8328,0.3470,38.5200,79,99,108884
1.8328,0.3372,38.5200,79,99,108888
1.8328,0.3715,38.4900,79,99,108892
1.8280,0.3421,38.5500,79,99,108895
1.8866,0.3617,38.4000,79,99,108898
1.8426,0.3519,38.4600,79,99,108901
1.8426,0.3372,38.4900,79,99,108905
1.8280,0.3470,38.5200,79,99,108908
1.8328,0.3372,38.5200,79,99,108911
1.8573,0.3519,38.4600,79,99,108915
1.8280,0.3763,38.5200,79,99,108918
1.8475,0.3470,38.4000,79,99,108921
1.8280,0.3421,38.5200,79,99,108925
1.8377,0.3421,38.5200,79,99,108929
1.8622,0.3568,38.4600,79,99,108932
1.8328,0.3470,38.4600,79,99,108936
1.8231,0.3421,38.5200,79,99,108939
1.8866,0.3519,38.3000,79,99,108943
1.8231,0.3470,38.5500,79,99,108946
1.8182,0.3421,38.4900,79,99,108949
1.8328,0.3470,38.4600,79,99,108953
1.8182,0.3421,38.6500,79,99,108956
1.8671,0.3519,38.2100,79,99,108959
1.8280,0.3421,38.4000,79,99,108962
1.8280,0.3421,38.5200,79,99,108966
1.8377,0.3324,38.5200,79,99,108969
1.8377,0.3421,38.5200,79,99,108973
1.9208,0.3568,38.3300,79,99,108977
1.8426,0.3470,38.4900,79,99,108980
1.8426,0.3421,38.4300,79,99,108983
1.8328,0.3421,38.5200,79,99,108987
1.8475,0.3421,38.5500,79,99,108990
1.8915,0.3617,38.3600,79,99,108993
1.8768,0.3421,38.5500,79,99,108997
1.9159,0.3421,38.4300,79,99,109000
1.9013,0.3421,38.5200,79,99,109003
1.9208,0.3421,38.6200,79,99,109006
1.9990,0.3617,38.4000,79,99,109010
1.9648,0.3421,38.4900,79,99,109014
2.0235,0.3470,38.4000,79,99,109017
2.0039,0.3372,38.4900,79,99,109021
2.0381,0.3372,38.5200,79,99,109024
2.0479,0.3470,38.4300,79,99,109027
2.0381,0.3421,38.6500,79,99,109031
2.0626,0.3470,38.3600,79,99,109034
2.0332,0.3421,38.5200,79,99,109037
2.0235,0.3421,38.5200,79,99,109040
2.0186,0.3470,38.4900,79,99,109044
1.9844,0.3421,38.5200,79,99,109047
2.0186,0.3519,38.3000,79,99,109050
1.9697,0.3470,38.4300,79,99,109054
1.9501,0.3519,38.5500,79,99,109058
1.9110,0.3470,38.5500,79,99,109061
1.8719,0.3421,38.5200,79,99,109065
1.9013,0.3568,38.2400,79,99,109068
1.8231,0.3470,38.4600,79,99,109071
1.7937,0.3324,38.4900,79,99,109075
1.7742,0.3421,38.5200,79,99,109078
1.7449,0.3519,38.5200,79,99,109081
1.7693,0.3617,38.3000,79,99,109084
1.7400,0.3470,38.4600,79,99,109088
1.7400,0.3421,38.3600,79,99,109091
1.7546,0.3372,38.5200,79,99,109094
1.7302,0.3421,38.6200,79,99,109099
1.7546,0.3617,38.4600,79,99,109102
1.7302,0.3421,38.5200,79,99,109105
1.7644,0.3470,38.3300,79,99,109109
1.7449,0.3421,38.5200,79,99,109112
1.7498,0.3421,38.5800,79,99,109115
1.7693,0.3519,38.4300,79,99,109119
1.6667,0.3421,38.5200,79,99,109122
1.6471,0.3519,38.4300,79,99,109125
1.5982,0.3421,38.4600,79,99,109129
1.6373,0.3421,38.5200,79,99,109132
1.7498,0.3470,38.4600,79,99,109135
1.9062,0.3421,38.4600,79,99,109138
2.1994,0.3519,38.3000,79,99,109143
2.5024,0.3470,38.4300,79,99,109146
2.8739,0.3421,38.5500,79,99,109149
3.2796,0.3470,38.4900,79,99,109153
3.5679,0.3421,38.5200,79,99,109156
3.8319,0.3568,38.2700,79,99,109159
3.6804,0.3421,38.4900,79,99,109163
3.3773,0.3470,38.5200,79,99,109166
2.9619,0.3470,38.4900,79,99,109169
2.4976,0.3421,38.4900,79,99,109172
2.1554,0.3666,38.3000,79,99,109176
1.7937,0.3470,38.4900,79,99,109179
1.5787,0.3372,38.4600,79,99,109182
1.4614,0.3372,38.5200,79,99,109187
1.4125,0.3421,38.5500,79,99,109190
1.4272,0.3666,38.3300,79,99,109193
1.4027,0.3470,38.4900,79,99,109197
1.4272,0.3470,38.4600,79,99,109200
1.4223,0.3421,38.5200,79,99,109203
1.4223,0.3372,38.5200,79,99,109207
1.4712,0.3519,38.4300,79,99,109210
1.4614,0.3421,38.5200,79,99,109213
1.5005,0.3519,38.4900,79,99,109216
1.4907,0.3421,38.5200,79,99,109220
1.5103,0.3421,38.5200,79,99,109223
1.5396,0.3470,38.4600,79,99,109227
1.5494,0.3421,38.5200,79,99,109231
1.5982,0.3421,38.3600,79,99,109234
1.5885,0.3519,38.5500,79,99,109237
1.6031,0.3421,38.4900,79,99,109241
1.6227,0.3470,38.4600,79,99,109244
1.6178,0.3421,38.5200,79,99,109247
1.6667,0.3470,38.3000,79,99,109251
1.6520,0.3470,38.4900,79,99,109254
1.6520,0.3421,38.5200,79,99,109257
1.6716,0.3519,38.4900,79,99,109260
1.6716,0.3421,38.5200,79,99,109264
1.7302,0.3617,38.2400,79,99,109267
1.7009,0.3568,38.4600,79,99,109271
1.7058,0.3666,38.4900,79,99,109275
1.7204,0.3470,38.4900,79,99,109278
1.7155,0.3421,38.5200,79,99,109281
1.7644,0.3763,38.3300,79,99,109285
1.7302,0.3470,38.4900,79,99,109288
1.7302,0.3421,38.4900,79,99,109291
1.7253,0.3715,38.5200,79,99,109295
1.7351,0.3421,38.5200,79,99,109298
1.7791,0.3470,38.4300,79,99,109301
1.7644,0.3421,38.5200,79,99,109304
1.7889,0.3470,38.4600,79,99,109308
1.7693,0.3275,38.5200,79,99,109312
1.7742,0.3421,38.5200,79,99,109315
1.8133,0.3568,38.4000,79,99,109319
1.7937,0.3421,38.5200,79,99,109322
1.8328,0.3470,38.4000,79,99,109325
1.8084,0.3421,38.4900,79,99,109329
1.8280,0.3275,38.4900,79,99,109332
1.8524,0.3470,38.4300,79,99,109335
1.8426,0.3470,38.5200,79,99,109339
1.8866,0.3470,38.3000,79,99,109342
1.8671,0.3421,38.4600,79,99,109345
1.8719,0.3421,38.5200,79,99,109348
1.8964,0.3470,38.4600,79,99,109352
1.8915,0.3421,38.6200,79,99,109356
1.9599,0.3519,38.2400,79,99,109359
1.9257,0.3421,38.4600,79,99,109363
1.9501,0.3275,38.5500,79,99,109366
1.9648,0.3421,38.5800,79,99,109369
1.9990,0.3421,38.5500,79,99,109373
2.0577,0.3617,38.2700,79,99,109376
2.0235,0.3470,38.4600,79,99,109379
2.0381,0.3666,38.4600,79,99,109383
2.0528,0.3421,38.5500,79,99,109386
2.0723,0.3421,38.5200,79,99,109389
2.1554,0.3617,38.3300,79,99,109392
2.1163,0.3421,38.5200,79,99,109396
2.1359,0.3519,38.4000,79,99,109400
2.1212,0.3421,38.5200,79,99,109403
2.1310,0.3421,38.4900,79,99,109407
2.1945,0.3519,38.4000,79,99,109410
2.1701,0.3470,38.5500,79,99,109413
2.2043,0.3470,38.3600,79,99,109417
2.1652,0.3421,38.7700,79,99,109420
2.1896,0.3372,38.5200,79,99,109423
2.1505,0.3421,38.4300,79,99,109427
2.1261,0.3421,38.4300,79,99,109430
2.1359,0.3421,38.3600,79,99,109433
2.0772,0.3421,38.5200,79,99,109436
2.0577,0.3666,38.5200,79,99,109441
2.0430,0.3519,38.3600,79,99,109444
1.9892,0.3421,38.6200,79,99,109447
1.9941,0.3519,38.3000,79,99,109451
1.9306,0.3519,38.4300,79,99,109454
1.8768,0.3421,38.5200,79,99,109457
1.8622,0.3275,38.4600,79,99,109461
1.7986,0.3421,38.5200,79,99,109464
1.8231,0.3568,38.2100,79,99,109467
1.7498,0.3470,38.4300,79,99,109471
1.7155,0.3372,38.5200,79,99,109474
1.7155,0.3470,38.4900,79,99,109477
1.6862,0.3421,38.5200,79,99,109480
1.7253,0.3666,38.3600,79,99,109485
1.6764,0.3470,38.4300,79,99,109488
1.6716,0.3421,38.6500,79,99,109491
1.6764,0.3421,38.5200,79,99,109495
1.6569,0.3421,38.5800,79,99,109498
1.6862,0.3519,38.4300,79,99,109501
1.6667,0.3470,38.5200,79,99,109505
1.6813,0.3470,37.5900,79,99,109508
1.6911,0.3421,38.5200,79,99,109511
1.6764,0.3421,38.6200,79,99,109515
1.7107,0.3519,38.3600,79,99,109518
1.6862,0.3421,38.5500,79,99,109521
1.7155,0.3470,38.4000,79,99,109524
1.7009,0.3324,38.4300,79,99,109529
1.7204,0.3421,38.5200,79,99,109532
1.7351,0.3470,38.4600,79,99,109535
1.7253,0.3519,38.5200,79,99,109539
1.7595,0.3470,38.3000,79,99,109542
1.8280,0.3617,38.3000,79,99,109546
1.7449,0.3421,38.4300,79,99,109549
1.7498,0.3372,38.4900,79,99,109552
1.7498,0.3470,38.4900,79,99,109556
1.7546,0.3372,38.5200,79,99,109559
1.8133,0.3470,38.3600,79,99,109562
1.7889,0.3470,38.4900,79,99,109566
1.7840,0.3421,38.4300,79,99,109570
1.7791,0.3421,38.5800,79,99,109573
1.7986,0.3519,38.5500,79,99,109577
1.8426,0.3470,38.3600,79,99,109580
1.7986,0.3421,38.5200,79,99,109583
1.8182,0.3421,38.3600,79,99,109586
1.7840,0.3421,38.5200,79,99,109590
1.7889,0.3421,38.4900,79,99,109593
1.8133,0.3470,38.4300,79,99,109596
1.8035,0.3421,38.4600,79,99,109600
1.8328,0.3421,38.4000,79,99,109603
1.7986,0.3372,38.5200,79,99,109606
1.8084,0.3421,38.5800,79,99,109611
1.8231,0.3421,38.4000,79,99,109614
1.8084,0.3421,38.5200,79,99,109617
1.8377,0.3470,38.3000,79,99,109620
1.8035,0.3421,38.5200,79,99,109624
1.8182,0.3421,38.5200,79,99,109627
1.8133,0.3470,37.6800,79,99,109630
1.8084,0.3372,38.5200,79,99,109634
1.8426,0.3519,38.2700,79,99,109637
1.8133,0.3617,38.4000,79,99,109640
1.7986,0.3470,38.5200,79,99,109644
1.7986,0.3470,38.4900,79,99,109647
1.7937,0.3421,38.6200,79,99,109650
1.8377,0.3666,38.2700,79,99,109655
1.7986,0.3470,38.4600,79,99,109658
1.7986,0.3372,38.4600,79,99,109661
1.7937,0.3421,38.5200,79,99,109664
1.7937,0.3421,38.5500,79,99,109668
1.8280,0.3519,38.3600,79,99,109671
1.7889,0.3470,38.4900,79,99,109674
1.8035,0.3421,38.5200,79,99,109678
1.7840,0.3519,38.5200,79,99,109681
1.7840,0.3421,38.5500,79,99,109684
1.8035,0.3470,38.4600,79,99,109688
1.7840,0.3763,38.4900,79,99,109691
1.8035,0.3470,38.3600,79,99,109694
1.7840,0.3421,38.5200,79,99,109699
1.7986,0.3421,38.5200,79,99,109702
1.8280,0.3470,38.4000,79,99,109705
1.7986,0.3470,38.7100,79,99,109708
1.8280,0.3421,38.3600,79,99,109712
1.8035,0.3421,38.4300,79,99,109715
1.8084,0.3421,38.5500,79,99,109718
1.8280,0.3470,38.4300,79,99,109722
1.8084,0.3421,38.5200,79,99,109725
1.8328,0.3470,38.2700,79,99,109728
1.8084,0.3275,38.4600,79,99,109732
1.7986,0.3421,38.4900,79,99,109735
1.8133,0.3568,38.2700,79,99,109739
1.7986,0.3568,38.5200,79,99,109742
1.8573,0.3519,38.2400,79,99,109746
1.8084,0.3421,38.4000,79,99,109749
1.8182,0.3421,38.5500,79,99,109752
1.8280,0.3470,38.4900,79,99,109756
1.8280,0.3666,38.5500,79,99,109759
1.9110,0.3617,38.3000,79,99,109762
1.8426,0.3470,38.4600,79,99,109766
1.8280,0.3372,38.4000,79,99,109769
1.8182,0.3421,38.4900,79,99,109772
1.8182,0.3421,38.6200,79,99,109776
1.8524,0.3519,38.4300,79,99,109779
1.8231,0.3421,38.6200,79,99,109783
1.8426,0.3470,38.4000,79,99,109786
1.8231,0.3372,38.5200,79,99,109790
1.8280,0.3421,38.5200,79,99,109793
1.8524,0.3617,38.3600,79,99,109796
1.8328,0.3421,38.5200,79,99,109800
1.8573,0.3519,38.4000,79,99,109803
1.8231,0.3372,38.5500,79,99,109806
1.8280,0.3421,38.5500,79,99,109810
1.8377,0.3421,38.4000,79,99,109813
1.8280,0.3421,38.5500,79,99,109816
1.8622,0.3470,38.3300,79,99,109820
1.8231,0.3421,38.4900,79,99,109824
1.8231,0.3372,38.5200,79,99,109827
1.8377,0.3470,38.4600,79,99,109830
1.8426,0.3372,38.5200,79,99,109834
1.8671,0.3519,38.4300,79,99,109837
1.8475,0.3519,38.4300,79,99,109840
1.8475,0.3421,38.5200,79,99,109844
1.8426,0.3519,38.4900,79,99,109847
1.8328,0.3421,38.5200,79,99,109850
1.8768,0.3568,38.2100,79,99,109854
1.8426,0.3519,38.4600,79,99,109857
1.8426,0.3372,38.4900,79,99,109860
1.8573,0.3617,38.4900,79,99,109864
1.8524,0.3275,38.5500,79,99,109868
1.8866,0.3568,38.3600,79,99,109871
1.8475,0.3470,38.4900,79,99,109875
1.8524,0.3421,38.4300,79,99,109878
1.8328,0.3470,38.5200,79,99,109881
1.8377,0.3421,38.5200,79,99,109884
1.8573,0.3470,38.4600,79,99,109888
1.8475,0.3421,38.5200,79,99,109891
1.8671,0.3470,37.9300,79,99,109894
1.8475,0.3421,38.5200,79,99,109898
1.8524,0.3421,38.5500,79,99,109901
1.8768,0.3421,38.4000,79,99,109904
1.8524,0.3421,38.5500,79,99,109908
1.8915,0.3519,38.3300,79,99,109912
1.8915,0.3421,38.4600,79,99,109915
1.9159,0.3421,38.5200,79,99,109919
1.9550,0.3470,38.4000,79,99,109922
1.9648,0.3421,38.5500,79,99,109925
2.0283,0.3519,38.2700,79,99,109929
2.0186,0.3470,38.4300,79,99,109932
2.0332,0.3421,38.5200,79,99,109935
2.0577,0.3470,38.6200,79,99,109938
2.0479,0.3372,38.4300,79,99,109942
2.0968,0.3470,38.2400,79,99,109945
2.0381,0.3421,38.4600,79,99,109948
2.0186,0.3421,38.5200,79,99,109953
2.0332,0.3470,38.5200,79,99,109956
1.9746,0.3421,38.5200,79,99,109959
2.0137,0.3666,38.3000,79,99,109963
1.9453,0.3568,38.4300,79,99,109966
1.9110,0.3421,38.4600,79,99,109969
1.8768,0.3715,38.5200,79,99,109972
1.8475,0.3421,38.5200,79,99,109976
1.8524,0.3519,38.3600,79,99,109979
1.7889,0.3470,38.5200,79,99,109982
1.7791,0.3470,38.4000,79,99,109986
1.7302,0.3421,38.6200,79,99,109989
1.7204,0.3372,38.5200,79,99,109992
1.7400,0.3470,38.4000,79,99,109997
1.7253,0.3421,38.5500,79,99,110000
1.7498,0.3470,38.4000,79,99,110003
1.7253,0.3421,38.5200,79,99,110006
1.7253,0.3421,38.7700,79,99,110010
1.7546,0.3470,38.4300,79,99,110013
1.7449,0.3421,38.4900,79,99,110016
1.7742,0.3421,38.3300,79,99,110020
1.7498,0.3421,38.5200,79,99,110023
1.7400,0.3421,38.3300,79,99,110026
1.7155,0.3568,38.4600,79,99,110030
1.6227,0.3421,38.4600,79,99,110033
1.6422,0.3568,38.2700,79,99,110036
1.5982,0.3470,38.4600,79,99,110041
1.6520,0.3421,38.5500,79,99,110044
1.7937,0.3421,38.5200,79,99,110047
1.9892,0.3421,38.6200,79,99,110051
2.3363,0.3617,38.3000,79,99,110054
2.6344,0.3470,38.5200,79,99,110057
2.9961,0.3372,38.5500,79,99,110060
3.3480,0.3470,38.5500,79,99,110064
3.6070,0.3421,38.5200,79,99,110067
3.7732,0.3568,38.3600,79,99,110070
3.5386,0.3519,38.4600,79,99,110074
3.1818,0.3421,38.4300,79,99,110077
2.7077,0.3470,38.6200,79,99,110081
2.2972,0.3421,38.5200,79,99,110085
1.9404,0.3470,38.4600,79,99,110088
1.6569,0.3421,38.5800,79,99,110091
1.5200,0.3617,38.3600,79,99,110095
1.4223,0.3421,38.6200,79,99,110098
1.4027,0.3421,38.5200,79,99,110101
1.4125,0.3470,38.4000,79,99,110104
1.4027,0.3421,38.4900,79,99,110108
1.4418,0.3372,38.3600,79,99,110111
1.4321,0.3421,38.5800,79,99,110114
1.4614,0.3470,38.5500,79,99,110118
1.4858,0.3470,38.4600,79,99,110121
1.4907,0.3421,38.5200,79,99,110125
1.5249,0.3519,38.3000,79,99,110129
1.5152,0.3421,37.9900,79,99,110132
1.5249,0.3421,38.5500,79,99,110135
1.5494,0.3519,38.4600,79,99,110139
1.5591,0.3421,38.4900,79,99,110142
1.6129,0.3568,38.2700,79,99,110145
1.5836,0.3421,38.1500,79,99,110148
1.5982,0.3421,38.5200,79,99,110152
1.6129,0.3470,38.5200,79,99,110155
1.6422,0.3421,38.5500,79,99,110159
1.6569,0.3372,38.6500,79,99,110162
1.6862,0.3568,38.3300,79,99,110166
1.6618,0.3421,38.2100,79,99,110170
1.7058,0.3519,38.4000,79,99,110173
1.6764,0.3275,38.5200,79,99,110176
1.7009,0.3421,38.5200,79,99,110180
1.7400,0.3470,38.4000,79,99,110183
1.7253,0.3421,38.5200,79,99,110186
1.7791,0.3372,38.4000,79,99,110190
1.7302,0.3372,38.4900,79,99,110193
1.7400,0.3519,38.5200,79,99,110196
1.7595,0.3372,38.4300,79,99,110199
1.7449,0.3421,38.5200,79,99,110203
1.7889,0.3519,38.2700,79,99,110206
1.7595,0.3275,38.5800,79,99,110210
1.7644,0.3421,38.5500,79,99,110214
1.7742,0.3470,38.4900,79,99,110217
1.7742,0.3421,38.6200,79,99,110220
1.8280,0.3763,38.2400,79,99,110224
1.8084,0.3470,38.4600,79,99,110227
1.8133,0.3421,38.5200,79,99,110230
