ecg,gsr,temp,hr,spo2,timest
2.2532,0.4008,39.2500,84,95,449688
2.2336,0.3959,39.3200,84,95,449691
2.2776,0.3959,39.1600,84,95,449694
2.2434,0.3910,39.2200,84,95,449697
2.2581,0.3910,39.2800,84,95,449701
2.3069,0.3959,39.1900,84,95,449704
2.3021,0.3910,39.3800,84,95,449708
2.3412,0.4203,39.1200,84,95,449712
2.3167,0.3910,39.2200,84,95,449715
2.3069,0.3910,39.2200,84,95,449718
2.3265,0.4008,39.1900,84,95,449722
2.3216,0.3910,39.2800,84,95,449725
2.3803,0.4008,39.1600,84,95,449728
2.3314,0.3910,39.1900,84,95,449732
2.3167,0.3861,39.2800,84,95,449735
2.3167,0.3959,39.2200,84,95,449738
2.2972,0.3910,39.2500,84,95,449741
2.3656,0.4057,39.0600,84,95,449745
2.3314,0.3959,39.1200,84,95,449748
2.3363,0.3910,39.3200,84,95,449752
2.2972,0.3959,39.3500,84,95,449756
2.2727,0.3812,39.3200,84,95,449759
2.3460,0.4106,38.9300,84,95,449762
2.2630,0.4008,39.1200,84,95,449767
2.2336,0.3910,39.2800,84,95,449770
2.2727,0.3959,39.1900,84,95,449774
2.2434,0.3861,39.3500,84,95,449777
2.2287,0.3910,39.2800,84,95,449780
2.2239,0.3959,39.1900,84,95,449784
2.2043,0.3959,39.2800,84,95,449787
2.2727,0.3910,39.1200,84,95,449790
2.2239,0.3910,39.3200,84,95,449794
2.2336,0.3910,39.2800,84,95,449798
2.2581,0.4008,39.1900,84,95,449801
2.2239,0.4057,39.2800,84,95,449804
2.2727,0.4106,39.0600,84,95,449808
2.2434,0.3959,39.1900,84,95,449811
2.2336,0.3910,39.4400,84,95,449814
2.2581,0.3959,39.2500,84,95,449818
2.2287,0.3861,39.3800,84,95,449821
2.2776,0.4057,38.9600,84,95,449824
2.2287,0.4008,39.1900,84,95,449828
2.2141,0.3861,39.2500,84,95,449831
2.2190,0.4106,39.2500,84,95,449835
2.2092,0.3910,39.3200,84,95,449838
2.2581,0.4106,39.0300,84,95,449842
2.1945,0.4008,39.2500,84,95,449845
2.2141,0.3910,39.2200,84,95,449848
2.1848,0.3959,38.8700,84,95,449852
2.1994,0.3910,39.2800,84,95,449855
2.2092,0.4008,39.1900,84,95,449858
2.1652,0.3910,39.2800,84,95,449862
2.1652,0.4252,39.3500,84,95,449865
2.1505,0.3910,39.3800,84,95,449868
2.1554,0.3910,39.2200,84,95,449871
2.2043,0.4008,39.1600,84,95,449875
2.1701,0.3910,39.2800,84,95,449879
2.1848,0.4008,39.1200,84,95,449882
2.1408,0.3910,39.2200,84,95,449886
2.1457,0.3910,39.2800,84,95,449889
2.1750,0.3959,39.1600,84,95,449892
2.1652,0.4008,39.2800,84,95,449896
2.1896,0.3959,39.1200,84,95,449899
2.1505,0.3910,39.2500,84,95,449902
2.1310,0.4008,39.2800,84,95,449906
2.1505,0.3861,39.1900,84,95,449909
2.1359,0.3861,39.4100,84,95,449912
2.1896,0.4057,39.0600,84,95,449915
2.1457,0.3861,39.2500,84,95,449920
2.1408,0.3910,39.2800,84,95,449923
2.1750,0.4008,39.2200,84,95,449926
2.1505,0.3910,39.2800,84,95,449930
2.2287,0.4301,38.9300,84,95,449933
2.1945,0.3959,39.2200,84,95,449936
2.1799,0.3861,39.1600,84,95,449940
2.1848,0.3959,39.2800,84,95,449943
2.1848,0.3910,39.3500,84,95,449946
2.2630,0.4106,39.0900,84,95,449950
2.2581,0.3959,39.2200,84,95,449953
2.2776,0.3861,39.1200,84,95,449956
2.2776,0.3959,39.2500,84,95,449959
2.2678,0.3910,39.2800,84,95,449964
2.3069,0.4008,39.2500,84,95,449967
2.2923,0.3910,39.2500,84,95,449970
2.3265,0.3959,39.1600,84,95,449974
2.3069,0.3910,39.2500,84,95,449977
2.2972,0.4154,39.3200,84,95,449980
2.3021,0.3959,39.2200,84,95,449984
2.2776,0.3910,39.2800,84,95,449987
2.3265,0.4154,39.1900,84,95,449990
2.3167,0.3910,39.1600,84,95,449993
2.3363,0.3910,39.2800,84,95,449997
2.3705,0.4008,38.9600,84,95,450000
2.3118,0.3959,39.2800,84,95,450003
2.3460,0.4008,39.0900,84,95,450008
2.2923,0.3959,39.1900,84,95,450011
2.2287,0.3910,39.3200,84,95,450014
2.2336,0.3959,39.1900,84,95,450018
2.1848,0.3861,39.3500,84,95,450021
2.2043,0.4106,39.0600,84,95,450024
2.1457,0.3861,39.1900,84,95,450028
2.1310,0.3910,38.5800,84,95,450031
2.1457,0.4301,39.2200,84,95,450034
2.1261,0.3910,39.2500,84,95,450037
2.1701,0.4057,38.7100,84,95,450041
2.1065,0.3959,39.2200,84,95,450044
2.1017,0.3861,39.2500,84,95,450048
2.1114,0.4301,39.2800,84,95,450052
2.1163,0.3861,39.2800,84,95,450055
2.1701,0.4008,39.1200,84,95,450058
2.1261,0.4008,39.2500,84,95,450062
2.1261,0.3861,39.1900,84,95,450065
2.1163,0.3959,39.2500,84,95,450068
2.1310,0.3861,39.2800,84,95,450072
2.1848,0.4154,39.1200,84,95,450075
2.1603,0.3910,39.2500,84,95,450078
2.1799,0.3959,39.1600,84,95,450081
2.1701,0.3910,39.2500,84,95,450085
2.1505,0.3861,39.2800,84,95,450088
2.1799,0.3910,39.0900,84,95,450092
2.1652,0.3959,39.2800,84,95,450096
2.2190,0.3910,39.1200,84,95,450099
2.1310,0.3910,39.2800,84,95,450102
2.0870,0.3861,39.3200,84,95,450106
2.0528,0.3959,39.1900,84,95,450109
2.0088,0.3861,39.2800,84,95,450112
1.9844,0.3959,39.0600,84,95,450115
1.8915,0.3910,39.2500,84,95,450119
1.8817,0.3861,39.3200,84,95,450122
1.9550,0.3959,39.2200,84,95,450125
2.0870,0.3861,39.2800,84,95,450129
2.3754,0.4008,39.1600,84,95,450132
2.6051,0.4008,39.2200,84,95,450136
2.7664,0.3910,39.3200,84,95,450140
2.8006,0.3959,39.2500,84,95,450143
2.7077,0.3959,39.2800,84,95,450146
2.7028,0.4154,39.0300,84,95,450150
2.5953,0.4008,39.4800,84,95,450153
2.4878,0.3861,39.2200,84,95,450156
2.3705,0.3861,39.2500,84,95,450159
2.2483,0.3910,39.2800,84,95,450163
2.1994,0.4008,39.1600,84,95,450166
2.0968,0.3959,39.2500,84,95,450169
2.0577,0.3910,39.1200,84,95,450173
2.0039,0.4203,39.3200,84,95,450177
1.9697,0.3910,39.2800,84,95,450180
1.9844,0.4008,39.1900,84,95,450184
1.9550,0.3910,39.2800,84,95,450187
1.9990,0.4008,39.1200,84,95,450190
1.9941,0.3910,39.2800,84,95,450193
2.0137,0.3861,39.3200,84,95,450197
2.0528,0.3861,39.1900,84,95,450200
2.0088,0.3910,39.3200,84,95,450203
2.0332,0.3910,39.1600,84,95,450207
2.0137,0.3910,39.1900,84,95,450210
2.0235,0.3910,39.2800,84,95,450213
2.0674,0.4008,39.1600,84,95,450217
2.0283,0.3910,39.2800,84,95,450221
2.0528,0.3959,39.0900,84,95,450224
2.0186,0.3959,39.3200,84,95,450227
2.0235,0.3910,39.2800,84,95,450231
2.0577,0.4008,39.2200,84,95,450234
2.0186,0.3910,39.2800,84,95,450237
2.0479,0.4008,38.4600,84,95,450241
1.9892,0.3910,39.2200,84,95,450244
1.9795,0.3910,39.2800,84,95,450247
1.9990,0.3959,39.3800,84,95,450251
2.0039,0.3910,39.2800,84,95,450254
2.0772,0.3861,39.0000,84,95,450257
2.0381,0.3959,39.2500,84,95,450260
2.0283,0.3861,39.2500,84,95,450265
2.0430,0.3910,39.2800,84,95,450268
2.0528,0.3861,39.3200,84,95,450271
2.1212,0.4106,39.1200,84,95,450275
2.0870,0.3959,39.2500,84,95,450278
2.0674,0.3910,39.2800,84,95,450281
2.0381,0.3861,39.2800,84,95,450285
2.0332,0.3910,39.2800,84,95,450288
2.0772,0.4008,39.1200,84,95,450291
2.0626,0.3910,39.2500,84,95,450295
2.0919,0.4008,39.1600,84,95,450298
2.0626,0.3861,39.2800,84,95,450301
2.0577,0.3910,39.2800,84,95,450305
2.0821,0.4154,39.2500,84,95,450309
2.0821,0.3910,39.2800,84,95,450312
2.1212,0.3861,39.1900,84,95,450315
2.0870,0.3910,39.3200,84,95,450319
2.0723,0.3861,39.2800,84,95,450322
2.0870,0.4008,39.1600,84,95,450325
2.1017,0.3910,39.2800,84,95,450329
2.1114,0.3959,39.1200,84,95,450332
2.1017,0.3959,39.1900,84,95,450335
2.0821,0.3910,39.2800,84,95,450338
2.0919,0.4057,39.1600,84,95,450342
2.0528,0.3910,39.2200,84,95,450345
2.0968,0.4106,39.0300,84,95,450349
2.0723,0.3861,39.1900,84,95,450353
2.0577,0.3861,39.2800,84,95,450356
2.0479,0.3959,39.2200,84,95,450359
2.0235,0.3861,39.2800,84,95,450363
2.0723,0.4057,39.0600,84,95,450366
2.0332,0.4008,39.1900,84,95,450369
2.0332,0.3910,39.2800,84,95,450372
2.0528,0.3861,39.2500,84,95,450376
2.0626,0.3910,39.2800,84,95,450380
2.0772,0.3861,39.0900,84,95,450384
2.1163,0.4057,39.1200,84,95,450387
2.0772,0.3910,39.2800,84,95,450391
2.1017,0.4008,39.1600,84,95,450395
2.1065,0.3910,39.2200,84,95,450398
2.0919,0.3861,39.2800,84,95,450401
2.1163,0.4106,39.1600,84,95,450405
2.0772,0.3910,39.2800,84,95,450408
2.0968,0.3861,39.1600,84,95,450411
2.0674,0.3910,39.2200,84,95,450415
2.0723,0.3910,39.3200,84,95,450418
2.0968,0.3861,39.4100,84,95,450421
2.0723,0.3910,39.3500,84,95,450424
2.0821,0.3959,39.1200,84,95,450428
2.0186,0.3910,39.2500,84,95,450432
2.0039,0.3910,39.4400,84,95,450435
2.0332,0.4057,39.2200,84,95,450439
2.0235,0.3910,39.3200,84,95,450442
2.0772,0.4008,39.0300,84,95,450445
2.0381,0.3959,39.2800,84,95,450449
2.0039,0.3910,39.3200,84,95,450452
2.0088,0.3959,39.2500,84,95,450455
1.9941,0.3910,39.3200,84,95,450458
2.0430,0.4154,39.0000,84,95,450462
1.9941,0.4008,39.1900,84,95,450465
1.9501,0.3910,39.2500,84,95,450468
1.9306,0.3910,39.2800,84,95,450472
1.9110,0.3910,39.3200,84,95,450476
1.9599,0.4057,39.1200,84,95,450479
1.9257,0.4252,39.2500,84,95,450483
1.9697,0.3959,39.1900,84,95,450486
1.9159,0.3910,39.2800,84,95,450489
1.9159,0.3910,39.3200,84,95,450492
1.9404,0.4008,38.5500,84,95,450496
1.9306,0.3910,39.3200,84,95,450499
1.9648,0.4008,39.1200,84,95,450502
1.9208,0.3861,39.4100,84,95,450506
1.9062,0.3861,39.3200,84,95,450509
1.9208,0.4008,39.1200,84,95,450512
1.8915,0.3959,39.2500,84,95,450516
1.9159,0.3910,39.1900,84,95,450520
1.8964,0.3910,39.1900,84,95,450523
1.8768,0.3861,39.2800,84,95,450527
1.8817,0.3861,39.1200,84,95,450530
1.8524,0.3910,39.2800,84,95,450533
1.8915,0.4008,39.0900,84,95,450536
1.8719,0.3861,39.2200,84,95,450540
1.8719,0.3861,39.2500,84,95,450543
1.9110,0.3910,39.2200,84,95,450546
1.8475,0.3861,39.2800,84,95,450550
1.8866,0.4106,39.0000,84,95,450553
1.8475,0.3861,39.2200,84,95,450556
1.8426,0.3861,39.2800,84,95,450561
1.8573,0.3959,39.2500,84,95,450564
1.8573,0.3959,39.2800,84,95,450567
1.8817,0.4106,39.1200,84,95,450571
1.8426,0.3959,39.2200,84,95,450574
1.8719,0.3910,39.1900,84,95,450577
1.8817,0.3910,39.3200,84,95,450581
1.8964,0.3910,39.2800,84,95,450584
1.9550,0.4008,39.1600,84,95,450587
1.9306,0.4008,39.2500,84,95,450590
1.9844,0.3959,39.1900,84,95,450594
1.9550,0.3910,39.4800,84,95,450597
1.9697,0.3910,39.2800,84,95,450600
1.9990,0.3959,39.1900,84,95,450605
1.9648,0.3910,39.2800,84,95,450608
2.0039,0.3959,39.1600,84,95,450611
1.9648,0.3910,39.2500,84,95,450615
1.9892,0.3910,39.2800,84,95,450618
2.0332,0.3910,39.2200,84,95,450621
2.0235,0.3861,39.2800,84,95,450624
2.0381,0.3959,39.1900,84,95,450628
2.0039,0.3910,39.2800,84,95,450631
2.0039,0.3910,39.2800,84,95,450634
2.0332,0.4008,39.2800,84,95,450638
2.0186,0.4154,39.2800,84,95,450641
2.0626,0.4008,39.0600,84,95,450644
2.0283,0.3959,39.1900,84,95,450649
1.9990,0.3861,39.3500,84,95,450652
2.0137,0.4008,39.2500,84,95,450655
2.0137,0.3910,39.2800,84,95,450658
2.0870,0.3861,39.0000,84,95,450662
2.0723,0.3959,39.1200,84,95,450665
2.0674,0.3910,39.3200,84,95,450668
2.1065,0.3910,39.2500,84,95,450672
2.0919,0.3910,39.2800,84,95,450675
2.1701,0.4106,39.0600,84,95,450678
2.1750,0.3959,39.2500,84,95,450682
2.1310,0.3910,39.1900,84,95,450685
2.1212,0.4057,39.2500,84,95,450689
2.1065,0.3910,39.2800,84,95,450692
2.1554,0.4057,39.1900,84,95,450696
2.1310,0.3910,39.2500,84,95,450699
2.1505,0.4057,39.1600,84,95,450702
2.1310,0.3910,39.3200,84,95,450706
2.1212,0.3910,39.1900,84,95,450709
2.1603,0.4008,39.1900,84,95,450712
2.1310,0.3910,39.3500,84,95,450716
2.1554,0.4008,39.1200,84,95,450719
2.1017,0.3910,39.2200,84,95,450722
2.0577,0.3861,39.2800,84,95,450725
2.0430,0.3959,39.1200,84,95,450729
2.0039,0.4008,39.2800,84,95,450733
2.0235,0.3910,39.1200,84,95,450736
2.0039,0.3861,39.2500,84,95,450740
1.9892,0.3910,39.2800,84,95,450743
1.9844,0.4057,39.1600,84,95,450746
1.9501,0.3861,39.3800,84,95,450750
1.9746,0.4008,39.0000,84,95,450753
1.9404,0.3910,39.2500,84,95,450756
1.9501,0.3861,39.3200,84,95,450760
1.9599,0.4008,39.2500,84,95,450763
1.9306,0.3861,39.2800,84,95,450766
1.9550,0.4057,39.0900,84,95,450769
1.9110,0.3959,39.2200,84,95,450774
1.9062,0.3959,39.3200,84,95,450777
1.9355,0.3959,39.1600,84,95,450780
1.9404,0.3910,39.2800,84,95,450784
1.9941,0.4106,39.0900,84,95,450787
1.9404,0.3959,39.1900,84,95,450790
1.9355,0.3910,39.2200,84,95,450794
1.9306,0.3861,39.2800,84,95,450797
1.9453,0.3861,39.2800,84,95,450800
1.9892,0.4008,39.1600,84,95,450804
1.9501,0.3910,39.2800,84,95,450807
1.9404,0.4057,39.1600,84,95,450810
1.8915,0.3910,39.2800,84,95,450813
1.8817,0.3959,39.2800,84,95,450818
1.8768,0.3959,39.2200,84,95,450821
1.8328,0.3861,39.2800,84,95,450824
1.7986,0.4203,39.1900,84,95,450828
1.6960,0.3861,39.2800,84,95,450831
1.6373,0.3910,39.2800,84,95,450834
1.6813,0.4008,39.1600,84,95,450838
1.7595,0.3910,39.2800,84,95,450841
1.9599,0.3959,39.0900,84,95,450844
2.1896,0.3959,39.1900,84,95,450848
2.4145,0.3861,39.4100,84,95,450851
2.5904,0.4008,39.1900,84,95,450854
2.5806,0.3861,39.2800,84,95,450857
2.5758,0.4008,39.0300,84,95,450862
2.4536,0.4106,39.2200,84,95,450865
2.3509,0.3910,39.2800,84,95,450868
2.2678,0.3959,39.2500,84,95,450872
2.1457,0.3910,39.3200,84,95,450875
2.1505,0.4106,39.0000,84,95,450878
2.0088,0.3861,39.1900,84,95,450882
1.9355,0.3861,39.2800,84,95,450885
1.8768,0.3910,39.2500,84,95,450888
1.8328,0.3910,39.2500,84,95,450891
1.8719,0.4154,39.0900,84,95,450895
1.8426,0.3959,39.2500,84,95,450898
1.8622,0.3910,39.2500,84,95,450902
1.8622,0.3861,39.2800,84,95,450906
1.8573,0.3861,39.2800,84,95,450909
1.8915,0.4008,39.1600,84,95,450912
1.8719,0.3959,39.3200,84,95,450916
1.9062,0.3959,39.1600,84,95,450919
1.8964,0.3910,39.1600,84,95,450922
1.9110,0.3910,39.2800,84,95,450926
1.9404,0.4008,39.1900,84,95,450929
1.9208,0.3910,39.3800,84,95,450932
1.9648,0.3959,39.1200,84,95,450935
1.9599,0.3910,39.2500,84,95,450939
1.9697,0.3861,39.3200,84,95,450942
1.9746,0.3910,39.1900,84,95,450946
1.9501,0.3910,39.2800,84,95,450950
1.9697,0.3959,39.0600,84,95,450953
1.9453,0.3861,39.2500,84,95,450956
1.9501,0.3861,39.2800,84,95,450960
1.9795,0.3910,39.2500,84,95,450963
1.9648,0.3861,39.3200,84,95,450966
2.0137,0.4106,39.0300,84,95,450970
1.9795,0.3959,39.2200,84,95,450973
1.9697,0.3861,39.2800,84,95,450976
1.9990,0.3959,39.2200,84,95,450980
1.9941,0.3861,39.3800,84,95,450983
2.0430,0.4057,39.0600,84,95,450987
2.0186,0.4008,39.1600,84,95,450992
1.9844,0.3910,39.2800,84,95,450995
1.9892,0.3959,39.2200,84,95,450998
1.9599,0.3910,39.2800,84,95,451002
1.9697,0.3861,39.2800,84,95,451005
2.0039,0.4057,39.1900,84,95,451008
1.9941,0.3910,39.2800,84,95,451012
2.0186,0.3910,39.1200,84,95,451015
1.9795,0.3910,39.2800,84,95,451018
2.0088,0.3910,39.2800,84,95,451022
2.0088,0.3861,39.1900,84,95,451025
1.9990,0.3910,39.3200,84,95,451028
2.0332,0.3959,39.0900,84,95,451033
2.0039,0.3861,39.1900,84,95,451036
1.9746,0.3910,39.3800,84,95,451039
2.0283,0.3959,39.2200,84,95,451042
1.9892,0.3910,39.3200,84,95,451046
2.0577,0.4008,39.0300,84,95,451049
2.0332,0.3910,39.1900,84,95,451052
2.0235,0.3910,39.3200,84,95,451056
2.0137,0.3959,39.3500,84,95,451059
1.9990,0.3959,39.2800,84,95,451062
2.0674,0.4106,39.0300,84,95,451066
2.0235,0.3959,38.9000,84,95,451069
2.0088,0.3861,39.3500,84,95,451073
2.0088,0.3910,39.2800,84,95,451076
2.0039,0.3910,39.3200,84,95,451080
2.0772,0.4057,39.1600,84,95,451083
2.0577,0.3959,39.2500,84,95,451086
2.0772,0.3910,39.1900,84,95,451090
2.0821,0.3910,39.1600,84,95,451093
2.0870,0.4008,39.2800,84,95,451096
2.1408,0.4057,39.0900,84,95,451099
2.1310,0.3910,39.2500,84,95,451103
2.1848,0.3959,39.2500,84,95,451106
2.1945,0.3910,39.2800,84,95,451109
2.2043,0.3910,39.2800,84,95,451113
2.2336,0.3910,39.2200,84,95,451117
2.2092,0.3910,39.2800,84,95,451120
2.2385,0.3959,39.1600,84,95,451124
2.2141,0.3910,39.2800,84,95,451127
2.2336,0.3910,39.2500,84,95,451130
2.2483,0.3910,39.1900,84,95,451134
2.2287,0.3910,39.2200,84,95,451137
2.2874,0.3959,39.0900,84,95,451140
2.2287,0.3910,39.4400,84,95,451143
2.2434,0.3910,39.2800,84,95,451147
2.2776,0.3959,39.1900,84,95,451150
2.2385,0.3910,39.2500,84,95,451153
2.2776,0.3959,39.0300,84,95,451158
2.2336,0.3959,39.2200,84,95,451161
2.2141,0.4008,39.2800,84,95,451164
2.2385,0.3959,39.2200,84,95,451168
2.2239,0.3861,39.1200,84,95,451171
2.2776,0.4106,39.0300,84,95,451174
2.2239,0.3959,39.2500,84,95,451178
2.1896,0.3910,39.2200,84,95,451181
2.1945,0.3959,39.2800,84,95,451184
2.2043,0.3861,39.2800,84,95,451187
2.2630,0.4106,39.1900,84,95,451191
2.2092,0.3910,39.2500,84,95,451194
2.1994,0.3910,39.1900,84,95,451197
2.1799,0.3812,39.2500,84,95,451202
2.1848,0.3861,39.5100,84,95,451205
2.2190,0.4008,39.2200,84,95,451208
2.1896,0.3861,39.2800,84,95,451212
2.2043,0.3959,39.3500,84,95,451215
2.1652,0.3910,39.3200,84,95,451218
2.1603,0.3861,39.2800,84,95,451222
2.2043,0.4057,39.0900,84,95,451225
2.1848,0.3910,39.2800,84,95,451228
2.2190,0.3910,39.1600,84,95,451231
2.1945,0.3910,39.1600,84,95,451235
2.1799,0.3910,39.2800,84,95,451238
2.2043,0.3959,39.2200,84,95,451241
2.1945,0.3861,39.2800,84,95,451246
2.2532,0.3959,39.0900,84,95,451249
2.2141,0.3910,39.2200,84,95,451252
2.1945,0.3910,39.2800,84,95,451256
2.1945,0.3959,39.2200,84,95,451259
2.1652,0.3910,39.2800,84,95,451262
2.2287,0.4008,39.0300,84,95,451265
2.1848,0.3910,39.1900,84,95,451269
2.1701,0.3910,39.2800,84,95,451272
2.1554,0.3910,39.3500,84,95,451275
2.1457,0.3910,39.2800,84,95,451279
2.1603,0.3861,39.0300,84,95,451282
2.1261,0.4008,39.0000,84,95,451286
2.1114,0.3861,39.2500,84,95,451290
2.1212,0.3861,39.2500,84,95,451293
2.1065,0.3861,39.2200,84,95,451296
2.1750,0.3959,39.0900,84,95,451300
2.1163,0.3959,39.2500,84,95,451303
2.1310,0.3959,39.1600,84,95,451306
2.1261,0.3861,39.2800,84,95,451309
2.1261,0.3861,39.3200,84,95,451313
2.1457,0.3959,39.1600,84,95,451316
2.1114,0.3910,39.2500,84,95,451319
2.1457,0.4057,39.1600,84,95,451323
2.1261,0.3861,39.3200,84,95,451326
2.1359,0.3910,39.2500,84,95,451330
2.1554,0.3861,39.2200,84,95,451334
2.1408,0.3910,39.4800,84,95,451337
2.1652,0.3959,39.1200,84,95,451340
2.1505,0.3861,39.2800,84,95,451344
2.1701,0.3861,39.1900,84,95,451347
2.2287,0.3910,39.1900,84,95,451350
2.1896,0.3861,39.1600,84,95,451353
2.2190,0.3959,39.0600,84,95,451357
2.1799,0.3959,39.1900,84,95,451360
2.1554,0.3861,39.3500,84,95,451363
2.2043,0.3959,39.2200,84,95,451367
2.1750,0.3861,39.2800,84,95,451371
2.2385,0.4008,39.0000,84,95,451374
2.1994,0.3910,39.1600,84,95,451378
2.1896,0.3861,39.2500,84,95,451381
2.2141,0.4203,39.2500,84,95,451384
2.2239,0.3910,39.2800,84,95,451388
2.3021,0.4106,39.0900,84,95,451391
2.2532,0.4057,39.2500,84,95,451394
2.2385,0.3910,39.1900,84,95,451397
2.2287,0.3910,39.3500,84,95,451401
2.2239,0.3910,39.3200,84,95,451404
2.2727,0.4008,39.1900,84,95,451407
2.2434,0.3861,39.3200,84,95,451411
2.2678,0.4008,39.1600,84,95,451415
2.2532,0.3910,39.2800,84,95,451418
2.2727,0.3861,39.2800,84,95,451422
2.3460,0.4008,39.1200,84,95,451425
2.3167,0.3861,39.2800,84,95,451428
2.3412,0.4008,39.2200,84,95,451431
2.2776,0.3910,39.2200,84,95,451435
2.2483,0.3910,39.2800,84,95,451438
2.2483,0.3910,39.1600,84,95,451441
2.2287,0.3910,39.2800,84,95,451445
2.2630,0.3959,39.1900,84,95,451448
2.2287,0.3910,39.2200,84,95,451451
2.2141,0.3861,39.2800,84,95,451456
2.2141,0.4106,39.1900,84,95,451459
2.2141,0.3910,39.2800,84,95,451462
2.2336,0.4008,39.0600,84,95,451466
2.1945,0.4106,39.1900,84,95,451469
2.2239,0.3910,39.2800,84,95,451472
2.1896,0.3910,39.2500,84,95,451475
2.1554,0.3861,39.2800,84,95,451479
2.2336,0.4106,38.9600,84,95,451482
2.1848,0.3959,39.2200,84,95,451485
2.1799,0.3861,39.2200,84,95,451489
2.1945,0.3910,39.2500,84,95,451492
2.1799,0.3861,39.3500,84,95,451495
2.2336,0.4106,39.1900,84,95,451500
2.1896,0.3959,39.2200,84,95,451503
2.1945,0.3910,39.2200,84,95,451506
2.1945,0.3910,39.2800,84,95,451510
2.1848,0.3861,39.2800,84,95,451513
2.1994,0.4057,39.1600,84,95,451516
2.1505,0.3910,39.3500,84,95,451519
2.1603,0.3959,39.0900,84,95,451523
2.1310,0.3910,39.3200,84,95,451526
2.1212,0.3861,39.3200,84,95,451529
2.1017,0.3910,39.1900,84,95,451533
2.0430,0.3910,39.2800,84,95,451536
2.0137,0.3959,39.1600,84,95,451539
1.9208,0.3812,39.2800,84,95,451544
1.8817,0.3910,39.2800,84,95,451547
1.9355,0.3959,39.2200,84,95,451550
1.9941,0.3910,39.2800,84,95,451554
2.1652,0.3959,39.0600,84,95,451557
2.3705,0.3910,39.1900,84,95,451560
2.6246,0.3910,39.2800,84,95,451563
2.8250,0.3959,38.4900,84,95,451567
2.8299,0.4252,39.2800,84,95,451570
2.8348,0.3959,39.0300,84,95,451573
2.7028,0.3910,39.1600,84,95,451577
2.5904,0.3812,39.3200,84,95,451580
2.5024,0.3959,39.2500,84,95,451584
2.3754,0.3861,39.3200,84,95,451588
2.3412,0.4106,39.0000,84,95,451591
2.2092,0.3861,39.2200,84,95,451594
2.1261,0.3861,39.2500,84,95,451597
2.0772,0.3910,39.3200,84,95,451601
1.9844,0.3959,39.3200,84,95,451606
1.9795,0.3910,39.2800,84,95,451609
2.0137,0.4008,39.1200,84,95,451612
1.9892,0.3910,39.2500,84,95,451615
2.0283,0.3959,39.1900,84,95,451619
1.9892,0.3959,39.1900,84,95,451622
1.9746,0.3910,39.2800,84,95,451625
1.9892,0.3910,39.1600,84,95,451630
1.9795,0.3861,39.2800,84,95,451633
2.0235,0.3959,39.1600,84,95,451636
1.9941,0.4008,39.2200,84,95,451640
1.9746,0.3861,39.2800,84,95,451643
1.9746,0.3959,39.2200,84,95,451646
1.9404,0.3910,39.2800,84,95,451650
1.9941,0.4008,39.0300,84,95,451653
1.9501,0.3959,39.1900,84,95,451656
1.9355,0.3910,39.2800,84,95,451659
1.8964,0.3861,39.2500,84,95,451663
1.8280,0.3910,39.2800,84,95,451666
1.7840,0.4106,39.0300,84,95,451670
1.6471,0.3959,39.3200,84,95,451674
1.5200,0.3910,39.2500,84,95,451677
1.4076,0.3861,39.2800,84,95,451680
1.3050,0.3959,39.3200,84,95,451684
1.2610,0.4008,39.1200,84,95,451687
1.1877,0.3959,39.2200,84,95,451690
1.1877,0.4203,39.1900,84,95,451693
1.2268,0.3861,39.2800,84,95,451697
1.2854,0.3861,39.3500,84,95,451700
1.3930,0.3959,39.1900,84,95,451703
1.4712,0.3910,39.2800,84,95,451707
1.6080,0.3959,39.1600,84,95,451710
1.7058,0.4008,39.2800,84,95,451714
1.8035,0.3861,39.2800,84,95,451718
1.9013,0.3910,39.1600,84,95,451721
1.9648,0.3910,39.3200,84,95,451724
2.0283,0.3910,39.1600,84,95,451728
2.0479,0.4203,39.2800,84,95,451731
2.0919,0.3959,39.2800,84,95,451734
2.1505,0.3959,39.2200,84,95,451737
2.1408,0.3959,39.2500,84,95,451741
2.2141,0.3959,39.0900,84,95,451744
2.1603,0.3959,39.1900,84,95,451747
2.1457,0.3861,39.2800,84,95,451751
2.1848,0.3959,39.1900,84,95,451755
2.1652,0.3861,39.2800,84,95,451758
2.2336,0.4008,39.0300,84,95,451762
2.1848,0.3910,39.1200,84,95,451765
2.1701,0.3959,39.3200,84,95,451768
2.1896,0.3910,39.2500,84,95,451772
2.1994,0.3861,39.3500,84,95,451775
2.2727,0.4106,39.0600,84,95,451778
2.2336,0.3910,39.2500,84,95,451781
2.2239,0.3910,39.1900,84,95,451785
2.2581,0.3910,39.2800,84,95,451788
2.2385,0.3861,39.3500,84,95,451791
2.3021,0.3959,39.1600,84,95,451795
2.2776,0.3910,39.2500,84,95,451799
2.2972,0.3910,39.1900,84,95,451802
2.2776,0.3910,39.2800,84,95,451806
2.2825,0.3861,39.2800,84,95,451809
2.3363,0.4154,39.1900,84,95,451812
2.3216,0.3861,39.3200,84,95,451816
2.3656,0.4057,39.1900,84,95,451819
2.3412,0.3910,39.2200,84,95,451822
2.3412,0.3861,39.2800,84,95,451825
2.3705,0.3910,39.1600,84,95,451829
2.3607,0.3861,38.5200,84,95,451832
2.4047,0.3910,39.0900,84,95,451835
2.3803,0.3910,39.2500,84,95,451840
2.3705,0.3861,39.2800,84,95,451843
2.3705,0.3959,39.0900,84,95,451846
2.3460,0.3861,39.2800,84,95,451850
2.3998,0.4008,39.0600,84,95,451853
2.3607,0.3861,39.2200,84,95,451856
2.3558,0.3861,39.2800,84,95,451859
2.3607,0.3959,39.2500,84,95,451863
2.3314,0.3861,39.2800,84,95,451866
2.3900,0.4106,39.0000,84,95,451869
2.3558,0.3861,39.1600,84,95,451873
2.3412,0.3861,39.2800,84,95,451876
2.3460,0.4008,39.2500,84,95,451879
2.3265,0.3959,39.2800,84,95,451884
2.3803,0.4057,39.0900,84,95,451887
2.3265,0.3959,39.3200,84,95,451890
2.3118,0.4106,39.2200,84,95,451894
2.3265,0.3910,39.2800,84,95,451897
2.3021,0.3861,39.2800,84,95,451900
2.3314,0.3959,39.1600,84,95,451903
2.2874,0.3910,39.2800,84,95,451907
2.3021,0.3910,39.2200,84,95,451910
2.2874,0.3910,39.3200,84,95,451913
2.2923,0.3861,39.2800,84,95,451917
2.3118,0.4154,39.2500,84,95,451920
2.2825,0.3910,39.2800,84,95,451923
2.2972,0.4008,39.1900,84,95,451928
2.2630,0.3910,39.2800,84,95,451931
2.2727,0.3910,39.2800,84,95,451934
2.3167,0.3959,39.1600,84,95,451937
2.2727,0.3910,39.3200,84,95,451941
2.2874,0.3910,39.1200,84,95,451944
2.2678,0.3910,39.3200,84,95,451947
2.2630,0.4057,39.2800,84,95,451951
2.3069,0.4008,39.1900,84,95,451954
2.2874,0.3861,39.3500,84,95,451957
2.3314,0.3959,39.0300,84,95,451961
2.2825,0.3861,39.1900,84,95,451964
2.2678,0.3861,39.3500,84,95,451968
2.2874,0.4008,39.1900,84,95,451972
2.2825,0.3910,39.2800,84,95,451975
2.3558,0.4057,39.4100,84,95,451978
2.3314,0.3910,39.1900,84,95,451981
2.2776,0.3861,39.2800,84,95,451985
2.2678,0.3910,39.3200,84,95,451988
2.2581,0.3861,39.3200,84,95,451991
2.3314,0.4057,39.1200,84,95,451995
2.3216,0.3959,39.2500,84,95,451998
2.2825,0.3861,39.1900,84,95,452001
2.2776,0.3959,39.2800,84,95,452005
2.2434,0.3910,39.2800,84,95,452008
2.2874,0.4008,39.1200,84,95,452012
2.2630,0.3910,39.2800,84,95,452016
2.2776,0.3861,39.1600,84,95,452019
2.2385,0.3910,39.2800,84,95,452022
2.2239,0.3910,39.3200,84,95,452025
2.2434,0.4008,39.2800,84,95,452029
2.2190,0.3861,39.2800,84,95,452032
2.2630,0.3959,39.1200,84,95,452035
2.2287,0.3861,39.2800,84,95,452039
2.2239,0.3910,39.3200,84,95,452042
2.2336,0.3910,39.1900,84,95,452045
2.2190,0.3861,39.2800,84,95,452049
2.2630,0.4106,39.0900,84,95,452052
2.2434,0.3861,39.2800,84,95,452056
2.2483,0.3861,39.2800,84,95,452060
2.2678,0.4008,39.1900,84,95,452063
2.2239,0.3861,39.2800,84,95,452066
2.2727,0.4399,39.0300,84,95,452069
2.2483,0.3959,39.0000,84,95,452073
2.2434,0.3861,39.2800,84,95,452076
2.2678,0.3959,39.1900,84,95,452079
2.2581,0.3910,39.2800,84,95,452083
2.3118,0.4057,38.9300,84,95,452086
2.2874,0.3959,39.1900,84,95,452089
2.2776,0.3861,39.2500,84,95,452093
2.3021,0.3861,39.2800,84,95,452097
2.2972,0.3910,39.2800,84,95,452100
2.3412,0.3861,39.1200,84,95,452103
2.2727,0.3959,39.3200,84,95,452107
2.2825,0.3910,39.1900,84,95,452110
2.2630,0.3861,39.2800,84,95,452113
2.2678,0.3910,39.3200,84,95,452117
2.2923,0.3959,39.1900,84,95,452120
2.2630,0.3910,39.2500,84,95,452123
2.2923,0.3959,39.1600,84,95,452127
2.2825,0.3910,39.1600,84,95,452130
2.3118,0.3812,39.2500,84,95,452133
2.3803,0.3959,39.1600,84,95,452137
2.3509,0.3910,39.2800,84,95,452141
2.3705,0.3910,39.1900,84,95,452144
2.3167,0.3910,39.1900,84,95,452147
2.2825,0.3861,39.2800,84,95,452151
2.2972,0.3959,39.1600,84,95,452154
2.2630,0.3861,39.4100,84,95,452157
2.2874,0.4008,39.0900,84,95,452161
2.2336,0.3910,39.2200,84,95,452164
2.2043,0.3861,39.4100,84,95,452167
2.2141,0.3959,39.2500,84,95,452171
2.1945,0.3861,39.3200,84,95,452174
2.2483,0.4008,39.0300,84,95,452177
2.1945,0.3910,39.1900,84,95,452182
2.1652,0.3861,39.3200,84,95,452185
2.1652,0.3959,39.2200,84,95,452188
2.1554,0.3910,39.2800,84,95,452191
2.2239,0.4106,39.0300,84,95,452195
2.2141,0.3910,39.2200,84,95,452198
2.1896,0.3861,39.2200,84,95,452201
2.1505,0.4008,39.3200,84,95,452205
2.1799,0.3910,39.2800,84,95,452208
2.1994,0.4008,39.1200,85,95,452211
2.1945,0.3959,39.1900,85,95,452216
2.1848,0.3861,39.3500,85,95,452219
2.2239,0.4252,39.1600,85,95,452224
2.1848,0.3861,39.2500,85,95,452227
2.1457,0.3812,39.2800,85,95,452230
2.1114,0.3959,39.1900,85,95,452234
2.0430,0.4008,39.3200,85,95,452237
2.0332,0.4008,39.0900,85,95,452240
1.9355,0.3861,39.2800,85,95,452243
1.8817,0.3861,39.2500,85,95,452247
1.8671,0.3910,39.2200,85,95,452250
1.9110,0.3861,39.2800,85,95,452253
2.1065,0.3959,39.0300,85,95,452257
2.3021,0.3959,39.2200,85,95,452260
2.5611,0.3861,39.2800,85,95,452263
2.7664,0.3910,39.2500,85,95,452268
2.8055,0.3910,39.3200,85,95,452271
2.8152,0.4057,39.0300,85,95,452274
2.6833,0.3861,39.2200,85,95,452278
2.5953,0.3910,39.2200,85,95,452281
2.5171,0.3959,39.3200,85,95,452284
2.4096,0.3861,39.2800,85,95,452287
2.3509,0.4008,38.9600,85,95,452291
2.2190,0.3861,39.3200,85,95,452294
2.1701,0.3959,39.1600,85,95,452297
2.0919,0.3861,39.2800,85,95,452301
2.0723,0.3910,39.2800,85,95,452304
2.0479,0.3861,39.2500,85,95,452307
1.9990,0.3861,39.5400,85,95,452312
2.0039,0.4057,39.1600,85,95,452315
1.9746,0.3861,39.3200,85,95,452318
1.9892,0.3861,39.2800,85,95,452322
2.0381,0.3959,39.1900,85,95,452325
2.0039,0.3910,39.2800,85,95,452328
2.0186,0.4301,39.1200,85,95,452331
2.0039,0.3910,39.1900,85,95,452335
2.0039,0.3861,39.3200,85,95,452338
2.0430,0.4252,39.1600,85,95,452341
2.0381,0.3910,39.2800,85,95,452345
2.0772,0.3959,39.0600,85,95,452348
2.0430,0.3861,39.4400,85,95,452352
2.0235,0.3910,39.3200,85,95,452356
2.0430,0.3959,39.2500,85,95,452359
2.0381,0.3861,39.2800,85,95,452362
2.1065,0.4008,39.0300,85,95,452365
2.0626,0.3910,39.1900,85,95,452369
2.0479,0.3861,39.2800,85,95,452372
2.0577,0.3910,39.2800,85,95,452375
2.0626,0.3910,39.2800,85,95,452379
2.1359,0.4057,39.0600,85,95,452382
2.0968,0.3910,38.8400,85,95,452385
2.0870,0.3861,39.2500,85,95,452389
2.0870,0.3910,39.2800,85,95,452392
2.0821,0.3861,39.2800,85,95,452396
2.1359,0.4350,39.1200,85,95,452399
2.1114,0.3910,39.2500,85,95,452403
2.1114,0.3910,39.1600,85,95,452406
2.0821,0.3910,39.2800,85,95,452409
2.0577,0.3910,39.3200,85,95,452413
2.0870,0.4008,39.1200,85,95,452416
2.0577,0.4106,39.2800,85,95,452419
2.0870,0.3763,39.1200,85,95,452423
2.0577,0.3861,39.2800,85,95,452426
2.0430,0.3861,39.2800,85,95,452429
2.0626,0.3910,39.2200,85,95,452432
2.0186,0.3910,39.3200,85,95,452436
2.0479,0.3910,39.1600,85,95,452440
2.0283,0.3959,39.2800,85,95,452443
2.0430,0.3910,39.2800,85,95,452447
2.0577,0.3959,39.1900,85,95,452450
2.0235,0.4154,39.2800,85,95,452453
2.0870,0.3959,39.0600,85,95,452457
2.0479,0.3861,39.1900,85,95,452460
2.0332,0.3861,39.2800,85,95,452463
2.0479,0.3959,39.1900,85,95,452466
2.0137,0.3910,39.2800,85,95,452470
2.0332,0.4008,39.0600,85,95,452473
1.9844,0.3910,39.1600,85,95,452476
2.0186,0.3910,39.3200,85,95,452481
2.0186,0.3910,39.2800,85,95,452484
2.0137,0.3861,39.3800,85,95,452487
2.0626,0.4106,38.9600,85,95,452491
2.0137,0.3959,39.2500,85,95,452494
2.0039,0.3861,39.2500,85,95,452497
2.0186,0.3910,39.2500,85,95,452500
2.0235,0.3910,39.3200,85,95,452504
2.0870,0.4008,39.0900,85,95,452507
2.0430,0.4057,39.2800,85,95,452510
2.0577,0.4008,39.1900,85,95,452514
2.0723,0.3910,39.2500,85,95,452517
2.0968,0.3861,39.3200,85,95,452520
2.1652,0.4008,39.1200,85,95,452525
2.1505,0.3910,39.2500,85,95,452528
2.1652,0.3910,39.1600,85,95,452531
2.1505,0.3959,39.3200,85,95,452534
2.1701,0.3910,39.2800,85,95,452538
2.2385,0.3959,39.1600,85,95,452541
2.2385,0.3910,39.3200,85,95,452544
2.2776,0.3959,39.1900,85,95,452548
2.2483,0.3861,39.3500,85,95,452551
2.2727,0.3959,39.2800,85,95,452554
2.2630,0.3910,39.2500,85,95,452558
2.2581,0.3910,39.2500,85,95,452561
2.3069,0.3910,39.0900,85,95,452564
2.2825,0.3861,39.3200,85,95,452569
2.2727,0.3959,39.2800,85,95,452572
2.3216,0.3959,39.1900,85,95,452575
2.2630,0.3861,39.3800,85,95,452578
2.3216,0.4497,39.0300,85,95,452582
2.2923,0.3861,39.1900,85,95,452585
2.2581,0.3861,39.1900,85,95,452588
2.2532,0.3861,39.2500,85,95,452592
2.2190,0.3861,39.3200,85,95,452595
2.2727,0.4106,39.0000,85,95,452598
2.2336,0.4008,39.2500,85,95,452602
2.1994,0.3861,39.2800,85,95,452605
2.2092,0.3910,39.1900,85,95,452609
2.1505,0.3861,39.2800,85,95,452612
2.1848,0.4057,39.1200,85,95,452616
2.1261,0.3959,39.2500,85,95,452619
2.1457,0.3910,39.1900,85,95,452622
2.1310,0.3861,39.2200,85,95,452626
2.1114,0.3861,39.2800,85,95,452629
2.1163,0.4008,39.1900,85,95,452632
2.0870,0.3910,39.2800,85,95,452636
2.0968,0.3959,39.1200,85,95,452639
2.0723,0.3812,39.3500,85,95,452642
2.0821,0.3861,39.2800,85,95,452646
2.0968,0.3959,39.1600,85,95,452649
2.0479,0.3910,39.3200,85,95,452653
2.0674,0.3910,39.1900,85,95,452656
2.0528,0.3861,39.3200,85,95,452660
2.0626,0.3812,39.3200,85,95,452663
2.0919,0.3910,39.1600,85,95,452666
2.0577,0.3861,39.2800,85,95,452670
2.0772,0.4008,39.0900,85,95,452673
2.0528,0.3861,39.2500,85,95,452676
2.0528,0.3861,39.3800,85,95,452680
2.0870,0.4057,39.2200,85,95,452683
2.0772,0.3910,39.2800,85,95,452686
2.1017,0.4008,39.0600,85,95,452689
2.0381,0.3910,39.1600,85,95,452694
2.0283,0.3812,39.3200,85,95,452697
2.0528,0.3861,39.2500,85,95,452700
2.0430,0.3861,39.2500,85,95,452704
2.0968,0.3959,39.0300,85,95,452707
2.0479,0.3861,39.2200,85,95,452710
2.0088,0.3861,39.2800,85,95,452714
2.0381,0.3910,39.2800,85,95,452717
2.0332,0.3910,39.2800,85,95,452720
2.0674,0.4057,39.1200,85,95,452724
2.0332,0.3812,39.3200,85,95,452727
2.0137,0.3910,39.1600,85,95,452730
1.9892,0.3910,39.3200,85,95,452733
1.9892,0.3910,39.3200,85,95,452738
2.0381,0.4008,39.1900,85,95,452741
2.0088,0.3910,39.2500,85,95,452744
2.0332,0.3910,39.1600,85,95,452748
2.0039,0.3910,39.3200,85,95,452751
1.9746,0.3861,39.2800,85,95,452754
1.9844,0.3959,39.2200,85,95,452758
1.9648,0.3910,39.2500,85,95,452761
1.9844,0.3959,39.1200,85,95,452764
1.9355,0.3910,39.2800,85,95,452767
1.9159,0.3861,39.1600,85,95,452771
1.9159,0.3910,39.1900,85,95,452774
1.9013,0.3861,39.2800,85,95,452777
1.9355,0.4008,39.0900,85,95,452782
1.9257,0.3959,39.1900,85,95,452785
1.9013,0.3861,39.2800,85,95,452788
1.9110,0.3959,39.1900,85,95,452792
1.8524,0.3910,39.3200,85,95,452795
1.8964,0.4008,39.0300,85,95,452798
1.8671,0.3910,39.1600,85,95,452802
1.8573,0.3861,39.3200,85,95,452805
1.8622,0.3910,39.2500,85,95,452808
1.8524,0.3861,39.2800,85,95,452812
1.8964,0.4106,39.0300,85,95,452815
1.8573,0.3861,39.2500,85,95,452818
1.8524,0.3861,39.2200,85,95,452822
1.8622,0.3910,39.2500,84,95,452826
1.8475,0.3910,39.2800,84,95,452829
1.8573,0.3861,39.3200,84,95,452833
1.8768,0.3959,39.1200,84,95,452836
1.8426,0.3861,39.2200,84,95,452839
1.8768,0.3861,39.1200,84,95,452843
1.8524,0.3910,39.1900,84,95,452846
1.8426,0.3861,39.2200,84,95,452849
1.8377,0.3959,39.0900,84,95,452853
1.7889,0.3861,39.1900,84,95,452856
1.7840,0.3910,39.0300,84,95,452859
1.7351,0.3861,39.2200,84,95,452864
1.7107,0.3861,39.4800,84,95,452867
1.7107,0.3910,39.1900,84,95,452870
1.6813,0.3861,39.2800,84,95,452874
1.7058,0.4057,39.0000,84,95,452877
1.6569,0.3861,39.1900,84,95,452880
1.6422,0.3861,39.2500,84,95,452883
1.6325,0.3910,39.3200,84,95,452887
1.6129,0.3910,39.3200,84,95,452890
1.7009,0.4106,39.0900,84,95,452893
1.6276,0.3910,39.2500,84,95,452897
1.6227,0.3910,39.2200,84,95,452900
1.6667,0.3959,39.2500,84,95,452903
1.6373,0.3861,39.3500,84,95,452908
1.6716,0.4057,39.1200,84,95,452911
1.6276,0.3861,39.3500,84,95,452914
1.6129,0.3910,39.1900,84,95,452918
1.5787,0.3861,39.2800,84,95,452921
1.5738,0.4106,39.3200,84,95,452924
1.5934,0.3959,39.2200,84,95,452928
1.5787,0.3861,39.3500,84,95,452931
1.6031,0.4008,39.1900,84,95,452934
1.5640,0.3910,39.2500,84,95,452937
1.5591,0.3861,39.2800,84,95,452941
1.5640,0.3959,39.1900,84,95,452944
1.5543,0.3861,39.3800,84,95,452947
1.5640,0.3910,39.1200,84,95,452952
1.5005,0.3812,39.3200,84,95,452955
1.4565,0.3861,39.3800,84,95,452958
1.4321,0.3959,39.1900,84,95,452962
1.4370,0.3959,39.3200,84,95,452965
1.5787,0.4008,39.0300,84,95,452968
1.7107,0.3959,39.2800,84,95,452972
1.9257,0.3861,39.2800,84,95,452975
2.1896,0.3861,39.2500,84,95,452978
2.3509,0.3861,39.2800,84,95,452981
2.4633,0.4203,39.0300,84,95,452985
2.3803,0.3959,39.2200,84,95,452988
2.2874,0.3861,39.2200,84,95,452992
2.2092,0.3910,39.2800,84,95,452996
2.0968,0.3910,39.3200,84,95,452999
2.0283,0.4057,39.0900,84,95,453002
1.8866,0.3959,39.2500,84,95,453006
1.8231,0.3959,39.1900,84,95,453009
1.7400,0.3910,38.8400,84,95,453012
1.6716,0.3959,39.3200,84,95,453015
1.6373,0.3959,39.3800,84,95,453019
1.5885,0.4154,39.3200,84,95,453022
1.6031,0.3959,39.1600,84,95,453025
1.5836,0.3910,39.3200,84,95,453029
1.5885,0.3861,39.2800,84,95,453032
1.6129,0.4008,39.2200,84,95,453036
1.5885,0.3910,39.2500,84,95,453040
1.6031,0.3910,39.1900,84,95,453043
1.6031,0.4301,39.1600,84,95,453046
1.6031,0.3910,39.3200,84,95,453050
1.6325,0.4008,39.1600,84,95,453053
1.6373,0.3861,39.2500,84,95,453056
1.6373,0.4008,38.4000,84,95,453060
1.6080,0.3910,39.1900,84,95,453063
1.6178,0.3910,39.2800,84,95,453066
1.6520,0.3959,39.1200,84,95,453069
1.6422,0.3910,39.2800,84,95,453073
1.6716,0.4008,39.0300,84,95,453076
1.6276,0.3910,39.1600,84,95,453080
1.6276,0.3910,39.2800,84,95,453084
1.6471,0.3861,39.2800,84,95,453087
1.6618,0.3910,39.2800,84,95,453090
1.7107,0.4057,39.1200,84,95,453094
1.6618,0.3910,39.2200,84,95,453097
1.6569,0.3910,39.1900,84,95,453100
1.6471,0.4106,39.2500,84,95,453104
1.6618,0.3910,39.2800,84,95,453107
1.6911,0.4008,39.1200,84,95,453110
1.6813,0.3910,39.2500,84,95,453113
1.6764,0.3910,39.1200,84,95,453117
1.6520,0.3861,39.2800,84,95,453121
1.6569,0.3910,39.3200,84,95,453124
1.7009,0.4008,39.2200,84,95,453128
1.6960,0.4057,39.3200,84,95,453131
1.7302,0.3959,39.1600,84,95,453134
1.6862,0.3861,39.3200,84,95,453138
1.6716,0.3910,39.2800,84,95,453141
1.6813,0.3959,39.1900,84,95,453144
1.6862,0.3861,39.2500,84,95,453148
1.7204,0.3910,39.0600,84,95,453151
1.7009,0.3812,39.3800,84,95,453154
1.6960,0.4008,39.2800,84,95,453157
1.7253,0.4008,39.2200,84,95,453161
1.7009,0.3861,39.4100,84,95,453165
1.7546,0.4252,39.0300,84,95,453168
1.7498,0.3959,39.1900,84,95,453172
1.7204,0.3861,39.3800,84,95,453175
1.7204,0.3959,39.2500,84,95,453178
1.6862,0.3910,39.3200,84,95,453182
1.7302,0.4301,39.0600,84,95,453185
1.7204,0.3861,39.2200,84,95,453188
1.7107,0.3861,39.3500,84,95,453192
1.7155,0.3910,39.2500,84,95,453195
1.7107,0.3910,39.2800,84,95,453198
1.7449,0.4057,39.0300,84,95,453201
1.7253,0.4008,39.2500,84,95,453206
1.7449,0.3910,39.1900,84,95,453209
1.7546,0.3861,39.3800,84,95,453212
1.7351,0.3910,39.2800,84,95,453216
1.7498,0.3959,39.2200,84,95,453219
1.7204,0.3910,39.2200,84,95,453222
1.7595,0.4008,39.1200,84,95,453226
1.7351,0.3861,39.2800,84,95,453229
1.7449,0.3910,39.2800,84,95,453232
1.7693,0.4008,39.1900,84,95,453236
1.7400,0.4301,39.2800,84,95,453239
1.7791,0.3910,39.1200,84,95,453242
1.7889,0.3910,39.2500,84,95,453245
1.8133,0.4154,39.3200,84,95,453250
1.8622,0.3959,39.2200,84,95,453253
1.8524,0.3959,39.2500,84,95,453256
1.8866,0.4008,39.0600,84,95,453260
1.8671,0.3861,39.1600,84,95,453263
1.8964,0.3910,39.2800,84,95,453266
1.9013,0.3861,39.2800,84,95,453270
1.8866,0.3861,39.2800,84,95,453273
1.9355,0.4106,39.0000,84,95,453276
1.8719,0.3910,39.1200,84,95,453280
1.8524,0.3910,39.2800,84,95,453283
1.8573,0.3910,39.2800,84,95,453286
1.8475,0.3812,39.2500,84,95,453289
1.9110,0.4106,39.0600,84,95,453294
1.8719,0.3959,39.2200,84,95,453297
1.8622,0.3910,39.1900,84,95,453300
1.8573,0.3959,39.2800,84,95,453304
1.8671,0.3959,39.3200,84,95,453307
1.9110,0.4008,39.1200,84,95,453310
1.8915,0.4008,39.2500,84,95,453314
1.8915,0.3910,39.1900,84,95,453317
1.8475,0.3910,39.3200,84,95,453320
1.8475,0.3861,39.5400,84,95,453324
1.8866,0.4008,39.2200,84,95,453327
1.8573,0.3861,39.2500,84,95,453330
1.8768,0.3959,38.9300,84,95,453334
1.8426,0.3910,39.2500,84,95,453338
1.8377,0.3861,39.2800,84,95,453341
1.8622,0.3910,39.1600,84,95,453344
1.8671,0.3910,39.2800,84,95,453348
1.9013,0.3959,39.1200,84,95,453351
1.8622,0.3910,39.3200,84,95,453354
1.8426,0.3861,39.2800,84,95,453358
1.8475,0.3959,39.1900,84,95,453361
1.8231,0.3910,39.2800,84,95,453364
1.8719,0.4008,39.0300,84,95,453368
1.8426,0.4008,39.1900,84,95,453371
1.8182,0.3910,39.2800,84,95,453374
1.8133,0.3910,39.2500,84,95,453378
1.8182,0.3910,39.2800,84,95,453382
1.8524,0.4057,39.0300,84,95,453385
1.8280,0.3910,39.1900,84,95,453388
1.8084,0.3910,39.2200,84,95,453392
1.8133,0.3910,39.2800,84,95,453395
1.7937,0.3861,39.2800,84,95,453398
1.8377,0.4106,39.1200,84,95,453402
1.8084,0.3959,39.2500,84,95,453405
1.8622,0.3910,39.0600,84,95,453408
1.8328,0.3910,39.2800,84,95,453412
1.8231,0.3910,39.2800,84,95,453415
1.8231,0.3959,39.3200,84,95,453419
1.7889,0.3910,39.2800,84,95,453422
1.8182,0.3959,39.1600,84,95,453426
1.8084,0.3910,39.2800,84,95,453429
1.8182,0.3910,39.2800,84,95,453432
1.8328,0.3959,39.0900,84,95,453436
1.8426,0.3959,39.1900,84,95,453439
1.8133,0.3910,39.2500,84,95,453443
1.8524,0.4008,39.0300,84,95,453446
1.8231,0.3910,39.1600,84,95,453449
1.8280,0.3910,39.3200,84,95,453453
1.8475,0.3959,39.2500,84,95,453456
1.8426,0.4252,39.2800,84,95,453459
1.8915,0.3861,39.0900,84,95,453464
1.8475,0.3959,39.2500,84,95,453467
1.8475,0.3910,39.2500,84,95,453470
1.8671,0.3910,39.2800,84,95,453474
1.8866,0.3910,39.2800,84,95,453477
1.9257,0.4008,39.0900,84,95,453480
1.8817,0.3910,39.2800,84,95,453483
1.8866,0.4008,39.1900,84,95,453487
1.8768,0.3861,39.2500,84,95,453490
1.9013,0.3910,39.3200,84,95,453493
1.9648,0.4008,39.1200,84,95,453497
1.9501,0.4203,39.3200,84,95,453500
1.9844,0.3959,39.1600,84,95,453504
1.9648,0.3861,38.5200,84,95,453508
1.9941,0.3910,39.2800,84,95,453511
2.0381,0.3959,39.2800,84,95,453514
2.0479,0.4057,39.2800,84,95,453518
2.0821,0.3910,39.1200,84,95,453521
2.0381,0.3910,39.2800,84,95,453524
2.0186,0.3861,39.5100,84,95,453527
2.0186,0.4057,39.1900,84,95,453531
1.9941,0.3861,39.2800,84,95,453534
2.0381,0.4008,39.0300,84,95,453537
2.0039,0.3910,39.2200,84,95,453541
1.9844,0.3910,39.2800,84,95,453544
1.9844,0.3959,39.2800,84,95,453548
1.9844,0.3861,39.2800,84,95,453552
2.0479,0.4057,39.0300,84,95,453555
2.0283,0.4008,39.2200,84,95,453558
1.9599,0.3910,39.2800,84,95,453561
1.9257,0.3910,39.2800,84,95,453565
1.8866,0.3910,39.2800,84,95,453568
1.9306,0.4057,39.0900,84,95,453571
1.8915,0.4203,39.2200,84,95,453575
1.9062,0.3910,39.2200,84,95,453578
1.8475,0.3861,39.2800,84,95,453581
1.8280,0.3861,39.2800,84,95,453585
1.8377,0.4008,39.1600,84,95,453588
1.8182,0.3910,39.2500,84,95,453592
1.8377,0.3910,39.1600,84,95,453596
1.8084,0.3861,39.3200,84,95,453599
1.7840,0.3910,39.3200,84,95,453602
1.7840,0.3861,39.2200,84,95,453606
1.7644,0.3861,39.2800,84,95,453609
1.8035,0.3959,39.1600,84,95,453612
1.7986,0.3861,39.3200,84,95,453615
1.8133,0.3861,39.2800,84,95,453619
1.8377,0.4008,39.2200,84,95,453622
1.8084,0.3910,39.2500,84,95,453625
1.8328,0.4008,39.0900,84,95,453629
1.8231,0.3959,39.1900,84,95,453633
1.8182,0.3861,39.2800,84,95,453636
1.8426,0.4008,39.1900,84,95,453640
1.8035,0.3861,39.2800,84,95,453643
1.8328,0.4106,39.0600,84,95,453646
1.7986,0.3959,39.1900,84,95,453650
1.7889,0.3910,39.4100,84,95,453653
1.7986,0.3861,39.2500,84,95,453656
1.7742,0.3861,39.2800,84,95,453659
1.7889,0.4106,39.0300,84,95,453663
1.7204,0.3861,39.2800,84,95,453666
1.6618,0.3861,39.2800,84,95,453669
1.6178,0.3910,39.2500,84,95,453673
1.5934,0.3861,39.2800,84,95,453677
1.6618,0.3959,39.1600,84,95,453680
1.7351,0.3910,39.3500,84,95,453684
1.9355,0.4008,39.1600,84,95,453687
2.1799,0.3910,39.2200,84,95,453690
2.4096,0.3861,39.2800,84,95,453694
2.5660,0.4008,39.1200,84,95,453697
2.5122,0.3910,39.2800,84,95,453700
2.4585,0.4008,39.1900,84,95,453704
2.3363,0.3861,39.2200,84,95,453707
2.2385,0.3861,39.2500,84,95,453710
2.1554,0.3959,39.1900,84,95,453713
2.0381,0.3861,39.3500,84,95,453718
1.9648,0.4203,39.1200,84,95,453721
1.8524,0.3910,39.2500,84,95,453724
1.7791,0.3910,39.2800,84,95,453728
1.7498,0.3959,39.1900,84,95,453731
1.7302,0.3910,39.3200,84,95,453734
1.7644,0.4154,39.0300,84,95,453738
1.7155,0.3861,39.2200,84,95,453741
1.6960,0.3910,39.2800,84,95,453744
1.7009,0.3910,39.2500,84,95,453748
1.7009,0.3861,39.0300,84,95,453751
1.7595,0.4057,39.0300,84,95,453754
1.7595,0.4008,39.2200,84,95,453757
1.7253,0.3861,39.2800,84,95,453762
1.7155,0.3910,39.2500,84,95,453765
1.7009,0.3910,39.2800,84,95,453768
1.7546,0.4057,39.0900,84,95,453772
1.7351,0.3959,39.2500,84,95,453775
1.7400,0.3910,39.2500,84,95,453778
1.7351,0.3910,39.4100,84,95,453782
1.7204,0.3910,39.3200,84,95,453785
1.7498,0.4008,39.1600,84,95,453788
1.7400,0.3910,39.2800,84,95,453791
1.7693,0.4203,39.1200,84,95,453795
1.7546,0.3861,39.3200,84,95,453798
1.7498,0.3861,39.2500,84,95,453801
1.7449,0.3910,39.2200,84,95,453806
1.7351,0.3910,39.3200,84,95,453809
1.7840,0.3959,39.1900,84,95,453812
1.7840,0.3861,39.1900,84,95,453816
1.7986,0.4154,39.2800,84,95,453819
1.8133,0.3959,39.1900,84,95,453822
1.7889,0.4154,39.3200,84,95,453826
1.8231,0.3959,39.0900,84,95,453829
1.8133,0.3959,39.1900,84,95,453832
1.8084,0.3910,39.2800,84,95,453836
1.8377,0.3959,39.2200,84,95,453839
1.7986,0.3910,39.3200,84,95,453842
1.8377,0.4106,39.0000,84,95,453846
1.8035,0.3959,39.1600,84,95,453850
1.8084,0.3910,39.2800,84,95,453853
1.8133,0.3910,39.2500,84,95,453856
1.7937,0.3861,39.3800,84,95,453860
1.8426,0.4154,39.0300,84,95,453863
1.8035,0.3959,38.6500,84,95,453866
1.7937,0.3910,39.2500,84,95,453870
1.8328,0.3910,39.2800,84,95,453873
1.8182,0.3861,39.3200,84,95,453876
1.8622,0.4008,39.1900,84,95,453880
1.8182,0.3910,39.3200,84,95,453883
1.8231,0.3959,39.1600,84,95,453886
1.8035,0.3910,39.1600,84,95,453890
1.8133,0.3959,39.2800,84,95,453894
1.8524,0.4008,39.1200,84,95,453897
1.8182,0.3910,39.2800,84,95,453900
1.8426,0.4008,39.1900,84,95,453904
1.8182,0.3910,39.0900,84,95,453907
1.8328,0.3910,39.2800,84,95,453910
1.8622,0.3861,39.1600,84,95,453914
1.8622,0.3861,39.2800,84,95,453917
1.9110,0.3959,39.0900,84,95,453920
1.8622,0.3910,39.2800,84,95,453924
1.8573,0.3861,39.2500,84,95,453927
1.8866,0.4008,39.2200,84,95,453931
1.8768,0.3910,39.2800,84,95,453934
1.9257,0.4008,39.0300,84,95,453938
1.8915,0.3910,39.2200,84,95,453941
1.8866,0.3861,39.2800,84,95,453944
1.9355,0.3959,39.2200,84,95,453948
1.9062,0.3910,39.2800,84,95,453951
1.9844,0.4154,39.0000,84,95,453954
1.9648,0.3959,39.2500,84,95,453958
1.9599,0.3861,39.2200,84,95,453961
1.9648,0.3910,39.2800,84,95,453964
1.9648,0.3910,39.2800,84,95,453968
2.0332,0.3959,39.1200,84,95,453971
2.0235,0.3959,39.2500,84,95,453975
2.0528,0.4008,39.1900,84,95,453979
2.0528,0.3910,39.2800,84,95,453982
2.0577,0.3910,39.2500,84,95,453985
2.0968,0.4008,39.1600,84,95,453988
2.1212,0.4008,39.2500,84,95,453992
2.1359,0.3861,39.1200,84,95,453995
2.1163,0.3861,39.4100,84,95,453998
2.1261,0.3910,39.3200,84,95,454002
2.1212,0.3910,39.2800,84,95,454005
2.1065,0.4203,39.2500,84,95,454008
2.1603,0.3959,39.1600,84,95,454012
2.1408,0.3910,39.2800,84,95,454016
2.1505,0.3861,39.3200,84,95,454019
2.1799,0.4008,39.1200,84,95,454022
2.1310,0.3861,39.2500,84,95,454026
2.1603,0.4008,39.0900,84,95,454029
2.1505,0.3959,39.1900,84,95,454032
2.1359,0.3861,39.3500,84,95,454036
2.1603,0.4008,39.1900,84,95,454039
2.1114,0.3861,39.2500,84,95,454042
2.1408,0.4008,39.0600,84,95,454046
2.0919,0.4057,39.1900,84,95,454049
2.0283,0.3959,39.3200,84,95,454053
2.0186,0.3959,39.1900,84,95,454056
2.0137,0.3861,39.2800,84,95,454060
2.0186,0.3910,39.3200,84,95,454064
2.0381,0.4008,39.1900,84,95,454067
1.9892,0.3861,39.2500,84,95,454070
1.9844,0.3959,39.2200,84,95,454073
1.9550,0.3910,39.2800,84,95,454077
1.9550,0.3861,39.1600,84,95,454080
1.9941,0.4008,39.1200,84,95,454083
1.9599,0.3861,39.2800,84,95,454087
1.9697,0.4301,39.1600,84,95,454090
1.9355,0.3910,39.2200,84,95,454093
1.9306,0.3910,39.3200,84,95,454097
1.9550,0.3910,39.1200,84,95,454100
1.9550,0.3910,39.2800,84,95,454104
1.9795,0.3959,39.0900,84,95,454107
1.9404,0.4154,39.2200,84,95,454111
1.9453,0.3910,39.3200,84,95,454114
1.9404,0.4008,39.3200,84,95,454117
1.9306,0.4154,39.3200,84,95,454121
1.9844,0.4008,39.0300,84,95,454124
1.9453,0.3910,39.1600,84,95,454127
1.9550,0.3959,39.2800,84,95,454131
1.9550,0.3959,39.3500,84,95,454134
1.9550,0.3959,39.3200,84,95,454137
2.0381,0.4106,39.0000,84,95,454141
2.0137,0.3959,39.2200,84,95,454145
1.9990,0.3861,39.2800,84,95,454148
1.9941,0.3861,39.2800,84,95,454151
1.9795,0.3861,39.2800,84,95,454155
2.0332,0.4008,39.1600,84,95,454158
2.0186,0.3959,39.2500,84,95,454161
2.0332,0.3861,39.1600,84,95,454165
2.0235,0.3910,39.2800,84,95,454168
2.0186,0.3861,39.2800,84,95,454171
2.0430,0.4008,39.1200,84,95,454175
2.0430,0.3910,39.2500,84,95,454178
2.0626,0.3959,39.1600,84,95,454181
2.0430,0.3861,39.3200,84,95,454184
2.0381,0.3959,39.2800,84,95,454189
2.0430,0.3861,39.2200,84,95,454192
2.0235,0.3910,39.3500,84,95,454195
2.0626,0.3959,39.1600,84,95,454199
2.0479,0.3861,39.3200,84,95,454202
2.0577,0.3861,39.3800,84,95,454205
2.0821,0.4057,39.1900,84,95,454209
2.0577,0.3861,39.2800,84,95,454212
2.1065,0.3959,39.0300,84,95,454215
2.1163,0.4057,39.1900,84,95,454219
2.1408,0.3861,39.2800,84,95,454222
2.1896,0.4106,39.2200,84,95,454225
2.1603,0.3910,39.2800,84,95,454228
2.2092,0.3861,39.0300,84,95,454233
2.1701,0.3910,39.1600,84,95,454236
2.1799,0.3910,39.3200,84,95,454239
2.1896,0.3959,39.2500,84,95,454243
2.1750,0.3861,39.2800,84,95,454246
2.2239,0.4057,39.0300,84,95,454249
2.1750,0.3959,39.2500,84,95,454253
2.1750,0.3910,39.2500,84,95,454256
2.2043,0.3910,39.2800,84,95,454259
2.2336,0.3861,39.2800,84,95,454263
2.3412,0.4106,39.1200,84,95,454266
2.2727,0.3910,39.4100,84,95,454269
2.2678,0.4154,39.1600,84,95,454273
2.2336,0.3910,39.1900,84,95,454277
2.2239,0.4154,39.3200,84,95,454280
2.2630,0.4008,39.1200,84,95,454283
2.2141,0.3959,39.2500,84,95,454287
2.2239,0.3959,39.1900,84,95,454290
2.1603,0.3861,39.2800,84,95,454293
2.1457,0.3812,39.3200,84,95,454297
2.1701,0.3910,39.1600,84,95,454300
2.1457,0.3861,39.2800,84,95,454303
2.1750,0.3910,39.1600,84,95,454307
2.1310,0.3910,39.2200,84,95,454310
2.1212,0.3910,39.2800,84,95,454313
2.1359,0.3861,39.1600,84,95,454317
2.1310,0.3861,39.2500,84,95,454321
2.1750,0.4008,39.0600,84,95,454324
2.1359,0.3910,39.2500,84,95,454327
2.1261,0.3861,39.2800,84,95,454331
2.1310,0.3959,39.2500,84,95,454334
2.1261,0.3910,39.3200,84,95,454337
2.1994,0.3959,39.0300,84,95,454341
2.1603,0.3910,39.0000,84,95,454344
2.1408,0.3861,39.5100,84,95,454347
2.1457,0.3959,39.2500,84,95,454351
2.1261,0.3861,39.3200,84,95,454354
2.1994,0.4154,39.0900,84,95,454358
2.1701,0.3959,39.2500,84,95,454361
2.1603,0.3861,39.1600,84,95,454365
2.1310,0.3910,39.2500,84,95,454368
2.0870,0.3861,39.3800,84,95,454371
2.0919,0.4203,39.1600,84,95,454375
2.0283,0.3910,39.2500,84,95,454378
2.0039,0.3861,39.1600,84,95,454381
1.9110,0.3861,39.1600,84,95,454385
1.8524,0.3910,39.2800,84,95,454388
1.8671,0.3959,39.1900,84,95,454391
1.9550,0.3910,39.2800,84,95,454395
2.1408,0.4008,39.1900,84,95,454398
2.3558,0.4350,39.2800,84,95,454402
2.6197,0.3910,39.3200,84,95,454405
2.7908,0.3959,39.2500,84,95,454409
2.7615,0.3910,39.2800,84,95,454412
2.7322,0.3959,39.1200,84,95,454415
2.6344,0.3959,39.1900,84,95,454419
2.5758,0.3910,39.3200,84,95,454422
2.4682,0.4008,39.1600,84,95,454425
2.3167,0.3910,39.2800,84,95,454429
2.2581,0.4008,39.0300,84,95,454432
2.1408,0.3910,39.1900,84,95,454435
2.0821,0.4057,39.3200,84,95,454439
2.0528,0.3910,39.2200,84,95,454443
2.0088,0.3861,39.3200,84,95,454446
2.0430,0.4057,39.0300,84,95,454449
2.0039,0.3910,39.2200,84,95,454453
1.9941,0.3910,39.2500,84,95,454456
2.0186,0.3910,39.0300,84,95,454459
2.0332,0.3910,39.3200,84,95,454463
2.1017,0.4057,39.1200,84,95,454466
2.0479,0.3910,39.2200,84,95,454469
2.0626,0.3959,39.1900,84,95,454473
2.0674,0.3910,39.2500,84,95,454476
2.0772,0.3861,39.3800,84,95,454479
2.1212,0.4008,39.0900,84,95,454482
2.0772,0.3861,39.2500,84,95,454487
2.0674,0.3959,39.1600,84,95,454490
2.0283,0.3959,39.2800,84,95,454493
2.0332,0.3910,39.2800,84,95,454497
2.0577,0.3959,39.2200,84,95,454500
2.0283,0.3861,39.2800,84,95,454503
2.0430,0.3959,39.1900,84,95,454507
1.9892,0.3910,39.2800,84,95,454510
1.9795,0.3861,39.2500,84,95,454513
2.0039,0.3910,39.2200,84,95,454516
1.9990,0.3910,39.2800,84,95,454520
2.0283,0.3861,39.1200,84,95,454523
2.0137,0.3910,39.3200,84,95,454526
2.0039,0.3910,39.3200,84,95,454531
2.0186,0.3959,39.1900,84,95,454534
2.0137,0.3959,39.3200,84,95,454537
2.0723,0.3959,39.0300,84,95,454541
2.0626,0.3959,39.2200,84,95,454544
2.0430,0.3861,39.2800,84,95,454547
2.0577,0.3959,39.2200,84,95,454550
2.0332,0.3861,39.2200,84,95,454554
2.0968,0.4154,39.0600,84,95,454557
2.0723,0.3910,39.1600,84,95,454560
2.0626,0.3861,39.3800,84,95,454564
2.0577,0.4057,39.2500,84,95,454567
2.0528,0.3910,39.2800,84,95,454571
2.1065,0.4057,39.1600,84,95,454575
2.0821,0.3910,39.2500,84,95,454578
2.0821,0.3910,39.1900,84,95,454581
2.0674,0.3861,39.2800,84,95,454584
2.0577,0.3861,39.3200,84,95,454588
2.0821,0.4008,39.1900,84,95,454591
2.0479,0.3861,39.2800,84,95,454594
2.0674,0.3910,38.4600,84,95,454598
2.0577,0.3812,39.3200,84,95,454601
2.0528,0.3910,39.3200,84,95,454604
2.0577,0.3959,39.1900,84,95,454608
2.0088,0.3910,39.2800,84,95,454611
2.0381,0.3959,39.1600,84,95,454615
2.0186,0.3861,39.1900,84,95,454619
2.0332,0.3861,39.2800,84,95,454622
2.0528,0.3910,39.1900,84,95,454625
2.0283,0.3861,39.2800,84,95,454628
2.0479,0.3910,39.1900,84,95,454632
2.0332,0.3910,39.2200,84,95,454635
2.0479,0.3861,38.7100,84,95,454638
2.0772,0.3959,39.1600,84,95,454642
2.0674,0.3910,39.2800,84,95,454645
2.1017,0.3959,39.0900,84,95,454648
2.0528,0.3812,39.3200,84,95,454652
2.0528,0.3910,39.2800,84,95,454656
2.0870,0.3861,39.3200,84,95,454659
2.0577,0.3910,39.2800,84,95,454663
2.0577,0.3861,39.2800,84,95,454666
2.1065,0.4008,39.0900,84,95,454669
2.0772,0.3910,39.2500,84,95,454673
2.0723,0.3910,39.1600,84,95,454676
2.0577,0.3910,39.2500,84,95,454679
2.0626,0.3910,39.2800,84,95,454683
2.0968,0.3959,39.1600,84,95,454686
2.0723,0.3861,39.3200,84,95,454689
2.0870,0.3910,39.1600,84,95,454693
2.0479,0.3910,39.2800,84,95,454696
2.0381,0.3861,39.2800,84,95,454700
2.0528,0.3959,39.2200,84,95,454703
2.0528,0.3910,39.2800,84,95,454707
2.0919,0.3910,39.1900,84,95,454710
2.0528,0.3910,39.3200,84,95,454713
2.0430,0.3861,39.3200,84,95,454717
2.0626,0.3959,39.5100,84,95,454720
2.0381,0.3910,39.2800,84,95,454723
2.0723,0.3861,39.0900,84,95,454727
2.0577,0.3959,39.0900,84,95,454730
2.0283,0.3861,39.2800,84,95,454733
2.0479,0.4008,39.1900,84,95,454736
2.0186,0.3910,39.2800,84,95,454740
2.0674,0.4008,39.0900,84,95,454744
2.0381,0.4252,39.1600,84,95,454747
2.0235,0.3861,39.3200,84,95,454751
2.0381,0.3910,39.3200,84,95,454754
2.0088,0.3861,39.2800,84,95,454757
2.0577,0.4057,39.0000,84,95,454761
2.0186,0.3959,39.1900,84,95,454764
2.0137,0.3812,39.2500,84,95,454767
2.0137,0.3910,39.2500,84,95,454770
1.9941,0.3910,39.2800,84,95,454774
2.0283,0.4106,39.0900,84,95,454777
1.9746,0.3959,39.2500,84,95,454780
1.9697,0.3910,39.2200,84,95,454785
1.9550,0.4252,39.2800,84,95,454788
1.9453,0.3861,39.2800,84,95,454791
1.9550,0.3959,39.0600,84,95,454795
1.9159,0.3910,39.2500,84,95,454798
1.9306,0.4008,39.1600,84,95,454801
1.9110,0.4057,39.2800,84,95,454805
1.9208,0.3812,39.2800,84,95,454808
1.9355,0.3910,38.4000,84,95,454811
1.9013,0.3910,39.2200,84,95,454814
1.9159,0.4008,39.1900,84,95,454818
1.8817,0.3861,39.2500,84,95,454821
1.8866,0.3861,39.2800,84,95,454824
1.9013,0.3910,39.1600,84,95,454829
1.8768,0.3861,39.3800,84,95,454832
1.8768,0.3910,39.0900,84,95,454835
1.8280,0.3861,39.3200,84,95,454839
1.8182,0.4106,39.2800,84,95,454842
1.8426,0.3959,39.2200,84,95,454845
1.8231,0.3861,39.2800,84,95,454849
1.8866,0.3959,39.0300,84,95,454852
1.8035,0.3861,39.1900,84,95,454855
1.7693,0.3861,39.3500,84,95,454858
1.7840,0.3910,39.2500,84,95,454862
1.7840,0.3861,39.2800,84,95,454865
1.8426,0.4252,39.0600,84,95,454868
1.8133,0.3959,39.1900,84,95,454873
1.7889,0.3861,39.2500,84,95,454876
1.7889,0.3861,39.2800,84,95,454879
1.7840,0.3861,39.2200,84,95,454883
1.8328,0.4008,39.1200,84,95,454886
1.7986,0.3910,39.2500,84,95,454889
1.7889,0.3861,39.1600,84,95,454893
1.7546,0.3910,39.3200,84,95,454896
1.7302,0.3861,39.2800,84,95,454899
1.7546,0.3959,39.2200,84,95,454902
1.7253,0.3861,39.2800,84,95,454906
1.7498,0.3959,39.1600,84,95,454909
1.7155,0.3861,39.2800,84,95,454913
1.7058,0.3812,39.2500,84,95,454917
1.7253,0.3959,39.1900,84,95,454920
1.7058,0.3910,39.2500,84,95,454923
1.7400,0.3910,39.1200,84,95,454927
1.7351,0.3861,39.1600,84,95,454930
1.7351,0.3763,39.2800,84,95,454933
1.7302,0.4350,39.1600,84,95,454937
1.7351,0.3910,39.2800,84,95,454940
1.7595,0.3861,39.0600,84,95,454943
1.7302,0.3812,39.2500,84,95,454947
1.7253,0.3861,39.2800,84,95,454950
1.7204,0.3861,39.1900,84,95,454953
1.6911,0.3861,39.3200,84,95,454957
1.7351,0.4008,38.9600,84,95,454961
1.7009,0.3959,39.1900,84,95,454964
1.7009,0.3812,39.2500,84,95,454967
1.7107,0.3910,39.2800,84,95,454971
1.7009,0.4106,39.3200,84,95,454974
1.7400,0.3861,39.0900,84,95,454977
1.6862,0.3861,39.2500,84,95,454981
1.6618,0.3861,39.1900,84,95,454984
1.6227,0.3812,39.2800,84,95,454987
1.5787,0.3861,39.3200,84,95,454991
1.5640,0.3959,39.1200,84,95,454994
1.5054,0.4106,39.2800,84,95,454998
1.4907,0.3910,39.1900,84,95,455001
1.4467,0.3812,39.2500,84,95,455005
1.4272,0.3812,39.3200,84,95,455008
1.4174,0.3910,39.1900,84,95,455011
1.3685,0.3812,39.3200,84,95,455015
1.3587,0.3910,39.1900,84,95,455018
1.3196,0.3812,39.2500,84,95,455021
1.3148,0.4008,39.3200,84,95,455025
1.3245,0.3812,39.2200,84,95,455028
1.3001,0.3763,39.3800,84,95,455031
1.3001,0.3861,39.0300,84,95,455035
1.2561,0.3715,39.2500,84,95,455038
1.2366,0.4008,39.2800,84,95,455042
1.2268,0.3812,39.3200,84,95,455045
1.1926,0.3763,39.3200,84,95,455049
1.1926,0.3861,39.0300,84,95,455052
1.1241,0.3812,39.2200,84,95,455055
1.0850,0.3763,39.3800,84,95,455059
1.0802,0.3861,39.2500,84,95,455062
1.0166,0.3470,39.2800,84,95,455065
1.0166,0.3959,38.4300,84,95,455069
0.9580,0.3763,39.2200,84,95,455072
0.9042,0.3666,39.2500,84,95,455075
0.8504,0.3763,39.3800,84,95,455079
0.8016,0.3763,39.2800,84,95,455083
0.7771,0.3910,39.1200,84,95,455086
0.7087,0.3812,39.2500,84,95,455089
0.6452,0.3763,39.1200,84,95,455093
0.5670,0.3812,39.2800,84,95,455096
0.4985,0.3763,39.2200,84,95,455099
0.4985,0.3812,39.2500,84,95,455103
0.5718,0.3666,39.2800,84,95,455106
0.6843,0.3812,39.1600,84,95,455109
0.8651,0.3763,39.2500,84,95,455113
1.0753,0.3763,39.2800,84,95,455116
1.2414,0.3861,39.2200,84,95,455119
1.2659,0.3763,39.2800,84,95,455123
1.2414,0.3812,39.0900,84,95,455127
1.1681,0.3812,39.1900,84,95,455130
1.0850,0.3763,39.2800,84,95,455133
0.9824,0.3715,39.1200,84,95,455137
0.8700,0.3666,39.2500,84,95,455140
0.7820,0.3861,39.0300,84,95,455143
0.7038,0.3715,39.1600,84,95,455147
0.6452,0.3812,39.3200,84,95,455150
0.6061,0.3812,39.2200,84,95,455153
0.5425,0.3763,39.3200,84,95,455157
0.5670,0.4057,39.0300,84,95,455160
0.5718,0.3812,39.2200,84,95,455163
0.5865,0.3715,39.3200,84,95,455166
0.5963,0.3910,39.3200,84,95,455171
0.5963,0.3763,39.2800,84,95,455174
0.6158,0.3959,39.0600,84,95,455177
0.6109,0.3812,39.2500,84,95,455181
0.6207,0.3763,39.1900,84,95,455184
0.6500,0.3763,39.2800,84,95,455187
0.6647,0.3715,39.3500,84,95,455191
0.6843,0.3910,39.1200,84,95,455194
0.6598,0.3812,39.2800,84,95,455197
0.6647,0.3812,39.1600,84,95,455200
0.6794,0.3812,39.2800,84,95,455204
0.6891,0.3763,39.2800,84,95,455207
0.7087,0.3861,39.1200,84,95,455211
0.6989,0.3715,39.2800,84,95,455215
0.7136,0.3812,39.1600,84,95,455218
0.7087,0.3715,39.2800,84,95,455221
0.7331,0.3666,39.2800,84,95,455225
0.7380,0.3763,39.2200,84,95,455228
0.7722,0.3763,39.2800,84,95,455231
0.7918,0.3763,39.1600,84,95,455234
0.7820,0.3763,39.2800,84,95,455238
0.7967,0.3763,39.3800,84,95,455241
0.8358,0.3861,39.1900,84,95,455244
0.8602,0.3763,39.2800,84,95,455248
0.8895,0.3812,39.0900,84,95,455251
0.8944,0.3812,39.1600,84,95,455255
0.8993,0.3861,39.3200,84,95,455259
0.9286,0.3861,39.1200,84,95,455262
0.9286,0.4057,39.2800,84,95,455265
0.9677,0.4203,39.0300,84,95,455268
1.0215,0.3910,39.1200,84,95,455272
1.0215,0.3763,39.4100,84,95,455275
1.0411,0.3715,39.1600,84,95,455279
1.0459,0.3763,39.3200,84,95,455282
1.0557,0.3812,39.3200,84,95,455285
1.0850,0.3861,39.1900,84,95,455289
1.0704,0.3763,39.3200,84,95,455292
1.0899,0.3812,39.1900,84,95,455296
1.0753,0.3763,39.2800,84,95,455300
1.0606,0.3763,39.2800,84,95,455303
1.0850,0.3959,39.1600,84,95,455306
1.0802,0.3763,39.3500,84,95,455310
1.1095,0.3861,39.6000,84,95,455313
1.0948,0.3617,39.1900,84,95,455316
1.1095,0.3666,39.3200,84,95,455319
1.0899,0.3959,39.0900,84,95,455323
1.0753,0.3763,39.3200,84,95,455326
1.1339,0.3812,39.1200,84,95,455329
1.0997,0.3763,39.3200,84,95,455333
1.1095,0.4057,39.3200,84,95,455336
1.1241,0.3666,39.2200,84,95,455340
1.1046,0.3763,39.3200,84,95,455344
1.1388,0.3910,39.0600,84,95,455347
1.1339,0.3763,39.2500,84,95,455350
1.1535,0.3715,39.4100,84,95,455353
1.1779,0.3812,39.2500,84,95,455357
1.1632,0.3715,39.3800,84,95,455360
1.1926,0.3959,39.0300,84,95,455363
1.1632,0.3812,39.2200,84,95,455367
1.1681,0.3715,39.2800,84,95,455370
1.1975,0.3763,39.2200,84,95,455373
1.2072,0.3715,39.2800,84,95,455377
1.2610,0.3763,39.0900,84,95,455380
1.2268,0.3812,39.2200,84,95,455384
1.2366,0.3763,39.1900,84,95,455388
1.2512,0.3763,39.3200,84,95,455391
1.2757,0.3861,39.2800,84,95,455394
1.3196,0.3812,39.1600,84,95,455398
1.3001,0.3812,39.2800,84,95,455401
1.3099,0.3812,39.1200,84,95,455404
1.2952,0.3763,38.6500,84,95,455407
1.3050,0.3812,39.3200,84,95,455411
1.3196,0.3763,39.1900,84,95,455414
1.3001,0.3763,39.2800,84,95,455417
1.3196,0.3812,39.0900,84,95,455421
1.2757,0.3763,39.3200,84,95,455425
1.2903,0.3715,39.3200,84,95,455428
1.3099,0.3812,39.2500,84,95,455432
1.3050,0.3861,39.3200,84,95,455435
1.3392,0.3812,39.0600,84,95,455438
1.3196,0.3812,39.1600,84,95,455442
1.3148,0.3715,39.2800,84,95,455445
1.3196,0.3910,39.2200,84,95,455448
1.3343,0.3715,39.2800,84,95,455452
1.3734,0.3861,39.0000,84,95,455455
1.3490,0.3812,39.1900,84,95,455458
1.3294,0.3715,39.2500,84,95,455461
1.3245,0.3763,39.2500,84,95,455465
1.3441,0.3715,39.3200,84,95,455469
1.3783,0.3861,39.0600,84,95,455472
1.3636,0.3715,39.2500,84,95,455476
1.3539,0.3715,39.1900,84,95,455479
1.3392,0.3763,39.2500,84,95,455482
1.3196,0.3715,39.3500,84,95,455486
1.3392,0.3812,39.2200,84,95,455489
1.3343,0.3763,39.2500,84,95,455492
1.3636,0.3812,39.1200,84,95,455496
1.3392,0.3715,39.2200,84,95,455499
1.3294,0.3715,39.2800,84,95,455502
1.3539,0.3812,39.1900,84,95,455506
1.3392,0.3715,39.2500,84,95,455510
1.3685,0.3763,39.1200,84,95,455513
1.3587,0.3812,39.1600,84,95,455517
1.3539,0.3715,39.3800,84,95,455520
1.3490,0.3812,39.1600,84,95,455523
1.3245,0.3715,38.4900,84,95,455526
1.3734,0.3861,39.0300,84,95,455530
1.3636,0.3715,39.2200,84,95,455533
1.3734,0.3763,39.2200,84,95,455536
1.3832,0.3763,39.2200,84,95,455540
1.3539,0.3666,39.2800,84,95,455543
1.3832,0.3910,39.0000,84,95,455546
1.3539,0.3861,39.2500,84,95,455550
1.3539,0.3666,39.2500,84,95,455554
1.3539,0.3861,39.2500,84,95,455557
1.3343,0.3715,39.2800,84,95,455561
1.3636,0.3861,39.1200,84,95,455564
1.3441,0.3715,39.2500,84,95,455567
1.3245,0.3763,39.3500,84,95,455571
1.3294,0.3470,39.2800,84,95,455574
1.3196,0.3715,39.3200,84,95,455577
1.3441,0.3763,39.0900,84,95,455581
1.2952,0.3715,39.3500,84,95,455584
1.3050,0.4057,39.1600,84,95,455587
1.2952,0.3666,39.2500,84,95,455590
1.2952,0.3715,39.3800,84,95,455595
1.3001,0.3470,39.1600,84,95,455598
1.2561,0.3715,39.4100,84,95,455601
1.2463,0.3715,39.1200,84,95,455605
1.2317,0.3715,39.3500,84,95,455608
1.2317,0.3763,39.2800,84,95,455611
1.2512,0.3812,39.2200,84,95,455615
1.2317,0.3861,39.2800,84,95,455618
1.2512,0.3666,39.0900,84,95,455621
1.2121,0.3812,39.1900,84,95,455625
1.2463,0.3666,39.2800,84,95,455628
1.2366,0.3763,39.2500,84,95,455631
1.2414,0.3715,39.2800,84,95,455635
1.2757,0.3861,39.0000,84,95,455639
1.2414,0.3763,39.2500,84,95,455642
1.2317,0.3666,39.2500,84,95,455645
1.2268,0.3812,39.2200,84,95,455649
1.2317,0.3715,39.2800,84,95,455652
1.2659,0.4057,39.1200,84,95,455655
1.2366,0.3763,39.2500,84,95,455659
1.2170,0.3763,39.1600,84,95,455662
1.1926,0.3715,39.2500,84,95,455665
1.1779,0.3715,39.3200,84,95,455669
1.2023,0.3763,39.1600,84,95,455672
1.1877,0.3715,39.2800,84,95,455675
1.1975,0.3763,39.0600,84,95,455680
1.2023,0.3715,39.2800,84,95,455683
1.1975,0.3715,39.3500,84,95,455686
1.2512,0.3763,39.2200,84,95,455690
1.2463,0.3715,39.2800,84,95,455693
1.2659,0.4106,39.1200,84,95,455696
1.2366,0.3715,39.1900,84,95,455699
1.2170,0.3715,39.2800,84,95,455703
1.2219,0.3763,39.1900,84,95,455706
1.2072,0.3861,39.2800,84,95,455709
1.2463,0.3763,39.0600,84,95,455713
1.2072,0.3763,39.2800,84,95,455716
1.1877,0.3666,39.2800,84,95,455719
1.1828,0.3763,39.2200,84,95,455724
1.1681,0.3715,39.2800,84,95,455727
1.2317,0.3861,39.0000,84,95,455730
1.2023,0.3812,39.1600,84,95,455734
1.1975,0.3715,39.2500,84,95,455737
1.1926,0.3715,39.2500,84,95,455740
1.1877,0.3715,39.2800,84,95,455743
1.2366,0.3910,39.1200,84,95,455747
1.2366,0.3763,39.3200,84,95,455750
1.2659,0.4008,39.1900,84,95,455753
1.2903,0.3715,39.2500,84,95,455757
1.2952,0.3763,39.2800,84,95,455760
1.3099,0.3812,39.2200,84,95,455763
1.3001,0.3715,39.2200,84,95,455768
1.3294,0.3861,39.1600,84,95,455771
1.3392,0.3715,39.3200,84,95,455774
1.3539,0.3666,39.2800,84,95,455778
1.3832,0.3812,39.1600,84,95,455781
1.3734,0.3715,39.3200,84,95,455784
1.3881,0.3763,39.0900,84,95,455788
1.3783,0.3715,39.1900,84,95,455791
1.3685,0.3715,39.2800,84,95,455794
1.3587,0.3666,39.1200,84,95,455798
1.3001,0.3715,39.2800,84,95,455801
1.2757,0.3812,39.0600,84,95,455804
1.1877,0.3715,39.1900,84,95,455808
1.1535,0.3715,39.2500,84,95,455812
1.1779,0.3763,39.2200,84,95,455815
1.2366,0.3666,39.3500,84,95,455818
1.4125,0.3812,39.0000,84,95,455822
1.6031,0.3715,38.7100,84,95,455825
1.8426,0.3715,39.2200,84,95,455828
2.0332,0.3715,39.2500,84,95,455832
2.0821,0.3910,39.3200,84,95,455835
2.0772,0.3861,39.0900,84,95,455838
1.9453,0.3763,39.2500,84,95,455842
1.8573,0.3715,39.2200,84,95,455845
1.7449,0.3763,39.2800,84,95,455848
1.6373,0.3715,39.2800,84,95,455852
1.5738,0.3666,39.1200,84,95,455856
1.4614,0.3715,39.3800,84,95,455859
1.4076,0.3763,39.1200,84,95,455862
1.3148,0.3666,39.2800,84,95,455866
1.2659,0.3910,39.3200,84,95,455869
1.2659,0.3715,39.1600,84,95,455872
1.2512,0.3763,39.2500,84,95,455876
1.2708,0.3715,39.1600,84,95,455879
1.2854,0.3812,39.0300,84,96,455883
1.2610,0.3666,39.4400,84,96,455886
1.2561,0.3568,39.3200,84,96,455889
1.2463,0.3715,39.2800,84,96,455894
1.2414,0.3715,39.3200,84,96,455897
1.2854,0.3861,39.0300,84,96,455900
1.2512,0.3666,39.2500,84,96,455904
1.2317,0.3666,39.2200,84,96,455907
1.2317,0.3715,39.2200,84,96,455910
1.1926,0.3666,39.3500,84,96,455914
1.2072,0.3763,39.1200,84,96,455917
1.1975,0.3715,39.3800,84,96,455920
1.2023,0.3861,39.1600,84,96,455923
1.1730,0.3666,39.3200,84,96,455927
1.1535,0.3666,39.3500,84,96,455930
1.1535,0.3763,39.1900,84,96,455933
1.1290,0.3715,39.3200,84,96,455938
1.1730,0.3959,39.2200,84,96,455941
1.1632,0.3470,39.2800,84,96,455944
1.1535,0.3666,39.3200,84,96,455948
1.1535,0.3666,39.2200,84,96,455951
1.1437,0.3666,39.2500,84,96,455954
1.1681,0.3666,39.1900,84,96,455958
1.1632,0.3666,39.2800,84,96,455961
1.1926,0.3666,39.3200,84,96,455964
1.1632,0.3715,39.0900,84,96,455968
1.1437,0.3666,39.2800,84,96,455971
1.1730,0.3812,39.1200,84,96,455974
1.1584,0.3763,39.1900,84,96,455977
1.1877,0.3715,39.2800,84,96,455982
1.1632,0.3715,39.2200,84,96,455985
1.1388,0.3715,39.3200,84,96,455988
1.1584,0.3861,39.0900,84,96,455992
1.1730,0.3763,39.1900,84,96,455995
1.1339,0.3666,39.2200,84,96,455998
1.1632,0.3715,39.2800,84,96,456002
1.1730,0.3715,39.3200,84,96,456005
1.1681,0.3812,39.1900,84,96,456008
1.1681,0.3666,39.2500,84,96,456012
1.1632,0.3715,39.1900,84,96,456015
1.1632,0.3715,39.3200,84,96,456018
1.1828,0.3666,39.3200,84,96,456023
1.2414,0.3812,39.2200,84,96,456026
1.2072,0.3666,39.3200,84,96,456029
1.2366,0.3861,39.2500,84,96,456032
1.2317,0.3666,39.1600,84,96,456036
1.2512,0.3666,39.2800,84,96,456039
1.2952,0.3763,39.1900,84,96,456042
1.3294,0.3763,39.2800,84,96,456046
1.3148,0.3715,39.0900,84,96,456049
1.3050,0.3763,39.1900,84,96,456052
1.3343,0.3715,39.3200,84,96,456056
1.3539,0.3763,39.1900,84,96,456059
1.3490,0.3715,39.2800,84,96,456062
1.3978,0.3812,39.1200,84,96,456067
1.3783,0.3470,39.1900,84,96,456070
1.3685,0.3666,39.3800,84,96,456073
1.3930,0.3812,39.2200,84,96,456077
1.4125,0.3666,39.2800,84,96,456080
1.4858,0.3861,39.0600,84,96,456083
1.4858,0.3763,39.2200,84,96,456087
1.4858,0.3666,39.2200,84,96,456090
1.4956,0.3715,39.2800,84,96,456093
1.5200,0.3763,39.2500,84,96,456096
1.5836,0.3666,39.1600,84,96,456100
1.5689,0.3715,39.2500,84,96,456103
1.5885,0.3715,39.1600,84,96,456107
1.5787,0.3715,39.1900,84,96,456111
1.5787,0.3763,39.2800,84,96,456114
1.6227,0.3812,39.1600,84,96,456117
1.6129,0.3763,39.2500,84,96,456121
1.6471,0.3763,39.1900,84,96,456124
1.6276,0.3666,39.1900,84,96,456127
1.6227,0.3666,39.2800,84,96,456131
1.6422,0.3715,39.1600,84,96,456134
1.6422,0.3666,39.2800,84,96,456137
1.6813,0.3763,39.0600,84,96,456141
1.6667,0.3470,39.2500,84,96,456144
1.6520,0.3666,39.2800,84,96,456147
1.6569,0.3763,39.1900,84,96,456151
1.6422,0.3666,39.2800,84,96,456155
1.6862,0.3812,39.0300,84,96,456158
1.6618,0.3470,39.2200,84,96,456161
1.6569,0.3666,39.3500,84,96,456165
1.6520,0.3666,39.2500,84,96,456168
1.6325,0.3666,39.4400,84,96,456171
1.6862,0.4008,39.0600,84,96,456175
1.6667,0.3763,39.2500,84,96,456178
1.6618,0.3666,39.2200,84,96,456181
1.6667,0.3715,39.2500,84,96,456185
1.6569,0.3666,39.2800,84,96,456188
1.6716,0.3763,39.1200,84,96,456192
1.6618,0.3763,39.2500,84,96,456196
1.6911,0.3715,39.1600,84,96,456199
1.6716,0.3666,39.2800,84,96,456202
1.6716,0.3470,39.2800,84,96,456206
1.6716,0.3812,39.4400,84,96,456209
1.6373,0.3715,39.2800,84,96,456212
1.6569,0.3812,39.1900,84,96,456215
1.6373,0.3666,39.2200,84,96,456219
1.6422,0.3666,39.2800,84,96,456222
1.6520,0.3861,39.1600,84,96,456225
1.6520,0.3666,39.2800,84,96,456229
1.6422,0.3763,39.0900,84,96,456232
1.6276,0.3715,39.2800,84,96,456236
1.6422,0.3666,39.2800,84,96,456240
1.6667,0.3763,39.0900,84,96,456243
1.6422,0.3666,39.3200,84,96,456246
1.6618,0.3812,39.2200,84,96,456250
1.6227,0.3812,39.1900,84,96,456253
1.6080,0.3666,39.2800,84,96,456256
1.6178,0.3715,39.2500,84,96,456260
1.6080,0.3666,39.2800,84,96,456263
1.6422,0.3910,39.0600,84,96,456266
1.6276,0.3763,39.2200,84,96,456269
1.5689,0.3666,39.2500,84,96,456273
1.5787,0.3861,39.2500,84,96,456276
1.5885,0.3715,39.3200,84,96,456280
1.6227,0.3910,39.0900,84,96,456284
1.5836,0.3666,39.2800,84,96,456287
1.5787,0.3715,39.1600,84,96,456290
1.5738,0.3763,39.3200,84,96,456294
1.5787,0.3715,38.4900,84,96,456297
1.6178,0.3763,39.2500,84,96,456300
1.5934,0.3715,39.3200,84,96,456304
1.6031,0.3812,39.1900,84,96,456307
1.5591,0.3715,39.2800,84,96,456310
1.5885,0.3715,39.2800,84,96,456314
1.5787,0.3812,39.0600,84,96,456317
1.5787,0.3763,39.2800,84,96,456321
1.5787,0.3763,39.1200,84,96,456324
1.5591,0.3763,39.1900,84,96,456328
1.5445,0.3666,39.2800,84,96,456331
1.5396,0.3861,39.1600,84,96,456334
1.5200,0.3666,39.3200,84,96,456338
1.5738,0.3812,39.0600,84,96,456341
1.5640,0.3666,39.1900,84,96,456344
1.5347,0.3715,39.3200,84,96,456348
1.5445,0.3812,39.2500,84,96,456351
1.5494,0.3470,39.2800,84,96,456354
1.6227,0.3910,39.0300,84,96,456358
1.6178,0.3763,39.2200,84,96,456361
1.6080,0.3666,39.1600,84,96,456365
1.6129,0.3666,39.2800,84,96,456369
1.5787,0.3715,39.2800,84,96,456372
1.6031,0.3666,39.1900,84,96,456375
1.5738,0.3715,39.3200,84,96,456378
1.5787,0.3715,39.1600,84,96,456382
1.5543,0.3715,39.2800,84,96,456385
1.5640,0.3666,39.2800,84,96,456388
1.5591,0.3812,39.2200,84,96,456392
1.5445,0.3715,39.2500,84,96,456395
1.5982,0.3763,39.2500,84,96,456398
1.6227,0.3763,39.2200,84,96,456402
1.5787,0.3666,39.3200,84,96,456406
1.5689,0.3666,39.1900,84,96,456409
1.5200,0.3715,39.3200,84,96,456413
1.5298,0.3812,39.0600,84,96,456416
1.5200,0.3763,39.2500,84,96,456419
1.5005,0.3715,39.2800,84,96,456423
1.5005,0.3763,39.1600,84,96,456426
1.4614,0.3763,39.2800,84,96,456429
1.4712,0.3910,39.0300,84,96,456432
1.4467,0.3910,39.1900,84,96,456436
1.4467,0.3666,39.2800,84,96,456439
1.4516,0.3763,39.2500,84,96,456442
1.4418,0.3715,39.2800,84,96,456446
1.4663,0.4008,39.0600,84,96,456450
1.4418,0.3763,39.2500,84,96,456453
1.4125,0.3715,39.2200,84,96,456457
1.4467,0.3666,39.2800,84,96,456460
1.4125,0.3666,39.3500,84,96,456463
1.4321,0.3812,39.1200,84,96,456467
1.4027,0.3763,39.4100,84,96,456470
1.4076,0.3715,39.1600,84,96,456473
1.4125,0.3715,39.2800,84,96,456477
1.4321,0.3715,39.1600,84,96,456480
1.4614,0.3812,39.2500,84,96,456483
1.4663,0.3715,38.7100,84,96,456486
1.4956,0.3861,39.1600,84,96,456491
1.4858,0.3861,39.0900,84,96,456494
1.4663,0.3715,39.2500,84,96,456498
1.4223,0.3715,39.2800,84,96,456501
1.3832,0.3763,39.2500,84,96,456504
1.3343,0.3715,39.2800,84,96,456508
1.3734,0.3666,39.0000,84,96,456511
1.4076,0.3763,39.3500,84,96,456514
1.5347,0.3666,39.2500,84,96,456518
1.7693,0.3763,39.2500,84,96,456521
2.0332,0.3812,39.2800,84,96,456524
2.2972,0.3910,39.0900,84,96,456528
2.2972,0.3763,39.2800,84,96,456531
2.2239,0.3715,39.1900,84,96,456535
2.1310,0.3715,39.2800,84,96,456539
2.0577,0.3715,39.2500,84,96,456542
2.0430,0.3763,39.1600,84,96,456545
1.9013,0.3715,39.3500,84,96,456548
1.8231,0.3812,39.1600,84,96,456552
1.7204,0.3715,39.3200,84,96,456555
1.6520,0.3715,39.2800,84,96,456558
1.6178,0.3715,39.2200,84,96,456562
1.5885,0.3763,39.2800,84,96,456565
1.6031,0.3666,39.1600,84,96,456568
1.5640,0.3715,39.2500,84,96,456572
1.5591,0.3666,39.2800,84,96,456576
1.5738,0.3812,39.2500,84,96,456579
1.5591,0.3715,39.2800,84,96,456583
1.5982,0.3812,38.2700,84,96,456586
1.6031,0.3812,39.2200,84,96,456589
1.5982,0.3715,39.3200,84,96,456593
1.6129,0.3715,39.2200,84,96,456596
1.5934,0.3715,39.2800,84,96,456599
1.6471,0.4057,39.0000,84,96,456602
1.6373,0.3763,39.1600,84,96,456606
1.6373,0.3666,39.2800,84,96,456609
1.6422,0.3666,39.2500,84,96,456612
1.6276,0.3715,39.3500,84,96,456616
1.6716,0.3910,39.0900,84,96,456620
1.6471,0.3763,39.2200,84,96,456623
1.6520,0.3715,39.1900,84,96,456627
1.6471,0.3666,39.2800,84,96,456630
1.6569,0.3812,39.2800,84,96,456633
1.6764,0.3812,38.5800,84,96,456637
1.6422,0.3715,39.2500,84,96,456640
1.6862,0.3812,39.1200,84,96,456643
1.6667,0.3715,39.2800,84,96,456647
1.6813,0.3470,39.2800,84,96,456650
1.7058,0.3861,39.1900,84,96,456653
1.6716,0.3715,39.2800,84,96,456657
1.7009,0.3763,38.9300,84,96,456660
1.6960,0.3763,39.2200,84,96,456664
1.7107,0.3715,39.2800,84,96,456667
1.7204,0.3812,39.1200,84,96,456671
1.6862,0.3666,39.2800,84,96,456674
1.7058,0.3812,39.0900,84,96,456677
1.6764,0.3763,39.2200,84,96,456681
1.6764,0.3715,39.2800,84,96,456684
1.7009,0.3763,39.3200,84,96,456687
1.6716,0.3666,39.2800,84,96,456691
1.7058,0.3861,39.0300,84,96,456694
1.6569,0.3715,39.1200,84,96,456697
1.6520,0.3715,39.2800,84,96,456701
1.6569,0.3715,39.2800,84,96,456705
1.6618,0.3715,39.3800,84,96,456708
1.7253,0.3910,39.0900,84,96,456712
1.6520,0.3470,39.2500,84,96,456715
1.6422,0.3715,39.2500,84,96,456718
1.6667,0.3666,39.2800,84,96,456721
1.6373,0.3715,39.3800,84,96,456725
1.6764,0.3763,39.1200,84,96,456728
1.6471,0.3763,39.3200,84,96,456731
1.6471,0.3812,39.1600,84,96,456735
1.6227,0.3715,39.2800,84,96,456738
1.6227,0.3812,39.3200,84,96,456741
1.6520,0.3812,39.3200,84,96,456745
1.6422,0.3666,39.2800,84,96,456749
1.6618,0.3666,39.1600,84,96,456752
1.6276,0.3812,39.2500,84,96,456756
1.6276,0.3666,39.2800,84,96,456759
1.6520,0.3763,39.1200,84,96,456762
1.6764,0.3715,39.2800,84,96,456766
1.7107,0.3763,39.0900,84,96,456769
1.6813,0.3715,39.2500,84,96,456772
1.6911,0.3715,39.2500,84,96,456775
1.7058,0.3763,39.2500,84,96,456779
1.7009,0.3715,39.2800,84,96,456782
1.7644,0.3763,39.0300,84,96,456785
1.7498,0.3763,39.2500,84,96,456790
1.7546,0.3666,39.2800,84,96,456793
1.7693,0.3763,39.2500,84,96,456796
1.7742,0.3715,39.2800,84,96,456800
1.8524,0.3910,39.1200,84,96,456803
1.8426,0.4106,39.2200,84,96,456806
1.8475,0.3763,39.1900,84,96,456810
1.8524,0.3715,39.3200,84,96,456813
1.8475,0.3715,39.2800,84,96,456816
1.8817,0.3812,39.1900,84,96,456820
1.8719,0.3715,39.2800,84,96,456823
1.9013,0.3763,39.1600,84,96,456826
1.8866,0.3715,39.2800,84,96,456829
1.9110,0.3715,39.2800,84,96,456834
1.8817,0.3715,39.2200,84,96,456837
1.8622,0.3812,39.2800,84,96,456840
1.8817,0.3763,39.1900,84,96,456844
1.8671,0.3666,39.2800,84,96,456847
1.8573,0.3715,39.2800,84,96,456850
1.8671,0.3715,39.1600,84,96,456854
1.8280,0.3715,39.2800,84,96,456857
1.8671,0.3812,39.0300,84,96,456860
1.8426,0.3763,39.2800,84,96,456864
1.8377,0.3715,39.2800,84,96,456867
1.8524,0.3763,39.2200,84,96,456870
1.8182,0.3715,39.2800,84,96,456875
1.8524,0.3861,39.0000,84,96,456878
1.8133,0.3617,39.1900,84,96,456881
1.8035,0.3666,39.2800,84,96,456885
1.8133,0.3763,39.2800,84,96,456888
1.8084,0.3715,39.2800,84,96,456891
1.8328,0.3861,39.0900,84,96,456894
1.7840,0.3763,39.1600,84,96,456898
1.7840,0.3715,39.1900,84,96,456901
1.7693,0.3715,39.3500,84,96,456904
1.7693,0.3666,39.2800,84,96,456908
1.7840,0.3812,39.1600,84,96,456911
1.7546,0.3715,39.2800,84,96,456914
1.7400,0.3763,39.1600,84,96,456919
1.7058,0.3715,39.2500,84,96,456922
1.7058,0.3715,39.2800,84,96,456925
1.7498,0.3861,39.1200,84,96,456929
1.7204,0.3715,39.2200,84,96,456932
1.7302,0.3715,39.1900,84,96,456935
1.7058,0.3715,39.2200,84,96,456939
1.7009,0.4008,39.3200,84,96,456942
1.7302,0.3763,39.1200,84,96,456945
1.7155,0.3715,39.2500,84,96,456948
1.7498,0.3666,39.0600,84,96,456952
1.7058,0.3812,39.2200,84,96,456955
1.7058,0.3715,39.3200,84,96,456958
1.6960,0.3812,39.2500,84,96,456963
1.7009,0.3715,39.2200,84,96,456966
1.7546,0.3910,39.0300,84,96,456969
1.7155,0.3715,39.1900,84,96,456973
1.7009,0.3666,39.2800,84,96,456976
1.7058,0.3715,39.2500,84,96,456979
1.7107,0.3666,39.3200,84,96,456983
1.7791,0.3861,39.0900,84,96,456986
1.7498,0.3763,39.4800,84,96,456989
1.7498,0.3715,39.1900,84,96,456993
1.7400,0.3715,39.2800,84,96,456996
1.7351,0.3715,39.2800,84,96,456999
1.7742,0.3812,39.1900,84,96,457003
1.7644,0.3470,39.2500,84,96,457007
1.7791,0.3763,39.1200,84,96,457010
1.7498,0.3715,39.2500,84,96,457013
1.7400,0.3715,39.2800,84,96,457017
1.7595,0.3910,39.2200,84,96,457020
1.7742,0.3666,39.2800,84,96,457023
1.7791,0.3763,39.1600,84,96,457027
1.7546,0.3666,39.2500,84,96,457030
1.7546,0.3715,39.2800,84,96,457033
1.7791,0.3763,39.1900,84,96,457037
1.7449,0.3715,39.2800,84,96,457040
1.7791,0.3812,39.0600,84,96,457043
1.7449,0.3666,39.3200,84,96,457048
1.7498,0.3959,39.2800,84,96,457051
1.7546,0.3763,39.2500,84,96,457054
1.7351,0.3812,39.3200,84,96,457058
1.7889,0.3861,39.0000,84,96,457061
1.7693,0.3763,39.2200,84,96,457064
1.7693,0.3715,39.2800,84,96,457067
1.7693,0.3763,39.4400,84,96,457071
1.7400,0.3763,39.3200,84,96,457074
1.7693,0.3861,39.1200,84,96,457077
1.7155,0.3763,39.2200,84,96,457081
1.7009,0.3715,39.1900,84,96,457084
1.6911,0.3910,39.2800,84,96,457088
1.6960,0.3666,39.2800,84,96,457092
1.6960,0.3812,39.2200,84,96,457095
1.6716,0.3715,39.2500,84,96,457098
1.6960,0.3763,39.1600,84,96,457102
1.6862,0.3666,39.3200,84,95,457105
1.5543,0.3715,39.3200,84,95,457109
1.5396,0.3666,39.2800,84,95,457112
1.5249,0.3763,39.2500,84,95,457115
1.4858,0.3715,39.2800,84,95,457119
1.4858,0.3812,39.0300,84,95,457122
1.4614,0.3763,39.2200,84,95,457125
1.4125,0.3715,39.2500,84,95,457128
1.4223,0.3763,39.2200,84,95,457133
1.3930,0.3715,39.2800,84,95,457136
1.4223,0.4203,39.0000,84,95,457139
1.3734,0.3812,39.1900,84,95,457143
1.3392,0.3666,39.2200,84,95,457146
1.3294,0.3470,39.2800,84,95,457149
1.3245,0.3715,39.2800,84,95,457153
1.3587,0.3861,39.1200,84,95,457156
1.3343,0.3715,39.3500,84,95,457159
1.3490,0.3715,39.1600,84,95,457163
1.3539,0.3715,39.2800,84,95,457166
1.3734,0.3763,39.2800,84,95,457169
1.4076,0.3763,39.2800,84,95,457174
1.3978,0.3910,39.2800,84,95,457177
1.4076,0.3763,39.1900,84,95,457180
1.3734,0.3959,39.2500,84,95,457183
1.3636,0.3666,39.2800,84,95,457187
1.3978,0.3812,39.2200,84,95,457190
1.3881,0.3715,39.2800,84,95,457193
1.3978,0.3763,39.2800,84,95,457197
1.3881,0.3763,39.1900,84,95,457200
1.3294,0.3715,39.2800,84,95,457203
1.3245,0.3812,39.1900,84,95,457207
1.2708,0.3715,39.3200,84,95,457210
1.2659,0.3910,39.0300,84,95,457213
1.2170,0.3617,39.2200,84,95,457218
1.2659,0.3715,38.4900,84,95,457221
1.3930,0.3666,39.2500,84,95,457224
1.5738,0.3715,39.3200,84,95,457228
1.8915,0.4008,39.0300,84,95,457231
2.1065,0.3763,39.2200,84,95,457234
2.2043,0.3666,39.2200,84,95,457237
2.1848,0.3763,39.2800,84,95,457241
2.0821,0.3715,39.3800,84,95,457244
2.0528,0.3861,39.1200,84,95,457247
1.9550,0.3715,39.2800,84,95,457251
1.8524,0.3715,39.1900,84,95,457254
1.7351,0.3715,39.2800,84,95,457257
1.6276,0.3715,39.2500,84,95,457262
1.5689,0.3812,39.1200,84,95,457265
1.4761,0.4154,39.3200,84,95,457268
1.4565,0.3812,39.1600,84,95,457272
1.4027,0.3666,39.2500,84,95,457275
1.3734,0.3763,39.3200,84,95,457278
1.3587,0.3763,39.0900,84,95,457282
1.3343,0.3763,39.3200,84,95,457285
1.3441,0.3763,39.1200,84,95,457288
1.3490,0.3763,39.3200,84,95,457291
1.3490,0.3470,39.2800,84,95,457295
1.3392,0.3763,39.2200,84,95,457298
1.3148,0.3763,39.2800,84,95,457302
1.3294,0.3812,39.0600,84,95,457306
1.3050,0.3715,39.2500,84,95,457309
1.3001,0.3715,39.2800,84,95,457312
1.3001,0.3715,39.2500,84,95,457316
1.3050,0.3715,39.2500,84,95,457319
1.3050,0.3861,39.0000,84,95,457322
1.2708,0.3763,39.3200,84,95,457326
1.2659,0.3812,39.2800,84,95,457329
1.2903,0.3715,39.2500,84,95,457332
1.2952,0.3666,38.4900,84,95,457335
1.3392,0.3861,39.1200,84,95,457339
1.3148,0.3763,39.2200,84,95,457342
1.3490,0.3715,39.1900,84,95,457346
1.3294,0.3715,39.3800,84,95,457350
1.3441,0.3763,39.2800,84,95,457353
1.3783,0.3763,39.1900,84,95,457356
1.3636,0.3910,39.2800,84,95,457360
1.3783,0.3666,39.1200,84,95,457363
1.3685,0.3715,39.2200,84,95,457366
1.3783,0.3470,39.2800,84,95,457370
1.3978,0.3715,39.3200,84,95,457373
1.3978,0.3666,39.2800,84,95,457376
1.4223,0.3715,39.1600,84,95,457380
1.4076,0.3666,39.2800,84,95,457383
1.4174,0.3715,39.2800,84,95,457387
1.4418,0.3812,39.2200,84,95,457390
1.4467,0.3715,39.3200,84,95,457394
1.5200,0.3861,39.0300,84,95,457397
1.4761,0.3763,39.1900,84,95,457400
1.4516,0.3715,39.2200,84,95,457404
1.4614,0.3812,39.2500,84,95,457407
1.4761,0.3715,39.2800,84,95,457410
1.5298,0.3861,39.0300,84,95,457414
1.5103,0.3763,39.1900,84,95,457417
1.4907,0.3715,39.2500,84,95,457420
1.4761,0.3715,39.3200,84,95,457424
1.4614,0.3666,39.2800,84,95,457427
1.5005,0.3861,38.4600,84,95,457431
1.4712,0.3763,39.2200,84,95,457435
1.4712,0.3715,39.1900,84,95,457438
1.4516,0.3715,39.2800,84,95,457441
1.4467,0.3715,39.4100,84,95,457445
1.4761,0.3763,39.2200,84,95,457448
1.4712,0.3715,39.3500,84,95,457451
1.5005,0.3861,39.1600,84,95,457455
1.4712,0.3715,39.2800,84,95,457458
1.4516,0.3666,39.2800,84,95,457461
1.4663,0.3812,39.2200,84,95,457464
1.4565,0.3715,39.2500,84,95,457468
1.4809,0.3763,39.1200,84,95,457472
1.4858,0.3910,39.1600,84,95,457475
1.4809,0.3715,39.2800,84,95,457479
1.4761,0.3812,39.1600,84,95,457482
1.4516,0.3666,39.3200,84,95,457485
1.4858,0.3812,39.1200,84,95,457489
1.4858,0.3715,39.1900,84,95,457492
1.5103,0.3666,39.2800,84,95,457495
1.5396,0.3666,39.2500,84,95,457499
1.5298,0.3715,39.1200,84,95,457502
1.5982,0.3910,39.0300,84,95,457505
1.5738,0.3763,39.2200,84,95,457509
1.5934,0.3763,39.2200,84,95,457512
1.6276,0.3715,39.2800,84,95,457516
1.6520,0.3763,39.2800,84,95,457520
1.6667,0.3861,39.1200,84,95,457523
1.6325,0.3763,39.2500,84,95,457526
1.6471,0.3715,39.1900,84,95,457529
1.6471,0.3812,39.2800,84,95,457533
1.6569,0.3715,39.2800,84,95,457536
1.6716,0.3861,39.0900,84,95,457539
1.6178,0.3715,39.2800,84,95,457543
1.6129,0.3812,39.1600,84,95,457546
1.5787,0.3666,39.2200,84,95,457549
1.5738,0.3715,39.2800,84,95,457553
1.5689,0.3666,39.1600,84,95,457556
1.5494,0.3666,39.2800,84,95,457560
1.5543,0.3666,39.0900,84,95,457564
1.5298,0.3763,39.3500,84,95,457567
1.5200,0.3910,39.2800,84,95,457570
1.5347,0.3812,39.1900,84,95,457574
1.5054,0.3715,39.2800,84,95,457577
1.5152,0.3812,39.0300,84,95,457580
1.4614,0.3715,39.1600,84,95,457583
1.4467,0.3715,39.2800,84,95,457587
1.4516,0.3715,39.2200,84,95,457590
1.4418,0.3666,39.2800,84,95,457593
1.4809,0.3910,39.0000,84,95,457597
1.4370,0.3763,39.2200,84,95,457601
1.4174,0.3666,39.2500,84,95,457604
1.4027,0.3666,39.3200,84,95,457608
1.3881,0.3715,39.2800,84,95,457611
1.4027,0.3812,39.1200,84,95,457614
1.3734,0.3715,39.2500,84,95,457618
1.3539,0.3715,39.1600,84,95,457621
1.3148,0.3715,39.2800,84,95,457624
1.3148,0.3715,39.3200,84,95,457628
1.3783,0.3666,39.1900,84,95,457631
1.3392,0.3715,39.3500,84,95,457634
1.3636,0.3861,39.1900,84,95,457638
1.3392,0.3666,39.3500,84,95,457641
1.3392,0.3715,39.2800,84,95,457645
1.3539,0.3763,39.2200,84,95,457648
1.3587,0.3666,39.2200,84,95,457652
1.3930,0.3812,39.0900,84,95,457655
1.3587,0.3861,39.3200,84,95,457658
1.3587,0.3715,39.2800,84,95,457662
1.3734,0.3763,39.1900,84,95,457665
1.3685,0.3715,39.2800,84,95,457668
1.4223,0.3959,39.1200,84,95,457672
1.4125,0.3763,39.2200,84,95,457675
1.3930,0.3666,39.2800,84,95,457678
1.3783,0.3763,39.2500,84,95,457682
1.3539,0.3715,39.2200,84,95,457686
1.3881,0.3910,39.0600,84,95,457689
1.3636,0.3763,39.3200,84,95,457693
1.3441,0.3715,39.1900,84,95,457696
1.3343,0.3715,39.2800,84,95,457699
1.3196,0.4057,39.2800,84,95,457702
1.3734,0.3812,39.1600,84,95,457706
1.3294,0.3715,38.4900,84,95,457709
1.3490,0.3910,39.1900,84,95,457712
1.3343,0.3715,39.2800,84,95,457716
1.3050,0.3715,39.4800,84,95,457719
1.3148,0.3666,39.2800,84,95,457723
1.3294,0.3763,39.1900,84,95,457726
1.3148,0.3617,39.2800,84,95,457730
1.3441,0.3812,39.1200,84,95,457734
1.3392,0.3763,39.1600,84,95,457737
1.3343,0.3715,39.2800,84,95,457740
1.3490,0.3763,39.2200,84,95,457744
1.3196,0.3666,39.2800,84,95,457747
1.3441,0.3861,38.9600,84,95,457750
1.3294,0.3812,39.1900,84,95,457754
1.3343,0.3666,39.2500,84,95,457757
1.3587,0.3715,39.2500,84,95,457760
1.3685,0.3666,39.3200,84,95,457764
1.4027,0.3959,39.1200,84,95,457767
1.3783,0.3763,39.2800,84,95,457771
1.3881,0.3715,38.4300,84,95,457774
1.4076,0.3715,39.2500,84,95,457778
1.4076,0.3715,39.2800,84,95,457781
1.4370,0.3763,39.1900,84,95,457784
1.3881,0.3715,39.2800,84,95,457788
1.3930,0.3812,39.1200,84,95,457791
1.3734,0.3715,39.2800,84,95,457794
1.3930,0.3715,39.3500,84,95,457798
1.4418,0.3812,39.1600,84,95,457801
1.4370,0.3763,39.2800,84,95,457804
1.4418,0.3763,39.1600,84,95,457808
1.4027,0.3861,39.1900,84,95,457811
1.3734,0.3715,39.2800,84,95,457815
1.3783,0.3861,39.1600,84,95,457819
1.3490,0.3666,39.2800,84,95,457822
1.3587,0.3812,39.0600,84,95,457825
1.3148,0.3715,39.2200,84,95,457828
1.2903,0.3666,39.3200,84,95,457832
1.2952,0.3763,39.2500,84,95,457835
1.3001,0.3763,39.2800,84,95,457838
1.3050,0.3861,39.0000,84,95,457842
1.2610,0.4057,39.2500,84,95,457845
1.2463,0.3617,39.2800,84,95,457848
1.2366,0.3715,39.3500,84,95,457852
1.2317,0.3715,39.2800,84,95,457856
1.2903,0.3861,39.3500,84,95,457859
1.2757,0.3715,39.2500,84,95,457863
1.2708,0.3715,39.1900,84,95,457866
1.2610,0.3666,39.2800,84,95,457869
1.2512,0.3715,39.2800,84,95,457873
1.2903,0.3910,39.1200,84,95,457876
1.2903,0.3715,39.2800,84,95,457879
1.3148,0.3763,39.1200,84,95,457882
1.2952,0.3715,39.2500,84,95,457886
1.2952,0.3666,39.2800,84,95,457889
1.3001,0.3715,39.1600,84,95,457892
1.3001,0.3666,39.2800,84,95,457896
1.3245,0.3715,39.1600,84,95,457900
1.3099,0.3666,39.2500,84,95,457903
1.2805,0.3715,39.2800,84,95,457907
1.2854,0.3715,39.1900,84,95,457910
1.2268,0.3715,39.2800,84,95,457913
1.2317,0.3812,39.0600,84,95,457917
1.1730,0.3715,39.2500,84,95,457920
1.1290,0.3715,39.3500,84,95,457923
1.1046,0.3763,39.2500,84,95,457926
1.1193,0.3715,39.2800,84,95,457930
1.2659,0.3861,39.0600,84,95,457933
1.4321,0.3763,39.2200,84,95,457936
1.6911,0.3666,39.3500,84,95,457940
1.9306,0.3763,39.2800,84,95,457944
2.0332,0.3666,39.3500,84,95,457947
2.0723,0.3910,39.0900,84,95,457951
1.9697,0.3812,39.2200,84,95,457954
1.8817,0.3715,39.1600,84,95,457957
1.7840,0.3666,39.2800,84,95,457961
1.6764,0.3666,39.3200,84,95,457964
1.5885,0.3910,39.1900,84,95,457967
1.4614,0.3715,39.2500,84,95,457971
1.4027,0.3959,39.1600,84,95,457974
1.3294,0.3715,39.2800,84,95,457977
1.2903,0.3666,39.2800,84,95,457980
1.2708,0.3715,39.2200,84,95,457985
1.2414,0.3715,39.2800,84,95,457988
1.2512,0.3812,39.1600,84,95,457991
1.2366,0.3715,39.2200,84,95,457995
1.2512,0.3715,39.2800,84,95,457998
1.2903,0.3763,39.1900,84,95,458001
1.2952,0.3763,39.2800,84,95,458005
1.3001,0.3763,39.0900,84,95,458008
1.2952,0.3763,39.2200,84,95,458011
1.3050,0.3666,39.3200,84,95,458015
1.3490,0.3812,39.2500,84,95,458018
1.3343,0.3666,39.2800,84,95,458021
1.3685,0.3666,39.0300,84,95,458025
1.3343,0.3763,39.1600,84,95,458029
1.3343,0.3470,39.2800,84,95,458032
1.3441,0.3763,39.2500,84,95,458035
1.3587,0.3763,39.3200,84,95,458039
1.4272,0.3910,39.0600,84,95,458042
1.4076,0.4008,39.2200,84,95,458045
1.4027,0.3617,39.2200,84,95,458049
1.4027,0.3715,39.2500,84,95,458052
1.4125,0.3763,39.3200,84,95,458055
1.4614,0.3812,39.2500,84,95,458059
1.4467,0.3763,39.2500,84,95,458062
1.4663,0.3470,39.1600,84,95,458065
1.4370,0.3763,39.3200,84,95,458070
1.4467,0.3715,39.2800,84,95,458073
1.4809,0.3861,39.1200,84,95,458076
1.4614,0.3715,39.2500,84,95,458080
1.4907,0.4106,39.1600,84,95,458083
1.4614,0.3715,39.2200,84,95,458086
1.4418,0.3715,39.3200,84,95,458089
1.4516,0.3763,39.1600,84,95,458093
1.4516,0.3715,39.2800,84,95,458096
1.5005,0.3763,39.0900,84,95,458099
1.4956,0.3763,39.2800,84,95,458103
1.4907,0.3715,39.2800,84,95,458106
1.4956,0.3666,39.2200,84,95,458109
1.4663,0.3715,39.1600,84,95,458114
1.5494,0.3861,39.0300,84,95,458117
1.5005,0.3715,39.2200,84,95,458120
1.5005,0.3763,39.3200,84,95,458124
1.5054,0.3763,39.2500,84,95,458127
1.4956,0.3959,39.3200,84,95,458130
1.5591,0.3861,39.0600,84,95,458134
1.5396,0.3763,39.3200,84,95,458137
1.5494,0.3715,39.2200,84,95,458140
1.5494,0.3715,39.2200,84,95,458143
1.5396,0.3812,39.2800,84,95,458147
1.5738,0.3861,39.1200,84,95,458150
1.5543,0.3763,39.2800,84,95,458153
1.5787,0.3763,39.2200,84,95,458158
1.5689,0.3763,39.2800,84,95,458161
1.5738,0.3470,39.2800,84,95,458164
1.5885,0.3812,39.2200,84,95,458168
1.5640,0.3666,39.2800,84,95,458171
1.5934,0.3666,39.1900,84,95,458174
1.5738,0.3861,39.2500,84,95,458178
1.5885,0.3666,39.2800,84,95,458181
1.6031,0.3763,39.1900,84,95,458184
1.6080,0.3715,39.2800,84,95,458188
1.6227,0.3763,39.1200,84,95,458191
1.6520,0.3715,39.2800,84,95,458194
1.6569,0.3715,39.3200,84,95,458198
1.7058,0.3861,39.2200,84,95,458202
1.7107,0.3715,39.3200,84,95,458205
1.7644,0.3910,39.0300,84,95,458208
1.7693,0.3666,39.1900,84,95,458212
1.7693,0.3715,39.2200,84,95,458215
1.8035,0.3763,39.2800,84,95,458218
1.7986,0.3715,38.7700,84,95,458222
1.8426,0.4008,39.0600,84,95,458225
1.8084,0.3812,39.1900,84,95,458228
1.7889,0.3715,39.2200,84,95,458232
1.7986,0.3812,39.2800,84,95,458235
1.8133,0.3715,39.3500,84,95,458238
1.8817,0.3812,39.1200,84,95,458243
1.8182,0.3763,39.2500,84,95,458246
1.8084,0.3959,39.1600,84,95,458249
1.7840,0.3715,39.2800,84,95,458252
1.7791,0.3666,39.2800,84,95,458256
1.7986,0.3763,39.2200,84,95,458259
1.7791,0.3763,39.2800,84,95,458262
1.8084,0.3666,39.1900,84,95,458266
1.7546,0.3763,39.2800,84,95,458269
1.7889,0.3715,39.2800,84,95,458272
1.7937,0.3812,39.2200,84,95,458276
1.7693,0.3715,39.2800,84,95,458279
1.7937,0.3763,38.4600,84,95,458283
1.7693,0.3910,39.1900,84,95,458287
1.7400,0.3715,39.2800,84,95,458290
1.7546,0.3861,39.1600,84,95,458293
1.7498,0.3666,39.2800,84,95,458297
1.7986,0.3861,39.2200,84,95,458300
1.7791,0.3763,39.1900,84,95,458303
1.7742,0.3715,39.3500,84,95,458306
1.7840,0.3861,39.2500,84,95,458310
1.7840,0.3666,39.2800,84,95,458313
1.8475,0.3959,39.0600,84,95,458316
1.8182,0.3715,39.2500,84,95,458320
1.8231,0.3715,39.1600,84,95,458323
1.8280,0.3666,39.2800,84,95,458327
1.8231,0.3715,39.2800,84,95,458332
1.8231,0.3715,39.2500,84,95,458335
1.8475,0.3861,39.1600,84,95,458339
1.8182,0.3763,39.2500,84,95,458342
1.8426,0.3763,39.1200,84,95,458345
1.8377,0.3812,39.1900,84,95,458349
1.8231,0.3715,39.2800,84,95,458352
1.8328,0.3812,39.1900,84,95,458355
1.8035,0.3715,39.2800,84,95,458359
1.8475,0.3812,39.1900,84,95,458362
1.8231,0.3715,39.1900,84,95,458365
1.8231,0.3763,39.2800,84,95,458370
1.8231,0.3666,39.2500,84,95,458373
1.8035,0.3715,39.2800,84,95,458376
1.8524,0.3910,39.0000,84,95,458380
1.8182,0.3812,39.1200,84,95,458383
1.8182,0.3763,39.2500,84,95,458386
1.8182,0.3763,39.2500,84,95,458389
1.7937,0.3763,39.2800,84,95,458393
1.8231,0.3910,39.1200,84,95,458396
1.7742,0.3861,39.2200,84,95,458399
1.8084,0.3812,39.1900,84,95,458403
1.7791,0.3812,39.2800,84,95,458406
1.7791,0.3666,39.2800,84,95,458409
1.8035,0.3812,39.2200,84,95,458414
1.7644,0.3763,39.2800,84,95,458417
1.7791,0.3812,39.0900,84,95,458420
1.7693,0.3715,39.2500,84,95,458424
1.7840,0.3715,39.2800,84,95,458427
1.8035,0.3812,39.1900,84,95,458430
1.7791,0.3666,39.2800,84,95,458434
1.7840,0.3763,39.1200,84,95,458437
1.7644,0.3763,39.1900,84,95,458440
1.7498,0.3715,39.2800,84,95,458443
1.7644,0.3861,39.2200,84,95,458447
1.7498,0.3812,39.2800,84,95,458450
1.7644,0.3812,39.0300,84,95,458454
1.7253,0.3812,39.2500,84,95,458458
1.7253,0.3715,39.2800,84,95,458461
1.7644,0.3812,39.3200,84,95,458464
1.7498,0.3715,39.3200,84,95,458468
1.7937,0.3959,39.0000,84,95,458471
1.7498,0.3812,39.1900,84,95,458474
1.7155,0.3715,39.2800,84,95,458478
1.7204,0.3763,39.2800,84,95,458481
1.7155,0.3715,39.2500,84,95,458484
1.7693,0.3910,39.0900,84,95,458488
1.7253,0.3812,39.2200,84,95,458491
1.7155,0.3763,39.1600,84,95,458494
1.7009,0.3763,39.2800,84,95,458498
1.7107,0.3763,39.2800,84,95,458502
1.7595,0.3812,39.1900,84,95,458505
1.7644,0.3763,39.2800,84,95,458508
1.7840,0.3910,39.1200,84,95,458512
1.7498,0.3763,39.3200,84,95,458515
1.7155,0.3763,39.2800,84,95,458518
1.6960,0.3715,39.2200,84,95,458522
1.6813,0.3763,39.3500,84,95,458525
1.7009,0.3959,39.1600,84,95,458528
1.6618,0.3715,39.3800,84,95,458532
1.6422,0.3715,39.2800,84,95,458535
1.6422,0.3812,39.1900,84,95,458539
1.6129,0.3666,39.2800,84,95,458543
1.6520,0.3812,39.0600,84,95,458546
1.6373,0.4008,39.1600,84,95,458549
1.6227,0.3715,39.3200,84,95,458552
1.6178,0.3861,39.2200,84,95,458556
1.5885,0.3763,39.2800,84,95,458559
1.6422,0.3910,38.4600,84,95,458562
1.6227,0.3666,39.1900,84,95,458566
1.6129,0.3715,39.3800,84,95,458569
1.6031,0.3763,39.2500,84,95,458572
1.5885,0.3470,39.2800,84,95,458576
1.6373,0.3959,38.9000,84,95,458579
1.6178,0.3861,39.2500,84,95,458583
1.6471,0.3715,39.2200,84,95,458587
1.6667,0.3959,39.3200,84,95,458590
1.6764,0.3715,39.2800,84,95,458593
1.7107,0.3959,39.2200,84,95,458597
1.7107,0.3666,39.2800,84,95,458600
1.7449,0.3812,39.1600,84,95,458603
1.7449,0.3763,39.2800,84,95,458606
1.7498,0.3715,39.2800,84,95,458610
1.7693,0.3861,39.1600,84,95,458613
1.7155,0.3715,39.2800,84,95,458616
1.7302,0.3763,39.1600,84,95,458620
1.6960,0.3763,39.2800,84,95,458624
1.6520,0.3812,39.2800,84,95,458627
1.6178,0.3812,39.1200,84,95,458631
1.5836,0.3910,39.3200,84,95,458634
1.6520,0.3812,39.0600,84,95,458637
1.7742,0.3715,39.3200,84,95,458641
1.9844,0.3763,39.2800,84,95,458644
2.2776,0.3812,39.2500,84,95,458647
2.4878,0.4154,39.2800,84,95,458651
2.6784,0.3910,39.0300,84,95,458654
2.5855,0.3763,39.1600,84,95,458657
2.5122,0.3715,39.3200,84,95,458660
2.4536,0.3763,39.2800,84,95,458664
2.3656,0.4106,39.2800,84,95,458668
2.3216,0.3861,39.0900,84,95,458671
2.1505,0.3763,39.2500,84,95,458675
2.0430,0.3715,39.1900,84,95,458678
1.9697,0.3763,39.2800,84,95,458681
1.9257,0.3715,39.2800,84,95,458685
1.9355,0.3861,39.1200,84,95,458688
1.8768,0.3715,39.2800,84,95,458691
1.8866,0.3812,39.1600,84,95,458695
1.8475,0.3763,39.2500,84,95,458698
1.8768,0.3763,39.2800,84,95,458701
1.9062,0.3812,38.8700,84,95,458705
1.9013,0.3861,39.2800,84,95,458708
1.9404,0.3812,39.1600,84,95,458712
1.9013,0.3763,39.2200,84,95,458715
1.9062,0.3715,39.2800,84,95,458719
1.9355,0.3812,39.4400,84,95,458722
1.9453,0.3763,39.2800,84,95,458725
1.9990,0.3812,39.0900,84,95,458729
1.9844,0.3715,39.2500,84,95,458732
1.9795,0.3763,39.2800,84,95,458735
2.0039,0.3812,39.2500,84,95,458739
2.0039,0.3470,39.2800,84,95,458742
2.0821,0.3861,39.0300,84,95,458745
2.0528,0.3812,39.2200,84,95,458749
2.0479,0.3763,39.3200,84,95,458753
2.0577,0.3763,39.4100,84,95,458756
2.0577,0.3763,39.3200,84,95,458759
2.1408,0.3959,39.0600,84,95,458763
2.1212,0.3812,39.3800,84,95,458766
2.1065,0.3812,39.2200,84,95,458769
2.1065,0.3763,39.2800,84,95,458773
2.1017,0.3763,39.1600,84,95,458776
2.1505,0.3910,39.1200,84,95,458779
2.1261,0.3812,39.2800,84,95,458783
2.1505,0.3910,39.1600,84,95,458786
2.1310,0.3763,39.2800,84,95,458789
2.1212,0.3763,39.2800,84,95,458793
2.1408,0.3861,39.2500,84,95,458797
2.1212,0.3763,39.3200,84,95,458800
2.1603,0.3763,39.1600,84,95,458803
2.1408,0.3763,39.2800,84,95,458807
2.1457,0.4106,39.2800,84,95,458810
2.1750,0.3861,39.1900,84,95,458813
2.1408,0.3715,39.2800,84,95,458817
2.1848,0.3763,39.0900,84,95,458820
2.1750,0.3812,39.1900,84,95,458823
2.1799,0.3763,39.2800,84,95,458827
2.2043,0.3861,39.1900,84,95,458830
2.1750,0.3763,39.2800,84,95,458833
2.2092,0.3910,39.0300,84,95,458838
2.1701,0.3763,39.1900,84,95,458841
2.1701,0.3812,39.2500,84,95,458844
2.1799,0.3812,39.2500,84,95,458847
2.1652,0.3763,39.3800,84,95,458851
2.2092,0.3959,39.0000,84,95,458854
2.1554,0.3812,39.1900,84,95,458857
2.1505,0.3715,39.2500,84,95,458861
2.1603,0.3812,39.3200,84,95,458864
2.1603,0.3763,39.2800,84,95,458867
2.2092,0.4106,39.0900,84,95,458871
2.1505,0.3763,39.2500,84,95,458874
2.1457,0.3763,39.1900,84,95,458877
2.1310,0.3812,39.2800,84,95,458882
2.1457,0.3715,39.4100,84,95,458885
2.2190,0.3861,39.1200,84,95,458888
2.1505,0.3763,39.3500,84,95,458892
2.1554,0.3812,39.1600,84,95,458895
2.1212,0.3666,39.2800,84,95,458898
2.1261,0.3763,39.2500,84,95,458901
2.1945,0.3812,39.1900,84,95,458905
2.1505,0.3763,39.2800,84,95,458908
2.1750,0.3763,39.1600,84,95,458911
2.1457,0.3470,39.2200,84,95,458915
2.1554,0.3763,39.2500,84,95,458918
2.2043,0.3763,39.1900,84,95,458921
2.2043,0.3666,39.2800,84,95,458926
2.2630,0.3812,39.0300,84,95,458929
2.2287,0.3470,39.2200,84,95,458932
2.2336,0.3763,39.2800,84,95,458936
2.2630,0.3861,39.2200,84,95,458939
2.2532,0.3763,39.2500,84,95,458944
2.2434,0.3763,39.3500,84,95,458947
2.2923,0.3910,39.1200,84,95,458950
2.2532,0.3763,38.6500,84,95,458954
2.2434,0.4057,39.1600,84,95,458957
2.2043,0.3763,39.2800,84,95,458960
2.1750,0.3763,39.3200,84,95,458963
2.1994,0.3763,39.1900,84,95,458968
2.1701,0.3763,39.3200,84,95,458971
2.1994,0.3812,39.1600,84,95,458974
2.1652,0.3812,39.2500,84,95,458978
2.1457,0.3763,39.4800,84,95,458981
2.1554,0.3763,39.1900,84,95,458984
2.1457,0.3763,39.2800,84,95,458988
2.1848,0.3861,39.1200,84,95,458991
2.1750,0.3763,39.2800,84,95,458994
2.1848,0.3910,39.2800,84,95,458998
2.2092,0.3861,39.1900,84,95,459001
2.1750,0.4057,39.2800,84,95,459004
2.2239,0.3910,39.0600,84,95,459008
2.2141,0.3812,39.2200,84,95,459012
2.2092,0.3763,39.3200,84,95,459015
2.2336,0.3812,39.2200,84,95,459018
2.1994,0.3763,39.3500,84,95,459022
2.2434,0.3959,38.9600,84,95,459025
2.2092,0.3861,39.1900,84,95,459028
2.1994,0.3763,39.2200,84,95,459032
2.1994,0.3763,39.2800,84,95,459035
2.1896,0.3763,39.3800,84,95,459038
2.2287,0.3861,39.1900,84,95,459042
2.1652,0.3812,39.3200,84,95,459045
2.1750,0.3763,39.1900,84,95,459048
2.1994,0.3666,39.3200,84,95,459052
2.1848,0.3763,39.3500,84,95,459056
2.2190,0.3666,39.1900,84,95,459059
2.1701,0.3763,39.2800,84,95,459062
2.1848,0.3812,39.1600,84,95,459066
2.1603,0.3763,39.2800,84,95,459069
2.1701,0.3715,39.2200,84,95,459072
2.2092,0.3861,39.1900,84,95,459076
2.1750,0.3763,39.2500,84,95,459079
2.1896,0.3812,39.1600,84,95,459082
2.1554,0.3763,39.1900,84,95,459086
2.1457,0.3763,39.3200,84,95,459089
2.1701,0.3812,39.1900,84,95,459092
2.1408,0.3959,39.2800,84,95,459097
2.1603,0.3910,39.0600,84,95,459100
2.1114,0.3763,39.2200,84,95,459103
2.0919,0.3763,39.3500,84,95,459106
2.1163,0.3763,39.2200,84,95,459110
2.1114,0.3763,39.2800,84,95,459113
2.1701,0.3910,38.9600,84,95,459116
2.1212,0.3763,39.1900,84,95,459120
2.0968,0.3715,39.2200,84,95,459123
2.1212,0.3763,39.2500,84,95,459126
2.1065,0.3763,39.2800,84,95,459130
2.1945,0.3910,39.0900,84,95,459133
2.1505,0.3812,39.2500,84,95,459137
2.1359,0.3763,38.5800,84,95,459141
2.1310,0.3763,39.2500,84,95,459144
2.1310,0.3763,39.3200,84,95,459147
2.1848,0.3910,39.1200,84,95,459150
2.1652,0.3812,39.4100,84,95,459154
2.1848,0.3861,39.1600,84,95,459157
2.1652,0.3763,39.1900,84,95,459160
2.1701,0.4008,39.2500,84,95,459164
2.2287,0.3861,39.1900,84,95,459167
2.2141,0.3763,39.2800,84,95,459170
2.2678,0.3861,39.1600,84,95,459174
2.2434,0.3763,39.2500,84,95,459177
2.2385,0.3763,39.3200,84,95,459181
2.2483,0.3666,39.1900,84,95,459185
2.2287,0.3763,39.2800,84,95,459188
2.2678,0.3812,39.0900,84,95,459191
2.2336,0.3763,39.2500,84,95,459194
2.2385,0.3763,39.4100,84,95,459198
2.2483,0.3861,39.2200,84,95,459201
2.2043,0.3763,39.3500,84,95,459204
2.2581,0.3959,39.0000,84,95,459208
2.2678,0.3666,39.2200,84,95,459211
2.2483,0.3763,39.2800,84,95,459214
2.2727,0.3812,39.2200,84,95,459218
2.2483,0.3763,39.2800,84,95,459222
2.2727,0.3959,39.1600,84,95,459225
2.2043,0.3861,39.1900,84,95,459229
2.1652,0.3715,39.2200,84,95,459232
2.1505,0.3861,39.2800,84,95,459235
2.1359,0.3715,39.2800,84,95,459238
2.1457,0.3861,39.1900,84,95,459242
2.1017,0.3812,39.2500,84,95,459245
2.0626,0.3763,39.1900,84,95,459248
2.0381,0.3763,39.2500,84,95,459252
2.0332,0.3763,39.2800,84,95,459255
2.0430,0.3861,39.1900,84,95,459258
1.9990,0.3715,39.2800,84,95,459262
1.9990,0.3861,39.1200,84,95,459266
1.9648,0.3861,39.3200,84,95,459269
1.9648,0.3763,39.2800,84,95,459273
1.9844,0.3861,39.1900,84,95,459276
1.9453,0.3763,39.3500,84,95,459279
1.9550,0.3812,39.1200,84,95,459283
1.9355,0.3812,39.1900,84,95,459286
1.9110,0.3763,39.2800,84,95,459289
1.9404,0.3861,39.1900,84,95,459293
1.9208,0.3763,38.5500,84,95,459296
1.9550,0.4350,39.0600,84,95,459299
1.9110,0.3763,39.1900,84,95,459302
1.8964,0.3812,39.2800,84,95,459307
1.9159,0.3812,39.2200,84,95,459310
1.9062,0.3763,39.4800,84,95,459313
1.9599,0.3910,39.0300,84,95,459317
1.8915,0.3861,39.2200,84,95,459320
1.8377,0.3959,39.2500,84,95,459323
1.7986,0.3812,39.2800,84,95,459327
1.7742,0.3812,39.2800,84,95,459330
1.7400,0.3959,39.1600,84,95,459333
1.6471,0.3812,39.2500,84,95,459337
1.6325,0.3666,39.1900,84,95,459340
1.6764,0.3861,39.2800,84,95,459343
1.8280,0.3666,39.3200,84,95,459346
2.0674,0.3861,39.1200,84,95,459351
2.3118,0.3666,39.2500,84,95,459354
2.5415,0.3812,39.1600,84,95,459357
2.5464,0.3812,39.3200,84,95,459361
2.4682,0.3470,39.2800,84,95,459364
2.3998,0.3812,39.3800,84,95,459367
2.2923,0.3861,39.3500,84,95,459371
2.2483,0.3812,39.1600,84,95,459374
2.1163,0.4057,39.2200,84,95,459377
1.9941,0.3470,39.2500,84,95,459381
1.9208,0.3812,39.1900,84,95,459384
1.8475,0.3812,39.2800,84,95,459387
1.8475,0.3861,39.0900,84,95,459392
1.7840,0.3715,39.2500,84,95,459395
1.7742,0.3763,39.2800,84,95,459398
1.7693,0.3959,39.1900,84,95,459401
1.7449,0.3763,39.2800,84,95,459405
1.8133,0.3910,39.0000,84,95,459408
1.7986,0.3763,39.2200,84,95,459411
1.8133,0.3715,39.2800,84,95,459415
1.8328,0.3861,39.2500,84,95,459418
1.8231,0.3763,39.2800,84,95,459421
1.8817,0.3959,39.1200,84,95,459425
1.8475,0.3861,39.2200,84,95,459428
1.8573,0.3861,39.1900,84,95,459431
1.8671,0.3763,39.2800,84,95,459436
1.8768,0.3763,39.2800,84,95,459439
1.9062,0.3910,39.1600,84,95,459442
1.8768,0.3812,38.9300,84,95,459446
1.9013,0.3959,39.1900,84,95,459449
1.8915,0.3763,39.3200,84,95,459452
1.8964,0.3763,39.2800,84,95,459455
1.9013,0.3763,39.2200,84,95,459459
1.8719,0.3763,39.2800,84,95,459462
1.9110,0.3666,39.1600,84,95,459465
1.8622,0.3812,39.2800,84,95,459469
1.8768,0.3763,39.3200,84,95,459472
1.8866,0.3812,39.0900,84,95,459475
1.8573,0.3666,39.2800,84,95,459480
1.8768,0.3861,39.1200,84,95,459483
1.8426,0.3812,39.2200,84,95,459486
1.8231,0.3763,39.2800,84,95,459490
1.8622,0.3763,39.2200,84,95,459493
1.8426,0.3763,39.2800,84,95,459496
1.8768,0.4106,39.0000,84,95,459500
1.8280,0.3861,39.1600,84,95,459503
1.7986,0.3763,39.2200,84,95,459506
1.8084,0.3763,39.2500,84,95,459509
1.7742,0.3763,39.2800,84,95,459513
1.8328,0.3910,39.1200,84,95,459516
1.7937,0.3812,39.2500,84,95,459520
1.7889,0.3763,39.1900,84,95,459524
1.7840,0.3812,39.2800,84,95,459527
1.7937,0.3812,39.2800,84,95,459530
1.8377,0.3861,39.2200,84,95,459534
1.8231,0.3763,39.2800,84,95,459537
1.8671,0.3861,39.1200,84,95,459540
1.8084,0.3763,39.2800,84,95,459544
1.8084,0.3763,39.2800,84,95,459547
1.8328,0.3861,39.2800,83,95,459550
1.8084,0.3861,39.4100,83,95,459555
1.7840,0.4008,39.2800,83,95,459558
1.8377,0.3910,39.0300,83,95,459563
1.7889,0.3812,39.1200,83,95,459566
1.7595,0.3715,39.3200,83,95,459569
1.7546,0.3812,39.2500,83,95,459573
1.7449,0.4106,39.2800,83,95,459576
1.8035,0.4008,39.0300,83,95,459579
1.7840,0.3861,39.3500,83,95,459582
1.7742,0.3715,39.2500,83,95,459586
1.7693,0.3812,39.2800,83,95,459589
1.7449,0.3812,39.2800,83,95,459592
1.7840,0.3959,39.1600,83,95,459596
1.7595,0.3812,39.2800,83,95,459599
1.7986,0.3910,39.1900,83,95,459602
1.7791,0.3763,39.2500,83,95,459607
1.7889,0.3812,39.2800,83,95,459610
1.8231,0.3910,39.2200,83,95,459613
1.8231,0.3812,39.2500,83,95,459617
1.8524,0.3861,39.1900,83,95,459620
1.8573,0.3812,39.3200,83,95,459623
1.8768,0.3763,39.2800,83,95,459627
1.9013,0.3763,39.1600,83,95,459630
1.8866,0.3812,39.2800,83,95,459633
1.9257,0.3812,39.1900,83,95,459636
1.9208,0.3812,39.2500,83,95,459640
1.9110,0.3763,39.3800,83,95,459643
1.9159,0.3959,39.2500,83,95,459646
1.8817,0.3666,39.2800,83,95,459651
1.9208,0.3910,39.1600,83,95,459654
1.8817,0.3666,39.2200,83,95,459657
1.8866,0.3763,39.0900,83,95,459661
1.9013,0.3861,39.2500,83,95,459664
1.8866,0.3763,39.2800,83,95,459667
1.9208,0.3959,39.0600,83,95,459671
1.8719,0.3959,39.1900,83,95,459674
1.8475,0.3763,39.2500,83,95,459677
1.8719,0.3763,39.2500,83,95,459680
1.8328,0.3763,39.2800,83,95,459684
1.8524,0.3910,39.1200,83,95,459687
1.7986,0.3812,39.2500,83,95,459691
1.7937,0.3812,39.1600,83,95,459695
1.7791,0.3812,39.2800,83,95,459698
1.7840,0.3763,39.2500,83,95,459701
1.8084,0.3910,39.1600,83,95,459705
1.7742,0.3763,39.2800,83,95,459708
1.7742,0.3959,39.1600,83,95,459711
1.7400,0.3763,39.2500,83,95,459715
1.7498,0.3763,39.3800,83,95,459718
1.7986,0.3666,39.2200,83,95,459721
1.7546,0.3763,39.4800,83,95,459725
1.7840,0.3910,39.1200,83,95,459728
1.7546,0.3812,39.2800,83,95,459731
1.7498,0.3861,39.2800,83,95,459735
1.7791,0.3910,39.1900,83,95,459739
1.7840,0.3763,39.3200,83,95,459742
1.8475,0.3861,39.0600,83,95,459745
1.8328,0.3812,39.2500,83,95,459749
1.8182,0.3812,39.2800,83,95,459752
1.8475,0.3861,39.1600,83,95,459755
1.8671,0.3763,39.2800,83,95,459759
1.9062,0.3959,39.0900,83,95,459762
1.8719,0.3910,39.1900,83,95,459765
1.8524,0.3470,39.2500,83,95,459769
1.8426,0.3812,39.1600,83,95,459772
1.8328,0.3812,39.2800,83,95,459776
1.8768,0.3959,39.0000,83,95,459780
1.8328,0.4154,39.2500,83,95,459783
1.8328,0.3812,39.1900,83,95,459786
1.8035,0.3763,39.2500,83,95,459789
1.7840,0.3763,39.2800,83,95,459793
1.7986,0.3861,39.2200,83,95,459796
1.8133,0.3666,39.2500,83,95,459799
1.8133,0.3861,39.1600,83,95,459803
1.7937,0.3763,39.2500,83,95,459806
1.7937,0.3763,39.2800,83,95,459809
1.8280,0.3910,39.1600,83,95,459813
1.7937,0.3812,39.2200,83,95,459816
1.8328,0.3910,39.1200,83,95,459820
1.8377,0.3812,39.1900,83,95,459824
1.8280,0.3763,39.2800,83,95,459827
1.8426,0.3861,39.1600,83,95,459830
1.8084,0.4154,39.2800,83,95,459834
1.8377,0.3910,39.0600,83,95,459837
1.8231,0.3763,39.3200,83,95,459840
1.8231,0.3763,39.3200,83,95,459843
1.8133,0.3812,39.4800,83,95,459847
1.7840,0.3763,39.2800,83,95,459850
1.8231,0.3959,39.0000,83,95,459853
1.7840,0.3812,39.1900,83,95,459857
1.7791,0.3763,39.2500,83,95,459860
1.8035,0.3812,39.2800,83,95,459864
1.7986,0.3763,39.3200,83,95,459868
1.8280,0.3959,39.0900,83,95,459871
1.7840,0.3861,39.2500,83,95,459874
1.8084,0.3812,39.1900,83,95,459878
1.7986,0.3812,39.3200,83,95,459881
1.8035,0.3763,39.2800,83,95,459884
1.8133,0.3910,39.1900,83,95,459888
1.7595,0.3812,39.2800,83,95,459891
1.7693,0.3861,39.1600,83,95,459894
1.7449,0.3715,39.2500,83,95,459897
1.7546,0.3812,39.2800,83,95,459901
1.7644,0.3763,39.1600,83,95,459905
1.7204,0.3812,39.2800,83,95,459908
1.7204,0.3812,39.2500,83,95,459912
1.7058,0.3861,39.2500,83,95,459915
1.6862,0.3812,39.3200,83,95,459918
1.7253,0.3812,39.1600,83,95,459922
1.7204,0.3812,39.3200,83,95,459925
1.7498,0.3861,39.4100,83,95,459928
1.6862,0.3812,39.2500,83,95,459932
1.6471,0.3812,39.2500,83,95,459935
1.6325,0.3861,39.2500,83,95,459938
1.6031,0.3812,39.3200,83,95,459942
1.6373,0.3959,39.0000,83,95,459945
1.5836,0.3861,39.2500,83,95,459949
1.5396,0.3763,39.2800,83,95,459952
1.5298,0.3861,39.2500,83,95,459956
1.5152,0.3812,39.2800,83,95,459959
1.5640,0.3959,39.0900,83,95,459962
1.5298,0.3861,39.2500,83,95,459966
1.5152,0.3812,39.1900,83,95,459969
1.4956,0.3812,39.2500,83,95,459972
1.4858,0.3861,39.2800,83,95,459976
1.5152,0.3910,39.1600,83,95,459979
1.5005,0.3812,39.2800,83,95,459982
1.5054,0.3861,39.1600,83,95,459986
1.4761,0.3812,39.2800,83,95,459990
1.4712,0.3715,39.2800,83,95,459993
1.4956,0.3812,38.5500,83,95,459997
1.5005,0.3763,39.2800,83,95,460000
1.5445,0.3763,39.1600,83,95,460003
1.5103,0.4008,39.2800,83,95,460006
1.5103,0.3861,39.3200,83,95,460010
1.5249,0.3861,39.1900,83,95,460013
1.5152,0.3861,39.2800,83,95,460016
1.5640,0.3861,39.0600,83,95,460020
1.5640,0.3861,39.1900,83,95,460023
1.5396,0.3959,39.2800,83,95,460026
1.5396,0.3861,39.2200,83,95,460030
1.4956,0.3812,39.3200,83,95,460034
1.5249,0.3910,39.0000,83,95,460037
1.4663,0.3861,39.1200,83,95,460041
1.4223,0.3763,39.3200,83,95,460044
1.3881,0.3812,39.4400,83,95,460047
1.3978,0.3812,39.2800,83,95,460050
1.5347,0.4008,39.0900,83,95,460054
1.6813,0.3861,39.1200,83,95,460057
1.9404,0.3812,39.2200,83,95,460060
2.1945,0.3812,39.2800,83,95,460064
2.3314,0.3763,39.2800,83,95,460067
2.3803,0.3959,39.1900,83,95,460070
2.2825,0.3812,39.2800,83,95,460075
2.2287,0.3910,39.1600,83,95,460078
2.1310,0.3812,39.2500,83,95,460081
2.0283,0.3861,39.3200,83,95,460085
1.9453,0.3861,39.1600,83,95,460088
1.8084,0.3812,39.2500,83,95,460091
1.7449,0.3910,39.1900,83,95,460095
1.6716,0.3763,39.2200,83,95,460098
1.6422,0.3763,39.2800,83,95,460101
1.6422,0.4106,39.1200,83,95,460104
1.6031,0.3812,39.3200,83,95,460108
1.6080,0.3861,39.1600,83,95,460111
1.5787,0.3910,39.2500,83,95,460114
1.5689,0.3812,39.2800,83,95,460119
1.5982,0.3861,39.1900,83,95,460122
1.5787,0.3763,39.2800,83,95,460125
1.6129,0.3910,39.0300,83,95,460129
1.5689,0.3812,39.1900,83,95,460132
1.5738,0.3812,39.3200,83,95,460135
1.5885,0.3812,39.2500,83,95,460139
1.5934,0.3812,39.4100,83,95,460142
1.6471,0.3959,39.0900,83,95,460145
1.6080,0.3910,39.2500,83,95,460149
1.5934,0.3812,39.2500,83,95,460152
1.5934,0.3861,39.2500,83,95,460155
1.6227,0.3812,39.3500,83,95,460158
1.6911,0.3959,39.0900,83,95,460163
1.7107,0.3666,39.1900,83,95,460167
1.6911,0.3812,39.2800,83,95,460171
1.7155,0.3812,39.1200,83,95,460174
1.6813,0.3812,39.2500,83,95,460177
1.6618,0.3812,39.2800,83,95,460181
1.6667,0.3861,39.1900,83,95,460184
1.6618,0.3812,39.2500,83,95,460187
1.7107,0.3959,39.0600,83,95,460191
1.6618,0.3812,39.2200,83,95,460194
1.6618,0.3812,39.2800,83,95,460197
1.6618,0.3861,39.2800,83,95,460201
1.6471,0.3812,39.2800,83,95,460205
1.6862,0.3959,38.9600,83,95,460208
1.6471,0.3910,39.2200,83,95,460212
1.6276,0.3763,39.2500,83,95,460215
1.6325,0.3861,39.2500,83,95,460218
1.6276,0.3812,39.3800,83,95,460222
1.6862,0.3861,39.0900,83,95,460225
1.6764,0.3861,39.2500,83,95,460228
1.6813,0.4008,39.1600,83,95,460231
1.6716,0.3666,39.2800,83,95,460235
1.6569,0.3812,39.4800,83,95,460238
1.6813,0.3910,39.1900,83,95,460241
1.6764,0.3861,39.2800,83,95,460246
1.7107,0.3910,39.1600,83,95,460249
1.7009,0.3812,39.2800,83,95,460252
1.7058,0.3812,39.2500,83,95,460256
1.7058,0.3666,39.2200,83,95,460259
1.7009,0.3812,39.2800,83,95,460262
1.7351,0.3861,39.1200,83,95,460266
1.7204,0.3812,39.2800,83,95,460269
1.7155,0.3861,39.4800,83,95,460272
1.7302,0.3910,39.1600,83,95,460275
1.7009,0.3812,39.2800,83,95,460279
1.7351,0.3910,39.0600,83,95,460282
1.7351,0.3861,39.1900,83,95,460285
1.7253,0.4106,39.1900,83,95,460290
1.7498,0.3861,39.2200,83,95,460293
1.7253,0.3812,39.2500,83,95,460296
1.7693,0.3959,39.0300,83,95,460300
1.7400,0.4252,39.1600,83,95,460303
1.7546,0.3812,39.2800,83,95,460306
1.7742,0.3812,39.0000,83,95,460310
1.7840,0.3812,39.3200,83,95,460313
1.8377,0.4008,39.1200,83,95,460316
1.8084,0.3861,39.3200,83,95,460320
1.8182,0.3812,39.1900,83,95,460323
1.8328,0.3812,39.2800,83,95,460326
1.8475,0.3812,39.3200,83,95,460329
1.8866,0.3861,39.3200,83,95,460334
1.8573,0.3910,39.2500,83,95,460337
1.8768,0.3910,39.1600,83,95,460340
1.8573,0.3910,39.2800,83,95,460344
1.8622,0.3812,39.2800,83,95,460347
1.9110,0.3910,39.0000,83,95,460350
1.9110,0.3763,39.2800,83,95,460354
1.9110,0.3861,39.1600,83,95,460357
1.8719,0.4106,39.2200,83,95,460360
1.8915,0.3763,39.2800,83,95,460364
1.8915,0.3861,39.0900,83,95,460367
1.8719,0.3812,39.2800,83,95,460370
1.8964,0.3910,39.0900,83,95,460374
1.8671,0.3861,38.4300,83,95,460378
1.8524,0.3910,39.2800,83,95,460381
1.8768,0.3861,39.2200,83,95,460384
1.8719,0.3812,39.2800,83,95,460388
1.9453,0.3959,39.0300,83,95,460391
1.8964,0.3812,39.1900,83,95,460394
1.8768,0.3763,39.3200,83,95,460398
1.8964,0.3861,38.4900,83,95,460401
1.8915,0.3812,39.2800,83,95,460404
1.9648,0.4008,38.3300,83,95,460408
1.9355,0.3959,39.2500,83,95,460411
1.9159,0.3812,39.2200,83,95,460414
1.8964,0.3910,39.2500,83,95,460419
1.8964,0.3812,39.2800,83,95,460422
1.9404,0.3959,39.1200,83,95,460425
1.9208,0.3861,39.2500,83,95,460428
1.9453,0.3861,39.2200,83,95,460432
1.9159,0.3812,39.3200,83,95,460435
1.9013,0.3812,39.3200,83,95,460438
1.9257,0.3959,39.2200,83,95,460442
1.9110,0.3861,39.2800,83,95,460445
1.9550,0.3910,39.3200,83,95,460448
1.9306,0.3910,39.3200,83,95,460452
1.9306,0.3812,39.2800,83,95,460455
1.9355,0.3861,39.4800,83,95,460459
1.9550,0.3666,39.2800,83,95,460463
1.9648,0.3910,39.1200,83,95,460466
1.9453,0.3861,39.2500,83,95,460469
1.9404,0.3812,39.2800,83,95,460473
1.9648,0.3861,39.1900,83,95,460476
1.9306,0.3812,39.2800,83,95,460479
1.9844,0.4008,39.0300,83,95,460482
1.9746,0.3910,39.1600,83,95,460486
1.9746,0.3812,39.2800,83,95,460489
1.9892,0.3861,39.2500,83,95,460492
1.9648,0.3812,39.3200,83,95,460496
2.0039,0.4057,39.0600,83,95,460499
1.9941,0.3910,39.1900,83,95,460503
1.9599,0.3812,39.2500,83,95,460507
1.9648,0.3812,39.2800,83,95,460510
1.9599,0.3812,39.2800,83,95,460513
1.9844,0.3959,39.1600,83,95,460517
1.9355,0.3861,39.2500,83,95,460520
1.9404,0.3861,39.3200,83,95,460523
1.9257,0.3861,39.2500,83,95,460526
1.9257,0.3812,39.2800,83,95,460530
1.9404,0.3910,39.2500,83,95,460533
1.9110,0.3812,39.0300,83,95,460536
1.9257,0.3910,39.1600,83,95,460540
1.9062,0.3812,39.2500,83,95,460544
1.9208,0.3959,39.2800,83,95,460547
1.9550,0.3910,39.1600,83,95,460551
1.9355,0.3812,39.1900,83,95,460554
1.9501,0.3910,39.1200,83,95,460557
1.9355,0.3861,39.1900,83,95,460561
1.9355,0.3910,39.3200,83,95,460564
1.9795,0.3959,39.4800,83,95,460567
1.9697,0.3959,39.2800,83,95,460571
2.0283,0.3910,39.0600,83,95,460574
1.9892,0.3812,39.1600,83,95,460577
2.0235,0.3812,39.2800,83,95,460580
2.0283,0.3861,39.2500,83,95,460584
2.0381,0.4008,39.3200,83,95,460588
2.1408,0.4008,39.0000,83,95,460591
2.0723,0.3861,39.2200,83,95,460595
2.0479,0.3763,39.6700,83,95,460598
2.0381,0.3959,39.2500,83,95,460601
2.0332,0.3812,39.3200,83,95,460605
2.0870,0.4008,39.0900,83,95,460608
2.0381,0.3861,39.2500,83,95,460611
2.0430,0.3812,39.2200,83,95,460614
1.9941,0.3861,39.4100,83,95,460618
1.9892,0.3861,39.2800,83,95,460621
2.0381,0.3959,39.1900,83,95,460624
2.0479,0.3763,39.2800,83,95,460628
2.0674,0.3861,39.1600,83,95,460632
2.0283,0.3812,39.2800,83,95,460635
2.0039,0.3910,39.2800,83,95,460639
1.9990,0.3910,39.1900,83,95,460642
1.9648,0.3861,39.3200,83,95,460645
1.9990,0.3910,39.1900,83,95,460649
1.9746,0.3812,39.2500,83,95,460652
1.9648,0.3812,39.3500,83,95,460655
1.9990,0.3910,39.1900,83,95,460658
1.9501,0.3812,39.2800,83,95,460662
1.9795,0.3861,39.1600,83,95,460665
1.9599,0.3763,39.2500,83,95,460668
1.9648,0.3812,39.3800,83,95,460673
1.9795,0.3910,39.2200,83,95,460676
1.9404,0.3812,39.4100,83,95,460679
1.9795,0.3959,39.0600,83,95,460683
1.9599,0.3861,39.1900,83,95,460686
1.9550,0.3812,39.2800,83,95,460689
1.9697,0.3861,39.2500,83,95,460693
1.9599,0.3812,39.2800,83,95,460696
2.0235,0.4057,39.0300,83,95,460699
1.9795,0.3910,39.1900,83,95,460703
1.9599,0.3812,39.2500,83,95,460706
1.9648,0.3861,39.2800,83,95,460709
1.9550,0.3812,39.2200,83,95,460712
2.0088,0.4008,39.1200,83,95,460717
1.9550,0.3861,39.2500,83,95,460720
1.9746,0.3861,38.4900,83,95,460723
1.9844,0.3812,39.2800,83,95,460727
1.9844,0.3812,39.2800,83,95,460730
1.9990,0.3910,39.2500,83,95,460733
1.9648,0.3910,39.2800,83,95,460737
1.9648,0.3910,39.1600,83,95,460740
1.9208,0.3812,39.2800,83,95,460743
1.8915,0.3812,39.2500,83,95,460747
1.8866,0.3910,39.1900,83,95,460750
1.8280,0.3861,39.2800,83,95,460753
1.8866,0.3910,39.0900,83,95,460756
1.9941,0.3861,39.1900,83,95,460761
2.1652,0.3812,38.9000,83,95,460764
2.4585,0.3861,39.1900,83,95,460767
2.6784,0.3812,39.2800,83,95,460771
2.8592,0.4106,39.0300,83,95,460774
2.5171,0.3959,39.0900,83,95,460779
2.3558,0.3861,39.2200,83,95,460782
2.2434,0.3812,39.4100,83,95,460785
2.1554,0.3812,39.2800,83,95,460789
2.0919,0.3812,39.2800,83,95,460792
2.0870,0.4203,39.1900,83,95,460795
2.0381,0.3666,39.2500,83,95,460800
2.0137,0.3861,39.1600,83,95,460803
1.9697,0.3861,39.2800,83,95,460806
1.9550,0.3812,39.2800,83,95,460810
1.9990,0.3959,39.1200,83,95,460813
1.9844,0.3861,39.2500,83,95,460816
2.0137,0.3910,39.1600,83,95,460819
1.9892,0.3861,39.2200,83,95,460823
1.9746,0.3812,39.2800,83,95,460826
1.9892,0.3910,39.1600,83,95,460829
1.9844,0.3812,39.2800,83,95,460833
2.0283,0.3910,39.1600,83,95,460836
2.0137,0.3763,39.2800,83,95,460839
2.0039,0.3812,39.2800,83,95,460844
2.0137,0.3959,39.2800,83,95,460847
1.9990,0.3910,39.2800,83,95,460850
2.0577,0.3910,39.0300,83,95,460853
2.0332,0.3812,39.2200,83,95,460857
2.0381,0.3812,39.3500,83,95,460860
2.0479,0.3910,39.2500,83,95,460863
2.0235,0.3812,39.2800,83,95,460867
2.0772,0.3959,39.0000,83,95,460870
2.0430,0.3812,39.3200,83,95,460873
2.0577,0.3812,39.2500,83,95,460877
2.0577,0.3861,39.1600,83,95,460880
2.0430,0.3861,39.2800,83,95,460883
2.1114,0.4057,39.0900,83,95,460887
2.0577,0.3861,39.2200,83,95,460891
2.0674,0.3812,39.2500,83,95,460894
2.1017,0.3861,39.2800,83,95,460897
2.0772,0.3812,39.2800,83,95,460901
2.1017,0.3910,39.1200,83,95,460904
2.0674,0.3861,39.2500,83,95,460907
2.0821,0.3861,39.1600,83,95,460911
2.0674,0.4106,39.2800,83,95,460914
2.0772,0.3812,39.2800,83,95,460917
2.0919,0.3861,39.2200,83,95,460921
2.0626,0.3763,39.2800,83,95,460924
2.0821,0.3959,39.1900,83,95,460928
2.0381,0.3910,39.2800,83,95,460931
2.0332,0.3763,39.2800,83,95,460935
2.0577,0.3910,39.1900,83,95,460938
2.0137,0.3861,39.2500,83,95,460941
2.0186,0.3861,39.1200,83,95,460945
1.9795,0.3861,39.1900,83,95,460948
1.9844,0.3861,39.2800,83,95,460951
1.9892,0.4057,39.1600,83,95,460955
1.9746,0.3812,39.3200,83,95,460958
2.0186,0.3910,39.0900,83,95,460961
1.9795,0.3812,39.1600,83,95,460965
1.9697,0.3812,39.3200,83,95,460968
2.0039,0.3861,39.2500,83,95,460972
2.0186,0.4008,39.2800,83,95,460975
2.0919,0.4106,39.0000,83,95,460979
2.0528,0.3910,39.1900,83,95,460982
2.0332,0.3812,39.3200,83,95,460985
2.0283,0.3910,39.2500,83,95,460989
2.0235,0.3812,39.2800,83,95,460992
