ecg,gsr,temp,hr,spo2,timest
1.8328,0.4643,39.3200,78,94,279526
1.8915,0.4692,39.1200,78,94,279529
1.8524,0.4594,39.2800,78,94,279532
1.8524,0.4545,39.3200,78,94,279535
1.8671,0.4643,39.3200,78,94,279539
1.8622,0.4594,39.3500,78,94,279542
1.9159,0.4790,39.1900,78,94,279545
1.8964,0.4643,39.2800,78,94,279549
1.8964,0.4594,39.2200,78,94,279553
1.9110,0.4594,39.3200,78,94,279556
1.9208,0.4594,39.3800,78,94,279560
1.9648,0.4692,39.1600,78,94,279563
1.9404,0.4594,39.3200,78,94,279566
1.9550,0.4545,39.1900,78,94,279570
1.9501,0.4643,39.3500,78,94,279573
1.9599,0.4839,39.3800,78,94,279576
2.0137,0.4741,39.2200,78,94,279580
1.9941,0.4594,39.3800,78,94,279583
2.0283,0.4692,39.2500,78,94,279586
1.9990,0.4545,39.3200,78,94,279589
1.9892,0.4594,39.3200,78,94,279593
1.9844,0.4448,39.2500,78,94,279597
1.9648,0.4594,39.3500,78,94,279600
1.9697,0.4692,39.1900,78,94,279604
1.9208,0.4594,39.4100,78,94,279607
1.9062,0.4985,39.3500,78,94,279610
1.9110,0.4643,39.2200,78,94,279614
1.8866,0.4545,39.3800,78,94,279617
1.9306,0.4692,39.1200,78,94,279620
1.8915,0.4643,39.2500,78,94,279624
1.8622,0.4594,39.3500,78,94,279627
1.8573,0.4741,39.3200,78,94,279630
1.8671,0.4448,39.3500,78,94,279633
1.8817,0.4790,39.1600,78,94,279638
1.7937,0.4790,39.1900,78,94,279642
1.7693,0.4594,39.3200,78,94,279645
1.7937,0.4643,39.3200,78,94,279648
1.7742,0.4545,39.3200,78,94,279651
1.7791,0.4594,39.3800,78,94,279655
1.7986,0.4545,39.2800,78,94,279658
1.7889,0.4594,39.3500,78,94,279661
1.8182,0.4643,39.2200,78,94,279665
1.8035,0.4594,39.3200,78,94,279668
1.8133,0.4594,39.3500,78,94,279671
1.8524,0.4643,39.2800,78,94,279675
1.8426,0.4594,39.3200,78,94,279678
1.8866,0.4692,39.1600,78,94,279682
1.8622,0.4643,39.3500,78,94,279686
1.8426,0.4497,39.3500,78,94,279689
1.8524,0.4643,39.2800,78,94,279692
1.8426,0.4545,39.3500,78,94,279696
1.8964,0.4741,39.0900,78,94,279699
1.8524,0.4545,39.2500,78,94,279702
1.8475,0.4594,39.3500,78,94,279705
1.8475,0.4643,39.2800,78,94,279709
1.8719,0.4643,39.3200,78,94,279712
1.9062,0.4741,39.4400,78,94,279715
1.8866,0.4643,39.2800,78,94,279719
1.8622,0.4594,39.2500,78,94,279723
1.8768,0.4643,39.3200,78,94,279726
1.9208,0.4594,39.2800,78,94,279730
2.0186,0.4692,39.2800,78,94,279733
2.0577,0.4594,39.3500,78,94,279736
2.1701,0.4643,39.2200,78,94,279740
2.2678,0.4545,39.3500,78,94,279743
2.3998,0.4545,39.3500,78,94,279746
2.5709,0.4692,39.2200,78,94,279750
2.6686,0.4594,39.2800,78,94,279753
2.7713,0.4594,39.2200,78,94,279756
2.6735,0.4594,39.2500,78,94,279759
2.4682,0.4594,39.3500,78,94,279763
2.2336,0.4643,39.2500,78,94,279767
1.9550,0.4497,39.3500,78,94,279770
1.7840,0.4692,39.1200,78,94,279774
1.6471,0.4643,39.2800,78,94,279777
1.6031,0.4643,39.3200,78,94,279780
1.6276,0.4643,39.2800,78,94,279784
1.6716,0.4594,39.3200,78,94,279787
1.7693,0.4692,39.0600,78,94,279790
1.7644,0.4594,39.3200,78,94,279794
1.7889,0.4545,39.3200,78,94,279797
1.7937,0.4594,39.3800,78,94,279800
1.7986,0.4594,39.3500,78,94,279804
1.8622,0.4790,39.1900,78,94,279808
1.8182,0.4594,39.2800,78,94,279811
1.8133,0.4643,39.2500,78,94,279814
1.8133,0.4448,39.3200,78,94,279818
1.7937,0.4594,39.3500,78,94,279821
1.8573,0.4692,39.1600,78,94,279824
1.8084,0.4594,39.2800,78,94,279828
1.8377,0.4692,39.1900,78,94,279831
1.8231,0.4594,39.3500,78,94,279834
1.8280,0.4643,39.3200,78,94,279838
1.8671,0.4692,39.2200,78,94,279841
1.8475,0.4545,39.3200,78,94,279844
1.8768,0.4643,39.2200,78,94,279848
1.8475,0.4545,39.2200,78,94,279852
1.8475,0.4448,39.3500,78,94,279855
1.8719,0.4643,39.2500,78,94,279859
1.8671,0.4545,39.3200,78,94,279862
1.9062,0.4643,39.1600,78,94,279865
1.8768,0.4545,39.3500,78,94,279868
1.8719,0.4594,39.3500,78,94,279872
1.8719,0.4643,39.3500,78,94,279875
1.8671,0.4594,39.3500,78,94,279878
1.9306,0.4790,39.0600,78,94,279882
1.9208,0.4643,39.2800,78,94,279885
1.9306,0.4545,39.3500,78,94,279888
1.9355,0.4594,39.3200,78,94,279892
1.9110,0.4594,39.3500,78,94,279896
1.9501,0.4790,39.1900,78,94,279899
1.9013,0.4643,38.6800,78,94,279903
1.8915,0.4594,39.2200,78,94,279906
1.8915,0.4594,39.3200,78,94,279909
1.9013,0.4643,39.3500,78,94,279913
1.9453,0.4692,39.1900,78,94,279916
1.9257,0.4594,39.2800,78,94,279919
1.9746,0.4643,39.2200,78,94,279922
1.9355,0.4594,39.3500,78,94,279926
1.9453,0.4594,39.3500,78,94,279929
1.9550,0.4594,39.1900,78,94,279932
1.9501,0.4497,39.3200,78,94,279937
1.9844,0.4643,39.2200,78,94,279940
1.9501,0.4594,39.3500,78,94,279943
1.9550,0.4594,39.3500,78,94,279947
1.9746,0.4692,39.2800,78,94,279950
1.9648,0.4594,39.3200,78,94,279953
2.0088,0.4692,39.1600,78,94,279957
1.9941,0.4545,39.2500,78,94,279960
1.9844,0.4545,39.3500,78,94,279963
2.0088,0.4448,39.3200,78,94,279967
1.9941,0.4594,39.3500,78,94,279970
2.0430,0.4692,39.0600,78,94,279973
2.0430,0.4545,39.2500,78,94,279976
1.9941,0.4594,39.3500,78,94,279981
2.0039,0.4594,39.3500,78,94,279984
1.9892,0.4643,39.3500,78,94,279987
2.0528,0.4790,39.0900,78,94,279991
1.9941,0.4643,39.2200,78,94,279994
1.9795,0.4692,39.2800,78,94,279997
1.9746,0.4594,39.3200,78,94,280001
1.9844,0.4594,39.3500,78,94,280004
2.0088,0.4692,39.2200,78,94,280007
1.9795,0.4643,39.3200,78,94,280010
1.9795,0.4545,39.2200,78,94,280014
1.9648,0.4594,39.3500,78,94,280017
1.9599,0.4594,39.3800,78,94,280020
1.9892,0.4643,39.1900,78,94,280025
1.9550,0.4594,39.3500,78,94,280028
1.9648,0.4692,39.2800,78,94,280031
1.9453,0.4594,39.2800,78,94,280035
1.9404,0.4643,39.3500,78,94,280038
1.9648,0.4643,39.2500,78,94,280041
1.9306,0.4643,39.3500,78,94,280045
1.9501,0.4643,39.1900,78,94,280048
1.9159,0.4545,39.2500,78,94,280051
1.9013,0.4594,39.3500,78,94,280055
1.9110,0.4643,39.2800,78,94,280058
1.8915,0.4594,39.3200,78,94,280061
1.9257,0.4643,39.1200,78,94,280065
1.8719,0.4643,39.3200,78,94,280069
1.8671,0.4594,39.3500,78,94,280072
1.8719,0.4497,39.2800,78,94,280075
1.8475,0.4594,39.3500,78,94,280079
1.8915,0.4839,39.0600,78,94,280082
1.8573,0.4643,39.2200,78,94,280085
1.8280,0.4545,39.2500,78,94,280089
1.8231,0.4594,39.3200,78,94,280092
1.8231,0.4594,39.2800,78,94,280095
1.8719,0.4741,39.1600,78,94,280099
1.8426,0.4936,39.3200,78,94,280102
1.8524,0.4594,39.2500,78,94,280105
1.8426,0.4594,39.3800,78,94,280110
1.8377,0.4594,39.3500,78,94,280113
1.8817,0.4643,39.1200,78,94,280116
1.8768,0.4594,39.3200,78,94,280119
1.8964,0.4643,39.2200,78,94,280123
1.8768,0.4594,39.3200,78,94,280126
1.8866,0.4448,39.3500,78,94,280129
1.9062,0.4643,39.2800,78,94,280133
1.9013,0.4594,39.3200,78,94,280136
1.9257,0.4594,39.1900,78,94,280139
1.9062,0.4790,39.3500,78,94,280143
1.9355,0.4594,39.3500,78,94,280146
1.9501,0.4643,38.8400,78,94,280150
1.9599,0.4594,39.3200,78,94,280154
1.9795,0.4692,39.1200,78,94,280157
1.9648,0.4643,39.3200,78,94,280160
1.9599,0.4594,39.3500,78,94,280163
1.9746,0.4643,39.3200,78,94,280167
1.9746,0.4448,39.3500,78,94,280170
2.0283,0.4741,39.0600,78,94,280173
1.9844,0.4643,39.2500,78,94,280177
1.9746,0.4545,39.4800,78,94,280180
1.9795,0.4545,39.3200,78,94,280183
1.9746,0.4594,39.3500,78,94,280187
2.0381,0.4790,39.1600,78,94,280190
2.0088,0.4643,39.2800,78,94,280194
2.0137,0.4594,39.2500,78,94,280198
2.0088,0.4790,39.3800,78,94,280201
2.0186,0.4594,39.3500,78,94,280204
2.0479,0.4643,39.2800,78,94,280207
2.0332,0.4643,39.2800,78,94,280211
2.0430,0.4594,39.2200,78,94,280214
2.0186,0.4594,39.2800,78,94,280217
2.0235,0.4594,39.3500,78,94,280221
2.0626,0.4692,39.1900,78,94,280224
2.0430,0.4594,39.2500,78,94,280227
2.0723,0.4643,39.3200,78,94,280231
2.0577,0.4545,39.3200,78,94,280235
2.0479,0.4594,39.3500,78,94,280238
2.0674,0.4692,39.2500,78,94,280241
2.0772,0.4594,39.3500,78,94,280245
2.0723,0.4643,39.2200,78,94,280248
2.1065,0.4643,39.0900,78,94,280252
2.0723,0.4594,39.2800,78,94,280255
2.0772,0.4888,39.3500,78,94,280258
2.0674,0.4448,39.3200,78,94,280262
2.0577,0.4594,39.3200,78,94,280265
2.1261,0.4741,39.1200,78,94,280268
2.0968,0.4643,39.2800,78,94,280272
2.0968,0.4594,39.2200,78,94,280275
2.1114,0.4448,39.3800,78,94,280279
2.1017,0.4594,39.5100,78,94,280283
2.1408,0.4741,39.1600,78,94,280286
2.1065,0.4594,39.3500,78,94,280289
2.1212,0.4643,39.2200,78,94,280292
2.1114,0.4594,39.3500,78,94,280296
2.1163,0.4594,39.3800,78,94,280299
2.1554,0.4692,39.1900,78,94,280302
2.1408,0.4594,39.3800,78,94,280306
2.1750,0.4741,39.1900,78,94,280309
2.1457,0.4594,39.3500,78,94,280312
2.1652,0.4594,39.2200,78,94,280316
2.1848,0.4643,39.2500,78,94,280320
2.1945,0.4594,39.3500,78,94,280323
2.2287,0.4643,39.1600,78,94,280327
2.2141,0.4594,39.3500,78,94,280330
2.2239,0.4888,39.3500,78,94,280333
2.2532,0.4643,39.2500,78,94,280336
2.2190,0.4594,39.3200,78,94,280340
2.2483,0.4692,39.1200,78,94,280343
2.2141,0.4643,39.2500,78,94,280346
2.1848,0.4594,39.3200,78,94,280350
2.1848,0.4643,39.3200,78,94,280353
2.1652,0.4839,39.3500,78,94,280356
2.2190,0.4741,39.0600,78,94,280360
2.1701,0.4643,39.3200,78,94,280364
2.1603,0.4497,39.3200,78,94,280367
2.1505,0.4594,39.3200,78,94,280371
2.1310,0.4594,39.3500,78,94,280374
2.1750,0.4741,39.1600,78,94,280377
2.1114,0.4643,39.3200,78,94,280380
2.0919,0.4839,39.2500,78,94,280384
2.0577,0.4594,39.3800,78,94,280387
2.0430,0.4594,39.3500,78,94,280390
2.0626,0.4692,39.2500,78,94,280394
2.0332,0.4594,39.3200,78,94,280397
2.0381,0.4643,39.2200,78,94,280400
1.9990,0.4594,39.3500,78,94,280404
1.9990,0.4594,39.3500,78,94,280408
2.0283,0.4692,39.2200,78,94,280411
1.9941,0.4594,39.4400,78,94,280415
2.0186,0.4692,39.2200,78,94,280418
1.9892,0.4594,39.3200,78,94,280421
2.0039,0.4594,39.3500,78,94,280424
2.0430,0.4448,39.2500,78,94,280428
2.0186,0.4594,39.3200,78,94,280431
2.0430,0.4643,39.0900,78,94,280434
2.0235,0.4497,39.3200,78,94,280438
2.0235,0.4545,39.3500,78,94,280441
2.0577,0.4643,39.2500,78,94,280444
2.0479,0.4594,39.3200,78,94,280449
2.0919,0.4692,39.0900,78,94,280452
2.0430,0.4594,39.5100,78,94,280455
2.0528,0.4545,39.4100,78,94,280458
2.0577,0.4545,39.3200,78,94,280462
2.0479,0.4594,39.3500,78,94,280465
2.1065,0.4741,39.1200,78,94,280468
2.0772,0.4643,39.2800,78,94,280472
2.0674,0.4545,39.3200,78,94,280475
2.0723,0.4594,39.3200,78,94,280478
2.0577,0.4594,39.3500,78,94,280482
2.1163,0.4692,39.1200,78,94,280485
2.1114,0.4643,39.3200,78,94,280488
2.1799,0.4594,39.2500,78,94,280493
2.2385,0.4545,39.3200,78,94,280496
2.3314,0.4594,39.3500,78,94,280499
2.5073,0.4985,39.1600,78,94,280502
2.6540,0.4594,39.3200,78,94,280506
2.8397,0.4643,39.2200,78,94,280509
2.9326,0.4448,39.3800,78,94,280512
3.0059,0.4594,39.3200,78,94,280516
2.9912,0.4545,39.2800,78,94,280519
2.8006,0.4594,39.3800,78,94,280522
2.6002,0.4594,39.3500,78,94,280526
2.3412,0.4545,39.3200,78,94,280529
2.0919,0.4594,39.4400,78,94,280532
1.9648,0.4643,39.2500,78,94,280537
1.8768,0.4594,39.2800,78,94,280540
1.9062,0.4936,39.0900,78,94,280543
1.9355,0.4643,39.2500,78,94,280546
1.9746,0.4594,39.3500,78,94,280550
2.0381,0.4643,39.2800,78,94,280553
2.0528,0.4594,39.3800,78,94,280556
2.1163,0.4741,39.0900,78,94,280560
2.0821,0.4643,39.2800,78,94,280563
2.0723,0.4545,39.3500,78,94,280566
2.1017,0.4545,39.3200,78,94,280570
2.0870,0.4594,39.3200,78,94,280573
2.1505,0.4790,39.3200,78,94,280577
2.1114,0.4692,39.2800,78,94,280581
2.1163,0.4594,39.3200,78,94,280584
2.1163,0.4545,39.3200,78,94,280587
2.1212,0.4594,39.3500,78,94,280591
2.1652,0.4643,39.2200,78,94,280594
2.1457,0.4594,39.3500,78,94,280597
2.1701,0.4643,39.2500,78,94,280600
2.1505,0.4448,39.3200,78,94,280604
2.1457,0.4594,39.3800,78,94,280607
2.1848,0.4790,39.1900,78,94,280610
2.1603,0.4594,39.3800,78,94,280614
2.1896,0.4643,39.2200,78,94,280617
2.1505,0.4545,39.2800,78,94,280621
2.1505,0.4594,39.3200,78,94,280625
2.1750,0.4643,39.2500,78,94,280628
2.1505,0.4594,39.2200,78,94,280631
2.1799,0.4692,39.1600,78,94,280635
2.1505,0.4594,39.2500,78,94,280638
2.1359,0.4594,39.3800,78,94,280641
2.1701,0.4643,39.2800,78,94,280644
2.1310,0.4594,39.3500,78,94,280648
2.1799,0.4692,39.0900,78,94,280651
2.1310,0.4448,39.2800,78,94,280654
2.1457,0.4594,39.3800,78,94,280658
2.1554,0.4643,39.3200,78,94,280662
2.1457,0.4594,39.2200,78,94,280665
2.1945,0.4839,39.0900,78,94,280669
2.1505,0.4643,39.3200,78,94,280672
2.1359,0.4545,39.3200,78,94,280675
2.1457,0.4594,39.3500,78,94,280679
2.1408,0.4594,39.2800,78,94,280682
2.1994,0.4741,39.1600,78,94,280685
2.1652,0.4643,39.2800,78,94,280688
2.1701,0.4936,39.2200,78,94,280692
2.1554,0.4448,39.3800,78,94,280695
2.1457,0.4545,39.4400,78,94,280698
2.1848,0.4692,39.1900,78,94,280702
2.1603,0.4594,39.4100,78,94,280706
2.1945,0.4790,39.2200,78,94,280709
2.1603,0.4594,39.3500,78,94,280713
2.1505,0.4594,39.3500,78,94,280716
2.1505,0.4545,39.2800,78,94,280719
2.1261,0.4594,39.3500,78,94,280723
2.1554,0.4594,39.1900,78,94,280726
2.1212,0.4594,39.3500,78,94,280729
2.1261,0.4594,39.2200,78,94,280732
2.1505,0.4448,39.2800,78,94,280736
2.1310,0.4594,39.3200,78,94,280739
2.1750,0.4692,39.1900,78,94,280742
2.1505,0.4643,39.2500,78,94,280747
2.1212,0.4594,39.2800,78,94,280750
2.1359,0.4643,39.2800,78,94,280753
2.1163,0.4594,39.3500,78,94,280757
2.1652,0.4790,39.0900,78,94,280760
2.1163,0.4692,39.2800,78,94,280763
2.0968,0.4545,39.3800,78,94,280767
2.1065,0.4594,39.3200,78,94,280770
2.1017,0.4594,39.3500,78,94,280773
2.1652,0.4790,39.1600,78,94,280776
2.1212,0.4643,39.3200,78,94,280780
2.1114,0.4594,39.2800,78,94,280783
2.1017,0.4594,39.3200,78,94,280786
2.0968,0.4594,39.4100,78,94,280791
2.1261,0.4692,39.2500,78,94,280794
2.0870,0.4643,39.3200,78,94,280797
2.0919,0.4643,39.1900,78,94,280801
2.0626,0.4448,39.3200,78,94,280804
2.0528,0.4594,39.5100,78,94,280807
2.0772,0.4692,39.2200,78,94,280811
2.0430,0.4594,39.3500,78,94,280814
2.0626,0.4643,39.2500,78,94,280817
2.0186,0.4497,39.3200,78,94,280820
2.0137,0.4594,39.3200,78,94,280824
2.0137,0.4692,39.2500,78,94,280827
1.9795,0.4594,39.3500,78,94,280830
1.9990,0.4643,39.3800,78,94,280835
1.9746,0.4594,39.2500,78,94,280838
1.9746,0.4594,39.3200,78,94,280841
1.9892,0.4790,39.2500,78,94,280845
1.9746,0.4594,39.3500,78,94,280848
2.0088,0.4692,39.0900,78,94,280851
1.9599,0.4790,39.2800,78,94,280855
1.9795,0.4545,39.3500,78,94,280858
1.9844,0.4643,39.2800,78,94,280861
1.9550,0.4643,39.3200,78,94,280865
1.9648,0.4594,39.3500,78,94,280868
2.0186,0.4692,39.1900,78,94,280871
1.9990,0.4594,39.3500,78,94,280876
2.0283,0.4643,39.2200,78,94,280879
2.0235,0.4594,39.4400,78,94,280882
2.0186,0.4594,39.3500,78,94,280886
2.0528,0.4741,39.2500,78,94,280889
2.0235,0.4448,39.3800,78,94,280892
2.0528,0.4692,39.2500,78,94,280896
2.0283,0.4545,39.3500,78,94,280899
2.0577,0.4594,39.4400,78,94,280902
2.0528,0.4594,39.2500,78,94,280906
2.0430,0.4594,39.2500,78,94,280909
2.0723,0.4594,39.1900,78,94,280912
2.0479,0.4594,39.3200,78,94,280915
2.0577,0.4643,39.3500,78,94,280920
2.0919,0.4692,39.2200,78,94,280923
2.0723,0.4594,39.3500,78,94,280926
2.1163,0.4692,39.0900,78,94,280930
2.0968,0.4643,39.2500,78,94,280933
2.0870,0.4594,39.4400,78,94,280936
2.0919,0.4643,39.3200,78,94,280940
2.0870,0.4594,39.3200,78,94,280943
2.1359,0.4741,39.0600,78,94,280946
2.0968,0.4643,39.3200,78,94,280950
2.0772,0.4545,39.3200,78,94,280953
2.0821,0.4643,39.3800,78,94,280956
2.0821,0.4594,39.3200,78,94,280960
2.1457,0.4643,39.1900,78,94,280964
2.0968,0.4594,39.3200,78,94,280967
2.0968,0.4594,39.2800,78,94,280970
2.0870,0.4594,39.3200,78,94,280974
2.1017,0.4594,39.3500,78,94,280977
2.1359,0.4692,39.2500,78,94,280980
2.1114,0.4594,39.0000,78,94,280984
2.1163,0.4643,39.2200,78,94,280987
2.0919,0.4594,39.4100,78,94,280990
2.0870,0.4594,39.3800,78,94,280993
2.1457,0.4692,39.1900,78,94,280997
2.0870,0.4594,39.3200,78,94,281000
2.1554,0.4741,39.2500,78,94,281004
2.1065,0.4545,39.3200,78,94,281008
2.1065,0.4594,39.3200,78,94,281011
2.1212,0.4643,39.2500,78,94,281014
2.0968,0.4643,39.3800,78,94,281018
2.1457,0.4692,39.1600,78,94,281021
2.1261,0.4594,39.2500,78,94,281024
2.1261,0.4448,39.3500,78,94,281028
2.1505,0.4643,39.3200,78,94,281031
2.1310,0.4839,39.3500,78,94,281034
2.2043,0.4741,39.0900,78,94,281037
2.1163,0.4545,39.3200,78,94,281041
2.1212,0.4594,39.3500,78,94,281044
2.1310,0.4643,39.3200,78,94,281048
2.1163,0.4545,39.3500,78,94,281052
2.1945,0.4643,39.0900,78,94,281055
2.1799,0.4643,39.2800,78,94,281058
2.1848,0.4594,39.3200,78,94,281062
2.1994,0.4839,39.4800,78,94,281065
2.2043,0.4594,39.3500,78,94,281068
2.2581,0.4643,39.1600,78,94,281072
2.2336,0.4643,39.3200,78,94,281075
2.2630,0.4643,39.2500,78,94,281078
2.2532,0.4594,39.3500,78,94,281082
2.2581,0.4448,39.3500,78,94,281085
2.2972,0.4692,39.2500,78,94,281089
2.2727,0.4643,39.3200,78,94,281092
2.3069,0.4692,39.2200,78,94,281096
2.2678,0.4594,39.0900,78,94,281099
2.2581,0.4839,39.2800,78,94,281102
2.2532,0.4594,39.2800,78,94,281106
2.2336,0.4594,39.3200,78,94,281109
2.2434,0.4594,39.1600,78,94,281112
2.1994,0.4594,39.3500,78,94,281116
2.1896,0.4594,39.3800,78,94,281119
2.2190,0.4643,39.2200,78,94,281122
2.1603,0.4594,39.2800,78,94,281125
2.1896,0.4839,39.1200,78,94,281129
2.1603,0.4643,39.2500,78,94,281133
2.1310,0.4594,39.3500,78,94,281136
2.1310,0.4643,39.2800,78,94,281140
2.0870,0.4594,39.4400,78,94,281143
2.1114,0.4692,39.0600,78,94,281146
2.0430,0.4643,39.3200,78,94,281150
2.0137,0.4545,39.3200,78,94,281153
2.0088,0.4692,39.3200,78,94,281156
2.0088,0.4594,39.3500,78,94,281160
2.0772,0.4790,39.1200,78,94,281163
2.0381,0.4594,39.3200,78,94,281166
2.0381,0.4545,39.2800,78,94,281169
2.0430,0.4594,39.4400,78,94,281174
2.0528,0.4545,39.3500,78,94,281177
2.0772,0.4692,39.2500,78,94,281180
2.0381,0.4594,39.2800,78,94,281184
2.0479,0.4545,39.2200,78,94,281187
2.0283,0.4594,39.4100,78,94,281190
2.0430,0.4545,39.3800,78,94,281194
2.1163,0.4692,39.1900,78,94,281197
2.0626,0.4643,39.3800,78,94,281200
2.0968,0.4594,39.2500,78,94,281203
2.0723,0.4448,39.3500,78,94,281207
2.0772,0.4594,39.3500,78,94,281210
2.1065,0.4692,39.2500,78,94,281213
2.0919,0.4594,39.3500,78,94,281218
2.1212,0.4643,39.2200,78,94,281221
2.1065,0.4545,39.2800,78,94,281224
2.1017,0.4594,39.3500,78,94,281228
2.1163,0.4643,39.3200,78,94,281231
2.0919,0.4594,39.3500,78,94,281234
2.1163,0.4692,39.1900,78,94,281238
2.0821,0.4545,39.3200,78,94,281241
2.1261,0.4594,39.3500,78,94,281244
2.2043,0.4643,39.2800,78,94,281247
2.2776,0.4594,39.3200,78,94,281251
2.4487,0.4790,39.0600,78,94,281254
2.5758,0.4643,39.2500,78,94,281257
2.7761,0.4545,39.3200,78,94,281262
2.9961,0.4594,39.3500,78,94,281265
3.1378,0.4545,39.3500,78,94,281268
3.2942,0.4741,39.1600,78,94,281272
3.1378,0.4643,39.2200,78,94,281275
2.9374,0.4594,39.2500,78,94,281278
2.6540,0.4594,39.3500,78,94,281282
2.3460,0.4594,39.3200,78,94,281285
2.1114,0.4692,39.2200,78,94,281288
1.8915,0.4594,39.3200,78,94,281292
1.8084,0.4692,39.2200,78,94,281295
1.7693,0.4594,39.3500,78,94,281298
1.8084,0.4594,39.3500,78,94,281302
1.8426,0.4594,39.2800,78,94,281306
1.8768,0.4594,39.2800,78,94,281309
1.9257,0.4594,39.2500,78,94,281312
1.9062,0.4594,39.3200,78,94,281316
1.9501,0.4545,39.3500,78,94,281319
1.9404,0.4643,39.2500,78,94,281322
1.9062,0.4545,39.3500,78,94,281326
1.9306,0.4692,39.1200,78,94,281329
1.9110,0.4643,39.2500,78,94,281332
1.8964,0.4594,39.3500,78,94,281336
1.9110,0.4643,39.3500,78,94,281339
1.8915,0.4545,39.3500,78,94,281342
1.9453,0.4692,39.0900,78,94,281346
1.9159,0.4790,39.2800,78,94,281350
1.9159,0.4594,39.1900,78,94,281353
1.9257,0.4692,39.3200,78,94,281356
1.9159,0.4545,39.3200,78,94,281360
1.9599,0.4790,39.1900,78,94,281363
1.9110,0.4643,39.2800,78,94,281366
1.9159,0.4594,39.2800,78,94,281370
1.9110,0.4594,39.3800,78,94,281373
1.9208,0.4594,39.3500,78,94,281376
1.9550,0.4643,39.2200,78,94,281380
1.9208,0.4594,39.3200,78,94,281383
1.9355,0.4643,39.2200,78,94,281387
1.9404,0.4545,39.3500,78,94,281391
1.9306,0.4594,39.3500,78,94,281394
1.9697,0.4936,39.1900,78,94,281397
1.9306,0.4594,39.3800,78,94,281400
1.9453,0.4643,39.2200,78,94,281404
1.9062,0.4594,39.2800,78,94,281407
1.9013,0.4594,38.9000,78,94,281410
1.9257,0.4545,39.2800,78,94,281414
1.9013,0.4594,39.3800,78,94,281417
1.9355,0.4643,39.1600,78,94,281420
1.9257,0.4594,39.2200,78,94,281424
1.9208,0.4594,39.3500,78,94,281427
1.9355,0.4448,39.3200,78,94,281431
1.9062,0.4594,39.4800,78,94,281435
1.9697,0.4692,39.0900,78,94,281438
1.8866,0.4545,38.6800,78,94,281441
1.8817,0.4594,39.3500,78,94,281444
1.8768,0.4643,39.3200,78,94,281448
1.8768,0.4594,39.3200,78,94,281451
1.9550,0.4790,39.1200,78,94,281454
1.8964,0.4643,39.3200,78,94,281458
1.8915,0.4545,39.2800,78,94,281461
1.9013,0.4594,39.3200,78,94,281464
1.9062,0.4594,39.3500,78,94,281468
1.9599,0.4692,39.1600,78,94,281472
1.9355,0.4692,39.2500,78,94,281476
1.9013,0.4594,39.3200,78,94,281479
1.9208,0.4545,39.2200,78,94,281482
1.8915,0.4545,39.3200,78,94,281486
1.8964,0.4594,39.3500,78,94,281489
1.9110,0.4643,39.2500,78,94,281492
1.8817,0.4594,39.4800,78,94,281496
1.9062,0.4692,39.1200,78,94,281499
1.8524,0.4594,39.3200,78,94,281502
1.8475,0.4594,39.3200,78,94,281505
1.8573,0.4643,39.3500,78,94,281509
1.8377,0.4448,39.3500,78,94,281512
1.8622,0.4741,39.1200,78,94,281516
1.8133,0.4545,39.2500,78,94,281520
1.7840,0.4545,39.3200,78,94,281523
1.8084,0.4594,39.3200,78,94,281526
1.7693,0.4594,39.3500,78,94,281530
1.8133,0.4790,39.1900,78,94,281533
1.7791,0.4643,39.3200,78,94,281536
1.7693,0.4594,39.3500,78,94,281540
1.7546,0.4594,39.3200,78,94,281543
1.7400,0.4594,39.3200,78,94,281546
1.7498,0.4643,39.1900,78,94,281550
1.7204,0.4594,39.3200,78,94,281553
1.7253,0.4643,39.2200,78,94,281556
1.7107,0.4545,39.4400,78,94,281560
1.6911,0.4594,39.3500,78,94,281564
1.7009,0.4594,39.2800,78,94,281567
1.6862,0.4594,39.3200,78,94,281570
1.7058,0.4643,39.2200,78,94,281574
1.6764,0.4643,39.3500,78,94,281577
1.6764,0.4692,39.3500,78,94,281580
1.7009,0.4692,39.2200,78,94,281584
1.6667,0.4594,39.3500,78,94,281587
1.7107,0.4692,39.1600,78,94,281590
1.6667,0.4594,39.3500,78,94,281594
1.6520,0.4545,39.3500,78,94,281597
1.6618,0.4643,39.3200,78,94,281601
1.6422,0.4594,39.3500,78,94,281605
1.6911,0.4692,39.0900,78,94,281608
1.6520,0.4643,39.3500,78,94,281611
1.6471,0.4594,39.3500,78,94,281614
1.6520,0.4594,39.3200,78,94,281618
1.6471,0.4594,39.3500,78,94,281621
1.7009,0.4790,39.1200,78,94,281624
1.6569,0.4643,39.2800,78,94,281628
1.6520,0.4545,39.2500,78,94,281631
1.6520,0.4594,39.3800,78,94,281634
1.6520,0.4594,39.3200,78,94,281638
1.6716,0.4692,39.2200,78,94,281641
1.6618,0.4643,39.2800,78,94,281645
1.6716,0.4692,39.2800,78,94,281649
1.6618,0.4594,39.3500,78,94,281652
1.6520,0.4448,39.3500,78,94,281655
1.6764,0.4692,39.1900,78,94,281658
1.6422,0.4545,39.3200,78,94,281662
1.6569,0.4643,39.2500,78,94,281665
1.6276,0.4692,39.3200,78,94,281668
1.6325,0.4448,39.3500,78,94,281672
1.6520,0.4692,39.2200,78,94,281675
1.6422,0.4594,39.3500,78,94,281678
1.6618,0.4643,39.1600,78,94,281682
1.6422,0.4594,39.2800,78,94,281686
1.6325,0.4594,39.3500,78,94,281689
1.6422,0.4692,39.2800,78,94,281693
1.6227,0.4594,39.3500,78,94,281696
1.6716,0.4692,39.0900,78,94,281699
1.6276,0.4545,39.2800,78,94,281703
1.6227,0.4545,39.4800,78,94,281706
1.6227,0.4643,39.3200,78,94,281709
1.6031,0.4594,39.4800,78,94,281712
1.6422,0.4790,39.0900,78,94,281716
1.6129,0.4643,39.2200,78,94,281719
1.6129,0.4545,39.2800,78,94,281722
1.6276,0.4594,39.3200,78,94,281726
1.6227,0.4594,39.4800,78,94,281730
1.6764,0.4692,39.1600,78,94,281733
1.6325,0.4790,39.2800,78,94,281737
1.6276,0.4545,39.2200,78,94,281740
1.6129,0.4594,39.3500,78,94,281743
1.6080,0.4643,39.3800,78,94,281747
1.6373,0.4692,39.1900,78,94,281750
1.6178,0.4594,39.2500,78,94,281753
1.6471,0.4692,39.1900,78,94,281756
1.6227,0.4594,39.3500,78,94,281760
1.6178,0.4594,39.3800,78,94,281763
1.6276,0.4594,39.2800,78,94,281766
1.6227,0.4594,39.3800,78,94,281771
1.6667,0.4692,39.1900,78,94,281774
1.6129,0.4594,39.3800,78,94,281777
1.6227,0.4448,39.3500,78,94,281781
1.6276,0.4643,39.2800,78,94,281784
1.6178,0.4594,39.3200,78,94,281787
1.6520,0.4692,39.1200,78,94,281791
1.6422,0.4643,39.2500,78,94,281794
1.6227,0.4594,39.3500,78,94,281797
1.6373,0.4643,39.3500,78,94,281801
1.6325,0.4594,39.3800,78,94,281804
1.6813,0.4790,39.0600,78,94,281807
1.6471,0.4594,39.2200,78,94,281811
1.6667,0.4545,39.3500,78,94,281815
1.6716,0.4594,39.3500,78,94,281818
1.6911,0.4692,39.3500,78,94,281821
1.7498,0.4741,39.1900,78,94,281825
1.7253,0.4545,39.3500,78,94,281828
1.7253,0.4594,39.2500,78,94,281831
1.7302,0.4643,39.3500,78,94,281835
1.7351,0.4594,39.3500,78,94,281838
1.7546,0.4692,39.2800,78,94,281841
1.7449,0.4594,39.3500,78,94,281845
1.7693,0.4643,39.1900,78,94,281848
1.7449,0.4594,39.3800,78,94,281851
1.7449,0.4594,39.3800,78,94,281856
1.7693,0.4692,39.2200,78,94,281859
1.7449,0.4692,39.3200,78,94,281862
1.7498,0.4643,39.1900,78,94,281866
1.7155,0.4594,39.2200,78,94,281869
1.6911,0.4643,39.3200,78,94,281872
1.6911,0.4692,39.2800,78,94,281875
1.6667,0.4594,39.3500,78,94,281879
1.6960,0.4643,39.0900,78,94,281882
1.6618,0.4692,39.2500,78,94,281885
1.6325,0.4594,39.3500,78,94,281889
1.6276,0.4545,39.3200,78,94,281892
1.6129,0.4594,39.3500,78,94,281895
1.6373,0.4741,39.1200,78,94,281900
1.5885,0.4594,39.2800,78,94,281903
1.5591,0.4545,39.2800,78,94,281906
1.5543,0.4448,39.3500,78,94,281910
1.5298,0.4594,39.3500,78,94,281913
1.5543,0.4741,39.2200,78,94,281916
1.5249,0.4643,39.3500,78,94,281920
1.5445,0.4545,39.2200,78,94,281923
1.5249,0.4594,39.2800,78,94,281926
1.5347,0.4594,39.3500,78,94,281929
1.5689,0.4643,39.1900,78,94,281933
1.5396,0.4594,39.3200,78,94,281936
1.5543,0.4643,39.2200,78,94,281939
1.5249,0.4594,39.3200,78,94,281944
1.5543,0.4594,39.3500,78,94,281947
1.5396,0.4643,39.2200,78,94,281950
1.5396,0.4545,39.3500,78,94,281954
1.5445,0.4692,39.2500,78,94,281957
1.5249,0.4545,39.2800,78,94,281960
1.5347,0.4594,39.3500,78,94,281964
1.5543,0.4643,39.3200,78,94,281967
1.5591,0.4594,39.3500,78,94,281970
1.5982,0.4692,39.0900,78,94,281974
1.5640,0.4497,39.3500,78,94,281977
1.5689,0.4594,39.3500,78,94,281980
1.5787,0.4692,39.3200,78,94,281984
1.5689,0.4594,39.3500,78,94,281988
1.6080,0.4741,39.1200,78,94,281991
1.5689,0.4643,39.3200,78,94,281994
1.5494,0.4545,39.3200,78,94,281998
1.5738,0.4448,39.3200,78,94,282001
1.6178,0.4594,39.3500,78,94,282004
1.7449,0.4888,39.1900,78,94,282008
1.7986,0.4643,39.3200,78,94,282011
1.9257,0.4741,39.3200,78,94,282014
2.0821,0.4594,39.3500,78,94,282018
2.2434,0.4594,39.3500,78,94,282021
2.4536,0.4692,39.1900,78,94,282024
2.5367,0.4594,39.3800,78,94,282029
2.6197,0.4692,39.1900,78,94,282032
2.5073,0.4594,39.3200,78,94,282035
2.2972,0.4594,39.3500,78,94,282038
2.0577,0.4545,39.3200,78,94,282042
1.7302,0.4594,39.3500,78,94,282045
1.5152,0.4594,39.1900,78,94,282048
1.3490,0.4594,39.3500,78,94,282052
1.2854,0.4594,39.3500,78,94,282055
1.3099,0.4643,39.2500,78,94,282058
1.3148,0.4594,39.3500,78,94,282062
1.3978,0.4692,39.1600,78,94,282065
1.3978,0.4643,39.2800,78,94,282068
1.4174,0.4643,39.3800,78,94,282073
1.4223,0.4643,39.2800,78,94,282076
1.4467,0.4545,39.3200,78,94,282079
1.4761,0.4741,39.0600,78,94,282082
1.4565,0.4643,39.2200,78,94,282086
1.4370,0.4594,39.3200,78,94,282090
1.4516,0.4448,39.2200,78,94,282093
1.4516,0.4594,39.3200,78,94,282096
1.4663,0.4594,39.3500,78,94,282099
1.4858,0.4790,39.3200,78,94,282103
1.4761,0.4594,39.3500,78,94,282106
1.5103,0.4643,39.2500,78,94,282109
1.4907,0.4594,39.3500,78,94,282114
1.4956,0.4594,39.2200,78,94,282117
1.5152,0.4545,39.2800,78,94,282120
1.5054,0.4594,39.3500,78,94,282124
1.5543,0.4692,39.1900,78,94,282127
1.5396,0.4594,39.2500,78,94,282130
1.5445,0.4692,39.3800,78,94,282134
1.5689,0.4692,39.3200,78,94,282137
1.5640,0.4839,39.3800,78,94,282140
1.6227,0.4741,39.1600,78,94,282144
1.5836,0.4594,39.2500,78,94,282147
1.5738,0.4545,39.3500,78,94,282150
1.5738,0.4594,39.3500,78,94,282153
1.5934,0.4545,39.3800,78,94,282158
1.6031,0.4790,39.1200,78,94,282161
1.5738,0.4741,39.3200,78,94,282164
1.5738,0.4545,39.2800,78,94,282168
1.5787,0.4594,39.3800,78,94,282171
1.5689,0.4594,39.3500,78,94,282174
1.6080,0.4741,39.2200,78,94,282178
1.5738,0.4692,39.3200,78,94,282181
1.5738,0.4643,39.2800,78,94,282184
1.5689,0.4545,39.3800,78,94,282188
1.5982,0.4545,39.3200,78,94,282191
1.6227,0.4643,39.1900,78,94,282194
1.6080,0.4594,39.3200,78,94,282199
1.6373,0.4692,39.2200,78,94,282202
1.6178,0.4594,39.3500,78,94,282205
1.6129,0.4594,39.3500,78,94,282208
1.6276,0.4643,39.2200,78,94,282212
1.6031,0.4594,39.3500,78,94,282215
1.6227,0.4643,39.2500,78,94,282218
1.6129,0.4545,39.2500,78,94,282222
1.6227,0.4594,39.2500,78,94,282225
1.6520,0.4692,39.2500,78,94,282228
1.6422,0.4594,39.3500,78,94,282232
1.6764,0.5034,39.1600,78,94,282235
1.6373,0.4545,39.3200,78,94,282238
1.6325,0.4692,39.3500,78,94,282243
1.6422,0.4643,39.2800,78,94,282246
1.6422,0.4594,39.3500,78,94,282249
1.6813,0.4790,39.0900,78,94,282253
1.6520,0.4643,39.2500,78,94,282256
1.6373,0.4594,39.3500,78,94,282259
1.6373,0.4594,39.3200,78,94,282262
1.6373,0.4888,39.3500,78,94,282266
1.6862,0.4692,39.1900,78,94,282269
1.6471,0.4692,39.3200,78,94,282272
1.6422,0.4594,39.2500,78,94,282276
1.6227,0.4643,39.3500,78,94,282279
1.6129,0.4594,39.3200,78,94,282283
1.6276,0.4692,39.1900,78,94,282287
1.5885,0.4448,39.3200,78,94,282290
1.5982,0.4643,39.1600,78,94,282293
1.5689,0.4692,39.3500,78,94,282297
1.5640,0.4594,39.3500,78,94,282300
1.5738,0.4692,39.3200,78,94,282303
1.5640,0.4594,39.3200,78,94,282306
1.5836,0.4594,39.2200,78,94,282310
1.5689,0.4448,39.3800,78,94,282313
1.5640,0.4594,39.3500,78,94,282316
1.5689,0.4643,39.2200,78,94,282320
1.5396,0.4594,39.3500,78,94,282323
1.5543,0.4692,39.0900,78,94,282327
1.5249,0.4692,39.2500,78,94,282331
1.5054,0.4692,39.3500,78,94,282334
1.5054,0.4643,39.2800,78,94,282337
1.4907,0.4594,39.3500,78,94,282341
1.5445,0.4741,39.0000,78,94,282344
1.5249,0.4643,39.2500,78,94,282347
1.5103,0.4545,39.2800,78,94,282351
1.5396,0.4594,39.3200,78,94,282354
1.5054,0.4594,39.3500,78,94,282357
1.5543,0.4790,39.1600,78,94,282360
1.5200,0.4643,39.2800,78,94,282364
1.5152,0.4594,39.2500,78,94,282368
1.5054,0.4692,39.3500,78,94,282371
1.5005,0.4545,39.3500,78,94,282375
1.5347,0.4790,39.3200,78,94,282378
1.5298,0.4643,39.3200,78,94,282381
1.5396,0.4643,39.2200,78,94,282385
1.5249,0.4594,39.3500,78,94,282388
1.5200,0.4594,39.3500,78,94,282391
1.5494,0.4692,39.2200,78,94,282395
1.5200,0.4594,39.3800,78,94,282398
1.5591,0.4643,39.2200,78,94,282401
1.5347,0.4594,39.2800,78,94,282404
1.5396,0.4594,39.3500,78,94,282408
1.5836,0.4692,39.2500,78,94,282412
1.5543,0.4594,39.3500,78,94,282415
1.5885,0.4936,39.1600,78,94,282419
1.5787,0.4594,39.2800,78,94,282422
1.5934,0.4594,39.2500,78,94,282425
1.6276,0.4545,39.3200,78,94,282429
1.5934,0.4594,39.0000,78,94,282432
1.6276,0.4741,39.0900,78,94,282435
1.5934,0.4594,39.3200,78,94,282439
1.6080,0.4594,39.3200,78,94,282442
1.6325,0.4643,39.3200,78,94,282445
1.6227,0.4594,39.3500,78,94,282449
1.6764,0.4790,39.1200,78,94,282452
1.6471,0.4643,39.2500,78,94,282456
1.6373,0.4594,39.3200,78,94,282459
1.6373,0.4643,39.3500,78,94,282463
1.6471,0.4594,39.3500,78,94,282466
1.6911,0.4692,39.1600,78,94,282469
1.6618,0.4594,39.3200,78,94,282473
1.6716,0.5083,39.2200,78,94,282476
1.6667,0.4594,39.3500,78,94,282479
1.6618,0.4594,39.2500,78,94,282483
1.6862,0.4692,39.2200,78,94,282486
1.6569,0.4594,39.3500,78,94,282489
1.6813,0.4643,39.2200,78,94,282493
1.6618,0.4594,39.3500,78,94,282497
1.6618,0.4594,39.3800,78,94,282500
1.6716,0.4594,39.2500,78,94,282504
1.6667,0.4594,39.3800,78,94,282507
1.6911,0.4741,39.1600,78,94,282510
1.6667,0.4497,39.3500,78,94,282513
1.6667,0.4594,39.3500,78,94,282517
1.6911,0.4741,39.2800,78,94,282520
1.6764,0.4594,39.3200,78,94,282523
1.7253,0.4741,39.1200,78,94,282527
1.7058,0.4643,39.2500,78,94,282530
1.6862,0.4594,39.3800,78,94,282533
1.6813,0.4594,39.3200,78,94,282537
1.6667,0.4594,39.5100,78,94,282541
1.7155,0.4790,39.1600,78,94,282544
1.6764,0.4839,39.2500,78,94,282548
1.6911,0.4448,39.2500,78,94,282551
1.6911,0.4594,39.2500,78,94,282554
1.7009,0.4545,39.3500,78,94,282558
1.7498,0.4692,39.1900,78,94,282561
1.7351,0.4790,39.3200,78,94,282564
1.7595,0.4594,39.2500,78,94,282567
1.7253,0.4594,39.4400,78,94,282571
1.7302,0.4545,39.3500,78,94,282574
1.7449,0.4594,39.1900,78,94,282577
1.7546,0.4545,39.3800,78,94,282582
1.7742,0.4643,39.2200,78,94,282585
1.7937,0.4545,39.3500,78,94,282588
1.7889,0.4594,39.3200,78,94,282592
1.8182,0.4594,39.2500,78,94,282595
1.7986,0.4594,39.3200,78,94,282598
1.8280,0.4643,39.1600,78,94,282602
1.8084,0.4643,39.2800,78,94,282605
1.7840,0.4594,39.3500,78,94,282608
1.7791,0.4643,39.2800,78,94,282612
1.7400,0.4594,39.0300,78,94,282615
1.7644,0.4888,39.1200,78,94,282618
1.7302,0.4643,39.2500,78,94,282621
1.7155,0.4594,39.3800,78,94,282626
1.7204,0.4594,39.3200,78,94,282629
1.7155,0.4594,39.2800,78,94,282632
1.7595,0.4741,39.1200,78,94,282636
1.7107,0.4692,39.2800,78,94,282639
1.6960,0.4594,39.2800,78,94,282642
1.6862,0.4594,39.3500,78,94,282646
1.6667,0.4594,39.3500,78,94,282649
1.6911,0.4643,39.2200,78,94,282652
1.6520,0.4936,39.3200,78,94,282656
1.6520,0.4643,39.2200,78,94,282659
1.6129,0.4839,39.3800,78,94,282662
1.6031,0.4594,39.3500,78,94,282667
1.6227,0.4643,39.2200,78,94,282670
1.5885,0.4594,39.3500,78,94,282673
1.6031,0.4643,38.6200,78,94,282676
1.5787,0.4545,39.3200,78,94,282680
1.5787,0.4594,39.3500,78,94,282683
1.5982,0.4692,39.2500,78,94,282686
1.5836,0.4545,39.3500,78,94,282690
1.6031,0.4643,39.2500,78,94,282693
1.6422,0.4643,39.0900,78,94,282697
1.6031,0.4643,39.2800,78,94,282700
1.6080,0.4545,39.3500,78,94,282703
1.6178,0.4594,39.3500,78,94,282707
1.6325,0.4594,39.3200,78,94,282711
1.6911,0.4790,38.8100,78,94,282714
1.6569,0.4545,39.3200,78,94,282718
1.6716,0.4545,39.2500,78,94,282721
1.6960,0.4594,39.3200,78,94,282724
1.6667,0.4594,39.3500,78,94,282728
1.6911,0.4936,39.1200,78,94,282731
1.6569,0.4594,39.3200,78,94,282734
1.6764,0.4643,39.2500,78,94,282737
1.6911,0.4594,39.3200,78,94,282741
1.7400,0.4594,39.4800,78,94,282744
1.8377,0.4692,39.2200,78,94,282747
1.9062,0.4594,39.4100,78,94,282752
2.0674,0.4643,39.2500,78,94,282755
2.1848,0.4545,39.3200,78,94,282758
2.3167,0.4594,39.3800,78,94,282762
2.4829,0.4643,39.2500,78,94,282765
2.5709,0.4594,39.3500,78,94,282768
2.6051,0.4643,39.1600,78,94,282772
2.4096,0.4594,39.3500,78,94,282775
2.1652,0.4594,39.3200,78,94,282778
1.9013,0.4643,39.3200,78,94,282781
1.6471,0.4545,39.3800,78,94,282785
1.5249,0.4692,39.0900,78,94,282788
1.4272,0.4643,39.2800,78,94,282791
1.4174,0.4839,39.3500,78,94,282796
1.4712,0.4594,39.2800,78,94,282799
1.5152,0.4594,39.4400,78,94,282802
1.6031,0.4790,39.1600,78,94,282806
1.5934,0.4741,39.2800,78,94,282809
1.6031,0.4594,39.3200,78,94,282812
1.6080,0.4643,39.3500,78,94,282816
1.6080,0.4545,39.3500,78,94,282819
1.6422,0.4643,39.2200,78,94,282822
1.6129,0.4692,39.2800,78,94,282826
1.6129,0.4643,39.2200,78,94,282829
1.5982,0.4594,39.3500,78,94,282832
1.6031,0.4594,39.3500,78,94,282835
1.6227,0.4643,39.2800,78,94,282840
1.6422,0.4545,39.3500,78,94,282843
1.6422,0.4692,39.2500,78,94,282846
1.6422,0.4594,39.3500,78,94,282850
1.6325,0.4594,39.3500,78,94,282853
1.6618,0.4790,39.3200,78,94,282856
1.6471,0.4594,39.4100,78,94,282860
1.6716,0.4692,39.1900,78,94,282863
1.6569,0.4594,39.2500,78,94,282866
1.6422,0.4594,39.3500,78,94,282870
1.6569,0.4643,39.2800,78,94,282873
1.6471,0.4594,39.3800,78,94,282876
1.6911,0.4692,39.0900,78,94,282881
1.6764,0.4643,39.2200,78,94,282884
1.6667,0.4594,39.3500,78,94,282887
1.6764,0.4594,39.3200,78,94,282890
1.6716,0.4839,39.3800,78,94,282894
1.7351,0.4790,39.0900,78,94,282897
1.6813,0.4643,39.2800,78,94,282900
1.6813,0.4790,39.3200,78,94,282904
1.6862,0.4594,39.3200,78,94,282907
1.6911,0.4594,39.3500,78,94,282910
1.7400,0.4692,39.4400,78,94,282914
1.7155,0.4839,39.3200,78,94,282917
1.7400,0.4594,39.2500,78,94,282920
1.7204,0.4839,39.3500,78,94,282925
1.7302,0.4545,39.3500,78,94,282928
1.7595,0.4643,39.1600,78,94,282931
1.7302,0.4594,39.3200,78,94,282935
1.7498,0.4643,39.2500,78,94,282938
1.7253,0.4497,39.3200,78,94,282941
1.7351,0.4594,39.4100,78,94,282944
1.7693,0.4643,39.2500,78,94,282948
1.7644,0.4594,39.4100,78,94,282951
1.7937,0.4692,39.1900,78,94,282954
1.7693,0.4594,39.2500,78,94,282958
1.7693,0.4643,39.3200,78,94,282961
1.7937,0.4643,39.2800,78,94,282964
1.7889,0.4594,39.3800,78,94,282969
1.8426,0.4692,39.1200,78,94,282972
1.7937,0.4594,39.2800,78,94,282975
1.8035,0.4594,39.3500,78,94,282979
1.8084,0.4643,39.3200,78,94,282982
1.8084,0.4594,39.4400,78,94,282985
1.8622,0.4790,39.0900,78,94,282989
1.8377,0.4643,39.1900,78,94,282992
1.8328,0.4594,39.2800,78,94,282995
1.8475,0.4594,39.2500,78,94,282998
1.8524,0.4594,39.3200,78,94,283002
1.9062,0.4643,39.1900,78,94,283005
1.8719,0.4643,39.3500,78,94,283009
1.8768,0.4594,39.2500,78,94,283013
1.8573,0.4594,39.3800,78,94,283016
1.8866,0.4448,39.3500,78,94,283019
1.8915,0.4643,39.1600,78,94,283023
1.8915,0.4545,39.3200,78,94,283026
1.8866,0.4692,39.2200,78,94,283029
1.8573,0.4692,39.3500,78,94,283033
1.8475,0.4594,39.3500,78,94,283036
1.8573,0.4594,39.1600,78,94,283039
1.8426,0.4448,39.3200,78,94,283042
1.8671,0.4692,39.2500,78,94,283046
1.8328,0.4594,39.3500,78,94,283049
1.8280,0.4594,39.5400,78,94,283053
1.8475,0.4692,39.2200,78,94,283057
1.8231,0.4594,39.3500,78,94,283060
1.8475,0.4692,39.1200,78,94,283063
1.8280,0.4643,39.2500,78,94,283067
1.8084,0.4936,39.3800,78,94,283070
1.8133,0.4643,39.3200,78,94,283073
1.7937,0.4594,39.3800,78,94,283077
1.8426,0.4741,39.0600,78,94,283080
1.7937,0.4545,39.3200,78,94,283083
1.7791,0.4594,39.3200,78,94,283087
1.7791,0.4594,39.3200,78,94,283090
1.7742,0.4594,39.3500,78,94,283094
1.8231,0.4741,39.2200,78,94,283097
1.7889,0.4692,39.3200,78,94,283101
1.7986,0.4594,39.1900,78,94,283104
1.7840,0.4594,39.3500,78,94,283107
1.7889,0.4594,39.3800,78,94,283111
1.8133,0.4643,39.3500,78,94,283114
1.8084,0.4594,39.3200,78,94,283117
1.8231,0.4643,39.2200,78,94,283121
1.8035,0.4545,39.3500,78,94,283124
1.8035,0.4594,39.3500,78,94,283127
1.8328,0.4643,39.1900,78,94,283131
1.8133,0.4594,39.3500,78,94,283134
1.8524,0.4692,39.1900,78,94,283138
1.8524,0.4594,39.2800,78,94,283142
1.8573,0.4643,39.3500,78,94,283145
1.8817,0.4643,39.2800,78,94,283148
1.8671,0.4692,39.3500,78,94,283151
1.9110,0.4692,39.1200,78,94,283155
1.8915,0.4643,39.1900,78,94,283158
1.8964,0.4497,39.3500,78,94,283161
1.9208,0.4643,39.3200,78,94,283165
1.9159,0.4594,39.3800,78,94,283168
1.9746,0.4741,39.0600,78,94,283171
1.9306,0.4741,39.2500,78,94,283175
1.9257,0.4545,39.3200,78,94,283179
1.9355,0.4594,39.2800,78,94,283182
1.9306,0.4594,39.3800,78,94,283186
1.9844,0.4643,39.1900,78,94,283189
1.9550,0.4594,39.3200,78,94,283192
1.9648,0.4594,39.2500,78,94,283196
1.9550,0.4594,39.4400,78,94,283199
1.9599,0.4594,39.3500,78,94,283202
2.0039,0.4741,39.2200,78,94,283205
1.9795,0.4594,39.3500,78,94,283209
1.9941,0.4643,39.1900,78,94,283212
1.9746,0.4545,39.4400,78,94,283215
1.9892,0.4594,39.3500,78,94,283219
2.0283,0.4692,39.2500,78,94,283223
1.9990,0.4594,39.3500,78,94,283226
2.0332,0.4594,39.2200,78,94,283230
2.0137,0.4594,39.3200,78,94,283233
2.0283,0.4594,39.3200,78,94,283236
2.0430,0.4643,39.2200,78,94,283240
2.0235,0.4839,39.3500,78,94,283243
2.0870,0.4692,39.1600,78,94,283246
2.0235,0.4594,39.3500,78,94,283249
2.0381,0.4545,39.3500,78,94,283253
2.0674,0.4643,39.2800,78,94,283256
2.0430,0.4594,39.3800,78,94,283259
2.0968,0.4741,39.1200,78,94,283264
2.0723,0.4692,39.2500,78,94,283267
2.0577,0.4594,39.3500,78,94,283270
2.0674,0.4643,39.3200,78,94,283274
2.0723,0.4594,39.3500,78,94,283277
2.1457,0.4790,39.0600,78,94,283280
2.1114,0.4643,39.2800,78,94,283283
2.1114,0.4545,39.3200,78,94,283287
2.1261,0.4643,39.3500,78,94,283290
2.1310,0.4594,39.3500,78,94,283293
2.1848,0.4692,39.1600,78,94,283297
2.1554,0.4643,39.2800,78,94,283300
2.1603,0.4594,39.3200,78,94,283303
2.1457,0.4545,39.3500,78,94,283308
2.2092,0.4545,39.3500,78,94,283311
2.2336,0.4545,39.3200,78,94,283315
2.2727,0.4643,39.2500,78,94,283318
2.2630,0.4594,39.3500,78,94,283321
2.3118,0.4643,39.1200,78,94,283325
2.3265,0.4643,39.2500,78,94,283328
2.3118,0.4594,39.3800,78,94,283331
2.3460,0.4643,39.3200,78,94,283335
2.3314,0.4594,39.3500,78,94,283338
2.4047,0.4985,39.0900,78,94,283341
2.3754,0.4643,39.2500,78,94,283344
2.3705,0.4741,39.3500,78,94,283348
2.3851,0.4545,39.2800,78,94,283352
2.3705,0.4594,39.3500,78,94,283355
2.4242,0.4790,39.1200,78,94,283359
2.3607,0.4643,39.2800,78,94,283362
2.3460,0.4594,39.3200,78,94,283365
2.3363,0.4594,39.3200,78,94,283369
2.3314,0.4594,39.3800,78,94,283372
2.3705,0.4692,39.2200,78,94,283375
2.3363,0.4643,39.2800,78,94,283379
2.3314,0.4643,39.2200,78,94,283382
2.2874,0.4594,39.3500,78,94,283385
2.2727,0.4594,39.3500,78,94,283388
2.3069,0.4741,39.1900,78,94,283393
2.2727,0.4643,39.3500,78,94,283396
2.3021,0.4643,39.2500,78,94,283399
2.2630,0.4448,39.3500,78,94,283403
2.2532,0.4594,39.3500,78,94,283406
2.2727,0.4643,39.2800,78,94,283409
2.2336,0.4594,39.3800,78,94,283413
2.2630,0.4594,39.2200,78,94,283416
2.2434,0.4594,39.2800,78,94,283419
2.2483,0.4594,39.3500,78,94,283423
2.2776,0.4692,39.2500,78,94,283426
2.2776,0.4594,39.3500,78,94,283429
2.3363,0.4692,39.1200,78,94,283432
2.2923,0.4545,39.3200,78,94,283437
2.3021,0.4545,39.2200,78,94,283440
2.3216,0.4643,39.3200,78,94,283443
2.3167,0.4594,39.3500,78,94,283447
2.3803,0.4839,39.0600,78,94,283450
2.3460,0.4643,39.2500,78,94,283453
2.3363,0.4545,39.3200,78,94,283457
2.3509,0.4594,39.3200,78,94,283460
2.3509,0.4594,39.3500,78,94,283463
2.4145,0.4790,39.2500,78,94,283467
2.3754,0.4643,39.3200,78,94,283470
2.3851,0.4594,39.2500,78,94,283473
2.3754,0.4545,39.3500,78,94,283476
2.3851,0.4594,39.3800,78,94,283481
2.4194,0.4643,39.2200,78,94,283484
2.3900,0.4643,39.3500,78,94,283487
2.4194,0.4643,39.2200,78,94,283491
2.4096,0.4839,39.3500,78,94,283494
2.4633,0.4594,39.3500,78,94,283497
2.5513,0.4594,39.2800,78,94,283501
2.6197,0.4545,39.3800,78,94,283504
2.7664,0.4692,39.2200,78,94,283507
2.8788,0.4594,39.3500,78,94,283511
3.0352,0.4594,39.3800,78,94,283514
3.2014,0.4839,39.2500,78,94,283517
3.2893,0.4594,39.3200,78,94,283521
3.3871,0.4643,39.1200,78,94,283525
3.2649,0.4643,39.2200,78,94,283528
3.0499,0.4594,39.3500,78,94,283531
2.8348,0.4692,39.2800,78,94,283535
2.5806,0.4448,39.3500,78,94,283538
2.4585,0.4692,39.1600,78,94,283541
2.3069,0.4643,39.2500,78,94,283545
2.2630,0.4594,39.3500,78,94,283548
2.2923,0.4594,39.3200,78,94,283551
2.3460,0.4594,39.3500,78,94,283555
2.4829,0.4790,39.1200,78,94,283558
2.4927,0.4643,39.2800,78,94,283561
2.5122,0.4545,39.2800,78,94,283565
2.5269,0.4594,39.2200,78,94,283569
2.5269,0.4545,39.3200,78,94,283572
2.5660,0.4741,39.2200,78,94,283575
2.5220,0.4643,39.2800,78,94,283579
2.5367,0.4643,39.2200,78,94,283582
2.5171,0.4594,39.3500,78,94,283585
2.5122,0.4594,39.3800,78,94,283589
2.5611,0.4692,39.1600,78,94,283592
2.5318,0.4594,39.3200,78,94,283595
2.5660,0.4643,39.3800,78,94,283599
2.5318,0.4594,39.3200,78,94,283602
2.5367,0.4594,39.3500,78,94,283606
2.5660,0.4594,39.2500,78,94,283610
2.5367,0.4594,39.3200,78,94,283613
2.5806,0.4643,39.1900,78,94,283616
2.5660,0.4594,39.2800,78,94,283619
2.5758,0.4594,39.3500,78,94,283623
2.6100,0.4643,39.2800,78,94,283626
2.5904,0.4594,39.3500,78,94,283629
2.6540,0.4692,39.1200,78,94,283633
2.5904,0.4545,39.3800,78,94,283636
2.6197,0.4594,39.3500,78,94,283639
2.6051,0.4594,39.3500,78,94,283643
2.6051,0.4790,39.3800,78,94,283646
2.7077,0.4692,39.0900,78,94,283650
2.6295,0.4643,39.2800,78,94,283653
2.6100,0.4545,39.3500,78,94,283657
2.6002,0.4594,39.3500,78,94,283660
2.5904,0.4594,39.4400,78,94,283663
2.6588,0.4790,39.2200,78,94,283667
2.6344,0.4643,39.2800,78,94,283670
2.6002,0.4594,39.2500,78,94,283673
2.6100,0.4594,39.2200,78,94,283677
2.6246,0.4888,39.3500,78,94,283680
2.6833,0.4692,39.1900,78,94,283683
2.6393,0.4692,39.3200,78,94,283686
2.6442,0.4545,39.2200,78,94,283691
2.6197,0.4594,39.3500,78,94,283694
2.6295,0.4643,39.3500,78,94,283697
2.6344,0.4643,39.3200,78,94,283701
2.5953,0.4545,39.3500,78,94,283704
2.6442,0.4692,39.2500,78,94,283707
2.5855,0.4594,39.3800,78,94,283711
2.6051,0.4594,39.3800,78,94,283714
2.6295,0.4643,39.2500,78,94,283717
2.6051,0.4448,39.3500,78,94,283721
2.6149,0.4692,39.2200,78,94,283724
2.5904,0.4692,39.2500,78,94,283727
2.6002,0.4545,39.3500,78,94,283730
2.6051,0.4643,39.2800,78,94,283735
2.5806,0.4643,39.3800,78,94,283738
2.6295,0.4692,39.1200,78,94,283741
2.5855,0.4643,39.2800,78,94,283745
2.5562,0.4594,39.3500,78,94,283748
2.5660,0.4643,39.3500,78,94,283751
2.5513,0.4594,39.3200,78,94,283755
2.6197,0.4692,39.0600,78,94,283758
2.5513,0.4594,39.3500,78,94,283761
2.5318,0.4790,39.3200,78,94,283765
2.5220,0.4594,39.3500,78,94,283768
2.4976,0.4594,39.3200,78,94,283771
2.5758,0.4741,39.1900,78,94,283774
2.5024,0.4643,39.2800,78,94,283779
2.4829,0.4594,39.2500,78,94,283782
2.4585,0.4594,39.2500,78,94,283785
2.4633,0.4545,39.4400,78,94,283789
2.4682,0.4692,39.1900,78,94,283792
2.4145,0.4545,39.3500,78,94,283795
2.4438,0.4643,39.2200,78,94,283799
2.4194,0.4643,39.3200,78,94,283802
2.4438,0.4594,39.3500,78,94,283805
2.4389,0.4643,39.2200,78,94,283809
2.3803,0.4497,39.3500,78,94,283812
2.3900,0.4594,39.2200,78,94,283815
2.3412,0.4545,39.4800,78,94,283819
2.3314,0.4594,39.3500,78,94,283823
2.3314,0.4643,39.2500,78,94,283826
2.3021,0.4594,39.3500,78,94,283829
2.3314,0.4692,39.1600,78,94,283833
2.2825,0.4594,39.3500,78,94,283836
2.2874,0.4594,39.3200,78,94,283839
2.3021,0.4643,39.2800,78,94,283843
2.2727,0.4594,39.3500,78,94,283846
2.3216,0.4741,39.1200,78,94,283849
2.2825,0.4643,39.2500,78,94,283853
2.2385,0.4545,39.3800,78,94,283856
2.2287,0.4545,39.3800,78,94,283859
2.2141,0.4594,39.3500,78,94,283864
2.2776,0.4741,39.1600,78,94,283867
2.2434,0.4643,39.2800,78,94,283870
2.2581,0.4594,39.2800,78,94,283873
2.2581,0.4790,39.3200,78,94,283877
2.2532,0.4594,39.3200,78,94,283880
2.2874,0.4643,39.1600,78,94,283883
2.2825,0.4448,39.3200,78,94,283887
2.2825,0.4643,39.2200,78,94,283890
2.2581,0.4643,39.3500,78,94,283893
2.2581,0.4594,39.4100,78,94,283897
2.2678,0.4692,39.2800,78,94,283900
2.2532,0.4594,39.3200,78,94,283904
2.2776,0.4643,39.3500,78,94,283908
2.2483,0.4594,39.3500,78,94,283911
2.2678,0.4594,39.2800,78,94,283914
2.3069,0.4888,39.2500,78,94,283917
2.3265,0.4936,39.2800,78,94,283921
2.3167,0.4594,39.3200,78,94,283925
2.3803,0.4741,39.0900,78,94,283928
2.3460,0.4594,39.3200,78,94,283931
2.3460,0.4448,39.4800,78,94,283934
2.3607,0.4594,39.3200,78,94,283938
2.3460,0.4594,39.3800,78,94,283941
2.4145,0.4741,39.1600,78,94,283944
2.3460,0.4643,39.2800,78,94,283949
2.3412,0.4545,39.2500,78,94,283952
2.3265,0.4594,39.3500,78,94,283955
2.3167,0.4594,39.3200,78,94,283959
2.3509,0.4643,39.1900,78,94,283962
2.3314,0.4692,39.3200,78,94,283965
2.3509,0.4643,39.2200,78,94,283969
2.3216,0.4888,39.3500,78,94,283972
2.3216,0.4594,39.3500,78,94,283975
2.3607,0.4643,39.1900,78,94,283978
2.3265,0.4594,39.3200,78,94,283982
2.3558,0.4643,39.2500,78,94,283985
2.3069,0.4594,39.3200,78,94,283988
2.3069,0.4594,39.3500,78,94,283993
2.3216,0.4643,39.4100,78,94,283996
2.2923,0.4545,39.3500,78,94,283999
2.3265,0.4692,39.1600,78,94,284003
2.3021,0.4643,39.2200,78,94,284006
2.2972,0.4594,39.3500,78,94,284009
2.3167,0.4643,39.1600,78,94,284013
2.3021,0.4545,39.3200,78,94,284016
2.3607,0.4643,39.0900,78,94,284019
2.3069,0.4545,39.3200,78,94,284022
2.3509,0.4448,39.3500,78,94,284026
2.3412,0.4643,39.3200,78,94,284029
2.3314,0.4594,39.3200,78,94,284033
2.3900,0.4790,39.1200,78,94,284037
2.3265,0.4643,39.1900,78,94,284040
2.3265,0.4497,39.2800,78,94,284043
2.3118,0.4888,39.3800,78,94,284047
2.3265,0.4594,39.3500,78,94,284050
2.3754,0.4643,39.0900,78,94,284053
2.3460,0.4594,39.3200,78,94,284057
2.3803,0.4643,39.2500,78,94,284060
2.3754,0.4594,39.3500,78,94,284063
2.4194,0.4594,39.3500,78,94,284066
2.4340,0.4643,39.1900,78,94,284070
2.3949,0.4888,39.2200,78,94,284073
2.4242,0.4692,39.1900,78,94,284077
2.4047,0.4594,39.2800,78,94,284081
2.4194,0.4643,39.3500,78,94,284084
2.4438,0.4594,39.2800,78,94,284087
2.4438,0.4594,39.4100,78,94,284091
2.5122,0.4692,39.2200,78,94,284094
2.4487,0.4594,39.2800,78,94,284097
2.4487,0.4545,39.3500,78,94,284101
2.4682,0.4643,39.2500,78,94,284104
2.4242,0.4545,39.3500,78,94,284107
2.4536,0.4643,39.1600,78,94,284110
2.4096,0.4692,39.2200,78,94,284114
2.3900,0.4594,39.3500,78,94,284118
2.3998,0.4643,39.3500,78,94,284121
2.3754,0.4545,39.3200,78,94,284125
2.4194,0.4741,39.0600,78,94,284128
2.3509,0.4692,39.3200,78,94,284131
2.3216,0.4545,39.3500,78,94,284135
2.3167,0.4594,39.3200,78,94,284138
2.2923,0.4594,39.3200,78,94,284141
2.3412,0.4790,39.1600,78,94,284145
2.2776,0.4643,39.2800,78,94,284148
2.2630,0.4594,39.2500,78,94,284151
2.2483,0.4594,39.2200,78,94,284154
2.2336,0.4594,39.3200,78,94,284158
2.2678,0.4692,39.2500,78,94,284162
2.2434,0.4594,39.3800,78,94,284165
2.2581,0.4643,39.2200,78,94,284169
2.2336,0.4594,38.6800,78,94,284172
2.2336,0.4643,39.3500,78,94,284175
2.2581,0.4741,39.2200,78,94,284179
2.2092,0.4448,39.3500,78,94,284182
2.2385,0.4643,39.2200,78,94,284185
2.2092,0.4545,39.2500,78,94,284189
2.2190,0.4594,39.3500,78,94,284192
2.2483,0.4643,39.2500,78,94,284195
2.2336,0.4692,39.3500,78,94,284198
2.2923,0.4692,39.1900,78,94,284203
2.2581,0.4594,39.2200,78,94,284206
2.2434,0.4839,39.3500,78,94,284209
2.2630,0.4643,39.2800,78,94,284213
2.2385,0.4594,39.2500,78,94,284216
2.2972,0.4692,39.0900,78,94,284219
2.2581,0.4594,39.2800,78,94,284223
2.2776,0.4839,39.3500,78,94,284226
2.2923,0.4448,39.3200,78,94,284229
2.2874,0.4594,39.3500,78,94,284233
2.3558,0.4790,39.1200,78,94,284236
2.2923,0.4643,39.3200,78,94,284239
2.2630,0.4790,39.3200,78,94,284242
2.2678,0.4594,39.3800,78,94,284247
2.3167,0.4692,39.3500,78,94,284250
2.4536,0.4692,39.1900,78,94,284253
2.5073,0.4643,39.2800,78,94,284257
2.6491,0.4839,39.2500,78,94,284260
2.8201,0.4594,39.3800,78,94,284263
3.0450,0.4594,39.3500,78,94,284267
3.2893,0.4692,39.1900,78,94,284270
3.3920,0.4594,39.3500,78,94,284273
3.4653,0.4790,39.2200,78,94,284277
3.3089,0.4594,39.3500,78,94,284280
3.1036,0.4594,39.4100,78,94,284283
2.8495,0.4692,39.2800,78,94,284286
2.5562,0.4594,39.3500,78,94,284291
2.3363,0.4692,39.2500,78,94,284294
2.1603,0.4594,39.3200,78,94,284297
2.0577,0.4594,39.3200,78,94,284301
2.0626,0.4790,39.3200,78,94,284304
2.0723,0.4594,39.3500,78,94,284307
2.1652,0.4692,39.2800,78,94,284311
2.1896,0.4594,39.3200,78,94,284314
2.1945,0.4594,39.3500,78,94,284317
2.2239,0.4790,39.3500,78,94,284321
2.2239,0.4448,39.3500,78,94,284324
2.2923,0.4692,39.0000,78,94,284327
2.2727,0.4643,39.2800,78,94,284331
2.2630,0.4545,39.3500,78,94,284335
2.2678,0.4594,39.3200,78,94,284338
2.2776,0.4545,39.4100,78,94,284341
2.3460,0.4790,39.1600,78,94,284345
2.3021,0.4741,39.2800,78,94,284348
2.2972,0.4594,39.2800,78,94,284351
2.3069,0.4594,39.2800,78,94,284355
2.3069,0.4448,39.3500,78,94,284358
2.3558,0.4692,39.2500,78,94,284361
2.3314,0.4594,39.2800,78,94,284365
2.3558,0.4497,39.2200,78,94,284368
2.3314,0.4594,39.4100,78,94,284371
2.3265,0.4594,39.3200,78,94,284375
2.3656,0.4692,39.2200,78,94,284379
2.3363,0.4594,39.3500,78,94,284382
2.3803,0.4643,39.2200,78,94,284385
2.3460,0.4545,39.2800,78,94,284389
2.3558,0.4643,39.3500,78,94,284392
2.3900,0.4643,39.2500,78,94,284395
2.3754,0.4594,39.3800,78,94,284399
2.4145,0.4692,39.1200,78,94,284402
2.3900,0.4594,39.2800,78,94,284405
2.3900,0.4545,39.3200,78,94,284409
2.4145,0.4643,39.3200,78,94,284412
2.4047,0.4594,39.2200,78,94,284416
2.4682,0.4741,39.0900,78,94,284419
2.4291,0.4545,39.3200,78,94,284423
2.4340,0.4594,39.3500,78,94,284426
2.4633,0.4448,39.3200,78,94,284429
2.4242,0.4594,39.2800,78,94,284433
2.4878,0.4790,39.1200,78,94,284436
2.4438,0.4643,39.2500,78,94,284439
2.4389,0.4545,39.2800,78,94,284443
2.4487,0.4594,39.3200,78,94,284446
2.4438,0.4594,39.3200,78,94,284449
2.5024,0.4741,39.1600,78,94,284453
2.4585,0.4643,39.3200,78,94,284456
2.4633,0.4643,39.2200,78,94,284460
2.4585,0.4594,39.3500,78,94,284463
2.4682,0.4594,39.3500,78,94,284467
2.5122,0.4692,39.1900,78,94,284470
2.4780,0.4643,39.3200,78,94,284473
2.5073,0.4888,39.3200,78,94,284477
2.4829,0.4594,39.3500,78,94,284480
2.4878,0.4594,39.3500,78,94,284483
2.5122,0.4643,39.2800,78,94,284487
2.4976,0.4594,39.4100,78,94,284490
2.5318,0.4594,39.2200,78,94,284493
2.4976,0.4594,39.4100,78,94,284497
2.5024,0.4594,39.3200,78,94,284500
2.5318,0.4594,39.2500,78,94,284504
2.5073,0.4594,39.3500,78,94,284507
2.5562,0.4741,39.1200,78,94,284511
2.5318,0.4643,39.2500,78,94,284514
2.5024,0.4594,39.3500,78,94,284517
2.5073,0.4545,39.3200,78,94,284521
2.4731,0.4594,39.3500,78,94,284524
2.5269,0.4692,39.0900,78,94,284527
2.5122,0.4741,39.2200,78,94,284531
2.4585,0.4594,39.3200,78,94,284534
2.4585,0.4594,39.2500,78,94,284538
2.4340,0.4594,38.6800,78,94,284541
2.4487,0.4545,39.3200,78,94,284545
2.4829,0.4643,39.2500,78,94,284549
2.4682,0.4790,39.3200,78,94,284552
2.5073,0.4448,39.1900,78,94,284555
2.4340,0.4594,39.3500,78,94,284558
2.4487,0.4448,39.3500,78,94,284562
2.4682,0.4643,39.2200,78,94,284565
2.4340,0.4594,39.3200,78,94,284568
2.4780,0.4643,39.2200,78,94,284572
2.4389,0.4594,39.3200,78,94,284575
2.4536,0.4594,39.3500,78,94,284578
2.4731,0.4643,39.2500,78,94,284582
2.4682,0.4594,39.3500,78,94,284585
2.4878,0.4643,39.1200,78,94,284589
2.4536,0.4594,39.3200,78,94,284593
2.4438,0.4594,39.3500,78,94,284596
2.4633,0.4643,39.4400,78,94,284599
2.4389,0.4594,39.3500,78,94,284602
2.4976,0.4692,39.0900,78,94,284606
2.4340,0.4594,39.2500,78,94,284609
2.4291,0.4594,39.3500,78,94,284612
2.4438,0.4594,39.3200,78,94,284616
2.4389,0.4448,39.3200,78,94,284619
2.5024,0.4790,39.1600,78,94,284622
2.4536,0.4643,39.2800,78,94,284626
2.4340,0.4594,39.2800,78,94,284630
2.4340,0.4594,39.2500,78,94,284633
2.4585,0.4594,39.3200,78,94,284637
2.4829,0.4692,39.1600,78,94,284640
2.4438,0.4545,39.3200,78,94,284643
2.4731,0.4643,39.2200,78,94,284646
2.4487,0.4594,39.2200,78,94,284650
2.4829,0.4594,39.3500,78,94,284653
2.4878,0.4643,39.2200,78,94,284656
2.4536,0.4643,39.3200,78,94,284660
2.4829,0.4643,39.2500,78,94,284663
2.4389,0.4790,39.3500,78,94,284666
2.4487,0.4594,39.3500,78,94,284670
2.4731,0.4594,39.1600,78,94,284674
2.4780,0.4594,39.3500,78,94,284677
2.4976,0.4692,39.1900,78,94,284681
2.4633,0.4594,39.3500,78,94,284684
2.4682,0.4594,39.3500,78,94,284687
2.4927,0.4643,39.1900,78,94,284690
2.4585,0.4594,39.3500,78,94,284694
2.5073,0.4692,38.4900,78,94,284697
2.4731,0.4741,39.2500,78,94,284700
2.4487,0.4594,39.3500,78,94,284704
2.4585,0.4692,39.3200,78,94,284707
2.4585,0.4594,39.3500,78,94,284710
2.5318,0.4741,39.0600,78,94,284715
2.4878,0.4643,39.2500,78,94,284718
2.4682,0.4545,39.3200,78,94,284721
2.4682,0.4594,39.3200,78,94,284725
2.4487,0.4594,39.3200,78,94,284728
2.4927,0.4741,39.0900,78,94,284731
2.4389,0.4545,39.2800,78,94,284735
2.4340,0.4594,39.2500,78,94,284738
2.4047,0.4643,39.3500,78,94,284741
2.3900,0.4594,39.3500,78,94,284744
2.4145,0.4643,39.3800,78,94,284748
2.3900,0.4643,39.3200,78,94,284751
2.4096,0.4643,39.2200,78,94,284754
2.3656,0.4594,39.3200,78,94,284759
2.3607,0.4545,39.3500,78,94,284762
2.3900,0.4643,39.2200,78,94,284765
2.3558,0.4594,39.3500,78,94,284769
2.3851,0.4594,39.2200,78,94,284772
2.3558,0.4594,39.2800,78,94,284775
2.3558,0.4594,39.3500,78,94,284778
2.3803,0.4643,39.2200,78,94,284782
2.3460,0.4594,39.3200,78,94,284785
2.4194,0.4692,39.1600,78,94,284788
2.3558,0.4643,39.2200,78,94,284792
2.3412,0.4545,39.3500,78,94,284795
2.3607,0.4692,39.2800,78,94,284798
2.3363,0.4692,39.3500,78,94,284803
2.3900,0.4692,39.0900,78,94,284806
2.3460,0.4594,39.3500,78,94,284809
2.3656,0.4594,39.2500,78,94,284813
2.3949,0.4545,39.3200,78,94,284816
2.3949,0.4594,39.2500,78,94,284819
2.4633,0.4790,39.0900,78,94,284822
2.4536,0.4545,39.2500,78,94,284826
2.4145,0.4545,39.2800,78,94,284829
2.4291,0.4643,39.3200,78,94,284832
2.4389,0.4594,39.3500,78,94,284836
2.4878,0.4643,39.1900,78,94,284839
2.4438,0.4643,39.3200,78,94,284843
2.4487,0.4643,39.1600,78,94,284847
2.4194,0.4594,39.3800,78,94,284850
2.4096,0.4594,39.3500,78,94,284853
2.4340,0.4643,39.1900,78,94,284857
2.3754,0.4643,39.3500,78,94,284860
2.3851,0.4643,39.2200,78,94,284863
2.3314,0.4594,39.2500,78,94,284866
2.3265,0.4545,39.4400,78,94,284870
2.3265,0.4594,39.2800,78,94,284873
2.3069,0.4594,39.3200,78,94,284876
2.3265,0.4643,39.1900,78,94,284880
2.2727,0.4741,39.3800,78,94,284883
2.2483,0.4594,39.3200,78,94,284887
2.2727,0.4643,39.2800,78,94,284891
2.2336,0.4594,39.3500,78,94,284894
2.2581,0.4692,39.0900,78,94,284897
2.2092,0.4643,39.2500,78,94,284901
2.1994,0.4545,39.3500,78,94,284904
2.1652,0.4643,39.2800,78,94,284907
2.1359,0.4594,39.3500,78,94,284910
2.1799,0.4741,39.0600,78,94,284914
2.1359,0.4594,39.2800,78,94,284917
2.1212,0.4497,39.3200,78,94,284920
2.1212,0.4594,39.2800,78,94,284924
2.1310,0.4545,39.3500,78,94,284928
2.1799,0.4790,39.1600,78,94,284931
2.1457,0.4839,39.2800,78,94,284935
2.1505,0.4594,39.2500,78,94,284938
2.1505,0.4594,39.1900,78,94,284941
2.1554,0.4594,39.3500,78,94,284945
2.1896,0.4643,39.4400,78,94,284948
2.1603,0.4594,39.3200,78,94,284951
2.1896,0.4545,39.2200,78,94,284954
2.1652,0.4545,39.3500,78,94,284958
2.2092,0.4594,39.3500,78,94,284961
2.2141,0.4692,39.3200,78,94,284964
2.1848,0.4594,39.3500,78,94,284968
2.2092,0.4643,39.2500,78,94,284972
2.1652,0.4594,39.2800,78,94,284975
2.1652,0.4594,39.3500,78,94,284979
2.1848,0.4643,39.2500,78,94,284982
2.1603,0.4594,39.3200,78,94,284985
2.1896,0.4643,39.1600,78,94,284989
2.1505,0.4594,39.2500,78,94,284992
2.1359,0.4594,39.3500,78,94,284995
2.1945,0.4643,39.2800,78,94,284998
2.2385,0.4594,39.3500,78,94,285002
2.3705,0.4692,39.0900,78,94,285005
2.4145,0.4497,39.3200,78,94,285008
2.5660,0.4594,39.3800,78,94,285012
2.7517,0.4643,39.4800,78,94,285016
2.9081,0.4594,39.3500,78,94,285019
3.1525,0.4790,39.1900,78,94,285023
3.2014,0.4643,39.2500,78,94,285026
3.1965,0.4448,39.3200,78,94,285029
3.0108,0.4594,39.2800,78,94,285033
2.7761,0.4545,39.4400,78,94,285036
2.4976,0.4692,39.3800,78,94,285039
2.1848,0.4448,39.3200,78,94,285043
1.9990,0.4643,39.2200,78,94,285046
1.8817,0.4692,39.3500,78,94,285049
1.8622,0.4545,39.3500,78,94,285052
1.9110,0.5034,39.1600,78,94,285057
1.9306,0.4545,39.3200,78,94,285060
1.9892,0.4643,39.2200,78,94,285063
1.9795,0.4692,39.3500,78,94,285067
1.9892,0.4594,39.3500,78,94,285070
1.9990,0.4643,39.2500,78,94,285073
1.9844,0.4448,39.3200,78,94,285077
2.0039,0.4594,39.2200,78,94,285080
1.9746,0.4545,39.3200,78,94,285083
1.9746,0.4594,39.2500,78,94,285087
1.9844,0.4643,39.2800,78,94,285090
1.9550,0.4594,39.3500,78,94,285093
1.9844,0.4985,39.1200,78,94,285096
1.9550,0.4692,39.2800,78,94,285101
1.9355,0.4594,39.3200,78,94,285104
1.9550,0.4643,39.3200,78,94,285107
1.9501,0.4594,39.3500,78,94,285111
2.0088,0.4790,39.0600,78,94,285114
1.9746,0.4692,39.2500,78,94,285117
1.9648,0.4545,39.3200,78,94,285121
1.9795,0.4448,39.3200,78,94,285124
1.9697,0.4594,39.4100,78,94,285127
2.0235,0.4692,39.2200,78,94,285131
1.9844,0.4643,39.3200,78,94,285134
1.9844,0.4692,39.2200,78,94,285137
1.9844,0.4545,39.3500,78,94,285140
1.9844,0.4545,39.3500,78,94,285145
1.9892,0.4594,39.3500,78,94,285149
2.0528,0.4741,39.2800,78,94,285152
2.0088,0.4594,39.3500,78,94,285155
2.0430,0.4643,39.2200,78,94,285158
2.0283,0.5034,39.2500,78,94,285162
2.0283,0.4545,39.3500,78,94,285165
2.0332,0.4643,39.2800,78,94,285168
2.0137,0.4594,39.3500,78,94,285172
2.0528,0.4692,39.1200,78,94,285175
2.0137,0.4643,39.2500,78,94,285178
1.9892,0.4594,39.3500,78,94,285182
2.0039,0.4643,39.3200,78,94,285186
2.0039,0.4594,39.3500,78,94,285189
2.0528,0.4790,39.0600,78,94,285192
2.0039,0.4594,39.2800,78,94,285196
1.9990,0.4545,39.3500,78,94,285199
1.9990,0.4692,39.3200,78,94,285202
2.0039,0.4594,39.3500,78,94,285206
2.0674,0.4790,39.3500,78,94,285209
2.0235,0.4643,39.3200,78,94,285212
2.0283,0.4594,39.2800,78,94,285216
2.0137,0.4594,39.3500,78,94,285219
2.0088,0.4594,39.4100,78,94,285222
2.0430,0.4692,39.1900,78,94,285225
2.0186,0.4594,38.7700,78,94,285230
2.0283,0.4888,39.2200,78,94,285233
2.0039,0.4594,39.3200,78,94,285236
2.0039,0.4594,39.3500,78,94,285240
2.0283,0.4643,38.9300,78,94,285243
1.9941,0.4497,39.3200,78,94,285246
2.0088,0.4643,39.2200,78,94,285250
1.9746,0.4594,39.4100,78,94,285253
1.9844,0.4594,39.3500,78,94,285256
1.9746,0.4594,39.2500,78,94,285259
1.9550,0.4448,39.3200,78,94,285263
1.9697,0.4643,39.0900,78,94,285266
1.9404,0.4545,39.3500,78,94,285270
1.9306,0.4594,39.3800,78,94,285274
1.9453,0.4741,39.2500,78,94,285277
1.9159,0.4594,39.3500,78,94,285280
1.9599,0.4692,39.0900,78,94,285284
1.9355,0.4643,39.2500,78,94,285287
1.9159,0.4594,39.2500,78,94,285290
1.9257,0.4643,39.3200,78,94,285294
1.9110,0.4594,39.3500,78,94,285297
1.9746,0.4692,39.0600,78,94,285300
1.8915,0.4643,39.2200,78,94,285304
1.8915,0.4594,39.3200,78,94,285307
1.8719,0.4594,39.3500,78,94,285310
1.8671,0.4643,39.3500,78,94,285314
1.9013,0.4741,39.2200,78,94,285318
1.8573,0.4692,39.3200,78,94,285321
1.8524,0.4594,39.2200,78,94,285324
1.8231,0.4741,39.3200,78,94,285328
1.8182,0.4594,39.2800,78,94,285331
1.8328,0.4545,39.3200,78,94,285334
1.8231,0.4594,39.3200,78,94,285338
1.8426,0.4936,39.2500,78,94,285341
1.8133,0.4594,39.3500,78,94,285344
1.8035,0.4643,39.3200,78,94,285348
1.8231,0.4643,39.2200,78,94,285351
1.8084,0.4643,39.3200,78,94,285355
1.8133,0.4643,39.1900,78,94,285359
1.7937,0.4692,39.2500,78,94,285362
1.7986,0.4594,39.3200,78,94,285365
1.8280,0.4594,39.2800,78,94,285369
1.8182,0.4594,39.3500,78,94,285372
1.8524,0.4692,39.1200,78,94,285375
1.8328,0.4545,39.2500,78,94,285378
1.8035,0.4594,39.3500,78,94,285382
1.8182,0.4643,39.3200,78,94,285385
1.8084,0.4594,39.3800,78,94,285388
1.8573,0.4741,39.0600,78,94,285392
1.8182,0.4594,39.2800,78,94,285395
1.8035,0.4545,39.2800,78,94,285399
1.7937,0.4545,39.3200,78,94,285403
1.7937,0.4594,39.3500,78,94,285406
1.8573,0.4741,39.2200,78,94,285409
1.7986,0.4643,39.3200,78,94,285413
1.7986,0.4790,39.2500,78,94,285416
1.7840,0.4594,39.3500,78,94,285419
1.7840,0.4643,39.3800,78,94,285423
1.8231,0.4692,39.1900,78,94,285426
1.7986,0.4545,39.2800,78,94,285429
1.8573,0.4741,39.2500,78,94,285432
1.8084,0.4594,39.3500,78,94,285436
1.8035,0.4594,39.3800,78,94,285440
1.8182,0.4643,39.2200,78,94,285443
1.7937,0.4594,39.3800,78,94,285447
1.8182,0.4594,39.1900,78,94,285450
1.7986,0.4545,39.2800,78,94,285453
1.7986,0.4545,39.3500,78,94,285457
1.8133,0.4643,39.3200,78,94,285460
1.8035,0.4594,39.3500,78,94,285463
1.8475,0.4692,39.1600,78,94,285467
1.7937,0.4790,39.2800,78,94,285470
1.8084,0.4643,39.3500,78,94,285473
1.7840,0.4643,39.2200,78,94,285476
1.7889,0.4594,39.3800,78,94,285480
1.8182,0.4741,39.0600,78,94,285484
1.8035,0.4985,39.2500,78,94,285487
1.7986,0.4545,39.3200,78,94,285491
1.8035,0.4594,39.3200,78,94,285494
1.7986,0.4594,39.3500,78,94,285497
1.8426,0.4741,39.3500,78,94,285501
1.8035,0.4643,39.2800,78,94,285504
1.8084,0.4594,39.3500,78,94,285507
1.8084,0.4643,39.3500,78,94,285511
1.8035,0.4594,39.3500,78,94,285514
1.8280,0.4643,39.1900,78,94,285517
1.8280,0.4545,39.3200,78,94,285520
1.8133,0.4643,39.2500,78,94,285524
1.7937,0.4594,39.3500,78,94,285528
1.7937,0.4594,39.3500,78,94,285531
1.7986,0.4643,39.3200,78,94,285535
1.7937,0.4594,39.2800,78,94,285538
1.8133,0.4594,39.2200,78,94,285541
1.7840,0.4594,39.3500,78,94,285545
1.7791,0.4594,39.3500,78,94,285548
1.8182,0.4692,39.2500,78,94,285551
1.7840,0.4594,39.3500,78,94,285555
1.8231,0.4839,39.1200,78,94,285558
1.8133,0.4594,39.2500,78,94,285561
1.7986,0.4594,39.3800,78,94,285565
1.8133,0.4643,39.2800,78,94,285569
1.8084,0.4594,39.3500,78,94,285572
1.8719,0.4790,39.1900,78,94,285575
1.8573,0.4643,39.2800,78,94,285579
1.8622,0.4545,39.2800,78,94,285582
1.8719,0.4594,39.3500,78,94,285585
1.8719,0.4643,39.3200,78,94,285589
1.9355,0.4790,39.1600,78,94,285592
1.8866,0.4545,39.2500,78,94,285595
1.8768,0.4594,39.2500,78,94,285599
1.8524,0.4594,39.4400,78,94,285602
1.8328,0.4594,39.3500,78,94,285605
1.8524,0.4643,39.3500,78,94,285609
1.8133,0.4643,39.3200,78,94,285613
1.8133,0.4643,39.2200,78,94,285616
1.7840,0.4594,39.3500,78,94,285620
1.7693,0.4594,38.7700,78,94,285623
1.7840,0.4692,39.2200,78,94,285626
1.7351,0.4594,39.3500,78,94,285629
1.7400,0.4643,39.2200,78,94,285633
1.6911,0.4545,39.2800,78,94,285636
1.6667,0.4594,39.3200,78,94,285639
1.6716,0.4643,39.2500,78,94,285643
1.6422,0.4594,39.2800,78,94,285646
1.6520,0.4692,39.1200,78,94,285649
1.6178,0.4643,39.2500,78,94,285654
1.5885,0.4545,39.3500,78,94,285657
1.5934,0.4643,39.2800,78,94,285660
1.5787,0.4545,39.3200,78,94,285664
1.6227,0.4692,39.0900,78,94,285667
1.5836,0.4839,39.2800,78,94,285670
1.5787,0.4545,39.3500,78,94,285674
1.5934,0.4643,39.2500,78,94,285677
1.5787,0.4594,39.3500,78,94,285680
1.6178,0.4790,39.1600,78,94,285683
1.5738,0.4643,39.2800,78,94,285687
1.5689,0.4594,39.2500,78,94,285690
1.5738,0.4594,39.3500,78,94,285693
1.5689,0.4594,39.4100,78,94,285698
1.5982,0.4692,39.1600,78,94,285701
1.5689,0.4594,39.3500,78,94,285704
1.5836,0.4643,39.1900,78,94,285708
1.5738,0.4545,39.3200,78,94,285711
1.5787,0.4594,39.5400,78,94,285714
1.6129,0.4790,39.2500,78,94,285718
1.5787,0.4594,39.3200,78,94,285721
1.6227,0.4692,39.2500,78,94,285724
1.6080,0.4545,39.3500,78,94,285728
1.6080,0.4594,39.4100,78,94,285731
1.6080,0.4790,39.3200,78,94,285734
1.5885,0.4594,39.3200,78,94,285737
1.6129,0.4643,39.1900,78,94,285742
1.6325,0.4545,39.3500,78,94,285745
1.6960,0.4594,39.3800,78,94,285748
1.7791,0.4643,39.3200,78,94,285752
2.4340,0.4594,39.3200,78,94,285755
2.5269,0.4594,39.3500,78,94,285759
2.5660,0.4790,39.1600,78,94,285762
2.3412,0.4643,39.2800,78,94,285765
2.0772,0.4594,39.2500,78,94,285769
1.7889,0.4594,39.3500,78,94,285772
1.5445,0.4594,39.2200,78,94,285775
1.4223,0.4692,39.1900,78,94,285779
1.3196,0.4643,39.4800,78,94,285783
1.3294,0.4692,39.2200,78,94,285786
1.3539,0.4594,39.3500,78,94,285790
1.4076,0.4497,39.3500,78,94,285793
1.4712,0.4594,39.2800,78,94,285796
1.4907,0.4594,39.5400,78,94,285799
1.5249,0.4643,39.1900,78,94,285803
1.5005,0.4594,39.3500,78,94,285806
1.5005,0.4741,39.3500,78,94,285809
1.5103,0.4643,39.3200,78,94,285813
1.4907,0.4594,39.3500,78,94,285816
1.5249,0.4692,39.1200,78,94,285819
1.4907,0.4643,39.2200,78,94,285824
1.4858,0.4790,39.3500,78,94,285827
1.4956,0.4643,39.2800,78,94,285830
1.4761,0.4594,39.3500,78,94,285834
1.5054,0.4692,39.0900,78,94,285837
1.4809,0.4594,39.3200,78,94,285840
1.4809,0.4545,39.3500,78,94,285843
1.4809,0.4594,39.2800,78,94,285847
1.4858,0.4545,39.3500,78,94,285850
1.5347,0.4790,39.1200,78,94,285853
1.4956,0.4643,39.2800,78,94,285857
1.4956,0.4594,39.2800,78,94,285860
1.4956,0.4643,39.3200,78,94,285863
1.4956,0.4594,39.2800,78,94,285868
1.5249,0.4692,39.2500,78,94,285871
1.5054,0.4594,39.3200,78,94,285874
1.5200,0.4643,39.3200,78,94,285878
1.5054,0.4594,39.3500,78,94,285881
1.5054,0.4594,39.3500,78,94,285884
1.5347,0.4888,39.2200,78,94,285888
1.5200,0.4594,39.4100,78,94,285891
1.5445,0.4643,39.2200,78,94,285894
1.5249,0.4594,39.3200,78,94,285897
1.5200,0.4594,39.3800,78,94,285901
1.5494,0.4692,39.2500,78,94,285904
1.5396,0.4594,39.3500,78,94,285907
1.5640,0.4643,39.1600,78,94,285912
1.5738,0.4545,39.2500,78,94,285915
1.5543,0.4594,39.3800,78,94,285918
1.5689,0.4692,39.2800,78,94,285922
1.5640,0.4594,39.3500,78,94,285925
1.6080,0.4692,39.2200,78,94,285928
1.6080,0.4545,39.2800,78,94,285932
1.5836,0.4594,39.3500,78,94,285935
1.5934,0.4594,39.3800,78,94,285938
1.5982,0.4594,39.3500,78,94,285941
1.6520,0.4790,39.1200,78,94,285945
1.6325,0.4448,39.3200,78,94,285948
1.6227,0.4545,39.4400,78,94,285952
1.6276,0.4594,39.3200,78,94,285956
1.6422,0.4594,39.3500,78,94,285959
1.7107,0.4692,39.1900,78,94,285962
1.6667,0.4594,39.3800,78,94,285966
1.6862,0.4545,39.2200,78,94,285969
1.6667,0.4594,39.3500,78,94,285972
1.6667,0.4594,39.3500,78,94,285976
1.6911,0.4692,39.1900,78,94,285979
1.6667,0.4594,39.3200,78,94,285982
1.6813,0.4692,39.2200,78,94,285986
1.6569,0.4594,39.3800,78,94,285989
1.6618,0.4594,39.3500,78,94,285992
1.6764,0.4643,39.3200,78,94,285996
1.6716,0.4594,39.3500,78,94,286000
1.6862,0.4643,39.1600,78,94,286003
1.6569,0.4594,39.3200,78,94,286006
1.6667,0.4790,39.3800,78,94,286010
1.6960,0.4692,39.3200,78,94,286013
1.6667,0.4594,39.3500,78,94,286016
1.7009,0.4692,39.0900,78,94,286020
1.6813,0.4643,39.2500,78,94,286023
1.6569,0.4643,39.3500,78,94,286026
1.6569,0.4594,39.4100,78,94,286030
1.6373,0.4643,39.3500,78,94,286033
1.6716,0.4790,39.1200,78,94,286036
1.6276,0.4643,39.3200,78,94,286041
1.6129,0.4545,39.3200,78,94,286044
1.6031,0.4594,39.3800,78,94,286047
1.5836,0.4448,39.3500,78,94,286050
1.6178,0.4643,39.1900,78,94,286054
1.5787,0.4643,39.3200,78,94,286057
1.5640,0.4643,39.2500,78,94,286060
1.5396,0.4497,39.3500,78,94,286064
1.5396,0.4594,39.2500,78,94,286067
1.5689,0.4643,39.2800,78,94,286070
1.5494,0.4594,39.3200,78,94,286074
1.5738,0.4643,39.2500,78,94,286077
1.5494,0.4594,39.3500,78,94,286081
1.5445,0.4643,39.3800,78,94,286085
1.5591,0.4692,39.2200,78,94,286088
1.5298,0.4594,39.3200,78,94,286091
1.5591,0.4448,39.1600,78,94,286095
1.5494,0.4594,39.2200,78,94,286098
1.5543,0.4545,39.3500,78,94,286101
1.5738,0.4643,39.2200,78,94,286105
1.5934,0.4545,39.4400,78,94,286108
1.5982,0.4692,39.1200,78,94,286111
1.5982,0.4643,39.2500,78,94,286114
1.5591,0.4594,39.4100,78,94,286118
1.5738,0.4692,39.2800,78,94,286121
1.5836,0.4594,39.3500,78,94,286125
1.6373,0.4790,39.0900,78,94,286129
1.6276,0.4594,39.2800,78,94,286132
1.6129,0.4545,39.3200,78,94,286135
1.6276,0.4497,39.3200,78,94,286139
1.6373,0.4594,39.5400,78,94,286142
1.6862,0.4692,39.2500,78,94,286145
1.6667,0.4643,39.3200,78,94,286149
1.6716,0.4497,39.2200,78,94,286152
1.6667,0.4594,39.2800,78,94,286155
1.6716,0.4692,39.3500,78,94,286159
1.7009,0.4692,39.1900,78,94,286162
1.6764,0.4545,39.3200,78,94,286166
1.7009,0.4643,39.2500,78,94,286169
1.6813,0.4545,39.2800,78,94,286173
1.6911,0.4594,39.3500,78,94,286176
1.7107,0.4692,39.2500,78,94,286179
1.7009,0.4594,39.3500,78,94,286183
1.7253,0.4692,39.2500,78,94,286186
1.7449,0.4594,39.2800,78,94,286189
1.7302,0.4594,39.4400,78,94,286193
1.7498,0.4692,39.3200,78,94,286196
1.7595,0.4594,39.3500,78,94,286199
1.8133,0.4692,39.1200,78,94,286203
1.7889,0.4594,39.3500,78,94,286206
1.7986,0.4643,39.3500,78,94,286210
1.8182,0.4692,39.2800,78,94,286214
1.8084,0.4594,39.3800,78,94,286217
1.8622,0.4741,39.0900,78,94,286220
1.8280,0.4643,39.2800,78,94,286223
1.8182,0.4545,39.2800,78,94,286227
1.8231,0.4594,39.3500,78,94,286230
1.8231,0.4594,39.3500,78,94,286233
1.8768,0.4692,39.1900,78,94,286237
1.8377,0.4888,39.3200,78,94,286240
1.8426,0.4448,39.2500,78,94,286243
1.8280,0.4594,39.3500,78,94,286247
1.8280,0.4594,39.3500,78,94,286251
1.8622,0.4643,39.1600,78,94,286254
1.8475,0.4643,39.3200,78,94,286258
1.8915,0.4643,39.2200,78,94,286261
1.8719,0.4594,39.3500,78,94,286264
1.8866,0.4448,39.3500,78,94,286267
1.9062,0.4594,38.7400,78,94,286271
1.9110,0.4643,39.3500,78,94,286274
1.9404,0.4594,39.2200,78,94,286277
1.9159,0.4790,39.3500,78,94,286281
1.9257,0.4545,39.3500,78,94,286284
1.9648,0.4643,39.2800,78,94,286287
1.9453,0.4594,39.3200,78,94,286291
1.9892,0.4692,39.0900,78,94,286295
1.9795,0.4643,39.2500,78,94,286298
1.9795,0.4594,39.3500,78,94,286302
2.0039,0.4643,39.3200,78,94,286305
2.0186,0.4594,39.3500,78,94,286308
2.0919,0.4741,39.1600,78,94,286312
2.0674,0.4643,39.2800,78,94,286315
2.0626,0.4545,39.4400,78,94,286318
2.0723,0.4594,39.3800,78,94,286321
2.0821,0.4594,39.3200,78,94,286325
2.1603,0.4790,39.1900,78,94,286328
2.1310,0.4545,39.3200,78,94,286331
2.1261,0.4594,39.2500,78,94,286336
2.1163,0.4594,39.3200,78,94,286339
2.1163,0.4594,39.3500,78,94,286342
2.1554,0.4643,39.2500,78,94,286346
2.1212,0.4643,39.3200,78,94,286349
2.1359,0.4643,39.2500,78,94,286352
2.0919,0.4594,39.3500,78,94,286356
2.0772,0.4594,39.3500,78,94,286359
2.0968,0.4985,39.1900,78,94,286362
2.0723,0.4692,39.3200,78,94,286367
2.0626,0.4448,39.3500,78,94,286370
2.0968,0.4643,39.0900,78,94,286373
2.0577,0.4985,39.2800,78,94,286377
2.0283,0.4594,39.3500,78,94,286381
2.0137,0.4643,39.3200,78,94,286384
1.9892,0.4594,39.3500,78,94,286388
2.0430,0.4790,39.0000,78,94,286391
1.9990,0.4594,39.2800,78,94,286394
1.9990,0.4545,39.3500,78,94,286398
2.0186,0.4448,39.3200,78,94,286401
2.0137,0.4741,39.2800,78,94,286404
2.0772,0.4790,39.1900,78,94,286408
2.0381,0.4643,39.3200,78,94,286411
2.0332,0.4594,39.2200,78,94,286414
2.0235,0.4594,39.3500,78,94,286417
2.0283,0.4594,39.3800,78,94,286422
2.0821,0.4692,39.1900,78,94,286425
2.0577,0.4594,39.3200,78,94,286428
2.0772,0.4643,39.2200,78,94,286432
2.0577,0.4594,39.3500,78,94,286435
2.0723,0.4594,39.3800,78,94,286438
2.1212,0.4692,39.3500,78,94,286442
2.1065,0.4545,39.3200,78,94,286445
2.1310,0.4692,39.2500,78,94,286448
2.0919,0.4594,39.3800,78,94,286451
2.0870,0.4545,39.3500,78,94,286455
2.1065,0.4643,39.3500,78,94,286458
2.1017,0.4643,39.3500,78,94,286461
2.1408,0.4692,39.1900,78,94,286466
2.1114,0.4594,39.2800,78,94,286469
2.1065,0.4594,39.3500,78,94,286472
2.1310,0.4643,39.2800,78,94,286476
2.1603,0.4790,39.3500,78,94,286479
2.2923,0.4692,39.1200,78,94,286482
2.3216,0.4643,39.2800,78,94,286486
2.3949,0.5034,39.3500,78,94,286489
2.5513,0.4643,39.3200,78,94,286492
2.7175,0.4594,39.2800,78,94,286495
2.9570,0.4790,39.0600,78,94,286499
3.0254,0.4643,39.2500,78,94,286502
3.0499,0.4545,39.3800,78,94,286505
2.9765,0.4448,39.3200,78,94,286510
2.7859,0.4594,39.3500,78,94,286513
2.6100,0.4741,39.2500,78,94,286516
2.3167,0.4643,39.2800,78,94,286520
2.1017,0.4594,39.2500,78,94,286523
1.9550,0.4594,39.3500,78,94,286526
1.9013,0.4594,39.3800,78,94,286530
1.9355,0.4985,39.2500,78,94,286533
1.9599,0.4594,39.3200,78,94,286536
2.0430,0.4643,39.1600,78,94,286539
2.0674,0.4594,39.3500,78,94,286543
2.0870,0.4594,39.3500,78,94,286546
2.1310,0.4692,39.2200,78,94,286550
2.1065,0.4594,39.3500,78,94,286554
2.1408,0.4594,39.2800,78,94,286557
2.1114,0.4594,39.3800,78,94,286560
2.1114,0.4594,39.3500,78,94,286564
2.1212,0.4888,39.2800,78,94,286567
2.1017,0.4448,39.3500,78,94,286570
2.1457,0.4643,39.1900,78,94,286573
2.1310,0.4594,39.2800,78,94,286577
2.1261,0.4594,39.3500,78,94,286580
2.1457,0.4643,39.3200,78,94,286583
2.1408,0.4594,39.3500,78,94,286587
2.1848,0.4643,39.1200,78,94,286590
2.1652,0.4448,39.2800,78,94,286594
2.1310,0.4594,39.3500,78,94,286598
2.1408,0.4594,39.3800,78,94,286601
2.1505,0.4594,39.3200,78,94,286604
2.2239,0.4790,39.1600,78,94,286608
2.1799,0.4692,39.2800,78,94,286611
2.1701,0.4545,39.3200,78,94,286614
2.1750,0.4790,39.3200,78,94,286618
2.1750,0.4594,39.3500,78,94,286621
2.2190,0.4643,39.0900,78,94,286624
2.1848,0.4643,39.3200,78,94,286627
2.1994,0.4643,39.2200,78,94,286631
2.1848,0.4643,39.3800,78,94,286635
2.1896,0.4594,39.3500,78,94,286638
2.2336,0.4888,39.1900,78,94,286642
2.2141,0.4448,39.3500,78,94,286645
2.2532,0.4643,39.2500,78,94,286648
2.2336,0.4594,39.3800,78,94,286652
2.2385,0.4594,39.3800,78,94,286655
2.2483,0.4594,39.2200,78,94,286658
2.2385,0.4448,39.2800,78,94,286662
2.2678,0.4594,39.1900,78,94,286665
2.2336,0.4545,39.3200,78,94,286668
2.2336,0.4594,39.3800,78,94,286671
2.2434,0.4594,39.3200,78,94,286675
2.2385,0.4594,39.3500,78,94,286679
2.2972,0.4692,39.1900,78,94,286682
2.2923,0.4643,39.2800,78,94,286686
2.2776,0.4594,39.3500,78,94,286689
2.3021,0.4643,39.3200,78,94,286692
2.2776,0.4594,39.3800,78,94,286696
2.3412,0.4643,39.0600,78,94,286699
2.3021,0.4692,39.2500,78,94,286702
2.2972,0.4545,39.2800,78,94,286706
2.3118,0.4545,39.3500,78,94,286709
2.3118,0.4594,39.3500,78,94,286712
2.3705,0.4741,39.2500,78,94,286715
2.3363,0.4643,39.2800,78,94,286720
2.3363,0.4594,38.6500,78,94,286723
2.3216,0.4594,39.3500,78,94,286726
2.3265,0.4545,39.3500,78,94,286730
2.3607,0.4692,39.2500,78,94,286733
2.3460,0.4594,39.3200,78,94,286736
2.3851,0.4643,39.1900,78,94,286740
2.3509,0.4594,39.3500,78,94,286743
2.3412,0.4594,39.3200,78,94,286746
2.3656,0.4741,39.2200,78,94,286750
2.3314,0.4594,39.3500,78,94,286753
2.3656,0.4594,39.2500,78,94,286756
2.3412,0.4545,39.3200,78,94,286759
2.3412,0.4594,39.3200,78,94,286764
2.3607,0.4643,39.2500,78,94,286767
2.3314,0.4594,39.3500,78,94,286770
2.3656,0.4692,39.1900,78,94,286774
2.3363,0.4643,39.2500,78,94,286777
2.3216,0.4839,39.3200,78,94,286780
2.3460,0.4643,39.3200,78,94,286784
2.3216,0.4594,39.3500,78,94,286787
2.3754,0.4594,39.1200,78,94,286790
2.3216,0.4594,39.2800,78,94,286794
2.3069,0.4545,39.3500,78,94,286797
2.3069,0.4643,39.3200,78,94,286800
2.2776,0.4643,39.3500,78,94,286804
2.3314,0.4790,39.1200,78,94,286808
2.2776,0.4643,39.3200,78,94,286811
2.2434,0.4594,39.2800,78,94,286814
2.2336,0.4594,39.3500,78,94,286818
2.2287,0.4790,39.3800,78,94,286821
2.2776,0.4692,39.1900,78,94,286824
2.2385,0.4594,39.2800,78,94,286828
2.2678,0.4692,39.2200,78,94,286831
2.2239,0.4594,39.3500,78,94,286834
2.2141,0.4594,39.3200,78,94,286838
2.2385,0.4643,39.2200,78,94,286841
2.1896,0.4594,39.3500,78,94,286844
2.2043,0.4692,39.2500,78,94,286849
2.1505,0.4594,39.3800,78,94,286852
2.1359,0.4643,39.3200,78,94,286855
2.1505,0.4643,39.2500,78,94,286858
2.1310,0.4594,39.3800,78,94,286862
2.1554,0.4692,39.1900,78,94,286865
2.1261,0.4594,39.3800,78,94,286868
2.1359,0.4448,39.3500,78,94,286872
2.1652,0.4692,39.2500,78,94,286875
2.1652,0.4545,39.3500,78,94,286878
2.1945,0.4692,39.1600,78,94,286882
2.1652,0.4643,39.3200,78,94,286885
2.1554,0.4594,39.3500,78,94,286888
2.1750,0.4643,39.3800,78,94,286893
2.2092,0.4448,39.3500,78,94,286896
2.2483,0.4790,39.0900,78,94,286899
2.2092,0.4692,39.2800,78,94,286902
2.2141,0.4497,39.3200,78,94,286906
2.2141,0.4594,39.3200,78,94,286909
2.1994,0.4594,39.3500,78,94,286912
2.2336,0.4692,39.1900,78,94,286916
2.1848,0.4594,39.3200,78,94,286919
2.1848,0.4643,39.2500,78,94,286922
2.1799,0.4594,39.3500,78,94,286926
2.1799,0.4594,39.3500,78,94,286929
2.2092,0.4643,39.3200,78,94,286932
2.1994,0.4594,39.3200,78,94,286937
2.2287,0.4692,39.2200,78,94,286940
2.1994,0.4692,39.3500,78,94,286943
2.2043,0.4594,39.3500,78,94,286947
2.2434,0.4692,39.1600,78,94,286950
2.2092,0.4594,39.3800,78,94,286953
2.2239,0.4643,39.1600,78,94,286956
2.2092,0.4545,39.2800,78,94,286960
2.1896,0.4594,39.3500,78,94,286963
2.2043,0.4448,39.2500,78,94,286966
2.1945,0.4545,39.3500,78,94,286970
2.2434,0.4692,39.1200,78,94,286973
2.2532,0.4741,39.1600,79,93,286979
2.2043,0.4643,39.3200,79,93,286982
2.1945,0.4594,39.2800,79,93,286985
2.1896,0.4594,39.3200,79,93,286989
2.1896,0.4594,39.3200,79,93,286992
2.2336,0.4692,39.2200,79,93,286995
2.2043,0.4643,39.3200,79,93,286999
2.2190,0.4692,39.2800,79,93,287002
2.1994,0.4594,39.3200,79,93,287005
2.2190,0.4692,39.3800,79,93,287009
2.2678,0.4692,39.1900,79,93,287012
2.2385,0.4594,39.3500,79,93,287015
2.2630,0.4692,39.2500,79,93,287019
2.2239,0.4545,39.3200,79,93,287023
2.2239,0.4594,39.3800,79,93,287026
2.2532,0.4643,39.2500,79,93,287029
2.2434,0.4594,39.3200,79,93,287033
2.2923,0.4643,39.2200,79,93,287036
2.2678,0.4594,39.2200,79,93,287039
2.2630,0.4594,39.3500,79,93,287043
2.2923,0.4692,39.2500,79,93,287046
2.2776,0.4594,39.4100,79,93,287049
2.3412,0.4985,39.1200,79,93,287053
2.3021,0.4594,39.3500,79,93,287056
2.3167,0.4594,39.3500,79,93,287059
2.3412,0.4594,39.3200,79,93,287063
2.3314,0.4839,39.3500,79,93,287067
2.3851,0.4741,39.0900,79,93,287070
2.3314,0.4643,39.2500,79,93,287073
2.2923,0.4643,39.2800,79,93,287077
2.2776,0.4594,39.3800,79,93,287080
2.2630,0.4643,39.3200,79,93,287083
2.3118,0.4692,39.2200,79,93,287087
2.2678,0.4839,39.2800,79,93,287090
2.2678,0.4545,39.2500,79,93,287093
2.2581,0.4594,39.0600,79,93,287097
2.2581,0.4594,39.3500,79,93,287100
2.2874,0.4692,39.2200,79,93,287104
2.2630,0.4594,39.3200,79,93,287107
2.2825,0.4643,39.1900,79,93,287111
2.2776,0.4594,39.3500,79,93,287114
2.2336,0.4594,39.3500,79,93,287117
2.2239,0.4594,39.2500,79,93,287121
2.1994,0.4594,39.4100,79,93,287124
2.2043,0.4594,39.2200,79,93,287127
2.1554,0.4594,39.3500,79,93,287131
2.1408,0.4594,39.4100,79,93,287134
2.1505,0.4643,39.2500,79,93,287137
2.1114,0.4594,39.3800,79,93,287141
2.1554,0.4692,39.1900,79,93,287144
2.1212,0.4643,39.2500,79,93,287148
2.0968,0.4545,39.3500,79,93,287151
2.1017,0.4643,39.2800,79,93,287155
2.0723,0.4594,39.3500,79,93,287158
2.1163,0.4741,39.0900,79,93,287161
2.0674,0.4643,39.2500,79,93,287165
2.0577,0.4594,39.3500,79,93,287168
2.0674,0.4643,39.3200,79,93,287171
2.0723,0.4594,39.3500,79,93,287175
2.1408,0.4790,39.1200,79,93,287178
2.1065,0.4692,39.2800,79,93,287181
2.1065,0.4594,39.2800,79,93,287185
2.1017,0.4594,39.3500,79,93,287188
2.1017,0.4594,39.3500,79,93,287192
2.1212,0.4643,39.2500,79,93,287195
2.0772,0.4839,39.3200,79,93,287199
2.0919,0.4643,39.2200,79,93,287202
2.0626,0.4545,39.3500,79,93,287205
2.0577,0.4594,39.3500,79,93,287209
2.0821,0.4643,38.8700,79,93,287212
2.0332,0.4545,39.3500,79,93,287215
2.0577,0.4692,39.2500,79,93,287219
2.0870,0.4545,39.3200,79,93,287222
2.1505,0.4594,39.3800,79,93,287225
2.2678,0.4643,39.2500,79,93,287229
2.3607,0.4594,39.3200,79,93,287233
2.5660,0.4741,39.2200,79,93,287236
2.7322,0.4594,39.3200,79,93,287239
2.8983,0.4594,39.2800,79,93,287243
3.0743,0.4643,39.2800,79,93,287246
3.0547,0.4594,39.3500,79,93,287249
3.0108,0.4692,39.1200,79,93,287253
2.7322,0.4545,39.3200,79,93,287256
2.4487,0.4594,39.3800,79,93,287259
2.1896,0.4643,39.3200,79,93,287263
1.8964,0.4594,39.3800,79,93,287266
1.7889,0.4692,39.0600,79,93,287269
1.6764,0.4643,39.2800,79,93,287273
1.6569,0.4545,39.2800,79,93,287277
1.6911,0.4594,39.3200,79,93,287280
1.7302,0.4594,39.3500,79,93,287283
1.8182,0.4741,39.1600,79,93,287287
1.8035,0.4643,39.2800,79,93,287290
1.8280,0.4594,39.2500,79,93,287293
1.8133,0.4594,39.4400,79,93,287297
1.8084,0.4497,39.4400,79,93,287300
1.8328,0.4643,39.1900,79,93,287303
1.7986,0.4692,39.3200,79,93,287307
1.8133,0.4643,39.1900,79,93,287310
1.7840,0.4594,39.3200,79,93,287313
1.7791,0.4594,39.3500,79,93,287318
1.7986,0.4839,39.2500,79,93,287321
1.7889,0.4594,39.4400,79,93,287324
1.8328,0.4594,39.2200,79,93,287328
1.8035,0.4594,39.3200,79,93,287331
1.8133,0.4594,39.3500,79,93,287334
1.8426,0.4692,39.3200,79,93,287337
1.8426,0.4594,39.3500,79,93,287341
1.8768,0.4692,39.1900,79,93,287344
1.8573,0.4643,39.2500,79,93,287347
1.8377,0.4594,39.3500,79,93,287351
1.8475,0.4643,39.3200,79,93,287354
1.8231,0.4594,39.3800,79,93,287357
1.8719,0.4741,39.0900,79,93,287362
1.8182,0.4790,39.2800,79,93,287365
1.8084,0.4448,39.3200,79,93,287368
1.8133,0.4594,39.2500,79,93,287372
1.8084,0.4692,39.3500,79,93,287375
1.8524,0.4741,39.1900,79,93,287378
1.8084,0.4741,39.2800,79,93,287382
1.7840,0.4594,39.2500,79,93,287385
1.7595,0.4594,39.3500,79,93,287388
1.7742,0.4594,39.3500,79,93,287391
1.7791,0.4643,39.1200,79,93,287395
1.7546,0.4594,39.3200,79,93,287398
1.7742,0.4643,39.2200,79,93,287401
1.7644,0.4594,39.3500,79,93,287406
1.7644,0.4594,39.3500,79,93,287409
1.7937,0.4741,39.2200,79,93,287412
1.7693,0.4594,39.3500,79,93,287416
1.7937,0.4936,39.2200,79,93,287419
1.7693,0.4545,39.2800,79,93,287422
1.7644,0.4594,39.3500,79,93,287426
1.7791,0.4643,39.2500,79,93,287429
1.7644,0.4594,39.3800,79,93,287432
1.8035,0.4692,39.1200,79,93,287436
1.7546,0.4545,39.1900,79,93,287439
1.7498,0.4692,39.3800,79,93,287442
1.7693,0.4643,39.3200,79,93,287446
1.7546,0.4594,39.3500,79,93,287450
1.8182,0.4741,39.0900,79,93,287453
1.7693,0.4594,39.2200,79,93,287456
1.7644,0.4545,39.3500,79,93,287460
1.7644,0.4594,39.3200,79,93,287463
1.7498,0.4594,39.3500,79,93,287466
1.8084,0.4790,39.1900,79,93,287470
1.7644,0.4643,39.2800,79,93,287473
1.7791,0.4594,39.3200,79,93,287476
1.7498,0.4741,39.3200,79,93,287480
1.7449,0.4594,39.3500,79,93,287483
1.7791,0.4692,39.1600,79,93,287486
1.7449,0.4594,39.3200,79,93,287491
1.7449,0.4643,39.2200,79,93,287494
1.7302,0.4594,39.3500,79,93,287497
1.7009,0.4594,39.3500,79,93,287500
1.7155,0.4790,39.2200,79,93,287504
1.6813,0.4594,39.3500,79,93,287507
1.7058,0.4643,39.2800,79,93,287510
1.6813,0.4594,39.3200,79,93,287514
1.6764,0.4594,39.3500,79,93,287517
1.6764,0.4790,39.3200,79,93,287520
1.6569,0.4594,39.3500,79,93,287524
1.6764,0.4643,39.2200,79,93,287527
1.6422,0.4594,39.3500,79,93,287531
1.6373,0.4594,39.3500,79,93,287535
1.6667,0.4692,39.2500,79,93,287538
1.6373,0.4594,39.2800,79,93,287541
1.6764,0.4741,39.0900,79,93,287544
1.6471,0.4643,39.2500,79,93,287548
1.6325,0.4594,39.4100,79,93,287551
1.6276,0.4594,39.3200,79,93,287554
1.6325,0.4594,39.3200,79,93,287558
1.6911,0.4790,39.1200,79,93,287561
1.6373,0.4643,39.2200,79,93,287564
1.6276,0.4594,39.2800,79,93,287568
1.6129,0.4594,39.2200,79,93,287571
1.6031,0.4594,39.3200,79,93,287575
1.6373,0.4643,39.2200,79,93,287579
1.6178,0.4643,39.3200,79,93,287582
1.6373,0.4643,39.2200,79,93,287585
1.6227,0.4643,39.3500,79,93,287589
1.6373,0.4448,39.3500,79,93,287593
1.6227,0.4594,39.2800,79,93,287597
1.6716,0.4692,39.2500,79,93,287600
1.6325,0.4594,39.3800,79,93,287603
1.6716,0.4692,39.1200,79,93,287607
1.6618,0.4643,39.1900,79,93,287610
1.6471,0.4545,39.3500,79,93,287613
1.6520,0.4643,39.3200,79,93,287617
1.6422,0.4448,39.3500,79,93,287621
1.6813,0.4741,39.1200,79,93,287624
1.6373,0.4643,39.2500,79,93,287627
1.6227,0.4545,39.3200,79,93,287631
1.6618,0.4545,39.3500,79,93,287634
1.6422,0.4594,39.3500,79,93,287637
1.6911,0.4741,39.1900,79,93,287641
1.6667,0.4643,39.3200,79,93,287644
1.6618,0.4692,39.2500,79,93,287647
1.6422,0.4594,39.3500,79,93,287651
1.6325,0.4594,39.3500,79,93,287654
1.6373,0.4643,39.2800,79,93,287657
1.6178,0.4594,39.3200,79,93,287662
1.6325,0.4692,39.2200,79,93,287665
1.6129,0.4594,39.3500,79,93,287668
1.6129,0.4594,39.3500,79,93,287672
1.6373,0.4741,39.2200,79,93,287675
1.6129,0.4594,39.3500,79,93,287678
1.6373,0.4643,39.2200,79,93,287681
1.6373,0.4594,39.2500,79,93,287685
1.6373,0.4594,39.3200,79,93,287688
1.6716,0.4643,39.2800,79,93,287691
1.6862,0.4692,39.3800,79,93,287695
1.7693,0.4692,39.1200,79,93,287698
1.7889,0.4594,39.2800,79,93,287702
1.8133,0.4594,39.3800,79,93,287706
1.8622,0.4643,39.3200,79,93,287709
1.8719,0.4643,39.3800,79,93,287712
1.9355,0.4741,39.0900,79,93,287716
1.9013,0.4545,39.2200,79,93,287719
1.8964,0.4448,39.2800,79,93,287722
1.8964,0.4594,39.3500,79,93,287726
1.8915,0.4545,39.3500,79,93,287729
1.9501,0.4741,39.2200,79,93,287732
1.9159,0.4692,39.3200,79,93,287735
1.9159,0.4643,39.2500,79,93,287739
1.8817,0.4643,39.3500,79,93,287742
1.8622,0.4594,39.3500,79,93,287746
1.8768,0.5034,39.1900,79,93,287750
1.8377,0.4594,39.3800,79,93,287753
1.8475,0.4643,39.2200,79,93,287756
1.8280,0.4448,39.3500,79,93,287760
1.8231,0.4594,39.3500,79,93,287763
1.8377,0.4643,39.2800,79,93,287766
1.8133,0.4594,39.3500,79,93,287770
1.8328,0.4741,39.1900,79,93,287773
1.8182,0.4594,39.6400,79,93,287776
1.8573,0.4545,39.3500,79,93,287780
1.8719,0.4643,39.2800,79,93,287783
1.8719,0.4594,39.3500,79,93,287787
1.9355,0.4692,39.1200,79,93,287790
1.9013,0.4839,39.2800,79,93,287794
1.9110,0.4545,39.3500,79,93,287797
1.9110,0.4692,39.3800,79,93,287800
1.9110,0.4643,39.3500,79,93,287804
1.9746,0.4643,39.0900,79,93,287807
1.9599,0.4741,39.2500,79,93,287810
1.9697,0.4448,39.3200,79,93,287814
1.9697,0.4839,39.3200,79,93,287817
1.9599,0.4594,39.3500,79,93,287820
1.9941,0.4643,39.1600,79,93,287824
1.9550,0.4594,39.3200,79,93,287827
1.9550,0.4643,39.2500,79,93,287831
1.9306,0.4448,39.3500,79,93,287835
1.9110,0.4594,39.2800,79,93,287838
1.9355,0.4692,39.2500,79,93,287841
1.8866,0.4594,39.3200,79,93,287844
1.8964,0.4643,39.1600,79,93,287848
1.8866,0.4545,39.3500,79,93,287851
1.8622,0.4594,39.3800,79,93,287854
1.8573,0.4448,39.2500,79,93,287858
1.8328,0.4594,39.2500,79,93,287861
1.8573,0.4643,39.1900,79,93,287864
1.8035,0.4594,39.3500,79,93,287868
1.7840,0.4545,39.3200,79,93,287872
1.7889,0.4643,39.3500,79,93,287875
1.7498,0.4594,39.3500,79,93,287879
1.7644,0.4692,39.1600,79,93,287882
1.7400,0.4545,39.2500,79,93,287885
1.7107,0.4594,39.2800,79,93,287889
1.7302,0.4594,39.3200,79,93,287892
1.7009,0.4594,39.3200,79,93,287895
1.7449,0.4741,39.0600,79,93,287898
1.7058,0.4643,39.2800,79,93,287902
1.6911,0.4545,39.3500,79,93,287905
1.7009,0.4594,39.3200,79,93,287908
1.6911,0.4594,39.3500,79,93,287912
1.7351,0.4839,39.1600,79,93,287916
1.7058,0.4643,39.3200,79,93,287919
1.7107,0.4594,39.2200,79,93,287923
1.7009,0.4448,39.3500,79,93,287926
1.7107,0.4594,39.3200,79,93,287929
1.7400,0.4643,39.3200,79,93,287933
1.7302,0.4594,39.3200,79,93,287936
1.7498,0.4643,39.1900,79,93,287939
1.7253,0.4594,38.8100,79,93,287943
1.7204,0.4594,39.3500,79,93,287946
1.7449,0.4692,39.2500,79,93,287949
1.7107,0.4594,39.4400,79,93,287952
1.7400,0.4594,39.2200,79,93,287956
1.7351,0.4741,39.3800,79,93,287960
1.7449,0.4448,39.3500,79,93,287963
1.7937,0.4594,39.2500,79,93,287967
1.8231,0.4594,39.3500,79,93,287970
1.9404,0.4936,39.1600,79,93,287973
2.0186,0.4692,39.2500,79,93,287977
2.1065,0.4594,39.2200,79,93,287980
2.2434,0.4545,39.3200,79,93,287983
2.3851,0.4594,39.3500,79,93,287987
2.6344,0.4741,39.1200,79,93,287990
2.7615,0.4594,39.2800,79,93,287993
2.9130,0.4545,38.9600,79,93,287997
3.0596,0.4594,39.3200,79,93,288001
3.1036,0.4545,39.2500,79,93,288004
3.0890,0.4790,39.1900,79,93,288007
2.7957,0.4545,39.2800,79,93,288011
2.4976,0.4594,39.2800,79,93,288014
2.1896,0.4594,39.3500,79,93,288017
1.9599,0.4594,39.3500,79,93,288021
1.8622,0.4692,39.2200,79,93,288024
1.7889,0.4594,39.3200,79,93,288027
1.8231,0.4643,39.2200,79,93,288031
1.8426,0.4594,39.3500,79,93,288034
1.8866,0.4594,39.2500,79,93,288037
1.9355,0.4790,39.2500,79,93,288041
1.9159,0.4594,39.3800,79,93,288045
1.9306,0.4643,39.3200,79,93,288048
1.8817,0.4594,39.3200,79,93,288051
1.8719,0.4594,39.3500,79,93,288055
1.8719,0.4936,39.3200,79,93,288058
1.8573,0.4594,39.3500,79,93,288061
1.8671,0.4643,39.1600,79,93,288065
1.8231,0.4594,39.3500,79,93,288068
1.8035,0.4545,39.3800,79,93,288071
1.7986,0.4643,39.3200,79,93,288075
1.7693,0.4497,39.3500,79,93,288078
1.7986,0.4692,39.0900,79,93,288081
1.7449,0.4643,39.2800,79,93,288086
1.7204,0.4643,39.3500,79,93,288089
1.7204,0.4594,39.3200,79,93,288092
1.7155,0.4594,39.3200,79,93,288095
1.7791,0.4790,39.1200,79,93,288099
1.7595,0.4643,39.2500,79,93,288102
1.7693,0.4545,39.2800,79,93,288105
1.7791,0.4594,39.3800,79,93,288109
1.7937,0.4790,39.3500,79,93,288112
1.8524,0.4692,39.2200,79,93,288115
1.8328,0.4692,39.3800,79,93,288119
1.8622,0.4448,39.2200,79,93,288122
1.8426,0.4594,39.2800,79,93,288125
1.8524,0.4594,39.3500,79,93,288130
1.8915,0.4643,39.3200,79,93,288133
1.8866,0.4839,39.3500,79,93,288136
1.9208,0.4692,39.2200,79,93,288140
1.9013,0.4741,39.3200,79,93,288143
1.9159,0.4594,39.3500,79,93,288146
1.9404,0.4643,39.2500,79,93,288149
1.9501,0.4448,39.3500,79,93,288153
1.9404,0.4643,39.1900,79,93,288156
1.9159,0.4594,39.2200,79,93,288159
1.9013,0.4448,39.3500,79,93,288163
1.9159,0.4643,39.2800,79,93,288166
1.9110,0.4448,39.3500,79,93,288169
1.9501,0.4692,39.1200,79,93,288174
1.9208,0.4545,39.2800,79,93,288177
1.8964,0.4594,39.3800,79,93,288180
1.8915,0.4643,39.3200,79,93,288184
1.8915,0.4448,39.3500,79,93,288187
1.9355,0.4741,39.0900,79,93,288190
1.9208,0.4545,39.2200,79,93,288193
1.8866,0.4545,39.3200,79,93,288197
1.8915,0.4839,39.2800,79,93,288200
1.8524,0.4594,39.3500,79,93,288205
1.8573,0.4594,39.3500,79,93,288208
1.8866,0.4692,39.2200,79,93,288211
1.8671,0.4594,39.3200,79,93,288216
1.8964,0.4643,39.1600,79,93,288219
1.8573,0.4545,39.2800,79,93,288222
1.8328,0.4594,39.4100,79,93,288226
1.8426,0.4448,39.2500,79,93,288229
1.8035,0.4594,39.4100,79,93,288232
1.8133,0.4888,39.1600,79,93,288236
1.7742,0.4643,39.2800,79,93,288239
1.7498,0.4594,39.3500,79,93,288242
1.7546,0.4643,39.2800,79,93,288246
1.7204,0.4594,39.3800,79,93,288249
1.7449,0.4839,39.1200,79,93,288252
1.7009,0.4594,39.2800,79,93,288257
1.6960,0.4741,39.4100,79,93,288260
1.7107,0.4643,39.3200,79,93,288263
1.6813,0.4497,39.3800,79,93,288266
1.7253,0.4790,39.1600,79,93,288270
1.6960,0.4643,39.1900,79,93,288273
1.6764,0.4594,39.2800,79,93,288276
1.6618,0.4594,39.2800,79,93,288280
1.6373,0.4497,39.3500,79,93,288283
1.6471,0.4643,39.1900,79,93,288286
1.5982,0.4545,39.3200,79,93,288290
1.5885,0.4643,39.2200,79,93,288293
1.5689,0.4643,39.3500,79,93,288296
1.5591,0.4594,39.3500,79,93,288301
1.5738,0.4643,39.0900,79,93,288304
1.5494,0.4594,39.3800,79,93,288307
1.5591,0.4692,39.2500,79,93,288310
1.5298,0.4594,39.3500,79,93,288314
1.5591,0.4545,39.3800,79,93,288317
1.5249,0.4643,39.2500,79,93,288320
1.5152,0.4497,39.3500,79,93,288324
1.5347,0.4692,39.1900,79,93,288327
1.5445,0.4643,39.4400,79,93,288330
1.5152,0.4594,39.3500,79,93,288334
1.5298,0.4985,39.2500,79,93,288337
1.5103,0.4594,39.3500,79,93,288340
1.5543,0.4692,39.1600,79,93,288345
1.5298,0.4643,39.2500,79,93,288348
1.5249,0.4594,39.3800,79,93,288351
1.5396,0.4594,39.3200,79,93,288355
1.5396,0.4545,38.9000,79,93,288358
1.6276,0.4839,39.1900,79,93,288361
1.5738,0.4643,39.4100,79,93,288364
1.5738,0.4594,39.2800,79,93,288368
1.5836,0.4594,39.3500,79,93,288371
1.5934,0.4594,39.3800,79,93,288374
1.6422,0.4692,39.1900,79,93,288378
1.6178,0.4643,39.4400,79,93,288381
1.6373,0.4643,39.2500,79,93,288385
1.6031,0.4594,39.2800,79,93,288389
1.6422,0.4448,39.3500,79,93,288392
1.6276,0.4643,39.3200,79,93,288395
1.6227,0.4594,39.3200,79,93,288399
1.6569,0.4643,39.2500,79,93,288402
1.6618,0.4545,39.3500,79,93,288405
1.6520,0.4594,39.3500,79,93,288409
1.6764,0.4643,39.2500,79,93,288412
1.6520,0.4594,39.3200,79,93,288415
1.6716,0.4692,39.1600,79,93,288418
1.6667,0.4545,39.3200,79,93,288422
1.6667,0.4594,39.2800,79,93,288425
1.6911,0.4643,39.2800,79,93,288429
1.6862,0.4594,39.2500,79,93,288433
1.7449,0.4692,39.0900,79,93,288436
1.7107,0.4594,39.2800,79,93,288439
1.7058,0.4643,39.4800,79,93,288443
1.7155,0.4643,39.2800,79,93,288446
1.7009,0.4594,39.4100,79,93,288449
1.7449,0.4741,39.0600,79,93,288453
1.7009,0.4594,39.2500,79,93,288456
1.7009,0.4545,38.7700,79,93,288459
1.7155,0.4594,39.2800,79,93,288462
1.7253,0.4594,39.3200,79,93,288466
1.7840,0.4790,39.2200,79,93,288470
1.7937,0.4594,39.2800,79,93,288473
1.7546,0.4594,39.2500,79,93,288477
1.7351,0.4741,39.3500,79,93,288480
1.7204,0.4594,39.3800,79,93,288483
1.7302,0.4692,39.1600,79,93,288487
1.6911,0.4594,39.3500,79,93,288490
1.7009,0.4643,39.1900,79,93,288493
1.7058,0.4448,39.3500,79,93,288497
1.6618,0.4594,39.3500,79,93,288500
1.6764,0.4692,39.2500,79,93,288503
1.6520,0.4594,39.3500,79,93,288506
1.6716,0.4692,39.1900,79,93,288510
1.6422,0.4594,39.2800,79,93,288514
1.6520,0.4594,39.3800,79,93,288517
1.6667,0.4594,39.2500,79,93,288521
1.6569,0.4594,39.3500,79,93,288524
1.7009,0.4692,39.1200,79,93,288527
1.6813,0.4594,39.3200,79,93,288531
1.6911,0.4594,39.3500,79,93,288534
1.7204,0.4643,39.3200,79,93,288537
1.7058,0.4497,39.3500,79,93,288541
1.7546,0.4790,39.0600,79,93,288544
1.7302,0.4643,39.2500,79,93,288547
1.7302,0.4545,39.3500,79,93,288550
1.7595,0.4594,39.3500,79,93,288555
1.7791,0.4594,39.4100,79,93,288558
1.8426,0.4741,39.1900,79,93,288561
1.8133,0.4643,39.2800,79,93,288565
1.8133,0.4594,39.2800,79,93,288568
1.7986,0.4594,39.2800,79,93,288571
1.7791,0.4545,39.3500,79,93,288575
1.7937,0.4692,39.2200,79,93,288578
1.7546,0.4594,39.3500,79,93,288581
1.7595,0.4643,39.2200,79,93,288585
1.7253,0.4594,39.2800,79,93,288588
1.7204,0.4594,39.3800,79,93,288591
1.7449,0.4594,39.2800,79,93,288595
1.7302,0.4741,39.3200,79,93,288599
1.7449,0.4692,39.2500,79,93,288602
1.6862,0.4594,39.3200,79,93,288605
1.6569,0.4594,39.3500,79,93,288609
1.6520,0.4643,39.4100,79,93,288612
1.5934,0.4594,39.3500,79,93,288615
1.6031,0.4643,39.1600,79,93,288619
1.5934,0.4545,39.2500,79,93,288622
1.5396,0.4594,39.3500,79,93,288625
1.5543,0.4545,39.3200,79,93,288629
1.5200,0.4594,39.3500,79,93,288632
1.5591,0.4692,39.0600,79,93,288635
1.5298,0.4643,39.2800,79,93,288640
1.5152,0.4594,39.3500,79,93,288643
1.5200,0.4643,39.3200,79,93,288646
1.5298,0.4594,39.3200,79,93,288650
1.5787,0.4790,39.0900,79,93,288653
1.5591,0.4448,39.2800,79,93,288656
1.5543,0.4594,39.3200,79,93,288659
1.5787,0.4594,39.3500,79,93,288663
1.5787,0.4594,39.3800,79,93,288666
1.6276,0.4692,39.2200,79,93,288669
1.6227,0.4643,39.3200,79,93,288673
1.6471,0.4692,39.2500,79,93,288676
1.6520,0.4594,39.3500,79,93,288679
1.6667,0.4594,39.3800,79,93,288684
1.7058,0.4692,39.1900,79,93,288687
1.6764,0.4741,39.3200,79,93,288690
1.7107,0.4692,39.2200,79,93,288694
1.6764,0.4545,39.2800,79,93,288697
1.6716,0.4594,39.3500,79,93,288700
1.6911,0.4643,39.5100,79,93,288704
1.6911,0.4594,39.4800,79,93,288707
1.7400,0.4692,39.1600,79,93,288710
1.7498,0.4594,39.2500,79,93,288713
1.7791,0.4594,39.3500,79,93,288717
1.8573,0.4741,39.3200,79,93,288720
1.9257,0.4545,39.3500,79,93,288723
2.0674,0.4692,39.0900,79,93,288728
2.1359,0.4594,39.3200,79,93,288731
2.2923,0.4594,39.3500,79,93,288734
2.4731,0.4643,39.3200,79,93,288738
2.6149,0.4594,39.3500,79,93,288741
2.8201,0.4790,39.1200,79,93,288744
2.8495,0.4643,39.2800,79,93,288748
2.8152,0.4545,39.3200,79,93,288751
2.6637,0.4594,39.3200,79,93,288754
2.4389,0.4594,39.3500,79,93,288757
2.2483,0.4692,39.1600,79,93,288761
2.0039,0.4643,39.3200,79,93,288764
1.8671,0.4594,39.3500,79,93,288768
1.7986,0.4594,39.2800,79,93,288772
1.7986,0.4594,39.3800,79,93,288775
1.8817,0.4692,39.1900,79,93,288778
1.9062,0.4594,39.3200,79,93,288782
1.9697,0.4643,39.1900,79,93,288785
1.9648,0.4594,39.3500,79,93,288788
1.9990,0.4594,39.3200,79,93,288792
2.0381,0.4594,39.3200,79,93,288795
2.0430,0.4594,39.3200,79,93,288798
2.0772,0.4594,39.1200,79,93,288801
2.0626,0.4594,39.3500,79,93,288805
2.0723,0.4594,39.3500,79,93,288808
2.0919,0.4643,39.4800,79,93,288812
2.0626,0.4594,39.2800,79,93,288817
2.0528,0.4594,39.3500,79,93,288820
2.1114,0.4790,39.0900,79,93,288824
2.0674,0.4594,39.3200,79,93,288827
2.0577,0.4594,39.2800,79,93,288830
2.0772,0.4594,39.3800,79,93,288834
2.0821,0.4594,39.3500,79,93,288837
2.1359,0.4741,39.1600,79,93,288840
2.1017,0.4741,39.3200,79,93,288844
2.0870,0.4594,39.2500,79,93,288847
2.0674,0.4594,39.3200,79,93,288850
2.0723,0.4594,39.3500,79,93,288854
2.0968,0.4643,39.2500,79,93,288858
2.0674,0.4594,39.3500,79,93,288861
2.0870,0.4692,39.2200,79,93,288864
2.0674,0.4594,39.3500,79,93,288868
2.0772,0.4594,39.3800,79,93,288871
2.1505,0.4692,39.2200,79,93,288874
2.1065,0.4594,39.2500,79,93,288878
2.1505,0.4790,39.2200,79,93,288881
2.1505,0.4448,39.2800,79,93,288884
2.1554,0.4594,39.3500,79,93,288887
2.1896,0.4643,39.2500,79,93,288891
2.1848,0.4594,39.3500,79,93,288894
2.2239,0.4643,39.1600,79,93,288898
2.2092,0.4594,39.2500,79,93,288902
2.2141,0.4594,39.3500,79,93,288905
2.2532,0.4692,39.2800,79,93,288908
2.2483,0.4594,39.3500,79,93,288912
2.3314,0.4643,39.1200,79,93,288915
2.3021,0.4594,39.2800,79,93,288918
2.2923,0.4594,39.3500,79,93,288922
2.2923,0.4594,39.3200,79,93,288925
2.2825,0.4594,39.3200,79,93,288928
2.3558,0.4741,39.1200,79,93,288931
2.3118,0.4643,39.2800,79,93,288935
2.3021,0.4594,39.2800,79,93,288939
2.2972,0.4594,39.3500,79,93,288942
2.2874,0.4594,39.3200,79,93,288946
2.3265,0.4692,39.1900,79,93,288949
2.2776,0.4594,39.2800,79,93,288952
2.2923,0.4692,39.2200,79,93,288956
2.2776,0.4594,39.3500,79,93,288959
2.2874,0.4594,39.3800,79,93,288962
2.3216,0.4692,39.1900,79,93,288966
2.2776,0.4594,39.3500,79,93,288969
2.2874,0.4643,39.2500,79,93,288972
2.2581,0.4594,39.3500,79,93,288975
2.2483,0.4594,39.4100,79,93,288979
2.2532,0.4692,39.2500,79,93,288983
2.2385,0.4594,39.3500,79,93,288986
2.2483,0.4594,39.1900,79,93,288990
2.2190,0.4594,39.3500,79,93,288993
2.2190,0.4594,39.4100,79,93,288996
2.2434,0.4692,39.2500,79,93,289000
2.2092,0.4594,39.4800,79,93,289003
2.2483,0.4790,39.1200,79,93,289006
2.2239,0.4643,39.2500,79,93,289010
2.1994,0.4594,39.3200,79,93,289013
2.2043,0.4643,39.3200,79,93,289016
2.1848,0.4594,39.2800,79,93,289019
2.2287,0.4790,39.0600,79,93,289024
2.1799,0.4594,39.2500,79,93,289027
2.1505,0.4545,39.3500,79,93,289030
2.1554,0.4545,39.3200,79,93,289034
2.1408,0.4594,39.3500,79,93,289037
2.2043,0.4790,39.1600,79,93,289040
2.1652,0.4594,39.3200,79,93,289044
2.1652,0.4594,39.2800,79,93,289047
2.1554,0.4594,39.3200,79,93,289050
2.1554,0.4594,39.3500,79,93,289054
2.1750,0.4643,39.2200,79,93,289057
2.1603,0.4545,39.3200,79,93,289060
2.1457,0.4643,39.2200,79,93,289063
2.1114,0.4545,39.3800,79,93,289068
2.1114,0.4594,39.3800,79,93,289071
2.1408,0.4692,39.2500,79,93,289074
2.1114,0.4594,39.3500,79,93,289078
2.1554,0.4643,39.2200,79,93,289081
2.1261,0.4594,39.2800,79,93,289084
2.1212,0.4594,39.3500,79,93,289088
2.1408,0.4643,39.2500,79,93,289091
2.1065,0.4545,39.3500,79,93,289094
2.1408,0.4643,39.0300,79,93,289098
2.1603,0.4545,39.2500,79,93,289101
2.1408,0.4594,39.3500,79,93,289104
2.1896,0.4643,39.2800,79,93,289107
2.1945,0.4692,39.3500,79,93,289112
2.3069,0.4692,39.0900,79,93,289115
2.2678,0.4545,39.2200,79,93,289118
2.3216,0.4594,39.3500,79,93,289122
2.3803,0.4643,39.3200,79,93,289125
2.3998,0.4643,39.3800,79,93,289128
2.4976,0.4790,39.0900,79,93,289132
2.4878,0.4643,39.2500,79,93,289135
2.4878,0.4594,39.3200,79,93,289138
2.5122,0.4594,39.3500,79,93,289142
2.5220,0.4594,39.4800,79,93,289145
2.6002,0.4594,39.1900,79,93,289148
2.5758,0.4643,39.3200,79,93,289152
2.6051,0.4888,39.2200,79,93,289156
2.6197,0.4448,39.3800,79,93,289159
2.6491,0.4594,39.3200,79,93,289162
2.7419,0.4692,39.2200,79,93,289166
2.8006,0.4594,39.3200,79,93,289169
2.9179,0.4643,39.1900,79,93,289172
2.9814,0.4594,39.3500,79,93,289176
3.0743,0.4594,39.3500,79,93,289179
3.1672,0.4594,39.2800,79,93,289182
3.2160,0.4594,39.3500,79,93,289186
3.2991,0.4594,39.2200,79,93,289189
3.3040,0.4594,39.3500,79,93,289192
3.3236,0.4594,39.2500,79,93,289196
3.3773,0.4692,39.1900,79,93,289200
3.3382,0.4594,39.3200,79,93,289203
3.4018,0.4692,39.1200,79,93,289206
3.3480,0.4643,39.2500,79,93,289210
3.2991,0.4594,39.3200,79,93,289213
3.2942,0.4643,39.3200,79,93,289216
3.2502,0.4594,39.3500,79,93,289220
3.3138,0.4692,39.0900,79,93,289223
3.2307,0.4692,39.2500,79,93,289226
3.1916,0.4545,39.3200,79,93,289230
3.1818,0.4448,39.3800,79,93,289233
3.1378,0.4594,39.3500,79,93,289236
3.2014,0.4790,39.1600,79,93,289240
3.1134,0.4643,39.2800,79,93,289244
3.0841,0.4594,39.2200,79,93,289247
3.0450,0.4643,39.3800,79,93,289250
3.0108,0.4545,39.3800,79,93,289254
3.0352,0.4985,39.2500,79,93,289257
2.9668,0.4643,39.3200,79,93,289260
2.9570,0.4643,39.2800,79,93,289264
2.8935,0.4594,39.3800,79,93,289267
2.8543,0.4545,39.3500,79,93,289270
2.8739,0.4985,39.2200,79,93,289274
2.8201,0.4594,39.3500,79,93,289277
2.8543,0.4643,39.2500,79,93,289281
2.8006,0.4497,39.3200,79,93,289284
2.7810,0.4594,39.3500,79,93,289288
2.7761,0.4643,39.2500,79,93,289291
2.7273,0.4545,39.3500,79,93,289294
2.7468,0.4643,39.1900,79,93,289298
2.7322,0.4643,39.2800,79,93,289301
2.6931,0.4594,39.3500,79,93,289304
2.7077,0.4839,39.2500,79,93,289308
2.7077,0.4545,39.3500,79,93,289311
2.7273,0.4643,39.1200,79,93,289314
2.6833,0.4545,39.2800,79,93,289318
2.6295,0.4545,39.3500,79,93,289321
2.6149,0.4643,39.4400,79,93,289325
2.5660,0.4594,39.3500,79,93,289328
2.5953,0.4741,39.0900,79,93,289332
2.5220,0.4643,39.3500,79,93,289335
2.4731,0.4594,39.2800,79,93,289338
2.4585,0.4594,39.2800,79,93,289342
2.4389,0.4643,39.3500,79,93,289345
2.4878,0.4741,39.1600,79,93,289348
2.4047,0.4545,39.3200,79,93,289352
2.3754,0.4594,39.2500,79,93,289355
2.3314,0.4594,39.2200,79,93,289358
2.3021,0.4545,39.3500,79,93,289362
2.3069,0.4643,39.1900,79,93,289366
2.2532,0.4594,39.3200,79,93,289369
2.2532,0.4692,39.2200,79,93,289372
2.1896,0.4594,39.4800,79,93,289376
2.1603,0.4594,39.3500,79,93,289379
2.1505,0.4594,39.3800,79,93,289382
2.1212,0.4839,39.3200,79,93,289386
2.1408,0.4594,39.2200,79,93,289389
2.1017,0.4545,39.3200,79,93,289392
2.0968,0.4594,39.3500,79,93,289396
2.1163,0.4643,39.3500,79,93,289399
2.0919,0.4594,39.3500,79,93,289402
2.1163,0.4692,39.1600,79,93,289406
2.0870,0.4643,39.2200,79,93,289410
2.1017,0.4448,39.3500,79,93,289413
2.0870,0.4643,39.2800,79,93,289416
2.0821,0.4594,39.4400,79,93,289420
2.1408,0.4692,39.1200,79,93,289423
2.1359,0.4692,39.2200,79,93,289428
2.0919,0.4643,39.3500,79,93,289431
2.1163,0.4545,39.2500,79,93,289434
2.0577,0.4594,39.3500,79,93,289438
2.0626,0.4643,39.3500,79,93,289441
2.0772,0.4643,39.2800,79,93,289444
2.0528,0.4692,39.3500,79,93,289448
2.0723,0.4594,39.2200,79,93,289452
2.0674,0.4594,39.3500,79,93,289455
2.1065,0.4839,39.3800,79,93,289459
2.1945,0.4692,39.2500,79,93,289462
2.2385,0.4839,39.3500,79,93,289465
2.3803,0.4643,39.2200,79,93,289468
2.5024,0.4594,39.2200,79,93,289472
2.6393,0.4594,39.3500,79,93,289475
2.8006,0.4643,39.2800,79,93,289478
2.8788,0.4594,39.3200,79,93,289482
2.9374,0.4692,39.1600,79,93,289485
2.7566,0.4643,39.2800,79,93,289488
2.5073,0.4643,39.3500,79,93,289492
2.2630,0.4643,39.2800,79,93,289496
2.0039,0.4594,39.2800,79,93,289499
1.8768,0.4692,39.1200,79,93,289503
1.7400,0.4594,39.2800,79,93,289506
1.7107,0.4594,39.3500,79,93,289509
1.7351,0.4545,39.3200,79,93,289512
1.7742,0.4594,39.3500,79,93,289516
1.8866,0.4741,39.1200,79,93,289519
1.8524,0.4643,39.1900,79,93,289522
1.8573,0.4497,39.2500,79,93,289526
1.8524,0.4594,39.3200,79,93,289529
1.8475,0.4448,39.3500,79,93,289532
1.8768,0.4692,39.2200,79,93,289537
1.8475,0.4594,39.3200,79,93,289540
1.8622,0.4643,39.2200,79,93,289543
1.8426,0.4545,39.3500,79,93,289547
1.8475,0.4594,39.3500,79,93,289550
1.8671,0.4692,39.2200,79,93,289553
1.8426,0.4643,39.3500,79,93,289557
1.8622,0.4643,39.2500,79,93,289560
1.8377,0.4741,39.3200,79,93,289563
1.8377,0.4594,39.3800,79,93,289566
1.8524,0.4545,39.2500,79,93,289570
1.8377,0.4594,39.3500,79,93,289573
1.8622,0.4936,39.1200,79,93,289576
1.8328,0.4594,39.2500,79,93,289581
1.8426,0.4643,39.3500,79,93,289584
1.8524,0.4643,39.3200,79,93,289587
1.8573,0.4594,39.3200,79,93,289591
1.8964,0.4643,39.0900,79,93,289594
1.8719,0.4643,39.2800,79,93,289597
1.8573,0.4594,39.3500,79,93,289601
1.8524,0.4594,39.3200,79,93,289604
1.8768,0.4448,39.3500,79,93,289607
1.8964,0.4643,39.1900,79,93,289611
1.8573,0.4643,39.3200,79,93,289614
1.8524,0.4594,39.2800,79,93,289617
1.8524,0.4594,39.3200,79,93,289620
1.8671,0.4448,39.3500,79,93,289625
1.9013,0.4643,39.3800,79,93,289628
1.9013,0.4594,39.3200,79,93,289631
1.8964,0.4643,39.2200,79,93,289635
1.8817,0.4790,39.3500,79,93,289638
1.8915,0.4594,39.3500,79,93,289641
1.9062,0.4643,39.3200,79,93,289645
1.8964,0.4448,39.3500,79,93,289648
1.9208,0.4692,39.2500,79,93,289651
1.8866,0.4545,39.3800,79,93,289655
1.8964,0.4594,39.3800,79,93,289658
1.9257,0.4643,38.6200,79,93,289661
1.9110,0.4448,39.3500,79,93,289666
1.9453,0.4643,39.2500,79,93,289669
1.9501,0.4594,39.2500,79,93,289672
1.9306,0.4594,39.3500,79,93,289675
1.9355,0.4643,39.2800,79,93,289679
1.9208,0.4594,39.3800,79,93,289682
1.9648,0.4692,39.2200,79,93,289685
1.9453,0.4448,39.2800,79,93,289689
1.9355,0.4594,39.4100,79,93,289692
1.9501,0.4643,39.3200,79,93,289695
1.9404,0.4594,39.3500,79,93,289699
2.0039,0.4790,39.1200,79,93,289702
1.9697,0.4448,39.2500,79,93,289705
1.9648,0.4545,39.3500,79,93,289710
1.9648,0.4545,39.3500,79,93,289713
1.9501,0.4594,39.3200,79,93,289716
1.9795,0.4692,39.1900,79,93,289719
1.9453,0.4594,39.3200,79,93,289723
1.9453,0.4839,39.3200,79,93,289726
1.9306,0.4594,39.3500,79,93,289729
1.9306,0.4545,39.3800,79,93,289733
1.9697,0.4692,39.1900,79,93,289736
1.9404,0.4545,39.3200,79,93,289739
1.9599,0.4643,39.2800,79,93,289743
1.9208,0.4545,39.2800,79,93,289746
1.9110,0.4643,39.3500,79,93,289750
1.9208,0.4643,39.2500,79,93,289754
1.8768,0.4839,39.3200,79,93,289757
1.8817,0.4643,39.1900,79,93,289760
1.8426,0.4545,39.2800,79,93,289764
1.8426,0.4594,39.3500,79,93,289767
1.8524,0.4643,39.2800,79,93,289770
1.8426,0.4545,39.3500,79,93,289773
1.8768,0.4692,39.1200,79,93,289777
1.8280,0.4594,39.3200,79,93,289780
1.8133,0.4545,39.3500,79,93,289783
1.8133,0.4643,39.2800,79,93,289787
1.7937,0.4594,39.4400,79,93,289790
1.8426,0.4790,39.0900,79,93,289794
1.8084,0.4643,39.2500,79,93,289798
1.7937,0.4545,39.3200,79,93,289801
1.7937,0.4594,39.3200,79,93,289804
1.7889,0.4594,38.8700,79,93,289808
1.8328,0.4741,39.1600,79,93,289811
1.7937,0.4643,39.3200,79,93,289814
1.8035,0.4790,39.2200,79,93,289818
1.7986,0.4594,39.3500,79,93,289821
1.8084,0.4594,39.2200,79,93,289824
1.8328,0.4741,39.1900,79,93,289827
1.8035,0.4594,39.3200,79,93,289831
1.8133,0.4888,39.1900,79,93,289835
1.7986,0.4594,39.3500,79,93,289838
1.8035,0.4497,39.3800,79,93,289842
1.8231,0.4594,39.2800,79,93,289845
1.8084,0.4594,39.1600,79,93,289848
1.8377,0.4545,39.2200,79,93,289852
1.8084,0.4594,39.3800,79,93,289855
1.8426,0.4594,39.3500,79,93,289858
1.8426,0.4643,39.2500,79,93,289862
1.8377,0.4448,39.3500,79,93,289865
1.8768,0.4692,39.1900,79,93,289868
1.8573,0.4741,39.2800,79,93,289871
1.8475,0.4594,39.3800,79,93,289875
1.8524,0.4643,39.3200,79,93,289879
1.8426,0.4448,39.3500,79,93,289882
1.8866,0.4741,39.0300,79,93,289886
1.8622,0.4643,39.3200,79,93,289889
1.8671,0.4545,39.2800,79,93,289892
1.8817,0.4643,39.3200,79,93,289896
1.8866,0.4594,39.3500,79,93,289899
1.9355,0.4790,39.2200,79,93,289902
1.8964,0.4643,39.3200,79,93,289906
1.8866,0.4741,39.2500,79,93,289909
1.8768,0.4594,39.3200,79,93,289912
1.8768,0.4594,39.3500,79,93,289916
1.9062,0.4692,39.2500,79,93,289920
1.8768,0.4594,39.3500,79,93,289923
1.8866,0.4741,39.3200,79,93,289926
1.8671,0.4545,39.4100,79,93,289930
1.8768,0.4643,39.3500,79,93,289933
1.9306,0.4643,39.1900,79,93,289936
1.9159,0.4643,39.3200,79,93,289940
1.9306,0.4594,39.2200,79,93,289943
1.8915,0.4594,39.2800,79,93,289946
1.8719,0.4594,39.3500,79,93,289950
1.8866,0.4643,39.2500,79,93,289953
1.8671,0.4594,39.3500,79,93,289956
1.8915,0.4643,39.1600,79,93,289960
1.8964,0.4643,39.2800,79,93,289964
1.8671,0.4594,39.3500,79,93,289967
1.8817,0.4594,39.3200,79,93,289971
1.8768,0.4594,39.3500,79,93,289974
1.9257,0.4692,39.0600,79,93,289977
1.8866,0.4594,39.2800,79,93,289980
1.8768,0.4545,39.1600,79,93,289984
1.8817,0.4643,39.3200,79,93,289987
1.8768,0.4594,39.3500,79,93,289990
1.9404,0.4741,39.1600,79,93,289994
1.9062,0.4643,39.2800,79,93,289997
1.9062,0.4594,38.6800,79,93,290000
1.9110,0.4594,39.3500,79,93,290004
1.9062,0.4594,39.3800,79,93,290008
1.9501,0.4643,39.1900,79,93,290011
1.9257,0.4594,39.3500,79,93,290015
1.9599,0.4790,39.2200,79,93,290018
1.9599,0.4448,39.3500,79,93,290021
1.9697,0.4594,39.3500,79,93,290024
2.0039,0.4692,39.2200,79,93,290028
1.9844,0.4594,39.3500,79,93,290031
2.0283,0.4643,39.2800,79,93,290034
2.0332,0.4497,39.1600,79,93,290038
2.0626,0.4594,39.3500,79,93,290042
2.0577,0.4594,39.3500,79,93,290046
2.0577,0.4643,39.3200,79,93,290050
2.0626,0.4448,39.4400,79,93,290053
2.0723,0.4692,39.0900,79,93,290057
2.0283,0.4643,39.2200,79,93,290060
1.9941,0.4594,39.3500,79,93,290063
1.9795,0.4594,39.5100,79,93,290067
1.9697,0.4643,39.4400,79,93,290070
2.0186,0.4643,39.1600,79,93,290073
1.9941,0.4545,39.2800,79,93,290077
1.9550,0.4594,39.2500,79,93,290080
1.9257,0.4594,39.3800,79,93,290083
1.9062,0.4594,39.3500,79,93,290086
1.9062,0.4643,39.2200,79,93,290091
1.8915,0.4448,39.3200,79,93,290094
1.8573,0.4643,39.2500,79,93,290097
1.8182,0.4643,39.3200,79,93,290101
1.8035,0.4594,39.3200,79,93,290104
1.8035,0.4545,39.2800,79,93,290107
1.7986,0.4594,39.3200,79,93,290111
1.8231,0.4936,39.2200,79,93,290114
1.7986,0.4594,39.3800,79,93,290117
1.7937,0.4692,39.3500,79,93,290121
1.8182,0.4643,39.2500,79,93,290124
1.7986,0.4594,39.3500,79,93,290127
1.8377,0.4692,39.1200,79,93,290131
1.8133,0.4643,39.1900,79,93,290135
1.8035,0.4643,39.3500,79,93,290138
1.8182,0.4643,39.2800,79,93,290141
1.8084,0.4545,39.3500,79,93,290145
1.8524,0.4643,39.0900,79,93,290148
1.8182,0.4448,39.3200,79,93,290151
1.8133,0.4545,39.3500,79,93,290155
1.8231,0.4643,39.3200,79,93,290158
1.8231,0.4594,39.3500,79,93,290161
1.8817,0.4839,39.1900,79,93,290165
1.8475,0.4692,39.3800,79,93,290168
1.8377,0.4790,39.2500,79,93,290171
1.8182,0.4594,39.3200,79,93,290176
1.8133,0.4741,39.3500,79,93,290179
1.8377,0.4692,39.2500,79,93,290182
1.8084,0.4594,39.3500,79,93,290186
1.8133,0.4643,39.2200,79,93,290189
1.7840,0.4594,39.3200,79,93,290192
1.8377,0.4545,39.3500,79,93,290195
1.9110,0.4643,39.2200,79,93,290199
1.9453,0.4545,39.3500,79,93,290202
2.0528,0.4594,39.2200,79,93,290205
2.1212,0.4594,39.2800,79,93,290209
2.2630,0.4594,39.3500,79,93,290212
2.4145,0.4643,39.2500,79,93,290215
2.5367,0.4643,39.3500,79,93,290220
2.7077,0.4643,39.1200,79,93,290223
2.7028,0.4692,39.2800,79,93,290226
2.5855,0.4594,39.3500,79,93,290230
2.3803,0.4643,39.2800,79,93,290233
2.0968,0.4594,39.4400,79,93,290236
1.8964,0.4692,39.1200,79,93,290239
1.6716,0.4741,39.2800,79,93,290243
1.5787,0.4594,39.3800,79,93,290246
1.5640,0.4594,39.3500,79,93,290249
1.5885,0.4643,39.3500,79,93,290253
1.6862,0.4790,39.1600,79,93,290256
1.6960,0.4643,39.2800,79,93,290259
1.7204,0.4594,39.2800,79,93,290264
1.7302,0.4594,39.3500,79,93,290267
1.7498,0.4545,39.3500,79,93,290270
1.7937,0.4692,39.3500,79,93,290274
1.7791,0.4448,39.3200,79,93,290277
1.7986,0.4643,39.3200,79,93,290280
1.7742,0.4692,39.3500,79,93,290284
1.7595,0.4594,39.3500,79,93,290287
1.7791,0.4790,39.2500,79,93,290290
1.7840,0.4545,39.3200,79,93,290293
1.7889,0.4643,39.2500,79,93,290297
1.7595,0.4741,39.3200,79,93,290300
1.7644,0.4594,39.3500,79,93,290304
1.7791,0.4594,39.3200,79,93,290308
1.7742,0.4594,39.3500,79,93,290311
1.8035,0.4643,39.2200,79,93,290314
1.7889,0.4448,39.3500,79,93,290318
1.8035,0.4594,39.4100,79,93,290321
1.8231,0.4594,39.3200,79,93,290324
1.8133,0.4594,39.3500,79,93,290328
1.8524,0.4692,39.0900,79,93,290331
1.8280,0.4643,39.2800,79,93,290334
1.8133,0.4594,39.4800,79,93,290337
1.8280,0.4594,39.3200,79,93,290341
1.8231,0.4594,39.3800,79,93,290344
1.8671,0.4790,39.0900,79,93,290348
1.8182,0.4643,39.3200,79,93,290352
1.7986,0.4497,39.2800,79,93,290355
1.8084,0.4594,39.3500,79,93,290358
1.8084,0.4594,39.3800,79,93,290362
1.8622,0.4839,39.1900,79,93,290365
1.8280,0.4643,39.3800,79,93,290368
1.8280,0.4594,39.2200,79,93,290372
1.8231,0.4545,39.3500,79,93,290375
1.8328,0.4594,39.3200,79,93,290378
1.8622,0.4692,39.2800,79,93,290382
1.8377,0.4594,39.2800,79,93,290385
1.8622,0.4643,39.2200,79,93,290388
1.8377,0.4594,39.3500,79,93,290392
1.8426,0.4594,39.3500,79,93,290396
1.8866,0.4692,39.2500,79,93,290399
1.8719,0.4594,39.3500,79,93,290402
1.8964,0.4643,39.2500,79,93,290406
1.8817,0.4594,39.2500,79,93,290409
1.8866,0.4594,39.3500,79,93,290412
1.9013,0.4741,39.2800,79,93,290416
1.8964,0.4594,39.3800,79,93,290419
1.9306,0.4643,39.1200,79,93,290422
1.9159,0.4594,39.2800,79,93,290426
1.9062,0.4594,39.3500,79,93,290429
1.9257,0.4643,39.5100,79,93,290433
1.9110,0.4545,39.3500,79,93,290436
1.9697,0.4692,39.0600,79,93,290440
1.9306,0.4643,39.2500,79,93,290443
1.9404,0.4497,39.3200,79,93,290446
1.9306,0.4594,39.3200,79,93,290450
1.9208,0.4594,39.3500,79,93,290453
1.9746,0.4790,39.1900,79,93,290456
1.9355,0.4643,39.2800,79,93,290460
1.9306,0.4448,39.2500,79,93,290463
1.9208,0.4936,39.3500,79,93,290466
1.9110,0.4545,39.3500,79,93,290470
1.9501,0.4643,39.1900,79,93,290473
1.9404,0.4545,39.3200,79,93,290477
1.9110,0.4643,39.2200,79,93,290480
1.8817,0.4643,39.3200,79,93,290484
1.8768,0.4594,39.3500,79,93,290487
1.9062,0.4888,39.2800,79,93,290490
1.8817,0.4545,39.3200,79,93,290494
1.9062,0.4643,39.2500,79,93,290497
1.8719,0.4545,39.3800,79,93,290500
1.8671,0.4594,39.3800,79,93,290504
1.8768,0.4643,39.3200,79,93,290507
1.8719,0.4594,39.3500,79,93,290510
1.8866,0.4643,39.0900,79,93,290514
1.8475,0.4594,39.3500,79,93,290518
1.8328,0.4594,39.2800,79,93,290521
1.8426,0.4643,39.2500,79,93,290525
1.8084,0.4594,39.3200,79,93,290528
1.8475,0.4594,39.1900,79,93,290531
1.8231,0.4643,39.2500,79,93,290534
1.8182,0.4594,39.2800,79,93,290538
1.8231,0.4594,39.3800,79,93,290541
1.8182,0.4594,39.3200,79,93,290544
1.8622,0.4790,39.1900,79,93,290548
1.8133,0.4643,39.2800,79,93,290551
1.8084,0.4643,39.2500,79,93,290554
1.8084,0.4594,39.3200,79,93,290558
1.8084,0.4643,39.3500,79,93,290562
1.8377,0.4692,39.2200,79,93,290565
1.8231,0.4643,39.3200,79,93,290569
1.8377,0.4643,39.2500,79,93,290572
1.8328,0.4594,39.3200,79,93,290575
1.8524,0.4594,39.3500,79,93,290579
1.8719,0.4643,39.2800,79,93,290582
1.8671,0.4448,39.3500,79,93,290585
1.8964,0.4692,39.2500,79,93,290588
1.8671,0.4643,39.3200,79,93,290592
1.8671,0.4594,39.3500,79,93,290595
1.8866,0.4692,39.2200,79,93,290598
1.8671,0.4594,39.3500,79,93,290603
1.9013,0.4692,39.1200,79,93,290606
1.8866,0.4594,39.2500,79,93,290609
1.8768,0.4790,39.3800,79,93,290613
1.9013,0.4643,39.2800,79,93,290616
1.8915,0.4594,39.3500,79,93,290619
1.9746,0.4692,39.0900,79,93,290623
1.9208,0.4643,39.3200,79,93,290626
1.9110,0.4643,39.3800,79,93,290629
1.9257,0.4594,39.3200,79,93,290633
1.9110,0.4594,39.3800,79,93,290636
1.9697,0.4790,39.1900,79,93,290639
1.9306,0.4643,39.3500,79,93,290642
1.9257,0.4594,39.3200,79,93,290647
1.9355,0.4594,39.3200,79,93,290650
1.9599,0.4594,39.3800,79,93,290655
1.9697,0.4839,39.3500,79,93,290658
2.0039,0.4692,39.2200,79,93,290661
1.9746,0.4594,39.3500,79,93,290665
2.0039,0.4692,39.2200,79,93,290668
1.9795,0.4594,39.2800,79,93,290671
1.9892,0.4594,39.3200,79,93,290675
2.0186,0.4692,39.2800,79,93,290678
1.9941,0.4594,39.2800,79,93,290681
2.0235,0.4790,39.1200,79,93,290685
1.9892,0.4692,39.2800,79,93,290689
1.9746,0.4594,39.3200,79,93,290692
2.0039,0.4545,39.2800,79,93,290695
1.9599,0.4594,39.3500,79,93,290699
1.9990,0.4692,39.1600,79,93,290702
1.9501,0.4594,39.2800,79,93,290705
1.9697,0.4594,39.3500,79,93,290709
1.9844,0.4545,39.3200,79,93,290712
1.9648,0.4594,39.2800,79,93,290715
2.0137,0.4839,39.1200,79,93,290719
1.9746,0.4643,39.2800,79,93,290722
1.9648,0.4594,39.3200,79,93,290725
1.9648,0.4594,39.3200,79,93,290729
1.9697,0.4594,39.3800,79,93,290733
2.0137,0.4692,39.1900,79,93,290736
1.9746,0.4594,39.3500,79,93,290740
1.9892,0.4594,39.2200,79,93,290743
1.9746,0.4594,39.3500,79,93,290746
1.9844,0.4643,39.3200,79,93,290749
2.0235,0.4643,39.2500,79,93,290753
1.9990,0.4594,39.2800,79,93,290756
2.0235,0.4741,39.2500,79,93,290759
1.9990,0.4594,39.3500,79,93,290763
2.0088,0.4497,39.3800,79,93,290766
2.0332,0.4594,39.2500,79,93,290769
2.0283,0.4594,39.2800,79,93,290774
2.0577,0.4643,39.1600,79,93,290777
2.0479,0.4594,39.3800,79,93,290780
2.0772,0.4594,39.3500,79,93,290783
2.1114,0.4594,39.2500,79,93,290787
2.1017,0.4594,39.5100,79,93,290790
2.1457,0.4692,39.0900,79,93,290793
2.1212,0.4643,39.2500,79,93,290797
2.0870,0.4594,39.3200,79,93,290800
2.0870,0.4545,39.3200,79,93,290803
2.0528,0.4594,39.3500,79,93,290807
2.0870,0.4741,39.0300,79,93,290810
2.0479,0.4545,39.2500,79,93,290813
2.0088,0.4545,39.3200,79,93,290818
1.9990,0.4594,39.3200,79,93,290821
1.9941,0.4594,39.3500,79,93,290824
2.0479,0.4790,39.1900,79,93,290827
1.9892,0.4643,38.7700,79,93,290831
