ecg,gsr,temp,hr,spo2,timest
1.8671,0.4057,39.0900,76,93,270365
1.8475,0.4057,39.0900,76,93,270368
1.8622,0.4154,39.0000,76,93,270371
1.8377,0.4106,39.1200,76,93,270375
1.8475,0.4057,39.1200,76,93,270379
1.9257,0.4154,39.0000,76,93,270382
1.9795,0.3861,39.1200,76,93,270386
2.0968,0.4106,38.9600,76,93,270389
2.2092,0.4106,39.0600,76,93,270392
2.3851,0.4057,39.1200,76,93,270395
2.6393,0.4252,39.0900,76,93,270399
2.8299,0.4057,39.1900,76,93,270402
3.0596,0.4154,38.9000,76,93,270405
3.0987,0.4154,38.9300,76,93,270409
3.0108,0.4203,39.0900,76,93,270412
2.8690,0.4154,39.1200,76,93,270415
2.5318,0.4057,39.1200,76,93,270419
2.2825,0.4203,38.9000,76,93,270423
1.9453,0.4106,38.9600,76,93,270426
1.7449,0.4057,39.1200,76,93,270429
1.6520,0.4154,39.1200,76,93,270433
1.6178,0.4057,39.1200,76,93,270436
1.6862,0.4350,38.9300,76,93,270439
1.6862,0.4057,39.0600,76,93,270443
1.7058,0.4057,39.0600,76,93,270446
1.7204,0.4154,39.1200,76,93,270449
1.7204,0.4106,39.1200,76,93,270453
1.7595,0.4154,38.9300,76,93,270456
1.7400,0.4057,39.0900,76,93,270459
1.7498,0.4106,39.0000,76,93,270464
1.7204,0.4057,39.1200,76,93,270467
1.7155,0.4057,39.2200,76,93,270470
1.7449,0.4154,38.9600,76,93,270473
1.7253,0.4057,39.1900,76,93,270477
1.7498,0.4154,39.0600,76,93,270480
1.7400,0.4057,39.1200,76,93,270483
1.7449,0.4106,39.1200,76,93,270488
1.7546,0.4057,39.1600,76,93,270491
1.7791,0.4106,39.0600,76,93,270495
1.7742,0.4106,39.1200,76,93,270498
1.8231,0.4203,38.6800,76,93,270501
1.8084,0.4154,39.0600,76,93,270505
1.8280,0.4057,39.1200,76,93,270509
1.8084,0.4106,39.1200,76,93,270512
1.8035,0.4106,39.1600,76,93,270515
1.8573,0.4252,38.8700,76,93,270519
1.8231,0.4106,39.0600,76,93,270522
1.8035,0.4057,39.0900,76,93,270525
1.8133,0.4057,39.1200,76,93,270529
1.8035,0.4399,39.0300,76,93,270532
1.8524,0.4203,38.9600,76,93,270535
1.8280,0.4106,39.0900,76,93,270539
1.8328,0.4106,39.0300,76,93,270542
1.8280,0.4106,39.1200,76,93,270545
1.8280,0.4057,39.0600,76,93,270550
1.8524,0.4301,39.0600,76,93,270553
1.8622,0.4057,39.0900,76,93,270556
1.8671,0.4106,38.9600,76,93,270559
1.8622,0.4106,39.1200,76,93,270563
1.8524,0.4057,39.1200,76,93,270566
1.8866,0.4154,39.0300,76,93,270569
1.8622,0.4057,39.1200,76,93,270573
1.8964,0.4106,38.9600,76,93,270576
1.8817,0.4008,39.0600,76,93,270579
1.9110,0.3959,39.1200,76,93,270583
1.9110,0.4106,39.0600,76,93,270586
1.9062,0.4106,39.1900,76,93,270589
1.9404,0.4154,38.9000,76,93,270594
1.9159,0.4203,39.0300,76,93,270597
1.9208,0.4106,39.1900,76,93,270600
1.9306,0.4154,39.0600,76,93,270603
1.9159,0.4057,39.0300,76,93,270607
1.9746,0.4203,38.8700,76,93,270610
1.9404,0.4057,39.0600,76,93,270613
1.9404,0.4008,39.1200,76,93,270617
1.9550,0.4154,39.0900,76,93,270620
1.9453,0.4057,38.9000,76,93,270623
1.9990,0.4252,38.9300,76,93,270627
1.9550,0.4154,39.0300,76,93,270630
1.9355,0.3861,39.0900,76,93,270633
1.9550,0.4106,39.1900,76,93,270637
1.9208,0.4106,39.1600,76,93,270641
1.9599,0.4252,38.9300,76,93,270644
1.9257,0.4106,39.0900,76,93,270647
1.9306,0.4106,39.0300,76,93,270651
1.9208,0.4057,39.0300,76,93,270654
1.9159,0.4057,39.1200,76,93,270657
1.9355,0.4154,39.0300,76,93,270661
1.9013,0.4057,39.0900,76,93,270664
1.9110,0.4252,39.0000,76,93,270667
1.8964,0.4057,39.1200,76,93,270670
1.8817,0.4057,39.0900,76,93,270674
1.8964,0.4008,39.0600,76,93,270678
1.8915,0.4106,39.1200,76,93,270681
1.9208,0.4106,39.0600,76,93,270685
1.8915,0.4106,39.1600,76,93,270688
1.8964,0.4106,39.1200,76,93,270691
1.9208,0.4154,39.0300,76,93,270695
1.8915,0.4057,39.1200,76,93,270698
1.9355,0.4154,38.9000,76,93,270701
1.9257,0.4057,39.0300,76,93,270705
1.9062,0.4057,39.1200,76,93,270708
1.9159,0.4106,39.0900,76,93,270711
1.9159,0.4057,39.1200,76,93,270714
1.9550,0.4203,38.8700,76,93,270718
1.9159,0.4154,39.0600,76,93,270722
1.9110,0.4057,39.1200,76,93,270725
1.9013,0.4106,39.1600,76,93,270729
1.8866,0.4106,39.0900,76,93,270732
1.9355,0.4252,38.9000,76,93,270735
1.9013,0.4154,39.0600,76,93,270739
1.8964,0.4106,39.0600,76,93,270742
1.8915,0.4106,39.1200,76,93,270745
1.8719,0.4106,39.1200,76,93,270749
1.9208,0.4203,39.0000,76,93,270752
1.8915,0.4106,39.0600,76,93,270755
1.8915,0.4106,39.0900,76,93,270758
1.8719,0.4106,39.1600,76,93,270763
1.8671,0.4057,38.9600,76,93,270766
1.9013,0.4203,38.9600,76,93,270769
1.8719,0.4057,39.1200,76,93,270773
1.8964,0.4106,39.0600,76,93,270776
1.8817,0.3959,39.1200,76,93,270779
1.8719,0.4057,39.1600,76,93,270783
1.8915,0.4154,39.0300,76,93,270786
1.8671,0.4057,39.1200,76,93,270789
1.8866,0.4057,39.0000,76,93,270793
1.8573,0.4057,39.0600,76,93,270796
1.8622,0.4057,39.1200,76,93,270799
1.8768,0.4057,39.0600,76,93,270802
1.8964,0.4106,39.1200,76,93,270807
1.9013,0.4154,38.9300,76,93,270810
1.8719,0.3959,39.1900,76,93,270813
1.8719,0.4057,39.1600,76,93,270817
1.8866,0.4154,39.0600,76,93,270820
1.8719,0.3861,39.1200,76,93,270823
1.9110,0.4203,38.8400,76,93,270827
1.8719,0.4106,39.0300,76,93,270830
1.8573,0.4008,39.1600,76,93,270833
1.8719,0.4106,39.0900,76,93,270837
1.8622,0.3861,39.1200,76,93,270840
1.9159,0.4252,38.9600,76,93,270843
1.8768,0.4106,39.0900,76,93,270846
1.8719,0.4057,39.0600,76,93,270851
1.8622,0.4057,39.1200,76,93,270854
1.8524,0.4057,39.1200,76,93,270857
1.8768,0.4203,39.0000,76,93,270861
1.8524,0.4154,39.0900,76,93,270864
1.8622,0.4057,39.0300,76,93,270867
1.8426,0.4057,39.1200,76,93,270871
1.8426,0.4106,39.1200,76,93,270874
1.8622,0.4106,39.0600,76,93,270877
1.8573,0.4057,39.2500,76,93,270880
1.8866,0.4203,39.0300,76,93,270884
1.8524,0.4057,39.1600,76,93,270887
1.8524,0.4057,39.1200,76,93,270891
1.8915,0.4154,39.0300,76,93,270895
1.8524,0.4203,39.1200,76,93,270898
1.8768,0.4106,38.9300,76,93,270901
1.8524,0.4106,39.0600,76,93,270905
1.8426,0.4154,39.0900,76,93,270908
1.8573,0.4106,39.0600,76,93,270911
1.8426,0.4057,39.0300,76,93,270915
1.8866,0.4301,38.9000,76,93,270918
1.8573,0.4106,39.0600,76,93,270921
1.8426,0.4057,39.1200,76,93,270924
1.8524,0.4203,39.0900,76,93,270928
1.8328,0.4106,39.1200,76,93,270931
1.8768,0.4203,38.8700,76,93,270935
1.8377,0.4106,39.0300,76,93,270939
1.8377,0.4008,39.1200,76,93,270942
1.8426,0.4106,39.1600,76,93,270945
1.8426,0.4057,39.1200,76,93,270949
1.8817,0.4252,38.9600,76,93,270952
1.8524,0.4203,39.0600,76,93,270955
1.8524,0.4057,39.0300,76,93,270959
1.8426,0.4301,39.1200,76,93,270962
1.8377,0.4057,39.1200,76,93,270965
1.8671,0.4154,38.9300,76,93,270968
1.8426,0.4106,39.1200,76,93,270972
1.8622,0.4154,38.3600,76,93,270976
1.8426,0.4106,39.1600,76,93,270979
1.8524,0.4057,39.1600,76,93,270983
1.8768,0.4154,39.0300,76,93,270986
1.8573,0.4057,39.1200,76,93,270989
1.8768,0.4106,39.0900,76,93,270993
1.8475,0.4106,39.0600,76,93,270996
1.8524,0.4057,39.1200,76,93,270999
1.8573,0.4106,39.0300,76,93,271003
1.8524,0.4057,39.1200,76,93,271006
1.8915,0.4203,38.9300,76,93,271009
1.8768,0.4057,39.1600,76,93,271012
1.8866,0.4106,39.1900,76,93,271016
1.9208,0.4154,39.0900,76,93,271020
1.9110,0.4106,39.1200,76,93,271023
1.9941,0.4154,38.8700,76,93,271027
1.9453,0.4106,39.3800,76,93,271030
1.9453,0.4057,39.1900,76,93,271033
1.9648,0.4106,39.1600,76,93,271037
1.9941,0.4106,39.1200,76,93,271040
2.0381,0.4252,38.9300,76,93,271043
1.9990,0.3959,39.0600,76,93,271047
1.9941,0.4057,39.0300,76,93,271050
1.9697,0.4106,39.1600,76,93,271053
1.9550,0.4057,39.1600,76,93,271056
1.9648,0.4057,39.0000,76,93,271060
1.9110,0.4106,39.0900,76,93,271064
1.9013,0.4106,39.1200,76,93,271067
1.8817,0.4154,39.1900,76,93,271071
1.8768,0.4057,39.1600,76,93,271074
1.8964,0.4057,39.0900,76,93,271077
1.8768,0.3861,39.1200,76,93,271081
1.8817,0.4154,39.0900,76,93,271084
1.8426,0.4106,39.1600,76,93,271087
1.8280,0.4057,39.1200,76,93,271091
1.8377,0.4154,39.0300,75,93,271094
1.7400,0.4154,39.0600,75,93,271099
1.7302,0.4057,39.1200,75,93,271102
1.7742,0.4203,38.9000,75,93,271106
1.7498,0.4106,39.0900,75,93,271109
1.7498,0.4057,39.1200,75,93,271113
1.7498,0.4106,39.0900,75,93,271116
1.7400,0.4203,39.1200,75,93,271119
1.7937,0.4350,38.8700,75,93,271123
1.7595,0.4106,39.0600,75,93,271126
1.7546,0.4008,39.0600,75,93,271129
1.7644,0.4057,39.1200,75,93,271133
1.7546,0.4154,39.1200,75,93,271136
1.7840,0.4203,39.0000,75,93,271139
1.7595,0.4106,39.0900,75,93,271142
1.7644,0.4106,39.0600,75,93,271147
1.7595,0.4154,39.1200,75,93,271150
1.7595,0.4057,39.1200,75,93,271153
1.7937,0.4154,38.9300,75,93,271157
1.7693,0.4057,39.1200,75,93,271160
1.7937,0.4154,38.9600,75,93,271163
1.7791,0.4106,39.1200,75,93,271167
1.7742,0.4057,39.0300,75,93,271170
1.7937,0.4057,39.0600,75,93,271173
1.7742,0.4057,39.1200,75,93,271177
1.7889,0.4106,39.0300,75,93,271180
1.8133,0.4106,39.0600,75,93,271183
1.8377,0.4057,39.1600,75,93,271186
1.9159,0.4106,39.0300,75,93,271191
1.9697,0.4008,39.1200,75,93,271194
2.1114,0.4154,38.9000,75,93,271197
2.2190,0.4252,39.0900,75,93,271201
2.3900,0.4106,39.1200,75,93,271204
2.5855,0.4106,39.0900,75,93,271207
2.7517,0.4057,39.0900,75,93,271211
2.9326,0.4301,38.8700,75,93,271214
2.8690,0.4106,39.0600,75,93,271217
2.6833,0.4106,39.1600,75,93,271220
2.4194,0.4057,39.1200,75,93,271224
2.1212,0.4106,39.1200,75,93,271227
1.9110,0.4252,38.9600,75,93,271230
1.6911,0.4154,39.0900,75,93,271235
1.5787,0.4057,39.0600,75,93,271238
1.5738,0.4057,39.1900,75,93,271241
1.6031,0.4057,39.1200,75,93,271245
1.6911,0.4154,39.0000,75,93,271248
1.7058,0.4106,38.7100,75,93,271251
1.7204,0.4106,39.0300,75,93,271255
1.7107,0.4106,39.1200,75,93,271258
1.7058,0.4057,39.2500,75,93,271261
1.7253,0.4106,39.0600,75,93,271264
1.6960,0.4057,39.0900,75,93,271268
1.7107,0.4106,38.9600,75,93,271271
1.6862,0.4106,39.1200,75,93,271275
1.6862,0.4057,39.1200,75,93,271279
1.7155,0.4203,39.0000,75,93,271282
1.7009,0.3861,39.1900,75,93,271285
1.7204,0.4106,39.0000,75,93,271289
1.6960,0.4057,39.0300,75,93,271292
1.6960,0.4008,39.1200,75,93,271295
1.7107,0.4106,39.0300,75,93,271298
1.6960,0.4057,39.0300,75,93,271302
1.7253,0.4350,38.9000,75,93,271305
1.7058,0.4057,39.0600,75,93,271308
1.7155,0.4057,39.1600,75,93,271312
1.7351,0.4057,39.0600,75,93,271315
1.7204,0.4057,39.1200,75,93,271319
1.7644,0.4203,38.8700,75,93,271323
1.7449,0.4106,39.0600,75,93,271326
1.7302,0.4057,39.1900,75,93,271329
1.7400,0.4106,39.0900,75,93,271333
1.7400,0.4106,39.1200,75,93,271336
1.7986,0.4252,39.0000,75,93,271339
1.7644,0.4154,39.0900,75,93,271342
1.7546,0.4057,39.0900,75,93,271346
1.7546,0.4057,39.1600,75,93,271349
1.7595,0.4545,39.1200,75,93,271352
1.8084,0.4154,38.9600,75,93,271356
1.7791,0.4057,38.9600,75,93,271360
1.7889,0.4203,39.0600,75,93,271363
1.8084,0.4057,39.0900,75,93,271367
1.7840,0.4057,39.1200,75,93,271370
1.8182,0.4154,39.0300,75,93,271373
1.8035,0.4106,39.0900,75,93,271376
1.8231,0.4203,39.0000,75,93,271380
1.8084,0.4057,39.1200,75,93,271383
1.8182,0.4057,39.0900,75,93,271386
1.8524,0.4106,39.0300,75,93,271390
1.8426,0.4057,39.1200,75,93,271393
1.8671,0.4106,39.0600,75,93,271396
1.8475,0.4057,39.1200,75,93,271400
1.8475,0.4057,39.0900,75,93,271404
1.8719,0.4448,39.0300,75,93,271407
1.8622,0.4057,39.1200,75,93,271410
1.9110,0.4154,38.9000,75,93,271414
1.8915,0.4106,39.0000,75,93,271417
1.8915,0.4106,39.1200,75,93,271420
1.9110,0.4154,39.0300,75,93,271424
1.9013,0.4057,39.1600,75,93,271427
1.9599,0.4203,38.8700,75,93,271430
1.9257,0.4008,39.0600,75,93,271434
1.9501,0.4057,39.1200,75,93,271437
1.9306,0.4106,39.0900,75,93,271440
1.9208,0.4057,39.0600,75,93,271443
1.9697,0.4497,38.9000,75,93,271448
1.9355,0.4106,39.0300,75,93,271451
1.9208,0.4057,39.0900,75,93,271454
1.9257,0.4106,39.1600,75,93,271458
1.9208,0.4057,39.0000,75,93,271461
1.9599,0.4252,39.0000,75,93,271464
1.9257,0.4203,39.1200,75,93,271468
1.9159,0.4057,39.0300,75,93,271471
1.9013,0.4057,39.1200,75,93,271474
1.8866,0.4057,39.1200,75,93,271478
1.9306,0.4154,39.0300,75,93,271481
1.9159,0.4106,39.0900,75,93,271484
1.9257,0.3861,38.9600,75,93,271488
1.9013,0.4057,39.1200,75,93,271492
1.8915,0.4057,39.1200,75,93,271495
1.9062,0.4154,38.9600,75,93,271498
1.8719,0.4106,39.1200,75,93,271502
1.8964,0.4106,39.0000,75,93,271505
1.8671,0.4057,39.1200,75,93,271508
1.8622,0.4057,39.1200,75,93,271512
1.8719,0.4106,39.0300,75,93,271515
1.8475,0.4057,39.0600,75,93,271518
1.8671,0.4203,38.8700,75,93,271521
1.8231,0.4057,39.1600,75,93,271525
1.8231,0.4057,39.0600,75,93,271528
1.8719,0.4154,39.0300,75,93,271532
1.8133,0.4057,39.0900,75,93,271536
1.8524,0.4203,38.8700,75,93,271539
1.8280,0.4203,39.0300,75,93,271542
1.7986,0.4057,39.1200,75,93,271546
1.8035,0.4106,39.0900,75,93,271549
1.7889,0.4057,39.1200,75,93,271552
1.8426,0.4252,38.8700,75,93,271556
1.8084,0.4106,39.0600,75,93,271559
1.7986,0.4057,39.0900,75,93,271562
1.8035,0.4057,39.1600,75,93,271565
1.8035,0.4008,39.1200,75,93,271569
1.8622,0.4252,38.9600,75,93,271572
1.8231,0.4252,39.0600,75,93,271576
1.8231,0.4106,39.0000,75,93,271580
1.8084,0.4057,39.1600,75,93,271583
1.8084,0.4057,39.1200,75,93,271586
1.8328,0.4154,39.0600,75,93,271590
1.8182,0.4106,39.0900,75,93,271593
1.8377,0.4106,39.0000,75,93,271596
1.8231,0.4057,39.1200,75,93,271600
1.8280,0.4106,39.1200,75,93,271603
1.8622,0.4057,39.0000,75,93,271606
1.8377,0.4057,39.0300,75,93,271609
1.8622,0.4252,39.0000,75,93,271613
1.8622,0.4057,39.0600,75,93,271617
1.8328,0.4057,39.1200,75,93,271620
1.8622,0.4106,39.0300,75,93,271624
1.8426,0.3861,39.1200,75,93,271627
1.8768,0.4154,38.9300,75,93,271630
1.8573,0.4057,39.0600,75,93,271634
1.8475,0.4057,39.1200,75,93,271637
1.8622,0.4350,39.0600,75,93,271640
1.8475,0.4154,39.1200,75,93,271643
1.8915,0.4203,38.8700,75,93,271647
1.8524,0.4154,39.0900,75,93,271650
1.8475,0.4057,39.1600,75,93,271653
1.8671,0.4154,39.0900,75,93,271657
1.8475,0.4057,39.1200,75,93,271661
1.8964,0.4252,38.9600,75,93,271664
1.8866,0.4154,39.0600,75,93,271668
1.8426,0.4057,39.0900,75,93,271671
1.8377,0.4106,39.1200,75,93,271674
1.8475,0.4106,39.1200,75,93,271678
1.8817,0.4203,39.0000,75,93,271681
1.8817,0.4154,39.0900,75,93,271684
1.8622,0.4057,39.0000,75,93,271687
1.8475,0.4057,39.1200,75,93,271691
1.8377,0.4057,39.1600,75,93,271694
1.8622,0.4154,39.0000,75,93,271697
1.8475,0.4057,39.1900,75,93,271702
1.8671,0.4203,38.9600,75,93,271705
1.8475,0.4057,39.1600,75,93,271708
1.8475,0.4154,39.1900,75,93,271713
1.8671,0.4057,39.1200,75,93,271716
1.8915,0.4497,39.0600,75,93,271720
1.8817,0.4057,39.1200,75,93,271723
1.9257,0.4497,38.8700,75,93,271726
1.9013,0.4057,39.0300,75,93,271730
1.8768,0.4057,39.4100,75,93,271733
1.8915,0.4057,39.0900,75,93,271736
1.8768,0.4057,39.1200,75,93,271739
1.9257,0.4252,38.8700,75,93,271744
1.8866,0.4106,39.0600,75,93,271747
1.8671,0.4057,39.1600,75,93,271750
1.8622,0.4106,39.1200,75,93,271754
1.8426,0.4057,39.1600,75,93,271757
1.8817,0.4154,39.0000,75,93,271760
1.8573,0.4106,39.1200,75,93,271764
1.8524,0.4106,39.0300,75,93,271767
1.8377,0.4057,39.1600,75,93,271770
1.8377,0.4057,39.1900,75,93,271774
1.8524,0.4154,39.0600,75,93,271777
1.8377,0.4106,39.1200,75,93,271780
1.8524,0.4154,39.0000,75,93,271783
1.8328,0.4106,39.1900,75,93,271788
1.8377,0.4057,39.1200,75,93,271791
1.8671,0.4154,39.0000,75,93,271794
1.8426,0.3861,39.1600,75,93,271798
1.8524,0.4106,38.9300,75,93,271801
1.8426,0.4106,39.0600,75,93,271804
1.8280,0.4057,39.1200,75,93,271808
1.8524,0.4154,39.0600,75,93,271811
1.8524,0.4057,39.1200,75,93,271814
1.8964,0.4154,38.9000,75,93,271818
1.8768,0.4399,39.0300,75,93,271821
1.8817,0.4057,39.1200,75,93,271824
1.9110,0.4106,39.0900,75,93,271827
1.8964,0.4057,39.1900,75,93,271832
1.9550,0.4203,38.8400,75,93,271835
1.9257,0.4057,39.0600,75,93,271838
1.9306,0.4008,39.0900,75,93,271842
1.9550,0.4106,39.1600,75,93,271845
1.9648,0.4057,39.1200,75,93,271848
2.0283,0.4545,38.9300,75,93,271852
2.0039,0.4057,39.0900,75,93,271855
2.0039,0.4057,39.0300,75,93,271858
1.9746,0.4057,39.1900,75,93,271861
1.9599,0.4106,39.1200,75,93,271865
1.9892,0.4154,38.9300,75,93,271868
1.9404,0.4154,39.0900,75,93,271872
1.9306,0.4106,39.0000,75,93,271876
1.8964,0.3861,39.1200,75,93,271879
1.8817,0.4057,38.8700,75,93,271882
1.9013,0.4106,39.0000,75,93,271886
1.8719,0.4057,39.1200,75,93,271889
1.8866,0.4154,39.0900,75,93,271892
1.8573,0.4301,39.1600,75,93,271895
1.8426,0.4057,39.1200,75,93,271899
1.8328,0.4106,39.0000,75,93,271902
1.8035,0.4350,39.1600,75,93,271905
1.8084,0.4106,39.0000,75,93,271909
1.7693,0.4057,39.1200,75,93,271912
1.7498,0.4106,39.1200,75,93,271916
1.7546,0.4154,39.0300,75,93,271920
1.7155,0.4399,39.0900,75,93,271923
1.7498,0.4154,38.9000,75,93,271926
1.7155,0.4154,39.0300,75,93,271930
1.7009,0.4057,39.1200,75,93,271933
1.7058,0.4057,39.0900,75,93,271936
1.7009,0.4057,39.0900,75,93,271939
1.7400,0.4203,38.8700,75,93,271943
1.7155,0.4106,39.0600,75,93,271946
1.7204,0.4057,39.1200,75,93,271949
1.7302,0.4106,39.1200,75,93,271953
1.7204,0.4057,39.1200,75,93,271956
1.7791,0.4252,38.9300,75,93,271960
1.7302,0.4203,39.0600,75,93,271964
1.7302,0.4057,39.0600,75,93,271967
1.7351,0.4057,39.0900,75,93,271970
1.7351,0.4350,39.1200,75,93,271973
1.7693,0.4203,39.0300,75,93,271977
1.7449,0.4106,38.9600,75,93,271980
1.7498,0.4057,39.0300,75,93,271983
1.7400,0.4057,39.1200,75,93,271987
1.7449,0.4008,39.0900,75,93,271990
1.7791,0.4154,39.0000,75,93,271993
1.7546,0.4106,39.0900,75,93,271997
1.7693,0.4203,39.0000,75,93,272001
1.7449,0.4057,39.1200,75,93,272004
1.7498,0.4057,39.1600,75,93,272008
1.8231,0.4106,39.0300,75,93,272011
1.8768,0.4057,39.1200,75,93,272014
1.9648,0.4106,38.9600,75,93,272017
2.0332,0.4106,39.0900,75,93,272021
2.1652,0.4057,39.1200,75,93,272024
2.3314,0.4106,39.0900,75,93,272027
2.4585,0.4106,39.1200,75,93,272031
2.6588,0.4154,38.9300,75,93,272034
2.7224,0.4057,39.1600,75,93,272037
2.7322,0.4106,39.1600,75,93,272041
2.5709,0.4106,39.0900,75,93,272045
2.3069,0.4008,39.1600,75,93,272048
2.0870,0.4154,38.8700,75,93,272051
1.8035,0.4154,39.0300,75,93,272055
1.6276,0.4057,38.6500,75,93,272058
1.5591,0.4057,39.1200,75,93,272061
1.5494,0.4057,39.1200,75,93,272065
1.6373,0.4350,39.0000,75,93,272068
1.6520,0.4106,39.0900,75,93,272071
1.6764,0.4057,39.0600,75,93,272075
1.6813,0.4057,38.6800,75,93,272078
1.6716,0.4154,39.1900,75,93,272081
1.6960,0.4154,38.4900,75,93,272086
1.6618,0.4399,39.0900,75,93,272089
1.6716,0.4106,39.0300,75,93,272092
1.6569,0.4057,39.1900,75,93,272095
1.6520,0.4154,39.1200,75,93,272099
1.6569,0.4154,39.0900,75,93,272102
1.6422,0.4106,39.0900,75,93,272105
1.6520,0.4203,39.0000,75,93,272109
1.6276,0.4057,39.1200,75,93,272112
1.6276,0.4057,39.0300,75,93,272115
1.6716,0.4106,39.0300,75,93,272119
1.6373,0.4057,39.1200,75,93,272122
1.6520,0.4106,38.9600,75,93,272125
1.6373,0.4106,39.0300,75,93,272129
1.6325,0.4057,39.1200,75,93,272133
1.6471,0.4106,39.0600,75,93,272136
1.6325,0.4106,39.1200,75,93,272139
1.6667,0.4154,38.9000,75,93,272143
1.6471,0.4057,39.0900,75,93,272146
1.6471,0.4057,39.1600,75,93,272149
1.6764,0.4350,39.0900,75,93,272153
1.6667,0.4106,39.1200,75,93,272156
1.7204,0.4203,38.8700,75,93,272159
1.6813,0.4057,39.0600,75,93,272163
1.6764,0.4106,39.1200,75,93,272166
1.6862,0.4106,39.1200,75,93,272169
1.6764,0.4106,39.1200,75,93,272173
1.7302,0.4252,38.9300,75,93,272177
1.6862,0.4106,39.0900,75,93,272180
1.6764,0.4154,39.0900,75,93,272183
1.6764,0.4057,39.1600,75,93,272187
1.6813,0.4106,39.1200,75,93,272190
1.7302,0.4154,38.9600,75,93,272193
1.7107,0.4057,39.1200,75,93,272197
1.7253,0.4106,39.0000,75,93,272200
1.7155,0.4057,39.1200,75,93,272203
1.7155,0.4057,39.2200,75,93,272207
1.7840,0.4057,39.0300,75,93,272210
1.7400,0.3861,39.1600,75,93,272214
1.7693,0.4154,39.0300,75,93,272217
1.7791,0.4057,39.1900,75,93,272221
1.8280,0.4057,39.1200,75,93,272224
1.8866,0.4203,39.0300,75,93,272227
1.9110,0.4057,39.1900,75,93,272231
1.9648,0.4106,38.9600,75,93,272234
1.9844,0.4154,39.1200,75,93,272237
1.9648,0.4057,38.4600,75,93,272241
1.9844,0.4154,39.0900,75,93,272244
1.9697,0.4057,39.1200,75,93,272247
2.0186,0.4154,38.9000,75,93,272251
2.0137,0.4057,39.0600,75,93,272254
1.9746,0.4057,39.1200,75,93,272258
1.9844,0.4154,39.1200,75,93,272261
1.9746,0.4057,39.1200,75,93,272265
2.0235,0.4154,38.8100,75,93,272268
1.9844,0.4106,39.0300,75,93,272271
1.9697,0.4008,39.0900,75,93,272275
1.9697,0.4057,39.2200,75,93,272278
1.9501,0.4057,39.1200,75,93,272281
1.9844,0.4057,39.0000,75,93,272285
1.9453,0.4106,39.0000,75,93,272288
1.9306,0.4106,39.0300,75,93,272291
1.9453,0.4106,39.1900,75,93,272294
1.9110,0.4057,39.2800,75,93,272299
1.9257,0.4203,39.0000,75,93,272302
1.8866,0.4057,39.0900,75,93,272305
1.8915,0.3861,39.0000,75,93,272309
1.8573,0.4057,39.1600,75,93,272312
1.8524,0.4057,39.1200,75,93,272315
1.8671,0.4203,39.0000,75,93,272319
1.7937,0.4106,39.0600,75,93,272323
1.7742,0.4057,39.1600,75,93,272327
1.8084,0.4203,38.9000,75,93,272330
1.7937,0.4106,39.0900,75,93,272333
1.7791,0.4057,39.1200,75,93,272336
1.7840,0.4154,39.0900,75,93,272340
1.7546,0.4154,39.0900,75,93,272344
1.7889,0.4203,38.9300,75,93,272347
1.7449,0.4057,39.0900,75,93,272351
1.7302,0.4057,39.1200,75,93,272354
1.7351,0.4106,39.0900,75,93,272357
1.7204,0.4106,39.1200,75,93,272361
1.7693,0.4252,38.9300,75,93,272364
1.7302,0.4154,39.0300,75,93,272367
1.7058,0.4106,39.0600,75,93,272371
1.6960,0.4057,39.1200,75,93,272374
1.6764,0.4057,39.0600,75,93,272377
1.7204,0.4203,38.9600,75,93,272380
1.6764,0.4106,39.0900,75,93,272385
1.6862,0.4106,38.8100,75,93,272388
1.6716,0.4057,39.1200,75,93,272391
1.6716,0.4057,39.1200,75,93,272395
1.6960,0.4252,39.0600,75,93,272398
1.7107,0.4106,39.1200,75,93,272401
1.7009,0.4154,39.0000,75,93,272405
1.6764,0.4057,39.2800,75,93,272408
1.6764,0.4154,39.1200,75,93,272411
1.6764,0.4106,39.0600,75,93,272414
1.6764,0.4057,39.1900,75,93,272418
1.6960,0.4106,39.0000,75,93,272421
1.6764,0.4057,39.1200,75,93,272424
1.6716,0.4057,39.2800,75,93,272429
1.7155,0.4154,39.0000,75,93,272432
1.6667,0.4057,39.2500,75,93,272435
1.6862,0.4301,38.9300,75,93,272439
1.6618,0.4106,39.0300,75,93,272442
1.6471,0.4057,39.1200,75,93,272445
1.6618,0.4106,39.1200,75,93,272449
1.6569,0.4057,39.1200,75,93,272452
1.7009,0.4203,38.8400,75,93,272455
1.6716,0.4057,39.0600,75,93,272458
1.6520,0.4057,39.1200,75,93,272462
1.6569,0.4106,39.0300,75,93,272465
1.6471,0.4106,39.1900,75,93,272468
1.6813,0.4252,38.9300,75,93,272473
1.6569,0.4057,39.0900,75,93,272476
1.6325,0.4057,39.0600,75,93,272479
1.6373,0.4057,39.1600,75,93,272483
1.6422,0.4057,39.1200,75,93,272486
1.6716,0.4203,39.0900,75,93,272489
1.6471,0.4057,39.1200,75,93,272492
1.6618,0.4057,39.0000,75,93,272496
1.6422,0.4057,39.1900,75,93,272499
1.6422,0.4008,39.0900,75,93,272502
1.6862,0.4203,38.9600,75,93,272506
1.6373,0.4057,39.1200,75,93,272509
1.6569,0.4106,39.0600,75,93,272513
1.6325,0.4057,39.1900,75,93,272517
1.6227,0.4057,39.0900,75,93,272520
1.6325,0.4154,39.0300,75,93,272523
1.6129,0.3861,39.1200,75,93,272527
1.6227,0.4106,39.0600,75,93,272530
1.6325,0.4057,39.0900,75,93,272533
1.6080,0.4057,39.1200,75,93,272536
1.6227,0.4154,39.0600,75,93,272540
1.6129,0.4057,39.1200,75,93,272543
1.6373,0.4154,38.9300,75,93,272546
1.5982,0.4008,39.1200,75,93,272550
1.5885,0.4057,39.1200,75,93,272553
1.6129,0.4350,39.0300,75,93,272557
1.6080,0.4057,39.1200,75,93,272561
1.6569,0.4203,38.2700,75,93,272564
1.6325,0.4154,39.0300,75,93,272567
1.6129,0.4008,39.1200,75,93,272571
1.6080,0.4301,39.1200,75,93,272574
1.5982,0.4057,39.0900,75,93,272577
1.6325,0.4252,38.9300,75,93,272580
1.5885,0.4106,39.0900,75,93,272584
1.6178,0.4106,39.0600,75,93,272587
1.5836,0.4057,39.1200,75,93,272590
1.5787,0.4203,39.1600,75,93,272594
1.6080,0.4154,39.0300,75,93,272598
1.5836,0.4057,39.0900,75,93,272601
1.5934,0.4106,39.0600,75,93,272605
1.5787,0.4057,39.0900,75,93,272608
1.5787,0.4057,39.1200,75,93,272611
1.5885,0.4154,39.0900,75,93,272614
1.5787,0.4154,39.1200,75,93,272618
1.5982,0.4154,39.0300,75,93,272621
1.5787,0.4106,39.1200,75,93,272624
1.5836,0.4057,39.1200,75,93,272628
1.5982,0.4154,39.0600,75,93,272631
1.6031,0.4057,39.1200,75,93,272634
1.6325,0.4106,39.0300,75,93,272638
1.6276,0.4154,39.0300,75,93,272642
1.6227,0.4057,39.1600,75,93,272645
1.6422,0.4106,39.0600,75,93,272649
1.6227,0.4057,39.1200,75,93,272652
1.6716,0.4203,38.9000,75,93,272655
1.6618,0.4057,39.0900,75,93,272658
1.6813,0.4106,39.1200,75,93,272662
1.6862,0.4106,39.0900,75,93,272665
1.6764,0.4057,39.0000,75,93,272668
1.7155,0.4448,38.8400,75,93,272672
1.6813,0.4057,39.0600,75,93,272675
1.6618,0.4008,39.0900,75,93,272678
1.6569,0.4106,39.0900,75,93,272683
1.6373,0.4057,39.1600,75,93,272686
1.6667,0.4497,38.9300,75,93,272689
1.6569,0.4203,39.0600,75,93,272692
1.6178,0.4057,39.0600,75,93,272696
1.5982,0.4057,39.1200,75,93,272699
1.5885,0.4057,39.1600,75,93,272702
1.5982,0.4154,39.0300,75,93,272706
1.5689,0.4106,39.1200,75,93,272709
1.5640,0.4057,39.0000,75,93,272712
1.5347,0.4057,39.1200,75,93,272716
1.5152,0.4057,39.1600,75,93,272719
1.5249,0.4154,39.0600,75,93,272722
1.4907,0.4057,39.1200,75,93,272727
1.4907,0.4497,39.0300,75,93,272730
1.4712,0.4057,39.1200,75,93,272733
1.4321,0.4057,39.1200,75,93,272736
1.4272,0.4057,39.0300,75,93,272740
1.4027,0.4057,39.1200,75,93,272743
1.4076,0.4106,39.0000,75,93,272746
1.3881,0.3959,39.1600,75,93,272750
1.3832,0.4057,39.0900,75,93,272753
1.3978,0.4497,39.0600,75,93,272756
1.3832,0.4057,39.1200,75,93,272760
1.4174,0.4154,38.9000,75,93,272763
1.4370,0.4106,39.0300,75,93,272766
1.4027,0.3861,39.1200,75,93,272770
1.4027,0.4203,39.0600,75,93,272774
1.3930,0.4154,39.1900,75,93,272777
1.4321,0.4203,38.8400,75,93,272780
1.4027,0.4154,39.0300,75,93,272784
1.3978,0.3861,39.0900,75,93,272787
1.4027,0.4057,39.2200,75,93,272790
1.4027,0.4399,39.1600,75,93,272794
1.4516,0.4252,39.0000,75,93,272797
1.4370,0.4106,39.0900,75,93,272800
1.4370,0.4106,39.0300,75,93,272804
1.4418,0.4106,39.1200,75,93,272807
1.4418,0.4154,39.1200,75,93,272811
1.4614,0.4154,39.0600,75,93,272814
1.4418,0.4057,39.1200,75,93,272818
1.4418,0.4106,39.0000,75,93,272821
1.4418,0.4057,39.1200,75,93,272824
1.4858,0.4057,39.1600,75,93,272828
1.5934,0.4154,39.0000,75,93,272831
1.6569,0.4057,38.9600,75,93,272834
1.8231,0.4203,39.0300,75,93,272838
1.9941,0.4106,39.0900,75,93,272841
2.2043,0.4057,39.1200,75,93,272844
2.4047,0.4497,39.0300,75,93,272848
2.5464,0.4106,39.1900,75,93,272851
2.5904,0.4106,38.9600,75,93,272855
2.4438,0.4106,39.0300,75,93,272858
2.2092,0.4057,39.0900,75,93,272862
1.9453,0.4057,39.0300,75,93,272865
1.6422,0.3861,39.1200,75,93,272868
1.4370,0.4154,38.9000,75,93,272872
1.2659,0.4008,39.1200,75,93,272875
1.2023,0.4057,39.2200,75,93,272878
1.2023,0.4106,39.1200,75,93,272882
1.2317,0.4057,39.1200,75,93,272885
1.2952,0.4350,38.8700,75,93,272888
1.3148,0.4106,39.0900,75,93,272891
1.2854,0.4008,39.1200,75,93,272896
1.2903,0.4008,39.0900,75,93,272899
1.2805,0.4008,39.1600,75,93,272902
1.3196,0.4252,38.9300,75,93,272906
1.2805,0.4203,39.0600,75,93,272909
1.2708,0.4154,39.0300,75,93,272912
1.2708,0.4057,39.1200,75,93,272916
1.2561,0.4057,39.0900,75,93,272919
1.2757,0.4252,39.0000,75,93,272922
1.2610,0.4106,39.1200,75,93,272925
1.2659,0.4106,39.0000,75,93,272929
1.2659,0.4350,39.1200,74,93,272932
1.2903,0.3959,39.1200,74,93,272937
1.2952,0.4057,39.1200,74,93,272941
1.3343,0.4106,39.0000,74,93,272944
1.3392,0.4057,39.1200,74,93,272948
1.3587,0.4154,38.9000,74,93,272951
1.3441,0.4203,39.0000,74,93,272954
1.3245,0.4057,39.1200,74,93,272958
1.3343,0.4106,39.0900,74,93,272961
1.3294,0.4057,39.1600,74,93,272964
1.3685,0.4203,38.8700,74,93,272968
1.3441,0.4057,39.0900,74,93,272971
1.3392,0.4154,39.1200,74,93,272974
1.3490,0.3861,39.1900,74,93,272977
1.3392,0.4057,39.2200,74,93,272982
1.4027,0.4252,38.9300,74,93,272985
1.3636,0.4106,39.1200,74,93,272988
1.3587,0.4106,39.0300,74,93,272992
1.3587,0.4057,39.1200,74,93,272995
1.3539,0.4057,39.1900,74,93,272998
1.3734,0.4154,39.0300,74,93,273002
1.3539,0.4057,39.1200,74,93,273005
1.3734,0.4154,39.0000,74,93,273008
1.3587,0.4057,39.2200,74,93,273012
1.3539,0.4106,39.1200,74,93,273015
1.3783,0.4203,39.0000,74,93,273018
1.3636,0.4154,39.1200,74,93,273021
1.3978,0.4106,39.0300,74,93,273026
1.3832,0.4008,39.3200,74,93,273029
1.3930,0.4350,39.1200,74,93,273032
1.4125,0.4106,39.0600,74,93,273036
1.4027,0.4057,39.1200,74,93,273039
1.4223,0.4106,38.9600,74,93,273042
1.4076,0.4057,38.9600,74,93,273046
1.4125,0.4057,39.1200,74,93,273049
1.4321,0.4203,39.0600,74,93,273052
1.4223,0.4057,39.1200,74,93,273055
1.4565,0.4154,38.9000,74,93,273059
1.4223,0.3959,39.0900,74,93,273062
1.4076,0.4057,39.1200,74,93,273065
1.4125,0.4106,39.1900,74,93,273070
1.3930,0.4057,39.1200,74,93,273073
1.4370,0.4203,38.8700,74,93,273076
1.4076,0.4154,39.0300,74,93,273080
1.4125,0.4008,39.0900,74,93,273083
1.3930,0.4057,39.0300,74,93,273086
1.3881,0.4545,39.1200,74,93,273090
1.4272,0.4203,38.9600,74,93,273093
1.3832,0.4154,39.0900,74,93,273096
1.3734,0.4106,39.0600,74,93,273099
1.3685,0.4057,39.1200,74,93,273103
1.3587,0.4057,39.1600,74,93,273106
1.3783,0.4154,39.0300,74,93,273110
1.3539,0.4057,39.1200,74,93,273114
1.3587,0.4057,39.0000,74,93,273117
1.3294,0.4057,39.1200,74,93,273120
1.3245,0.4057,39.1900,74,93,273124
1.3343,0.4057,39.0600,74,93,273127
1.3245,0.4057,39.1600,74,93,273130
1.3490,0.4106,39.0300,74,93,273134
1.3050,0.4057,39.1200,74,93,273137
1.3050,0.4057,39.1200,74,93,273140
1.3294,0.4154,39.0000,74,93,273143
1.3099,0.4057,39.1600,74,93,273147
1.3099,0.4106,38.8700,74,93,273150
1.2854,0.4057,39.0000,74,93,273154
1.2757,0.3861,39.1900,74,93,273158
1.2854,0.4106,39.0600,74,93,273161
1.2708,0.4057,39.1200,74,93,273164
1.2903,0.4154,38.8700,74,93,273168
1.2659,0.4106,39.0600,74,93,273171
1.2414,0.4057,39.1200,74,93,273174
1.2463,0.4106,39.0300,74,93,273177
1.2366,0.4057,39.1200,74,93,273181
1.2757,0.4252,38.9000,74,93,273184
1.2414,0.4057,39.0300,74,93,273187
1.2317,0.4057,39.0600,74,93,273191
1.2463,0.4057,39.1200,74,93,273195
1.2708,0.4057,39.1200,74,93,273198
1.2659,0.4203,39.0000,74,93,273202
1.2366,0.4106,39.0300,74,93,273205
1.2268,0.4154,39.0600,74,93,273208
1.2268,0.4057,39.1600,74,93,273212
1.2219,0.4057,39.1600,74,93,273215
1.2561,0.4154,38.9600,74,93,273218
1.2317,0.4350,39.1200,74,93,273222
1.2414,0.4106,39.0300,74,93,273225
1.2317,0.4057,39.1900,74,93,273228
1.2170,0.4154,39.0900,74,93,273231
1.2219,0.4106,39.0300,74,93,273235
1.2121,0.4057,39.0600,74,93,273239
1.2268,0.4252,39.0000,74,93,273242
1.2023,0.4008,39.0900,74,93,273246
1.2121,0.3861,39.1200,74,93,273249
1.2317,0.4106,39.0300,74,93,273252
1.2268,0.4106,39.1900,74,93,273256
1.2414,0.4106,38.9300,74,93,273259
1.2219,0.4106,39.1200,74,93,273262
1.2219,0.4057,39.1200,74,93,273265
1.2414,0.4154,39.0000,74,93,273269
1.2219,0.4106,39.1200,74,93,273272
1.2512,0.4154,38.9000,74,93,273275
1.2317,0.4106,39.1600,74,93,273280
1.2219,0.4008,39.1900,74,93,273283
1.2317,0.4057,39.0900,74,93,273286
1.2366,0.4057,39.2500,74,93,273290
1.2757,0.4301,38.9300,74,93,273293
1.2512,0.4106,39.0900,74,93,273296
1.2414,0.4008,39.0300,74,93,273299
1.2463,0.4106,39.1200,74,93,273303
1.2414,0.4057,39.1600,74,93,273306
1.2757,0.4203,39.0000,74,93,273309
1.2854,0.4106,39.0600,74,93,273313
1.2512,0.4057,39.0300,74,93,273316
1.2366,0.4057,39.1200,74,93,273319
1.2317,0.4008,39.1200,74,93,273324
1.2561,0.4154,39.0900,74,93,273327
1.2512,0.4057,39.1200,74,93,273330
1.2659,0.4106,39.0000,74,93,273334
1.2512,0.4057,39.1200,74,93,273337
1.2512,0.4008,39.1900,74,93,273340
1.2757,0.4154,39.0000,74,93,273343
1.2610,0.4057,39.1200,74,93,273347
1.2757,0.4106,39.0000,74,93,273350
1.2561,0.4057,39.0600,74,93,273353
1.2561,0.4057,39.1200,74,93,273357
1.2659,0.4106,39.0900,74,93,273360
1.2561,0.3861,39.1200,74,93,273363
1.2757,0.4106,38.9000,74,93,273368
1.2708,0.4057,39.0900,74,93,273371
1.2610,0.4057,39.1200,74,93,273374
1.2757,0.4106,39.0900,74,93,273377
1.2561,0.4154,39.1200,74,93,273381
1.2903,0.4154,38.8700,74,93,273384
1.2708,0.4008,39.0600,74,93,273387
1.2854,0.3959,39.1200,74,93,273391
1.2854,0.4057,39.0900,74,93,273394
1.2757,0.4154,39.0900,74,93,273397
1.3148,0.4252,38.9300,74,93,273401
1.2854,0.4106,39.0900,74,93,273404
1.2854,0.4008,39.0300,74,93,273408
1.2903,0.4057,39.1200,74,93,273412
1.2854,0.4057,39.2200,74,93,273415
1.3245,0.4106,38.9600,74,93,273418
1.3099,0.4106,39.0000,74,93,273421
1.3148,0.4106,39.0300,74,93,273425
1.3050,0.4106,39.1200,74,93,273428
1.3099,0.4106,39.1600,74,93,273431
1.3245,0.4154,39.0000,74,93,273435
1.3050,0.4057,39.0900,74,93,273438
1.3294,0.4106,38.9600,74,93,273441
1.3196,0.4057,39.1200,74,93,273445
1.3392,0.4008,39.1200,74,93,273448
1.3685,0.3861,39.0600,74,93,273452
1.3832,0.4057,39.1600,74,93,273455
1.4174,0.4154,39.0000,74,93,273459
1.4076,0.4057,39.1200,74,93,273462
1.4223,0.4399,39.1200,74,93,273465
1.4565,0.4154,39.0300,74,93,273469
1.4614,0.4106,39.1600,74,93,273472
1.5103,0.4154,38.9300,74,93,273475
1.5054,0.4106,39.0300,74,93,273479
1.5005,0.4106,39.1200,74,93,273482
1.5249,0.4057,39.0900,74,93,273485
1.5200,0.4057,39.1600,74,93,273489
1.5640,0.4203,38.8400,74,93,273492
1.5445,0.4057,39.0600,74,93,273496
1.5396,0.4057,39.1200,74,93,273499
1.5494,0.4057,39.1200,74,93,273503
1.5445,0.4008,39.1200,74,93,273506
1.5885,0.4252,38.9000,74,93,273509
1.5591,0.4154,39.0600,74,93,273513
1.5494,0.4057,39.0600,74,93,273516
1.5396,0.4057,39.0600,74,93,273519
1.5591,0.3959,39.1200,74,93,273523
1.5494,0.4203,39.2800,74,93,273526
1.5200,0.4350,39.0900,74,93,273529
1.5200,0.4154,39.0600,74,93,273532
1.5005,0.4057,39.1600,74,93,273537
1.4809,0.4057,39.2200,74,93,273540
1.4809,0.4154,38.9600,74,93,273543
1.4663,0.4057,39.0600,74,93,273547
1.4370,0.4057,39.1200,74,93,273550
1.4809,0.4106,38.9000,74,93,273554
1.4809,0.4008,39.0600,74,93,273557
1.5005,0.3959,39.1200,74,93,273560
1.5103,0.3861,39.0600,74,93,273564
1.4956,0.4106,39.1600,74,93,273567
1.5249,0.4106,38.9000,74,93,273570
1.4907,0.4008,39.0600,74,93,273574
1.4858,0.4057,39.1600,74,93,273577
1.4956,0.4106,39.1200,74,93,273581
1.4907,0.4057,39.1200,74,93,273584
1.5347,0.4252,38.8700,74,93,273588
1.5152,0.4106,39.0300,74,93,273591
1.5054,0.4008,38.8100,74,93,273594
1.5152,0.4106,39.1200,74,93,273598
1.5152,0.4057,39.0900,74,93,273601
1.5543,0.4106,38.9300,74,93,273604
1.5200,0.4057,39.0900,74,93,273608
1.5200,0.4057,39.1200,74,93,273611
1.5054,0.4154,39.0900,74,93,273614
1.4907,0.4008,39.1200,74,93,273617
1.5298,0.4154,39.0300,74,93,273622
1.5689,0.4057,39.0900,74,93,273625
1.6569,0.4057,39.0000,74,93,273628
1.7449,0.4057,39.0900,74,93,273632
1.8817,0.4057,39.1600,74,93,273635
2.0919,0.4106,39.0600,74,93,273638
2.3118,0.4106,39.1200,74,93,273642
2.5220,0.4154,39.0300,74,93,273645
2.6588,0.4399,39.1200,74,93,273648
2.7370,0.3959,39.1200,74,93,273651
2.6882,0.4154,39.0300,74,93,273655
2.4389,0.4057,39.1200,74,93,273658
2.1652,0.4106,38.9300,74,93,273661
1.8182,0.4057,39.0000,74,93,273666
1.5396,0.4252,39.1200,74,93,273669
1.3734,0.4106,39.0900,74,93,273672
1.2757,0.4057,39.1200,74,93,273676
1.2757,0.4154,38.9000,74,93,273679
1.2805,0.4057,39.0900,74,93,273682
1.3050,0.4057,39.1600,74,93,273686
1.3734,0.4106,39.0600,74,93,273689
1.3490,0.4057,39.1200,74,93,273692
1.3930,0.4203,38.8700,74,93,273695
1.3930,0.4106,39.0600,74,93,273699
1.3587,0.4008,39.0900,74,93,273702
1.3636,0.4057,39.0900,74,93,273705
1.3587,0.4057,39.1200,74,93,273710
1.3930,0.4252,38.9300,74,93,273713
1.3783,0.4106,39.0600,74,93,273716
1.3881,0.4106,39.0300,74,93,273720
1.4027,0.4057,39.0300,74,93,273723
1.4272,0.4057,39.1200,74,93,273726
1.4907,0.4154,38.9600,74,93,273729
1.5005,0.4106,39.1200,74,93,273733
1.5445,0.4154,39.0000,74,93,273736
1.5396,0.4057,39.1200,74,93,273739
1.5543,0.4057,39.1600,74,93,273743
1.5787,0.4106,39.0300,74,93,273746
1.5640,0.4057,39.0900,74,93,273750
1.5836,0.4106,39.0000,74,93,273754
1.5640,0.3959,39.1200,74,93,273757
1.5494,0.4057,39.1600,74,93,273760
1.5885,0.4203,39.0600,74,93,273764
1.5396,0.4106,39.1200,74,93,273767
1.5494,0.4106,38.9600,74,93,273770
1.5249,0.3959,39.1200,74,93,273773
1.5249,0.4057,39.1200,74,93,273777
1.5347,0.4399,39.0900,74,93,273780
1.5152,0.4057,39.1200,74,93,273783
1.5445,0.4154,38.9600,74,93,273787
1.5200,0.4106,39.0600,74,93,273790
1.5054,0.4057,39.1600,74,93,273794
1.5005,0.4057,39.1200,74,93,273798
1.4858,0.4008,39.1900,74,93,273801
1.5200,0.4203,38.8700,74,93,273804
1.4809,0.4057,39.0900,74,93,273808
1.4663,0.4008,39.0900,74,93,273811
1.4712,0.4057,39.0900,74,93,273814
1.4516,0.4057,39.1200,74,93,273817
1.4761,0.4643,39.0600,74,93,273821
1.4467,0.4106,39.0900,74,93,273824
1.4321,0.4057,39.0000,74,93,273827
1.4272,0.4057,39.1200,74,93,273831
1.4223,0.4057,39.1600,74,93,273835
1.4418,0.4154,39.0600,74,93,273838
1.4321,0.4106,39.0900,74,93,273842
1.4223,0.4057,39.0000,74,93,273845
1.4027,0.4057,39.0300,74,93,273848
1.4027,0.4057,39.1200,74,93,273851
1.4272,0.4057,39.0000,74,93,273855
1.4027,0.4057,38.4600,74,93,273858
1.4272,0.4203,39.0600,74,93,273861
1.3978,0.3959,39.0900,74,93,273865
1.3930,0.4057,39.1200,74,93,273868
1.4076,0.4203,39.0300,74,93,273871
1.4027,0.4057,39.1200,74,93,273875
1.4174,0.4057,38.9300,74,93,273879
1.4027,0.4203,39.0600,74,93,273882
1.4174,0.3959,39.1200,74,93,273885
1.4076,0.4154,39.0300,74,93,273889
1.3881,0.4154,39.0900,74,93,273892
1.4321,0.4203,38.9000,74,93,273895
1.3734,0.4008,39.0600,74,93,273899
1.3587,0.4252,39.0900,74,93,273902
1.3636,0.4057,39.0600,74,93,273905
1.3441,0.4057,39.0600,74,93,273909
1.3783,0.4203,38.8400,74,93,273912
1.3587,0.4106,39.0600,74,93,273915
1.3392,0.4008,39.1200,74,93,273918
1.3392,0.4057,39.1200,74,93,273923
1.3392,0.4057,39.1900,74,93,273926
1.3783,0.4154,38.9300,74,93,273929
1.3441,0.4057,39.0900,74,93,273933
1.3441,0.4057,39.0600,74,93,273936
1.3587,0.4008,39.1200,74,93,273939
1.3294,0.4057,39.1200,74,93,273943
1.3539,0.4154,39.0300,74,93,273946
1.3539,0.4057,39.1200,74,93,273949
1.3587,0.4106,39.0300,74,93,273953
1.3490,0.4106,39.1200,74,93,273956
1.3490,0.4057,39.1200,74,93,273959
1.3539,0.4057,39.0900,74,93,273963
1.3392,0.4057,39.1200,74,93,273967
1.3636,0.4203,39.0300,74,93,273970
1.3392,0.4057,39.1200,74,93,273973
1.3441,0.3959,39.1200,74,93,273977
1.3636,0.4106,38.4600,74,93,273980
1.3685,0.4057,39.1600,74,93,273983
1.3832,0.4106,38.9300,74,93,273987
1.3685,0.4154,39.0000,74,93,273990
1.3685,0.3959,39.1200,74,93,273993
1.3734,0.4448,39.1600,74,93,273997
1.3587,0.4106,39.1200,74,93,274000
1.3978,0.4154,38.9000,74,93,274003
1.3734,0.4106,39.0600,74,93,274008
1.3685,0.3861,39.1200,74,93,274011
1.3783,0.4057,39.1200,74,93,274014
1.3832,0.4057,39.1900,74,93,274017
1.4174,0.4252,38.9300,74,93,274021
1.4174,0.4057,39.0600,74,93,274024
1.3783,0.4008,39.0600,74,93,274027
1.3881,0.4057,39.1200,74,93,274031
1.3930,0.4106,39.1900,74,93,274034
1.4321,0.4203,39.0000,74,93,274037
1.4174,0.4106,39.0900,74,93,274041
1.4370,0.4057,39.0300,74,93,274044
1.4076,0.4154,39.1600,74,93,274048
1.4370,0.4057,39.1200,74,93,274052
1.4321,0.4154,38.9600,74,93,274055
1.4174,0.4057,39.1200,74,93,274058
1.4370,0.4154,39.0300,74,93,274061
1.4223,0.4008,39.0900,74,93,274065
1.4174,0.4057,39.1900,74,93,274068
1.4418,0.4106,39.0300,74,93,274071
1.4516,0.4106,39.1900,74,93,274075
1.4614,0.4106,38.9600,74,93,274078
1.4467,0.4008,39.0900,74,93,274081
1.4516,0.4057,39.1200,74,93,274085
1.4467,0.4106,39.0600,74,93,274088
1.4272,0.4203,39.1600,74,93,274092
1.4565,0.4154,38.9000,74,93,274096
1.4223,0.4057,39.1200,74,93,274099
1.4174,0.4057,39.1200,74,93,274102
1.4370,0.4106,39.0000,74,93,274105
1.4321,0.3959,39.1200,74,93,274109
1.4663,0.4203,38.8400,74,93,274112
1.4467,0.4154,39.0600,74,93,274115
1.4272,0.4008,39.1200,74,93,274119
1.4370,0.4057,39.0300,74,93,274122
1.4321,0.4008,39.1200,74,93,274125
1.4712,0.4203,38.9600,74,93,274129
1.4516,0.4106,39.0900,74,93,274132
1.4663,0.4106,39.0300,74,93,274136
1.4418,0.4057,39.1600,74,93,274140
1.4467,0.4057,39.2500,74,93,274143
1.4663,0.4106,39.0000,74,93,274146
1.4418,0.4057,39.1200,74,93,274149
1.4516,0.4106,39.0300,74,93,274153
1.4418,0.4057,39.0900,73,93,274156
1.4467,0.4057,39.1200,73,93,274160
1.4614,0.4057,39.1200,73,93,274163
1.4858,0.4448,39.0300,73,93,274166
1.4809,0.4057,39.1200,73,93,274170
1.5103,0.4154,39.0000,73,93,274173
1.4956,0.4594,39.0300,73,93,274177
1.4761,0.4057,39.1200,73,93,274181
1.4907,0.4057,39.0900,73,93,274184
1.4761,0.4106,39.1200,73,93,274187
1.5054,0.4057,38.9300,73,93,274190
1.4858,0.4057,39.0600,73,93,274194
1.4761,0.4008,39.0900,73,93,274197
1.4858,0.4106,39.1900,73,93,274200
1.4858,0.4057,39.1900,73,93,274204
1.5249,0.4252,38.9000,73,93,274207
1.4956,0.4057,39.0600,73,93,274210
1.4858,0.4057,39.0900,73,93,274214
1.4858,0.4057,39.1600,73,93,274217
1.4858,0.4057,39.0900,73,93,274221
1.5005,0.4154,39.0900,73,93,274225
1.4858,0.4057,39.0900,73,93,274228
1.4907,0.4350,39.0600,73,93,274231
1.4809,0.4057,39.1600,73,93,274234
1.4858,0.4057,39.1200,73,93,274238
1.5543,0.4154,38.9600,73,93,274241
1.5152,0.4008,39.1200,73,93,274244
1.5494,0.4154,39.0300,73,93,274248
1.5347,0.4008,39.0900,73,93,274251
1.5396,0.4057,39.1600,73,93,274254
1.5591,0.4057,39.0600,73,93,274258
1.5640,0.4057,39.2200,73,93,274262
1.5885,0.4106,39.1600,73,93,274265
1.5836,0.4057,39.0600,73,93,274268
1.5836,0.4057,39.1900,73,93,274272
1.6080,0.4106,39.0300,73,93,274275
1.5787,0.4057,39.1200,73,93,274278
1.6080,0.4154,38.9000,73,93,274282
1.5689,0.4008,39.1200,73,93,274285
1.5543,0.4106,39.0900,73,93,274288
1.5494,0.4154,39.0900,73,93,274292
1.5249,0.4106,39.1900,73,93,274295
1.5640,0.4203,38.8700,73,93,274298
1.5347,0.4106,39.0900,73,93,274301
1.5200,0.4057,39.1200,73,93,274306
1.5103,0.4057,39.1200,73,93,274309
1.4956,0.4057,39.0900,73,93,274312
1.5347,0.4545,38.9300,73,93,274316
1.4907,0.4106,39.0900,73,93,274319
1.4663,0.4057,39.0300,73,93,274322
1.4516,0.4106,39.0900,73,93,274326
1.4321,0.4057,39.1200,73,93,274329
1.4467,0.4154,39.0000,73,93,274332
1.4516,0.4057,39.0900,73,93,274336
1.4125,0.4106,39.0300,73,93,274339
1.3978,0.4057,38.7100,73,93,274342
1.3881,0.3959,39.1200,73,93,274345
1.4027,0.4106,39.0900,73,93,274350
1.3930,0.4106,39.1200,73,93,274353
1.4076,0.4106,39.0300,73,93,274356
1.3930,0.4057,39.1600,73,93,274360
1.3978,0.4008,39.1200,73,93,274363
1.4272,0.4203,39.0300,73,93,274366
1.4027,0.4057,39.0900,73,93,274370
1.4321,0.4448,39.0600,73,93,274373
1.4272,0.4057,39.0600,73,93,274376
1.4418,0.4057,39.1200,73,93,274379
1.4761,0.4106,39.0600,73,93,274383
1.4663,0.4057,39.1200,73,93,274386
1.4956,0.4154,38.9300,73,93,274390
1.4761,0.4106,39.0900,73,93,274394
1.4761,0.4057,39.1200,73,93,274397
1.4907,0.4203,39.0900,73,93,274400
1.4761,0.4057,39.1600,73,93,274404
1.5103,0.4154,38.8400,73,93,274407
1.4761,0.4057,39.0600,73,93,274410
1.4614,0.3861,39.1200,73,93,274414
1.4809,0.4057,39.1200,73,93,274417
1.4858,0.4057,39.1200,73,93,274420
1.5396,0.4252,38.9300,73,93,274423
1.5934,0.4057,39.0900,73,93,274427
1.6080,0.4057,39.0300,73,93,274430
1.6764,0.4106,39.1200,73,93,274434
1.7889,0.3959,39.1600,73,93,274438
1.9550,0.4154,38.3300,73,93,274441
2.1163,0.4057,39.1200,73,93,274444
2.3021,0.3861,39.0000,73,93,274448
2.4633,0.4057,39.0900,73,93,274451
2.6100,0.4057,39.0900,73,93,274454
2.6784,0.4057,39.0300,73,93,274458
2.5171,0.4057,39.1200,73,93,274461
2.3021,0.4154,38.4300,73,93,274464
2.0088,0.3959,39.1600,73,93,274467
1.6960,0.4057,39.1200,73,93,274471
1.5005,0.4008,39.0300,73,93,274475
1.3783,0.4106,39.1900,73,93,274478
1.3685,0.4106,38.9300,73,93,274482
1.3685,0.4008,39.1200,73,93,274485
1.4076,0.4057,39.1200,73,93,274488
1.4614,0.4106,39.0600,73,93,274492
1.4907,0.4057,39.1200,73,93,274495
1.5005,0.4154,38.8700,73,93,274498
1.5005,0.4106,39.0600,73,93,274501
1.4907,0.4057,39.2200,73,93,274505
1.5054,0.3861,39.1200,73,93,274508
1.5005,0.4057,39.1600,73,93,274511
1.5396,0.4399,38.8700,73,93,274515
1.5054,0.4057,39.0600,73,93,274519
1.4907,0.4008,39.0900,73,93,274522
1.4907,0.4154,39.0600,73,93,274526
1.4858,0.4106,39.1200,73,93,274529
1.5298,0.4252,38.9300,73,93,274532
1.5054,0.4448,39.0900,73,93,274535
1.5054,0.3959,39.0600,73,93,274539
1.5103,0.4057,39.1200,73,93,274542
1.5152,0.4252,39.1600,73,93,274545
1.5543,0.4154,39.0300,73,93,274549
1.5396,0.4545,39.0900,73,93,274552
1.5543,0.4057,39.0000,73,93,274555
1.5494,0.4057,39.0300,73,93,274560
1.5543,0.4448,39.1200,73,93,274563
1.5885,0.4154,38.9600,73,93,274566
1.5689,0.4008,39.1200,73,93,274570
1.5982,0.4106,39.0000,73,93,274573
1.5836,0.3861,39.0900,73,93,274576
1.5934,0.4057,39.1200,73,93,274579
1.6227,0.4106,39.0600,73,93,274583
1.6129,0.4057,39.1200,73,93,274586
1.6373,0.4203,38.9300,73,93,274589
1.6276,0.4057,39.0900,73,93,274593
1.6325,0.4057,39.1900,73,93,274596
1.6520,0.4154,39.0600,73,93,274599
1.6471,0.4057,39.1600,73,93,274604
1.6911,0.4154,38.9000,73,93,274607
1.6618,0.4008,39.0900,73,93,274610
1.6667,0.4057,39.1200,73,93,274614
1.6862,0.4106,39.1200,73,93,274617
1.6862,0.4057,39.1200,73,93,274620
1.7400,0.4203,38.8700,73,93,274623
1.7204,0.4106,39.0600,73,93,274627
1.7204,0.4057,39.0900,73,93,274630
1.7302,0.4057,39.0900,73,93,274633
1.7253,0.4057,39.0900,73,93,274637
1.7791,0.4252,38.9300,73,93,274640
1.7498,0.4106,39.0000,73,93,274643
1.7498,0.4008,39.1200,73,93,274648
1.7449,0.4106,39.1200,73,93,274651
1.7546,0.4057,39.1200,73,93,274654
1.7937,0.4154,39.0000,73,93,274657
1.8182,0.4057,39.1200,73,93,274661
1.8133,0.4106,39.0000,73,93,274664
1.8084,0.4057,39.0300,73,93,274667
1.8475,0.4057,39.1200,73,93,274671
1.8426,0.4106,39.1200,73,93,274674
1.8426,0.4106,39.1900,73,93,274677
1.8719,0.4154,39.0300,73,93,274681
1.8475,0.4057,39.1200,73,93,274684
1.8377,0.4106,39.1200,73,93,274688
1.8573,0.4154,39.1200,73,93,274692
1.8426,0.4057,39.1200,73,93,274695
1.8671,0.4106,38.9600,73,93,274698
1.8524,0.4106,39.0300,73,93,274701
1.8524,0.4057,39.1600,73,93,274705
1.8622,0.4106,39.1200,73,93,274708
1.8475,0.4057,39.1200,73,93,274711
1.8915,0.4154,38.9300,73,93,274715
1.8622,0.4057,39.0600,73,93,274718
1.8524,0.4057,39.1200,73,93,274721
1.8671,0.4057,39.1200,73,93,274725
1.8768,0.4057,39.1200,73,93,274728
1.9013,0.4252,38.9600,73,93,274732
1.8573,0.4057,39.0300,73,93,274736
1.8426,0.4008,39.0900,73,93,274739
1.8475,0.4106,39.0900,73,93,274742
1.8475,0.4057,39.1600,73,93,274745
1.8964,0.4203,39.0000,73,93,274749
1.8671,0.4106,39.0900,73,93,274752
1.8622,0.4106,39.0300,73,93,274755
1.8475,0.4057,39.1200,73,93,274759
1.8377,0.4203,39.1600,73,93,274762
1.8671,0.4154,38.9600,73,93,274765
1.8426,0.4106,39.0600,73,93,274769
1.8280,0.4057,39.2200,73,93,274772
1.8524,0.4203,38.9300,73,93,274777
1.8377,0.4057,39.0600,73,93,274780
1.8328,0.4057,39.1200,73,93,274783
1.8573,0.4106,39.0600,73,93,274787
1.8426,0.4057,39.1900,73,93,274790
1.8866,0.4545,38.8700,73,93,274793
1.8475,0.3861,39.0900,73,93,274796
1.8475,0.4057,39.0900,73,93,274800
1.8671,0.4154,39.1200,73,93,274803
1.8622,0.4057,39.0900,73,93,274806
1.9159,0.4350,38.8700,73,93,274810
1.8915,0.4057,39.0300,73,93,274813
1.8671,0.4008,39.0900,73,93,274817
1.8719,0.4008,39.1200,73,93,274821
1.8768,0.4008,39.1200,73,93,274824
1.9110,0.3861,38.9300,73,93,274827
1.8866,0.4106,39.0900,73,93,274831
1.9159,0.4057,39.0300,73,93,274834
1.8817,0.4057,39.1200,73,93,274837
1.8817,0.4106,39.1200,73,93,274840
1.9110,0.3861,39.0000,73,93,274844
1.8915,0.4057,39.1200,73,93,274847
1.9110,0.4154,38.9600,73,93,274850
1.8964,0.3861,39.1200,73,93,274854
1.9013,0.4008,39.1200,73,93,274857
1.9355,0.4106,39.0600,73,93,274861
1.9110,0.4057,39.1200,73,93,274865
1.9404,0.4057,39.0300,73,93,274868
1.9110,0.4057,39.1200,73,93,274871
1.9013,0.4057,39.1200,73,93,274874
1.9355,0.4154,39.0000,73,93,274878
1.9110,0.4057,39.1200,73,93,274881
1.9404,0.4106,38.3000,73,93,274884
1.9208,0.4301,39.0900,73,93,274888
1.9208,0.4057,39.1200,73,93,274891
1.9110,0.4106,39.0900,73,93,274894
1.9208,0.4154,39.1900,73,93,274898
1.9453,0.4154,38.9300,73,93,274902
1.9159,0.4106,39.0600,73,93,274905
1.9062,0.4057,39.1600,73,93,274909
1.9208,0.4057,39.1600,73,93,274912
1.9062,0.4057,39.1200,73,93,274915
1.9697,0.4252,38.8700,73,93,274918
1.9355,0.4106,39.0300,73,93,274922
1.9404,0.3959,39.0600,73,93,274925
1.9355,0.4057,39.1200,73,93,274928
1.9306,0.4057,39.1600,73,93,274932
1.9746,0.4154,39.0000,73,93,274935
1.9404,0.4057,39.0900,73,93,274938
1.9355,0.4057,39.0300,73,93,274942
1.9257,0.4057,39.1200,73,93,274946
1.9208,0.4057,39.0300,73,93,274949
1.9550,0.4154,39.0000,73,93,274952
1.9355,0.3861,39.1200,73,93,274956
1.9501,0.4106,39.0000,73,93,274959
1.9257,0.4057,39.1200,73,93,274962
1.9208,0.4057,39.1200,73,93,274966
1.9501,0.4106,39.0300,73,93,274969
1.9257,0.4106,39.1200,73,93,274972
1.9550,0.3861,39.0300,73,93,274976
1.9257,0.4008,39.0900,73,93,274979
1.9306,0.4008,39.1900,73,93,274982
1.9501,0.4057,39.0300,73,93,274987
1.9306,0.4057,39.1600,73,93,274990
1.9550,0.4448,38.9300,73,93,274993
1.9208,0.4057,39.1200,73,93,274996
1.9208,0.4057,39.0900,73,93,275000
1.9453,0.4154,39.0300,73,93,275003
1.9306,0.4057,39.0300,73,93,275006
1.9746,0.4203,38.9000,73,93,275010
1.9501,0.4057,39.0300,73,93,275013
1.9306,0.4057,39.1600,73,93,275016
1.9746,0.4057,39.0900,73,93,275020
1.9453,0.3861,39.1200,73,93,275023
2.0039,0.4594,38.8700,73,93,275026
1.9648,0.4106,39.0600,73,93,275031
1.9501,0.4057,39.0900,73,93,275034
1.9501,0.4057,39.1200,73,93,275037
1.9404,0.4057,39.1600,73,93,275040
1.9892,0.4154,38.9000,73,93,275044
1.9746,0.4106,39.1200,73,93,275047
1.9844,0.4057,39.0300,73,93,275050
1.9892,0.4057,39.1600,73,93,275054
2.0088,0.4057,39.1200,73,93,275057
2.0332,0.4154,39.0600,73,93,275060
2.0332,0.4057,39.0900,73,93,275064
2.0674,0.4106,39.0300,73,93,275067
2.0577,0.3959,39.1200,73,93,275070
2.0674,0.4057,39.1200,73,93,275074
2.1065,0.4154,39.0300,73,93,275078
2.0821,0.4057,39.0900,73,93,275081
2.1114,0.4057,39.0300,73,93,275084
2.0674,0.4008,39.1200,73,93,275088
2.0528,0.4057,39.0600,73,93,275091
2.0674,0.4057,39.0600,73,93,275094
2.0137,0.4057,39.1200,73,93,275098
2.0283,0.4106,38.6800,73,93,275101
1.9990,0.4106,39.1200,73,93,275104
1.9892,0.4057,39.1200,73,93,275107
1.9990,0.4154,39.0600,73,93,275111
1.9697,0.4057,39.1600,73,93,275115
2.0039,0.4203,38.9000,73,93,275118
1.9453,0.4008,39.0900,73,93,275122
1.9306,0.4057,39.1200,73,93,275125
1.9306,0.4106,39.0900,73,93,275128
1.9062,0.4057,39.1200,73,93,275132
1.9404,0.4203,38.8700,73,93,275135
1.8915,0.4154,39.0300,73,93,275138
1.8573,0.3861,39.0900,73,93,275141
1.8475,0.4008,39.1900,73,93,275145
1.8328,0.4057,39.1200,73,93,275148
1.8719,0.4203,38.7700,73,93,275151
1.8426,0.4057,39.0900,73,93,275155
1.8280,0.4057,39.0300,73,93,275159
1.8182,0.4106,39.1200,73,93,275162
1.8182,0.3861,39.1200,73,93,275166
1.8475,0.4057,39.0000,73,93,275169
1.8377,0.4057,39.0900,73,93,275172
1.8475,0.4106,38.9600,73,93,275176
1.8328,0.4399,39.1200,73,93,275179
1.8377,0.4057,39.1200,73,93,275182
1.8524,0.4252,39.0300,73,93,275185
1.8475,0.4057,39.1200,73,93,275189
1.8719,0.4057,38.9600,73,93,275192
1.8475,0.4057,39.1600,73,93,275195
1.8475,0.4057,39.2500,73,93,275200
1.8719,0.4154,39.0000,73,93,275203
1.8524,0.4057,39.1200,73,93,275206
1.8817,0.4106,38.9000,73,93,275210
1.8671,0.4154,39.0300,73,93,275213
1.8573,0.4057,39.1200,73,93,275216
1.8622,0.4154,39.0900,73,93,275220
1.8377,0.4057,39.1200,73,93,275223
1.8671,0.4203,38.9000,73,93,275226
1.8622,0.4106,39.0600,73,93,275229
1.8719,0.3861,39.1200,73,93,275233
1.9355,0.4057,39.1200,73,93,275236
1.9990,0.4008,39.1900,73,93,275239
2.1554,0.4252,38.9000,73,93,275244
2.2483,0.4399,39.0600,73,93,275247
2.3949,0.4008,39.0600,73,93,275250
2.5513,0.4106,39.1200,73,93,275254
2.7224,0.4057,39.1200,73,93,275257
2.8983,0.4252,38.9600,73,93,275260
2.8543,0.4057,39.1200,73,93,275263
2.7126,0.4106,39.0600,73,93,275267
2.4389,0.4057,39.1200,73,93,275270
2.1554,0.4057,39.1200,73,93,275273
1.9306,0.4154,38.9300,73,93,275277
1.7302,0.4057,39.1200,73,93,275280
1.6520,0.4106,38.9600,73,93,275283
1.6129,0.4252,39.1200,73,93,275288
1.6373,0.4057,39.1200,73,93,275291
1.7058,0.4154,39.0600,73,93,275294
1.7107,0.4106,39.1200,73,93,275298
1.7546,0.4106,38.9600,73,93,275301
1.7400,0.4057,39.0900,73,93,275304
1.7546,0.3959,39.1600,73,93,275307
1.7498,0.4106,39.0300,73,93,275311
1.7253,0.4399,39.1200,73,93,275314
1.7498,0.4106,38.9300,73,93,275317
1.7107,0.4008,39.1200,73,93,275321
1.7058,0.4057,39.1600,73,93,275324
1.7204,0.4106,39.0900,73,93,275328
1.7155,0.4252,39.1200,73,93,275332
1.7595,0.4203,38.8700,73,93,275335
1.7351,0.4106,39.0900,73,93,275338
1.7204,0.4008,39.1900,73,93,275342
1.7253,0.3861,39.1200,73,93,275345
1.7204,0.4057,39.1200,73,93,275348
1.7986,0.4252,38.9300,73,93,275351
1.7449,0.4203,39.0900,73,93,275355
1.7400,0.4106,39.0900,73,93,275358
1.7498,0.4154,39.0900,73,93,275361
1.7400,0.3861,39.1600,73,93,275365
1.7791,0.4154,39.0000,73,93,275368
1.7546,0.4154,39.0900,73,93,275372
1.7693,0.4106,39.0600,73,93,275376
1.7644,0.4057,39.0900,73,93,275379
1.7937,0.4057,39.1200,73,93,275383
1.8035,0.4154,39.1200,73,93,275386
1.8377,0.4106,39.0300,73,93,275389
1.8280,0.4008,39.1200,73,93,275393
1.8671,0.4154,38.9600,73,93,275396
1.8475,0.4057,39.0300,73,93,275399
1.8328,0.4008,39.1200,73,93,275402
1.8475,0.4106,39.0900,73,93,275406
1.8328,0.4057,39.1600,73,93,275409
1.8915,0.4301,38.8700,73,93,275412
1.8426,0.4057,39.1200,73,93,275417
1.8328,0.4057,39.1200,73,93,275420
1.8426,0.4057,39.0900,73,93,275423
1.8328,0.4057,39.1200,73,93,275427
1.8915,0.4252,38.9000,73,93,275430
1.8573,0.3861,39.0600,73,93,275433
1.8524,0.4008,39.0600,73,93,275436
1.8622,0.4057,39.1200,73,93,275440
1.8719,0.4057,39.1200,73,93,275443
1.9159,0.4448,39.0600,73,93,275446
1.9110,0.4057,39.0900,73,93,275450
1.9062,0.3861,39.0300,73,93,275453
1.8866,0.4252,39.1200,73,93,275457
1.8866,0.4057,39.1200,73,93,275461
1.9208,0.4154,38.9600,73,93,275464
1.8964,0.4057,39.1200,73,93,275467
1.9208,0.4154,39.0300,73,93,275471
1.9013,0.4252,39.1900,73,93,275474
1.9013,0.4057,39.1200,73,93,275477
1.9550,0.4106,39.0600,73,93,275480
1.9159,0.4057,39.1200,73,93,275484
1.9306,0.3861,38.9600,73,93,275487
1.9159,0.4106,39.0900,73,93,275490
1.9404,0.4106,39.1600,73,93,275494
1.9208,0.4106,39.0600,73,93,275497
1.8964,0.4399,39.1200,73,93,275501
1.9257,0.4154,38.9000,73,93,275505
1.8866,0.4008,39.0900,73,93,275508
1.8866,0.4057,39.1200,73,93,275511
1.9013,0.4154,39.0600,73,93,275514
1.8671,0.4057,39.0900,73,93,275518
1.8964,0.4252,38.8700,73,93,275521
1.8622,0.4106,39.0600,73,93,275524
1.8426,0.4008,39.1600,73,93,275528
1.8524,0.4057,39.1200,73,93,275531
1.8475,0.4057,39.1200,73,93,275534
1.9013,0.4154,38.9600,73,93,275538
1.8524,0.4106,39.0900,73,93,275542
1.8377,0.4057,39.0000,73,93,275545
1.8231,0.4008,39.1200,73,93,275549
1.8084,0.4057,39.1200,73,93,275552
1.8328,0.4154,38.8700,73,93,275555
1.7986,0.4106,39.0900,73,93,275558
1.8280,0.4057,39.0300,73,93,275562
1.7791,0.4057,39.0900,73,93,275565
1.7742,0.4203,39.1200,73,93,275568
1.8231,0.4057,39.0900,73,93,275572
1.7791,0.4057,39.1200,73,93,275575
1.7937,0.4252,39.0000,73,93,275578
1.7693,0.4057,39.1200,73,93,275582
1.7644,0.4057,39.0900,73,93,275586
1.7937,0.4106,39.0000,73,93,275589
1.7742,0.4057,39.1200,73,93,275593
1.7986,0.4106,38.9300,73,93,275596
1.7986,0.4057,39.0600,73,93,275599
1.7693,0.4057,39.1200,73,93,275602
1.7791,0.4106,39.0600,73,93,275606
1.7644,0.4057,39.1200,73,93,275609
1.8035,0.4154,38.9000,73,93,275612
1.7889,0.4106,39.0600,73,93,275616
1.7937,0.4057,39.1200,73,93,275619
1.8133,0.4106,39.0900,73,93,275622
1.8231,0.4106,39.1200,73,93,275627
1.8426,0.4203,38.8700,73,93,275630
1.7986,0.4106,39.0600,73,93,275633
1.7986,0.4008,39.1200,73,93,275636
1.8084,0.4057,39.1900,73,93,275640
1.8035,0.4106,39.1600,73,93,275643
1.8622,0.4252,38.9300,73,93,275646
1.8280,0.4154,39.0600,73,93,275650
1.8133,0.4106,39.0600,73,93,275653
1.8084,0.4057,39.1200,73,93,275656
1.8231,0.4106,39.1200,73,93,275660
1.8328,0.4154,38.9600,73,93,275663
1.8182,0.4057,39.0900,73,93,275666
1.8328,0.4106,39.0000,73,93,275671
1.8182,0.4057,39.0900,73,93,275674
1.8133,0.4106,39.1900,73,93,275677
1.8426,0.4154,39.0900,73,93,275680
1.8231,0.4106,39.0900,73,93,275684
1.8475,0.4203,39.0300,73,93,275687
1.8328,0.4057,39.1200,73,93,275690
1.8328,0.4106,39.1200,73,93,275694
1.8377,0.4057,39.0600,73,93,275697
1.8280,0.4057,39.1900,73,93,275700
1.8426,0.4154,38.9600,73,93,275704
1.8182,0.4057,39.1600,73,93,275707
1.8133,0.4008,39.1200,73,93,275710
1.8377,0.4154,39.0900,73,93,275715
1.8231,0.4301,39.1200,73,93,275718
1.8671,0.4154,38.9000,73,93,275721
1.8377,0.4106,39.0600,73,93,275724
1.8182,0.4301,39.1200,73,93,275728
1.8328,0.4057,39.0900,73,93,275731
1.8231,0.4057,39.1600,73,93,275734
1.9110,0.4154,38.8700,73,93,275738
1.8377,0.4057,39.2500,73,93,275741
1.8231,0.4008,39.0900,73,93,275744
1.8280,0.4057,39.1600,73,93,275748
1.8280,0.4057,39.1600,73,93,275751
1.8719,0.4154,38.9600,73,93,275755
1.8475,0.4057,39.0600,73,93,275759
1.8426,0.4057,39.1600,73,93,275762
1.8280,0.4057,39.1200,73,93,275765
1.8280,0.4057,39.0900,73,93,275768
1.8475,0.4106,39.0600,73,93,275772
1.8280,0.4057,39.1200,73,93,275775
1.8426,0.4106,39.1200,73,93,275778
1.8231,0.4106,39.1200,73,93,275782
1.8231,0.4057,39.2200,73,93,275785
1.8671,0.4106,39.0000,73,93,275788
1.8426,0.4057,39.2200,73,93,275792
1.8622,0.4203,39.0000,73,93,275795
1.8377,0.4057,39.0900,73,93,275799
1.8328,0.3861,39.1200,73,93,275803
1.8475,0.4106,39.0600,73,93,275806
1.8280,0.4057,39.1600,73,93,275809
1.8622,0.4106,38.9000,73,93,275812
1.8475,0.4106,39.0900,73,93,275816
1.8280,0.4106,39.1600,73,93,275819
1.8377,0.4106,38.9300,73,93,275822
1.8182,0.4106,39.0900,73,93,275826
1.8866,0.4154,38.9000,73,93,275829
1.8231,0.4057,39.1200,73,93,275832
1.8182,0.4057,39.1600,73,93,275836
1.8377,0.4057,39.0900,73,93,275840
1.8280,0.4057,39.1200,73,93,275843
1.8866,0.4252,38.9300,73,93,275847
1.8573,0.4106,39.0600,73,93,275850
1.8573,0.4057,39.0600,73,93,275853
1.8671,0.4057,39.0900,73,93,275856
1.8719,0.4301,39.0900,73,93,275860
1.9257,0.4057,38.9600,73,93,275863
1.9159,0.4057,39.1200,73,93,275866
1.9550,0.4106,39.0000,73,93,275870
1.9355,0.4057,39.1600,73,93,275873
1.9355,0.4057,39.2500,73,93,275876
1.9746,0.4203,39.0000,73,93,275880
1.9648,0.4057,39.0900,73,93,275884
1.9892,0.4106,39.0000,73,93,275887
1.9599,0.4057,39.0900,73,93,275890
1.9453,0.4057,39.1200,73,93,275894
1.9453,0.4057,39.0600,73,93,275897
1.9159,0.4057,39.1600,73,93,275900
1.9501,0.4106,39.0000,73,93,275904
1.8915,0.4008,39.1200,73,93,275907
1.8817,0.4057,39.1200,73,93,275910
1.9013,0.4106,39.0300,73,93,275914
1.8671,0.4057,39.2800,73,93,275917
1.8768,0.4448,38.9000,73,93,275920
1.8426,0.4106,39.0300,73,93,275923
1.8084,0.4057,39.1200,73,93,275928
1.8035,0.4106,39.0600,73,93,275931
1.7791,0.4057,39.1200,73,93,275934
1.8133,0.4203,38.8700,73,93,275938
1.7742,0.4057,39.0600,73,93,275941
1.7449,0.4057,39.1200,73,93,275944
1.7400,0.4106,39.1200,73,93,275948
1.7253,0.3959,39.1200,73,93,275951
1.7546,0.4252,39.0000,73,93,275954
1.7107,0.4057,39.0600,73,93,275958
1.6960,0.4057,39.0300,73,93,275961
1.6960,0.4057,39.2800,73,93,275964
1.7009,0.4057,39.1200,73,93,275968
1.7400,0.4203,39.0000,73,93,275972
1.7204,0.4057,39.0900,73,93,275975
1.7253,0.4057,39.0000,73,93,275978
1.7155,0.4057,39.1200,73,93,275982
1.7155,0.4057,39.1200,73,93,275985
1.7498,0.4203,39.0000,73,93,275988
1.7546,0.4154,39.0600,73,93,275992
1.7595,0.3959,39.1200,73,93,275995
1.7937,0.4106,38.9300,73,93,275999
1.7840,0.4008,39.0600,73,93,276002
1.7840,0.4106,39.1200,73,93,276005
1.8084,0.4154,39.0600,73,93,276008
1.7889,0.4057,39.1600,73,93,276013
1.8231,0.4203,38.8700,73,93,276016
1.7742,0.3861,39.0900,73,93,276019
1.7840,0.4057,39.2800,73,93,276023
1.8426,0.4008,39.0900,73,93,276026
1.9062,0.3861,39.0900,73,93,276029
2.0283,0.4203,38.8100,73,93,276033
2.0968,0.4203,39.0600,73,93,276036
2.2385,0.4008,39.0900,73,93,276039
2.4389,0.4057,39.1200,73,93,276042
2.6051,0.4057,39.0900,73,93,276046
2.8152,0.4203,39.0600,73,93,276049
2.8152,0.4106,39.0600,73,93,276052
2.7322,0.4057,39.0600,73,93,276057
2.5220,0.4106,39.0900,73,93,276060
2.2678,0.4057,39.1200,73,93,276063
2.0381,0.4154,39.0000,73,93,276067
1.7791,0.4057,39.0900,73,93,276070
1.6276,0.4203,39.0300,73,93,276073
1.5298,0.4057,39.1200,73,93,276076
1.5249,0.4301,39.1900,73,93,276080
1.5689,0.4106,39.0900,73,93,276083
1.5982,0.4057,39.0300,73,93,276086
1.6422,0.4203,39.0300,73,93,276090
1.6373,0.4057,39.0600,73,93,276093
1.6373,0.4106,39.1200,73,93,276097
1.6618,0.4154,39.0600,73,93,276101
1.6373,0.4106,39.1900,73,93,276104
1.6520,0.4106,38.9600,73,93,276107
1.6276,0.4057,39.0600,73,93,276111
1.6178,0.4106,39.1200,73,93,276114
1.6325,0.4106,39.0900,73,93,276117
1.6227,0.4057,39.1200,73,93,276120
1.6667,0.4203,38.8700,73,93,276124
1.6422,0.4057,39.0600,73,93,276127
1.6276,0.4057,39.1200,73,93,276130
1.6471,0.4106,39.0900,73,93,276134
1.6422,0.4057,38.7700,73,93,276137
1.6862,0.4448,38.8700,73,93,276141
1.6618,0.4057,39.0300,73,93,276145
1.6520,0.4008,39.1200,73,93,276148
1.6569,0.4008,39.1200,73,93,276151
1.6520,0.4057,39.1900,73,93,276155
1.6911,0.4203,39.0000,73,93,276158
1.6667,0.4106,39.0900,73,93,276161
1.6716,0.4057,39.0300,73,93,276164
1.6716,0.4106,39.1200,73,93,276168
1.6813,0.4057,39.1200,73,93,276171
1.7204,0.4154,38.9600,73,93,276174
1.6960,0.4057,39.1200,73,93,276178
1.7253,0.4106,39.0000,73,93,276182
1.7107,0.4057,39.1200,73,93,276185
1.7302,0.4057,39.1200,73,93,276189
1.7449,0.4106,38.9300,73,93,276192
1.7302,0.4252,39.1200,73,93,276195
1.7644,0.4106,39.0000,73,93,276199
1.7498,0.4008,39.1600,73,93,276202
1.7498,0.4350,39.1600,73,93,276205
1.7595,0.4106,39.0600,73,93,276208
1.7351,0.4057,39.1200,73,93,276212
1.7546,0.4106,38.9300,73,93,276215
1.7351,0.3861,39.1200,73,93,276218
1.7351,0.4057,39.0900,73,93,276222
1.7644,0.4057,39.1200,73,93,276226
1.7546,0.4057,39.1600,73,93,276229
1.8084,0.4203,38.8700,73,93,276233
1.7840,0.4106,39.0600,73,93,276236
1.7791,0.4057,39.2800,73,93,276239
1.7889,0.4106,39.1200,73,93,276243
1.7889,0.4106,39.1200,73,93,276246
1.8475,0.4252,38.8700,73,93,276249
1.8133,0.4106,39.0600,73,93,276252
1.8231,0.4008,39.0600,73,93,276256
1.8377,0.4008,39.1200,73,93,276259
1.8377,0.4057,39.1200,73,93,276262
1.8817,0.4203,39.0000,73,93,276267
1.8524,0.4106,39.0900,73,93,276270
1.8475,0.4301,39.0300,73,93,276273
1.8328,0.4057,39.1200,73,93,276277
1.8280,0.4008,39.1200,73,93,276280
1.8426,0.3861,39.0600,73,93,276283
1.8231,0.4057,38.9300,73,93,276286
1.8377,0.4203,39.0000,73,93,276290
1.8231,0.4057,39.1200,73,93,276293
1.8231,0.4008,39.1200,73,93,276296
1.8719,0.4154,39.0000,73,93,276300
1.8280,0.4057,39.1200,73,93,276303
1.8426,0.4106,39.0000,73,93,276306
1.8035,0.4057,39.0600,73,93,276311
1.8035,0.4057,39.1200,73,93,276314
1.8182,0.4106,39.0600,73,93,276317
1.8084,0.4057,39.1200,73,93,276321
1.8377,0.4106,38.9300,73,93,276324
1.8133,0.4106,39.0600,73,93,276327
1.8035,0.3861,39.1200,73,93,276330
1.8133,0.4106,39.1900,73,93,276334
1.7986,0.4106,39.1600,73,93,276337
1.8377,0.4154,38.9000,73,93,276340
1.7937,0.4106,39.0600,73,93,276344
1.7889,0.4057,39.1200,73,93,276347
1.7937,0.4057,39.0300,73,93,276350
1.7889,0.4057,39.1200,73,93,276355
1.8328,0.4252,38.8700,73,93,276358
1.7986,0.4154,39.0600,73,93,276361
1.7791,0.4057,39.0900,73,93,276365
1.7742,0.4057,39.0600,73,93,276368
1.7693,0.3959,39.1600,73,93,276371
1.8035,0.4154,38.9600,73,93,276374
1.7791,0.4057,39.0900,73,93,276378
1.7840,0.4106,39.0300,73,93,276381
1.7693,0.4057,39.1600,73,93,276384
1.7742,0.3959,39.1200,73,93,276388
1.7693,0.4106,39.0600,73,93,276391
1.7498,0.4008,39.1200,73,93,276395
1.7644,0.4154,39.0600,73,93,276399
1.7546,0.4057,39.1600,73,93,276402
1.7546,0.4154,39.1200,73,93,276405
1.7644,0.4057,39.0600,73,93,276408
1.7449,0.4057,39.1200,73,93,276412
1.7693,0.4106,38.9000,73,93,276415
1.7595,0.4057,39.1200,73,93,276418
1.7546,0.4057,39.0900,73,93,276422
1.7693,0.4008,39.0300,73,93,276425
1.7351,0.3861,39.1200,73,93,276428
1.7644,0.4203,38.9000,73,93,276432
1.7400,0.4106,39.0300,73,93,276435
1.7400,0.4057,39.1200,73,93,276439
1.7449,0.4106,39.1200,73,93,276443
1.7302,0.4057,39.1200,73,93,276446
1.7791,0.4252,38.8700,73,93,276449
1.7595,0.4057,39.0600,73,93,276452
1.7498,0.3861,39.1200,73,93,276456
1.7595,0.4057,39.0900,73,93,276459
1.7546,0.4106,39.1900,73,93,276462
1.8035,0.4301,38.9300,73,93,276466
1.7693,0.4203,39.1200,73,93,276469
1.7937,0.4057,39.0600,73,93,276472
1.7546,0.4057,39.1200,73,93,276476
1.7791,0.3959,39.1200,73,93,276480
1.7742,0.4154,39.2200,73,93,276483
1.7498,0.4203,39.1900,73,93,276487
1.7546,0.3861,39.0000,73,93,276490
1.7351,0.4350,39.0900,73,93,276493
1.7302,0.4057,39.1200,73,93,276496
1.7546,0.4154,39.0000,73,93,276500
1.7302,0.4106,39.1200,73,93,276503
1.7546,0.4106,39.0300,73,93,276506
1.7253,0.4008,39.0900,73,93,276510
1.7302,0.4057,39.1600,73,93,276513
1.7449,0.4106,39.0600,73,93,276516
1.7351,0.4057,39.1600,73,93,276520
1.7546,0.4106,38.9300,73,93,276524
1.7351,0.4057,39.0900,73,93,276527
1.7302,0.4154,39.1200,73,93,276531
1.7498,0.4106,39.0900,73,93,276534
1.7351,0.4057,39.1200,73,93,276537
1.7742,0.4154,38.9000,73,93,276540
1.7302,0.4057,39.0900,73,93,276544
1.7204,0.4057,39.1600,73,93,276547
1.7253,0.4203,39.0900,73,93,276550
1.7107,0.4057,39.1200,73,93,276554
1.7546,0.4203,38.8400,73,93,276557
1.7302,0.4106,39.0300,73,93,276560
1.7009,0.3861,39.0900,73,93,276564
1.7058,0.4057,39.0900,73,93,276568
1.7058,0.3959,39.1200,73,93,276571
1.7498,0.4203,38.9300,73,93,276574
1.7155,0.4057,39.1900,73,93,276578
1.7107,0.4106,39.0300,73,93,276581
1.7009,0.4057,39.1600,73,93,276584
1.6960,0.4057,39.0600,73,93,276588
1.7253,0.4252,39.0600,73,93,276591
1.7155,0.4057,39.0900,73,93,276594
1.7302,0.4106,38.5500,73,93,276598
1.7058,0.4106,39.1600,73,93,276601
1.7253,0.4057,39.0300,73,93,276605
1.7107,0.4057,39.1200,73,93,276609
1.7400,0.4154,39.0300,73,93,276612
1.7302,0.4057,39.1200,73,93,276616
1.7595,0.4154,38.8400,73,93,276619
1.7400,0.4154,39.0300,73,93,276622
1.7253,0.4057,39.1200,73,93,276625
1.7400,0.4057,39.1200,73,93,276629
1.7351,0.4008,39.1900,73,93,276632
1.7840,0.4203,38.8400,73,93,276635
1.7546,0.4154,39.0300,73,93,276639
1.7595,0.4008,39.0900,73,93,276642
1.7693,0.4057,39.0900,73,93,276645
1.7693,0.4057,39.1200,73,93,276649
1.8280,0.4252,38.9600,73,93,276653
1.7889,0.3861,39.0900,73,93,276656
1.7889,0.4057,39.0600,73,93,276659
1.7986,0.4106,39.1200,73,93,276663
1.8133,0.4057,39.1200,73,93,276666
1.8573,0.4203,39.0300,73,93,276669
1.8768,0.4106,39.0900,73,93,276673
1.8671,0.4057,39.0300,73,93,276676
1.8475,0.4057,39.0600,73,93,276679
1.8426,0.4057,39.1200,73,93,276683
1.8768,0.4154,38.9600,73,93,276686
1.8426,0.4350,39.0900,73,93,276689
1.8475,0.4203,39.0600,73,93,276694
1.8133,0.4008,39.0900,73,93,276697
1.7986,0.4057,39.1200,73,93,276700
1.8133,0.4057,39.0300,73,93,276703
1.8035,0.4057,39.1200,73,93,276707
1.8084,0.4106,39.0000,73,93,276710
1.7742,0.4057,39.2200,73,93,276713
1.7595,0.3959,39.1200,73,93,276717
1.7595,0.4106,39.0900,73,93,276720
1.7302,0.4057,39.1200,73,93,276723
1.7400,0.4252,38.9000,73,93,276727
1.6911,0.4008,39.1200,73,93,276730
1.6716,0.4057,39.1200,73,93,276733
1.6716,0.4106,39.0600,73,93,276737
1.6471,0.4057,39.1600,73,93,276741
1.6862,0.4154,38.8400,73,93,276744
1.6422,0.4106,39.0600,73,93,276747
1.6227,0.4008,39.1200,73,93,276751
1.6325,0.4057,39.1200,73,93,276754
1.6325,0.4106,39.1600,73,93,276757
1.6862,0.4252,38.9300,73,93,276761
1.6618,0.4106,39.0900,73,93,276764
1.6618,0.4057,39.0600,73,93,276767
1.6667,0.4008,39.1200,73,93,276771
1.6667,0.4057,39.0900,73,93,276774
1.7155,0.4057,39.0300,73,93,276777
1.6764,0.4057,39.0900,73,93,276781
1.6862,0.4106,39.0600,73,93,276785
1.6716,0.4154,39.1200,73,93,276788
1.6667,0.4057,39.1600,73,93,276791
1.7009,0.4106,39.0600,73,93,276795
1.6667,0.4106,39.1200,73,93,276798
1.6960,0.4154,39.0600,73,93,276801
1.6764,0.4057,39.1200,73,93,276805
1.6911,0.4057,39.1200,73,93,276808
1.7204,0.4154,39.0300,73,93,276811
1.7107,0.4057,39.1200,73,93,276815
1.7302,0.4106,38.9000,73,93,276818
1.7107,0.4106,39.0600,73,93,276822
1.7009,0.3959,39.1900,73,93,276825
1.7449,0.4106,39.0600,73,93,276829
1.7937,0.4106,39.1200,73,93,276832
1.9159,0.4154,38.9000,73,93,276835
1.9990,0.4057,39.0900,73,93,276839
2.1408,0.4057,39.1200,73,93,276842
2.3754,0.4106,39.0900,73,93,276845
2.5660,0.4057,39.1200,73,93,276849
2.8348,0.4203,38.9000,73,93,276852
2.9130,0.4106,39.0600,73,93,276855
2.9521,0.3959,39.1200,73,93,276858
2.8055,0.4057,39.1200,73,93,276862
2.5611,0.4008,39.1200,73,93,276866
2.3314,0.4252,38.9300,73,93,276869
1.9892,0.4106,39.0300,73,93,276873
1.7449,0.4106,39.0600,73,93,276876
1.6080,0.4057,38.5500,73,93,276879
1.5591,0.4057,39.1200,73,93,276883
1.5934,0.4154,38.9600,73,93,276886
1.6080,0.4057,39.1200,73,93,276889
1.6520,0.4106,39.0000,73,93,276893
1.6520,0.4057,39.1200,73,93,276896
1.6569,0.4057,39.2500,73,93,276899
1.6862,0.4057,39.0300,73,93,276902
1.6716,0.4057,39.1200,73,93,276907
1.6911,0.4399,39.0000,73,93,276910
1.6716,0.4008,39.1200,73,93,276913
1.6618,0.4057,39.1200,73,93,276917
1.6716,0.4106,39.0600,73,93,276920
1.6716,0.4057,39.1200,73,93,276923
1.6960,0.4106,39.0000,73,93,276927
1.6862,0.3959,39.1900,73,93,276930
1.6862,0.4057,39.1600,73,93,276933
1.7058,0.4057,39.0600,73,93,276936
1.7009,0.4057,39.1200,73,93,276940
1.7449,0.4154,38.9000,73,93,276943
1.7302,0.4106,39.0600,73,93,276946
1.7449,0.4057,39.1200,73,93,276951
1.7351,0.4057,39.0000,73,93,276954
1.7302,0.4106,39.1600,73,93,276957
1.7840,0.4203,38.8700,73,93,276961
1.7644,0.4057,39.0000,73,93,276964
1.7693,0.3959,39.1200,73,93,276967
1.7840,0.4057,39.1200,73,93,276971
1.7840,0.4057,39.1200,73,93,276974
1.8426,0.4594,38.9600,73,93,276977
1.8231,0.4106,39.0900,73,93,276980
1.8182,0.4057,39.2500,73,93,276984
1.8084,0.4008,39.1600,73,93,276987
1.8035,0.4057,39.1200,73,93,276990
1.8377,0.4154,39.0300,73,93,276995
1.8182,0.4350,39.1200,73,93,276998
1.8377,0.4106,39.0000,73,93,277001
1.8328,0.4057,39.1600,73,93,277005
1.8622,0.4057,39.1200,73,93,277008
1.8768,0.4203,39.0600,73,93,277011
1.8573,0.4008,39.1200,73,93,277014
1.8866,0.4106,39.0300,73,93,277018
1.8719,0.4008,39.0900,73,93,277021
1.8768,0.4057,39.1900,73,93,277024
1.9062,0.4057,39.0600,73,93,277028
1.8964,0.4057,39.1600,73,93,277031
1.9208,0.4106,38.8700,73,93,277035
1.9159,0.4106,39.0900,73,93,277039
1.9159,0.4057,39.1200,73,93,277042
1.9501,0.4154,39.0600,73,93,277045
1.9404,0.4057,39.1600,73,93,277048
2.0039,0.4203,38.9000,73,93,277052
1.9501,0.4008,39.0900,73,93,277055
1.9550,0.4057,39.1200,73,93,277058
1.9746,0.4008,39.1200,73,93,277062
1.9795,0.3861,39.1200,73,93,277065
2.0430,0.4203,38.8400,73,93,277068
2.0186,0.4154,39.0600,73,93,277072
2.0039,0.4008,39.1200,73,93,277075
2.0088,0.4057,39.1900,73,93,277079
2.0039,0.4057,39.1200,73,93,277082
2.0674,0.4252,38.9300,73,93,277086
2.0332,0.4106,39.1200,73,93,277089
2.0283,0.4057,39.0900,73,93,277092
2.0186,0.4106,39.0900,73,93,277096
2.0088,0.4057,39.1200,73,93,277099
2.0870,0.4154,39.0000,73,93,277102
2.0235,0.4106,39.0900,73,93,277106
2.0235,0.4057,39.0300,73,93,277109
2.0039,0.4057,39.1200,73,93,277112
2.0088,0.4057,39.1200,73,93,277115
2.0283,0.4154,39.0600,73,93,277120
2.0137,0.4057,38.9600,73,93,277123
2.0332,0.4301,39.0000,73,93,277126
2.0137,0.3861,39.0900,73,93,277130
2.0088,0.4057,39.1200,73,93,277133
2.0430,0.4203,39.0300,73,93,277136
2.0186,0.4106,39.0900,73,93,277139
2.0479,0.4106,39.0000,73,93,277143
2.0186,0.4008,39.1200,73,93,277146
2.0283,0.4057,39.1200,73,93,277149
2.0479,0.4545,39.0000,73,93,277153
2.0381,0.4350,39.0900,73,93,277156
2.0674,0.4301,39.0000,73,93,277159
2.0577,0.4154,39.0900,73,93,277163
2.0674,0.4106,39.1200,73,93,277167
2.0821,0.4106,39.0000,73,93,277170
2.0577,0.4057,39.1200,73,93,277173
2.0870,0.4106,38.9300,73,93,277177
2.0577,0.4106,39.1200,73,93,277180
2.0626,0.4057,39.1600,73,93,277183
2.0919,0.4154,39.0600,73,93,277187
2.0772,0.4057,39.1200,73,93,277190
2.1212,0.4154,38.9000,73,93,277193
2.0919,0.4106,39.0600,73,93,277196
2.0674,0.4057,39.1200,73,93,277200
2.0772,0.4057,38.9600,73,93,277203
2.0674,0.4057,39.1600,73,93,277207
2.1310,0.4154,38.8700,73,93,277211
2.1163,0.4106,39.0000,73,93,277214
2.1114,0.4057,39.1200,73,93,277218
2.1359,0.4106,39.0000,73,93,277221
2.1310,0.4057,39.3500,73,93,277224
2.1408,0.4057,39.1200,73,93,277228
2.1554,0.4057,39.1200,73,93,277231
2.1408,0.4252,39.0900,73,93,277234
2.1848,0.4106,39.0300,73,93,277237
2.1163,0.4057,39.0900,73,93,277241
2.1114,0.4106,39.1200,73,93,277244
2.1408,0.4203,39.0000,73,93,277248
2.1163,0.4057,39.1600,73,93,277252
2.1408,0.4399,38.9600,73,93,277255
2.1163,0.4106,39.0900,73,93,277258
2.1114,0.4057,39.1200,73,93,277262
2.1261,0.4106,39.0600,73,93,277265
2.1114,0.4057,39.1200,73,93,277268
2.1652,0.4154,38.9600,73,93,277271
2.1457,0.4154,39.0900,73,93,277275
2.1163,0.3861,39.1200,73,93,277278
2.1212,0.4106,39.1200,73,93,277281
2.1017,0.4057,39.1200,73,93,277285
2.1554,0.4203,38.8700,73,93,277288
2.1114,0.4154,39.0300,73,93,277292
2.1017,0.4008,39.0900,73,93,277296
2.1065,0.4057,39.2500,73,93,277299
2.0968,0.4057,39.1600,73,93,277302
2.1554,0.4252,38.9600,73,93,277306
2.1212,0.4448,39.0600,73,93,277309
2.1163,0.4106,39.0900,73,93,277312
2.1065,0.4057,39.1200,73,93,277315
2.1017,0.4057,39.1600,73,93,277319
2.1701,0.4057,38.9600,73,93,277322
2.1065,0.4057,38.9600,73,93,277325
2.1212,0.4106,38.9600,73,93,277329
2.1212,0.4057,39.1200,73,93,277332
2.1017,0.4057,39.1200,73,93,277336
2.1261,0.4106,39.0600,73,93,277340
2.1017,0.4057,39.1200,73,93,277343
2.1261,0.4154,39.0300,73,93,277346
2.0968,0.4057,39.0900,73,93,277349
2.0968,0.4252,39.1200,73,93,277353
2.1163,0.4106,39.0900,73,93,277356
2.1065,0.4057,39.1200,73,93,277359
2.1310,0.4106,38.9600,73,93,277363
2.1114,0.4057,39.1200,73,93,277366
2.1065,0.4057,39.1600,73,93,277369
2.1310,0.4497,39.0000,73,93,277373
2.1114,0.3861,39.1200,73,93,277377
2.1505,0.4154,38.9300,73,93,277380
2.1261,0.4154,39.0300,73,93,277384
2.1065,0.4057,39.1200,73,93,277387
2.1114,0.4057,39.0900,73,93,277390
2.1017,0.4106,39.1200,73,93,277393
2.1554,0.4203,38.8700,73,93,277397
2.1163,0.4252,39.0300,73,93,277400
2.1114,0.3959,39.1200,73,93,277403
2.1163,0.4057,39.1200,73,93,277407
2.1065,0.4106,39.1900,73,93,277410
2.1652,0.4252,38.9300,73,93,277413
2.1212,0.4106,39.0900,73,93,277417
2.1065,0.4057,39.0300,73,93,277421
2.1017,0.4057,39.1200,73,93,277424
2.1017,0.4057,39.1200,73,93,277427
2.1359,0.4057,39.0600,73,93,277431
2.1114,0.4106,39.0900,73,93,277434
2.1261,0.4106,39.0300,73,93,277437
2.1261,0.4106,39.1200,73,93,277441
2.1163,0.3861,39.1600,73,93,277444
2.1701,0.4203,39.0000,73,93,277447
2.1603,0.4057,39.1200,73,93,277451
2.1945,0.4154,39.0300,73,93,277454
2.1652,0.4008,39.0300,73,93,277457
2.1701,0.4106,39.0900,73,93,277460
2.2092,0.4106,39.0600,73,93,277465
2.2043,0.4057,39.0900,73,93,277468
2.2434,0.4106,38.9600,73,93,277471
2.2336,0.4154,39.0600,73,93,277475
2.2385,0.3861,39.1200,73,93,277478
2.2581,0.4154,39.0600,73,93,277481
2.2483,0.4057,39.1900,73,93,277485
2.2630,0.4154,38.9000,73,93,277488
2.2043,0.4106,39.0900,73,93,277491
2.2043,0.3959,39.1200,73,93,277494
2.1945,0.3861,39.0600,73,93,277498
2.1652,0.4057,39.1200,73,93,277501
2.2092,0.4154,38.8700,73,93,277505
2.1701,0.4106,39.0300,73,93,277509
2.1457,0.4008,39.1900,73,93,277512
2.1359,0.4106,39.1600,73,93,277515
2.1114,0.4057,39.1200,73,93,277519
2.1554,0.4252,38.9300,73,93,277522
2.0968,0.4106,39.0000,73,93,277525
2.0674,0.4057,39.2500,73,93,277529
2.0528,0.4252,39.1200,73,93,277532
2.0626,0.4106,39.1200,73,93,277535
2.0626,0.4154,39.0000,73,93,277538
2.0186,0.4203,39.1200,73,93,277542
2.0137,0.4106,39.0000,73,93,277545
1.9941,0.3959,39.1200,73,93,277549
1.9844,0.4057,39.1200,73,93,277553
1.9941,0.4057,39.0900,73,93,277556
1.9844,0.4057,38.4600,73,93,277559
1.9990,0.4154,39.0300,73,93,277563
1.9746,0.4057,39.1200,73,93,277566
1.9746,0.4057,39.1200,73,93,277569
2.0137,0.4057,39.0000,73,93,277572
1.9844,0.4057,39.1600,73,93,277576
2.0039,0.4154,38.9600,73,93,277579
1.9892,0.4057,39.0900,73,93,277582
1.9795,0.4057,39.1200,73,93,277586
1.9990,0.4154,39.0000,73,93,277590
1.9795,0.4057,39.1200,73,93,277593
2.0235,0.4154,38.9300,73,93,277597
2.0039,0.4497,39.0600,73,93,277600
1.9941,0.4301,39.1200,73,93,277603
2.0039,0.4057,39.0600,73,93,277606
1.9892,0.4057,39.1200,73,93,277610
2.0332,0.4154,38.8700,73,93,277613
1.9941,0.4057,39.0600,73,93,277616
1.9844,0.4057,39.1600,73,93,277620
1.9892,0.4154,39.0900,73,93,277623
1.9746,0.4057,39.1200,73,93,277626
2.0332,0.4203,38.9000,73,93,277630
2.0381,0.4154,39.0600,73,93,277634
2.0870,0.4057,39.0300,73,93,277637
2.1505,0.4057,39.2800,73,93,277641
2.2287,0.4057,39.1200,73,93,277644
2.4145,0.4057,38.9300,73,93,277647
2.5513,0.4106,39.1600,73,93,277650
2.7370,0.4106,39.0300,73,93,277654
2.8983,0.4057,39.1600,73,93,277657
3.0450,0.4057,39.1900,73,93,277660
3.1183,0.4203,39.0000,73,93,277664
2.9570,0.4057,39.1200,73,93,277667
2.7517,0.4106,39.0000,73,93,277670
2.4291,0.4057,38.9000,73,93,277675
2.1505,0.4057,39.1600,73,93,277678
1.9501,0.3861,39.0600,73,93,277681
1.8133,0.4057,39.1200,73,93,277684
1.7937,0.4106,39.0300,73,93,277688
1.7840,0.4057,38.5200,73,93,277691
1.8182,0.4106,39.1900,73,93,277694
1.8768,0.4106,39.0600,73,93,277698
1.8768,0.4057,39.0900,73,93,277701
1.9062,0.4154,38.9000,73,93,277704
1.8866,0.4057,39.0300,73,93,277708
1.8719,0.4057,39.1600,73,93,277711
1.8719,0.4106,39.0600,73,93,277714
1.8524,0.4057,39.1200,73,93,277718
1.8915,0.4203,38.9000,73,93,277722
1.8622,0.4106,39.0600,73,93,277725
1.8475,0.4057,39.1600,73,93,277728
1.8573,0.4106,39.0900,73,93,277732
1.8768,0.4057,39.1600,73,93,277735
1.9013,0.4252,38.9000,73,93,277738
1.8622,0.4106,39.0600,73,93,277742
1.8573,0.4057,39.1200,73,93,277745
1.8573,0.4057,39.0900,73,93,277748
1.8671,0.4057,39.1600,73,93,277752
1.9013,0.4203,38.8100,73,93,277755
1.8768,0.4106,39.1200,73,93,277758
1.8915,0.4057,39.0000,73,93,277762
1.8817,0.4057,39.2800,73,93,277766
1.8817,0.4057,39.1200,73,93,277769
1.9257,0.4154,38.9600,73,93,277772
1.8964,0.4106,39.0900,73,93,277776
1.9208,0.4154,39.0000,73,93,277779
1.9013,0.4057,39.1200,73,93,277782
1.9062,0.4057,39.2200,73,93,277786
1.9453,0.4057,39.0300,73,93,277789
1.9257,0.4057,39.1200,73,93,277792
1.9501,0.4106,39.0000,73,93,277795
1.9208,0.3959,39.0900,73,93,277799
1.9306,0.4106,39.1200,73,93,277803
1.9453,0.4106,39.1900,73,93,277806
1.9355,0.4154,39.1200,73,93,277810
1.9697,0.4106,38.9300,73,93,277813
1.9501,0.4106,39.1600,73,93,277816
1.9550,0.4057,39.1600,73,93,277820
1.9746,0.4106,39.0900,73,92,277823
1.9892,0.4057,39.1200,73,92,277827
1.9941,0.4057,39.1200,73,92,277830
2.0528,0.4154,39.2800,73,92,277833
2.0235,0.4106,39.0900,73,92,277837
2.0332,0.4057,39.0300,73,92,277840
2.0235,0.4057,39.1200,73,92,277843
2.0186,0.4057,38.8100,73,92,277847
2.0479,0.4106,39.0000,73,92,277851
2.0235,0.4057,39.0900,73,92,277854
2.0577,0.4057,39.0000,73,92,277857
2.0381,0.4057,39.1200,73,92,277861
2.0430,0.4057,39.1200,73,92,277864
2.0723,0.4057,39.0600,73,92,277867
2.0430,0.4057,39.1200,73,92,277871
2.0723,0.4154,39.0300,73,92,277874
2.0430,0.4497,39.0900,73,92,277877
2.0381,0.4252,39.1600,73,92,277880
2.0723,0.4154,39.0300,73,92,277884
2.0381,0.4057,39.1200,73,92,277888
2.0577,0.4399,38.9600,73,92,277891
2.0381,0.4057,39.0600,73,92,277895
2.0283,0.4057,39.1200,73,92,277898
2.0577,0.4057,39.0600,73,92,277901
2.0137,0.4057,39.1200,73,92,277905
2.0479,0.4154,38.9300,73,92,277908
2.0137,0.4106,39.0600,73,92,277911
2.0332,0.4106,39.1200,73,92,277914
2.0186,0.4106,39.1200,73,92,277918
1.9990,0.4057,39.1200,73,92,277921
2.0430,0.4154,38.8700,73,92,277924
1.9892,0.4057,39.0600,73,92,277928
1.9795,0.4008,39.0900,73,92,277932
1.9844,0.4106,39.0900,73,92,277935
1.9746,0.4057,39.1200,73,92,277939
2.0235,0.4545,39.0000,73,92,277942
1.9795,0.4154,39.0600,73,92,277945
1.9550,0.4008,39.0300,73,92,277948
1.9599,0.4057,39.2500,73,92,277952
1.9599,0.4106,39.1200,73,92,277955
1.9990,0.4154,38.9600,73,92,277958
1.9599,0.4350,39.1200,73,92,277962
1.9892,0.4057,39.0000,73,92,277965
1.9306,0.4057,39.0900,73,92,277968
1.9208,0.4057,39.1900,73,92,277972
1.9453,0.4154,39.0000,73,92,277976
1.9208,0.4057,39.1200,73,92,277979
1.9306,0.4154,39.0000,73,92,277982
1.9062,0.4057,39.0900,73,92,277986
1.9306,0.4106,39.1200,73,92,277989
1.9208,0.4057,39.0600,73,92,277992
1.9208,0.4057,39.0000,73,92,277996
1.9453,0.4057,39.0000,73,92,277999
1.9208,0.4057,39.1200,73,92,278002
1.9257,0.4057,39.1600,73,92,278006
1.9550,0.4106,39.0300,73,92,278009
1.9306,0.4057,39.1600,73,92,278012
1.9746,0.4154,38.9000,73,92,278016
1.9990,0.4057,39.0300,73,92,278020
1.9501,0.4057,39.1200,73,92,278023
1.9648,0.4106,39.0900,73,92,278026
1.9355,0.4057,39.1200,73,92,278030
1.9892,0.4203,38.8700,73,92,278033
1.9550,0.4106,39.0600,73,92,278036
1.9550,0.4057,39.1600,73,92,278040
1.9599,0.4106,39.1200,73,92,278043
1.9501,0.4057,39.1200,73,92,278046
2.0283,0.4154,38.9000,73,92,278049
1.9648,0.4106,39.0600,73,92,278053
1.9550,0.4057,39.0900,73,92,278056
1.9990,0.4057,39.1200,73,92,278060
1.9746,0.4057,38.5800,73,92,278064
2.0137,0.4154,39.0600,73,92,278067
1.9795,0.4057,39.0600,73,92,278070
1.9746,0.4057,39.0000,73,92,278074
1.9501,0.4106,39.1600,73,92,278077
1.9501,0.4057,39.1200,73,92,278080
1.9844,0.4154,39.1200,73,92,278084
1.9599,0.4057,39.1200,73,92,278087
1.9892,0.4106,39.0000,73,92,278090
1.9697,0.4154,39.1600,73,92,278093
1.9648,0.4057,39.1200,73,92,278097
1.9795,0.4106,39.0300,73,92,278100
1.9453,0.4008,39.0900,73,92,278104
1.9648,0.4106,39.0300,73,92,278108
1.9404,0.4057,39.0900,73,92,278111
1.9404,0.4057,39.1200,73,92,278114
1.9550,0.4203,39.0300,73,92,278118
1.9355,0.4057,39.1200,73,92,278121
1.9648,0.4154,38.9300,73,92,278124
1.9257,0.4057,39.1200,73,92,278127
1.9257,0.4057,39.1900,73,92,278131
1.9501,0.4057,39.0600,73,92,278134
1.9404,0.4106,39.1200,73,92,278137
1.9892,0.4203,38.9000,73,92,278141
1.9599,0.4008,39.0300,73,92,278145
1.9355,0.4106,39.1200,73,92,278148
1.9404,0.4057,39.1200,73,92,278152
1.9257,0.4106,39.1200,73,92,278155
1.9795,0.4252,38.7400,73,92,278158
1.9404,0.4106,39.0600,73,92,278162
1.9355,0.3959,39.0900,73,92,278165
1.9306,0.4057,39.1200,73,92,278168
1.9257,0.4057,39.0900,73,92,278171
1.9746,0.4154,39.0000,73,92,278175
1.9453,0.4106,39.0900,73,92,278178
1.9453,0.4106,38.7700,73,92,278181
1.9306,0.4106,39.1600,73,92,278185
1.9306,0.4057,38.4900,73,92,278189
1.9550,0.4154,39.0300,73,92,278192
1.9648,0.4057,39.1200,73,92,278196
1.9550,0.4106,39.0000,73,92,278199
1.9306,0.4057,39.0900,73,92,278202
1.9208,0.4106,39.1600,73,92,278205
1.9501,0.4154,39.0000,73,92,278209
1.9159,0.4106,39.1200,73,92,278212
1.9501,0.3861,39.0000,73,92,278215
1.9208,0.4057,39.0600,73,92,278219
1.9159,0.4057,39.2200,73,92,278222
1.9648,0.4057,39.0600,73,92,278225
1.9208,0.4057,39.2200,73,92,278230
1.9501,0.4154,38.9300,73,92,278233
1.9404,0.3861,39.0600,73,92,278236
1.9306,0.4057,39.0600,73,92,278240
1.9550,0.4154,39.0600,73,92,278243
1.9404,0.4057,39.1200,73,92,278246
1.9990,0.4154,38.8700,73,92,278249
1.9648,0.4106,39.0900,73,92,278253
1.9844,0.4057,39.1200,73,92,278256
2.0039,0.4106,39.1900,73,92,278259
1.9990,0.4057,39.1200,73,92,278263
2.0626,0.4252,38.8700,73,92,278266
2.0381,0.4106,39.0600,73,92,278269
2.0332,0.4008,39.0600,73,92,278274
2.0528,0.4106,39.0900,73,92,278277
2.0479,0.4057,39.1200,73,92,278280
2.1065,0.4203,39.2500,73,92,278283
2.0626,0.4106,39.1200,73,92,278287
2.0674,0.4057,39.0300,73,92,278290
2.0430,0.4057,38.5800,73,92,278293
2.0235,0.4057,39.0900,73,92,278297
2.0381,0.4106,39.0600,73,92,278300
1.9990,0.4057,39.1200,73,92,278303
2.0088,0.4106,39.0000,73,92,278307
1.9795,0.4350,39.1200,73,92,278310
1.9844,0.4057,39.1200,73,92,278313
1.9795,0.4057,39.2800,73,92,278317
1.9501,0.4106,39.1900,73,92,278321
1.9550,0.4154,39.0600,73,92,278324
1.9062,0.4350,39.1200,73,92,278327
1.8964,0.4057,39.1200,73,92,278331
1.9062,0.4154,39.0300,73,92,278334
1.8719,0.4106,39.1600,73,92,278337
1.8866,0.4106,38.9300,73,92,278341
1.8573,0.4057,39.0000,73,92,278344
1.8377,0.4106,39.1200,73,92,278347
1.8475,0.4106,39.1600,73,92,278350
1.8328,0.4008,39.1900,73,92,278354
1.8817,0.4154,38.8700,73,92,278358
1.8475,0.4057,39.2200,73,92,278361
1.8280,0.4057,39.1200,73,92,278365
1.8377,0.4106,39.0900,73,92,278368
1.8280,0.4057,39.0300,73,92,278371
1.8817,0.4154,38.8700,73,92,278375
1.8524,0.4106,39.0300,73,92,278378
1.8475,0.4008,39.0900,73,92,278381
1.8671,0.4057,39.1200,73,92,278385
1.8622,0.4008,39.1200,73,92,278388
1.9110,0.4203,39.0000,73,92,278391
1.8817,0.4106,39.0900,73,92,278394
1.8866,0.4057,39.0600,73,92,278398
1.8768,0.4057,39.1200,73,92,278402
1.8719,0.4057,39.1200,73,92,278405
1.9013,0.4203,38.9600,73,92,278409
1.8768,0.4057,39.1200,73,92,278412
1.8964,0.4106,38.9300,73,92,278415
1.9110,0.4106,39.1200,73,92,278419
1.8817,0.3861,39.1200,73,92,278422
1.9013,0.4301,39.0600,73,92,278425
1.8719,0.4154,39.1200,73,92,278429
1.8964,0.3861,39.0000,73,92,278432
1.8915,0.4154,38.9300,73,92,278435
2.3656,0.4154,39.0900,73,92,278439
2.5269,0.4106,39.1200,73,92,278443
2.7224,0.4106,39.0900,73,92,278446
2.8690,0.4106,39.1200,73,92,278450
3.0156,0.4252,38.8700,73,92,278453
2.8788,0.4106,39.0900,73,92,278456
2.6442,0.4154,39.0900,73,92,278460
2.3851,0.4106,39.1200,73,92,278463
2.1114,0.4057,39.1900,73,92,278466
1.9453,0.4106,38.9300,73,92,278470
1.7644,0.4057,39.1200,73,92,278473
1.7009,0.4057,39.0000,73,92,278476
1.6911,0.4008,39.1200,73,92,278480
1.7302,0.4057,39.1200,73,92,278483
1.7889,0.4154,39.0300,73,92,278487
1.7889,0.4106,39.1200,73,92,278490
1.8084,0.4106,39.0000,73,92,278494
1.7937,0.4057,39.2500,73,92,278497
1.7937,0.4057,39.1200,73,92,278500
1.8084,0.4057,39.3500,73,92,278504
1.7937,0.4057,39.1200,73,92,278507
1.8084,0.4106,39.0000,73,92,278510
1.7693,0.4057,39.1600,73,92,278514
1.7595,0.4545,39.1200,73,92,278517
1.7791,0.4154,39.0600,73,92,278520
1.7595,0.4057,39.2500,73,92,278523
1.7889,0.4203,38.9000,73,92,278528
1.7742,0.4057,39.0300,73,92,278531
1.7644,0.4057,39.0000,73,92,278534
1.8084,0.4106,39.0900,73,92,278538
1.7644,0.3861,39.1200,73,92,278541
1.8133,0.4203,38.8700,73,92,278544
1.7937,0.4057,39.0900,73,92,278548
1.7889,0.4057,39.1200,73,92,278551
1.8035,0.4106,39.0900,73,92,278554
1.7937,0.4057,39.1200,73,92,278557
1.8524,0.4154,38.9300,73,92,278561
1.8133,0.4106,39.0600,73,92,278564
1.8084,0.3959,39.0900,73,92,278567
1.8231,0.4057,39.0900,73,92,278572
1.8231,0.4008,39.1200,73,92,278575
1.8768,0.4203,39.0000,73,92,278578
1.8573,0.4106,39.1200,73,92,278582
1.8671,0.4106,39.0300,73,92,278585
1.8622,0.4057,39.1200,73,92,278588
1.8573,0.4057,39.1600,73,92,278592
1.9062,0.4057,38.9600,73,92,278595
1.8719,0.4057,39.1200,73,92,278598
1.8964,0.4106,39.0000,73,92,278601
1.8719,0.4057,39.1600,73,92,278605
1.8719,0.4057,39.2800,73,92,278608
1.9159,0.4106,39.0600,73,92,278611
1.8817,0.3861,39.1200,73,92,278616
1.9110,0.4106,38.9600,73,92,278619
1.9013,0.4008,39.0900,73,92,278622
1.9110,0.4057,39.1200,73,92,278626
1.9306,0.4154,39.0300,73,92,278629
1.9208,0.3959,39.1200,73,92,278632
1.9550,0.4106,38.9300,73,92,278636
1.9257,0.4106,39.1600,73,92,278639
1.9355,0.4057,39.1200,73,92,278642
1.9550,0.4106,39.0900,73,92,278645
1.9501,0.4057,39.1200,73,92,278649
2.0039,0.4203,39.0000,73,92,278652
1.9795,0.4106,38.9600,73,92,278656
1.9648,0.4350,39.0900,73,92,278660
1.9844,0.4106,39.1200,73,92,278663
1.9892,0.4057,39.1200,73,92,278666
2.0528,0.4301,38.9000,73,92,278670
2.0137,0.4057,39.0600,73,92,278673
2.0039,0.4057,39.0900,73,92,278676
2.0088,0.4301,39.1600,73,92,278679
2.0039,0.4057,39.1200,73,92,278683
2.0821,0.4252,38.9600,73,92,278686
2.0186,0.4106,39.1600,73,92,278689
2.0039,0.4106,39.0600,73,92,278693
1.9892,0.4106,39.0900,73,92,278696
1.9892,0.4057,39.1600,73,92,278700
2.0186,0.4252,39.0300,73,92,278704
1.9941,0.4057,39.1200,73,92,278707
1.9990,0.4106,39.0300,73,92,278710
1.9990,0.3959,39.1200,73,92,278713
1.9599,0.4057,39.1600,73,92,278717
1.9941,0.4448,39.0000,73,92,278720
1.9648,0.4106,39.1600,73,92,278723
1.9941,0.4106,39.0300,73,92,278727
1.9648,0.4008,39.0600,73,92,278730
1.9648,0.4057,39.1200,73,92,278733
1.9844,0.4106,39.0300,73,92,278737
1.9648,0.4057,39.1200,73,92,278740
1.9795,0.4106,38.9600,73,92,278744
1.9550,0.4154,39.0600,73,92,278748
1.9404,0.4106,39.1200,73,92,278751
1.9550,0.3861,39.0600,73,92,278754
1.9257,0.4057,39.0000,73,92,278757
1.9599,0.4154,38.9000,73,92,278761
1.9110,0.4057,39.0900,73,92,278764
1.9013,0.4057,39.2200,73,92,278767
1.9062,0.4252,39.0600,73,92,278771
1.8866,0.4057,39.2500,73,92,278774
1.9257,0.4252,38.8700,73,92,278777
1.8964,0.4106,39.0300,73,92,278781
1.8768,0.4008,39.1200,73,92,278785
1.8817,0.4008,39.1200,73,92,278788
1.8817,0.3861,39.1200,73,92,278791
1.9306,0.4154,38.9300,73,92,278795
1.8964,0.4106,39.1200,73,92,278798
1.8964,0.4057,39.0000,73,92,278801
1.8915,0.4106,39.1200,73,92,278805
1.8866,0.4057,39.1600,73,92,278808
1.9159,0.3959,39.0000,73,92,278811
1.8964,0.4057,39.0900,73,92,278815
1.9110,0.4106,39.0000,73,92,278818
1.8964,0.4057,39.2500,73,92,278821
1.9110,0.3959,39.1200,73,92,278825
1.9159,0.4057,39.0600,73,92,278829
1.9013,0.4008,39.1200,73,92,278832
1.9208,0.4106,39.0600,73,92,278835
1.8964,0.4057,39.0300,73,92,278839
1.8964,0.4008,39.1200,73,92,278842
1.9257,0.4154,39.0300,73,92,278845
1.9062,0.4106,39.1200,73,92,278849
1.9501,0.4203,38.9300,73,92,278852
1.9208,0.4057,38.9300,73,92,278855
1.9110,0.4252,39.1600,73,92,278859
1.9257,0.4106,39.0000,73,92,278862
1.9110,0.4154,39.1200,73,92,278865
1.9599,0.4203,38.9300,73,92,278870
1.9257,0.4106,39.0300,73,92,278873
1.9159,0.4106,39.1900,73,92,278876
1.9208,0.4057,39.0900,73,92,278879
1.9062,0.4057,39.0900,73,92,278883
1.9501,0.4350,38.8700,73,92,278886
1.9110,0.4106,39.0600,73,92,278889
1.8915,0.4008,39.0600,73,92,278893
1.9110,0.4106,39.0900,73,92,278896
1.9062,0.4057,39.1600,73,92,278899
1.9550,0.4203,38.9600,73,92,278903
1.9257,0.4497,39.0600,73,92,278906
1.9110,0.4057,39.0000,73,92,278909
1.8964,0.4057,39.1200,73,92,278913
1.8915,0.4350,39.1200,73,92,278917
1.9257,0.4154,38.9600,73,92,278920
1.9013,0.4008,39.1200,73,92,278923
1.9404,0.4106,39.0000,73,92,278927
1.8915,0.3861,39.1200,73,92,278930
1.9013,0.4057,39.1600,73,92,278933
1.9208,0.4106,39.0600,73,92,278937
1.9062,0.4057,39.1200,73,92,278940
1.9355,0.4106,39.1200,73,92,278943
1.9159,0.4057,39.1200,73,92,278947
1.9062,0.4057,39.1200,73,92,278950
1.9062,0.4106,39.0000,73,92,278953
1.8915,0.4057,39.1600,73,92,278957
1.9110,0.4106,38.9600,73,92,278961
1.8817,0.4057,39.1600,73,92,278964
1.8817,0.4057,39.1900,73,92,278967
1.9013,0.4203,39.0600,73,92,278971
1.8817,0.4057,39.1200,73,92,278974
1.9306,0.4203,38.8700,73,92,278977
1.9355,0.4106,39.0300,73,92,278981
1.8817,0.4057,39.1600,73,92,278984
1.8915,0.4106,39.1900,73,92,278987
1.8768,0.4057,39.1600,73,92,278991
1.9257,0.4252,38.9000,73,92,278994
1.8866,0.4057,39.0900,73,92,278998
1.8866,0.4057,39.0600,73,92,279001
1.8915,0.4057,39.1200,73,92,279005
1.8817,0.4008,39.1200,73,92,279008
1.9159,0.4154,39.0000,73,92,279011
1.8817,0.4106,39.1200,73,92,279015
1.8817,0.4106,39.0300,73,92,279018
1.8719,0.4057,39.0900,73,92,279021
1.8671,0.4057,39.0300,73,92,279025
1.8866,0.4106,39.0600,73,92,279028
1.8817,0.4106,39.0900,73,92,279031
1.8915,0.4106,38.4900,73,92,279034
1.8719,0.4057,39.1600,73,92,279038
1.8719,0.4057,39.1200,73,92,279042
1.9013,0.4203,39.0000,73,92,279045
1.9550,0.4106,39.0600,73,92,279049
1.9941,0.4106,39.1200,73,92,279052
2.0283,0.4154,38.9300,73,92,279056
2.0186,0.4106,39.0600,73,92,279059
2.0235,0.4106,39.1200,73,92,279062
2.0479,0.4106,39.1200,73,92,279066
2.0430,0.4057,39.0900,73,92,279069
2.0968,0.4448,38.8700,73,92,279072
2.0528,0.4057,39.0600,73,92,279075
2.0283,0.3861,39.1200,73,92,279079
2.0186,0.4057,39.2800,73,92,279083
1.9941,0.4008,39.1600,73,92,279086
2.0283,0.4252,39.0000,73,92,279090
1.9746,0.4106,38.9600,73,92,279093
1.9501,0.4106,39.0300,73,92,279096
1.9355,0.4057,39.1600,73,92,279100
1.9257,0.4057,39.1200,73,92,279103
1.9550,0.4057,38.9600,73,92,279106
1.9062,0.4057,38.9000,73,92,279110
1.9013,0.4106,39.0300,73,92,279113
1.9062,0.4057,39.1200,73,92,279116
1.8622,0.4057,39.1200,73,92,279119
1.8768,0.4203,39.0600,73,92,279123
1.8475,0.4057,39.0900,73,92,279127
1.8524,0.3861,39.0300,73,92,279130
1.8035,0.4057,39.0900,73,92,279134
1.7840,0.4106,39.1200,73,92,279137
1.7791,0.4057,39.0300,73,92,279140
1.7644,0.4057,39.1200,73,92,279144
1.7840,0.4057,38.9600,73,92,279147
1.7644,0.4057,39.1200,73,92,279150
1.7644,0.4057,39.1600,73,92,279153
1.7840,0.4154,39.0900,73,92,279157
1.7644,0.4057,38.6500,73,92,279160
1.8035,0.4301,38.9000,73,92,279163
1.7889,0.4057,39.0300,73,92,279168
1.7742,0.4057,39.1200,73,92,279171
1.7889,0.4057,39.1900,73,92,279174
1.7889,0.4057,39.1600,73,92,279178
1.8280,0.4203,38.8700,73,92,279181
1.7889,0.4106,39.0600,73,92,279184
1.7742,0.4008,39.0900,73,92,279187
1.7937,0.4057,39.0300,73,92,279191
1.7840,0.4106,39.1900,73,92,279194
1.8328,0.4252,38.9600,73,92,279197
1.7986,0.4057,39.0600,73,92,279201
1.7937,0.4154,39.0300,73,92,279204
1.7937,0.4057,39.1200,73,92,279207
1.7937,0.4106,39.1200,73,92,279212
1.8182,0.4154,39.0300,73,92,279215
1.7889,0.4106,39.1200,73,92,279218
1.8280,0.4057,39.0000,73,92,279222
1.8084,0.4057,39.1600,73,92,279225
1.8671,0.4057,39.0300,73,92,279228
1.9697,0.4154,38.9600,73,92,279231
2.0283,0.4057,39.1600,73,92,279235
2.1945,0.4154,39.0600,73,92,279238
2.3558,0.4057,39.0900,73,92,279241
2.5513,0.4057,39.2200,73,92,279245
2.7517,0.4057,39.0600,73,92,279248
2.8446,0.4057,39.1200,73,92,279251
2.8690,0.4106,38.9000,73,92,279256
2.6882,0.4106,39.0600,73,92,279259
2.4438,0.4057,39.1200,73,92,279262
2.2043,0.4154,39.0300,73,92,279265
1.9404,0.4057,39.1200,73,92,279269
1.7840,0.4154,38.9000,73,92,279272
1.6422,0.4008,39.0900,73,92,279275
1.6129,0.4057,39.0600,73,92,279279
1.6373,0.4448,39.1200,73,92,279282
1.6716,0.4057,39.1200,73,92,279285
1.7498,0.4203,38.8700,73,92,279289
1.7351,0.4057,39.0600,73,92,279292
1.7253,0.4008,39.1200,73,92,279296
1.7253,0.4008,39.0900,73,92,279300
1.7204,0.4057,39.1200,73,92,279303
1.7595,0.4252,38.9600,73,92,279306
1.7498,0.4106,39.0900,73,92,279309
1.7107,0.4057,39.0300,73,92,279313
1.7058,0.4057,39.1600,73,92,279316
1.7302,0.4057,39.1200,73,92,279319
1.7253,0.4154,39.0000,73,92,279323
1.7058,0.4057,39.0000,73,92,279326
1.7253,0.4203,39.0000,73,92,279329
1.7253,0.4057,39.1200,73,92,279333
1.7204,0.4106,39.0900,73,92,279336
1.7302,0.4106,39.0900,73,92,279340
1.7351,0.4057,39.0900,73,92,279343
1.7302,0.4154,39.0600,73,92,279347
1.7009,0.4008,39.1200,73,92,279350
1.7107,0.3959,39.1200,73,92,279353
1.7155,0.4154,39.0300,73,92,279357
1.7107,0.4106,39.1200,73,92,279360
1.7400,0.4106,38.9300,73,92,279363
1.7400,0.4106,39.0600,73,92,279367
1.7400,0.4252,39.1900,73,92,279370
1.7546,0.4154,39.0900,73,92,279373
1.7449,0.4057,39.1200,73,92,279376
1.8133,0.4203,38.9000,73,92,279380
1.7595,0.4106,39.0900,73,92,279384
1.7498,0.4057,39.1900,73,92,279387
1.7693,0.4203,39.0900,73,92,279391
1.7644,0.4057,39.1600,73,92,279394
1.8182,0.4203,38.8700,73,92,279397
1.7791,0.4057,39.0600,73,92,279401
1.7791,0.4008,39.0000,73,92,279404
1.7889,0.4057,39.0600,73,92,279407
1.7937,0.4057,39.1200,73,92,279411
1.8377,0.4252,38.9300,73,92,279414
1.8035,0.4057,39.0600,73,92,279417
1.8377,0.4106,39.0300,73,92,279420
1.8084,0.4057,39.1200,73,92,279425
1.8035,0.4008,39.1200,73,92,279428
1.8377,0.4154,38.9600,73,92,279431
1.8084,0.4106,39.0900,73,92,279435
1.8280,0.4106,39.0300,73,92,279438
1.8133,0.4057,39.0600,73,92,279441
1.8231,0.4106,39.0900,73,92,279445
1.8573,0.4057,39.0600,73,92,279448
1.8328,0.4057,39.1600,73,92,279451
1.8671,0.4203,39.0300,73,92,279454
1.8524,0.4057,39.1200,73,92,279458
1.8524,0.4057,39.1600,73,92,279461
1.9013,0.4106,39.0600,73,92,279464
1.8622,0.4057,39.1200,73,92,279469
1.8817,0.4106,38.9600,73,92,279472
1.8866,0.4057,39.1200,73,92,279475
1.8573,0.4057,39.1200,73,92,279479
1.8719,0.4203,39.0600,73,92,279482
1.8426,0.3861,39.1200,73,92,279485
1.8915,0.4154,38.8700,73,92,279489
1.8915,0.4106,39.0300,73,92,279492
1.8573,0.4057,39.1600,73,92,279495
1.8866,0.4057,39.0900,73,92,279498
1.8475,0.4057,39.1600,73,92,279502
1.8964,0.4203,38.7700,73,92,279505
1.8866,0.4106,39.0600,73,92,279508
1.8377,0.4008,39.0900,73,92,279513
1.8426,0.4057,39.1200,73,92,279516
1.8231,0.4057,39.0900,73,92,279519
1.8671,0.4057,38.9300,73,92,279523
1.8280,0.4106,38.9600,73,92,279526
1.8133,0.4154,39.0600,73,92,279529
1.8084,0.4057,39.1200,73,92,279533
1.8035,0.4350,39.1600,73,92,279536
1.8280,0.4154,39.0900,73,92,279539
1.8084,0.4057,39.1600,73,92,279542
1.8182,0.4203,39.0000,73,92,279546
1.7937,0.3861,39.1600,73,92,279549
1.7840,0.4106,39.0900,73,92,279553
1.8084,0.4203,39.0000,73,92,279557
1.7791,0.4057,39.1200,73,92,279560
1.8084,0.4106,38.6500,73,92,279563
1.7840,0.4301,39.0600,73,92,279567
1.7791,0.4057,39.1200,73,92,279570
1.7889,0.4106,39.0000,73,92,279573
1.7693,0.4301,39.1200,73,92,279576
1.7840,0.4106,38.9300,73,92,279580
1.7644,0.4057,39.0600,73,92,279583
1.7644,0.4057,39.1200,73,92,279586
1.7840,0.4057,39.0600,73,92,279590
1.7742,0.4057,39.1600,73,92,279593
1.8084,0.4154,38.8700,73,92,279597
1.7742,0.4057,39.0900,73,92,279601
1.7742,0.4057,39.1900,73,92,279604
1.7889,0.4106,39.0600,73,92,279607
1.7693,0.4057,39.1200,73,92,279610
1.8084,0.4203,38.8700,73,92,279614
1.8084,0.4154,39.0300,73,92,279617
1.7498,0.4008,39.0900,73,92,279620
1.7546,0.4106,39.1200,73,92,279624
1.7449,0.4057,39.1200,73,92,279627
1.7986,0.4203,38.9000,73,92,279630
1.7791,0.4106,39.0900,73,92,279634
1.7693,0.4057,39.0300,73,92,279638
1.7644,0.4057,39.1200,73,92,279641
1.7986,0.4057,39.1600,73,92,279645
1.7937,0.4154,38.9600,73,92,279648
1.7986,0.4106,39.1200,73,92,279651
1.7986,0.4106,39.0000,73,92,279654
1.7791,0.4057,39.0900,73,92,279658
1.7644,0.4057,39.0900,73,92,279661
1.7644,0.4350,39.1200,73,92,279665
1.7986,0.4154,39.0300,73,92,279668
1.7791,0.4057,39.1600,73,92,279671
1.8280,0.4154,38.9000,73,92,279675
1.7889,0.4106,39.0600,73,92,279678
1.7644,0.4057,39.1200,73,92,279682
1.7644,0.4106,39.0900,73,92,279686
1.7546,0.4057,39.1600,73,92,279689
1.7937,0.4448,38.8700,73,92,279692
1.7595,0.4057,39.0600,73,92,279696
1.7449,0.4008,39.1600,73,92,279699
1.7498,0.4008,39.1200,73,92,279702
1.7351,0.4057,39.1200,73,92,279705
1.7889,0.4252,38.9600,73,92,279709
1.7546,0.4106,39.0600,73,92,279712
1.7498,0.4057,39.0600,73,92,279715
1.7498,0.4057,39.0900,73,92,279719
1.7400,0.4057,39.1200,73,92,279723
1.7742,0.4154,39.0600,73,92,279726
1.7449,0.4057,39.2200,73,92,279730
1.7498,0.4106,39.0000,73,92,279733
1.7302,0.4057,39.1200,73,92,279736
1.7351,0.4057,39.1200,73,92,279739
1.7791,0.4203,38.9600,73,92,279743
1.7449,0.4057,39.0900,73,92,279746
1.7546,0.4203,39.0300,73,92,279749
1.7204,0.4008,39.0900,73,92,279753
1.7058,0.4057,39.1600,73,92,279756
1.7302,0.4106,39.0900,73,92,279759
1.6862,0.4057,39.1200,73,92,279763
1.7107,0.4106,38.9000,73,92,279767
1.6960,0.4106,39.0600,73,92,279770
1.6911,0.4057,39.1600,73,92,279774
1.7107,0.4154,39.0300,73,92,279777
1.7107,0.4057,39.1200,73,92,279780
1.7400,0.4154,38.9000,73,92,279783
1.7009,0.4106,39.0900,73,92,279787
1.6960,0.4106,39.1600,73,92,279790
1.7107,0.4106,39.0900,73,92,279793
1.7009,0.4106,39.1200,73,92,279797
1.7644,0.4252,38.8400,73,92,279800
1.7155,0.4106,39.0600,73,92,279803
1.7009,0.4057,39.1200,73,92,279808
1.7107,0.3861,39.1200,73,92,279811
1.7058,0.4057,39.1600,73,92,279814
1.7546,0.4203,38.9600,73,92,279817
1.7155,0.4106,39.2500,73,92,279821
1.7204,0.4154,39.0300,73,92,279824
1.7204,0.4057,39.1200,73,92,279827
1.7253,0.4057,39.0900,73,92,279831
1.7693,0.4057,39.0000,73,92,279834
1.7595,0.4057,39.0900,73,92,279837
1.7840,0.4106,38.9600,73,92,279841
1.7742,0.4008,39.1200,73,92,279844
1.7840,0.4057,39.1200,73,92,279847
1.8133,0.4154,39.0900,73,92,279852
1.8475,0.4057,39.1200,73,92,279855
1.8671,0.4106,39.0300,73,92,279858
1.8475,0.3959,39.1200,73,92,279861
1.8475,0.4057,39.1200,73,92,279865
1.8671,0.4154,39.0300,73,92,279868
1.8426,0.4057,39.1200,73,92,279871
1.8573,0.4154,38.9300,73,92,279875
1.8280,0.4106,39.0600,73,92,279878
1.7937,0.4057,39.1200,73,92,279881
1.8035,0.4154,39.0900,73,92,279885
1.7498,0.4057,39.1200,73,92,279888
1.7889,0.4203,38.9000,73,92,279891
1.7595,0.4106,39.0900,73,92,279896
1.7546,0.4057,39.1600,73,92,279899
1.7449,0.4106,39.1200,73,92,279902
1.7155,0.4106,39.1200,73,92,279905
1.7351,0.4252,38.8700,73,92,279909
1.6813,0.4106,39.0300,73,92,279912
1.6520,0.3861,39.0900,73,92,279915
1.6373,0.4057,39.1600,73,92,279919
1.6178,0.4057,39.1200,73,92,279922
1.6373,0.4203,39.0000,73,92,279925
1.5934,0.4106,39.2500,73,92,279929
1.5787,0.4106,39.0300,73,92,279932
1.5640,0.4057,39.1200,73,92,279936
1.5591,0.4154,39.1900,73,92,279940
1.5885,0.4154,38.9600,73,92,279943
1.5738,0.4057,39.0900,73,92,279946
1.5836,0.4154,39.0000,73,92,279949
1.5591,0.4057,39.1200,73,92,279953
1.5591,0.4008,39.1200,73,92,279956
1.5836,0.4106,39.0600,73,92,279959
1.5689,0.4057,39.0900,73,92,279963
1.5885,0.4106,38.9600,73,92,279966
1.5689,0.3959,39.0900,73,92,279969
1.5689,0.4057,39.1900,73,92,279973
1.5836,0.4203,39.0300,73,92,279976
1.5640,0.4057,39.1200,73,92,279980
1.5885,0.4154,38.9300,73,92,279984
1.5640,0.3861,39.1200,73,92,279987
1.5640,0.4057,39.0300,73,92,279990
1.5836,0.4203,39.0600,73,92,279993
1.5738,0.3861,39.1200,73,92,279997
1.6129,0.4203,38.8400,73,92,280000
1.6178,0.4106,39.0600,73,92,280003
1.5591,0.4057,39.1200,73,92,280007
1.5543,0.4057,39.1200,73,92,280010
1.5445,0.4057,39.1200,73,92,280013
1.6031,0.4252,38.9300,73,92,280017
1.6276,0.4106,39.0900,73,92,280020
1.6911,0.4057,39.0900,73,92,280024
1.7840,0.4106,39.0900,73,92,280028
1.8866,0.4057,39.1200,73,92,280031
2.1017,0.4154,39.1200,73,92,280034
2.2727,0.4106,39.1200,73,92,280037
2.4682,0.4057,39.0000,73,92,280041
2.6100,0.4057,39.1200,73,92,280044
2.6931,0.4057,39.1600,73,92,280047
2.6491,0.4106,39.0900,73,92,280051
2.4340,0.4057,39.1600,73,92,280054
2.1799,0.4301,39.0000,73,92,280057
1.8475,0.4057,39.1200,73,92,280061
1.5982,0.4057,39.0000,73,92,280065
1.4565,0.4057,39.0300,73,92,280068
1.3441,0.4057,39.1200,73,92,280071
1.3441,0.4106,38.9300,73,92,280075
1.3441,0.3959,39.0600,73,92,280078
1.3685,0.4057,39.1200,73,92,280081
1.3978,0.4057,39.0600,73,92,280085
1.4027,0.4106,39.1200,73,92,280088
1.4125,0.4154,38.9000,73,92,280091
1.3881,0.4057,39.1200,73,92,280095
1.3783,0.4008,39.1200,73,92,280098
1.3832,0.4106,39.1200,73,92,280101
1.3734,0.4154,39.1200,73,92,280104
1.4125,0.4203,38.8700,73,92,280109
1.3734,0.4057,39.0600,73,92,280112
1.3734,0.4008,39.1200,73,92,280115
1.3783,0.4057,39.1200,73,92,280119
1.3783,0.4154,39.1900,73,92,280122
1.4223,0.4252,39.0000,73,92,280125
1.3930,0.4154,39.1200,73,92,280129
1.3930,0.4057,39.0300,73,92,280132
1.3832,0.4057,39.0900,73,92,280135
1.3783,0.4057,39.0900,73,92,280139
1.4076,0.4154,38.9600,73,92,280142
1.3832,0.4057,39.0900,73,92,280145
1.3930,0.4106,38.5200,73,92,280148
1.3832,0.3910,39.1900,73,92,280153
1.3930,0.4008,39.1200,73,92,280156
1.4027,0.4399,39.0000,73,92,280159
1.3978,0.4301,39.0900,73,92,280163
1.4370,0.4106,39.0300,73,92,280166
1.3978,0.4057,39.1200,73,92,280169
1.3930,0.4057,39.1600,73,92,280173
1.4076,0.4106,39.0600,73,92,280176
1.3930,0.3861,39.1200,73,92,280179
1.4076,0.4057,39.0600,73,92,280182
1.3930,0.4106,39.1200,73,92,280186
1.3978,0.4057,39.1200,73,92,280189
1.4125,0.4154,39.1200,73,92,280193
1.4027,0.4057,39.1900,73,92,280197
1.4272,0.4448,38.9000,73,92,280200
1.4174,0.4057,39.0300,73,92,280203
1.3978,0.4057,39.1200,73,92,280207
1.4027,0.4154,39.0900,73,92,280210
1.3881,0.4057,39.1600,73,92,280213
1.4272,0.4203,38.8700,73,92,280217
1.4076,0.4106,39.0600,73,92,280220
1.3930,0.4008,39.1200,73,92,280223
1.3978,0.4057,39.1200,73,92,280226
1.3832,0.4057,39.1200,73,92,280230
1.4223,0.4252,38.9300,73,92,280233
1.3930,0.4154,39.0600,73,92,280237
1.3930,0.4057,39.0300,73,92,280241
1.3881,0.4057,39.1200,73,92,280244
1.3832,0.4252,39.0900,73,92,280247
1.4125,0.4154,39.0300,73,92,280251
1.3783,0.4057,39.0900,73,92,280254
1.3881,0.4545,39.0300,73,92,280257
1.3783,0.4057,39.1600,73,92,280261
1.3783,0.4057,39.0900,73,92,280264
1.4027,0.4154,39.0600,73,92,280267
1.3783,0.4154,39.0300,73,92,280271
1.3783,0.4057,39.1200,73,92,280274
1.4125,0.4154,38.9000,73,92,280278
1.4076,0.4057,39.0900,73,92,280282
1.4027,0.4057,39.1200,73,92,280285
1.4076,0.4106,39.0300,73,92,280288
1.3881,0.4008,39.1200,73,92,280292
1.4272,0.4154,38.8700,73,92,280295
1.3832,0.4301,39.0300,73,92,280298
1.3832,0.4008,39.1600,73,92,280302
1.3832,0.4057,39.1200,73,92,280305
1.3783,0.4106,39.1200,73,92,280308
1.4223,0.4252,38.9300,73,92,280312
1.3978,0.4057,39.0600,73,92,280315
1.4174,0.3959,39.0600,73,92,280318
1.4125,0.4057,39.1200,73,92,280322
1.4174,0.4008,39.1900,73,92,280326
1.4467,0.4154,38.9600,73,92,280329
1.4321,0.4106,39.1900,73,92,280332
1.4516,0.4106,39.0300,73,92,280336
1.4467,0.4057,38.5800,73,92,280339
1.4565,0.4106,39.1900,73,92,280342
1.4907,0.4154,39.0600,73,92,280346
1.4858,0.4057,39.0900,73,92,280349
1.5152,0.4399,39.0300,73,92,280352
1.5152,0.4057,39.1600,73,92,280355
1.4956,0.4057,39.0900,73,92,280359
1.5054,0.4106,39.0300,73,92,280363
1.4956,0.3959,39.1200,73,92,280366
1.5005,0.4106,38.9600,73,92,280370
1.4956,0.4008,39.1200,73,92,280373
1.5054,0.4057,39.1600,73,92,280376
1.5200,0.4154,39.0300,73,92,280380
1.5347,0.4057,39.1200,73,92,280383
1.5298,0.4154,38.9300,73,92,280386
1.5054,0.4106,39.0600,73,92,280390
1.4956,0.4057,39.1200,73,92,280393
1.5005,0.4106,39.1200,73,92,280396
1.4956,0.4057,39.1600,73,92,280399
1.5445,0.4203,38.8400,73,92,280403
1.5200,0.4203,39.0300,73,92,280407
1.5152,0.3910,39.1200,73,92,280410
1.5200,0.4057,39.0900,73,92,280414
1.5152,0.4057,39.0900,73,92,280417
1.5591,0.4448,38.9000,73,92,280420
1.5298,0.4106,39.0900,73,92,280424
1.5200,0.4057,39.0600,73,92,280427
1.5249,0.4057,38.5200,73,92,280430
1.5152,0.4057,39.1200,73,92,280433
1.5591,0.4154,39.0000,73,92,280437
1.5445,0.4106,39.0600,73,92,280440
1.5640,0.4106,39.0300,73,92,280443
1.5396,0.4350,39.1600,73,92,280448
1.5347,0.4057,39.1200,73,92,280451
1.5591,0.4154,39.2800,73,92,280454
1.5249,0.4057,39.1200,73,92,280458
1.5543,0.4154,39.0300,73,92,280461
1.5347,0.4008,39.0900,73,92,280464
1.5347,0.4057,39.1900,73,92,280468
1.5543,0.4106,39.1200,73,92,280471
1.5396,0.4057,39.1200,73,92,280474
1.5640,0.4106,38.9300,73,92,280477
1.5494,0.4057,39.0900,73,92,280481
1.5494,0.4154,39.1200,73,92,280484
1.5640,0.4154,39.0600,73,92,280487
1.5494,0.4057,39.0900,73,92,280492
1.5787,0.4154,38.8700,73,92,280495
1.5445,0.3861,39.0900,73,92,280498
1.5445,0.4057,39.0600,73,92,280502
1.5640,0.4106,39.0900,73,92,280505
1.5494,0.4057,39.1200,73,92,280508
1.5836,0.4203,38.8700,73,92,280512
1.5689,0.4106,39.0300,73,92,280515
1.5396,0.4008,39.1200,73,92,280518
1.5543,0.4106,39.1900,73,92,280521
1.5494,0.4057,39.1600,73,92,280525
1.5885,0.4252,38.9300,73,92,280528
1.5543,0.4057,39.0900,73,92,280531
1.5494,0.4057,39.0600,73,92,280536
1.5396,0.4057,39.0900,73,92,280539
1.5396,0.4106,39.1200,73,92,280542
1.5689,0.4154,39.0300,73,92,280546
1.5543,0.4057,39.0900,73,92,280549
1.5640,0.4106,39.0300,73,92,280552
1.5494,0.4057,39.1200,73,92,280555
1.5494,0.4057,39.1200,73,92,280559
1.5591,0.4106,39.0600,73,92,280562
1.5347,0.4057,39.1900,73,92,280565
1.5494,0.4106,39.0600,73,92,280569
1.5298,0.4057,39.1200,73,92,280572
1.5249,0.4057,39.0900,73,92,280576
1.5494,0.4154,39.0000,73,92,280580
1.5249,0.3861,39.1200,73,92,280583
1.5445,0.4106,38.5200,73,92,280586
1.5298,0.4106,39.0300,73,92,280590
1.5249,0.3861,39.1600,73,92,280593
1.5396,0.4154,39.0300,73,92,280596
1.5298,0.4057,39.1200,73,92,280599
1.5689,0.4154,38.9600,73,92,280603
1.5640,0.4057,39.0900,73,92,280606
1.5445,0.4008,39.1200,73,92,280609
1.5591,0.4106,39.0900,73,92,280613
1.5494,0.4350,39.1200,73,92,280616
1.5934,0.4154,38.8700,73,92,280620
1.5640,0.4008,39.0600,73,92,280624
1.5689,0.4008,39.0900,73,92,280627
1.5934,0.4057,39.1200,73,92,280630
1.5982,0.4057,39.1600,73,92,280633
1.6618,0.4203,38.9600,73,92,280637
1.6373,0.4106,39.0900,73,92,280640
1.6373,0.4057,39.1200,73,92,280643
1.6422,0.4057,39.1200,73,92,280647
1.6520,0.4057,39.1200,73,92,280650
1.6911,0.4154,38.9600,73,92,280653
1.6862,0.4350,39.0900,73,92,280657
1.7058,0.4154,39.0600,73,92,280660
1.6960,0.4057,39.1200,73,92,280664
1.6862,0.4057,39.0900,73,92,280668
1.6960,0.4154,39.0600,73,92,280671
1.6911,0.4057,39.1200,73,92,280674
1.6716,0.4106,39.0300,73,92,280677
1.6276,0.4497,39.1200,73,92,280681
1.6080,0.4057,39.1600,73,92,280684
1.6080,0.4057,39.0300,73,92,280687
1.5885,0.4106,39.1900,73,92,280691
1.6031,0.4057,38.9300,73,92,280694
1.5738,0.4057,39.1200,73,92,280697
1.5640,0.4106,39.1200,73,92,280701
1.5738,0.4154,39.0600,73,92,280705
1.5689,0.4057,39.1200,73,92,280708
1.5640,0.4154,38.9000,73,92,280712
1.5200,0.4106,39.0900,73,92,280715
1.4858,0.4106,39.1200,73,92,280718
1.4809,0.4057,39.0900,73,92,280721
1.4565,0.4057,39.1200,73,92,280725
1.4858,0.4252,38.8700,73,92,280728
1.4467,0.4057,39.0600,73,92,280731
1.4321,0.4008,39.1200,73,92,280735
1.4370,0.4106,39.0900,73,92,280738
1.4321,0.4057,39.1200,73,92,280741
1.4761,0.4203,39.0600,73,92,280745
1.4516,0.3861,39.0900,73,92,280749
1.4614,0.4057,38.9600,73,92,280752
1.4565,0.4008,39.0900,73,92,280755
1.4516,0.4057,39.1200,73,92,280759
1.4809,0.4154,39.0600,73,92,280762
1.4663,0.4399,39.0900,73,92,280765
1.5103,0.4154,39.0000,73,92,280769
1.4663,0.4057,39.1900,73,92,280772
1.4663,0.4301,39.1200,73,92,280775
1.5005,0.4154,39.0000,73,92,280779
1.4907,0.4057,39.1600,73,92,280782
1.5152,0.4057,39.0000,73,92,280785
1.4956,0.4008,39.0900,73,92,280790
1.4956,0.4057,38.5800,73,92,280793
1.5103,0.4057,39.0600,73,92,280796
1.4907,0.4057,39.1200,73,92,280799
1.5152,0.4106,38.9000,73,92,280803
1.4956,0.4106,39.0600,73,92,280806
1.4858,0.4057,39.1200,73,92,280809
1.5005,0.4106,39.1200,73,92,280813
1.5298,0.4106,39.1200,73,92,280816
1.6325,0.4154,38.9000,73,92,280819
1.6618,0.4350,39.1200,73,92,280823
1.7449,0.4106,39.1200,73,92,280826
1.8866,0.4057,39.0000,73,92,280829
2.0528,0.4008,39.1200,73,92,280833
2.2727,0.4252,38.8400,73,92,280837
2.3998,0.4057,38.9600,73,92,280840
2.5269,0.4106,39.0900,73,92,280843
2.5758,0.4057,39.0900,73,92,280847
2.4487,0.4057,39.0300,73,92,280850
2.2727,0.4203,38.9300,73,92,280853
1.9501,0.4057,39.1200,73,92,280857
1.6764,0.4057,39.0300,73,92,280860
1.4907,0.4057,39.1200,73,92,280863
1.3441,0.4057,39.1600,73,92,280867
1.3392,0.4057,39.0000,73,92,280870
1.3245,0.4057,39.1200,73,92,280873
1.3685,0.4106,39.0000,73,92,280877
1.3832,0.4350,39.1200,74,92,280881
1.3881,0.4106,39.1200,74,92,280884
1.3978,0.4057,39.1200,74,92,280888
1.4223,0.4106,39.0900,74,92,280891
1.4174,0.3861,39.1200,74,92,280894
1.4565,0.4154,38.8700,74,92,280898
1.4418,0.4106,39.0600,74,92,280901
1.4223,0.4057,39.1600,74,92,280904
1.4370,0.3861,39.0900,74,92,280908
1.4370,0.4057,39.1200,74,92,280911
1.4858,0.4252,38.9000,74,92,280914
1.4614,0.4057,39.0900,74,92,280919
1.4516,0.4008,39.0900,74,92,280922
1.4663,0.4008,39.0900,74,92,280925
1.4614,0.4008,39.1600,74,92,280928
1.5103,0.4203,39.0000,74,92,280932
1.4858,0.4106,39.0300,74,92,280935
1.4858,0.4106,39.0600,74,92,280938
1.4858,0.3861,39.1200,74,92,280942
1.4858,0.4545,39.0900,74,92,280945
1.5152,0.4154,39.0600,74,92,280948
1.5103,0.4057,38.9600,74,92,280952
1.5298,0.4106,39.0000,74,92,280955
1.5200,0.4057,39.1200,74,92,280958
1.5298,0.4057,39.2500,74,92,280963
1.5640,0.4154,39.0000,74,92,280966
1.5494,0.4057,39.1200,74,92,280969
1.5591,0.4057,39.0000,74,92,280972
1.5445,0.4057,39.0900,74,92,280976
1.5494,0.4057,39.1200,74,92,280979
1.5591,0.4154,39.0900,74,92,280982
1.5494,0.4057,39.1200,74,92,280986
1.5885,0.4106,38.9300,74,92,280989
1.5738,0.4252,39.0300,74,92,280992
1.5738,0.4057,39.1600,74,92,280996
1.5982,0.4106,39.0300,74,92,280999
1.5885,0.4106,39.1200,74,92,281003
1.6325,0.4154,38.9000,74,92,281006
1.5982,0.4252,39.0900,74,92,281010
1.5982,0.3959,39.1600,74,92,281013
1.6129,0.4057,39.2500,74,92,281016
1.6129,0.3959,39.1200,74,92,281020
1.6667,0.4252,38.8100,74,92,281023
1.6422,0.4106,39.0600,74,92,281026
1.6422,0.4008,39.0600,74,92,281030
1.6471,0.4301,39.1600,74,92,281033
1.6471,0.3959,39.1200,74,92,281036
1.6813,0.4154,38.9600,74,92,281040
1.6667,0.3861,39.0900,74,92,281043
1.6764,0.4057,39.0300,74,92,281047
1.6667,0.4154,39.1200,74,92,281051
1.6667,0.4057,39.1200,74,92,281054
1.6862,0.4057,39.0600,74,92,281057
1.6618,0.3959,39.1200,74,92,281060
1.6716,0.4154,38.9600,74,92,281064
1.6520,0.3959,39.1200,74,92,281067
1.6471,0.4057,39.0900,74,92,281070
1.6618,0.4057,39.0300,74,92,281074
1.6716,0.3959,39.1900,74,92,281077
1.6716,0.4106,38.9600,74,92,281080
1.6716,0.4057,39.1200,74,92,281084
1.6422,0.4057,39.1600,74,92,281088
1.6520,0.4106,39.0600,74,92,281091
1.6178,0.4057,39.1600,74,92,281095
1.6520,0.4154,38.9000,74,92,281098
1.6325,0.4203,39.0300,74,92,281101
1.6129,0.4057,39.1600,74,92,281104
1.6178,0.4106,39.0900,74,92,281108
1.6080,0.3959,39.1200,74,92,281111
1.6471,0.4203,38.9000,74,92,281114
1.6227,0.4203,39.0600,74,92,281118
1.6373,0.3959,39.0900,74,92,281121
1.6129,0.4057,39.1600,74,92,281124
1.5982,0.4057,39.1600,74,92,281128
1.6373,0.4154,38.9600,74,92,281132
1.5885,0.4106,39.0600,74,92,281135
1.5689,0.4057,39.0600,74,92,281138
1.5591,0.4106,39.0900,74,92,281142
1.5494,0.4057,39.1600,74,92,281145
1.5836,0.4154,39.0300,74,92,281148
1.5689,0.4106,39.0900,74,92,281152
1.5640,0.4106,39.0000,74,92,281155
1.5396,0.4057,39.1600,74,92,281158
1.5445,0.4057,39.1200,74,92,281162
1.5640,0.4154,39.0000,74,92,281165
1.5396,0.4008,39.0900,74,92,281168
1.5543,0.4203,39.0000,74,92,281172
1.5298,0.3959,39.0900,74,92,281176
1.5249,0.4057,39.1900,74,92,281179
1.5543,0.4106,39.0300,74,92,281182
1.5445,0.4057,39.1200,74,92,281186
1.5640,0.4106,38.9300,74,92,281189
1.5543,0.4057,39.0600,74,92,281192
1.5494,0.4057,39.1200,74,92,281196
1.5640,0.4106,39.0300,74,92,281199
1.5543,0.4008,39.1900,74,92,281202
1.5885,0.4154,38.9000,74,92,281206
1.5543,0.4350,39.1200,74,92,281209
1.5591,0.4057,39.1600,74,92,281212
1.5738,0.4252,39.0600,74,92,281216
1.5640,0.4057,39.1200,74,92,281220
1.5982,0.4203,38.5800,74,92,281223
1.5640,0.4106,39.0000,74,92,281226
1.5494,0.4008,39.0900,74,92,281230
1.5445,0.4057,39.1200,74,92,281233
1.5347,0.4350,39.1600,74,92,281236
1.5836,0.4057,38.9300,74,92,281240
1.5494,0.4057,39.0600,74,92,281243
1.5445,0.4106,39.0600,74,92,281246
1.5445,0.4057,39.1200,74,92,281250
1.5445,0.4106,39.1600,74,92,281253
1.5885,0.4106,39.0000,74,92,281256
1.5689,0.4057,39.0900,74,92,281260
1.5836,0.4106,38.9600,74,92,281264
1.5738,0.4106,39.1200,74,92,281267
1.5738,0.4057,39.1600,74,92,281270
1.5885,0.4008,39.0600,74,92,281274
1.5738,0.4057,39.0900,74,92,281277
1.5982,0.4154,39.0300,74,92,281280
1.5836,0.3910,39.1200,74,92,281284
1.6031,0.4057,39.1200,74,92,281287
1.6178,0.4154,38.9000,74,92,281290
1.5982,0.4106,39.1200,74,92,281293
1.6178,0.4106,38.9300,74,92,281297
1.5982,0.4106,39.0300,74,92,281300
1.5885,0.3959,39.1200,74,92,281304
1.6080,0.4106,39.1200,74,92,281308
1.5934,0.4350,39.1200,74,92,281311
1.6373,0.4154,38.9000,74,92,281314
1.6129,0.4106,39.0600,74,92,281318
1.6129,0.4057,39.1200,74,92,281321
1.6129,0.4057,39.1600,74,92,281324
1.6031,0.4008,39.1900,74,92,281328
1.6618,0.4203,38.8700,74,92,281331
1.6080,0.4057,39.0600,74,92,281334
1.6031,0.3959,39.0900,74,92,281337
1.6227,0.4106,39.0900,74,92,281341
1.6227,0.4057,39.1200,74,92,281345
1.7009,0.4057,38.9600,74,92,281348
1.6422,0.4106,39.0900,74,92,281352
1.6373,0.4057,39.0600,74,92,281355
1.6276,0.3861,39.1200,74,92,281358
1.6276,0.4057,39.0300,74,92,281362
1.6618,0.4154,38.9300,74,92,281365
1.6373,0.4057,39.0900,74,92,281368
1.6520,0.4154,38.9600,74,92,281372
1.6422,0.4057,39.1200,74,92,281375
1.6373,0.4057,39.1600,74,92,281378
1.6520,0.4057,39.0600,74,92,281381
1.6422,0.4057,39.1200,74,92,281385
1.6569,0.4057,39.0000,74,92,281389
1.6373,0.4106,39.1200,74,92,281392
1.6325,0.4057,39.1200,74,92,281396
1.6471,0.4106,38.9300,74,92,281399
1.6569,0.3959,39.1200,74,92,281402
1.6569,0.4106,38.9300,74,92,281406
1.6373,0.4057,39.1200,74,92,281409
1.6422,0.4057,39.1200,74,92,281412
1.6667,0.4154,39.0600,74,92,281416
1.6618,0.3861,39.1200,74,92,281419
1.7155,0.4154,38.9000,74,92,281422
1.7009,0.4106,39.0300,74,92,281425
1.6960,0.4057,39.1600,74,92,281430
1.7107,0.4008,39.1200,74,92,281433
1.7155,0.4057,39.1200,74,92,281436
1.7742,0.4252,38.9000,74,92,281440
1.7546,0.4154,39.0900,74,92,281443
1.7742,0.4008,39.0600,74,92,281446
1.7889,0.4057,39.0900,74,92,281450
1.7937,0.4057,39.1600,74,92,281453
1.8719,0.4106,38.9600,74,92,281456
1.8182,0.4057,39.0600,74,92,281459
1.8084,0.4057,39.0300,74,92,281463
1.7986,0.4057,39.1200,74,92,281466
1.7742,0.4057,38.5500,74,92,281469
1.7742,0.4106,39.0600,74,92,281474
1.7400,0.4057,39.1200,74,92,281477
1.7498,0.4106,38.9600,74,92,281480
1.7204,0.4057,39.1200,74,92,281484
1.7155,0.4057,39.1200,74,92,281487
1.7351,0.4154,39.0000,74,92,281490
1.6373,0.4106,39.0900,74,92,281495
1.6178,0.3861,39.1200,74,92,281498
1.6471,0.4154,38.8700,74,92,281502
1.6031,0.4008,39.0900,74,92,281505
1.5787,0.4057,39.1600,74,92,281508
1.5787,0.4057,39.1200,74,92,281511
1.5591,0.4057,39.1200,74,92,281516
1.5934,0.4252,38.8700,74,92,281519
1.5543,0.4057,39.0900,74,92,281522
1.5396,0.4008,39.0600,74,92,281526
1.5445,0.4057,39.1200,74,92,281529
1.5298,0.4057,39.1200,74,92,281532
1.5591,0.4203,39.0000,74,92,281536
1.5543,0.4106,39.0900,74,92,281539
1.5543,0.4057,39.0600,74,92,281542
1.5396,0.4252,39.0900,74,92,281546
1.5494,0.4057,39.1600,74,92,281549
1.5689,0.4154,38.9600,74,92,281552
1.5494,0.4106,39.1200,74,92,281556
1.5689,0.4154,39.0000,74,92,281560
1.5494,0.4057,39.2200,74,92,281563
1.5543,0.4106,39.1200,74,92,281566
1.5738,0.4106,39.0300,74,92,281570
1.5689,0.4057,39.1900,74,92,281573
1.5885,0.4057,38.9600,74,92,281576
1.5836,0.4057,39.0900,74,92,281580
1.5934,0.4008,39.1200,74,92,281583
1.6031,0.4106,39.0600,74,92,281586
1.5787,0.4057,39.1600,74,92,281590
1.5934,0.4154,38.9000,74,92,281593
1.5787,0.4008,39.0900,74,92,281596
1.6325,0.4008,39.0900,74,92,281600
1.7058,0.4301,39.1200,74,92,281604
1.7693,0.4057,39.1200,74,92,281607
1.9159,0.4203,38.9600,74,92,281610
2.0283,0.4106,39.0600,74,92,281614
2.1701,0.4008,39.1200,74,92,281617
2.3412,0.4057,39.2800,74,92,281620
2.4927,0.4106,39.1200,74,92,281624
2.6735,0.4252,38.9300,74,92,281627
2.5660,0.4350,39.0600,74,92,281630
2.3851,0.4008,39.0900,74,92,281633
2.1408,0.4057,39.1200,74,92,281637
1.8671,0.4057,39.1200,74,92,281640
1.6667,0.4154,39.0000,74,92,281644
1.4858,0.4057,39.0900,74,92,281648
1.4272,0.4057,39.0300,74,92,281651
