ecg,gsr,temp,hr,spo2,timest
1.7400,0.0000,39.5100,74,98,192276
1.7107,0.0000,39.6000,74,98,192279
1.7107,0.0000,39.6700,74,98,192283
1.7302,0.0049,39.6000,74,98,192286
1.7155,0.0000,39.6700,74,98,192289
1.7449,0.0000,39.5700,74,98,192292
1.7107,0.0049,39.6400,74,98,192296
1.7204,0.0000,39.7000,74,98,192300
1.7351,0.0000,39.5400,74,98,192303
1.7302,0.0000,39.7700,74,98,192306
1.7644,0.0000,39.5700,74,98,192310
1.7400,0.0000,39.6700,74,98,192313
1.7498,0.0049,39.6700,74,98,192316
1.7791,0.0049,39.5400,74,98,192319
1.7546,0.0244,39.6700,74,98,192323
1.7840,0.0000,39.4800,74,98,192326
1.7742,0.0196,39.5400,74,98,192329
1.7742,0.0000,39.6700,74,98,192333
1.7937,0.0049,39.5700,74,98,192336
1.7889,0.0000,39.8600,74,98,192339
1.8231,0.0000,39.4800,74,98,192343
1.7986,0.0000,39.6000,74,98,192347
1.7986,0.0196,39.6700,74,98,192350
1.8280,0.0147,39.6000,74,98,192353
1.8084,0.0000,39.6700,74,98,192356
1.8426,0.0000,39.4800,74,98,192360
1.8084,0.0098,39.6700,74,98,192363
1.8182,0.0000,39.6700,74,98,192366
1.8426,0.0391,39.6400,74,98,192370
1.8231,0.0000,39.6700,74,98,192373
1.8719,0.0049,39.4400,74,98,192376
1.8524,0.0049,40.0000,74,98,192379
1.8377,0.0000,39.5100,74,98,192384
1.8524,0.0293,39.6000,74,98,192387
1.8475,0.0000,39.6700,74,98,192390
1.9013,0.0049,39.4100,74,98,192393
1.8622,0.0000,39.6000,74,98,192397
1.8622,0.0000,39.5400,74,98,192400
1.8866,0.0049,39.6400,74,98,192403
1.8622,0.0000,39.6700,74,98,192407
1.9110,0.0049,39.4400,74,98,192410
1.8719,0.0000,39.5700,74,98,192413
1.8671,0.0000,39.6700,74,98,192416
1.8719,0.0049,39.7300,74,98,192420
1.8573,0.0000,39.6400,74,98,192423
1.9159,0.0244,39.4400,74,98,192427
1.8768,0.0049,39.5700,74,98,192431
1.8622,0.0000,39.6000,74,98,192434
1.8622,0.0049,39.6000,74,98,192437
1.8573,0.0000,39.6700,74,98,192440
1.9110,0.0098,39.5700,74,98,192444
1.8719,0.0000,39.6400,74,98,192447
1.8719,0.0000,39.6000,74,98,192450
1.8719,0.0049,39.7000,74,98,192453
1.8622,0.0000,39.6700,74,98,192457
1.9013,0.0147,39.5100,74,98,192460
1.8817,0.0049,39.7300,74,98,192463
1.8719,0.0098,39.5700,74,98,192467
1.8573,0.0049,39.6700,74,98,192471
1.8524,0.0000,39.7700,74,98,192474
1.8817,0.0098,39.6000,74,98,192477
1.8524,0.0049,39.6400,74,98,192481
1.8622,0.0000,39.6700,74,98,192484
1.8426,0.0000,39.6400,74,98,192487
1.8426,0.0000,39.7000,74,98,192490
1.8817,0.0049,39.4800,74,98,192494
1.8475,0.0000,39.0900,74,98,192497
1.8622,0.0000,39.5400,74,98,192500
1.8475,0.0000,39.6700,74,98,192504
1.8475,0.0000,39.6000,74,98,192507
1.8817,0.0098,39.6400,74,98,192510
1.8622,0.0049,39.6400,74,98,192514
1.8866,0.0000,39.5400,74,98,192518
1.8524,0.0049,39.6400,74,98,192521
1.8573,0.0000,39.8000,74,98,192524
1.8817,0.0049,39.6000,74,98,192527
1.8622,0.0049,39.6700,74,98,192531
1.8866,0.0049,39.6400,74,98,192534
1.8866,0.0000,39.6700,74,98,192537
1.8573,0.0049,39.6700,74,98,192541
1.8866,0.0098,39.5400,74,98,192544
1.8622,0.0000,39.6400,74,98,192547
1.8915,0.0000,39.5700,74,98,192550
1.8671,0.0000,39.6400,74,98,192555
1.8573,0.0049,39.6700,74,98,192558
1.8768,0.0049,39.5400,74,98,192561
1.8573,0.0000,39.6400,74,98,192565
1.8768,0.0000,39.5100,74,98,192568
1.8426,0.0000,39.7700,74,98,192571
1.8475,0.0000,39.6700,74,98,192574
1.8573,0.0049,39.5400,74,98,192578
1.8524,0.0049,39.7000,74,98,192581
1.8866,0.0000,39.5100,74,98,192584
1.8671,0.0049,39.6700,74,98,192587
1.8817,0.0000,39.6700,74,98,192591
1.9013,0.0098,39.5700,74,98,192594
1.8768,0.0000,39.6400,74,98,192598
1.9306,0.0098,39.4800,74,98,192602
1.8866,0.0000,39.5700,74,98,192605
1.8817,0.0049,39.6400,74,98,192608
1.9013,0.0098,39.8000,74,98,192611
1.8915,0.0000,39.6400,74,98,192615
1.9355,0.0049,39.3800,74,98,192618
1.8915,0.0000,39.6400,74,98,192621
1.8768,0.0000,39.6700,74,98,192624
1.8866,0.0098,39.6000,74,98,192628
1.8573,0.0000,39.7000,74,98,192631
1.9062,0.0049,39.4400,74,98,192634
1.8622,0.0000,39.5700,74,98,192638
1.8768,0.0000,39.7700,74,98,192642
1.8915,0.0098,39.7000,74,98,192645
1.8768,0.0147,39.6700,74,98,192648
1.9306,0.0098,39.4400,74,98,192652
1.8964,0.0049,39.5700,74,98,192655
1.8768,0.0000,39.6700,74,98,192658
1.8719,0.0049,39.6400,74,98,192662
1.8573,0.0000,39.6700,74,98,192665
1.9062,0.0147,39.4400,74,98,192668
1.8524,0.0098,39.6400,74,98,192671
1.8426,0.0000,39.6000,74,98,192675
1.8377,0.0049,39.6700,74,98,192678
1.8328,0.0000,39.6700,74,98,192681
1.8817,0.0538,39.4800,74,98,192685
1.8426,0.0147,39.5700,74,98,192689
1.8377,0.0000,39.6000,74,98,192692
1.8280,0.0049,39.7700,74,98,192695
1.8377,0.0098,39.6700,74,98,192699
1.8719,0.0147,39.5700,74,98,192702
1.8426,0.0049,39.6700,74,98,192705
1.8524,0.0147,39.5700,74,98,192709
1.8328,0.0049,39.6700,74,98,192712
1.8426,0.0000,39.6700,74,98,192715
1.8768,0.0098,39.5100,74,98,192718
1.8426,0.0440,39.6700,74,98,192722
1.8671,0.0098,39.5400,74,98,192726
1.8426,0.0049,39.6700,74,98,192729
1.8426,0.0000,39.7300,74,98,192733
1.8817,0.0147,39.5700,74,98,192736
1.8964,0.0000,39.6700,74,98,192739
1.9844,0.0098,39.5400,74,98,192742
2.0528,0.0000,39.6700,74,98,192746
2.1261,0.0000,39.7000,74,98,192749
2.2287,0.0000,39.5700,74,98,192752
2.3216,0.0049,39.6700,74,98,192755
2.4585,0.0049,39.5700,74,98,192759
2.5464,0.0196,39.6700,74,98,192762
2.6735,0.0000,39.7000,74,98,192765
2.7566,0.0147,39.5700,74,98,192770
2.6344,0.0049,39.6700,74,98,192773
2.4536,0.0000,39.4800,74,98,192776
2.1554,0.0000,39.5700,74,98,192779
1.9062,0.0000,39.6700,74,98,192783
1.7644,0.0098,39.5700,74,98,192786
1.6618,0.0049,39.6700,74,98,192789
1.6764,0.0049,39.6000,74,98,192793
1.6764,0.0196,39.6400,74,98,192796
1.7155,0.0000,39.6700,74,98,192799
1.7498,0.0196,39.5700,74,98,192802
1.7400,0.0049,39.6700,74,98,192806
1.7889,0.0049,39.4800,74,98,192809
1.7546,0.0000,39.6400,74,98,192813
1.7595,0.0000,39.6700,74,98,192817
1.7693,0.0098,39.8000,74,98,192820
1.7546,0.0049,39.7700,74,98,192823
1.7546,0.0000,39.6700,74,98,192827
1.8035,0.0147,39.5400,74,98,192830
1.7644,0.0049,39.6000,74,98,192833
1.7693,0.0000,39.5700,74,98,192837
1.7937,0.0098,39.7000,74,98,192840
1.7742,0.0049,39.6700,74,98,192843
1.8133,0.0098,39.5400,74,98,192846
1.7937,0.0049,39.6400,74,98,192850
1.8182,0.0000,39.6000,74,98,192854
1.7937,0.0049,39.6400,74,98,192857
1.7986,0.0000,39.7300,74,98,192861
1.8231,0.0147,39.5700,74,98,192864
1.8084,0.0049,39.6700,74,98,192867
1.8377,0.0098,39.5700,74,98,192870
1.8133,0.0049,39.7000,74,98,192874
1.8231,0.0049,39.7700,74,98,192877
1.8622,0.0049,39.5400,74,98,192880
1.8328,0.0098,39.8000,74,98,192884
1.8719,0.0049,39.5100,74,98,192887
1.8475,0.0098,39.6000,74,98,192890
1.8573,0.0000,39.7300,74,98,192894
1.8768,0.0098,39.6000,74,98,192898
1.8622,0.0049,39.6700,74,98,192901
1.8915,0.0000,39.5100,74,98,192904
1.8622,0.0000,39.6700,74,98,192908
1.8964,0.0000,39.6700,74,98,192911
1.8964,0.0098,39.5400,74,98,192914
1.9159,0.0049,39.6700,74,98,192917
1.9208,0.0049,39.4800,74,98,192921
1.8964,0.0244,39.6700,74,98,192924
1.9013,0.0098,39.6700,74,98,192927
1.9306,0.0098,39.6400,74,98,192931
1.9208,0.0196,39.6700,74,98,192934
1.9746,0.0049,39.4100,74,98,192937
1.9501,0.0098,39.0300,74,98,192942
1.9404,0.0049,39.6700,74,98,192945
1.9599,0.0098,39.6700,74,98,192948
1.9550,0.0049,39.6700,74,98,192951
2.0137,0.0098,39.3200,74,98,192955
1.9844,0.0049,39.6000,74,98,192958
1.9746,0.0000,39.6700,74,98,192961
1.9892,0.0098,39.6400,74,98,192965
1.9795,0.0049,39.6700,74,98,192968
2.0381,0.0196,39.4100,74,98,192971
2.0039,0.0147,39.5700,74,98,192974
1.9844,0.0000,39.6000,74,98,192978
1.9844,0.0098,39.6700,74,98,192982
1.9697,0.0049,39.7300,74,98,192985
2.0186,0.0538,39.5700,74,98,192989
1.9746,0.0098,39.6400,74,98,192992
1.9697,0.0000,39.5700,74,98,192995
1.9550,0.0049,39.6700,74,98,192998
1.9501,0.0049,39.7000,74,98,193002
1.9795,0.0147,39.4800,74,98,193005
1.9355,0.0049,39.6700,74,98,193008
1.9404,0.0049,39.5400,74,98,193012
1.9062,0.0049,39.7700,74,98,193015
1.8866,0.0049,39.6700,74,98,193018
1.8964,0.0147,39.6000,74,98,193022
1.8573,0.0049,39.6400,74,98,193026
1.8573,0.0098,39.5700,74,98,193029
1.8231,0.0049,39.7000,74,98,193032
1.7986,0.0049,39.6700,74,98,193036
1.7840,0.0049,39.4800,74,98,193039
1.7546,0.0000,39.6700,74,98,193042
1.7644,0.0049,39.7700,74,98,193046
1.7204,0.0049,39.6700,74,98,193049
1.7058,0.0049,39.7000,74,98,193052
1.7107,0.0049,39.6000,74,98,193055
1.6716,0.0049,39.6400,74,98,193059
1.6960,0.0049,39.4400,74,98,193062
1.6667,0.0049,39.5400,74,98,193065
1.6520,0.0000,39.7000,74,98,193070
1.6569,0.0196,39.6400,74,98,193073
1.6422,0.0049,39.6700,74,98,193076
1.6813,0.0098,39.3500,74,98,193080
1.6471,0.0098,39.6000,74,98,193083
1.6422,0.0000,39.6700,74,98,193086
1.6618,0.0098,39.6000,74,98,193089
1.6422,0.0098,39.6700,74,98,193093
1.7009,0.0196,39.4400,74,98,193096
1.6569,0.0049,39.6400,74,98,193099
1.6569,0.0000,39.6700,74,98,193103
1.6667,0.0244,39.6700,74,98,193106
1.6618,0.0049,39.8300,74,98,193110
1.7155,0.0244,39.4100,74,98,193113
1.6862,0.0147,39.5400,74,98,193117
1.6764,0.0000,39.6400,74,98,193120
1.6813,0.0098,39.5700,74,98,193123
1.6813,0.0147,39.7000,74,98,193127
1.7302,0.0147,39.4800,74,98,193130
1.6960,0.0000,39.5700,74,98,193133
1.7107,0.0049,39.5700,74,98,193136
1.7058,0.0098,39.6400,74,98,193140
1.7009,0.0000,39.6700,74,98,193143
1.7400,0.0147,39.5400,74,98,193146
1.7204,0.0098,39.6000,74,98,193150
1.7498,0.0098,39.5700,74,98,193154
1.7204,0.0098,39.6700,74,98,193157
1.7204,0.0244,39.6700,74,98,193160
1.7546,0.0147,39.6400,74,98,193164
1.7351,0.0098,39.6700,74,98,193167
1.7644,0.0342,39.5700,74,98,193170
1.7400,0.0049,39.6700,74,98,193174
1.7498,0.0049,38.8100,74,98,193177
1.7791,0.0244,39.5700,74,98,193180
1.7546,0.0049,39.7000,74,98,193184
1.7889,0.0049,39.5400,74,98,193187
1.7595,0.0538,39.5700,74,98,193190
1.7595,0.0049,39.7000,74,98,193193
1.7791,0.0098,38.8100,74,98,193198
1.7693,0.0049,39.6700,74,98,193201
1.8035,0.0098,39.4800,74,98,193204
1.7742,0.0049,39.6000,74,98,193208
1.7742,0.0049,39.7300,74,98,193211
1.7986,0.0244,39.5700,74,98,193214
1.8035,0.0098,39.6700,74,98,193218
1.8035,0.0098,39.4100,74,98,193221
1.7644,0.0000,39.5700,74,98,193224
1.7742,0.0049,38.9000,74,98,193227
1.7840,0.0147,39.5400,74,98,193231
1.7693,0.0049,39.6700,74,98,193234
1.8231,0.0147,39.4400,74,98,193238
1.7840,0.0098,39.5400,74,98,193242
1.7693,0.0049,39.6700,74,98,193245
1.7644,0.0098,39.7300,74,98,193248
1.7595,0.0098,39.6700,74,98,193251
1.8231,0.0147,39.5100,74,98,193255
1.7693,0.0098,39.7700,74,98,193258
1.7693,0.0098,39.6000,74,98,193261
1.7595,0.0098,39.6400,74,98,193265
1.7595,0.0049,39.6700,74,98,193268
1.7937,0.0147,39.5400,74,98,193271
1.7840,0.0147,39.6700,74,98,193275
1.7889,0.0049,39.5700,74,98,193278
1.7693,0.0147,39.6400,74,98,193282
1.7742,0.0049,39.6700,74,98,193285
1.7937,0.0147,39.6400,74,98,193289
1.7986,0.0049,39.6400,74,98,193292
1.8035,0.0098,39.5400,74,98,193295
1.7742,0.0049,39.9300,74,98,193299
1.7693,0.0196,39.7000,74,98,193302
1.7937,0.0147,39.5400,74,98,193305
1.7644,0.0098,39.6700,74,98,193309
1.7889,0.0098,39.5100,74,98,193312
1.7742,0.0049,39.6000,74,98,193315
1.7693,0.0049,39.6700,74,98,193318
1.7840,0.0147,39.6000,74,98,193323
1.7791,0.0049,39.7000,74,98,193326
1.8084,0.0049,39.4800,74,98,193329
1.7840,0.0049,39.6400,74,98,193333
1.7840,0.0098,39.6700,74,98,193336
1.8084,0.0049,39.5700,74,98,193339
1.7840,0.0049,39.7000,74,98,193342
1.8231,0.0098,39.4400,74,98,193346
1.7791,0.0000,39.6400,74,98,193349
1.7840,0.0049,39.7700,74,98,193352
1.7937,0.0147,39.6400,74,98,193356
1.7889,0.0049,39.7000,74,98,193359
1.8377,0.0147,39.3800,74,98,193362
1.8133,0.0098,39.6000,74,98,193367
1.7889,0.0000,39.6400,74,98,193370
1.7840,0.0098,39.6400,74,98,193373
1.7791,0.0049,39.7300,74,98,193376
1.8328,0.0244,39.5700,74,98,193380
1.7937,0.0098,39.6400,74,98,193383
1.7937,0.0000,39.5700,74,98,193386
1.8084,0.0098,39.7000,74,98,193390
1.8133,0.0049,39.6700,74,98,193393
1.8719,0.0196,39.4800,74,98,193396
1.8475,0.0049,39.5700,74,98,193399
1.8426,0.0049,39.5700,74,98,193403
1.8280,0.0635,39.7000,74,98,193406
1.8280,0.0049,39.6700,74,98,193410
1.8524,0.0147,39.6400,74,98,193414
1.8475,0.0098,39.6700,74,98,193417
1.8573,0.0049,39.5400,74,98,193420
1.8280,0.0098,39.6400,74,98,193424
1.8328,0.0049,39.6700,74,98,193427
1.8573,0.0147,39.8900,74,98,193430
1.8328,0.0147,39.6400,74,98,193435
1.8328,0.0049,39.6700,74,98,193438
1.8768,0.0098,39.4100,74,98,193441
1.8426,0.0098,39.5400,74,98,193445
1.8377,0.0049,39.6700,74,98,193448
1.8475,0.0098,39.6000,74,98,193452
1.8231,0.0049,39.6700,74,98,193456
1.8671,0.0147,39.4800,74,98,193459
1.8231,0.0098,39.5700,74,98,193462
1.8133,0.0000,39.6700,74,98,193466
1.8133,0.0098,39.7000,74,98,193469
1.7986,0.0049,39.3200,74,98,193472
1.8524,0.0147,39.4400,74,98,193475
1.8133,0.0147,39.6000,74,98,193479
1.8035,0.0000,39.6400,74,98,193482
1.8035,0.0098,39.6700,74,98,193485
1.8084,0.0049,39.6700,74,98,193489
1.8622,0.0244,39.5100,74,98,193492
1.8231,0.0098,39.6400,74,98,193496
1.8328,0.0049,39.8600,74,98,193499
1.8231,0.0147,39.6400,74,98,193503
1.8280,0.0049,39.6700,74,98,193506
1.8524,0.0391,39.5400,74,98,193509
1.8231,0.0196,39.6700,74,98,193513
1.8475,0.0049,39.5100,74,98,193516
1.8231,0.0196,39.6700,74,98,193519
1.8328,0.0049,39.8600,74,98,193523
1.8524,0.0147,39.6000,74,98,193526
1.8622,0.0098,39.6700,74,98,193529
1.9306,0.0049,39.5700,74,98,193532
1.9648,0.0098,39.6700,74,98,193537
2.0626,0.0098,39.6700,74,98,193540
2.1848,0.0147,39.5700,74,98,193543
2.2434,0.0049,39.6700,74,98,193547
2.3803,0.0000,39.5100,74,98,193550
2.4780,0.0049,39.5700,74,98,193553
2.5904,0.0098,39.7000,74,98,193557
2.7224,0.0147,39.6000,74,98,193560
2.7077,0.0049,39.0600,74,98,193563
2.6051,0.0098,39.4800,74,98,193566
2.3118,0.0098,39.7000,74,98,193570
2.0332,0.0098,39.7000,74,98,193573
1.8280,0.0196,39.6400,74,98,193576
1.6764,0.0049,39.8000,74,98,193581
1.6764,0.0098,39.5400,74,98,193584
1.6520,0.0098,39.5700,74,98,193587
1.7107,0.0098,39.6700,74,98,193590
1.7155,0.0098,39.8600,74,98,193594
1.7351,0.0000,39.6700,74,98,193597
1.7986,0.0147,39.3800,74,98,193600
1.7791,0.0049,39.6400,74,98,193604
1.7644,0.0000,39.6400,74,98,193607
1.7693,0.0098,39.5700,74,98,193610
1.7693,0.0049,39.7300,74,98,193613
1.8231,0.0244,39.5100,74,98,193617
1.7840,0.0098,39.6400,74,98,193620
1.7889,0.0000,39.6000,74,98,193624
1.7840,0.0098,39.6700,74,98,193628
1.7889,0.0049,39.7300,74,98,193631
1.8328,0.0196,39.5400,74,98,193634
1.8133,0.0147,39.6000,74,98,193637
1.8133,0.0049,39.6000,74,98,193641
1.8035,0.0098,39.6700,74,98,193644
1.8084,0.0049,39.6700,74,98,193647
1.8328,0.0147,39.6000,74,98,193651
1.8231,0.0098,39.6400,74,98,193654
1.8475,0.0098,39.5700,74,98,193657
1.8231,0.0098,39.7000,74,98,193661
1.8328,0.0049,39.6700,74,98,193665
1.8719,0.0196,39.5100,74,98,193668
1.8524,0.0098,39.6400,74,98,193671
1.8866,0.0098,39.7700,74,98,193675
1.8573,0.0098,39.6400,74,98,193678
1.8622,0.0049,39.7000,74,98,193681
1.8768,0.0147,39.7000,74,98,193685
1.8671,0.0098,39.6000,74,98,193688
1.9013,0.0049,39.5100,74,98,193691
1.8768,0.0049,39.6700,74,98,193695
1.8817,0.0049,39.6700,74,98,193698
1.9306,0.0196,39.5400,74,98,193701
1.8915,0.0049,39.6700,74,98,193704
1.9355,0.0098,39.5400,74,98,193709
1.8915,0.0000,39.6400,74,98,193712
1.9062,0.0147,39.6700,74,98,193715
1.9501,0.0049,39.6700,74,98,193719
1.9257,0.0049,39.6700,74,98,193722
1.9844,0.0147,39.4100,74,98,193725
1.9501,0.0147,39.5700,74,98,193728
1.9550,0.0049,39.6700,74,98,193732
1.9648,0.0538,39.6700,74,98,193735
1.9648,0.0098,39.7000,74,98,193738
2.0381,0.0244,39.4800,74,98,193742
1.9941,0.0147,39.6400,74,98,193745
2.0039,0.0000,39.6400,74,98,193748
2.0088,0.0342,39.6400,74,98,193752
2.0137,0.0196,39.7000,74,98,193756
2.0723,0.0244,39.5100,74,98,193759
2.0479,0.0147,39.6400,74,98,193762
2.0528,0.0098,39.5400,74,98,193766
2.0430,0.0049,39.6700,74,98,193769
2.0430,0.0098,39.8900,74,98,193772
2.0772,0.0147,39.6000,74,98,193776
2.0528,0.0049,39.6700,74,98,193779
2.0674,0.0098,39.5700,74,98,193782
2.0479,0.0098,39.6700,74,98,193785
2.0479,0.0049,39.6700,74,98,193789
2.0821,0.0147,39.4400,74,98,193793
2.0430,0.0147,39.6700,74,98,193796
2.0723,0.0147,39.5400,74,98,193800
2.0283,0.0098,39.6700,74,98,193803
2.0283,0.0147,39.6700,74,98,193806
2.0430,0.0147,39.6000,74,98,193809
2.0186,0.0098,39.6700,74,98,193813
2.0332,0.0049,39.6400,74,98,193816
1.9844,0.0391,39.6400,74,98,193819
1.9746,0.0049,39.6700,74,98,193823
1.9795,0.0098,39.4800,74,98,193826
1.9404,0.0098,39.6400,74,98,193829
1.9648,0.0098,39.4800,74,98,193833
1.9110,0.0098,39.7000,74,98,193837
1.8964,0.0000,39.6700,74,98,193840
1.8964,0.0147,39.6400,74,98,193843
1.8573,0.0098,39.6700,74,98,193847
1.8817,0.0147,39.4100,74,98,193850
1.8328,0.0147,39.5700,74,98,193853
1.8035,0.0098,39.6700,74,98,193857
1.7889,0.0196,39.6400,74,98,193860
1.7742,0.0098,39.6700,74,98,193863
1.8133,0.0147,38.5500,74,98,193867
1.7693,0.0098,39.7000,74,98,193870
1.7546,0.0000,39.6400,74,98,193873
1.7546,0.0196,39.7000,74,98,193876
1.7449,0.0098,39.6700,74,98,193881
1.7986,0.0244,39.4800,74,98,193884
1.7791,0.0196,39.6400,74,98,193887
1.7595,0.0049,39.6700,74,98,193891
1.7498,0.0147,39.6700,74,98,193894
1.7449,0.0098,39.6000,74,98,193897
1.7742,0.0342,39.5700,74,98,193901
1.7449,0.0098,39.6000,74,98,193904
1.7644,0.0049,39.5700,74,98,193907
1.7498,0.0098,39.6700,74,98,193910
1.7546,0.0049,39.7000,74,98,193914
1.7889,0.0196,39.5700,74,98,193917
1.8035,0.0049,39.7000,74,98,193921
1.8280,0.0147,39.5700,74,98,193925
1.7742,0.0049,39.6700,74,98,193928
1.7742,0.0098,39.6400,74,98,193931
1.7937,0.0147,39.6000,74,98,193935
1.7840,0.0098,39.6700,74,98,193938
1.8084,0.0049,39.4800,74,98,193941
1.7889,0.0147,39.6400,74,98,193944
1.8035,0.0049,39.6700,74,98,193948
1.8280,0.0098,39.7000,74,98,193951
1.8133,0.0098,39.6700,74,98,193954
1.8475,0.0049,39.4400,74,98,193958
1.8182,0.0098,39.9600,74,98,193961
1.8231,0.0098,39.6700,74,98,193965
1.8524,0.0147,39.6400,74,98,193968
1.8231,0.0098,39.7300,74,98,193972
1.8719,0.0196,39.4100,74,98,193975
1.8475,0.0098,39.5700,74,98,193978
1.8328,0.0049,39.7700,74,98,193982
1.8671,0.0098,39.6700,74,98,193985
1.8328,0.0049,39.6700,74,98,193988
1.8866,0.0244,39.4100,74,98,193992
1.8377,0.0098,39.6000,74,98,193995
1.8377,0.0049,39.6400,74,98,193998
1.8426,0.0147,39.6400,74,98,194001
1.8328,0.0244,39.6700,74,98,194006
1.8866,0.0147,39.5400,74,98,194009
1.8573,0.0147,39.6700,74,98,194012
1.8915,0.0098,39.5700,74,98,194016
1.8426,0.0098,39.6700,74,98,194019
1.8426,0.0049,39.6400,74,98,194022
1.8671,0.0244,39.6000,74,98,194026
1.8475,0.0147,39.6700,74,98,194029
1.8573,0.0098,39.5400,74,98,194032
1.8622,0.0098,39.6700,74,98,194036
1.8328,0.0098,39.6700,74,98,194039
1.8622,0.0196,39.5400,74,98,194042
1.8328,0.0049,39.6400,74,98,194048
1.8231,0.0098,39.6400,74,98,194051
1.8622,0.0098,39.5700,74,98,194054
1.8280,0.0196,39.6400,74,98,194058
1.8182,0.0049,39.7000,74,98,194061
1.8328,0.0147,39.6000,74,98,194064
1.8133,0.0098,39.6400,74,98,194068
1.8622,0.0147,39.3500,74,98,194071
1.8182,0.0098,39.5400,74,98,194074
1.8280,0.0098,39.6700,74,98,194078
1.8084,0.0098,39.6400,74,98,194081
1.8035,0.0098,39.6700,74,98,194084
1.8573,0.0391,39.4400,74,98,194087
1.8133,0.0147,39.5700,74,98,194092
1.8133,0.0049,39.6000,74,98,194095
1.8084,0.0098,39.6400,74,98,194098
1.8084,0.0098,39.7000,74,98,194102
1.8426,0.0147,39.5100,74,98,194105
1.8084,0.0098,39.6400,74,98,194108
1.8280,0.0049,39.5400,74,98,194112
1.8084,0.0098,39.6700,74,98,194115
1.8084,0.0098,39.7000,74,98,194118
1.8328,0.0147,39.5700,74,98,194121
1.8084,0.0049,39.7000,74,98,194125
1.8377,0.0098,39.5700,74,98,194128
1.8084,0.0098,39.6700,74,98,194131
1.8084,0.0000,39.6700,74,98,194136
1.8231,0.0098,39.6000,74,98,194139
1.8084,0.0098,39.6700,74,98,194142
1.8328,0.0244,39.6000,74,98,194145
1.8084,0.0098,39.6700,74,98,194149
1.8182,0.0098,39.7300,74,98,194152
1.8475,0.0098,39.5700,74,98,194155
1.8280,0.0098,39.6700,74,98,194159
1.8573,0.0049,39.5700,74,98,194162
1.8426,0.0196,39.5700,74,98,194165
1.8475,0.0049,39.6700,74,98,194168
1.8524,0.0342,39.6000,74,98,194172
1.8622,0.0049,39.7000,74,98,194176
1.8768,0.0098,39.4800,74,98,194179
1.8377,0.0147,39.6400,74,98,194183
1.8377,0.0098,39.7000,74,98,194186
1.8719,0.0196,39.6000,74,98,194189
1.8524,0.0098,39.6700,74,98,194193
1.9110,0.0147,39.4100,74,98,194196
1.8817,0.0049,39.5700,74,98,194199
1.8817,0.0098,39.6700,74,98,194202
1.8817,0.0098,39.6700,74,98,194206
1.9013,0.0098,39.7000,74,98,194209
1.9257,0.0244,39.4400,74,98,194212
1.8866,0.0147,39.5400,74,98,194216
1.8768,0.0098,39.6400,74,98,194220
1.8768,0.0098,39.6700,74,98,194223
1.8768,0.0098,39.6700,74,98,194227
1.9208,0.0147,40.0000,74,98,194230
1.8719,0.0196,39.6400,74,98,194233
1.8768,0.0098,39.5700,74,98,194236
1.8622,0.0147,39.8000,74,98,194240
1.8622,0.0147,39.6400,74,98,194243
1.8964,0.0147,39.5400,74,98,194246
1.8817,0.0147,39.8000,74,98,194250
1.8964,0.0098,39.5100,74,98,194253
1.8719,0.0196,39.6700,74,98,194256
1.8671,0.0098,39.6700,74,98,194260
1.8964,0.0049,39.6000,74,98,194264
1.8622,0.0098,39.6700,74,98,194267
1.8866,0.0147,39.5400,74,98,194270
1.8475,0.0098,39.6700,74,98,194274
1.8524,0.0098,39.6700,74,98,194277
1.8719,0.0147,39.5400,74,98,194280
1.8426,0.0098,39.6700,74,98,194284
1.8671,0.0098,39.5400,74,98,194287
1.8475,0.0098,39.5700,74,98,194290
1.8719,0.0049,39.7000,74,98,194294
1.8573,0.0147,39.6700,74,98,194297
1.8426,0.0098,39.7000,74,98,194300
1.8817,0.0147,39.4100,74,98,194304
1.8524,0.0147,39.6000,74,98,194308
1.8426,0.0098,39.6700,74,98,194311
1.8622,0.0196,39.5700,74,98,194314
1.8475,0.0098,39.7000,74,98,194318
1.9013,0.0147,39.3800,74,98,194321
1.8524,0.0049,39.5700,74,98,194324
1.8573,0.0049,39.6700,74,98,194327
1.8573,0.0147,39.7300,74,98,194331
1.8622,0.0049,39.7000,74,98,194334
1.9257,0.0244,39.4800,74,98,194337
1.8915,0.0147,39.6400,74,98,194341
1.9306,0.0000,39.6000,74,98,194344
1.9648,0.0098,39.6700,74,98,194348
2.0381,0.0049,39.6700,74,98,194352
2.1848,0.0196,39.5100,74,98,194355
2.2385,0.0049,39.6400,74,98,194358
2.3509,0.0098,39.5700,74,98,194361
2.4536,0.0098,39.6700,74,98,194365
2.5758,0.0098,39.7000,74,98,194368
2.7322,0.0147,38.7100,74,98,194371
2.7468,0.0147,39.6400,74,98,194375
2.6588,0.0098,38.9600,74,98,194378
2.3900,0.0098,39.6400,74,98,194381
2.1505,0.0098,39.7000,74,98,194385
1.8817,0.0098,39.6000,74,98,194388
1.6911,0.0098,39.6700,74,98,194392
1.6373,0.0147,39.1600,74,98,194395
1.6080,0.0098,39.6700,74,98,194399
1.6471,0.0098,39.6700,74,98,194402
1.7155,0.0147,39.5700,74,98,194405
1.7302,0.0098,39.7000,74,98,194409
1.7791,0.0098,39.5100,74,98,194412
1.7693,0.0098,39.6400,74,98,194415
1.7742,0.0049,39.6700,74,98,194418
1.7937,0.0147,39.6000,74,98,194422
1.7791,0.0098,39.7700,74,98,194425
1.8182,0.0098,39.4800,74,98,194428
1.7840,0.0147,39.6700,74,98,194433
1.7840,0.0098,39.7700,74,98,194436
1.8084,0.0147,39.6400,74,98,194439
1.7889,0.0049,39.7000,74,98,194443
1.8280,0.0196,39.4100,74,98,194446
1.7986,0.0440,39.5700,74,98,194449
1.7986,0.0098,39.6700,74,98,194452
1.8035,0.0147,39.6400,74,98,194456
1.8035,0.0098,39.6400,74,98,194459
1.8622,0.0293,39.4400,74,98,194462
1.8231,0.0147,39.6400,74,98,194466
1.8231,0.0098,39.6400,74,98,194469
1.8280,0.0147,39.6400,74,98,194472
1.8328,0.0098,39.6700,74,98,194477
1.9062,0.0196,39.5100,74,98,194480
1.8426,0.0147,39.5700,74,98,194483
1.8573,0.0440,39.5700,74,98,194486
1.8426,0.0049,39.6700,74,98,194490
1.8475,0.0098,39.6700,74,98,194493
1.8719,0.0440,39.5100,74,98,194496
1.8817,0.0049,39.6700,74,98,194500
1.8866,0.0098,39.5700,74,98,194503
1.8524,0.0098,39.1200,74,98,194506
1.8671,0.0098,39.6700,74,98,194510
1.8817,0.0098,39.5400,74,98,194513
1.8915,0.0098,39.6700,74,98,194516
1.9306,0.0098,39.4800,74,98,194520
1.9208,0.0196,39.6700,74,98,194524
1.9208,0.0098,39.7700,74,98,194527
1.9453,0.0147,39.5400,74,98,194530
1.9306,0.0147,38.8100,74,98,194534
1.9697,0.0098,39.4400,74,98,194537
1.9453,0.0147,39.5700,74,98,194540
1.9404,0.0098,39.6700,74,98,194544
1.9599,0.0244,39.6000,74,98,194547
1.9697,0.0049,39.7000,74,98,194550
2.0088,0.0147,39.4100,74,98,194553
1.9697,0.0098,39.7000,74,98,194557
1.9746,0.0049,39.6700,74,98,194561
1.9990,0.0196,39.6400,74,98,194564
1.9892,0.0098,39.7000,74,98,194568
2.0528,0.0147,39.4400,74,98,194571
2.0186,0.0147,39.5700,74,98,194574
2.0137,0.0000,39.6000,74,98,194578
2.0235,0.0147,39.6400,74,98,194581
2.0137,0.0098,39.0600,74,98,194584
2.0772,0.0244,39.8900,74,98,194587
2.0283,0.0147,39.6000,74,98,194591
2.0186,0.0098,39.6400,74,98,194594
2.0137,0.0147,39.6700,74,98,194597
2.0137,0.0098,39.6400,74,98,194601
2.0577,0.0147,39.4800,74,98,194605
2.0137,0.0147,39.6400,74,98,194608
2.0283,0.0098,39.5700,74,98,194611
2.0088,0.0098,39.1200,74,98,194615
2.0039,0.0049,39.2200,74,98,194618
2.0283,0.0196,39.5400,74,98,194621
1.9941,0.0098,39.6400,74,98,194625
1.9990,0.0098,39.6000,74,98,194628
1.9648,0.0147,39.7300,74,98,194631
1.9550,0.0098,39.6700,74,98,194634
1.9501,0.0098,39.5700,74,98,194638
1.9208,0.0098,39.6700,74,98,194641
1.9306,0.0147,39.6000,74,98,194644
1.8817,0.0098,39.6700,74,98,194649
1.8671,0.0098,39.6400,74,98,194652
1.8768,0.0147,39.5700,74,98,194655
1.7791,0.0147,39.6400,74,98,194660
1.7498,0.0098,39.6700,74,98,194663
1.7791,0.0147,39.4800,74,98,194667
1.7302,0.0098,39.6400,74,98,194670
1.7155,0.0098,39.6700,74,98,194673
1.7204,0.0147,39.6400,74,98,194676
1.7351,0.0147,39.6700,74,98,194680
1.7595,0.0293,39.4400,74,98,194683
1.7253,0.0196,39.5700,74,98,194686
1.7204,0.0049,39.6000,74,98,194691
1.7204,0.0147,39.7000,74,98,194694
1.7155,0.0098,39.7000,74,98,194697
1.7644,0.0244,39.5700,74,98,194701
1.7351,0.0147,39.6700,74,98,194704
1.7351,0.0098,39.6000,74,98,194707
1.7204,0.0098,39.6700,74,98,194710
1.7302,0.0098,39.6700,74,98,194714
1.7693,0.0196,39.5400,74,98,194717
1.7400,0.0147,39.6700,74,98,194720
1.7791,0.0098,39.5400,74,98,194724
1.7546,0.0098,39.7300,74,98,194727
1.7546,0.0098,39.6700,74,98,194731
1.7840,0.0098,39.6000,74,98,194734
1.7644,0.0098,39.6400,74,98,194738
1.7986,0.0196,39.6000,74,98,194741
1.7693,0.0098,39.7000,74,98,194744
1.7742,0.0244,39.6700,74,98,194748
1.7889,0.0098,39.5700,74,98,194751
1.7937,0.0098,39.6700,74,98,194754
1.8280,0.0098,38.9000,74,98,194758
1.8084,0.0049,39.6700,74,98,194761
1.8524,0.0098,39.7000,74,98,194764
1.8475,0.0147,39.5100,74,98,194767
1.8231,0.0147,39.6700,74,98,194771
1.8622,0.0098,39.4400,74,98,194775
1.8377,0.0147,39.5400,74,98,194778
1.8280,0.0098,39.6400,74,98,194782
1.8377,0.0147,39.2200,74,98,194785
1.8280,0.0098,39.7000,74,98,194788
1.8768,0.0244,39.4100,74,98,194792
1.8377,0.0147,39.6400,74,98,194795
1.8377,0.0098,39.6700,74,98,194798
1.8524,0.0147,39.6400,74,98,194801
1.8426,0.0098,38.8100,74,98,194805
1.8964,0.0244,39.4100,74,98,194808
1.8524,0.0147,39.5700,74,98,194811
1.8524,0.0049,39.6000,74,98,194816
1.8524,0.0244,39.7000,74,98,194819
1.8475,0.0098,39.7300,74,98,194822
1.8915,0.0244,39.5400,74,98,194826
1.8573,0.0196,39.6400,74,98,194829
1.8573,0.0098,39.5700,74,98,194832
1.8328,0.0098,39.6700,74,98,194835
1.8328,0.0147,39.6700,74,98,194839
1.8622,0.0147,39.5100,74,98,194842
1.8280,0.0098,39.6400,74,98,194845
1.8475,0.0049,39.5400,74,98,194849
1.8280,0.0098,39.8000,74,98,194852
1.8231,0.0098,39.6700,74,98,194855
1.8426,0.0196,39.6000,74,98,194860
1.8280,0.0098,39.6700,74,98,194863
1.8475,0.0098,39.5700,74,98,194866
1.8084,0.0098,39.7000,74,98,194869
1.8084,0.0342,39.6700,74,98,194873
1.8231,0.0147,39.5400,74,98,194876
1.8084,0.0098,39.6700,74,98,194879
1.8328,0.0049,39.5100,74,98,194883
1.8084,0.0098,39.6700,74,98,194886
1.8133,0.0098,39.7000,74,98,194889
1.8280,0.0196,39.6400,74,98,194892
1.8231,0.0049,39.7000,74,98,194896
1.8573,0.0147,39.4400,74,98,194899
1.8328,0.0147,39.5700,74,98,194903
1.8524,0.0049,39.6400,74,98,194907
1.8328,0.0147,39.6400,74,98,194910
1.8280,0.0098,39.6700,74,98,194913
1.8866,0.0196,39.3800,74,98,194917
1.8377,0.0196,39.6000,74,98,194920
1.8377,0.0049,39.6700,74,98,194923
1.8328,0.0147,39.6400,74,98,194927
1.8182,0.0098,39.6700,74,98,194930
1.8719,0.0147,39.4800,74,98,194933
1.8426,0.0196,39.5400,74,98,194936
1.8377,0.0098,39.6000,74,98,194940
1.8328,0.0147,39.7000,74,98,194944
1.8328,0.0098,39.6000,74,98,194947
1.8671,0.0196,39.5700,74,98,194951
1.8377,0.0147,39.6400,74,98,194954
1.8426,0.0098,39.7000,74,98,194957
1.8231,0.0098,39.6700,74,98,194961
1.8280,0.0098,39.6700,74,98,194964
1.8524,0.0196,39.4800,74,98,194967
1.8328,0.0098,39.6700,74,98,194970
1.8671,0.0147,39.5400,74,98,194974
1.8573,0.0098,39.7000,74,98,194977
1.8671,0.0147,39.7700,74,98,194980
1.8915,0.0147,39.6000,74,98,194984
1.8768,0.0098,39.6700,74,98,194988
1.9013,0.0098,39.5100,74,98,194991
1.8671,0.0098,39.6400,74,98,194995
1.8768,0.0098,39.6400,74,98,194998
1.9062,0.0244,39.5700,74,98,195001
1.8915,0.0049,39.6700,74,98,195004
1.9208,0.0098,39.4800,74,98,195008
1.8817,0.0098,39.6700,74,98,195011
1.8866,0.0049,39.6700,74,98,195014
1.8915,0.0196,39.6000,74,98,195018
1.8964,0.0098,39.6700,74,98,195021
1.9110,0.0147,39.4100,74,98,195024
1.8817,0.0147,39.5400,74,98,195028
1.8671,0.0098,39.6700,74,98,195032
1.8768,0.0098,39.6700,74,98,195035
1.8671,0.0098,39.8600,74,98,195038
1.9208,0.0196,39.3800,74,98,195042
1.8719,0.0147,39.6400,74,98,195045
1.8622,0.0049,39.6400,74,98,195048
1.8573,0.0147,39.7000,74,98,195052
1.8377,0.0098,39.7000,74,98,195055
1.8719,0.0244,39.5700,74,98,195058
1.8377,0.0147,39.6400,74,98,195062
1.8328,0.0098,39.8000,74,98,195065
1.8084,0.0196,39.6700,74,98,195068
1.8084,0.0098,39.6700,74,98,195072
1.8328,0.0196,39.7300,74,98,195076
1.8182,0.0147,39.6400,74,98,195079
1.8426,0.0098,39.5400,74,98,195082
1.8182,0.0196,39.6700,74,98,195086
1.8280,0.0098,39.6700,74,98,195089
1.8524,0.0196,39.5400,74,98,195092
1.8182,0.0098,39.6700,74,98,195096
1.8475,0.0098,39.5400,74,98,195099
1.8133,0.0098,39.6400,74,98,195102
1.8182,0.0049,39.7000,74,98,195105
1.8280,0.0147,39.5700,74,98,195109
1.8133,0.0098,39.7000,74,98,195112
1.8475,0.0098,39.8900,74,98,195116
1.8231,0.0440,39.6700,74,98,195120
1.8377,0.0049,39.7000,74,98,195123
1.8866,0.0196,39.5700,74,98,195126
1.9110,0.0147,39.7000,74,98,195130
2.0430,0.0049,39.4100,74,98,195133
2.0870,0.0000,39.6700,74,98,195136
2.1848,0.0098,39.6700,74,98,195139
2.2972,0.0196,39.6400,74,98,195143
2.3900,0.0098,39.6400,74,98,195146
2.5758,0.0244,39.4100,74,98,195149
2.6588,0.0147,39.6000,74,98,195153
2.7175,0.0098,39.7000,74,98,195156
2.6637,0.0196,39.7000,74,98,195160
2.4536,0.0049,39.6700,74,98,195163
2.2483,0.0293,39.4400,74,98,195167
1.9208,0.0098,39.7000,74,98,195170
1.7351,0.0098,39.6700,74,98,195173
1.6031,0.0147,39.6400,74,98,195177
1.5738,0.0098,39.6700,74,98,195180
1.6471,0.0293,39.5100,74,98,195183
1.6618,0.0147,39.6000,74,98,195187
1.6960,0.0098,39.5700,74,98,195190
1.7351,0.0147,39.6400,74,98,195193
1.7253,0.0098,39.7000,74,98,195196
1.7644,0.0196,39.6000,74,98,195201
1.7449,0.0196,39.6400,74,98,195204
1.7644,0.0098,39.5400,74,98,195207
1.7449,0.0147,39.6700,74,98,195211
1.7498,0.0098,39.7000,74,98,195214
1.7840,0.0196,38.7100,74,98,195217
1.7840,0.0098,39.6400,74,98,195221
1.7889,0.0147,39.5400,74,98,195224
1.7595,0.0098,39.6000,74,98,195227
1.7595,0.0147,39.6700,74,98,195230
1.7742,0.0147,39.6000,74,98,195234
1.7644,0.0098,39.6700,74,98,195237
1.7889,0.0098,39.5100,74,98,195240
1.7644,0.0098,39.5700,74,98,195245
1.7742,0.0098,39.7300,74,98,195248
1.7986,0.0391,39.5700,74,98,195251
1.7889,0.0049,39.6700,74,98,195254
1.8182,0.0147,39.4400,74,98,195258
1.7840,0.0000,39.6000,74,98,195261
1.7937,0.0098,39.7700,74,98,195264
1.8084,0.0244,39.6400,74,98,195268
1.8084,0.0147,39.6400,74,98,195272
1.8182,0.0098,39.6700,74,98,195276
1.8671,0.0196,39.4800,74,98,195279
1.8377,0.0147,39.6700,74,98,195282
1.8524,0.0098,39.2200,74,98,195287
1.8475,0.0147,39.7000,74,98,195290
1.8475,0.0098,39.7000,74,98,195293
1.8817,0.0196,39.5700,74,98,195296
1.8671,0.0147,39.6000,74,98,195300
1.8964,0.0098,39.5400,74,98,195303
1.8671,0.0147,39.6700,74,98,195306
1.8768,0.0147,39.7000,74,98,195310
1.8964,0.0196,39.5700,74,98,195313
1.8915,0.0098,39.9300,74,98,195316
1.9257,0.0342,39.5400,74,98,195320
1.9062,0.0098,39.6700,74,98,195323
1.9110,0.0098,39.6700,74,98,195326
1.9501,0.0196,39.5100,74,98,195330
1.9355,0.0098,39.6700,74,98,195334
1.9697,0.0098,39.5100,74,98,195337
1.9501,0.0098,39.6700,74,98,195340
1.9453,0.0147,39.6700,74,98,195344
1.9648,0.0196,39.6400,74,98,195347
1.9550,0.0098,39.6400,74,98,195350
1.9990,0.0196,39.4400,74,98,195354
1.9599,0.0098,39.6000,74,98,195357
1.9550,0.0049,39.7000,74,98,195360
1.9795,0.0196,39.8600,74,98,195363
1.9599,0.0147,39.6700,74,98,195367
2.0186,0.0196,39.4100,74,98,195371
1.9746,0.0098,39.5700,74,98,195374
1.9648,0.0098,39.7000,74,98,195378
1.9746,0.0147,39.6700,74,98,195381
1.9648,0.0098,39.7000,74,98,195384
2.0186,0.0293,39.4800,74,98,195388
1.9648,0.0147,39.6000,74,98,195391
1.9453,0.0049,39.6000,74,98,195394
1.9306,0.0196,39.6700,74,98,195397
1.9159,0.0098,39.7300,74,98,195401
1.9453,0.0196,39.5100,74,98,195404
1.8964,0.0196,39.6700,74,98,195407
1.8964,0.0098,39.5700,74,98,195411
1.8622,0.0098,39.6700,74,98,195415
1.8426,0.0049,39.7000,74,98,195418
1.8524,0.0196,39.5400,74,98,195422
1.8182,0.0147,39.6000,74,98,195425
1.8328,0.0049,39.5100,74,98,195428
1.7791,0.0147,39.7700,74,98,195431
1.7693,0.0196,39.7000,74,98,195435
1.7595,0.0098,39.5700,74,98,195438
1.7351,0.0098,39.7000,74,98,195441
1.7498,0.0098,39.5400,74,98,195445
1.7009,0.0098,39.7000,74,98,195448
1.7009,0.0049,39.7000,74,98,195451
1.7155,0.0147,39.5700,74,98,195454
1.6813,0.0098,39.6000,74,98,195459
1.7058,0.0244,39.4800,74,98,195462
1.6911,0.0098,39.6000,74,98,195465
1.6764,0.0098,39.6700,74,98,195469
1.6862,0.0196,39.5400,74,98,195472
1.6764,0.0147,39.6400,74,98,195475
1.7155,0.0147,39.4100,74,98,195479
1.7204,0.0098,39.6400,74,98,195482
1.7058,0.0049,39.7000,74,98,195485
1.7058,0.0196,39.6000,74,98,195488
1.6911,0.0098,39.7000,74,98,195492
1.7400,0.0196,39.5400,74,98,195495
1.7449,0.0098,39.5400,74,98,195499
1.7107,0.0049,39.7000,74,98,195503
1.7204,0.0147,39.7300,74,98,195506
1.7155,0.0049,39.6400,74,98,195509
1.7742,0.0293,39.5700,74,98,195513
1.7400,0.0342,39.6000,74,98,195516
1.7351,0.0049,39.7000,74,98,195519
1.7351,0.0147,39.7300,74,98,195522
1.7400,0.0049,39.6700,74,98,195526
1.7840,0.0196,39.5100,74,98,195529
1.7498,0.0147,39.6400,74,98,195532
1.7693,0.0098,39.5700,74,98,195536
1.7546,0.0147,39.7000,74,98,195539
1.7546,0.0098,39.6700,74,98,195543
1.7889,0.0196,39.5100,74,98,195547
1.7840,0.0049,39.6400,74,98,195550
1.8035,0.0147,39.5100,74,98,195553
1.7742,0.0196,39.6700,74,98,195556
1.7791,0.0098,39.6700,74,98,195560
1.7889,0.0098,39.4400,74,98,195563
1.7840,0.0293,39.6700,74,98,195566
1.8182,0.0098,39.5100,74,98,195570
1.7889,0.0147,39.6400,74,98,195573
1.7889,0.0098,39.7000,74,98,195576
1.8035,0.0147,39.5700,74,98,195580
1.7889,0.0098,39.6000,74,98,195584
1.8231,0.0196,39.4800,74,98,195587
1.8035,0.0098,39.5700,74,98,195590
1.7937,0.0098,39.7700,74,98,195594
1.7986,0.0147,39.6400,74,98,195597
1.7889,0.0098,39.6700,74,98,195600
1.8328,0.0196,39.4400,74,98,195604
1.7986,0.0147,39.6000,74,98,195607
1.7937,0.0098,40.0000,74,98,195610
1.7937,0.0342,39.6400,74,98,195614
1.7889,0.0049,39.6700,74,98,195617
1.8377,0.0293,39.1900,74,98,195620
1.7937,0.0196,39.6400,74,98,195623
1.7937,0.0049,39.6400,74,98,195628
1.7937,0.0147,39.6700,74,98,195631
1.7840,0.0098,39.6700,74,98,195634
1.8328,0.0244,39.0300,74,98,195638
1.7986,0.0147,39.6000,74,98,195641
1.8035,0.0098,39.5700,74,98,195644
1.7889,0.0147,39.6700,74,98,195648
1.7889,0.0098,39.6700,74,98,195651
1.8182,0.0049,39.4800,74,98,195654
1.7791,0.0147,39.7700,74,98,195657
1.7937,0.0196,39.5100,74,98,195661
1.7693,0.0147,39.7300,74,98,195664
1.7693,0.0098,39.6700,74,98,195667
1.7937,0.0147,39.5700,74,98,195672
1.7693,0.0147,39.7000,74,98,195675
1.7986,0.0098,39.5700,74,98,195678
1.7644,0.0440,39.6400,74,98,195682
1.7693,0.0098,39.7000,74,98,195685
1.7840,0.0147,39.6000,74,98,195688
1.7742,0.0147,39.6000,74,98,195691
1.8035,0.0196,39.5400,74,98,195695
1.7742,0.0098,39.6000,74,98,195698
1.7791,0.0196,39.6700,74,98,195701
1.8280,0.0147,39.5700,74,98,195705
1.7742,0.0098,39.6000,74,98,195708
1.8133,0.0293,39.4100,74,98,195712
1.8231,0.0147,39.5400,74,98,195716
1.7791,0.0098,39.7700,74,98,195719
1.7889,0.0196,39.6400,74,98,195722
1.7742,0.0098,39.7000,74,98,195725
1.8280,0.0196,39.4100,74,98,195729
1.8133,0.0147,39.6400,74,98,195732
1.7742,0.0049,39.7000,74,98,195735
1.7742,0.0147,39.6700,74,98,195739
1.7986,0.0049,39.6400,74,98,195742
1.8280,0.0244,39.4400,74,98,195745
1.7889,0.0244,39.6400,74,98,195749
1.7986,0.0049,39.6000,74,98,195752
1.7889,0.0147,39.6700,74,98,195756
1.7840,0.0098,39.6400,74,98,195760
1.8133,0.0244,39.7000,74,98,195763
1.7937,0.0147,39.4800,74,98,195766
1.8133,0.0098,39.5400,74,98,195769
1.7937,0.0147,39.7300,74,98,195773
1.7937,0.0342,39.7700,74,98,195776
1.8182,0.0244,39.5100,74,98,195779
1.7791,0.0147,39.6400,74,98,195783
1.8328,0.0196,39.5400,74,98,195786
1.7937,0.0049,39.7300,74,98,195789
1.8035,0.0098,39.6000,74,98,195793
1.8328,0.0147,39.6000,74,98,195796
1.8280,0.0098,39.7000,74,98,195800
1.8573,0.0098,39.4800,74,98,195803
1.8573,0.0049,39.6400,74,98,195807
1.8328,0.0098,39.7700,74,98,195810
1.8475,0.0391,39.6000,74,98,195813
1.8426,0.0147,39.7000,74,98,195817
1.8768,0.0147,39.4400,74,98,195820
1.8622,0.0147,39.6400,74,98,195823
1.8426,0.0098,39.7000,74,98,195827
1.8524,0.0196,39.7300,74,98,195830
1.8231,0.0098,39.6400,74,98,195833
1.8671,0.0196,39.5100,74,98,195836
1.8231,0.0147,39.6000,74,98,195841
1.8084,0.0049,39.6400,74,98,195844
1.8084,0.0147,39.6400,74,98,195847
1.8084,0.0147,39.6700,74,98,195851
1.8719,0.0293,39.4400,74,98,195854
1.8280,0.0196,39.6400,74,98,195857
1.8280,0.0049,39.5700,74,98,195861
1.8231,0.0147,39.6700,74,98,195864
1.8231,0.0147,39.6700,74,98,195867
1.8719,0.0147,39.5400,74,98,195870
1.8133,0.0147,39.7000,74,98,195874
1.8231,0.0293,39.5700,74,98,195877
1.7937,0.0147,39.7000,74,97,195880
1.7693,0.0098,39.7000,74,97,195886
1.7791,0.0098,39.6400,74,97,195889
1.7937,0.0196,39.5700,74,97,195893
1.7693,0.0098,39.6700,74,97,195896
1.8084,0.0147,39.4800,74,97,195899
1.7889,0.0098,39.5700,74,97,195903
1.7840,0.0098,39.7000,74,97,195906
1.7986,0.0196,39.6400,74,97,195909
1.7889,0.0098,39.8000,74,97,195912
1.8426,0.0196,39.3800,74,97,195916
1.8035,0.0098,39.6400,74,97,195919
1.8035,0.0098,39.7000,74,97,195922
1.8133,0.0147,39.6400,74,97,195927
1.8231,0.0147,39.6700,74,97,195930
1.9062,0.0147,39.3800,74,97,195933
1.9013,0.0147,39.6400,74,97,195937
1.9941,0.0098,39.6700,74,97,195940
2.0674,0.0147,39.7300,74,97,195943
2.1554,0.0049,39.6700,74,97,195946
2.3118,0.0293,39.5400,74,97,195950
2.3754,0.0244,39.6000,74,97,195953
2.5024,0.0196,39.6000,74,97,195956
2.6100,0.0147,39.7000,74,97,195960
2.6931,0.0098,39.6700,74,97,195963
2.7028,0.0196,39.5400,74,97,195966
2.4731,0.0147,39.6700,74,97,195971
2.2287,0.0098,39.5400,74,97,195974
1.9355,0.0147,39.6700,74,97,195977
1.7351,0.0147,39.7000,74,97,195980
1.6618,0.0196,39.5700,74,97,195984
1.6178,0.0147,39.6400,74,97,195987
1.6813,0.0147,39.5700,74,97,195990
1.6716,0.0147,39.7300,74,97,195994
1.6960,0.0147,39.7000,74,97,195997
1.7204,0.0147,39.6000,74,97,196000
1.7253,0.0147,39.6700,74,97,196004
1.7498,0.0098,39.5400,74,97,196007
1.7302,0.0147,39.6700,74,97,196011
1.7302,0.0098,39.6700,74,97,196014
1.7449,0.0196,39.6700,74,97,196018
1.7204,0.0147,39.6700,74,97,196021
1.7644,0.0147,39.5100,74,97,196024
1.7498,0.0147,39.6400,74,97,196028
1.7449,0.0098,39.6700,74,97,196031
1.7595,0.0147,39.6000,74,97,196034
1.7546,0.0342,39.6700,74,97,196038
1.8133,0.0147,39.4400,74,97,196041
1.7644,0.0098,39.6400,74,97,196044
1.7644,0.0098,39.6700,74,97,196048
1.7742,0.0147,39.6400,74,97,196051
1.7742,0.0147,39.6400,74,97,196055
1.8475,0.0244,39.4800,74,97,196058
1.7889,0.0147,39.6400,74,97,196062
1.7937,0.0049,39.6000,74,97,196065
1.7889,0.0147,39.6700,74,97,196068
1.7937,0.0196,39.6700,74,97,196072
1.8328,0.0244,39.5700,74,97,196075
1.8133,0.0147,39.6400,74,97,196078
1.8280,0.0049,39.5400,74,97,196082
1.8133,0.0147,39.6700,74,97,196085
1.8231,0.0098,39.6700,74,97,196088
1.8622,0.0244,39.5100,74,97,196091
1.8328,0.0147,39.7300,74,97,196096
1.8671,0.0684,39.5700,74,97,196099
1.8426,0.0098,39.6700,74,97,196102
1.8524,0.0098,39.6700,74,97,196106
1.9110,0.0196,39.5700,74,97,196109
1.8573,0.0098,39.6700,74,97,196112
1.8915,0.0098,39.5100,74,97,196116
1.8719,0.0391,39.6400,74,97,196119
1.8817,0.0098,39.6700,74,97,196122
1.8915,0.0147,39.6400,74,97,196125
1.8866,0.0147,39.6700,74,97,196129
1.9404,0.0147,39.5100,74,97,196132
1.9013,0.0244,39.6700,74,97,196135
1.9306,0.0147,39.7000,74,97,196140
1.9355,0.0196,39.6700,74,97,196143
1.9306,0.0440,39.6700,74,97,196146
1.9990,0.0147,39.4100,74,97,196150
1.9746,0.0147,39.7300,74,97,196153
1.9697,0.0098,39.6700,74,97,196156
1.9795,0.0147,39.6400,74,97,196160
1.9844,0.0098,39.7300,74,97,196163
2.0479,0.0391,39.4400,74,97,196166
1.9990,0.0147,39.6000,74,97,196169
1.9990,0.0049,39.7000,74,97,196173
1.9941,0.0147,39.6700,74,97,196176
1.9941,0.0098,39.6700,74,97,196179
2.0381,0.0244,39.5400,74,97,196184
1.9941,0.0147,39.6400,74,97,196187
2.0430,0.0049,39.5700,74,97,196190
1.9844,0.0147,39.6700,74,97,196193
1.9892,0.0098,39.6700,74,97,196197
2.0186,0.0293,39.5700,74,97,196200
1.9892,0.0147,39.6700,74,97,196203
2.0039,0.0147,39.6400,74,97,196207
1.9746,0.0049,39.6700,74,97,196210
1.9697,0.0098,39.7000,74,97,196213
1.9892,0.0244,39.5400,74,97,196217
1.9746,0.0147,39.6700,74,97,196220
1.9648,0.0147,39.5700,74,97,196224
1.9159,0.0098,39.5400,74,97,196227
1.9062,0.0196,39.6700,74,97,196231
1.9013,0.0196,39.6000,74,97,196234
1.8719,0.0147,39.6700,74,97,196237
1.8915,0.0049,39.4800,74,97,196241
1.8426,0.0098,39.7000,74,97,196244
1.8280,0.0098,39.6400,74,97,196247
1.8182,0.0489,39.6400,74,97,196251
1.8084,0.0147,39.7000,74,97,196254
1.8133,0.0147,39.4400,74,97,196257
1.7595,0.0098,39.6700,74,97,196260
1.7449,0.0098,39.6700,74,97,196264
1.7449,0.0196,39.6400,74,97,196268
1.7155,0.0098,39.6700,74,97,196271
1.7546,0.0196,39.3800,74,97,196275
1.7107,0.0147,39.6400,74,97,196278
1.6911,0.0049,39.6700,74,97,196281
1.6862,0.0147,39.6700,74,97,196285
1.6813,0.0098,39.7000,74,97,196288
1.7253,0.0293,39.5100,74,97,196291
1.6862,0.0147,39.6400,74,97,196295
1.6862,0.0098,39.6000,74,97,196298
1.6813,0.0147,39.6700,74,97,196301
1.6813,0.0147,39.6700,74,97,196304
1.7155,0.0196,39.5400,74,97,196308
1.6960,0.0147,39.7300,74,97,196312
1.7155,0.0196,39.5700,74,97,196315
1.6960,0.0147,39.6700,74,97,196319
1.7009,0.0342,39.6700,74,97,196322
1.7107,0.0147,39.6000,74,97,196325
1.7107,0.0147,39.6700,74,97,196329
1.7351,0.0196,39.6400,74,97,196332
1.7155,0.0147,39.7000,74,97,196335
1.7253,0.0098,39.6700,74,97,196338
1.7644,0.0244,39.5400,74,97,196342
1.7351,0.0147,39.6400,74,97,196345
1.7693,0.0098,39.5100,74,97,196348
1.7546,0.0147,39.5700,74,97,196353
1.7595,0.0098,39.6700,74,97,196356
1.7693,0.0196,39.6000,74,97,196359
1.7595,0.0098,39.6700,74,97,196363
1.7986,0.0147,39.4400,74,97,196366
1.7693,0.0196,39.6400,74,97,196369
1.7693,0.0098,39.6700,74,97,196372
1.7840,0.0147,39.6700,74,97,196376
1.7791,0.0147,39.6700,74,97,196379
1.8280,0.0147,39.4100,74,97,196382
1.7840,0.0098,39.8000,74,97,196386
1.7840,0.0098,39.6400,74,97,196389
1.7889,0.0391,39.7000,74,97,196392
1.7791,0.0147,39.6700,74,97,196397
1.8328,0.0293,39.4400,74,97,196400
1.8035,0.0244,39.6000,74,97,196403
1.7986,0.0049,39.6000,74,97,196406
1.7937,0.0147,39.6700,74,97,196410
1.7986,0.0147,39.7000,74,97,196413
1.8377,0.0244,39.5100,74,97,196416
1.7986,0.0244,39.6700,74,97,196420
1.8182,0.0049,39.5700,74,97,196423
1.7937,0.0147,39.7000,74,97,196426
1.7937,0.0098,39.8600,74,97,196430
1.8231,0.0244,39.5700,74,97,196433
1.8035,0.0147,39.6700,74,97,196436
1.8280,0.0147,39.5400,74,97,196440
1.7937,0.0147,39.6700,74,97,196444
1.7986,0.0098,39.7000,74,97,196447
1.8084,0.0147,39.6000,74,97,196450
1.7986,0.0244,39.6700,74,97,196454
1.8280,0.0049,39.5400,74,97,196457
1.7889,0.0147,39.7700,74,97,196460
1.7840,0.0147,39.6700,74,97,196464
1.8035,0.0196,39.5700,74,97,196467
1.7791,0.0147,39.6700,74,97,196470
1.8182,0.0049,39.4400,74,97,196473
1.7889,0.0147,39.5700,74,97,196477
1.7791,0.0098,39.7700,74,97,196481
1.7937,0.0147,39.6000,74,97,196484
1.7742,0.0098,39.7000,74,97,196488
1.8182,0.0147,39.4400,74,97,196491
1.8182,0.0244,39.5700,74,97,196496
1.7791,0.0147,39.6400,74,97,196499
1.7889,0.0098,39.7300,74,97,196502
1.7791,0.0098,39.6700,74,97,196506
1.7742,0.0147,39.6700,74,97,196509
1.8084,0.0244,39.6400,74,97,196512
1.7889,0.0098,39.6400,74,97,196515
1.8182,0.0098,39.5700,74,97,196519
1.7840,0.0147,39.8900,74,97,196523
1.7889,0.0049,39.6700,74,97,196526
1.8182,0.0147,39.5100,74,97,196530
1.7937,0.0391,39.6700,74,97,196533
1.8182,0.0196,39.5700,74,97,196536
1.7937,0.0049,39.6700,74,97,196540
1.7937,0.0440,39.6700,74,97,196543
1.8084,0.0196,39.6000,74,97,196546
1.7889,0.0147,39.7700,74,97,196550
1.8133,0.0342,39.5100,74,97,196553
1.7840,0.0098,39.6400,74,97,196556
1.7889,0.0098,39.6400,74,97,196559
1.8035,0.0244,39.6400,74,97,196563
1.7986,0.0147,39.6700,74,97,196567
1.8426,0.0147,39.8300,74,97,196570
1.8035,0.0098,39.6400,74,97,196574
1.8182,0.0098,39.7700,74,97,196577
1.8280,0.0391,39.6400,74,97,196580
1.8035,0.0147,39.6700,74,97,196584
1.8475,0.0196,39.3800,74,97,196587
1.8084,0.0196,39.6400,74,97,196590
1.7986,0.0049,39.7000,74,97,196593
1.8035,0.0098,39.6400,74,97,196597
1.8084,0.0049,39.7000,74,97,196600
1.9110,0.0244,39.5100,74,97,196603
1.8377,0.0147,39.7300,74,97,196608
1.8377,0.0293,39.6000,74,97,196611
1.8377,0.0147,39.6700,74,97,196614
1.8328,0.0098,39.7700,74,97,196618
1.8719,0.0440,39.5100,74,97,196621
1.8426,0.0147,39.6400,74,97,196624
1.8622,0.0098,39.6700,74,97,196627
1.8377,0.0098,39.6700,74,97,196631
1.8377,0.0098,39.6700,74,97,196634
1.8475,0.0196,39.6000,74,97,196637
1.8328,0.0049,39.7000,74,97,196641
1.8377,0.0147,39.5400,74,97,196644
1.8035,0.0196,39.6700,74,97,196647
1.8035,0.0098,39.7000,74,97,196652
1.8328,0.0196,39.5700,74,97,196655
1.8084,0.0147,39.6700,74,97,196658
1.8426,0.0098,39.5400,74,97,196661
1.8133,0.0098,39.6000,74,97,196665
1.8231,0.0098,39.6700,74,97,196668
1.8280,0.0196,39.6000,74,97,196671
1.7986,0.0098,39.7000,74,97,196675
1.8328,0.0098,39.4800,74,97,196678
1.7937,0.0098,39.7000,74,97,196681
1.7840,0.0098,39.6700,74,97,196684
1.7889,0.0196,39.6000,74,97,196688
1.7840,0.0147,39.6700,74,97,196691
1.8084,0.0147,39.4100,74,97,196695
1.7644,0.0196,39.6400,74,97,196699
1.7742,0.0098,39.6700,74,97,196702
1.7791,0.0147,39.8300,74,97,196705
1.7693,0.0098,39.6700,74,97,196709
1.8133,0.0196,39.3200,74,97,196712
1.7791,0.0196,39.5700,74,97,196715
1.7693,0.0049,39.6400,74,97,196719
1.7742,0.0196,39.6700,74,97,196722
1.7791,0.0049,39.6700,74,97,196725
1.8280,0.0244,39.4800,74,97,196728
1.7840,0.0196,39.6700,74,97,196732
1.7840,0.0098,39.5700,74,97,196736
1.7742,0.0098,39.7000,74,97,196739
1.7742,0.0098,39.8000,74,97,196743
1.8035,0.0196,39.5400,74,97,196746
1.7986,0.0049,39.6700,74,97,196749
1.8328,0.0098,39.5700,74,97,196752
1.8573,0.0147,39.6700,74,97,196756
1.9355,0.0098,39.7000,74,97,196759
2.0528,0.0196,39.6400,74,97,196762
2.1310,0.0147,39.6700,74,97,196766
2.2483,0.0147,39.5100,74,97,196769
2.3265,0.0098,39.6700,74,97,196772
2.4536,0.0098,39.6700,74,97,196776
2.6100,0.0196,39.4800,74,97,196780
2.6686,0.0098,39.7000,74,97,196783
2.6491,0.0098,39.5400,74,97,196786
2.4242,0.0098,39.7000,74,97,196790
2.1652,0.0098,39.6400,74,97,196793
1.9062,0.0147,39.5400,74,97,196796
1.6911,0.0098,39.7000,74,97,196800
1.6178,0.0098,39.4800,74,97,196803
1.5738,0.0244,39.6400,74,97,196806
1.6031,0.0098,39.7000,74,97,196809
1.6325,0.0147,39.6400,74,97,196813
1.6618,0.0098,39.8300,74,97,196816
1.7155,0.0147,39.4100,74,97,196819
1.6862,0.0098,39.7300,74,97,196824
1.6960,0.0098,39.6700,74,97,196827
1.7009,0.0244,39.6400,74,97,196830
1.6911,0.0098,39.6700,74,97,196834
1.7449,0.0147,39.4100,74,97,196837
1.7107,0.0196,39.5700,74,97,196840
1.7058,0.0049,39.6400,74,97,196843
1.7058,0.0098,39.6700,74,97,196847
1.7009,0.0391,39.7000,74,97,196850
1.7546,0.0147,39.4800,74,97,196853
1.7155,0.0196,39.6000,74,97,196857
1.7204,0.0098,39.5700,74,97,196860
1.7204,0.0098,39.6700,74,97,196864
1.7204,0.0049,38.8100,74,97,196868
1.7595,0.0147,39.5100,74,97,196871
1.7546,0.0147,39.6700,74,97,196874
1.7546,0.0049,39.5700,74,97,196877
1.7400,0.0098,39.6700,74,97,196881
1.7546,0.0049,39.6700,74,97,196884
1.7693,0.0147,39.6400,74,97,196887
1.7546,0.0098,39.6400,74,97,196891
1.7840,0.0098,39.5400,74,97,196894
1.7595,0.0098,39.7000,74,97,196897
1.7644,0.0049,39.7000,74,97,196901
1.7937,0.0147,39.5700,74,97,196904
1.7644,0.0049,39.7000,74,97,196908
1.7986,0.0049,39.5400,74,97,196911
1.7791,0.0049,39.6000,74,97,196915
1.7889,0.0049,39.6700,74,97,196918
1.8084,0.0098,39.6700,74,97,196921
1.7986,0.0049,39.6400,74,97,196925
1.8280,0.0049,39.4800,74,97,196928
1.7986,0.0049,39.6400,74,97,196931
1.7986,0.0049,39.6700,74,97,196935
1.8133,0.0196,39.7000,74,97,196938
1.8084,0.0147,39.6700,74,97,196941
1.8524,0.0098,39.4400,74,97,196944
1.8182,0.0098,39.6400,74,97,196948
1.8328,0.0049,39.6700,74,97,196952
1.8377,0.0098,39.8900,74,97,196955
1.8377,0.0098,39.7000,74,97,196959
1.9013,0.0147,39.3800,74,97,196962
1.8671,0.0098,39.6000,74,97,196965
1.8671,0.0000,39.6000,74,97,196968
1.8719,0.0098,39.6700,74,97,196972
1.8768,0.0098,39.7000,74,97,196975
1.9355,0.0147,39.4800,74,97,196978
1.8964,0.0098,39.6700,74,97,196982
1.9013,0.0000,39.5700,74,97,196985
1.9013,0.0049,39.7300,74,97,196988
1.9062,0.0489,39.7000,74,97,196993
1.9453,0.0147,39.5700,74,97,196996
1.9208,0.0049,39.6700,74,97,196999
1.9306,0.0098,39.5700,74,97,197002
1.9159,0.0000,39.6700,74,97,197006
1.9062,0.0000,39.6700,74,97,197009
1.9306,0.0147,39.6000,74,97,197012
1.9159,0.0098,39.6400,74,97,197016
1.9208,0.0049,39.5400,74,97,197019
1.8866,0.0000,39.6700,74,97,197022
1.8866,0.0049,39.5700,74,97,197025
1.9208,0.0147,39.5400,74,97,197029
1.8671,0.0049,39.7700,74,97,197032
1.8866,0.0098,39.5700,74,97,197036
1.8475,0.0000,39.6400,74,97,197040
1.8426,0.0098,39.6700,74,97,197043
1.8475,0.0098,39.6000,74,97,197046
1.8133,0.0049,39.6700,74,97,197049
1.8182,0.0000,39.5400,74,97,197053
1.7742,0.0000,39.7000,74,97,197056
1.7595,0.0049,39.7000,74,97,197059
1.7449,0.0049,39.6400,74,97,197062
1.7204,0.0049,39.6400,74,97,197066
1.7253,0.0293,39.4400,74,97,197069
1.6813,0.0049,39.8000,74,97,197072
1.6716,0.0147,39.7000,74,97,197076
1.6716,0.0098,39.6000,74,97,197080
1.6373,0.0049,39.6700,74,97,197083
1.6618,0.0098,39.4100,74,97,197087
1.6276,0.0049,39.5700,74,97,197090
1.6129,0.0000,39.7000,74,97,197093
1.6129,0.0049,39.7700,74,97,197096
1.6031,0.0098,39.6700,74,97,197100
1.6373,0.0098,39.3800,74,97,197103
1.6227,0.0098,39.5400,74,97,197108
1.5934,0.0000,39.6700,74,97,197111
1.6031,0.0000,39.5700,74,97,197114
1.5885,0.0049,39.6700,74,97,197118
1.5836,0.0000,39.6400,74,97,197122
1.6178,0.0098,39.5700,74,97,197125
1.5982,0.0049,39.6400,74,97,197128
1.6178,0.0000,39.6400,74,97,197132
1.6080,0.0000,39.6700,74,97,197135
1.6227,0.0000,39.6700,74,97,197138
1.6911,0.0049,39.5100,74,97,197141
1.6325,0.0000,39.8000,74,97,197145
1.6471,0.0000,39.5700,74,97,197148
1.6373,0.0049,39.6700,74,97,197151
1.6422,0.0000,39.7000,74,97,197155
1.6618,0.0049,39.5400,74,97,197158
1.6471,0.0000,39.6700,74,97,197161
1.6716,0.0000,39.5400,74,97,197165
1.6520,0.0000,39.6700,74,97,197169
1.6569,0.0000,39.6700,74,97,197172
1.6813,0.0049,39.6700,74,97,197175
1.6667,0.0000,39.6400,74,97,197178
1.6911,0.0000,39.5400,74,97,197182
1.6667,0.0000,39.7000,74,97,197185
1.6764,0.0000,39.6700,74,97,197188
1.7009,0.0196,39.5100,74,97,197191
1.6667,0.0000,39.6700,74,97,197195
1.6960,0.0000,39.5400,74,97,197198
1.6716,0.0000,39.7300,74,97,197201
1.6764,0.0000,39.6700,74,97,197204
1.7058,0.0049,39.6000,74,97,197209
1.6764,0.0000,39.6700,74,97,197212
1.7009,0.0098,39.5400,74,97,197215
1.6667,0.0000,39.7000,74,97,197219
1.6716,0.0000,39.6700,74,97,197222
1.6813,0.0000,39.6400,74,97,197225
1.6764,0.0000,39.7300,74,97,197228
1.7009,0.0000,39.5700,74,97,197232
1.6764,0.0000,39.6700,74,97,197235
1.6813,0.0000,39.7000,74,97,197238
1.7058,0.0000,39.4800,74,97,197241
1.6716,0.0000,39.7300,74,97,197245
1.6960,0.0000,39.5700,74,97,197249
1.6667,0.0000,39.7000,74,97,197252
1.6667,0.0440,39.6700,74,97,197255
1.6862,0.0000,39.6000,74,97,197259
1.6618,0.0000,39.6700,74,97,197262
1.6813,0.0000,39.5700,74,97,197265
1.6569,0.0000,39.6700,74,97,197268
1.6618,0.0000,39.7000,74,97,197272
1.6618,0.0049,39.6000,74,97,197275
1.6618,0.0000,39.6700,74,97,197278
1.6764,0.0000,39.5400,74,97,197281
1.6471,0.0000,39.6700,74,97,197285
1.6520,0.0000,39.3200,74,97,197288
1.6764,0.0049,39.5400,74,97,197292
1.6422,0.0000,39.6700,74,97,197295
1.6716,0.0000,39.5700,74,97,197299
1.6373,0.0000,39.6400,74,97,197302
1.6471,0.0000,39.6700,74,97,197305
1.6667,0.0000,39.7000,74,97,197308
1.6520,0.0000,39.7000,74,97,197312
1.6764,0.0000,39.5700,74,97,197315
1.6471,0.0000,39.6700,74,97,197318
1.6422,0.0000,39.7000,74,97,197321
1.6471,0.0000,39.6400,74,97,197325
1.6569,0.0000,39.6700,74,97,197328
1.6667,0.0000,39.5700,74,97,197331
1.6422,0.0000,39.6700,74,97,197335
1.6471,0.0000,39.6700,74,97,197339
1.6764,0.0000,39.5400,74,97,197342
1.6471,0.0000,39.6700,74,97,197345
1.6716,0.0000,39.5700,74,97,197348
1.6520,0.0000,39.6700,74,97,197352
1.6618,0.0000,39.7300,74,97,197355
1.6813,0.0000,39.6000,74,97,197358
1.6618,0.0000,39.6700,74,97,197361
1.6862,0.0000,39.8300,74,97,197365
1.6569,0.0000,39.6700,74,97,197368
1.6911,0.0000,39.7000,74,97,197371
1.6667,0.0000,39.6700,74,97,197374
1.6569,0.0000,39.6700,74,97,197379
1.6716,0.0000,39.5400,74,97,197382
1.6422,0.0000,39.7000,74,97,197385
1.6422,0.0000,39.8900,74,97,197388
1.6716,0.0000,39.5400,74,97,197392
1.6471,0.0000,39.6700,74,97,197395
1.6813,0.0000,39.6000,74,97,197398
1.6520,0.0000,39.6700,74,97,197401
1.6667,0.0000,39.6700,74,97,197405
1.6960,0.0000,39.6000,74,97,197408
1.6764,0.0000,39.7000,74,97,197411
1.7009,0.0000,39.5100,74,97,197414
1.6716,0.0000,39.6700,74,97,197419
1.6764,0.0000,39.7000,74,97,197422
1.7009,0.0000,39.6400,74,97,197425
1.6911,0.0000,39.7000,74,97,197428
1.7155,0.0000,39.1600,74,97,197432
1.7009,0.0000,39.7700,74,97,197435
1.7058,0.0000,39.6700,74,97,197438
1.7302,0.0000,39.5400,74,97,197441
1.6911,0.0000,39.7000,74,97,197445
1.7107,0.0000,39.5700,74,97,197448
1.6813,0.0000,39.7000,74,97,197451
1.6911,0.0000,39.7000,74,97,197454
1.7155,0.0000,39.5700,74,97,197458
1.7009,0.0000,39.8600,74,97,197462
1.7253,0.0000,39.5400,74,97,197465
1.6960,0.0000,39.6700,74,97,197468
1.7009,0.0000,39.6700,74,97,197472
1.7155,0.0000,39.6400,74,97,197475
1.6911,0.0000,39.6700,74,97,197478
1.7058,0.0000,39.5400,74,97,197481
1.6813,0.0000,39.6700,74,97,197485
1.6862,0.0000,39.7000,74,97,197488
1.7155,0.0000,39.5400,74,97,197491
1.6862,0.0000,38.9300,74,97,197494
1.7058,0.0000,39.5400,74,97,197498
1.6862,0.0196,39.6700,74,97,197501
1.6813,0.0000,39.6700,74,97,197505
1.7155,0.0000,39.5700,74,97,197508
1.6911,0.0000,39.6700,74,97,197512
1.7155,0.0000,39.5400,74,97,197515
1.6911,0.0000,39.6700,74,97,197518
1.7009,0.0000,39.7000,74,97,197521
1.7253,0.0293,39.6400,74,97,197525
1.7351,0.0000,39.6700,74,97,197528
1.7351,0.0000,39.5400,74,97,197531
1.7107,0.0000,39.6700,74,97,197535
1.7155,0.0000,39.6700,74,97,197538
1.7449,0.0000,39.4800,74,97,197541
1.7155,0.0000,39.8000,74,97,197544
1.7400,0.0000,39.5400,74,97,197549
1.7253,0.0000,39.6700,74,97,197552
1.7449,0.0000,39.6700,74,97,197555
1.8084,0.0000,39.5400,74,97,197558
1.8671,0.0000,39.6700,74,97,197562
1.9892,0.0000,39.5400,74,97,197565
2.0577,0.0000,39.7000,74,97,197568
2.1603,0.0000,39.1600,74,97,197571
2.2923,0.0000,39.6400,74,97,197575
2.4340,0.0000,39.6700,74,97,197578
2.5562,0.0000,39.5100,74,97,197581
2.6051,0.0000,39.6700,74,97,197584
2.5709,0.0000,39.7300,74,97,197588
2.4291,0.0000,39.5100,74,97,197592
2.1310,0.0000,39.6700,74,97,197595
1.8817,0.0000,39.5100,74,97,197598
1.6325,0.0000,39.5400,74,97,197602
1.4907,0.0000,39.7000,74,97,197605
1.4956,0.0000,39.5700,74,97,197608
1.4712,0.0000,39.6700,74,97,197611
1.5396,0.0000,39.5400,74,97,197615
1.5689,0.0000,39.7000,74,97,197618
1.6080,0.0000,39.6700,74,97,197621
1.6667,0.0000,39.6400,74,97,197624
1.6569,0.0000,39.7000,74,97,197628
1.6911,0.0000,39.4800,74,97,197632
1.6716,0.0000,39.6700,74,97,197635
1.6764,0.0000,39.7700,74,97,197638
1.7058,0.0000,39.5700,74,97,197642
1.6716,0.0000,39.6700,74,97,197645
1.7009,0.0000,39.5700,74,97,197648
1.6764,0.0000,39.6700,74,97,197651
1.6813,0.0000,39.6700,74,97,197655
1.7009,0.0000,39.5700,74,97,197658
1.6813,0.0000,39.7000,74,97,197661
1.7107,0.0000,39.5400,74,97,197664
1.6911,0.0000,39.6700,74,97,197668
1.6960,0.0000,39.7000,74,97,197671
1.7155,0.0000,39.6400,74,97,197675
1.7107,0.0000,39.6700,74,97,197678
1.7351,0.0000,39.5100,74,97,197682
1.7107,0.0000,39.6700,74,97,197685
1.7204,0.0000,39.8000,74,97,197688
1.7595,0.0000,39.5400,74,97,197691
1.7253,0.0000,39.7000,74,97,197695
1.7498,0.0000,39.5100,74,97,197698
1.7302,0.0000,39.6700,74,97,197701
1.7400,0.0000,39.6700,74,97,197704
1.7595,0.0000,39.5700,74,97,197708
1.7449,0.0000,39.6700,74,97,197711
1.7742,0.0000,39.5400,74,97,197714
1.7498,0.0000,39.6700,74,97,197718
1.7742,0.0000,39.7000,74,97,197723
1.7791,0.0000,39.8000,74,97,197726
1.8035,0.0000,39.5700,74,97,197730
1.7889,0.0000,39.7000,74,97,197733
1.8182,0.0000,39.5100,74,97,197736
1.8035,0.0000,39.6400,74,97,197739
1.8182,0.0000,39.7300,74,97,197743
1.8377,0.0000,39.5700,74,97,197746
1.8231,0.0000,39.6700,74,97,197749
1.8671,0.0000,39.5100,74,97,197752
1.8475,0.0000,39.7000,74,97,197756
1.8622,0.0000,39.5400,74,97,197760
1.8768,0.0000,39.6000,74,97,197763
1.8768,0.0000,39.6700,74,97,197766
1.9110,0.0000,39.5100,74,97,197770
1.9062,0.0000,39.7000,74,97,197773
1.8915,0.0000,39.7700,74,97,197776
1.9159,0.0000,39.5700,74,97,197779
1.8964,0.0000,39.6700,74,97,197783
1.9208,0.0000,39.5100,74,97,197786
1.8964,0.0000,39.5700,74,97,197789
1.8915,0.0000,39.7000,74,97,197792
1.9110,0.0000,39.6000,74,97,197796
1.8964,0.0000,39.7000,74,97,197799
1.9208,0.0000,39.5100,74,97,197803
1.8866,0.0000,39.6700,74,97,197806
1.8866,0.0000,39.7000,74,97,197810
1.8964,0.0000,39.6000,74,97,197813
1.8866,0.0000,39.0900,74,97,197816
1.9159,0.0000,39.5400,74,97,197819
1.8768,0.0000,39.7000,74,97,197823
1.8768,0.0000,39.6400,74,97,197826
1.8964,0.0000,39.4800,74,97,197829
1.8622,0.0000,39.6700,74,97,197832
1.8817,0.0000,39.5400,74,97,197836
1.8426,0.0000,39.6000,74,97,197839
1.8231,0.0000,39.6700,74,97,197842
1.8182,0.0000,39.6000,74,97,197846
1.7840,0.0000,39.6700,74,97,197850
1.7986,0.0000,39.5400,74,97,197853
1.7498,0.0000,39.7000,74,97,197856
1.7302,0.0000,39.0300,74,97,197859
1.7253,0.0000,39.6700,74,97,197863
1.7400,0.0000,39.6700,74,97,197866
1.7155,0.0000,39.5100,74,97,197869
1.6862,0.0147,39.6700,74,97,197872
1.6911,0.0000,39.7000,74,97,197876
1.6911,0.0000,39.6000,74,97,197879
1.6569,0.0000,39.6400,74,97,197882
1.6716,0.0000,39.5400,74,97,197885
1.6422,0.0000,39.6000,74,97,197890
1.6373,0.0000,39.7000,74,97,197893
1.6520,0.0000,39.6000,74,97,197896
1.6373,0.0000,39.6700,74,97,197899
1.6618,0.0000,39.5700,74,97,197903
1.6373,0.0000,39.7000,74,97,197906
1.6422,0.0000,39.6700,74,97,197909
1.6569,0.0000,39.6400,74,97,197912
1.6618,0.0000,39.6700,74,97,197916
1.6813,0.0000,39.5700,74,97,197919
1.6520,0.0000,39.7000,74,97,197922
1.6618,0.0000,39.7300,74,97,197925
1.6862,0.0000,39.5400,74,97,197929
1.6618,0.0000,39.7300,74,97,197933
1.6911,0.0000,39.5700,74,97,197936
1.6667,0.0000,39.6000,74,97,197939
1.6764,0.0000,39.6700,74,97,197943
1.6960,0.0098,39.6000,74,97,197946
1.6911,0.0244,39.6700,74,97,197949
1.7302,0.0000,39.5100,74,97,197953
1.7058,0.0000,39.6400,74,97,197956
1.7058,0.0147,39.7000,74,97,197959
1.7302,0.0000,39.6000,74,97,197962
1.7155,0.0000,39.6700,74,97,197966
1.7449,0.0000,39.5400,74,97,197969
1.7204,0.0000,39.6700,74,97,197972
1.7302,0.0000,39.6700,74,97,197976
1.7498,0.0000,39.5400,74,97,197980
1.7400,0.0000,39.7000,74,97,197983
1.7595,0.0000,39.5100,74,97,197986
1.7400,0.0000,39.5400,74,97,197989
1.7400,0.0000,39.7000,74,97,197993
1.7595,0.0000,39.6400,74,97,197996
1.7449,0.0000,39.6700,74,97,197999
1.7791,0.0000,39.6000,74,97,198002
1.7449,0.0000,39.6400,74,97,198006
1.7595,0.0000,39.7000,74,97,198009
1.7693,0.0000,39.6000,74,97,198012
1.7595,0.0000,39.6700,74,97,198016
1.7840,0.0000,39.5100,74,97,198020
1.7546,0.0000,39.6700,74,97,198023
1.7595,0.0000,39.7000,74,97,198026
1.7791,0.0000,39.5700,74,97,198029
1.7546,0.0000,39.6700,74,97,198033
1.7840,0.0000,39.9300,74,97,198036
1.7546,0.0000,39.6000,74,97,198039
1.7644,0.0000,39.6700,74,97,198042
1.7791,0.0000,39.6000,74,97,198046
1.7595,0.0000,39.6700,74,97,198049
1.7889,0.0000,39.5100,74,97,198052
1.7595,0.0000,39.6400,74,97,198055
1.7840,0.0000,39.7000,74,97,198060
1.7693,0.0000,39.6000,74,97,198063
1.7546,0.0000,39.6700,74,97,198066
1.7889,0.0000,39.5100,74,97,198069
1.7546,0.0000,39.7000,74,97,198073
1.7595,0.0000,39.6700,74,97,198076
1.7840,0.0000,39.5700,74,97,198079
1.7595,0.0000,39.6400,74,97,198082
1.7742,0.0000,39.5100,74,97,198086
1.7644,0.0000,39.6000,74,97,198089
1.7644,0.0244,39.6700,74,97,198092
1.7742,0.0000,39.6000,74,97,198095
1.7644,0.0000,39.6700,74,97,198099
1.7889,0.0000,39.5700,74,97,198103
1.7595,0.0000,39.8600,74,97,198106
1.7644,0.0000,39.6700,74,97,198109
1.7889,0.0000,39.6000,74,97,198113
1.7693,0.0000,39.6700,74,97,198116
1.7889,0.0000,39.6000,74,97,198119
1.7546,0.0000,39.6700,74,97,198122
1.7644,0.0000,39.6700,74,97,198126
1.7840,0.0000,39.7000,74,97,198129
1.7546,0.0000,39.6700,74,97,198132
1.7840,0.0000,39.5400,74,97,198135
1.7595,0.0000,39.6400,74,97,198139
1.7644,0.0000,39.6700,74,97,198142
1.7791,0.0000,39.6400,74,97,198146
1.7693,0.0000,38.8400,74,97,198149
1.7889,0.0000,39.5100,74,97,198153
1.7742,0.0000,39.6400,74,97,198156
1.7742,0.0000,39.6700,74,97,198159
1.7889,0.0000,39.8000,74,97,198162
1.7840,0.0000,39.6700,74,97,198166
1.8035,0.0000,39.5400,74,97,198169
1.7791,0.0196,39.6700,74,97,198172
1.7840,0.0000,39.6700,74,97,198175
1.8035,0.0000,39.5700,74,97,198179
1.7791,0.0000,39.7000,74,97,198182
1.8084,0.0000,39.7300,74,97,198185
1.7840,0.0000,39.5700,74,97,198189
1.7791,0.0000,39.7000,74,97,198193
1.7889,0.0000,39.6000,74,97,198196
1.7742,0.0000,39.0600,74,97,198199
1.8084,0.0000,39.5100,74,97,198202
1.7742,0.0000,39.6700,74,97,198206
1.7840,0.0000,39.7300,74,97,198209
1.8084,0.0000,39.7300,74,97,198212
1.8426,0.0000,39.7000,74,97,198215
1.8475,0.0000,39.4800,74,97,198219
1.8182,0.0000,39.6700,74,97,198222
1.8231,0.0000,39.6700,74,97,198225
1.8524,0.0000,39.5700,74,97,198228
1.8182,0.0000,39.6700,74,97,198233
1.8524,0.0000,39.5700,74,97,198236
1.8280,0.0000,39.6000,74,97,198239
1.8377,0.0000,39.6700,74,97,198242
1.8524,0.0000,39.6000,74,97,198246
1.8328,0.0000,39.6700,74,97,198249
1.8573,0.0000,39.5400,74,97,198252
1.8182,0.0000,39.6700,74,97,198255
1.8084,0.0000,39.7000,74,97,198259
1.8182,0.0000,39.7000,74,97,198262
1.8133,0.0000,39.9300,74,97,198265
1.8475,0.0000,39.5400,74,97,198268
1.8182,0.0000,39.6700,74,97,198273
1.8475,0.0000,39.7300,74,97,198276
1.8524,0.0000,39.5700,74,97,198279
1.8280,0.0000,39.6400,74,97,198282
1.8573,0.0000,39.5400,74,97,198286
1.8280,0.0000,39.6400,74,97,198289
1.8133,0.0000,39.7000,74,97,198292
1.8182,0.0000,39.5700,74,97,198295
1.7986,0.0000,39.7300,74,97,198299
1.8231,0.0000,39.5400,74,97,198302
1.7791,0.0000,39.6400,74,97,198305
1.7889,0.0000,39.6700,74,97,198308
1.7986,0.0000,39.6000,74,97,198312
1.7937,0.0000,39.6700,74,97,198316
1.8280,0.0000,39.5700,74,97,198319
1.7889,0.0000,39.7000,74,97,198322
1.7889,0.0000,39.6700,74,97,198326
1.8133,0.0000,39.5700,74,97,198329
1.8035,0.0000,39.6400,74,97,198334
1.7937,0.0000,39.6700,74,97,198337
1.8328,0.0000,39.4800,74,97,198340
1.8035,0.0000,39.5100,74,97,198343
1.8035,0.0000,39.7000,74,97,198347
1.8280,0.0000,39.7000,74,97,198350
1.8524,0.0000,39.7000,74,97,198353
1.9501,0.0000,39.4400,74,97,198356
2.0039,0.0000,39.6700,74,97,198361
2.1017,0.0000,39.6700,74,97,198364
2.2141,0.0000,39.6000,74,97,198367
2.2874,0.0000,39.6700,74,97,198370
2.4438,0.0000,39.4800,74,97,198374
2.5318,0.0244,39.5700,74,97,198377
2.6295,0.0000,39.7000,74,97,198380
2.7468,0.0000,39.6000,74,97,198383
2.6295,0.0000,39.6700,74,97,198387
2.4731,0.0000,39.8600,74,97,198390
2.1603,0.0000,39.6400,74,97,198393
1.9013,0.0000,39.7000,74,97,198396
1.7351,0.0000,39.6400,74,97,198401
1.6373,0.0000,39.6000,74,97,198404
1.6569,0.0000,39.4400,74,97,198407
1.6569,0.0000,39.6700,74,97,198410
1.6960,0.0000,39.6700,74,97,198414
1.7302,0.0000,39.4800,74,97,198417
1.7253,0.0000,38.9600,74,97,198420
1.7693,0.0000,39.4400,74,97,198423
1.7546,0.0000,39.5400,74,97,198427
1.7546,0.0000,39.6700,74,97,198430
1.7644,0.0000,39.5700,74,97,198433
1.7498,0.0000,39.7000,74,97,198436
1.7840,0.0000,39.4400,74,97,198440
1.7498,0.0000,39.5700,74,97,198444
1.7498,0.0000,39.6700,74,97,198447
1.7644,0.0000,39.6000,74,97,198450
1.7546,0.0000,39.6700,74,97,198454
1.7937,0.0000,39.4100,74,97,198457
1.7693,0.0000,39.7000,74,97,198460
1.7889,0.0000,39.7000,74,97,198463
1.8035,0.0000,39.6400,74,97,198467
1.7889,0.0000,39.6700,74,97,198470
1.8231,0.0000,39.4800,74,97,198473
1.7986,0.0000,39.5700,74,97,198476
1.7889,0.0000,39.6700,74,97,198480
1.8182,0.0000,39.6000,74,97,198483
1.8035,0.0000,39.6700,74,97,198487
1.8426,0.0000,39.5400,74,97,198490
1.8182,0.0000,39.6000,74,97,198494
1.8426,0.0000,39.6700,74,97,198497
1.8328,0.0000,39.6400,74,97,198500
1.8328,0.0000,39.6700,74,97,198503
1.8768,0.0000,39.4800,74,97,198507
1.8475,0.0000,39.7000,74,97,198510
1.8524,0.0000,39.7000,74,97,198513
1.8719,0.0000,39.5100,74,97,198516
1.8573,0.0000,39.6700,74,97,198520
1.8915,0.0000,39.5100,74,97,198523
1.8719,0.0000,39.5700,74,97,198526
1.8768,0.0000,39.7300,74,97,198530
1.9013,0.0000,39.6000,74,97,198534
1.8915,0.0000,39.7000,74,97,198537
1.9355,0.0000,39.4800,74,97,198540
1.9110,0.0000,39.6000,74,97,198543
1.9208,0.0000,39.7000,74,97,198547
1.9648,0.0000,39.5700,74,97,198550
1.9306,0.0000,39.6700,74,97,198553
1.9648,0.0000,39.4800,74,97,198556
1.9404,0.0000,39.7700,74,97,198560
1.9550,0.0000,39.7000,74,97,198563
1.9795,0.0000,39.6000,74,97,198566
1.9648,0.0000,39.6700,74,97,198569
2.0088,0.0000,39.0300,74,97,198574
1.9941,0.0000,39.6000,74,97,198577
2.0039,0.0440,39.6700,74,97,198580
2.0430,0.0000,39.5700,74,97,198583
2.0235,0.0000,39.5400,74,97,198587
2.0626,0.0000,39.5100,74,97,198590
2.0332,0.0000,39.6400,74,97,198593
2.0283,0.0147,39.6700,74,97,198596
2.0479,0.0000,39.6400,74,97,198600
2.0381,0.0000,39.7000,74,97,198603
2.0772,0.0000,39.5100,74,97,198606
2.0528,0.0000,39.6700,74,97,198609
2.0479,0.0000,39.6700,74,97,198614
2.0674,0.0000,39.6000,74,97,198617
2.0381,0.0000,39.6700,74,97,198620
2.0626,0.0000,39.5100,74,97,198623
2.0332,0.0000,39.5700,74,97,198627
2.0283,0.0000,39.6700,74,97,198630
2.0332,0.0000,39.6000,74,97,198633
2.0088,0.0000,39.6700,74,97,198636
2.0235,0.0000,39.5400,74,97,198640
1.9795,0.0000,39.7000,74,97,198643
1.9697,0.0000,39.6700,74,97,198646
1.9648,0.0000,39.8600,74,97,198649
1.9404,0.0000,39.6700,74,97,198653
1.9501,0.0000,39.5400,74,97,198657
1.9159,0.0000,39.7000,74,97,198660
1.8866,0.0000,39.4100,74,97,198663
1.8915,0.0000,39.5700,74,97,198667
1.8475,0.0000,39.7000,74,97,198670
1.8573,0.0000,39.5400,74,97,198673
1.8084,0.0000,39.7000,74,97,198676
1.7937,0.0000,39.8000,74,97,198680
1.7986,0.0000,39.6000,74,97,198683
1.7742,0.0000,39.7000,74,97,198686
1.7840,0.0000,39.5400,74,97,198689
1.7449,0.0000,39.6700,74,97,198693
1.7400,0.0000,39.6700,74,97,198696
1.7449,0.0000,39.6400,74,97,198700
1.7253,0.0000,39.7000,74,97,198703
1.7498,0.0000,39.4800,74,97,198707
1.7155,0.0000,39.6700,74,97,198710
1.7204,0.0000,39.7000,74,97,198713
1.7498,0.0000,39.5400,74,97,198716
1.7155,0.0000,39.6700,74,97,198720
1.7449,0.0391,39.5400,74,97,198723
1.7253,0.0000,39.6400,74,97,198726
1.7302,0.0000,39.6700,74,97,198729
1.7546,0.0000,39.5700,74,97,198733
1.7400,0.0000,39.6700,74,97,198736
1.7742,0.0000,39.5700,74,97,198739
1.7889,0.0000,39.6400,74,97,198743
1.7595,0.0098,39.6700,74,97,198747
1.7742,0.0000,39.6000,74,97,198750
1.7644,0.0000,39.7000,74,97,198753
1.7937,0.0000,39.5400,74,97,198757
1.7693,0.0000,39.6700,74,97,198760
1.7840,0.0000,39.7000,74,97,198763
1.8328,0.0000,39.5400,74,97,198766
1.7986,0.0000,39.7000,74,97,198770
1.8133,0.0000,39.5100,74,97,198773
1.7986,0.0000,39.6000,74,97,198776
1.8328,0.0000,39.6700,74,97,198779
1.8231,0.0000,39.6000,74,97,198784
1.8133,0.0000,39.6700,74,97,198787
1.8475,0.0000,39.5400,74,97,198790
1.8182,0.0000,39.6400,74,97,198793
1.8328,0.0000,39.6700,74,97,198797
1.8524,0.0000,39.6400,74,97,198800
1.8328,0.0000,39.6700,74,97,198803
1.8622,0.0000,39.4800,74,97,198806
1.8328,0.0000,39.6400,74,97,198810
1.8377,0.0000,39.6700,74,97,198813
1.8671,0.0000,39.5400,74,97,198816
1.8524,0.0000,39.6700,74,97,198819
1.8719,0.0000,39.5400,74,97,198823
1.8524,0.0000,39.6400,74,97,198827
1.8524,0.0000,39.7000,74,97,198830
1.8671,0.0000,39.6700,74,97,198833
1.8475,0.0000,39.6700,74,97,198837
1.8719,0.0000,39.5100,74,97,198840
1.8475,0.0000,39.6700,74,97,198843
1.8524,0.0000,39.8900,74,97,198846
1.8622,0.0000,39.6400,74,97,198850
1.8475,0.0000,39.6700,74,97,198853
1.8719,0.0000,39.5400,74,97,198856
1.8475,0.0000,39.6700,74,97,198859
1.8524,0.0000,39.7000,74,97,198863
1.8768,0.0000,39.5400,74,97,198866
1.8475,0.0000,39.7000,74,97,198870
1.8719,0.0000,39.5100,74,97,198873
1.8475,0.0000,39.6400,74,97,198877
1.8426,0.0000,39.7300,74,97,198880
1.8573,0.0000,39.5400,74,97,198883
1.8426,0.0000,39.6700,74,97,198886
1.8768,0.0000,39.5100,74,97,198890
1.8328,0.0000,39.6400,74,97,198893
1.8328,0.0000,39.6700,74,97,198896
1.8426,0.0000,39.6700,74,97,198899
1.8377,0.0000,39.6700,74,97,198903
1.8573,0.0244,39.5100,74,97,198906
1.8328,0.0000,39.6700,74,97,198909
1.8426,0.0000,39.7000,74,97,198913
1.8622,0.0000,39.5700,74,97,198917
1.8328,0.0000,39.6700,74,97,198920
1.8573,0.0000,39.4800,74,97,198923
1.8377,0.0000,39.6400,74,97,198927
1.8328,0.0000,39.8000,74,97,198930
1.8475,0.0000,39.6400,74,97,198933
1.8280,0.0000,39.6700,74,97,198936
1.8622,0.0196,39.5700,74,97,198940
1.8671,0.0049,39.4400,74,97,198944
1.8231,0.0000,38.8100,74,97,198948
1.8280,0.0000,39.6700,74,97,198951
1.8280,0.0000,39.6700,74,97,198955
1.8231,0.0000,39.6700,74,97,198958
1.8817,0.0049,39.3800,74,97,198962
1.8475,0.0000,39.5700,74,97,198965
1.8475,0.0000,39.6700,74,97,198968
1.8524,0.0000,39.7000,74,97,198971
1.8475,0.0000,39.7000,74,97,198975
1.9013,0.0049,39.4400,74,97,198978
1.8573,0.0000,39.6400,74,97,198981
1.8573,0.0000,39.6000,74,97,198984
1.8573,0.0000,39.7000,74,97,198988
1.8573,0.0000,39.6700,74,97,198991
1.9110,0.0342,39.4400,74,97,198994
1.8573,0.0000,39.6400,74,97,198998
1.8573,0.0000,39.6400,74,97,199002
1.8475,0.0000,39.6700,74,97,199005
1.8426,0.0000,39.6700,74,97,199008
1.9013,0.0049,39.5100,74,97,199012
1.8719,0.0000,39.6000,74,97,199015
1.8719,0.0000,39.6700,74,97,199018
1.8817,0.0000,39.6000,74,97,199021
1.8964,0.0000,39.6700,74,97,199025
1.9550,0.0098,39.5100,74,97,199028
1.9062,0.0000,39.6400,74,97,199031
1.9062,0.0000,39.6400,74,97,199034
1.8866,0.0000,39.7000,74,97,199038
1.8915,0.0000,39.6700,74,97,199042
1.9501,0.0049,39.5100,74,97,199045
1.9062,0.0000,39.6400,74,97,199048
1.9110,0.0000,39.6000,74,97,199052
1.9110,0.0000,39.7000,74,97,199055
1.9062,0.0000,39.6700,74,97,199058
1.9501,0.0049,39.5100,74,97,199061
1.9355,0.0000,39.6400,74,97,199065
1.8915,0.0000,39.6000,74,97,199068
1.8817,0.0000,39.7000,74,97,199071
1.8866,0.0000,38.8100,74,97,199074
1.9404,0.0000,39.5100,74,97,199078
1.8915,0.0000,39.6700,74,97,199081
1.9013,0.0000,39.6000,74,97,199085
1.8866,0.0000,39.6700,74,97,199088
1.8768,0.0000,39.7000,74,97,199092
1.9208,0.0049,39.5400,74,97,199095
1.8573,0.0000,39.6400,74,97,199098
1.8817,0.0000,39.6000,74,97,199102
1.8328,0.0000,39.7000,74,97,199105
1.8231,0.0000,39.6700,74,97,199108
1.8719,0.0049,39.4800,74,97,199111
1.8377,0.0000,39.6400,74,97,199115
1.8328,0.0000,39.5700,74,97,199118
1.8231,0.0000,39.7000,74,97,199121
1.8280,0.0000,39.7700,74,97,199124
1.8719,0.0000,39.5100,74,97,199129
1.8328,0.0000,39.6400,74,97,199132
1.8377,0.0000,39.6000,74,97,199135
1.8280,0.0000,39.7300,74,97,199138
1.8231,0.0000,39.6700,74,97,199142
1.8768,0.0000,39.5400,74,97,199145
1.8817,0.0000,39.6700,74,97,199148
1.8573,0.0000,39.6400,74,97,199151
1.8475,0.0000,39.6700,74,97,199155
1.8524,0.0000,39.6700,74,97,199158
1.8964,0.0049,39.6700,74,97,199161
1.8719,0.0000,39.6700,74,97,199164
1.8915,0.0000,39.6000,74,97,199169
1.9062,0.0000,39.6700,74,97,199172
1.9648,0.0000,39.6700,74,97,199175
2.0821,0.0049,39.5100,74,97,199178
2.1457,0.0000,39.6700,74,97,199182
2.2532,0.0000,39.5700,74,97,199185
2.3216,0.0000,39.6700,74,97,199188
2.4340,0.0000,39.6700,74,97,199192
2.6002,0.0000,39.6400,74,97,199195
2.6931,0.0000,39.6700,74,97,199198
2.7615,0.0293,39.5700,74,97,199201
2.6540,0.0000,39.6700,74,97,199205
2.4438,0.0000,39.7000,74,97,199208
2.2092,0.0049,39.5700,74,97,199212
1.9306,0.0244,39.6400,74,97,199215
1.7644,0.0000,39.5700,74,97,199219
1.6618,0.0000,39.6700,74,97,199222
1.6520,0.0000,39.7000,74,97,199225
1.7058,0.0000,39.5400,74,97,199228
1.7107,0.0000,39.4800,74,97,199232
1.7546,0.0000,39.6400,74,97,199235
1.7644,0.0049,39.7000,74,97,199238
1.7595,0.0000,39.6700,74,97,199241
1.7937,0.0000,39.5700,74,97,199245
1.7742,0.0147,39.6700,74,97,199248
1.7986,0.0000,39.5400,74,97,199251
1.7693,0.0000,39.6700,74,97,199255
1.7742,0.0000,39.7000,74,97,199259
1.7986,0.0000,39.5100,74,97,199262
1.7840,0.0000,39.7000,74,97,199265
1.8084,0.0147,39.5400,74,97,199268
1.7889,0.0000,39.7000,74,97,199272
1.8133,0.0000,39.7000,74,97,199275
1.8231,0.0000,39.5400,74,97,199278
1.7986,0.0000,39.6700,74,97,199282
1.8231,0.0000,39.5400,74,97,199285
1.8035,0.0000,39.6700,74,97,199288
1.8084,0.0000,39.6700,74,97,199291
1.8426,0.0196,39.6000,74,97,199296
1.8231,0.0000,39.6700,74,97,199299
1.8524,0.0000,39.6000,74,97,199302
1.8231,0.0000,39.6700,74,97,199305
1.8328,0.0000,39.6700,74,97,199309
1.8573,0.0000,39.6400,74,97,199312
1.8524,0.0000,39.6700,74,97,199315
1.8866,0.0000,39.5400,74,97,199318
1.8671,0.0000,39.7000,74,97,199322
1.8719,0.0000,39.6700,74,97,199325
1.9110,0.0049,39.7000,74,97,199328
1.8817,0.0000,39.6700,74,97,199331
1.9110,0.0244,39.5400,74,97,199335
1.8964,0.0000,39.6700,74,97,199339
1.8964,0.0098,39.7000,74,97,199342
1.9208,0.0000,39.5700,74,97,199346
1.9013,0.0098,39.6700,74,97,199349
1.9355,0.0049,39.7000,74,97,199352
1.9062,0.0000,39.6700,74,97,199355
1.9110,0.0000,39.6700,74,97,199359
1.9257,0.0000,39.6000,74,97,199362
1.9257,0.0000,39.7000,74,97,199365
1.9648,0.0000,39.5700,74,97,199368
1.9355,0.0000,39.6700,74,97,199372
1.9550,0.0000,39.7000,74,97,199375
1.9941,0.0049,39.4800,74,97,199378
2.0088,0.0000,39.6700,74,97,199382
2.0186,0.0000,39.4800,74,97,199386
1.9941,0.0000,39.6400,74,97,199389
2.0283,0.0000,39.7000,74,97,199392
2.0332,0.0000,39.7000,74,97,199395
2.0235,0.0000,39.8000,74,97,199399
2.0626,0.0000,39.5700,74,97,199402
2.0283,0.0000,39.6700,74,97,199405
2.0283,0.0000,39.7700,74,97,199408
2.0528,0.0000,39.6400,74,97,199412
2.0381,0.0000,39.7000,74,97,199415
2.0772,0.0000,39.7300,74,97,199418
2.0381,0.0000,39.7700,74,97,199421
2.0430,0.0000,39.6700,74,97,199426
2.0723,0.0098,39.5700,74,97,199429
2.0381,0.0000,39.7000,74,97,199432
2.0626,0.0147,39.6000,74,97,199435
2.0283,0.0000,39.6400,74,97,199439
2.0283,0.0000,39.6400,74,97,199442
2.0479,0.0000,39.5700,74,97,199445
2.0283,0.0000,39.6700,74,97,199448
2.0528,0.0000,39.5700,74,97,199452
2.0088,0.0000,39.6700,74,97,199455
1.9990,0.0000,39.7000,74,97,199458
1.9941,0.0000,39.6400,74,97,199461
1.9746,0.0000,39.6700,74,97,199465
1.9941,0.0049,39.5400,74,97,199469
1.9697,0.0000,39.6700,74,97,199472
1.9208,0.0000,39.6700,74,97,199475
1.9306,0.0049,39.8300,74,97,199479
1.8768,0.0000,39.6700,74,97,199482
1.8866,0.0000,39.5400,74,97,199485
1.8377,0.0000,39.6700,74,97,199488
1.8182,0.0000,39.6700,74,97,199492
1.8426,0.0049,39.6000,74,97,199495
1.7840,0.0000,39.7000,74,97,199498
1.7986,0.0147,39.5700,74,97,199502
1.7595,0.0000,39.6400,74,97,199505
1.7498,0.0000,39.7000,74,97,199508
1.7498,0.0000,39.6400,74,97,199512
1.7400,0.0000,39.6000,74,97,199516
1.7595,0.0000,39.5400,74,97,199519
1.7302,0.0000,39.6700,74,97,199522
1.7351,0.0196,39.7000,74,97,199525
1.7546,0.0049,39.5400,74,97,199529
1.7302,0.0147,39.6700,74,97,199532
1.7644,0.0000,39.5100,74,97,199535
1.7449,0.0196,39.5700,74,97,199538
1.7400,0.0000,39.7000,74,97,199542
1.7498,0.0000,39.6000,74,97,199545
1.7449,0.0196,39.6400,74,97,199548
1.7840,0.0000,39.4800,74,97,199553
1.7986,0.0049,39.3800,74,97,199557
1.7595,0.0000,39.6000,74,97,199561
1.7644,0.0000,39.6700,74,97,199564
1.7742,0.0000,39.7300,74,97,199567
1.7693,0.0000,39.7300,74,97,199570
1.8280,0.0098,39.4400,74,97,199574
1.7986,0.0000,39.5700,74,97,199577
1.7937,0.0000,39.6700,74,97,199580
1.7986,0.0000,39.6700,74,97,199583
1.7937,0.0000,39.6700,74,97,199587
1.8524,0.0098,39.4800,74,97,199590
1.8035,0.0000,39.6000,74,97,199593
1.8084,0.0000,39.6400,74,97,199597
1.8182,0.0000,39.6400,74,97,199601
1.8231,0.0000,39.7700,74,97,199604
1.8817,0.0147,39.4800,74,97,199607
1.8377,0.0049,39.6400,74,97,199611
1.8426,0.0000,39.6000,74,97,199614
1.8573,0.0000,39.7000,74,97,199617
1.8328,0.0000,39.6700,74,97,199620
1.8817,0.0098,39.5100,74,97,199624
1.8524,0.0049,39.6400,74,97,199627
1.8524,0.0000,39.6000,74,97,199630
1.8231,0.0000,39.6700,74,97,199633
1.8377,0.0000,39.7000,74,97,199638
1.8817,0.0587,39.4800,74,97,199641
1.8475,0.0000,39.6400,74,97,199644
1.8671,0.0000,39.5700,74,97,199648
1.8377,0.0098,39.6700,74,97,199651
1.8377,0.0000,39.6700,74,97,199654
1.8719,0.0391,39.5700,74,97,199657
1.8377,0.0000,39.6700,74,97,199661
1.8524,0.0000,39.5700,74,97,199664
1.8328,0.0147,39.6700,74,97,199667
1.8377,0.0000,39.6700,74,97,199670
1.8671,0.0049,39.6000,74,97,199674
1.8524,0.0000,39.6400,74,97,199677
1.8768,0.0000,39.5700,74,97,199681
1.8475,0.0000,39.6700,74,97,199684
1.8475,0.0000,39.6700,74,97,199688
1.8768,0.0049,39.5100,74,97,199691
1.8671,0.0000,39.6400,74,97,199694
1.8573,0.0049,39.5400,74,97,199698
1.8328,0.0000,39.6700,74,97,199701
1.8280,0.0000,39.7000,74,97,199704
1.8524,0.0049,39.5700,74,97,199707
1.8524,0.0000,39.7000,74,97,199711
1.8573,0.0244,39.5400,74,97,199714
1.8280,0.0000,39.6700,74,97,199717
1.8280,0.0000,39.6700,74,97,199720
1.8524,0.0000,39.6000,74,97,199725
1.8426,0.0000,39.6700,74,97,199728
1.8671,0.0000,39.5400,74,97,199731
1.8328,0.0000,39.7000,74,97,199734
1.8328,0.0000,39.6700,74,97,199738
1.8622,0.0049,39.6000,74,97,199741
1.8280,0.0000,39.6700,74,97,199744
1.8573,0.0049,39.5100,74,97,199747
1.8280,0.0000,39.6700,74,97,199751
1.8328,0.0000,39.7300,74,97,199754
1.8573,0.0049,39.6000,74,97,199757
1.8377,0.0000,39.6700,74,97,199761
1.8671,0.0000,39.6400,74,97,199764
1.8328,0.0000,39.6700,74,97,199768
1.8377,0.0000,39.7000,74,97,199771
1.8426,0.0049,39.6400,74,97,199775
1.8377,0.0000,39.6700,74,97,199778
1.8622,0.0000,39.5400,74,97,199781
1.8328,0.0000,39.7000,74,97,199784
1.8328,0.0000,38.8400,74,97,199788
1.8622,0.0049,39.5400,74,97,199791
1.8280,0.0000,39.6700,74,97,199794
1.8622,0.0000,39.5400,74,97,199797
1.8377,0.0000,39.6400,74,97,199801
1.8377,0.0000,39.6700,74,97,199804
1.8671,0.0000,39.6000,74,97,199808
1.8426,0.0000,39.7700,74,97,199811
1.8719,0.0000,39.5700,74,97,199815
1.8377,0.0000,39.6700,74,97,199818
1.8671,0.0000,39.7000,74,97,199821
1.8426,0.0000,39.6700,74,97,199824
1.8377,0.0000,39.7000,74,97,199828
1.8964,0.0000,39.5700,74,97,199831
1.8524,0.0000,39.6700,74,97,199834
1.8719,0.0000,39.6700,74,97,199837
1.9062,0.0049,39.5400,74,97,199841
1.8768,0.0000,39.8600,74,97,199844
1.9062,0.0000,39.6400,74,97,199847
1.8719,0.0000,39.5700,74,97,199851
1.8768,0.0000,39.6700,74,97,199855
1.8915,0.0196,39.6000,74,97,199858
1.8817,0.0000,39.6700,74,97,199861
1.9062,0.0293,39.5400,74,97,199865
1.8817,0.0000,39.6400,74,97,199868
1.8719,0.0000,39.6700,74,97,199871
1.8719,0.0147,39.6000,74,97,199874
1.8622,0.0000,39.6700,74,97,199878
1.8817,0.0000,39.5100,74,97,199881
1.8524,0.0000,39.7000,74,97,199884
1.8671,0.0000,39.6400,74,97,199887
1.8964,0.0049,39.4400,74,97,199891
1.9110,0.0000,39.7000,74,97,199895
1.9110,0.0000,39.4800,74,97,199898
1.8866,0.0000,39.6000,74,97,199901
1.8719,0.0000,39.6700,74,97,199905
1.8719,0.0098,39.6000,74,97,199908
1.8524,0.0000,39.6700,74,97,199911
1.8768,0.0000,39.5700,74,97,199914
1.8426,0.0000,39.6400,74,97,199918
1.8328,0.0000,39.7000,74,97,199921
1.8426,0.0000,39.6000,74,97,199924
1.8328,0.0000,39.6400,74,97,199927
1.8622,0.0000,39.5700,74,97,199931
1.8328,0.0000,39.9300,74,97,199934
1.8377,0.0000,39.7000,74,97,199938
1.8573,0.0049,39.6400,74,97,199942
1.8426,0.0000,39.6700,74,97,199945
1.8768,0.0000,39.4800,74,97,199948
1.8475,0.0000,39.6000,74,97,199951
1.8524,0.0196,39.6700,74,97,199955
1.8671,0.0049,39.6000,74,97,199958
1.8573,0.0000,39.6700,74,97,199961
1.9013,0.0000,39.4800,74,97,199964
1.8671,0.0000,39.6400,74,97,199968
1.8768,0.0000,39.6700,74,97,199971
1.8719,0.0342,39.7000,74,97,199974
1.8768,0.0000,39.7000,74,97,199977
1.9208,0.0000,39.4400,74,97,199982
1.8964,0.0342,39.6700,74,97,199985
1.9550,0.0049,39.6700,74,97,199988
2.0283,0.0049,39.6700,74,97,199992
2.1017,0.0196,39.6700,74,97,199995
2.2630,0.0000,39.4100,74,97,199998
2.3069,0.0098,39.6400,74,97,200001
2.3998,0.0049,39.7000,74,97,200005
2.5318,0.0000,39.6700,74,97,200008
2.6588,0.0000,39.6700,74,97,200011
2.8152,0.0098,39.4400,74,97,200015
2.7273,0.0000,39.6400,74,97,200018
2.5513,0.0000,39.6700,74,97,200022
2.2972,0.0391,39.6700,74,97,200025
2.0528,0.0000,39.6700,74,97,200029
1.8328,0.0098,39.4100,74,97,200032
1.6618,0.0000,39.6400,74,97,200035
1.6031,0.0000,39.6700,74,97,200038
1.6227,0.0000,39.6400,74,97,200042
1.6569,0.0000,39.6700,74,97,200045
1.7498,0.0147,39.5700,74,97,200048
1.7449,0.0000,39.6000,74,97,200051
1.7546,0.0000,39.6700,74,97,200055
1.7742,0.0000,39.6700,74,97,200058
1.8035,0.0000,39.6700,74,97,200061
1.8328,0.0147,39.3800,74,97,200065
1.7889,0.0000,39.6000,74,97,200069
1.7840,0.0000,39.6400,74,97,200072
1.7840,0.0000,39.6000,74,97,200075
1.7840,0.0000,39.6700,74,97,200079
1.8426,0.0098,39.4400,74,97,200082
1.8035,0.0000,39.6400,74,97,200085
1.8035,0.0000,39.6400,74,97,200088
1.8035,0.0244,39.6700,74,97,200092
1.8035,0.0000,39.7000,74,97,200095
1.8622,0.0098,39.4800,74,97,200098
1.8231,0.0049,39.6400,74,97,200101
1.8231,0.0000,39.6400,74,97,200105
1.8182,0.0147,39.6700,74,97,200109
1.8231,0.0000,39.6700,74,97,200112
1.8622,0.0049,39.5100,74,97,200116
1.8328,0.0000,39.6400,74,97,200119
1.8524,0.0000,39.5700,74,97,200122
1.8377,0.0000,39.6700,74,97,200125
1.8426,0.0000,39.7700,74,97,200129
1.8768,0.0049,39.5400,74,97,200132
1.8524,0.0000,39.6400,74,97,200135
1.8719,0.0000,39.6000,74,97,200138
1.8573,0.0000,39.7000,74,97,200142
1.8573,0.0000,39.7000,74,97,200145
1.8964,0.0147,39.5700,74,97,200148
1.8817,0.0000,39.6700,74,97,200152
1.8964,0.0098,39.5700,74,97,200156
1.8817,0.0000,39.7000,74,97,200159
1.8964,0.0049,39.6700,74,97,200162
1.9404,0.0049,39.5100,74,97,200166
1.9404,0.0000,39.6400,74,97,200170
1.9355,0.0000,39.7000,74,97,200174
1.9599,0.0000,39.5100,74,97,200177
1.9306,0.0000,39.6700,74,97,200180
1.9453,0.0000,39.7300,74,97,200183
1.9697,0.0000,39.6000,74,97,200187
1.9648,0.0000,39.7000,74,97,200190
2.0039,0.0000,39.5400,74,97,200194
1.9844,0.0000,39.6000,74,97,200197
2.0039,0.0000,39.7000,74,97,200201
2.0283,0.0049,39.5700,74,97,200204
2.0088,0.0000,39.7000,74,97,200207
2.0381,0.0000,39.5100,74,97,200210
2.0137,0.0000,39.6000,74,97,200214
2.0186,0.0000,39.7000,74,97,200217
2.0381,0.0293,39.6400,74,97,200220
2.0235,0.0049,39.6700,74,97,200223
2.0528,0.0000,39.5100,74,97,200227
2.0235,0.0000,39.6400,74,97,200230
2.0235,0.0000,39.7000,74,97,200233
2.0332,0.0000,39.6400,74,97,200237
2.0088,0.0000,39.7000,74,97,200241
2.0381,0.0000,39.5400,74,97,200244
2.0039,0.0000,39.7000,74,97,200247
2.0039,0.0000,39.7000,74,97,200250
2.0235,0.0049,39.5400,74,97,200254
1.9844,0.0049,39.7300,74,97,200257
2.0039,0.0000,39.5100,74,97,200260
1.9648,0.0000,39.6400,74,97,200263
1.9501,0.0244,39.6700,74,97,200267
1.9501,0.0049,39.5700,74,97,200270
1.9159,0.0000,39.7000,74,97,200273
1.9355,0.0000,39.5100,74,97,200276
1.8719,0.0244,39.6400,74,97,200281
1.8719,0.0000,39.6700,74,97,200284
1.8573,0.0000,39.6000,74,97,200287
1.8328,0.0000,39.7700,74,97,200290
1.8426,0.0000,39.5100,74,97,200294
1.7937,0.0000,39.6700,74,97,200297
1.7791,0.0000,39.6700,74,97,200300
1.7889,0.0049,39.5700,74,97,200304
1.7546,0.0000,39.7000,74,97,200307
1.7742,0.0000,39.4800,74,97,200310
1.7400,0.0049,39.5700,74,97,200313
1.7253,0.0000,39.6700,74,97,200317
1.7302,0.0049,39.6400,74,97,200321
1.7155,0.0000,39.7300,74,97,200324
1.7937,0.0000,39.4400,74,97,200327
1.7302,0.0049,39.6400,74,97,200331
1.7204,0.0000,39.7000,74,97,200334
1.7351,0.0049,39.6400,74,97,200337
1.7204,0.0000,39.7000,74,97,200341
1.7644,0.0000,39.4400,74,97,200344
1.7253,0.0000,39.6700,74,97,200347
1.7351,0.0049,39.7700,74,97,200350
1.7546,0.0049,39.6700,74,97,200354
1.7155,0.0000,39.6700,74,97,200357
1.7742,0.0049,39.4800,74,97,200360
1.7498,0.0049,39.5700,74,97,200364
1.7400,0.0000,39.7000,74,97,200368
1.7449,0.0098,39.6700,74,97,200371
1.7498,0.0000,39.7000,74,97,200374
1.8084,0.0049,39.4100,74,97,200378
1.7595,0.0000,39.6000,74,97,200381
1.7595,0.0000,39.7000,74,97,200384
1.7644,0.0000,39.7000,74,97,200387
1.7644,0.0000,39.7700,74,97,200391
1.8182,0.0098,39.4400,74,97,200394
1.7791,0.0049,39.6000,74,97,200397
1.7889,0.0000,39.6700,74,97,200400
1.7937,0.0000,39.6400,74,97,200404
1.7937,0.0000,39.6700,74,97,200408
1.8524,0.0147,39.4400,74,97,200411
1.8280,0.0049,39.6000,74,97,200415
1.8084,0.0000,39.6400,74,97,200418
1.8182,0.0000,39.6700,74,97,200421
1.8084,0.0000,39.6700,74,97,200424
1.8622,0.0147,39.5100,74,97,200428
1.8133,0.0049,39.6400,74,97,200431
1.8182,0.0000,39.6400,74,97,200434
1.8231,0.0049,39.6700,74,97,200437
1.8035,0.0000,39.7000,74,97,200441
1.8475,0.0147,39.5400,74,97,200444
1.8133,0.0000,39.7000,74,97,200448
1.8231,0.0000,39.5700,74,97,200452
1.8035,0.0000,39.6700,74,97,200455
1.7986,0.0000,39.7700,74,97,200458
1.8426,0.0098,39.6000,74,97,200461
1.8133,0.0049,39.6400,74,97,200465
1.8182,0.0000,39.5700,74,97,200468
1.8035,0.0000,39.6700,74,97,200471
1.8035,0.0000,39.0900,74,97,200474
1.8377,0.0049,39.5100,74,97,200478
1.8035,0.0000,39.6700,74,97,200481
1.8182,0.0000,39.5700,74,97,200484
1.8035,0.0000,39.6700,74,97,200487
1.8035,0.0049,39.7300,74,97,200492
1.8231,0.0049,39.6000,74,97,200495
1.7986,0.0000,39.8000,74,97,200498
1.8328,0.0000,39.5400,74,97,200501
1.7937,0.0098,39.6700,74,97,200505
1.7986,0.0000,39.7000,74,97,200508
1.8133,0.0147,39.6000,74,97,200511
1.7986,0.0000,39.6700,74,97,200515
1.8133,0.0000,39.5400,74,97,200518
1.7840,0.0000,39.7000,74,97,200521
1.7937,0.0000,39.6700,74,97,200524
1.8328,0.0049,39.5400,74,97,200528
1.7937,0.0098,39.6400,74,97,200531
1.8182,0.0098,39.5400,74,97,200535
1.7937,0.0000,39.7000,74,97,200538
1.7937,0.0000,39.6700,74,97,200542
1.8084,0.0049,39.5100,74,97,200545
1.7840,0.0000,39.7000,74,97,200548
1.8133,0.0049,39.5400,74,97,200551
1.7791,0.0000,39.6700,74,97,200555
1.7840,0.0000,39.6700,74,97,200558
1.8035,0.0000,39.6400,74,97,200561
1.7986,0.0000,39.7000,74,97,200565
1.8280,0.0049,39.5700,74,97,200568
1.8035,0.0000,39.6700,74,97,200571
1.8084,0.0000,39.7000,74,97,200574
1.8426,0.0049,39.6400,74,97,200579
1.8133,0.0000,39.7000,74,97,200582
1.8377,0.0000,39.5400,74,97,200585
1.8084,0.0000,39.6700,74,97,200588
1.8084,0.0000,39.7000,74,97,200592
1.8231,0.0000,39.6000,74,97,200595
1.7937,0.0000,39.7700,74,97,200598
1.8182,0.0049,39.6000,74,97,200601
1.7889,0.0000,39.7000,74,97,200605
1.7889,0.0000,39.6400,74,97,200608
1.8035,0.0000,39.6000,74,97,200611
1.8035,0.0049,39.7000,74,97,200614
1.8475,0.0000,39.5700,74,97,200619
1.8328,0.0000,39.6700,74,97,200622
1.8377,0.0244,39.6700,74,97,200625
1.8719,0.0049,39.5700,74,97,200629
1.8475,0.0000,39.6700,74,97,200632
1.8768,0.0000,39.6400,74,97,200635
1.8426,0.0000,39.6000,74,97,200638
1.8524,0.0000,39.6700,74,97,200642
1.8671,0.0049,39.6000,74,97,200645
1.8573,0.0000,39.6700,74,97,200648
1.8915,0.0000,39.5700,74,97,200651
1.8573,0.0000,39.6400,74,97,200655
1.8524,0.0000,39.7000,74,97,200658
1.8524,0.0000,39.6400,74,97,200662
1.8524,0.0000,39.6700,74,97,200665
1.8719,0.0000,39.5100,74,97,200669
1.8426,0.0049,39.6700,74,97,200672
1.8524,0.0000,39.7000,74,97,200675
1.8719,0.0049,39.5400,74,97,200678
1.8622,0.0000,39.6700,74,97,200682
1.8866,0.0000,39.5700,74,97,200685
1.8622,0.0000,39.6000,74,97,200688
1.8524,0.0000,39.7000,74,97,200691
1.8573,0.0049,39.6000,74,97,200695
1.8328,0.0000,39.7000,74,97,200698
1.8671,0.0000,39.5100,74,97,200701
1.8084,0.0000,39.7000,74,97,200706
1.8035,0.0000,39.7700,74,97,200709
1.8084,0.0049,39.6400,74,97,200712
1.7937,0.0000,39.8300,74,97,200715
1.8280,0.0000,39.4800,74,97,200719
1.7937,0.0000,39.7000,74,97,200722
1.7986,0.0000,39.7000,74,97,200725
1.8182,0.0049,39.5700,74,97,200728
1.7986,0.0000,39.7000,74,97,200732
1.8328,0.0098,39.4400,74,97,200735
1.8475,0.0000,39.5700,74,97,200738
1.8084,0.0293,39.6700,74,97,200741
1.8231,0.0049,39.6400,74,97,200745
1.8133,0.0000,39.6700,74,97,200749
1.8622,0.0049,39.4400,74,97,200752
1.8328,0.0000,39.7000,74,97,200756
1.8280,0.0000,39.7000,74,97,200759
1.8426,0.0049,39.6400,74,97,200762
1.8475,0.0000,39.7000,74,97,200765
1.9257,0.0049,39.4400,74,97,200769
1.9208,0.0000,39.6700,74,97,200772
2.0039,0.0000,39.7000,74,97,200775
2.1017,0.0049,39.6400,74,97,200778
2.6344,0.0000,39.6700,74,97,200783
2.7028,0.0244,39.7000,74,97,200786
2.6882,0.0098,39.5400,74,97,200791
2.4291,0.0000,39.6400,74,97,200794
2.1799,0.0000,39.6000,74,97,200797
1.8964,0.0000,39.7000,74,97,200800
1.7107,0.0000,39.6700,74,97,200804
1.6716,0.0098,39.5400,74,97,200807
1.6227,0.0000,39.6400,74,97,200810
1.6569,0.0000,39.5700,74,97,200813
1.6716,0.0098,39.7000,74,97,200817
1.7058,0.0000,39.8600,74,97,200820
1.7595,0.0098,39.5700,74,97,200823
1.7400,0.0000,39.6700,74,97,200827
1.7546,0.0000,39.5700,74,97,200830
1.7400,0.0049,39.7000,74,97,200834
1.7498,0.0000,39.6700,74,97,200837
1.7840,0.0098,39.5100,74,97,200841
1.7498,0.0000,39.6700,74,97,200844
1.7791,0.0000,39.5700,74,97,200847
1.7546,0.0000,39.6700,74,97,200850
1.7595,0.0000,39.6700,74,97,200854
1.7937,0.0049,39.6400,74,97,200857
1.7791,0.0098,39.7000,74,97,200860
1.7986,0.0000,39.5400,74,97,200864
1.7742,0.0000,39.7000,74,97,200867
1.7791,0.0196,39.6700,74,97,200870
1.8084,0.0049,39.5700,74,97,200873
1.7937,0.0000,39.6700,74,97,200878
1.8231,0.0000,39.5400,74,97,200881
1.8084,0.0000,39.7000,74,97,200884
1.8084,0.0147,39.6700,74,97,200887
1.8671,0.0049,39.5400,74,97,200891
1.8182,0.0000,39.7700,74,97,200894
1.8573,0.0049,39.5700,74,97,200897
1.8280,0.0000,39.6400,74,97,200901
1.8377,0.0000,39.7000,74,97,200904
1.8622,0.0049,39.6700,74,97,200907
1.8426,0.0000,39.6700,74,97,200910
1.8671,0.0000,39.5700,74,97,200914
1.8622,0.0049,39.7000,74,97,200918
1.8524,0.0000,39.7000,74,97,200921
1.8768,0.0000,39.6000,74,97,200924
1.8671,0.0342,39.6700,74,97,200928
1.9062,0.0000,39.5400,74,97,200931
1.8817,0.0000,39.7000,74,97,200934
1.8817,0.0000,39.6400,74,97,200937
1.9110,0.0098,39.5700,74,97,200941
1.9159,0.0049,39.7000,74,97,200944
1.9355,0.0000,39.5100,74,97,200947
1.9110,0.0000,39.6000,74,97,200951
1.9208,0.0000,39.8000,74,97,200954
1.9453,0.0049,39.6000,74,97,200957
1.9355,0.0000,39.8900,74,97,200961
1.9697,0.0000,39.5100,74,97,200965
1.9453,0.0000,39.8000,74,97,200968
1.9599,0.0196,39.6700,74,97,200971
1.9795,0.0049,39.6000,74,97,200974
1.9795,0.0000,39.6700,74,97,200978
2.0235,0.0000,39.5100,74,97,200981
1.9941,0.0049,39.7000,74,97,200984
2.0137,0.0000,39.7000,74,97,200987
2.0283,0.0196,39.5700,74,97,200991
2.0137,0.0000,39.7000,74,97,200994
2.0528,0.0293,39.5700,74,97,200997
2.0283,0.0000,39.5400,74,97,201001
2.0235,0.0000,39.6700,74,97,201005
2.0479,0.0049,39.5700,74,97,201008
2.0332,0.0000,39.6700,74,97,201011
2.0821,0.0000,39.4800,74,97,201015
2.0430,0.0000,39.6400,74,97,201018
2.0332,0.0000,39.6700,74,97,201021
2.0381,0.0049,39.7300,74,97,201024
2.0186,0.0000,39.6700,74,97,201028
2.0479,0.0000,39.4800,74,97,201031
1.9941,0.0000,39.7000,74,97,201034
1.9844,0.0000,39.7000,74,97,201037
1.9941,0.0098,39.6400,74,97,201041
1.9550,0.0000,39.7000,74,97,201044
1.9844,0.0000,39.4400,74,97,201048
1.9453,0.0098,39.6400,74,97,201051
1.9159,0.0049,39.7000,74,97,201055
1.9110,0.0049,39.6400,74,97,201058
1.8817,0.0000,39.7300,74,97,201061
1.9110,0.0049,39.4100,74,97,201065
1.8475,0.0000,39.6400,74,97,201068
1.8280,0.0000,39.7700,74,97,201071
1.8133,0.0049,39.7300,74,97,201074
1.7889,0.0000,39.9300,74,97,201078
1.8182,0.0049,39.4100,74,97,201081
1.7546,0.0000,39.6400,74,97,201084
1.7449,0.0000,39.6700,74,97,201088
1.7351,0.0049,39.6400,74,97,201092
1.7155,0.0000,39.6700,74,97,201095
1.7546,0.0098,39.4100,74,97,201098
1.7204,0.0098,39.5700,74,97,201102
1.7155,0.0000,39.6700,74,97,201105
1.7009,0.0098,39.6400,74,97,201108
1.7009,0.0000,39.6700,74,97,201111
1.7546,0.0196,39.4400,74,97,201115
1.7155,0.0049,39.6400,74,97,201118
1.7107,0.0049,39.6400,74,97,201121
1.7009,0.0000,39.6700,74,97,201125
1.7058,0.0000,39.6700,74,97,201128
1.7595,0.0147,39.5100,74,97,201132
1.7155,0.0000,39.6400,74,97,201135
1.7302,0.0000,39.6400,74,97,201139
1.7253,0.0440,39.6700,74,97,201142
1.7253,0.0000,39.7000,74,97,201145
1.7644,0.0049,39.5700,74,97,201148
1.7449,0.0049,39.6400,74,97,201152
1.7546,0.0000,39.5100,74,97,201155
1.7449,0.0000,39.6400,74,97,201158
1.7498,0.0000,39.7000,74,97,201162
1.7889,0.0098,39.2500,74,97,201165
1.7595,0.0000,39.7700,74,97,201168
1.7791,0.0000,39.5700,74,97,201171
1.7644,0.0000,39.7000,74,97,201176
1.7693,0.0000,39.6700,74,97,201179
1.8035,0.0098,39.8000,74,97,201182
1.7840,0.0391,39.6700,74,97,201185
1.8133,0.0000,39.5700,74,97,201189
1.7889,0.0049,39.7000,74,97,201192
1.7937,0.0000,39.7000,74,97,201195
1.8182,0.0147,39.6000,74,97,201198
1.8035,0.0000,39.6700,74,97,201202
1.8182,0.0049,39.5400,74,97,201205
1.7937,0.0000,39.7700,74,97,201208
1.7986,0.0000,39.7000,74,97,201212
1.8475,0.0049,39.5100,74,97,201216
1.8035,0.0000,39.7300,74,97,201219
1.8280,0.0049,39.5700,74,97,201222
1.8084,0.0000,39.6700,74,97,201226
1.8133,0.0000,39.6700,74,97,201229
1.8328,0.0293,39.6000,74,97,201232
1.8280,0.0000,39.7000,74,97,201235
1.8475,0.0049,39.5400,74,97,201239
1.8182,0.0342,39.6700,74,97,201242
1.8231,0.0000,39.6700,74,97,201245
1.8280,0.0049,39.6400,74,97,201249
1.8280,0.0049,39.9300,74,97,201252
1.8573,0.0000,39.5400,74,97,201255
1.8280,0.0000,39.6700,74,97,201259
1.8328,0.0000,39.7700,74,97,201263
1.8524,0.0049,39.5700,74,97,201266
1.8231,0.0000,39.6700,74,97,201269
1.8475,0.0000,39.6400,74,97,201272
1.8231,0.0000,39.6000,74,97,201276
1.8182,0.0000,39.7000,74,97,201279
1.8280,0.0049,39.6000,74,97,201282
1.8133,0.0000,39.7000,74,97,201286
1.8328,0.0000,39.5100,74,97,201289
1.7986,0.0000,39.7300,74,97,201292
1.8035,0.0000,39.7000,74,97,201295
1.8133,0.0147,39.6400,74,97,201298
1.8084,0.0000,39.7000,74,97,201303
1.8328,0.0000,39.4800,74,97,201306
1.7986,0.0000,39.7000,74,97,201309
1.8035,0.0000,39.7000,74,97,201313
1.8280,0.0098,39.5700,74,97,201316
1.7937,0.0000,39.7300,74,97,201319
1.8182,0.0000,39.5100,74,97,201322
1.7937,0.0000,39.6000,74,97,201326
1.7840,0.0000,39.6700,74,97,201329
1.7937,0.0049,39.6000,74,97,201332
1.7791,0.0000,39.7000,74,97,201335
1.8084,0.0000,38.7400,74,97,201339
1.7840,0.0000,39.6400,74,97,201342
1.7840,0.0000,39.7000,74,97,201346
1.7937,0.0147,39.6400,74,97,201349
1.7791,0.0000,39.7000,74,97,201353
1.8182,0.0000,39.4800,74,97,201356
1.7889,0.0000,39.6700,74,97,201359
1.7937,0.0000,39.9300,74,97,201362
1.8133,0.0049,39.6000,74,97,201366
1.7889,0.0000,39.6700,74,97,201369
1.8231,0.0000,39.4800,74,97,201372
1.7986,0.0000,39.6000,74,97,201375
1.7840,0.0000,39.6700,74,97,201379
1.8182,0.0000,39.7000,74,97,201382
1.7937,0.0000,39.5700,74,97,201385
1.8377,0.0000,39.5100,74,97,201389
1.8719,0.0049,39.3800,74,97,201394
1.8280,0.0000,39.6400,74,97,201397
1.8280,0.0000,39.6700,74,97,201401
1.8377,0.0098,39.6700,74,97,201404
1.8328,0.0000,39.7000,74,97,201407
1.8817,0.0440,39.4400,74,97,201410
1.8671,0.0049,39.5700,74,97,201414
1.8280,0.0000,39.6700,74,97,201417
1.8231,0.0049,39.6700,74,97,201420
1.8133,0.0000,39.6700,74,97,201424
1.8671,0.0147,39.5100,74,97,201427
1.8231,0.0049,39.6400,74,97,201431
1.8280,0.0000,39.6000,74,97,201434
1.8280,0.0244,39.6700,74,97,201438
1.8280,0.0000,39.7000,74,97,201441
1.8719,0.0147,39.5400,74,97,201444
1.8377,0.0049,39.6700,74,97,201448
1.8133,0.0000,39.6000,74,97,201451
1.7937,0.0049,39.6700,74,97,201454
1.7742,0.0000,39.6700,74,97,201457
1.8035,0.0147,39.6400,74,97,201461
1.7742,0.0244,39.6700,74,97,201464
1.7840,0.0000,39.6000,74,97,201467
1.7546,0.0000,39.7000,74,97,201472
1.7595,0.0000,39.7300,74,97,201475
1.7937,0.0098,39.6400,74,97,201478
1.7498,0.0049,39.7000,74,97,201481
1.7791,0.0000,39.5400,74,97,201485
1.7791,0.0000,39.7000,74,97,201488
1.7595,0.0000,39.6700,74,97,201491
1.7840,0.0098,39.6000,74,97,201494
1.7644,0.0049,39.6700,74,97,201498
1.8182,0.0049,39.5400,74,97,201501
1.7644,0.0049,39.6700,74,97,201504
1.7644,0.0196,39.7000,74,97,201508
1.7742,0.0049,39.6700,74,97,201511
1.7742,0.0000,39.5400,74,97,201515
1.7986,0.0000,39.5700,74,97,201518
1.7791,0.0049,39.6700,74,97,201522
1.8035,0.0000,39.7000,74,97,201525
1.8866,0.0049,39.5700,74,97,201528
1.9110,0.0049,39.6700,74,97,201532
2.0283,0.0000,39.6400,74,97,201535
2.1017,0.0000,39.6700,74,97,201538
2.1994,0.0000,39.7000,74,97,201541
2.2923,0.0049,39.6000,74,97,201545
2.3900,0.0000,39.7000,74,97,201548
2.5415,0.0000,39.5700,74,97,201551
2.6149,0.0000,39.6700,74,97,201554
2.6344,0.0000,39.7300,74,97,201559
2.5171,0.0049,39.6000,74,97,201562
2.2630,0.0000,39.8000,74,97,201565
2.0283,0.0000,39.5700,74,97,201568
1.7595,0.0049,39.7000,74,97,201572
1.6178,0.0000,39.7000,74,97,201575
1.5836,0.0049,39.6000,74,97,201578
1.5738,0.0049,39.5400,74,97,201582
1.6422,0.0049,39.4800,74,97,201585
1.6569,0.0049,39.6000,74,97,201588
1.6764,0.0000,39.7700,74,97,201591
1.7058,0.0049,39.6400,74,97,201595
1.7009,0.0000,39.6700,74,97,201598
1.7351,0.0049,39.4800,74,97,201602
1.7058,0.0098,39.6400,74,97,201606
1.7253,0.0049,39.7000,74,97,201609
1.6960,0.0049,39.6400,74,97,201612
1.6911,0.0000,39.8600,74,97,201615
1.7351,0.0049,39.4400,74,97,201619
1.6960,0.0147,39.6400,74,97,201622
1.7009,0.0000,39.7000,74,97,201625
1.7155,0.0049,39.6400,74,97,201628
1.7058,0.0000,39.7000,74,97,201632
1.7595,0.0098,39.3800,74,97,201635
1.7253,0.0342,39.6400,74,97,201638
1.7155,0.0000,39.6700,74,97,201643
1.7351,0.0049,39.6700,74,97,201646
1.7253,0.0000,39.7000,74,97,201649
1.8084,0.0244,39.4800,74,97,201652
1.7400,0.0049,39.7000,74,97,201656
1.7400,0.0000,39.6000,74,97,201659
1.7498,0.0049,39.7000,74,97,201662
1.7546,0.0000,39.7000,74,97,201666
1.8084,0.0147,39.5100,74,97,201669
1.7693,0.0049,39.7000,74,97,201672
1.7742,0.0293,39.6000,74,97,201675
1.7693,0.0000,39.6700,74,97,201679
1.7693,0.0000,39.7000,74,97,201682
1.8182,0.0391,39.6000,74,97,201686
1.7889,0.0049,39.6700,74,97,201689
1.8035,0.0000,39.6000,74,97,201693
1.7840,0.0000,39.6700,74,97,201696
1.8035,0.0049,39.7000,74,97,201699
1.8280,0.0049,39.5400,74,97,201703
1.8084,0.0049,39.6700,74,97,201706
1.8280,0.0000,39.5400,74,97,201709
1.8084,0.0049,39.7000,74,97,201712
1.8182,0.0000,39.7000,74,97,201716
1.8426,0.0098,39.5700,74,97,201719
1.8328,0.0049,39.7700,74,97,201722
1.8671,0.0000,39.5400,74,97,201725
1.8524,0.0098,39.7700,74,97,201730
1.8622,0.0000,39.7000,74,97,201733
1.8915,0.0098,39.5100,74,97,201736
1.8866,0.0098,39.7000,74,97,201740
1.9159,0.0098,39.5400,74,97,201743
1.8915,0.0000,39.7300,74,97,201746
1.9110,0.0000,39.6700,74,97,201749
1.9404,0.0440,39.5700,74,97,201753
1.9110,0.0000,39.6700,74,97,201756
1.9599,0.0098,39.5700,74,97,201759
1.9159,0.0000,39.6400,74,97,201763
1.9599,0.0000,39.6700,74,97,201766
1.9501,0.0000,39.6000,74,97,201769
1.9355,0.0000,39.8000,74,97,201773
1.9746,0.0049,39.5700,74,97,201777
1.9355,0.0000,39.7300,74,97,201780
1.9355,0.0000,39.6700,74,97,201783
1.9453,0.0049,39.6400,74,97,201786
1.9306,0.0049,39.6400,74,97,201790
1.9550,0.0000,39.5100,74,97,201793
1.9257,0.0000,39.6700,74,97,201796
1.9208,0.0000,39.7000,74,97,201799
1.9257,0.0098,39.6000,74,97,201803
1.8964,0.0000,39.6700,74,97,201806
1.9159,0.0000,39.5400,74,97,201809
1.8719,0.0000,39.6000,74,97,201812
1.8573,0.0000,39.8000,74,97,201817
1.8573,0.0049,39.6400,74,97,201820
1.8231,0.0000,39.9300,74,97,201823
1.8328,0.0000,39.5400,74,97,201826
1.7840,0.0000,39.6400,74,97,201830
1.7644,0.0000,39.6700,74,97,201833
1.7546,0.0049,39.6000,74,97,201836
1.7449,0.0000,39.7000,74,97,201840
1.7351,0.0000,39.5400,74,97,201843
1.6911,0.0049,39.7000,74,97,201846
1.6764,0.0000,39.7300,74,97,201849
1.6813,0.0098,39.5400,74,97,201853
1.6422,0.0000,39.7000,74,97,201857
1.6618,0.0000,39.4800,74,97,201860
1.6325,0.0049,39.8000,74,97,201863
1.6227,0.0244,39.6700,74,97,201867
1.6325,0.0098,39.6400,74,97,201870
1.6178,0.0000,39.6700,74,97,201873
1.6520,0.0049,39.4400,74,97,201877
1.6178,0.0440,39.6000,74,97,201880
1.6129,0.0000,39.6700,74,97,201883
1.6227,0.0049,39.6400,74,97,201886
1.6373,0.0000,39.4400,74,97,201890
1.6520,0.0098,39.4100,74,97,201893
1.6129,0.0000,39.6700,74,97,201896
1.6276,0.0000,39.7000,74,97,201901
1.6325,0.0000,39.6400,74,97,201904
1.6178,0.0000,39.7000,74,97,201907
1.6618,0.0098,39.4100,74,97,201910
1.6373,0.0098,39.5400,74,97,201914
1.6471,0.0000,39.7000,74,97,201917
1.6325,0.0049,39.7000,74,97,201920
1.6373,0.0000,39.7000,74,97,201923
1.6862,0.0147,39.4400,74,97,201927
1.6471,0.0049,39.6700,74,97,201930
1.6422,0.0000,39.6400,74,97,201933
1.6471,0.0049,39.6000,74,97,201937
1.6471,0.0342,39.6700,74,97,201940
1.7009,0.0147,39.5100,74,97,201944
1.6618,0.0049,39.6400,74,97,201947
1.6716,0.0000,39.6000,74,97,201951
1.6667,0.0049,39.6000,74,97,201954
1.6862,0.0000,39.7000,74,97,201957
1.7107,0.0342,39.5700,74,97,201961
1.7204,0.0049,39.6400,74,97,201964
1.6911,0.0000,39.6000,74,97,201967
1.6764,0.0049,39.7000,74,97,201970
1.6911,0.0000,39.7000,74,97,201974
1.7302,0.0098,39.5100,74,97,201977
1.6960,0.0000,39.6700,74,97,201980
1.7204,0.0000,39.5700,74,97,201984
1.7009,0.0000,39.7000,74,97,201988
1.7009,0.0000,39.7000,74,97,201991
1.7351,0.0098,39.6000,74,97,201994
1.7107,0.0049,39.7000,74,97,201997
1.7253,0.0000,39.5100,74,97,202001
1.7058,0.0049,39.7000,74,97,202004
1.6862,0.0000,39.5400,74,97,202009
1.6911,0.0000,39.7300,74,97,202012
1.7155,0.0098,39.6000,74,97,202015
1.6862,0.0049,39.7000,74,97,202019
1.7107,0.0000,39.5100,74,97,202022
1.6960,0.0049,39.6400,74,97,202025
1.6911,0.0000,39.6700,74,97,202029
1.7009,0.0196,39.5700,74,97,202033
1.6960,0.0049,39.6700,74,97,202036
1.7204,0.0049,39.4800,74,97,202039
1.6911,0.0000,39.7300,74,97,202043
1.6911,0.0000,39.7000,74,97,202046
1.7009,0.0147,39.6000,74,97,202049
1.7204,0.0049,39.7300,74,97,202052
1.7253,0.0049,39.4400,74,97,202056
1.6813,0.0147,39.6700,74,97,202059
1.6862,0.0000,39.7000,74,97,202062
1.6960,0.0049,39.6400,74,97,202065
1.6813,0.0000,39.7000,74,97,202070
1.7204,0.0098,39.4400,74,97,202073
1.7009,0.0049,39.6000,74,97,202076
1.6813,0.0000,39.6700,74,97,202080
1.6862,0.0049,39.7000,74,97,202083
1.6813,0.0000,39.7700,74,97,202086
1.7302,0.0098,39.3800,74,97,202089
1.6911,0.0147,39.6000,74,97,202093
1.6813,0.0000,39.6700,74,97,202096
1.7155,0.0049,39.6700,74,97,202099
1.6813,0.0000,39.7000,74,97,202103
1.7204,0.0244,39.4100,74,97,202106
1.6764,0.0000,39.6400,74,97,202109
1.6813,0.0000,39.6400,74,97,202113
1.6764,0.0098,39.7000,74,97,202117
1.6716,0.0000,39.7000,74,97,202120
1.7253,0.0147,39.5100,74,97,202123
1.6862,0.0098,39.6400,74,97,202126
1.6813,0.0000,39.6000,74,97,202130
1.6764,0.0049,39.6700,74,97,202133
1.6716,0.0049,39.6700,74,97,202136
1.7058,0.0098,39.5100,74,97,202140
1.6716,0.0049,39.6700,74,97,202143
1.6862,0.0000,39.6000,74,97,202146
1.6862,0.0098,39.6700,74,97,202149
1.7009,0.0000,39.7000,74,97,202153
1.7449,0.0098,39.5400,74,97,202157
1.7302,0.0049,39.7000,74,97,202160
1.7546,0.0000,39.5700,74,97,202164
1.7204,0.0000,39.6700,74,97,202167
1.7204,0.0000,39.6700,74,97,202170
1.7449,0.0098,39.6000,74,97,202173
1.7253,0.0000,39.6700,74,97,202177
1.7498,0.0049,39.5100,74,97,202180
1.7351,0.0000,39.6700,74,97,202183
1.7449,0.0049,39.6700,74,97,202186
1.7693,0.0049,39.5400,74,97,202190
1.7302,0.0049,39.7000,74,97,202193
1.7400,0.0147,39.5400,74,97,202196
1.7155,0.0000,39.6700,74,97,202201
1.7009,0.0000,39.6700,74,97,202204
1.7155,0.0098,39.6000,74,97,202207
1.7009,0.0391,39.7000,74,97,202210
1.7351,0.0000,39.5700,74,97,202214
1.7058,0.0000,39.6700,74,97,202217
1.7107,0.0000,39.6000,74,97,202220
1.7155,0.0049,39.6400,74,97,202223
1.6960,0.0000,39.7700,74,97,202227
1.7107,0.0000,39.5400,74,97,202230
1.6716,0.0000,39.7700,74,97,202233
1.6667,0.0000,39.7000,74,97,202237
1.6813,0.0049,39.5700,74,97,202241
1.6520,0.0000,39.7700,74,97,202244
1.6716,0.0000,39.5400,74,97,202247
1.6716,0.0000,39.6400,74,97,202251
1.6471,0.0098,39.7300,74,97,202254
1.6618,0.0049,39.6400,74,97,202257
1.6373,0.0000,39.7300,74,97,202260
1.6813,0.0000,39.5400,74,97,202264
1.6520,0.0000,39.6400,74,97,202267
1.6520,0.0000,39.7000,74,97,202270
1.6618,0.0049,39.7000,74,97,202273
1.6569,0.0000,39.6700,74,97,202277
1.6862,0.0000,39.6000,74,97,202280
1.6618,0.0000,39.7000,74,97,202284
1.6667,0.0000,39.6700,74,97,202287
1.6862,0.0049,39.5700,74,97,202291
1.6716,0.0000,39.7000,74,97,202294
1.6960,0.0000,39.4800,74,97,202297
1.6764,0.0000,39.5700,74,97,202301
1.6862,0.0000,39.7700,74,97,202304
1.7155,0.0049,39.7000,74,97,202307
1.7449,0.0000,39.6000,74,97,202310
1.8475,0.0000,39.4800,74,97,202314
1.9013,0.0000,39.6400,74,97,202317
2.0039,0.0000,39.6700,74,97,202320
2.1065,0.0000,39.5100,74,97,202323
2.1945,0.0000,39.7000,74,97,202328
2.3460,0.0000,39.5700,74,97,202331
2.4291,0.0000,39.6700,74,97,202334
2.5367,0.0000,39.7000,74,97,202337
2.5611,0.0049,39.6000,74,97,202341
2.3705,0.0049,39.6700,74,97,202344
2.1652,0.0000,39.4400,74,97,202347
1.8671,0.0000,39.5400,74,97,202350
1.6276,0.0000,39.7000,74,97,202354
1.4907,0.0049,39.6400,74,97,202357
1.4321,0.0000,39.7700,74,97,202360
1.4712,0.0000,39.4800,74,97,202363
1.4907,0.0000,39.6000,74,97,202368
1.5347,0.0000,39.6700,74,97,202371
1.5738,0.0049,39.7700,74,97,202374
1.5885,0.0000,39.6700,74,97,202378
1.6325,0.0000,38.6200,74,97,202381
1.6031,0.0000,39.6700,74,97,202384
1.6080,0.0000,39.7000,74,97,202387
1.6227,0.0000,39.7000,74,97,202391
1.6080,0.0000,39.7000,74,97,202394
1.6422,0.0000,39.4800,74,97,202397
1.6227,0.0000,39.6000,74,97,202400
1.6227,0.0000,39.6700,74,97,202404
1.6276,0.0098,39.6400,74,97,202407
1.6471,0.0000,39.7000,74,97,202411
1.6618,0.0000,39.4800,74,97,202414
1.6373,0.0000,39.6700,74,97,202418
1.6373,0.0000,39.7000,74,97,202421
1.6520,0.0049,39.6400,74,97,202424
1.6471,0.0000,39.7000,74,97,202427
1.7204,0.0000,39.4400,74,97,202431
1.6520,0.0049,39.6700,74,97,202434
1.6618,0.0000,39.7000,74,97,202437
1.7107,0.0000,39.6400,74,97,202440
1.6667,0.0000,39.6700,74,97,202444
1.7107,0.0000,39.4400,74,97,202447
1.6911,0.0000,39.6000,74,97,202450
1.6911,0.0000,39.7000,74,97,202454
1.6911,0.0000,39.6400,74,97,202458
1.6911,0.0293,39.6700,74,97,202461
1.7400,0.0000,39.4400,74,97,202464
1.7058,0.0049,39.6400,74,97,202467
1.7009,0.0000,39.6700,74,97,202471
1.7204,0.0000,39.7000,74,97,202474
1.7155,0.0000,39.7700,74,97,202477
1.7595,0.0000,39.4400,74,97,202480
1.7204,0.0000,39.7000,74,97,202484
1.7302,0.0000,39.6700,74,97,202487
1.7449,0.0049,39.7000,74,97,202490
1.7351,0.0000,39.7000,74,97,202494
1.7889,0.0000,39.4400,74,97,202498
1.7693,0.0000,39.6000,74,97,202501
1.7986,0.0000,39.7000,74,97,202504
1.7791,0.0000,39.6700,74,97,202508
1.7840,0.0000,39.6700,74,97,202511
1.8377,0.0000,39.5400,74,97,202514
1.8035,0.0000,39.6400,74,97,202517
1.7986,0.0000,39.6700,74,97,202521
1.8133,0.0049,39.6700,74,97,202524
1.8182,0.0000,39.7000,74,97,202527
1.8671,0.0000,39.4100,74,97,202530
1.8280,0.0000,39.6400,74,97,202534
1.8426,0.0000,39.7000,74,97,202537
1.8573,0.0000,39.6400,74,97,202541
1.8475,0.0000,39.7000,74,97,202544
1.9013,0.0000,39.4100,74,97,202548
1.8719,0.0000,39.5700,74,97,202551
1.8622,0.0000,39.7000,74,97,202554
1.8671,0.0000,38.8100,74,97,202557
1.8573,0.0000,39.7000,74,97,202561
1.9013,0.0049,39.5100,74,97,202564
1.8524,0.0000,39.6400,74,97,202567
1.8817,0.0000,39.7000,74,97,202570
1.8573,0.0000,39.6700,74,97,202574
1.8475,0.0000,39.7300,74,97,202577
1.8866,0.0000,39.4400,74,97,202580
1.8377,0.0000,39.7000,74,97,202584
1.8377,0.0000,39.7000,74,97,202588
1.8377,0.0000,39.6700,74,97,202591
1.8133,0.0000,39.6700,74,97,202594
1.8524,0.0000,39.4100,74,97,202597
1.8035,0.0000,39.6000,74,97,202601
1.7693,0.0000,39.6700,74,97,202604
1.7595,0.0049,39.6700,74,97,202607
1.7302,0.0000,39.6700,74,97,202610
1.7546,0.0000,39.3800,74,97,202614
1.6569,0.0098,39.5700,74,97,202618
1.6080,0.0000,39.7000,74,97,202622
1.5934,0.0000,39.6000,74,97,202626
1.5738,0.0244,39.6700,74,97,202629
1.5640,0.0000,39.6700,74,97,202632
1.6373,0.0049,39.5700,74,97,202636
1.5689,0.0000,39.6700,74,97,202639
1.5885,0.0000,39.5700,74,97,202642
1.5934,0.0000,39.6700,74,97,202646
1.5689,0.0000,39.6700,74,97,202649
1.5982,0.0000,39.5400,74,97,202652
1.5738,0.0342,39.6700,74,97,202655
1.5836,0.0000,39.5700,74,97,202659
1.5738,0.0000,39.7000,74,97,202662
1.5738,0.0000,39.9300,74,97,202665
1.6031,0.0049,39.1600,74,97,202669
1.5836,0.0000,39.7000,74,97,202673
1.6031,0.0000,39.7700,74,97,202676
1.5885,0.0000,39.7000,74,97,202679
1.5836,0.0000,39.6700,74,97,202682
1.6080,0.0049,39.6400,74,97,202686
1.6129,0.0000,39.6700,74,97,202689
1.6178,0.0000,39.5400,74,97,202692
1.6031,0.0000,39.6700,74,97,202695
1.6129,0.0000,39.7700,74,97,202699
1.6471,0.0000,39.5400,74,97,202702
1.6276,0.0000,39.6700,74,97,202705
1.6422,0.0000,39.5700,74,97,202708
1.6276,0.0000,39.6000,74,97,202713
1.6325,0.0000,39.6700,74,97,202716
1.6667,0.0000,39.5700,74,97,202719
1.6422,0.0000,39.6700,74,97,202723
1.6667,0.0000,39.5700,74,97,202726
1.6520,0.0000,39.7000,74,97,202729
1.6618,0.0000,39.7000,74,97,202732
1.7009,0.0049,39.6000,74,97,202736
1.6813,0.0000,39.6700,74,97,202739
1.7009,0.0000,39.5700,74,97,202742
1.6862,0.0000,39.7000,74,97,202745
1.6960,0.0000,39.6700,74,97,202749
1.7302,0.0000,39.4800,74,97,202753
1.6960,0.0000,39.6700,74,97,202756
1.7058,0.0000,39.5700,74,97,202759
1.6911,0.0000,39.7700,74,97,202763
1.6960,0.0000,39.7300,74,97,202766
1.7204,0.0000,39.5700,74,97,202769
1.7058,0.0000,39.7000,74,97,202772
1.7204,0.0196,39.5700,74,97,202776
1.7058,0.0049,39.7000,74,97,202779
1.7009,0.0000,39.7000,74,97,202782
1.7253,0.0000,39.7000,74,97,202785
1.7107,0.0000,39.6700,74,97,202789
1.7253,0.0000,39.5700,74,97,202792
1.7009,0.0000,39.8000,74,97,202796
1.7058,0.0000,39.7000,74,97,202799
1.7400,0.0000,39.4800,74,97,202803
1.7107,0.0000,39.6400,74,97,202806
1.7253,0.0000,39.5700,74,97,202809
1.7058,0.0000,39.7000,74,97,202812
1.7058,0.0000,39.9300,74,97,202816
1.7302,0.0000,39.5700,74,97,202819
1.7009,0.0000,39.6700,74,97,202822
1.7204,0.0000,39.5700,74,97,202825
1.6960,0.0000,39.2800,74,97,202829
1.6960,0.0000,39.7000,74,97,202832
1.7253,0.0000,39.6000,74,97,202835
1.7107,0.0000,39.6700,74,97,202839
1.7204,0.0000,39.5700,74,97,202843
1.6960,0.0000,39.7000,74,97,202846
1.6911,0.0000,39.7000,74,97,202849
1.7204,0.0000,39.5400,74,97,202852
1.6862,0.0000,39.7000,74,97,202856
1.7009,0.0000,39.5100,74,97,202859
1.6813,0.0000,39.7000,74,97,202862
1.6862,0.0000,39.8000,74,97,202865
1.7058,0.0000,39.5700,74,97,202869
1.6960,0.0000,39.6700,74,97,202872
1.7009,0.0000,39.5700,74,97,202875
1.6862,0.0000,39.6400,74,97,202878
1.6862,0.0000,39.8900,74,97,202883
1.7204,0.0049,39.6000,74,97,202886
1.7009,0.0000,39.6700,74,97,202889
1.7302,0.0000,39.6000,74,97,202892
1.6960,0.0000,39.7000,74,97,202896
1.7009,0.0000,39.7000,74,97,202899
1.7546,0.0000,39.5100,74,97,202902
1.7155,0.0000,39.7000,74,97,202905
1.7107,0.0000,39.5400,74,97,202909
1.6960,0.0000,39.7000,74,97,202912
1.7058,0.0000,39.6700,74,97,202915
1.7546,0.0000,39.5400,74,97,202918
1.7400,0.0000,39.6000,74,97,202923
1.7595,0.0000,39.6000,74,97,202926
1.7498,0.0000,39.7000,74,97,202929
1.7546,0.0196,39.6700,74,97,202932
1.7986,0.0049,39.5700,74,97,202936
1.7791,0.0000,39.8900,74,97,202939
1.7986,0.0000,39.5700,74,97,202942
1.7840,0.0000,39.6000,74,97,202945
1.7937,0.0000,39.6700,74,97,202949
1.8377,0.0000,39.4400,74,97,202952
1.8035,0.0000,39.7700,74,97,202955
1.8182,0.0000,39.5700,74,97,202958
1.7840,0.0000,39.6700,74,97,202962
1.7742,0.0000,39.6700,74,97,202966
1.7986,0.0000,39.3200,74,97,202969
1.7791,0.0000,39.6700,74,97,202972
1.7986,0.0000,39.5700,74,97,202976
1.7693,0.0244,39.7000,74,97,202979
1.7644,0.0000,39.7300,74,97,202982
1.8182,0.0000,39.6000,74,97,202985
1.7546,0.0000,39.7300,74,97,202989
1.7449,0.0000,39.6400,74,97,202992
1.7204,0.0000,39.7300,74,97,202995
1.7253,0.0000,39.7000,74,97,202998
1.7351,0.0000,39.5100,74,97,203002
1.6960,0.0000,39.7300,74,97,203005
1.7009,0.0000,39.6000,74,97,203009
1.6813,0.0000,39.7000,74,97,203012
1.6862,0.0000,39.8600,74,97,203016
1.7155,0.0049,39.5400,74,97,203019
1.6960,0.0000,39.6700,74,97,203022
1.7155,0.0000,39.5700,74,97,203025
1.6960,0.0000,39.7000,74,97,203029
1.7009,0.0000,39.7000,74,97,203032
1.7351,0.0049,39.5700,74,97,203035
1.7155,0.0000,39.7000,74,97,203039
1.7253,0.0000,39.5100,74,97,203042
1.7058,0.0000,39.7300,74,97,203045
1.7058,0.0000,39.6700,74,97,203048
1.7595,0.0000,39.5100,74,97,203053
1.7204,0.0000,39.7000,74,97,203056
1.7449,0.0000,39.6000,74,97,203059
1.7253,0.0000,39.7300,74,97,203062
1.7302,0.0000,39.7000,74,97,203066
1.7644,0.0000,39.6000,74,97,203069
1.7449,0.0000,39.7000,74,97,203072
1.7840,0.0000,39.5100,74,97,203075
1.7986,0.0000,39.7000,74,97,203079
1.8671,0.0000,39.7000,74,97,203082
1.9892,0.0000,39.5700,74,97,203085
2.0626,0.0000,39.8900,74,97,203088
2.1799,0.0000,39.5700,74,97,203092
2.2776,0.0000,39.7000,74,97,203096
2.3754,0.0000,39.9600,74,97,203099
2.5513,0.0000,39.5100,74,97,203102
2.6197,0.0000,39.6400,74,97,203106
2.6491,0.0000,39.5700,74,97,203109
2.4682,0.0098,39.7000,74,97,203112
2.2239,0.0000,39.7000,74,97,203115
1.9844,0.0000,39.5400,74,97,203119
1.7155,0.0000,39.6400,74,97,203122
1.5787,0.0000,39.6000,74,97,203125
1.5298,0.0000,39.7000,74,97,203128
1.5152,0.0000,39.6700,74,97,203132
1.5836,0.0049,39.5700,74,97,203136
1.6031,0.0000,39.6400,74,97,203139
1.6520,0.0000,39.5700,74,97,203142
1.6520,0.0000,39.6700,74,97,203146
1.6716,0.0000,39.8000,74,97,203149
1.7058,0.0000,39.5100,74,97,203152
1.6813,0.0000,39.6700,74,97,203155
1.7351,0.0000,39.5700,74,97,203159
1.6862,0.0000,39.6700,74,97,203162
1.6911,0.0000,39.8000,74,97,203165
1.7253,0.0000,39.6000,74,97,203168
1.7009,0.0000,39.6700,74,97,203172
1.7253,0.0000,39.6400,74,97,203175
1.7107,0.0000,39.6700,74,97,203179
1.7155,0.0000,39.7700,74,97,203182
1.7449,0.0000,39.6000,74,97,203186
1.7253,0.0000,39.7000,74,97,203189
1.7498,0.0000,39.5700,74,97,203192
1.7351,0.0000,39.7000,74,97,203195
1.7449,0.0000,39.8900,74,97,203199
1.7840,0.0000,39.5100,74,97,203202
1.7595,0.0000,39.6700,74,97,203205
1.7791,0.0440,39.5700,74,97,203208
1.7644,0.0000,39.7000,74,97,203212
1.7742,0.0000,39.6700,74,97,203215
1.7986,0.0000,39.5400,74,97,203218
1.7742,0.0000,39.6700,74,97,203222
1.8035,0.0000,39.5700,74,97,203226
1.7840,0.0000,39.7000,74,97,203229
1.8035,0.0000,39.7000,74,97,203234
1.8133,0.0000,39.7300,74,97,203237
1.8426,0.0049,39.4800,74,97,203240
1.8182,0.0000,39.7000,74,97,203243
1.8622,0.0000,39.5700,74,97,203247
1.8426,0.0000,39.6400,74,97,203250
1.8573,0.0000,39.8000,74,97,203253
1.8768,0.0000,39.6400,74,97,203256
1.8817,0.0000,39.7300,74,97,203260
1.9062,0.0000,39.5700,74,97,203264
1.8817,0.0000,39.6700,74,97,203267
1.8964,0.0000,39.8000,74,97,203270
1.9159,0.0000,39.6000,74,97,203274
1.9159,0.0000,39.6700,74,97,203277
1.9550,0.0000,39.5400,74,97,203280
1.9355,0.0000,39.7000,74,97,203283
1.9453,0.0000,39.7000,74,97,203287
1.9844,0.0000,39.5700,74,97,203290
1.9550,0.0000,39.6700,74,97,203293
1.9941,0.0000,39.6700,74,97,203296
1.9697,0.0000,39.6400,74,97,203300
1.9746,0.0000,39.7000,74,97,203303
2.0039,0.0000,39.6000,74,97,203307
1.9892,0.0000,39.7700,74,97,203310
2.0283,0.0000,39.5700,74,97,203314
1.9844,0.0098,39.7000,74,97,203317
1.9941,0.0000,39.7000,74,97,203320
1.9990,0.0000,39.6000,74,97,203323
1.9892,0.0000,39.6700,74,97,203327
2.0430,0.0000,39.5700,74,97,203330
1.9795,0.0000,39.7000,74,97,203333
1.9697,0.0000,39.6700,74,97,203336
1.9941,0.0000,39.5700,74,97,203340
1.9550,0.0000,39.6700,74,97,203343
1.9844,0.0000,39.5700,74,97,203346
1.9306,0.0000,39.6700,74,97,203350
1.9208,0.0000,39.6400,74,97,203354
1.9257,0.0000,39.6400,74,97,203357
1.8964,0.0000,39.7000,74,97,203360
1.9257,0.0000,39.5700,74,97,203363
1.8573,0.0147,39.6700,74,97,203367
1.8426,0.0000,39.7000,74,97,203370
1.8671,0.0000,39.6400,74,97,203373
1.8035,0.0000,39.6700,74,97,203377
1.8133,0.0000,39.5700,74,97,203380
1.7644,0.0000,39.7700,74,97,203383
1.7546,0.0000,39.7000,74,97,203386
1.7644,0.0000,39.5700,74,97,203390
1.7204,0.0000,39.6700,74,97,203394
1.7302,0.0000,39.5700,74,97,203397
1.6911,0.0000,39.6400,74,97,203400
1.6911,0.0000,39.6700,74,97,203404
1.7009,0.0000,39.6000,74,97,203407
1.6862,0.0000,39.6700,74,97,203410
1.7107,0.0000,39.5400,74,97,203413
1.6764,0.0000,39.6700,74,97,203417
1.6813,0.0000,39.8000,74,97,203420
1.6911,0.0000,39.6000,74,97,203423
1.6813,0.0000,39.6700,74,97,203426
1.7058,0.0000,39.6700,74,97,203430
1.6764,0.0000,39.6700,74,97,203433
1.6764,0.0000,39.7000,74,97,203437
1.7107,0.0098,39.5700,74,97,203440
1.6813,0.0000,39.6700,74,97,203444
1.7107,0.0000,39.5700,74,97,203447
1.6911,0.0000,39.6400,74,97,203450
1.6911,0.0000,39.7000,74,97,203453
1.7058,0.0000,39.6000,74,97,203457
1.6960,0.0000,39.2200,74,97,203460
1.7302,0.0000,39.5400,74,97,203463
1.6960,0.0000,39.6700,74,97,203466
1.7009,0.0000,39.6700,74,97,203470
1.7155,0.0000,39.6700,74,97,203473
