ecg,gsr,temp,hr,spo2,timest
1.5591,0.2884,38.2400,93,93,128149
1.5640,0.2884,38.4000,93,93,128153
1.5836,0.2835,38.4000,93,93,128156
1.6129,0.2933,38.2100,93,93,128159
1.6080,0.2981,38.3600,93,93,128162
1.6178,0.2884,38.2400,93,93,128166
1.5885,0.2884,38.4600,93,93,128169
1.5934,0.2933,38.4300,93,93,128173
1.5982,0.2884,38.4900,93,93,128177
1.6080,0.2933,38.3600,93,93,128180
1.6276,0.2933,38.2400,93,93,128183
1.6129,0.3030,38.4000,93,93,128187
1.6227,0.2835,38.4000,93,93,128190
1.6422,0.2933,38.3000,93,93,128193
1.6276,0.2884,38.4000,93,93,128197
1.6667,0.2933,38.1500,93,93,128200
1.6569,0.2933,38.4900,93,93,128203
1.6569,0.2835,38.4300,93,93,128206
1.6862,0.2933,38.3600,93,93,128210
1.6764,0.2835,38.3600,93,93,128214
1.7253,0.2981,38.0500,93,93,128217
1.6911,0.2884,38.4900,93,93,128221
1.6862,0.2835,38.3600,93,93,128224
1.6960,0.2884,38.3600,93,93,128227
1.7009,0.2835,38.3600,93,93,128231
1.7644,0.3079,38.1800,93,93,128234
1.7302,0.2933,38.4300,93,93,128237
1.7253,0.2835,38.3000,93,93,128241
1.7204,0.2835,38.3600,93,93,128244
1.7009,0.2884,38.3600,93,93,128247
1.7253,0.2933,38.2700,93,93,128250
1.7058,0.2884,38.3600,93,93,128254
1.7253,0.2884,38.2100,93,93,128258
1.7107,0.2884,38.4000,93,93,128261
1.7155,0.2835,38.1800,93,93,128265
1.7498,0.3030,38.2400,93,93,128268
1.7302,0.2884,38.3600,93,93,128271
1.7546,0.2933,38.2700,93,93,128275
1.7351,0.2786,38.3300,93,93,128278
1.7302,0.2835,38.4000,93,93,128281
1.7498,0.2933,38.3000,93,93,128285
1.7449,0.2933,38.3600,93,93,128288
1.7791,0.2884,38.3300,93,93,128291
1.7693,0.2786,38.3300,93,93,128294
1.7742,0.2835,38.4300,93,93,128299
1.7889,0.2981,38.3000,93,93,128302
1.7742,0.2786,38.3600,93,93,128305
1.8231,0.2933,38.0500,93,93,128309
1.7889,0.2688,38.3300,93,93,128312
1.7986,0.2835,38.4000,93,93,128315
1.8084,0.2884,38.2700,93,93,128319
1.8035,0.2688,38.3600,93,93,128322
1.8573,0.3030,38.0800,93,93,128325
1.8280,0.2884,38.3300,93,93,128328
1.8231,0.2835,38.3600,93,93,128332
1.8280,0.2884,38.4600,93,93,128335
1.8280,0.2835,38.4300,93,93,128338
1.8768,0.2981,38.2100,93,93,128343
1.8426,0.2981,38.3000,93,93,128346
1.8377,0.2786,38.3000,93,93,128349
1.8231,0.2884,38.4600,93,93,128353
1.8182,0.2933,38.3600,93,93,128356
1.8475,0.2981,38.2400,93,93,128359
1.8280,0.2981,38.3600,93,93,128363
1.8475,0.2688,38.2400,93,93,128366
1.8035,0.2835,38.2700,93,93,128369
1.7937,0.2884,38.4000,93,93,128372
1.8084,0.2884,38.3000,93,93,128376
1.8084,0.2884,38.4300,93,93,128379
1.8377,0.2933,38.2400,93,93,128382
1.7986,0.2884,38.4000,93,93,128387
1.7840,0.2835,38.4000,93,93,128390
1.7937,0.3177,38.2400,93,93,128393
1.7742,0.2884,38.3600,93,93,128397
1.8035,0.2884,38.1500,93,93,128400
1.7840,0.2981,38.2700,93,93,128403
1.7742,0.2933,38.4300,93,93,128406
1.7840,0.2981,38.3000,93,93,128410
1.7595,0.2933,38.3600,93,93,128413
1.8084,0.2933,38.1500,93,93,128416
1.7791,0.3079,38.3000,93,93,128420
1.7889,0.2884,38.4000,93,93,128423
1.7889,0.2884,38.3300,93,93,128427
1.7742,0.2835,38.3300,93,93,128431
1.8133,0.3030,38.0800,93,93,128434
1.7644,0.2884,38.3000,93,93,128437
1.7546,0.2835,38.3600,93,93,128440
1.7644,0.3226,38.3600,93,93,128444
1.7644,0.2835,38.3600,93,93,128447
1.8231,0.3030,38.3600,93,93,128450
1.7986,0.2933,38.3300,93,93,128454
1.7937,0.2835,38.3000,93,93,128457
1.7889,0.2884,38.4600,93,93,128460
1.7889,0.2835,38.3600,93,93,128464
1.8231,0.2981,38.2400,93,93,128467
1.7937,0.2835,38.3300,93,93,128471
1.8133,0.2884,38.2700,93,93,128475
1.7742,0.2884,38.4900,93,93,128478
1.7742,0.2835,38.3600,93,93,128481
1.8035,0.2981,38.3000,93,93,128484
1.7937,0.2884,38.3600,93,93,128488
1.8328,0.2933,38.2100,93,93,128491
1.8133,0.2884,38.3600,93,93,128494
1.8280,0.2835,38.3600,93,93,128498
1.8280,0.2884,38.3000,93,93,128501
1.8280,0.2884,38.3600,93,93,128504
1.8377,0.2884,38.1800,93,93,128508
1.8084,0.2884,38.4000,93,93,128512
1.8133,0.2835,38.5200,93,93,128515
1.8524,0.2981,38.3000,93,93,128518
1.8719,0.2933,38.4000,93,93,128523
1.8622,0.2835,38.4000,93,93,128527
1.9159,0.3079,38.3300,93,93,128530
1.8915,0.2933,38.3300,93,93,128533
1.8817,0.2835,38.3000,93,93,128536
1.8915,0.2884,38.4000,93,93,128540
1.9013,0.2835,38.3600,93,93,128543
1.9795,0.2981,38.2400,93,93,128546
1.9355,0.2884,38.3300,93,93,128550
1.9404,0.2933,38.2700,93,93,128553
1.9013,0.2884,38.3600,93,93,128557
1.8671,0.3177,38.4000,93,93,128561
1.8524,0.2933,38.3300,93,93,128564
1.8035,0.2884,38.4000,93,93,128567
1.8035,0.2981,38.2400,93,93,128570
1.7693,0.2884,38.4000,93,93,128574
1.7791,0.2835,38.5200,93,93,128577
1.8133,0.3079,38.2400,93,93,128580
1.7889,0.2884,38.4000,93,93,128584
1.7986,0.2884,38.5500,93,93,128587
1.7791,0.3275,38.3000,93,93,128590
1.7693,0.2786,38.3600,93,93,128594
1.7791,0.2981,38.2700,93,93,128598
1.7498,0.2835,38.3600,93,93,128601
1.7742,0.2933,38.1500,93,93,128604
1.7253,0.2933,38.3300,93,93,128608
1.7155,0.2835,38.3600,93,93,128611
1.7107,0.2933,38.3600,93,93,128614
1.6960,0.2884,38.4000,93,93,128618
1.7449,0.2981,38.0800,93,93,128621
1.7204,0.3128,38.3600,93,93,128624
1.7400,0.2835,38.3600,93,93,128628
1.7400,0.2884,37.6500,93,93,128631
1.7351,0.2835,38.4300,93,93,128634
1.7840,0.3030,38.1800,93,93,128638
1.7546,0.2933,38.3000,93,93,128642
1.7595,0.3128,38.3000,93,93,128645
1.7742,0.2884,38.3600,93,93,128648
1.8182,0.2835,38.3600,93,93,128652
1.9159,0.2981,38.2100,93,93,128655
1.9746,0.3421,38.3000,93,93,128658
2.0968,0.2981,38.2400,93,93,128662
2.2287,0.2884,38.3600,93,93,128665
2.4242,0.2835,38.3600,93,93,128668
2.6784,0.2884,38.3000,93,93,128672
2.8788,0.2884,38.3600,93,93,128675
3.1134,0.2933,38.2400,93,93,128678
3.1427,0.2884,38.4000,93,93,128683
3.0841,0.2884,38.5500,93,93,128686
2.8837,0.2884,38.2700,93,93,128689
2.5660,0.2688,38.4000,93,93,128692
2.3216,0.2884,38.1800,93,93,128696
2.0283,0.2786,38.4000,93,93,128699
1.8182,0.2835,38.4000,93,93,128702
1.6618,0.2981,38.3000,93,93,128706
1.5054,0.2884,38.4000,93,93,128709
1.4418,0.3030,38.1100,93,93,128712
1.3685,0.2933,38.2700,93,93,128716
1.3343,0.2835,38.5500,93,93,128719
1.3343,0.3030,38.3300,93,93,128722
1.3294,0.2835,38.4000,93,93,128726
1.3881,0.3079,38.0200,93,93,128730
1.3881,0.2884,38.3000,93,93,128733
1.3930,0.2786,38.4600,93,93,128736
1.4125,0.2933,38.3600,93,93,128740
1.4272,0.2835,38.4000,93,93,128743
1.4858,0.3030,38.2100,93,93,128746
1.4809,0.2933,38.3300,93,93,128750
1.4858,0.2688,38.3000,93,93,128753
1.4858,0.2884,38.1500,93,93,128756
1.4956,0.2688,38.4000,93,93,128760
1.5200,0.2981,38.2700,93,93,128763
1.5054,0.2884,38.3300,93,93,128766
1.5249,0.2835,38.2400,93,93,128770
1.5396,0.2884,38.3600,93,93,128774
1.5689,0.2933,38.4000,93,93,128777
1.6227,0.2981,38.2100,93,93,128780
1.5934,0.2786,38.3300,93,93,128784
1.6080,0.2933,38.2700,93,93,128787
1.5787,0.2786,38.3600,93,93,128790
1.5934,0.2933,38.3600,93,93,128794
1.6227,0.2884,38.3300,93,93,128797
1.6227,0.2933,38.4000,93,93,128800
1.6716,0.2884,38.1800,93,93,128803
1.6373,0.2835,38.2700,93,93,128807
1.6373,0.3226,38.4000,93,93,128811
1.6618,0.2884,38.3000,93,93,128814
1.6520,0.2835,38.4000,93,93,128818
1.6960,0.3030,38.0800,93,93,128821
1.6618,0.2884,38.3600,93,93,128824
1.6667,0.2835,38.4000,93,93,128828
1.6764,0.2884,38.3600,93,93,128831
1.6764,0.2835,38.4000,93,93,128834
1.7302,0.2981,38.0800,93,93,128838
1.7058,0.2933,38.3000,93,93,128841
1.6960,0.2835,38.4000,93,93,128844
1.7009,0.2933,38.3600,93,93,128847
1.6960,0.2835,38.4900,93,93,128851
1.7498,0.3079,38.2100,93,93,128855
1.7253,0.2933,38.3000,93,93,128858
1.7253,0.2835,38.3300,93,93,128862
1.7302,0.2884,38.3600,93,93,128865
1.7351,0.2835,38.4000,93,93,128868
1.7840,0.2884,38.3000,93,93,128872
1.7742,0.2884,38.3600,93,93,128875
1.7889,0.2884,38.2100,93,93,128878
1.7595,0.3079,38.4000,93,93,128881
1.7546,0.2884,38.4000,93,93,128885
1.7595,0.2933,38.3300,93,93,128888
1.7498,0.2884,38.4000,93,93,128891
1.7840,0.2933,38.3000,93,93,128896
1.7546,0.2884,38.4000,93,93,128899
1.7644,0.2884,38.3000,93,93,128902
1.7840,0.2981,38.2700,93,93,128906
1.7546,0.2884,38.4000,93,93,128909
1.7693,0.2884,38.3000,93,93,128912
1.7449,0.2786,38.3600,93,93,128915
1.7400,0.2786,38.4000,93,93,128919
1.7595,0.2933,38.2700,93,93,128922
1.7400,0.2933,38.3600,93,93,128925
1.7840,0.2933,38.1500,93,93,128929
1.7742,0.2884,38.3600,93,93,128932
1.7791,0.2835,38.4000,93,93,128935
1.8133,0.2933,38.3600,93,93,128940
1.8133,0.3079,38.4000,93,93,128943
1.8817,0.3079,38.0800,93,93,128946
1.8475,0.2835,38.3300,93,93,128949
1.8524,0.2835,38.4000,93,93,128953
1.8719,0.2933,38.3600,93,93,128956
1.8475,0.2835,38.3600,93,93,128959
1.8964,0.3079,38.1800,93,93,128963
1.8475,0.2933,38.3300,93,93,128966
1.8377,0.2786,38.3000,93,93,128969
1.8328,0.2884,38.4000,93,93,128973
1.8280,0.2835,38.3600,93,93,128976
1.8573,0.2981,38.1800,93,93,128979
1.8280,0.2884,38.3600,93,93,128984
1.8328,0.2884,38.2700,93,93,128987
1.8426,0.2835,38.4300,93,93,128990
1.8182,0.2835,38.3600,93,93,128993
1.8475,0.2981,38.2700,93,93,128997
1.8280,0.2786,38.3600,93,93,129000
1.8622,0.2933,38.3600,93,93,129003
1.8377,0.2933,38.4000,93,93,129007
1.8280,0.2835,38.3600,93,93,129010
1.8377,0.2884,38.2700,93,93,129013
1.8231,0.2884,38.3600,93,93,129017
1.8524,0.2884,38.1500,93,93,129020
1.8328,0.2835,38.4000,93,93,129024
1.8328,0.2835,38.3600,93,93,129028
1.8426,0.2981,38.3000,93,93,129031
1.8084,0.2835,38.4900,93,93,129034
1.8377,0.2933,38.1500,93,93,129037
1.8084,0.2933,38.2700,93,93,129041
1.7937,0.2835,38.4000,93,93,129044
1.7986,0.2933,38.3300,93,93,129047
1.7840,0.2835,38.4000,93,93,129051
1.8426,0.2981,38.0500,93,93,129054
1.8084,0.2835,38.2700,93,93,129057
1.8133,0.2737,38.4000,93,93,129061
1.7937,0.2884,38.3300,93,93,129064
1.7889,0.2835,38.4000,93,93,129068
1.8426,0.2981,38.1800,93,93,129071
1.8035,0.2884,38.3300,93,93,129075
1.7986,0.2835,38.2400,93,93,129078
1.8035,0.2786,38.3600,93,93,129081
1.7791,0.2835,38.3600,93,93,129085
1.8133,0.2884,38.2700,93,93,129088
1.7937,0.2884,38.3600,93,93,129091
1.8084,0.3030,38.2400,93,93,129095
1.7840,0.2688,38.4000,93,93,129098
1.7937,0.2835,38.5200,93,93,129101
1.8328,0.2933,38.2400,93,93,129105
1.8231,0.2884,38.4300,93,93,129108
1.8622,0.2933,38.2400,93,93,129112
1.8426,0.2835,38.3600,93,93,129115
1.8426,0.2835,38.3600,93,93,129119
1.8524,0.2884,38.2700,93,93,129122
1.8377,0.2835,38.4000,93,93,129125
1.8671,0.2933,38.2100,93,93,129129
1.9208,0.2981,38.0800,93,93,129133
1.8866,0.2835,38.3600,93,93,129137
1.8964,0.3030,38.4000,93,93,129140
1.9159,0.2933,38.3600,93,93,129143
1.9159,0.2835,38.4300,93,93,129147
1.9697,0.3030,38.2100,93,93,129150
1.9648,0.2933,38.3300,93,93,129154
1.9355,0.2835,38.2700,93,93,129158
1.9257,0.2688,38.3600,93,93,129161
1.9453,0.2835,38.4300,93,93,129164
1.9990,0.2933,38.1800,93,93,129168
1.9892,0.2884,38.3600,93,93,129171
2.0235,0.2884,38.3000,93,93,129174
2.0283,0.2835,38.4000,93,93,129177
2.0186,0.2835,38.4000,93,93,129181
2.0381,0.2981,38.2700,93,93,129184
2.0137,0.2884,38.4000,93,93,129187
2.0235,0.2981,38.2700,93,93,129191
1.9746,0.2884,38.3600,93,93,129195
1.9404,0.2884,38.4000,93,93,129198
1.9306,0.2933,38.2700,93,93,129202
1.9013,0.2835,38.4000,93,93,129205
1.9159,0.2884,38.1800,93,93,129208
1.8866,0.2835,38.3600,93,93,129211
1.8866,0.2835,38.4600,93,93,129215
1.8915,0.2933,38.3000,93,93,129218
1.8524,0.2835,38.4000,93,93,129221
1.8866,0.2933,38.0800,93,93,129225
1.8573,0.2786,38.2700,93,93,129228
1.8377,0.2688,38.3600,93,93,129231
1.8328,0.3030,38.4000,93,93,129235
1.8133,0.3030,38.4000,93,93,129239
1.8817,0.3079,38.1100,93,93,129242
1.8231,0.2884,38.3000,93,93,129245
1.8231,0.2835,38.3600,93,93,129249
1.8377,0.2884,38.3600,93,93,129252
1.8280,0.2835,38.4000,93,93,129255
1.8768,0.3079,38.2100,93,93,129259
1.8426,0.2884,38.3000,93,93,129262
1.8328,0.2786,38.4000,93,93,129265
1.8280,0.2884,38.3600,93,93,129269
1.8377,0.2835,38.3600,93,93,129272
1.9208,0.2884,38.3000,93,93,129275
1.9013,0.2884,38.3600,93,93,129280
1.9697,0.2884,38.2100,93,93,129283
2.0186,0.2884,38.4000,93,93,129286
2.1163,0.2835,38.3600,93,93,129289
2.2727,0.3030,38.2100,93,93,129293
2.3900,0.2884,38.3600,93,93,129296
2.6100,0.2933,37.7700,93,93,129299
2.8006,0.2884,38.3300,93,93,129303
3.0694,0.2786,38.4000,93,93,129306
3.2502,0.2884,38.6500,93,93,129309
3.2698,0.2884,38.4000,93,93,129313
3.2111,0.2933,38.1800,93,93,129316
2.9032,0.2835,38.3600,93,93,129319
2.5953,0.2981,38.4000,93,93,129323
2.3412,0.2933,38.3000,93,93,129327
2.0870,0.2835,38.4300,93,93,129330
1.9404,0.2933,38.1500,93,93,129333
1.7498,0.2835,38.3300,93,93,129337
1.6373,0.2835,38.3600,93,93,129340
1.5689,0.2933,38.3300,93,93,129343
1.5152,0.2835,38.4000,93,93,129347
1.5298,0.2933,38.1100,93,93,129350
1.5249,0.2688,38.3000,93,93,129353
1.4907,0.2835,38.3600,93,93,129356
1.5005,0.3128,38.3600,93,93,129360
1.5103,0.2786,38.4000,93,93,129363
1.5689,0.3030,38.2100,93,93,129367
1.5494,0.2933,38.3300,93,93,129371
1.5934,0.2835,38.3000,93,93,129374
1.5934,0.2835,38.3600,93,93,129377
1.6080,0.2786,38.4000,93,93,129381
1.6422,0.2884,38.2100,93,93,129384
1.6227,0.2884,38.3600,93,93,129387
1.6422,0.3128,38.2400,93,93,129391
1.6422,0.2933,38.4300,93,93,129394
1.6569,0.2835,38.4000,93,93,129397
1.6911,0.2933,38.3300,93,93,129400
1.6911,0.2835,38.3600,93,93,129404
1.7155,0.2933,38.2700,93,93,129408
1.6862,0.2835,38.4300,93,93,129411
1.6960,0.3177,38.3600,93,93,129415
1.7253,0.2933,38.2700,93,93,129418
1.7107,0.2884,38.3600,93,93,129421
1.7498,0.2688,38.1800,93,93,129425
1.7449,0.2835,38.2700,93,93,129428
1.7498,0.2737,38.3600,93,93,129431
1.7742,0.2933,38.3600,93,93,129435
1.7595,0.2884,38.4300,93,93,129438
1.8084,0.2933,38.1500,93,93,129441
1.7693,0.2835,38.2700,93,93,129444
1.7644,0.2786,38.4000,93,93,129448
1.7791,0.2884,38.2700,93,93,129452
1.7742,0.2786,38.3600,93,93,129455
1.8377,0.3030,38.1100,93,93,129459
1.8084,0.3177,38.3000,93,93,129462
1.8182,0.2835,38.3300,93,93,129465
1.8035,0.2884,38.3600,93,93,129469
1.7937,0.2835,38.3600,93,93,129472
1.8182,0.2981,38.2700,93,93,129475
1.7693,0.2884,38.3600,93,93,129479
1.8084,0.2786,38.2700,93,93,129482
1.7742,0.2835,38.3300,93,93,129485
1.7840,0.2786,38.4300,93,93,129488
1.8377,0.2933,38.2100,93,93,129492
1.8133,0.2884,38.3300,93,93,129496
1.8377,0.2884,38.2400,93,93,129499
1.8133,0.2786,38.4000,93,93,129503
1.8377,0.2933,38.4000,93,93,129506
1.8622,0.2884,38.4600,93,93,129509
1.8426,0.2786,38.4300,93,93,129513
1.8768,0.2835,38.2100,93,93,129516
1.8573,0.2835,38.3300,93,93,129519
1.8671,0.2688,38.4000,93,93,129523
1.8866,0.2884,38.2700,93,93,129526
1.8622,0.2933,38.4000,93,93,129529
1.8866,0.2933,38.2100,93,93,129532
1.8426,0.2786,38.3300,93,93,129537
1.8817,0.2786,38.3600,93,93,129540
1.8817,0.2884,38.4000,93,93,129543
1.9110,0.2835,38.4300,93,93,129547
1.9501,0.2933,38.0500,93,93,129550
1.9306,0.2884,38.6200,93,93,129553
1.9404,0.2835,38.3600,93,93,129557
1.9599,0.2835,38.3600,93,93,129560
1.9550,0.2835,38.4000,93,93,129563
2.0137,0.2981,38.1800,93,93,129567
1.9795,0.2884,38.3000,93,93,129570
1.9795,0.2786,38.3000,93,93,129573
1.9844,0.2835,38.4000,93,93,129576
1.9941,0.2688,38.4000,93,93,129581
2.0186,0.2933,38.1800,93,93,129584
1.9746,0.2933,38.4300,93,93,129587
1.9697,0.2835,38.2700,93,93,129591
1.9404,0.2933,38.4000,93,93,129594
1.9404,0.2835,38.4000,93,93,129597
1.9599,0.2884,38.3300,93,93,129601
1.9501,0.2835,38.3600,93,93,129604
1.9844,0.2688,38.2700,93,93,129607
1.9697,0.2835,38.4000,93,93,129611
1.9941,0.2688,38.4000,93,93,129614
2.0235,0.2933,38.2400,93,93,129617
1.9795,0.2786,38.3600,93,93,129620
1.9844,0.2835,38.2100,93,93,129625
1.9355,0.2835,38.2700,93,93,129628
1.9062,0.2884,38.4300,93,93,129631
1.9208,0.2933,38.3600,93,93,129635
1.9062,0.3177,38.4000,93,93,129638
1.9599,0.2933,38.1800,93,93,129641
1.9404,0.2884,38.3300,93,93,129645
1.9355,0.2835,38.3600,93,93,129648
1.9355,0.2884,38.3300,93,93,129651
1.9159,0.2835,38.4000,93,93,129654
1.9648,0.3226,38.0500,93,93,129658
1.9208,0.2835,38.3000,93,93,129661
1.9257,0.2786,38.4300,93,93,129665
1.9208,0.2933,38.3300,93,93,129669
1.9062,0.2835,38.4000,93,93,129672
1.9550,0.3030,38.1500,93,93,129675
1.9306,0.2933,38.3000,93,93,129679
1.9550,0.2737,38.2700,93,93,129682
1.9453,0.2835,38.3000,93,93,129685
1.9355,0.2835,38.3600,93,93,129688
1.9648,0.2933,38.2100,93,93,129692
1.9110,0.3030,38.3600,93,93,129695
1.9208,0.2884,38.2400,93,93,129698
1.8866,0.2835,38.4000,93,93,129702
1.8964,0.2835,38.4600,93,93,129705
1.9746,0.2933,38.2700,93,93,129709
1.9404,0.2835,38.4600,93,93,129713
1.9795,0.2933,38.2700,93,93,129716
1.9550,0.2835,38.4900,93,93,129719
1.9599,0.2737,38.4000,93,93,129723
1.9746,0.2884,38.3000,93,93,129726
1.9453,0.2835,38.6200,93,93,129729
1.9697,0.2786,38.2100,93,93,129732
1.9501,0.2835,38.4900,93,93,129736
1.9550,0.2835,38.3600,93,93,129739
1.9648,0.2933,38.3000,93,93,129742
1.9599,0.2884,38.1100,93,93,129747
1.9404,0.2835,38.4000,93,93,129751
2.0235,0.2884,38.2100,93,93,129755
1.9746,0.2884,38.4300,93,93,129758
1.9941,0.2835,38.3600,93,93,129761
2.0283,0.2835,38.3600,93,93,129765
2.0381,0.2835,38.4300,93,93,129768
2.0626,0.2933,38.2400,93,93,129771
2.0235,0.2688,38.3300,93,93,129775
2.0332,0.2835,38.2700,93,93,129778
1.9990,0.2786,38.4000,93,93,129781
1.9990,0.2786,38.4000,93,93,129784
2.0332,0.2884,38.4000,93,93,129788
2.0332,0.2981,38.3600,93,93,129792
2.0870,0.2933,38.2700,93,93,129795
2.0577,0.2835,38.3000,93,93,129799
2.0723,0.2786,38.3600,93,93,129802
2.1212,0.2933,38.2700,93,93,129805
2.1065,0.2835,38.3600,93,93,129809
2.1310,0.2884,38.2100,93,93,129812
2.0772,0.2835,38.3300,93,93,129815
2.0332,0.2786,38.4000,93,93,129818
2.0235,0.2933,38.2400,93,93,129822
1.9795,0.2835,38.3600,93,93,129825
2.0283,0.2884,38.1500,93,93,129828
2.0626,0.2884,38.3000,93,93,129832
2.0430,0.2786,38.4000,93,93,129836
2.0577,0.2884,38.3300,93,93,129839
2.0283,0.2835,38.3600,93,93,129843
2.0674,0.2933,38.0800,93,93,129846
2.0235,0.2786,38.3600,93,93,129849
2.0235,0.2786,38.4600,93,93,129852
2.0235,0.2933,38.3600,93,93,129856
2.0186,0.2835,38.4000,93,93,129859
2.0870,0.3030,38.1500,93,93,129862
2.0674,0.2933,38.3000,93,93,129866
2.0674,0.2737,38.3300,93,93,129869
2.0674,0.2835,38.3300,93,93,129872
2.0381,0.2835,38.4000,93,93,129876
2.0821,0.2884,38.1800,93,93,129880
2.0186,0.2884,38.1800,93,93,129883
2.0283,0.2835,38.2700,93,93,129886
2.0626,0.2835,38.3600,93,93,129890
2.0381,0.2786,38.4000,93,93,129893
2.0821,0.2884,38.2400,93,93,129896
2.0723,0.2786,38.3600,93,93,129900
2.0968,0.2835,38.2400,93,93,129903
2.0919,0.2835,38.4000,93,93,129906
2.1310,0.2786,38.4300,93,93,129910
2.1945,0.2835,38.3300,93,93,129913
2.3069,0.2835,38.3300,93,93,129916
2.5220,0.2737,38.2700,93,93,129920
2.7175,0.2835,38.3600,93,93,129924
2.9863,0.2786,38.4000,93,93,129927
3.3187,0.2933,38.2700,93,93,129930
3.4555,0.2835,38.4900,93,93,129934
3.5924,0.2933,38.1500,93,93,129937
3.4702,0.2835,38.2700,93,93,129940
3.1867,0.2786,38.4900,93,93,129944
2.8837,0.2933,38.2700,93,93,129947
2.5024,0.2786,38.3600,93,93,129950
2.2678,0.2933,37.6800,93,93,129953
1.9941,0.2737,38.3000,93,93,129957
1.7986,0.2835,38.4000,93,93,129960
1.6667,0.2884,38.3300,93,93,129964
1.5738,0.2737,38.4000,93,93,129968
1.5836,0.2688,38.1100,93,93,129971
1.5494,0.3030,38.3000,93,93,129974
1.5543,0.2737,38.3600,93,93,129978
1.5591,0.2786,38.4900,93,93,129981
1.5543,0.2835,38.4000,93,93,129984
1.5982,0.2981,38.2400,93,93,129988
1.5689,0.2884,38.4000,93,93,129991
1.5787,0.3030,38.2700,93,93,129994
1.6129,0.2835,38.3600,93,93,129997
1.6569,0.2786,38.3600,93,93,130001
1.6911,0.2884,38.2100,93,93,130004
1.6618,0.2835,38.3600,93,93,130008
1.6960,0.2835,38.2100,93,93,130012
1.7009,0.2835,38.4000,93,93,130015
1.7253,0.2786,38.4000,93,93,130018
1.7693,0.2981,38.3000,93,93,130022
1.7546,0.2786,38.3600,93,93,130025
1.7498,0.2835,38.2400,93,93,130028
1.7058,0.3128,38.3600,93,93,130031
1.7204,0.2688,38.4000,93,93,130035
1.7498,0.2835,38.3000,93,93,130038
1.7400,0.2835,38.3000,93,93,130041
1.7644,0.2835,38.1500,93,93,130045
1.7302,0.2835,38.4000,93,93,130049
1.7351,0.2786,38.5800,93,93,130052
1.7546,0.2933,38.3000,93,93,130056
1.7546,0.2835,38.4000,93,93,130059
1.8084,0.2884,38.1100,93,93,130062
1.7986,0.2786,38.3000,93,93,130065
1.7791,0.2688,38.4000,93,93,130069
1.7937,0.3128,38.3300,93,93,130072
1.8035,0.2786,38.4000,93,93,130075
1.8231,0.2933,38.0800,93,93,130079
1.7937,0.3177,38.2400,93,93,130082
1.7840,0.2786,38.3600,93,93,130085
1.7937,0.2835,38.3600,93,93,130089
1.7840,0.2835,38.4000,93,93,130093
1.8084,0.2884,38.2100,93,93,130096
1.7742,0.2884,38.3300,93,93,130100
1.7693,0.2786,38.2700,93,93,130103
1.7889,0.2786,38.3600,93,93,130106
1.7889,0.2786,38.3600,93,93,130109
1.8377,0.2933,38.3000,93,93,130113
1.8084,0.2835,38.4000,93,93,130116
1.8231,0.2835,38.2700,93,93,130119
1.8084,0.2835,38.4300,93,93,130123
1.8280,0.2688,38.4000,93,93,130126
1.8622,0.2933,38.2400,93,93,130129
1.8622,0.2835,38.3600,93,93,130134
1.8377,0.2884,38.2700,93,93,130137
1.8084,0.2835,38.3600,93,93,130140
1.8084,0.2884,38.4000,93,93,130143
1.8231,0.2884,38.2700,93,93,130147
1.7986,0.2835,38.3600,93,93,130150
1.8328,0.2688,38.1800,93,93,130153
1.7986,0.2835,38.4000,93,93,130157
1.8035,0.3030,38.3600,93,93,130160
1.8377,0.2933,38.3000,93,93,130163
1.8182,0.2835,38.4000,93,93,130167
1.8768,0.2884,38.1500,93,93,130170
1.8475,0.2786,38.3300,93,93,130173
1.8622,0.2786,38.4300,93,93,130178
1.8573,0.2933,38.4000,93,93,130181
1.8524,0.2835,38.4300,93,93,130184
1.9159,0.2933,38.1100,93,93,130187
1.8915,0.2884,38.3600,93,93,130191
1.8817,0.2786,38.3600,93,93,130194
1.8866,0.2835,38.3600,93,93,130197
1.9013,0.2835,38.5500,93,93,130201
1.9697,0.2981,38.1800,93,93,130204
1.9501,0.2884,38.3000,93,93,130207
1.9550,0.2835,38.2400,93,93,130211
1.9404,0.2786,38.4300,93,93,130214
1.9355,0.2835,38.4000,93,93,130217
1.9697,0.3030,38.2400,93,93,130222
1.9697,0.2786,38.3600,93,93,130225
2.0088,0.2835,38.2400,93,93,130228
1.9648,0.2835,38.5500,93,93,130231
1.9453,0.2688,38.4000,93,93,130235
1.9257,0.2835,38.3000,93,93,130238
1.8866,0.2981,38.4000,93,93,130241
1.8817,0.2933,38.2700,93,93,130245
1.8426,0.2835,38.4300,93,93,130248
1.8426,0.2981,38.4000,93,93,130251
1.8671,0.2884,38.2700,93,93,130255
1.8573,0.2835,38.3600,93,93,130258
1.8915,0.2835,38.1800,93,93,130262
1.8768,0.2835,38.2400,93,93,130265
1.8622,0.2786,38.4300,93,93,130269
1.8768,0.2884,38.3000,93,93,130272
1.8524,0.2835,38.3600,93,93,130275
1.9208,0.2933,38.1100,93,93,130279
1.8622,0.2835,38.4300,93,93,130282
1.8475,0.2835,38.4000,93,93,130285
1.8426,0.2835,38.3600,93,93,130289
1.8475,0.2835,38.4000,93,93,130292
1.9208,0.3030,38.1100,93,93,130295
1.8524,0.2835,38.3300,93,93,130299
1.8377,0.2835,38.3600,93,93,130302
1.8231,0.2835,38.3600,93,93,130306
1.8084,0.2933,38.4000,93,93,130309
1.8475,0.2981,38.2400,93,93,130313
1.8231,0.2884,38.4000,93,93,130316
1.8328,0.2835,38.2700,93,93,130319
1.8377,0.2835,38.3600,93,93,130323
1.8573,0.2786,38.4000,93,93,130326
1.8964,0.2884,38.2100,93,93,130329
1.8573,0.2835,38.3600,93,93,130333
1.8719,0.2884,38.2400,93,93,130336
1.8524,0.2835,38.4300,93,93,130339
1.8622,0.2786,38.3600,93,93,130343
1.8768,0.2884,38.2700,93,93,130347
1.8524,0.2835,38.3600,93,93,130350
1.8768,0.2786,38.2100,93,93,130353
1.8524,0.2884,38.1500,93,93,130357
1.8377,0.2786,38.3300,93,93,130361
1.8426,0.2688,38.4000,93,93,130365
1.8622,0.2884,38.3300,93,93,130368
1.8622,0.2835,38.4000,93,93,130371
1.9208,0.3030,38.0800,93,93,130375
1.8915,0.2884,38.2700,93,93,130378
1.8817,0.2835,38.3600,93,93,130381
1.8915,0.2835,38.4300,93,93,130385
1.8866,0.2786,38.4300,93,93,130388
1.9404,0.2884,38.1800,93,93,130392
1.9159,0.3177,38.3000,93,93,130396
1.9159,0.2786,38.2700,93,93,130399
1.9013,0.2835,38.4000,93,93,130402
1.9013,0.2786,38.2700,93,93,130405
1.9355,0.2933,38.2700,93,93,130409
1.9110,0.2835,38.1800,93,93,130412
1.9257,0.3079,38.2100,93,93,130415
1.9062,0.2688,38.4000,93,93,130419
1.9208,0.2786,38.3600,93,93,130422
1.9501,0.2884,38.3000,93,93,130425
1.9550,0.2688,38.3600,93,93,130429
1.9795,0.2835,38.3600,93,93,130433
1.9404,0.2835,38.3600,93,93,130436
1.9306,0.2786,38.4000,93,93,130439
1.9306,0.2884,38.2100,93,93,130443
1.8915,0.2835,38.3600,93,93,130446
1.9062,0.2884,38.1800,93,93,130449
1.8817,0.2835,38.2400,93,93,130453
1.8622,0.2786,38.3600,93,93,130456
1.8817,0.2933,38.3000,93,93,130459
1.8573,0.2688,38.4000,93,93,130463
1.8817,0.2933,38.1800,93,93,130466
1.8280,0.2786,38.3000,93,93,130469
1.7986,0.2835,38.4000,93,93,130473
1.7937,0.2835,38.4600,93,93,130477
1.7693,0.2835,38.4000,93,93,130480
1.8231,0.2981,38.1100,93,93,130483
1.7595,0.2835,38.2700,93,93,130487
1.7449,0.2786,38.3300,93,93,130490
1.7498,0.2835,38.3600,93,93,130493
1.7449,0.2835,38.4000,93,93,130497
1.7742,0.2981,38.2400,93,93,130500
1.7498,0.2835,38.3300,93,93,130503
1.7595,0.2835,38.2700,93,93,130507
1.7546,0.2835,38.3600,93,93,130510
1.7644,0.2835,38.4000,93,93,130513
1.7986,0.2884,38.1800,93,93,130518
1.7791,0.2835,38.3600,93,93,130521
1.8035,0.2884,38.3300,93,93,130524
1.7986,0.2933,38.3300,93,93,130527
1.8328,0.2786,38.4000,93,93,130531
1.8915,0.2884,38.3600,93,93,130534
1.9355,0.2835,38.4300,93,93,130537
2.0626,0.2835,38.2400,93,93,130541
2.1701,0.2786,38.4000,93,93,130544
2.3509,0.2981,38.3600,93,93,130547
2.6002,0.2884,38.3000,93,93,130551
2.8299,0.2835,38.4000,93,93,130554
3.1329,0.2884,37.4300,93,93,130557
3.2600,0.2786,38.4000,93,93,130561
3.2942,0.2786,38.4000,93,93,130565
3.1769,0.2884,38.3000,93,93,130568
2.8495,0.2933,38.4000,93,93,130571
2.5709,0.2933,38.1500,93,93,130575
2.2043,0.2786,38.3600,93,93,130578
1.9159,0.2786,38.4000,93,93,130581
1.7155,0.2884,38.3300,93,93,130585
1.5445,0.2835,38.4000,93,93,130588
1.4761,0.2884,38.1800,93,93,130591
1.3490,0.3177,38.2400,93,93,130595
1.3001,0.2884,38.3000,93,93,130598
1.2854,0.2688,38.4000,93,93,130601
1.2854,0.2835,38.4000,93,93,130605
1.3343,0.2933,38.4000,93,93,130609
1.3832,0.2835,38.3300,93,93,130612
1.4076,0.2688,38.2700,93,93,130615
1.4321,0.2835,38.4300,93,93,130619
1.4809,0.2786,38.4000,93,93,130622
1.4712,0.2884,38.3000,93,93,130625
1.4614,0.2835,38.2700,93,93,130629
1.4858,0.2933,38.3000,93,93,130632
1.4809,0.2835,38.4600,93,93,130635
1.5152,0.2786,38.4000,93,93,130638
1.5689,0.2933,38.2700,93,93,130642
1.5543,0.2981,38.3600,93,93,130646
1.5885,0.2688,38.2400,93,93,130649
1.5836,0.2835,38.2400,93,93,130653
1.5982,0.2835,38.4000,93,93,130656
1.6276,0.2884,38.2700,93,93,130659
1.6276,0.2835,38.4000,93,93,130663
1.6716,0.2933,38.1800,93,93,130666
1.6569,0.2884,38.4300,93,93,130669
1.6569,0.3030,38.4000,93,93,130673
1.6716,0.2786,38.3300,93,93,130676
1.6569,0.2835,38.4000,93,93,130679
1.7058,0.2933,38.1500,93,93,130682
1.6764,0.2835,38.3300,93,93,130686
1.6813,0.2786,38.4000,93,93,130690
1.6911,0.2835,38.4300,93,93,130693
1.7009,0.2835,38.4900,93,93,130697
1.7644,0.2981,38.1500,93,93,130700
1.7400,0.2884,38.3300,93,93,130703
1.7449,0.2835,38.4600,93,93,130707
1.7449,0.2688,38.3600,93,93,130710
1.7302,0.2835,38.4900,93,93,130713
1.7449,0.3030,38.1800,93,93,130717
1.6960,0.2884,38.3600,93,93,130720
1.6862,0.2835,38.2100,93,93,130723
1.6569,0.2786,38.4300,93,93,130726
1.6618,0.2835,38.4300,93,93,130731
1.6960,0.2933,38.2700,93,93,130734
1.6911,0.2786,38.3600,93,93,130737
1.7253,0.2933,38.2100,93,93,130741
1.7400,0.2835,38.4000,93,93,130744
1.7351,0.2835,38.4000,93,93,130747
1.7595,0.2737,38.3000,93,93,130751
1.7546,0.2835,38.4000,93,93,130754
1.7937,0.2835,38.2100,93,93,130757
1.7791,0.2835,38.4300,93,93,130761
1.7937,0.2786,38.4000,93,93,130764
1.8133,0.2933,38.3600,93,93,130767
1.7937,0.2835,38.3600,93,93,130770
1.8182,0.2933,38.1100,93,93,130775
1.7791,0.2884,38.3000,93,93,130778
1.7449,0.2786,38.4000,93,93,130781
1.7449,0.2884,38.3300,93,93,130785
1.7253,0.2835,38.4000,93,93,130788
1.7840,0.2981,38.1100,93,93,130791
1.7498,0.2933,38.2400,93,93,130795
1.7400,0.2786,38.3300,93,93,130798
1.7498,0.2835,38.4000,93,93,130801
1.7546,0.2884,38.4000,93,93,130804
1.8231,0.2884,38.2400,93,93,130808
1.7937,0.2884,38.2400,93,93,130811
1.8182,0.2786,38.3000,93,93,130814
1.8231,0.2835,38.4000,93,93,130819
1.8328,0.3030,38.4000,93,93,130822
1.8964,0.2981,38.3000,93,93,130825
1.8524,0.2884,38.3600,93,93,130829
1.8622,0.2835,38.2100,93,93,130832
1.8475,0.2835,38.4000,93,93,130835
1.8622,0.2835,38.5800,93,93,130839
1.8964,0.2981,38.2400,93,93,130842
1.8719,0.2835,38.4300,93,93,130845
1.9013,0.2884,38.2400,93,93,130848
1.9159,0.2786,38.4000,93,93,130852
1.8964,0.2786,38.3600,93,93,130855
1.9159,0.2688,38.2700,93,93,130859
1.8817,0.2835,37.6800,93,93,130863
1.8915,0.3079,38.1800,93,93,130866
1.8475,0.2835,38.3000,93,93,130869
1.8280,0.2835,38.4000,93,93,130873
1.8377,0.2835,38.3000,93,93,130876
1.8182,0.2835,38.4300,93,93,130879
1.8622,0.2933,38.2400,93,93,130882
1.8231,0.2835,38.3300,93,93,130886
1.8426,0.2835,38.4900,93,93,130889
1.8524,0.2835,38.3300,93,93,130892
1.8280,0.2835,37.7100,93,93,130896
1.8671,0.3079,38.1100,93,93,130899
1.8182,0.2884,38.3000,93,93,130903
1.7889,0.2786,38.3300,93,93,130907
1.7742,0.2835,38.3600,93,93,130910
1.7840,0.2786,38.3600,93,93,130913
1.8377,0.2884,38.1800,93,93,130917
1.8182,0.2884,38.3300,93,93,130920
1.8182,0.2835,38.3000,93,93,130923
1.7937,0.2835,38.3600,93,93,130927
1.7791,0.2835,38.3600,93,93,130930
1.7937,0.2933,38.2400,93,93,130933
1.7595,0.2835,38.4300,93,93,130936
1.7742,0.2933,38.3000,93,93,130940
1.7449,0.2835,38.4000,93,93,130944
1.7546,0.2835,38.4000,93,93,130947
1.7693,0.2933,38.3000,93,93,130951
1.7693,0.2835,38.3600,93,93,130954
1.7986,0.2835,38.3300,93,93,130957
1.7693,0.2835,38.3600,93,93,130961
1.7693,0.2835,38.4000,93,93,130964
1.8133,0.2933,38.2700,93,94,130967
1.7986,0.2933,38.3600,93,94,130972
1.7937,0.2835,38.4900,93,94,130975
1.8524,0.3079,38.1500,93,94,130979
1.8231,0.2933,37.4900,93,94,130982
1.8182,0.2786,38.3000,93,94,130985
1.8133,0.2835,38.4000,93,94,130990
1.8231,0.2835,38.4000,93,94,130993
1.8671,0.3177,38.2700,93,94,130996
1.8377,0.2884,38.3600,93,94,130999
1.8622,0.2884,38.2700,93,94,131003
1.8573,0.2786,38.3600,93,94,131006
1.8768,0.2835,38.4000,93,94,131009
1.9208,0.2981,38.4300,93,94,131013
1.8817,0.2884,38.3600,93,94,131016
1.8866,0.2933,38.2700,93,94,131019
1.8280,0.2835,38.4000,93,94,131023
1.8133,0.2835,38.4300,93,94,131026
1.8328,0.2933,38.3000,93,94,131030
1.8133,0.2835,38.4600,93,94,131034
1.8524,0.2835,38.1800,93,94,131037
1.8475,0.2835,38.3000,93,94,131040
1.8524,0.2835,38.3300,93,94,131043
1.8768,0.2933,38.3000,93,94,131047
1.8866,0.2835,38.3600,93,94,131050
1.9501,0.2933,38.1100,93,94,131053
1.9306,0.2835,38.3300,93,94,131057
1.9257,0.2835,38.2400,93,94,131060
1.9257,0.2884,38.3600,93,94,131063
1.8964,0.2835,38.4000,93,94,131067
1.9257,0.2981,38.0500,93,94,131070
1.8622,0.2835,38.3000,93,94,131074
1.8426,0.2786,38.3600,93,94,131077
1.8328,0.2884,38.3300,93,94,131081
1.8035,0.2835,38.3600,93,94,131084
1.8328,0.2981,38.2100,93,94,131087
1.8084,0.2884,38.3300,93,94,131091
1.7546,0.2835,38.2700,93,94,131094
1.7351,0.2884,38.3600,93,94,131097
1.7351,0.2835,38.4000,93,94,131101
1.7693,0.2884,38.2400,93,94,131104
1.7400,0.2835,38.3600,93,94,131107
1.7449,0.2884,38.2100,93,94,131111
1.7155,0.2786,38.4300,93,94,131115
1.7107,0.2835,38.4000,93,94,131118
1.7302,0.3030,38.2700,93,94,131122
1.7107,0.2835,38.3600,93,94,131125
1.7253,0.2884,38.3000,93,94,131128
1.7009,0.2933,38.3600,93,94,131131
1.7009,0.2933,38.4000,93,94,131135
1.7107,0.2884,38.3300,93,94,131138
1.7058,0.2835,38.3600,93,94,131141
1.7400,0.2884,38.1800,93,94,131145
1.7155,0.2835,38.4000,93,94,131148
1.7595,0.2835,38.4000,93,94,131151
1.7693,0.2884,38.3300,93,94,131155
1.7742,0.2884,38.3600,93,94,131159
1.8328,0.2933,38.1100,93,94,131162
1.8377,0.2981,38.3000,93,94,131166
1.8622,0.2786,38.4000,93,94,131169
1.9453,0.2933,38.3300,93,94,131172
2.0528,0.2786,38.3600,93,94,131175
2.2776,0.3030,38.2100,93,94,131179
2.4487,0.2933,38.3000,93,94,131182
2.6735,0.2786,38.3600,93,94,131185
2.9228,0.2884,38.3300,93,94,131189
3.1232,0.2786,38.4000,93,94,131192
3.2551,0.2933,38.2400,93,94,131195
3.1134,0.3177,38.3300,93,94,131200
2.8886,0.2835,38.2700,93,94,131203
2.5415,0.2835,38.4000,93,94,131206
2.2483,0.2835,38.4000,93,94,131210
2.0039,0.2884,38.3300,93,94,131213
1.7791,0.2835,38.4300,93,94,131216
1.6373,0.2884,38.2400,93,94,131219
1.5005,0.2835,38.4000,93,94,131223
1.4223,0.2835,38.4300,93,94,131226
1.3881,0.3079,38.2700,93,94,131229
1.3148,0.2688,38.4000,93,94,131233
1.3245,0.2835,38.2400,93,94,131236
1.2952,0.3079,38.3300,93,94,131239
1.3148,0.2786,38.3600,93,94,131243
1.3539,0.2884,38.2100,93,94,131247
1.3587,0.2933,38.3600,93,94,131250
1.4027,0.2835,38.1500,93,94,131253
1.3978,0.2786,38.3300,93,94,131257
1.4467,0.2835,38.3600,93,94,131260
1.4467,0.2884,38.3000,93,94,131263
1.4614,0.2835,38.4000,93,94,131267
1.5249,0.2933,38.1100,93,94,131270
1.5054,0.2835,38.3000,93,94,131273
1.5347,0.2835,38.4300,93,94,131277
1.5543,0.2884,38.3000,93,94,131280
1.5591,0.2835,38.4300,93,94,131283
1.6031,0.3079,38.1500,93,94,131288
1.5640,0.2981,38.3300,93,94,131291
1.5591,0.2835,38.3000,93,94,131294
1.5591,0.2884,38.3600,93,94,131297
1.5640,0.2933,38.4000,93,94,131301
1.6129,0.2884,38.2100,93,94,131304
1.6080,0.2884,38.2100,93,94,131307
1.6276,0.2884,38.2700,93,94,131311
1.6227,0.2835,38.4000,93,94,131314
1.6227,0.2835,38.4000,93,94,131317
1.6471,0.2933,38.3000,93,94,131321
1.6325,0.2688,38.3300,93,94,131324
1.6569,0.2884,38.3600,93,94,131328
1.6373,0.3030,38.3600,93,94,131331
1.6422,0.2688,38.4000,93,94,131335
1.6618,0.2884,38.3300,93,94,131338
1.6618,0.2933,38.4000,93,94,131341
1.6960,0.2884,38.2400,93,94,131345
1.6716,0.2835,37.8000,93,94,131348
1.6764,0.2835,38.4000,93,94,131351
1.7155,0.2933,38.3000,93,94,131355
1.6764,0.2884,38.4900,93,94,131358
1.7155,0.2933,38.1800,93,94,131361
1.6960,0.2884,38.2700,93,94,131364
1.6911,0.2835,38.4000,93,94,131368
1.7155,0.2933,38.3300,93,94,131372
1.7009,0.2835,37.6200,93,94,131375
1.7498,0.2933,38.0800,93,94,131379
1.7204,0.2835,38.2700,93,94,131382
1.7253,0.2835,38.3600,93,94,131385
1.7449,0.2884,38.3600,93,94,131389
1.7058,0.2835,38.4900,93,94,131392
1.7449,0.3324,38.1800,93,94,131395
1.6960,0.2884,38.4000,93,94,131399
1.6911,0.2786,38.2700,93,94,131402
1.6911,0.2835,38.4300,93,94,131405
1.6960,0.2835,38.4300,93,94,131408
1.7351,0.3030,38.2700,93,94,131412
1.7204,0.2933,38.3600,93,94,131416
1.7400,0.2884,38.2700,93,94,131419
1.7155,0.2884,38.3600,93,94,131423
1.7058,0.2835,38.4000,93,94,131426
1.7498,0.2981,38.2100,93,94,131429
1.7351,0.2884,38.3600,93,94,131433
1.7595,0.2933,38.4900,93,94,131436
1.7400,0.2835,38.3600,93,94,131439
1.7498,0.2688,38.4000,93,94,131443
1.7644,0.2884,38.2400,93,94,131446
1.7498,0.2884,38.4000,93,94,131449
1.7840,0.2884,38.1800,93,94,131452
1.7595,0.2835,38.3300,93,94,131457
1.7693,0.2835,38.4000,93,94,131460
1.7986,0.2884,38.3000,93,94,131463
1.8035,0.2835,38.4000,93,94,131467
1.8524,0.2933,38.1100,93,94,131470
1.8133,0.2786,38.3600,93,94,131473
1.8182,0.2835,38.3600,93,94,131477
1.8182,0.2933,38.3600,93,94,131480
1.7889,0.2933,38.4000,93,94,131483
1.8377,0.2981,38.0800,93,94,131487
1.8084,0.2884,38.2700,93,94,131490
1.7889,0.2786,38.7400,93,94,131493
1.7986,0.2884,38.4000,93,94,131496
1.7840,0.2835,38.4300,93,94,131501
1.8426,0.3030,38.1500,93,94,131504
1.8084,0.2933,38.3000,93,94,131507
1.7986,0.2835,38.3300,93,94,131511
1.7937,0.2884,38.3000,93,94,131514
1.7840,0.2737,38.4000,93,94,131517
1.8133,0.2933,38.2400,93,94,131521
1.7791,0.2786,38.3600,93,94,131524
1.7986,0.2884,38.2700,93,94,131527
1.7742,0.2786,38.4000,93,94,131530
1.7693,0.2835,38.4300,93,94,131534
1.7742,0.2884,38.3300,93,94,131537
1.7595,0.2884,38.4000,93,94,131540
1.7889,0.2933,38.2700,93,94,131545
1.7693,0.2835,38.4900,93,94,131548
1.7693,0.2835,38.4000,93,94,131551
1.7889,0.2688,38.2700,93,94,131555
1.7546,0.2835,38.3600,93,94,131558
1.7791,0.2933,38.1800,93,94,131561
1.7546,0.2884,38.4000,93,94,131565
1.7400,0.2737,38.4000,93,94,131568
1.7595,0.2981,38.2700,93,94,131571
1.7302,0.2835,38.5800,93,94,131574
1.7693,0.3030,38.1800,93,94,131578
1.7791,0.3030,38.1800,93,94,131582
1.7253,0.2884,38.3300,93,94,131587
1.7253,0.2835,38.3300,93,94,131590
1.7498,0.2835,38.3600,93,94,131593
1.7400,0.3324,38.4000,93,94,131597
1.7889,0.2884,38.3000,93,94,131600
1.7937,0.2884,38.3600,93,94,131603
1.8035,0.2835,38.2700,93,94,131607
1.7840,0.2835,38.4000,93,94,131610
1.7791,0.2835,38.4000,93,94,131613
1.8035,0.2933,38.2400,93,94,131617
1.7840,0.2884,38.3600,93,94,131620
1.8133,0.2933,38.2100,93,94,131623
1.8182,0.2835,38.4300,93,94,131627
1.8084,0.2786,38.4000,93,94,131631
1.8328,0.2933,38.2400,93,94,131634
1.8133,0.2835,38.4000,93,94,131637
1.8377,0.2884,38.2100,93,94,131641
1.8133,0.2737,38.3300,93,94,131644
1.8231,0.2835,38.4000,93,94,131647
1.8524,0.2933,38.3300,93,94,131651
1.8426,0.2786,38.4000,93,94,131654
1.8817,0.2933,38.1100,93,94,131657
1.8671,0.2786,38.3300,93,94,131661
1.8328,0.2835,38.4000,93,94,131664
1.8622,0.2933,38.3300,93,94,131667
1.8573,0.2835,38.4600,93,94,131671
1.9257,0.3030,38.1800,93,94,131675
1.9062,0.2884,38.3000,93,94,131678
1.9013,0.2786,38.3300,93,94,131681
1.9453,0.2786,38.3600,93,94,131685
1.9110,0.2835,38.4000,93,94,131688
1.9648,0.2933,38.1500,93,94,131691
1.9257,0.2884,38.3300,93,94,131695
1.9159,0.2835,38.3300,93,94,131698
1.8866,0.2835,38.4000,93,94,131701
1.8964,0.2786,38.4000,93,94,131704
1.8719,0.2933,38.1800,93,94,131708
1.8475,0.2786,38.3600,93,94,131712
1.8377,0.2884,38.3000,93,94,131715
1.7986,0.2884,38.4000,93,94,131719
1.7889,0.2835,38.4000,93,94,131722
1.7937,0.2884,38.3000,93,94,131725
1.8133,0.2786,38.3600,93,94,131729
1.7889,0.2835,38.2100,93,94,131732
1.7546,0.2835,38.3600,93,94,131735
1.7400,0.2835,38.2700,93,94,131739
1.7546,0.2884,38.2700,93,94,131742
1.7253,0.2835,38.4300,93,94,131745
1.7595,0.2835,38.1500,93,94,131749
1.7498,0.2884,38.2700,93,94,131752
1.7400,0.2835,38.4000,93,94,131756
1.7498,0.2933,38.3300,93,94,131759
1.7253,0.2835,38.3600,93,94,131763
1.7644,0.2981,38.1100,93,94,131766
1.7253,0.2835,38.2700,93,94,131769
1.7253,0.2835,38.4000,93,94,131773
1.7595,0.2884,38.3600,93,94,131776
1.7498,0.2835,38.4000,93,94,131779
1.8182,0.3079,38.1500,93,94,131783
1.8133,0.2933,38.3300,93,94,131786
1.8182,0.2835,38.3600,93,94,131789
1.8377,0.2835,38.4300,93,94,131793
1.8768,0.2835,38.4900,93,94,131796
1.9746,0.2933,38.2700,93,94,131800
2.0332,0.2884,38.3600,93,94,131803
2.1848,0.2884,38.2100,93,94,131807
2.3460,0.2688,38.3600,93,94,131810
2.5709,0.2835,38.4000,93,94,131813
2.8495,0.2981,38.2400,93,94,131817
3.0303,0.2884,38.3600,93,94,131820
3.1916,0.2933,38.0200,93,94,131823
3.1329,0.3128,38.3600,93,94,131827
2.9619,0.2835,38.4000,93,94,131830
2.7028,0.2933,38.2400,93,94,131833
2.3900,0.2884,38.4300,93,94,131837
2.1603,0.2933,38.2100,93,94,131841
1.9110,0.2835,38.3000,93,94,131844
1.7351,0.2884,38.4000,93,94,131847
1.6129,0.2884,38.3000,93,94,131851
1.5005,0.2835,38.3600,93,94,131854
1.4565,0.2933,38.1500,93,94,131857
1.3881,0.2786,38.3600,93,94,131861
1.3587,0.2835,38.4000,93,94,131864
1.3490,0.2688,38.3600,93,94,131867
1.3539,0.2835,38.3600,93,94,131871
1.4076,0.2981,38.0800,93,94,131874
1.4027,0.2884,38.3300,93,94,131877
1.4027,0.2786,38.3600,93,94,131880
1.4321,0.2884,38.3600,93,94,131885
1.4418,0.2835,38.4300,93,94,131888
1.5103,0.3030,38.1800,93,94,131891
1.5005,0.2884,38.3000,93,94,131895
1.5005,0.2835,38.3000,93,94,131898
1.5054,0.2884,38.4300,93,94,131901
1.5103,0.2884,38.3600,93,94,131905
1.5738,0.2981,38.2400,93,94,131908
1.5445,0.2884,38.5200,93,94,131911
1.5787,0.2884,38.2100,93,94,131914
1.5787,0.2786,38.3600,93,94,131918
1.5982,0.2835,38.2700,93,94,131921
1.6325,0.3226,38.3300,93,94,131924
1.6325,0.2884,38.4000,93,94,131929
1.6569,0.2933,38.2700,93,94,131932
1.6325,0.2835,38.3600,93,94,131935
1.6276,0.2835,38.4000,93,94,131939
1.6422,0.2933,38.2700,93,94,131942
1.6276,0.2835,38.3600,93,94,131945
1.6618,0.2884,38.1800,93,94,131949
1.6618,0.2835,38.4900,93,94,131952
1.6764,0.3030,38.3600,93,94,131955
1.7155,0.2933,38.3000,93,94,131959
1.7009,0.2835,38.4600,93,94,131962
1.7351,0.2933,38.0800,93,94,131965
1.6960,0.2835,38.3000,93,94,131969
1.6764,0.2835,38.4000,93,94,131973
1.6813,0.2884,38.3300,93,94,131976
1.6813,0.2688,38.3600,93,94,131979
1.7302,0.2981,38.0800,93,94,131983
1.7009,0.2933,38.3000,93,94,131986
1.7009,0.2786,38.3600,93,94,131989
1.7058,0.2835,38.3000,93,94,131993
1.7400,0.2835,38.4000,93,94,131996
1.7595,0.3030,38.2100,93,94,131999
1.7204,0.2884,38.2100,93,94,132002
1.7253,0.3079,38.3000,93,94,132006
1.7253,0.2884,38.3600,93,94,132009
1.7351,0.2835,38.3300,93,94,132013
1.7889,0.2884,38.1800,93,94,132017
1.7595,0.2884,38.3300,93,94,132020
1.7742,0.2884,38.2400,93,94,132023
1.7546,0.2884,38.4000,93,94,132027
1.7498,0.2835,38.4000,93,94,132030
1.7693,0.2981,38.3000,93,94,132033
1.7498,0.2884,38.3600,93,94,132036
1.7889,0.2933,38.2100,93,94,132040
1.7595,0.2786,38.4300,93,94,132043
1.7498,0.2835,38.4000,93,94,132046
1.7498,0.2981,38.3000,93,94,132050
1.7449,0.2835,38.3600,93,94,132054
1.7840,0.2884,38.1800,93,94,132057
1.7644,0.2835,38.3600,93,94,132061
1.7595,0.2835,38.4000,93,94,132064
1.7546,0.3079,38.2700,93,94,132067
1.7302,0.2933,38.3600,93,94,132071
1.7937,0.2933,38.1100,93,94,132074
1.8035,0.2981,38.3000,93,94,132077
1.8084,0.2688,38.4000,93,94,132080
1.8377,0.2933,38.4000,93,94,132084
1.8231,0.2884,38.3600,93,94,132087
1.8719,0.2981,38.1100,93,94,132090
1.8377,0.2835,38.2700,93,94,132094
1.8377,0.2786,38.3300,93,94,132098
1.8524,0.2884,38.3600,93,94,132101
1.8475,0.2786,38.4000,93,94,132105
1.8915,0.3030,38.1500,93,94,132108
1.8426,0.2884,38.2700,93,94,132111
1.8377,0.2737,38.3000,93,94,132115
1.8280,0.2688,38.3600,93,94,132118
1.8231,0.2884,38.4000,93,94,132121
1.8475,0.2884,38.3000,93,94,132124
1.8231,0.2884,38.4300,93,94,132128
1.8377,0.2835,38.3000,93,94,132131
1.8231,0.2884,38.3600,93,94,132134
1.8280,0.2835,38.4000,93,94,132139
1.8866,0.2933,38.2400,93,94,132142
1.8231,0.2884,38.5200,93,94,132145
1.8573,0.2933,38.2400,93,94,132149
1.8133,0.2835,38.3300,93,94,132152
1.8280,0.3128,38.4000,93,94,132155
1.8475,0.2884,38.2400,93,94,132159
1.8280,0.2835,38.4000,93,94,132162
1.8622,0.2933,38.1500,93,94,132165
1.8231,0.2835,38.3300,93,94,132168
1.7986,0.3177,38.4000,93,94,132172
1.8035,0.2933,38.3300,93,94,132175
1.7840,0.2835,38.3600,93,94,132178
1.8377,0.3030,38.1100,93,94,132183
1.8133,0.2835,38.3000,93,94,132186
1.8182,0.2786,38.4000,93,94,132189
1.8182,0.2933,38.3600,93,94,132193
1.7546,0.2884,38.4600,93,94,132197
1.7546,0.3177,38.4000,93,94,132201
1.7986,0.2884,38.2100,93,94,132204
1.7889,0.2835,38.3600,93,94,132207
1.8280,0.2933,38.2400,93,94,132211
1.8084,0.2835,38.4000,93,94,132214
1.8084,0.2835,38.4000,93,94,132217
1.8280,0.2884,38.3000,93,94,132220
1.7986,0.2884,38.3600,93,94,132225
1.8280,0.2884,38.2100,93,94,132228
1.8084,0.2835,38.3600,93,94,132231
1.8328,0.2688,38.4000,93,94,132235
1.8622,0.2884,38.2700,93,94,132238
1.8622,0.3030,38.4000,93,94,132241
1.8915,0.2933,38.1800,93,94,132245
1.8475,0.2835,38.4000,93,94,132248
1.8475,0.2786,38.4000,93,94,132251
1.8573,0.2933,38.2700,93,94,132254
1.8377,0.2835,38.3600,93,94,132258
1.8915,0.2688,38.1500,93,94,132261
1.8524,0.2884,38.2400,93,94,132264
1.8280,0.2786,38.4000,93,94,132269
1.8280,0.2884,38.4000,93,94,132272
1.8182,0.2835,38.2400,93,94,132275
1.9208,0.2981,38.1500,93,94,132279
1.8671,0.2884,38.3300,93,94,132282
1.8671,0.2884,38.3000,93,94,132285
1.8768,0.2884,38.3600,93,94,132289
1.8719,0.2835,38.4300,93,94,132292
1.9159,0.3030,38.2100,93,94,132295
1.8866,0.2884,38.3600,93,94,132298
1.8866,0.2884,38.2700,93,94,132302
1.8671,0.3128,38.4000,93,94,132305
1.8866,0.2835,38.4000,93,94,132308
1.9355,0.2933,38.3000,93,94,132313
1.9746,0.2933,38.3600,93,94,132316
1.9941,0.2884,38.2700,93,94,132319
1.9844,0.2884,38.4000,93,94,132323
1.9795,0.2835,38.4300,93,94,132326
1.9892,0.3079,38.3000,93,94,132329
1.9159,0.2884,38.4000,93,94,132333
1.8964,0.2884,38.1800,93,94,132336
1.8475,0.2737,38.2700,93,94,132339
1.8328,0.2835,38.4000,93,94,132342
1.8280,0.2933,38.2400,93,94,132346
1.7986,0.2786,38.3600,93,94,132349
1.8280,0.2933,38.1500,93,94,132353
1.7986,0.2835,38.3600,93,94,132357
1.7937,0.2835,38.4000,93,94,132360
1.8133,0.2933,38.3600,93,94,132363
1.7937,0.2933,38.3600,93,94,132367
1.8280,0.2981,38.1100,93,94,132370
1.7693,0.2835,38.3000,93,94,132373
1.7791,0.2737,38.4000,93,94,132377
1.7889,0.2884,38.3600,93,94,132380
1.7986,0.2786,38.4000,93,94,132383
1.8377,0.3079,38.1800,93,94,132386
1.7693,0.2933,38.3000,93,94,132390
1.7351,0.2835,38.3000,93,94,132393
1.7302,0.2884,38.4000,93,94,132397
1.7351,0.2835,38.4000,93,94,132401
1.7742,0.2933,38.2400,93,94,132404
1.7546,0.2933,38.3300,93,94,132407
1.7791,0.2884,38.2700,93,94,132411
1.7986,0.2835,38.3600,93,94,132414
1.8231,0.2835,38.4000,93,94,132417
1.8817,0.2933,38.2400,93,94,132420
1.8817,0.2884,38.3600,93,94,132424
1.9453,0.2933,38.5200,93,94,132427
1.9941,0.2884,38.3600,93,94,132430
2.1212,0.2786,38.4300,93,94,132434
2.3118,0.2981,38.3000,93,94,132438
2.5415,0.2835,38.4000,93,94,132441
2.8250,0.2884,38.2100,93,94,132445
3.0352,0.2884,38.3600,93,94,132448
3.2209,0.2933,38.4000,93,94,132451
3.3236,0.2933,38.1800,93,94,132455
3.1720,0.2786,38.4300,93,94,132458
2.9668,0.2933,38.1800,93,94,132461
2.6002,0.2933,38.2100,93,94,132464
2.2532,0.2884,38.3600,93,94,132468
1.9844,0.2933,38.3300,93,94,132471
1.7546,0.2835,38.4000,93,94,132474
1.6813,0.2884,38.0800,93,94,132478
1.5445,0.2884,38.5500,93,94,132482
1.4761,0.2884,38.3600,93,94,132485
1.4125,0.2884,38.3600,93,94,132489
1.3441,0.2835,38.2400,93,94,132492
1.3441,0.3079,38.2100,93,94,132495
1.3196,0.2884,38.5800,93,94,132499
1.3587,0.2835,38.2700,93,94,132502
1.4125,0.2884,38.3600,93,94,132505
1.4516,0.2884,38.4000,93,94,132508
1.5103,0.2981,38.3000,93,94,132512
1.4956,0.2884,38.3600,93,94,132515
1.5103,0.2884,38.2700,93,94,132518
1.5054,0.2933,38.4000,93,94,132523
1.5249,0.2835,38.3600,93,94,132526
1.5934,0.3030,38.2400,93,94,132529
1.5445,0.2884,38.4600,93,94,132533
1.5787,0.2933,38.2700,93,94,132536
1.5934,0.2737,38.3300,93,94,132539
1.5787,0.2835,38.3600,93,94,132542
1.6276,0.2933,38.2400,93,94,132546
1.6471,0.2884,38.3600,93,94,132549
1.6764,0.2884,38.2100,93,94,132552
1.6520,0.2688,38.3000,93,94,132556
1.6471,0.2835,38.4000,93,94,132559
1.6569,0.2933,38.3600,93,94,132562
1.6667,0.2835,38.3600,93,94,132567
1.6520,0.2933,38.1100,93,94,132570
1.6129,0.2835,38.3300,93,94,132573
1.6373,0.2835,38.1500,93,94,132577
1.6911,0.2933,38.3600,93,94,132580
1.6716,0.2835,38.4600,93,94,132583
1.7351,0.2981,38.1800,93,94,132587
1.7058,0.2884,38.3300,93,94,132590
1.6960,0.2933,38.3300,93,94,132593
1.6911,0.2884,38.4000,93,94,132596
1.6716,0.2835,38.4000,93,94,132600
1.7009,0.3030,38.1800,93,94,132603
1.6716,0.2933,38.3600,93,94,132606
1.6960,0.2884,38.2700,93,94,132611
1.7204,0.2786,38.3600,93,94,132614
1.7253,0.2688,38.4000,93,94,132617
1.7449,0.3030,38.2400,93,94,132621
1.7107,0.2835,38.4000,93,94,132624
1.7058,0.2688,38.2400,93,94,132627
1.6716,0.2884,38.4000,93,94,132630
1.6618,0.2884,38.4000,93,94,132634
1.6813,0.2884,38.3000,93,94,132637
1.6911,0.2884,38.4000,93,94,132640
1.7595,0.2981,38.2400,93,94,132644
1.7351,0.2835,38.4300,93,94,132647
1.7351,0.2884,38.4000,93,94,132651
1.7595,0.2933,38.3000,93,94,132655
1.7400,0.2884,38.4000,93,94,132658
1.7644,0.3030,38.1500,93,94,132661
1.7449,0.2884,38.2400,93,94,132665
1.7498,0.2835,38.4000,93,94,132668
1.7742,0.2981,38.3000,93,94,132671
1.7595,0.2835,38.4000,93,94,132674
1.7937,0.2981,38.1500,93,94,132678
1.7498,0.2884,38.3000,93,94,132681
1.7351,0.2835,38.4600,93,94,132684
1.7449,0.2981,38.3600,93,94,132688
1.7498,0.2835,38.4000,93,94,132691
1.8231,0.3079,38.1500,93,94,132695
1.7986,0.2884,38.3000,93,94,132699
1.7840,0.2835,38.3300,93,94,132702
1.7742,0.2884,38.3600,93,94,132705
1.7840,0.2835,38.4000,93,94,132709
1.8475,0.2981,38.3000,93,94,132712
1.8426,0.3030,38.3300,93,94,132715
1.8964,0.2786,38.2700,93,94,132718
1.8622,0.2884,38.3300,93,94,132722
1.8622,0.2884,38.4000,93,94,132725
1.8866,0.2981,38.1800,93,94,132728
1.8622,0.2933,38.3600,93,94,132732
1.8866,0.2933,38.2700,93,94,132736
1.8719,0.2737,38.3600,93,94,132739
1.8768,0.2786,38.3600,93,94,132743
1.8768,0.2933,38.3000,93,94,132746
1.8475,0.2884,38.4000,93,94,132749
1.8573,0.2884,38.2100,93,94,132753
1.8231,0.2933,38.3600,93,94,132756
1.8280,0.2835,37.5900,93,94,132759
1.8426,0.2933,38.2700,93,94,132762
1.8280,0.2884,38.4000,93,94,132766
1.8719,0.2933,38.1100,93,94,132769
1.8377,0.2835,38.3600,93,94,132772
1.8524,0.2835,38.4000,93,94,132776
1.8524,0.2933,38.3600,93,94,132780
1.8280,0.2835,38.4300,93,94,132783
1.8719,0.3030,38.1100,93,94,132787
1.8328,0.2933,38.3000,93,94,132790
1.8035,0.2835,38.4000,93,94,132793
1.7937,0.2835,38.3600,93,94,132797
1.7840,0.2835,38.4000,93,94,132800
1.8280,0.3030,38.2700,93,94,132803
1.8035,0.2933,38.2700,93,94,132808
1.7791,0.2933,38.4000,93,94,132811
1.8084,0.2981,38.2700,93,94,132814
1.7742,0.2884,38.4000,93,94,132818
1.7889,0.2835,38.4000,93,94,132822
1.8182,0.2981,38.3000,93,94,132825
1.8133,0.2884,38.3600,93,94,132829
1.8280,0.2933,38.1500,93,94,132832
1.7986,0.2884,38.3600,93,94,132835
1.7840,0.2884,38.4000,93,94,132839
1.7937,0.2933,38.3000,93,94,132842
1.7644,0.2884,38.3600,93,94,132845
1.8035,0.3128,38.1500,93,94,132849
1.7889,0.2933,38.2700,93,94,132852
1.7840,0.2884,38.3600,93,94,132855
1.8084,0.2933,38.3300,93,94,132858
1.7986,0.2835,37.8300,93,94,132862
1.8573,0.2981,38.0800,93,94,132866
1.8231,0.2884,38.2700,93,94,132869
1.8084,0.2786,38.3600,93,94,132873
1.8084,0.2933,38.3600,93,94,132876
1.7840,0.2884,38.4900,93,94,132879
1.8182,0.3030,38.2100,93,94,132883
1.7742,0.2688,38.3300,93,94,132886
1.7742,0.2835,38.3300,93,94,132889
1.7791,0.2835,38.3600,93,94,132893
1.7986,0.2835,38.5800,93,94,132896
1.8426,0.2933,38.3000,93,94,132899
1.8231,0.2884,38.3600,93,94,132902
1.8377,0.2884,38.2400,93,94,132907
1.8182,0.2884,38.4000,93,94,132910
1.8084,0.2835,38.4600,93,94,132913
1.8426,0.2981,38.2400,93,94,132917
1.8133,0.2884,38.3600,93,94,132920
1.8573,0.2933,38.2400,93,94,132923
1.8231,0.2835,38.5800,93,94,132927
1.8328,0.2933,38.3600,93,94,132930
1.8671,0.2933,38.2100,93,94,132933
1.8622,0.2835,38.3600,93,94,132937
1.9110,0.2933,38.1800,93,94,132940
1.8915,0.2933,38.3000,93,94,132943
1.8866,0.2688,38.3600,93,94,132947
1.8866,0.2933,38.4300,93,94,132951
1.8524,0.2933,38.3600,93,94,132954
1.8768,0.2981,38.1100,93,94,132957
1.8182,0.2933,38.3300,93,94,132961
1.8182,0.2933,38.4000,93,94,132964
1.8182,0.2884,38.3300,93,94,132967
1.8377,0.2688,38.3600,93,94,132971
1.8475,0.3079,38.2400,93,94,132974
1.8133,0.2981,38.3000,93,94,132977
1.7693,0.2835,38.3000,93,94,132981
1.7546,0.3079,38.3600,93,94,132984
1.7644,0.2835,38.3600,93,94,132987
1.7742,0.2981,38.4000,93,94,132992
1.7742,0.2933,38.3300,93,94,132995
1.7449,0.2884,38.3000,93,94,132998
1.7351,0.2884,38.3600,93,94,133001
1.7498,0.2835,38.4300,93,94,133005
1.7693,0.2981,38.2700,93,94,133008
1.7400,0.2786,38.3600,93,94,133011
1.7498,0.2981,38.2400,93,94,133015
1.7107,0.3030,38.3300,93,94,133018
1.7351,0.2884,38.4000,93,94,133021
1.7302,0.2933,38.3000,93,94,133025
1.7302,0.2884,38.3600,93,94,133028
1.7595,0.2933,38.2400,93,94,133031
1.7400,0.2884,38.4000,93,94,133036
1.7498,0.2835,38.3600,93,94,133039
1.7742,0.2981,38.3600,93,94,133042
1.7840,0.2786,38.4000,93,94,133045
1.8915,0.2981,38.1100,93,94,133049
1.9013,0.2933,38.3000,93,94,133052
1.9892,0.2835,38.4000,93,94,133055
2.1359,0.2933,38.3300,93,94,133059
2.2874,0.2835,38.4300,93,94,133062
2.5660,0.3079,38.0800,93,94,133065
2.7468,0.2884,38.2700,93,94,133069
2.9619,0.2835,38.3300,93,94,133072
3.1427,0.2933,38.3600,93,94,133075
3.1916,0.2835,38.4000,93,94,133079
3.1476,0.3079,38.2100,93,94,133083
2.8201,0.2884,38.3300,93,94,133086
2.4829,0.2835,38.3300,93,94,133089
2.1652,0.2884,38.3600,93,94,133093
1.8964,0.2884,38.4000,93,94,133096
1.7155,0.2981,38.3000,93,94,133099
1.5787,0.2933,38.3300,93,94,133103
1.4516,0.2884,38.2700,93,94,133106
1.3734,0.3030,38.4000,93,94,133109
1.3392,0.2835,38.4000,93,94,133113
1.3441,0.2981,38.6500,93,94,133116
1.3196,0.2786,38.3600,93,94,133120
1.3294,0.2933,38.2700,93,94,133123
1.3196,0.2884,38.3300,93,94,133127
1.3392,0.2786,38.4000,93,94,133130
1.3783,0.2933,38.2100,93,94,133133
1.3881,0.2786,38.3600,93,94,133137
1.4370,0.2884,38.1800,93,94,133140
1.4467,0.2933,38.3300,93,94,133143
1.4712,0.2835,38.4000,93,94,133147
1.5103,0.2933,38.2700,93,94,133150
1.5103,0.2933,38.4000,93,94,133153
1.5689,0.2981,38.1100,93,94,133157
1.5445,0.2835,38.3600,93,94,133160
1.5640,0.2835,38.4000,93,94,133164
1.5787,0.2933,38.3600,93,94,133167
1.5738,0.2884,38.4000,93,94,133171
1.6276,0.3079,38.1100,93,94,133174
1.5982,0.2933,38.3600,93,94,133177
1.5934,0.2835,38.3300,93,94,133181
1.5885,0.2884,38.3600,93,94,133184
1.5836,0.2786,38.4000,93,94,133187
1.6373,0.2981,38.2100,93,94,133191
1.6276,0.2884,38.3300,93,94,133194
1.6276,0.2884,38.2700,93,94,133197
1.6227,0.2884,38.3000,93,94,133201
1.6373,0.2933,38.3600,93,94,133204
1.6764,0.2933,38.3000,93,94,133208
1.6667,0.2884,38.4000,93,94,133211
1.6960,0.2933,38.2100,93,94,133215
1.6569,0.2884,38.4600,93,94,133218
1.6569,0.2933,38.4000,93,94,133221
1.6667,0.2884,38.4000,93,94,133225
1.6667,0.2884,38.3600,93,94,133228
1.7058,0.2933,38.2400,93,94,133231
1.6911,0.2884,38.4000,93,94,133235
1.6960,0.2884,38.4000,93,94,133238
1.7155,0.2933,38.3000,93,94,133241
1.6911,0.2933,38.3600,93,94,133245
1.7204,0.2933,38.1500,93,94,133249
1.7009,0.2933,38.3000,93,94,133252
1.6960,0.3177,38.4000,93,94,133255
1.7204,0.2688,38.3000,93,94,133259
1.7009,0.2884,38.4000,93,94,133262
1.7449,0.2981,38.0800,93,94,133265
1.7400,0.2835,38.2700,93,94,133269
1.7155,0.2688,38.4000,93,94,133272
1.7302,0.2884,38.3600,93,94,133275
1.7302,0.3030,38.4000,93,94,133279
1.8084,0.3079,38.1100,93,94,133282
1.7546,0.2884,38.3600,93,94,133285
1.7449,0.2835,38.3600,93,94,133288
1.7449,0.2884,38.3600,93,94,133293
1.7302,0.3324,38.3600,93,94,133296
1.7693,0.2981,38.2400,93,94,133299
1.7400,0.2884,38.4300,93,94,133303
1.7546,0.2884,38.3000,93,94,133306
1.7498,0.2884,38.4000,93,94,133309
1.7644,0.2835,38.4300,93,94,133313
1.8133,0.2933,38.2100,93,94,133316
1.7889,0.2981,38.3300,93,94,133319
1.8182,0.2884,38.2400,93,94,133323
1.7937,0.2884,38.4000,93,94,133326
1.7937,0.2835,38.4000,93,94,133329
1.8133,0.2884,38.3000,93,94,133332
1.7986,0.2884,38.3600,93,94,133337
1.8280,0.2981,38.2400,93,94,133340
1.8035,0.2884,38.3300,93,94,133343
1.8133,0.2835,38.3600,93,94,133347
1.8768,0.2981,38.3000,93,94,133350
1.8377,0.2884,38.4300,93,94,133353
1.8768,0.2933,38.1500,93,94,133357
1.8475,0.2835,38.4300,93,94,133360
1.8524,0.2835,38.3600,93,94,133363
1.8671,0.2981,38.3600,93,94,133367
1.8231,0.2884,38.4000,93,94,133370
1.8622,0.3030,38.0800,93,94,133373
1.8182,0.2933,38.3000,93,94,133377
1.7889,0.2835,38.3600,93,94,133381
1.7937,0.2884,38.4300,93,94,133384
1.7840,0.2884,38.4300,93,94,133387
1.8524,0.3079,38.1500,93,94,133391
1.8231,0.2981,38.3000,93,94,133394
1.8133,0.2835,38.3000,93,94,133397
1.8035,0.2884,38.4000,93,94,133401
1.7986,0.2933,38.3600,93,94,133404
1.8328,0.2981,38.2400,93,94,133407
1.7986,0.2835,38.3600,93,94,133410
1.7937,0.2884,38.2700,93,94,133414
1.7644,0.2884,38.4600,93,94,133417
1.7400,0.2884,38.4000,93,94,133423
1.7449,0.3128,38.4000,93,94,133426
1.7693,0.2933,38.2400,93,94,133429
1.7546,0.2884,38.3600,93,94,133433
1.8084,0.2933,38.1500,93,94,133436
1.7889,0.2884,38.3300,93,94,133439
1.7840,0.2933,38.3600,93,94,133443
1.7937,0.2981,38.3300,93,94,133446
1.7693,0.2884,38.4000,93,94,133449
1.8475,0.2981,38.1800,93,94,133453
1.7693,0.2884,38.4900,93,94,133456
1.7595,0.3030,38.3600,93,94,133459
1.7742,0.2884,38.3600,93,94,133463
1.7693,0.2884,38.5200,93,94,133467
1.8328,0.3372,38.1500,93,94,133470
1.7986,0.2933,38.4000,93,94,133473
1.7889,0.2786,38.3000,93,94,133477
1.7840,0.2884,38.3600,93,94,133480
1.7693,0.2933,38.4000,93,94,133483
1.7986,0.2981,38.2700,93,94,133487
1.7840,0.2884,38.4600,93,94,133490
1.7889,0.3030,38.2700,93,94,133493
1.7742,0.2884,38.4000,93,94,133497
1.7889,0.2786,38.4000,93,94,133500
1.8280,0.2981,38.2400,93,94,133504
1.8084,0.2884,38.3300,93,94,133507
1.8377,0.2981,38.3000,93,94,133511
1.8133,0.2835,38.3600,93,94,133514
1.8084,0.2835,38.3600,93,94,133517
1.8280,0.2933,38.3000,93,94,133521
1.7986,0.2884,38.3600,93,94,133524
1.8280,0.2981,38.2400,93,94,133527
1.8084,0.2835,38.3300,93,94,133531
1.8133,0.2835,38.4000,93,94,133534
1.8377,0.2933,38.3000,93,94,133537
1.8328,0.2884,38.3600,93,94,133541
1.8768,0.2933,38.2700,93,94,133544
1.8426,0.2884,38.3300,93,94,133548
1.8524,0.2835,38.4600,93,94,133551
1.8768,0.2933,38.3300,93,94,133555
1.8719,0.2835,38.4900,93,94,133558
1.9257,0.2981,38.0800,93,94,133561
1.9013,0.2933,38.2700,93,94,133565
1.8964,0.2835,38.3600,93,94,133568
1.9110,0.2933,38.4000,93,94,133571
1.8964,0.2884,38.4300,93,94,133575
1.9501,0.3030,38.1800,93,94,133578
1.9257,0.2981,38.3000,93,94,133581
1.8768,0.2835,38.3000,93,94,133585
1.8622,0.2884,38.4600,93,94,133588
1.8524,0.2884,38.4000,93,94,133592
1.8719,0.2884,38.2400,93,94,133595
1.8377,0.2933,38.3600,93,94,133599
1.8475,0.2933,38.2700,93,94,133602
1.8035,0.2884,38.3600,93,94,133605
1.7889,0.2884,38.4000,93,94,133609
1.7889,0.2884,38.3600,93,94,133612
1.7693,0.2933,38.3600,93,94,133615
1.7840,0.2933,38.2400,93,94,133619
1.7791,0.2786,38.4000,93,94,133622
1.7449,0.2835,38.4000,93,94,133625
1.7693,0.2933,38.2400,93,94,133629
1.7449,0.2835,38.4000,93,94,133633
1.7693,0.2884,38.2100,93,94,133636
1.7498,0.2933,38.2400,93,94,133639
1.7351,0.2884,38.4300,93,94,133643
1.7644,0.2981,38.3000,93,94,133646
1.7400,0.2884,38.3600,93,94,133649
1.7742,0.2981,38.1100,93,94,133653
1.7400,0.2835,38.3000,93,94,133656
1.7595,0.2786,38.4300,93,94,133659
1.7449,0.2884,38.3600,93,94,133663
1.7351,0.2835,38.4300,93,94,133666
1.7937,0.3079,38.1100,93,94,133669
1.7693,0.2933,38.3000,93,94,133673
1.7986,0.2835,38.3300,93,94,133677
1.8328,0.2884,38.3300,93,94,133680
1.8915,0.2884,38.4300,93,94,133683
2.0088,0.2981,38.2400,93,94,133687
2.0919,0.2884,38.3300,93,94,133690
2.2483,0.3079,38.2700,93,94,133693
2.4242,0.2884,38.5800,93,94,133697
2.6442,0.2884,38.4000,93,94,133700
2.9277,0.2884,38.1800,93,94,133703
3.0694,0.2884,38.3000,93,94,133707
3.1916,0.2981,38.2700,93,94,133710
3.0890,0.2786,38.4300,93,94,133713
2.8788,0.2688,38.4000,93,94,133716
2.6246,0.2933,37.9000,93,94,133721
2.3118,0.2933,38.3600,93,94,133724
2.0968,0.2884,38.2700,93,94,133727
1.8524,0.2835,38.3600,93,94,133731
1.6813,0.2884,38.4300,93,94,133734
1.5591,0.2884,38.5200,93,94,133737
1.4467,0.2884,38.4000,93,94,133741
1.4125,0.2933,38.1800,93,94,133744
1.3441,0.2884,38.4300,93,94,133747
1.3343,0.2835,38.4000,93,94,133751
1.3490,0.2933,38.4000,93,94,133754
1.3587,0.2786,38.4300,93,94,133757
1.4174,0.2981,38.1100,93,94,133761
1.4174,0.2884,38.3600,93,94,133765
1.4418,0.2786,38.3600,93,94,133768
1.4272,0.3177,38.3600,93,94,133771
1.4370,0.2786,38.4000,93,94,133775
1.4907,0.3079,38.1800,93,94,133778
1.4858,0.3030,38.3000,93,94,133781
1.4907,0.2933,38.3300,93,94,133785
1.5103,0.2884,38.4000,93,94,133788
1.5249,0.2835,38.4000,93,94,133791
1.5787,0.2933,38.2400,93,94,133794
1.5640,0.2884,38.3300,93,94,133798
1.5885,0.2884,38.3300,93,94,133801
1.5885,0.2933,38.4000,93,94,133805
1.5982,0.2835,37.8300,93,94,133809
1.6178,0.2981,38.3600,93,94,133812
1.6031,0.2884,38.4000,93,94,133815
1.6178,0.2933,38.2400,93,94,133819
1.6080,0.2884,38.3600,93,94,133822
1.6129,0.2835,38.4000,93,94,133825
1.6373,0.3079,38.2700,93,94,133829
1.6227,0.2884,38.3600,93,94,133832
1.6422,0.2884,38.1800,93,94,133835
1.6325,0.2835,38.3000,93,94,133838
1.6422,0.2835,38.4000,93,94,133842
1.6764,0.2933,38.2700,93,94,133846
1.6667,0.2884,38.4300,93,94,133849
1.7107,0.2933,38.1800,93,94,133853
1.6960,0.2933,38.3300,93,94,133856
1.6862,0.2835,38.4000,93,94,133859
1.6911,0.2933,38.3300,93,94,133863
1.6764,0.2835,38.4300,93,94,133866
1.7155,0.2981,38.1800,93,94,133869
1.6667,0.2884,38.3000,93,94,133873
1.6716,0.2786,38.4000,93,94,133876
1.6716,0.2933,38.3600,93,94,133879
1.6764,0.2835,38.3600,93,94,133882
1.7351,0.3079,38.1800,93,94,133886
1.7204,0.2884,38.3300,93,94,133890
1.7155,0.2835,38.2700,93,94,133893
1.7107,0.2884,38.3600,93,94,133897
1.7155,0.2835,38.4300,93,94,133900
1.7546,0.2981,38.1800,93,94,133903
1.7449,0.2981,38.4300,93,94,133907
1.7595,0.2884,38.2700,93,94,133910
1.7400,0.2933,38.4000,93,94,133913
1.7400,0.2835,38.4000,93,94,133917
1.7644,0.2981,38.2700,93,94,133920
1.7693,0.2933,38.4300,93,94,133923
1.7498,0.2933,38.2700,93,94,133926
1.7155,0.2884,38.3600,93,94,133931
1.7204,0.2835,38.4000,93,94,133934
1.7400,0.2884,38.2700,93,94,133937
1.7351,0.2884,38.3600,93,94,133941
1.7693,0.2884,38.2400,93,94,133944
1.7449,0.2786,38.4000,93,94,133947
1.7498,0.2835,38.4000,93,94,133951
1.7693,0.3030,38.3000,93,94,133954
1.7595,0.2786,38.3600,93,94,133957
1.8231,0.2981,38.0800,93,94,133961
1.8133,0.3275,38.2700,93,94,133964
1.8084,0.2835,38.3600,93,94,133967
1.8231,0.2884,38.3600,93,94,133970
1.8133,0.2688,38.4300,93,94,133975
1.8671,0.3079,38.1100,93,94,133978
1.8377,0.2884,38.2700,93,94,133981
1.8280,0.2835,38.3300,93,94,133985
1.8328,0.2933,38.3600,93,94,133988
1.8328,0.2688,38.4000,93,94,133991
1.8866,0.2981,38.2100,93,94,133995
1.8622,0.2884,38.3600,93,94,133998
1.8719,0.2884,38.2400,93,94,134001
1.8475,0.3177,38.3600,93,94,134005
1.8426,0.2835,38.4600,93,94,134008
1.8524,0.2933,38.3300,93,94,134011
1.8377,0.2688,38.3600,93,94,134014
1.8328,0.2884,38.2700,93,94,134019
1.7889,0.2884,38.3600,93,94,134022
1.7937,0.2884,38.3300,93,94,134025
1.8231,0.2933,38.2400,93,93,134029
1.8035,0.2933,38.3600,93,93,134033
1.7937,0.2884,38.4000,93,93,134037
1.8475,0.2933,38.0800,93,93,134040
1.8182,0.2884,38.2700,93,93,134043
1.8084,0.2835,38.4600,93,93,134047
1.8426,0.2933,38.3300,93,93,134050
1.7986,0.2835,38.3600,93,93,134053
1.8426,0.3079,38.1500,93,93,134057
1.7937,0.2933,38.2400,93,93,134061
1.7742,0.2835,38.3300,93,93,134064
1.7644,0.2933,38.3600,93,93,134068
1.7595,0.2933,38.4000,93,93,134071
1.8035,0.2884,38.2700,93,93,134074
1.7791,0.2884,38.3300,93,93,134077
1.7840,0.2884,38.2400,93,93,134081
1.7644,0.2884,38.4300,93,93,134084
1.7693,0.2835,38.3600,93,93,134087
1.8280,0.2884,38.2100,93,93,134091
1.7791,0.2884,38.3300,93,93,134094
1.8280,0.2933,38.2700,93,93,134097
1.7742,0.2835,38.3300,93,93,134102
1.7840,0.2835,37.9000,93,93,134105
1.8084,0.2933,38.3000,93,93,134108
1.8084,0.2884,38.3600,93,93,134112
1.8328,0.2884,38.2100,93,93,134115
1.8133,0.2835,38.3300,93,93,134118
1.8182,0.2835,38.4900,93,93,134121
1.8377,0.2933,38.2700,93,93,134125
1.8328,0.2884,38.3600,93,93,134128
1.8671,0.2933,38.0800,93,93,134131
1.8182,0.2835,38.3300,93,93,134135
1.8133,0.2835,38.3000,93,93,134138
1.8133,0.2884,38.3000,93,93,134141
1.7937,0.2835,38.5800,93,93,134146
1.8524,0.2933,38.1100,93,93,134149
1.8280,0.2884,38.2700,93,93,134152
1.8182,0.2786,38.3600,93,93,134156
1.8231,0.2884,38.3600,93,93,134159
1.8328,0.2835,38.3300,93,93,134162
1.8915,0.2933,38.1800,93,93,134165
1.8719,0.2933,38.3600,93,93,134169
1.8964,0.2786,38.2700,93,93,134172
1.8719,0.2884,37.8300,93,93,134175
1.8719,0.3177,38.4000,93,93,134179
1.8915,0.2688,38.3000,93,93,134182
1.8671,0.2884,38.3300,93,93,134185
1.8817,0.3226,38.2100,93,93,134190
1.8622,0.2884,38.4000,93,93,134193
1.8768,0.2933,38.4300,93,93,134196
1.9159,0.2884,38.3300,93,93,134200
1.9159,0.2884,38.2700,93,93,134203
1.9404,0.2884,38.2700,93,93,134206
1.8964,0.2884,38.4300,93,93,134210
1.8866,0.2835,38.4000,93,93,134213
1.9159,0.2933,38.2700,93,93,134216
1.8719,0.3372,38.4000,93,93,134219
1.8964,0.2884,38.1500,93,93,134223
1.8377,0.2884,38.2700,93,93,134226
1.8084,0.2835,38.3600,93,93,134230
1.8133,0.2933,38.3000,93,93,134234
1.7840,0.2835,38.2700,93,93,134237
1.8231,0.3030,38.1100,93,93,134240
1.7791,0.2884,38.4300,93,93,134244
1.7742,0.2835,38.3600,93,93,134247
1.7742,0.2688,38.3600,93,93,134250
1.7498,0.2835,38.4900,93,93,134253
1.7889,0.3030,38.1500,93,93,134257
1.7400,0.2933,38.4300,93,93,134260
1.7351,0.3324,38.3300,93,93,134263
1.7351,0.2884,38.3600,93,93,134267
1.7253,0.2737,38.4000,93,93,134270
1.7449,0.2981,38.2700,93,93,134274
1.7204,0.2884,38.2400,93,93,134278
1.7351,0.3226,38.2700,93,93,134281
1.7302,0.2884,38.3300,93,93,134284
1.7546,0.2835,38.4000,93,93,134288
1.7889,0.2981,38.2400,93,93,134291
1.7742,0.2933,38.4300,93,93,134294
1.7742,0.2933,38.2700,93,93,134298
1.7449,0.2835,38.3000,93,93,134301
1.7595,0.2835,38.4000,93,93,134304
1.8035,0.2884,38.4000,93,93,134307
1.8426,0.3226,38.4000,93,93,134311
1.9795,0.2933,38.2100,93,93,134315
2.0479,0.2835,38.4000,93,93,134318
2.2092,0.2933,38.4000,93,93,134322
2.4438,0.2981,38.2700,93,93,134325
2.6491,0.2835,38.4300,93,93,134328
2.9521,0.2933,38.1500,93,93,134332
3.1036,0.2835,38.3300,93,93,134335
3.2111,0.2884,38.4000,93,93,134338
3.1818,0.2884,38.3600,93,93,134342
2.9326,0.2835,38.3600,93,93,134345
2.7028,0.3030,38.1100,93,93,134348
2.3509,0.2884,38.3000,93,93,134351
2.0772,0.2835,38.3000,93,93,134355
1.8719,0.2884,38.3600,93,93,134359
1.6813,0.2835,38.4000,93,93,134362
1.5885,0.2933,38.1800,93,93,134366
1.4663,0.2933,38.4000,93,93,134369
1.4027,0.2835,38.3000,93,93,134372
1.3783,0.2786,38.4000,93,93,134376
1.3343,0.2835,38.4000,93,93,134379
1.3343,0.2981,38.1800,93,93,134382
1.3196,0.2933,38.3600,93,93,134385
1.3441,0.2835,38.2400,93,93,134389
1.3539,0.2884,38.3600,93,93,134392
1.3881,0.2884,37.6200,93,93,134395
1.4418,0.2786,38.3000,93,93,134400
1.4712,0.2884,38.3600,93,93,134403
1.5200,0.2933,38.2400,93,93,134406
1.5152,0.2884,38.4000,93,93,134410
1.5298,0.2835,38.4000,93,93,134413
1.5836,0.2933,38.2700,93,93,134416
1.5445,0.2884,38.4000,93,93,134420
1.5836,0.2884,38.1500,93,93,134423
1.5836,0.2884,38.2400,93,93,134426
1.5787,0.2835,38.4000,93,93,134429
1.6080,0.2981,38.3000,93,93,134433
1.5885,0.2737,38.4000,93,93,134436
1.6227,0.2933,38.1100,93,93,134439
1.5934,0.2835,38.3600,93,93,134444
1.6031,0.2933,38.4000,93,93,134447
1.6276,0.2884,38.2400,93,93,134450
1.6276,0.2884,38.4000,93,93,134454
1.6813,0.3079,38.1100,93,93,134457
1.6422,0.2884,38.2400,93,93,134460
1.6325,0.2835,38.3300,93,93,134464
1.6227,0.2884,38.4300,93,93,134467
1.6129,0.2884,38.4000,93,93,134470
1.6618,0.2981,38.2700,93,93,134473
1.6520,0.2884,38.4300,93,93,134477
1.6764,0.3030,38.3000,93,93,134480
1.6813,0.2884,38.3600,93,93,134483
1.6862,0.2835,38.4000,93,93,134488
1.7107,0.2884,38.2100,93,93,134491
1.6764,0.2884,38.4000,93,93,134494
1.6911,0.2835,38.2100,93,93,134498
1.6618,0.2884,38.4000,93,93,134501
1.6618,0.2835,38.4600,93,93,134504
1.7058,0.2933,38.3000,93,93,134508
1.6667,0.2884,38.3600,93,93,134511
1.7058,0.2884,38.2400,93,93,134514
1.6862,0.2786,38.3300,93,93,134517
1.7009,0.2835,38.4300,93,93,134521
1.7253,0.2981,38.2400,93,93,134524
1.7302,0.2884,38.3600,93,93,134528
1.7693,0.2933,37.8300,93,93,134532
1.7400,0.2688,38.4000,93,93,134535
1.7253,0.2835,38.4000,93,93,134538
1.7253,0.2884,38.3600,93,93,134542
1.7009,0.2884,38.4000,93,93,134545
1.7449,0.2981,38.1100,93,93,134548
1.7204,0.3079,38.2700,93,93,134551
1.7400,0.2835,38.4000,93,93,134555
1.7351,0.2933,38.4600,93,93,134558
1.7302,0.2884,38.4000,93,93,134561
1.7791,0.3079,38.1500,93,93,134565
1.7351,0.2933,38.3600,93,93,134568
1.7595,0.2835,38.3300,93,93,134572
1.7498,0.2884,38.4000,93,93,134576
1.7595,0.2835,38.3600,93,93,134579
1.8231,0.2981,38.2400,93,93,134582
1.7937,0.2884,38.5500,93,93,134586
1.7937,0.2835,38.2700,93,93,134589
1.7791,0.2688,38.4000,93,93,134592
1.7840,0.2835,38.3300,93,93,134595
1.8182,0.2933,38.3000,93,93,134599
1.8182,0.2884,38.3600,93,93,134602
1.8524,0.2835,38.2100,93,93,134605
1.8328,0.2884,38.4000,93,93,134609
1.8377,0.2835,38.3600,93,93,134612
1.8671,0.2884,38.2700,93,93,134616
1.8475,0.2884,38.4000,93,93,134620
1.8719,0.2933,38.2100,93,93,134623
1.8475,0.2884,38.3000,93,93,134626
1.8280,0.2835,37.5900,93,93,134630
1.8328,0.2933,38.2700,93,93,134633
1.7937,0.2884,38.4000,93,93,134636
1.8328,0.2981,38.1100,93,93,134639
1.8573,0.3030,38.1500,94,93,134644
1.7986,0.2884,38.3000,94,93,134647
1.7840,0.2835,38.3300,94,93,134651
1.7889,0.3226,38.3600,94,93,134654
1.8084,0.2835,38.3600,94,93,134658
1.8671,0.2981,38.2700,94,93,134662
1.8328,0.2884,38.3300,94,93,134665
1.8133,0.2884,38.2100,94,93,134668
1.7644,0.2688,38.4000,94,93,134672
1.7498,0.2835,38.4000,94,93,134675
1.7693,0.2981,38.2100,94,93,134678
1.7449,0.2884,38.4000,94,93,134682
1.7742,0.2933,38.4000,94,93,134685
1.7644,0.2786,38.3300,94,93,134688
1.7791,0.2688,38.4000,94,93,134691
1.8035,0.2933,38.2700,94,93,134695
1.7937,0.2884,38.3600,94,93,134699
1.8035,0.2835,38.2100,94,93,134702
1.7644,0.2884,38.3300,94,93,134706
1.7840,0.2835,38.4000,94,93,134709
1.8133,0.2884,38.3000,94,93,134712
1.7889,0.2884,38.4000,94,93,134716
1.7986,0.2933,38.1100,94,93,134719
1.7644,0.2835,38.3600,94,93,134722
1.8035,0.2835,38.4300,94,93,134726
1.8133,0.2933,38.3300,94,93,134729
1.8280,0.2884,38.4000,94,93,134732
1.8622,0.2981,38.0800,94,93,134735
1.8280,0.2933,38.2700,94,93,134739
1.8182,0.2835,38.3600,94,93,134743
1.8426,0.2884,38.3600,94,93,134746
1.8475,0.2933,38.4000,94,93,134750
1.8915,0.3030,38.2100,94,93,134753
1.8231,0.2933,38.2700,94,93,134756
1.7986,0.2884,38.3000,94,93,134760
1.7937,0.2884,38.3600,94,93,134763
1.7889,0.2835,38.3600,94,93,134766
1.8133,0.2981,38.2400,94,93,134770
1.7889,0.2884,38.4000,94,93,134773
1.8426,0.2884,38.2400,94,93,134776
1.8084,0.2884,38.4000,94,93,134779
1.8231,0.2933,38.4000,94,93,134784
1.8524,0.2688,38.3300,94,93,134787
1.8426,0.2884,38.4000,94,93,134790
1.8622,0.2981,38.2700,94,93,134794
1.8377,0.2835,38.5200,94,93,134797
1.8573,0.2786,38.4000,94,93,134800
1.8817,0.2884,38.2700,94,93,134804
1.8426,0.3128,38.4000,94,93,134807
1.8671,0.2933,38.1800,94,93,134810
1.8475,0.2884,38.2700,94,93,134814
1.8475,0.2835,38.4000,94,93,134817
1.8768,0.2933,38.3300,94,93,134820
1.8622,0.2835,38.4000,94,93,134823
1.9355,0.2933,38.1100,94,93,134828
1.9453,0.2835,38.3600,94,93,134831
1.9550,0.2933,38.3600,94,93,134834
1.9697,0.2884,38.3300,94,93,134838
1.9453,0.2835,38.5800,94,93,134841
1.9844,0.3079,38.1800,94,93,134844
1.9306,0.2835,38.3000,94,93,134848
1.8964,0.2786,38.4300,94,93,134851
1.8622,0.2933,38.3300,94,93,134854
1.8280,0.2884,38.4000,94,93,134858
1.8573,0.2933,38.2400,94,93,134861
1.8182,0.2884,38.3600,94,93,134864
1.8280,0.2835,38.2400,94,93,134867
1.8084,0.2884,38.4600,94,93,134872
1.7889,0.2835,38.3600,94,93,134875
1.7937,0.3030,38.2100,94,93,134878
1.7302,0.2884,38.3300,94,93,134882
1.7400,0.2835,38.2400,94,93,134885
1.7253,0.2884,38.4000,94,93,134888
1.7253,0.2835,37.6500,94,93,134892
1.7400,0.2933,38.2700,94,93,134895
1.7107,0.2884,38.4300,94,93,134898
1.7449,0.2884,38.2700,94,93,134901
1.7449,0.2835,38.4300,94,93,134905
1.7889,0.2835,38.3600,94,93,134908
1.8035,0.2884,38.2400,94,93,134912
1.7889,0.2835,38.3600,94,93,134916
1.8035,0.2933,38.1500,94,93,134919
1.7449,0.2786,38.3600,94,93,134922
1.7351,0.2835,38.4900,94,93,134926
1.7400,0.2933,38.3300,94,93,134929
1.7204,0.2835,38.4600,94,93,134932
1.7889,0.2933,38.0800,94,93,134936
1.7986,0.2884,38.3000,94,93,134939
1.8377,0.2884,38.4000,94,93,134942
1.9453,0.2933,38.3300,94,93,134946
2.0772,0.2688,38.4000,94,93,134949
2.3314,0.3079,38.2100,94,93,134952
2.5073,0.2933,38.3000,94,93,134956
2.7468,0.2835,38.3300,94,93,134960
2.9814,0.2884,38.4000,94,93,134963
3.1672,0.2835,38.5200,94,93,134966
3.3089,0.2933,38.2400,94,93,134970
3.1867,0.2884,38.4000,94,93,134973
2.9521,0.2835,38.3000,94,93,134976
2.6051,0.3128,38.3600,94,93,134979
2.2825,0.2835,38.4000,94,93,134983
2.0283,0.2933,38.3300,94,93,134986
1.7791,0.2933,38.4300,94,93,134989
1.6276,0.2884,38.2400,94,93,134993
1.4956,0.2933,38.4300,94,93,134996
1.4076,0.2835,38.4000,94,93,135000
1.3685,0.2933,38.2700,94,93,135004
1.3245,0.2835,38.4000,94,93,135007
1.3196,0.2884,38.2400,94,93,135010
1.2903,0.2835,38.3000,94,93,135014
1.3001,0.2786,38.3600,94,93,135017
1.3392,0.2884,38.2400,94,93,135020
1.3490,0.2884,38.3600,94,93,135023
1.4125,0.2933,38.1500,94,93,135027
1.4418,0.2884,38.4300,94,93,135030
1.4321,0.2835,38.4000,94,93,135033
1.4614,0.2981,38.3000,94,93,135037
1.4712,0.2835,38.4000,94,93,135041
1.5445,0.2688,38.1100,94,93,135044
1.5347,0.2884,38.3000,94,93,135048
1.5689,0.2786,38.4000,94,93,135051
1.5738,0.2884,38.4000,94,93,135054
1.5836,0.2884,38.3600,94,93,135058
1.6471,0.3079,38.1800,94,93,135061
1.6129,0.2884,38.3300,94,93,135064
1.6031,0.2786,38.2700,94,93,135067
1.5934,0.2884,38.3300,94,93,135071
1.6080,0.2786,38.3600,94,93,135074
1.5982,0.2688,38.2100,94,93,135077
1.5689,0.2933,38.3600,94,93,135081
1.5787,0.2884,38.2700,94,93,135085
1.5738,0.2835,38.3600,94,93,135088
1.5982,0.2835,38.3600,94,93,135092
1.6325,0.2981,38.2700,94,93,135095
1.6325,0.2933,38.4000,94,93,135098
1.6813,0.2933,38.2700,94,93,135102
1.6569,0.2835,38.4000,94,93,135105
1.6618,0.2688,38.4000,94,93,135108
1.6667,0.2884,38.2400,94,93,135111
1.6422,0.2884,38.3600,94,93,135115
1.6667,0.2933,38.1800,94,93,135118
1.6471,0.2786,38.4000,94,93,135121
1.6569,0.2884,38.4000,94,93,135126
1.6764,0.2933,38.3300,94,93,135129
1.6716,0.2835,38.4000,94,93,135132
1.7058,0.2933,38.1500,94,93,135136
1.6764,0.3030,38.3000,94,93,135139
1.6618,0.2933,38.4300,94,93,135142
1.6764,0.2884,38.4600,94,93,135146
1.6716,0.2835,38.3600,94,93,135149
1.7253,0.3030,38.1100,94,93,135152
1.6862,0.3128,38.2700,94,93,135156
1.6911,0.2835,38.3300,94,93,135159
1.6764,0.2884,38.3600,94,93,135162
1.6862,0.2835,38.4000,94,93,135165
1.7546,0.3030,38.2400,94,93,135170
1.7155,0.2884,37.5600,94,93,135173
1.7204,0.2884,38.2700,94,93,135176
1.7107,0.2933,38.4000,94,93,135180
1.7107,0.2933,38.4000,94,93,135183
1.7400,0.2933,38.3000,94,93,135186
1.7253,0.2884,38.4000,94,93,135190
1.7498,0.2884,38.2700,94,93,135193
1.7400,0.2884,38.3600,94,93,135196
1.7498,0.2835,38.5200,94,93,135199
1.7840,0.3030,38.2700,94,93,135203
1.7546,0.2884,38.3600,94,93,135206
1.7791,0.3128,38.2400,94,93,135209
1.7400,0.2835,38.3000,94,93,135214
1.7351,0.2835,38.4300,94,93,135217
1.7498,0.2688,38.2400,94,93,135220
1.7351,0.2835,38.4000,94,93,135224
1.7742,0.2933,38.1500,94,93,135227
1.7595,0.2933,38.3600,94,93,135230
1.7742,0.2835,38.4900,94,93,135234
1.8035,0.2884,38.3000,94,93,135237
1.7889,0.2688,38.4000,94,93,135240
1.8280,0.2981,38.1100,94,93,135243
1.8231,0.2933,38.3300,94,93,135247
1.8035,0.2835,38.4000,94,93,135250
1.8084,0.2884,38.4000,94,93,135254
1.7937,0.2884,38.4900,94,93,135258
1.7937,0.2884,38.4000,94,93,135261
1.8231,0.2981,38.1800,94,93,135265
1.7889,0.2884,38.3600,94,93,135268
1.7986,0.2884,38.2400,94,93,135271
1.7693,0.2835,38.5800,94,93,135275
1.7644,0.2981,38.4000,94,93,135278
1.7840,0.2933,38.2700,94,93,135281
1.7644,0.2884,37.9600,94,93,135285
1.7840,0.2933,38.2400,94,93,135288
1.7351,0.2835,38.3600,94,93,135291
1.7400,0.2786,38.4000,94,93,135294
1.7498,0.2933,38.3000,94,93,135299
1.7351,0.2884,38.4000,94,93,135302
1.7595,0.2884,38.1500,94,93,135305
1.7302,0.2688,38.4000,94,93,135309
1.7351,0.2835,38.4000,94,93,135312
1.7595,0.3079,38.3300,94,93,135315
1.7400,0.2933,38.4000,94,93,135319
1.7840,0.2933,38.1500,94,93,135322
1.7644,0.2884,38.3000,94,93,135325
1.7498,0.2835,38.4000,94,93,135328
1.7693,0.2884,38.3300,94,93,135332
1.7595,0.2884,38.4300,94,93,135335
1.8133,0.3079,38.1500,94,93,135339
1.7644,0.2933,38.2700,94,93,135343
1.7400,0.2786,38.3300,94,93,135346
1.7400,0.2884,38.5200,94,93,135349
1.7253,0.3079,38.4000,94,93,135353
1.7546,0.3030,38.2400,94,93,135356
1.7204,0.2884,38.3600,94,93,135359
1.7155,0.2884,38.5800,94,93,135362
1.7204,0.2933,38.3600,94,93,135366
1.7351,0.2835,38.4300,94,93,135369
1.7693,0.3470,38.3300,94,93,135372
1.7595,0.2688,38.3600,94,93,135376
1.7791,0.2884,38.3600,94,93,135379
1.7644,0.2884,38.4300,94,93,135383
1.7693,0.2835,38.2100,94,93,135387
1.7986,0.2933,38.2100,94,93,135390
1.7742,0.2884,38.4000,94,93,135393
1.8084,0.2835,38.2400,94,93,135397
1.7644,0.2835,38.3300,94,93,135400
1.7791,0.2835,38.4900,94,93,135403
1.8280,0.2884,38.2700,94,93,135407
1.7937,0.2835,38.4000,94,93,135410
1.8328,0.2933,38.1500,94,93,135413
1.8084,0.2884,38.4000,94,93,135416
1.8133,0.2835,38.4000,94,93,135420
1.8328,0.2981,38.3300,94,93,135424
1.8182,0.2835,38.4000,94,93,135427
1.8622,0.2981,38.0800,94,93,135431
1.8084,0.2786,38.3000,94,93,135434
1.8035,0.2835,38.4000,94,93,135437
1.8182,0.2884,38.4900,94,93,135441
1.8133,0.2786,38.4000,94,93,135444
1.8768,0.3079,38.1800,94,93,135447
1.8524,0.2884,38.3600,94,93,135450
1.8573,0.2737,38.3000,94,93,135454
1.8768,0.2884,38.3300,94,93,135457
1.8915,0.2884,38.3600,94,93,135460
1.9453,0.2981,38.2700,94,93,135464
1.9404,0.2981,38.3300,94,93,135468
1.9257,0.2884,38.2700,94,93,135471
1.9013,0.2835,38.5200,94,93,135475
1.8817,0.2835,38.4000,94,93,135478
1.8915,0.2933,38.2700,94,93,135481
1.8573,0.2884,38.3300,94,93,135485
1.8866,0.2933,38.2400,94,93,135488
1.8377,0.2884,38.4300,94,93,135491
1.8280,0.2786,38.4300,94,93,135494
1.8328,0.2933,38.2700,94,93,135498
1.8084,0.2884,38.3600,94,93,135501
1.8182,0.2884,38.2400,94,93,135504
1.7742,0.2884,38.4000,94,93,135508
1.7742,0.2688,38.4000,94,93,135512
1.7840,0.2933,38.2100,94,93,135515
1.7693,0.2884,38.4300,94,93,135519
1.8133,0.2933,38.1500,94,93,135522
1.7937,0.2981,38.3000,94,93,135525
1.7742,0.2835,38.3600,94,93,135529
1.7693,0.2981,38.3300,94,93,135532
1.7498,0.2835,38.4000,94,93,135535
1.8035,0.2981,38.1500,94,93,135539
1.7693,0.2884,38.3000,94,93,135542
1.7595,0.2835,38.4300,94,93,135545
1.7595,0.2933,38.3300,94,93,135548
1.7595,0.2835,38.4000,94,93,135553
1.8084,0.3030,38.0500,94,93,135556
1.7889,0.3079,38.3000,94,93,135559
1.8035,0.2884,38.3300,94,93,135563
1.8231,0.2884,38.3600,94,93,135566
1.8475,0.2884,38.4300,94,93,135569
1.9306,0.2981,38.3000,94,93,135573
1.9795,0.2884,38.0200,94,93,135576
2.1017,0.2933,38.2400,94,93,135579
2.2190,0.2884,38.4600,94,93,135582
2.3949,0.2835,38.4000,94,93,135586
2.6442,0.2981,38.2400,94,93,135589
2.8446,0.2884,38.4000,94,93,135592
3.1036,0.3030,38.2700,94,93,135597
3.2014,0.2786,38.3300,94,93,135600
3.1916,0.2835,38.4000,94,93,135603
3.0401,0.2835,38.3000,94,93,135607
2.7224,0.2835,38.4000,94,93,135610
2.4389,0.2884,38.1800,94,93,135613
2.1310,0.2835,38.1500,94,93,135616
1.8964,0.2835,38.4000,94,93,135620
1.7302,0.2981,38.3000,94,93,135623
1.5738,0.2835,38.6500,94,93,135626
1.5054,0.3030,38.1500,94,93,135630
1.4125,0.2786,38.3300,94,93,135633
1.3832,0.2884,38.4000,94,93,135636
1.3587,0.2933,38.3300,94,93,135641
1.3441,0.2835,38.3600,94,93,135644
1.3881,0.2981,38.1100,94,93,135647
1.3783,0.2884,38.4300,94,93,135651
1.4076,0.2835,38.3600,94,93,135654
1.4370,0.2884,38.4000,94,93,135657
1.4516,0.2835,38.4300,94,93,135660
1.5103,0.2981,38.2100,94,93,135664
1.5054,0.2884,38.3300,94,93,135667
1.5103,0.2835,38.3000,94,93,135670
1.5103,0.2884,38.4000,94,93,135674
1.5298,0.2835,38.3600,94,93,135677
1.5689,0.3030,38.3000,94,93,135681
1.5689,0.2884,38.3600,94,93,135685
1.5885,0.2688,38.2400,94,93,135688
1.5836,0.2884,38.4600,94,93,135691
1.5885,0.2835,38.4000,94,93,135695
1.5934,0.2884,38.2700,94,93,135698
1.6129,0.2884,38.3600,94,93,135701
1.6227,0.2933,38.3300,94,93,135704
1.6031,0.2884,38.4000,94,93,135708
1.5982,0.2835,38.4000,94,93,135711
1.6227,0.2933,38.3000,94,93,135714
1.6031,0.2884,38.3600,94,93,135718
1.6276,0.2884,38.0800,94,93,135721
1.6178,0.3030,38.2700,94,93,135725
1.6227,0.2933,38.4000,94,93,135729
1.6520,0.2933,37.5600,94,93,135732
1.6422,0.2933,38.4000,94,93,135735
1.6911,0.2884,38.1100,94,93,135738
1.6569,0.2835,38.3300,94,93,135742
1.6520,0.3177,38.4000,94,93,135745
1.6911,0.2884,38.3600,94,93,135748
1.6569,0.2835,38.1100,94,93,135752
1.7058,0.2981,38.0500,94,93,135755
1.6764,0.2884,38.3000,94,93,135758
1.6813,0.2786,38.5800,94,93,135762
1.6960,0.2884,38.3600,94,93,135766
1.7058,0.2835,37.6200,94,93,135769
1.7546,0.3030,38.3000,94,93,135773
1.7155,0.2933,38.3600,94,93,135776
1.7204,0.2835,38.3300,94,93,135779
1.7155,0.2933,38.4000,94,93,135782
1.7058,0.2835,38.4000,94,93,135786
1.7351,0.2981,38.2400,94,93,135789
1.7107,0.2933,38.3600,94,93,135792
1.7204,0.2884,38.3000,94,93,135796
1.6911,0.2884,38.3300,94,93,135799
1.6960,0.2835,38.4000,94,93,135802
1.7253,0.2933,38.3000,94,93,135806
1.7204,0.2884,38.4600,94,93,135810
1.7546,0.3275,38.2700,94,93,135813
1.7449,0.2835,38.4000,94,93,135816
1.7595,0.2835,38.3300,94,93,135820
1.7742,0.2933,38.3000,94,93,135823
1.7644,0.2688,38.4000,94,93,135826
1.7742,0.2884,38.2100,94,93,135830
1.7546,0.2884,38.4300,94,93,135833
1.7644,0.2835,38.3600,94,93,135836
1.7986,0.3275,38.3300,94,93,135840
1.7937,0.2884,38.4000,94,93,135843
1.8377,0.2981,38.1100,94,93,135846
1.8133,0.2884,38.2700,94,93,135851
1.8035,0.2835,38.4900,94,93,135854
1.8133,0.2884,38.4300,94,93,135857
1.8035,0.2835,38.4000,94,93,135860
1.8622,0.3079,38.0800,94,93,135864
1.8426,0.2981,38.2700,94,93,135867
1.8280,0.3079,38.4000,94,93,135871
1.8475,0.2933,38.2400,94,93,135874
1.8280,0.2835,38.4300,94,93,135877
1.8328,0.2835,38.3600,94,93,135881
1.8280,0.2884,38.3000,94,93,135884
1.7986,0.2933,38.3600,94,93,135887
1.8133,0.2933,38.2700,94,93,135891
1.7840,0.2835,38.4000,94,93,135895
1.7937,0.2835,38.4300,94,93,135898
1.8133,0.2933,38.2100,94,93,135902
1.7986,0.2835,38.3600,94,93,135905
1.8328,0.2884,38.2700,94,93,135908
1.8084,0.2933,38.3000,94,93,135911
1.7937,0.2786,38.4000,94,93,135915
1.8084,0.2981,38.2700,94,93,135918
1.7791,0.2884,38.4900,94,93,135921
1.8133,0.2981,38.1800,94,93,135925
1.7791,0.2835,38.3300,94,93,135928
1.7693,0.2835,38.4000,94,93,135931
1.7889,0.2933,38.3300,94,93,135936
1.7644,0.2835,38.4000,94,93,135939
1.8084,0.3030,38.0800,94,93,135942
1.7644,0.2884,38.3000,94,93,135945
1.7595,0.2835,38.3600,94,93,135949
1.7840,0.2786,38.3600,94,93,135952
1.7546,0.2835,38.4000,94,93,135955
1.8084,0.2981,38.2100,94,93,135959
1.7986,0.2884,38.3300,94,93,135962
1.7986,0.2835,37.5600,94,93,135965
1.7840,0.2884,38.4000,94,93,135969
1.7840,0.2835,38.4000,94,93,135972
1.8035,0.2981,38.2100,94,93,135975
1.7644,0.2884,38.3300,94,93,135980
1.7693,0.2884,38.2100,94,93,135983
1.7595,0.3128,38.4000,94,93,135986
1.7742,0.2688,38.4000,94,93,135989
1.8035,0.2933,38.1800,94,93,135993
1.7889,0.2737,38.3600,94,93,135996
1.8231,0.2884,38.2400,94,93,135999
1.8084,0.2933,38.3600,94,93,136003
1.8231,0.2688,38.4000,94,93,136006
1.8328,0.2884,37.8000,94,93,136009
1.8182,0.2884,38.4000,94,93,136013
1.8426,0.2933,38.2100,94,93,136016
1.8035,0.2835,38.4900,94,93,136019
1.8035,0.2835,38.3600,94,93,136023
1.8280,0.2933,38.3000,94,93,136027
1.8035,0.2835,38.3300,94,93,136030
1.8524,0.2981,38.1100,94,93,136033
1.8377,0.2933,38.3000,94,93,136037
1.8328,0.2835,38.4000,94,93,136040
1.8622,0.2933,38.3300,94,93,136043
1.8475,0.2835,38.3300,94,93,136047
1.8964,0.3079,38.1100,94,93,136050
1.8573,0.2884,38.2700,94,93,136053
1.8426,0.2835,38.3000,94,93,136057
1.8475,0.2933,38.4000,94,93,136060
1.8573,0.2835,38.4000,94,93,136064
1.9062,0.2981,38.2100,94,93,136067
1.9013,0.2884,38.3300,94,93,136071
1.8817,0.2884,38.3000,94,93,136074
1.8719,0.2835,38.3600,94,93,136077
1.8768,0.2835,38.3300,94,93,136081
1.9110,0.3030,38.3000,94,93,136084
1.9013,0.2884,38.3600,94,93,136087
1.9306,0.2884,38.2400,94,93,136091
1.9159,0.2933,38.4300,94,93,136094
1.9257,0.2688,38.4000,94,93,136097
1.9453,0.2981,38.2700,94,93,136101
1.9110,0.2786,38.3600,94,93,136104
1.9110,0.2884,38.3000,94,93,136108
1.8573,0.2884,38.2700,94,93,136111
1.8328,0.2933,38.4000,94,93,136115
1.8280,0.2884,38.0500,94,93,136118
1.7937,0.2835,38.4600,94,93,136121
1.8133,0.2981,38.1800,94,93,136125
1.7840,0.2884,38.3000,94,93,136128
1.7791,0.2835,38.6200,94,93,136131
1.7986,0.2933,38.3300,94,93,136135
1.7644,0.2835,38.4000,94,93,136138
1.7937,0.2933,38.0800,94,93,136141
1.7546,0.2835,38.3300,94,93,136144
1.7498,0.2835,38.4300,94,93,136148
1.7498,0.2786,38.3300,94,93,136152
1.7449,0.2884,38.4600,94,93,136155
1.8084,0.3226,38.1100,94,93,136159
1.7889,0.2884,38.3000,94,93,136162
1.7791,0.2835,38.3300,94,93,136165
1.7791,0.3177,38.3600,94,93,136169
1.7693,0.2835,38.4000,94,93,136172
1.8035,0.2981,38.1800,94,93,136175
1.7791,0.2933,38.3600,94,93,136179
1.7840,0.2835,38.3000,94,93,136182
1.7644,0.2933,38.4000,94,93,136185
1.7546,0.2884,38.4000,94,93,136188
1.7840,0.2933,38.2700,94,93,136193
1.7693,0.2981,38.3600,94,93,136196
1.8182,0.2884,38.2400,94,93,136199
1.8328,0.2884,38.4300,94,93,136203
1.9110,0.2786,38.4300,94,93,136206
1.9844,0.2884,38.3300,94,93,136209
2.0968,0.2933,38.3300,94,93,136213
2.2825,0.2786,38.2700,94,93,136216
2.4291,0.2835,38.4000,94,93,136219
2.6540,0.2835,38.4000,94,93,136223
2.9179,0.2933,38.3000,94,93,136226
3.0841,0.2884,38.2400,94,93,136229
3.2502,0.2933,38.1500,94,93,136232
3.1720,0.2933,38.2700,94,93,136237
2.9423,0.2835,38.4000,94,93,136240
2.6686,0.2933,38.3000,94,93,136243
2.3363,0.2786,38.3600,94,93,136247
2.1261,0.2981,38.1100,94,93,136250
1.8622,0.2933,38.2700,94,93,136253
1.6911,0.2835,38.4300,94,93,136257
1.5640,0.3079,38.3300,94,93,136260
1.4663,0.2786,38.4000,94,93,136263
1.4516,0.3079,38.1500,94,93,136266
1.3881,0.3079,38.3000,94,93,136270
1.3978,0.2786,38.3300,94,93,136273
1.3636,0.2884,38.4300,94,93,136276
1.3734,0.2884,38.3600,94,93,136281
1.4223,0.2981,38.2100,94,93,136284
1.4223,0.2981,38.3600,94,93,136287
1.4467,0.2884,38.2700,94,93,136291
1.4614,0.2786,38.4000,94,93,136294
1.4956,0.2835,38.4000,94,93,136297
1.5543,0.2933,38.2400,94,93,136301
1.5640,0.2884,38.3600,94,93,136304
1.5982,0.2981,38.2700,94,93,136307
1.5934,0.2835,38.3300,94,93,136310
1.6031,0.2835,38.4000,94,93,136314
1.6178,0.3079,38.3000,94,93,136317
1.6178,0.2786,38.4300,94,93,136321
1.6520,0.2884,38.2100,94,93,136325
1.6471,0.2835,38.2400,94,93,136328
1.6764,0.2835,38.4000,94,93,136331
1.7058,0.2933,38.3000,94,93,136335
1.6911,0.2884,38.2700,94,93,136338
1.7155,0.2835,38.1500,94,93,136341
1.6716,0.2786,38.3600,94,93,136345
1.6667,0.2835,38.4000,94,93,136348
1.6813,0.2933,38.3600,94,93,136351
1.6911,0.2835,38.3600,94,93,136354
1.7253,0.2981,38.1500,94,93,136358
1.7058,0.2933,38.3000,94,93,136361
1.7302,0.2835,38.4000,94,93,136365
1.7107,0.2884,38.3600,94,93,136369
1.7058,0.2884,38.4000,94,93,136372
1.7693,0.2981,38.1800,94,93,136375
1.7400,0.2933,38.3300,94,93,136379
1.7498,0.2884,38.3000,94,93,136382
1.7644,0.2884,38.3600,94,93,136385
1.7742,0.2835,38.4600,94,93,136388
1.8035,0.3079,38.2700,94,93,136392
1.7889,0.2884,38.3600,94,93,136395
1.7840,0.2884,38.2100,94,93,136398
1.7546,0.2933,38.3600,94,93,136402
1.7595,0.2835,38.2100,94,93,136406
1.7889,0.2933,38.3300,94,93,136409
1.7889,0.2884,38.4000,94,93,136413
1.8328,0.2933,38.2700,94,93,136416
1.8084,0.2884,38.4000,94,93,136419
1.8084,0.2835,38.4000,94,93,136423
1.8231,0.2835,38.3000,94,93,136426
1.7937,0.2884,38.4000,94,93,136429
1.8133,0.2884,38.1800,94,93,136432
1.7937,0.2884,38.3000,94,93,136436
1.7840,0.2835,38.4000,94,93,136439
1.8133,0.3177,38.3000,94,93,136442
1.8280,0.2933,38.4000,94,93,136446
1.8475,0.2933,38.1100,94,93,136450
1.8231,0.2933,38.3000,94,93,136453
1.8280,0.2786,38.4000,94,93,136457
1.8328,0.2884,38.4000,94,93,136460
1.8280,0.2835,38.4000,94,93,136463
1.8817,0.2933,38.0500,94,93,136466
1.8524,0.2835,38.3300,94,93,136470
1.8671,0.2786,38.5800,94,93,136473
1.8866,0.2981,38.3600,94,93,136476
1.9257,0.2688,38.4000,94,93,136480
1.9159,0.2835,38.4000,94,93,136483
1.9501,0.2933,38.2400,94,93,136487
1.9257,0.2884,38.3600,94,93,136491
1.9501,0.2933,38.2700,94,93,136494
1.9208,0.2786,38.3600,94,93,136498
1.9208,0.2835,38.4000,94,93,136501
1.9404,0.2933,38.3000,94,93,136504
1.9306,0.2835,38.4300,94,93,136508
1.9501,0.2835,38.2100,94,93,136511
1.9159,0.3177,38.3300,94,93,136514
1.9110,0.2688,38.4000,94,93,136517
1.9110,0.2884,38.3000,94,93,136521
1.9062,0.2835,38.4000,94,93,136524
1.9501,0.2933,38.1800,94,93,136527
1.9062,0.2786,38.3600,94,93,136531
1.8964,0.2786,38.5200,94,93,136535
1.8915,0.2933,38.4300,94,93,136538
1.8622,0.2835,38.5800,94,93,136542
1.9110,0.3030,38.1100,94,93,136545
1.8719,0.2933,38.2700,94,93,136548
1.8671,0.2835,38.4000,94,93,136551
1.8866,0.2933,38.3300,94,93,136555
1.8573,0.2786,38.4000,94,93,136558
1.9208,0.3030,38.1800,94,93,136561
1.8768,0.2933,38.3000,94,93,136565
1.8671,0.2835,38.3000,94,93,136568
1.8622,0.2884,38.4300,94,93,136571
1.8573,0.2933,38.4000,94,93,136576
1.8964,0.2688,38.2400,94,93,136579
1.8719,0.2884,38.3600,94,93,136582
1.8866,0.2835,38.2700,94,93,136586
1.8719,0.2835,38.4000,94,93,136589
1.8671,0.2835,38.4000,94,93,136592
1.8817,0.2884,38.3000,94,93,136595
1.8622,0.2884,38.4000,94,93,136599
1.9110,0.2884,38.2700,94,93,136602
1.8671,0.2835,38.4000,94,93,136605
1.8768,0.2835,38.4000,94,93,136609
1.9159,0.2933,38.2400,94,93,136612
1.8866,0.2884,38.4000,94,93,136615
1.9159,0.2786,38.2100,94,93,136620
1.9013,0.2835,38.3000,94,93,136623
1.9013,0.2835,38.4300,94,93,136626
1.9208,0.2884,38.2700,94,93,136630
1.9257,0.2835,38.4000,94,93,136633
1.9941,0.2933,38.1500,94,93,136636
1.9697,0.2884,38.3300,94,93,136639
1.9501,0.2835,38.5800,94,93,136643
1.9501,0.2933,38.3300,94,93,136646
1.9159,0.2835,38.3600,94,93,136649
1.9501,0.2884,38.0800,94,93,136653
1.8964,0.2835,38.3000,94,93,136656
1.8866,0.2786,38.3300,94,93,136659
1.8964,0.2786,38.4300,94,93,136664
1.8964,0.2835,38.4900,94,93,136667
1.9550,0.3030,38.2100,94,93,136670
1.9648,0.2933,38.3000,94,93,136673
1.9306,0.2786,38.3000,94,93,136677
1.9306,0.2981,38.3600,94,93,136680
1.9404,0.2786,38.3600,94,93,136683
1.9795,0.2933,38.5800,94,93,136687
1.9599,0.2933,38.3600,94,93,136690
1.9844,0.2884,38.4000,94,93,136693
1.9648,0.2933,38.4000,94,93,136697
1.9697,0.2835,38.4300,94,93,136700
1.9892,0.2933,38.2700,94,93,136704
1.9599,0.2786,38.3600,94,93,136708
1.9941,0.2933,38.2700,94,93,136711
1.9648,0.3177,38.3600,94,93,136714
1.9844,0.2786,38.4000,94,93,136717
2.0137,0.2835,38.3000,94,93,136721
2.0186,0.2835,38.5200,94,93,136724
2.0626,0.3372,38.2100,94,93,136727
2.0430,0.2835,38.4000,94,93,136731
2.0430,0.2835,38.4300,94,93,136734
2.0528,0.2835,38.2700,94,93,136737
2.0088,0.2835,38.4000,94,93,136741
2.0235,0.2884,38.2100,94,93,136744
1.9697,0.2884,38.2700,94,93,136748
1.9697,0.2884,38.3600,94,93,136751
1.9355,0.2884,38.5200,94,93,136755
1.9159,0.2884,38.4000,94,93,136758
1.9697,0.2933,38.0800,94,93,136761
1.9257,0.2933,38.2700,94,93,136765
1.9159,0.2786,38.3600,94,93,136768
1.9013,0.2884,38.4000,94,93,136771
1.8817,0.2933,38.4000,94,93,136775
1.9208,0.2884,38.2100,94,93,136778
1.8768,0.2884,38.4300,94,93,136781
1.8817,0.2835,38.3000,94,93,136785
1.8817,0.2835,38.4000,94,93,136788
1.8915,0.2981,38.3600,94,93,136792
1.9453,0.2981,38.3000,94,93,136795
1.9013,0.2884,38.3600,94,93,136799
1.9013,0.2835,38.6200,94,93,136802
1.8719,0.2835,38.3600,94,93,136805
1.8719,0.2835,38.4000,94,93,136809
1.9062,0.2884,38.2400,94,93,136812
1.8817,0.2835,38.3600,94,93,136815
1.9306,0.2884,38.2400,94,93,136819
1.8573,0.2786,38.4600,94,93,136822
1.8671,0.2835,38.4300,94,93,136825
1.9013,0.3226,38.2100,94,93,136829
1.9013,0.2786,38.3600,94,93,136833
1.9648,0.2884,38.1500,94,93,136836
1.9844,0.2835,38.3600,94,93,136840
2.0626,0.2835,38.4000,94,93,136843
2.1945,0.2884,38.3300,94,93,136846
2.3363,0.2884,38.4000,94,93,136849
2.6002,0.2933,38.1100,94,93,136853
2.7615,0.2835,38.3000,94,93,136856
2.9863,0.2835,38.4300,94,93,136859
3.1867,0.2835,38.3600,94,93,136863
3.2551,0.2933,38.4000,94,93,136866
3.2796,0.3030,38.1500,94,93,136869
3.0010,0.2884,38.5800,94,93,136873
2.6833,0.2786,38.3600,94,93,136877
2.3949,0.2835,38.4000,94,93,136880
2.1408,0.2835,38.4000,94,93,136883
1.9795,0.2933,38.1800,94,93,136887
1.7840,0.2884,38.3600,94,93,136890
1.6569,0.2835,38.3300,94,93,136893
1.5689,0.2786,38.3600,94,93,136897
1.5200,0.2835,38.3600,94,93,136900
1.5200,0.2933,38.2700,94,93,136903
1.4907,0.2835,38.3600,94,93,136907
1.5249,0.2884,38.2400,94,93,136910
1.5200,0.2835,38.4600,94,93,136913
1.5445,0.2835,38.3600,94,93,136916
1.5787,0.2835,38.3000,94,93,136921
1.5885,0.2835,38.3600,94,93,136924
1.6325,0.2835,38.2400,94,93,136927
1.6129,0.2835,38.3600,94,93,136931
1.6373,0.2786,38.4000,94,93,136934
1.6373,0.2884,38.4300,94,93,136937
1.6471,0.2786,38.4000,94,93,136941
1.6862,0.2884,38.1500,94,93,136944
1.6911,0.2933,38.2700,94,93,136947
1.6960,0.2786,38.4300,94,93,136951
1.7449,0.2835,38.3300,94,93,136954
1.7498,0.2884,38.4000,94,93,136957
1.7986,0.2933,38.0800,94,93,136962
1.7546,0.2835,38.3000,94,93,136965
1.7498,0.2786,38.4000,94,93,136968
1.7644,0.2835,38.3600,94,93,136971
1.7595,0.2835,38.4000,94,93,136975
1.8133,0.3030,38.1800,94,93,136978
1.7742,0.2884,38.0500,94,93,136981
1.7644,0.2786,38.3600,94,93,136985
1.7595,0.2835,38.3600,94,93,136988
1.7546,0.2835,38.3600,94,93,136991
1.7986,0.2981,38.3000,94,93,136995
1.7840,0.2835,38.3600,94,93,136998
1.8084,0.2835,38.2100,94,93,137001
1.8133,0.2688,38.4300,94,93,137005
1.8231,0.2786,38.4000,94,93,137009
1.8622,0.2835,38.2100,94,93,137012
1.8231,0.2835,38.3600,94,93,137015
1.8231,0.2884,38.2400,94,93,137019
1.7693,0.2786,38.3600,94,93,137022
1.7742,0.2835,38.3600,94,93,137025
1.7889,0.2884,38.3000,94,93,137029
1.7791,0.2835,38.3600,94,93,137032
1.8280,0.2786,38.2100,94,93,137035
1.7986,0.2835,38.3300,94,93,137039
1.8133,0.2786,38.4000,94,93,137042
1.8377,0.2688,38.3000,94,93,137046
1.8133,0.2835,38.4000,94,93,137049
1.8426,0.2933,38.0500,94,93,137053
1.7937,0.2786,38.4300,94,93,137056
1.7986,0.2786,38.4000,94,93,137059
1.8133,0.2884,38.3600,94,93,137063
1.8182,0.2786,38.4000,94,93,137066
1.8768,0.2981,38.4600,94,93,137069
1.8573,0.2835,38.3000,94,93,137073
1.8573,0.2786,38.3600,94,93,137076
1.8719,0.2835,38.3600,94,93,137079
1.8768,0.2835,38.3600,94,93,137083
1.9453,0.2981,38.1800,93,93,137086
1.8915,0.2933,38.3000,93,93,137091
1.8866,0.2835,38.4000,93,93,137094
1.9110,0.2884,38.2700,93,93,137097
1.8964,0.2933,38.3300,93,93,137100
1.9062,0.2688,38.4000,93,93,137104
1.9306,0.2835,38.3000,93,93,137107
1.9355,0.2835,38.3300,93,93,137110
1.9795,0.2786,38.2100,93,93,137114
1.9746,0.2835,38.4000,93,93,137117
1.9795,0.2884,38.4000,93,93,137120
1.9892,0.2884,38.3000,93,93,137124
1.9599,0.2835,38.3600,93,93,137127
1.9990,0.2933,38.1500,93,93,137131
1.9746,0.2884,38.2400,93,93,137135
1.9501,0.2786,38.4000,93,93,137138
1.9599,0.2884,38.3300,93,93,137141
1.9404,0.2786,38.3600,93,93,137144
1.9941,0.2933,38.0800,93,93,137148
1.9550,0.2835,38.2400,93,93,137151
1.9306,0.2688,38.3600,93,93,137154
1.9306,0.2835,38.3600,93,93,137158
1.9159,0.2786,38.3600,93,93,137161
1.9697,0.2884,38.2400,93,93,137164
1.9355,0.2884,38.3300,93,93,137168
1.9404,0.2737,38.3000,93,93,137171
1.9404,0.2688,38.4000,93,93,137175
1.9257,0.2786,38.3600,93,93,137179
1.9355,0.2688,38.3300,93,93,137182
1.8915,0.2835,38.3600,93,93,137185
1.8915,0.2835,38.2400,93,93,137188
1.8671,0.2835,38.3300,93,93,137192
1.8719,0.2835,38.4300,93,93,137195
1.9062,0.2933,38.3600,93,93,137198
1.9257,0.2835,38.4000,93,93,137202
1.9208,0.2835,38.2700,93,93,137205
1.8817,0.2884,38.3600,93,93,137208
1.8768,0.2786,38.4000,93,93,137212
1.8817,0.2884,38.3000,93,93,137216
1.8524,0.2884,38.3600,93,93,137219
1.8768,0.2835,38.1800,93,93,137223
1.8524,0.2835,38.3600,93,93,137226
1.8573,0.2786,38.4000,93,93,137229
1.8719,0.2884,38.4300,93,93,137232
1.8475,0.2835,38.3600,93,93,137236
1.9013,0.2688,38.1100,93,93,137239
1.8622,0.2835,38.3000,93,93,137242
1.8719,0.2835,38.4000,93,93,137246
1.8817,0.2884,38.4000,93,93,137249
1.8719,0.2786,38.4000,93,93,137252
1.9404,0.3030,38.1500,93,93,137256
1.9110,0.2884,38.3000,93,93,137260
1.9062,0.2835,38.3300,93,93,137263
1.9159,0.2835,38.4000,93,93,137267
1.9110,0.2786,38.4000,93,93,137270
1.9599,0.2933,38.1800,93,93,137273
1.9404,0.2884,38.3300,93,93,137276
1.9648,0.2835,38.2700,93,93,137280
1.9648,0.2688,38.4000,93,93,137283
1.9648,0.2786,38.4000,93,93,137286
1.9844,0.2884,38.2700,93,93,137290
1.9648,0.2835,38.3600,93,93,137293
1.9990,0.2835,38.2400,93,93,137296
1.9892,0.2786,38.4000,93,93,137300
1.9795,0.2786,38.3300,93,93,137304
2.0186,0.2884,38.3000,93,93,137307
1.9599,0.2688,38.3600,93,93,137310
1.9746,0.2835,38.3600,93,93,137314
1.9208,0.2786,38.4000,93,93,137317
1.9159,0.2786,38.4000,93,93,137320
1.9404,0.2884,38.2700,93,93,137324
1.9306,0.2786,38.4000,93,93,137327
1.9892,0.2835,38.1800,93,93,137330
1.9795,0.2981,38.2700,93,93,137334
1.9892,0.2786,38.4000,93,93,137337
1.9990,0.2884,38.3300,93,93,137340
1.9795,0.3030,38.3600,93,93,137345
2.0381,0.2933,38.1100,93,93,137348
1.9990,0.2884,38.3000,93,93,137351
2.0235,0.2835,38.4000,93,93,137354
2.0626,0.2835,38.3600,93,93,137358
2.0772,0.2786,38.4600,93,93,137361
2.1310,0.3030,38.1500,93,93,137364
2.0577,0.2835,38.3000,93,93,137368
2.0283,0.2786,38.4300,93,93,137371
2.0039,0.3324,38.4000,93,93,137374
1.9844,0.2786,38.4000,93,93,137378
2.0088,0.2981,38.3000,93,93,137381
1.9550,0.2835,38.3300,93,93,137384
1.9355,0.2835,38.2700,93,93,137388
1.9110,0.2786,38.4600,93,93,137392
1.8964,0.2884,38.4000,93,93,137395
1.9257,0.2933,38.2100,93,93,137398
1.8915,0.2884,38.3600,93,93,137402
1.9062,0.2884,38.2400,93,93,137405
1.8671,0.2786,38.4000,93,93,137408
1.8622,0.2786,38.4000,93,93,137412
1.8817,0.2835,38.3000,93,93,137415
1.8671,0.2786,38.3600,93,93,137418
1.9257,0.2786,38.2100,93,93,137422
1.8671,0.2786,38.4900,93,93,137425
1.8622,0.2835,38.4300,93,93,137428
1.8719,0.2835,38.3000,93,93,137432
1.8524,0.2786,38.4000,93,93,137436
1.8866,0.2835,38.1500,93,93,137439
1.8573,0.2737,37.9000,93,93,137442
1.8719,0.2835,38.4000,93,93,137446
1.9110,0.2884,38.3300,93,93,137449
1.9013,0.2786,38.4000,93,93,137452
1.9941,0.2933,38.1100,93,93,137456
1.9355,0.2884,38.4000,93,93,137459
1.9306,0.3177,38.4000,93,93,137462
1.9599,0.2835,38.3600,93,93,137466
1.9795,0.2786,38.4000,93,93,137469
2.1212,0.2884,38.1800,93,93,137473
2.1212,0.2884,38.3300,93,93,137476
2.2287,0.2786,38.3000,93,93,137480
2.3851,0.2786,38.4000,93,93,137483
2.6002,0.2835,38.4000,93,93,137486
2.8886,0.2884,38.1500,93,93,137490
3.0743,0.2835,38.3600,93,93,137493
3.2845,0.2835,38.2700,93,93,137496
3.3236,0.2835,38.4000,93,93,137500
3.2307,0.2786,38.4000,93,93,137503
3.0059,0.2884,38.3600,93,93,137506
2.6588,0.2786,38.3600,93,93,137509
2.3754,0.2884,38.2700,93,93,137513
2.0772,0.2786,38.3600,93,93,137517
1.8719,0.2835,38.4000,93,93,137520
1.7351,0.2884,38.3000,93,93,137524
1.5885,0.2835,38.3600,93,93,137527
1.5298,0.2835,38.2100,93,93,137530
1.4809,0.2786,38.2700,93,93,137534
1.4614,0.2835,38.4000,93,93,137537
1.4809,0.2884,38.2100,93,93,137540
1.4712,0.2884,38.3600,93,93,137544
1.5347,0.2884,38.1500,93,93,137547
1.5445,0.2835,38.3300,93,93,137550
1.5885,0.2835,38.4300,93,93,137553
1.5640,0.2884,38.4000,93,93,137558
1.5543,0.2786,38.4000,93,93,137561
1.6129,0.2981,38.1800,93,93,137564
1.5982,0.2786,38.1800,93,93,137568
1.6080,0.2786,38.3600,93,93,137571
1.6276,0.2786,38.4000,93,93,137574
1.6276,0.2786,38.4000,93,93,137578
1.6911,0.2981,38.2100,93,93,137581
1.6618,0.2835,38.3600,93,93,137584
1.6618,0.2835,38.2700,93,93,137588
1.6716,0.2835,38.3600,93,93,137591
1.6960,0.2688,38.4000,93,93,137594
1.7595,0.2933,38.2100,93,93,137597
1.7449,0.2933,38.3600,93,93,137602
1.7693,0.2835,38.2400,93,93,137605
1.7595,0.2786,38.5500,93,93,137608
1.7546,0.3128,38.3600,93,93,137612
1.7742,0.2884,38.3000,93,93,137615
1.7449,0.2786,38.3600,93,93,137618
1.7595,0.2786,38.2700,93,93,137622
1.7253,0.2786,38.4000,93,93,137625
1.7351,0.2933,38.3600,93,93,137628
1.7644,0.2835,38.2700,93,93,137632
1.7840,0.2786,38.4000,93,93,137635
1.8328,0.2835,38.1800,93,93,137638
1.8231,0.2835,38.4000,93,93,137641
1.8328,0.2786,38.4000,93,93,137646
1.8280,0.2933,38.4000,93,93,137649
1.7986,0.2786,38.4000,93,93,137652
1.8280,0.2884,38.1100,93,93,137656
1.7986,0.2884,38.3300,93,93,137659
1.7546,0.2688,38.4000,93,93,137662
1.7546,0.2835,38.3600,93,93,137666
1.7400,0.2786,38.4000,93,93,137669
1.7889,0.2981,38.1100,93,93,137672
1.7644,0.2786,38.2700,93,93,137676
1.7693,0.2737,38.3300,93,93,137679
1.7791,0.2835,38.3000,93,93,137682
1.7840,0.2835,38.4000,93,93,137686
1.8377,0.2981,38.2400,93,93,137690
1.8475,0.2835,38.3300,93,93,137693
1.8671,0.2786,38.2700,93,93,137696
1.8524,0.2786,38.3300,94,93,137700
1.8133,0.2786,38.4000,94,93,137703
1.8426,0.2835,38.3600,94,93,137707
1.8671,0.2884,38.3600,94,93,137710
1.8377,0.2786,38.4000,94,93,137713
1.8475,0.2835,38.1800,94,93,137717
1.8133,0.2835,38.2700,94,93,137720
1.8084,0.2786,38.4000,94,93,137723
1.8377,0.2884,38.2700,94,93,137728
1.8475,0.2737,38.3600,94,93,137731
1.8915,0.2884,38.1500,94,93,137734
1.8671,0.2835,38.3000,94,93,137737
1.8768,0.2786,38.4000,94,93,137741
1.8964,0.2835,38.3600,94,93,137744
1.8964,0.2835,38.4000,94,93,137747
1.9599,0.2981,38.1100,94,93,137751
1.9404,0.2786,38.3000,94,93,137754
1.9697,0.2737,38.3300,94,93,137757
1.9550,0.2835,38.3600,94,93,137761
1.9648,0.2786,38.4300,94,93,137764
1.9599,0.2933,38.3000,94,93,137767
1.9062,0.2835,38.3600,94,93,137772
1.9355,0.2737,38.2700,94,93,137775
1.8866,0.2786,38.3300,94,93,137778
1.9013,0.2884,38.4000,94,93,137781
1.9453,0.2933,38.2100,94,93,137785
1.9208,0.2884,38.4000,94,93,137788
1.9306,0.2835,38.2400,94,93,137791
1.8768,0.2688,38.3600,94,93,137795
1.8622,0.2786,38.2400,94,93,137798
1.8768,0.2688,38.3000,94,93,137801
1.8524,0.2786,38.3600,94,93,137805
1.8866,0.2835,38.2700,94,93,137808
1.8817,0.2835,38.3600,94,93,137811
1.8671,0.2786,38.4000,94,93,137816
1.8719,0.2786,38.2700,94,93,137819
1.8524,0.2786,38.3600,94,93,137822
1.8671,0.2835,38.1500,94,93,137825
1.8231,0.2786,38.3600,94,93,137829
1.8182,0.2786,38.4000,94,93,137832
1.8377,0.2933,38.3300,94,93,137835
1.8328,0.2737,38.4000,94,93,137839
1.8817,0.2884,38.0800,94,93,137842
1.8524,0.2835,38.3000,94,93,137845
1.8280,0.2786,38.3600,94,93,137849
1.8231,0.2835,38.3300,94,93,137852
1.8084,0.2786,38.4000,94,93,137856
1.8622,0.3030,38.1800,94,93,137860
1.8280,0.2884,38.3000,94,93,137863
1.8182,0.2786,38.3600,94,93,137866
1.8280,0.2835,38.4300,94,93,137869
1.8035,0.2786,38.4300,94,93,137873
1.8426,0.2933,38.2400,94,93,137876
1.8280,0.2786,38.3600,94,93,137879
1.8426,0.2835,38.3000,94,93,137883
1.8280,0.2835,38.3600,94,93,137886
1.8280,0.2786,38.3600,94,93,137889
1.8426,0.2981,38.3300,94,93,137893
1.8377,0.2688,38.3600,94,93,137896
1.8573,0.2884,38.4000,94,93,137900
1.8377,0.2688,38.3600,94,93,137904
1.8475,0.2786,38.3000,94,93,137907
1.8768,0.2835,38.2400,94,93,137910
1.8573,0.2786,38.5500,94,93,137913
1.8915,0.2884,38.1800,94,93,137917
1.8817,0.2786,38.3000,94,93,137920
1.8768,0.2737,38.3600,94,93,137923
1.9013,0.2884,38.3000,94,93,137927
1.8768,0.2786,38.4300,94,93,137930
1.9110,0.3226,38.1500,94,93,137933
1.8817,0.2786,38.3300,94,93,137937
1.8768,0.2786,38.4000,94,93,137940
1.8915,0.2835,38.3600,94,93,137944
1.8915,0.2786,38.4000,94,93,137948
1.9306,0.2933,38.0800,94,93,137951
1.8817,0.2786,38.3000,94,93,137954
1.8671,0.2737,38.4300,94,93,137957
1.8671,0.2835,38.3600,94,93,137961
1.8622,0.2786,38.4000,94,93,137964
1.9355,0.2933,38.2100,94,93,137967
1.8817,0.2933,38.4000,94,93,137971
1.8866,0.2786,38.2700,94,93,137974
1.8817,0.2835,38.3600,94,93,137977
1.8915,0.2933,38.4000,94,93,137981
1.9404,0.2933,38.1800,94,93,137985
1.9208,0.2884,38.3300,94,93,137988
1.9453,0.2835,38.2400,94,93,137992
1.9306,0.2786,38.4000,94,93,137995
1.9355,0.2786,37.6200,94,93,137998
1.9550,0.2786,38.3000,94,93,138001
1.9355,0.2786,38.3600,94,93,138005
1.9306,0.2786,38.2100,94,93,138008
1.8719,0.2786,38.3600,94,93,138011
1.8280,0.2786,38.4300,94,93,138015
1.8231,0.3079,38.2700,94,93,138018
1.8035,0.2688,38.4000,94,93,138021
1.8328,0.2835,38.1800,94,93,138025
1.8231,0.2786,38.4000,94,93,138029
1.8182,0.2786,38.4300,94,93,138032
1.8231,0.2933,38.3300,94,93,138036
1.7889,0.2786,38.4600,94,93,138039
1.8084,0.2933,38.1100,94,93,138042
1.7644,0.2835,38.3000,94,93,138045
1.7449,0.2786,38.4000,94,93,138049
1.7791,0.2786,38.3300,94,93,138052
1.7449,0.2786,38.4000,94,93,138055
1.7986,0.2981,38.1500,94,93,138059
1.7595,0.2884,38.3000,94,93,138062
1.7595,0.2786,38.3000,94,93,138065
1.7693,0.3128,38.3600,94,93,138070
1.7644,0.2786,38.4000,94,93,138073
1.8182,0.2884,38.2100,94,93,138076
1.8035,0.2835,38.3600,94,93,138080
1.8084,0.2835,38.3000,94,93,138083
1.7889,0.2786,38.3600,94,93,138086
1.7937,0.2688,38.4000,94,93,138089
1.8328,0.2884,38.3300,94,93,138093
1.8426,0.2835,38.3600,94,93,138096
1.9062,0.2933,38.2700,94,93,138099
1.9208,0.2884,38.3600,94,93,138103
1.9990,0.2688,38.4300,94,93,138106
2.1457,0.2884,38.3300,94,93,138109
2.3021,0.2786,38.3600,94,93,138114
2.5073,0.2835,38.2700,94,93,138117
2.7077,0.2786,38.2700,94,93,138120
2.9326,0.2835,38.4000,94,93,138123
3.1672,0.2884,38.3300,94,93,138127
3.2356,0.2835,38.4000,94,93,138130
3.2405,0.2884,38.1800,94,93,138133
2.9570,0.2835,37.5600,94,93,138137
2.6246,0.2933,38.4000,94,93,138140
2.3118,0.2835,38.3300,94,93,138143
2.0186,0.2786,38.4300,94,93,138147
1.8377,0.3079,38.0500,94,93,138150
1.6227,0.2786,38.3300,94,93,138153
1.5054,0.2737,38.4000,94,93,138158
1.4272,0.2884,38.3300,94,93,138161
1.3881,0.2835,38.4000,94,93,138164
1.4125,0.2981,38.2100,94,93,138167
1.3783,0.2786,38.3300,94,93,138171
1.3636,0.2786,38.3300,94,93,138174
1.4223,0.2688,38.4300,94,93,138177
1.3978,0.2835,38.4000,94,93,138181
1.4321,0.2884,38.2100,94,93,138184
1.4223,0.2835,38.3600,94,93,138187
1.4516,0.3177,38.2700,94,93,138191
1.4663,0.2786,38.4000,94,93,138194
1.4907,0.2786,38.3300,94,93,138198
1.5396,0.2933,38.3300,94,93,138202
1.5200,0.2786,38.4600,94,93,138205
1.5787,0.2884,38.2700,94,93,138208
1.5836,0.2835,38.3600,94,93,138211
1.5787,0.2786,38.3300,94,93,138215
1.5982,0.2933,38.2700,94,93,138218
1.5934,0.2786,38.3600,94,93,138221
1.6178,0.3275,38.1800,94,93,138225
1.5934,0.2786,38.4600,94,93,138228
1.5982,0.3079,38.4000,94,93,138231
1.6129,0.2884,38.3300,94,93,138235
1.6178,0.3079,38.4000,94,93,138238
1.6960,0.2884,38.1100,94,93,138242
1.6520,0.2884,38.3000,94,93,138246
1.6373,0.2786,38.4000,94,93,138249
1.6813,0.2835,38.3600,94,93,138252
1.6618,0.2786,38.4600,94,93,138255
1.7204,0.2981,38.1100,94,93,138259
1.7009,0.2884,38.4900,94,93,138262
1.6911,0.2737,38.3600,94,93,138265
1.6960,0.2884,38.4000,94,93,138269
1.7009,0.2688,38.4000,94,93,138272
1.7546,0.2981,38.2400,94,93,138275
1.7302,0.2835,38.1500,94,93,138279
1.7302,0.2835,38.3000,94,93,138283
1.7204,0.2786,38.4000,94,93,138286
1.7351,0.2786,38.4000,94,93,138289
1.7693,0.2933,38.3000,94,93,138293
1.7498,0.2835,38.3600,94,93,138296
1.7693,0.2835,38.2400,94,93,138299
1.7498,0.2688,38.4000,94,93,138303
1.7449,0.2786,38.4600,94,93,138306
1.7693,0.2933,38.3000,93,93,138309
1.8084,0.2933,38.3000,93,93,138313
1.7693,0.2786,38.3600,93,93,138316
1.8035,0.2884,38.1500,93,93,138320
1.7791,0.2737,38.3000,93,93,138323
1.7595,0.2786,38.4000,93,93,138327
1.7693,0.2835,38.4300,93,93,138331
1.7644,0.2835,38.4000,93,93,138334
1.8182,0.2933,38.0800,93,93,138337
1.7840,0.2786,38.3000,93,93,138340
1.7889,0.2835,38.4000,93,93,138344
1.7986,0.2835,38.4000,93,93,138347
1.7986,0.2835,38.4000,93,93,138350
1.8524,0.2884,38.1800,93,93,138354
1.8231,0.2835,38.3300,93,93,138357
1.8231,0.2884,38.3000,93,93,138360
1.8133,0.2835,38.4300,93,93,138364
1.8133,0.2933,38.4000,93,93,138368
1.8426,0.2884,38.2100,93,93,138371
1.8231,0.2835,38.3600,93,93,138375
1.8573,0.2786,38.2700,93,93,138378
1.8426,0.2835,37.7700,93,93,138381
1.8622,0.2786,38.4000,93,93,138384
1.9013,0.2933,38.3000,93,93,138388
1.8866,0.2835,38.4000,93,93,138391
1.9208,0.3128,38.2700,93,93,138394
1.8964,0.2688,38.4000,93,93,138398
1.9062,0.2786,38.4000,93,93,138401
1.9208,0.2884,38.3000,93,93,138404
1.9062,0.2688,38.3600,93,93,138408
1.9257,0.2835,38.1800,93,93,138412
1.8915,0.2835,38.4000,93,93,138415
1.8866,0.2786,38.4000,93,93,138418
1.9013,0.2884,37.5900,93,93,138422
1.9062,0.2835,38.4000,93,93,138425
1.9404,0.2884,38.1100,93,93,138428
1.9110,0.2884,38.3600,93,93,138432
1.8768,0.2933,38.4000,93,93,138435
1.8671,0.2884,38.3600,93,93,138438
1.8377,0.2981,38.4000,93,93,138442
1.8866,0.2933,38.0800,93,93,138445
1.8524,0.2884,38.2700,93,93,138448
1.8377,0.2737,38.4300,93,93,138452
1.8280,0.2835,38.4300,93,93,138456
1.8035,0.2786,38.3600,93,93,138459
1.8719,0.2884,38.2400,93,93,138462
1.8084,0.2835,38.3000,93,93,138466
1.7986,0.2933,38.3000,93,93,138469
1.7937,0.2688,38.3600,93,93,138472
1.7937,0.2835,38.4000,93,93,138476
1.8182,0.2884,38.3000,93,93,138479
1.7889,0.2835,38.4000,93,93,138482
1.7889,0.2835,38.2400,93,93,138486
1.7595,0.2835,38.4900,93,93,138489
1.7595,0.2786,38.4000,93,93,138492
1.8035,0.2884,38.2400,93,93,138496
1.7742,0.2835,38.2700,93,93,138500
1.8035,0.2933,38.3000,93,93,138503
1.7840,0.2786,38.3300,93,93,138506
1.7889,0.2786,38.4000,93,93,138510
1.8084,0.2933,38.2700,93,93,138513
1.7937,0.2786,38.4300,93,93,138516
1.8133,0.2835,38.1500,93,93,138520
1.7889,0.2688,38.3000,93,93,138523
1.7937,0.2786,38.4000,93,93,138526
1.8231,0.2884,38.3000,93,93,138530
1.8182,0.2786,38.4000,93,93,138533
1.8719,0.2884,38.1100,93,93,138536
1.8377,0.2835,38.3300,93,93,138540
1.8524,0.2786,38.4300,93,93,138544
1.8719,0.2884,38.3600,93,93,138547
1.8573,0.2786,38.4000,93,93,138550
1.9062,0.3030,37.7400,93,93,138554
1.8671,0.2835,38.2700,93,93,138557
1.8524,0.2737,38.3300,93,93,138560
1.8622,0.2835,38.4000,93,93,138564
1.8622,0.2786,38.3600,93,93,138567
1.9208,0.2981,38.2700,93,93,138570
1.8964,0.2884,38.3300,93,93,138574
1.9013,0.2835,38.3000,93,93,138577
1.8866,0.2835,38.4000,93,93,138580
1.8768,0.2786,38.4300,93,93,138584
1.8915,0.2835,38.2400,93,93,138588
1.8622,0.2835,38.3600,93,93,138591
1.8768,0.2835,38.2400,93,93,138594
1.8719,0.2835,38.4000,93,93,138598
1.8964,0.2737,38.4000,93,93,138601
1.9306,0.2835,38.3300,93,93,138604
1.9257,0.2835,38.4000,93,93,138608
1.9453,0.2835,38.2400,93,93,138611
1.9110,0.2835,38.4000,93,93,138614
1.9208,0.3128,38.4000,93,93,138618
1.9990,0.2933,38.2400,93,93,138621
1.9501,0.2786,38.4000,93,93,138625
1.9892,0.2884,38.1500,93,93,138628
1.9599,0.2835,38.2700,93,93,138632
1.9257,0.2786,38.5800,93,93,138635
1.9306,0.2884,38.3000,93,93,138638
1.8817,0.2786,38.4000,93,93,138642
1.9159,0.2884,38.2100,93,93,138645
1.8719,0.2688,38.2700,93,93,138648
1.8524,0.2786,38.4600,93,93,138652
1.8475,0.2786,38.3600,93,93,138655
1.8280,0.2786,38.4000,93,93,138658
1.8719,0.3030,38.1100,93,93,138661
1.8133,0.2884,38.3300,93,93,138665
1.7986,0.2786,38.4000,93,93,138669
1.7937,0.2835,38.4300,93,93,138672
1.7937,0.2786,38.4000,93,93,138676
1.8280,0.2981,38.2400,93,93,138679
1.7889,0.2835,38.3600,93,93,138682
1.7889,0.2786,38.2700,93,93,138686
1.7889,0.2884,38.4300,93,93,138689
1.7595,0.2786,38.4000,93,93,138692
1.7889,0.2933,38.1800,93,93,138696
1.7644,0.2835,38.3600,93,93,138699
1.7840,0.2884,38.2700,93,93,138702
1.7742,0.2835,38.4000,93,93,138705
1.7644,0.2737,38.4300,93,93,138710
1.7889,0.2884,38.2700,93,93,138713
1.7693,0.2688,38.4000,93,93,138716
1.7986,0.2786,38.2100,93,93,138720
1.7840,0.2786,38.3600,93,93,138723
1.8182,0.2786,38.4000,93,93,138726
1.8573,0.2884,38.4900,93,93,138730
1.8719,0.2835,38.4000,93,93,138733
1.9599,0.2884,38.1500,93,93,138736
1.9892,0.2933,38.4000,93,93,138740
2.1017,0.2688,38.4000,93,93,138743
2.2678,0.2884,38.5500,93,93,138746
2.4536,0.2835,38.3600,93,93,138749
2.7322,0.2933,38.0800,93,93,138754
2.9081,0.2884,38.3600,93,93,138757
3.0792,0.2835,38.4000,93,93,138760
3.2014,0.2835,38.3600,93,93,138764
3.1623,0.2786,38.2700,93,93,138767
3.0743,0.3226,38.2100,93,93,138770
2.7224,0.2884,38.3000,93,93,138774
2.4047,0.2786,38.4000,93,93,138777
2.1359,0.2835,38.3600,93,93,138780
1.9062,0.2786,38.4000,93,93,138783
1.7644,0.2884,38.2400,93,93,138787
1.6031,0.2981,38.3600,93,93,138790
1.5005,0.2786,38.2700,93,93,138793
1.4174,0.2835,38.4000,93,93,138798
1.3734,0.2737,38.4600,93,93,138801
1.3636,0.2884,38.3600,93,93,138804
1.3490,0.2835,38.4000,93,93,138808
1.3881,0.2884,38.2700,93,93,138811
1.3783,0.2835,38.4000,93,93,138814
1.4418,0.2786,38.4000,93,93,138818
1.4565,0.2884,38.3300,93,93,138821
1.4516,0.2786,38.4000,93,93,138824
1.4907,0.2835,38.2400,93,93,138827
1.4858,0.2737,38.2700,93,93,138831
1.5005,0.2835,38.4000,93,93,138834
1.5249,0.2933,38.3300,93,93,138838
1.5298,0.2835,38.4000,93,93,138842
1.5885,0.2688,38.1500,93,93,138845
1.5738,0.2835,38.3300,93,93,138848
1.6080,0.2786,38.4300,93,93,138852
1.6129,0.2884,38.3300,93,93,138855
1.6178,0.2835,37.6500,93,93,138858
1.6716,0.3079,38.0800,93,93,138861
1.6520,0.2786,38.3000,93,93,138865
1.6667,0.2786,38.4000,93,93,138868
1.6813,0.2981,38.4000,93,93,138871
1.6764,0.2835,38.4300,93,93,138875
1.7302,0.3226,38.1800,93,93,138878
1.6960,0.2688,38.3600,93,93,138882
1.7009,0.2786,38.4000,93,93,138886
1.7058,0.2786,38.4000,93,93,138889
1.7204,0.2786,38.4000,93,93,138892
1.7546,0.2933,38.2400,93,93,138896
1.7400,0.2884,38.3600,93,93,138899
1.7498,0.2688,38.2400,93,93,138902
1.7351,0.2835,38.4000,93,93,138905
1.7449,0.2786,38.4300,93,93,138909
1.7791,0.2884,38.3000,93,93,138912
1.7546,0.2835,38.3000,93,93,138915
1.7693,0.2933,38.3000,93,93,138919
1.7400,0.2786,38.4000,93,93,138923
1.7449,0.2786,38.4600,93,93,138927
1.7498,0.2737,38.4000,93,93,138930
1.7644,0.2688,38.3300,93,93,138933
1.7546,0.2835,38.4000,93,93,138937
1.7986,0.2933,38.1100,93,93,138940
1.7742,0.2884,38.4000,93,93,138943
1.7644,0.3177,38.4000,93,93,138946
1.7791,0.2835,38.2100,93,93,138950
1.7791,0.2981,38.4000,93,93,138953
1.8671,0.2981,38.1500,93,93,138956
1.8231,0.2835,38.3000,93,93,138960
1.8475,0.2835,38.3300,93,93,138963
1.8280,0.2835,38.4000,93,93,138967
1.8280,0.2786,38.3000,93,93,138971
1.8622,0.2933,38.2400,93,93,138974
1.8182,0.2933,38.3600,93,93,138977
1.8280,0.2835,38.2700,93,93,138980
1.8182,0.2933,38.3600,93,93,138984
1.8328,0.2786,38.4300,93,93,138987
1.8622,0.2933,38.3300,93,93,138990
1.8475,0.2835,38.4300,93,93,138994
1.8671,0.2884,38.2700,93,93,138997
1.8377,0.2835,38.4000,93,93,139000
1.8426,0.2835,38.4000,93,93,139004
1.8866,0.2884,38.2700,93,93,139008
1.8671,0.2835,38.4000,93,93,139011
1.9013,0.2933,38.2400,93,93,139015
1.8964,0.2835,38.3000,93,93,139018
1.9062,0.2786,38.4000,93,93,139021
1.9306,0.2933,38.2700,93,93,139025
1.9062,0.2835,38.4300,93,93,139028
1.9355,0.3030,38.1500,93,93,139031
1.9013,0.2884,38.3300,93,93,139034
1.8915,0.2786,38.2700,93,93,139038
1.9306,0.2786,38.3300,93,93,139041
1.9159,0.2786,38.4000,93,93,139044
1.9795,0.2933,38.1100,93,93,139048
1.9404,0.2835,38.3300,93,93,139052
1.9257,0.2786,38.3000,93,93,139055
1.9208,0.2835,38.3600,93,93,139059
1.8964,0.2835,38.3300,93,93,139062
1.9355,0.2981,38.2100,93,93,139065
1.8915,0.2884,38.4300,93,93,139069
1.8768,0.2786,38.3000,93,93,139072
1.8524,0.2835,38.4000,93,93,139075
1.8426,0.2786,38.4900,93,93,139078
1.8622,0.2835,38.2400,93,93,139082
1.8231,0.2786,38.3300,93,93,139085
1.8280,0.2835,38.2400,93,93,139088
1.8133,0.2688,38.4000,93,93,139092
1.8084,0.2835,38.4600,93,93,139096
1.8377,0.3030,38.3000,93,93,139099
1.8084,0.2786,38.4000,93,93,139103
1.8280,0.2884,38.2700,93,93,139106
1.7937,0.2835,38.4000,93,93,139109
1.7986,0.2786,38.4000,93,93,139112
1.8133,0.2835,38.2400,93,93,139116
1.8035,0.2835,38.4000,93,93,139119
1.8280,0.2835,38.2100,93,93,139122
1.8035,0.2884,38.4000,93,93,139126
1.8133,0.2835,38.3600,93,93,139129
1.8426,0.2933,38.3000,93,93,139132
1.8231,0.2786,38.4000,93,93,139137
1.8426,0.2933,38.1100,93,93,139140
1.8035,0.2884,38.5800,93,93,139143
1.7840,0.2835,38.4000,93,93,139147
1.8035,0.2884,38.3300,93,93,139150
1.7937,0.2786,38.6200,93,93,139153
1.8866,0.3030,38.1100,93,93,139156
1.8377,0.2835,38.2700,93,93,139160
1.8280,0.2786,38.3300,93,93,139163
1.8377,0.2835,38.3600,93,93,139166
1.8377,0.2786,38.4300,93,93,139170
1.9159,0.2981,38.2100,93,93,139173
1.8573,0.2884,38.3300,93,93,139176
1.8475,0.3030,38.2700,93,93,139181
1.8426,0.2786,38.3600,93,93,139184
1.8426,0.2835,38.4000,93,93,139187
1.8866,0.2884,38.3000,93,93,139191
1.8768,0.2835,38.4300,93,93,139194
1.8964,0.2884,38.2400,93,93,139197
1.8719,0.2835,38.4000,93,93,139200
1.8817,0.2786,38.4000,93,93,139204
1.9306,0.2688,38.2700,93,93,139207
1.9110,0.2835,38.3000,93,93,139210
1.9404,0.2933,38.3000,93,93,139214
1.9062,0.2786,38.3300,93,93,139217
1.8915,0.2786,38.4000,93,93,139220
1.9013,0.2933,38.3000,93,93,139225
1.8866,0.2688,38.4000,93,93,139228
1.9306,0.2835,38.1800,93,93,139231
1.9208,0.3030,38.3000,93,93,139234
1.9257,0.2884,38.4300,93,93,139238
1.9599,0.2933,38.3300,93,93,139241
1.9355,0.2835,38.3300,93,93,139244
1.9795,0.2933,38.1800,93,93,139248
1.9159,0.2786,38.3600,93,93,139251
1.9208,0.2737,38.4300,93,93,139254
1.9501,0.2884,38.3600,93,93,139258
1.9550,0.2835,38.4300,93,93,139261
2.0381,0.3030,38.2400,93,93,139265
2.0186,0.2884,38.2400,93,93,139269
1.9990,0.2884,38.3600,93,93,139272
1.9746,0.2835,38.3600,93,93,139275
1.9355,0.2835,38.4000,93,93,139278
1.9990,0.2884,38.2400,93,93,139282
1.9404,0.2884,38.3600,93,93,139285
1.9453,0.2835,38.2700,93,93,139288
1.9159,0.2835,38.4000,93,93,139292
1.8768,0.2835,38.2400,93,93,139295
1.8866,0.2884,38.2700,93,93,139298
1.8133,0.2835,38.3600,93,93,139302
1.8231,0.2884,38.2700,93,93,139305
1.8035,0.2835,38.4000,93,93,139309
1.8084,0.3030,38.4000,93,93,139313
1.8182,0.2786,38.3000,93,93,139316
1.8084,0.2835,38.4000,93,93,139319
1.8231,0.2835,38.2400,93,93,139322
1.7840,0.2835,38.4000,93,93,139326
1.8035,0.2786,38.4300,93,93,139329
1.8377,0.3079,38.2700,93,93,139332
1.8231,0.2835,38.4000,93,93,139336
1.8719,0.2884,38.2700,93,93,139339
1.8524,0.2835,38.3600,93,93,139342
1.8475,0.2835,38.4000,93,93,139346
1.8817,0.2884,38.3600,93,93,139350
1.8671,0.2835,38.4000,93,93,139353
1.9062,0.2884,38.1100,93,93,139356
1.8622,0.2835,38.3000,93,93,139360
1.8719,0.2688,38.4000,93,93,139363
1.9062,0.2884,38.4000,93,93,139366
1.9453,0.3128,38.3600,93,93,139370
2.0821,0.3030,38.1500,93,93,139373
2.1505,0.2884,38.3300,93,93,139376
2.3021,0.2786,38.4000,93,93,139380
2.5024,0.2933,38.4000,93,93,139383
2.7126,0.2835,38.3600,93,93,139386
3.0010,0.2884,38.2400,93,93,139390
3.1818,0.2884,38.3600,93,93,139394
3.3382,0.2835,38.4000,93,93,139397
3.3089,0.2835,38.4300,93,93,139400
3.1281,0.2786,38.4000,93,93,139404
2.8788,0.2933,38.2700,93,93,139407
2.5171,0.2835,38.3600,93,93,139410
2.2336,0.2884,38.2700,93,93,139414
1.9501,0.2884,38.4000,93,93,139417
1.7498,0.2786,38.4300,93,93,139420
1.6276,0.2835,38.2700,93,93,139424
1.5103,0.2981,38.3600,93,93,139427
1.4761,0.2786,38.2400,93,93,139430
1.4272,0.2786,38.3600,93,93,139433
1.4027,0.2786,38.4000,93,93,139438
1.4027,0.2884,38.3000,93,93,139441
1.4027,0.2835,38.4000,93,93,139444
