ecg,gsr,temp,hr,spo2,timest
1.5640,0.4545,39.3500,70,99,267884
1.5103,0.4399,39.5700,70,99,267887
1.5054,0.4399,39.6400,70,99,267891
1.5200,0.4448,39.5400,70,99,267894
1.5200,0.4301,39.6400,70,99,267897
1.5640,0.4448,39.3800,70,99,267900
1.5347,0.4448,39.4800,70,99,267905
1.5396,0.4399,39.5400,70,99,267908
1.5591,0.4448,39.6700,70,99,267911
1.5738,0.4399,39.6400,70,99,267915
1.6178,0.4545,39.4800,70,99,267918
1.5982,0.4497,39.5700,70,99,267921
1.6080,0.4448,39.5100,70,99,267925
1.6080,0.4448,39.6000,70,99,267928
1.6471,0.4399,39.6000,70,99,267931
1.6813,0.4545,39.4400,70,99,267935
1.6862,0.4399,39.6000,70,99,267938
1.6911,0.4497,39.4800,70,99,267941
1.6667,0.4448,39.6000,70,99,267944
1.6813,0.4399,39.6000,70,99,267949
1.7155,0.4497,39.5100,70,99,267952
1.7351,0.4350,39.6400,70,99,267955
1.7351,0.4448,39.5400,70,99,267959
1.7302,0.4399,39.5400,70,99,267962
1.7058,0.4399,39.6000,70,99,267965
1.7302,0.4448,39.5400,70,99,267969
1.7302,0.4350,39.6000,70,99,267972
1.7742,0.4545,39.5700,70,99,267975
1.7449,0.4252,39.5700,70,99,267979
1.7498,0.4399,39.8000,70,99,267982
1.7791,0.4448,39.5700,70,99,267985
1.7449,0.4399,39.7000,70,99,267988
1.8084,0.4545,39.2500,70,99,267993
1.7742,0.4448,39.5100,70,99,267996
1.7693,0.4350,39.5700,70,99,267999
1.7644,0.4448,39.6000,70,99,268003
1.7693,0.4399,39.6000,70,99,268006
1.8280,0.4594,39.3800,70,99,268009
1.7889,0.4448,39.5700,70,99,268013
1.7937,0.4399,39.6000,70,99,268016
1.7840,0.4497,39.6000,70,99,268019
1.7791,0.4399,39.6000,70,99,268023
1.8084,0.4497,39.5400,70,99,268026
1.7937,0.4399,39.5700,70,99,268029
1.8231,0.4448,39.5100,70,99,268033
1.7889,0.4399,39.6400,70,99,268037
1.7889,0.4399,39.6000,70,99,268040
1.7937,0.4399,39.5400,70,99,268043
1.7791,0.4399,39.7000,70,99,268047
1.8182,0.4252,39.5100,70,99,268050
1.7889,0.4497,39.6000,70,99,268053
1.7889,0.4399,39.6400,70,99,268057
1.8035,0.4497,39.4100,70,99,268060
1.7644,0.4399,39.6000,70,99,268063
1.7937,0.4545,39.5100,70,99,268067
1.7840,0.4399,39.5400,70,99,268070
1.7889,0.4399,39.6000,70,99,268073
1.7986,0.4545,39.5400,70,99,268077
1.7840,0.4399,39.6000,70,99,268081
1.8182,0.4545,39.3800,70,99,268084
1.7791,0.4448,39.5700,70,99,268087
1.7791,0.4399,39.6000,70,99,268091
1.7889,0.4448,39.6400,70,99,268094
1.7840,0.4350,39.6000,70,99,268097
1.8133,0.4643,39.3500,70,99,268101
1.7595,0.4545,39.4100,70,99,268104
1.7595,0.4350,39.5700,70,99,268107
1.7595,0.4448,39.6400,70,99,268111
1.7546,0.4399,39.6000,70,99,268114
1.7937,0.4594,39.4400,70,99,268118
1.7595,0.4448,39.5700,70,99,268121
1.7546,0.4448,39.5100,70,99,268125
1.7644,0.4350,39.6000,70,99,268128
1.7546,0.4399,39.6000,70,99,268131
1.7840,0.4545,39.5100,70,99,268135
1.7351,0.4448,39.6000,70,99,268138
1.7595,0.4497,39.4400,70,99,268141
1.7253,0.4350,39.6000,70,99,268145
1.7302,0.4399,39.6000,70,99,268148
1.7986,0.4497,39.5400,70,99,268151
1.7546,0.4399,39.6000,70,99,268155
1.7840,0.4448,39.4400,70,99,268158
1.7351,0.4497,39.5700,70,99,268162
1.7351,0.4399,39.6000,70,99,268165
1.7546,0.4839,39.5700,70,99,268169
1.7400,0.4399,39.6000,70,99,268172
1.7742,0.4497,39.4100,70,99,268175
1.7302,0.4399,39.5700,70,99,268179
1.7400,0.4399,39.6000,70,99,268182
1.7449,0.4497,39.6000,70,99,268185
1.7302,0.4399,39.6000,70,99,268189
1.7840,0.4545,39.3500,70,99,268192
1.7498,0.4448,39.5100,70,99,268195
1.7302,0.4350,39.6000,70,99,268199
1.7253,0.4448,39.5400,70,99,268203
1.7204,0.4252,39.6000,70,99,268206
1.7742,0.4643,39.5700,70,99,268209
1.7302,0.4448,39.5400,70,99,268213
1.7351,0.4399,39.5400,70,99,268216
1.7204,0.4448,39.5700,70,99,268219
1.7107,0.4399,39.6000,70,99,268223
1.7400,0.4545,38.6800,70,99,268226
1.7253,0.4497,39.6000,70,99,268229
1.7449,0.4448,39.4800,70,99,268233
1.7155,0.4594,39.6400,70,99,268236
1.7155,0.4399,39.8300,70,99,268239
1.7253,0.4399,39.5700,70,99,268243
1.7204,0.4399,39.6000,70,99,268247
1.7546,0.4497,39.4800,70,99,268250
1.7400,0.4399,39.6000,70,99,268253
1.7595,0.4399,39.7000,70,99,268257
1.7840,0.4545,39.5100,70,99,268260
1.7546,0.4399,39.7000,70,99,268263
1.7986,0.4497,39.4100,70,99,268267
1.7937,0.4448,39.5100,70,99,268270
1.7986,0.4399,39.6000,70,99,268273
1.8133,0.4448,39.5400,70,99,268277
1.7937,0.4399,39.5700,70,99,268280
1.8328,0.4594,39.3500,70,99,268283
1.7986,0.4448,39.5400,70,99,268288
1.7937,0.4399,39.6000,70,99,268291
1.8280,0.4497,39.5700,70,99,268294
1.7889,0.4399,39.6000,70,99,268297
1.8280,0.4643,39.3800,70,99,268301
1.7693,0.4448,39.5100,70,99,268304
1.7498,0.4350,38.6800,70,99,268307
1.7351,0.4448,39.5700,70,99,268311
1.7107,0.4399,39.6400,70,99,268314
1.7204,0.4594,39.4400,70,99,268317
1.6569,0.4448,39.6000,70,99,268321
1.6325,0.4497,39.5100,70,99,268324
1.5982,0.4399,39.6700,70,99,268327
1.6080,0.4399,39.6000,70,99,268332
1.6471,0.4545,39.4800,70,99,268335
1.5982,0.4497,39.6400,70,99,268338
1.6227,0.4448,39.4400,70,99,268342
1.5885,0.4399,39.6000,70,99,268345
1.5982,0.4350,39.6000,70,99,268348
1.6325,0.4497,39.5100,70,99,268351
1.6178,0.4741,39.5700,70,99,268355
1.6471,0.4252,39.4400,70,99,268358
1.6080,0.4399,39.5400,70,99,268361
1.6276,0.4350,39.7000,70,99,268365
1.6373,0.4497,39.4800,70,99,268368
1.6276,0.4545,39.6400,70,99,268371
1.6667,0.4545,39.3800,70,99,268376
1.6276,0.4399,39.5700,70,99,268379
1.6373,0.4252,39.6000,70,99,268382
1.6373,0.4448,39.5400,70,99,268386
1.6471,0.4399,39.6000,70,99,268389
1.6862,0.4594,39.3800,70,99,268392
1.6520,0.4643,39.5700,70,99,268395
1.6422,0.4301,39.6000,70,99,268399
1.6325,0.4350,39.5700,70,99,268402
1.6325,0.4399,39.6000,70,99,268405
1.6911,0.4643,39.3800,70,99,268409
1.6569,0.4448,39.5700,70,99,268412
1.6618,0.4399,39.5400,70,99,268416
1.6325,0.4350,39.6000,70,99,268420
1.5885,0.4399,39.6000,70,99,268423
1.5885,0.4545,39.6400,70,99,268426
1.5934,0.4497,39.5700,70,99,268430
1.6325,0.4448,39.5700,70,99,268433
1.7595,0.4497,39.5700,70,99,268436
2.0674,0.4399,39.6700,70,99,268439
2.5171,0.4497,39.5400,70,99,268443
3.0499,0.4448,39.6000,70,99,268446
3.6217,0.4252,39.5100,70,99,268449
4.0274,0.4448,39.6000,70,99,268453
4.2033,0.4399,39.6000,70,99,268456
4.0078,0.4497,39.5100,70,99,268460
3.4018,0.4448,39.6400,70,99,268464
2.8201,0.4448,39.4100,70,99,268467
2.1994,0.4448,39.5100,70,99,268470
1.7498,0.4399,39.6700,70,99,268473
1.4614,0.4497,39.5400,70,99,268477
1.2659,0.4301,39.5700,70,99,268480
1.1975,0.4252,39.3500,70,99,268483
1.2805,0.4643,39.4400,70,99,268487
1.2659,0.4497,39.4800,70,99,268490
1.2805,0.4497,39.5400,70,99,268494
1.2854,0.4448,39.7300,70,99,268497
1.3001,0.4399,39.6000,70,99,268500
1.3441,0.4545,39.5100,70,99,268505
1.3343,0.4545,39.6000,70,99,268508
1.3930,0.4448,39.4800,70,99,268511
1.3734,0.4448,39.6000,70,99,268515
1.4076,0.4350,39.6000,70,99,268518
1.4516,0.4545,39.4800,70,99,268521
1.4272,0.4448,39.6000,70,99,268525
1.4712,0.4497,39.4800,70,99,268528
1.4516,0.4350,39.5700,70,99,268531
1.4809,0.4497,39.6000,70,99,268534
1.5152,0.4448,39.4800,70,99,268538
1.5249,0.4252,39.6000,70,99,268541
1.5640,0.4497,39.4100,70,99,268545
1.5396,0.4448,39.4800,70,99,268549
1.5543,0.4399,39.6400,70,99,268552
1.5787,0.4594,39.5400,70,99,268555
1.5787,0.4350,39.6000,70,99,268559
1.6325,0.4545,39.4100,70,99,268562
1.6325,0.4497,39.5400,70,99,268565
1.6178,0.4350,39.6000,70,99,268569
1.6422,0.4497,39.5700,70,99,268572
1.6325,0.4399,39.7000,70,99,268575
1.7009,0.4594,39.3800,70,99,268578
1.6764,0.4448,39.5400,70,99,268582
1.6716,0.4399,39.5400,70,99,268585
1.6618,0.4448,39.6000,70,99,268589
1.6618,0.4399,39.6700,70,99,268593
1.7204,0.4594,39.4400,70,99,268596
1.6911,0.4448,39.7000,70,99,268599
1.7204,0.4497,39.5400,70,99,268603
1.6960,0.4448,39.6000,70,99,268606
1.7058,0.4399,39.6400,70,99,268609
1.7351,0.4545,39.4800,70,99,268613
1.7253,0.4448,39.4800,70,99,268616
1.7693,0.4545,39.5100,70,99,268619
1.7498,0.4399,39.6000,70,99,268623
1.7693,0.4497,39.6400,70,99,268626
1.7937,0.4448,39.5100,70,99,268630
1.7937,0.4448,39.5100,70,99,268633
1.8377,0.4497,39.4400,70,99,268637
1.8377,0.4741,39.6000,70,99,268640
1.8622,0.4350,39.6000,70,99,268643
1.8866,0.4545,39.5400,70,99,268647
1.8817,0.4399,39.6000,70,99,268650
1.9501,0.4594,39.3500,70,99,268653
1.9501,0.4545,39.5100,70,99,268657
1.9697,0.4399,39.6000,70,99,268660
2.0088,0.4497,39.6000,70,99,268663
2.0283,0.4448,39.6000,70,99,268667
2.1114,0.4594,39.3200,70,99,268670
2.0919,0.4497,39.5100,70,99,268674
2.1359,0.4399,39.5700,70,99,268677
2.1652,0.4448,39.6000,70,99,268681
2.1848,0.4399,39.6400,70,99,268684
2.2678,0.4448,39.4400,70,99,268687
2.2434,0.4497,39.5400,70,99,268691
2.2923,0.4350,39.5100,70,99,268694
2.2581,0.4448,39.5700,70,99,268697
2.2874,0.4448,39.6000,70,99,268701
2.3118,0.4545,39.5400,70,99,268704
2.2727,0.4448,39.5400,70,99,268707
2.2825,0.4594,39.4800,70,99,268711
2.2287,0.4448,39.6700,70,99,268715
2.2092,0.4399,39.7000,70,99,268718
2.1945,0.4252,39.4400,70,99,268721
2.0870,0.4545,39.6400,70,99,268725
2.0479,0.4497,39.5100,70,99,268728
1.9355,0.4399,39.5400,70,99,268731
1.8671,0.4399,39.6000,70,99,268735
1.8182,0.4497,39.5100,70,99,268738
1.7400,0.4448,39.6000,70,99,268741
1.7009,0.4448,39.4400,70,99,268745
1.6031,0.4448,39.5100,70,99,268748
1.5445,0.4448,39.6000,70,99,268751
1.5249,0.4252,39.5400,70,99,268755
1.4809,0.4399,39.6000,70,99,268759
1.4956,0.4594,39.3500,70,99,268762
1.4370,0.4399,39.5400,70,99,268765
1.4223,0.4399,39.6400,70,99,268769
1.4125,0.4448,39.6400,70,99,268772
1.4027,0.4350,39.6000,70,99,268775
1.4565,0.4692,39.3800,70,99,268779
1.4321,0.4790,39.5100,70,99,268782
1.4223,0.4399,39.5400,70,99,268785
1.4223,0.4497,39.5700,70,99,268789
1.4321,0.4399,39.5700,70,99,268792
1.4712,0.4497,39.4100,70,99,268795
1.4565,0.4448,39.8000,70,99,268800
1.4809,0.4399,39.4800,70,99,268803
1.4663,0.4497,39.6000,70,99,268806
1.4712,0.4399,39.6000,70,99,268810
1.5103,0.4497,39.5100,70,99,268813
1.4956,0.4448,39.6000,70,99,268816
1.5347,0.4497,39.5100,70,99,268819
1.5054,0.4448,39.6400,70,99,268823
1.5103,0.4399,39.5700,70,99,268826
1.5152,0.4448,39.5100,70,99,268829
1.5103,0.4448,39.6000,70,99,268833
1.5347,0.4448,39.4400,70,99,268836
1.5249,0.4399,39.6000,70,99,268839
1.5445,0.4399,39.6400,70,99,268844
1.5640,0.4594,39.5100,70,99,268847
1.5445,0.4448,39.6000,70,99,268850
1.5934,0.4643,39.3500,70,99,268854
1.5836,0.4497,39.5100,70,99,268857
1.5836,0.4399,39.6000,70,99,268860
1.5885,0.4448,39.1600,70,99,268863
1.5885,0.4692,39.6000,70,99,268867
1.6373,0.4643,39.3500,70,99,268870
1.5885,0.4497,39.5100,70,99,268873
1.5982,0.4399,39.5400,70,99,268877
1.6080,0.4448,39.5700,70,99,268880
1.6031,0.4350,39.6000,70,99,268883
1.6422,0.4594,39.4400,70,99,268888
1.6080,0.4594,39.5700,70,99,268891
1.6129,0.4448,39.5100,70,99,268894
1.5982,0.4448,39.5400,70,99,268898
1.6129,0.4350,39.6000,70,99,268901
1.6276,0.4497,39.5400,70,99,268904
1.6031,0.4545,39.5700,70,99,268907
1.6227,0.4252,39.4400,70,99,268911
1.6080,0.4350,39.6000,70,99,268914
1.6227,0.4399,39.6000,70,99,268917
1.6471,0.4545,39.4100,70,99,268921
1.6080,0.4448,39.6000,70,99,268924
1.6276,0.4448,39.4400,70,99,268928
1.5934,0.4448,39.5400,70,99,268932
1.5982,0.4448,39.6000,70,99,268935
1.6227,0.4839,39.5400,70,99,268938
1.6080,0.4448,39.6000,70,99,268942
1.6422,0.4497,39.3800,70,99,268945
1.5982,0.4545,39.5400,70,99,268948
1.5885,0.4399,39.6400,70,99,268951
1.5982,0.4497,39.4800,70,99,268955
1.5885,0.4350,39.6000,70,99,268958
1.6422,0.4594,39.3500,70,99,268961
1.6031,0.4350,39.5100,70,99,268965
1.6031,0.4399,39.6000,70,99,268968
1.5836,0.4985,39.6400,70,99,268972
1.5738,0.4448,39.6000,70,99,268976
1.6276,0.4643,39.3800,70,99,268979
1.5934,0.4448,39.5400,70,99,268982
1.5885,0.4399,39.5100,70,99,268986
1.5787,0.4448,39.6000,70,99,268989
1.5885,0.4399,39.6700,70,99,268992
1.6276,0.4497,39.4400,70,99,268996
1.6080,0.4448,39.6000,70,99,268999
1.6325,0.4497,39.7300,70,99,269002
1.6422,0.4448,39.6000,70,99,269005
1.6080,0.4399,39.6400,70,99,269009
1.6276,0.4545,39.5100,70,99,269012
1.6178,0.4252,39.5700,70,99,269016
1.6569,0.4545,39.4400,70,99,269020
1.6325,0.4399,39.6000,70,99,269023
1.6373,0.4399,39.3200,70,99,269026
1.6520,0.4497,39.5100,70,99,269030
1.6373,0.4448,39.7300,70,99,269033
1.6716,0.4448,39.4100,70,99,269036
1.6520,0.4399,39.6700,70,99,269040
1.6667,0.4399,39.6000,70,99,269043
1.6716,0.4497,39.5400,70,99,269046
1.6471,0.4350,39.6000,70,99,269049
1.6911,0.4594,39.3200,70,99,269053
1.6716,0.4497,39.5100,70,99,269057
1.6862,0.4497,39.6000,70,99,269060
1.6862,0.4594,39.5700,70,99,269064
1.6960,0.4350,39.5100,70,99,269067
1.7400,0.4643,39.3800,70,99,269070
1.7058,0.4399,39.5700,70,99,269074
1.7204,0.4399,39.5400,70,99,269077
1.7449,0.4448,39.7700,70,99,269080
1.7595,0.4545,39.6000,70,99,269084
1.8084,0.4545,39.4100,70,99,269087
1.7840,0.4497,39.5700,70,99,269090
1.8377,0.4448,39.4800,70,99,269093
1.7937,0.4448,39.3800,70,99,269097
1.7889,0.4399,39.6400,70,99,269101
1.7840,0.4350,39.6000,70,99,269105
1.7937,0.4497,39.5100,70,99,269108
1.7595,0.4350,39.6000,70,99,269111
1.7546,0.4497,39.4400,70,99,269115
1.7058,0.4448,39.4800,70,99,269118
1.6813,0.4350,39.6000,70,99,269121
1.6813,0.4497,39.8000,70,99,269125
1.6569,0.4301,39.5700,70,99,269128
1.6813,0.4594,39.3500,70,99,269131
1.6325,0.4545,39.5700,70,99,269135
1.6227,0.4399,39.6000,70,99,269138
1.6422,0.4448,39.6700,70,99,269142
1.6471,0.4350,39.6000,70,99,269145
1.7155,0.4643,39.3800,70,99,269149
1.6716,0.4448,39.5100,70,99,269152
1.6716,0.4399,39.5400,70,99,269155
1.6667,0.4399,39.6000,70,99,269159
1.6764,0.4399,39.6400,70,99,269162
1.7351,0.4545,39.5700,70,99,269165
1.7204,0.4448,39.5700,70,99,269169
1.7302,0.4497,39.4800,70,99,269172
1.7058,0.4448,39.6400,70,99,269175
1.7204,0.4399,39.5700,70,99,269179
1.7644,0.4936,39.4400,70,99,269182
1.7449,0.4448,39.6400,70,99,269186
1.7840,0.4594,39.5100,70,99,269190
1.7546,0.4350,39.5700,70,99,269193
1.7546,0.4399,39.6700,70,99,269196
1.7742,0.4497,39.5100,70,99,269199
1.7644,0.4448,39.5700,70,99,269203
1.7986,0.4497,39.4100,70,99,269206
1.7742,0.4448,39.5400,70,99,269209
1.7791,0.4448,39.6000,70,99,269213
1.7986,0.4545,39.4800,70,99,269216
1.7742,0.4448,39.6400,70,99,269219
1.8426,0.4448,39.3500,70,99,269223
1.7742,0.4741,39.5400,70,99,269227
1.7595,0.4497,39.6000,70,99,269230
1.7155,0.4448,39.4800,70,99,269234
1.6813,0.4497,39.6000,70,99,269237
1.7791,0.4643,39.3800,70,99,269240
1.8915,0.4497,39.5100,70,99,269244
2.1750,0.4399,39.5700,70,99,269247
2.6002,0.4252,39.6000,70,99,269250
3.1085,0.4399,39.6000,70,99,269253
3.7292,0.4545,38.6500,70,99,269257
4.1496,0.4448,39.5700,70,99,269260
4.3988,0.4448,39.4800,70,99,269263
4.1447,0.4643,39.5700,70,99,269267
3.6315,0.4252,39.6000,70,99,269271
3.0303,0.4497,39.4100,70,99,269274
2.4145,0.4448,39.5700,70,99,269278
1.9941,0.4497,39.4800,70,99,269281
1.6520,0.4448,39.6000,70,99,269284
1.4663,0.4350,39.5700,70,99,269288
1.3636,0.4448,39.5100,70,99,269291
1.3148,0.4399,39.5700,70,99,269294
1.3441,0.4497,39.4400,70,99,269297
1.3685,0.4399,39.5700,70,99,269301
1.4076,0.4399,39.6000,70,99,269304
1.4614,0.4497,38.8100,70,99,269307
1.4761,0.4399,39.6000,70,99,269312
1.5298,0.4545,39.4400,70,99,269315
1.5249,0.4497,39.4800,70,99,269318
1.5494,0.4399,39.6000,70,99,269322
1.5885,0.4448,39.6000,70,99,269325
1.5885,0.4399,39.6400,70,99,269328
1.6520,0.4594,39.3200,70,99,269332
1.6178,0.4448,39.5400,70,99,269335
1.6325,0.4399,39.5700,70,99,269338
1.6618,0.4448,39.6000,70,99,269341
1.6764,0.4399,39.5700,70,99,269345
1.7498,0.4643,39.4100,70,99,269348
1.7204,0.4545,39.5400,70,99,269351
1.7253,0.4448,39.4800,70,99,269356
1.7253,0.4252,39.6000,70,99,269359
1.7302,0.4399,39.6000,70,99,269362
1.7840,0.4545,39.5100,70,99,269366
1.7693,0.4448,39.5400,70,99,269369
1.7986,0.4497,39.4800,70,99,269372
1.7693,0.4448,39.6000,70,99,269376
1.7986,0.4350,39.6000,70,99,269379
1.8280,0.4594,39.4800,70,99,269382
1.8084,0.4448,39.5400,70,99,269385
1.8573,0.4594,39.5100,70,99,269389
1.8280,0.4399,39.6400,70,99,269392
1.8377,0.4643,39.6400,70,99,269395
1.8622,0.4497,39.5400,70,99,269400
1.8573,0.4399,39.6000,70,99,269403
1.9110,0.4497,39.4100,70,99,269406
1.8866,0.4448,39.5100,70,99,269410
1.8964,0.4350,39.6000,70,99,269413
1.9110,0.4545,39.5100,70,99,269416
1.8964,0.4399,39.6400,70,99,269420
1.9746,0.4594,39.3500,70,99,269423
1.9159,0.4399,39.5700,70,99,269426
1.9404,0.4399,39.5700,70,99,269429
1.9306,0.4448,39.6400,70,99,269433
1.9257,0.4350,39.6000,70,99,269436
2.0039,0.4643,39.3200,70,99,269440
1.9697,0.4448,39.5100,70,99,269444
2.0039,0.4399,39.5400,70,99,269447
1.9941,0.4448,39.5400,70,99,269450
1.9941,0.4399,39.6000,70,99,269454
2.0479,0.4545,39.4800,70,99,269457
2.0186,0.4497,39.5400,70,99,269460
2.0577,0.4497,39.4800,70,99,269464
2.0577,0.4448,39.5700,70,99,269467
2.0772,0.4399,39.6000,70,99,269470
2.1310,0.4594,39.4400,70,99,269473
2.1212,0.4448,39.5700,70,99,269477
2.1750,0.4497,39.4800,70,99,269480
2.1701,0.4350,39.6000,70,99,269484
2.2092,0.4399,39.6400,70,99,269488
2.2483,0.4350,39.5100,70,99,269491
2.2581,0.4448,39.6000,70,99,269494
2.3216,0.4448,39.6000,70,99,269498
2.3069,0.4399,39.6000,70,99,269501
2.3509,0.4399,39.5700,70,99,269504
2.3998,0.4497,39.6000,70,99,269507
2.4194,0.4350,39.5400,70,99,269511
2.4389,0.4497,39.4100,70,99,269514
2.4145,0.4692,39.5100,70,99,269517
2.4194,0.4252,39.6000,70,99,269521
2.4438,0.4545,39.5400,70,99,269524
2.4291,0.4448,39.6000,70,99,269528
2.4682,0.4594,39.3800,70,99,269532
2.4047,0.4399,39.5400,70,99,269535
2.3167,0.4399,39.6000,70,99,269538
2.2630,0.4448,39.7000,70,99,269542
2.1945,0.4399,39.6000,70,99,269545
2.1896,0.4643,39.3500,70,99,269548
2.0626,0.4448,39.4800,70,99,269551
1.9746,0.4497,39.5400,70,99,269555
1.8915,0.4448,39.5700,70,99,269558
1.8133,0.4448,39.6000,70,99,269561
1.8084,0.4594,39.4400,70,99,269565
1.7302,0.4545,39.5400,70,99,269569
1.6960,0.4448,39.5100,70,99,269572
1.6276,0.4350,39.5700,70,99,269576
1.6031,0.4252,39.6000,70,99,269579
1.6129,0.4545,39.4100,70,99,269582
1.5689,0.4448,39.6400,70,99,269586
1.5934,0.4545,39.5100,70,99,269589
1.5543,0.4399,39.6000,70,99,269592
1.5591,0.4399,39.6000,70,99,269596
1.5738,0.4497,39.5400,70,99,269599
1.5738,0.4448,39.6000,70,99,269602
1.6227,0.4497,39.4400,70,99,269605
1.5982,0.4399,38.7100,70,99,269609
1.6080,0.4497,39.6000,70,99,269613
1.6325,0.4545,39.5100,70,99,269616
1.6178,0.4448,39.6700,70,99,269620
1.6716,0.4448,39.3500,70,99,269623
1.6520,0.4692,39.5700,70,99,269626
1.6667,0.4399,39.6000,70,99,269630
1.6764,0.4448,39.7000,70,99,269633
1.6618,0.4350,39.6000,70,99,269636
1.7253,0.4594,39.3200,70,99,269640
1.7107,0.4839,39.4800,70,99,269643
1.7204,0.4399,39.5700,70,99,269646
1.7351,0.4350,39.5700,70,99,269649
1.7400,0.4399,39.6000,70,99,269654
1.7986,0.4545,39.4100,70,99,269657
1.7693,0.4448,39.5400,70,99,269660
1.7986,0.4448,39.4800,70,99,269664
1.8035,0.4497,39.6400,70,99,269667
1.8377,0.4350,39.6000,70,99,269670
1.8524,0.4545,39.4400,70,99,269674
1.8377,0.4448,39.5700,70,99,269677
1.8719,0.4497,39.4800,70,99,269680
1.8475,0.4448,39.6000,70,99,269684
1.8671,0.4399,39.6000,70,99,269687
1.8866,0.4448,39.5100,70,99,269690
1.8768,0.4448,39.6000,70,99,269693
1.9110,0.4448,39.4800,70,99,269698
1.8817,0.4497,39.6000,70,99,269701
1.9062,0.4399,39.7000,70,99,269704
1.9355,0.4497,39.5100,70,99,269708
1.9208,0.4399,39.5700,70,99,269711
1.9110,0.4448,39.6000,70,99,269715
1.9501,0.4643,39.5700,70,99,269718
1.8768,0.4448,39.5100,70,99,269721
1.8768,0.4399,39.5400,70,99,269725
1.8817,0.4594,39.6000,70,99,269728
1.8866,0.4350,39.6000,70,99,269731
1.9550,0.4594,39.3800,70,99,269735
1.9306,0.4497,39.5400,70,99,269739
1.9257,0.4448,39.5100,70,99,269742
1.9062,0.4594,39.6400,70,99,269745
1.9159,0.4399,39.6000,70,99,269749
1.9599,0.4545,39.5100,70,99,269752
1.9453,0.4448,39.5700,70,99,269755
1.9697,0.4497,38.6200,70,99,269759
1.9550,0.4350,39.6000,70,99,269762
1.9404,0.4399,39.6000,70,99,269765
1.9697,0.4497,39.4800,70,99,269769
1.9404,0.4399,39.5700,70,99,269772
1.9795,0.4497,39.4100,70,99,269775
1.9453,0.4399,39.5100,70,99,269779
1.9404,0.4399,39.5700,70,99,269783
1.9550,0.4448,39.5400,70,99,269786
1.9453,0.4399,39.5700,70,99,269790
1.9941,0.4497,39.3500,70,99,269793
1.9599,0.4497,39.5400,70,99,269796
1.9501,0.4448,39.7000,70,99,269799
1.9599,0.4448,39.5400,70,99,269803
1.9355,0.4399,39.6000,70,99,269806
1.9941,0.4594,39.3200,70,99,269809
1.9550,0.4448,39.5100,70,99,269813
1.9599,0.4399,39.6400,70,99,269816
1.9550,0.4448,39.6400,70,99,269819
1.9404,0.4643,39.6000,70,99,269824
2.0088,0.4643,39.3800,70,99,269827
1.9599,0.4448,39.5400,70,99,269830
1.9697,0.4448,39.5400,70,99,269833
1.9599,0.4448,39.6400,70,99,269837
1.9550,0.4399,39.7000,70,99,269840
1.9941,0.4545,39.4400,70,99,269843
1.9550,0.4448,39.5700,70,99,269847
2.0088,0.4497,39.4800,70,99,269850
1.9746,0.4448,39.6000,70,99,269853
1.9795,0.4399,39.6400,70,99,269857
2.0088,0.4545,39.4800,70,99,269860
1.9746,0.4448,39.6000,70,99,269863
2.0039,0.4545,39.4400,70,99,269868
1.9990,0.4350,39.7000,70,99,269871
1.9844,0.4399,39.5700,70,99,269874
1.9990,0.4692,39.5100,70,99,269877
1.9990,0.4448,39.5700,70,99,269881
2.0039,0.4448,39.4100,70,99,269884
1.9746,0.4399,39.5700,70,99,269887
1.9941,0.4399,39.6000,70,99,269891
2.0137,0.4594,39.4100,70,99,269894
1.9990,0.4252,39.6400,70,99,269897
2.0430,0.4545,38.8400,70,99,269901
2.0088,0.4839,39.5700,70,99,269904
2.0235,0.4350,39.6000,70,99,269907
2.0283,0.4448,39.8300,70,99,269912
2.0381,0.4448,39.7000,70,99,269915
2.1163,0.4594,39.2800,70,99,269918
2.0772,0.4448,39.5100,70,99,269921
2.0870,0.4448,39.5700,70,99,269925
2.1114,0.4448,39.6000,70,99,269928
2.1212,0.4399,39.6700,70,99,269931
2.1994,0.4545,39.4100,70,99,269935
2.1505,0.4545,39.5400,70,99,269938
2.1457,0.4643,39.5100,70,99,269941
2.1310,0.4497,39.5700,70,99,269945
2.1359,0.4399,39.6000,70,99,269948
2.1799,0.4545,39.5100,70,99,269952
2.1505,0.4448,39.6000,70,99,269955
2.1603,0.4741,39.5100,70,99,269959
2.1163,0.4399,39.6000,70,99,269962
2.1114,0.4399,39.6000,70,99,269965
2.1359,0.4448,39.4400,70,99,269969
2.0870,0.4399,39.5400,70,99,269972
2.1017,0.4545,39.4800,70,99,269975
2.0381,0.4350,39.5400,70,99,269979
2.0088,0.4399,39.6000,70,99,269982
1.9990,0.4594,39.5100,70,99,269985
1.9648,0.4497,39.5700,70,99,269989
1.9892,0.4497,39.5100,70,99,269992
1.9453,0.4350,39.5700,70,99,269996
1.9453,0.4399,39.7000,70,99,269999
1.9599,0.4497,39.5700,70,99,270003
1.9404,0.4252,39.6000,70,99,270006
1.9892,0.4545,39.4400,70,99,270009
1.9550,0.4350,39.5700,70,99,270013
1.9648,0.4399,39.6400,70,99,270016
1.9599,0.4448,39.5400,70,99,270019
1.9453,0.4399,39.7000,70,99,270023
2.0039,0.4888,39.3200,70,99,270026
1.9550,0.4497,39.5400,70,99,270029
1.9648,0.4350,39.5700,70,99,270032
1.9648,0.4741,39.5700,70,99,270036
1.9648,0.4399,39.6000,70,99,270040
2.0088,0.4545,39.4100,70,99,270043
1.9599,0.4545,39.5700,70,99,270047
1.9746,0.4252,39.5400,70,99,270050
1.9648,0.4692,39.5700,70,99,270053
1.9648,0.4350,39.5700,70,99,270057
1.9990,0.4545,39.5100,70,99,270060
1.9697,0.4448,39.5700,70,99,270063
1.9941,0.4448,39.4800,70,99,270067
1.9648,0.4399,39.5100,70,99,270070
1.9795,0.4399,39.6000,70,99,270073
1.9941,0.4399,39.4400,70,99,270076
1.9697,0.4399,39.6000,70,99,270081
1.9844,0.4448,39.4800,70,99,270084
1.9110,0.4350,39.6400,70,99,270087
1.8915,0.4399,39.6000,70,99,270091
1.9062,0.4497,39.5100,70,99,270094
1.9355,0.4399,39.6000,70,99,270097
2.1457,0.4545,39.3800,70,99,270101
2.4389,0.4497,39.5100,70,99,270104
2.8690,0.4399,39.6000,70,99,270107
3.4262,0.4497,39.5700,70,99,270111
3.9492,0.4399,39.6000,70,99,270114
4.4917,0.4545,39.3200,70,99,270117
4.4917,0.4448,39.5100,70,99,270121
4.1740,0.4399,39.6000,70,99,270125
3.6217,0.4399,39.5700,70,99,270128
2.9619,0.4399,39.5700,70,99,270131
2.4731,0.4643,39.3200,70,99,270135
1.9941,0.4497,39.5100,70,99,270138
1.7009,0.4399,39.5700,70,99,270141
1.5249,0.4497,39.6000,70,99,270145
1.4418,0.4399,38.8400,70,99,270148
1.4663,0.4594,39.4800,70,99,270151
1.4663,0.4448,39.5700,70,99,270155
1.5152,0.4692,39.4800,70,99,270158
1.5249,0.4399,39.5700,70,99,270161
1.5591,0.4350,39.5700,70,99,270166
1.6178,0.4545,39.5100,70,99,270169
1.6129,0.4448,39.5700,70,99,270172
1.6716,0.4545,39.4800,70,99,270175
1.6520,0.4448,39.5700,70,99,270179
1.6667,0.4399,39.6000,70,99,270182
1.6960,0.4545,39.5100,70,99,270185
1.7009,0.4350,39.6000,70,99,270189
1.7498,0.4497,39.4400,70,99,270192
1.7351,0.4497,39.4800,70,99,270195
1.7498,0.4399,39.6000,70,99,270199
1.7693,0.4497,39.4800,70,99,270202
1.7498,0.4399,39.6400,70,99,270205
1.8182,0.4545,39.3200,70,99,270210
1.7937,0.4399,39.5400,70,99,270213
1.8133,0.4399,39.6400,70,99,270216
1.8231,0.4448,39.5700,70,99,270220
1.8182,0.4399,39.6000,70,99,270223
1.8866,0.4643,39.3500,70,99,270226
1.8573,0.4448,39.5400,70,99,270229
1.8719,0.4399,39.5700,70,99,270233
1.8817,0.4399,39.6700,70,99,270236
1.8915,0.4497,39.5700,70,99,270239
1.9355,0.4545,39.4100,70,99,270243
1.9306,0.4448,39.5700,70,99,270246
1.9306,0.4448,39.4800,70,99,270249
1.9257,0.4497,39.5700,70,99,270254
1.9355,0.4399,39.6400,70,99,270257
1.9648,0.4545,39.4400,70,99,270260
1.9306,0.4448,39.6000,70,99,270264
1.9697,0.4545,39.4100,70,99,270267
1.9404,0.4448,39.5700,70,99,270270
1.9697,0.4399,39.6700,70,99,270274
1.9844,0.4399,39.4800,70,99,270277
1.9697,0.4399,39.6000,70,99,270280
2.0039,0.4448,39.4100,70,99,270283
1.9746,0.4252,39.6400,70,99,270287
1.9990,0.4399,39.5700,70,99,270290
2.0283,0.4497,39.5400,70,99,270294
2.0186,0.4399,39.6700,70,99,270298
2.0674,0.4545,39.3500,70,99,270301
2.0381,0.4252,39.5400,70,99,270304
2.0381,0.4399,39.7300,70,99,270308
2.0674,0.4448,39.5700,70,99,270311
2.0821,0.4399,39.6400,70,99,270314
2.1554,0.4594,39.2800,70,99,270318
2.2434,0.4790,39.4400,70,99,270321
2.2239,0.4448,39.5700,70,99,270325
2.2336,0.4448,39.5100,70,99,270328
2.2043,0.4399,39.6000,70,99,270331
2.2385,0.4399,39.7700,70,99,270334
2.2972,0.4399,39.5700,70,99,270339
2.3167,0.4448,39.6000,70,99,270342
2.3900,0.4545,39.4800,70,99,270345
2.3949,0.4350,39.6000,70,99,270349
2.4096,0.4399,39.6000,70,99,270352
2.4682,0.4497,39.5400,70,99,270355
2.4682,0.4399,39.6000,70,99,270359
2.5269,0.4448,39.4400,70,99,270362
2.5073,0.4497,39.5100,70,99,270365
2.5073,0.4399,39.6000,70,99,270369
2.5171,0.4741,39.5100,70,99,270372
2.4878,0.4399,39.6000,70,99,270375
2.5269,0.4545,39.1900,70,99,270379
2.4438,0.4448,39.5400,70,99,270383
2.3754,0.4399,39.6000,70,99,270386
2.3216,0.4545,39.5400,70,99,270389
2.2532,0.4350,39.6000,70,99,270393
2.2336,0.4594,39.3200,70,99,270396
2.1212,0.4497,39.4800,70,99,270399
2.0577,0.4350,39.7000,70,99,270403
1.9844,0.4497,39.6400,70,99,270406
1.9159,0.4399,39.6000,70,99,270409
1.9110,0.4594,39.4400,70,99,270413
1.8719,0.4497,39.5400,70,99,270416
1.8084,0.4448,39.5100,70,99,270419
1.7644,0.4497,39.6000,70,99,270423
1.7351,0.4399,39.6000,70,99,270427
1.7400,0.4545,39.5100,70,99,270430
1.6911,0.4448,39.5700,70,99,270433
1.7107,0.4448,39.4400,70,99,270437
1.6911,0.4399,39.6000,70,99,270440
1.7009,0.4399,39.6700,70,99,270443
1.7253,0.4497,39.4800,70,99,270447
1.7058,0.4399,39.6400,70,99,270450
1.7400,0.4448,39.4400,70,99,270453
1.7204,0.4350,39.5700,70,99,270457
1.7302,0.4399,39.6000,70,99,270460
1.7498,0.4497,39.4800,70,99,270464
1.7400,0.4448,39.6000,70,99,270467
1.7742,0.4497,39.4100,70,99,270471
1.7546,0.4252,39.6400,70,99,270474
1.7791,0.4399,39.7300,70,99,270477
1.8084,0.4497,39.5100,70,99,270481
1.7889,0.4399,39.5700,70,99,270484
1.8377,0.4545,39.4400,70,99,270487
1.8035,0.4448,39.5100,70,99,270491
1.7937,0.4399,39.6000,70,99,270494
1.8084,0.4448,39.5700,70,99,270497
1.8182,0.4399,39.5700,70,99,270501
1.8768,0.4448,39.3500,70,99,270504
1.8182,0.4545,39.6700,70,99,270508
1.8182,0.4448,39.5400,70,99,270511
1.8231,0.4399,39.6400,70,99,270515
1.8377,0.4350,39.6400,70,99,270518
1.8915,0.4497,39.4400,70,99,270521
1.8719,0.4448,39.5700,70,99,270525
1.8866,0.4448,39.4800,70,99,270528
1.8524,0.4643,39.6400,70,99,270531
1.8622,0.4399,39.6000,70,99,270535
1.8915,0.4448,39.5700,70,99,270538
1.8866,0.4252,39.6000,70,99,270541
1.9208,0.4497,39.5100,70,99,270545
1.9208,0.4399,39.6000,70,99,270548
1.8964,0.4399,39.6000,70,99,270552
1.9257,0.4741,39.5700,70,99,270556
1.9062,0.4399,39.6000,70,99,270559
1.9453,0.4497,39.4100,70,99,270562
1.9257,0.4497,39.5100,70,99,270565
1.9208,0.4399,39.4800,70,99,270569
1.9404,0.4448,39.5400,70,99,270572
1.9257,0.4399,39.7000,70,99,270575
1.9795,0.4594,39.3800,70,99,270579
1.9453,0.4448,39.5400,70,99,270582
1.9404,0.4399,39.6000,70,99,270585
1.9501,0.4448,39.5700,70,99,270589
1.9355,0.4399,39.5700,70,99,270593
2.0039,0.4643,39.3200,70,99,270596
1.9697,0.4448,39.4400,70,99,270600
1.9697,0.4497,39.5400,70,99,270603
1.9648,0.4399,39.5700,70,99,270606
1.9501,0.4350,39.6400,70,99,270609
1.9990,0.4545,39.4400,70,99,270613
1.9648,0.4448,39.8000,70,99,270616
1.9746,0.4399,39.5100,70,99,270619
1.9599,0.4399,39.5700,70,99,270623
1.9599,0.4545,39.5700,70,99,270626
1.9941,0.4497,39.4100,70,99,270629
1.9501,0.4448,39.5700,70,99,270633
1.9844,0.4448,39.4800,70,99,270637
1.9648,0.4399,39.6400,70,99,270640
1.9648,0.4399,39.6000,70,99,270644
1.9795,0.4399,39.4800,70,99,270647
1.9550,0.4399,39.5700,70,99,270650
1.9795,0.4448,39.7700,70,99,270654
1.9746,0.4350,39.5400,70,99,270657
1.9599,0.4399,39.6000,70,99,270660
1.9795,0.4448,39.5700,70,99,270663
1.9550,0.4252,39.5700,70,99,270667
1.9844,0.4497,39.1600,70,99,270670
1.9404,0.4350,39.5700,70,99,270673
1.9648,0.4399,39.6000,70,99,270678
1.9697,0.4497,39.5700,70,99,270681
1.9501,0.4399,39.6400,70,99,270684
2.0039,0.4545,39.3200,70,99,270688
1.9599,0.4448,39.5100,70,99,270691
1.9453,0.4350,39.5700,70,99,270694
1.9550,0.4399,39.6400,70,99,270698
1.9599,0.4399,39.6700,70,99,270701
2.0381,0.4643,39.4400,70,99,270704
1.9550,0.4448,39.6000,70,99,270707
1.9599,0.4741,39.5400,70,99,270711
1.9550,0.4252,39.5700,70,99,270714
1.9599,0.4399,39.6400,70,99,270717
2.0088,0.4594,39.5100,70,99,270722
1.9795,0.4448,39.6400,70,99,270725
1.9892,0.4448,39.4400,70,99,270728
1.9501,0.4399,39.6400,70,99,270732
1.9599,0.4350,39.5700,70,99,270735
1.9844,0.4399,39.6000,70,99,270738
1.9746,0.4643,39.6000,70,99,270742
2.0039,0.4448,39.4800,70,99,270745
1.9501,0.4448,39.5700,70,99,270748
1.9501,0.4350,39.7000,70,99,270751
1.9746,0.4497,39.4800,70,99,270755
1.9453,0.4350,39.6000,70,99,270758
1.9941,0.4497,39.3800,70,99,270761
1.9648,0.4448,39.4800,70,99,270766
1.9550,0.4350,39.6000,70,99,270769
1.9648,0.4448,39.5400,70,99,270772
1.9599,0.4399,39.6000,70,99,270776
2.0235,0.4594,39.3500,70,99,270779
1.9844,0.4448,39.4800,70,99,270782
1.9892,0.4399,39.6000,70,99,270786
1.9697,0.4448,39.5700,70,99,270789
1.9550,0.4399,39.4800,70,99,270792
2.0137,0.4643,39.3500,70,99,270795
1.9746,0.4448,39.5100,70,99,270799
1.9746,0.4448,39.5700,70,99,270802
1.9599,0.4399,39.5700,70,99,270806
1.9501,0.4399,39.6000,70,99,270810
1.9990,0.4545,39.4800,70,99,270813
1.9697,0.4448,39.5400,70,99,270816
2.0332,0.4545,39.4800,70,99,270820
1.9892,0.4399,39.5400,70,99,270823
1.9990,0.4350,39.6400,70,99,270826
2.0381,0.4497,39.4100,70,99,270830
2.0332,0.4350,39.6000,70,99,270833
2.0430,0.4252,39.4400,70,99,270836
2.0235,0.4399,39.6400,70,99,270839
2.0332,0.4399,39.6000,70,99,270843
2.0626,0.4497,39.5400,70,99,270846
2.0332,0.4399,39.5400,70,99,270850
2.0626,0.4545,39.4800,70,99,270854
2.0332,0.4399,39.5400,70,99,270857
2.0381,0.4399,38.9600,70,99,270860
2.0528,0.4497,39.4400,70,99,270864
2.0235,0.4448,39.5700,70,99,270867
2.0528,0.4497,39.3800,70,99,270870
1.9941,0.4350,39.6000,70,99,270873
1.9892,0.4399,39.6000,70,99,270877
1.9746,0.4448,39.5400,70,99,270880
1.9355,0.4399,39.6000,70,99,270883
1.9599,0.4545,39.3800,70,99,270887
1.9013,0.4545,39.4800,70,99,270891
1.8915,0.4399,39.6000,70,99,270894
1.8915,0.4399,39.5400,70,99,270898
1.8964,0.4350,39.6000,70,99,270901
1.9453,0.4643,39.3500,70,99,270904
1.8866,0.4448,39.5100,70,99,270908
1.8719,0.4399,39.5400,70,99,270911
1.8671,0.4399,39.5700,70,99,270914
1.8768,0.4399,39.5700,70,99,270917
1.9257,0.4497,39.5100,70,99,270921
1.9208,0.4448,39.5400,70,99,270924
1.9062,0.4448,39.4800,70,99,270927
1.8768,0.4399,39.6000,70,99,270931
1.8719,0.4350,39.5700,70,99,270935
1.8622,0.4399,39.6000,70,99,270939
1.8719,0.4448,39.7300,70,99,270942
1.8475,0.4399,39.5700,70,99,270945
1.8866,0.4497,39.4100,70,99,270949
1.8866,0.4350,39.4800,70,99,270952
1.8573,0.4399,39.6400,70,99,270955
1.8915,0.4448,39.5400,70,99,270959
1.8768,0.4399,39.6000,70,99,270962
1.9501,0.4545,39.2500,70,99,270965
1.9110,0.4448,39.5700,70,99,270969
1.8817,0.4350,39.7300,70,99,270972
1.8426,0.4399,39.5700,70,99,270976
1.8035,0.4399,39.6400,70,99,270979
1.8573,0.4643,39.4100,70,99,270983
1.8817,0.4448,39.5100,70,99,270986
2.0528,0.4399,39.5400,70,99,270989
2.3656,0.4350,39.5700,70,99,270993
2.7908,0.4399,39.6400,70,99,270996
3.3871,0.4545,39.4800,70,99,270999
3.9052,0.4399,39.5700,70,99,271003
4.4037,0.4448,39.5100,70,99,271006
4.4721,0.4399,39.6000,70,99,271009
4.2082,0.4399,39.7700,70,99,271013
3.7048,0.4399,39.4400,70,99,271016
2.9814,0.4399,39.6400,70,99,271020
2.4487,0.4497,39.5100,70,99,271023
1.9795,0.4350,39.6000,70,99,271027
1.6862,0.4399,39.7000,70,99,271030
1.5152,0.4448,39.5100,70,99,271033
1.4076,0.4399,39.5100,70,99,271037
1.3930,0.4497,39.4100,70,99,271040
1.3881,0.4399,39.5100,70,99,271043
1.4223,0.4741,39.6000,70,99,271047
1.4712,0.4497,39.5100,70,99,271050
1.4761,0.4399,39.7000,70,99,271053
1.5445,0.4448,39.3500,70,99,271057
1.5200,0.4399,39.5400,70,99,271060
1.5591,0.4350,39.5700,70,99,271064
1.5885,0.4448,39.5700,70,99,271067
1.5982,0.4399,39.5700,70,99,271071
1.6618,0.4643,39.3800,70,99,271074
1.6325,0.4301,39.5100,70,99,271077
1.6422,0.4350,39.5400,70,99,271081
1.6520,0.4594,39.5700,70,99,271084
1.6716,0.4399,39.6000,70,99,271087
1.7204,0.4545,39.4100,70,99,271091
1.6911,0.4252,39.5400,70,99,271094
1.7204,0.4448,39.4100,70,99,271097
1.7204,0.4399,39.5700,70,99,271101
1.7449,0.4399,39.5700,70,99,271105
1.7840,0.4545,39.4400,70,99,271108
1.7742,0.4448,39.5400,70,99,271111
1.7986,0.4497,39.5100,70,99,271115
1.7644,0.4643,39.6000,70,99,271118
1.7840,0.4399,39.6000,70,99,271121
1.8084,0.4448,39.4800,70,99,271125
1.8133,0.4399,39.6000,70,99,271128
1.8475,0.4448,39.4400,70,99,271131
1.8182,0.4399,39.5700,70,99,271135
1.8328,0.4399,39.6700,70,99,271138
1.8524,0.4497,39.5100,70,99,271141
1.8524,0.4399,39.5700,70,99,271145
1.9257,0.4594,39.3800,70,99,271149
1.8817,0.4448,39.3800,70,99,271152
1.8768,0.4399,39.5700,70,99,271156
1.8866,0.4448,39.6700,70,99,271159
1.8964,0.4399,39.5700,70,99,271162
1.9697,0.4594,39.3200,70,99,271165
1.9453,0.4448,39.5100,70,99,271169
1.9404,0.4350,39.6000,70,99,271172
1.9404,0.4350,39.5700,70,99,271175
1.9355,0.4399,39.6000,70,99,271179
2.0039,0.4594,39.4400,70,99,271182
1.9844,0.4594,39.5400,70,99,271185
1.9990,0.4252,39.5100,70,99,271190
1.9892,0.4399,39.5400,70,99,271193
1.9990,0.4399,39.5700,70,99,271196
2.0430,0.4545,39.5700,70,99,271200
2.0332,0.4350,39.5700,70,99,271203
2.0821,0.4448,39.4400,70,99,271206
2.0674,0.4448,39.5700,70,99,271209
2.0919,0.4399,39.6000,70,99,271213
2.1408,0.4545,39.5700,70,99,271216
2.1261,0.4399,39.6000,70,99,271219
2.1945,0.4448,39.4800,70,99,271223
2.1896,0.4350,39.5400,70,99,271226
2.2239,0.4350,39.5700,70,99,271229
2.2678,0.4448,39.5100,70,99,271234
2.3069,0.4399,39.5700,70,99,271237
2.3509,0.4497,39.4100,70,99,271240
2.3460,0.4399,39.5100,70,99,271244
2.3851,0.4350,39.5700,70,99,271247
2.4389,0.4497,39.2800,70,99,271250
2.4340,0.4448,39.6400,70,99,271253
2.5269,0.4448,39.3500,70,99,271257
2.4731,0.4399,39.5400,70,99,271260
2.5024,0.4399,39.6000,70,99,271263
2.5171,0.4448,39.7300,70,99,271267
2.5122,0.4399,39.5700,70,99,271270
2.5855,0.4643,39.3800,70,99,271273
2.5024,0.4448,39.5400,70,99,271278
2.4633,0.4399,39.5400,70,99,271281
2.4194,0.4399,39.6700,70,99,271284
2.3656,0.4399,39.6000,70,99,271288
2.3460,0.4545,39.4400,70,99,271291
2.2190,0.4692,39.6000,70,99,271294
2.1603,0.4497,39.4800,70,99,271297
2.0674,0.4399,39.5700,70,99,271301
2.0088,0.4399,39.6000,70,99,271304
2.0039,0.4545,39.4400,70,99,271307
1.8964,0.4252,39.5700,70,99,271311
1.8622,0.4448,39.4400,70,99,271314
1.7791,0.4350,39.6000,70,99,271318
1.7400,0.4448,39.6400,70,99,271322
1.7302,0.4399,39.5100,70,99,271325
1.6960,0.4399,39.6700,70,99,271328
1.7009,0.4448,39.4400,70,99,271331
1.6520,0.4399,39.6000,70,99,271335
1.6471,0.4399,39.5400,70,99,271338
1.6618,0.4448,39.4800,70,99,271341
1.6373,0.4399,39.5700,70,99,271345
1.6813,0.4497,39.3800,70,99,271348
1.6569,0.4448,39.8300,70,99,271351
1.6520,0.4301,39.6000,70,99,271355
1.6618,0.4448,39.7700,70,99,271358
1.6618,0.4497,39.6000,70,99,271362
1.7253,0.4545,39.2800,70,99,271366
1.7009,0.4448,39.5100,70,99,271369
1.7009,0.4252,39.6000,70,99,271372
1.7058,0.4448,39.5700,70,99,271376
1.7058,0.4399,39.5700,70,99,271379
1.7693,0.4643,39.4100,70,99,271382
1.7400,0.4594,39.5100,70,99,271385
1.7595,0.4350,39.5100,70,99,271389
1.7449,0.4399,39.7000,70,99,271392
1.7498,0.4350,39.6000,70,99,271395
1.7840,0.4545,39.4800,70,99,271399
1.7693,0.4350,39.5700,70,99,271403
1.8328,0.4350,39.4800,70,99,271406
1.7937,0.4399,39.6400,70,99,271410
1.7937,0.4350,39.6000,70,99,271413
1.8328,0.4545,39.4800,70,99,271416
1.8084,0.4399,39.6000,70,99,271420
1.8475,0.4497,39.5100,70,99,271423
1.8280,0.4350,39.5700,70,99,271426
1.8328,0.4350,39.6000,70,99,271429
1.8573,0.4594,39.5100,70,99,271433
1.8475,0.4350,39.5700,70,99,271436
1.8768,0.4448,38.6200,70,99,271439
1.8524,0.4350,39.5100,70,99,271443
1.8622,0.4399,39.5700,70,99,271447
1.8817,0.4643,39.4800,70,99,271450
1.8622,0.4399,39.5700,70,99,271454
1.9062,0.4545,39.2800,70,99,271457
1.8524,0.4350,39.5100,70,99,271460
1.8768,0.4692,39.5700,70,99,271464
1.8915,0.4448,39.5700,70,99,271467
1.8768,0.4399,39.5700,70,99,271470
1.9306,0.4643,39.3500,70,99,271473
1.8768,0.4448,39.5100,70,99,271477
1.8768,0.4350,39.5400,70,99,271480
1.8817,0.4399,39.5700,70,99,271483
1.8964,0.4399,39.6400,70,99,271488
1.9501,0.4448,39.4400,70,99,271491
1.8964,0.4643,39.5700,70,99,271494
1.9062,0.4448,39.4800,70,99,271498
1.8817,0.4399,39.6000,70,99,271501
1.8915,0.4448,39.5700,70,99,271504
1.9306,0.4497,39.4400,70,99,271508
1.9110,0.4399,39.5400,70,99,271511
1.9306,0.4497,39.4400,70,99,271514
1.8817,0.4399,39.6000,70,99,271517
1.8915,0.4350,39.5700,70,99,271521
1.9062,0.4448,39.5100,70,99,271524
1.9013,0.4399,39.5400,70,99,271527
1.9257,0.4497,39.4100,70,99,271532
1.8866,0.4399,39.5700,70,99,271535
1.8915,0.4399,39.7000,70,99,271538
1.9110,0.4448,39.5100,70,99,271542
1.8768,0.4399,39.5700,70,99,271545
1.8719,0.4692,39.5700,70,99,271549
1.9208,0.4643,39.3500,70,99,271552
1.8622,0.4448,39.5100,70,99,271555
1.8524,0.4399,39.5400,70,99,271559
1.8377,0.4399,38.7700,70,99,271562
1.8328,0.4643,39.6400,70,99,271565
1.8768,0.4497,39.4400,70,99,271569
1.8622,0.4399,39.5400,70,99,271572
1.8817,0.4448,39.4800,70,99,271576
1.8622,0.4399,39.5700,70,99,271579
1.8671,0.4399,39.7000,70,99,271583
1.8866,0.4448,39.5700,70,99,271586
1.8817,0.4399,39.6000,70,99,271589
1.9306,0.4497,39.5400,70,99,271593
1.9257,0.4350,39.5700,70,99,271596
1.9159,0.4399,39.6000,70,99,271599
1.9306,0.4594,39.4400,70,99,271603
1.9013,0.4399,39.6000,70,99,271606
1.9404,0.4448,39.3800,70,99,271609
1.9208,0.4350,39.5100,70,99,271613
1.9257,0.4399,39.6000,70,99,271617
1.9306,0.4497,39.5400,70,99,271620
1.9062,0.4399,39.5700,70,99,271623
1.9599,0.4497,39.2800,70,99,271627
1.9501,0.4448,39.5100,70,99,271630
1.9697,0.4399,39.7000,70,99,271633
2.0039,0.4448,39.5100,70,99,271637
1.9990,0.4399,39.5700,70,99,271640
2.0626,0.4545,39.3200,70,99,271643
2.0332,0.4350,39.4800,70,99,271647
2.0283,0.4350,39.5700,70,99,271650
2.0332,0.4448,39.6400,70,99,271653
2.0381,0.4399,39.6000,70,99,271657
2.0968,0.4594,39.3200,70,99,271661
2.0479,0.4643,39.5100,70,99,271664
2.0528,0.4350,39.5100,70,99,271667
2.0332,0.4399,39.5400,70,99,271671
2.0430,0.4448,39.5700,70,99,271674
2.0821,0.4448,39.4100,70,99,271677
2.0186,0.4399,39.6400,70,99,271681
2.0577,0.4497,39.4400,70,99,271684
1.9746,0.4399,39.6400,70,99,271687
1.9648,0.4448,39.5700,70,99,271691
1.9795,0.4545,39.6400,70,99,271694
1.9257,0.4497,39.5700,70,99,271697
1.9306,0.4448,39.4800,70,99,271702
1.8622,0.4350,39.5400,70,99,271705
1.8622,0.4399,39.5700,70,99,271708
1.8719,0.4399,39.5100,70,99,271711
1.8622,0.4350,39.5700,70,99,271715
1.8964,0.4497,39.3800,70,99,271718
1.8866,0.4399,39.6000,70,99,271721
1.8573,0.4350,39.5700,70,99,271725
1.8671,0.4448,39.5400,70,99,271728
1.8573,0.4399,39.5700,70,99,271731
1.9159,0.4692,39.3500,70,99,271735
1.8866,0.4252,39.5100,70,99,271738
1.8622,0.4399,39.7000,70,99,271741
1.8622,0.4448,39.5700,70,99,271746
1.8671,0.4399,38.9600,70,99,271749
1.9355,0.4545,39.4100,70,99,271752
1.8915,0.4448,39.6000,70,99,271756
1.8866,0.4399,39.5400,70,99,271759
1.8817,0.4399,39.5700,70,99,271762
1.8719,0.4399,39.4800,70,99,271765
1.9501,0.4448,39.4100,70,99,271769
1.9013,0.4448,39.4400,70,99,271772
1.9208,0.4497,39.4400,70,99,271775
1.8915,0.4399,39.5700,70,99,271779
1.8817,0.4399,39.5700,70,99,271782
1.9062,0.4448,39.5400,70,99,271785
1.8915,0.4399,39.6000,70,99,271790
1.9306,0.4497,39.4400,70,99,271793
1.8915,0.4399,39.4400,70,99,271796
1.8719,0.4350,39.5700,70,99,271800
1.8524,0.4497,39.5400,70,99,271803
1.7889,0.4350,39.5700,70,99,271806
1.8231,0.4448,39.4100,70,99,271809
1.8915,0.4545,39.4100,70,99,271813
2.0968,0.4350,39.6000,70,99,271816
2.4585,0.4497,39.5100,70,99,271819
2.9081,0.4399,39.5700,70,99,271823
3.5191,0.4497,39.3500,70,99,271826
3.9980,0.4350,39.5100,70,99,271830
4.3891,0.4399,39.6000,70,99,271834
4.4135,0.4448,39.6400,70,99,271837
4.0274,0.4350,39.5700,70,99,271840
3.5435,0.4448,39.2800,70,99,271843
2.7859,0.4399,39.5100,70,99,271847
2.2434,0.4350,39.5400,70,99,271850
1.8573,0.4399,39.5700,70,99,271853
1.6227,0.4350,39.5700,70,99,271857
1.4858,0.4594,39.4800,70,99,271860
1.3832,0.4399,39.5400,70,99,271863
1.3832,0.4399,39.4800,70,99,271867
1.3930,0.4399,39.5700,70,99,271870
1.4418,0.4252,39.5700,70,99,271874
1.5005,0.4545,39.4100,70,99,271878
1.4956,0.4399,39.5700,70,99,271881
1.5396,0.4448,39.4400,70,99,271884
1.5396,0.4350,39.6000,70,99,271888
1.5738,0.4350,39.6400,70,99,271891
1.6227,0.4448,39.4400,70,99,271894
1.6227,0.4399,39.6000,70,99,271897
1.6618,0.4399,39.4100,70,99,271901
1.6422,0.4350,39.5400,70,99,271904
1.6618,0.4399,39.6000,70,99,271907
1.7009,0.4448,39.4400,70,99,271911
1.7253,0.4350,39.6000,70,99,271915
1.7498,0.4497,39.4100,70,99,271918
1.7204,0.4350,39.6000,70,99,271922
1.7351,0.4350,39.6700,70,99,271925
1.7498,0.4399,39.5400,70,99,271928
1.7595,0.4399,39.5700,70,99,271932
1.8280,0.4790,39.3200,70,99,271935
1.8035,0.4448,39.5100,70,99,271938
1.7986,0.4350,39.6700,70,99,271941
1.8084,0.4399,39.5700,70,99,271945
1.8133,0.4399,39.6000,70,99,271948
1.8915,0.4888,39.3800,70,99,271951
1.8524,0.4448,39.4400,70,99,271955
1.8573,0.4497,39.5100,70,99,271959
1.8475,0.4399,39.6400,70,99,271962
1.8524,0.4399,39.5700,70,99,271966
1.8915,0.4497,39.4400,70,99,271969
1.8866,0.4448,39.5400,70,99,271972
1.9404,0.4448,39.4800,70,99,271976
1.8915,0.4399,39.6000,70,99,271979
1.8964,0.4399,39.5400,70,99,271982
1.9159,0.4399,39.5100,70,99,271985
1.9062,0.4448,39.5700,70,99,271989
1.9941,0.4497,39.4800,70,99,271992
1.9306,0.4448,39.5700,70,99,271995
1.9501,0.4399,39.5700,70,99,272000
1.9697,0.4448,39.4800,70,99,272003
1.9501,0.4399,39.5700,70,99,272006
1.9990,0.4448,39.3800,70,99,272010
2.0137,0.4448,39.4800,70,99,272013
2.0039,0.4350,39.6700,70,99,272016
2.0235,0.4497,39.5400,70,99,272020
2.0186,0.4399,39.6000,70,99,272023
2.0821,0.4545,39.3200,70,99,272026
2.0626,0.4448,39.5100,70,99,272030
2.0772,0.4399,39.6000,70,99,272033
2.1114,0.4448,39.5700,70,99,272036
2.1114,0.4399,39.4800,70,99,272039
2.1896,0.4594,39.3200,70,99,272044
2.1652,0.4399,39.6400,70,99,272047
2.2043,0.4350,39.5700,70,99,272050
2.2287,0.4399,39.6700,70,99,272054
2.2630,0.4350,39.6000,70,99,272057
2.3314,0.4545,39.4400,70,99,272060
2.3069,0.4448,39.5400,70,99,272064
2.3558,0.4448,39.4800,70,99,272067
2.3656,0.4399,39.5700,70,99,272070
2.4047,0.4350,39.5700,70,99,272073
2.4731,0.4448,39.4100,70,99,272077
2.4487,0.4350,39.5100,70,99,272080
2.4976,0.4497,39.3800,70,99,272083
2.4780,0.4399,39.5700,70,99,272088
2.5024,0.4399,39.5400,70,99,272091
2.5758,0.4497,39.4800,70,99,272094
2.5220,0.4399,39.7000,70,99,272098
2.5464,0.4448,39.4100,70,99,272101
2.4633,0.4301,39.5700,70,99,272104
2.4340,0.4350,39.7000,70,99,272108
2.4096,0.4643,39.5100,70,99,272111
2.3412,0.4350,39.5700,70,99,272114
2.3069,0.4448,39.4100,70,99,272117
2.1896,0.4497,39.7000,70,99,272121
2.1163,0.4399,39.6000,70,99,272124
2.0577,0.4545,39.6700,70,99,272128
1.9550,0.4350,39.6000,70,99,272132
1.9599,0.4252,39.3500,70,99,272135
1.8671,0.4545,39.5100,70,99,272138
1.7986,0.4350,39.6000,70,99,272142
1.7498,0.4497,39.5700,70,99,272145
1.7107,0.4399,39.6000,70,99,272148
1.7351,0.4643,39.3500,70,99,272151
1.6325,0.4545,39.5700,70,99,272155
1.6129,0.4399,39.5400,70,99,272159
1.6276,0.4448,39.4400,70,99,272162
1.5836,0.4399,39.6000,70,99,272165
1.5689,0.4350,39.6700,70,99,272168
1.5836,0.4399,39.5100,70,99,272173
1.5885,0.4399,39.5700,70,99,272176
1.6422,0.4399,39.4400,70,99,272179
1.6276,0.4399,39.7000,70,99,272183
1.6520,0.4545,39.8000,70,99,272186
1.6764,0.4497,39.4400,70,99,272189
1.6618,0.4399,39.5700,70,99,272193
1.7155,0.4497,39.3500,70,99,272196
1.7107,0.4399,39.4800,70,99,272199
1.7204,0.4399,39.6000,70,99,272203
1.7351,0.4448,39.5400,70,99,272206
1.7253,0.4399,39.6000,70,99,272209
1.7791,0.4545,39.3500,70,99,272212
1.7449,0.4497,39.5100,70,99,272217
1.7644,0.4252,39.5700,70,99,272220
1.7791,0.4448,39.5400,70,99,272223
1.7693,0.4350,39.5700,70,99,272227
1.8377,0.4594,39.4100,70,99,272230
1.8084,0.4448,39.5100,70,99,272233
1.8182,0.4399,39.5400,70,99,272237
1.8182,0.4301,39.5700,70,99,272240
1.8231,0.4399,39.6000,70,99,272243
1.8719,0.4497,39.5100,70,99,272247
1.8377,0.4448,39.5400,70,99,272250
1.8622,0.4448,39.8300,70,99,272253
1.8426,0.4399,39.6000,70,99,272258
1.8719,0.4350,39.5100,70,99,272261
1.9355,0.4497,39.4100,70,99,272264
1.8817,0.4399,39.8600,70,99,272267
1.9208,0.4497,39.4800,70,99,272271
1.9013,0.4350,39.5400,70,99,272274
1.9110,0.4350,39.6700,70,99,272277
1.9453,0.4448,39.2500,70,99,272281
1.9306,0.4399,39.6000,70,99,272284
1.9648,0.4448,39.3800,70,99,272287
1.9306,0.4399,39.5100,70,99,272291
1.9355,0.4350,39.5700,70,99,272294
1.9648,0.4497,39.5400,70,99,272297
1.9550,0.4399,39.5700,70,99,272302
2.0039,0.4545,39.3200,70,99,272305
1.9453,0.4399,39.5400,70,99,272308
1.9550,0.4350,39.7300,70,99,272311
1.9599,0.4497,39.6000,70,99,272315
1.9501,0.4350,39.6400,70,99,272318
2.0186,0.4692,39.3800,70,99,272321
1.9648,0.4399,39.4800,70,99,272325
1.9550,0.4350,40.0000,70,99,272328
1.9697,0.4399,39.5700,70,99,272331
1.9501,0.4399,39.6400,70,99,272335
2.0039,0.4497,39.4100,70,99,272338
1.9599,0.4252,39.5700,70,99,272342
1.9648,0.4399,39.5400,70,99,272346
1.9306,0.4497,39.5400,70,99,272349
1.9257,0.4399,39.6000,70,99,272352
1.9550,0.4497,39.4100,70,99,272355
1.9355,0.4350,39.6000,70,99,272359
1.9648,0.4448,39.4400,70,99,272362
1.9257,0.4741,39.6000,70,99,272365
1.9208,0.4350,39.5700,70,99,272369
1.9257,0.4399,39.4400,70,99,272372
1.9208,0.4399,39.5400,70,99,272375
1.9648,0.4399,39.4400,70,99,272379
1.9306,0.4399,39.5700,70,99,272382
1.9355,0.4350,39.5700,70,99,272386
1.9453,0.4448,39.3500,70,99,272390
1.9110,0.4399,39.5700,70,99,272393
1.9550,0.4497,38.5500,70,99,272396
1.9355,0.4301,39.5100,70,99,272399
1.9306,0.4350,39.6000,70,99,272403
1.9355,0.4399,39.5400,70,99,272406
1.9257,0.4350,39.5700,70,99,272409
1.9599,0.4545,39.3800,70,99,272413
1.9208,0.4350,39.5100,70,99,272416
1.9159,0.4350,39.5700,70,99,272419
1.9159,0.4399,39.5700,70,99,272423
1.9062,0.4350,39.5700,70,99,272427
1.9599,0.4594,39.4800,70,99,272430
1.9257,0.4448,39.4800,70,99,272434
1.9257,0.4350,39.5100,70,99,272437
1.9257,0.4399,39.5700,70,99,272440
1.9257,0.4350,39.8300,70,99,272443
1.9550,0.4545,39.5400,70,99,272447
1.9257,0.4350,39.5400,70,99,272450
1.9355,0.4448,39.4800,70,99,272453
1.9062,0.4252,39.6000,70,99,272457
1.9257,0.4350,39.6400,70,99,272460
1.9599,0.4545,39.4400,70,99,272463
1.9110,0.4399,39.7000,70,99,272467
1.9404,0.4790,39.5100,70,99,272471
1.9062,0.4252,39.5400,70,99,272474
1.9110,0.4350,39.6000,70,99,272478
1.9453,0.4545,39.4800,70,99,272481
1.9257,0.4399,39.5700,70,99,272484
1.9404,0.4448,39.5400,70,99,272487
1.9062,0.4399,39.5700,70,99,272491
1.8915,0.4350,39.5700,70,99,272494
1.9208,0.4497,39.5100,70,99,272497
1.9110,0.4399,39.6000,70,99,272501
1.9599,0.4497,39.3500,70,99,272504
1.9110,0.4203,39.5400,70,99,272507
1.9110,0.4252,39.6000,70,99,272512
1.9159,0.4448,39.4100,70,99,272515
1.9062,0.4350,39.5700,70,99,272518
1.9697,0.4545,39.2800,70,99,272522
1.9306,0.4399,39.5100,70,99,272525
1.9159,0.4252,39.5700,70,99,272528
1.9110,0.4350,39.5700,70,99,272531
1.9062,0.4399,39.5700,70,99,272535
1.9844,0.4545,39.4400,70,99,272538
1.9355,0.4448,39.5400,70,99,272541
1.9453,0.4399,39.4800,70,99,272545
1.9257,0.4350,39.5700,70,99,272548
1.9208,0.4350,39.6400,70,99,272551
1.9648,0.4497,39.4400,70,99,272556
1.9306,0.4399,39.5400,70,99,272559
1.9599,0.4448,39.4100,70,99,272562
1.9257,0.4399,39.5700,70,99,272566
1.9306,0.4888,39.6000,70,99,272569
1.9550,0.4252,39.4800,70,99,272572
1.9697,0.4399,39.6000,70,99,272575
2.0332,0.4399,39.4800,70,99,272579
2.0186,0.4399,39.5700,70,99,272582
2.0381,0.4350,39.6400,70,99,272585
2.0528,0.4497,39.4800,70,99,272589
2.0137,0.4399,39.6000,70,99,272592
2.0528,0.4399,39.3500,70,99,272595
2.0381,0.4399,39.4800,70,99,272600
2.0430,0.4350,39.5700,70,99,272603
2.0528,0.4545,39.5700,70,99,272606
2.0674,0.4399,39.5700,70,99,272609
2.0821,0.4545,39.3500,70,99,272613
2.0381,0.4448,39.5100,70,99,272616
2.0332,0.4350,39.6000,70,99,272619
2.0479,0.4448,39.5400,70,99,272623
2.0235,0.4350,39.6000,70,99,272626
2.0577,0.4643,39.3200,70,99,272629
1.9844,0.4448,39.4800,70,99,272633
1.9599,0.4301,39.5400,70,99,272636
1.9355,0.4252,39.5700,70,99,272640
1.9110,0.4301,39.5400,70,99,272644
1.9306,0.4545,39.4400,70,99,272647
1.8817,0.4448,39.4400,70,99,272650
1.8817,0.4350,39.4800,70,99,272653
1.8671,0.4399,39.5700,70,99,272657
1.8964,0.4448,39.5400,70,99,272660
1.9110,0.4497,39.4100,70,99,272663
1.8622,0.4497,39.5400,70,99,272667
1.8817,0.4448,39.4400,70,99,272670
1.8377,0.4545,39.6000,70,99,272673
1.8573,0.4350,39.5700,70,99,272677
1.8719,0.4594,39.5100,70,99,272680
1.8622,0.4399,39.5400,70,99,272684
1.8964,0.4399,39.4800,70,99,272688
1.8915,0.4350,39.5400,70,99,272691
1.8719,0.4350,39.5700,70,99,272694
1.8964,0.4448,39.4800,70,99,272697
1.8866,0.4350,39.5700,70,99,272701
1.9306,0.4497,39.4400,70,99,272704
1.8719,0.4301,39.5400,70,99,272707
1.8817,0.4350,39.6700,70,99,272711
1.8915,0.4497,39.5400,70,99,272714
1.8768,0.4350,39.5700,70,99,272717
1.9404,0.4545,39.2800,70,99,272721
1.9110,0.4497,39.5100,70,99,272724
1.8866,0.4301,39.5700,70,99,272728
1.9013,0.4350,39.5700,70,99,272732
1.8817,0.4350,39.5700,70,99,272735
1.9453,0.4594,39.4100,70,99,272738
1.8817,0.4448,39.5100,70,99,272742
1.8524,0.4448,39.5100,70,99,272745
1.8035,0.4252,39.5700,70,99,272748
1.7889,0.4350,39.7000,70,99,272751
1.9013,0.4448,39.4400,70,99,272755
2.0381,0.4399,39.4100,70,99,272758
2.3803,0.4790,39.5700,70,99,272761
2.7810,0.4399,39.6400,70,99,272765
4.1202,0.4350,39.6000,70,99,272769
3.5435,0.4350,39.5700,70,99,272773
2.9032,0.4643,39.4800,70,99,272776
2.2874,0.4399,39.6000,70,99,272779
1.9013,0.4497,39.3500,70,99,272783
1.5982,0.4448,39.4800,70,99,272786
1.4174,0.4350,39.7300,70,99,272789
1.3343,0.4252,39.5400,70,99,272793
1.3148,0.4350,39.6400,70,99,272796
1.3930,0.4594,39.3500,70,99,272799
1.3783,0.4399,39.4400,70,99,272802
1.4272,0.4350,39.5400,70,99,272806
1.4565,0.4399,39.5700,70,99,272809
1.4761,0.4350,39.6400,70,99,272813
1.5445,0.4643,39.4400,70,99,272817
1.5298,0.4448,39.5100,70,99,272820
1.5543,0.4448,39.4800,70,99,272823
1.5640,0.4399,39.5700,70,99,272827
1.5787,0.4350,39.6400,70,99,272830
1.6227,0.4497,39.4400,70,99,272833
1.6178,0.4448,39.7300,70,99,272837
1.6520,0.4448,39.4400,70,99,272840
1.6520,0.4350,39.6000,70,99,272843
1.6862,0.4399,39.7000,70,99,272846
1.7302,0.4448,39.4400,70,99,272850
1.7009,0.4545,39.5700,70,99,272854
1.7351,0.4350,39.4100,70,99,272857
1.7155,0.4350,39.5400,70,99,272861
1.7400,0.4399,39.5700,70,99,272864
1.7742,0.4448,39.4800,70,99,272867
1.7693,0.4399,39.6400,70,99,272871
1.8182,0.4497,39.3800,70,99,272874
1.7840,0.4399,39.4800,70,99,272877
1.8280,0.4350,39.6400,70,99,272881
1.8280,0.4448,39.6000,70,99,272884
1.8182,0.4350,39.6000,70,99,272887
1.8768,0.4497,39.3200,70,99,272890
1.8328,0.4350,39.5400,70,99,272894
1.8426,0.4252,39.5700,70,99,272898
1.8524,0.4399,39.6400,70,99,272901
1.8622,0.4350,39.5700,70,99,272905
1.9306,0.4643,39.3800,70,99,272908
1.8866,0.4448,39.5400,70,99,272911
1.9013,0.4399,39.5700,70,99,272915
1.8768,0.4399,39.5400,70,99,272918
1.8817,0.4448,39.5700,70,99,272921
1.9306,0.4497,39.4100,70,99,272925
1.9062,0.4399,39.6000,70,99,272928
1.9257,0.4252,39.4800,70,99,272931
1.9062,0.4399,39.4800,70,99,272934
1.9159,0.4399,39.5700,70,99,272939
1.9599,0.4448,39.4400,70,99,272942
1.9501,0.4448,39.5700,70,99,272945
1.9941,0.4252,39.5100,70,99,272949
1.9599,0.4399,39.6000,70,99,272952
1.9746,0.4252,39.6000,70,99,272955
1.9990,0.4399,39.4100,70,99,272959
2.0039,0.4301,39.5700,70,99,272962
2.0626,0.4399,39.4100,70,99,272965
2.0577,0.4399,39.6000,70,99,272969
2.1163,0.4399,39.6000,70,99,272972
2.1163,0.4448,39.5100,70,99,272975
2.1114,0.4350,39.5700,70,99,272978
2.1945,0.4497,39.3500,70,99,272983
2.2043,0.4448,39.4400,70,99,272986
2.2434,0.4399,39.5700,70,99,272989
2.2630,0.4545,39.5400,70,99,272993
2.2825,0.4399,39.6000,70,99,272996
2.3851,0.4545,39.3200,70,99,272999
2.3656,0.4399,39.5100,70,99,273003
2.3998,0.4350,39.5700,70,99,273006
2.4242,0.4399,39.6400,70,99,273009
2.4633,0.4399,39.5700,70,99,273013
2.5171,0.4594,39.5100,70,99,273016
2.4927,0.4497,39.5700,70,99,273019
2.5171,0.4399,39.5100,70,99,273022
2.5122,0.4692,39.5700,70,99,273027
2.5122,0.4350,39.6000,70,99,273030
2.5318,0.4448,39.5400,70,99,273033
2.4682,0.4448,39.5700,70,99,273037
2.4536,0.4448,39.4400,70,99,273040
2.3705,0.4350,39.5700,70,99,273043
2.3167,0.4350,39.6000,70,99,273047
2.2874,0.4497,39.5400,70,99,273050
2.1603,0.4399,39.6000,70,99,273053
2.1163,0.4399,39.4800,70,99,273057
2.0039,0.4594,39.5100,70,99,273060
1.9501,0.4350,39.5700,70,99,273063
1.8964,0.4448,39.4800,70,99,273067
1.8573,0.4350,39.5400,70,99,273071
1.8035,0.4448,39.3800,70,99,273074
1.7253,0.4350,39.4800,70,99,273077
1.6911,0.4350,39.5700,70,99,273081
1.6862,0.4448,39.5100,70,99,273084
1.6422,0.4252,39.6000,70,99,273087
1.6667,0.4497,39.4400,70,99,273091
1.6129,0.4350,39.4800,70,99,273094
1.6129,0.4350,39.5700,70,99,273097
1.6129,0.4448,39.5400,70,99,273101
1.6031,0.4594,39.5400,70,99,273104
1.6764,0.4545,39.3800,70,99,273107
1.6422,0.4545,38.9600,70,99,273112
1.6325,0.4399,39.5100,70,99,273115
1.6373,0.4448,39.5700,70,99,273118
1.6667,0.4350,39.5700,70,99,273121
1.7107,0.4497,39.4100,70,99,273125
1.6911,0.4252,39.5400,70,99,273128
1.7204,0.4448,39.5400,70,99,273131
1.6960,0.4399,39.5700,70,99,273135
1.7009,0.4350,39.6400,70,99,273138
1.7302,0.4545,39.5100,70,99,273141
1.7253,0.4350,39.5700,70,99,273145
1.7595,0.4497,39.5400,70,99,273148
1.7253,0.4692,39.5700,70,99,273152
1.7302,0.4252,39.6000,70,99,273156
1.7449,0.4399,39.6700,70,99,273159
1.7400,0.4448,39.5700,70,99,273162
1.7840,0.4448,39.4100,70,99,273165
1.7644,0.4448,39.5400,70,99,273169
1.7791,0.4350,39.5700,70,99,273172
1.7937,0.4545,39.5700,70,99,273175
1.7742,0.4350,39.5700,70,99,273179
1.8182,0.4497,39.3800,70,99,273182
1.8084,0.4497,39.4400,70,99,273185
1.8035,0.4350,39.5700,70,99,273189
1.8133,0.4497,39.6400,70,99,273192
1.8133,0.4350,39.5700,70,99,273196
1.8671,0.4594,39.2800,70,99,273200
1.8231,0.4399,39.4800,70,99,273203
1.8328,0.4350,39.5400,70,99,273206
1.8719,0.4350,39.5700,70,99,273210
1.8328,0.4350,39.6400,70,99,273213
1.8817,0.4545,39.4100,70,99,273216
1.8573,0.4448,39.5700,70,99,273219
1.8768,0.4545,39.4800,70,99,273223
1.8719,0.4399,39.5700,70,99,273226
1.8719,0.4399,39.5700,70,99,273229
1.9062,0.4448,39.5400,70,99,273233
1.8866,0.4399,39.5400,70,99,273236
1.9062,0.4545,39.4100,70,99,273240
1.8866,0.4350,39.6400,70,99,273244
1.9306,0.4252,39.5700,70,99,273247
1.9257,0.4497,39.5100,70,99,273250
1.8915,0.4252,39.5700,70,99,273254
1.9062,0.4399,39.4100,70,99,273257
1.8817,0.4399,39.5100,70,99,273260
1.8866,0.4350,39.5700,70,99,273263
1.9013,0.4448,39.5100,70,99,273267
1.8915,0.4350,39.6000,70,99,273270
1.9257,0.4448,39.3800,70,99,273273
1.8817,0.4448,39.5100,70,99,273277
1.8671,0.4350,39.7000,70,99,273281
1.8915,0.4448,39.5700,70,99,273284
1.8866,0.4350,39.6000,70,99,273288
1.9404,0.4545,39.3200,70,99,273291
1.8866,0.4448,39.5100,70,99,273294
1.8866,0.4350,39.5700,70,99,273298
1.8915,0.4399,39.6400,70,99,273301
1.8915,0.4350,39.5700,70,99,273304
1.9599,0.4594,39.3800,70,99,273307
1.9257,0.4497,39.5100,70,99,273311
1.9159,0.4350,39.4800,70,99,273314
1.9013,0.4350,39.5700,70,99,273317
1.9013,0.4350,39.5700,70,99,273321
1.9404,0.4497,39.4100,70,99,273325
1.9013,0.4399,39.5700,70,99,273328
1.9208,0.4399,39.4800,70,99,273332
1.9110,0.4399,39.5700,70,99,273335
1.8768,0.4350,39.5700,70,99,273338
1.8964,0.4497,39.4400,70,99,273342
1.8866,0.4399,39.5400,70,99,273345
1.9208,0.4448,39.4800,70,99,273348
1.8817,0.4350,39.5700,70,99,273351
1.8768,0.4350,39.5700,70,99,273355
1.8866,0.4399,39.4400,70,99,273358
1.8768,0.4399,39.5700,70,99,273361
1.9208,0.4448,39.6000,70,99,273366
1.9013,0.4399,39.6000,70,99,273369
1.9159,0.4350,39.5700,70,99,273372
1.9306,0.4643,39.5700,70,99,273376
1.9110,0.4350,39.5700,70,99,273380
1.8817,0.4399,39.5700,70,99,273384
1.9110,0.4594,39.4100,70,99,273387
1.8475,0.4448,39.5400,70,99,273390
1.8573,0.4350,39.4800,70,99,273394
1.8573,0.4399,39.5400,70,99,273397
1.8475,0.4350,39.6700,70,99,273400
1.8817,0.4497,39.4100,70,99,273404
1.8768,0.4399,39.6000,70,99,273408
1.9208,0.4448,39.4100,70,99,273411
1.9159,0.4399,39.6000,70,99,273414
1.9453,0.4350,39.6400,70,99,273418
1.9697,0.4350,39.5100,70,99,273421
1.9648,0.4399,39.5700,70,99,273424
2.0039,0.4497,39.4400,70,99,273428
1.9892,0.4252,39.5700,70,99,273431
2.0137,0.4350,39.5700,70,99,273434
2.0674,0.4448,39.4400,70,99,273438
2.0235,0.4350,38.7100,70,99,273441
2.0626,0.4643,39.3800,70,99,273444
2.0381,0.4497,39.4800,70,99,273448
2.0430,0.4350,39.4800,70,99,273452
2.0723,0.4448,39.5100,70,99,273455
2.0577,0.4350,39.6700,70,99,273458
2.1017,0.4497,39.6700,70,99,273462
2.0381,0.4399,39.5100,70,99,273465
2.0137,0.4350,39.6700,70,99,273468
2.0088,0.4448,39.5700,70,99,273472
1.9795,0.4350,39.5700,70,99,273475
2.0186,0.4594,39.3200,70,99,273478
1.9404,0.4545,39.5700,70,99,273482
1.9013,0.4350,39.5400,70,99,273485
1.8866,0.4399,39.6000,70,99,273488
1.8866,0.4350,39.6000,70,99,273491
1.9355,0.4545,39.5400,70,99,273496
1.8915,0.4399,39.5400,70,99,273499
1.8915,0.4399,39.4800,70,99,273502
1.8671,0.4399,39.6000,70,99,273506
1.8671,0.4350,39.6400,70,99,273509
1.9062,0.4448,39.4100,70,99,273512
1.8671,0.4399,39.6700,70,99,273516
1.8915,0.4497,39.4400,70,99,273519
1.8524,0.4350,39.6000,70,99,273522
1.8524,0.4692,39.5700,70,99,273526
1.8817,0.4448,39.4800,70,99,273529
1.8719,0.4399,39.6400,70,99,273532
1.9062,0.4399,39.4100,70,99,273537
1.8719,0.4399,39.5100,70,99,273540
1.8622,0.4252,39.6000,70,99,273543
1.8915,0.4448,38.9600,70,99,273546
1.8768,0.4350,39.5700,70,99,273550
1.9306,0.4497,39.3200,70,99,273553
1.9208,0.4301,39.5100,70,99,273556
1.9110,0.4350,39.5700,70,99,273560
1.9062,0.4594,39.5400,70,99,273563
1.8915,0.4350,39.6700,70,99,273566
1.9550,0.4594,39.3200,70,99,273570
1.9208,0.4399,39.4800,70,99,273573
1.9159,0.4350,39.5100,70,99,273576
1.8964,0.4399,39.5700,70,99,273581
1.8573,0.4350,39.5700,70,99,273584
1.8622,0.4643,39.4400,70,99,273587
1.8035,0.4399,39.5700,70,99,273591
1.8719,0.4399,39.5100,70,99,273594
2.0332,0.4399,39.6000,70,99,273597
2.3412,0.4839,39.5700,70,99,273600
2.8250,0.4252,39.4400,70,99,273604
3.3236,0.4399,39.6400,70,99,273607
3.9247,0.4643,39.4100,70,99,273610
4.3255,0.4399,39.5700,70,99,273614
4.4526,0.4448,39.7000,70,99,273617
4.2180,0.4399,39.5100,70,99,273620
3.6315,0.4399,39.6000,70,99,273625
3.0254,0.4448,39.4800,70,99,273628
2.4194,0.4350,39.4100,70,99,273631
2.0039,0.4399,39.5700,70,99,273635
1.7302,0.4448,39.5100,70,99,273638
1.5152,0.4350,39.6000,70,99,273641
1.4467,0.4497,39.3800,70,99,273644
1.3930,0.4399,39.5400,70,99,273648
1.4076,0.4399,39.6400,70,99,273651
1.4565,0.4399,39.5400,70,99,273654
1.4907,0.4594,39.5400,70,99,273658
1.5640,0.4497,39.2800,70,99,273661
1.5445,0.4399,39.5100,70,99,273665
1.6031,0.4301,39.5700,70,99,273669
1.6031,0.4399,39.6400,70,99,273672
1.6178,0.4399,39.5700,70,99,273675
1.6862,0.4594,39.3800,70,99,273679
1.6520,0.4399,39.5700,70,99,273682
1.6618,0.4350,39.5100,70,99,273685
1.6716,0.4399,39.5100,70,99,273688
1.6960,0.4399,39.6400,70,99,273692
1.7449,0.4545,39.4800,70,99,273695
1.7351,0.4399,39.5400,70,99,273698
1.7546,0.4399,39.5100,70,99,273702
1.7351,0.4350,39.6000,70,99,273705
1.7595,0.4350,39.7000,70,99,273709
1.8182,0.4497,39.4100,70,99,273713
1.7889,0.4399,39.5700,70,99,273716
1.8377,0.4448,39.4400,70,99,273719
1.8035,0.4350,39.7700,70,99,273723
1.8182,0.4692,39.5700,70,99,273726
1.8475,0.4448,39.5700,70,99,273729
1.8524,0.4692,39.5700,70,99,273733
1.9257,0.4448,39.3800,70,99,273736
1.8719,0.4399,38.8700,70,99,273739
1.8719,0.4399,39.5400,70,99,273742
1.8964,0.4448,39.5100,70,99,273746
1.8866,0.4350,39.5400,70,99,273750
1.9501,0.4545,39.4400,70,99,273753
1.9110,0.4350,39.5100,70,99,273757
1.9208,0.4399,39.6000,70,99,273760
1.9257,0.4399,39.5700,70,99,273763
1.9208,0.4399,39.5700,70,99,273767
1.9941,0.4594,39.3200,70,99,273770
1.9550,0.4399,39.5100,70,99,273773
1.9648,0.4252,39.5100,70,99,273777
1.9599,0.4399,39.5400,70,99,273780
1.9599,0.4252,39.5700,70,99,273783
2.0088,0.4497,39.3800,70,99,273786
2.0088,0.4350,39.5700,70,99,273790
2.0039,0.4350,39.5100,70,99,273794
2.0039,0.4350,39.5700,70,99,273797
2.0137,0.4399,39.6000,70,99,273801
2.0528,0.4497,39.4100,70,99,273804
2.0381,0.4399,39.5700,70,99,273807
2.0821,0.4448,39.5100,70,99,273811
2.0674,0.4545,39.5700,70,99,273814
2.0919,0.4252,39.5400,70,99,273817
2.1212,0.4350,39.6000,70,99,273820
2.1212,0.4399,39.5700,70,99,273824
2.1848,0.4399,39.4800,70,99,273827
2.1701,0.4350,39.5700,70,99,273830
2.2092,0.4350,39.5700,70,99,273835
2.2532,0.4448,39.5700,70,99,273838
2.2874,0.4350,39.5700,70,99,273841
2.3216,0.4448,39.3800,70,99,273845
2.3265,0.4497,39.4800,70,99,273848
2.3558,0.4350,39.5700,70,99,273851
2.4096,0.4497,39.5400,70,99,273855
2.4340,0.4350,39.5700,70,99,273858
2.5073,0.4252,39.3200,70,99,273861
2.4536,0.4497,39.5100,70,99,273864
2.4633,0.4252,39.6400,70,99,273868
2.4927,0.4399,39.5400,70,99,273871
2.5318,0.4350,39.5700,70,99,273874
2.5806,0.4594,39.3500,70,99,273879
2.5122,0.4399,39.4800,70,99,273882
2.4878,0.4301,39.5100,70,99,273885
2.4389,0.4545,39.5700,70,99,273889
2.3998,0.4350,39.6400,70,99,273892
2.3949,0.4448,39.4800,70,99,273895
2.2923,0.4252,39.5700,70,99,273899
2.2336,0.4399,39.5400,70,99,273902
2.1261,0.4350,39.5700,70,99,273905
2.0626,0.4350,39.5700,70,99,273908
2.0283,0.4497,39.4400,70,99,273912
1.9257,0.4350,39.5700,70,99,273915
1.8866,0.4448,39.4800,70,99,273918
1.8035,0.4301,39.5400,70,99,273923
1.7351,0.4350,39.6700,70,99,273926
1.7400,0.4448,39.4400,70,99,273929
1.6813,0.4350,39.5400,70,99,273933
1.6813,0.4399,39.4100,70,99,273936
1.6422,0.4252,39.5100,70,99,273939
1.6178,0.4350,39.7300,70,99,273943
1.6569,0.4545,39.4400,70,99,273946
1.6031,0.4350,39.5700,70,99,273949
1.6471,0.4497,39.3500,70,99,273952
1.6227,0.4350,39.5100,70,99,273956
1.6325,0.4350,39.5700,70,99,273959
1.6471,0.4448,39.5400,70,99,273963
1.6325,0.4448,39.5700,70,99,273967
1.7009,0.4594,39.3200,70,99,273970
1.6862,0.4448,39.3800,70,99,273973
1.6862,0.4301,39.5400,70,99,273977
1.6911,0.4399,39.4800,70,99,273980
1.7155,0.4350,39.5700,70,99,273983
1.7498,0.4497,39.4100,70,99,273987
1.7595,0.4545,39.5700,70,99,273991
1.7400,0.4252,39.5700,70,99,273995
1.7791,0.4448,38.7700,70,99,273998
1.7449,0.4399,39.5700,70,99,274001
1.7546,0.4350,39.5700,70,99,274006
1.7791,0.4448,39.4400,70,99,274009
1.7644,0.4252,39.5700,70,99,274012
1.8084,0.4448,39.6000,70,99,274015
1.7986,0.4350,39.6000,70,99,274019
1.8280,0.4350,39.5700,70,99,274022
1.8524,0.4448,39.4400,70,99,274025
1.8280,0.4350,39.6000,70,99,274029
1.8768,0.4497,39.2800,70,99,274032
1.8475,0.4350,39.4400,70,99,274035
1.8524,0.4350,39.6000,70,99,274039
1.8719,0.4497,39.5400,70,99,274042
1.8768,0.4252,39.5700,70,99,274045
1.9355,0.4594,39.3200,70,99,274050
1.8768,0.4399,39.5400,70,99,274053
1.8817,0.4350,39.5400,70,99,274056
1.8964,0.4350,39.5700,70,99,274059
1.8964,0.4350,39.5400,70,99,274063
1.9404,0.4497,39.3800,70,99,274066
1.9062,0.4350,39.5400,70,99,274069
1.9159,0.4399,39.5100,70,99,274073
1.8915,0.4399,39.5700,70,99,274076
1.9062,0.4350,39.7000,70,99,274079
1.9355,0.4448,39.5100,70,99,274083
1.9257,0.4399,39.5700,70,99,274086
1.9404,0.4448,39.5100,70,99,274089
1.9062,0.4252,39.5700,70,99,274094
1.9208,0.4350,39.5700,70,99,274097
1.9599,0.4448,39.5100,70,99,274100
1.9306,0.4350,39.5700,70,99,274103
1.9648,0.4399,39.4100,70,99,274107
1.9355,0.4350,39.5100,70,99,274110
1.9306,0.4350,39.7000,70,99,274113
1.9550,0.4448,39.4800,70,99,274117
1.9453,0.4350,39.5700,70,99,274120
1.9941,0.4448,39.3200,70,99,274123
1.9550,0.4252,39.5100,70,99,274127
1.9404,0.4350,39.6700,70,99,274130
1.9501,0.4545,39.5400,70,99,274134
1.9355,0.4252,39.5700,70,99,274138
1.9941,0.4545,39.3200,70,99,274141
1.9501,0.4399,39.5100,70,99,274144
1.9453,0.4301,39.5400,70,99,274147
1.9355,0.4252,39.5700,70,99,274151
1.9257,0.4448,39.6000,70,99,274154
1.9795,0.4545,39.3800,70,99,274157
1.9550,0.4448,39.4800,70,99,274161
1.9599,0.4399,39.5100,70,99,274164
1.9404,0.4350,39.6000,70,99,274167
1.9355,0.4301,39.6000,70,99,274171
1.9648,0.4497,39.4400,70,99,274174
1.9306,0.4497,39.5700,70,99,274178
1.9795,0.4448,39.4400,70,99,274182
1.9306,0.4350,39.7700,70,99,274185
1.9257,0.4399,39.5400,70,99,274188
1.9501,0.4497,39.4800,70,99,274192
1.9159,0.4399,39.5700,70,99,274195
1.9550,0.4497,39.4800,70,99,274198
1.9159,0.4350,39.5400,70,99,274201
1.9159,0.4301,39.5700,70,99,274205
1.9306,0.4399,39.4800,70,99,274208
1.9110,0.4350,39.5700,70,99,274211
1.9404,0.4399,39.4100,70,99,274215
1.9110,0.4350,39.6000,70,99,274219
1.9501,0.4399,39.5700,70,99,274222
1.9501,0.4448,39.5400,70,99,274226
1.9159,0.4301,39.5700,70,99,274229
1.9599,0.4497,39.3500,70,99,274232
1.9257,0.4741,39.4400,70,99,274236
1.9159,0.4350,39.5700,70,99,274239
1.9355,0.4350,39.5400,70,99,274242
1.9355,0.4252,39.5700,70,99,274245
1.9892,0.4594,39.2800,70,99,274249
1.9404,0.4448,39.4800,70,99,274252
1.9257,0.4350,39.4800,70,99,274255
1.9648,0.4399,39.5700,70,99,274259
1.9306,0.4350,39.5700,70,99,274263
1.9795,0.4741,39.3800,70,99,274266
1.9306,0.4399,39.5400,70,99,274270
1.9306,0.4399,39.5400,70,99,274273
1.9013,0.4301,39.6000,70,99,274276
1.9062,0.4350,39.5400,70,99,274280
1.9306,0.4399,39.5400,70,99,274283
1.9159,0.4350,39.5700,70,99,274286
1.9355,0.4448,39.5100,70,99,274289
1.8964,0.4252,39.5400,70,99,274293
1.9062,0.4350,39.5400,70,99,274296
1.9648,0.4448,39.4800,70,99,274299
1.9257,0.4301,39.5700,70,99,274304
1.9746,0.4350,39.4100,70,99,274307
1.9599,0.4399,39.4800,70,99,274310
1.9795,0.4301,39.6000,70,99,274314
2.0186,0.4497,39.4800,70,99,274317
2.0137,0.4301,39.5400,70,99,274320
2.0723,0.4448,39.3500,70,99,274324
2.0283,0.4399,39.5100,70,99,274327
2.0137,0.4399,39.5700,70,99,274330
2.0283,0.4448,39.5700,70,99,274333
2.0283,0.4350,39.5400,70,99,274337
2.1017,0.4545,39.2500,70,99,274340
2.0626,0.4399,39.5100,70,99,274343
2.0577,0.4301,39.5400,70,99,274348
2.0430,0.4399,39.5700,70,99,274351
2.0235,0.4350,39.5700,70,99,274354
2.0870,0.4594,39.3500,70,99,274358
2.0381,0.4399,39.5400,70,99,274361
2.0283,0.4350,39.5100,70,99,274364
1.9892,0.4399,39.5400,70,99,274367
1.9697,0.4350,39.5700,70,99,274371
1.9599,0.4497,39.4800,70,99,274374
1.9062,0.4399,39.5400,70,99,274377
1.9110,0.4399,39.4400,70,99,274381
1.8768,0.4692,39.5700,70,99,274384
1.8671,0.4252,39.5700,70,99,274387
1.8915,0.4448,39.5100,70,99,274392
1.8671,0.4399,39.5400,70,99,274395
1.9013,0.4448,39.4400,70,99,274398
1.8671,0.4399,39.6000,70,99,274402
1.8817,0.4350,39.5400,70,99,274405
1.8866,0.4350,39.4100,70,99,274408
1.8719,0.4350,39.5700,70,99,274412
1.9013,0.4448,39.4100,70,99,274415
1.8719,0.4350,39.5700,70,99,274418
1.8915,0.4350,39.6000,70,99,274421
1.9159,0.4350,39.5100,70,99,274425
1.8866,0.4350,39.6400,70,99,274428
1.9306,0.4448,39.3200,70,99,274432
1.8915,0.4399,39.4100,70,99,274436
1.8866,0.4399,39.6000,70,99,274439
1.9013,0.4399,39.4400,70,99,274442
1.8915,0.4545,39.5700,70,99,274446
1.9599,0.4448,39.3500,70,99,274449
1.8915,0.4448,39.4100,70,99,274452
1.8915,0.4350,39.5100,70,99,274456
1.8915,0.4350,39.6400,70,99,274459
1.8964,0.4301,39.5100,70,99,274462
1.9501,0.4448,39.4100,70,99,274465
1.9062,0.4350,39.5100,70,99,274469
1.9062,0.4350,39.4800,70,99,274472
1.8719,0.4350,39.5700,70,99,274476
1.8475,0.4350,39.5400,70,99,274480
1.8475,0.4448,39.5400,70,99,274483
1.8084,0.4545,39.5700,70,99,274486
1.8768,0.4448,39.4400,70,99,274490
1.9746,0.4350,39.5400,70,99,274493
2.2532,0.4350,39.5700,70,99,274496
2.7175,0.4448,39.4800,70,99,274500
3.1965,0.4399,39.5700,70,99,274503
3.7830,0.4399,39.3800,70,99,274506
4.2131,0.4350,39.5100,70,99,274509
4.4135,0.4252,39.5700,70,99,274513
4.2473,0.4545,39.4400,70,99,274516
3.6901,0.4350,39.6000,70,99,274520
3.1085,0.4497,39.4400,70,99,274524
2.4585,0.4399,39.5400,70,99,274527
1.9795,0.4252,39.5700,70,99,274530
1.6764,0.4448,39.5100,70,99,274534
1.4761,0.4350,39.5400,70,99,274537
1.4223,0.4545,39.2800,70,99,274540
1.3587,0.4399,39.4800,70,99,274544
1.3734,0.4301,39.5700,70,99,274547
1.3930,0.4399,39.5400,70,99,274550
1.4223,0.4350,39.5400,70,99,274554
1.5200,0.4448,39.3800,70,99,274557
1.5054,0.4399,39.5400,70,99,274561
1.5347,0.4350,39.4800,70,99,274564
1.5396,0.4350,39.5700,70,99,274568
1.5494,0.4301,39.6000,70,99,274571
1.5885,0.4497,39.4100,70,99,274574
1.5787,0.4399,39.4400,70,99,274578
1.6227,0.4399,39.4100,70,99,274581
1.6178,0.4350,39.6000,70,99,274584
1.6373,0.4350,39.6000,70,99,274588
1.6667,0.4497,39.4800,70,99,274591
1.6520,0.4350,39.6000,70,99,274594
1.7009,0.4497,39.4800,70,99,274598
1.6911,0.4301,39.3500,69,99,274601
1.7302,0.4301,39.5400,69,99,274606
1.7498,0.4350,39.6000,69,99,274610
1.7498,0.4399,39.5700,69,99,274613
1.7400,0.4350,39.5100,69,99,274616
1.7889,0.4497,39.2800,69,99,274620
1.7595,0.4839,39.4400,69,99,274623
1.7742,0.4301,39.5700,69,99,274626
1.7889,0.4399,39.6000,69,99,274630
1.7986,0.4350,39.5700,69,99,274633
1.8622,0.4594,39.3500,69,99,274636
1.8280,0.4448,39.4800,69,99,274640
1.8328,0.4350,39.7300,69,99,274643
1.8377,0.4350,39.5400,69,99,274647
1.8622,0.4350,39.5700,69,99,274650
1.9013,0.4448,39.5400,69,99,274654
1.8719,0.4399,39.5400,69,99,274657
1.8964,0.4399,39.4400,69,99,274660
1.8768,0.4350,39.5400,69,99,274664
1.9013,0.4350,39.5700,69,99,274667
1.9355,0.4350,39.5400,69,99,274670
1.9501,0.4350,39.5700,69,99,274674
1.9746,0.4448,39.4400,69,99,274677
1.9453,0.4350,39.5700,69,99,274680
1.9648,0.4350,39.5700,69,99,274684
2.0088,0.4448,39.4400,69,99,274688
2.0039,0.4350,39.5700,69,99,274691
2.0528,0.4448,39.3800,69,99,274694
2.0430,0.4399,39.4100,69,99,274698
2.0528,0.4350,39.5700,69,99,274701
2.0968,0.4497,39.5400,69,99,274704
2.0968,0.4350,39.6700,69,99,274708
2.1701,0.4741,39.3500,69,99,274711
2.1554,0.4399,39.5400,69,99,274714
2.1652,0.4448,39.6400,69,99,274718
2.1994,0.4399,39.5700,69,99,274721
2.2190,0.4350,39.7700,69,99,274724
2.3265,0.4594,39.2800,69,99,274728
2.3021,0.4936,39.5700,69,99,274732
2.3314,0.4301,39.5400,69,99,274735
2.3460,0.4350,39.3800,69,99,274738
2.3998,0.4448,39.5400,69,99,274742
2.4585,0.4545,39.4400,69,99,274745
2.4487,0.4448,39.5100,69,99,274748
2.4829,0.4252,39.4800,69,99,274752
2.4731,0.4399,39.6000,69,99,274755
2.4829,0.4350,39.5700,69,99,274758
2.5269,0.4448,39.3800,69,99,274762
2.4927,0.4399,39.5400,69,99,274765
2.5220,0.4448,39.3800,69,99,274768
2.4682,0.4448,39.5700,69,99,274772
2.4389,0.4350,39.6000,69,99,274776
2.4194,0.4448,39.4100,69,99,274779
2.3314,0.4350,39.5400,69,99,274782
2.2972,0.4399,39.5400,69,99,274786
2.1848,0.4350,39.5700,69,99,274789
2.1212,0.4350,39.5700,69,99,274792
2.0626,0.4448,39.4100,69,99,274796
1.9648,0.4399,39.5700,69,99,274799
1.9306,0.4448,39.3800,69,99,274802
1.8426,0.4350,39.5400,69,99,274806
1.7937,0.4350,39.5700,69,99,274809
1.7595,0.4399,39.5100,69,99,274812
1.6960,0.4350,39.7000,69,99,274817
1.7009,0.4497,39.2800,69,99,274820
1.6471,0.4350,39.4400,69,99,274823
1.6325,0.4350,39.5700,69,99,274826
1.6276,0.4350,39.5700,69,99,274830
1.6227,0.4350,39.5700,69,99,274833
1.6716,0.4594,39.5100,69,99,274836
1.6276,0.4448,39.5100,69,99,274840
1.6227,0.4350,39.5400,69,99,274843
1.6325,0.4252,39.5700,69,99,274846
1.6471,0.4350,39.5400,69,99,274850
1.6911,0.4497,39.4400,69,99,274853
1.6716,0.4399,39.5400,69,99,274856
1.6911,0.4448,39.5100,69,99,274861
1.6716,0.4350,39.6000,69,99,274864
1.6862,0.4350,39.6000,69,99,274867
1.7253,0.4399,39.5400,69,99,274871
1.7253,0.4350,39.5100,69,99,274874
1.7546,0.4350,39.4400,69,99,274877
1.7253,0.4448,39.6400,69,99,274880
1.7449,0.4350,39.5700,69,99,274884
1.7742,0.4448,38.7100,69,99,274887
1.7595,0.4350,39.5700,69,99,274890
1.7937,0.4448,39.3500,69,99,274894
1.7742,0.4399,39.5100,69,99,274897
1.7693,0.4350,39.5700,69,99,274900
1.8133,0.4448,39.4800,69,99,274905
1.7937,0.4350,39.6400,69,99,274908
1.8475,0.4497,39.3500,69,99,274911
1.8084,0.4399,39.4800,69,99,274915
1.8035,0.4350,39.5400,69,99,274918
1.8182,0.4252,39.5700,69,99,274921
1.8182,0.4350,39.7300,69,99,274924
1.8915,0.4594,39.3500,69,99,274928
1.8622,0.4448,39.5100,69,99,274931
1.8622,0.4399,39.4800,69,99,274934
1.8524,0.4399,39.6400,69,99,274938
1.8524,0.4252,39.5400,69,99,274941
1.9013,0.4497,39.4800,69,99,274945
1.8866,0.4448,39.5400,69,99,274949
1.9208,0.4399,39.4400,69,99,274952
1.9013,0.4301,39.5700,69,99,274955
1.8964,0.4350,39.6000,69,99,274959
1.9257,0.4497,39.4100,69,99,274962
1.8964,0.4350,39.5400,69,99,274965
1.9355,0.4448,39.5100,69,99,274969
1.9110,0.4301,39.5100,69,99,274972
1.9110,0.4350,39.6400,69,99,274975
1.9257,0.4399,39.4400,69,99,274978
1.9062,0.4350,39.6000,69,99,274982
1.9501,0.4350,39.4100,69,99,274985
1.9208,0.4350,39.5100,69,99,274989
1.9257,0.4350,39.6400,69,99,274993
1.9453,0.4448,39.4800,69,99,274996
1.9110,0.4350,39.6400,69,99,274999
1.9550,0.4594,39.3500,69,99,275003
1.9110,0.4350,39.5400,69,99,275006
1.9306,0.4399,39.5700,69,99,275009
1.9404,0.4399,39.5400,69,99,275013
1.9110,0.4448,39.5700,69,99,275016
1.9648,0.4594,39.3200,69,99,275019
1.9208,0.4399,39.4400,69,99,275023
1.9110,0.4301,39.5400,69,99,275026
1.9159,0.4399,39.5400,69,99,275030
1.9453,0.4399,39.5700,69,99,275033
1.9599,0.4497,39.4400,69,99,275037
1.9208,0.4399,39.5400,69,99,275040
1.9208,0.4399,39.5100,69,99,275043
1.9062,0.4399,39.5700,69,99,275047
1.9208,0.4350,39.5700,69,99,275050
1.9501,0.4448,39.4100,69,99,275053
1.9306,0.4399,39.5400,69,99,275057
1.9453,0.4448,39.4400,69,99,275060
1.9013,0.4497,39.5700,69,99,275063
1.9110,0.4350,39.5700,69,99,275067
1.9257,0.4594,39.5700,69,99,275070
1.9208,0.4350,39.5700,69,99,275074
1.9453,0.4399,39.4800,69,99,275077
1.9013,0.4350,39.5400,69,99,275081
1.9159,0.4350,39.5400,69,99,275084
1.9795,0.4448,39.4400,69,99,275087
1.9257,0.4350,39.5700,69,99,275091
1.9746,0.4448,39.3200,69,99,275094
1.9404,0.4399,39.4800,69,99,275097
1.9257,0.4301,39.5700,69,99,275101
1.9404,0.4399,39.5700,69,99,275104
1.9306,0.4252,39.5400,69,99,275107
1.9941,0.4545,39.2800,69,99,275111
1.9453,0.4448,39.4400,69,99,275115
1.9355,0.4301,39.5700,69,99,275118
1.9355,0.4350,39.5700,69,99,275122
1.9355,0.4350,39.5700,69,99,275125
1.9892,0.4545,39.4400,69,99,275128
1.9892,0.4448,39.5100,69,99,275131
1.9550,0.4399,39.4800,69,99,275135
1.9257,0.4350,39.5400,69,99,275138
1.9257,0.4350,39.5700,69,99,275141
1.9648,0.4839,39.5100,69,99,275145
1.9550,0.4399,39.5400,69,99,275148
1.9844,0.4399,39.4400,69,99,275151
1.9501,0.4350,39.5400,69,99,275155
1.9501,0.4350,39.6000,69,99,275159
1.9795,0.4448,39.4400,69,99,275162
1.9453,0.4399,39.5400,69,99,275166
1.9892,0.4399,39.4100,69,99,275169
1.9648,0.4350,39.4800,69,99,275172
1.9599,0.4252,39.6000,69,99,275176
1.9697,0.4350,39.4400,69,99,275179
1.9453,0.4350,39.6000,69,99,275182
1.9892,0.4448,39.3800,69,99,275185
1.9550,0.4497,39.5100,69,99,275189
1.9550,0.4350,39.5700,69,99,275192
1.9697,0.4448,39.3500,69,99,275195
1.9453,0.4399,39.5700,69,99,275200
1.9941,0.4497,39.2800,69,99,275203
1.9404,0.4350,39.5100,69,99,275206
1.9550,0.4301,39.6000,69,99,275210
1.9599,0.4399,39.4800,69,99,275213
1.9990,0.4350,39.5700,69,99,275218
2.0039,0.4350,39.5700,69,99,275221
1.9941,0.4448,39.4100,69,99,275224
1.9355,0.4399,39.5700,69,99,275228
1.9550,0.4252,39.5100,69,99,275231
1.9355,0.4350,39.6000,69,99,275234
1.9501,0.4448,39.6400,69,99,275237
1.9892,0.4399,39.4400,69,99,275241
1.9648,0.4399,39.5700,69,99,275245
1.9941,0.4350,39.4400,69,99,275248
1.9550,0.4350,39.5400,69,99,275252
1.9648,0.4350,39.6400,69,99,275255
1.9746,0.4399,39.8000,69,99,275258
1.9453,0.4448,39.5700,69,99,275262
1.9501,0.4448,39.3800,69,99,275265
1.8719,0.4301,39.6000,69,99,275268
1.8622,0.4350,39.6000,69,99,275272
1.8622,0.4399,39.8000,69,99,275275
1.8426,0.4252,39.5700,69,99,275278
1.8866,0.4497,39.2800,69,99,275281
1.8426,0.4301,39.5100,69,99,275286
1.8377,0.4252,39.6000,69,99,275289
1.8328,0.4741,39.5400,69,99,275292
1.8377,0.4252,39.5700,69,99,275296
1.9013,0.4545,39.3800,69,99,275299
1.8622,0.4448,39.5100,69,99,275302
1.8524,0.4350,39.4400,69,99,275306
1.8475,0.4399,39.5700,69,99,275309
1.8573,0.4350,39.8300,69,99,275312
1.9013,0.4448,39.4400,69,99,275316
1.8866,0.4399,39.5100,69,99,275319
1.9159,0.4350,39.4400,69,99,275322
1.8817,0.4350,39.5700,69,99,275325
1.8768,0.4399,39.5400,69,99,275330
1.8915,0.4350,39.5100,69,99,275333
1.8866,0.4594,39.5400,69,99,275336
1.9599,0.4448,39.4400,69,99,275340
1.8817,0.4350,39.5400,69,99,275343
1.8866,0.4350,39.5700,69,99,275346
1.9062,0.4448,39.4800,69,99,275350
1.8768,0.4350,39.5700,69,99,275353
1.9306,0.4399,39.3800,69,99,275356
1.9110,0.4399,39.5700,69,99,275360
1.9062,0.4350,39.6000,69,99,275363
1.9110,0.4448,39.4800,69,99,275366
1.8964,0.4350,39.5700,69,99,275371
1.8817,0.4497,39.3200,69,99,275374
1.8182,0.4350,39.4800,69,99,275377
1.8377,0.4350,39.5700,69,99,275380
1.9648,0.4399,39.5700,69,99,275384
2.2043,0.4399,39.5700,69,99,275387
2.6686,0.4594,39.3500,69,99,275390
3.1134,0.4497,39.5100,69,99,275394
3.6608,0.4301,39.5100,69,99,275397
4.1496,0.4643,39.5400,69,99,275400
4.4477,0.4350,39.5700,69,99,275404
4.3988,0.4497,39.4400,69,99,275407
3.8905,0.4350,39.5400,69,99,275410
3.2747,0.4399,39.4400,69,99,275415
2.6149,0.4350,39.5700,69,99,275418
2.1212,0.4350,39.5700,69,99,275421
1.7937,0.4545,39.4100,69,99,275424
1.5298,0.4350,39.5400,69,99,275428
1.4223,0.4448,39.4100,69,99,275431
1.3685,0.4350,39.5700,69,99,275434
1.3587,0.4350,39.5700,69,99,275438
1.3978,0.4448,39.4400,69,99,275441
1.4076,0.4350,39.5700,69,99,275444
1.4516,0.4399,39.4400,69,99,275448
1.4712,0.4350,39.5100,69,99,275451
1.4907,0.4350,39.6000,69,99,275454
1.5347,0.4497,39.5100,69,99,275459
1.5347,0.4350,39.5700,69,99,275462
1.5787,0.4448,39.3200,69,99,275465
1.5445,0.4301,39.5100,69,99,275468
1.5689,0.4497,39.5700,69,99,275472
1.5934,0.4399,39.5400,69,99,275475
1.6080,0.4399,39.5700,69,99,275478
1.6813,0.4545,39.3200,69,99,275482
1.6373,0.4448,39.4800,69,99,275485
1.6520,0.4350,39.5400,69,99,275488
1.6520,0.4350,39.5700,69,99,275492
1.6667,0.4399,39.5700,69,99,275495
1.7253,0.4448,39.4100,69,99,275499
1.7009,0.4399,39.5100,69,99,275503
1.7107,0.4399,39.4800,69,99,275506
1.7009,0.4350,39.5400,69,99,275509
1.7155,0.4594,39.5700,69,99,275512
1.7595,0.4448,39.4100,69,99,275516
1.7449,0.4643,39.6000,69,99,275519
1.7742,0.4448,39.4400,69,99,275522
1.7449,0.4350,39.5700,69,99,275526
1.7546,0.4350,39.5400,69,99,275529
1.7791,0.4399,39.4800,69,99,275532
1.7840,0.4252,39.5400,69,99,275536
1.8328,0.4399,39.4800,69,99,275539
1.8035,0.4350,39.5400,69,99,275543
1.8133,0.4350,39.5700,69,99,275547
1.8377,0.4399,39.4800,69,99,275550
1.8280,0.4350,39.6400,69,99,275553
1.8817,0.4399,39.3500,69,99,275557
1.8622,0.4448,39.4800,69,99,275560
1.8671,0.4350,39.5700,69,99,275563
1.8768,0.4448,39.5100,69,99,275566
1.8671,0.4350,39.5400,69,99,275570
1.9355,0.4497,39.2800,69,99,275573
1.9013,0.4448,39.4100,69,99,275576
1.9110,0.4252,39.5700,69,99,275580
1.9208,0.4399,39.5400,69,99,275584
1.9208,0.4350,39.5400,69,99,275587
1.9844,0.4545,39.3800,69,99,275591
1.9550,0.4448,39.5100,69,99,275594
1.9746,0.4350,39.4800,69,99,275597
1.9746,0.4350,39.5700,69,99,275601
1.9844,0.4301,39.5700,69,99,275604
2.0283,0.4448,39.6000,69,99,275607
2.0235,0.4350,39.6700,69,99,275610
2.0723,0.4545,39.4800,69,99,275614
2.0772,0.4350,39.5400,69,99,275617
2.1065,0.4350,39.5700,69,99,275620
2.1701,0.4497,39.4100,69,99,275624
2.1603,0.4350,39.8000,69,99,275628
2.2190,0.4448,39.4800,69,99,275631
2.2190,0.4301,39.5400,69,99,275635
2.2581,0.4350,39.5700,69,99,275638
2.3069,0.4399,39.4100,69,99,275641
2.3069,0.4350,39.5400,69,99,275645
2.3607,0.4399,39.4100,69,99,275648
2.3460,0.4399,39.5100,69,99,275651
2.3851,0.4350,39.5700,69,99,275654
2.4291,0.4448,39.4800,69,99,275658
2.4145,0.4350,39.5700,69,99,275661
2.4731,0.4497,38.7100,69,99,275664
2.4145,0.4301,39.5100,69,99,275668
2.4096,0.4350,39.6000,69,99,275672
2.4047,0.4350,39.5700,69,99,275675
2.3607,0.4252,39.6000,69,99,275679
2.3754,0.4545,39.2500,69,99,275682
2.2678,0.4399,39.4800,69,99,275685
2.1652,0.4301,39.5700,69,99,275689
2.1114,0.4350,39.5400,69,99,275692
2.0186,0.4350,39.5700,69,99,275695
1.9990,0.4497,39.3500,69,99,275698
1.8866,0.4448,39.5100,69,99,275702
1.8084,0.4350,39.4100,69,99,275705
1.7253,0.4350,39.5700,69,99,275708
1.6716,0.4350,39.5700,69,99,275713
1.6618,0.4448,39.4100,69,99,275716
1.6031,0.4399,39.5100,69,99,275719
1.5836,0.4399,39.4400,69,99,275723
1.5543,0.4350,39.5700,69,99,275726
1.4956,0.4350,39.6000,69,99,275729
1.5005,0.4399,39.4800,69,99,275733
1.5005,0.4252,39.5700,69,99,275736
1.5396,0.4399,39.4400,69,99,275739
1.5054,0.4301,39.5400,69,99,275742
1.5054,0.4350,39.5700,69,99,275746
1.5200,0.4448,39.5100,69,99,275749
1.5054,0.4350,39.5700,69,99,275752
1.5494,0.4448,39.3800,69,99,275757
1.5445,0.4399,39.4100,69,99,275760
1.5787,0.4350,39.5700,69,99,275763
1.5591,0.4448,39.5700,69,99,275767
1.5591,0.4301,39.5700,69,99,275770
1.6031,0.4497,39.3200,69,99,275773
1.5738,0.4399,39.4800,69,99,275777
1.5787,0.4350,39.2800,69,99,275780
1.5836,0.4448,39.5400,69,99,275783
1.5738,0.4350,39.6000,69,99,275786
1.6276,0.4594,39.3500,69,99,275790
1.5982,0.4399,39.5100,69,99,275793
1.6080,0.4350,39.4800,69,99,275796
1.6031,0.4301,39.5700,69,99,275801
1.5982,0.4350,39.5700,69,99,275804
1.6373,0.4839,39.4100,69,99,275807
1.6227,0.4399,39.5400,69,99,275811
1.6373,0.4399,39.4100,69,99,275814
1.6325,0.4350,39.5700,69,99,275817
1.6520,0.4350,39.5400,69,99,275821
1.6862,0.4497,39.4100,69,99,275824
1.7009,0.4448,39.4800,69,99,275829
1.6667,0.4399,39.6000,69,99,275832
1.6862,0.4448,39.3500,69,99,275835
1.6471,0.4448,39.5100,69,99,275840
1.6520,0.4350,39.6000,69,99,275843
1.6764,0.4448,39.5100,69,99,275846
1.6716,0.4252,39.5400,69,99,275849
1.7155,0.4497,39.3200,69,99,275853
1.6764,0.4399,39.4800,69,99,275856
1.6911,0.4301,39.5700,69,99,275859
1.7009,0.4497,39.5700,69,99,275863
1.7009,0.4350,39.5400,69,99,275866
1.7546,0.4594,39.4100,69,99,275869
1.7302,0.4350,39.4800,69,99,275873
1.7058,0.4350,39.5100,69,99,275876
1.6960,0.4399,39.5700,69,99,275879
1.7009,0.4252,39.5400,69,99,275884
1.7449,0.4448,39.4400,69,99,275887
1.7107,0.4252,39.5400,69,99,275890
1.7302,0.4399,39.5400,69,99,275893
1.7058,0.4594,39.5700,69,99,275897
1.7155,0.4350,39.5700,69,99,275900
1.7400,0.4594,39.3200,69,99,275903
1.7204,0.4350,39.5400,69,99,275907
1.7351,0.4448,39.4800,69,99,275910
1.6911,0.4301,39.5700,69,99,275913
1.6911,0.4350,39.6400,69,99,275917
1.7058,0.4497,39.4400,69,99,275920
1.7058,0.4350,39.5700,69,99,275923
1.7302,0.4399,39.3800,69,99,275928
1.7009,0.4350,39.6000,69,99,275931
1.6862,0.4350,39.5700,69,99,275934
1.6960,0.4448,39.4800,69,99,275937
1.6764,0.4350,39.5700,69,99,275941
1.7253,0.4497,39.3800,69,99,275944
1.7058,0.4448,39.4800,69,99,275947
1.6862,0.4350,39.6700,69,99,275951
1.6764,0.4252,39.5100,69,99,275954
1.6569,0.4350,39.6700,69,99,275957
1.7107,0.4594,39.3200,69,99,275961
1.6764,0.4448,39.4100,69,99,275964
1.6862,0.4350,39.5100,69,99,275968
1.6764,0.4350,39.6700,69,99,275972
1.6813,0.4350,39.5700,69,99,275975
1.7302,0.4497,39.4400,69,99,275978
1.7253,0.4399,39.5100,69,99,275981
1.7546,0.4594,39.4400,69,99,275985
1.7449,0.4399,39.5700,69,99,275988
1.7449,0.4301,39.5700,69,99,275991
1.7693,0.4448,39.5400,69,99,275995
1.7498,0.4399,39.5400,69,99,275998
1.7889,0.4448,39.4400,69,99,276001
1.7742,0.4497,39.5700,69,99,276005
1.7937,0.4350,39.5700,69,99,276008
1.8133,0.4594,39.4400,69,99,276012
1.7693,0.4350,38.7400,69,99,276016
1.7937,0.4545,39.3800,69,99,276019
1.7742,0.4399,39.4800,69,99,276022
1.7840,0.4350,39.5700,69,99,276026
1.7937,0.4497,39.5400,69,99,276029
1.7449,0.4350,39.5400,69,99,276032
1.7546,0.4692,39.3500,69,99,276035
1.6911,0.4399,39.5400,69,99,276039
1.6618,0.4594,39.5700,69,99,276042
1.6520,0.4350,39.5100,69,99,276045
1.6227,0.4350,39.5700,69,99,276049
1.6471,0.4790,39.2800,69,99,276052
1.5787,0.4350,39.4400,69,99,276056
1.5738,0.4301,39.6700,69,99,276060
1.5738,0.4448,39.5700,69,99,276063
1.5640,0.4350,39.6700,69,99,276066
1.6080,0.4545,39.4400,69,99,276070
1.5689,0.4399,39.5400,69,99,276073
1.5543,0.4350,39.4100,69,99,276076
1.5396,0.4350,39.5400,69,99,276079
1.5445,0.4350,39.5400,69,99,276083
1.5934,0.4497,39.4100,69,99,276086
1.5396,0.4741,39.5400,69,99,276089
1.5738,0.4448,39.4100,69,99,276093
1.5249,0.4350,39.5700,69,99,276097
1.5347,0.4399,39.6000,69,99,276100
1.5640,0.4399,39.4400,69,99,276104
1.5445,0.4350,39.5700,69,99,276107
1.5640,0.4350,39.4400,69,99,276110
1.5298,0.4350,39.5400,69,99,276114
1.5396,0.4350,39.5400,69,99,276117
1.5543,0.4399,39.5100,69,99,276120
1.5494,0.4350,39.5700,69,99,276123
1.5885,0.4448,39.3500,69,99,276127
1.5494,0.4399,39.5700,69,99,276130
1.5543,0.4350,39.6000,69,99,276133
1.5591,0.4448,39.6000,69,99,276137
1.5445,0.4252,39.5700,69,99,276141
1.5591,0.4497,38.9000,69,99,276144
1.4956,0.4399,39.4400,69,99,276148
1.4565,0.4252,39.5700,69,99,276151
1.5054,0.4399,39.5400,69,99,276154
1.5787,0.4350,39.5700,69,99,276158
1.8915,0.4594,39.3800,69,99,276161
2.2581,0.4448,39.5100,69,99,276164
2.7468,0.4399,39.5100,69,99,276168
3.2747,0.4350,39.5700,69,99,276171
3.7586,0.4350,39.5700,69,99,276174
4.0860,0.4741,39.4100,69,99,276177
3.9394,0.4350,39.5400,69,99,276182
3.4800,0.4448,39.4800,69,99,276185
2.8104,0.4448,39.5700,69,99,276188
2.2043,0.4350,39.6000,69,99,276192
1.7351,0.4448,39.5100,69,99,276195
1.3881,0.4399,39.5700,69,99,276198
1.1877,0.4448,39.5400,69,99,276202
1.0606,0.4301,39.5700,69,99,276205
1.0264,0.4350,39.5700,69,99,276208
1.0215,0.4448,39.4800,69,99,276211
1.0215,0.4448,39.5700,69,99,276215
1.0655,0.4448,39.4100,69,99,276218
1.0850,0.4399,39.6700,69,99,276221
1.1193,0.4350,39.5700,69,99,276226
1.1584,0.4448,39.4400,69,99,276229
1.1535,0.4399,39.5400,69,99,276232
1.1926,0.4448,39.3500,69,99,276236
1.1779,0.4448,39.4800,69,99,276239
1.1975,0.4350,39.5700,69,99,276242
1.2317,0.4448,39.4800,69,99,276246
1.2366,0.4448,39.5400,69,99,276249
1.2854,0.4545,39.2800,69,99,276252
1.2561,0.4594,39.5700,69,99,276255
1.2708,0.4301,39.5700,69,99,276259
1.2757,0.4399,39.5700,69,99,276262
1.2952,0.4399,39.5700,69,99,276265
1.3441,0.4545,39.5400,69,99,276270
1.3196,0.4399,39.5700,69,99,276273
1.3294,0.4399,39.4800,69,99,276276
1.3245,0.4399,39.5700,69,99,276280
1.3441,0.4350,39.5700,69,99,276283
1.3832,0.4497,39.3500,69,99,276286
1.3685,0.4399,39.5400,69,99,276290
1.3930,0.4448,39.5400,69,99,276293
1.3783,0.4399,39.5700,69,99,276296
1.3978,0.4252,39.5700,69,99,276299
1.4370,0.4448,39.4800,69,99,276303
1.4614,0.4399,39.5700,69,99,276306
1.4614,0.4399,39.4400,69,99,276310
1.4272,0.4350,39.5400,69,99,276314
1.4370,0.4350,39.5700,69,99,276317
1.4565,0.4497,39.4400,69,99,276320
1.4516,0.4252,39.5700,69,99,276324
1.5005,0.4448,39.3800,69,99,276327
1.4761,0.4350,39.5700,69,99,276330
1.4907,0.4545,39.5400,69,99,276334
1.5054,0.4448,39.5400,69,99,276337
1.5005,0.4399,39.5400,69,99,276340
1.5982,0.4497,39.2800,69,99,276344
1.5543,0.4448,39.5100,69,99,276347
1.5543,0.4399,39.5400,69,99,276350
1.5640,0.4399,39.6400,69,99,276354
1.5591,0.4643,39.5700,69,99,276358
1.6276,0.4594,39.3800,69,99,276361
1.6129,0.4448,39.5100,69,99,276364
1.6276,0.4350,39.4800,69,99,276368
1.6325,0.4399,39.5100,69,99,276371
1.6471,0.4350,39.5700,69,99,276374
1.6911,0.4448,39.3500,69,99,276378
1.7155,0.4350,39.5400,69,99,276381
1.7351,0.4399,39.4400,69,99,276384
1.7302,0.4399,39.5700,69,99,276388
1.7546,0.4350,39.6400,69,99,276391
1.7889,0.4350,39.5100,69,99,276395
1.8084,0.4399,39.5700,69,99,276399
1.8719,0.4448,39.4100,69,99,276402
1.8768,0.4350,39.5400,69,99,276405
1.9110,0.4350,39.6400,69,99,276408
1.9550,0.4350,39.4800,69,99,276412
1.9501,0.4399,38.7100,69,99,276415
2.0039,0.4448,39.3800,69,99,276418
2.0088,0.4399,39.4400,69,99,276422
2.0283,0.4350,39.6700,69,99,276425
2.0723,0.4448,39.4800,69,99,276428
2.0430,0.4399,39.5700,69,99,276432
2.0919,0.4497,39.3200,69,99,276435
1.9550,0.4936,39.4100,69,99,276441
1.8328,0.4252,39.4800,69,99,276444
1.7449,0.4399,39.5100,69,99,276447
1.6422,0.4350,39.5400,69,99,276451
1.5494,0.4594,39.5700,69,99,276454
1.4956,0.4497,39.4800,69,99,276457
1.3978,0.4399,39.5400,69,99,276460
1.3441,0.4790,39.5100,69,99,276464
1.2708,0.4350,39.5700,69,99,276467
1.2366,0.4350,39.4800,69,99,276470
1.2219,0.4448,39.4100,69,99,276474
1.1681,0.4399,39.5700,69,99,276477
1.1632,0.4399,39.4400,69,99,276481
1.1095,0.4350,38.7700,69,99,276485
1.1144,0.4399,39.5700,69,99,276488
1.1290,0.4448,39.6000,69,99,276491
1.1193,0.4448,39.5100,69,99,276495
1.1730,0.4497,39.3800,69,99,276498
1.1241,0.4399,39.6000,69,99,276501
1.1290,0.4350,39.6000,69,99,276504
1.1486,0.4497,39.4800,69,99,276508
1.1584,0.4350,39.5700,69,99,276511
1.2072,0.4497,39.3200,69,99,276514
1.1779,0.4350,39.5400,69,99,276518
1.1975,0.4350,39.8000,69,99,276521
1.2023,0.4399,39.5400,69,99,276525
1.2072,0.4350,39.5700,69,99,276529
1.2610,0.4643,39.2800,69,99,276532
1.2463,0.4497,39.4400,69,99,276535
1.2512,0.4350,39.5400,69,99,276539
1.2610,0.4350,39.5400,69,99,276542
1.2610,0.4399,39.1600,69,99,276545
1.3099,0.4497,39.3800,69,99,276548
1.2952,0.4448,39.5700,69,99,276552
1.3148,0.4448,39.4100,69,99,276555
1.3050,0.4399,39.5700,69,99,276558
1.3099,0.4350,39.6400,69,99,276562
1.3392,0.4448,39.4100,69,99,276566
1.3343,0.4399,39.5100,69,99,276569
1.3734,0.4497,39.4400,69,99,276573
1.3539,0.4399,39.7000,69,99,276576
1.3587,0.4399,39.5700,69,99,276579
1.3636,0.4399,39.4800,69,99,276583
1.3587,0.4643,39.6000,69,99,276586
1.3930,0.4350,39.4100,69,99,276589
1.3832,0.4350,39.5700,69,99,276593
1.4076,0.4350,39.5700,69,99,276596
1.4174,0.4448,39.4400,69,99,276599
1.4174,0.4399,39.5700,69,99,276602
1.4321,0.4545,39.3500,69,99,276606
1.4174,0.4448,39.4400,69,99,276610
1.4272,0.4252,39.5700,69,99,276613
1.4321,0.4497,39.5100,69,99,276617
1.4223,0.4350,39.5700,69,99,276620
1.4565,0.4545,39.2800,69,99,276623
1.4125,0.4448,39.4400,69,99,276627
1.4174,0.4350,39.5400,69,99,276630
1.4467,0.4350,39.5700,69,99,276633
1.4321,0.4350,39.5700,69,99,276637
1.4712,0.4643,39.4100,69,99,276640
1.4370,0.4448,39.5100,69,99,276643
1.4418,0.4741,39.4800,69,99,276646
1.4321,0.4399,39.5700,69,99,276651
1.4467,0.4350,39.5700,69,99,276654
1.4614,0.4497,39.5100,69,99,276657
1.4516,0.4594,39.5400,69,99,276661
1.4663,0.4252,39.4400,69,99,276664
1.4321,0.4399,39.5700,69,99,276667
1.4418,0.4350,39.5700,69,99,276671
1.4761,0.4497,39.4100,69,99,276674
1.4516,0.4399,39.5700,69,99,276677
1.4663,0.4497,39.3800,69,99,276681
1.4467,0.4399,39.8000,69,99,276684
1.4516,0.4399,39.5700,69,99,276687
1.4761,0.4497,39.4400,69,99,276691
1.4663,0.4399,39.5700,69,99,276695
1.5005,0.4497,39.3500,69,99,276698
1.4565,0.4643,39.5400,69,99,276702
1.4467,0.4350,39.5700,69,99,276705
1.4614,0.4448,39.5400,69,99,276708
1.4565,0.4350,39.6000,69,99,276711
1.5152,0.4545,39.2800,69,99,276715
1.5005,0.4350,39.4400,69,99,276718
1.4663,0.4350,39.5700,69,99,276721
1.4614,0.4399,39.4800,69,99,276725
1.4565,0.4350,39.5700,69,99,276728
1.5103,0.4936,39.3800,69,99,276731
1.4907,0.4252,39.5100,69,99,276736
1.4809,0.4399,39.2500,69,99,276739
1.4761,0.4399,39.5700,69,99,276742
1.4761,0.4350,39.5400,69,99,276746
1.5152,0.4497,39.4400,69,99,276749
1.4907,0.4350,39.5700,69,99,276752
1.5152,0.4497,39.4100,69,99,276755
1.4907,0.4399,39.6700,69,99,276759
1.4907,0.4594,39.5400,69,99,276762
1.5200,0.4399,39.4400,69,99,276765
1.5005,0.4399,39.5400,69,99,276769
1.5347,0.4399,39.4100,69,99,276772
1.5152,0.4350,39.5400,69,99,276775
1.5103,0.4399,39.5400,69,99,276780
1.5298,0.4448,39.4400,69,99,276783
1.5249,0.4399,39.5400,69,99,276786
1.5787,0.4497,39.3500,69,99,276790
1.5738,0.4399,39.5400,69,99,276793
1.6031,0.4350,39.5700,69,99,276796
1.6276,0.4497,39.5100,69,99,276799
1.6178,0.4448,39.5700,69,99,276803
1.6764,0.4545,39.3200,69,99,276806
1.6618,0.4448,39.4800,69,99,276809
1.6618,0.4399,39.5700,69,99,276813
1.6764,0.4399,39.7300,69,99,276816
1.6667,0.4692,39.6400,69,99,276819
1.7204,0.4594,39.3800,69,99,276824
1.6716,0.4497,39.4800,69,99,276827
1.6716,0.4399,39.5400,69,99,276830
1.6716,0.4643,39.5700,69,99,276834
1.6716,0.4350,39.5700,69,99,276837
1.6911,0.4545,39.4100,69,99,276840
1.6520,0.4399,39.5400,69,99,276844
1.6569,0.4448,39.3800,69,99,276847
1.6129,0.4350,39.5700,69,99,276850
1.6080,0.4350,39.5100,69,99,276853
1.5934,0.4497,39.5700,69,99,276857
1.5543,0.4399,39.5700,69,99,276860
1.5591,0.4497,39.4400,69,99,276864
1.5152,0.4350,39.6000,69,99,276868
1.5249,0.4399,39.5700,69,99,276871
1.5445,0.4448,39.4400,69,99,276874
1.5200,0.4350,39.5400,69,99,276878
1.5494,0.4448,39.4100,69,99,276881
1.5249,0.4399,39.4100,69,99,276884
1.5249,0.4350,39.5700,69,99,276888
1.5543,0.4497,39.6700,69,99,276891
1.5347,0.4399,39.5700,69,99,276894
1.5738,0.4545,39.3200,69,99,276898
1.5298,0.4399,39.4800,69,99,276901
1.5200,0.4350,39.8000,69,99,276904
1.5347,0.4448,39.4400,69,99,276908
1.5347,0.4399,39.5700,69,99,276912
1.5982,0.4643,39.3200,69,99,276915
1.5836,0.4497,39.4800,69,99,276918
1.5494,0.4350,39.5100,69,99,276922
1.5396,0.4399,39.5400,69,99,276925
1.5494,0.4399,39.6000,69,99,276928
1.5982,0.4497,39.4400,69,99,276932
1.5836,0.4350,39.5400,69,99,276935
1.5934,0.4448,39.4800,69,99,276938
1.5738,0.4399,39.5700,69,99,276942
1.5738,0.4350,39.6400,69,99,276945
1.6178,0.4497,39.4400,69,99,276948
1.5885,0.4399,39.5400,69,99,276953
1.6080,0.4545,39.4800,69,99,276956
1.5445,0.4350,39.5400,69,99,276959
1.5103,0.4350,39.5400,69,99,276962
1.5152,0.4448,39.4100,69,99,276966
1.5591,0.4399,39.5400,69,99,276969
1.7644,0.4399,39.3800,69,99,276972
2.0626,0.4399,39.5100,69,99,276976
2.5122,0.4545,39.5400,69,99,276979
3.0694,0.4545,39.4800,69,99,276982
3.5777,0.4399,39.6700,69,99,276986
4.1251,0.4497,39.3500,69,99,276989
4.1544,0.4448,39.5100,69,99,276993
3.8759,0.4350,39.5700,69,99,276996
3.3138,0.4399,39.5700,69,99,277000
2.6393,0.4350,39.5700,69,99,277003
2.1261,0.4594,39.2800,69,99,277006
1.6569,0.4448,39.5400,69,99,277010
1.3734,0.4301,39.5700,69,99,277013
1.2072,0.4399,39.5400,69,99,277016
1.1241,0.4350,39.6700,69,99,277020
1.1486,0.4545,39.3800,69,99,277023
1.1290,0.4448,39.4800,69,99,277026
1.1632,0.4448,39.4400,69,99,277030
1.1877,0.4399,39.5700,69,99,277033
1.2219,0.4350,39.5700,69,99,277037
1.2610,0.4497,39.4400,69,99,277040
1.2512,0.4399,39.5400,69,99,277044
1.2903,0.4497,39.4100,69,99,277047
1.2854,0.4399,39.6400,69,99,277050
1.3685,0.4399,39.5400,69,99,277055
1.3930,0.4399,39.5700,69,99,277058
1.4027,0.4448,39.5700,69,99,277062
1.4125,0.4399,39.5700,69,99,277065
1.4370,0.4545,39.4100,69,99,277068
1.4370,0.4448,39.4800,69,99,277072
1.4370,0.4350,39.5700,69,99,277075
1.4614,0.4399,39.5100,69,99,277079
1.4712,0.4399,39.5700,69,99,277083
1.5298,0.4741,39.2800,69,99,277086
1.5103,0.4448,39.4800,69,99,277089
1.5152,0.4497,39.5400,69,99,277093
1.5298,0.4399,39.5700,69,99,277096
1.5591,0.4350,39.6400,69,99,277099
1.6227,0.4497,39.4100,69,99,277103
1.5982,0.4448,39.4800,69,99,277106
1.6080,0.4448,39.4400,69,99,277109
1.5982,0.4399,39.5700,69,99,277112
1.6227,0.4350,39.5700,69,99,277116
1.6667,0.4448,39.5100,69,99,277120
1.6764,0.4399,39.5700,69,99,277123
1.7058,0.4497,39.4800,69,99,277127
1.6764,0.4594,39.5700,69,99,277130
1.6960,0.4252,39.5700,69,99,277133
1.7351,0.4448,39.5400,69,99,277137
1.7253,0.4399,39.5700,69,99,277140
1.7693,0.4448,39.3800,69,99,277143
1.7498,0.4252,39.4800,69,99,277147
1.7644,0.4350,39.4800,69,99,277150
1.7986,0.4497,39.4800,69,99,277153
1.7889,0.4399,39.5100,69,99,277157
1.8817,0.4448,39.3200,69,99,277160
1.8328,0.4399,39.4400,69,99,277164
1.8377,0.4350,39.6400,69,99,277167
1.8573,0.4448,39.6400,69,99,277171
1.8622,0.4741,39.5400,69,99,277174
1.9501,0.4643,39.3200,69,99,277177
1.9257,0.4448,39.4800,69,99,277181
1.9550,0.4350,39.6000,69,99,277184
1.9697,0.4399,39.6000,69,99,277187
1.9941,0.4350,39.5700,69,99,277191
2.0723,0.4545,39.4100,69,99,277194
2.0674,0.4399,39.5700,69,99,277197
2.1163,0.4399,39.4400,69,99,277201
2.1310,0.4448,39.5700,69,99,277204
2.1701,0.4350,39.5700,69,99,277208
2.2287,0.4497,39.3800,69,99,277211
2.2287,0.4399,39.5700,69,99,277215
2.3167,0.4497,39.4100,69,99,277218
2.2972,0.4399,39.6400,69,99,277221
2.3314,0.4399,39.5700,69,99,277225
2.3754,0.4448,39.4400,69,99,277228
2.3607,0.4399,39.5100,69,99,277231
2.4096,0.4399,39.4100,69,99,277235
2.3851,0.4350,39.5400,69,99,277238
2.3998,0.4448,39.5700,69,99,277241
2.4145,0.4448,39.4100,69,99,277245
2.3607,0.4399,39.5100,69,99,277249
2.3656,0.4497,39.3500,69,99,277252
2.2678,0.4350,39.7000,69,99,277255
2.2239,0.4448,39.6400,69,99,277259
2.1750,0.4448,39.5100,69,99,277262
2.0723,0.4545,39.5700,69,99,277265
2.0626,0.4448,39.3500,69,99,277269
1.9355,0.4448,39.4800,69,99,277272
1.8622,0.4399,39.5400,69,99,277275
1.8084,0.4399,39.5700,69,99,277279
1.7498,0.4399,39.5700,69,99,277282
1.7840,0.4448,39.3800,69,99,277285
1.6618,0.4497,38.9600,69,99,277289
1.6178,0.4399,39.4800,69,99,277293
1.5885,0.4399,39.6400,69,99,277296
1.5787,0.4448,39.5400,69,99,277299
1.6031,0.4497,39.4100,69,99,277303
1.5640,0.4399,39.5100,69,99,277306
1.5640,0.4448,39.4400,69,99,277309
1.5347,0.4399,39.5700,69,99,277313
1.5396,0.4350,39.5700,69,99,277316
1.5738,0.4448,39.2500,69,99,277319
1.5738,0.4399,39.5400,69,99,277323
1.6031,0.4448,39.4400,69,99,277326
1.5738,0.4643,39.5700,69,99,277329
1.5934,0.4301,39.5700,69,99,277334
1.6276,0.4497,39.4800,69,99,277337
1.6080,0.4399,39.5700,69,99,277340
1.6569,0.4448,39.4100,69,99,277343
1.6520,0.4301,39.4400,69,99,277347
1.6618,0.4350,39.5700,69,99,277350
1.6813,0.4497,39.5100,69,99,277353
1.6716,0.4350,39.5700,69,99,277357
1.7351,0.4497,39.2800,69,99,277360
1.7155,0.4350,39.5100,69,99,277363
1.7058,0.4350,39.6700,69,99,277367
1.7204,0.4497,39.5400,69,99,277370
1.7204,0.4350,39.5700,69,99,277373
1.7840,0.4594,39.2800,69,99,277378
1.7546,0.4399,39.4800,69,99,277381
1.7595,0.4350,39.5700,69,99,277384
1.7546,0.4399,39.5400,69,99,277388
1.7449,0.4448,39.5400,69,99,277391
1.7986,0.4545,39.4400,69,99,277394
1.7840,0.4545,39.5100,69,99,277397
1.8035,0.4399,39.4400,69,99,277401
1.7937,0.4399,39.5700,69,99,277404
1.7986,0.4350,39.5700,69,99,277407
1.8280,0.4497,39.6000,69,99,277411
1.7937,0.4399,39.5400,69,99,277414
1.8280,0.4448,39.4100,69,99,277417
1.8035,0.4350,39.5100,69,99,277422
1.8328,0.4350,39.5700,69,99,277425
1.8231,0.4692,39.4800,69,99,277428
1.8035,0.4399,39.5400,69,99,277432
1.8280,0.4399,39.4100,69,99,277435
1.7986,0.4350,39.5100,69,99,277438
1.8133,0.4350,39.5700,69,99,277441
1.8328,0.4448,39.4100,69,99,277445
1.8035,0.4399,39.6000,69,99,277448
1.8426,0.4497,39.3500,69,99,277451
1.8084,0.4301,39.5400,69,99,277455
1.8231,0.4399,39.5700,69,99,277458
1.8475,0.4448,39.4800,69,99,277462
1.8328,0.4350,39.6400,69,99,277466
1.8817,0.4594,39.2800,69,99,277469
1.8377,0.4448,39.5400,69,99,277472
1.8328,0.4301,39.5400,69,99,277476
1.8475,0.4399,39.5400,69,99,277479
1.8524,0.4350,39.4800,69,99,277482
1.9013,0.4545,39.4400,69,99,277486
1.8524,0.4399,39.4800,69,99,277489
1.8817,0.4399,39.4800,69,99,277492
1.8524,0.4399,39.5700,69,99,277495
1.8573,0.4350,39.5400,69,99,277499
1.8964,0.4497,39.4100,69,99,277502
1.8671,0.4399,39.5700,69,99,277506
1.8817,0.4350,39.4100,69,99,277510
1.8377,0.4399,39.6700,69,99,277513
1.8426,0.4350,39.5400,69,99,277516
1.8671,0.4399,39.4800,69,99,277520
1.8524,0.4350,39.5700,69,99,277523
1.8817,0.4399,39.4100,69,99,277526
1.8475,0.4399,39.5400,69,99,277530
1.8573,0.4350,39.5700,69,99,277533
1.8768,0.4448,39.5100,69,99,277536
1.8573,0.4350,39.5700,69,99,277539
1.9062,0.4497,39.4100,69,99,277543
1.8719,0.4448,39.4400,69,99,277547
1.8573,0.4350,39.5400,69,99,277550
1.8622,0.4350,39.5100,69,99,277554
1.8622,0.4350,39.5700,69,99,277557
1.9208,0.4545,39.2800,69,99,277560
1.8768,0.4399,39.4800,69,99,277564
1.8719,0.4350,39.8000,69,99,277567
1.9062,0.4399,39.5400,69,99,277570
1.8719,0.4350,39.5700,69,99,277574
1.9355,0.4594,39.4100,69,99,277577
1.9013,0.4448,39.4800,69,99,277580
1.9013,0.4350,39.5100,69,99,277584
1.8817,0.4350,39.5700,69,99,277587
1.8768,0.4301,39.5700,69,99,277591
1.9159,0.4497,39.4800,69,99,277594
1.8866,0.4399,39.5400,69,99,277598
1.9159,0.4399,39.4400,69,99,277601
1.8915,0.4350,39.5100,69,99,277604
1.9013,0.4252,39.5700,69,99,277608
1.9110,0.4497,39.4400,69,99,277611
1.8817,0.4448,39.5400,69,99,277614
1.9257,0.4448,39.4400,69,99,277618
1.8964,0.4399,39.5100,69,99,277621
1.9062,0.4350,39.5700,69,99,277624
1.9159,0.4350,39.4800,69,99,277628
1.8768,0.4399,39.5400,69,99,277632
1.9257,0.4448,39.3500,69,99,277635
1.9306,0.4350,39.4800,69,99,277638
1.9013,0.4350,39.6000,69,99,277642
1.9257,0.4497,39.5100,69,99,277645
1.9013,0.4399,39.5700,69,99,277648
1.9404,0.4497,39.3800,69,99,277652
1.8964,0.4399,39.4800,69,99,277655
1.9159,0.4350,39.8600,69,99,277658
1.9306,0.4399,39.5400,70,99,277662
1.8866,0.4252,39.5700,70,99,277666
1.8915,0.4350,39.6700,70,99,277670
1.9062,0.4545,39.4100,70,99,277673
1.8573,0.4399,39.7300,70,99,277677
1.8866,0.4643,39.4100,70,99,277681
1.8817,0.4399,39.5700,70,99,277684
1.9208,0.4350,39.5100,70,99,277687
1.9795,0.4448,39.4800,70,99,277691
1.9746,0.4399,39.6700,70,99,277694
2.0137,0.4692,39.4100,70,99,277697
1.9795,0.4350,39.5400,70,99,277700
1.9941,0.4594,39.5400,70,99,277704
2.0332,0.4497,39.4400,70,99,277707
2.0283,0.4350,39.7000,70,99,277710
2.0772,0.4448,39.3500,70,99,277714
2.0283,0.4350,39.5700,70,99,277718
2.0283,0.4350,39.5700,70,99,277721
2.0332,0.4497,39.5700,70,99,277725
2.0283,0.4350,39.5700,70,99,277728
2.0821,0.4497,39.2800,70,99,277731
2.0332,0.4448,39.5100,70,99,277734
1.9990,0.4448,39.5700,70,99,277738
1.9844,0.4448,39.5700,70,99,277741
1.9648,0.4448,39.5700,70,99,277744
1.9990,0.4594,39.3500,70,99,277748
1.9257,0.4252,39.5100,70,99,277751
1.8915,0.4350,39.6000,70,99,277754
1.8622,0.4350,39.5400,70,99,277758
1.8475,0.4350,39.5700,70,99,277762
1.8915,0.4497,39.4100,70,99,277765
1.8671,0.4448,39.5100,70,99,277769
1.8817,0.4399,39.4100,70,99,277772
1.8524,0.4399,39.5700,70,99,277775
1.8475,0.4350,39.5400,70,99,277779
1.8817,0.4497,39.5100,70,99,277782
1.8622,0.4350,39.5700,70,99,277785
1.9062,0.4545,39.4800,70,99,277788
1.8768,0.4350,39.5400,70,99,277792
1.8817,0.4350,39.5400,70,99,277795
1.9062,0.4448,39.4400,70,99,277798
1.8768,0.4350,38.9300,70,99,277803
1.9159,0.4399,39.3800,70,99,277806
1.9013,0.4399,39.4800,70,99,277809
1.9062,0.4350,39.5700,70,99,277813
1.9159,0.4448,39.5400,70,99,277816
1.8964,0.4350,39.5400,70,99,277819
1.9501,0.4545,39.3200,70,99,277823
1.9257,0.4399,39.4400,70,99,277826
1.9306,0.4350,39.5700,70,99,277829
1.9550,0.4448,39.5100,70,99,277832
1.9306,0.4350,39.5700,70,99,277836
1.9844,0.4497,39.2800,70,99,277839
1.9355,0.4399,39.4400,70,99,277842
1.9550,0.4301,39.5400,70,99,277847
1.9453,0.4399,39.6400,70,99,277850
1.9355,0.4350,39.5400,70,99,277853
1.9550,0.4545,39.4800,70,99,277857
1.8622,0.4399,39.5100,70,99,277860
1.8866,0.4350,39.4800,70,99,277863
1.8622,0.4497,39.5700,70,99,277867
2.0039,0.4350,39.5700,70,99,277870
2.2972,0.4497,39.4400,70,99,277873
2.6735,0.4252,39.5400,70,99,277877
3.2111,0.4448,39.4100,70,99,277880
3.7243,0.4448,39.5400,70,99,277883
4.2375,0.4350,39.5400,70,99,277886
4.5552,0.4448,39.4800,70,99,277891
4.3695,0.4448,39.5700,70,99,277894
3.9541,0.4399,39.4400,70,99,277897
3.2356,0.4350,39.5700,70,99,277901
2.6246,0.4350,39.5700,70,99,277904
2.1603,0.4448,39.6700,70,99,277907
1.7937,0.4399,39.5700,70,99,277911
1.6080,0.4497,39.3500,70,99,277914
1.4418,0.4399,39.6000,70,99,277917
1.4027,0.4399,39.6000,70,99,277920
1.4223,0.4399,39.5400,70,99,277924
1.4565,0.4399,39.5700,70,99,277927
1.5298,0.4497,39.3200,70,99,277931
1.5298,0.4399,39.5100,70,99,277935
1.5836,0.4350,39.5700,70,99,277938
1.5591,0.4448,39.5100,70,99,277941
1.5885,0.4350,39.5700,70,99,277945
1.6569,0.4594,39.3500,70,99,277948
1.6618,0.4448,39.5100,70,99,277951
1.6471,0.4350,39.0600,70,99,277955
1.6471,0.4448,39.5400,70,99,277958
1.6569,0.4350,39.5700,70,99,277961
1.7155,0.4497,39.3800,70,99,277964
1.7009,0.4252,39.5400,70,99,277968
1.7351,0.4448,39.4400,70,99,277971
1.7155,0.4350,39.3200,70,99,277975
1.7302,0.4399,39.7300,70,99,277979
1.7595,0.4497,39.5100,70,99,277982
1.7595,0.4350,39.5400,70,99,277985
1.8084,0.4497,39.4800,70,99,277989
1.7840,0.4350,39.5700,70,99,277992
1.7986,0.4350,39.5400,70,99,277995
1.8231,0.4545,39.4800,70,99,277999
1.8133,0.4497,39.5700,70,99,278002
1.8671,0.4448,39.3800,70,99,278005
1.8622,0.4399,39.5100,70,99,278009
1.8671,0.4350,39.5400,70,99,278012
1.8719,0.4545,39.5400,70,99,278016
1.8719,0.4399,39.5400,70,99,278019
1.9306,0.4497,39.3200,70,99,278023
1.9306,0.4350,39.5100,70,99,278026
1.9159,0.4252,39.5700,70,99,278029
1.9306,0.4399,39.5100,70,99,278033
1.9257,0.4252,39.5400,70,99,278036
1.9892,0.4594,39.3200,70,99,278039
1.9501,0.4448,39.4400,70,99,278043
1.9599,0.4350,39.5100,70,99,278046
1.9648,0.4399,39.5400,70,99,278049
1.9697,0.4350,39.6000,70,99,278053
2.0186,0.4448,39.4400,70,99,278056
1.9844,0.4399,39.5400,70,99,278060
2.0137,0.4399,39.4800,70,99,278064
2.0088,0.4350,39.5700,70,99,278067
2.0332,0.4350,39.7700,70,99,278070
2.0821,0.4545,39.3800,70,99,278073
2.0479,0.4350,39.6400,70,99,278077
2.0821,0.4692,39.4100,70,99,278080
2.0626,0.4399,39.5400,70,99,278083
2.0870,0.4350,39.5700,70,99,278087
2.1457,0.4448,39.7000,70,99,278090
2.1310,0.4399,39.5400,70,99,278093
2.1848,0.4399,39.4100,70,99,278097
2.1554,0.4350,39.4800,70,99,278100
2.1994,0.4350,39.5700,70,99,278104
2.2434,0.4448,39.4400,70,99,278107
2.2581,0.4741,39.5400,70,99,278111
2.3363,0.4252,39.3500,70,99,278114
2.3118,0.4399,39.5400,70,99,278117
2.3509,0.4350,39.5700,70,99,278121
2.3949,0.4399,39.5400,70,99,278124
2.4242,0.4448,39.7000,70,99,278127
2.5318,0.4545,39.3200,70,99,278131
2.5073,0.4448,39.4800,70,99,278134
2.5073,0.4545,39.6400,70,99,278137
2.5220,0.4399,39.7700,70,99,278141
2.5367,0.4594,39.5400,70,99,278145
2.6393,0.4643,39.3500,70,99,278148
2.5855,0.4399,39.5100,70,99,278151
2.5953,0.4350,39.4800,70,99,278155
2.5611,0.4399,39.7300,70,99,278158
2.5367,0.4399,39.5700,70,99,278161
2.5513,0.4497,39.4100,70,99,278165
2.4682,0.4497,39.5100,70,99,278168
2.4340,0.4448,39.4400,70,99,278171
2.3216,0.4350,39.5400,70,99,278175
2.2385,0.4350,39.5700,70,99,278178
2.1848,0.4399,39.5100,70,99,278181
2.1017,0.4399,39.5400,70,99,278185
2.0674,0.4448,39.5400,70,99,278189
1.9795,0.4350,39.5700,70,99,278192
1.9062,0.4350,39.3800,70,99,278195
1.8622,0.4790,39.4400,70,99,278199
1.7840,0.4350,39.8000,70,99,278202
1.7840,0.4448,39.3800,70,99,278205
1.7302,0.4399,39.4800,70,99,278209
1.7204,0.4350,39.5700,70,99,278212
1.7058,0.4350,39.4800,70,99,278215
1.6764,0.4350,39.5700,70,99,278219
1.7107,0.4497,39.2800,70,99,278222
1.6862,0.4399,39.4800,70,99,278225
1.6911,0.4350,39.7300,70,99,278230
1.7107,0.4448,39.5400,70,99,278233
1.7009,0.4350,39.5700,70,99,278236
1.7546,0.4545,39.3500,70,99,278239
1.7253,0.4399,39.4800,70,99,278243
1.7351,0.4301,39.5100,70,99,278246
1.7498,0.4399,39.5400,70,99,278249
1.7400,0.4399,39.5400,70,99,278253
1.7840,0.4594,39.4100,70,99,278256
1.7546,0.4399,39.5100,70,99,278259
1.7742,0.4399,39.4100,70,99,278263
1.7693,0.4350,39.5100,70,99,278266
1.7937,0.4301,39.5400,70,99,278269
1.8133,0.4448,39.4400,70,99,278274
1.8231,0.4448,39.4800,70,99,278278
1.8035,0.4399,39.5700,70,99,278282
1.8280,0.4448,39.3800,70,99,278285
1.7840,0.4399,39.5100,70,99,278288
1.7889,0.4350,39.6000,70,99,278292
1.8182,0.4448,39.5100,70,99,278295
1.8035,0.4643,39.5400,70,99,278298
1.8671,0.4497,39.2800,70,99,278301
1.8133,0.4448,39.5100,70,99,278305
1.8377,0.4350,39.5700,70,99,278308
1.8475,0.4399,39.5400,70,99,278311
1.8524,0.4350,39.5700,70,99,278316
1.9208,0.4594,39.3800,70,99,278319
1.8768,0.4350,39.5100,70,99,278322
1.8768,0.4350,39.4100,70,99,278326
1.9062,0.4399,39.5700,70,99,278329
1.8915,0.4350,39.6400,70,99,278332
1.9404,0.4545,39.3500,70,99,278336
1.9062,0.4399,39.6000,70,99,278339
1.9257,0.4497,39.4400,70,99,278342
1.9062,0.4350,39.5700,70,99,278346
1.9208,0.4350,39.5100,70,99,278349
1.9648,0.4448,39.4400,70,99,278352
1.9599,0.4350,39.5100,70,99,278355
1.9990,0.4545,39.4400,70,99,278360
1.9599,0.4252,39.5700,70,99,278363
1.9550,0.4399,39.5400,70,99,278366
1.9648,0.4252,39.4400,70,99,278370
1.9501,0.4350,39.5700,70,99,278373
1.9941,0.4350,39.3800,70,99,278376
1.9599,0.4350,39.5400,70,99,278380
1.9648,0.4399,39.5700,70,99,278383
1.9746,0.4448,39.5100,70,99,278386
1.9550,0.4350,39.5400,70,99,278390
2.0137,0.4497,39.3200,70,99,278393
1.9844,0.4643,39.4800,70,99,278396
1.9697,0.4350,39.5700,70,99,278400
1.9648,0.4399,39.5400,70,99,278404
1.9795,0.4301,39.5700,70,99,278407
2.0088,0.4545,39.3200,70,99,278410
1.9501,0.4497,39.4800,70,99,278414
1.9550,0.4301,39.5100,70,99,278417
1.9501,0.4448,39.5700,70,99,278420
1.9697,0.4399,39.5700,70,99,278424
1.9844,0.4545,39.4100,70,99,278427
1.9501,0.4399,39.5100,70,99,278430
1.9599,0.4399,39.5100,70,99,278434
1.9404,0.4350,39.5400,70,99,278437
1.9355,0.4350,39.5700,70,99,278440
1.9550,0.4448,39.5700,70,99,278444
1.9159,0.4399,39.5400,70,99,278448
1.9599,0.4448,39.4400,70,99,278451
1.9208,0.4594,39.5400,70,99,278454
1.9648,0.4350,39.4800,70,99,278458
1.9697,0.4497,39.3200,70,99,278461
1.9306,0.4350,39.5400,70,99,278464
1.9550,0.4399,39.5100,70,99,278468
1.9159,0.4350,39.4800,70,99,278471
1.9306,0.4350,39.5400,70,99,278474
1.9501,0.4448,39.4800,70,99,278478
1.9208,0.4350,39.5700,70,99,278481
1.9550,0.4448,39.3500,70,99,278484
1.9110,0.4448,39.5700,70,99,278488
1.9453,0.4399,39.5700,70,99,278492
1.9550,0.4448,39.5400,70,99,278495
1.9453,0.4399,39.5700,70,99,278498
1.9990,0.4497,39.4100,70,99,278502
1.9355,0.4350,39.4800,70,99,278505
1.9404,0.4350,40.0000,70,99,278508
1.9404,0.4643,39.5400,70,99,278512
1.9306,0.4350,39.5400,70,99,278515
2.0039,0.4839,39.3500,70,99,278518
1.9501,0.4497,39.5100,70,99,278522
1.9404,0.4350,39.5100,70,99,278525
1.9355,0.4350,39.5700,70,99,278529
1.9501,0.4350,39.5700,70,99,278532
2.0088,0.4497,39.3500,70,99,278536
1.9941,0.4399,39.5400,70,99,278539
2.0186,0.4399,38.7400,70,99,278542
1.9990,0.4350,39.5400,70,99,278546
2.0039,0.4350,39.5400,70,99,278549
2.0577,0.4448,39.4400,70,99,278552
2.0430,0.4399,39.5400,70,99,278556
2.0821,0.4497,39.4400,70,99,278559
2.0283,0.4350,39.5700,70,99,278562
2.0283,0.4301,39.6700,70,99,278566
2.0479,0.4399,39.4400,70,99,278569
2.0870,0.4350,39.5400,70,99,278573
2.1065,0.4399,39.4100,70,99,278576
2.0626,0.4350,39.5100,70,99,278580
2.0674,0.4350,39.5700,70,99,278583
2.0870,0.4448,39.5400,70,99,278586
2.0626,0.4301,39.5400,70,99,278590
2.1065,0.4301,39.3500,70,99,278593
2.0821,0.4399,39.4400,70,99,278596
2.0528,0.4350,39.5700,70,99,278599
2.0283,0.4497,39.5100,70,99,278603
1.9795,0.4252,39.5700,70,99,278606
1.9990,0.4497,39.3800,70,99,278609
1.9404,0.4399,39.4800,70,99,278614
1.9306,0.4350,39.6700,70,99,278617
1.9355,0.4350,39.5100,70,99,278620
1.9208,0.4350,39.5700,70,99,278624
1.9697,0.4594,39.2800,70,99,278627
1.9257,0.4252,39.5100,70,99,278630
1.9306,0.4350,39.4800,70,99,278634
1.9599,0.4399,39.5400,70,99,278637
1.9306,0.4350,39.5700,70,99,278640
1.9648,0.4545,39.4100,70,99,278643
1.9257,0.4399,39.5400,70,99,278647
1.9404,0.4399,39.5400,70,99,278650
1.9257,0.4399,39.5400,70,99,278653
1.9355,0.4350,39.7000,70,99,278658
1.9648,0.4497,39.3800,70,99,278661
1.9208,0.4350,39.5700,70,99,278664
1.9501,0.4643,39.4100,70,99,278668
1.9208,0.4252,39.5400,70,99,278671
1.9404,0.4350,39.6000,70,99,278674
1.9648,0.4497,39.4400,70,99,278678
1.9501,0.4350,39.5700,70,99,278681
1.9746,0.4399,39.4100,70,99,278684
1.9355,0.4252,39.5400,70,99,278687
1.9404,0.4350,39.5400,70,99,278691
1.9648,0.4448,39.4400,70,99,278694
1.9453,0.4350,39.6700,70,99,278697
1.9892,0.4545,39.3200,70,99,278702
1.9355,0.4301,39.5400,70,99,278705
1.9404,0.4301,39.5700,70,99,278708
1.9355,0.4399,39.5400,70,99,278712
1.9013,0.4301,39.5700,70,99,278715
1.9159,0.4448,39.2500,70,99,278718
1.8328,0.4399,39.5100,70,99,278722
1.8622,0.4301,39.5400,70,99,278725
1.9501,0.4497,39.5100,70,99,278728
2.2434,0.4350,39.5700,70,99,278732
2.6833,0.4497,39.4400,70,99,278735
3.1574,0.4350,39.5100,70,99,278738
3.7292,0.4399,39.4800,70,99,278742
4.2082,0.4448,39.5700,70,99,278746
4.4966,0.4350,39.5700,70,99,278749
4.4282,0.4448,39.4400,70,99,278752
3.9101,0.4350,39.5400,70,99,278756
3.2991,0.4448,39.4800,70,99,278759
2.6344,0.4350,39.5400,70,99,278762
2.1505,0.4350,39.5700,70,99,278766
1.8182,0.4350,39.5400,70,99,278769
1.5885,0.4448,39.5400,70,99,278772
1.4956,0.4399,39.4400,70,99,278776
1.4125,0.4594,39.5700,70,99,278779
1.4125,0.4301,39.6000,70,99,278782
1.4418,0.4448,39.4800,70,99,278786
1.4565,0.4350,39.5700,70,99,278790
1.5347,0.4448,39.2800,70,99,278793
1.5591,0.4399,39.4400,70,99,278796
1.5787,0.4350,39.5700,70,99,278800
1.6373,0.4350,39.5100,70,99,278803
1.6129,0.4350,39.5700,70,99,278806
1.6764,0.4497,39.2800,70,99,278810
1.6618,0.4399,39.4800,70,99,278813
1.6862,0.4350,39.5400,70,99,278816
1.7107,0.4350,39.5400,70,99,278820
1.7107,0.4350,39.5700,70,99,278823
1.7742,0.4643,39.3500,70,99,278827
1.7449,0.4448,39.4400,70,99,278831
1.7644,0.4301,39.4800,70,99,278834
1.7742,0.4350,39.5700,70,99,278837
1.8182,0.4350,39.5400,70,99,278840
1.8280,0.4448,39.4400,70,99,278844
1.8035,0.4350,39.4400,70,99,278847
1.8377,0.4643,39.4400,70,99,278850
1.8328,0.4350,39.5400,70,99,278854
1.8622,0.4301,39.5700,70,99,278857
1.8964,0.4497,39.4400,70,99,278860
1.8817,0.4350,39.5400,70,99,278864
1.9062,0.4448,39.4400,70,99,278867
1.8817,0.4497,39.5100,70,99,278871
1.8964,0.4350,39.5400,70,99,278875
1.9306,0.4594,39.5700,70,99,278878
1.9257,0.4350,39.5700,70,99,278881
1.9599,0.4399,39.3500,70,99,278884
2.0137,0.4497,39.3500,70,99,278889
1.9550,0.4448,39.4400,70,99,278892
1.9501,0.4252,39.5400,70,99,278896
1.9453,0.4643,39.5100,70,99,278899
1.9550,0.4350,39.6700,70,99,278902
2.0235,0.4545,39.3800,70,99,278906
1.9941,0.4399,39.5400,70,99,278909
2.0039,0.4350,39.4800,70,99,278913
1.9990,0.4399,39.5700,70,99,278917
2.0186,0.4350,39.5400,70,99,278920
2.0821,0.4497,39.3500,70,99,278923
2.0723,0.4252,39.5400,70,99,278927
2.1114,0.4399,39.4100,70,99,278930
2.1017,0.4594,39.5400,70,99,278933
2.1359,0.4350,39.5400,70,99,278936
2.1896,0.4497,39.5400,70,99,278940
2.1896,0.4301,39.5400,70,99,278943
2.2532,0.4448,39.4400,70,99,278946
2.2287,0.4301,39.4800,70,99,278950
2.2532,0.4399,39.5400,70,99,278953
2.3069,0.4399,39.8300,70,99,278957
2.3265,0.4399,39.5400,70,99,278961
2.4096,0.4399,39.3500,70,99,278964
2.3998,0.4741,39.5400,70,99,278967
2.4487,0.4350,39.5400,70,99,278971
2.4682,0.4399,39.1900,70,99,278974
2.4731,0.4252,39.5700,70,99,278977
2.5855,0.4497,39.4100,70,99,278980
2.5709,0.4448,39.4800,70,99,278984
2.5806,0.4252,39.5700,70,99,278987
2.5855,0.4399,39.5400,70,99,278990
2.5904,0.4301,39.5400,70,99,278994
2.6491,0.4594,39.3200,70,99,278998
2.5758,0.4350,39.5100,70,99,279001
2.5611,0.4252,39.5100,70,99,279005
2.5220,0.4350,39.5400,70,99,279008
2.4927,0.4301,39.5700,70,99,279011
2.4536,0.4497,39.4800,70,99,279015
2.3412,0.4497,39.5100,70,99,279018
2.2825,0.4399,39.4400,70,99,279021
2.1896,0.4350,39.5700,70,99,279024
2.1114,0.4350,39.5700,70,99,279028
2.0577,0.4448,39.4800,70,99,279031
1.9550,0.4301,39.5100,70,99,279034
1.9208,0.4448,39.4400,70,99,279038
1.8377,0.4399,39.5700,70,99,279042
1.8035,0.4350,39.5700,70,99,279045
1.7937,0.4448,39.5400,70,99,279049
1.7204,0.4350,39.5400,70,99,279052
1.7204,0.4399,39.4100,70,99,279055
1.6716,0.4350,39.4800,70,99,279059
1.6667,0.4350,39.5700,70,99,279062
1.6813,0.4790,39.4400,70,99,279065
1.6716,0.4350,39.5400,70,99,279068
1.7009,0.4448,39.3800,70,99,279072
1.6618,0.4350,39.4800,70,99,279075
1.6667,0.4350,39.5700,70,99,279078
1.6911,0.4448,39.4800,70,99,279083
1.6862,0.4399,39.5700,70,99,279086
1.7498,0.4497,39.2800,70,99,279089
1.7058,0.4399,39.4800,70,99,279093
1.7155,0.4301,39.5400,70,99,279096
1.7204,0.4448,39.5400,70,99,279099
1.7351,0.4350,39.5700,70,99,279103
1.7986,0.4545,39.3800,70,99,279106
1.7742,0.4350,39.4800,70,99,279109
1.7693,0.4350,39.4800,70,99,279112
1.7644,0.4399,39.5400,70,99,279116
1.7791,0.4252,39.5400,70,99,279119
1.8280,0.4448,39.3800,70,99,279122
1.7986,0.4399,39.5400,70,99,279127
1.8231,0.4399,39.4800,70,99,279130
1.7986,0.4301,39.5400,70,99,279133
1.8035,0.4350,39.5700,70,99,279137
1.8475,0.4594,39.4400,70,99,279140
1.8426,0.4252,39.5400,70,99,279143
1.8866,0.4448,39.4100,70,99,279147
1.8426,0.4252,39.5400,70,99,279150
1.8573,0.4350,39.6000,70,99,279153
1.8768,0.4350,39.4400,70,99,279157
1.8768,0.4350,39.5700,70,99,279160
1.9306,0.4399,39.3800,70,99,279163
1.9062,0.4350,39.5700,70,99,279166
1.9159,0.4350,38.9600,70,99,279171
1.9355,0.4497,39.4800,70,99,279174
1.9110,0.4350,39.5100,70,99,279177
1.9941,0.4497,39.3200,70,99,279181
1.9550,0.4399,39.5700,70,99,279184
1.9453,0.4497,39.5400,70,99,279187
