ecg,gsr,temp,hr,spo2,timest
1.8964,0.1760,38.3000,77,90,3
1.9795,0.1808,38.1100,77,90,6
1.9453,0.1808,38.3300,77,90,8
1.9159,0.1760,38.2700,77,90,11
1.9355,0.1955,38.0800,77,90,14
1.8573,0.1760,38.2400,77,90,17
1.8964,0.1711,38.3000,77,90,20
1.9746,0.1760,38.1500,77,90,23
1.9746,0.1808,38.3300,77,90,26
1.9990,0.1808,38.2100,77,90,29
1.9062,0.1808,37.5300,77,90,32
1.8475,0.1760,38.3000,77,90,35
1.8622,0.1711,38.0200,77,90,38
1.8573,0.1760,38.3300,77,90,41
1.8915,0.1857,38.3000,77,90,45
1.9453,0.1906,38.1100,77,90,48
1.8622,0.1808,38.2400,77,90,51
1.7937,0.1955,38.3300,77,90,54
1.7742,0.1760,38.1800,77,90,57
1.7840,0.1760,38.3000,77,90,60
1.8182,0.1760,38.2400,77,90,63
1.8328,0.1808,38.3000,77,90,66
1.8182,0.2102,38.2700,77,90,69
1.8035,0.1808,38.0500,77,90,72
1.7155,0.1662,38.2700,77,90,75
1.7058,0.1711,38.3000,77,90,78
1.8084,0.1808,38.1800,77,90,81
1.8035,0.1808,38.2400,77,90,84
1.8133,0.1808,38.3000,77,90,88
1.8035,0.1857,38.1800,77,90,91
1.7449,0.1760,38.3000,77,90,94
1.7351,0.1760,38.2100,77,90,97
1.7204,0.1760,38.3000,77,90,99
1.7644,0.1808,38.2700,77,90,102
1.8622,0.1955,38.0500,77,90,105
1.8280,0.1857,38.1800,77,90,108
1.7889,0.1760,38.4300,77,90,111
1.7693,0.1857,38.1800,77,90,115
1.7498,0.1760,38.2100,77,90,118
1.7840,0.1711,38.2700,77,90,121
1.8328,0.1906,38.2700,77,90,124
1.8377,0.1808,38.3000,77,90,128
1.8524,0.1857,38.0800,77,90,131
1.7644,0.1515,38.2400,77,90,134
1.7302,0.1711,38.3000,77,90,137
1.7742,0.1857,38.2100,77,90,140
1.8231,0.1808,38.2400,77,90,143
1.8475,0.1760,38.2700,77,90,146
1.8524,0.1857,38.2700,77,90,149
1.7937,0.1711,38.3000,77,90,152
1.7791,0.1760,38.1100,77,90,155
1.7351,0.1662,38.2700,77,90,158
1.7791,0.1711,38.2100,77,90,161
1.8719,0.1955,38.1800,77,90,164
1.8964,0.1906,38.2400,77,90,167
1.8377,0.1711,38.3300,77,90,171
1.8035,0.1808,38.2700,77,90,174
1.7595,0.1711,38.2100,77,90,177
1.8133,0.1760,38.1800,77,90,180
1.8280,0.1808,38.3000,77,90,183
1.8573,0.1711,38.3000,77,90,186
1.9159,0.2004,38.0800,77,90,189
1.8280,0.1760,38.1500,77,90,192
1.7840,0.1711,38.4000,77,90,195
1.7986,0.1808,38.3000,77,90,198
1.8182,0.1711,38.2700,77,90,201
1.8866,0.1808,38.1500,77,90,204
1.8671,0.1808,38.2700,77,90,207
1.8280,0.1760,38.3000,77,90,210
1.8231,0.1857,38.0500,77,90,214
1.7449,0.1857,38.2700,77,90,217
1.7742,0.1760,38.3000,77,90,220
1.8377,0.1857,38.1800,77,90,223
1.8524,0.1808,38.3000,77,90,226
1.8622,0.1808,38.2100,77,90,229
1.7986,0.1808,38.2400,77,90,232
1.7498,0.1760,38.3000,77,90,236
1.7937,0.1857,38.0500,77,90,239
1.7937,0.1760,38.3000,77,90,242
1.8475,0.1808,38.3000,77,90,245
1.8866,0.1906,38.1800,77,90,248
1.8231,0.1906,38.2700,77,90,251
1.7840,0.1808,38.3000,77,90,254
1.7644,0.1662,38.2700,77,90,258
1.7791,0.1760,38.3300,77,90,261
1.8622,0.1808,38.0800,77,90,264
1.8524,0.1808,38.2700,77,90,267
1.8377,0.1808,38.4600,77,90,270
1.8231,0.1955,38.1500,77,90,273
1.7546,0.1515,38.2700,77,90,276
1.7644,0.1613,37.6500,77,90,279
1.8182,0.1808,38.2100,77,90,282
1.8475,0.1808,38.3000,77,90,285
1.8768,0.1711,38.1500,77,90,288
1.8133,0.1760,38.2100,77,90,291
1.7693,0.1906,38.2700,77,90,294
1.7937,0.2151,38.1100,77,90,297
1.7889,0.1760,38.2700,77,90,301
1.8377,0.1760,38.2100,77,90,304
1.8768,0.1906,38.2400,77,90,307
1.8231,0.2004,38.3000,77,90,310
1.8035,0.1857,38.2100,77,90,313
1.7400,0.1711,38.3000,77,90,316
1.7595,0.1711,38.3000,77,90,319
1.8573,0.1906,38.1100,77,90,322
1.8475,0.1808,38.3000,77,90,325
1.8524,0.1955,38.2700,77,90,328
1.8475,0.1857,38.1800,77,90,331
1.7986,0.1760,38.2700,77,90,334
1.7791,0.1711,38.1800,77,90,337
1.7889,0.1760,38.5200,77,90,340
1.8377,0.2053,38.3600,77,90,344
1.8964,0.2053,38.0200,77,90,347
1.8182,0.1857,38.3000,77,90,350
1.7742,0.1760,38.3300,77,90,353
1.7351,0.1515,38.1800,77,90,357
1.7351,0.1711,38.3300,77,90,360
1.7986,0.1857,38.1500,77,90,363
1.8231,0.1808,38.3000,77,90,366
1.8280,0.1808,38.3000,77,90,369
1.8280,0.1857,38.0500,77,90,372
1.7400,0.1760,38.2700,77,90,375
1.7449,0.1711,38.3000,77,90,378
1.8035,0.1711,38.2400,77,90,381
1.8426,0.1857,38.3000,77,90,385
1.8573,0.1760,38.2700,77,90,388
1.8231,0.1906,38.2700,77,90,391
1.7742,0.1711,38.3000,77,90,394
1.7791,0.1760,38.0800,77,90,397
1.7595,0.1711,38.3000,77,90,400
1.8084,0.1760,38.3000,77,90,403
1.8671,0.1906,38.2400,77,90,406
1.8328,0.1857,38.4600,77,90,409
1.7840,0.2151,38.2700,77,90,412
1.7595,0.1760,38.2700,77,90,415
1.7546,0.1515,38.3000,77,90,418
1.8182,0.1760,38.1100,77,90,421
1.8377,0.2053,38.2700,77,90,424
1.8524,0.1808,38.3000,77,90,428
1.8671,0.1955,38.1800,77,90,431
1.7791,0.1760,38.3000,77,90,434
1.7449,0.1515,38.3000,77,90,437
1.7791,0.1808,38.2400,77,90,440
1.8231,0.1808,38.3000,77,90,443
1.8817,0.1906,38.2400,77,90,446
1.8328,0.1808,38.3000,77,90,449
1.8084,0.1711,38.3300,77,90,452
1.8133,0.1906,38.0500,77,90,455
1.7791,0.1760,38.2100,77,90,458
1.8133,0.1515,38.3300,77,90,461
1.8719,0.1857,38.2100,77,90,464
1.8768,0.1808,38.2700,77,90,467
1.8573,0.1857,38.2100,77,90,471
1.7742,0.1760,38.3000,77,90,474
1.7595,0.1711,38.3000,77,90,477
1.8328,0.1808,37.9900,77,90,481
1.8475,0.1857,38.2400,77,90,484
1.8719,0.1857,38.3300,77,90,487
1.8768,0.1857,38.2100,77,90,490
1.8328,0.1808,38.2400,77,90,493
1.8182,0.1711,38.1500,77,90,496
1.8426,0.1808,38.3000,77,90,499
1.8915,0.1760,38.3300,77,90,502
1.9990,0.1857,38.0500,77,90,505
1.9697,0.1808,38.2400,77,90,508
1.9355,0.1760,38.2400,77,90,512
1.9257,0.1808,38.2100,77,90,515
1.9013,0.1760,38.2400,77,90,518
1.9355,0.1711,38.2400,77,90,521
1.9892,0.1808,38.3000,77,90,524
2.0186,0.1808,38.2700,77,90,527
2.0626,0.1808,38.0800,77,90,530
1.9501,0.1808,38.3000,77,90,533
1.9208,0.1613,38.3000,77,90,536
1.9550,0.1808,38.1800,77,90,539
1.9697,0.1857,38.2400,77,90,542
1.9697,0.1808,38.3600,77,90,545
1.9550,0.1857,38.2100,77,90,548
1.8768,0.1760,38.2700,77,90,551
1.8475,0.1760,38.1500,77,90,555
1.7791,0.1515,38.3000,77,90,558
1.7937,0.1711,38.3000,77,90,561
1.8719,0.1955,38.1100,77,90,564
1.8328,0.1857,38.2100,77,90,567
1.7937,0.1711,38.3300,77,90,570
1.7351,0.1808,38.2400,77,90,573
1.6813,0.1711,38.2400,77,90,576
1.7155,0.1808,38.1800,77,90,579
1.7253,0.1760,38.3000,77,90,582
1.7546,0.1808,38.3300,77,90,585
1.7937,0.1955,38.0200,77,90,588
1.7009,0.1711,38.2400,77,90,591
1.6716,0.1711,38.3300,77,90,594
1.6862,0.1711,38.1800,77,90,598
1.7155,0.1760,38.3000,77,90,602
1.7889,0.1515,38.1800,77,90,605
1.7889,0.1808,38.2100,77,90,608
1.7595,0.1955,38.3000,77,90,611
1.7546,0.1906,38.0500,77,90,614
1.8328,0.2004,38.1500,77,90,617
1.7791,0.1760,38.3000,77,90,620
1.8231,0.1711,38.3000,77,90,623
1.9599,0.1808,38.3000,77,90,627
2.1603,0.1760,38.3300,77,90,630
2.4389,0.1857,38.1800,77,90,633
2.6344,0.1808,38.2700,77,90,636
2.8592,0.1711,38.3000,77,90,640
3.0792,0.2004,38.2100,77,90,643
3.2502,0.1711,38.3000,77,90,646
3.4213,0.1760,38.2100,77,90,649
3.3675,0.1760,38.3000,77,90,653
3.1232,0.1808,38.3000,77,90,656
2.8446,0.1906,38.0800,77,90,659
2.3803,0.1515,38.2400,77,90,662
2.0332,0.1711,38.4000,77,90,665
1.7791,0.1906,38.2400,77,90,668
1.5689,0.1808,38.3600,77,90,671
1.4370,0.2151,38.1100,77,90,675
1.2708,0.1760,38.3300,77,90,678
1.1877,0.1760,38.3000,77,90,681
1.1779,0.1808,38.1800,77,90,685
1.2170,0.1760,38.2700,77,90,688
1.3294,0.1808,38.1500,77,90,691
1.3783,0.1808,38.0500,77,90,694
1.4076,0.2053,38.3000,77,90,697
1.4663,0.1906,38.1500,77,90,701
1.4565,0.1906,38.2400,77,90,704
1.5152,0.1662,38.2700,77,90,707
1.5934,0.1808,38.2100,77,90,710
1.6422,0.1808,38.3000,77,90,713
1.6813,0.1857,38.0200,77,90,716
1.6520,0.1760,38.1800,77,90,719
1.6031,0.1515,38.3000,77,90,723
1.6422,0.1760,38.2100,77,90,727
1.6960,0.1760,38.3000,77,90,730
1.7595,0.1857,38.1100,77,90,733
1.7546,0.1808,38.2700,77,90,736
1.6862,0.1760,38.4300,77,90,739
1.6911,0.1906,38.1800,77,90,742
1.6716,0.1760,38.2700,77,90,745
1.7204,0.1760,38.3000,77,90,749
1.7742,0.1808,38.3000,77,90,752
1.7742,0.1808,38.3600,77,90,755
1.7791,0.1808,38.0500,77,90,758
1.7009,0.1711,38.2700,77,90,761
1.7400,0.1711,38.3000,77,90,764
1.7791,0.1760,38.1800,77,90,768
1.8182,0.1808,37.6200,77,90,772
1.8915,0.1906,38.1800,77,90,775
1.8182,0.1808,38.1500,77,90,778
1.7986,0.1760,38.3000,77,90,781
1.8133,0.1808,38.1100,77,90,784
1.8573,0.1760,38.2400,77,90,787
1.8817,0.1760,38.2400,77,90,790
1.9062,0.1857,38.2700,77,90,794
1.8768,0.1760,38.3000,77,90,797
1.8817,0.1857,37.9900,77,90,800
1.8133,0.1515,38.2400,77,90,803
1.8622,0.1906,38.3300,77,90,806
1.9404,0.1808,38.2400,77,90,809
1.9599,0.2102,38.3600,77,90,813
1.9941,0.1808,38.1500,77,90,816
1.9110,0.1760,38.3300,77,90,820
1.9013,0.1760,38.3000,77,90,823
1.9404,0.1808,38.2100,77,90,826
1.9892,0.1808,38.2700,77,90,829
2.0430,0.1808,38.2100,77,90,832
2.0283,0.1808,38.2700,77,90,835
1.9941,0.1857,38.2700,77,90,838
2.0186,0.1808,37.9900,77,90,842
1.9941,0.1760,38.2400,77,90,845
2.0332,0.1711,38.3000,77,90,848
2.0968,0.2053,38.2400,77,90,851
2.0968,0.1760,38.3000,77,90,855
2.0968,0.1760,38.1500,77,90,858
2.0235,0.1760,38.5200,77,90,861
2.0283,0.1711,38.3000,77,90,864
2.0968,0.1857,38.2400,77,90,868
2.1261,0.1808,38.3300,77,90,871
2.1750,0.1857,38.2100,77,90,874
2.1212,0.1808,38.1500,77,90,877
2.0919,0.1711,38.3000,77,90,880
2.1163,0.1808,38.0200,77,90,883
2.0821,0.1808,38.2400,77,90,886
2.1310,0.1711,38.3000,77,90,890
2.1701,0.1955,38.1500,77,90,893
2.1065,0.1808,38.3000,77,90,897
2.0674,0.1760,38.1500,77,90,900
1.9844,0.1613,38.3000,77,90,903
1.9844,0.1711,38.3000,77,90,906
2.0430,0.1906,38.1500,77,90,909
2.0235,0.1808,38.3000,77,90,912
1.9941,0.1808,38.3000,77,90,916
1.8964,0.1760,38.2700,77,90,919
1.8133,0.1711,38.3000,77,90,922
1.8475,0.1906,38.0500,77,90,925
1.8231,0.1515,38.1800,77,90,928
1.8328,0.1760,38.3000,77,90,931
1.8133,0.1857,38.2400,77,90,934
1.7400,0.1760,38.3000,77,90,939
1.6960,0.1711,38.0800,77,90,942
1.6373,0.1711,38.2400,77,90,945
1.6618,0.1711,38.3000,77,90,948
1.7155,0.1955,38.2400,77,90,951
1.7058,0.1857,38.2700,77,90,954
1.6813,0.1808,38.0800,77,90,957
1.6080,0.1760,38.3000,77,90,961
1.5885,0.1711,38.4300,77,90,964
1.6618,0.1711,38.1100,77,90,967
1.6667,0.1808,38.1500,77,90,970
1.6813,0.1808,38.3000,77,90,973
1.6618,0.1857,38.3000,77,90,976
1.6178,0.1857,38.3600,77,90,979
1.6080,0.1760,38.0500,77,90,983
1.6031,0.1711,38.2400,77,90,987
1.6618,0.1760,38.3000,77,90,990
1.7107,0.1808,38.1500,77,90,993
1.7155,0.1906,38.3000,77,90,996
1.6764,0.1760,38.1800,77,90,999
1.6276,0.1711,38.3000,77,90,1002
1.6325,0.1711,38.3000,77,90,1005
1.7204,0.1857,38.1100,77,90,1009
1.7351,0.1808,38.3600,77,90,1012
1.7400,0.1760,38.2400,77,90,1015
1.6911,0.1808,38.2700,77,90,1018
1.6471,0.1711,38.3000,77,90,1021
1.7058,0.1906,38.0800,77,90,1026
1.7155,0.1760,38.2100,77,90,1029
1.7546,0.1760,38.3300,77,90,1032
1.7595,0.1857,38.2700,77,90,1035
1.7107,0.1808,38.3000,77,90,1038
1.7155,0.2102,38.0200,77,90,1042
1.6862,0.2004,38.2100,77,90,1045
1.7204,0.1760,38.3300,77,90,1048
1.8084,0.1857,38.2100,77,90,1051
1.7791,0.1808,38.2700,77,90,1054
1.8084,0.1808,38.0500,77,90,1058
1.7009,0.1906,38.2700,77,90,1061
1.7107,0.1760,38.2700,77,90,1064
1.7693,0.1760,38.2100,77,90,1068
1.8035,0.1808,38.3300,77,90,1071
1.8475,0.1906,38.1500,77,90,1074
1.7791,0.1808,38.3000,77,90,1078
1.7351,0.1760,38.3000,77,90,1081
1.7546,0.1760,38.1100,77,90,1084
1.7595,0.1711,38.3000,77,90,1087
1.8231,0.1711,38.1800,77,90,1090
1.8231,0.1857,38.3000,77,90,1094
1.7889,0.1760,38.3000,77,90,1097
1.7791,0.1906,38.3600,77,90,1100
1.7351,0.1808,38.1500,77,90,1103
1.7644,0.1662,38.2700,77,90,1106
1.8182,0.1906,38.3000,77,90,1111
1.8426,0.1906,38.3000,77,90,1114
1.8719,0.1955,37.9900,77,90,1117
1.7791,0.1808,38.2100,77,90,1120
1.7498,0.1711,38.3300,77,90,1123
1.7840,0.1760,38.0800,77,90,1127
1.8328,0.1760,38.3300,77,90,1130
1.8964,0.1857,38.0500,77,90,1133
1.8280,0.1808,38.2700,77,90,1136
1.7742,0.1711,38.3000,77,90,1139
1.7595,0.1760,38.1100,77,90,1142
1.7595,0.1711,38.3000,77,90,1146
1.8328,0.1760,38.1500,77,90,1149
1.8328,0.1906,38.3000,77,90,1153
1.8182,0.1808,38.2100,77,90,1156
1.7889,0.2004,38.1500,77,90,1159
1.7204,0.1760,38.2700,77,90,1163
1.7791,0.1711,38.1500,77,90,1166
1.7840,0.1711,38.3000,77,90,1169
1.8231,0.1808,38.3300,77,90,1172
1.8377,0.1906,38.2100,77,90,1175
1.7742,0.1808,38.2700,77,90,1179
1.7449,0.1711,38.1800,77,90,1182
1.7351,0.1711,38.3600,77,90,1185
1.7889,0.1760,38.3000,77,90,1188
1.8817,0.1906,38.1100,77,90,1191
1.8328,0.1906,38.3000,77,90,1196
1.7840,0.1711,38.2700,77,90,1199
1.7400,0.1760,38.3000,77,90,1202
1.7693,0.1760,38.3000,77,90,1205
1.8475,0.1857,38.0200,77,90,1208
1.8377,0.1808,38.2400,77,90,1212
1.8426,0.1808,38.3300,77,90,1215
1.8182,0.1857,38.2100,77,90,1218
1.7498,0.1711,38.3000,77,90,1221
1.7840,0.1515,38.0200,77,90,1224
1.7937,0.1760,38.2700,77,90,1228
1.8475,0.1808,38.2700,77,90,1231
1.8719,0.1955,38.1500,77,98,1234
1.8475,0.1808,38.1800,77,98,1240
1.8426,0.1808,38.4000,77,98,1243
1.8328,0.1808,38.0800,77,98,1246
1.7449,0.1711,38.3300,77,98,1249
1.7498,0.1711,38.2100,77,98,1252
1.8084,0.1760,38.1100,77,98,1255
1.8377,0.1808,38.2700,77,98,1259
1.8817,0.1857,38.1100,77,98,1262
1.8133,0.1760,38.2700,77,98,1265
1.7693,0.1760,38.3000,77,98,1268
1.7889,0.1808,38.1500,77,98,1271
1.8035,0.1760,38.3000,77,98,1275
1.8817,0.1808,38.1500,77,98,1278
1.8622,0.1515,38.2700,77,98,1282
1.8231,0.1760,38.3000,77,98,1285
1.8035,0.1857,38.2100,77,98,1288
1.7644,0.1760,38.2700,77,98,1292
1.7986,0.1711,38.1800,77,98,1295
1.8328,0.1808,38.4900,77,98,1298
1.8524,0.1808,38.3000,77,98,1301
1.8719,0.2004,38.0800,77,98,1304
1.7840,0.1808,38.2700,77,98,1307
1.7595,0.1662,38.3300,77,98,1311
1.7937,0.2102,38.2100,77,98,1314
1.8475,0.1808,38.2700,77,98,1317
1.9257,0.1955,37.9900,77,98,1320
1.8573,0.1857,38.3000,77,98,1324
1.8133,0.1711,38.3000,77,98,1328
1.8035,0.1906,38.1800,77,98,1331
1.8035,0.1711,38.3000,77,98,1334
1.8866,0.1906,38.0500,77,98,1337
1.8866,0.1760,38.3000,77,98,1340
1.8719,0.1808,38.2700,77,98,1344
1.8328,0.1857,38.1800,77,98,1347
1.7986,0.1760,38.3000,77,98,1350
1.8182,0.1711,38.2400,77,98,1353
1.8328,0.1760,38.3300,77,98,1356
1.8719,0.1808,38.3000,77,98,1360
1.8817,0.1906,38.2100,77,98,1363
1.8231,0.1808,38.2400,77,98,1367
1.7937,0.1515,38.1800,77,98,1370
1.7742,0.1711,38.2700,77,98,1373
1.8377,0.1808,38.2700,77,98,1376
1.9257,0.2004,38.1500,77,98,1380
1.8719,0.1857,38.2400,77,98,1383
1.8328,0.1711,38.2700,77,98,1386
1.7937,0.1711,38.3000,77,98,1389
1.7986,0.1711,38.3000,77,98,1392
1.8964,0.1906,38.0200,77,98,1396
1.9062,0.1515,38.2400,77,98,1399
1.9159,0.1808,38.3000,77,98,1402
1.8964,0.1857,38.2400,77,98,1405
1.8475,0.1711,38.3000,77,98,1409
1.9062,0.1760,38.0500,77,98,1413
1.9257,0.1515,38.3000,77,98,1416
1.9941,0.1808,38.3000,77,98,1419
2.0332,0.1906,38.2400,77,98,1422
1.9795,0.1760,38.3000,77,98,1425
1.9697,0.1711,38.1500,77,98,1429
1.9306,0.1760,38.2100,77,98,1432
1.9795,0.1711,38.1800,77,98,1435
2.0479,0.1857,38.3000,77,98,1438
2.0479,0.1808,38.3300,77,98,1441
2.0332,0.1808,38.4300,77,98,1444
1.9355,0.1711,38.3600,77,98,1448
1.9013,0.1662,38.3000,77,98,1452
1.9404,0.1906,38.2100,77,98,1455
1.9355,0.1857,38.3000,77,98,1458
1.9404,0.2151,38.1500,77,98,1461
1.8768,0.1808,38.3000,77,98,1465
1.7986,0.1760,38.3000,77,98,1468
1.7986,0.1906,38.1100,77,98,1471
1.7693,0.1515,38.2100,77,98,1474
1.8084,0.1515,38.3000,77,98,1477
1.8231,0.1857,38.2400,77,98,1481
1.7693,0.1808,38.3000,77,98,1484
1.7546,0.1857,37.9900,77,98,1487
1.6764,0.1662,38.1500,77,98,1490
1.7058,0.1760,38.2700,77,98,1494
1.7595,0.2151,38.2400,77,98,1498
1.7889,0.1711,38.3000,77,98,1501
1.7986,0.1857,38.0500,77,98,1504
1.7253,0.1760,38.1800,77,98,1507
1.6911,0.1711,38.3000,77,98,1510
1.7302,0.1760,38.4300,77,98,1514
1.7889,0.1760,38.0500,77,98,1517
1.8573,0.1808,38.1800,77,98,1520
1.8035,0.1808,38.3000,77,98,1523
1.7595,0.1515,38.3000,77,98,1526
1.7351,0.1808,38.2400,77,98,1529
1.7302,0.1711,38.3000,77,98,1533
1.8231,0.1808,38.1800,77,98,1537
1.8866,0.1808,38.2700,77,98,1540
1.9697,0.1857,38.3300,77,98,1543
2.0968,0.1857,38.1100,77,98,1546
2.2092,0.1808,38.2400,77,98,1550
2.4536,0.1711,38.2400,77,98,1553
2.7517,0.1760,38.2700,77,98,1556
3.0352,0.1662,38.3000,77,98,1559
3.3236,0.2102,37.9600,77,98,1562
3.3333,0.1711,38.1800,77,98,1566
3.2258,0.1711,38.2700,77,98,1569
3.0352,0.1760,38.2700,77,98,1572
2.7761,0.1760,38.3600,77,98,1575
2.5318,0.1857,38.1100,77,98,1579
2.1554,0.1857,38.2100,77,98,1583
1.8133,0.1760,38.3600,77,98,1586
1.5396,0.1857,38.2400,77,98,1589
1.3587,0.1760,38.3000,77,98,1592
1.3001,0.1711,38.0800,77,98,1595
1.2463,0.1808,38.2700,77,98,1598
1.2561,0.1808,38.2700,77,98,1602
1.2512,0.1808,38.1500,77,98,1605
1.2512,0.1711,38.3000,77,98,1608
1.3245,0.1808,38.1800,77,98,1611
1.3832,0.1711,38.3000,77,98,1614
1.5054,0.1711,38.3000,77,98,1618
1.6031,0.1906,38.1500,77,98,1622
1.5836,0.1808,38.3000,77,98,1625
1.5885,0.1711,38.1800,77,98,1628
1.5787,0.1711,38.2700,77,98,1631
1.6325,0.1711,38.4000,77,98,1635
1.7449,0.2004,38.1100,77,98,1638
1.7595,0.2151,38.2400,77,98,1641
1.7351,0.1760,38.2400,77,98,1644
1.7155,0.1760,38.3000,77,98,1647
1.6813,0.1711,38.3000,77,98,1651
1.7644,0.1857,37.9600,77,98,1654
1.7840,0.1808,38.2400,77,98,1657
1.8084,0.1808,38.2700,77,98,1660
1.7937,0.1857,38.2400,77,98,1664
1.7351,0.1515,38.3000,77,98,1667
1.7644,0.1760,38.0500,77,98,1671
1.7546,0.1711,38.4000,77,98,1674
1.8231,0.1760,37.7100,77,98,1677
1.8817,0.1857,38.1100,77,98,1680
1.8475,0.2151,38.3600,77,98,1683
1.8280,0.1760,38.1100,77,98,1687
1.7693,0.1760,38.2700,77,98,1690
1.8084,0.1711,38.3000,77,98,1693
1.8915,0.1906,38.1800,77,98,1696
1.9013,0.1808,38.2700,77,98,1699
1.9257,0.1711,38.1100,77,98,1703
1.8475,0.1760,38.3000,77,98,1707
1.8182,0.1711,38.3000,77,98,1710
1.8671,0.1808,37.4300,77,98,1713
1.9110,0.1808,38.2400,77,98,1716
1.9599,0.1808,38.1800,77,98,1720
1.9404,0.1808,38.2700,77,98,1723
1.9013,0.1760,38.3300,77,98,1726
1.9208,0.1906,37.5300,77,98,1729
1.8817,0.1760,38.2400,77,98,1732
1.9355,0.1711,38.2700,77,98,1735
1.9941,0.2151,38.3000,77,98,1739
2.0039,0.2053,38.3000,77,98,1742
2.0235,0.1857,38.0200,77,98,1745
1.9404,0.2053,38.2400,77,98,1748
1.9550,0.1711,37.9300,77,98,1752
2.0283,0.1857,38.2100,77,98,1756
2.0626,0.1808,38.3000,77,98,1759
2.1212,0.1857,38.1500,77,98,1762
2.0577,0.1857,38.3000,77,98,1765
2.0283,0.1711,38.2700,77,98,1768
2.0528,0.1808,38.2100,77,98,1772
2.0723,0.1808,38.3000,77,98,1775
2.1652,0.1857,38.4000,77,98,1778
2.1457,0.2102,38.2400,77,98,1781
2.1212,0.1857,38.2700,77,98,1784
2.1310,0.1711,38.1800,77,98,1788
2.0626,0.1760,38.2700,77,98,1792
2.1212,0.1760,38.1500,77,98,1795
2.1457,0.1808,38.2700,77,98,1798
2.1652,0.1808,38.3000,77,98,1801
2.1848,0.1955,38.1500,77,98,1804
2.0772,0.1808,38.2400,77,98,1808
2.0479,0.1662,38.1800,77,98,1811
2.0626,0.1760,38.3300,77,98,1814
2.0968,0.1515,38.3000,77,98,1817
2.1896,0.1955,37.9900,77,98,1820
2.0577,0.1808,38.2400,77,98,1824
1.9795,0.1711,38.3000,77,98,1827
1.9404,0.1515,38.2100,77,98,1830
1.9110,0.1515,38.3000,77,98,1833
1.9697,0.1857,38.0200,77,98,1837
1.9306,0.1808,38.4300,77,98,1841
1.8866,0.1808,38.3300,77,98,1844
1.8231,0.1808,38.2100,77,98,1847
1.7449,0.1808,38.2700,77,98,1851
1.6716,0.1760,38.3000,77,98,1854
1.6569,0.1515,38.0500,77,98,1857
1.6178,0.1711,38.2400,77,98,1860
1.6618,0.1760,38.2400,77,98,1863
1.7009,0.1857,38.1800,77,98,1866
1.6618,0.1808,38.3600,77,98,1870
1.6325,0.1760,37.9300,77,98,1873
1.5787,0.1662,38.2700,77,98,1876
1.5982,0.1613,38.3000,77,98,1880
1.6764,0.1857,38.1100,77,98,1883
1.6862,0.1808,38.3300,77,98,1887
1.7107,0.1857,38.1500,77,98,1890
1.6325,0.1760,38.2700,77,98,1893
1.6031,0.1711,38.2700,77,98,1896
1.6471,0.1808,38.1800,77,98,1899
1.6862,0.1808,38.2100,77,98,1903
1.7400,0.1808,38.1100,77,98,1906
1.7155,0.1808,37.9900,77,98,1909
1.6862,0.1760,38.3000,77,98,1912
1.7009,0.2199,38.1100,77,98,1915
1.6716,0.2151,38.1800,77,98,1920
1.7155,0.2004,38.2400,77,98,1923
1.7693,0.1857,38.2400,77,98,1926
1.7693,0.1711,38.2700,77,98,1929
1.7937,0.1955,38.0200,77,98,1932
1.7009,0.1711,38.3300,77,98,1936
1.7155,0.1711,38.4000,77,98,1939
1.7840,0.1808,38.0800,77,98,1942
1.8133,0.1808,38.2700,77,98,1945
1.8622,0.1857,38.0500,77,98,1948
1.7840,0.1760,38.2700,77,98,1951
1.7449,0.1711,38.3000,77,98,1955
1.7546,0.1808,38.2100,77,98,1958
1.7791,0.1857,38.3000,77,98,1961
1.8622,0.1808,38.1500,77,98,1965
1.8426,0.1711,38.2400,77,98,1968
1.8084,0.1711,38.2700,77,98,1972
1.7840,0.1711,38.2100,77,98,1975
1.7595,0.1711,38.2700,77,98,1978
1.8231,0.1760,38.1100,77,98,1981
1.8426,0.1808,38.3000,77,98,1984
1.8671,0.1808,38.2700,77,98,1988
1.8622,0.1906,38.2400,77,98,1991
1.7791,0.1760,38.2700,77,98,1994
1.7595,0.1711,38.2700,77,98,1997
1.7791,0.1857,38.2400,77,98,2000
1.8719,0.1808,38.3300,77,98,2004
1.9208,0.2004,38.0800,77,98,2008
1.8328,0.1808,38.2400,77,98,2011
1.7742,0.1662,38.2700,77,98,2014
1.7644,0.1760,38.2400,77,98,2017
1.7693,0.1760,38.3000,77,98,2020
1.8622,0.1857,37.9900,77,98,2024
1.8426,0.1515,38.2100,77,98,2027
1.8280,0.1808,38.3600,77,98,2030
1.7889,0.1808,38.2700,77,98,2033
1.7498,0.1711,38.3000,77,98,2036
1.7986,0.1760,38.1100,77,98,2040
1.8182,0.1760,38.2100,77,98,2043
1.8475,0.1808,38.2700,77,98,2046
1.8426,0.1906,38.2100,77,98,2050
1.7791,0.1808,38.3000,77,98,2053
1.7742,0.1760,38.1500,77,98,2057
1.7693,0.1711,38.3300,77,98,2060
1.8035,0.1711,38.2700,77,98,2063
1.8622,0.1857,38.2100,77,98,2066
1.8328,0.1808,38.2700,77,98,2069
1.8084,0.1760,38.1100,77,98,2073
1.7449,0.1711,38.2700,77,98,2076
1.7595,0.1662,38.3000,77,98,2079
1.8426,0.1857,38.0800,77,98,2082
1.8573,0.1760,38.2400,77,98,2085
1.8573,0.1808,38.1800,77,98,2089
1.8035,0.1760,38.2700,77,98,2093
1.7449,0.1711,38.2700,77,98,2096
1.8035,0.1955,38.0200,77,98,2099
1.8133,0.1515,38.1500,77,98,2102
1.8426,0.1760,38.3300,77,98,2106
1.8426,0.1857,38.3600,77,98,2109
1.7937,0.1662,38.2700,77,98,2112
1.7937,0.1760,37.9900,77,98,2115
1.7840,0.1760,38.1800,77,98,2118
1.7840,0.2248,38.3000,77,98,2121
1.8524,0.1711,38.2400,77,98,2125
1.8377,0.1808,38.2700,77,98,2128
1.8377,0.1808,38.0800,77,98,2131
1.7546,0.1760,38.2400,77,98,2135
1.7644,0.1711,38.3300,77,98,2138
1.7986,0.1515,38.1800,77,98,2142
1.8377,0.1808,38.2700,77,98,2145
1.8817,0.1906,38.1800,77,98,2148
1.8231,0.1760,38.3300,77,98,2151
1.7840,0.1711,38.3300,77,98,2154
1.7986,0.1808,37.4000,77,98,2158
1.7986,0.1955,38.2700,77,98,2161
1.8719,0.1808,38.1500,77,98,2164
1.8719,0.2199,38.2700,77,98,2167
1.8475,0.1760,38.2700,77,98,2170
1.8573,0.1955,38.1100,77,98,2174
1.8133,0.1808,38.2100,77,98,2178
1.8524,0.1760,38.2100,77,98,2181
1.8622,0.1857,38.2700,77,98,2184
1.8817,0.1808,38.3600,77,98,2187
1.9110,0.2004,37.9900,77,98,2191
1.8231,0.1808,38.2400,77,98,2194
1.7889,0.1711,38.3000,77,98,2197
1.8182,0.1760,38.1100,77,98,2200
1.8622,0.1760,38.3000,77,98,2203
1.9306,0.1857,38.0200,77,98,2206
1.8671,0.1808,38.4600,77,98,2210
1.8231,0.1760,38.3000,77,98,2213
1.8133,0.1760,38.1500,77,98,2216
1.8084,0.1711,38.2700,77,98,2220
1.8866,0.1760,38.0800,77,98,2223
1.8866,0.1857,38.2700,77,98,2227
1.9159,0.1808,38.3000,77,98,2230
1.8817,0.1808,38.1100,77,98,2233
1.7937,0.1711,38.2700,77,98,2236
1.8377,0.1808,38.1500,77,98,2239
1.8524,0.1760,38.3000,77,98,2243
1.8915,0.1808,38.3000,77,98,2246
1.9159,0.1906,38.1800,77,98,2249
1.8524,0.1808,38.3300,77,98,2252
1.8182,0.1711,38.1800,77,98,2255
1.8035,0.1711,38.2700,77,98,2259
1.8573,0.1760,38.3000,77,98,2263
1.9501,0.2004,38.0800,77,98,2266
1.9062,0.2199,38.2400,77,98,2269
1.8622,0.1711,38.2100,77,98,2272
1.8231,0.1760,38.3000,77,98,2276
1.8328,0.1711,38.3000,77,98,2279
1.9355,0.1857,37.9900,77,98,2282
1.9404,0.1808,38.2100,77,98,2285
1.9599,0.1808,38.2700,77,98,2288
1.9550,0.1857,38.2700,77,98,2291
1.9013,0.1711,38.2700,77,98,2295
1.9501,0.1760,38.0200,77,98,2298
1.9599,0.1857,38.3000,77,98,2301
2.0186,0.2248,38.2700,77,98,2305
2.0479,0.1906,38.1800,77,98,2308
1.9892,0.1760,38.3000,77,98,2312
1.9746,0.1711,38.1500,77,98,2315
1.9306,0.1564,38.2400,77,98,2318
1.9599,0.1760,38.3000,77,98,2321
2.0332,0.1711,38.2100,77,98,2324
2.0088,0.1808,38.2700,77,98,2328
1.9746,0.2151,38.1500,77,98,2331
1.8866,0.1760,38.3000,77,98,2334
1.8231,0.1711,38.2700,77,98,2337
1.8622,0.1857,38.1800,77,98,2340
1.8671,0.1906,38.1100,77,98,2344
1.8719,0.1808,38.2700,77,98,2348
1.8133,0.2053,38.3300,77,98,2351
1.7498,0.1808,38.3600,77,98,2354
1.7644,0.1906,38.0500,77,98,2357
1.7204,0.1760,38.2700,77,98,2360
1.7546,0.1662,38.2100,77,98,2364
1.8035,0.1857,38.2700,77,98,2367
1.7351,0.1760,38.3000,77,98,2370
1.7351,0.1808,38.0200,77,98,2373
1.6618,0.1662,38.2400,77,98,2376
1.7009,0.1711,38.3000,77,98,2380
1.7644,0.1857,38.1800,77,98,2383
1.7791,0.1808,38.3000,77,98,2386
1.7937,0.1857,38.0800,77,98,2390
1.7155,0.1760,38.1800,77,98,2393
1.6813,0.1711,38.4000,77,98,2397
1.7155,0.1711,38.2100,77,98,2400
1.7644,0.1760,38.2700,77,98,2403
1.8328,0.1857,38.1500,77,98,2406
1.7840,0.1760,38.2400,77,98,2409
1.7546,0.1760,38.3300,77,98,2413
1.7498,0.1808,38.2700,77,98,2416
1.7840,0.1711,38.2700,77,98,2419
1.9355,0.1760,38.1500,77,98,2422
2.0723,0.1808,38.2700,77,98,2425
2.2385,0.1808,37.5300,77,98,2429
2.4633,0.1857,37.9600,77,98,2433
2.6393,0.1662,38.3000,77,98,2436
2.8983,0.1711,38.2400,77,98,2439
3.1476,0.1857,38.2700,77,98,2442
3.3284,0.2053,38.3000,77,98,2445
3.4262,0.2053,38.0200,77,98,2449
3.1427,0.1662,38.2400,77,98,2452
2.8104,0.1662,38.3000,77,98,2455
2.5073,0.1857,38.2400,77,98,2458
1.2659,0.1711,38.3000,77,98,2462
1.1926,0.1711,38.4900,77,98,2465
1.2414,0.1906,37.9900,77,98,2468
1.2610,0.1760,38.3000,77,98,2471
1.3196,0.1808,38.3000,77,98,2476
1.3490,0.1857,38.2100,77,98,2479
1.3636,0.1760,38.2700,77,98,2482
1.4614,0.1808,38.0200,77,98,2485
1.5152,0.1662,38.2400,77,98,2488
1.6227,0.1808,38.3000,77,98,2492
1.6764,0.1906,38.2100,77,98,2495
1.6520,0.1760,38.4600,77,98,2498
1.6569,0.1760,38.0800,77,98,2501
1.6422,0.1711,38.2100,77,98,2504
1.7009,0.1711,38.3300,77,98,2508
1.7742,0.1857,38.1800,77,98,2511
1.7937,0.2053,38.2700,77,98,2514
1.7937,0.1808,38.1800,77,98,2518
1.7204,0.1760,38.3000,77,98,2521
1.7204,0.1662,38.2700,77,98,2524
1.7840,0.1808,38.2400,77,98,2528
1.8280,0.1857,38.2700,77,98,2531
1.8573,0.1857,38.1500,77,98,2534
1.8084,0.1808,38.2700,77,98,2537
1.7693,0.1711,38.2700,77,98,2540
1.7986,0.1808,38.0800,77,98,2544
1.7937,0.1760,38.3000,77,98,2547
1.8524,0.1760,38.2400,77,98,2550
1.8866,0.1857,38.2700,77,98,2553
1.8622,0.1808,38.2700,77,98,2556
1.8719,0.1857,37.9600,77,98,2561
1.8084,0.1711,38.0200,77,98,2564
1.8426,0.1711,38.4600,77,98,2567
1.9062,0.1857,38.2400,77,98,2570
1.9453,0.1760,38.3000,77,98,2573
1.9697,0.1857,38.0200,77,98,2577
1.8915,0.1857,38.1800,77,98,2580
1.8671,0.1711,38.3000,77,98,2583
1.9013,0.1760,38.2400,77,98,2586
1.9453,0.1808,38.3000,77,98,2589
2.0088,0.1808,38.1100,77,98,2592
1.9648,0.1760,38.2700,77,98,2596
1.9257,0.1711,38.3300,77,98,2599
1.9110,0.1711,38.2400,77,98,2603
1.9208,0.1711,38.4300,77,98,2606
2.0088,0.1808,38.1800,77,98,2609
2.0283,0.1808,38.1500,77,98,2613
2.0381,0.1760,38.3600,77,98,2616
2.0381,0.1857,38.1100,77,98,2619
1.9746,0.1760,38.2700,77,98,2622
2.0039,0.1711,38.1800,77,98,2625
2.0479,0.1906,38.2700,77,98,2629
2.0968,0.1808,38.3300,77,98,2632
2.1750,0.2004,38.1500,77,98,2635
2.0968,0.1808,38.0800,77,98,2638
2.0528,0.1662,38.2700,77,98,2641
2.0626,0.1760,38.2400,77,98,2644
2.1065,0.1760,38.3000,77,98,2649
2.2141,0.1857,38.0200,77,98,2652
2.1848,0.1857,38.1800,77,98,2655
2.1310,0.1760,38.3000,77,98,2658
2.0968,0.1808,38.1800,77,98,2661
2.0772,0.1711,38.2700,77,98,2665
2.1408,0.1760,38.0500,77,98,2668
2.1408,0.1808,38.2400,77,98,2671
2.1505,0.1808,38.2700,77,98,2674
2.1163,0.1711,38.1800,77,98,2677
2.0479,0.1760,38.2700,77,98,2680
2.0332,0.1711,38.1500,77,98,2684
2.0332,0.1760,38.3000,77,98,2688
2.0577,0.1760,38.2700,77,98,2691
2.0821,0.1906,38.0800,77,98,2694
1.9795,0.1808,38.2700,77,98,2697
1.9110,0.1711,38.1800,77,98,2701
1.8377,0.1808,38.3600,77,98,2704
1.8328,0.1711,38.2700,77,98,2707
1.9062,0.1955,37.3700,77,98,2710
1.8671,0.1857,38.1500,77,98,2713
1.8035,0.1760,38.2400,77,98,2717
1.7302,0.1760,38.2700,77,98,2720
1.7058,0.1613,38.2700,77,98,2723
1.7302,0.1808,37.9900,77,98,2726
1.7253,0.1760,38.1800,77,98,2729
1.7302,0.1808,38.2700,77,98,2734
1.7107,0.1857,38.2400,77,98,2737
1.6471,0.1760,38.3000,77,98,2740
1.6422,0.1711,38.0500,77,98,2743
1.6227,0.1711,38.2400,77,98,2746
1.6716,0.1760,38.3600,77,98,2749
1.7155,0.1857,38.1500,77,98,2753
1.6764,0.1760,38.2700,77,98,2756
1.6569,0.1808,38.1100,77,98,2759
1.5934,0.1711,38.2700,77,98,2762
1.6227,0.1711,38.2700,77,98,2765
1.6960,0.1906,38.1100,77,98,2769
1.7107,0.1808,38.4000,77,98,2772
1.7302,0.1808,38.1500,77,98,2776
1.6618,0.1760,38.2700,77,98,2779
1.6276,0.1711,38.3000,77,98,2782
1.6716,0.1808,38.4600,77,98,2786
1.7155,0.1857,38.2100,77,98,2789
1.7644,0.1760,38.1500,77,98,2792
1.7595,0.1857,38.3000,77,98,2795
1.7058,0.1760,38.3000,77,98,2798
1.7155,0.1906,38.0500,77,98,2802
1.6813,0.1808,38.1800,77,98,2805
1.7204,0.2199,38.2400,77,98,2808
1.7840,0.1711,38.3000,77,98,2811
1.8084,0.1760,38.2700,77,98,2814
1.7986,0.1808,37.9900,77,98,2819
1.7058,0.1760,38.2400,77,98,2822
1.7058,0.1711,38.2700,77,98,2825
1.7644,0.1857,38.1800,77,98,2828
1.7986,0.1808,38.3000,77,98,2831
1.8524,0.1808,38.0800,77,98,2834
1.7840,0.1808,38.3000,77,98,2838
1.7644,0.1613,38.3600,77,98,2841
1.7595,0.1857,38.1800,77,98,2844
1.7742,0.1711,38.3600,77,98,2847
1.8573,0.1857,38.1500,77,98,2850
1.8377,0.1857,38.2700,77,98,2854
1.8084,0.1906,38.2700,77,98,2857
1.7791,0.1760,38.1500,77,98,2861
1.7546,0.1760,38.2400,77,98,2864
1.8035,0.1760,38.1500,77,98,2867
1.8328,0.1808,38.3000,77,98,2871
1.8915,0.1711,38.3300,77,98,2874
1.8768,0.1906,38.1500,77,98,2877
1.7840,0.1808,38.2400,77,98,2880
1.7498,0.1662,38.2100,77,98,2883
1.7889,0.1760,38.3000,77,98,2887
1.8426,0.1760,38.2700,77,98,2890
1.9257,0.2004,38.0200,77,98,2893
1.8426,0.1808,38.4000,77,98,2896
1.7937,0.1711,38.3000,77,98,2899
1.7742,0.1808,38.2700,77,98,2903
1.7742,0.1711,38.4000,77,98,2907
1.8719,0.1857,38.0200,77,98,2910
1.8573,0.1760,38.2400,77,98,2913
1.8475,0.1760,38.2700,77,98,2916
1.8035,0.1857,38.1800,77,98,2919
1.7546,0.1711,38.2700,77,98,2923
1.8035,0.1711,38.0800,77,98,2926
1.8231,0.1760,38.2400,77,98,2929
1.8671,0.1808,38.2700,77,98,2932
1.8719,0.1857,38.4300,77,98,2935
1.8084,0.1760,38.2400,77,98,2939
1.7937,0.1808,38.2400,77,98,2942
1.7693,0.1711,38.1800,77,98,2946
1.8182,0.1760,38.2700,77,98,2949
1.8817,0.1857,38.2100,77,98,2952
1.8377,0.1857,38.2400,77,98,2956
1.8035,0.1808,38.1800,77,98,2959
1.7400,0.1760,38.2400,77,98,2962
1.7498,0.1760,38.2700,77,98,2965
1.8377,0.1906,38.0500,77,98,2968
1.8475,0.1857,38.2400,77,98,2972
1.8377,0.1760,38.2400,77,98,2975
1.7937,0.1808,38.3000,77,98,2978
1.7449,0.1711,38.2700,77,98,2981
1.7937,0.1808,37.9600,77,98,2984
1.7986,0.1808,38.1800,77,98,2988
1.8475,0.1760,38.2700,77,98,2992
1.8524,0.1857,38.2100,77,98,2995
1.8035,0.1857,38.2700,77,98,2998
1.8035,0.1760,38.0200,77,98,3001
1.7595,0.1760,38.1500,77,98,3004
1.7986,0.1711,38.2700,77,98,3008
1.8671,0.1808,38.1800,77,98,3011
1.8671,0.1808,38.2700,77,98,3014
1.8524,0.1760,38.1100,77,98,3017
1.7595,0.1711,38.2700,77,98,3020
1.7498,0.1711,38.2700,77,98,3024
1.7986,0.2053,38.1800,77,98,3027
1.8328,0.1808,38.2400,77,98,3031
1.8719,0.1857,38.1100,77,98,3034
1.8084,0.1808,38.2700,77,98,3037
1.7595,0.1760,38.2700,77,98,3041
1.7986,0.1857,38.0800,77,98,3044
1.7791,0.1760,38.2700,77,98,3047
1.8426,0.1760,38.1800,77,98,3050
1.8524,0.1857,38.2700,77,98,3053
1.8231,0.1808,38.2700,77,98,3057
1.8280,0.1906,38.0800,77,98,3060
1.7693,0.1711,38.2100,77,98,3063
1.7937,0.1662,37.5300,77,98,3066
1.8475,0.1808,38.2400,77,98,3069
1.7986,0.1711,38.3000,77,98,3074
1.8573,0.1760,38.3000,77,98,3077
1.9306,0.2004,38.0800,77,98,3080
1.8573,0.1808,38.2400,77,98,3083
1.8084,0.1711,38.2400,77,98,3087
1.7986,0.1760,38.1800,77,98,3090
1.8182,0.1711,37.9900,77,98,3093
1.9257,0.1857,37.9600,77,98,3096
1.9013,0.2053,38.1800,77,98,3099
1.8817,0.1808,38.3000,77,98,3103
1.8377,0.2151,38.2400,77,98,3106
1.7937,0.1711,38.2700,77,98,3109
1.8426,0.1515,38.0200,77,98,3112
1.8671,0.1808,38.1500,77,98,3116
1.8915,0.1808,38.3000,77,98,3120
1.8964,0.1857,38.2100,77,98,3123
1.8377,0.1955,38.0800,77,98,3126
1.8328,0.1711,38.2700,77,98,3129
1.8182,0.2053,38.2700,77,98,3132
1.8866,0.1760,38.3000,77,98,3136
1.9501,0.1760,38.2100,77,98,3139
1.9355,0.1857,38.2400,77,98,3142
1.9208,0.1857,38.1800,77,98,3145
1.8719,0.1711,38.2700,77,98,3148
1.8964,0.1711,38.2700,77,98,3152
1.9844,0.1857,38.0800,77,98,3155
1.9990,0.1808,38.2100,77,98,3159
2.0039,0.1808,38.3300,77,98,3162
1.9501,0.1808,38.3300,77,98,3165
1.9110,0.1515,38.2700,77,98,3168
1.9795,0.1906,38.0500,77,98,3172
1.9795,0.1760,38.3300,77,98,3175
2.0137,0.1760,38.4000,77,98,3178
2.0039,0.1857,38.2700,77,98,3181
1.9306,0.1760,38.3300,77,98,3184
1.9062,0.1808,38.1500,77,98,3188
1.8377,0.1760,38.2700,77,98,3191
1.8475,0.1711,38.2700,77,98,3194
1.9208,0.1857,38.2100,77,98,3197
1.8964,0.1808,38.2700,77,98,3201
1.8524,0.1808,38.0800,77,98,3205
1.7351,0.1711,38.3000,77,98,3208
1.7107,0.1760,38.2700,77,98,3211
1.7498,0.1711,38.1100,77,98,3214
1.7840,0.1808,38.2700,77,98,3217
1.8182,0.1906,38.1800,77,98,3221
1.7498,0.1760,38.2700,77,98,3224
1.7009,0.1711,38.2700,77,98,3227
1.7155,0.1808,38.0800,77,98,3230
1.7302,0.1760,38.2700,77,98,3233
1.7937,0.1808,38.1800,77,98,3236
1.8035,0.1857,38.3000,77,98,3240
1.7742,0.1760,38.2700,77,98,3244
1.7742,0.1906,38.1100,77,98,3247
1.7302,0.1808,38.2700,77,98,3250
1.7498,0.1515,38.2400,77,98,3253
1.7986,0.1808,37.8000,77,98,3257
1.8231,0.1760,38.2700,77,98,3260
1.8524,0.1955,37.9600,77,98,3263
1.7595,0.1760,38.1800,77,98,3266
1.7302,0.1711,38.2700,77,98,3269
1.7791,0.1760,38.3600,77,98,3273
1.8768,0.1760,38.2700,77,98,3276
2.0381,0.1857,38.0200,77,98,3279
2.1065,0.1515,38.2400,77,98,3282
2.2483,0.1711,38.2700,77,98,3286
2.4731,0.1760,38.1800,77,98,3290
2.7126,0.1711,38.2400,77,98,3293
3.0450,0.1760,38.1100,77,98,3296
3.2307,0.1808,38.3300,77,98,3299
3.3284,0.1808,38.1800,77,98,3302
3.2845,0.1857,38.1800,77,98,3305
2.9814,0.1711,38.2700,77,98,3309
2.7273,0.1760,38.1100,77,98,3312
2.3949,0.1760,38.2700,77,98,3315
2.1114,0.1760,38.3000,77,98,3318
1.8573,0.1808,38.1800,77,98,3321
1.5787,0.1760,38.1800,77,98,3325
1.3734,0.1760,38.1800,77,98,3329
1.2512,0.1711,38.2700,77,98,3332
1.2317,0.1760,38.2700,77,98,3335
1.2854,0.2004,38.0500,77,98,3338
1.3001,0.1857,38.2100,77,98,3342
1.3099,0.1711,38.3000,77,98,3345
1.3245,0.1760,38.2700,77,98,3348
1.3881,0.1711,38.4600,77,98,3351
1.5249,0.1857,37.9000,77,98,3354
1.5836,0.1808,38.2100,77,98,3358
1.6373,0.2053,38.2400,77,98,3361
1.6471,0.2151,38.1800,77,98,3364
1.6080,0.1662,38.3000,77,98,3367
1.6520,0.1760,38.0200,77,98,3371
1.6764,0.1662,38.3000,77,98,3374
1.7449,0.1662,38.3000,77,98,3378
1.7889,0.1857,38.1500,77,98,3381
1.7400,0.1760,38.2700,77,98,3384
1.7351,0.1760,38.1500,77,98,3387
1.6960,0.1662,38.2700,77,98,3390
1.7400,0.1711,38.3000,77,98,3394
1.8231,0.1857,38.1500,77,98,3397
1.8328,0.1857,38.2700,77,98,3400
1.8280,0.1808,38.2400,77,98,3403
1.7546,0.1515,38.2700,77,98,3406
1.7498,0.1857,38.2700,77,98,3410
1.8231,0.1906,38.1100,77,98,3414
1.8524,0.1760,38.2400,77,98,3417
1.8817,0.2102,38.1800,77,98,3420
1.8426,0.1808,38.2700,77,98,3423
1.8084,0.1760,38.2700,77,98,3427
1.8377,0.1906,38.0200,77,98,3430
1.8231,0.1515,38.2400,77,98,3433
1.8817,0.1760,38.3300,77,98,3436
1.9257,0.1857,37.7400,77,98,3439
1.8964,0.1808,38.3600,77,98,3443
1.8964,0.1857,38.0800,77,98,3446
1.8231,0.1711,38.2100,77,98,3449
1.8573,0.1711,38.2700,77,98,3452
1.9306,0.1857,38.2100,77,98,3456
1.9550,0.1808,38.2700,77,98,3460
1.9795,0.1808,38.0800,77,98,3463
1.9062,0.1760,38.1800,77,98,3466
1.8817,0.1711,38.2400,77,98,3469
1.9159,0.1760,38.2100,77,98,3472
1.9697,0.1808,38.4000,77,98,3475
2.0430,0.1906,38.2700,77,98,3479
2.0088,0.1808,38.2700,77,98,3482
1.9746,0.1760,38.2700,77,98,3485
1.9648,0.1808,38.2100,77,98,3488
1.9697,0.1760,38.3000,77,98,3491
2.0479,0.1760,38.1100,77,98,3495
2.0821,0.1857,38.2700,77,98,3499
2.0968,0.1808,38.2400,77,98,3502
2.1065,0.1857,37.3100,77,98,3505
2.0332,0.1857,38.2400,77,98,3508
2.0479,0.1906,38.2100,77,98,3512
2.1017,0.1808,38.2400,77,98,3515
2.1408,0.1760,38.3300,77,98,3518
2.2043,0.1906,37.9900,77,98,3521
2.1114,0.1760,38.1100,77,98,3524
2.0723,0.1711,38.2400,77,98,3527
2.0821,0.1662,38.1800,77,98,3531
2.1359,0.1711,38.2700,77,98,3534
2.2141,0.1857,38.0200,77,98,3537
2.1799,0.1808,38.1500,77,98,3540
2.1114,0.1711,38.2700,77,98,3544
2.0626,0.1808,38.2400,77,98,3548
2.0283,0.1711,37.4900,77,98,3551
2.0821,0.1760,38.1100,77,98,3554
2.0772,0.1808,37.5600,77,98,3557
2.0772,0.1808,38.2700,77,98,3560
2.0283,0.1808,38.1800,77,98,3564
1.9355,0.1760,38.2400,77,98,3567
1.9013,0.1760,38.1500,77,98,3570
1.8817,0.1760,38.1800,77,98,3573
1.9062,0.1760,38.3000,77,98,3576
1.9306,0.1906,38.2100,77,98,3579
1.8377,0.1808,38.2700,77,98,3584
1.7644,0.1711,38.1500,77,98,3587
1.7107,0.2004,38.2700,77,98,3590
1.7107,0.1808,38.2400,77,98,3593
1.7986,0.2004,38.0200,77,98,3596
1.7693,0.1906,38.1100,77,98,3600
1.7253,0.2004,38.2700,77,98,3603
1.6960,0.2053,38.2100,77,98,3606
1.6129,0.1760,38.2400,77,98,3609
1.6716,0.1857,37.9600,77,98,3612
1.7058,0.1857,38.1800,77,98,3616
1.7253,0.1711,38.2700,77,98,3619
1.6862,0.1857,38.3300,77,98,3622
1.6227,0.1760,38.3000,77,98,3625
1.6129,0.1711,38.0500,77,98,3629
1.5934,0.1711,38.4300,77,98,3633
1.6471,0.2199,38.3000,77,98,3636
1.6911,0.1857,38.1500,77,98,3639
1.6764,0.1711,38.2400,77,98,3642
1.6520,0.1808,38.1500,77,98,3645
1.5934,0.1711,38.2700,77,98,3649
1.6178,0.1711,38.3300,77,98,3652
1.6960,0.1906,38.1100,77,98,3655
1.7107,0.1857,38.3000,77,98,3658
1.7302,0.1760,38.1500,77,98,3661
1.6618,0.1760,38.2400,77,98,3665
1.6276,0.1662,38.3000,77,98,3668
1.6862,0.1711,38.1100,77,98,3672
1.6960,0.1808,37.7700,77,98,3675
1.7400,0.1515,38.2100,77,98,3678
1.7253,0.1857,38.2700,77,98,3681
1.7302,0.1808,38.2400,77,98,3685
1.7302,0.1711,38.2700,77,98,3688
1.7107,0.1906,38.0800,77,98,3691
1.6569,0.1711,38.2700,77,98,3695
1.6764,0.1515,38.1800,77,98,3698
1.7204,0.1760,38.2700,77,98,3701
1.7742,0.1808,38.2700,77,98,3704
1.8377,0.2004,38.0200,77,98,3707
1.7595,0.1760,38.2100,77,98,3712
1.7155,0.1662,38.2400,77,98,3715
1.7155,0.1760,38.2100,77,98,3718
1.7498,0.1808,38.2400,77,98,3721
1.8573,0.1760,37.9600,77,98,3724
1.8280,0.1808,38.1800,77,98,3728
1.7693,0.1760,38.2700,77,98,3731
1.7302,0.1808,38.2100,77,98,3734
1.7058,0.1711,38.2700,77,98,3737
1.7791,0.1760,38.0500,77,98,3740
1.7840,0.1711,38.2400,77,98,3744
1.8035,0.1808,38.2700,77,98,3747
1.7791,0.1515,38.1500,77,98,3750
1.7058,0.1760,38.2700,77,98,3753
1.7204,0.1808,38.1500,77,98,3757
1.7253,0.1760,38.2400,77,98,3760
1.7840,0.1760,38.2400,77,98,3764
1.8328,0.2004,38.0200,77,98,3767
1.7693,0.1760,38.2400,77,98,3770
1.7351,0.2053,38.1500,77,98,3773
1.6911,0.1808,38.2400,77,98,3776
1.7204,0.1662,38.3000,77,98,3780
1.8182,0.1955,38.1500,77,98,3783
1.8280,0.1906,38.1800,77,98,3786
1.7937,0.1760,38.1800,77,98,3789
1.7400,0.1760,38.2400,77,98,3792
1.7107,0.1711,38.3000,77,98,3796
1.7937,0.1906,38.0200,77,98,3800
1.8084,0.1857,38.1800,77,98,3803
1.8231,0.1808,38.2700,77,98,3806
1.8084,0.1857,38.2700,77,98,3809
1.7595,0.1760,38.3000,77,98,3813
1.7693,0.1760,37.9900,77,98,3816
1.7546,0.1808,38.2100,77,98,3819
1.8133,0.1760,38.2100,77,98,3822
1.8622,0.1955,38.1100,77,98,3825
1.8231,0.1857,38.2700,77,98,3828
1.7986,0.1760,38.1100,77,98,3832
1.7351,0.1711,38.2700,77,98,3835
1.7595,0.1711,38.2700,77,98,3838
1.8377,0.1857,38.1100,77,98,3842
1.8475,0.1808,38.4600,77,98,3845
1.8719,0.1906,38.1500,77,98,3849
1.7937,0.1760,38.2700,77,98,3852
1.7546,0.1711,38.2700,77,98,3855
1.7937,0.1760,38.1800,77,98,3858
1.8328,0.1760,38.2100,77,98,3861
1.8866,0.1760,38.1800,77,98,3865
1.8622,0.1711,38.2700,77,98,3868
1.8133,0.1760,38.3000,77,98,3871
1.8133,0.1857,38.2100,77,98,3874
1.7791,0.1760,38.1800,77,98,3877
1.8231,0.1711,38.1500,77,98,3881
1.9013,0.1808,38.2400,77,98,3885
1.8719,0.1808,38.3000,77,98,3888
1.8719,0.1857,37.9600,77,98,3891
1.7791,0.1711,38.2100,77,98,3894
1.7791,0.1711,38.2700,77,98,3898
1.8328,0.1808,38.2100,77,98,3901
1.8622,0.1808,38.2700,77,98,3904
1.9110,0.1857,38.0200,77,98,3907
1.8280,0.1760,38.1800,77,98,3910
1.7840,0.1711,38.3300,77,98,3914
1.7889,0.1760,38.4600,77,98,3917
1.8084,0.1711,38.3000,77,98,3920
1.8866,0.1955,38.0800,77,98,3923
1.8671,0.1808,38.1800,77,98,3927
1.8377,0.2102,38.2700,77,98,3931
1.8084,0.1711,38.2100,77,98,3934
1.7889,0.1711,38.2700,77,98,3937
1.8377,0.1808,38.1100,77,98,3940
1.8671,0.1808,38.2700,77,98,3943
1.8866,0.1808,38.2700,77,98,3946
1.8817,0.1906,38.1800,77,98,3950
1.8035,0.1760,38.2700,77,98,3953
1.7889,0.1711,38.1800,77,98,3956
1.8035,0.1760,38.3300,77,98,3959
1.8573,0.1760,38.0500,77,98,3962
1.9355,0.2004,38.4600,77,98,3966
1.8622,0.1857,38.2400,77,98,3970
1.8328,0.1662,38.2400,77,98,3973
1.7889,0.1711,38.2400,77,98,3976
1.7986,0.1711,38.2700,77,98,3979
1.9013,0.1857,37.9300,77,98,3983
1.8866,0.1808,38.1800,77,98,3986
1.8671,0.1808,38.3300,77,98,3989
1.8328,0.1808,38.1800,77,98,3992
1.7986,0.1857,38.2400,77,98,3995
1.8719,0.1857,38.0200,77,98,3999
1.9062,0.1760,38.1500,77,98,4002
1.9501,0.1760,38.2700,77,98,4005
1.9550,0.1857,38.1800,77,98,4008
1.9110,0.1760,38.2700,77,98,4012
1.9110,0.1711,38.1100,77,98,4016
1.8915,0.1711,38.2700,77,98,4019
1.9550,0.1760,38.2400,77,98,4022
2.0088,0.1808,38.0500,77,98,4025
1.9892,0.1808,38.2400,77,98,4028
1.9648,0.1808,38.1100,77,98,4031
1.8915,0.1711,38.3600,77,98,4035
1.9013,0.1711,38.4300,77,98,4038
1.9746,0.2346,38.0500,77,98,4041
1.9648,0.1857,38.2400,77,98,4044
1.9453,0.1906,38.2100,77,98,4047
1.8622,0.1857,38.2400,77,98,4051
1.7937,0.1760,38.2700,77,98,4055
1.8377,0.1906,37.9900,77,98,4058
1.8035,0.1760,38.1100,77,98,4061
1.8231,0.1711,38.2400,77,98,4064
1.8084,0.1857,38.2400,77,98,4068
1.7449,0.1760,38.2100,77,98,4071
1.7302,0.1906,37.9600,77,98,4074
1.6862,0.1760,38.1500,77,98,4077
1.7107,0.1711,38.4600,77,98,4080
1.7791,0.1808,38.2400,77,98,4084
1.7742,0.1808,38.2700,77,98,4087
1.7742,0.1857,38.0200,77,98,4090
1.6911,0.1711,38.2700,77,98,4093
1.6911,0.1515,38.2700,77,98,4097
1.7498,0.1760,38.1500,77,98,4101
1.7889,0.1808,38.4000,77,98,4104
1.8377,0.1808,38.2100,77,98,4107
1.7693,0.1808,38.2700,77,98,4110
1.7302,0.1760,38.2400,77,98,4113
1.7400,0.1760,38.1500,77,98,4117
1.7351,0.1711,38.3000,77,98,4120
1.8231,0.1711,38.1100,77,98,4123
1.8084,0.1808,38.2700,77,98,4126
1.7937,0.1760,38.2700,77,98,4129
1.7986,0.1857,38.1500,77,98,4132
1.8377,0.1515,38.2100,77,98,4136
1.9697,0.1711,38.2100,77,98,4140
2.1701,0.1808,38.1500,77,98,4143
2.4047,0.2004,38.2400,77,98,4146
2.7028,0.2004,38.0800,77,98,4149
2.8446,0.1808,38.1800,77,98,4153
3.0156,0.1711,38.3000,77,98,4156
3.2014,0.1760,38.4000,77,98,4159
3.2796,0.1760,38.2700,77,98,4162
3.2551,0.1906,37.9900,77,98,4165
2.9130,0.1808,38.3000,77,98,4169
2.5415,0.1711,38.2400,77,98,4172
2.1994,0.1808,38.1800,77,98,4175
1.8866,0.1711,38.2700,77,98,4178
1.7107,0.1760,38.0800,77,98,4182
1.5249,0.1808,38.4000,77,98,4185
1.3881,0.1808,38.3000,77,98,4189
1.2854,0.1857,38.1100,77,98,4192
1.1877,0.2004,38.3000,77,98,4195
1.2170,0.1760,38.0800,77,98,4198
1.2757,0.1760,38.2700,77,98,4201
1.3636,0.1808,38.3300,77,98,4205
1.4516,0.2151,38.1500,77,98,4208
1.4614,0.1906,38.1800,77,98,4211
1.5152,0.1760,38.1500,77,98,4214
1.5249,0.1711,38.2100,77,98,4217
1.5982,0.1760,38.2700,77,98,4221
1.7155,0.1955,38.1100,77,98,4225
1.6960,0.1857,38.2400,77,98,4228
1.6667,0.1711,38.2700,77,98,4231
1.6422,0.1760,38.2400,77,98,4234
1.6569,0.1662,38.2400,77,98,4238
1.7546,0.1906,37.9600,77,98,4241
1.7644,0.1808,38.2400,77,98,4244
1.7840,0.1808,38.2400,77,98,4247
1.7644,0.1857,38.2100,77,98,4250
1.7058,0.1711,38.2700,77,98,4254
1.7498,0.1760,37.9900,77,98,4257
1.7546,0.1760,38.2100,77,98,4260
1.8182,0.1760,38.2100,77,98,4263
1.8475,0.1906,38.2100,77,98,4267
1.7986,0.1760,38.2700,77,98,4271
1.7889,0.1760,38.0800,77,98,4274
1.7546,0.1906,38.2100,77,98,4277
1.8035,0.1808,38.3000,77,98,4280
1.8768,0.1906,38.1500,77,98,4283
1.8866,0.1906,38.2100,77,98,4286
1.8817,0.2004,38.0800,77,98,4290
1.8084,0.1760,38.3600,77,98,4293
1.8915,0.1760,38.2700,77,98,4296
1.8524,0.1515,38.2700,77,98,4300
1.8719,0.1808,38.0800,77,98,4303
1.8817,0.1760,38.0800,77,98,4306
1.9648,0.1808,38.1100,77,98,4310
1.9648,0.1808,38.3300,77,98,4313
1.9453,0.1760,38.3000,77,98,4317
1.9404,0.1808,38.1100,77,98,4320
1.9159,0.1760,38.2100,77,98,4323
1.9599,0.1711,38.1500,77,98,4326
2.0088,0.1857,38.3000,77,98,4329
2.0479,0.1808,38.2700,77,98,4332
2.0968,0.2004,38.0500,77,98,4336
2.0039,0.1808,38.2400,77,98,4339
1.9795,0.1662,38.2400,77,98,4342
2.0235,0.1760,38.4300,77,98,4345
2.0821,0.1760,38.2700,77,98,4348
2.1750,0.1906,38.0200,77,98,4353
2.1114,0.1808,38.2400,77,98,4356
2.0674,0.1760,38.3000,77,98,4359
2.0626,0.1808,38.1100,77,98,4362
2.0577,0.1760,38.3000,77,98,4365
2.1652,0.1808,38.0500,77,98,4368
2.1505,0.1808,38.2400,77,98,4372
2.1799,0.1857,38.3000,77,98,4375
2.1359,0.1857,38.1800,77,98,4378
2.0674,0.1711,38.2700,77,98,4381
2.1114,0.1515,38.1100,77,98,4384
2.1212,0.1760,38.3300,77,98,4388
2.1603,0.1808,38.2400,77,98,4391
2.1750,0.1906,37.9900,77,98,4395
2.0968,0.1808,38.2400,77,98,4398
2.0430,0.1711,38.1500,77,98,4401
2.0088,0.1760,38.3000,77,98,4405
2.0332,0.1760,38.2700,77,98,4408
2.1163,0.2004,38.0500,77,98,4411
2.0430,0.1857,38.1800,77,98,4414
1.9550,0.1711,38.2400,77,98,4417
1.8817,0.1760,38.2400,77,98,4420
1.8328,0.1711,38.2700,77,98,4424
1.9013,0.1857,37.9300,77,98,4427
1.8671,0.2102,38.2100,77,98,4430
1.8426,0.1857,38.2100,77,98,4433
1.7986,0.2102,38.2400,77,98,4436
1.7009,0.1760,38.2700,77,98,4441
1.7009,0.1760,38.0500,77,98,4444
1.6960,0.1808,38.2400,77,98,4447
1.7400,0.1760,38.2400,77,98,4450
1.7644,0.2004,38.1100,77,98,4453
1.7009,0.1808,38.2400,77,98,4457
1.6667,0.2053,38.1100,77,98,4460
1.6178,0.1613,38.3000,77,98,4463
1.6520,0.1760,38.3000,77,98,4466
1.7595,0.1808,38.1500,77,98,4469
1.7400,0.1857,38.2700,77,98,4472
1.7546,0.1760,38.1100,77,98,4476
1.6667,0.1808,38.2700,77,98,4480
1.6422,0.1711,38.3000,77,98,4483
1.7107,0.1906,38.1100,77,98,4486
1.7302,0.1808,38.2100,77,98,4489
1.7546,0.1711,38.2100,77,98,4493
1.7253,0.1808,38.2700,77,98,4496
1.6813,0.1711,38.3300,77,98,4499
1.7107,0.1906,37.9600,77,98,4502
1.6911,0.1760,38.1500,77,98,4505
1.7498,0.1955,38.3000,77,98,4509
1.7986,0.1955,38.2100,77,98,4512
1.7644,0.1857,38.2400,77,98,4515
1.7742,0.1857,37.9900,77,98,4518
1.7058,0.1662,38.2100,77,98,4521
1.7400,0.1711,38.2400,77,98,4526
1.8133,0.1857,38.1500,77,98,4529
1.8280,0.1808,38.2700,77,98,4532
1.8475,0.1808,38.0800,77,98,4535
1.7742,0.1760,38.3000,77,98,4538
1.7498,0.1662,38.2400,77,98,4542
1.7889,0.1760,38.1800,77,98,4545
1.8377,0.1808,38.2400,77,98,4548
1.9159,0.1906,38.1500,77,98,4551
1.8671,0.1711,38.2700,77,98,4554
1.8133,0.1760,38.2700,77,98,4558
1.7937,0.1808,38.1500,77,98,4561
1.7791,0.1760,38.2700,77,98,4564
1.8377,0.1760,38.1100,77,98,4568
1.8573,0.1760,38.2400,77,98,4571
1.8573,0.1662,38.2700,77,98,4574
1.8475,0.1955,38.1100,77,98,4578
1.7644,0.1711,38.2100,77,98,4581
1.7644,0.1662,38.1800,77,98,4584
1.8182,0.1760,38.2100,77,98,4587
1.8622,0.1515,38.2700,77,98,4590
1.9208,0.2004,38.0200,77,98,4594
1.8377,0.1760,38.1100,77,98,4597
1.7889,0.1711,38.4000,77,98,4600
1.7937,0.1760,38.2100,77,98,4603
1.8231,0.1857,38.2400,77,98,4606
1.9306,0.1955,37.9600,77,98,4611
1.8866,0.1711,38.1100,77,98,4614
1.8377,0.1711,38.2400,77,98,4617
1.7986,0.1808,38.1800,77,98,4620
1.7742,0.1711,38.2700,77,98,4623
1.8426,0.1760,38.0200,77,98,4627
1.8524,0.1808,38.1800,77,98,4630
1.8671,0.1808,38.2700,77,98,4633
1.8426,0.1906,38.1500,77,98,4636
1.7791,0.1760,38.2400,77,98,4639
1.7889,0.1857,38.1500,77,98,4643
1.7986,0.1760,38.2400,77,98,4646
1.8573,0.1808,38.2700,77,98,4649
1.9062,0.1906,38.0500,77,98,4653
1.8377,0.1808,38.2400,77,98,4656
1.8035,0.1760,38.1500,77,98,4660
1.7595,0.1711,38.2400,77,98,4663
1.7937,0.1711,38.3000,77,98,4666
1.8964,0.1906,38.1100,77,98,4669
1.8964,0.1906,38.4000,77,98,4672
1.8573,0.1760,38.2100,77,98,4675
1.7986,0.1760,38.0800,77,98,4679
1.7595,0.1711,38.2400,77,98,4682
1.8280,0.2102,37.9900,77,98,4685
1.8426,0.1857,38.1500,77,98,4688
1.8573,0.1857,38.2400,77,98,4691
1.8475,0.1857,38.2400,77,98,4696
1.7889,0.1711,38.2700,77,98,4699
1.7986,0.1760,37.9900,77,98,4702
1.7791,0.1711,38.2400,77,98,4705
1.8377,0.1760,38.2700,77,98,4708
1.8915,0.1857,38.0800,77,98,4712
1.8573,0.1808,38.3000,77,98,4715
1.8328,0.1760,38.1500,77,98,4718
1.7693,0.1760,38.2400,77,98,4721
1.7889,0.1662,38.2100,77,98,4724
1.8866,0.1808,38.1800,77,98,4728
1.8817,0.1808,38.2400,77,98,4731
1.9062,0.1857,38.1100,77,98,4734
1.8328,0.1760,38.2700,77,98,4738
1.7840,0.1711,38.2700,77,98,4741
1.8231,0.1808,38.2100,77,98,4745
1.8573,0.1808,38.2700,77,98,4748
1.9110,0.1808,38.2100,77,98,4751
1.8866,0.1808,38.2700,77,98,4754
1.8377,0.1760,38.2700,77,98,4757
1.8426,0.1906,38.0500,77,98,4761
1.8035,0.1808,38.2400,77,98,4764
1.8426,0.1711,38.2400,77,98,4767
1.8915,0.1857,38.2400,77,98,4770
1.8964,0.1808,38.2700,77,98,4773
1.9208,0.1906,37.9300,77,98,4776
1.8084,0.1711,38.2100,77,98,4781
1.8133,0.1515,38.2400,77,98,4784
1.8768,0.1857,38.1800,77,98,4787
1.9062,0.1808,38.2400,77,98,4790
1.9550,0.1857,38.0200,77,98,4793
1.8768,0.1760,38.2100,77,98,4797
1.8328,0.1711,38.2700,77,98,4800
1.8377,0.1808,38.1100,77,98,4803
1.8524,0.1760,38.2700,77,98,4806
1.9550,0.1857,38.0800,77,98,4809
1.9257,0.1906,38.1800,77,98,4813
1.8964,0.2151,38.2400,77,98,4816
1.8768,0.1808,38.2100,77,98,4819
1.8622,0.1711,38.2400,77,98,4823
1.9306,0.1760,38.1100,77,98,4826
1.9648,0.1808,38.2400,77,98,4830
2.0039,0.1808,37.8700,77,98,4833
2.0137,0.1906,38.1800,77,98,4836
1.9404,0.1711,38.1800,77,98,4839
1.9306,0.1515,38.1500,77,98,4842
1.9550,0.1760,38.2100,77,98,4846
2.0186,0.1760,38.2700,77,98,4849
2.1065,0.2004,38.0800,77,98,4852
2.0186,0.1808,38.2400,77,98,4855
1.9599,0.1711,38.2400,77,98,4858
1.9257,0.1760,38.2100,77,98,4861
1.9110,0.1711,38.2700,77,98,4866
1.9892,0.1857,38.0200,77,98,4869
1.9501,0.1955,38.2100,77,98,4872
1.9110,0.1760,38.2400,77,98,4875
1.8426,0.1808,38.1800,77,98,4878
1.7644,0.1808,38.2400,77,98,4882
1.7889,0.1857,38.0500,77,98,4885
1.7889,0.1906,38.2400,77,98,4888
1.8084,0.1808,38.2700,77,98,4891
1.7986,0.1857,38.2100,77,98,4894
1.7351,0.1760,38.2400,77,98,4898
1.7204,0.1808,38.1100,77,98,4901
1.7009,0.1711,38.2700,77,98,4904
1.6911,0.1760,38.2700,77,98,4909
1.7155,0.1760,38.2700,77,98,4912
1.7840,0.1711,38.1500,77,98,4915
1.7986,0.1808,38.2700,77,98,4918
1.8280,0.1857,38.1500,77,98,4921
1.7400,0.1515,38.2700,77,98,4924
1.7058,0.1515,38.2700,77,98,4928
1.7400,0.1808,38.1800,77,98,4931
1.7889,0.1808,38.2400,77,98,4934
1.8671,0.1808,38.1500,77,98,4937
1.8817,0.1808,38.2100,77,98,4940
1.9110,0.1760,38.2700,77,98,4944
2.0381,0.1857,38.2100,77,98,4947
2.1799,0.1760,38.1800,77,98,4951
2.4389,0.1711,38.1100,77,98,4954
2.7370,0.1808,38.2400,77,98,4957
2.9765,0.1906,38.2700,77,98,4961
3.2209,0.2199,37.9900,77,98,4964
3.2160,0.1760,38.2100,77,98,4967
3.1818,0.1760,38.2400,77,98,4970
3.0596,0.1808,38.1800,77,98,4973
2.7957,0.1760,38.2400,77,98,4976
2.5318,0.1808,37.9900,77,98,4980
2.1457,0.1711,38.1800,77,98,4983
1.7986,0.1711,38.3000,77,98,4986
1.5689,0.1760,38.1800,77,98,4989
1.4125,0.1711,38.2700,77,98,4993
1.3636,0.1808,38.0800,77,98,4997
1.2903,0.1808,38.1800,77,98,5000
1.2268,0.1760,38.2700,77,98,5003
1.2268,0.1760,38.0500,77,98,5006
1.2463,0.1711,38.2400,77,98,5009
1.3441,0.1808,38.1100,77,98,5013
1.4418,0.1808,38.2700,77,98,5016
1.5347,0.1808,38.3300,77,98,5019
1.5885,0.1906,38.1500,77,98,5022
1.5640,0.1760,38.3600,77,98,5025
1.5885,0.1711,38.4600,77,98,5029
1.6569,0.1760,38.2400,77,98,5032
1.7253,0.1760,38.2400,77,98,5036
1.7986,0.1955,38.0500,77,98,5039
1.7351,0.1857,38.2100,77,98,5042
1.6960,0.1711,38.2100,77,98,5046
1.6813,0.1760,38.2400,77,98,5049
1.7058,0.1711,38.4000,77,98,5052
1.8231,0.1857,37.9300,77,98,5055
1.8182,0.1808,38.1800,77,98,5058
1.8084,0.1857,38.3000,77,98,5062
1.7742,0.1857,38.1800,77,98,5065
1.7449,0.1711,38.3000,77,98,5068
1.8133,0.1760,37.9900,77,98,5071
1.8426,0.1808,38.1500,77,98,5074
1.8768,0.1808,38.2400,77,98,5078
1.8817,0.1857,38.2400,77,98,5082
1.8280,0.2053,38.2400,77,98,5085
1.8231,0.2004,38.0800,77,98,5088
1.8133,0.1711,38.1500,77,98,5091
1.8768,0.1760,38.2700,77,98,5094
1.9355,0.1808,38.1500,77,98,5098
1.9159,0.1808,38.2400,77,98,5101
1.8964,0.1760,38.1100,77,98,5104
1.8426,0.1711,38.2700,77,98,5107
1.8573,0.1760,38.2400,77,98,5110
1.9453,0.1857,38.0500,77,98,5114
1.9599,0.1808,38.1500,77,98,5117
1.9795,0.1808,38.4600,77,98,5121
1.9208,0.1808,38.3300,77,98,5124
1.8768,0.1711,38.2400,77,98,5127
1.9404,0.1906,38.1800,77,98,5131
1.9501,0.1808,38.1800,77,98,5134
1.9941,0.1760,38.2100,77,98,5137
2.0088,0.1857,38.2400,77,98,5140
1.9648,0.1760,38.0200,77,98,5143
1.9795,0.1808,37.9000,77,98,5147
1.9501,0.1760,38.2100,77,98,5150
1.9892,0.1760,37.7700,77,98,5153
2.0626,0.2004,38.2100,77,98,5156
2.0772,0.1857,38.2400,77,98,5159
2.0919,0.1808,38.0500,77,98,5163
2.0137,0.1711,38.2100,77,98,5167
2.0186,0.1711,38.2700,77,98,5170
2.0821,0.1760,38.2100,77,98,5173
2.1261,0.1808,38.4300,77,98,5176
2.1848,0.1906,38.1800,77,98,5179
2.1212,0.1760,38.2400,77,98,5183
2.0821,0.1808,38.2700,77,98,5186
2.1017,0.1808,38.0500,77,98,5189
2.1017,0.1760,38.1500,77,98,5192
2.1799,0.1808,38.4900,77,98,5195
2.1750,0.1857,38.2400,77,98,5198
2.1408,0.1760,38.1500,77,98,5202
2.1359,0.1906,38.0800,77,98,5206
2.0772,0.1808,38.1800,77,98,5209
2.0772,0.1711,38.2700,77,98,5212
2.1114,0.1808,38.2400,77,98,5215
2.1212,0.1808,38.2400,77,98,5219
2.1359,0.1906,37.9900,77,98,5222
2.0186,0.1906,38.1500,77,98,5225
1.9453,0.1711,38.2400,77,98,5228
1.9795,0.1760,38.2400,77,98,5231
1.9697,0.1711,38.2100,77,98,5235
2.0186,0.1857,38.0200,77,98,5238
1.9159,0.1808,38.2400,77,98,5241
1.8377,0.1760,38.2400,77,98,5244
1.7937,0.1760,38.0800,77,98,5248
1.7595,0.1711,38.2400,77,98,5251
1.8231,0.1760,38.1100,77,98,5255
1.8133,0.1808,38.2100,77,98,5258
1.7937,0.1808,38.1500,77,98,5261
1.7546,0.1857,38.0800,77,98,5264
1.6764,0.1711,38.2100,77,98,5267
1.7009,0.1955,38.0800,77,98,5271
1.7155,0.1760,38.1500,77,98,5274
1.7498,0.1857,38.2400,77,98,5277
1.7693,0.1906,38.1800,77,98,5280
1.7058,0.1906,38.2100,77,98,5283
1.6569,0.1711,38.1100,77,98,5287
1.6422,0.1711,38.2400,77,98,5291
1.6862,0.1515,38.2400,77,98,5294
1.7840,0.2004,38.0500,77,98,5297
1.7498,0.1857,38.1100,77,98,5300
1.6960,0.1711,38.2400,77,98,5304
1.6569,0.1760,38.2400,77,98,5307
1.6569,0.1711,38.2400,77,98,5310
1.7498,0.1857,38.0200,77,98,5313
1.7595,0.1906,38.3000,77,98,5316
1.7791,0.1808,38.2400,77,98,5320
1.7644,0.2102,38.2100,77,98,5323
1.6911,0.1711,38.2700,77,98,5326
1.7155,0.1760,38.0200,77,98,5329
1.7302,0.1760,38.2400,77,98,5332
1.7889,0.1711,38.3000,77,98,5337
1.8328,0.1906,38.1100,77,98,5340
1.7742,0.1808,38.2400,77,98,5343
1.7595,0.1711,37.6200,77,98,5346
1.7155,0.1760,38.2400,77,98,5349
1.7546,0.1711,38.2700,77,98,5352
1.8328,0.1808,38.1500,77,98,5356
1.8426,0.1857,38.2700,77,98,5359
1.8328,0.1857,38.1100,77,98,5362
1.7498,0.1760,38.2400,77,98,5365
1.7400,0.1711,38.2400,77,98,5368
1.8133,0.1857,38.1500,77,98,5372
1.8475,0.1857,38.2700,77,98,5376
1.8768,0.1760,38.2100,77,98,5379
1.8426,0.2199,38.2400,77,98,5382
1.7937,0.1808,38.2400,77,98,5385
1.8231,0.1808,37.9900,77,98,5389
1.7937,0.1711,38.2100,77,98,5392
1.8524,0.1711,38.2100,77,98,5395
1.8817,0.1857,38.2400,77,98,5398
1.8426,0.1808,38.2400,77,98,5401
1.8426,0.1857,37.9600,77,98,5405
1.7595,0.1662,38.2700,77,98,5408
1.7889,0.1760,38.1500,77,98,5411
1.8524,0.1857,38.1500,77,98,5414
1.8622,0.1808,38.2400,77,98,5417
1.8719,0.1857,38.0500,77,98,5422
1.8182,0.1760,38.1500,77,98,5425
1.7595,0.1711,38.2400,77,98,5428
1.7840,0.1760,38.4600,77,98,5431
1.8231,0.1760,38.2400,77,98,5434
1.8915,0.1808,38.1100,77,98,5438
1.8377,0.1808,38.1500,77,98,5441
1.7889,0.1760,38.4000,77,98,5444
1.7595,0.1760,38.1800,77,98,5447
1.7595,0.1760,38.3000,77,98,5450
1.8280,0.1760,38.1100,77,98,5453
1.8475,0.1955,38.2400,77,98,5457
1.8475,0.1808,38.2700,77,98,5460
1.8328,0.2053,38.0200,77,98,5464
1.7889,0.1760,38.2100,77,98,5467
1.7644,0.2151,38.1800,77,98,5470
1.8280,0.1760,38.1800,77,98,5474
1.8475,0.1857,38.2400,77,98,5477
1.9306,0.2053,38.0200,77,98,5480
1.8182,0.1760,38.1500,77,98,5483
1.7742,0.1711,38.2400,77,98,5486
1.7546,0.1808,38.2400,77,98,5490
1.7937,0.1760,38.2700,77,98,5493
1.8915,0.1857,37.9600,77,98,5496
1.8671,0.2102,38.1500,77,98,5499
1.8133,0.1857,38.3000,77,98,5502
1.7693,0.1808,38.2100,77,98,5507
1.7595,0.1711,38.2400,77,98,5510
1.8231,0.1760,38.0200,77,98,5513
1.8426,0.1857,38.0500,77,98,5516
1.8133,0.1662,38.2100,77,98,5520
1.8817,0.1711,38.2100,77,98,5523
1.8622,0.1955,38.1100,77,98,5526
1.8035,0.1760,38.2400,77,98,5529
1.7840,0.1760,38.0200,77,98,5532
1.7351,0.1711,38.1800,77,98,5536
1.7742,0.1711,38.2400,77,98,5539
1.8377,0.2199,38.1800,77,98,5542
1.8475,0.1906,38.2100,77,98,5545
1.8377,0.2151,38.1100,77,98,5549
1.7644,0.1760,38.2400,77,98,5553
1.7351,0.1711,38.2400,77,98,5556
1.7937,0.1808,38.3300,77,98,5559
1.8377,0.1808,38.2100,77,98,5562
1.8719,0.1808,38.1100,77,98,5565
1.8231,0.1808,38.2100,77,98,5569
1.7791,0.1711,38.2700,77,98,5572
1.7986,0.1760,38.0500,77,98,5575
1.8328,0.1808,38.2100,77,98,5578
1.8622,0.1760,38.1800,77,98,5581
1.9062,0.1711,38.2100,77,98,5585
1.8768,0.1808,38.2400,77,98,5588
1.9062,0.1906,37.9900,77,98,5592
1.8377,0.1711,38.1500,77,98,5595
1.8671,0.1711,38.2400,77,98,5598
1.9355,0.1808,38.2700,77,98,5602
1.9648,0.2297,38.2700,77,98,5605
2.0088,0.1857,37.9600,77,98,5608
1.9355,0.1857,38.1500,77,98,5611
1.9013,0.1857,38.2100,77,98,5614
1.9453,0.1808,38.1800,77,98,5618
1.9990,0.1760,38.2400,77,98,5621
2.0674,0.1808,38.0800,77,98,5624
2.0479,0.1711,38.2100,77,98,5627
1.9648,0.1760,38.2700,77,98,5630
1.9159,0.1711,38.1500,77,98,5634
1.8964,0.1711,38.2700,77,98,5638
1.9501,0.1857,38.1100,77,98,5641
1.9306,0.2053,38.2100,77,98,5644
1.9013,0.1808,38.2700,77,98,5647
1.8573,0.1857,38.3000,77,98,5650
1.7498,0.1808,38.2100,77,98,5654
1.7449,0.1760,38.0800,77,98,5657
1.7546,0.2102,38.2100,77,98,5660
1.7791,0.2053,38.2400,77,98,5663
1.8182,0.1955,38.0500,77,98,5666
1.7351,0.1906,38.1100,77,98,5670
1.6764,0.1760,38.1500,77,98,5673
1.6716,0.1760,38.1800,77,98,5677
1.7155,0.1760,38.2100,77,98,5680
1.8084,0.1955,37.9300,77,98,5683
1.7840,0.1857,38.1800,77,98,5687
1.7351,0.1515,38.2700,77,98,5690
1.7058,0.1760,38.2100,77,98,5693
1.7009,0.1711,38.2400,77,98,5696
1.7791,0.1808,38.0800,77,98,5699
1.7937,0.1760,38.1800,77,98,5703
1.8133,0.1760,38.2700,77,98,5706
1.7937,0.1906,38.1100,77,98,5709
1.7204,0.2004,38.2400,77,98,5712
1.7400,0.2053,38.1100,77,98,5715
1.7546,0.1857,38.2100,77,98,5719
1.8280,0.1760,38.2400,77,98,5723
1.9110,0.1955,38.0800,77,98,5726
1.8964,0.1711,38.2400,77,98,5729
1.9795,0.1760,38.1100,77,98,5732
2.0772,0.1711,38.2100,77,98,5735
2.2972,0.1711,38.2400,77,98,5739
2.6246,0.1906,38.2100,77,98,5742
2.8886,0.1857,38.3600,77,98,5745
3.1036,0.1760,38.0500,77,98,5748
3.2160,0.1808,38.2400,77,98,5751
3.2600,0.1760,38.3000,77,98,5755
3.2551,0.1906,38.0200,77,98,5758
2.9717,0.1808,38.2100,77,98,5762
2.6491,0.1515,38.2400,77,98,5765
2.3069,0.1808,38.2700,77,98,5768
1.9844,0.1515,38.2400,77,98,5771
1.7595,0.1808,38.0500,77,98,5775
1.5200,0.1760,38.2700,77,98,5778
1.3978,0.1760,38.2400,77,98,5781
1.3245,0.1906,38.2400,77,98,5784
1.2561,0.1760,38.2400,77,98,5787
1.2610,0.1760,38.0800,77,98,5791
1.2659,0.1760,38.2700,77,98,5794
1.3392,0.1711,38.2100,77,98,5797
1.4370,0.2004,38.1100,77,98,5800
1.5103,0.1760,38.2400,77,98,5804
1.5934,0.1906,38.1500,77,98,5808
1.5836,0.1760,38.2400,77,98,5811
1.6178,0.1760,38.2100,77,98,5814
1.6716,0.1808,38.1500,77,98,5817
1.6960,0.1808,38.2400,77,98,5820
1.7449,0.1760,38.0800,77,98,5824
1.7302,0.1808,38.2400,77,98,5827
1.7302,0.1760,38.2400,77,98,5830
1.7742,0.1906,38.2100,77,98,5833
1.7546,0.1808,38.2400,77,98,5836
1.7693,0.1711,38.1800,77,98,5839
1.7889,0.1857,38.2100,77,98,5843
1.7937,0.1760,38.2400,77,98,5847
1.8328,0.1857,38.0200,77,98,5850
1.7791,0.1711,38.2100,77,98,5853
1.7986,0.1760,38.2400,77,98,5856
1.8280,0.1808,38.2100,77,98,5860
1.8328,0.1760,38.2700,77,98,5863
1.8768,0.1857,37.9600,77,98,5866
1.8280,0.1760,38.2700,77,98,5869
1.8377,0.1711,38.2700,77,98,5872
1.8573,0.1808,38.1500,77,98,5876
1.8573,0.1760,38.2400,77,98,5879
1.9110,0.1808,38.0500,77,98,5882
1.8817,0.1808,38.1500,77,98,5885
1.8719,0.2053,38.2400,77,98,5889
1.8817,0.1808,38.1800,77,98,5893
1.8719,0.1808,38.3000,77,98,5896
1.9159,0.1857,38.0500,77,98,5899
1.9013,0.2053,38.2100,77,98,5902
1.9110,0.1760,38.2700,77,98,5905
1.9550,0.1857,38.1800,77,98,5908
1.9355,0.1711,38.2700,77,98,5912
1.9159,0.1711,38.1800,77,98,5915
1.9208,0.1760,38.2700,77,98,5918
1.9501,0.1760,38.2400,77,98,5921
2.0186,0.1906,38.0200,77,98,5924
1.9648,0.1808,37.9600,77,98,5928
1.9599,0.1515,38.2400,77,98,5932
1.9697,0.1808,38.2400,77,98,5935
1.9795,0.1760,38.3300,77,98,5938
2.0626,0.1857,37.9900,77,98,5941
2.0283,0.1760,38.1500,77,98,5945
2.0381,0.1760,38.4300,77,98,5948
2.0479,0.1857,38.1500,77,98,5951
2.0381,0.1760,38.3000,77,98,5954
2.1017,0.1808,37.9600,77,98,5957
2.0919,0.1760,38.1800,77,98,5961
2.1065,0.1760,37.9600,77,98,5964
2.1163,0.2053,38.1500,77,98,5967
2.0968,0.1760,38.3000,77,98,5970
2.1261,0.1955,38.1100,77,98,5974
2.0968,0.1857,38.2400,77,98,5977
2.1163,0.2053,38.2100,77,98,5981
2.1457,0.1857,38.1800,77,98,5984
2.1261,0.2102,38.2400,77,98,5987
2.1310,0.1760,38.1500,77,98,5990
2.0919,0.1711,38.2100,77,98,5993
2.1017,0.1711,38.2400,77,98,5997
2.1359,0.1857,38.0800,77,98,6000
2.0919,0.1808,38.2100,77,98,6003
2.0723,0.1711,38.2400,77,98,6006
2.0283,0.1808,38.2700,77,98,6009
1.9844,0.1760,38.2400,77,98,6013
2.0186,0.1906,37.9300,77,98,6017
1.9550,0.1515,38.1100,77,98,6020
1.9355,0.1760,38.2400,77,98,6023
1.9159,0.1857,38.2100,77,98,6026
1.8524,0.1760,38.2700,77,98,6030
1.8573,0.2151,38.0200,77,98,6033
1.8035,0.1857,38.2100,77,98,6036
1.7840,0.1711,38.2400,77,98,6039
1.7937,0.1808,38.1800,77,98,6042
1.7693,0.1760,38.2400,77,98,6045
1.7644,0.1808,38.0200,77,98,6049
1.6960,0.1760,38.2400,77,98,6052
1.6960,0.1711,38.2400,77,98,6055
1.7058,0.1808,38.1800,77,98,6059
1.6960,0.1760,38.2700,77,98,6062
1.7204,0.1515,38.1100,77,98,6066
1.6764,0.1760,38.4000,77,98,6069
1.6667,0.1711,38.3300,77,98,6072
1.6911,0.1808,38.1100,77,98,6075
1.6716,0.1808,38.2400,77,98,6078
1.7058,0.1808,38.1800,77,98,6082
1.6960,0.1760,38.2100,77,98,6085
1.6862,0.1808,38.1800,77,98,6088
1.7253,0.1857,38.0800,77,98,6091
1.7058,0.1808,38.1800,77,98,6094
1.7009,0.1760,38.1800,77,98,6098
1.7204,0.1808,38.2100,77,98,6102
1.7155,0.1711,38.2400,77,98,6105
1.7595,0.1857,37.9300,77,98,6108
1.7058,0.1515,38.1100,77,98,6111
1.6862,0.1711,38.2400,77,98,6114
1.7107,0.1808,38.1500,77,98,6118
1.7253,0.1760,38.1100,77,98,6121
1.7693,0.1808,38.0200,77,98,6124
1.7986,0.1857,37.9300,77,98,6128
1.7693,0.1760,38.1500,77,98,6131
1.7644,0.1760,38.2400,77,98,6134
1.7546,0.1857,38.1800,77,98,6137
1.7253,0.1760,38.2700,77,98,6140
1.7791,0.1808,37.9900,77,98,6145
1.7644,0.2004,38.1100,77,98,6148
1.7693,0.1760,38.2400,77,98,6151
1.7840,0.1760,38.1800,77,98,6154
1.7644,0.1711,38.2100,77,98,6157
1.7937,0.1711,38.0500,77,98,6161
1.7693,0.1711,38.2700,77,98,6164
1.7986,0.1515,38.2400,77,98,6167
1.8231,0.1760,38.1500,77,98,6170
1.8084,0.1808,38.2400,77,98,6173
1.8182,0.1808,38.1500,77,98,6177
1.7840,0.1906,38.1800,77,98,6180
1.7937,0.1760,38.2100,77,98,6183
1.8377,0.2102,38.0500,77,98,6187
1.8280,0.1857,38.3000,77,98,6190
1.8231,0.2102,38.1500,77,98,6194
1.7889,0.1711,38.2100,77,98,6197
1.7791,0.1711,38.2400,77,98,6200
1.8231,0.1906,38.0200,77,98,6203
1.8035,0.1857,38.1800,77,98,6206
1.8035,0.1662,38.1800,77,98,6210
1.7937,0.1808,38.1800,77,98,6213
1.7742,0.1760,38.2400,77,98,6216
1.8035,0.1857,37.9900,77,98,6219
1.7693,0.1808,38.1500,77,98,6222
1.7840,0.1760,38.3000,77,98,6225
1.8231,0.1857,38.2400,77,98,6230
1.8084,0.1857,38.2400,77,98,6233
1.8035,0.1808,37.9900,77,98,6236
1.7155,0.1760,38.2100,77,98,6239
1.6960,0.1760,38.2400,77,98,6242
1.7302,0.1857,38.0800,77,98,6246
1.7644,0.1906,38.3000,77,98,6249
1.8035,0.1955,38.0800,77,98,6252
1.7693,0.1808,38.2400,77,98,6255
1.6960,0.1808,38.2400,77,98,6258
1.7400,0.1857,38.0800,77,98,6262
1.7107,0.1711,38.2400,77,98,6265
1.7986,0.1808,38.0800,77,98,6268
1.8035,0.1711,38.2400,77,98,6272
1.7693,0.1808,38.2400,77,98,6275
1.7595,0.1711,38.0800,77,98,6278
1.7204,0.1808,38.2100,77,98,6282
1.7351,0.1711,38.1800,77,98,6285
1.7791,0.1808,38.2100,77,98,6288
1.8035,0.1808,38.3000,77,98,6291
1.8328,0.2004,37.9900,77,98,6294
1.7449,0.1808,38.1100,77,98,6298
1.7058,0.1711,38.2700,77,98,6301
1.7351,0.1906,38.2400,77,98,6304
1.7889,0.1808,38.2100,77,98,6307
1.8622,0.1906,37.9600,77,98,6310
1.7937,0.1857,38.1800,77,98,6315
1.7400,0.1760,38.3000,77,98,6318
1.7204,0.1955,38.0800,77,98,6321
1.7155,0.1711,38.2100,77,98,6324
1.7986,0.1955,38.0200,77,98,6327
1.8133,0.1711,38.2400,77,98,6331
1.8035,0.1808,38.2400,77,98,6334
1.7986,0.1955,38.1500,77,98,6337
1.7449,0.1711,38.2400,77,98,6340
1.8035,0.1808,38.2400,77,98,6343
1.8328,0.1808,38.2400,77,98,6346
1.8915,0.1808,38.2400,77,98,6350
1.9257,0.1906,38.0800,77,98,6353
1.8768,0.1808,38.1800,77,98,6356
1.8622,0.1711,38.1100,77,98,6360
1.8524,0.1760,38.3000,77,98,6363
1.9062,0.1760,38.2400,77,98,6367
2.0088,0.1857,38.1100,77,98,6370
1.9844,0.2199,38.1500,77,98,6373
1.9306,0.2053,38.1800,77,98,6376
1.9110,0.1760,38.1800,77,98,6379
1.8817,0.1760,38.2400,77,98,6383
1.9697,0.1906,37.9300,77,98,6386
1.9501,0.1808,38.1800,77,98,6389
1.9404,0.1808,38.2400,77,98,6392
1.9062,0.1857,38.1500,77,98,6395
1.8133,0.1711,38.2700,77,98,6400
1.8231,0.1760,37.9600,77,98,6403
1.8035,0.1760,38.1500,77,98,6406
1.8377,0.1808,38.2100,77,98,6409
1.8426,0.1906,38.1100,77,98,6412
1.7644,0.1857,38.2100,77,98,6416
1.7400,0.1760,38.0800,77,98,6419
1.6764,0.2053,38.1800,77,98,6422
1.7107,0.1808,38.3000,77,98,6425
1.7742,0.2248,38.1500,77,98,6428
1.7840,0.1857,38.2100,77,98,6431
1.7693,0.1906,38.1100,77,98,6435
1.6862,0.1760,38.2100,77,98,6438
1.6667,0.1760,38.2400,77,98,6441
1.7302,0.1857,38.0800,77,98,6445
1.7840,0.1857,38.1800,77,98,6448
1.7840,0.1857,38.1100,77,98,6452
1.7498,0.1808,38.2400,77,98,6455
1.7009,0.1760,38.2400,77,98,6458
1.7204,0.1906,38.0200,77,98,6461
1.7009,0.1515,38.1800,77,98,6464
1.7498,0.1760,38.2700,77,98,6468
1.7840,0.1906,38.1500,77,98,6471
1.7546,0.1808,38.2100,77,98,6474
1.7595,0.1808,37.9300,77,98,6477
1.7155,0.1515,38.1800,77,98,6480
1.8035,0.1711,38.2100,77,98,6483
1.9697,0.1857,38.3300,77,98,6488
2.1359,0.1760,38.3000,77,98,6491
2.3558,0.1857,37.9900,77,98,6494
2.5171,0.1808,38.1100,77,98,6497
2.7175,0.1955,38.2400,77,98,6500
2.9765,0.1711,38.1100,77,98,6504
3.1818,0.1808,38.2700,77,98,6507
3.3675,0.1711,38.1100,77,98,6510
3.1672,0.1808,38.2100,77,98,6513
2.8886,0.1711,38.2400,77,98,6516
2.5611,0.1808,38.1800,77,98,6520
2.2092,0.1515,38.2100,77,98,6523
1.9599,0.1711,38.1500,77,98,6526
1.7204,0.1808,38.3300,77,98,6530
1.5249,0.1808,38.2400,77,98,6533
1.3783,0.1906,37.9000,77,98,6537
1.2170,0.1808,38.0800,77,98,6540
1.1632,0.1662,38.1800,77,98,6543
1.2023,0.1808,37.4600,77,98,6546
1.2708,0.1808,38.2100,77,98,6549
1.3783,0.1906,37.9300,77,98,6552
1.3685,0.1760,38.2100,77,98,6556
1.3978,0.1711,37.9000,77,98,6559
1.4565,0.1808,38.2100,77,98,6562
1.5347,0.1808,38.2400,77,98,6565
1.6569,0.1906,37.9600,77,98,6568
1.6716,0.1906,38.1100,77,98,6573
1.6520,0.1955,38.2400,77,98,6576
1.6373,0.1711,38.1500,77,98,6579
1.6276,0.1711,38.2400,77,98,6582
1.6960,0.1760,38.0800,77,98,6585
1.7351,0.1808,38.2400,77,98,6589
1.7644,0.1808,38.2100,77,98,6592
1.7498,0.1808,38.1500,77,98,6595
1.7009,0.1760,38.2100,77,98,6598
1.7204,0.1808,38.0800,77,98,6601
1.7351,0.1515,38.2100,77,98,6605
1.8035,0.1760,38.2400,77,98,6608
1.8671,0.1906,37.6800,77,98,6611
1.8133,0.1808,38.1800,77,98,6615
1.7791,0.1711,38.1100,77,98,6618
1.7400,0.1906,38.2400,77,98,6621
1.7644,0.1760,38.2100,77,98,6625
1.8768,0.1955,38.0200,77,98,6628
1.8671,0.2053,38.0800,77,98,6631
1.8377,0.1760,38.2100,77,98,6634
1.7937,0.1808,38.1500,77,98,6637
1.7595,0.1760,38.2400,77,98,6641
1.8524,0.1808,37.9300,77,98,6644
1.8719,0.1857,38.1100,77,98,6647
1.8915,0.1906,38.2700,77,98,6650
1.8964,0.1857,38.1800,77,98,6653
1.8426,0.1760,38.2100,77,98,6658
1.8573,0.1711,37.9900,77,98,6661
1.8426,0.1711,38.3000,77,98,6664
1.9013,0.1808,38.2100,77,98,6667
1.9599,0.1857,38.1100,77,98,6670
1.9404,0.1808,38.4300,77,98,6674
1.9257,0.1808,38.0800,77,98,6677
1.8622,0.1711,38.1100,77,98,6680
1.8866,0.1760,38.2100,77,98,6683
1.9746,0.2199,38.0800,77,98,6686
1.9892,0.1857,38.1800,77,98,6689
2.0381,0.1857,38.0800,77,98,6693
1.9501,0.1760,38.2400,77,98,6696
1.9110,0.1808,38.3000,77,98,6700
1.9697,0.1906,38.1100,77,98,6703
2.0088,0.1857,38.1800,77,98,6706
2.0528,0.1857,38.1500,77,98,6710
2.0577,0.1857,38.2100,77,98,6713
2.0137,0.1760,38.2400,77,98,6716
2.0674,0.1955,37.9900,77,98,6719
2.0186,0.1808,38.1100,77,98,6722
2.0528,0.1760,38.3000,77,98,6726
2.1163,0.1808,38.2100,77,98,6729
2.1408,0.1857,38.2100,77,98,6732
2.1408,0.1857,37.9600,77,98,6735
2.1896,0.1955,37.9600,77,98,6740
2.0870,0.1711,38.0800,77,98,6744
2.0186,0.1711,38.2700,77,98,6747
1.9990,0.1808,38.2100,77,98,6750
2.0039,0.1760,38.2100,77,98,6753
2.0772,0.1906,38.0200,77,98,6757
2.0235,0.1857,38.2100,77,98,6760
1.9501,0.1808,38.2700,77,98,6763
1.8817,0.1808,38.1800,77,98,6766
1.8328,0.1711,38.3300,77,98,6769
1.8671,0.1906,38.1100,77,98,6773
1.8573,0.2053,38.3000,77,98,6776
1.8475,0.1808,38.2100,77,98,6779
1.7986,0.1760,38.1800,77,98,6782
1.7204,0.1857,38.2100,77,98,6786
1.7009,0.1760,38.0800,77,98,6790
1.7253,0.1808,38.2700,77,98,6793
1.7351,0.1760,38.2400,77,98,6796
1.7742,0.1955,38.0500,77,98,6799
1.7009,0.1808,38.2100,77,98,6802
1.6520,0.1760,38.1500,77,98,6805
1.6178,0.1760,38.2100,77,98,6809
1.6325,0.1711,38.2400,77,98,6812
1.7204,0.2004,38.0500,77,98,6815
1.7155,0.1857,38.0800,77,98,6818
1.6960,0.1760,38.2100,77,98,6821
1.6325,0.1808,38.1800,77,98,6825
1.6031,0.1711,38.2400,77,98,6829
1.6667,0.1857,38.0500,77,98,6832
1.6960,0.1808,38.1500,77,98,6835
1.7155,0.1808,38.3000,77,98,6838
1.7155,0.2102,38.1500,77,98,6842
1.6667,0.1857,38.3000,77,98,6845
1.6667,0.1857,38.0200,77,98,6848
1.6862,0.1711,38.2100,77,98,6851
1.7107,0.1760,38.1800,77,98,6854
1.7644,0.1857,38.0800,77,98,6858
1.7498,0.1857,38.2100,77,98,6861
1.7302,0.1760,38.0800,77,98,6864
1.6716,0.1711,38.2100,77,98,6867
1.6960,0.1711,38.1100,77,98,6871
1.7742,0.2004,38.0200,77,98,6874
1.7840,0.1808,38.2400,77,98,6878
1.8035,0.1857,37.9300,77,98,6881
1.7302,0.1906,38.2100,77,98,6884
1.6911,0.1711,38.3300,77,98,6887
1.7351,0.1857,38.0200,77,98,6890
1.7693,0.1808,38.1100,77,98,6894
1.8133,0.1857,38.1500,77,98,6897
1.8231,0.1857,38.1800,77,98,6900
1.7546,0.1760,38.1100,77,98,6903
1.7742,0.1906,37.9900,77,98,6906
1.7351,0.1760,38.2100,77,98,6910
1.7693,0.1711,38.2400,77,98,6914
1.8231,0.2004,38.1800,77,98,6917
1.8280,0.2102,38.3000,77,98,6920
1.8280,0.1906,37.9600,77,98,6923
1.7302,0.1711,38.2100,77,98,6927
1.7253,0.1760,38.2100,77,98,6930
1.8133,0.1857,38.1100,77,98,6933
1.8524,0.1760,38.2700,77,98,6936
1.9013,0.1808,38.0200,77,98,6939
1.8035,0.1808,38.2400,77,98,6943
1.7644,0.1711,38.2400,77,98,6946
1.7693,0.1808,38.0800,77,98,6949
1.7742,0.1760,38.2400,77,98,6952
1.8573,0.1906,38.1800,77,98,6956
1.8377,0.1857,38.3000,77,98,6959
1.8035,0.1808,38.2400,77,98,6963
1.7742,0.1808,38.0500,77,98,6966
1.7449,0.1760,38.2400,77,98,6969
1.7889,0.1760,38.0800,77,98,6972
1.8182,0.1808,38.3000,77,98,6975
1.8426,0.1808,38.1800,77,98,6979
1.8622,0.1955,38.0500,77,98,6982
1.7791,0.1857,38.1500,77,98,6985
1.7400,0.1662,38.1500,77,98,6988
1.7742,0.1760,38.2100,77,98,6991
1.8182,0.1808,38.2400,77,98,6995
1.9306,0.1955,37.9300,77,98,6999
1.8231,0.1808,38.2100,77,98,7002
1.7742,0.1760,38.2400,77,98,7005
1.7595,0.1808,38.1800,77,98,7008
1.7644,0.1760,38.2100,77,98,7012
1.8622,0.1857,37.9600,77,98,7015
1.8622,0.1857,38.2400,77,98,7018
1.8524,0.1857,38.2100,77,98,7021
1.8133,0.1808,38.1500,77,98,7024
1.7498,0.1711,38.2400,77,98,7028
1.7889,0.1760,38.0200,77,98,7031
1.8133,0.1760,38.1500,77,98,7034
1.8524,0.1808,38.2400,77,98,7037
1.8524,0.1857,38.1500,77,98,7041
1.7937,0.2297,38.1800,77,98,7045
1.7840,0.2053,38.1500,77,98,7048
1.7595,0.1808,38.2400,77,98,7051
1.8231,0.1711,38.2100,77,98,7054
1.8817,0.1906,38.2100,77,98,7057
1.8622,0.1711,38.2100,77,98,7060
1.8182,0.1760,38.1100,77,98,7064
1.7546,0.1760,38.2400,77,98,7067
1.7693,0.1711,37.5300,77,98,7070
1.8671,0.1906,38.0200,77,98,7073
1.8866,0.1808,38.2100,77,98,7076
1.9013,0.1955,38.1500,77,98,7080
1.8719,0.1857,38.3000,77,98,7084
1.8328,0.1760,38.2400,77,98,7087
1.9013,0.1808,37.9300,77,98,7090
1.9404,0.1711,38.1100,77,98,7093
1.9795,0.1711,38.2400,77,98,7097
1.9990,0.1906,38.1800,77,98,7100
1.9404,0.1808,38.3300,77,98,7103
1.9453,0.1515,37.9600,77,98,7106
1.9110,0.1760,38.1500,77,98,7109
1.9501,0.1760,38.2400,77,98,7113
2.0186,0.1857,38.1100,77,98,7116
2.0137,0.1808,38.2100,77,98,7119
1.9990,0.1808,37.3100,77,98,7122
1.9013,0.1711,38.2100,77,98,7126
1.8671,0.1711,38.2100,77,98,7130
1.8866,0.1857,38.0800,77,98,7133
1.9110,0.1955,38.2400,77,98,7136
1.9257,0.1857,38.1500,77,98,7139
1.8377,0.1857,38.2400,77,98,7142
1.7644,0.1760,38.2400,77,98,7145
1.7498,0.1808,38.0500,77,98,7149
1.7302,0.1760,38.2100,77,98,7152
1.7840,0.1515,38.1100,77,98,7155
1.7889,0.1857,38.2100,77,98,7158
1.7546,0.1808,38.2400,77,98,7161
1.7546,0.1906,38.1800,77,98,7165
1.6960,0.1808,37.7400,77,98,7169
1.7155,0.1662,38.1800,77,98,7172
1.7693,0.1808,37.4600,77,98,7175
1.7937,0.1808,38.2100,77,98,7178
1.8231,0.1906,37.5300,77,98,7182
1.7498,0.1808,38.3000,77,98,7185
1.7107,0.1711,38.4300,77,98,7188
1.7546,0.1808,38.1800,77,98,7191
1.7791,0.1808,38.2400,77,98,7194
1.8866,0.1711,38.0200,77,98,7198
1.7986,0.1808,38.1100,77,98,7201
1.7400,0.1760,38.2400,77,98,7204
1.7253,0.1711,38.0800,77,98,7207
1.7253,0.1760,38.2100,77,98,7211
1.8280,0.1808,38.0800,77,98,7214
1.8817,0.1808,38.2100,77,98,7218
1.9599,0.1808,38.2100,77,98,7221
2.0772,0.1857,38.0800,77,98,7224
2.1799,0.1760,38.2100,77,98,7227
2.4389,0.1760,38.0500,77,98,7230
2.7077,0.1760,38.1800,77,98,7234
2.9912,0.1515,38.2700,77,98,7237
3.2454,0.1857,38.0800,77,98,7240
3.2845,0.1857,38.1500,77,98,7243
3.1818,0.1711,38.1800,77,98,7246
2.9717,0.1760,37.4600,77,98,7250
2.7077,0.1857,38.2400,77,98,7254
2.4927,0.2053,37.9600,77,98,7257
2.1261,0.2346,38.1100,77,98,7260
1.7937,0.1808,38.2400,77,98,7263
1.5347,0.1808,38.2100,77,98,7267
1.3490,0.1760,38.2400,77,98,7270
1.3099,0.1808,37.9300,77,98,7273
1.2512,0.1955,38.1500,77,98,7276
1.2512,0.1808,38.2100,77,98,7279
1.2512,0.1906,38.0500,77,98,7282
1.2366,0.1760,38.2400,77,98,7286
1.3001,0.1760,38.0200,77,98,7289
1.3783,0.1760,38.2400,77,98,7292
1.4956,0.1808,38.3300,77,98,7296
1.5885,0.1906,38.0800,77,98,7299
1.5738,0.1808,38.2400,77,98,7303
1.5836,0.1808,38.2700,77,98,7306
1.5640,0.1711,38.1800,77,98,7309
1.6129,0.1760,38.1500,77,98,7312
1.7107,0.1760,38.0800,77,98,7315
1.7302,0.1906,38.1500,77,98,7319
1.7253,0.1808,38.4600,77,98,7322
1.6716,0.1760,38.1800,77,98,7325
1.6569,0.1760,38.2100,77,98,7328
1.7400,0.1906,38.0200,77,98,7331
1.7693,0.1906,38.1500,77,98,7334
1.7937,0.2151,38.1800,77,98,7339
1.7840,0.1857,38.2100,77,98,7342
1.7400,0.1711,38.2700,77,98,7345
1.7644,0.1857,37.9300,77,98,7348
1.8084,0.1906,38.0200,78,98,7353
1.7546,0.1955,38.1100,78,98,7356
1.7742,0.1906,38.1800,78,98,7359
1.8328,0.1857,38.2100,78,98,7362
1.8573,0.1808,38.2700,78,98,7366
1.8964,0.1906,37.9300,78,98,7369
1.8035,0.1711,38.1100,78,98,7372
1.7791,0.1711,38.2400,78,98,7375
1.8133,0.1808,38.1800,78,98,7378
1.8671,0.1808,38.2700,78,98,7383
1.9550,0.1906,38.0200,78,98,7386
1.9110,0.1808,38.0200,78,98,7389
1.8671,0.1711,38.2100,78,98,7392
1.8573,0.1760,37.9600,78,98,7395
1.8671,0.1711,38.1800,78,98,7399
1.9599,0.1760,38.0800,78,98,7402
1.9795,0.1760,38.3000,78,98,7405
1.9844,0.1857,38.2100,78,98,7408
1.9795,0.1808,38.0800,78,98,7411
1.9257,0.1711,38.2100,78,98,7415
1.9697,0.1760,38.1100,78,98,7418
1.9990,0.1808,38.2400,78,98,7421
2.0528,0.1808,38.2100,78,98,7425
2.0919,0.1906,38.0200,78,98,7428
2.0430,0.1857,38.1800,78,98,7431
2.0088,0.1760,38.1100,78,98,7435
2.0039,0.1808,38.2400,78,98,7438
2.0626,0.1857,38.2400,78,98,7441
2.1799,0.2102,37.9900,78,98,7444
2.1457,0.1955,38.0800,78,98,7447
2.0968,0.1760,38.2700,78,98,7451
2.0626,0.1808,38.1800,78,98,7454
2.0528,0.1662,38.2100,78,98,7457
2.1408,0.1857,37.9900,78,98,7460
2.1457,0.1906,38.1500,78,98,7463
2.1408,0.1760,38.2100,78,98,7467
2.1310,0.1906,38.1800,78,98,7471
2.0528,0.1760,38.2100,78,98,7474
2.0577,0.1760,38.0200,78,98,7477
2.0430,0.1760,38.2100,78,98,7480
2.0723,0.1760,38.2400,78,98,7483
2.1017,0.1808,38.0500,78,98,7487
2.0235,0.1760,38.1800,78,98,7490
1.9892,0.1857,38.0500,78,98,7493
1.9208,0.2004,38.0500,78,98,7496
1.9110,0.1711,38.2400,78,98,7499
1.9599,0.1857,37.8300,78,98,7502
1.9306,0.1857,38.1500,78,98,7506
1.8866,0.1808,38.1100,78,98,7510
1.8182,0.2151,38.2100,78,98,7513
1.7742,0.1711,38.2400,78,98,7516
1.8035,0.1906,38.0500,78,98,7519
1.7595,0.1808,38.1100,78,98,7523
1.7693,0.1711,38.2100,78,98,7526
1.7204,0.1808,38.3000,78,98,7529
1.6960,0.1760,38.2400,78,98,7532
1.7302,0.1857,37.9300,78,98,7535
1.6960,0.1808,37.9000,78,98,7539
1.7058,0.1760,38.2100,78,98,7542
1.7351,0.1857,38.1800,78,98,7545
1.7058,0.1760,38.3000,78,98,7548
1.7204,0.1808,37.9900,78,98,7552
1.6813,0.1711,38.3300,78,98,7556
1.7009,0.1955,38.3000,78,98,7559
1.7400,0.1857,38.0800,78,98,7562
1.7253,0.1955,38.2100,78,98,7565
1.7546,0.1808,38.0800,78,98,7568
1.7107,0.1760,38.2100,78,98,7571
1.7058,0.1857,38.2400,78,98,7575
1.7400,0.1906,38.0500,78,98,7578
1.7400,0.1808,38.2400,78,98,7581
1.7644,0.1808,38.1800,78,98,7584
1.7400,0.1808,38.1800,78,98,7587
1.7204,0.1760,38.2700,78,98,7591
1.7546,0.2151,38.1100,78,98,7595
1.7400,0.1760,38.1100,78,98,7598
1.7449,0.1760,38.1500,78,98,7601
1.7498,0.1808,38.2100,78,98,7604
1.7546,0.1760,38.2100,78,98,7608
1.8035,0.1906,37.9300,78,98,7611
1.7498,0.1515,38.1500,78,98,7614
1.7546,0.1711,38.3000,78,98,7617
1.7889,0.1808,38.2100,78,98,7620
1.7937,0.1760,38.4000,78,98,7624
1.8426,0.1857,37.9300,78,98,7627
1.7889,0.1760,38.1500,78,98,7630
1.7791,0.1760,38.2100,78,98,7633
1.8084,0.1857,38.1100,78,98,7636
1.7937,0.1760,38.2100,78,98,7641
1.8377,0.1760,38.0200,78,98,7644
1.8084,0.1760,38.1500,78,98,7647
1.7937,0.1760,38.2400,78,98,7650
1.8035,0.1808,38.1100,78,98,7653
1.7791,0.1760,38.3000,78,98,7656
1.8231,0.1808,37.4000,78,98,7660
1.8035,0.1760,38.0200,78,98,7663
1.8084,0.1760,38.2400,78,98,7666
1.8231,0.1808,38.1500,78,98,7669
1.7889,0.2102,38.1800,78,98,7672
1.7937,0.2053,38.1100,78,98,7676
1.7791,0.1711,38.1800,78,98,7680
1.7986,0.1760,38.2700,78,98,7683
1.8426,0.1857,38.0200,78,98,7686
1.7937,0.1808,38.2100,78,98,7689
1.7693,0.1711,38.2100,78,98,7693
1.7644,0.1808,38.3300,78,98,7696
1.7693,0.1760,38.2100,78,98,7699
1.8328,0.2199,37.8700,78,98,7702
1.8035,0.1760,38.1100,78,98,7705
1.7840,0.1760,38.2400,78,98,7709
1.7791,0.1857,38.1800,78,98,7712
1.7498,0.1760,38.2400,78,98,7715
1.8035,0.1808,37.9300,78,98,7718
1.7889,0.1760,38.1500,78,98,7721
1.7889,0.1760,38.2700,78,98,7726
1.7986,0.1808,38.1100,78,98,7729
1.7742,0.1760,38.2100,78,98,7732
1.7937,0.1760,38.0800,78,98,7735
1.7693,0.1711,38.2100,78,98,7738
1.7889,0.1760,38.2100,78,98,7741
1.8133,0.1760,38.1500,78,98,7745
1.7937,0.1808,38.2100,78,98,7748
1.7986,0.1808,38.0800,78,98,7751
1.7595,0.1760,38.2100,78,98,7754
1.7742,0.1760,38.2100,78,98,7757
1.8231,0.1857,38.1100,78,98,7761
1.7986,0.1808,38.2100,78,98,7764
1.8084,0.1760,38.2100,78,98,7768
1.7742,0.1760,38.0200,78,98,7771
1.7644,0.1711,38.3000,78,98,7774
1.8133,0.1906,37.9600,78,98,7778
1.7937,0.2053,38.1100,78,98,7781
1.7937,0.1760,38.1500,78,98,7784
1.7889,0.1808,38.1800,78,98,7787
1.7693,0.1760,38.2400,78,98,7790
1.8035,0.1857,37.9000,78,98,7794
1.7791,0.1808,38.0800,78,98,7797
1.7889,0.1711,38.2100,78,98,7800
1.8084,0.1808,38.1800,78,98,7803
1.7889,0.1760,38.2100,78,98,7806
1.8084,0.1808,37.9600,78,98,7811
1.7595,0.1760,38.0800,78,98,7814
1.7595,0.1711,38.2100,78,98,7817
1.7889,0.1808,38.0800,78,98,7820
1.7840,0.1808,38.2100,78,98,7823
1.8182,0.1760,38.1100,78,98,7826
1.7791,0.1760,38.3000,78,98,7830
1.7742,0.1711,38.2100,78,98,7833
1.8084,0.1857,38.0200,78,98,7836
1.7986,0.1760,38.2100,78,98,7839
1.8475,0.1857,38.0500,78,98,7842
1.8377,0.1808,38.1800,78,98,7846
1.8377,0.1760,38.1800,78,98,7849
1.8719,0.1955,38.0200,78,98,7853
1.8671,0.1808,38.1500,78,98,7856
1.8866,0.1662,38.1800,78,98,7859
1.9062,0.1808,38.2100,78,98,7863
1.9159,0.1760,38.2400,78,98,7866
1.9697,0.1906,37.9600,78,98,7869
1.9208,0.1808,38.1500,78,98,7872
1.9208,0.1711,38.2100,78,98,7875
1.9404,0.1808,38.4000,78,98,7879
1.9501,0.1760,38.2100,78,98,7882
2.0039,0.1857,37.9300,78,98,7885
1.9453,0.1808,38.3000,78,98,7888
1.8964,0.1711,38.3000,78,98,7891
1.8866,0.1857,38.1100,78,98,7895
1.8426,0.1760,38.3300,78,98,7899
1.8622,0.1760,38.0800,78,98,7902
1.8133,0.2004,38.2400,78,98,7905
1.7889,0.2004,38.2400,78,98,7908
1.7791,0.1857,38.1100,78,98,7911
1.7498,0.1711,38.2100,78,98,7915
1.7449,0.1808,38.1100,78,98,7918
1.7107,0.1711,38.2400,78,98,7921
1.7204,0.1711,38.2100,78,98,7924
1.7449,0.1857,38.0200,78,98,7927
1.7155,0.1808,38.2100,78,98,7931
1.7204,0.1760,38.0800,78,98,7934
1.7058,0.1760,38.2100,78,98,7938
1.7204,0.1760,38.1100,78,98,7941
1.7791,0.2199,38.0800,78,98,7944
1.7449,0.1808,38.2700,78,98,7947
1.7253,0.1711,38.2400,78,98,7951
1.7400,0.1857,38.1500,78,98,7954
1.7302,0.1808,38.2100,78,98,7957
1.7840,0.1857,37.9000,78,98,7960
1.7889,0.1857,38.0200,78,98,7965
1.8133,0.1808,38.1800,78,98,7968
1.8817,0.1711,37.9900,78,98,7971
1.9892,0.1808,38.1800,78,98,7974
2.1359,0.1760,38.2100,78,98,7979
2.4047,0.1906,37.9900,78,98,7982
2.6100,0.1808,38.0200,78,98,7985
2.8543,0.1711,38.2400,78,98,7988
3.0938,0.1760,38.2100,78,98,7991
3.2307,0.1955,38.2700,78,98,7995
3.3089,0.1808,37.9600,78,98,7998
3.1036,0.1760,38.1100,78,98,8001
2.8299,0.1711,38.3300,78,98,8004
2.5415,0.1808,38.0200,78,98,8007
2.1994,0.1760,37.6800,78,98,8010
1.9404,0.1760,38.0500,78,98,8014
1.6471,0.1760,38.4000,78,98,8017
1.4467,0.1711,38.2700,78,98,8020
1.3294,0.1857,38.0500,78,98,8024
1.2268,0.1760,38.2100,78,98,8027
1.2219,0.1857,38.0200,78,98,8031
1.2121,0.1955,38.2100,78,98,8034
1.2414,0.1760,38.3000,78,98,8037
1.3099,0.2102,38.0500,78,98,8040
1.3587,0.1857,38.2100,78,98,8043
1.4321,0.1955,38.1100,78,98,8047
1.5347,0.1760,38.3000,78,98,8050
1.5543,0.1711,38.2100,78,98,8053
1.6325,0.1955,37.9900,78,98,8056
1.6080,0.1808,38.1500,78,98,8059
1.6178,0.1711,38.2100,78,98,8064
1.6471,0.1808,38.1800,78,98,8067
1.6716,0.1857,38.2700,78,98,8070
1.7351,0.1955,37.9900,78,98,8073
1.7058,0.1808,38.1500,78,98,8076
1.6911,0.1760,38.3000,78,98,8079
1.7107,0.1857,38.1100,78,98,8083
1.7058,0.1760,38.2400,78,98,8086
1.7644,0.1760,37.9900,78,98,8089
1.7400,0.1711,38.2400,78,98,8092
1.7498,0.1711,38.2100,78,98,8095
1.7546,0.1906,38.1100,78,98,8099
1.7302,0.1760,38.2100,78,98,8102
1.7791,0.1760,37.4600,78,98,8105
1.7693,0.1760,38.1800,78,98,8109
1.7937,0.1760,38.2700,78,98,8112
1.8231,0.2004,38.0500,78,98,8116
1.7937,0.1808,38.2100,78,98,8119
1.8084,0.1760,38.0800,78,98,8122
1.7986,0.1760,38.3300,78,98,8125
1.8328,0.1760,38.2400,78,98,8128
1.9013,0.1955,38.0500,78,98,8132
1.8671,0.1857,38.1500,78,98,8135
1.8377,0.1808,38.1500,78,98,8138
1.8084,0.1760,38.2100,78,98,8141
1.8377,0.1760,38.2100,78,98,8144
1.8964,0.1906,37.9300,78,98,8147
1.8915,0.1808,38.1800,78,98,8152
1.8866,0.1515,38.2400,78,98,8155
1.8719,0.1857,37.9000,78,98,8158
1.8182,0.1711,38.1800,78,98,8161
1.8622,0.1808,37.9900,78,98,8164
1.8573,0.1808,38.2100,78,98,8168
1.9159,0.1808,38.2400,78,98,8171
1.9501,0.2151,38.1500,78,98,8174
1.9159,0.1711,38.2100,78,98,8177
1.9159,0.1760,38.0200,78,98,8180
1.9013,0.1711,38.1500,78,98,8184
1.9453,0.1711,38.2100,78,98,8187
2.0283,0.1857,38.0800,78,98,8190
2.0283,0.1808,38.4000,78,98,8194
2.0332,0.1857,38.0800,78,98,8197
1.9599,0.1760,38.2100,78,98,8201
1.9599,0.1711,38.2100,78,98,8204
2.0283,0.1808,38.1800,78,98,8207
2.0674,0.1808,38.1800,78,98,8210
2.1065,0.1808,38.1100,78,98,8213
2.0674,0.1808,38.2100,78,98,8217
2.0235,0.1711,38.2400,78,98,8220
2.0626,0.1857,38.0200,78,98,8223
2.0479,0.1808,38.1500,78,98,8226
2.0870,0.1711,38.2700,78,98,8229
2.1212,0.1857,38.1800,78,98,8232
2.0870,0.1808,37.4600,78,98,8237
2.0870,0.1808,37.9000,78,98,8240
1.9892,0.1711,38.1500,78,98,8243
2.0088,0.1711,38.1800,78,98,8246
2.0577,0.1857,38.1500,78,98,8249
2.0479,0.1808,38.2100,78,98,8253
2.0479,0.1857,38.0200,78,98,8256
1.9306,0.1760,38.1100,78,98,8259
1.8622,0.1711,38.2400,78,98,8262
1.8671,0.1857,38.1100,78,98,8265
1.9062,0.1711,38.2100,78,98,8269
1.9159,0.1808,38.0800,78,98,8272
1.8475,0.1808,38.2400,78,98,8275
1.7693,0.1711,38.1800,78,98,8279
1.7253,0.1760,38.1500,78,98,8282
1.7058,0.1760,38.2100,78,98,8285
1.7449,0.1808,38.0800,78,98,8289
1.7546,0.1808,38.2100,78,98,8292
1.7400,0.1808,38.2100,78,98,8295
1.7107,0.1857,38.0200,78,98,8298
1.6325,0.1760,38.2100,78,98,8301
1.6227,0.1711,38.0800,78,98,8305
1.6569,0.1808,38.1800,78,98,8308
1.6862,0.1808,38.2100,78,98,8311
1.7351,0.2004,37.9900,78,98,8314
1.6471,0.1662,38.0500,78,98,8317
1.5982,0.1808,38.2100,78,98,8322
1.6080,0.1808,38.1800,78,98,8325
1.6227,0.1760,38.2100,78,98,8328
1.7253,0.1808,37.9300,78,98,8331
1.7058,0.1808,38.1500,78,98,8334
1.6813,0.1857,38.2100,78,98,8338
1.6373,0.1808,38.1800,78,98,8341
1.6227,0.1515,38.2100,78,98,8344
1.6960,0.1760,38.0200,78,98,8347
1.7204,0.1760,38.2100,78,98,8350
1.7546,0.1808,38.3300,78,98,8353
1.7400,0.1808,38.1500,78,98,8357
1.6911,0.1760,38.1800,78,98,8360
1.7058,0.1808,38.0800,78,98,8364
1.7253,0.1760,38.4000,78,98,8367
1.7889,0.1808,38.2100,78,98,8370
1.8377,0.1906,38.1100,78,98,8374
1.7840,0.1906,38.2400,78,98,8377
1.7498,0.1857,38.0500,78,98,8380
1.7155,0.1760,38.2100,78,98,8383
1.7449,0.1906,38.2100,78,98,8386
1.8475,0.2053,38.0200,78,98,8390
1.8426,0.1857,38.1100,78,98,8393
1.8084,0.1760,38.1500,78,98,8396
1.7595,0.1808,38.1800,78,98,8399
1.7302,0.1613,38.2400,78,98,8402
1.8280,0.1857,37.8700,78,98,8407
1.8280,0.1808,38.1100,78,98,8410
1.8524,0.1711,38.2700,78,98,8413
1.8377,0.1857,38.2100,78,98,8416
1.7693,0.1760,38.3000,78,98,8419
1.7742,0.1760,37.9600,78,98,8422
1.7546,0.1711,37.9600,78,98,8426
1.7986,0.1760,38.1800,78,98,8429
1.8475,0.1857,38.1500,78,98,8432
1.8182,0.1808,38.2400,78,98,8435
1.7937,0.1760,38.0800,78,98,8438
1.7253,0.1711,38.2400,78,98,8442
1.7400,0.1760,38.2100,78,98,8445
1.8182,0.2004,38.0500,78,98,8449
1.8280,0.1857,38.1800,78,98,8452
1.8377,0.1857,38.0500,78,98,8455
1.7644,0.1808,38.2100,78,98,8459
1.7204,0.1711,38.1800,78,98,8462
1.7595,0.1808,38.0500,78,98,8465
1.7937,0.1906,38.1500,78,98,8468
1.8377,0.1857,38.1100,78,98,8471
1.8524,0.1857,38.1800,78,98,8474
1.7791,0.1760,38.2400,78,98,8478
1.7840,0.1906,37.9900,78,98,8481
1.7498,0.1760,38.0500,78,98,8484
1.7889,0.1711,38.2100,78,98,8487
1.8426,0.1857,38.1100,78,98,8491
1.8426,0.1808,38.3000,78,98,8495
1.8475,0.1857,38.0500,78,98,8498
1.7595,0.1808,38.2400,78,98,8501
1.7449,0.1711,38.4000,78,98,8504
1.8084,0.1857,38.0800,78,98,8507
1.8426,0.1808,38.2100,78,98,8511
1.8817,0.1857,38.0200,78,98,8514
1.8133,0.1857,38.2100,78,98,8517
1.7693,0.1808,38.2100,78,98,8520
1.7742,0.1857,38.0800,78,98,8523
1.7840,0.1760,38.2100,78,98,8527
1.8671,0.1906,38.0800,78,98,8530
1.8524,0.1955,38.2100,78,98,8534
1.8231,0.1711,38.2100,78,98,8537
1.7986,0.1808,37.9900,78,98,8540
1.7595,0.1711,38.1800,78,98,8543
1.8035,0.1711,38.0800,78,98,8547
1.8377,0.1808,38.2100,78,98,8550
1.8573,0.1808,38.3000,78,98,8553
1.8768,0.1906,37.3700,78,98,8556
1.7889,0.1808,38.1500,78,98,8559
1.7546,0.1662,38.1500,78,98,8563
1.7840,0.1760,38.1500,78,98,8566
1.8328,0.1857,38.2100,78,98,8569
1.9159,0.1955,37.8700,78,98,8572
1.8768,0.1857,38.0200,78,98,8578
1.8817,0.1906,38.0800,78,98,8581
1.8328,0.1760,38.1500,78,98,8584
1.7742,0.1808,38.2400,78,98,8587
1.7400,0.1760,38.2100,78,98,8591
1.8182,0.1906,37.9300,78,98,8594
1.8377,0.2102,38.1100,78,98,8597
1.8671,0.2151,38.1800,78,98,8600
1.8573,0.1857,38.1500,78,98,8603
1.8133,0.1760,38.2400,78,98,8607
1.8328,0.1808,37.9900,78,98,8610
1.8280,0.1808,38.1100,78,98,8613
1.8817,0.1760,38.2100,78,98,8616
1.9550,0.1857,38.0500,78,98,8620
1.9208,0.1857,38.2100,78,98,8623
1.9110,0.1711,38.0500,78,98,8627
1.8622,0.1711,38.2100,78,98,8630
1.8964,0.1711,38.3000,78,98,8633
1.9844,0.1906,38.0500,78,98,8636
1.9990,0.1808,38.2100,78,98,8639
2.0235,0.1857,37.3400,78,98,8643
1.9501,0.1808,38.2100,78,98,8646
1.9110,0.1711,38.1800,78,98,8649
1.9453,0.1955,38.0200,78,98,8652
1.9599,0.1760,38.2100,78,98,8655
1.9844,0.1760,38.0800,78,98,8659
1.9355,0.1906,38.2100,78,98,8663
1.8622,0.1760,38.2100,78,98,8666
1.8475,0.1906,38.0200,78,98,8669
1.7791,0.1760,38.1100,78,98,8672
1.7937,0.1760,38.1800,78,98,8676
1.8280,0.1857,38.1800,78,98,8679
1.8035,0.1808,38.2400,78,98,8682
1.7986,0.1906,37.9600,78,98,8685
1.6960,0.1808,38.1500,78,98,8688
1.6716,0.1711,38.2100,78,98,8691
1.7253,0.1857,38.1100,78,98,8695
1.7498,0.1808,38.2100,78,98,8698
1.7937,0.1857,38.1800,78,98,8701
1.7155,0.1808,38.2100,78,98,8705
1.6716,0.1760,38.2100,78,98,8708
1.6813,0.1760,38.1100,78,98,8712
1.6960,0.1760,38.2100,78,98,8715
1.7840,0.1808,38.0500,78,98,8718
1.7644,0.1711,38.2100,78,98,8721
1.7400,0.1808,38.2100,78,98,8724
1.7302,0.1857,38.0500,78,98,8728
1.7107,0.1711,38.1800,78,98,8731
1.7400,0.1760,38.0800,78,98,8734
1.7840,0.1760,38.1800,78,98,8737
1.8133,0.1760,38.2100,78,98,8740
1.8671,0.1906,38.0500,78,98,8744
1.8524,0.1808,38.1800,78,98,8748
1.8964,0.1711,38.1500,78,98,8751
1.9795,0.1760,38.0200,78,98,8754
2.1212,0.1760,38.1800,78,98,8757
2.3705,0.1955,38.0200,78,98,8760
2.5415,0.1857,38.1100,78,98,8764
2.7664,0.1808,38.2100,78,98,8767
3.0108,0.2004,38.1500,78,98,8770
3.1818,0.1760,38.2700,78,98,8773
3.3724,0.1808,37.9900,78,98,8776
3.2405,0.1808,38.1800,78,98,8780
3.0352,0.1808,38.2100,78,98,8783
2.7419,0.1808,38.1500,78,98,8786
2.3705,0.1760,38.2100,78,98,8790
2.0870,0.1808,38.0200,78,98,8793
1.7937,0.1760,38.1500,78,98,8797
1.5836,0.1760,38.2400,78,98,8800
1.4370,0.1808,38.0800,78,98,8803
1.2952,0.2102,38.1800,78,98,8806
1.2463,0.1808,38.0500,78,98,8809
1.2170,0.1760,38.2100,78,98,8812
1.2561,0.1760,38.3000,78,98,8816
1.3441,0.1857,38.1100,78,98,8819
1.3930,0.1808,38.1800,78,98,8822
1.4516,0.1613,38.0800,78,98,8825
1.4907,0.1760,38.2100,78,98,8828
1.5543,0.1711,38.2400,78,98,8833
1.6520,0.1906,38.0200,78,98,8836
1.6569,0.1808,38.1800,78,98,8839
1.6764,0.1711,38.0200,78,98,8842
1.6862,0.1808,37.9000,78,98,8845
1.6764,0.1760,38.2400,78,98,8849
1.7400,0.1857,37.9900,78,98,8852
1.7155,0.1711,38.1500,78,98,8855
1.7498,0.1808,38.2100,78,98,8858
1.7742,0.1857,38.1500,78,98,8861
1.7449,0.1760,38.2100,78,98,8865
1.7840,0.1808,37.9600,78,98,8868
1.7595,0.1760,38.0800,78,98,8871
1.8133,0.1760,38.2100,78,98,8875
1.8182,0.1857,37.7700,78,98,8878
1.8084,0.1760,38.1800,78,98,8881
1.8328,0.1760,38.0800,78,98,8885
1.7889,0.1515,38.2400,78,98,8888
1.7937,0.1711,38.2700,78,98,8891
1.8231,0.1955,38.1500,78,98,8894
1.8328,0.1808,38.1800,78,98,8897
1.8671,0.1857,38.0200,78,98,8901
1.8377,0.1760,38.2100,78,98,8904
1.8328,0.1760,38.2400,78,98,8907
1.8719,0.1857,37.9900,78,98,8910
1.8524,0.1808,38.3300,78,98,8913
1.8768,0.1760,38.1100,78,98,8918
1.8768,0.1808,38.2400,78,98,8921
1.8671,0.1760,37.8700,78,98,8924
1.9208,0.1906,37.3400,78,98,8927
1.8768,0.1760,38.0500,78,98,8930
1.8866,0.1711,38.2100,78,98,8934
1.9110,0.2004,38.1500,78,98,8937
1.9257,0.1760,38.2100,78,98,8940
1.9941,0.1857,37.9300,78,98,8943
1.9355,0.1808,38.1100,78,98,8946
1.9257,0.1711,38.2100,78,98,8950
1.9550,0.1808,38.1500,78,98,8953
1.9648,0.1760,38.3300,78,98,8956
2.0186,0.1808,38.0200,78,98,8960
1.9892,0.1760,37.5900,78,98,8963
1.9941,0.1760,38.1100,78,98,8967
2.0088,0.1955,38.1100,78,98,8970
2.0137,0.1760,38.2400,78,98,8973
2.0723,0.1857,38.0200,78,98,8976
2.0577,0.1760,38.4000,78,98,8979
2.0674,0.1760,38.1100,78,98,8982
2.1065,0.1857,37.9900,78,98,8986
2.0674,0.1760,38.2400,78,98,8989
2.0968,0.1760,37.8300,78,98,8992
2.0968,0.1760,38.2700,78,98,8995
2.1163,0.1760,37.9900,78,98,8998
2.1750,0.1906,38.0500,78,98,9003
2.1310,0.1857,38.2100,78,98,9006
2.1065,0.1515,38.1500,78,98,9009
2.1114,0.1808,38.1800,78,98,9012
2.1163,0.1760,38.1800,78,98,9015
2.1799,0.1857,37.9300,78,98,9018
2.1212,0.1808,38.1100,78,98,9022
2.0821,0.1808,38.2100,78,98,9025
2.0577,0.1760,38.1800,78,98,9028
2.0283,0.1857,38.2100,78,98,9031
2.0577,0.1906,37.9900,78,98,9034
2.0088,0.1711,38.1100,78,98,9038
1.9795,0.1760,38.2400,78,98,9041
1.9501,0.1808,38.0200,78,98,9044
1.8866,0.1760,38.2400,78,98,9048
1.8915,0.1955,38.0200,78,98,9051
1.8475,0.1760,38.1800,78,98,9055
1.8377,0.1760,38.2400,78,98,9058
1.8475,0.1906,38.0500,78,98,9061
1.7840,0.1515,38.1800,78,98,9064
1.7644,0.1808,38.0800,78,98,9067
1.7302,0.1711,38.1800,78,98,9070
1.7302,0.1760,38.2100,78,98,9074
1.7595,0.1857,38.0500,78,98,9077
1.7400,0.1808,38.1500,78,98,9080
1.7204,0.1711,38.1100,78,98,9083
1.6911,0.1808,38.1800,78,98,9086
1.6667,0.1760,38.2400,78,98,9091
1.7155,0.1906,37.9900,78,98,9094
1.6960,0.1808,37.8000,78,98,9097
1.6862,0.1760,38.2100,78,98,9100
1.6813,0.1906,38.1500,78,98,9103
1.6618,0.2102,38.2400,78,98,9107
1.6960,0.1955,37.9000,78,98,9110
1.6716,0.1857,38.1100,78,98,9113
1.7155,0.1760,38.1800,78,98,9116
1.7204,0.1906,38.0800,78,98,9119
1.6960,0.1857,38.1800,78,98,9123
1.7155,0.1760,38.0500,78,98,9126
1.6716,0.1711,38.2400,78,98,9129
1.7009,0.1711,38.2100,78,98,9133
1.7400,0.1857,38.1100,78,98,9136
1.7253,0.1760,38.2100,78,98,9139
1.7595,0.1857,38.1500,78,98,9143
1.7253,0.1711,38.2100,78,98,9146
1.7253,0.1760,38.2100,78,98,9149
1.7644,0.1808,37.9900,78,98,9152
1.7693,0.1906,38.1800,78,98,9155
1.7937,0.1711,38.0800,78,98,9159
1.7742,0.1857,38.2400,78,98,9162
1.7546,0.1711,38.2100,78,98,9165
1.7986,0.1906,38.0500,78,98,9168
1.7742,0.1857,38.1500,78,98,9171
1.7937,0.1711,38.1500,78,98,9176
1.7986,0.1906,38.0800,78,98,9179
1.7937,0.1760,38.2100,78,98,9182
1.8377,0.1906,37.9900,78,98,9185
1.8328,0.1906,38.0500,77,98,9190
1.7840,0.1808,38.1500,77,98,9193
1.7449,0.1711,38.0800,77,98,9196
1.7400,0.1808,38.2100,77,98,9199
1.7449,0.1760,38.2100,77,98,9203
1.8133,0.1906,37.9300,77,98,9206
1.7791,0.1808,38.0800,77,98,9209
1.7546,0.1760,38.2100,77,98,9212
1.7498,0.1808,38.0800,77,98,9216
1.7498,0.1760,38.2100,77,98,9219
1.8084,0.1808,37.9300,77,98,9223
1.7840,0.1760,38.1800,77,98,9226
1.7889,0.1760,38.2100,77,98,9229
1.7986,0.1808,38.0500,77,98,9232
1.7644,0.1760,38.2100,77,98,9235
1.7889,0.1760,38.0200,77,98,9239
1.7742,0.1760,38.2400,77,98,9242
1.7937,0.1760,38.3300,77,98,9245
1.8182,0.1857,38.0200,77,98,9248
1.7742,0.2102,38.1500,77,98,9251
1.7889,0.1808,38.0500,77,98,9255
1.7546,0.1808,38.1800,77,98,9259
1.7644,0.1760,38.1800,77,98,9262
1.8084,0.1857,38.0800,77,98,9265
1.8035,0.1955,38.1100,77,98,9268
1.7937,0.1857,38.1100,77,98,9271
1.7693,0.1760,38.2100,77,98,9275
1.7693,0.1760,38.2100,77,98,9278
1.8377,0.1906,37.9900,77,98,9281
1.8182,0.1711,38.0800,77,98,9284
1.8035,0.1760,38.2100,77,98,9287
1.7986,0.1808,38.1800,77,98,9291
1.7840,0.1760,38.2100,77,98,9294
1.8231,0.1857,37.9300,77,98,9297
1.7840,0.1760,38.1800,77,98,9300
1.8035,0.1760,38.2100,77,98,9304
1.8280,0.1857,38.1100,77,98,9308
1.7986,0.1760,38.2100,77,98,9311
1.8133,0.1808,38.0800,77,98,9314
1.7693,0.1760,38.1100,77,98,9317
1.7840,0.1711,38.2100,77,98,9320
1.8182,0.1808,38.0500,77,98,9324
1.7986,0.1760,38.1800,77,98,9327
1.8280,0.1906,38.1500,77,98,9330
1.7840,0.1760,38.2100,77,98,9333
1.7742,0.1760,38.1800,77,98,9336
1.8328,0.1711,38.1500,77,98,9340
1.8084,0.1808,38.1500,77,98,9344
1.8671,0.1857,38.0500,77,98,9347
1.8084,0.1808,38.1800,77,98,9350
1.7986,0.1760,38.2100,77,98,9353
1.8328,0.1906,38.0800,77,98,9356
1.8231,0.1808,38.1800,77,98,9360
1.8377,0.1711,38.1500,77,98,9363
1.8524,0.1808,38.1500,77,98,9366
1.8622,0.1760,38.1800,77,98,9369
1.9110,0.1955,37.9000,77,98,9372
1.8573,0.1760,38.1800,77,98,9376
1.8671,0.1760,38.2100,77,98,9379
1.9013,0.1857,38.1500,77,98,9382
1.9110,0.1711,38.2100,77,98,9385
1.9746,0.1857,37.9300,77,98,9389
1.9110,0.1711,38.1800,77,98,9393
1.9159,0.1760,38.2400,77,98,9396
1.9404,0.1857,38.0800,77,98,9399
1.9404,0.2102,38.2100,77,98,9402
1.9892,0.1760,37.9600,77,98,9405
1.9599,0.1760,38.1500,77,98,9409
1.9355,0.1808,38.1800,77,98,9412
1.9159,0.1808,38.1100,77,98,9415
1.8768,0.1808,38.1800,77,98,9418
1.8866,0.1857,38.0800,77,98,9421
1.8377,0.1760,38.1800,77,98,9424
1.8231,0.1760,38.2100,77,98,9428
1.8133,0.1857,38.1500,77,98,9432
1.7546,0.1808,38.2100,77,98,9435
1.7449,0.1760,38.0800,77,98,9438
1.7204,0.1760,38.2400,77,98,9441
1.7155,0.1760,38.2100,77,98,9445
1.7595,0.1857,37.9900,77,98,9448
1.7058,0.1857,38.1500,77,98,9451
1.6862,0.1760,38.1800,77,98,9454
1.6813,0.1760,38.1800,77,98,9457
1.7009,0.1711,38.1800,77,98,9461
1.7449,0.1955,37.9000,77,98,9464
1.7107,0.1760,38.1500,77,98,9467
1.7058,0.1711,38.3000,77,98,9470
1.7009,0.1808,38.1500,77,98,9474
1.6764,0.1760,38.2100,77,98,9478
1.7400,0.1808,37.9600,77,98,9481
1.7302,0.1515,38.1100,77,98,9484
1.7302,0.1760,38.2100,77,98,9487
1.7351,0.1808,38.1100,77,98,9490
1.7155,0.1857,38.2100,77,98,9494
1.7302,0.1857,38.0500,77,98,9497
1.7155,0.1760,38.1500,77,98,9500
1.7595,0.1760,38.2400,77,98,9503
1.8328,0.1808,38.0800,77,98,9506
1.9355,0.1760,38.1800,77,98,9510
2.0528,0.1808,38.0500,77,98,9513
2.1848,0.1760,38.2100,77,98,9517
2.4096,0.1711,38.1800,77,98,9520
2.7175,0.1857,38.0200,77,98,9523
2.9277,0.1808,38.2400,77,98,9526
3.1476,0.1760,38.1100,77,98,9530
3.2307,0.1808,38.0800,77,98,9533
3.1867,0.1760,38.1800,77,98,9536
3.0743,0.1906,38.0800,77,98,9539
2.7419,0.1808,38.0800,77,98,9542
2.3949,0.1760,38.1800,77,98,9546
2.0919,0.1808,38.1500,77,98,9549
1.7986,0.1760,38.2100,77,98,9552
1.6080,0.1857,37.9300,77,98,9555
1.4125,0.1808,38.1100,77,98,9559
1.2903,0.1515,38.2100,77,98,9563
1.2414,0.1857,38.1500,77,98,9566
1.2072,0.1760,38.1800,77,98,9569
1.2268,0.1808,38.0800,77,98,9572
1.2317,0.1760,38.1800,77,98,9575
1.2903,0.1760,38.2400,77,98,9578
1.3783,0.1760,38.0800,77,98,9582
1.4418,0.2053,38.1800,77,98,9585
1.5347,0.1857,38.0200,77,98,9588
1.5543,0.1760,38.1800,77,98,9591
1.6031,0.1711,38.2100,77,98,9594
1.6471,0.1857,38.0200,77,98,9598
1.6520,0.1760,38.1800,77,98,9602
1.7107,0.1808,38.0200,77,98,9605
1.7107,0.1808,38.2100,77,98,9608
1.7155,0.1760,38.2400,77,98,9611
1.7449,0.1906,38.0500,77,98,9615
1.7302,0.1808,38.1100,77,98,9618
1.7351,0.1711,38.1100,77,98,9621
1.7498,0.1808,38.2400,77,98,9624
1.7595,0.1760,38.2100,77,98,9627
1.8133,0.1955,38.0500,77,98,9631
1.7644,0.1808,37.5300,77,98,9634
1.7546,0.1760,37.8700,77,98,9637
1.7742,0.1808,38.1800,77,98,9640
1.7889,0.1760,38.1800,77,98,9644
1.8475,0.2151,37.9000,77,98,9647
1.8377,0.1711,38.1500,77,98,9651
1.8035,0.1711,38.1800,77,98,9654
1.8182,0.1857,38.1100,77,98,9657
1.8133,0.1515,38.2100,77,98,9660
1.8622,0.1711,37.9600,77,98,9663
1.8475,0.1760,38.1800,77,98,9667
1.8524,0.2004,38.2100,77,98,9670
1.8622,0.1955,38.1100,77,98,9673
1.8280,0.1808,38.1800,77,98,9676
1.8671,0.1906,38.1100,77,98,9679
1.8817,0.1808,38.2100,77,98,9683
1.8866,0.1760,38.1500,77,98,9687
1.9062,0.1857,38.0800,77,98,9690
1.8915,0.1711,38.1800,77,98,9693
1.9013,0.1711,38.0800,77,98,9696
1.8866,0.1711,38.1800,77,98,9700
1.9159,0.1760,38.1100,77,98,9703
1.9795,0.1906,38.0800,77,98,9706
1.9501,0.1808,38.1500,77,98,9709
1.9404,0.1515,38.1500,77,98,9712
1.9404,0.1760,38.1500,77,98,9716
1.9501,0.1760,38.2100,77,98,9719
2.0332,0.1906,37.9000,77,98,9722
1.9990,0.1808,38.1500,77,98,9725
2.0186,0.1760,38.1800,77,98,9729
2.0381,0.1857,38.1100,77,98,9732
2.0137,0.1760,38.3600,77,98,9736
2.0674,0.1808,37.9900,77,98,9739
2.0479,0.2004,38.2400,77,98,9742
2.0723,0.1760,38.2400,77,98,9745
2.1017,0.1857,38.4000,77,98,9748
2.0674,0.2102,38.1800,77,98,9752
2.1017,0.1760,37.9900,77,98,9755
2.0626,0.1711,38.1500,77,98,9758
2.0821,0.1760,38.2100,77,98,9761
2.1212,0.1760,38.1100,77,98,9764
2.1114,0.1711,38.1800,77,98,9768
2.1212,0.1760,38.0500,77,98,9772
2.0674,0.1857,38.1800,77,98,9775
2.0821,0.1711,38.2100,77,98,9778
2.1261,0.1906,38.0500,77,98,9781
2.0723,0.1808,38.1800,77,98,9784
2.0528,0.1760,38.1100,77,98,9788
2.0283,0.1711,38.1800,77,98,9791
1.9892,0.1808,38.2100,77,98,9794
2.0137,0.1955,37.9300,77,98,9797
1.8377,0.1857,38.0800,77,98,9802
1.7937,0.1808,38.0500,77,98,9805
1.7742,0.1711,38.1500,77,98,9808
1.7546,0.1808,38.1800,77,98,9811
1.7546,0.1760,38.2100,77,98,9816
1.8084,0.1955,37.9600,77,98,9819
1.7204,0.1808,38.0200,77,98,9822
1.6960,0.1711,38.2100,77,98,9825
1.7009,0.1808,38.1800,77,98,9828
1.7155,0.1760,38.2100,77,98,9831
1.7498,0.1808,37.9300,77,98,9835
1.7009,0.1808,38.1800,77,98,9838
1.6862,0.1808,38.1800,77,98,9841
1.7009,0.1857,38.0800,77,98,9844
1.6862,0.1955,38.1800,77,98,9847
1.7595,0.1760,38.0200,77,98,9851
1.7155,0.1711,38.1800,77,98,9854
1.7155,0.1760,38.2100,77,98,9858
1.7253,0.1857,38.0500,77,98,9861
1.6911,0.1760,38.3300,77,98,9864
1.7302,0.1808,38.0800,77,98,9868
1.7155,0.1515,38.2100,77,98,9871
1.7302,0.1760,38.3600,77,98,9874
1.7595,0.1857,38.0800,77,98,9877
1.7449,0.1808,37.9300,77,98,9880
1.7449,0.1760,38.4600,77,98,9884
1.7351,0.1711,38.1800,77,98,9887
1.7546,0.1760,38.1800,77,98,9890
1.8182,0.1906,38.0200,77,98,9893
1.8231,0.1906,38.1100,77,98,9896
1.7693,0.1760,38.1800,77,98,9900
1.7595,0.1808,38.0500,77,98,9904
1.7644,0.1760,38.2100,77,98,9907
1.8328,0.1857,37.9300,77,98,9910
1.8035,0.1760,38.0800,77,98,9913
1.8035,0.1906,37.4600,77,98,9916
1.8182,0.1857,38.1800,77,98,9920
1.7937,0.1760,38.0800,77,98,9923
1.8328,0.1808,38.0500,77,98,9926
1.8133,0.1760,38.0500,77,98,9929
1.8328,0.1760,38.1800,77,98,9932
1.8622,0.1857,38.3300,77,98,9936
1.8231,0.1808,38.1800,77,98,9939
1.8475,0.1857,38.0500,77,98,9943
1.8182,0.1711,38.1500,77,98,9946
1.8377,0.1857,38.2100,77,98,9949
1.8817,0.1906,38.0500,77,98,9953
1.8622,0.1808,38.1800,77,98,9956
1.8768,0.1808,38.0500,77,98,9959
1.8280,0.1760,38.1800,77,98,9962
1.8280,0.1760,38.2100,77,98,9965
1.8719,0.1857,38.1500,77,98,9968
1.8573,0.1808,37.6800,77,98,9972
1.8573,0.1760,38.1800,77,98,9975
1.8328,0.2053,38.2700,77,98,9978
1.8231,0.1808,38.2100,77,98,9981
1.8768,0.1906,38.0500,77,98,9985
1.8328,0.1711,38.1100,77,98,9989
1.8426,0.1711,38.1800,77,98,9992
1.8573,0.1808,38.1800,77,98,9995
1.8328,0.1760,38.2100,77,98,9998
1.8671,0.1857,37.9300,77,98,10001
1.8035,0.1711,38.1100,77,98,10005
1.8182,0.1662,38.1800,77,98,10008
1.8328,0.1808,38.2700,77,98,10011
1.8133,0.1760,38.2100,77,98,10014
1.8622,0.1808,37.9000,77,98,10018
1.8084,0.1808,38.0200,77,98,10021
1.8231,0.1760,38.1800,77,98,10024
1.8035,0.1857,38.1500,77,98,10028
1.8035,0.1760,38.1100,77,98,10032
1.8573,0.1711,37.9300,77,98,10035
1.8231,0.1808,38.1100,77,98,10038
1.7889,0.1760,38.1500,77,98,10041
1.8035,0.1857,38.1100,77,98,10045
1.7840,0.1760,38.1800,77,98,10048
1.8426,0.1857,37.9300,77,98,10051
1.7937,0.1760,38.1100,77,98,10054
1.7986,0.1760,38.1800,77,98,10058
1.7937,0.1808,38.1800,77,98,10061
1.7644,0.1955,38.1800,77,98,10064
1.8231,0.1857,37.9900,77,98,10067
1.8133,0.1808,38.0800,77,98,10072
1.8133,0.1760,38.2400,77,98,10075
1.8280,0.2004,38.1100,77,98,10078
1.8035,0.1760,38.1800,77,98,10081
1.8622,0.1857,37.9300,77,98,10085
1.8524,0.2004,38.1100,77,98,10088
1.8719,0.1760,38.2100,77,98,10091
1.9257,0.1711,38.1100,77,98,10094
1.9062,0.1857,38.2100,77,98,10098
1.9501,0.1808,37.9300,77,98,10101
1.9013,0.1711,38.2100,77,98,10104
1.9257,0.1808,38.1800,77,98,10107
1.9697,0.1857,37.9600,77,98,10112
1.9599,0.1760,38.2400,77,98,10115
2.0137,0.1857,37.9300,77,98,10118
1.9697,0.1808,38.0200,77,98,10121
1.9550,0.1808,38.2100,77,98,10125
1.9550,0.1711,38.1100,77,98,10128
1.9453,0.1760,38.1800,77,98,10131
1.9697,0.1857,37.9300,77,98,10134
1.9013,0.1711,38.1500,77,98,10138
1.8573,0.1662,38.1800,77,98,10141
1.8426,0.1857,38.0200,77,98,10144
1.8035,0.1760,38.1800,77,98,10147
1.8280,0.1857,37.9000,77,98,10151
1.7742,0.1955,38.1500,77,98,10155
1.7644,0.1760,38.2100,77,98,10158
1.7498,0.1857,38.1100,77,98,10161
1.7253,0.1760,38.1800,77,98,10165
1.7644,0.1857,37.9300,77,98,10168
1.7498,0.1760,38.2100,77,98,10171
1.7644,0.1760,38.2100,77,98,10174
1.7595,0.1857,38.1500,77,98,10178
1.7351,0.1857,38.1800,77,98,10181
1.7693,0.1808,37.9900,77,98,10184
1.7498,0.1711,38.0800,77,98,10187
1.7644,0.1760,38.2100,77,98,10191
1.7937,0.1906,38.1800,77,98,10194
1.7889,0.1760,38.2100,77,98,10198
1.7937,0.2004,37.9600,77,98,10201
1.7546,0.1760,38.2400,77,98,10205
1.7693,0.1760,38.2100,77,98,10208
1.8035,0.1857,38.0800,77,98,10211
1.7937,0.1760,38.1800,77,98,10214
1.8524,0.1711,37.9900,77,98,10218
1.8182,0.1760,38.0800,77,98,10221
1.8524,0.1760,38.2100,77,98,10224
1.9746,0.1808,38.0800,77,98,10227
2.0919,0.1857,38.2700,77,98,10231
2.3118,0.1808,37.9900,77,98,10234
2.4976,0.1711,38.1100,77,98,10237
2.7322,0.1808,38.1800,77,98,10241
2.9912,0.1808,37.9900,77,98,10245
3.1476,0.1857,38.1800,77,98,10248
3.2991,0.1760,38.1500,77,98,10251
3.1818,0.1760,38.3600,77,98,10254
2.9521,0.1760,38.2100,77,98,10257
2.6491,0.2151,38.1500,77,98,10261
2.2678,0.1711,38.1800,77,98,10264
1.9941,0.1515,37.9900,77,98,10267
1.7204,0.1760,38.1100,77,98,10270
1.5298,0.1760,38.3300,77,98,10274
1.3930,0.1857,38.1100,77,98,10277
1.2805,0.1760,38.1800,77,98,10280
1.2317,0.1760,38.1800,77,98,10284
1.2023,0.1711,38.1500,77,98,10288
1.2366,0.1711,38.1800,77,98,10291
1.3050,0.1857,38.0500,77,98,10294
1.3539,0.1760,38.2100,77,98,10297
1.4370,0.1760,38.0500,77,98,10301
1.4712,0.2102,38.2400,77,98,10304
1.5347,0.1515,38.1800,77,98,10307
1.6178,0.1857,38.0800,77,98,10310
1.6373,0.1760,38.2100,77,98,10314
1.6911,0.1760,37.9600,77,98,10317
1.6764,0.1515,38.1500,77,98,10320
1.6862,0.1711,38.1800,77,98,10323
1.7253,0.1711,38.0800,77,98,10328
1.7302,0.1760,38.1500,77,98,10331
1.7742,0.1760,38.0500,77,98,10334
1.7546,0.1857,38.1800,77,98,10337
1.7595,0.1760,38.3000,77,98,10341
1.7742,0.1711,38.0800,77,98,10344
1.7742,0.2102,38.1500,77,98,10347
1.8231,0.1808,38.0800,77,98,10350
1.8084,0.1760,38.1500,77,98,10354
1.8133,0.1760,38.2400,77,98,10357
1.8328,0.1857,38.0200,77,98,10360
1.7937,0.1760,38.1800,77,98,10363
1.8524,0.1760,38.0500,77,98,10368
1.8133,0.1711,38.0800,77,98,10371
1.8280,0.1760,38.1800,77,98,10374
1.8573,0.1906,38.1100,77,98,10377
1.8328,0.1808,38.2400,77,98,10381
1.8671,0.1857,38.0800,77,98,10384
1.8426,0.1760,38.2100,77,98,10387
1.8719,0.1760,38.1800,77,98,10390
1.9110,0.1515,38.1800,77,98,10394
1.9110,0.1760,38.1500,77,98,10397
1.9257,0.1857,38.0200,77,98,10400
1.8915,0.1760,38.1800,77,98,10403
1.9013,0.1760,38.2100,77,98,10407
1.9550,0.2053,38.1100,78,98,10411
1.9844,0.1808,38.1800,78,98,10415
1.9795,0.1808,38.2100,78,98,10419
2.0235,0.1808,37.9600,78,98,10422
1.9941,0.1760,38.1100,78,98,10425
1.9990,0.1760,38.0800,78,98,10428
2.0186,0.1808,38.0200,78,98,10432
2.0186,0.1760,38.2100,78,98,10435
2.0723,0.1711,37.9900,78,98,10438
2.0626,0.1760,38.1800,78,98,10441
2.0528,0.1760,38.3000,78,98,10445
2.0723,0.1857,38.0800,78,98,10448
2.0528,0.1808,38.2400,78,98,10451
2.1017,0.1711,37.9900,78,98,10455
2.0870,0.1760,38.1500,78,98,10459
2.1065,0.1760,38.2100,78,98,10462
2.1359,0.1857,38.0800,78,98,10465
2.1017,0.2053,38.1800,78,98,10468
2.1261,0.1760,38.0500,78,98,10472
2.0870,0.1857,38.1800,78,98,10475
2.1017,0.1760,38.1100,78,98,10478
2.1065,0.1808,38.0800,78,98,10481
2.0772,0.1808,38.1800,78,98,10484
2.0772,0.1808,38.0800,78,98,10488
2.0137,0.1808,38.2100,78,98,10491
2.0039,0.1760,38.1800,78,98,10494
2.0186,0.1906,38.0200,78,98,10498
1.9697,0.1808,38.1800,78,98,10502
1.9697,0.1808,38.0200,78,98,10505
1.9013,0.1760,38.2100,78,98,10508
1.8671,0.1760,38.1500,78,98,10511
1.8719,0.1906,38.1100,78,98,10515
1.8377,0.1808,38.2400,78,98,10518
1.8426,0.1760,38.0200,78,98,10521
1.7889,0.1808,38.2100,78,98,10524
1.7595,0.1760,38.2100,78,98,10528
1.7595,0.1808,38.1500,78,98,10531
1.7204,0.2004,38.1500,78,98,10534
1.7253,0.1808,38.0500,78,98,10537
1.7009,0.1808,38.1800,78,98,10542
1.6960,0.1760,38.1800,78,98,10545
1.6911,0.1711,37.9900,78,98,10548
1.6618,0.1857,38.1500,78,98,10551
1.6813,0.1711,38.0200,78,98,10555
1.6764,0.1808,38.2400,78,98,10558
1.6862,0.1711,38.1500,78,98,10561
1.7155,0.1857,37.9900,78,98,10564
1.6911,0.1808,38.2100,78,98,10568
1.7009,0.1760,38.0500,78,98,10571
1.6813,0.1760,38.2100,78,98,10574
1.6960,0.1515,38.2100,78,98,10577
1.7400,0.1906,38.1100,78,98,10582
1.7253,0.1808,38.2100,78,98,10585
1.7302,0.1760,38.0500,78,98,10588
1.7058,0.1808,38.1800,78,98,10591
1.7204,0.1515,38.2100,78,98,10594
1.8084,0.1711,37.9900,78,98,10598
1.7546,0.1760,38.1800,78,98,10601
1.7742,0.1760,37.6500,78,98,10604
1.7546,0.1760,38.1800,78,98,10607
1.7498,0.1760,38.1800,78,98,10611
1.7937,0.1857,38.2700,78,98,10614
1.7889,0.1808,38.1100,78,98,10617
1.8084,0.1808,38.1100,78,98,10620
1.7986,0.1808,38.1800,78,98,10625
1.7889,0.1711,38.1800,78,98,10628
1.8426,0.1906,38.0500,78,98,10631
1.8035,0.1808,38.0800,78,98,10634
1.8280,0.1760,38.0800,78,98,10638
1.8133,0.2053,38.1800,78,98,10641
1.8133,0.1760,38.2100,78,98,10644
1.8573,0.1857,37.9900,78,98,10647
1.8133,0.1857,38.1800,78,98,10651
1.8182,0.1711,38.0500,78,98,10654
1.8280,0.1808,38.1800,78,98,10657
1.8328,0.1760,38.1800,78,98,10660
1.8768,0.1906,38.0200,78,98,10664
1.8328,0.1906,38.1100,78,98,10668
1.8084,0.1760,38.0800,78,98,10671
1.8035,0.1808,38.1800,78,98,10674
1.8231,0.1760,38.2400,78,98,10678
1.8719,0.1906,37.9600,78,98,10681
1.8426,0.1857,38.0800,78,98,10684
1.8182,0.1808,38.1100,78,98,10687
1.8084,0.1760,38.1500,78,98,10691
1.8084,0.1760,38.1800,78,98,10694
1.8719,0.2004,37.9600,78,98,10697
1.8377,0.1808,38.1100,78,98,10700
1.8231,0.1760,38.1500,78,98,10703
1.8133,0.1808,38.1800,78,98,10707
1.8035,0.1760,38.0200,78,98,10711
1.8573,0.1906,37.9600,78,98,10714
1.8622,0.1711,38.0500,78,98,10717
1.8231,0.1711,38.1500,78,98,10721
1.8182,0.1808,38.2100,78,98,10724
1.7986,0.1760,38.2100,78,98,10727
1.8524,0.1955,37.9300,78,98,10730
1.7986,0.1808,38.0200,78,98,10734
1.8035,0.1711,38.1500,78,98,10737
1.8182,0.1857,38.1500,78,98,10740
1.8133,0.2004,38.2400,78,98,10743
1.8622,0.1906,37.9300,78,98,10747
1.7986,0.1808,38.1100,78,98,10750
1.7889,0.1711,38.2100,78,98,10754
1.8035,0.1808,38.1500,78,98,10757
1.7986,0.1662,38.1800,78,98,10761
1.8524,0.1955,37.9900,78,98,10764
1.7986,0.1760,38.1100,78,98,10767
1.7840,0.1613,38.1800,78,98,10770
1.7791,0.2053,38.1500,78,98,10774
1.7840,0.1760,38.1800,78,98,10777
1.8475,0.1906,37.9300,78,98,10780
1.8084,0.1906,38.0500,78,98,10783
1.7937,0.1760,38.1800,78,98,10787
1.7937,0.1760,38.2400,78,98,10790
1.7840,0.1760,38.2100,78,98,10793
1.8475,0.1857,37.8700,78,98,10797
1.8182,0.1808,38.1100,78,98,10801
1.8084,0.1760,38.1800,78,98,10804
1.8084,0.1808,38.1800,78,98,10807
1.7791,0.1711,38.2100,78,98,10810
1.8280,0.1906,37.8700,78,98,10814
1.7986,0.1711,38.0800,78,98,10817
1.8133,0.1760,38.1800,78,98,10820
1.8671,0.1711,38.1800,78,98,10823
1.8182,0.1711,38.1800,78,98,10827
1.8915,0.1857,37.8700,78,98,10830
1.8622,0.1808,38.1100,78,98,10833
1.8671,0.1760,38.2100,78,98,10836
1.8964,0.1808,38.1800,78,98,10841
1.9062,0.1857,38.1800,78,98,10844
1.9648,0.1857,37.9600,78,98,10847
1.9208,0.1808,38.1100,78,98,10850
1.9257,0.1662,38.2100,78,98,10854
1.9550,0.1808,38.1100,78,98,10857
1.9550,0.1760,38.1800,78,98,10860
2.0137,0.1857,37.9000,78,98,10863
1.9550,0.1760,38.1800,78,98,10867
1.9404,0.1760,38.1800,78,98,10870
1.9453,0.2151,38.2100,78,98,10873
1.9306,0.1760,38.1500,78,98,10876
1.9697,0.1857,37.9000,78,98,10881
1.9013,0.1857,38.0800,78,98,10884
1.8524,0.1760,38.1800,78,98,10887
1.8280,0.1808,38.2400,78,98,10890
1.7889,0.1760,38.1800,78,98,10894
1.8182,0.1857,37.9000,78,98,10897
1.7742,0.1808,38.1500,78,98,10900
1.7449,0.1857,38.1800,78,98,10903
1.7351,0.1857,37.9900,78,98,10907
1.6911,0.1515,38.2100,78,98,10910
1.7253,0.1857,37.9000,78,98,10913
1.6862,0.1760,38.1100,78,98,10916
1.7058,0.1760,38.2100,78,98,10920
1.7204,0.1808,38.1500,78,98,10924
1.6960,0.1760,38.1800,78,98,10927
1.7302,0.1857,37.8700,78,98,10930
1.7058,0.1808,38.0800,78,98,10934
1.7058,0.1760,38.0500,78,98,10937
1.7253,0.1857,38.1500,78,98,10940
1.7204,0.1711,38.1800,78,98,10943
1.7498,0.2102,37.9000,78,98,10947
1.7107,0.1857,38.0800,78,98,10950
1.7155,0.1711,38.2100,78,98,10953
1.7400,0.1906,38.0800,78,98,10956
1.7351,0.1760,38.1800,78,98,10959
1.7791,0.1857,37.9300,78,98,10963
1.7840,0.1711,38.1800,78,98,10967
1.8035,0.1760,38.1500,78,98,10970
1.9013,0.1808,38.1100,78,98,10973
2.0332,0.1711,38.1800,78,98,10977
2.2776,0.1760,37.9300,78,98,10980
2.4829,0.1808,38.0800,78,98,10983
2.7175,0.1906,38.1800,78,98,10986
2.9863,0.1857,38.0200,78,98,10990
3.1623,0.1711,38.1800,78,98,10993
3.3431,0.2004,38.0500,78,98,10996
3.2649,0.1760,38.0800,78,98,10999
3.0499,0.1760,38.2100,78,98,11003
2.7615,0.1808,38.0800,78,98,11006
2.3656,0.1760,38.1800,78,98,11010
2.0626,0.1760,37.9300,78,98,11013
1.7449,0.1760,38.2100,78,98,11017
1.5249,0.1711,38.1800,78,98,11020
1.3685,0.1857,38.1100,78,98,11023
1.2854,0.1515,38.1100,78,98,11028
1.3441,0.1760,38.1800,78,98,11031
1.4370,0.1857,37.8700,78,98,11034
1.4565,0.1808,38.0800,78,98,11038
1.5054,0.1711,38.1500,78,98,11041
1.5640,0.1857,38.1100,78,98,11044
1.6031,0.1760,38.1800,78,98,11047
1.6813,0.1857,37.9300,78,98,11052
1.6520,0.1760,38.0800,78,98,11055
1.6569,0.1760,38.1800,78,98,11058
1.6764,0.1808,38.2100,78,98,11061
1.6960,0.1760,38.1800,78,98,11065
1.7595,0.1906,37.9000,78,98,11068
1.7449,0.1857,38.1100,78,98,11071
1.7302,0.1857,38.1800,78,98,11074
1.7351,0.1808,38.1500,78,98,11078
1.7400,0.1760,38.3000,78,98,11081
1.8133,0.1808,37.9300,78,98,11084
1.7889,0.1955,38.0800,78,98,11087
1.7840,0.1760,38.1800,78,98,11090
1.8084,0.1906,38.1100,78,98,11095
1.7889,0.1760,38.2400,78,98,11098
1.8475,0.1711,37.9000,78,98,11101
1.8475,0.1613,38.1800,78,98,11104
1.8377,0.1760,38.2100,78,98,11108
1.8524,0.1857,38.2400,78,98,11111
1.8377,0.1711,38.1800,78,98,11114
1.8719,0.1857,37.9000,78,98,11117
1.8475,0.1857,38.1500,78,98,11121
1.8524,0.1711,38.2100,78,98,11124
1.8817,0.1857,38.1100,78,98,11127
1.8768,0.1808,38.1500,78,98,11130
1.9159,0.1857,37.9000,78,98,11134
1.8817,0.1857,38.0800,78,98,11138
1.8768,0.1760,38.1800,78,98,11141
1.9159,0.1857,38.1500,78,98,11144
1.9159,0.1760,38.2100,78,98,11148
1.9697,0.1808,37.9300,78,98,11151
1.9306,0.1760,38.1500,78,98,11154
1.9404,0.1711,38.1800,78,98,11157
1.9844,0.1808,38.1500,78,98,11161
1.9746,0.1760,38.1800,78,98,11164
2.0283,0.1857,37.9600,78,98,11167
2.0186,0.1857,38.0800,78,98,11170
2.0039,0.1760,38.2100,78,98,11174
2.0235,0.1857,38.0800,78,98,11177
2.0137,0.1760,38.1500,78,98,11181
2.0723,0.1808,37.9300,78,98,11184
2.0919,0.1857,38.0500,78,98,11188
2.0626,0.1760,38.1800,78,98,11191
2.0723,0.1711,38.0200,78,98,11194
2.0528,0.1711,38.4000,78,98,11197
2.0919,0.1760,38.0200,78,98,11201
2.0674,0.1808,38.1500,78,98,11204
2.0870,0.1760,38.1800,78,98,11207
2.1163,0.1955,38.0800,78,98,11210
2.0821,0.1857,38.2400,78,98,11214
2.0968,0.1760,37.9900,78,98,11217
2.0674,0.1760,38.0800,78,98,11220
2.0723,0.1760,38.1800,78,98,11224
2.1017,0.1857,38.0800,78,98,11227
2.0626,0.1808,38.1100,78,98,11231
2.0674,0.1711,38.0200,78,98,11234
2.0039,0.2004,38.1800,78,98,11237
1.9941,0.1760,38.1800,78,98,11240
1.9941,0.1808,38.0200,78,98,11244
1.9746,0.1808,38.1800,78,98,11247
1.9844,0.1760,38.0200,78,98,11250
1.9110,0.1808,38.1500,78,98,11253
1.8768,0.1760,38.0800,78,98,11257
1.8671,0.1808,38.0200,78,98,11260
1.8182,0.1857,38.1500,78,98,11264
1.8328,0.1857,38.0500,78,98,11267
1.7791,0.1711,38.1800,78,98,11271
1.7498,0.1760,38.1800,78,98,11274
1.7449,0.1857,38.0200,78,98,11277
1.7009,0.1760,38.1800,78,98,11280
1.7204,0.1857,38.0500,78,98,11284
1.6764,0.1808,38.2100,78,98,11287
1.6862,0.1711,38.1800,78,98,11290
1.7009,0.1760,38.0800,78,98,11293
1.6667,0.1808,38.1500,78,98,11297
1.6960,0.1808,38.0500,78,98,11300
1.6716,0.1760,38.2400,78,98,11303
1.6911,0.1760,38.1800,78,98,11307
1.7155,0.1955,38.0500,78,98,11311
1.6764,0.1808,38.1500,78,98,11314
1.6911,0.1808,38.0500,78,98,11317
1.6667,0.1711,38.2100,78,98,11320
1.6764,0.1808,38.1500,78,98,11323
1.7155,0.1857,38.1100,78,98,11327
1.7058,0.1808,38.1800,78,98,11330
1.7302,0.1857,37.9900,78,98,11333
1.6960,0.1760,38.1800,78,98,11336
1.7009,0.1760,38.1800,78,98,11340
1.7400,0.1857,38.1500,78,98,11343
1.7498,0.1515,38.1500,78,98,11346
1.7791,0.1760,38.0500,78,98,11350
1.7546,0.1711,38.1800,78,98,11354
1.7546,0.1760,38.1800,78,98,11357
1.7742,0.1857,38.0200,78,98,11360
1.7595,0.1857,38.1500,78,98,11363
1.7937,0.2151,38.0200,78,98,11367
1.7742,0.1808,38.2400,78,98,11370
1.8084,0.1760,38.1800,78,98,11373
1.7937,0.1857,37.9600,78,98,11376
1.7742,0.1515,38.1500,78,98,11380
1.8035,0.1760,38.0500,78,98,11383
1.7986,0.1808,37.7400,78,98,11386
1.8035,0.1515,38.1800,78,98,11389
1.8475,0.1711,38.0800,78,98,11394
1.8035,0.1808,38.2100,78,98,11397
1.8182,0.1760,38.0500,78,98,11400
1.8377,0.1711,38.2100,78,98,11403
1.8231,0.1808,38.2400,78,98,11407
1.8622,0.1857,37.6200,78,98,11410
1.8133,0.1515,38.2400,78,98,11413
1.8231,0.1760,38.0500,78,98,11416
1.7986,0.1808,38.2100,78,98,11420
1.8035,0.1760,38.1800,78,98,11423
1.8817,0.1857,37.9900,78,98,11426
1.8280,0.1906,38.1500,78,98,11429
1.8231,0.1760,38.0500,78,98,11433
1.7840,0.1662,38.1500,78,98,11437
1.7791,0.1711,38.1500,78,98,11440
1.8182,0.1906,38.1500,78,98,11443
1.8084,0.1808,38.1500,78,98,11447
1.8084,0.1760,38.0200,78,98,11450
1.7840,0.1808,38.1800,78,98,11453
1.7693,0.1760,38.1800,78,98,11456
1.8035,0.1857,37.9300,78,98,11460
1.7742,0.1808,38.1100,78,98,11463
1.8280,0.1760,38.0800,78,98,11466
1.7986,0.1808,38.1100,78,98,11469
1.7840,0.1760,38.1800,78,98,11473
1.8231,0.1906,37.9900,78,98,11476
1.8035,0.1808,38.0500,78,98,11480
1.8328,0.1711,38.0800,78,98,11483
1.8084,0.1808,38.1500,78,98,11486
1.8133,0.1760,38.1800,78,98,11490
1.8573,0.1906,37.9900,78,98,11493
1.8133,0.1857,38.1100,78,98,11496
1.7986,0.1711,38.1100,78,98,11499
1.7937,0.1760,38.1800,78,98,11503
1.8377,0.1808,38.1800,78,98,11506
1.8622,0.1906,38.1500,78,98,11509
1.8133,0.1808,38.3300,78,98,11512
1.8182,0.1711,38.1100,78,98,11516
