ecg,gsr,temp,hr,spo2,timest
1.9062,0.4350,39.3500,84,95,190675
1.8964,0.4301,39.3800,84,95,190679
1.9550,0.4545,39.1600,84,95,190682
1.9110,0.4448,39.2800,84,95,190685
1.8719,0.4301,39.2800,84,95,190689
1.8964,0.4301,39.3800,84,95,190692
1.8768,0.4350,39.3800,84,95,190695
1.9404,0.4497,39.2200,84,95,190699
1.9110,0.4350,39.3500,84,95,190702
1.9110,0.4301,39.2800,84,95,190705
1.8817,0.4448,39.3800,84,95,190709
1.8768,0.4350,39.3800,84,95,190712
1.9110,0.4545,39.3200,84,95,190715
1.8964,0.4252,39.3800,84,95,190720
1.9208,0.4399,39.2500,84,95,190723
1.8768,0.4350,39.3800,84,95,190726
1.8524,0.4350,39.4100,84,95,190729
1.8915,0.4448,39.2800,84,95,190733
1.8671,0.4252,39.3800,84,95,190736
1.8964,0.4350,39.2200,84,95,190739
1.8768,0.4399,39.2800,84,95,190743
1.8573,0.4252,39.4100,84,95,190746
1.8719,0.4350,39.2500,84,95,190749
1.8573,0.4350,39.3800,84,95,190753
1.9062,0.4448,39.1900,84,95,190756
1.8915,0.4252,39.3200,84,95,190759
1.8866,0.4301,38.7100,84,95,190764
1.8915,0.4399,39.3500,84,95,190767
1.8768,0.4399,39.4100,84,95,190770
1.9453,0.4497,39.0300,84,95,190773
1.9208,0.4399,39.3200,84,95,190777
1.9404,0.4252,39.3800,84,95,190780
1.9453,0.4594,39.3800,84,95,190783
1.9355,0.4350,38.5800,84,95,190787
1.9892,0.4594,39.2200,84,95,190790
1.9599,0.4399,39.3500,84,95,190793
1.9795,0.4350,39.3500,84,95,190797
1.9990,0.4252,39.3800,84,95,190800
1.9697,0.4301,39.4400,84,95,190803
1.9941,0.4399,39.2200,84,95,190808
1.9501,0.4350,39.4100,84,95,190811
1.9746,0.4399,39.2500,84,95,190814
1.9550,0.4301,39.3800,84,95,190818
1.9648,0.4301,39.4800,84,95,190821
1.9697,0.4350,39.2800,84,95,190824
1.9306,0.4350,39.3800,84,95,190827
1.9453,0.4399,39.4100,84,95,190831
1.9062,0.4350,39.4400,84,95,190834
1.9208,0.4301,39.4100,84,95,190837
1.9306,0.4350,39.2800,84,95,190841
1.9110,0.4399,39.4100,84,95,190844
1.9257,0.4399,39.1900,84,95,190848
1.8866,0.4252,39.3500,84,95,190852
1.8866,0.4350,39.4100,84,95,190855
1.9159,0.4399,39.3200,84,95,190858
1.8915,0.4301,39.3800,84,95,190862
1.9257,0.4643,39.1600,84,95,190865
1.8817,0.4399,39.2800,84,95,190868
1.8475,0.4350,39.4100,84,95,190871
1.8622,0.4448,39.3500,84,95,190875
1.8719,0.4301,39.4800,84,95,190878
1.9208,0.4594,39.1600,84,95,190881
1.8768,0.4399,39.3200,84,95,190885
1.8524,0.4301,39.3500,84,95,190888
1.8817,0.4399,39.3800,84,95,190892
1.8475,0.4350,39.4100,84,95,190896
1.8964,0.4448,39.2200,84,95,190899
1.8671,0.4252,39.3800,84,95,190902
1.8622,0.4399,39.2800,84,95,190906
1.8328,0.4301,39.3800,84,95,190909
1.8280,0.4350,39.3500,84,95,190912
1.8573,0.4399,39.3200,84,95,190916
1.8524,0.4301,39.3800,84,95,190919
1.8817,0.4448,39.4100,84,95,190922
1.8475,0.4350,39.4100,84,95,190925
1.8377,0.4350,39.5100,84,95,190929
1.8573,0.4350,39.2500,84,95,190932
1.8182,0.4497,39.3500,84,95,190938
1.8035,0.4350,39.4800,84,95,190941
1.8622,0.4643,39.0900,84,95,190944
1.8328,0.4399,39.2800,84,95,190948
1.8231,0.4301,39.4100,84,95,190951
1.8280,0.4399,39.3800,84,95,190954
1.7937,0.4350,39.4400,84,95,190958
1.8475,0.4594,39.2200,84,95,190961
1.8133,0.4350,39.3500,84,95,190964
1.8280,0.4350,39.2500,84,95,190968
1.8377,0.4350,39.3800,84,95,190971
1.8035,0.4350,39.4100,84,95,190974
1.8328,0.4350,39.3200,84,95,190978
1.8035,0.4301,39.3800,84,95,190982
1.8377,0.4350,39.3200,84,95,190985
1.8280,0.4301,39.3800,84,95,190988
1.8231,0.4301,39.3800,84,95,190992
1.8328,0.4545,39.2500,84,95,190995
1.7986,0.4350,39.4100,84,95,190998
1.8280,0.4301,39.2500,84,95,191002
1.8133,0.4350,39.3200,84,95,191005
1.8231,0.4301,39.5100,84,95,191008
1.8328,0.4399,39.3500,84,95,191012
1.7986,0.4350,39.3500,84,95,191015
1.8231,0.4497,39.1900,84,95,191019
1.8084,0.4301,39.6400,84,95,191023
1.8133,0.4448,39.3800,84,95,191026
1.8426,0.4399,39.3500,84,95,191029
1.8182,0.4350,39.3500,84,95,191032
1.8573,0.4497,39.1200,84,95,191036
1.8231,0.4350,39.3200,84,95,191039
1.8328,0.4301,39.3800,84,95,191042
1.8671,0.4350,39.3500,84,95,191046
1.8817,0.4301,39.3800,84,95,191049
1.9404,0.4545,39.1200,84,95,191052
1.8866,0.4643,39.4400,84,95,191056
1.8817,0.4350,39.3200,84,95,191059
1.8915,0.4301,39.3800,84,95,191063
1.8915,0.4301,39.3800,84,95,191067
1.9257,0.4448,39.2200,84,95,191070
1.8866,0.4350,39.3800,84,95,191073
1.8866,0.4399,39.2500,84,95,191077
1.8866,0.4350,39.4100,84,95,191080
1.8768,0.4350,39.3800,84,95,191083
1.9257,0.4399,39.3200,84,95,191086
1.9159,0.4350,39.3800,84,95,191090
1.9404,0.4448,39.2200,84,95,191093
1.9208,0.4301,39.3500,84,95,191096
1.8622,0.4350,39.3800,84,95,191100
1.8524,0.4399,39.3200,84,95,191104
1.8231,0.4252,39.3800,84,95,191107
1.8328,0.4399,39.1600,84,95,191111
1.7840,0.4252,39.3500,84,95,191114
1.7742,0.4350,39.4800,84,95,191117
1.8182,0.4448,39.3200,84,95,191121
1.7742,0.4350,39.3800,84,95,191124
1.8133,0.4350,39.1900,84,95,191127
1.7791,0.4399,39.2800,84,95,191130
1.7498,0.4301,39.3500,84,95,191134
1.7449,0.4399,39.3500,84,95,191137
1.7302,0.4350,39.0600,84,95,191140
1.7937,0.4790,39.1200,84,95,191144
1.7791,0.4399,39.2800,84,95,191148
1.7595,0.4301,39.3200,84,95,191151
1.7449,0.4350,39.3800,84,95,191155
1.7302,0.4350,39.4400,84,95,191158
1.7791,0.4741,39.3200,84,95,191161
1.7595,0.4350,39.3800,84,95,191165
1.7791,0.4350,39.2200,84,95,191168
1.7595,0.4350,39.3800,84,95,191171
1.7546,0.4350,39.3500,84,95,191175
1.7840,0.4350,39.3200,84,95,191178
1.7742,0.4350,39.3800,84,95,191181
1.8182,0.4399,39.2200,84,95,191184
1.7986,0.4252,39.3800,84,95,191188
1.7840,0.4399,39.4100,84,95,191192
1.7693,0.4350,39.2800,84,95,191195
1.7155,0.4350,39.3800,84,95,191199
1.7107,0.4350,39.2200,84,95,191202
1.6716,0.4350,39.3500,84,95,191205
1.6129,0.4399,39.3800,84,95,191209
1.5787,0.4448,39.2500,84,95,191212
1.5396,0.4399,39.4100,84,95,191215
1.6276,0.4448,39.1600,84,95,191219
1.7449,0.4741,39.3200,84,95,191222
1.9746,0.4301,39.3800,84,95,191225
2.2581,0.4399,39.2800,84,95,191229
2.4438,0.4350,39.3800,84,95,191233
2.5855,0.4252,39.0900,84,95,191236
2.4829,0.4350,39.3200,84,95,191239
2.3851,0.4301,39.3500,84,95,191243
2.3118,0.4350,39.2800,84,95,191246
2.2434,0.4301,39.3800,84,95,191249
2.1408,0.4497,39.2800,84,95,191253
1.9746,0.4545,39.3800,84,95,191256
1.8866,0.4252,39.2500,84,95,191259
1.8084,0.4448,39.3800,84,95,191263
1.7498,0.4301,39.4100,84,95,191266
1.7351,0.4448,39.1600,84,95,191269
1.6667,0.4350,39.3800,84,95,191273
1.6667,0.4350,39.2500,84,95,191277
1.6667,0.4301,39.3500,84,95,191280
1.6471,0.4301,39.3800,84,95,191283
1.6862,0.4350,39.2800,84,95,191287
1.6813,0.4252,39.4100,84,95,191290
1.6960,0.4350,39.4800,84,95,191293
1.6960,0.4350,39.3500,84,95,191297
1.6764,0.4350,39.4100,84,95,191300
1.7058,0.4350,39.2200,84,95,191303
1.7253,0.4301,39.3800,84,95,191307
1.7449,0.4448,39.1900,84,95,191310
1.7302,0.4301,39.3500,84,95,191313
1.6911,0.4350,39.4100,84,95,191318
1.7107,0.4399,39.3500,84,95,191321
1.7204,0.4301,39.6000,84,95,191324
1.7889,0.4497,39.1900,84,95,191328
1.7595,0.4350,39.3500,84,95,191331
1.7449,0.4301,39.3500,84,95,191334
1.7498,0.4350,39.3800,84,95,191337
1.7498,0.4350,39.4400,84,95,191341
1.8133,0.4497,39.1900,84,95,191344
1.7889,0.4399,39.3800,84,95,191347
1.8084,0.4399,39.3200,84,95,191351
1.7693,0.4350,39.3800,84,95,191354
1.7595,0.4350,39.3800,84,95,191357
1.8084,0.4350,39.2500,84,95,191362
1.7937,0.4350,39.4400,84,95,191365
1.8182,0.4399,39.2800,84,95,191368
1.7937,0.4252,39.4100,84,95,191372
1.7937,0.4350,39.3800,84,95,191375
1.8328,0.4350,39.3500,84,95,191378
1.8035,0.4350,39.4100,84,95,191381
1.8426,0.4399,39.3200,84,95,191385
1.8182,0.4301,39.3800,84,95,191388
1.8133,0.4594,39.3800,84,95,191391
1.8280,0.4252,39.3200,84,95,191395
1.7937,0.4399,39.3800,84,95,191398
1.8280,0.4252,39.1900,84,95,191401
1.8231,0.4399,39.3200,84,95,191406
1.8182,0.4301,39.3800,84,95,191409
1.8280,0.4399,39.2200,84,95,191412
1.7889,0.4350,39.3800,84,95,191416
1.8280,0.4497,39.1200,84,95,191419
1.8035,0.4350,39.2200,84,95,191422
1.8084,0.4301,39.3800,84,95,191426
1.8133,0.4350,39.3200,84,95,191429
1.7937,0.4252,39.3800,84,95,191432
1.8377,0.4545,39.1600,84,95,191435
1.7889,0.4301,39.3800,84,95,191439
1.7937,0.4252,39.3500,84,95,191442
1.7986,0.4350,39.4800,84,95,191446
1.7937,0.4301,39.3800,84,95,191450
1.8231,0.4448,39.3500,84,95,191453
1.7791,0.4350,39.3800,84,95,191456
1.7889,0.4399,39.2800,84,95,191460
1.7742,0.4497,39.4100,84,95,191463
1.7889,0.4350,39.3800,84,95,191466
1.8280,0.4448,39.2500,84,95,191470
1.7986,0.4350,39.3800,84,95,191473
1.8182,0.4399,39.2800,84,95,191476
1.7986,0.4301,39.3200,84,95,191480
1.8133,0.4399,39.3800,84,95,191483
1.8671,0.4399,39.2500,84,95,191486
1.8524,0.4301,39.3500,84,95,191490
1.8817,0.4448,39.2500,84,95,191494
1.8573,0.4399,39.3500,84,95,191497
1.8573,0.4301,38.5800,84,95,191500
1.8964,0.4399,39.3200,84,95,191504
1.9062,0.4301,39.4100,84,95,191507
1.9648,0.4448,39.0900,84,95,191510
1.9208,0.4350,39.3200,84,95,191514
1.9159,0.4350,39.4100,84,95,191517
1.9355,0.4399,39.3500,84,95,191520
1.9453,0.4301,38.8100,84,95,191524
2.0137,0.4839,39.1900,84,95,191527
1.9746,0.4252,39.3200,84,95,191531
1.9501,0.4301,39.3800,84,95,191534
1.9404,0.4350,39.3800,84,95,191538
1.9355,0.4350,39.3800,84,95,191541
1.9844,0.4497,39.2200,84,95,191544
1.9306,0.4252,39.3200,84,95,191549
1.9257,0.4350,39.5400,84,95,191552
1.9550,0.4399,39.2200,84,95,191556
1.9208,0.4350,39.3500,84,95,191559
1.9013,0.4350,38.7100,84,95,191562
1.9013,0.4399,39.3200,84,95,191566
1.8866,0.4350,39.3800,84,95,191569
1.9257,0.4399,39.1600,84,95,191572
1.8915,0.4252,39.3800,84,95,191577
1.8866,0.4301,39.3500,84,95,191580
1.9208,0.4350,39.3200,84,95,191583
1.8573,0.4350,39.4800,84,95,191587
1.9062,0.4497,39.1200,84,95,191590
1.8866,0.4399,39.2800,84,95,191593
1.8768,0.4301,39.3500,84,95,191596
1.8817,0.4350,39.3500,84,95,191600
1.8573,0.4350,39.5400,84,95,191603
1.9110,0.4594,39.1900,84,95,191606
1.8866,0.4399,39.3200,84,95,191610
1.8915,0.4497,39.2800,84,95,191613
1.9013,0.4350,39.3800,84,95,191617
1.8817,0.4301,39.4800,84,95,191621
1.9208,0.4497,39.2800,84,95,191624
1.8671,0.4350,39.3800,84,95,191627
1.8915,0.4741,39.3200,84,95,191631
1.8817,0.4350,39.3800,84,95,191634
1.8866,0.4399,39.4400,84,95,191637
1.8866,0.4399,39.3500,84,95,191641
1.8524,0.4350,39.3500,84,95,191644
1.8915,0.4448,39.3200,84,95,191647
1.8475,0.4350,39.3800,84,95,191650
1.8622,0.4301,39.4100,84,95,191654
1.8817,0.4448,39.1600,84,95,191657
1.8426,0.4252,39.4100,84,95,191661
1.8671,0.4399,39.1900,84,95,191665
1.8524,0.4350,39.2800,84,95,191668
1.8475,0.4301,39.4400,84,95,191671
1.8866,0.4448,39.3200,84,95,191675
1.8524,0.4301,39.3800,84,95,191678
1.8817,0.4448,39.1600,84,95,191681
1.8377,0.4399,38.5200,84,95,191685
1.8231,0.4643,39.4100,84,95,191688
1.8377,0.4350,39.3500,84,95,191691
1.8377,0.4301,39.4100,84,95,191695
1.9306,0.4448,39.1900,84,95,191698
1.8426,0.4399,39.3200,84,95,191702
1.8280,0.4399,39.3200,84,95,191705
1.8280,0.4350,39.3800,84,95,191709
1.8328,0.4399,39.3800,84,95,191712
1.8768,0.4448,38.7400,84,95,191715
1.8475,0.4448,39.3800,84,95,191719
1.8524,0.4350,39.2500,84,95,191722
1.8182,0.4399,39.3800,84,95,191725
1.8231,0.4252,39.3800,84,95,191729
1.8671,0.4448,39.2500,84,95,191732
1.8426,0.4350,39.3800,84,95,191735
1.8671,0.4448,39.2800,84,95,191739
1.8328,0.4252,39.3200,84,95,191742
1.8182,0.4350,39.3500,84,95,191746
1.8524,0.4399,39.2500,84,95,191750
1.8475,0.4301,39.5700,84,95,191753
1.8964,0.4497,39.1900,84,95,191756
1.8817,0.4350,39.3800,84,95,191760
1.8768,0.4350,39.3800,84,95,191763
1.9208,0.4399,39.3200,84,95,191766
1.9013,0.4301,39.4100,84,95,191769
1.9648,0.4448,39.1200,84,95,191773
1.9306,0.4350,39.2200,84,95,191776
1.9159,0.4448,39.3800,84,95,191779
1.9159,0.4350,39.3500,84,95,191783
1.8964,0.4301,39.3800,84,95,191787
1.9550,0.4545,39.1900,84,95,191790
1.9306,0.4399,39.3200,84,95,191794
1.9501,0.4301,39.3200,84,95,191797
1.9355,0.4350,39.4100,84,95,191800
1.9355,0.4350,39.4100,84,95,191804
1.9941,0.4497,39.2200,84,95,191807
1.9697,0.4448,39.3800,84,95,191810
1.9844,0.4252,39.2500,84,95,191813
1.9355,0.4350,39.4100,84,95,191817
1.9355,0.4301,39.3800,84,95,191820
1.8964,0.4448,39.4400,84,95,191823
1.8622,0.4350,39.3800,84,95,191827
1.8964,0.4448,39.2800,84,95,191831
1.8671,0.4252,39.3800,84,95,191834
1.8573,0.4350,39.3800,84,95,191838
1.8524,0.4350,39.2800,84,95,191841
1.8231,0.4399,39.3800,84,95,191844
1.8475,0.4399,39.1900,84,95,191848
1.8280,0.4252,39.3500,84,95,191851
1.8377,0.4301,39.4400,84,95,191854
1.8475,0.4497,39.3200,84,95,191858
1.8231,0.4350,39.6000,84,95,191861
1.8622,0.4497,39.1200,84,95,191864
1.8426,0.4399,39.2800,84,95,191867
1.8475,0.4350,38.6800,84,95,191872
1.8817,0.4350,39.3500,84,95,191875
1.8671,0.4301,39.4100,84,95,191878
1.9110,0.4497,39.1600,84,95,191882
1.8817,0.4448,39.3800,84,95,191885
1.8671,0.4399,39.3200,84,95,191888
1.8817,0.4350,39.3800,84,95,191892
1.8866,0.4301,39.4100,84,95,191895
1.9306,0.4448,39.2500,84,95,191898
1.8915,0.4350,38.5800,84,95,191902
1.8915,0.4448,39.2500,84,95,191905
1.8671,0.4350,39.3800,84,95,191908
1.8524,0.4301,39.4400,84,95,191912
1.8524,0.4399,39.3800,84,95,191916
1.7937,0.4399,39.3800,84,95,191919
1.7595,0.4448,39.2800,84,95,191922
1.6667,0.4399,39.3800,84,95,191926
1.6373,0.4252,39.3800,84,95,191929
1.6813,0.4448,39.2800,84,95,191932
1.7644,0.4301,39.4400,84,95,191936
1.9599,0.4399,39.1900,84,95,191939
2.1848,0.4448,39.2800,84,95,191942
2.4194,0.4399,39.2800,84,95,191946
2.6197,0.4252,39.3200,84,95,191949
2.6197,0.4350,39.5700,84,95,191952
2.6149,0.4545,39.1200,84,95,191956
2.4878,0.4350,39.3200,84,95,191960
2.3705,0.4497,39.4100,84,95,191963
2.2678,0.4399,39.3500,84,95,191967
2.1457,0.4301,38.5800,84,95,191970
2.1065,0.4741,39.1200,84,95,191973
1.9892,0.4399,38.8400,84,95,191976
1.9013,0.4497,39.3200,84,95,191980
1.8377,0.4350,39.3800,84,95,191983
1.7937,0.4350,39.3800,84,95,191986
1.8280,0.4497,39.2500,84,95,191990
1.7937,0.4497,39.2500,84,95,191993
1.8035,0.4399,39.2500,84,95,191996
1.7840,0.4350,39.3500,84,95,192001
1.7791,0.4252,39.3800,84,95,192004
1.8133,0.4448,39.2200,84,95,192007
1.8035,0.4399,39.4400,84,95,192011
1.8475,0.4448,39.2800,84,95,192014
1.8231,0.4350,39.4100,84,95,192017
1.8426,0.4350,39.4100,84,95,192020
1.8280,0.4399,39.2800,84,95,192024
1.8133,0.4399,39.4400,84,95,192027
1.8524,0.4399,39.2200,84,95,192030
1.8475,0.4399,39.3800,84,95,192034
1.8524,0.4252,39.3800,84,95,192037
1.8622,0.4448,39.3500,84,95,192040
1.8280,0.4301,39.3800,84,95,192045
1.8768,0.4448,39.1600,84,95,192048
1.8671,0.4301,39.3200,84,95,192051
1.8671,0.4301,39.4100,84,95,192055
1.8719,0.4252,39.3500,84,95,192058
1.8573,0.4301,39.4800,84,95,192061
1.8964,0.4594,39.1600,84,95,192065
1.8622,0.4350,39.3500,84,95,192068
1.8671,0.4301,39.7700,84,95,192071
1.8768,0.4350,39.3800,84,95,192075
1.8719,0.4301,39.4800,84,95,192078
1.9062,0.4497,39.2200,84,95,192081
1.8622,0.4399,39.1200,84,95,192084
1.8719,0.4399,39.2800,84,95,192089
1.8622,0.4350,39.3800,84,95,192092
1.8671,0.4301,39.3800,84,95,192095
1.8964,0.4350,39.2500,84,95,192099
1.8426,0.4350,39.3800,84,95,192102
1.8622,0.4399,39.2200,84,95,192105
1.8475,0.4301,39.3800,84,95,192109
1.8573,0.4301,39.3800,84,95,192112
1.8719,0.4643,39.2800,84,95,192115
1.8671,0.4301,39.3800,84,95,192119
1.8817,0.4350,39.2200,84,95,192122
1.8475,0.4252,39.4100,84,95,192125
1.8622,0.4350,39.6000,84,95,192129
1.8817,0.4448,39.3200,84,95,192133
1.8719,0.4350,39.4100,84,95,192136
1.9013,0.4448,39.1600,84,95,192139
1.8573,0.4399,39.3200,84,95,192143
1.8377,0.4301,39.3800,84,95,192146
1.8671,0.4350,39.3200,84,95,192149
1.8573,0.4350,39.3800,84,95,192153
1.9062,0.4497,39.0900,84,95,192156
1.8866,0.4643,39.3200,83,95,192161
1.8671,0.4350,39.3800,83,95,192164
1.8719,0.4350,39.2500,83,95,192167
1.8719,0.4399,39.3800,83,95,192172
1.8377,0.4350,39.5100,83,95,192175
1.8622,0.4448,39.3500,83,95,192178
1.8573,0.4350,39.3800,83,95,192182
1.8817,0.4448,39.4400,83,95,192185
1.8475,0.4350,39.3800,83,95,192188
1.8475,0.4301,39.5100,83,95,192191
1.8768,0.4350,39.2500,83,95,192195
1.8768,0.4350,39.3800,83,95,192198
1.9257,0.4399,39.2500,83,95,192201
1.9355,0.4350,39.3200,83,95,192205
1.9159,0.4350,39.0600,83,95,192208
1.9599,0.4497,39.2800,83,95,192211
1.9208,0.4350,39.3800,83,95,192216
1.9844,0.4448,38.7100,83,95,192219
1.9746,0.4252,39.3200,83,95,192222
1.9648,0.4301,39.4400,83,95,192226
1.9648,0.4350,39.3800,83,95,192229
1.9404,0.4301,39.3800,83,95,192232
2.0039,0.4497,39.0900,83,95,192235
1.9697,0.4448,39.2800,83,95,192239
2.0039,0.4301,39.3800,83,95,192242
1.9746,0.4252,39.3500,83,95,192245
1.9453,0.4448,39.3800,83,95,192249
1.9892,0.4545,39.2200,83,95,192252
1.9453,0.4399,39.3500,83,95,192256
1.9550,0.4350,39.2800,83,95,192260
1.9453,0.4350,39.4800,83,95,192263
1.9404,0.4350,39.4100,83,95,192266
1.9648,0.4448,39.2200,83,95,192269
1.9208,0.4594,39.3800,83,95,192273
1.9404,0.4399,39.2500,83,95,192276
1.9306,0.4301,39.3800,83,95,192279
1.9355,0.4350,39.4100,83,95,192283
1.9550,0.4252,39.2800,83,95,192286
1.9159,0.4350,39.4400,83,95,192289
1.9306,0.4399,39.3200,83,95,192293
1.9062,0.4301,39.3500,83,95,192296
1.9159,0.4301,39.3500,83,95,192300
1.9453,0.4399,39.2800,83,95,192304
1.9110,0.4301,39.3800,83,95,192307
1.9306,0.4448,39.2200,83,95,192310
1.8915,0.4301,39.3500,83,95,192313
1.9062,0.4350,39.4800,83,95,192317
1.9404,0.4448,39.2800,83,95,192320
1.9208,0.4301,39.0900,83,95,192323
1.9648,0.4448,39.1600,83,95,192327
1.9306,0.4399,39.2800,83,95,192330
1.9062,0.4350,38.8400,83,95,192333
1.9404,0.4350,39.3200,83,95,192337
1.9257,0.4301,39.3800,83,95,192340
1.9795,0.4594,39.3200,83,95,192344
1.9306,0.4399,39.3200,83,95,192348
1.8964,0.4301,39.3800,83,95,192351
1.8915,0.4350,39.3800,83,95,192354
1.8866,0.4301,39.3800,83,95,192357
1.9453,0.4497,39.2800,83,95,192361
1.9110,0.4350,39.3800,83,95,192364
1.9013,0.4350,39.2500,83,95,192367
1.8671,0.4350,39.3800,83,95,192371
1.8671,0.4350,39.4100,83,95,192374
1.8915,0.4399,39.3800,83,95,192377
1.8915,0.4350,39.4400,83,95,192381
1.9159,0.4399,39.2500,83,95,192385
1.8719,0.4399,39.3800,83,95,192388
1.8573,0.4399,39.4100,83,95,192392
1.8817,0.4448,39.2500,83,95,192395
1.8622,0.4350,39.3800,83,95,192398
1.8915,0.4350,39.2200,83,95,192402
1.8768,0.4301,39.3200,83,95,192405
1.8475,0.4252,39.4100,83,95,192408
1.8817,0.4497,39.2500,83,95,192411
1.8524,0.4350,39.3800,83,95,192415
1.9013,0.4448,39.1600,83,95,192418
1.8817,0.4350,39.3200,83,95,192421
1.8817,0.4301,39.5400,83,95,192425
1.8866,0.4350,39.3500,83,95,192429
1.8622,0.4252,39.4100,83,95,192432
1.9208,0.4497,39.1200,83,95,192436
1.8964,0.4399,39.3200,83,95,192439
1.9013,0.4350,39.3800,83,95,192442
1.8915,0.4350,39.4100,83,95,192446
1.8768,0.4350,39.3800,83,95,192449
1.9453,0.4594,39.2200,83,95,192452
1.8768,0.4350,39.3500,83,95,192455
1.8964,0.4350,39.2800,83,95,192459
1.9013,0.4350,39.3800,83,95,192462
1.9013,0.4252,39.3800,83,95,192465
1.9306,0.4448,39.2200,83,95,192470
1.9062,0.4399,39.3500,83,95,192473
1.9453,0.4399,39.2500,83,95,192476
1.9453,0.4252,39.3800,83,95,192480
1.9648,0.4497,39.4100,83,95,192483
1.9990,0.4350,39.2800,83,95,192486
1.9697,0.4350,39.4400,83,95,192490
1.9941,0.4399,39.2800,83,95,192493
1.9746,0.4252,39.3200,83,95,192496
1.9941,0.4301,39.4100,83,95,192500
2.0137,0.4350,39.2800,83,95,192503
1.9941,0.4252,39.3800,83,95,192506
2.0088,0.4399,39.1900,83,95,192509
1.9697,0.4350,39.3500,83,95,192514
1.9892,0.4350,39.4400,83,95,192517
2.0235,0.4399,39.2800,83,95,192520
2.0283,0.4350,39.4100,83,95,192524
2.0772,0.4448,39.1600,83,95,192527
2.0186,0.4399,39.2800,83,95,192530
1.9746,0.4594,39.3800,83,95,192534
1.9648,0.4399,39.3500,83,95,192537
1.9355,0.4301,39.4100,83,95,192540
1.9990,0.4448,39.1200,83,95,192543
1.9208,0.4399,39.1600,83,95,192547
1.8719,0.4301,39.3500,83,95,192550
1.8524,0.4252,39.3800,83,95,192553
1.8426,0.4350,39.3800,83,95,192558
1.8915,0.4497,39.2500,83,95,192561
1.8573,0.4350,39.3800,83,95,192564
1.8573,0.4399,39.2800,83,95,192568
1.8231,0.4252,39.3800,83,95,192571
1.8133,0.4790,39.3800,83,95,192574
1.8377,0.4399,39.3500,83,95,192578
1.8280,0.4350,39.3800,83,95,192581
1.8475,0.4350,39.2500,83,95,192584
1.8133,0.4350,39.3800,83,95,192587
1.8035,0.4350,39.4100,83,95,192591
1.8328,0.4448,39.2800,83,95,192594
1.8182,0.4350,39.2800,83,95,192598
1.8524,0.4448,39.2500,83,95,192602
1.8377,0.4350,39.2200,83,95,192605
1.8231,0.4301,39.6000,83,95,192608
1.8328,0.4448,39.2500,83,95,192612
1.8133,0.4350,39.3800,83,95,192615
1.8671,0.4350,39.1200,83,95,192618
1.8426,0.4594,39.2800,83,95,192622
1.8231,0.4301,39.4100,83,95,192625
1.7986,0.4399,39.3800,83,95,192628
1.7400,0.4350,39.3800,83,95,192632
1.7644,0.4497,39.1200,83,95,192635
1.6813,0.4497,39.1900,83,95,192638
1.6178,0.4301,39.3500,83,95,192642
1.5640,0.4350,39.3800,83,95,192646
1.5591,0.4399,39.3800,83,95,192649
1.6813,0.4252,39.2200,83,95,192652
1.8084,0.4350,39.4800,83,95,192656
2.0626,0.4399,39.2800,83,95,192659
2.3265,0.4350,39.4100,83,95,192662
2.5073,0.4301,39.3800,83,95,192666
2.5806,0.4448,39.2200,83,95,192669
2.4682,0.4350,39.6000,83,95,192672
2.4047,0.4741,39.2500,83,95,192676
2.3069,0.4301,39.3200,83,95,192679
2.2141,0.4350,39.4400,83,95,192683
2.1261,0.4350,39.2800,83,95,192686
1.9941,0.4252,39.3800,83,95,192690
1.9306,0.4399,39.2800,83,95,192693
1.8280,0.4252,39.3800,83,95,192696
1.7889,0.4301,39.3500,83,95,192700
1.7644,0.4692,39.3200,83,95,192703
1.7253,0.4301,39.3800,83,95,192706
1.7351,0.4545,39.1600,83,95,192710
1.6960,0.4301,39.2500,83,95,192713
1.7107,0.4252,39.3800,83,95,192716
1.7449,0.4399,39.3500,83,95,192720
1.7449,0.4301,39.3800,83,95,192723
1.7986,0.4448,39.1200,83,95,192727
1.7498,0.4399,39.3200,83,95,192730
1.7351,0.4301,39.4100,83,95,192734
1.7546,0.4350,39.2800,83,95,192737
1.7595,0.4301,39.3500,83,95,192740
1.8280,0.4448,39.1900,83,95,192744
1.7791,0.4399,39.2800,83,95,192747
1.7889,0.4350,39.3200,83,95,192750
1.7546,0.4350,39.3800,83,95,192754
1.7644,0.4301,39.3500,83,95,192757
1.8182,0.4448,39.2500,83,95,192760
1.7937,0.4350,39.3500,83,95,192764
1.8084,0.4399,39.2500,83,95,192768
1.7840,0.4350,39.4100,83,95,192771
1.7889,0.4350,39.4100,83,95,192776
1.7840,0.4301,39.3500,83,95,192779
1.8280,0.4399,39.3500,83,95,192783
1.8084,0.4301,39.3500,83,95,192786
1.8622,0.4692,39.1600,83,95,192789
1.8475,0.4399,39.3200,83,95,192792
1.8182,0.4350,39.4100,83,95,192796
1.8231,0.4399,39.3200,83,95,192799
1.8035,0.4350,39.4100,83,95,192802
1.8719,0.4497,39.0900,83,95,192806
1.8426,0.4448,38.5200,83,95,192809
1.8231,0.4497,39.3800,83,95,192813
1.8035,0.4252,39.3800,83,95,192817
1.7889,0.4350,39.3800,83,95,192820
1.8377,0.4594,39.2200,83,95,192823
1.8035,0.4350,39.3500,83,95,192827
1.8133,0.4350,39.3200,83,95,192830
1.7986,0.4350,39.3800,83,95,192833
1.7889,0.4350,39.3500,83,95,192836
1.8133,0.4448,39.3200,83,95,192840
1.7742,0.4350,38.5500,83,95,192843
1.8035,0.4643,39.2500,83,95,192846
1.7840,0.4301,39.2800,83,95,192850
1.7791,0.4399,39.4100,83,95,192854
1.7937,0.4448,39.2800,83,95,192857
1.7546,0.4350,39.3800,83,95,192861
1.7840,0.4448,39.2500,83,95,192864
1.7742,0.4350,39.3500,83,95,192867
1.7742,0.4301,39.4100,83,95,192871
1.7840,0.4399,39.2500,83,95,192874
1.7546,0.4350,39.4100,83,95,192877
1.7742,0.4399,39.1600,83,95,192880
1.7644,0.4399,39.3500,83,95,192884
1.7693,0.4301,39.2800,83,95,192887
1.7986,0.4448,39.3200,83,95,192890
1.7791,0.4252,39.3800,83,95,192894
1.8084,0.4448,39.1900,83,95,192898
1.7889,0.4350,39.3200,83,95,192901
1.8035,0.4350,39.4400,83,95,192905
1.8377,0.4399,39.3500,83,95,192908
1.8426,0.4301,39.3500,83,95,192911
1.8964,0.4594,39.1600,83,95,192915
1.8524,0.4399,39.3200,83,95,192918
1.8475,0.4350,39.3200,83,95,192921
1.8719,0.4350,39.4100,83,95,192925
1.8915,0.4301,39.4400,83,95,192928
1.9501,0.4448,39.2500,83,95,192931
1.9208,0.4350,39.3500,83,95,192934
1.9257,0.4399,39.3500,83,95,192939
1.9110,0.4399,39.3800,83,95,192942
1.9257,0.4252,39.3800,83,95,192945
1.9746,0.4448,39.2500,83,95,192949
1.9599,0.4301,39.3800,83,95,192952
1.9795,0.4448,39.3500,83,95,192955
1.9404,0.4203,39.3800,83,95,192959
1.9453,0.4350,39.4100,83,95,192962
1.9599,0.4448,39.3200,83,95,192965
1.9550,0.4350,39.3800,83,95,192969
1.9697,0.4350,39.2200,83,95,192972
1.9648,0.4301,39.4400,83,95,192975
1.9159,0.4301,39.3800,83,95,192978
1.9306,0.4448,39.2800,83,95,192983
1.9208,0.4301,39.3800,83,95,192986
1.9648,0.4448,39.1900,83,95,192989
1.9355,0.4497,39.2800,83,95,192993
1.9013,0.4350,39.4100,83,95,192996
1.9013,0.4399,39.3500,83,95,192999
1.8915,0.4350,39.3800,83,95,193003
1.9501,0.4497,39.1200,83,95,193006
1.9208,0.4448,39.2800,83,95,193009
1.8964,0.4301,39.4400,83,95,193013
1.8817,0.4399,39.3800,83,95,193016
1.8524,0.4350,39.3800,83,95,193019
1.9159,0.4545,39.2200,83,95,193022
1.8817,0.4643,39.3500,83,95,193027
1.8866,0.4350,39.3200,83,95,193030
1.8671,0.4301,39.2800,83,95,193033
1.8377,0.4350,39.3800,83,95,193037
1.8573,0.4448,39.3200,83,95,193040
1.8377,0.4399,39.3500,83,95,193043
1.8768,0.4399,39.2500,83,95,193047
1.8622,0.4448,39.3800,83,95,193050
1.8573,0.4301,39.3800,83,95,193053
1.8817,0.4448,39.5100,83,95,193057
1.8377,0.4350,39.3500,83,95,193060
1.8719,0.4399,39.3200,83,95,193063
1.8573,0.4399,39.3200,83,95,193067
1.8475,0.4252,39.4100,83,95,193071
1.8768,0.4350,39.2500,83,95,193074
1.8182,0.4252,39.3800,83,95,193077
1.8475,0.4692,39.1600,83,95,193081
1.8475,0.4301,39.3200,83,95,193084
1.8573,0.4350,39.4100,83,95,193087
1.8719,0.4399,39.3500,83,95,193091
1.8475,0.4301,39.3800,83,95,193094
1.8768,0.4497,39.1600,83,95,193097
1.8280,0.4350,39.3200,83,95,193101
1.8231,0.4301,39.4100,83,95,193104
1.8377,0.4350,39.3500,83,95,193107
1.8328,0.4301,39.4100,83,95,193112
1.8719,0.4252,39.1900,83,95,193115
1.8182,0.4399,39.3500,83,95,193118
1.8182,0.4301,39.3200,83,95,193121
1.8133,0.4350,39.3800,83,95,193125
1.8231,0.4350,39.4100,83,95,193128
1.8622,0.4448,39.1900,83,95,193131
1.8231,0.4252,39.3500,83,95,193135
1.8280,0.4399,39.2200,83,95,193138
1.8035,0.4399,39.4400,83,95,193141
1.8182,0.4350,39.3800,83,95,193145
1.8524,0.4399,39.3200,83,95,193148
1.8231,0.4350,39.3800,83,95,193152
1.8426,0.4350,39.3800,83,95,193156
1.8231,0.4301,39.3200,83,95,193159
1.7986,0.4350,39.4400,83,95,193162
1.8280,0.4448,39.2800,83,95,193166
1.8377,0.4301,39.3800,83,95,193169
1.8671,0.4399,39.1600,83,95,193172
1.8182,0.4301,39.3500,83,95,193175
1.8133,0.4252,39.4100,83,95,193179
1.8328,0.4399,39.3200,83,95,193182
1.8231,0.4301,39.3800,83,95,193185
1.8817,0.4448,39.1600,83,95,193189
1.8671,0.4399,39.2800,83,95,193192
1.8475,0.4301,39.5400,83,95,193196
1.8573,0.4399,39.3800,83,95,193200
1.8524,0.4350,39.4100,83,95,193203
1.9306,0.4399,39.1900,83,95,193206
1.9110,0.4399,39.3500,83,95,193210
1.9062,0.4448,39.2800,83,95,193213
1.8964,0.4252,39.3800,83,95,193216
1.8817,0.4350,39.3800,83,95,193220
1.9159,0.4497,39.2500,83,95,193223
1.8915,0.4350,39.4800,83,95,193226
1.9208,0.4301,39.2800,83,95,193229
1.9062,0.4350,39.3800,83,95,193233
1.9013,0.4301,39.3800,83,95,193236
1.9208,0.4350,39.3200,83,95,193240
1.9159,0.4350,39.4800,83,95,193244
1.9501,0.4448,39.3200,83,95,193247
1.9062,0.4301,39.3800,83,95,193250
1.8719,0.4301,39.4100,83,95,193254
1.8524,0.4448,39.2800,83,95,193257
1.7986,0.4350,39.4100,83,95,193260
1.8231,0.4350,39.2200,83,95,193264
1.8084,0.4399,39.3500,83,95,193267
1.7937,0.4399,39.4100,83,95,193270
1.7986,0.4448,39.3200,83,95,193273
1.7498,0.4350,39.4100,83,95,193277
1.7840,0.4497,39.1200,83,95,193281
1.7595,0.4350,39.2800,83,95,193284
1.7595,0.4399,39.4100,83,95,193288
1.7693,0.4350,39.3500,83,95,193291
1.7498,0.4301,39.3800,83,95,193294
1.8084,0.4594,39.1600,83,95,193298
1.7498,0.4399,39.3800,83,95,193301
1.7400,0.4301,39.3200,83,95,193304
1.7595,0.4350,39.2800,83,95,193308
1.7889,0.4399,39.3800,83,95,193311
1.7986,0.4448,39.2500,83,95,193314
1.7595,0.4350,39.3800,83,95,193318
1.7693,0.4399,39.2800,83,95,193321
1.7693,0.4350,39.4100,83,95,193325
1.7840,0.4350,39.4400,83,95,193328
1.8231,0.4448,39.2200,83,95,193332
1.7791,0.4399,39.3500,83,95,193335
1.7937,0.4448,39.2500,83,95,193338
1.7498,0.4301,39.3800,83,95,193342
1.7400,0.4350,39.3800,83,95,193345
1.7498,0.4545,39.2800,83,95,193348
1.7107,0.4301,39.3800,83,95,193352
1.6862,0.4399,39.2200,83,95,193355
1.6178,0.4399,39.3500,83,95,193358
1.5689,0.4350,39.3800,83,95,193362
1.5640,0.4399,39.2800,83,95,193366
1.6178,0.4350,39.4400,83,95,193369
1.7351,0.4448,39.1600,83,95,193372
1.9110,0.4350,39.3500,83,95,193376
2.1163,0.4350,39.3800,83,95,193379
2.3705,0.4399,39.3200,83,95,193382
2.2141,0.4350,39.3800,83,95,193386
2.1261,0.4350,39.3800,83,95,193389
2.0381,0.4448,39.2200,83,95,193393
1.9453,0.4301,39.3500,83,95,193396
1.8475,0.4350,39.2500,83,95,193399
1.7449,0.4350,39.3800,83,95,193403
1.6862,0.4350,39.3800,83,95,193406
1.6813,0.4448,39.2800,83,95,193410
1.6569,0.4350,39.3800,83,95,193414
1.7204,0.4448,39.3200,83,95,193417
1.6618,0.4301,39.3800,83,95,193420
1.6667,0.4350,39.3800,83,95,193424
1.6716,0.4350,39.3200,83,95,193427
1.6764,0.4350,39.3800,83,95,193430
1.7302,0.4350,39.2200,83,95,193433
1.7058,0.4301,39.3800,83,95,193437
1.7058,0.4301,39.4400,83,95,193440
1.7058,0.4399,39.3200,83,95,193443
1.6813,0.4350,39.3800,83,95,193447
1.7351,0.4497,39.1200,83,95,193451
1.7302,0.4399,39.3800,83,95,193454
1.7449,0.4301,39.3800,83,95,193458
1.7449,0.4545,39.3800,83,95,193461
1.7253,0.4301,39.3800,83,95,193464
1.7791,0.4545,39.1900,83,95,193468
1.7693,0.4399,39.2800,83,95,193471
1.7693,0.4301,39.3500,83,95,193474
1.7840,0.4350,39.3500,83,95,193477
1.8035,0.4301,39.4400,83,95,193481
1.8084,0.4497,39.2800,83,95,193484
1.7693,0.4448,39.3500,83,95,193487
1.7889,0.4350,39.2800,83,95,193491
1.7889,0.4350,39.3800,83,95,193495
1.7840,0.4350,39.3800,83,95,193498
1.7937,0.4399,39.3500,83,95,193502
1.7595,0.4350,39.3800,83,95,193505
1.7840,0.4350,39.2500,83,95,193508
1.7742,0.4350,39.4400,83,95,193512
1.7937,0.4350,39.3800,83,95,193515
1.8328,0.4448,39.2800,83,95,193518
1.7937,0.4399,39.3800,83,95,193522
1.8035,0.4350,39.2800,83,95,193525
1.7986,0.4350,39.2800,83,95,193528
1.8035,0.4301,39.4100,83,95,193531
1.8377,0.4399,39.2500,83,95,193536
1.8133,0.4301,39.3800,83,95,193539
1.8377,0.4448,39.1600,83,95,193542
1.7937,0.4497,39.2800,83,95,193546
1.7840,0.4350,39.3800,83,95,193549
1.8084,0.4399,39.2800,83,95,193552
1.7986,0.4301,39.4400,83,95,193556
1.8426,0.4497,39.1200,83,95,193559
1.8231,0.4350,39.3200,83,95,193562
1.7742,0.4301,39.3800,83,95,193566
1.7693,0.4350,39.3200,83,95,193569
1.7742,0.4301,39.4100,83,95,193572
1.8280,0.4497,39.1600,83,95,193575
1.7889,0.4399,39.4400,83,95,193580
1.7791,0.4350,39.2800,83,95,193583
1.7546,0.4350,39.4400,83,95,193586
1.7595,0.4350,39.3800,83,95,193590
1.8084,0.4448,39.2200,83,95,193593
1.7937,0.4350,39.3800,83,95,193596
1.8133,0.4399,39.2500,83,95,193600
1.7840,0.4301,39.3500,83,95,193603
1.7840,0.4350,39.3800,83,95,193606
1.8182,0.4448,39.2500,83,95,193610
1.8084,0.4350,39.3800,83,95,193613
1.8426,0.4252,39.2800,83,95,193616
1.8182,0.4301,39.3500,83,95,193619
1.8231,0.4252,39.3800,83,95,193624
1.8475,0.4399,39.4100,83,95,193627
1.8475,0.4399,39.3500,83,95,193630
1.9208,0.4399,39.1900,83,95,193634
1.8866,0.4301,39.3500,83,95,193637
1.8964,0.4301,39.4100,83,95,193640
1.9159,0.4399,39.3200,83,95,193644
1.8964,0.4399,39.4400,83,95,193647
1.9599,0.4497,39.1200,83,95,193650
1.9550,0.4399,39.2800,83,95,193654
1.9453,0.4301,39.4400,83,95,193657
1.9550,0.4399,39.4100,83,95,193660
1.9404,0.4301,39.4400,83,95,193665
1.9844,0.4545,39.1900,83,95,193668
1.9697,0.4399,39.3200,83,95,193671
1.9599,0.4301,39.3800,83,95,193674
1.9599,0.4350,39.3800,83,95,193678
1.9501,0.4350,39.3800,83,95,193681
1.9648,0.4448,39.3500,83,95,193684
1.9404,0.4301,39.4400,83,95,193688
1.9599,0.4399,39.2800,83,95,193691
1.9550,0.4252,39.4100,83,95,193694
1.9550,0.4252,39.3800,83,95,193698
1.9501,0.4399,39.2500,83,95,193701
1.9159,0.4350,39.3800,83,95,193704
1.9355,0.4448,39.3200,83,95,193709
1.9110,0.4301,39.4100,83,95,193712
1.9453,0.4301,39.3200,83,95,193715
1.9404,0.4399,39.1600,83,95,193718
1.9062,0.4350,39.3800,83,95,193722
1.9013,0.4399,38.7700,83,95,193725
1.8915,0.4399,39.2800,83,95,193728
1.9013,0.4350,39.3800,83,95,193732
1.9306,0.4448,39.2500,83,95,193735
1.9208,0.4301,39.3800,83,95,193738
1.9257,0.4448,39.1200,83,95,193742
1.8817,0.4350,39.3200,83,95,193745
1.8622,0.4350,39.4100,83,95,193748
1.8768,0.4350,39.3800,83,95,193753
1.9062,0.4301,39.4400,83,95,193756
1.9257,0.4497,39.1200,83,95,193759
1.8768,0.4399,39.3200,83,95,193762
1.8524,0.4301,39.3800,83,95,193766
1.8573,0.4399,39.3800,83,95,193769
1.8671,0.4301,39.3800,83,95,193772
1.9208,0.4497,39.2200,83,95,193776
1.9013,0.4350,39.3500,83,95,193779
1.8768,0.4350,39.2800,83,95,193782
1.8573,0.4301,39.3800,83,95,193786
1.8573,0.4350,39.4100,83,95,193789
1.9062,0.4448,39.2200,83,95,193793
1.8817,0.4252,39.3800,83,95,193797
1.8964,0.4399,39.2200,83,95,193800
1.8475,0.4252,39.3500,83,95,193803
1.8475,0.4350,39.3800,83,95,193807
1.8671,0.4399,39.2800,83,95,193810
1.8524,0.4301,38.7100,83,95,193813
1.8768,0.4399,39.3200,83,95,193816
1.8524,0.4252,39.3200,83,95,193820
1.8328,0.4350,39.3800,83,95,193823
1.8622,0.4252,39.2800,83,95,193826
1.8280,0.4350,39.3800,83,95,193830
1.8768,0.4497,39.1200,83,95,193833
1.8426,0.4301,39.3500,83,95,193837
1.8377,0.4301,39.3800,83,95,193841
1.8426,0.4399,39.3500,83,95,193844
1.8182,0.4350,39.3800,83,95,193847
1.9062,0.4545,39.1200,83,95,193851
1.8573,0.4399,39.3200,83,95,193854
1.8426,0.4301,39.3800,83,95,193857
1.8328,0.4350,39.3800,83,95,193861
1.8231,0.4350,39.4100,83,95,193864
1.8719,0.4545,39.1900,83,95,193867
1.8475,0.4399,39.3800,83,95,193870
1.8524,0.4301,39.2800,83,95,193874
1.8475,0.4252,39.3800,83,95,193878
1.8328,0.4301,38.5800,83,95,193881
1.8475,0.4350,39.2500,83,95,193885
1.8231,0.4350,39.3800,83,95,193888
1.8524,0.4399,39.3200,83,95,193891
1.8475,0.4350,39.3800,83,95,193895
1.8524,0.4350,39.3200,83,95,193898
1.8573,0.4301,39.3200,83,95,193901
1.8475,0.4350,39.3800,83,95,193905
1.8719,0.4399,39.2800,83,95,193908
1.8768,0.4350,39.3800,83,95,193911
1.9013,0.4301,39.3500,83,95,193914
1.9355,0.4399,39.2800,83,95,193918
1.9062,0.4350,39.3800,83,95,193922
1.9306,0.4399,39.1900,83,95,193925
1.9159,0.4497,39.3200,83,95,193929
1.9110,0.4301,39.3800,83,95,193932
1.9453,0.4252,39.2800,83,95,193935
1.9110,0.4301,39.2800,83,95,193939
1.9453,0.4643,39.1200,83,95,193942
1.9062,0.4399,39.1900,83,95,193945
1.8964,0.4594,39.3800,83,95,193949
1.9306,0.4252,39.3800,83,95,193952
1.9453,0.4350,39.3800,83,95,193955
2.0137,0.4545,39.1600,83,95,193958
1.9648,0.4399,39.3500,83,95,193963
1.9257,0.4301,39.2800,83,95,193966
1.9062,0.4399,39.4400,83,95,193969
1.8866,0.4301,39.4400,83,95,193973
1.9110,0.4399,39.2500,83,95,193976
1.8719,0.4350,39.3800,83,95,193979
1.8524,0.4350,39.2800,83,95,193983
1.8328,0.4350,39.3800,83,95,193986
1.8084,0.4252,39.3800,83,95,193989
1.8426,0.4448,39.2500,83,95,193993
1.8084,0.4741,39.2500,83,95,193996
1.8182,0.4301,39.4100,83,95,194000
1.8524,0.4399,39.1900,83,95,194003
1.8280,0.4301,39.3200,83,95,194007
1.8035,0.4301,39.4100,83,95,194010
1.8280,0.4448,39.3500,83,95,194014
1.8182,0.4203,39.3500,83,95,194017
1.8866,0.4448,39.1200,83,95,194020
1.8573,0.4399,39.2800,83,95,194024
1.8573,0.4301,39.3800,83,95,194027
1.8524,0.4350,39.2800,83,95,194030
1.8475,0.4252,39.3500,83,95,194034
1.9208,0.4545,39.2200,83,95,194037
1.8866,0.4399,39.4400,83,95,194040
1.8817,0.4301,39.3200,83,95,194044
1.8915,0.4399,39.3500,83,95,194048
1.8280,0.4350,39.3800,83,95,194051
1.8231,0.4448,39.2500,83,95,194055
1.7644,0.4252,39.3500,83,95,194058
1.7449,0.4399,39.2500,83,95,194061
1.6667,0.4301,39.4400,83,95,194064
1.6227,0.4301,39.4400,83,95,194068
1.6716,0.4497,39.3200,83,95,194071
1.7498,0.4350,39.3800,83,95,194074
1.9795,0.4448,39.2800,83,95,194078
2.2190,0.4252,39.3500,83,95,194081
2.4682,0.4301,39.4100,83,95,194084
2.6295,0.4350,39.2500,83,95,194088
2.5855,0.4350,39.4100,83,95,194092
2.5513,0.4399,39.1900,83,95,194095
2.4340,0.4301,39.3500,83,95,194099
2.3558,0.4301,39.4100,83,95,194102
2.2678,0.4350,39.3500,83,95,194105
2.1163,0.4350,39.4100,83,95,194108
2.0528,0.4839,39.1200,83,95,194112
1.9404,0.4399,39.2800,83,95,194115
1.8671,0.4301,39.4100,83,95,194118
1.8377,0.4252,39.3200,83,95,194122
1.7791,0.4301,39.5100,83,95,194125
1.7986,0.4594,39.1900,83,95,194128
1.7595,0.4448,39.3800,83,95,194132
1.7400,0.4301,39.3500,83,95,194136
1.7840,0.4350,39.3500,83,95,194139
1.7693,0.4301,39.3800,83,95,194143
1.8133,0.4448,39.2800,83,95,194146
1.7986,0.4350,39.3500,83,95,194149
1.7840,0.4350,39.2800,83,95,194152
1.7791,0.4350,39.3500,83,95,194156
1.8035,0.4252,39.4100,83,95,194159
1.8377,0.4448,39.5400,83,95,194162
1.8133,0.4399,39.3800,83,95,194166
1.8377,0.4448,39.4100,83,95,194169
1.8182,0.4252,39.3800,83,95,194172
1.8328,0.4350,39.4400,83,95,194177
1.8768,0.4350,39.1900,83,95,194180
1.8622,0.4350,39.3800,83,95,194183
1.8768,0.4399,39.2500,83,95,194187
1.8524,0.4350,39.2500,83,95,194190
1.8426,0.4350,39.3800,83,95,194193
1.8719,0.4497,39.2500,83,95,194197
1.8671,0.4350,39.4100,83,95,194200
1.9110,0.4448,39.1900,83,95,194203
1.8768,0.4350,39.2800,83,95,194206
1.8573,0.4301,39.3500,83,95,194210
1.8719,0.4399,39.3200,83,95,194213
1.8622,0.4350,39.4400,83,95,194216
1.9208,0.4497,39.1900,83,95,194221
1.8866,0.4399,39.2200,83,95,194224
1.8671,0.4252,39.3800,83,95,194227
1.8573,0.4350,39.3800,83,95,194231
1.8475,0.4594,39.3500,83,95,194234
1.9062,0.4497,39.2500,83,95,194237
1.8671,0.4350,39.2800,83,95,194241
1.8768,0.4301,39.2800,83,95,194244
1.8524,0.4350,39.3500,83,95,194247
1.8377,0.4350,39.4400,83,95,194251
1.8671,0.4448,38.4600,83,95,194254
1.8475,0.4350,39.3800,83,95,194257
1.8719,0.4399,39.2500,83,95,194260
1.8426,0.4252,39.3200,83,95,194265
1.8426,0.4301,39.3800,83,95,194268
1.8622,0.4350,39.2800,83,95,194271
1.8475,0.4252,39.3800,83,95,194275
1.8817,0.4350,39.2500,83,95,194278
1.8671,0.4399,39.3200,83,95,194281
1.8622,0.4301,39.4100,83,95,194285
1.8622,0.4350,39.3200,83,95,194288
1.8377,0.4350,39.3800,83,95,194291
1.8768,0.4448,39.1900,83,95,194295
1.8524,0.4301,39.3500,83,95,194298
1.8671,0.4301,39.4100,83,95,194301
1.8719,0.4350,39.3500,83,95,194305
1.8475,0.4301,39.3800,83,95,194309
1.8866,0.4497,39.0600,83,95,194312
1.8524,0.4399,39.3200,83,95,194315
1.8671,0.4252,39.3800,83,95,194319
1.8768,0.4643,39.3500,83,95,194322
1.8719,0.4301,39.3800,83,95,194325
1.9208,0.4545,39.2200,83,95,194329
1.8915,0.4399,39.3200,83,95,194332
1.8817,0.4350,39.2800,83,95,194335
1.8915,0.4350,39.3500,83,95,194339
1.9013,0.4301,39.3800,83,95,194342
1.9355,0.4448,39.2200,83,95,194345
1.9062,0.4399,39.3800,83,95,194349
1.9355,0.4252,39.2500,83,95,194353
1.9257,0.4350,39.4100,83,95,194356
1.9501,0.4252,39.3800,83,95,194359
1.9795,0.4350,39.4100,83,95,194363
1.9697,0.4350,39.4100,83,95,194366
2.0186,0.4350,39.2500,83,95,194369
1.9599,0.4350,39.3800,83,95,194373
2.0039,0.4399,39.4400,83,95,194376
2.0186,0.4399,39.3200,83,95,194379
1.9990,0.4301,39.4400,83,95,194383
2.0283,0.4399,39.2200,83,95,194386
1.9990,0.4399,39.5100,83,95,194390
1.9746,0.4350,39.3500,83,95,194393
2.0088,0.4448,39.2800,83,95,194397
1.9892,0.4301,39.3800,83,95,194400
2.0332,0.4448,39.1600,83,95,194403
1.9844,0.4350,39.2500,83,95,194407
1.9550,0.4350,39.3800,83,95,194410
1.9550,0.4399,39.3500,83,95,194413
1.9453,0.4350,39.5700,83,95,194417
2.0088,0.4790,39.0900,83,95,194420
1.9844,0.4399,39.3200,83,95,194423
1.9501,0.4301,39.3500,83,95,194427
1.9355,0.4399,39.3500,83,95,194430
1.9257,0.4252,39.4100,83,95,194434
1.9844,0.4790,39.3200,83,95,194437
1.9550,0.4350,39.3500,83,95,194441
1.9648,0.4350,39.2800,83,95,194444
1.9306,0.4350,39.3500,83,95,194447
1.9159,0.4350,39.3800,83,95,194451
1.9453,0.4448,39.2200,83,95,194454
1.9208,0.4350,39.3800,83,95,194457
1.9550,0.4399,39.1900,83,95,194461
1.9208,0.4350,39.3200,83,95,194464
1.9110,0.4350,39.4100,83,95,194467
1.9208,0.4692,39.2800,83,95,194471
1.9013,0.4350,39.3800,83,95,194475
1.9404,0.4350,39.2800,83,95,194478
1.9208,0.4594,39.3500,83,95,194481
1.9159,0.4350,39.3800,83,95,194485
1.9110,0.4350,39.3200,83,95,194488
1.8964,0.4350,39.3800,83,95,194491
1.9550,0.4350,39.1600,83,95,194495
1.9062,0.4301,39.3200,83,95,194498
1.9159,0.4301,39.4100,83,95,194501
1.9306,0.4399,39.3500,83,95,194505
1.9110,0.4399,39.3800,83,95,194508
1.9355,0.4497,39.1200,83,95,194511
1.8964,0.4497,39.2800,83,95,194515
1.8866,0.4301,39.3500,83,95,194519
1.8964,0.4399,39.3800,83,95,194522
1.8915,0.4301,39.3800,83,95,194525
1.9208,0.4545,39.1900,83,95,194529
1.8671,0.4301,39.3200,83,95,194532
1.8573,0.4252,39.3200,83,95,194535
1.8622,0.4301,39.3500,83,95,194539
1.8866,0.4301,39.4100,83,95,194542
1.8866,0.4448,39.2500,83,95,194545
1.8475,0.4399,39.3800,83,95,194549
1.8524,0.4399,39.2800,83,95,194552
1.8426,0.4399,39.3800,83,95,194555
1.8622,0.4301,39.3800,83,95,194560
1.8866,0.4350,39.5700,83,95,194563
1.8671,0.4643,39.3800,83,95,194566
1.8866,0.4252,39.2800,83,95,194570
1.8524,0.4399,39.3800,83,95,194573
1.8768,0.4252,39.4400,83,95,194576
1.9062,0.4399,39.3500,83,95,194579
1.9159,0.4301,39.3800,83,95,194583
1.9110,0.4399,39.1900,83,95,194586
1.8817,0.4399,39.2500,83,95,194589
1.8964,0.4350,39.3800,83,95,194593
1.8915,0.4448,39.3800,83,95,194596
1.8817,0.4399,39.3800,83,95,194599
1.9355,0.4448,39.1600,83,95,194604
1.9599,0.4497,39.2200,83,95,194607
1.9306,0.4350,39.3500,83,95,194611
1.9355,0.4301,39.3200,83,95,194614
1.9355,0.4350,39.3800,83,95,194617
1.9550,0.4399,39.3800,83,95,194621
2.0137,0.4448,39.3200,83,95,194624
2.0039,0.4350,39.3500,83,95,194627
2.0332,0.4350,39.2800,83,95,194630
1.9990,0.4350,39.3800,83,95,194634
1.9892,0.4350,39.4100,83,95,194637
2.0137,0.4545,39.3200,83,95,194640
1.9844,0.4350,39.3800,83,95,194644
2.0235,0.4399,39.2200,83,95,194648
1.9990,0.4350,39.2800,83,95,194651
1.9990,0.4350,39.3800,83,95,194655
2.0235,0.4448,39.2800,83,95,194658
2.0235,0.4399,39.4100,83,95,194661
2.0723,0.4399,39.1900,83,95,194664
2.0430,0.4350,39.3200,83,95,194668
2.0137,0.4301,39.3800,83,95,194671
1.9892,0.4399,39.3200,83,95,194674
1.9404,0.4350,39.3800,83,95,194678
1.9697,0.4448,39.0900,83,95,194681
1.9257,0.4301,39.3500,83,95,194684
1.9257,0.4301,39.4100,83,95,194689
1.9159,0.4399,39.3500,83,95,194692
1.8768,0.4252,39.3800,83,95,194695
1.9013,0.4497,39.0300,83,95,194699
1.8622,0.4448,39.3200,83,95,194702
1.8426,0.4301,39.3800,83,95,194705
1.8573,0.4350,39.3800,83,95,194708
1.8328,0.4301,39.4100,83,95,194712
1.8671,0.4545,39.1900,83,95,194715
1.8231,0.4399,39.3200,83,95,194718
1.8280,0.4350,39.3200,83,95,194722
1.8328,0.4301,39.4400,83,95,194725
1.8426,0.4301,39.3800,83,95,194728
1.8671,0.4448,39.2500,83,95,194733
1.8377,0.4252,39.3800,83,95,194736
1.8475,0.4399,39.2500,83,95,194739
1.8280,0.4448,39.4100,83,95,194743
1.8475,0.4350,39.3800,83,95,194746
1.8719,0.4350,39.3800,83,95,194749
1.8524,0.4350,39.3800,83,95,194752
1.8719,0.4252,39.2800,83,95,194756
1.8280,0.4350,39.3800,83,95,194759
1.8280,0.4301,39.4100,83,95,194762
1.8328,0.4399,39.2800,83,95,194766
1.7791,0.4252,39.3800,83,95,194769
1.7546,0.4399,39.4100,83,95,194772
1.6764,0.4448,39.2800,83,95,194777
1.5982,0.4350,39.4100,83,95,194780
1.5836,0.4399,39.3200,83,95,194783
1.5885,0.4350,39.4100,83,95,194787
1.7204,0.4448,39.2800,83,95,194790
1.8622,0.4399,39.2500,83,95,194793
2.0821,0.4350,39.4100,83,95,194796
2.3460,0.4350,39.2800,83,95,194800
2.5073,0.4399,39.3800,83,95,194803
2.6442,0.4594,39.1200,83,95,194806
2.4829,0.4399,39.3800,83,95,194810
2.3705,0.4399,39.3200,83,95,194813
2.2776,0.4350,39.3800,83,95,194817
2.1750,0.4350,39.3800,83,95,194821
2.1212,0.4448,39.2500,83,95,194824
1.9795,0.4350,39.3800,83,95,194827
1.9062,0.4301,39.3200,83,95,194831
1.8133,0.4350,39.4400,83,95,194834
1.7498,0.4301,39.4400,83,95,194837
1.7400,0.4448,39.2200,83,95,194840
1.7009,0.4399,39.3800,83,95,194844
1.7449,0.4399,39.2500,83,95,194847
1.6911,0.4301,39.3800,83,95,194850
1.6911,0.4399,39.3800,83,95,194854
1.7058,0.4399,39.2500,83,95,194857
1.6911,0.4350,39.3500,83,95,194861
1.7253,0.4399,39.2200,83,95,194865
1.7302,0.4692,39.3500,83,95,194868
1.7351,0.4301,39.3500,83,95,194871
1.7498,0.4448,39.3200,83,95,194875
1.7302,0.4399,39.4400,83,95,194878
1.7791,0.4252,39.1600,83,95,194881
1.7595,0.4301,39.2800,83,95,194885
1.7742,0.4301,39.3800,83,95,194888
1.7791,0.4350,39.3800,83,95,194891
1.7595,0.4350,39.3800,83,95,194894
1.8133,0.4497,39.1200,83,95,194898
1.7791,0.4790,39.3500,83,95,194902
1.7986,0.4301,39.3500,83,95,194905
1.8133,0.4692,39.3500,83,95,194909
1.8133,0.4350,39.3800,83,95,194912
1.8573,0.4448,39.3200,83,95,194915
1.8280,0.4399,39.3500,83,95,194919
1.8426,0.4350,39.3200,83,95,194922
1.8475,0.4399,39.3800,83,95,194925
1.8573,0.4252,39.4100,83,95,194929
1.8719,0.4448,39.2500,83,95,194932
1.8475,0.4350,39.3800,83,95,194935
1.8573,0.4399,39.2500,83,95,194938
1.8377,0.4497,39.3800,83,95,194942
1.8524,0.4301,39.4100,83,95,194946
1.8768,0.4350,39.2800,83,95,194949
1.8622,0.4301,39.4100,83,95,194953
1.8719,0.4399,39.2500,83,95,194956
1.8377,0.4399,39.3800,83,95,194959
1.8426,0.4350,39.4100,83,95,194963
1.8719,0.4448,39.3500,83,95,194966
1.8573,0.4301,39.4100,83,95,194969
1.8768,0.4448,39.1200,83,95,194973
1.8426,0.4399,39.3200,83,95,194976
1.8231,0.4350,39.3800,83,95,194979
1.8475,0.4350,39.3200,83,95,194983
1.8426,0.4350,39.4100,83,95,194987
1.8866,0.4448,39.1200,83,95,194990
1.8475,0.4350,39.2500,83,95,194993
1.8133,0.4301,39.3800,83,95,194997
1.8133,0.4594,39.3500,83,95,195000
1.8182,0.4350,39.3500,83,95,195003
1.8817,0.4545,39.5100,83,95,195007
1.8426,0.4350,39.3500,83,95,195010
1.8280,0.4350,39.4800,83,95,195013
1.8035,0.4448,39.3800,83,95,195017
1.7986,0.4350,39.4800,83,95,195020
1.8328,0.4448,39.2800,83,95,195023
1.8182,0.4350,39.3800,83,95,195027
1.8426,0.4399,39.2500,83,95,195031
1.8377,0.4301,39.3800,83,95,195034
1.8035,0.4252,39.4100,83,95,195037
1.8377,0.4448,39.2200,83,95,195041
1.8231,0.4350,39.3800,83,95,195044
1.8622,0.4399,39.6400,83,95,195047
1.8573,0.4350,39.3200,83,95,195051
1.8328,0.4350,39.3800,83,95,195054
1.8719,0.4350,39.2500,83,95,195057
1.8426,0.4350,39.3800,83,95,195061
1.8915,0.4399,39.1900,83,95,195064
1.8866,0.4497,39.3200,83,95,195067
1.8915,0.4301,39.4100,83,95,195072
1.9110,0.4399,39.2800,83,95,195075
1.8964,0.4252,39.3800,83,95,195078
1.9501,0.4448,39.1900,83,95,195081
1.9306,0.4399,39.3200,83,95,195085
1.9404,0.4301,39.4400,83,95,195088
1.9501,0.4350,39.3200,83,95,195091
1.9306,0.4350,39.3800,83,95,195095
1.9746,0.4545,39.0900,83,95,195098
1.9404,0.4399,39.2800,83,95,195101
1.9404,0.4301,39.3500,83,95,195105
1.9453,0.4350,39.3800,83,95,195108
1.9355,0.4301,39.3800,83,95,195111
1.9648,0.4448,39.1900,83,95,195116
1.9257,0.4350,39.3500,83,95,195119
1.9257,0.4350,39.3500,83,95,195122
1.9110,0.4301,39.3800,83,95,195125
1.9159,0.4301,39.3800,83,95,195129
1.9355,0.4497,39.2800,83,95,195132
1.9257,0.4350,39.3800,83,95,195135
1.9257,0.4448,39.2500,83,95,195139
1.9013,0.4594,39.3800,83,95,195142
1.9013,0.4252,39.3800,83,95,195145
1.9257,0.4350,39.2800,83,95,195149
1.9159,0.4350,39.3800,83,95,195152
1.9159,0.4399,39.2200,83,95,195155
1.9013,0.4399,39.3800,83,95,195160
1.8768,0.4252,39.4100,83,95,195163
1.9062,0.4594,39.2800,83,95,195166
1.8915,0.4301,39.3800,83,95,195170
1.9257,0.4448,39.0900,83,95,195173
1.8866,0.4399,39.3200,83,95,195176
1.8622,0.4252,39.3800,83,95,195179
1.8817,0.4497,39.3500,83,95,195183
1.8768,0.4252,39.3800,83,95,195186
1.9257,0.4497,38.4600,83,95,195189
1.8817,0.4448,39.2800,83,95,195193
1.8524,0.4301,39.2800,83,95,195196
1.8524,0.4399,39.3800,83,95,195200
1.8573,0.4252,39.3800,83,95,195204
1.9257,0.4545,38.4900,83,95,195207
1.8817,0.4301,39.3200,83,95,195210
1.8671,0.4350,39.3200,83,95,195214
1.8426,0.4350,39.4100,83,95,195217
1.8426,0.4448,39.4100,83,95,195221
1.8426,0.4350,39.4100,83,95,195224
1.8622,0.4448,39.2800,83,95,195227
1.8524,0.4301,39.4100,83,95,195230
1.8817,0.4399,39.1900,83,95,195234
1.8671,0.4643,39.3200,83,95,195237
1.8377,0.4350,39.4100,83,95,195240
1.8426,0.4545,39.3200,83,95,195245
1.8084,0.4350,39.3800,83,95,195248
1.8671,0.4448,39.1900,83,95,195251
1.8475,0.4399,39.2500,83,95,195255
1.8426,0.4350,39.4100,83,95,195258
1.8426,0.4399,39.3200,83,95,195261
1.8426,0.4350,39.3800,83,95,195265
1.8719,0.4545,39.1200,83,95,195268
1.8768,0.4399,39.3200,83,95,195271
1.8377,0.4252,39.3500,83,95,195275
1.8377,0.4350,39.3800,83,95,195278
1.8133,0.4301,39.4100,83,95,195281
1.8573,0.4545,39.2200,83,95,195284
1.8231,0.4350,39.3800,83,95,195289
1.8377,0.4350,39.4400,83,95,195292
1.8231,0.4350,39.3800,83,95,195295
1.8133,0.4301,39.3500,83,95,195299
1.8377,0.4448,39.2200,83,95,195302
1.7937,0.4350,39.3500,83,95,195305
1.8231,0.4399,39.2500,83,95,195309
1.8182,0.4252,39.3200,83,95,195312
1.8328,0.4350,39.3500,83,95,195315
1.8475,0.4399,39.2500,83,95,195319
1.8182,0.4448,39.3800,83,95,195322
1.8426,0.4399,39.2200,83,95,195325
1.8377,0.4350,39.3200,83,95,195330
1.8817,0.4350,39.3800,83,95,195333
1.8915,0.4399,39.3200,83,95,195336
1.8817,0.4399,39.4100,83,95,195339
1.9062,0.4448,39.1600,83,95,195343
1.8768,0.4692,39.3800,83,95,195346
1.8866,0.4301,39.4100,83,95,195349
1.9062,0.4399,39.3500,83,95,195353
1.8866,0.4301,39.3800,83,95,195356
1.9257,0.4497,39.1200,83,95,195359
1.8719,0.4448,39.3200,83,95,195363
1.8573,0.4301,39.3500,83,95,195366
1.8768,0.4301,39.3800,83,95,195369
1.9013,0.4301,39.3800,83,95,195374
1.9550,0.4448,39.2800,83,95,195377
1.9306,0.4399,39.3500,83,95,195380
1.9062,0.4350,39.2800,83,95,195383
1.8671,0.4350,39.5700,83,95,195387
1.8426,0.4545,39.3800,83,95,195390
1.8622,0.4399,39.2500,83,95,195393
1.8231,0.4497,39.3500,83,95,195397
1.8231,0.4399,39.2800,83,95,195400
1.7791,0.4839,39.3500,83,95,195403
1.7644,0.4350,39.3800,83,95,195407
1.7693,0.4350,39.2800,83,95,195410
1.7595,0.4350,39.3800,83,95,195414
1.7889,0.4350,39.2200,83,95,195418
1.7400,0.4399,39.4100,83,95,195421
1.7351,0.4350,39.4100,83,95,195424
1.7546,0.4399,39.2200,83,95,195428
1.7449,0.4301,39.4100,83,95,195431
1.7937,0.4448,39.1900,83,95,195434
1.7693,0.4252,39.2800,83,95,195437
1.7400,0.4350,39.4100,83,95,195441
1.7498,0.4497,39.3200,83,95,195444
1.7253,0.4350,39.4100,83,95,195447
1.7986,0.4497,39.1200,83,95,195451
1.7889,0.4399,39.2800,83,95,195454
1.7742,0.4301,39.3800,83,95,195458
1.7693,0.4399,39.3500,83,95,195462
1.7595,0.4350,39.3800,83,95,195465
1.8133,0.4545,39.2500,83,95,195468
1.8182,0.4350,39.3200,83,95,195472
1.7937,0.4350,39.3500,83,95,195475
1.7791,0.4399,39.3800,83,95,195478
1.7449,0.4350,39.4100,83,95,195481
1.7400,0.4692,39.3200,83,95,195485
1.6960,0.4350,39.3800,83,95,195488
1.6862,0.4399,39.2500,83,95,195491
1.6178,0.4399,39.4100,83,95,195495
1.5640,0.4301,39.4100,83,95,195499
1.5543,0.4448,39.4800,83,95,195502
1.5738,0.4350,39.3800,83,95,195506
1.7204,0.4399,39.2500,83,95,195509
1.9453,0.4350,39.2800,83,95,195512
2.1750,0.4301,39.3200,83,95,195516
2.4194,0.4252,39.2500,83,95,195519
2.4878,0.4350,39.4800,83,95,195522
2.4927,0.4545,39.1900,83,95,195526
2.3851,0.4350,39.3200,83,95,195529
2.3021,0.4301,39.4100,83,95,195532
2.2336,0.4350,39.3500,83,95,195535
2.0870,0.4301,39.4800,83,95,195539
1.9941,0.4448,39.1600,83,95,195543
1.8475,0.4350,39.3200,83,95,195546
1.7742,0.4350,39.4100,83,95,195550
1.7253,0.4252,39.3800,83,95,195553
1.6813,0.4301,39.4100,83,95,195556
1.7009,0.4545,39.1600,83,95,195560
1.6373,0.4350,39.3500,83,95,195563
1.6178,0.4301,39.2800,83,95,195566
1.6276,0.4350,39.3800,83,95,195570
1.6471,0.4301,39.3500,83,95,195573
1.6960,0.4497,39.1900,83,95,195576
1.6716,0.4350,39.2200,83,95,195579
1.6813,0.4301,39.2800,83,95,195584
1.6667,0.4350,39.4100,83,95,195587
1.6813,0.4301,39.4800,83,95,195590
1.7155,0.4350,39.2500,83,95,195594
1.7009,0.4350,39.3800,83,95,195597
1.7204,0.4448,39.2200,83,95,195600
1.6862,0.4301,39.3500,83,95,195604
1.6960,0.4350,39.3800,83,95,195607
1.7204,0.4350,39.2800,83,95,195610
1.7595,0.4350,39.4400,83,95,195614
1.7644,0.4350,39.2200,83,95,195617
1.7400,0.4301,39.3800,83,95,195620
1.7449,0.4252,39.4400,83,95,195623
1.7644,0.4399,39.3200,83,95,195628
1.7644,0.4350,39.3800,83,95,195631
1.8133,0.4448,39.2500,83,95,195634
1.7889,0.4448,39.3200,83,95,195638
1.7644,0.4350,39.3800,83,95,195641
1.7742,0.4399,39.3500,83,95,195644
1.7644,0.4350,39.3800,83,95,195648
1.8231,0.4497,39.1200,83,95,195651
1.8035,0.4448,39.2800,83,95,195654
1.7840,0.4301,39.3500,83,95,195658
1.7742,0.4399,39.3800,83,95,195661
1.7644,0.4350,39.4100,83,95,195664
1.8133,0.4545,39.1900,83,95,195667
1.7937,0.4252,39.3500,83,95,195672
1.8084,0.4350,39.2800,83,95,195675
1.7937,0.4350,39.3800,83,95,195678
1.7791,0.4350,39.3800,83,95,195682
1.7937,0.4497,39.2500,83,95,195685
1.7791,0.4399,39.3800,83,95,195688
1.8084,0.4399,39.2800,83,95,195692
1.8084,0.4301,39.3800,83,95,195695
1.7937,0.4252,39.3800,83,95,195698
1.8084,0.4448,39.1900,83,95,195702
1.7791,0.4350,39.3800,83,95,195705
1.8084,0.4350,39.3800,83,95,195708
1.7937,0.4545,39.3800,83,95,195712
1.7889,0.4301,39.3800,83,95,195716
1.7937,0.4643,39.2500,83,95,195719
1.7595,0.4301,39.4100,83,95,195722
1.7840,0.4399,39.1900,83,95,195726
1.8035,0.4301,39.3200,83,95,195729
1.7791,0.4301,39.4100,83,95,195732
1.7986,0.4497,39.3200,83,95,195736
1.7840,0.4399,39.3800,83,95,195739
1.8035,0.4448,39.1900,83,95,195742
1.7742,0.4448,39.3200,83,95,195746
1.7791,0.4301,39.4100,83,95,195749
1.8035,0.4448,39.4400,83,95,195752
1.7986,0.4301,39.3800,83,95,195757
1.8524,0.4545,39.1600,83,95,195760
1.7986,0.4399,39.3500,83,95,195763
1.7889,0.4350,39.3800,83,95,195766
1.7937,0.4399,39.3200,83,95,195770
1.8133,0.4301,39.4100,83,95,195773
1.8671,0.4448,39.2200,83,95,195776
1.8475,0.4350,39.4400,83,95,195780
1.8671,0.4399,39.2500,83,95,195783
1.8622,0.4350,39.3800,83,95,195786
1.8817,0.4350,39.3800,83,95,195790
1.9355,0.4448,39.3200,83,95,195793
1.9159,0.4350,39.4400,83,95,195796
1.9453,0.4399,39.2800,83,95,195801
1.9159,0.4350,39.3500,83,95,195804
1.9257,0.4350,39.3800,83,95,195807
1.9550,0.4350,39.3200,83,95,195811
1.9550,0.4350,39.3800,83,95,195814
1.9892,0.4301,39.1600,83,95,195817
1.9501,0.4301,39.3500,83,95,195820
1.9453,0.4350,39.3800,83,95,195824
1.9697,0.4448,39.2800,83,95,195827
1.9110,0.4350,39.3500,83,95,195831
1.9110,0.4350,39.3800,83,95,195834
1.9746,0.4545,39.2200,83,95,195837
1.9404,0.4301,39.3800,83,95,195842
1.9257,0.4399,39.3200,83,95,195845
1.9013,0.4350,39.3800,83,95,195848
1.8915,0.4350,39.3500,83,95,195852
1.9208,0.4448,39.2500,83,95,195855
1.9013,0.4350,39.3500,83,95,195858
1.9257,0.4350,39.2500,83,95,195862
1.8915,0.4350,39.3800,83,95,195865
1.8817,0.4350,39.4100,83,95,195868
1.8817,0.4301,39.3500,83,95,195871
1.8768,0.4350,39.4400,83,95,195875
1.9013,0.4350,39.2800,83,95,195878
1.8671,0.4350,39.3800,83,95,195881
1.8573,0.4252,39.4100,83,95,195886
1.8768,0.4399,39.2500,83,95,195889
1.8573,0.4350,39.3800,83,95,195892
1.9062,0.4448,39.1900,83,95,195896
1.8964,0.4399,39.2800,83,95,195899
1.8768,0.4301,39.3800,83,95,195902
1.8866,0.4448,39.3200,83,95,195906
1.8426,0.4350,39.3200,83,95,195909
1.8866,0.4545,39.1900,83,95,195912
1.8671,0.4399,39.2500,83,95,195916
1.8622,0.4301,39.3800,83,95,195919
1.8768,0.4350,39.3500,83,95,195922
1.8622,0.4301,39.2500,83,95,195926
1.9159,0.4448,39.1900,83,95,195930
1.8622,0.4643,39.3500,83,95,195933
1.8622,0.4350,39.3200,83,95,195936
1.8671,0.4350,39.4100,83,95,195940
1.8622,0.4350,39.3200,83,95,195943
1.8768,0.4448,39.2800,83,95,195946
1.8524,0.4301,39.3500,83,95,195950
1.8475,0.4399,39.2500,83,95,195953
1.8280,0.4643,39.3500,83,95,195956
1.8426,0.4301,39.3800,83,95,195960
1.8671,0.4448,39.3500,83,95,195963
1.8280,0.4350,39.3800,83,95,195966
1.8475,0.4399,39.2800,83,95,195971
1.8231,0.4594,39.2800,83,95,195974
1.8280,0.4252,39.3500,83,95,195977
1.8524,0.4399,39.2500,83,95,195980
1.8426,0.4301,39.3500,83,95,195984
1.8573,0.4399,39.2500,83,95,195987
1.8377,0.4350,39.3200,83,95,195990
1.8231,0.4350,39.3800,83,95,195994
1.8573,0.4350,39.3200,83,95,195997
1.8426,0.4301,39.4100,83,95,196000
1.8866,0.4448,39.0600,83,95,196004
1.8280,0.4252,39.3200,83,95,196007
1.8133,0.4350,39.3800,83,95,196011
1.8231,0.4301,39.3500,83,95,196015
1.8280,0.4301,39.3800,83,95,196018
1.8866,0.4545,39.1600,83,95,196021
1.8475,0.4350,39.3500,83,95,196024
1.8280,0.4301,39.3500,83,95,196028
1.8280,0.4350,39.3800,83,95,196031
1.8280,0.4350,39.3800,83,95,196034
1.8817,0.4448,39.2200,83,95,196038
1.8671,0.4350,39.3500,83,95,196041
1.8768,0.4350,39.4800,83,95,196044
1.8719,0.4301,39.3800,83,95,196048
1.8622,0.4252,39.3800,83,95,196051
1.9159,0.4350,39.2200,83,95,196055
1.9110,0.4399,39.3800,83,95,196059
1.9404,0.4448,39.2800,83,95,196062
1.9013,0.4301,39.3500,83,95,196065
1.8866,0.4350,39.4100,83,95,196068
1.8915,0.4350,39.3800,83,95,196072
1.8866,0.4350,39.3800,83,95,196075
1.9208,0.4350,39.2500,83,95,196078
1.9013,0.4350,39.4100,83,95,196082
1.9062,0.4399,39.4100,83,95,196085
1.9306,0.4350,39.2800,83,95,196088
1.9208,0.4350,39.3500,83,95,196092
1.9795,0.4497,39.1900,83,95,196096
1.9697,0.4399,39.3200,83,95,196099
1.9306,0.4301,39.4100,83,95,196103
1.9110,0.4399,39.3200,83,95,196106
1.8475,0.4301,39.4400,83,95,196109
1.8768,0.4497,39.0900,83,95,196112
1.8426,0.4399,39.2500,83,95,196116
1.8280,0.4301,39.3500,83,95,196119
1.8377,0.4399,39.3800,83,95,196122
1.7889,0.4301,39.3800,83,95,196126
1.8182,0.4545,39.2500,83,95,196129
1.7742,0.4399,39.3800,83,95,196132
1.7742,0.4350,39.2800,83,95,196136
1.7840,0.4350,39.3800,83,95,196140
1.7693,0.4301,39.4100,83,95,196143
1.7889,0.4448,39.2800,83,95,196147
1.7546,0.4252,39.3500,83,95,196150
1.7644,0.4399,39.6000,83,95,196153
1.7595,0.4350,39.3800,83,95,196156
1.7742,0.4301,39.3800,83,95,196160
1.8084,0.4448,39.2200,83,95,196163
1.7791,0.4350,39.3800,83,95,196166
1.7986,0.4399,38.4900,83,95,196170
1.7742,0.4692,39.3200,83,95,196173
1.7840,0.4350,39.3800,83,95,196176
1.8182,0.4643,39.2200,83,95,196180
1.8133,0.4350,39.3800,83,95,196184
1.8280,0.4399,39.1600,83,95,196187
1.7937,0.4350,39.3500,83,95,196191
1.7840,0.4350,39.3800,83,95,196194
1.7937,0.4399,39.2800,83,95,196197
1.7595,0.4399,39.3800,83,95,196200
1.7742,0.4252,39.1600,83,95,196204
1.6862,0.4643,39.3200,83,95,196207
1.6227,0.4350,39.4100,83,95,196210
1.5738,0.4350,39.3500,83,95,196214
1.5494,0.4252,39.4100,83,95,196217
1.6520,0.4545,39.1600,83,95,196220
1.7449,0.4350,39.3500,83,95,196225
1.9355,0.4301,39.3500,83,95,196228
2.1945,0.4350,39.3800,83,95,196231
2.4389,0.4350,39.3800,83,95,196235
2.6197,0.4448,39.1900,83,95,196238
2.5709,0.4350,39.3500,83,95,196241
2.4976,0.4350,39.2800,83,95,196245
2.3754,0.4399,39.3800,83,95,196248
2.2727,0.4350,39.3800,83,95,196251
2.1896,0.4448,39.3200,83,95,196254
2.0528,0.4350,39.3800,83,95,196258
1.9941,0.4448,39.2500,83,95,196261
1.8719,0.4301,39.3500,83,95,196264
1.8084,0.4301,39.4400,83,95,196269
1.7546,0.4350,39.3200,83,95,196272
1.7253,0.4399,39.3800,83,95,196275
1.7644,0.4350,39.2200,83,95,196279
1.7302,0.4692,39.4100,83,95,196282
1.7302,0.4350,39.4100,83,95,196285
1.7498,0.4399,39.3200,83,95,196289
1.7400,0.4350,39.3800,83,95,196292
1.7937,0.4448,39.1600,83,95,196295
1.7937,0.4448,39.2800,83,95,196298
1.7889,0.4301,39.3800,83,95,196302
1.8035,0.4643,39.2800,83,95,196305
1.7840,0.4301,39.3800,83,95,196308
1.8231,0.4497,39.0900,83,95,196313
1.8084,0.4497,39.3200,83,95,196316
1.8182,0.4252,39.3500,83,95,196319
1.8328,0.4350,39.3800,83,95,196323
1.8622,0.4399,39.3800,83,95,196326
1.8817,0.4545,39.3500,83,95,196329
1.8475,0.4350,39.3500,83,95,196333
1.8622,0.4252,39.2800,83,95,196336
1.8768,0.4350,39.3800,83,95,196339
1.8817,0.4301,39.3800,83,95,196342
1.9013,0.4448,39.4100,83,95,196346
1.8671,0.4399,39.3800,83,95,196349
1.8866,0.4448,39.2500,83,95,196353
1.8768,0.4399,39.3800,83,95,196357
1.8964,0.4301,39.3800,83,95,196360
1.9257,0.4448,39.2800,83,95,196363
1.8866,0.4350,39.4100,83,95,196367
1.9013,0.4350,39.2800,83,95,196370
1.8768,0.4399,39.2800,83,95,196373
1.8817,0.4301,39.4100,83,95,196377
1.9110,0.4399,39.2500,83,95,196380
1.8866,0.4350,39.4400,83,95,196383
1.9110,0.4448,39.1900,83,95,196386
1.8719,0.4301,39.3800,83,95,196390
1.8671,0.4350,39.4100,83,95,196393
1.8915,0.4399,39.3500,83,95,196397
1.8866,0.4350,39.3500,83,95,196401
1.9306,0.4497,39.1200,83,95,196404
1.8817,0.4350,39.2800,83,95,196407
1.8768,0.4301,39.3800,83,95,196411
1.8671,0.4350,39.4100,83,95,196414
1.8964,0.4301,39.4100,83,95,196417
1.9355,0.4545,39.1600,83,95,196421
1.8866,0.4301,39.3500,83,95,196424
1.8671,0.4350,39.3200,83,95,196427
1.8524,0.4399,39.4400,83,95,196431
1.8524,0.4301,39.3800,83,95,196434
1.8964,0.4497,39.1900,83,95,196438
1.8573,0.4399,39.2800,83,95,196442
1.8573,0.4350,39.3800,83,95,196445
1.8817,0.4350,39.2500,83,95,196448
1.8524,0.4399,39.3200,83,95,196452
1.8328,0.4301,39.3800,83,95,196455
1.8475,0.4399,39.1600,83,95,196458
1.8426,0.4350,39.3800,83,95,196462
1.9013,0.4399,39.1900,83,95,196465
1.8768,0.4252,39.3500,83,95,196468
1.8768,0.4301,39.3800,83,95,196472
1.8866,0.4399,39.2200,83,95,196475
1.8768,0.4252,39.3800,83,95,196478
1.9501,0.4497,39.1200,83,95,196483
1.9746,0.4399,39.3200,83,95,196486
1.9355,0.4301,39.3800,83,95,196489
1.9501,0.4350,39.3800,83,95,196493
1.9404,0.4252,39.3800,83,95,196496
2.0088,0.4545,39.2200,83,95,196499
1.9892,0.4350,39.3500,83,95,196502
2.0039,0.4350,39.2800,83,95,196506
1.9990,0.4350,39.2800,83,95,196509
1.9892,0.4350,39.4100,83,95,196512
2.0137,0.4497,39.2500,83,95,196516
1.9844,0.4350,38.5500,83,95,196519
2.0137,0.4497,39.2500,83,95,196523
2.0088,0.4350,39.4100,83,95,196527
2.0039,0.4301,39.3200,83,95,196530
2.0088,0.4741,39.3200,83,95,196533
1.9844,0.4301,39.4400,83,95,196536
2.0039,0.4448,39.3200,83,95,196540
1.9844,0.4301,39.3800,83,95,196543
1.9941,0.4350,39.3800,83,95,196546
2.0137,0.4448,39.2500,83,95,196550
1.9844,0.4350,39.3800,83,95,196553
1.9746,0.4399,39.2200,83,95,196556
1.9550,0.4350,39.2800,83,95,196560
1.9404,0.4301,39.3800,83,95,196563
1.9746,0.4399,39.2800,83,95,196567
1.9453,0.4350,39.3800,83,95,196571
1.9697,0.4448,39.0900,83,95,196574
1.9501,0.4350,39.2800,83,95,196577
1.9208,0.4350,39.3800,83,95,196580
1.9404,0.4350,39.3500,83,95,196584
1.9355,0.4399,39.4400,83,95,196587
1.9892,0.4497,39.1200,83,95,196590
1.9257,0.4350,39.3200,83,95,196594
1.9159,0.4301,39.3500,83,95,196597
1.9208,0.4399,39.3500,83,95,196600
1.9257,0.4252,39.4100,83,95,196604
1.9746,0.4497,39.2200,83,95,196608
1.9257,0.4399,39.3500,83,95,196611
1.9208,0.4399,39.2800,83,95,196615
1.9062,0.4350,39.3800,83,95,196618
1.9013,0.4350,39.4100,83,95,196621
1.9355,0.4399,39.2200,83,95,196624
1.9208,0.4252,39.3800,83,95,196628
1.9306,0.4399,39.3500,83,95,196631
1.8915,0.4203,39.3500,83,95,196634
1.8915,0.4350,39.3800,83,95,196638
1.9208,0.4301,39.2800,83,95,196641
1.9110,0.4350,39.3800,83,95,196644
1.9453,0.4350,39.2500,83,95,196648
1.9062,0.4594,39.3500,83,95,196652
1.9208,0.4301,39.3800,83,95,196655
1.8866,0.4399,39.3500,83,95,196659
1.8768,0.4399,39.3800,83,95,196662
1.9501,0.4399,39.1600,83,95,196665
1.8817,0.4301,39.3800,83,95,196668
1.8866,0.4301,39.4400,83,95,196672
1.8719,0.4399,39.3500,83,95,196675
1.8524,0.4350,39.4400,83,95,196678
1.9110,0.4497,39.1200,83,95,196682
1.8866,0.4399,39.2800,83,95,196685
1.8915,0.4350,39.3800,83,95,196688
1.8719,0.4350,39.3800,83,95,196692
1.8524,0.4301,39.4100,83,95,196696
1.9159,0.4545,39.1900,83,95,196699
1.8964,0.4350,39.3800,83,95,196703
1.9110,0.4301,39.3200,83,95,196706
1.9013,0.4350,39.5400,83,95,196709
1.8915,0.4350,39.3800,83,95,196712
1.9159,0.4448,39.2500,83,95,196716
1.8866,0.4350,38.8700,83,95,196719
1.9208,0.4399,39.2800,83,95,196722
1.9159,0.4350,39.3800,83,95,196726
1.9159,0.4301,39.4100,83,95,196729
1.9257,0.4399,39.3500,83,95,196732
1.9013,0.4350,39.3500,83,95,196737
1.9257,0.4448,39.2800,83,95,196740
1.9110,0.4350,39.3800,83,95,196743
1.9306,0.4301,39.2200,83,95,196747
1.9941,0.4399,39.2800,83,95,196750
1.9257,0.4350,39.5100,83,95,196753
1.9501,0.4497,39.2200,83,95,196756
1.9501,0.4399,39.2800,83,95,196760
1.9648,0.4301,39.2800,83,95,196763
2.0137,0.4252,39.2800,83,95,196766
2.0039,0.4301,39.3800,83,95,196770
2.0430,0.4448,38.5200,83,95,196773
2.0039,0.4399,39.3200,83,95,196776
1.9941,0.4252,39.4100,83,95,196781
2.0283,0.4399,39.4100,83,95,196784
2.0186,0.4350,39.3800,83,95,196787
2.0626,0.4497,39.0900,83,95,196790
2.0088,0.4399,39.3200,83,95,196794
1.9941,0.4301,39.7000,83,95,196797
2.0137,0.4399,39.4100,83,95,196800
2.0332,0.4301,39.4400,83,95,196804
2.1114,0.4545,39.1600,83,95,196807
2.0626,0.4399,39.3500,83,95,196810
2.0528,0.4252,39.3200,83,95,196814
2.0186,0.4545,39.3800,83,95,196817
1.9892,0.4350,39.3800,83,95,196820
2.0039,0.4448,39.3200,83,95,196825
1.9599,0.4399,39.4400,83,95,196828
1.9550,0.4399,39.2800,83,95,196831
1.9062,0.4350,39.4100,83,95,196834
1.8866,0.4350,39.3800,83,95,196838
1.9062,0.4448,39.2800,83,95,196841
1.8866,0.4350,39.3500,83,95,196844
1.9062,0.4448,39.2800,83,95,196848
1.8622,0.4301,39.3500,83,95,196851
1.8475,0.4350,39.3800,83,95,196854
1.8475,0.4399,39.2800,83,95,196858
1.8377,0.4350,39.2800,83,95,196861
1.8719,0.4692,39.1900,83,95,196865
1.8524,0.4301,39.4400,83,95,196869
1.8426,0.4350,39.3800,83,95,196872
1.8426,0.4399,39.3500,83,95,196875
1.8182,0.4350,39.3500,83,95,196878
1.8866,0.4497,39.1900,83,95,196882
1.8573,0.4399,39.3500,83,95,196885
1.8475,0.4301,39.4100,83,95,196888
1.8573,0.4399,39.3500,83,95,196892
1.8280,0.4350,39.4100,83,95,196895
1.8768,0.4545,39.1200,83,95,196898
1.8573,0.4448,39.2800,83,95,196902
1.8671,0.4301,39.3500,83,95,196905
1.8475,0.4350,39.3800,83,95,196909
1.8133,0.4448,39.3500,83,95,196913
1.8035,0.4252,39.2500,83,95,196916
1.7253,0.4350,39.3800,83,95,196919
1.6960,0.4301,39.3200,83,95,196922
1.6227,0.4350,39.3800,83,95,196926
1.5689,0.4301,39.3800,83,95,196929
1.5836,0.4399,39.3200,83,95,196932
1.6227,0.4350,39.4100,83,95,196936
1.7986,0.4448,39.2500,83,95,196939
2.0235,0.4350,39.3800,83,95,196942
2.3069,0.4399,39.4100,83,95,196946
2.5464,0.4448,39.2800,83,95,196950
2.5464,0.4350,39.3800,83,95,196953
2.5367,0.4350,39.2500,83,95,196957
2.3949,0.4399,39.2800,83,95,196960
2.3118,0.4301,39.3800,83,95,196963
2.2581,0.4399,39.2500,83,95,196967
2.1212,0.4301,39.3500,83,95,196970
2.0430,0.4497,39.1600,83,95,196973
1.9110,0.4350,39.2800,83,95,196976
1.8280,0.4350,39.3800,83,95,196980
1.7889,0.4350,39.3500,83,95,196983
1.7400,0.4350,39.4400,83,95,196986
1.7546,0.4448,39.1600,83,95,196990
1.6960,0.4399,39.3200,83,95,196994
1.6862,0.4301,39.6000,83,95,196997
1.6911,0.4350,39.3800,83,95,197001
1.6960,0.4350,39.3800,83,95,197004
1.7546,0.4545,39.1900,83,95,197007
1.7155,0.4301,39.4400,83,95,197010
1.6960,0.4350,39.3200,83,95,197014
1.7107,0.4350,39.3500,83,95,197017
1.7058,0.4350,39.4100,83,95,197020
1.7595,0.4448,39.1900,83,95,197024
1.7498,0.4350,39.3500,83,95,197027
1.7644,0.4399,39.2500,83,95,197030
1.7400,0.4350,39.3800,83,95,197035
1.7302,0.4252,39.3800,83,95,197038
1.7644,0.4399,39.2800,83,95,197041
1.7889,0.4350,39.3800,83,95,197045
1.7937,0.4448,39.2800,83,95,197048
1.7644,0.4497,39.1600,83,95,197051
1.7742,0.4301,39.3500,83,95,197055
1.7693,0.4301,39.3800,83,95,197058
1.7742,0.4350,39.3500,83,95,197061
1.7595,0.4350,39.3800,83,95,197065
1.8231,0.4497,39.0900,83,95,197068
1.8084,0.4350,39.3500,83,95,197071
1.8084,0.4301,39.3500,83,95,197075
1.8084,0.4399,39.3500,83,95,197079
1.7937,0.4350,39.3800,83,95,197082
1.8426,0.4545,39.1900,83,95,197086
1.8133,0.4399,39.3200,83,95,197089
1.8133,0.4350,39.3200,83,95,197092
1.8133,0.4252,39.3800,83,95,197096
1.7986,0.4350,39.3800,83,95,197099
1.8133,0.4399,39.2500,83,95,197102
1.7937,0.4350,39.3500,83,95,197105
1.8182,0.4350,39.2200,83,95,197109
1.8182,0.4301,39.4400,83,95,197112
1.8182,0.4350,39.3500,83,95,197115
1.8328,0.4350,39.3500,83,95,197120
1.8035,0.4350,39.3800,83,95,197123
1.8328,0.4448,39.2800,83,95,197126
1.8133,0.4399,39.3800,83,95,197130
1.8231,0.4301,39.4100,83,95,197133
1.8426,0.4399,39.3200,83,95,197136
1.8084,0.4350,39.3500,83,95,197140
1.8280,0.4399,39.1600,83,95,197143
1.8182,0.4448,39.2800,83,95,197146
1.8133,0.4301,39.4400,83,95,197150
1.8426,0.4448,39.2800,83,95,197153
1.8133,0.4350,39.4100,83,95,197156
1.8475,0.4448,39.1200,83,95,197159
1.8133,0.4399,39.2500,83,95,197164
1.8133,0.4350,39.4100,83,95,197167
1.8280,0.4399,39.3500,83,95,197170
1.8377,0.4350,39.3800,83,95,197174
1.8866,0.4545,39.1900,83,95,197177
1.8377,0.4448,39.4400,83,95,197180
1.8328,0.4252,39.3200,83,95,197184
1.8377,0.4692,39.3800,83,95,197187
1.8524,0.4301,39.3800,83,95,197190
1.9013,0.4448,39.1900,83,95,197194
1.9062,0.4301,39.3500,83,95,197197
1.8817,0.4350,39.2800,83,95,197200
1.8817,0.4399,39.4400,83,95,197204
1.8915,0.4350,39.3800,83,95,197208
1.9453,0.4643,39.2500,83,95,197211
1.9306,0.4350,39.3800,83,95,197214
1.9648,0.4448,39.2800,83,95,197218
1.9501,0.4350,39.3200,83,95,197221
1.9257,0.4350,39.3800,83,95,197224
1.9453,0.4448,39.2800,83,95,197228
1.9501,0.4350,39.4100,83,95,197231
1.9795,0.4399,38.4000,83,95,197234
1.9648,0.4350,39.3500,83,95,197238
1.9355,0.4252,39.4100,83,95,197241
1.9453,0.4448,39.3800,83,95,197244
1.9355,0.4252,39.4100,83,95,197249
1.9892,0.4448,39.1600,83,95,197252
1.9501,0.4350,39.3200,83,95,197255
1.9306,0.4301,39.5100,83,95,197258
1.9208,0.4350,39.3500,83,95,197262
1.9062,0.4350,39.4100,83,95,197265
1.9697,0.4594,39.1200,83,95,197268
1.9404,0.4399,39.3200,83,95,197272
1.9306,0.4301,39.5400,83,95,197275
1.9110,0.4350,39.3800,83,95,197278
1.9013,0.4252,39.3800,83,95,197282
1.9453,0.4741,39.2200,83,95,197285
1.9159,0.4350,39.4100,83,95,197288
1.9306,0.4692,39.2800,83,95,197293
1.9159,0.4252,39.3800,83,95,197296
1.8964,0.4350,39.3500,83,95,197299
1.9062,0.4252,39.2500,83,95,197303
1.8817,0.4350,39.4100,83,95,197306
1.9110,0.4594,39.2500,83,95,197309
1.8915,0.4301,39.3800,83,95,197312
1.8915,0.4301,39.3500,83,95,197316
1.8915,0.4350,39.3200,83,95,197319
1.8671,0.4350,39.3800,83,95,197322
1.8866,0.4448,39.2200,83,95,197326
1.8719,0.4350,39.3800,83,95,197329
1.8817,0.4301,39.2800,83,95,197332
1.9355,0.4399,39.2800,83,95,197337
1.8622,0.4350,39.5100,83,95,197340
1.8915,0.4545,39.1900,83,95,197343
1.8719,0.4399,39.2800,83,95,197347
1.8622,0.4399,39.4100,83,95,197350
1.8817,0.4399,39.3800,83,95,197353
1.8524,0.4301,39.3800,83,95,197356
1.9062,0.4497,39.1200,83,95,197360
1.8524,0.4448,38.8100,83,95,197363
1.8426,0.4301,39.3500,83,95,197366
1.8524,0.4252,39.3500,83,95,197370
1.8524,0.4301,39.3800,83,95,197373
1.8964,0.4643,39.1900,83,95,197377
1.8426,0.4399,39.3500,83,95,197381
1.8377,0.4497,39.2800,83,95,197384
1.8377,0.4350,39.3800,83,95,197387
1.8426,0.4301,39.3800,83,95,197391
1.8768,0.4252,39.3200,83,95,197394
1.8377,0.4350,39.4100,83,95,197397
1.8377,0.4497,39.2500,83,95,197400
1.8084,0.4350,39.3800,83,95,197404
1.8133,0.4350,39.3800,83,95,197407
1.8622,0.4448,39.2500,83,95,197410
1.8377,0.4350,39.3800,83,95,197414
1.8573,0.4252,39.2800,83,95,197417
1.8182,0.4350,39.2200,83,95,197421
1.8035,0.4301,39.3800,83,95,197425
1.8231,0.4399,39.2200,83,95,197428
1.8182,0.4497,39.3800,83,95,197431
1.8573,0.4399,39.1900,83,95,197435
1.8231,0.4594,39.3200,83,95,197438
1.7986,0.4350,39.3800,83,95,197441
1.8133,0.4448,39.2200,83,95,197445
1.7986,0.4350,39.3800,83,95,197448
1.8622,0.4497,39.1200,83,95,197451
1.8280,0.4350,39.3200,83,95,197454
1.8182,0.4301,39.3200,83,95,197458
1.8084,0.4448,39.3500,83,95,197462
1.7986,0.4350,39.4100,83,95,197465
1.8622,0.4545,39.1600,83,95,197469
1.8377,0.4399,39.3500,83,95,197472
1.8426,0.4350,39.3200,83,95,197475
1.8573,0.4350,39.3500,83,95,197479
1.8524,0.4301,39.3800,83,95,197482
1.9013,0.4448,39.2200,83,95,197485
1.8964,0.4350,39.3500,83,95,197489
1.9208,0.4399,39.3500,83,95,197492
1.8964,0.4203,39.4100,83,95,197495
1.8866,0.4301,39.3800,83,95,197499
1.9013,0.4545,39.2500,83,95,197502
1.8671,0.4350,39.3500,83,95,197506
1.8915,0.4448,39.3200,83,95,197509
1.8671,0.4301,39.3500,83,95,197513
1.8768,0.4301,39.5100,83,95,197516
1.8964,0.4497,39.3200,83,95,197519
1.9062,0.4350,39.3800,83,95,197523
1.9453,0.4448,39.2200,83,95,197526
1.9257,0.4252,39.3800,83,95,197529
1.9110,0.4301,39.2800,83,95,197533
1.8915,0.4399,39.3200,83,95,197536
1.8280,0.4301,39.4100,83,95,197539
1.8328,0.4594,39.1200,83,95,197543
1.7937,0.4399,39.3200,83,95,197547
1.7840,0.4301,39.3500,83,95,197550
1.7889,0.4252,39.3800,83,95,197553
1.7595,0.4301,39.5700,83,95,197557
1.7889,0.4643,39.1900,83,95,197560
1.7449,0.4399,39.3200,83,95,197563
1.7253,0.4301,39.3200,83,95,197567
1.7351,0.4350,39.3800,83,95,197570
1.7449,0.4301,39.3800,83,95,197573
1.7840,0.4448,39.2500,83,95,197577
1.7400,0.4350,39.3800,83,95,197580
1.7449,0.4399,39.2500,83,95,197583
1.7400,0.4350,39.3800,83,95,197587
1.7498,0.4301,39.4100,83,95,197591
1.7840,0.4448,39.3200,83,95,197594
1.7546,0.4350,39.3800,83,95,197598
1.7693,0.4448,39.2800,83,95,197601
1.7546,0.4350,39.3800,83,95,197604
1.7693,0.4350,39.5700,83,95,197607
1.8084,0.4448,39.2800,83,95,197611
1.7889,0.4350,39.3800,83,95,197614
1.8035,0.4350,39.1900,83,95,197617
1.7693,0.4252,39.2500,83,95,197621
1.7498,0.4350,39.6000,83,95,197624
1.7595,0.4448,39.2500,83,95,197627
1.7253,0.4350,39.4100,83,95,197632
1.7400,0.4497,39.1900,83,95,197635
1.6618,0.4350,39.4400,83,95,197638
1.5885,0.4643,39.3800,83,95,197642
1.5396,0.4399,39.3500,83,95,197645
1.5298,0.4301,39.3200,83,95,197648
1.6471,0.4497,39.0900,83,95,197651
1.7644,0.4399,39.3200,83,95,197655
1.9746,0.4301,39.3500,83,95,197658
2.2287,0.4252,39.3800,83,95,197661
2.2678,0.4350,39.3800,83,95,197665
2.1505,0.4350,39.3200,83,95,197668
2.0626,0.4448,39.2500,83,95,197672
1.9159,0.4350,38.6800,83,95,197676
1.8622,0.4448,39.2500,83,95,197679
1.7644,0.4301,39.3200,83,95,197683
1.7009,0.4301,39.3500,83,95,197686
1.6618,0.4399,39.2500,83,95,197689
1.6373,0.4350,39.4400,83,95,197693
1.6716,0.4350,39.1900,83,95,197696
1.6618,0.4399,39.4400,83,95,197699
1.6569,0.4399,39.3800,83,95,197703
1.6618,0.4448,39.3200,83,95,197706
1.6373,0.4350,39.3500,83,95,197709
1.6862,0.4545,39.1600,83,95,197712
1.6716,0.4350,39.3500,83,95,197716
1.6813,0.4350,39.3800,83,95,197720
1.6911,0.4350,39.3800,83,95,197723
1.6716,0.4399,39.3500,83,95,197727
1.7204,0.4594,39.1600,83,95,197730
1.6862,0.4399,39.3500,83,95,197733
1.6960,0.4301,39.3500,83,95,197737
1.7155,0.4350,39.5100,83,95,197740
1.7107,0.4399,39.3800,83,95,197743
1.7449,0.4448,39.1900,83,95,197747
1.7107,0.4350,39.3500,83,95,197750
1.7302,0.4252,39.2500,83,95,197753
1.7302,0.4350,39.4100,83,95,197757
1.7693,0.4350,39.3800,83,95,197761
1.7644,0.4399,39.3200,83,95,197764
1.7302,0.4301,39.3800,83,95,197767
1.7742,0.4448,39.2500,83,95,197771
1.7351,0.4301,39.3500,83,95,197774
1.7449,0.4301,39.4100,83,95,197777
1.7693,0.4350,39.3200,83,95,197781
1.7498,0.4301,39.3800,83,95,197784
1.7498,0.4399,39.2200,83,95,197787
1.7253,0.4252,39.4100,83,95,197791
1.7351,0.4301,39.3800,83,95,197794
1.7742,0.4399,39.3500,83,95,197797
1.7693,0.4350,39.3800,83,95,197801
1.8035,0.4448,39.1900,83,95,197805
1.7644,0.4594,39.3200,83,95,197808
1.7449,0.4350,39.4100,83,95,197811
1.7693,0.4399,39.3500,83,95,197815
1.7644,0.4301,39.4100,83,95,197818
1.8231,0.4497,39.1900,83,95,197821
1.7840,0.4448,39.2800,83,95,197825
1.7498,0.4301,39.3800,83,95,197828
1.7449,0.4399,39.3800,83,95,197831
1.7449,0.4350,39.4100,83,95,197835
1.8035,0.4545,39.2500,83,95,197838
1.7595,0.4301,39.3500,83,95,197841
1.7546,0.4350,39.2800,83,95,197846
1.7253,0.4350,39.3800,83,95,197849
1.7058,0.4350,39.4100,83,95,197852
1.7498,0.4448,39.4100,83,95,197855
1.7351,0.4252,39.3800,83,95,197859
1.7693,0.4399,39.2500,83,95,197862
1.7400,0.4399,39.3800,83,95,197865
1.7449,0.4350,39.3800,83,95,197869
1.7644,0.4448,39.2500,83,95,197872
1.7644,0.4350,39.3800,83,95,197875
1.7693,0.4252,39.2500,83,95,197879
1.7546,0.4350,39.3200,83,95,197882
1.7546,0.4399,39.4400,83,95,197885
1.7595,0.4399,39.1900,83,95,197890
1.7498,0.4399,39.3800,83,95,197893
1.8035,0.4399,39.1900,83,95,197896
1.7986,0.4350,39.3500,83,95,197900
1.7889,0.4301,39.3800,83,95,197903
1.8133,0.4399,39.4400,83,95,197906
1.8035,0.4643,39.3800,83,95,197909
1.8671,0.4497,39.1200,83,95,197913
1.8475,0.4448,39.2800,83,95,197916
1.8524,0.4301,39.3800,83,95,197919
1.8671,0.4350,39.3500,83,95,197923
1.8622,0.4350,39.4100,83,95,197926
1.9257,0.4545,39.1900,83,95,197929
1.9110,0.4448,39.3500,83,95,197934
1.9208,0.4350,39.3200,83,95,197937
1.9648,0.4350,39.3800,83,95,197940
1.9355,0.4350,39.3800,83,95,197944
1.9697,0.4448,39.2200,83,95,197947
1.9306,0.4350,39.3800,83,95,197950
1.9501,0.4399,39.2500,83,95,197953
1.9355,0.4448,39.4100,83,95,197957
1.9404,0.4301,39.3800,83,95,197960
1.9501,0.4448,39.2800,83,95,197963
1.9062,0.4350,39.3800,83,95,197967
1.9306,0.4448,39.2800,83,95,197970
1.9013,0.4301,39.2500,83,95,197974
1.9110,0.4350,39.3800,83,95,197978
1.9404,0.4350,39.2500,83,95,197981
1.9159,0.4692,39.3800,83,95,197984
1.9257,0.4252,39.1900,83,95,197988
1.8817,0.4301,39.3800,83,95,197991
1.8866,0.4301,39.3800,83,95,197994
1.9159,0.4448,39.3200,83,95,197997
1.8915,0.4301,39.4100,83,95,198001
1.9306,0.4448,39.1200,83,95,198004
1.8866,0.4399,39.3200,83,95,198007
1.8817,0.4350,39.4100,83,95,198011
1.8817,0.4399,39.3500,83,95,198014
1.8622,0.4350,39.3800,83,95,198018
1.9208,0.4545,39.1200,83,95,198022
1.8817,0.4497,39.2800,83,95,198025
1.8573,0.4301,39.3500,83,95,198028
1.8573,0.4350,39.3800,83,95,198032
1.8671,0.4301,39.3800,83,95,198035
1.9208,0.4497,39.2500,83,95,198038
1.8768,0.4301,39.3500,83,95,198041
1.8671,0.4399,39.2500,83,95,198045
1.8426,0.4350,39.4100,83,95,198048
1.8377,0.4350,39.3800,83,95,198051
1.8719,0.4399,38.5800,83,95,198055
1.8524,0.4448,39.4400,83,95,198059
1.8719,0.4399,39.2500,83,95,198062
1.8573,0.4301,39.4400,83,95,198066
1.8280,0.4350,39.3800,83,95,198069
1.8622,0.4448,39.2500,83,95,198072
1.8475,0.4350,39.4800,83,95,198076
1.8768,0.4692,39.2200,83,95,198079
1.8524,0.4350,39.2800,83,95,198082
1.8231,0.4350,39.3800,83,95,198086
1.8377,0.4252,39.3200,83,95,198089
1.8182,0.4301,39.3500,83,95,198092
1.8671,0.4545,39.1900,83,95,198095
1.8377,0.4350,39.2800,83,95,198099
1.8231,0.4594,39.3800,83,95,198103
1.8133,0.4399,39.3500,83,95,198106
1.7889,0.4545,39.3500,83,95,198110
1.8377,0.4545,39.0900,83,95,198113
1.8182,0.4448,39.3500,83,95,198116
1.8182,0.4301,39.3500,83,95,198120
1.8133,0.4350,39.4100,83,95,198123
1.7937,0.4399,39.3800,83,95,198126
1.8280,0.4497,39.3200,83,95,198130
1.7937,0.4301,39.3200,83,95,198133
1.8084,0.4350,39.2800,83,95,198136
1.8035,0.4350,39.4100,83,95,198140
1.7986,0.4350,39.3800,83,95,198144
1.8231,0.4448,39.2500,83,95,198147
1.7937,0.4350,39.3800,83,95,198150
1.8231,0.4399,39.2500,83,95,198154
1.8182,0.4350,39.3500,83,95,198157
1.8328,0.4252,39.3800,83,95,198160
1.8426,0.4350,39.2500,83,95,198164
1.8084,0.4301,39.3800,83,95,198167
1.8231,0.4252,39.2500,83,95,198170
1.8035,0.4350,39.3200,83,95,198174
1.8133,0.4399,39.3800,83,95,198177
1.8328,0.4350,39.3500,83,95,198180
1.8182,0.4399,39.3800,83,95,198184
1.8524,0.4448,39.1900,83,95,198188
1.8377,0.4301,39.3500,83,95,198191
1.8573,0.4350,39.4100,83,95,198195
1.8964,0.4350,39.3200,83,95,198198
1.8964,0.4301,39.3800,83,95,198201
1.9501,0.4497,39.0900,83,95,198204
1.9062,0.4350,39.3200,83,95,198208
1.8866,0.4252,39.4100,83,95,198211
1.8964,0.4301,39.3500,83,95,198214
1.9306,0.4301,39.3800,83,95,198218
1.9501,0.4545,39.2200,83,95,198221
1.9355,0.4350,39.3200,83,95,198224
1.8915,0.4350,39.2800,83,95,198228
1.8866,0.4350,39.3800,83,95,198232
1.9208,0.4301,39.3800,83,95,198235
1.9746,0.4448,39.2500,83,95,198239
1.9453,0.4301,39.4400,83,95,198242
1.9404,0.4399,39.2500,83,95,198245
1.8719,0.4350,39.3500,83,95,198248
1.8377,0.4350,39.3800,83,95,198252
1.8426,0.4350,39.3500,83,95,198255
1.8280,0.4350,39.3800,83,95,198258
1.8573,0.4350,39.2500,83,95,198262
1.7840,0.4350,39.6000,83,95,198265
1.7595,0.4497,39.3800,83,95,198268
1.7742,0.4448,39.2800,83,95,198273
1.7351,0.4399,39.3500,83,95,198276
1.7302,0.4350,39.3800,83,95,198280
1.8328,0.4497,39.0900,83,95,198283
1.7840,0.4448,39.2500,83,95,198286
1.7693,0.4252,39.3500,83,95,198290
1.7644,0.4350,39.3500,83,95,198293
1.7498,0.4350,39.3800,83,95,198296
1.8133,0.4448,39.2500,83,95,198299
1.7791,0.4350,39.5100,83,95,198303
1.7840,0.4448,39.2800,83,95,198306
1.7693,0.4350,39.3800,83,95,198309
1.7546,0.4448,39.3800,83,95,198313
1.7889,0.4448,39.3200,83,95,198317
1.7693,0.4350,39.3500,83,95,198320
1.7986,0.4497,39.2200,83,95,198324
1.7644,0.4350,39.3800,83,95,198327
1.7302,0.4203,39.4400,83,95,198330
1.7155,0.4448,39.3800,83,95,198334
1.6813,0.4350,39.3800,83,95,198337
1.6325,0.4350,39.2500,83,95,198340
1.5591,0.4301,39.2800,83,95,198344
1.5494,0.4350,39.3800,83,95,198347
1.5787,0.4399,39.2200,83,95,198350
1.6618,0.4301,39.3800,83,95,198353
1.8817,0.4448,39.1900,83,95,198358
2.1261,0.4301,39.3500,83,95,198361
2.3705,0.4301,39.3800,83,95,198364
2.5269,0.4399,39.1900,83,95,198368
2.4878,0.4399,39.3800,83,95,198371
2.4633,0.4448,39.1200,83,95,198374
2.3216,0.4497,39.2800,83,95,198378
2.2287,0.4301,39.3800,83,95,198381
2.1212,0.4350,39.2800,83,95,198384
1.9941,0.4301,39.3800,83,95,198388
1.9404,0.4545,39.1900,83,95,198391
1.8035,0.4741,39.3500,83,95,198394
1.7400,0.4399,39.3200,83,95,198397
1.7058,0.4594,39.3800,83,95,198402
1.6960,0.4301,39.4100,83,95,198405
1.7009,0.4448,39.2800,83,95,198408
1.6569,0.4399,39.3500,83,95,198412
1.6716,0.4252,39.2500,83,95,198415
1.6520,0.4350,39.2500,83,95,198418
1.6716,0.4643,39.3800,83,95,198422
1.7107,0.4448,39.3200,83,95,198425
1.6911,0.4301,39.3800,83,95,198428
1.7107,0.4448,39.2800,83,95,198432
1.6911,0.4301,39.3500,83,95,198435
1.7009,0.4448,39.3800,83,95,198438
1.7302,0.4252,39.2800,83,95,198441
1.7302,0.4350,39.4100,83,95,198446
1.7595,0.4497,39.2500,83,95,198449
1.7351,0.4350,39.4100,83,95,198452
1.7400,0.4350,39.4100,83,95,198456
1.7742,0.4399,39.3200,83,95,198459
1.7693,0.4350,38.9600,83,95,198462
1.8182,0.4399,39.1200,83,95,198466
1.7937,0.4399,39.3200,83,95,198469
1.7644,0.4350,39.6000,83,95,198472
1.7742,0.4252,39.3500,83,95,198476
1.7693,0.4350,39.2800,83,95,198479
1.8377,0.4594,39.1200,83,95,198482
1.8182,0.4448,39.3500,83,95,198487
1.7986,0.4252,39.3500,83,95,198490
1.7840,0.4350,39.3800,83,95,198493
1.7791,0.4350,38.5500,83,95,198496
1.8328,0.4594,39.1900,83,95,198500
1.8035,0.4350,39.3500,83,95,198503
1.8182,0.4350,39.2200,83,95,198506
1.7986,0.4399,39.3800,83,95,198510
1.7840,0.4350,39.3500,83,95,198513
1.8035,0.4448,39.3200,83,95,198516
1.7889,0.4350,39.3800,83,95,198520
1.8231,0.4399,39.3500,83,95,198523
1.8084,0.4252,39.3800,83,95,198526
1.8084,0.4301,39.3800,83,95,198530
1.8280,0.4448,39.2200,83,95,198534
1.7986,0.4252,39.3800,83,95,198537
1.8328,0.4350,39.2200,83,95,198540
1.8231,0.4399,39.2800,83,95,198544
1.8133,0.4301,39.4100,83,95,198547
1.8426,0.4350,39.1600,83,95,198550
1.7889,0.4350,39.3800,83,95,198554
1.8133,0.4448,39.1200,83,95,198557
1.7986,0.4252,39.2800,83,95,198560
1.7937,0.4350,39.4800,83,95,198564
1.8231,0.4350,39.3200,83,95,198567
1.7889,0.4350,39.1900,83,95,198571
1.8280,0.4594,39.1200,83,95,198575
1.7889,0.4350,39.3200,83,95,198578
1.7937,0.4301,39.3800,83,95,198581
1.8133,0.4252,39.4400,83,95,198584
1.8084,0.4301,39.3500,83,95,198588
1.8573,0.4545,39.1900,83,95,198591
1.8035,0.4399,39.3800,83,95,198594
1.8084,0.4350,39.3200,83,95,198598
1.8133,0.4350,39.3800,83,95,198601
1.8328,0.4350,39.3800,83,95,198604
1.8671,0.4448,39.2200,83,95,198608
1.8426,0.4350,39.3800,83,95,198611
1.8573,0.4350,39.2500,83,95,198615
1.8524,0.4350,39.3800,83,95,198619
1.8768,0.4301,39.4100,83,95,198622
1.9257,0.4448,39.2800,83,95,198625
1.9110,0.4350,39.4400,83,95,198628
1.9501,0.4448,39.2800,83,95,198632
1.9550,0.4301,39.3500,83,95,198635
1.9404,0.4350,39.3800,83,95,198638
1.9795,0.4301,39.3200,83,95,198642
1.9844,0.4350,39.3800,83,95,198645
2.0235,0.4448,38.4300,83,95,198648
2.0039,0.4350,39.3800,83,95,198652
1.9844,0.4252,39.4100,83,95,198656
2.0186,0.4448,39.1900,83,95,198659
2.0137,0.4350,39.4100,83,95,198663
2.0674,0.4448,39.1600,83,95,198666
2.0381,0.4399,39.2800,83,95,198669
2.0039,0.4350,39.3800,83,95,198672
2.0137,0.4399,39.3500,83,95,198676
1.9941,0.4350,39.4400,83,95,198679
2.0528,0.4594,39.1200,83,95,198682
2.0186,0.4448,39.3200,83,95,198686
1.9892,0.4301,39.3500,83,95,198689
1.9892,0.4301,39.4400,83,95,198692
1.9648,0.4350,39.3800,83,95,198696
2.0186,0.4545,39.1900,83,95,198700
1.9892,0.4350,39.3500,83,95,198703
1.9941,0.4252,39.2800,83,95,198706
1.9746,0.4350,39.3800,83,95,198710
1.9599,0.4350,39.4400,83,95,198713
1.9892,0.4448,39.3200,83,95,198716
1.9990,0.4448,39.3500,83,95,198720
1.9941,0.4399,39.2500,83,95,198723
2.0039,0.4350,39.3800,83,95,198726
1.9550,0.4301,39.3800,83,95,198730
1.9697,0.4448,39.3500,83,95,198733
1.9257,0.4399,39.4400,83,95,198736
1.9697,0.4350,39.3800,83,95,198740
1.9550,0.4350,39.3200,83,95,198744
1.9550,0.4350,39.3800,83,95,198747
1.9648,0.4399,39.2500,83,95,198750
1.9257,0.4399,39.3800,83,95,198754
1.9550,0.4448,39.2200,83,95,198757
1.9550,0.4399,39.3200,83,95,198760
1.9404,0.4252,39.4100,83,95,198764
1.9599,0.4399,39.3200,83,95,198767
1.9306,0.4301,39.3800,83,95,198770
1.9746,0.4252,39.1200,83,95,198774
1.9208,0.4350,39.3200,83,95,198777
1.9306,0.4301,39.3800,83,95,198780
1.9453,0.4350,39.2800,83,95,198785
1.9355,0.4301,39.4100,83,95,198788
1.9795,0.4594,39.2200,83,95,198791
1.9257,0.4497,39.3200,83,95,198795
1.9110,0.4350,39.3500,83,95,198798
1.9110,0.4350,39.3800,83,95,198801
1.9110,0.4252,39.3800,83,95,198804
1.9501,0.4448,39.2800,83,95,198808
1.9257,0.4399,39.3500,83,95,198811
1.9013,0.4399,39.2800,83,95,198814
1.8768,0.4350,39.4100,83,95,198818
1.8817,0.4301,39.3800,83,95,198821
1.9159,0.4399,39.2800,83,95,198824
1.8915,0.4301,39.3800,83,95,198829
1.9062,0.4252,39.2800,83,95,198832
1.8671,0.4301,39.3800,83,95,198835
1.8671,0.4301,39.4100,83,95,198839
1.8915,0.4350,39.3200,83,95,198842
1.8915,0.4350,39.3800,83,95,198845
1.9159,0.4350,39.2200,83,95,198848
1.8768,0.4350,39.3800,83,95,198852
1.8719,0.4399,39.3800,83,95,198855
1.9013,0.4448,39.1900,83,95,198858
1.9013,0.4301,39.3800,83,95,198862
1.9550,0.4448,39.1900,83,95,198865
1.9208,0.4643,39.2800,83,95,198868
1.9159,0.4252,39.3800,83,95,198873
1.9062,0.4399,39.4400,83,95,198876
1.9013,0.4252,39.3800,83,95,198879
1.9648,0.4497,38.3300,83,94,198883
1.9453,0.4448,39.2500,83,94,198886
1.9453,0.4350,39.3800,83,94,198890
1.9795,0.4399,39.2200,83,94,198893
1.9648,0.4350,39.4400,83,94,198896
1.9648,0.4301,38.5800,83,94,198900
1.9844,0.4399,39.3500,83,94,198903
1.9795,0.4350,39.3800,83,94,198906
2.0283,0.4399,39.3500,83,94,198909
2.0039,0.4350,39.3800,83,94,198914
1.9941,0.4301,39.3800,83,94,198917
2.0039,0.4448,38.5200,83,94,198920
1.9746,0.4399,39.3800,83,94,198924
2.0137,0.4399,39.1900,83,94,198927
2.0235,0.4399,39.3200,83,94,198930
2.0479,0.4301,39.4400,83,94,198934
2.0577,0.4448,39.5700,83,94,198937
2.0283,0.4350,39.3800,83,94,198940
2.0674,0.4741,39.1600,83,94,198943
2.0186,0.4350,39.2800,83,94,198947
1.9892,0.4301,39.4800,83,94,198950
1.9795,0.4350,39.4400,83,94,198953
1.9306,0.4350,39.5100,83,94,198958
1.9599,0.4545,39.0900,83,94,198961
1.9013,0.4399,39.3200,83,94,198964
1.8866,0.4301,39.4800,83,94,198968
1.8866,0.4350,39.4400,83,94,198971
1.8719,0.4301,39.6000,83,94,198974
1.9062,0.4497,39.2200,83,94,198978
1.8475,0.4350,39.3800,83,94,198981
1.8524,0.4350,39.3200,83,94,198984
1.8524,0.4252,39.3800,83,94,198988
1.8573,0.4350,39.5400,83,94,198991
1.8964,0.4497,39.2200,83,94,198994
1.8475,0.4350,39.4400,83,94,198998
1.8524,0.4350,39.2500,83,94,199002
1.8280,0.4301,39.3500,83,94,199005
1.8328,0.4301,39.3800,83,94,199008
1.8671,0.4350,39.2800,83,94,199012
1.8475,0.4252,39.3800,83,94,199015
1.8622,0.4448,39.2200,83,94,199018
1.8377,0.4350,39.2800,83,94,199022
1.8377,0.4350,39.4400,83,94,199025
1.8866,0.4399,39.3200,83,94,199028
1.8671,0.4301,39.4800,83,94,199032
1.8964,0.4497,39.1600,83,94,199035
1.8426,0.4350,39.4400,83,94,199038
1.8182,0.4497,39.3800,83,94,199042
1.7986,0.4252,39.3500,83,94,199046
1.7546,0.4643,39.3800,83,94,199049
1.7595,0.4448,39.0900,83,94,199052
1.6569,0.4399,39.3500,83,94,199056
1.5836,0.4350,39.3800,83,94,199059
1.5787,0.4350,39.4400,83,94,199062
1.6569,0.4252,39.4100,83,94,199066
1.8817,0.4545,39.1900,83,94,199069
2.0821,0.4301,39.3200,83,94,199072
2.3509,0.4350,39.2800,83,94,199076
2.5269,0.4350,38.5800,83,94,199079
2.5709,0.4350,39.4100,83,94,199083
2.5513,0.4692,39.2500,83,94,199086
2.4389,0.4301,39.3800,83,94,199090
2.3803,0.4399,39.2800,83,94,199093
2.2581,0.4399,39.3800,83,94,199096
2.1359,0.4350,39.3800,83,94,199100
2.0430,0.4350,39.2800,83,94,199103
1.9404,0.4399,39.3800,83,94,199106
1.9062,0.4252,39.2800,83,94,199110
1.8182,0.4594,39.3800,83,94,199113
1.7644,0.4301,39.4100,83,94,199116
1.7546,0.4399,39.2800,83,94,199120
1.7204,0.4350,39.3800,83,94,199123
1.7498,0.4399,39.1600,83,94,199127
1.7498,0.4399,39.3200,83,94,199130
1.7400,0.4301,39.3200,83,94,199134
1.7595,0.4252,39.2800,83,94,199137
1.7302,0.4350,39.2800,83,94,199140
1.7693,0.4497,39.1200,83,94,199144
1.7546,0.4497,39.2800,83,94,199147
1.7546,0.4350,39.4100,83,94,199150
1.7644,0.4350,39.3800,83,94,199154
1.7546,0.4350,38.9000,83,94,199157
1.7937,0.4594,39.1600,83,94,199160
1.7546,0.4399,39.3500,83,94,199164
1.7644,0.4350,39.2800,83,94,199168
1.7693,0.4252,39.3800,83,94,199171
1.7693,0.4350,39.3800,83,94,199175
1.7986,0.4448,39.2800,83,94,199178
1.7595,0.4350,39.3200,83,94,199181
1.7791,0.4350,39.2500,83,94,199184
1.7693,0.4350,38.6200,83,94,199188
1.7791,0.4692,39.3800,83,94,199191
1.8084,0.4448,39.2500,83,94,199194
1.7644,0.4350,39.4400,83,94,199198
1.7840,0.4448,39.2800,83,94,199201
1.7546,0.4350,39.3200,83,94,199204
1.7986,0.4252,39.3800,83,94,199208
1.7937,0.4350,39.4100,83,94,199212
1.7742,0.4399,39.4400,83,94,199215
1.7889,0.4399,39.2200,83,94,199219
1.7595,0.4643,39.3500,83,94,199222
1.7595,0.4350,39.3800,83,94,199225
1.7937,0.4399,39.2800,83,94,199228
1.7937,0.4301,39.3500,83,94,199232
1.8328,0.4497,39.1600,83,94,199235
1.7840,0.4350,39.2800,83,94,199238
1.7742,0.4301,39.4400,83,94,199242
1.7742,0.4350,39.3500,83,94,199245
1.7889,0.4350,39.3800,83,94,199248
1.8377,0.4545,39.1200,83,94,199252
1.7889,0.4301,39.3500,83,94,199256
1.7595,0.4301,39.3500,83,94,199259
1.7595,0.4497,39.3800,83,94,199263
1.7889,0.4350,39.3800,83,94,199266
1.8133,0.4448,39.2800,83,94,199269
1.7937,0.4350,39.3500,83,94,199273
1.7889,0.4350,39.3500,83,94,199276
1.7595,0.4203,39.3800,83,94,199279
1.7595,0.4252,39.3800,83,94,199282
1.7889,0.4399,39.6400,83,94,199286
1.7791,0.4350,39.3800,83,94,199289
1.8035,0.4399,39.2500,83,94,199292
1.7742,0.4350,39.3200,83,94,199297
1.7595,0.4399,39.3800,83,94,199300
1.7742,0.4350,39.3500,83,94,199303
1.7791,0.4643,39.4100,83,94,199307
1.8182,0.4350,39.2500,83,94,199310
1.7986,0.4741,39.3800,83,94,199313
1.7986,0.4252,39.4100,83,94,199317
1.8035,0.4545,39.3200,83,94,199320
1.7840,0.4350,39.3800,83,94,199323
1.8377,0.4448,38.8100,83,94,199326
1.8328,0.4399,39.3200,83,94,199330
1.8231,0.4350,39.3800,83,94,199333
1.8524,0.4399,39.3200,83,94,199336
1.8377,0.4350,39.4100,83,94,199341
1.9013,0.4545,39.0900,83,94,199344
1.8964,0.4448,39.2800,83,94,199347
1.9062,0.4301,39.4100,83,94,199351
1.9208,0.4399,39.3800,83,94,199354
1.9159,0.4301,39.3800,83,94,199357
1.9697,0.4545,39.1200,83,94,199361
1.9648,0.4350,39.3500,83,94,199364
1.9501,0.4350,39.3200,83,94,199367
1.9501,0.4350,39.3800,83,94,199370
1.9501,0.4301,39.3800,83,94,199374
1.9697,0.4448,39.2800,83,94,199377
1.9257,0.4448,39.3800,83,94,199380
1.9404,0.4399,39.2500,83,94,199385
1.9257,0.4301,39.3800,83,94,199388
1.9306,0.4301,39.4100,83,94,199391
1.9599,0.4448,39.2200,83,94,199395
1.9257,0.4252,39.3800,83,94,199398
1.9453,0.4399,39.2500,83,94,199401
1.9355,0.4350,39.2800,83,94,199405
1.9257,0.4301,39.3800,83,94,199408
1.9550,0.4399,39.2500,83,94,199411
1.9159,0.4350,39.3800,83,94,199415
1.9306,0.4497,39.1200,83,94,199418
1.8964,0.4252,39.3500,83,94,199421
1.8915,0.4350,39.3800,83,94,199425
1.9159,0.4399,39.3200,83,94,199429
1.9110,0.4350,39.4400,83,94,199432
1.9453,0.4448,39.1600,83,94,199435
1.8817,0.4350,39.3200,83,94,199439
1.8719,0.4350,39.4800,83,94,199442
1.8817,0.4448,39.4400,83,94,199445
1.8817,0.4301,39.3800,83,94,199449
1.9404,0.4545,39.1600,83,94,199452
1.8915,0.4399,39.3500,83,94,199455
1.8768,0.4350,39.3200,83,94,199459
1.8719,0.4350,39.3800,83,94,199462
1.8817,0.4350,38.6200,83,94,199465
1.9355,0.4497,39.1900,83,94,199469
1.9110,0.4350,38.6800,83,94,199473
1.9159,0.4399,39.2800,83,94,199476
1.9062,0.4399,39.4400,83,94,199479
1.8768,0.4350,39.4100,83,94,199483
1.9013,0.4643,39.2500,83,94,199486
1.8964,0.4350,39.3800,83,94,199489
1.9208,0.4448,39.2800,83,94,199493
1.8866,0.4301,39.1900,83,94,199496
1.9013,0.4301,39.3500,83,94,199501
1.8866,0.4301,39.3800,83,94,199504
1.8915,0.4448,39.3200,83,94,199507
1.8719,0.4350,39.3800,83,94,199512
1.9208,0.4497,39.1600,83,94,199515
1.9306,0.4350,39.3200,83,94,199518
1.8817,0.4301,39.4100,83,94,199521
1.8768,0.4350,39.3500,83,94,199525
1.8475,0.4350,39.3800,83,94,199528
1.9013,0.4594,39.0900,83,94,199531
1.8866,0.4497,39.3200,83,94,199535
1.8817,0.4301,39.3500,83,94,199538
1.8817,0.4350,39.3800,83,94,199541
1.8866,0.4301,39.4400,83,94,199545
1.8915,0.4448,39.2500,83,94,199548
1.8524,0.4545,39.3800,83,94,199552
1.8768,0.4399,39.2800,83,94,199556
1.8671,0.4350,39.4800,83,94,199559
1.8622,0.4350,39.3800,83,94,199562
1.8719,0.4545,39.3500,83,94,199565
1.8475,0.4252,39.3800,83,94,199569
1.8671,0.4448,39.2800,83,94,199572
1.8573,0.4350,39.3800,83,94,199575
1.8817,0.4301,39.4100,83,94,199579
1.9110,0.4399,39.3200,83,94,199582
1.8768,0.4350,39.3800,83,94,199585
1.8915,0.4790,39.1900,83,94,199589
1.8817,0.4399,39.2800,83,94,199592
1.8866,0.4350,39.4100,83,94,199596
1.9208,0.4252,39.2500,83,94,199600
1.8915,0.4301,39.4800,83,94,199603
1.9355,0.4497,39.1600,83,94,199606
1.9110,0.4350,39.2800,83,94,199610
1.9159,0.4301,39.4400,83,94,199613
1.9550,0.4399,39.3800,83,94,199616
1.9648,0.4497,39.3800,83,94,199619
2.0430,0.4545,39.1200,83,94,199623
1.9746,0.4399,39.1900,83,94,199626
1.9550,0.4301,39.3500,83,94,199629
1.9453,0.4350,39.4800,83,94,199633
1.9404,0.4301,39.3800,83,94,199636
1.9795,0.4497,39.3500,83,94,199640
1.9257,0.4399,39.3800,83,94,199644
1.9355,0.4350,39.2800,83,94,199647
1.9208,0.4399,39.4400,83,94,199650
1.9404,0.4350,39.4100,83,94,199654
1.9795,0.4448,39.2200,83,94,199657
1.9355,0.4350,39.3800,83,94,199660
1.9110,0.4448,39.3500,83,94,199664
1.8377,0.4399,39.3500,83,94,199667
1.8133,0.4350,39.3800,83,94,199670
1.8377,0.4594,39.2500,83,94,199673
1.8377,0.4252,39.3800,83,94,199677
1.8475,0.4399,39.1900,83,94,199681
1.8182,0.4350,39.3200,83,94,199684
1.7840,0.4350,39.3800,83,94,199688
1.7840,0.4594,39.3200,83,94,199691
1.7644,0.4350,39.3800,83,94,199694
1.8084,0.4448,38.3600,83,94,199698
1.7889,0.4350,39.3500,83,94,199701
1.7498,0.4350,39.3800,83,94,199704
1.7449,0.4497,39.3500,83,94,199708
1.7351,0.4350,39.3800,83,94,199711
1.7937,0.4497,39.1200,83,94,199714
1.7742,0.4399,39.3200,83,94,199718
1.7595,0.4301,39.3200,83,94,199721
1.7546,0.4350,39.3500,83,94,199725
1.7400,0.4350,39.3500,83,94,199728
1.7889,0.4839,39.2200,83,94,199732
1.7644,0.4399,39.4100,83,94,199735
1.7742,0.4448,39.2800,83,94,199738
1.7595,0.4350,39.3800,83,94,199742
1.7546,0.4350,39.3200,83,94,199745
1.7791,0.4448,39.2500,83,94,199748
1.7546,0.4350,39.3200,83,94,199752
1.7937,0.4350,39.2200,83,94,199755
1.7351,0.4301,38.6200,83,94,199758
1.6960,0.4350,39.3800,83,94,199762
1.6471,0.4350,39.3200,83,94,199766
1.5787,0.4399,39.3800,83,94,199769
1.5494,0.4399,39.2200,83,94,199772
1.5152,0.4350,39.4800,83,94,199776
1.5787,0.4399,39.3800,83,94,199779
1.7302,0.4399,39.2800,83,94,199782
1.9062,0.4399,39.4100,83,94,199786
2.1896,0.4252,39.1900,83,94,199789
2.3900,0.4399,39.7300,83,94,199792
2.4585,0.4350,39.4100,83,94,199796
2.4487,0.4399,39.3500,83,94,199799
2.3314,0.4350,39.3800,83,94,199802
2.2972,0.4497,39.0900,83,94,199806
2.1603,0.4399,39.3200,83,94,199810
2.0381,0.4497,39.4100,83,94,199813
1.9697,0.4399,39.3500,83,94,199816
1.8426,0.4301,39.3800,83,94,199820
1.7937,0.4545,39.0600,83,94,199823
1.7204,0.4350,39.3500,83,94,199826
1.6178,0.4350,39.3200,83,94,199830
1.5982,0.4448,39.3800,83,94,199833
1.5934,0.4350,39.4100,83,94,199836
1.6227,0.4399,39.2800,83,94,199840
1.5934,0.4350,39.3800,83,94,199843
1.6080,0.4399,39.2500,83,94,199846
1.6031,0.4350,39.3800,83,94,199851
1.6129,0.4301,39.4100,83,94,199854
1.6667,0.4448,39.2500,83,94,199857
1.6422,0.4350,39.3500,83,94,199861
1.6618,0.4350,39.2800,83,94,199864
1.6227,0.4350,39.3200,83,94,199867
1.6178,0.4350,39.4100,83,94,199870
1.6471,0.4399,39.2500,83,94,199874
1.6520,0.4350,39.4800,83,94,199877
1.6911,0.4448,39.1900,83,94,199880
1.6667,0.4399,38.9600,83,94,199884
1.6471,0.4350,39.4400,83,94,199887
1.6618,0.4399,39.3200,83,94,199890
1.6618,0.4301,39.3800,83,94,199895
1.7204,0.4448,39.1200,83,94,199898
1.6960,0.4643,39.3200,83,94,199901
1.6911,0.4301,39.3800,83,94,199905
1.6862,0.4350,39.3800,83,94,199908
1.7253,0.4399,39.3800,83,94,199911
1.7498,0.4545,39.0900,83,94,199914
1.7253,0.4399,39.3200,83,94,199918
1.7155,0.4350,39.3200,83,94,199921
1.7058,0.4399,39.3800,83,94,199924
1.7058,0.4448,39.3800,83,94,199928
1.7351,0.4448,39.2200,83,94,199931
1.7253,0.4399,39.3500,83,94,199934
1.7498,0.4399,39.5100,83,94,199939
1.7302,0.4350,39.4400,83,94,199942
1.7253,0.4252,39.4100,83,94,199945
1.7400,0.4497,39.2800,83,94,199949
1.7204,0.4399,39.3800,83,94,199952
1.7595,0.4448,39.2500,83,94,199955
1.7400,0.4692,39.3500,83,94,199959
1.7253,0.4350,39.3800,83,94,199962
1.7302,0.4350,39.2800,83,94,199965
1.7107,0.4350,39.3800,83,94,199968
1.7351,0.4399,39.2500,83,94,199972
1.7253,0.4350,39.3800,83,94,199975
1.7302,0.4301,39.3800,83,94,199979
1.7351,0.4399,39.3200,83,94,199983
1.7107,0.4350,39.5400,83,94,199986
1.7400,0.4448,39.1600,83,94,199989
1.7204,0.4399,39.3200,83,94,199993
1.7155,0.4301,39.6400,83,94,199996
1.7302,0.4252,39.3500,83,94,199999
1.7107,0.4350,39.6000,83,94,200003
1.7498,0.4594,39.1900,83,94,200006
1.7204,0.4448,38.4900,83,94,200009
1.7107,0.4350,39.3200,83,94,200013
1.7253,0.4350,39.3800,83,94,200016
1.7302,0.4301,39.3800,83,94,200019
1.7742,0.4790,39.3200,83,94,200023
1.7302,0.4350,39.3500,83,94,200027
1.7351,0.4350,39.2200,83,94,200030
1.7693,0.4350,39.4100,83,94,200033
1.7644,0.4350,39.3500,83,94,200037
1.8035,0.4350,39.3200,83,94,200040
1.7742,0.4350,39.3800,83,94,200043
1.7937,0.4399,39.1900,83,94,200047
1.7791,0.4350,39.3800,83,94,200050
1.7937,0.4301,39.2800,83,94,200053
1.8524,0.4399,39.2500,83,94,200057
1.8426,0.4350,39.4400,83,94,200060
1.8671,0.4594,39.3200,83,94,200064
1.8573,0.4350,39.2800,83,94,200067
1.8573,0.4350,39.4800,83,94,200071
1.8964,0.4399,39.2500,83,94,200074
1.8915,0.4350,39.3800,83,94,200077
1.9404,0.4448,39.1600,83,94,200081
1.9013,0.4350,39.3200,83,94,200084
1.8866,0.4350,39.5700,83,94,200087
1.9013,0.4497,39.3500,83,94,200091
1.8964,0.4350,39.3800,83,94,200094
1.9550,0.4497,39.0900,83,94,200097
1.9110,0.4350,39.3200,83,94,200101
1.8866,0.4301,39.3800,83,94,200104
1.8817,0.4643,39.3800,83,94,200108
1.8719,0.4399,39.3800,83,94,200113
1.8524,0.4350,39.3800,83,94,200116
1.8866,0.4497,39.2500,83,94,200119
1.8719,0.4350,39.3800,83,94,200123
1.9062,0.4448,39.3200,83,94,200126
1.8768,0.4399,39.3500,83,94,200129
1.8671,0.4350,39.3800,83,94,200133
1.8719,0.4399,39.2800,83,94,200136
1.8768,0.4301,39.4400,83,94,200139
1.8768,0.4252,39.2500,83,94,200143
1.8475,0.4350,39.3500,83,94,200146
1.8328,0.4350,39.4400,83,94,200150
1.8328,0.4399,39.2800,83,94,200154
1.8133,0.4350,39.4100,83,94,200157
1.8573,0.4448,39.1900,83,94,200160
1.8328,0.4301,39.3500,83,94,200163
1.8426,0.4252,39.3800,83,94,200167
1.8524,0.4399,39.3500,83,94,200170
1.8133,0.4399,39.3800,83,94,200173
1.8573,0.4497,39.0900,83,94,200177
1.8280,0.4399,39.2500,83,94,200180
1.8280,0.4252,39.3800,83,94,200183
1.8426,0.4350,39.3500,83,94,200187
1.8231,0.4252,39.3800,83,94,200190
1.8622,0.4545,39.1900,83,94,200194
1.8280,0.4497,39.3200,83,94,200198
1.8377,0.4350,39.2800,83,94,200201
1.8280,0.4350,39.4400,83,94,200204
1.8280,0.4350,39.3800,83,94,200207
1.8377,0.4350,39.2500,83,94,200211
1.8133,0.4350,39.4100,83,94,200214
1.8524,0.4399,39.2500,83,94,200217
1.8231,0.4350,39.3800,83,94,200221
1.8328,0.4350,39.3800,83,94,200224
1.8475,0.4350,39.3500,83,94,200227
1.8133,0.4350,39.4100,83,94,200231
1.8231,0.4350,39.2500,83,94,200235
1.7889,0.4350,39.3800,83,94,200238
1.7937,0.4350,39.3800,83,94,200242
1.8280,0.4448,39.5100,83,94,200245
1.8377,0.4399,39.3800,83,94,200248
1.8231,0.4399,39.1900,83,94,200252
1.7889,0.4301,39.2800,83,94,200255
1.7693,0.4252,39.3800,83,94,200258
1.8035,0.4350,39.2800,83,94,200261
1.7889,0.4350,39.3800,83,94,200265
1.8377,0.4448,38.4900,83,94,200268
1.7986,0.4399,39.2500,83,94,200271
1.7742,0.4350,39.4100,83,94,200275
1.7791,0.4399,39.5100,83,94,200279
1.7742,0.4350,39.3800,83,94,200282
1.8377,0.4545,39.1600,83,94,200286
1.8133,0.4350,39.3500,83,94,200289
1.7840,0.4350,39.3200,83,94,200292
1.7791,0.4350,39.4100,83,94,200296
1.7840,0.4350,39.3800,83,94,200299
1.8377,0.4448,39.2800,83,94,200302
1.8182,0.4399,39.3500,83,94,200305
1.8377,0.4252,39.2800,83,94,200309
1.8084,0.4350,39.4400,83,94,200312
1.8133,0.4252,39.3800,83,94,200315
1.8622,0.4497,39.2500,83,94,200320
1.8524,0.4350,39.3800,83,94,200323
1.9062,0.4448,39.2800,83,94,200326
1.8817,0.4350,39.3200,83,94,200330
1.8768,0.4350,39.3800,83,94,200333
1.9110,0.4350,39.2800,83,94,200336
1.8719,0.4252,39.3800,83,94,200340
1.9110,0.4399,39.2500,83,94,200343
1.8964,0.4399,39.3500,83,94,200346
1.8768,0.4301,39.5100,83,94,200350
1.8719,0.4448,39.3200,83,94,200353
1.8475,0.4350,39.3800,83,94,200356
1.9013,0.4448,39.2800,83,94,200359
1.8964,0.4350,39.3500,83,94,200364
1.9159,0.4301,39.4800,83,94,200367
1.9306,0.4399,39.3500,83,94,200370
1.8817,0.4301,39.3800,83,94,200374
1.9257,0.4545,39.1200,83,94,200377
1.8377,0.4399,39.3500,83,94,200380
1.8231,0.4301,39.3500,83,94,200384
1.8182,0.4350,39.3800,83,94,200387
1.7986,0.4301,38.8100,83,94,200390
1.8133,0.4448,39.1900,83,94,200394
1.7644,0.4399,39.3800,83,94,200397
1.7693,0.4399,39.2500,83,94,200400
1.7791,0.4301,39.3800,83,94,200403
1.7595,0.4301,39.3800,83,94,200408
1.7742,0.4497,39.2500,83,94,200411
1.7400,0.4350,39.3800,83,94,200414
1.7498,0.4399,39.2200,83,94,200418
1.7302,0.4350,39.3800,83,94,200421
1.7400,0.4301,39.3800,83,94,200424
1.7595,0.4350,39.2500,83,94,200428
1.7498,0.4399,39.4100,83,94,200431
1.7693,0.4350,39.2500,83,94,200434
1.7693,0.4350,39.4400,83,94,200438
1.7546,0.4350,39.3800,83,94,200441
1.7889,0.4399,39.2800,83,94,200444
1.7742,0.4350,39.3800,83,94,200448
1.7986,0.4448,39.1600,83,94,200452
1.7742,0.4594,39.3200,83,94,200455
1.7693,0.4350,39.3800,83,94,200458
1.7889,0.4741,39.3500,83,94,200462
1.7840,0.4399,39.4100,83,94,200465
1.8084,0.4497,39.1200,83,94,200468
1.7546,0.4350,39.2200,83,94,200472
1.6862,0.4252,39.3800,83,94,200475
1.6520,0.4448,39.3800,83,94,200478
1.6227,0.4252,39.3800,83,94,200482
1.6227,0.4545,39.2200,83,94,200485
1.5445,0.4350,39.3500,83,94,200488
1.5543,0.4350,39.3800,83,94,200493
1.6569,0.4301,39.3800,83,94,200496
1.8133,0.4350,39.3500,83,94,200499
2.1017,0.4497,39.3200,83,94,200502
2.3363,0.4350,39.3800,83,94,200506
2.5073,0.4399,39.2500,83,94,200509
2.4829,0.4350,39.3800,83,94,200512
2.4047,0.4350,39.4400,83,94,200516
2.3558,0.4545,39.2500,83,94,200519
2.2385,0.4350,39.3800,83,94,200522
2.1603,0.4399,39.2200,83,94,200526
2.0088,0.4350,39.3200,83,94,200529
1.8817,0.4350,39.3800,83,94,200532
1.8084,0.4399,39.2500,83,94,200537
1.7595,0.4350,39.3800,83,94,200540
1.7107,0.4399,39.1900,83,94,200543
1.6667,0.4350,39.3500,83,94,200546
1.6422,0.4252,39.4100,83,94,200550
1.6373,0.4399,39.3200,83,94,200553
1.6325,0.4399,39.3800,83,94,200556
1.6667,0.4497,39.1200,83,94,200560
1.6520,0.4350,39.3200,83,94,200563
1.6716,0.4301,39.4100,83,94,200566
1.6764,0.4399,39.3500,83,94,200570
1.6667,0.4350,39.4400,83,94,200573
1.7155,0.4643,39.1600,83,94,200577
1.6911,0.4399,39.4100,83,94,200581
1.7009,0.4497,39.2500,83,94,200584
1.7107,0.4350,39.3800,83,94,200587
1.7107,0.4350,39.4100,83,94,200591
1.7400,0.4497,39.2200,83,94,200594
1.7204,0.4399,39.3500,83,94,200597
1.7498,0.4399,39.2800,83,94,200600
1.7449,0.4252,39.4100,83,94,200604
1.7644,0.4301,39.4100,83,94,200607
1.7840,0.4448,39.2800,83,94,200610
1.7546,0.4350,39.4800,83,94,200614
1.7791,0.4399,39.2800,83,94,200617
1.7595,0.4252,39.3500,83,94,200621
1.7742,0.4350,39.4100,83,94,200625
1.7937,0.4350,39.2800,83,94,200628
1.7693,0.4350,39.4400,83,94,200631
1.7840,0.4448,39.2500,83,94,200635
1.7595,0.4350,39.3800,83,94,200638
1.7742,0.4350,39.4100,83,94,200641
1.8035,0.4350,39.3500,83,94,200644
1.7889,0.4252,39.5100,83,94,200648
1.8182,0.4497,39.1600,83,94,200651
1.7840,0.4399,39.3200,83,94,200654
1.7693,0.4350,39.4100,83,94,200658
1.7937,0.4399,39.3500,83,94,200662
1.7937,0.4350,39.5400,83,94,200665
1.8573,0.4594,39.1900,83,94,200669
1.7986,0.4448,39.4100,83,94,200672
1.7742,0.4252,39.3800,83,94,200675
1.7791,0.4252,39.3500,83,94,200679
1.7840,0.4301,39.4100,83,94,200682
1.8328,0.4497,39.2200,83,94,200685
1.7937,0.4350,39.4100,83,94,200689
1.7889,0.4545,39.3200,83,94,200692
1.7693,0.4350,39.3800,83,94,200695
1.7693,0.4350,39.3800,83,94,200698
1.8035,0.4399,39.3200,83,94,200702
1.7986,0.4350,39.3500,83,94,200706
1.8182,0.4399,39.2500,83,94,200709
1.7840,0.4350,39.3500,83,94,200713
1.7742,0.4399,39.3800,83,94,200716
1.8133,0.4252,39.2800,83,94,200719
1.8133,0.4448,39.3200,83,94,200724
1.7986,0.4643,39.3800,83,94,200727
1.8671,0.4448,39.1600,83,94,200731
1.8475,0.4399,39.2500,83,94,200734
1.8377,0.4252,39.4100,83,94,200737
1.8377,0.4399,39.3200,83,94,200741
1.8377,0.4350,39.3800,83,94,200744
1.9110,0.4545,39.1900,83,94,200748
1.8915,0.4350,39.3500,83,94,200752
1.9159,0.4301,39.3200,83,94,200755
1.9208,0.4350,39.3500,83,94,200758
1.9208,0.4252,39.3500,83,94,200761
1.9648,0.4497,39.2800,83,94,200765
1.9844,0.4399,39.3800,83,94,200768
1.9990,0.4350,39.2800,83,94,200771
1.9941,0.4350,39.3800,83,94,200775
1.9941,0.4350,39.4100,83,94,200778
2.0235,0.4448,39.1900,83,94,200781
1.9941,0.4350,39.3800,83,94,200785
2.0332,0.4448,39.3200,83,94,200788
2.0186,0.4301,39.3200,83,94,200792
2.0235,0.4301,39.3800,83,94,200796
2.0283,0.4399,39.1200,83,94,200799
1.9990,0.4301,39.3500,83,94,200802
2.0283,0.4350,39.2200,83,94,200805
2.0088,0.4350,39.2200,83,94,200809
2.0137,0.4350,39.3500,83,94,200812
2.0283,0.4497,39.3200,83,94,200815
1.9990,0.4350,39.4100,83,94,200819
2.0186,0.4448,39.1900,83,94,200822
1.9648,0.4350,39.3500,83,94,200825
1.9795,0.4350,39.3800,83,94,200829
2.0039,0.4448,39.3200,83,94,200833
1.9844,0.4252,39.3800,83,94,200836
2.0283,0.4497,39.1200,83,94,200839
1.9795,0.4448,39.3200,83,94,200843
1.9648,0.4301,39.3800,83,94,200846
1.9746,0.4399,39.3800,83,94,200849
1.9746,0.4350,39.3800,83,94,200853
2.0283,0.4545,39.1900,83,94,200856
1.9697,0.4448,39.3500,83,94,200859
1.9550,0.4350,39.3200,83,94,200863
1.9404,0.4350,39.3800,83,94,200866
1.9453,0.4301,39.3800,83,94,200869
1.9941,0.4448,39.2500,83,94,200873
1.9599,0.4497,39.3500,83,94,200877
1.9648,0.4399,39.2500,83,94,200880
1.9257,0.4350,39.4100,83,94,200883
1.9257,0.4399,39.4400,83,94,200887
1.9404,0.4350,39.3500,83,94,200890
1.9257,0.4203,39.3800,83,94,200893
1.9501,0.4399,39.2800,83,94,200897
1.9013,0.4594,39.3800,83,94,200900
1.8964,0.4350,39.4100,83,94,200903
1.9110,0.4448,39.1900,83,94,200907
1.8964,0.4350,39.3800,83,94,200910
1.9355,0.4399,39.5100,83,94,200913
1.9110,0.4350,39.3200,83,94,200918
1.8768,0.4350,39.3800,83,94,200921
1.9110,0.4497,39.2800,83,94,200924
1.8622,0.4252,39.4100,83,94,200928
1.9257,0.4497,39.1200,83,94,200931
1.8964,0.4350,39.2500,83,94,200934
1.8671,0.4301,38.6200,83,94,200937
1.8524,0.4301,39.3800,83,94,200941
1.8377,0.4350,39.3800,83,94,200944
1.8915,0.4594,39.0900,83,94,200947
1.8671,0.4399,39.3500,83,94,200951
1.8671,0.4252,39.3200,83,94,200954
1.8524,0.4301,39.3800,83,94,200957
1.8377,0.4350,39.4400,83,94,200962
1.8671,0.4497,39.2500,83,94,200965
1.8377,0.4399,39.3800,83,94,200968
1.8719,0.4399,39.3800,83,94,200972
1.8719,0.4301,39.4400,83,94,200975
1.8524,0.4301,39.4400,83,94,200978
1.8671,0.4448,39.2200,83,94,200981
1.8328,0.4350,39.4400,83,94,200985
1.8768,0.4448,39.2800,83,94,200988
1.8768,0.4301,39.3200,83,94,200991
1.8719,0.4301,39.3800,83,94,200995
1.8817,0.4399,39.2800,83,94,200998
1.8573,0.4350,39.3800,83,94,201001
1.8817,0.4399,39.2200,83,94,201006
1.8719,0.4448,39.3200,83,94,201009
1.8817,0.4252,39.3800,83,94,201012
1.8964,0.4448,39.3200,83,94,201016
1.8768,0.4252,39.3800,83,94,201019
1.9062,0.4448,39.2200,83,94,201022
1.8719,0.4252,39.3200,83,94,201026
1.8915,0.4301,39.4100,83,94,201029
1.9404,0.4301,39.3500,83,94,201032
1.9257,0.4350,39.3500,83,94,201035
1.9892,0.4594,39.1200,83,94,201039
1.9550,0.4399,39.3200,83,94,201042
1.9501,0.4301,39.3500,83,94,201046
1.9746,0.4252,39.3800,83,94,201050
1.9795,0.4301,39.4800,83,94,201053
2.0577,0.4448,39.2200,83,94,201056
1.9844,0.4399,39.2800,83,94,201060
1.9746,0.4350,39.2500,83,94,201063
1.9599,0.4350,39.3800,83,94,201066
1.9746,0.4350,39.4100,83,94,201070
2.0283,0.4399,39.2500,83,94,201073
2.0137,0.4350,39.3800,83,94,201076
2.0430,0.4399,39.2800,83,94,201079
2.0186,0.4350,39.3800,83,94,201083
2.0186,0.4350,39.3800,83,94,201086
2.0186,0.4350,39.2800,83,94,201090
1.9844,0.4545,39.3800,83,94,201094
1.9795,0.4350,39.2500,83,94,201097
1.9159,0.4399,39.3800,83,94,201100
1.8915,0.4350,39.3800,83,94,201104
1.9062,0.4497,39.2800,83,94,201107
1.8866,0.4350,39.4100,83,94,201110
1.9159,0.4448,39.1600,83,94,201114
1.9110,0.4350,39.2800,83,94,201117
1.8475,0.4350,39.5100,83,94,201120
1.8426,0.4448,39.3200,83,94,201123
1.8231,0.4350,39.3800,83,94,201127
1.8768,0.4497,39.1200,83,94,201131
1.8524,0.4399,39.3500,83,94,201134
1.8280,0.4301,39.3500,83,94,201138
1.8182,0.4350,39.3800,83,94,201141
1.8035,0.4350,39.3800,83,94,201144
1.8622,0.4545,39.1900,83,94,201148
1.8328,0.4399,39.3500,83,94,201151
1.8328,0.4350,38.6500,83,94,201154
1.8133,0.4301,39.3800,83,94,201158
1.8035,0.4350,39.3500,83,94,201161
1.8328,0.4497,39.3200,83,94,201164
1.8426,0.4350,39.3800,83,94,201167
1.8573,0.4399,39.2500,83,94,201171
1.8475,0.4350,39.4400,83,94,201175
1.8377,0.4350,39.3800,83,94,201178
1.8475,0.4448,39.3200,83,94,201182
1.7840,0.4252,39.3800,83,94,201185
1.7889,0.4448,39.2800,83,94,201188
1.7302,0.4301,39.3200,83,94,201192
1.6813,0.4301,39.3800,83,94,201195
1.6276,0.4448,39.2500,83,94,201198
1.5543,0.4350,39.4100,83,94,201202
1.5885,0.4497,39.1600,83,94,201205
1.6667,0.4399,39.3500,83,94,201208
1.8328,0.4350,39.4100,83,94,201212
2.0968,0.4350,39.3200,83,94,201216
2.3412,0.4350,39.4100,83,94,201219
2.5709,0.4497,39.1600,83,94,201222
2.5562,0.4350,39.3200,83,94,201226
2.4927,0.4301,39.4400,83,94,201229
2.4242,0.4399,39.3800,83,94,201232
2.3314,0.4350,39.4100,83,94,201236
2.2874,0.4643,39.1600,83,94,201239
2.1212,0.4252,39.3500,83,94,201242
1.9892,0.4301,39.3500,83,94,201246
1.9208,0.4350,39.3500,83,94,201249
1.8573,0.4350,39.3800,83,94,201252
1.8475,0.4497,39.2200,83,94,201256
1.7644,0.4399,39.3500,83,94,201260
1.7400,0.4399,39.3200,83,94,201263
1.7449,0.4399,39.4400,83,94,201266
1.7204,0.4350,39.3800,83,94,201270
1.7595,0.4497,39.2200,83,94,201273
1.7400,0.4350,39.3800,83,94,201276
1.7498,0.4448,39.3200,83,94,201280
1.7351,0.4350,39.3800,83,94,201283
1.7155,0.4350,38.6500,83,94,201286
1.7498,0.4545,39.2800,83,94,201290
1.7595,0.4350,39.4100,83,94,201293
1.7840,0.4399,39.2500,83,94,201296
1.7449,0.4350,39.4100,83,94,201300
1.7546,0.4350,39.3500,83,94,201304
1.7742,0.4399,39.3200,83,94,201307
1.7693,0.4350,39.4100,83,94,201311
1.8182,0.4399,39.1600,83,94,201314
1.7889,0.4399,39.3200,83,94,201317
1.7595,0.4350,39.3800,83,94,201320
1.7742,0.4399,39.3500,83,94,201324
1.7644,0.4350,39.3800,83,94,201327
1.8280,0.4497,39.1200,83,94,201330
1.7986,0.4448,39.2500,83,94,201335
1.7937,0.4350,39.4100,83,94,201338
1.8133,0.4399,39.3200,83,94,201342
1.7791,0.4350,39.4100,83,94,201346
1.7595,0.4301,39.3800,83,94,201349
1.7693,0.4399,39.3200,83,94,201353
1.7546,0.4350,39.4400,83,94,201356
1.8035,0.4545,39.3200,83,94,201359
1.7742,0.4350,39.3800,83,94,201363
1.7742,0.4350,39.4100,83,94,201366
1.7986,0.4448,39.3200,83,94,201369
1.7595,0.4350,39.3800,83,94,201373
1.7937,0.4350,39.2200,83,94,201376
1.7889,0.4448,39.2800,83,94,201379
1.7693,0.4643,39.3800,83,94,201382
1.7840,0.4448,39.3500,83,94,201387
1.7449,0.4350,39.4100,83,94,201390
1.7791,0.4252,39.1600,83,94,201393
1.7693,0.4399,39.3200,83,94,201397
1.7742,0.4252,39.3800,83,94,201400
1.7742,0.4350,39.3500,83,94,201403
1.7498,0.4252,39.3800,83,94,201407
1.7840,0.4594,39.1600,83,94,201410
1.7595,0.4448,39.3500,83,94,201413
1.7595,0.4252,39.3200,83,94,201417
1.7644,0.4350,39.3800,83,94,201420
1.7644,0.4350,39.3800,83,94,201423
1.7889,0.4497,39.3200,83,94,201427
1.7546,0.4350,39.3800,83,94,201431
1.7742,0.4399,39.5100,83,94,201434
1.7693,0.4252,39.3800,83,94,201437
1.7791,0.4301,39.4100,83,94,201441
1.8133,0.4448,39.2500,83,94,201444
1.7742,0.4350,39.3800,83,94,201447
1.8035,0.4448,39.2800,83,94,201451
1.7986,0.4350,39.3200,83,94,201454
1.8231,0.4301,39.4100,83,94,201457
1.8524,0.4399,39.2500,83,94,201461
1.8475,0.4643,39.3800,83,94,201464
1.8768,0.4399,39.2200,83,94,201467
1.8573,0.4301,39.3200,83,94,201472
1.8671,0.4252,39.3800,83,94,201475
1.9110,0.4399,39.3800,83,94,201478
1.9110,0.4252,39.3800,83,94,201482
1.9599,0.4448,39.1600,83,94,201485
1.9062,0.4643,39.3200,83,94,201488
1.9110,0.4252,39.3800,83,94,201491
1.9257,0.4399,39.3500,83,94,201495
1.9355,0.4252,39.3800,83,94,201498
1.9990,0.4545,39.1200,83,94,201501
1.9550,0.4350,39.3500,83,94,201505
1.9404,0.4350,39.3200,83,94,201508
1.9257,0.4448,39.3800,83,94,201511
1.9306,0.4350,39.3800,83,94,201516
1.9795,0.4448,39.1600,83,94,201519
1.9501,0.4350,39.3500,83,94,201522
1.9453,0.4399,39.3800,83,94,201526
1.9062,0.4350,39.3800,83,94,201529
1.8915,0.4350,39.3800,83,94,201532
1.9257,0.4399,39.2800,83,94,201536
1.9062,0.4252,39.3800,83,94,201539
1.9306,0.4448,39.2200,83,94,201542
1.8866,0.4301,39.4400,83,94,201545
1.8817,0.4350,39.6000,83,94,201549
1.8915,0.4448,39.3200,83,94,201552
1.8866,0.4350,39.3800,83,94,201555
1.9306,0.4399,39.2800,83,94,201560
1.9062,0.4350,39.3800,83,94,201563
1.8964,0.4350,39.4100,83,94,201566
1.9013,0.4692,39.3200,83,94,201570
1.8768,0.4350,39.3800,83,94,201573
1.9257,0.4497,39.1600,83,94,201576
1.9062,0.4399,39.3200,83,94,201580
1.8817,0.4301,39.6400,83,94,201583
1.8866,0.4399,39.3500,83,94,201586
1.8622,0.4350,38.6800,83,94,201589
1.9159,0.4594,39.1200,83,94,201593
1.8915,0.4448,39.2800,83,94,201596
1.8768,0.4350,39.3500,83,94,201600
1.8719,0.4350,39.3800,83,94,201604
1.8524,0.4350,39.3800,83,94,201607
1.9110,0.4497,39.2200,83,94,201610
1.8524,0.4350,39.4100,83,94,201614
1.8768,0.4350,39.2800,83,94,201617
1.8719,0.4252,39.4100,83,94,201620
1.8622,0.4350,39.3800,83,94,201624
1.8671,0.4448,39.3500,83,94,201627
1.8377,0.4350,39.3500,83,94,201630
1.8622,0.4497,39.2500,83,94,201634
1.8524,0.4350,39.3800,83,94,201637
1.8866,0.4350,39.3800,83,94,201640
1.8817,0.4448,39.2800,83,94,201644
1.8377,0.4399,39.3800,83,94,201648
1.8622,0.4399,39.2500,83,94,201651
1.8573,0.4399,39.2500,83,94,201654
1.8719,0.4350,39.3800,83,94,201658
1.8866,0.4448,39.2500,83,94,201661
1.8817,0.4301,39.4400,83,94,201664
1.8817,0.4448,39.1600,83,94,201668
1.8475,0.4399,39.2800,83,94,201671
1.8573,0.4350,39.3800,83,94,201674
1.8817,0.4399,39.3200,83,94,201678
1.8719,0.4350,39.3800,83,94,201681
1.9159,0.4252,39.0900,83,94,201684
1.8573,0.4399,39.3500,83,94,201688
1.8475,0.4350,39.4400,83,94,201692
1.8573,0.4350,39.3500,83,94,201695
1.8671,0.4399,39.4100,83,94,201698
1.9208,0.4497,39.2200,83,94,201702
1.8719,0.4301,39.3500,83,94,201705
1.8817,0.4301,39.2800,83,94,201708
1.8524,0.4350,39.3800,83,94,201712
1.8768,0.4350,39.3800,83,94,201715
1.9013,0.4448,39.2200,83,94,201718
1.8719,0.4301,39.3800,83,94,201722
1.8768,0.4252,39.2500,83,94,201725
1.8475,0.4301,39.2200,83,94,201729
1.8426,0.4399,39.3800,83,94,201733
1.8817,0.4399,39.2800,83,94,201736
1.8719,0.4350,39.2200,83,94,201739
1.9110,0.4399,39.2500,83,94,201742
1.8768,0.4350,39.4400,83,94,201746
1.8719,0.4399,39.3800,83,94,201749
1.8964,0.4399,39.2800,83,94,201752
1.8964,0.4350,39.3500,83,94,201756
1.9404,0.4545,39.1600,83,94,201759
1.9110,0.4301,39.3500,83,94,201762
1.9062,0.4399,39.3800,83,94,201766
1.9208,0.4399,39.3500,83,94,201769
1.9013,0.4497,39.4100,83,94,201773
1.9501,0.4448,39.1600,83,94,201777
1.9208,0.4399,39.3200,83,94,201780
1.8964,0.4301,39.4100,83,94,201783
1.8915,0.4399,39.3500,83,94,201786
1.8719,0.4350,39.5100,83,94,201790
1.9404,0.4594,39.1600,83,94,201793
1.9257,0.4399,39.2800,83,94,201796
1.9208,0.4301,39.3200,83,94,201800
1.9208,0.4301,39.3800,83,94,201803
1.8622,0.4350,39.3800,83,94,201806
1.8671,0.4643,39.2200,83,94,201810
1.8182,0.4399,39.3800,83,94,201814
1.8328,0.4350,39.3200,83,94,201817
1.8182,0.4252,39.3800,83,94,201821
1.8035,0.4252,39.4100,83,94,201824
1.7986,0.4399,39.3200,83,94,201827
1.7546,0.4350,39.3500,83,94,201830
1.7742,0.4888,39.2800,83,94,201834
1.7449,0.4350,38.6800,83,94,201837
1.7498,0.4350,39.3500,83,94,201840
1.7644,0.4399,39.2800,83,94,201844
1.7155,0.4350,39.3800,83,94,201847
1.7302,0.4497,39.2200,83,94,201850
1.7155,0.4448,39.1200,83,94,201854
1.7155,0.4350,39.3800,83,94,201858
1.7449,0.4448,39.2800,83,94,201861
1.7253,0.4301,39.3800,83,94,201865
1.7595,0.4448,39.1200,83,94,201868
1.7253,0.4399,39.3200,83,94,201871
1.7302,0.4252,39.4100,83,94,201875
1.7546,0.4350,39.3500,83,94,201878
1.7546,0.4399,39.3800,83,94,201881
1.8035,0.4545,39.0900,83,94,201884
1.7498,0.4399,39.3800,83,94,201888
1.7351,0.4301,39.3500,83,94,201891
1.7351,0.4399,39.3800,83,94,201894
1.7546,0.4399,39.3800,83,94,201899
1.7400,0.4497,39.3800,83,94,201902
1.6667,0.4350,39.3800,83,94,201905
1.6422,0.4399,39.2800,83,94,201909
1.5787,0.4350,39.3800,83,94,201912
1.5494,0.4399,39.3800,83,94,201915
1.5543,0.4448,39.2200,83,94,201919
1.5689,0.4399,39.3800,83,94,201922
1.6618,0.4448,39.2500,83,94,201925
1.7986,0.4399,39.3500,83,94,201928
2.0430,0.4301,39.4400,83,94,201932
2.3216,0.4350,39.2800,83,94,201935
2.4536,0.4350,39.3500,83,94,201938
2.4976,0.4399,39.2200,83,94,201943
2.0479,0.4497,39.1600,83,94,201947
1.8768,0.4350,39.4100,83,94,201951
1.7742,0.4350,39.4100,83,94,201954
1.7009,0.4252,39.3500,83,94,201957
1.6471,0.4350,39.3800,83,94,201961
1.6667,0.4594,39.1200,83,94,201964
1.6227,0.4399,39.3500,83,94,201967
1.6031,0.4350,39.3500,83,94,201971
1.5934,0.4350,39.3800,83,94,201974
1.5836,0.4350,39.3800,83,94,201977
1.6422,0.4448,39.2200,83,94,201980
