ecg,gsr,temp,hr,spo2,timest
1.7449,0.3959,37.7400,92,90,96323
1.7302,0.3861,37.5600,92,90,96327
1.7986,0.3910,37.3100,92,90,96330
1.8133,0.3666,37.5300,92,90,96333
1.7986,0.3861,37.5300,92,90,96336
1.7742,0.3959,37.4600,92,90,96340
1.7204,0.3861,37.5600,92,90,96344
1.7693,0.3959,37.2800,92,90,96347
1.7937,0.3910,37.4300,92,90,96350
1.8231,0.3861,37.5300,92,90,96354
1.8377,0.3959,37.5900,92,90,96357
1.7742,0.3861,37.5600,92,90,96360
1.7693,0.3959,37.2800,92,90,96363
1.7498,0.3910,37.4300,92,90,96367
1.7791,0.3861,37.5600,92,90,96370
1.8280,0.3959,37.4300,92,90,96373
1.8084,0.3861,37.5300,92,90,96376
1.7986,0.3910,37.3100,92,90,96380
1.7498,0.3861,37.7100,92,90,96384
1.7840,0.3861,37.5600,92,90,96387
1.8915,0.3910,37.4300,92,90,96390
1.8817,0.3910,37.5600,92,90,96394
1.8915,0.3910,37.5900,92,90,96397
1.8377,0.3910,37.4300,92,90,96400
1.8426,0.3910,37.5300,92,90,96403
1.9599,0.3959,37.4000,92,90,96407
2.0870,0.3861,37.5600,92,90,96410
2.2190,0.3812,37.3400,92,90,96413
2.1896,0.3861,37.5300,92,90,96416
2.0919,0.3861,37.5300,92,90,96419
1.9453,0.3910,37.4000,92,90,96423
1.7449,0.3910,37.5300,92,90,96427
1.6031,0.3861,37.3400,92,90,96430
1.4809,0.3861,37.5300,92,90,96433
1.4516,0.3763,37.5300,92,90,96437
1.5054,0.3910,37.4300,92,90,96440
1.5591,0.3861,37.5600,92,90,96443
1.6813,0.3861,37.3400,92,90,96446
1.7937,0.3861,37.4600,92,90,96450
1.8866,0.3861,37.4900,92,90,96453
1.9306,0.3910,37.3700,92,90,96456
1.8768,0.3910,37.5300,92,90,96459
1.8573,0.3910,37.3400,92,90,96463
1.8280,0.3812,37.4900,92,90,96466
1.8622,0.3861,37.5300,92,90,96470
1.9257,0.3910,37.4300,92,90,96473
1.8964,0.3910,37.5300,92,90,96477
1.8817,0.3910,37.4600,92,90,96480
1.8182,0.3959,37.5300,92,90,96483
1.8084,0.3861,37.5600,92,90,96486
1.8817,0.4154,37.4000,92,90,96490
1.9013,0.3861,37.5600,92,90,96493
1.9306,0.3861,37.3700,92,90,96496
1.8866,0.3861,37.4900,92,90,96499
1.8280,0.3861,37.4000,92,90,96503
1.8475,0.3910,37.4000,92,90,96506
1.8671,0.3861,37.5300,92,90,96509
1.9599,0.3910,37.4000,92,90,96513
1.9013,0.3861,37.5300,92,90,96517
1.8573,0.3861,37.6200,92,90,96520
1.8231,0.3861,37.4300,92,90,96523
1.8182,0.3861,37.5300,92,90,96526
1.8964,0.3812,37.4000,92,90,96530
1.9159,0.3910,37.5600,92,90,96533
1.9306,0.3861,37.5600,92,90,96536
1.9208,0.3959,37.4300,92,90,96539
1.8622,0.3861,37.5300,92,90,96543
1.8817,0.3959,37.4000,92,90,96546
1.8866,0.3812,37.5300,92,90,96549
1.9355,0.3666,37.5600,92,90,96552
1.9550,0.3910,37.4300,92,90,96557
1.9013,0.3861,37.6500,92,90,96560
1.8866,0.3959,37.4300,92,90,96563
1.8671,0.3666,37.5600,92,90,96566
1.9013,0.3812,37.5600,92,90,96570
1.9550,0.3861,37.4000,92,90,96573
1.9501,0.3861,37.5600,92,90,96576
1.9404,0.3910,37.4000,92,90,96579
1.8768,0.3861,37.4600,92,90,96583
1.8915,0.3861,37.5600,92,90,96586
1.9697,0.3959,37.4000,92,90,96589
1.9941,0.3763,37.5300,92,90,96592
2.0283,0.3861,37.4000,92,90,96596
1.9697,0.3861,37.5600,92,90,96600
1.9404,0.3861,37.5600,92,90,96603
1.9697,0.3812,37.4300,92,90,96606
1.9941,0.3861,37.5300,92,90,96610
2.0674,0.3910,37.4000,92,90,96613
2.0577,0.3763,37.5600,92,90,96616
2.0381,0.3959,37.5300,92,90,96619
2.0283,0.3910,37.4300,92,90,96623
2.0137,0.3910,37.5600,92,90,96626
2.0821,0.3910,37.4000,92,90,96629
2.1065,0.3861,37.5300,92,90,96632
2.1163,0.3910,37.5600,92,90,96635
2.1212,0.3959,37.1900,92,90,96640
2.0626,0.3861,37.5900,92,90,96643
2.0772,0.3861,37.4000,92,90,96646
2.0821,0.3861,37.5300,92,90,96649
2.1261,0.3861,37.5300,92,90,96653
2.1554,0.3861,37.4000,92,90,96656
2.0919,0.3959,37.4900,92,90,96659
2.0381,0.3861,37.4300,92,90,96662
1.9941,0.3666,37.5300,92,90,96666
1.9941,0.3861,37.5600,92,90,96669
2.0283,0.3861,37.4600,92,90,96672
1.9795,0.3861,37.4000,92,90,96675
1.9159,0.3910,37.4300,92,90,96679
1.8231,0.3861,37.5300,92,90,96683
1.7986,0.3763,37.5600,92,90,96686
1.7986,0.4154,37.3700,92,90,96689
1.6276,0.3910,37.4300,92,90,96694
1.6422,0.3910,37.5300,92,90,96697
1.6911,0.3959,37.4000,92,90,96701
1.6618,0.3861,37.3400,92,90,96704
1.6178,0.3861,37.5600,92,90,96707
1.5836,0.3910,37.4600,92,90,96710
1.5689,0.4350,37.5300,92,90,96714
1.6276,0.3959,37.4300,92,90,96717
1.6373,0.3861,37.5600,92,90,96720
1.6422,0.3861,37.5600,92,90,96723
1.6276,0.3959,37.4000,92,90,96728
1.5885,0.3861,37.5300,92,90,96731
1.5787,0.4057,37.4000,92,90,96734
1.5934,0.3812,37.4900,92,90,96737
1.6471,0.3666,37.5600,92,90,96741
1.6862,0.3910,37.4300,92,90,96744
1.6276,0.3861,37.5300,92,90,96747
1.6178,0.3959,36.6400,92,90,96750
1.5982,0.3861,37.7100,92,90,96754
1.6422,0.3910,37.5600,92,90,96757
1.6911,0.3910,37.4600,92,90,96760
1.6911,0.4106,37.5300,92,90,96763
1.6764,0.3959,37.4000,92,90,96768
1.6178,0.3861,37.5300,92,90,96771
1.6520,0.3666,37.5600,92,90,96774
1.6862,0.3812,37.3700,92,90,96777
1.7107,0.3910,37.5300,92,90,96781
1.7302,0.3959,37.5600,92,90,96784
1.6667,0.3861,37.5300,92,90,96787
1.6569,0.3763,37.5300,92,90,96790
1.6520,0.3910,37.4300,92,90,96794
1.6764,0.3861,37.5300,92,90,96797
1.7498,0.3959,37.3700,92,90,96800
1.7302,0.3861,37.5300,92,90,96803
1.7009,0.3910,37.5300,92,90,96807
1.6764,0.3861,37.4600,92,90,96811
1.6716,0.3861,37.5300,92,90,96814
1.7400,0.3959,37.4000,92,90,96817
1.7449,0.4252,37.5600,92,90,96821
1.7546,0.3910,37.6500,92,90,96824
1.7546,0.3959,37.3700,92,90,96827
1.7009,0.3910,37.5600,92,90,96830
1.7107,0.4448,37.3700,92,90,96833
1.7302,0.3861,37.0400,92,90,96837
1.7742,0.3861,37.5300,92,90,96840
1.7986,0.3910,37.4300,92,90,96843
1.7449,0.3861,37.5300,92,90,96846
1.7204,0.3910,37.4300,92,90,96850
1.7009,0.3910,37.5600,92,90,96854
1.7449,0.3959,37.5300,92,90,96857
1.8084,0.3910,37.5600,92,90,96860
1.8035,0.3861,37.5300,92,90,96864
1.7742,0.3910,37.3700,92,90,96867
1.7155,0.4154,37.5300,92,90,96870
1.7107,0.3861,37.5600,92,90,96873
1.7791,0.3959,37.3700,92,90,96877
1.8377,0.3910,37.4900,92,90,96880
1.8231,0.3910,37.4000,92,90,96883
1.7693,0.3861,37.5600,92,90,96886
1.7253,0.3763,37.5600,92,90,96890
1.7498,0.4008,37.4000,92,90,96893
1.7742,0.3861,37.5300,92,90,96897
1.8426,0.3910,37.4300,92,90,96900
1.8133,0.3861,37.5600,92,90,96904
1.7791,0.3812,37.5300,92,90,96907
1.7644,0.3959,37.4300,92,90,96910
1.7351,0.3812,37.5300,92,90,96913
1.8084,0.3910,37.4300,92,90,96917
1.8475,0.3861,37.5600,92,90,96920
1.8524,0.3861,37.5900,92,90,96923
1.8671,0.3959,37.4300,92,90,96926
1.8133,0.3910,37.5300,92,90,96930
1.8328,0.3910,37.4300,92,90,96933
1.8280,0.3861,37.6200,92,90,96936
1.8573,0.3861,37.5600,92,90,96940
1.8719,0.3959,37.4000,92,90,96944
1.8133,0.3910,37.4900,92,90,96947
1.7742,0.3910,37.4000,92,90,96950
1.7449,0.3861,37.5300,92,90,96953
1.7644,0.3910,37.5600,92,90,96957
1.8231,0.3959,37.4000,92,90,96960
1.7937,0.3861,37.5300,92,90,96963
1.7498,0.3910,37.4300,92,90,96966
1.6911,0.3861,37.4900,92,90,96970
1.6911,0.3910,37.5300,92,90,96973
1.7644,0.3959,37.3400,92,90,96976
1.7937,0.3910,37.5300,92,90,96979
1.8035,0.3910,37.4300,92,90,96984
1.7693,0.3812,37.5300,92,90,96987
1.7302,0.3861,37.5600,92,90,96990
1.7644,0.3861,37.3700,92,90,96993
1.7693,0.3910,37.4900,92,90,96997
1.8035,0.4057,37.4000,92,90,97000
1.8035,0.3861,37.5300,92,90,97003
1.7644,0.3861,37.5300,92,90,97006
1.7546,0.4008,37.4300,92,90,97010
1.7155,0.3861,37.4600,92,90,97013
1.7351,0.3812,37.4600,92,90,97016
1.7742,0.3861,37.5300,92,90,97019
1.7791,0.3763,37.5600,92,90,97024
1.7889,0.4008,37.3400,92,90,97027
1.7204,0.3910,37.4900,92,90,97030
1.6960,0.3861,37.4600,92,90,97033
1.7253,0.3910,37.5300,92,90,97037
1.7644,0.3910,37.5600,92,90,97040
1.8182,0.4008,37.4000,92,90,97043
1.7546,0.3910,37.4600,92,90,97046
1.7009,0.3812,37.5900,92,90,97049
1.7107,0.3910,37.5300,92,90,97053
1.7791,0.3666,37.5600,92,90,97056
1.8719,0.4057,37.3400,92,90,97059
1.8475,0.3910,37.4600,92,90,97062
1.8133,0.3910,37.4900,92,90,97067
1.7595,0.3910,37.5300,92,90,97070
1.7986,0.3910,37.5900,92,90,97073
1.9844,0.4057,37.3400,92,90,97076
2.1065,0.3861,37.4300,92,90,97080
2.1603,0.3959,37.4600,92,90,97083
2.1359,0.3861,37.5300,92,90,97086
2.0088,0.3861,37.5300,92,90,97089
1.9208,0.4057,37.2200,92,90,97093
1.7302,0.3861,37.4300,92,90,97096
1.5689,0.3812,37.4900,92,90,97099
1.4418,0.3861,37.5300,92,90,97102
1.3930,0.3812,37.5600,92,90,97106
1.4761,0.4154,37.2800,92,90,97110
1.5543,0.4154,37.4900,92,90,97113
1.6862,0.3812,37.4900,92,90,97116
1.8231,0.3861,37.7100,92,90,97120
1.8866,0.3861,37.5600,92,90,97123
1.9404,0.4106,37.3100,92,90,97126
1.8573,0.4154,37.4300,92,90,97129
1.8328,0.3812,37.5600,92,90,97133
1.8671,0.3861,37.5300,92,90,97136
1.9355,0.3666,37.5600,92,90,97139
1.9599,0.4008,37.3100,92,90,97142
1.8866,0.3910,37.3700,92,90,97146
1.8328,0.3910,37.5300,92,90,97149
1.8182,0.3910,37.5300,92,90,97153
1.8475,0.4008,37.5600,92,90,97156
1.9404,0.4057,37.2500,92,90,97160
1.9110,0.3861,37.4600,92,90,97163
1.8622,0.3763,37.5300,92,90,97166
1.8573,0.3910,37.5300,92,90,97169
1.7986,0.3861,37.5300,92,90,97173
1.8817,0.4057,37.2800,92,90,97176
1.8915,0.3861,37.4300,92,90,97179
1.8817,0.3812,37.4900,92,90,97182
1.8622,0.3910,37.5300,92,90,97186
1.8084,0.3861,37.1300,92,90,97189
1.8377,0.4057,37.2800,92,90,97192
1.8377,0.3910,37.4300,92,90,97196
1.8719,0.3861,37.5300,92,90,97200
1.8915,0.3861,37.4900,92,90,97203
1.8573,0.3861,37.4900,92,90,97206
1.8622,0.4008,37.2500,92,90,97209
1.8524,0.3910,37.4300,92,90,97213
1.8377,0.4203,37.5300,92,90,97216
1.8964,0.3959,37.4900,92,90,97219
1.9013,0.3861,37.5900,92,90,97222
1.9257,0.4008,37.2500,92,90,97226
1.8426,0.3910,37.4300,92,90,97229
1.8084,0.3861,37.5900,92,90,97232
1.8475,0.3861,37.5300,92,90,97235
1.8866,0.3861,37.5600,92,90,97240
1.9892,0.3959,37.2200,92,90,97243
1.8915,0.3910,37.4300,92,90,97246
1.8426,0.3959,37.5300,92,90,97249
1.8475,0.3861,37.4900,92,90,97253
1.8866,0.3861,37.5600,92,90,97256
1.9844,0.3959,37.2500,92,90,97259
1.9795,0.3959,37.4300,92,90,97262
1.9453,0.3861,37.5300,92,90,97266
1.9208,0.4057,37.5300,92,90,97269
1.9110,0.3861,37.5300,92,90,97272
1.9990,0.3959,37.2500,92,90,97275
2.0235,0.3910,37.4300,92,90,97280
2.0381,0.3861,37.6800,92,90,97283
2.0332,0.3910,37.4900,92,90,97286
1.9941,0.3861,37.4600,92,90,97289
2.0479,0.3959,37.2200,92,90,97293
2.0479,0.3861,37.4600,92,90,97296
2.1017,0.3861,37.5600,92,90,97299
2.1408,0.3861,37.4000,92,90,97302
2.1408,0.3910,37.5600,92,90,97307
2.1652,0.3861,37.5300,92,90,97310
2.1848,0.4057,37.3400,92,90,97313
2.0968,0.3959,37.4600,92,90,97317
2.0479,0.3763,37.4900,92,90,97320
2.0577,0.3861,37.5300,92,90,97324
2.0577,0.3861,37.5600,92,90,97327
2.0821,0.4301,37.3700,92,90,97331
1.9599,0.3910,37.4600,92,90,97334
1.8671,0.3812,37.4900,92,90,97337
1.8182,0.3910,37.5600,92,90,97340
1.8084,0.3812,37.5600,92,90,97344
1.8622,0.4057,37.3100,92,90,97347
1.8035,0.3910,37.4600,92,90,97350
1.7253,0.4057,37.4900,92,90,97353
1.6667,0.4154,37.5600,92,90,97357
1.6373,0.3861,36.9800,92,90,97360
1.6911,0.4057,37.2800,92,90,97363
1.6911,0.3861,37.4600,92,90,97367
1.7009,0.3763,37.5300,92,90,97371
1.6422,0.4399,37.5300,92,90,97374
1.5787,0.3861,37.5600,92,90,97377
1.6080,0.4106,37.2800,92,90,97380
1.6031,0.3812,37.4000,92,90,97384
1.6373,0.3812,37.5300,92,90,97387
1.6569,0.3861,37.5300,92,90,97390
1.6276,0.3812,37.5600,92,90,97393
1.6422,0.4057,37.2800,92,90,97397
1.5982,0.3910,37.4000,92,90,97400
1.6178,0.3812,37.5600,92,90,97403
1.6764,0.3861,37.5300,92,90,97406
1.6960,0.3861,37.5300,92,90,97411
1.7009,0.4057,37.2500,92,90,97414
1.6227,0.3861,37.4000,92,90,97417
1.6031,0.3812,37.5300,92,90,97420
1.6422,0.3910,37.4900,92,90,97424
1.6862,0.3861,37.5300,92,90,97427
1.7498,0.3959,37.2500,92,90,97430
1.6813,0.3812,37.4000,92,90,97433
1.6325,0.3812,37.4900,92,90,97437
1.6178,0.3910,37.4900,92,90,97440
1.6520,0.4106,37.5300,92,90,97443
1.7449,0.3959,37.2500,92,90,97446
1.7351,0.3910,37.4300,92,90,97451
1.6960,0.3812,37.5600,92,90,97454
1.6471,0.3910,37.4900,92,90,97457
1.6276,0.3861,37.5900,92,90,97460
1.7009,0.3959,37.2200,92,90,97464
1.7155,0.3861,37.4300,92,90,97467
1.7204,0.3910,37.5900,92,90,97470
1.7107,0.3861,37.4300,92,90,97473
1.6667,0.3910,37.5600,92,90,97477
1.7107,0.3959,37.2200,92,90,97480
1.7204,0.3910,37.4300,92,90,97483
1.7840,0.3861,37.6500,92,90,97486
1.8377,0.3861,37.4900,92,90,97490
1.8231,0.3861,37.5300,92,90,97494
1.8622,0.4008,37.2500,92,90,97497
1.8328,0.3910,37.4000,92,90,97500
1.8377,0.3861,37.5600,92,90,97504
1.8817,0.3910,37.4900,92,90,97507
1.8475,0.3763,37.5300,92,90,97510
1.8328,0.4008,37.2800,92,90,97513
1.7351,0.3861,37.1000,92,90,97517
1.7058,0.3812,37.5900,92,90,97520
1.7400,0.3910,37.4900,92,90,97523
1.7546,0.3861,37.6500,92,90,97526
1.7937,0.4008,37.2200,92,90,97530
1.7155,0.3812,37.4600,92,90,97533
1.6667,0.4106,37.5300,92,90,97537
1.6618,0.3910,37.4900,92,90,97540
1.6764,0.3861,37.5600,92,90,97544
1.7595,0.3959,37.2500,92,90,97547
1.7498,0.3910,37.4300,92,90,97550
1.7009,0.3861,37.5300,92,90,97553
1.6764,0.3910,37.4000,92,90,97557
1.6618,0.3861,37.5600,92,90,97560
1.7155,0.4008,37.2500,92,90,97563
1.7351,0.3910,37.4600,92,90,97566
1.7449,0.3861,37.5900,92,90,97570
1.7253,0.3861,37.4900,92,90,97573
1.6764,0.3861,37.5300,92,90,97576
1.7058,0.4008,37.2500,92,90,97580
1.7009,0.3812,37.4900,92,90,97584
1.7546,0.3861,37.5600,92,90,97587
1.7889,0.3910,37.4900,92,90,97590
1.7742,0.3861,37.5600,92,90,97593
1.7498,0.4008,37.2500,92,90,97597
1.7204,0.3910,37.4300,92,90,97600
1.7351,0.3861,37.5600,92,90,97603
1.7791,0.3861,37.4600,92,90,97606
1.7840,0.3763,37.5300,92,90,97610
1.8377,0.3959,37.2800,92,90,97613
1.8573,0.3861,37.4300,92,90,97616
1.9599,0.3861,37.5600,92,90,97619
2.1359,0.3910,37.4900,92,90,97624
2.1505,0.3812,37.5300,92,90,97627
2.1554,0.3959,37.2800,92,90,97630
1.9599,0.3763,37.5300,92,90,97633
1.7595,0.3861,37.5600,92,90,97637
1.5200,0.3861,37.4900,92,90,97640
1.3685,0.3861,37.5900,92,90,97643
1.3832,0.3861,37.2500,92,90,97646
1.4761,0.3861,37.4300,92,90,97650
1.5591,0.3812,37.5600,92,90,97653
1.6764,0.3910,37.4900,92,90,97656
1.7253,0.3861,37.5600,92,90,97659
1.8524,0.3959,37.2800,92,90,97664
1.9062,0.3861,37.4900,92,90,97667
1.9208,0.4106,37.5600,92,90,97670
1.9159,0.3959,37.5300,92,90,97673
1.8475,0.3861,37.5600,92,90,97677
1.8622,0.4008,37.3100,92,90,97680
1.8524,0.4106,37.4900,92,90,97683
1.8915,0.3861,37.7700,92,90,97686
1.9208,0.3959,37.4600,92,90,97690
1.8622,0.3910,37.5600,92,90,97693
1.8573,0.3959,37.2500,92,90,97696
1.8133,0.3910,37.4300,92,90,97699
1.8328,0.3861,37.5600,92,90,97703
1.9062,0.3959,37.4300,92,90,97707
1.9013,0.3861,37.5600,92,90,97710
1.9013,0.3959,37.2800,92,90,97713
1.8231,0.4154,37.4900,92,90,97717
1.7937,0.3861,37.6200,92,90,97720
1.8377,0.3861,37.4600,92,90,97723
1.8622,0.3763,37.5300,92,90,97726
1.9110,0.4203,37.2800,92,90,97730
1.8475,0.4057,37.5600,92,90,97733
1.8084,0.3861,37.5600,92,90,97736
1.8133,0.3861,37.4600,92,90,97739
1.8280,0.3861,37.5600,92,90,97743
1.9110,0.3910,37.3100,92,90,97746
1.9062,0.3861,37.4300,92,90,97750
1.8719,0.3861,37.5300,92,90,97753
1.8475,0.4008,37.4300,92,90,97757
1.8133,0.3910,37.5300,92,90,97760
1.8817,0.3910,37.3400,92,90,97763
1.9110,0.3861,37.4900,92,90,97766
1.9648,0.3861,37.5600,92,90,97770
1.9306,0.3959,37.4600,92,90,97773
1.8719,0.3861,37.5600,92,90,97776
1.8817,0.3910,37.3700,92,90,97779
1.8817,0.3861,37.5600,92,90,97783
1.9306,0.4203,37.5600,92,90,97786
1.9697,0.3910,37.4000,92,90,97789
1.9306,0.3861,37.5600,92,90,97793
1.9208,0.3959,37.3100,92,90,97797
1.8915,0.3861,37.4300,92,90,97800
1.9306,0.3861,37.5600,92,90,97803
2.0137,0.3910,37.3700,92,90,97806
2.0430,0.3812,37.5600,92,90,97809
2.0381,0.3910,37.4300,92,90,97813
1.9844,0.3861,37.4900,92,90,97816
1.9746,0.3812,37.5300,92,90,97819
2.0283,0.3910,37.4600,92,90,97822
2.0723,0.3666,37.4900,92,90,97826
2.1261,0.3910,37.4000,92,90,97829
2.0919,0.3861,37.5600,92,90,97832
2.0968,0.3812,37.5600,92,90,97836
2.0723,0.4252,37.4300,92,90,97840
2.0870,0.3861,37.5300,92,90,97843
2.1603,0.3861,37.4000,92,90,97846
2.1603,0.3959,37.4600,92,90,97849
2.1457,0.3861,37.6800,92,90,97853
2.1114,0.3910,37.4300,92,90,97856
2.0626,0.3812,37.5300,92,90,97859
2.0968,0.3910,37.7100,92,90,97862
2.0919,0.3861,37.5600,92,90,97866
2.1114,0.3861,37.5600,92,90,97869
2.0283,0.4057,37.4000,92,90,97872
1.9404,0.3861,37.5600,92,90,97875
1.9159,0.3959,37.4000,92,90,97880
1.8671,0.3812,37.5300,92,90,97883
1.8719,0.3861,37.5600,92,90,97886
1.8817,0.3959,37.4900,92,90,97889
1.7937,0.3861,37.5300,92,90,97893
1.7742,0.3910,37.4000,92,90,97896
1.6618,0.3910,37.5300,92,90,97899
1.6520,0.3861,37.4900,92,90,97902
1.6960,0.3861,37.4300,92,90,97906
1.7058,0.3910,37.5300,92,90,97909
1.6520,0.3959,37.4000,92,90,97912
1.5689,0.3861,37.5600,92,90,97915
1.6325,0.3861,37.5300,92,90,97921
1.5982,0.3861,37.5600,92,90,97924
1.6031,0.3959,37.4300,92,90,97927
1.6178,0.3666,37.5600,92,90,97931
1.6911,0.4008,37.3400,92,90,97934
1.6911,0.3861,37.5600,92,90,97937
1.6569,0.3861,37.6200,92,90,97940
1.6373,0.3910,37.4000,92,90,97944
1.6080,0.3910,37.5600,92,90,97947
1.6569,0.3861,37.3700,92,90,97950
1.6911,0.3861,37.4900,92,90,97953
1.7155,0.3910,37.5600,92,90,97957
1.7058,0.3812,37.4000,92,90,97960
1.6471,0.3861,37.6200,92,90,97964
1.6618,0.3910,37.3100,92,90,97967
1.6569,0.3861,37.5600,92,90,97971
1.7058,0.3812,37.5300,92,90,97974
1.7546,0.3910,37.4300,92,90,97977
1.7155,0.3861,37.4900,92,90,97980
1.6911,0.3910,37.3700,92,90,97984
1.6520,0.3861,37.4300,92,90,97987
1.6764,0.3861,37.5600,92,90,97990
1.7449,0.3910,37.4900,92,90,97993
1.7546,0.3666,37.5600,92,90,97997
1.7546,0.3910,37.3400,92,90,98000
1.6960,0.3812,37.5600,92,90,98003
1.6862,0.3861,37.5600,92,90,98007
1.7595,0.3959,37.4000,92,90,98011
1.7693,0.3861,37.4600,92,90,98014
1.8182,0.3861,37.4000,92,90,98017
1.7742,0.3861,37.5600,92,90,98020
1.7302,0.3861,37.5300,92,90,98024
1.7302,0.3959,37.4900,92,90,98027
1.7302,0.3861,37.5300,92,90,98030
1.8035,0.3910,37.4000,92,90,98033
1.7840,0.3812,37.4600,92,90,98037
1.7595,0.3861,37.5600,92,90,98040
1.7253,0.3861,37.4300,92,90,98043
1.7009,0.3910,37.5600,92,90,98046
1.7546,0.3910,37.4900,92,90,98050
1.7937,0.3861,37.5300,92,90,98054
1.8133,0.3861,37.5600,92,90,98057
1.7986,0.3959,37.4300,92,90,98060
1.7546,0.3861,37.5600,92,90,98063
1.7889,0.4008,37.4000,92,90,98067
1.7937,0.3666,37.5600,92,90,98070
1.8622,0.3861,37.5600,92,90,98073
1.9404,0.3959,37.4000,92,90,98076
1.9159,0.3861,37.5600,92,90,98080
1.9159,0.4057,37.4300,92,90,98083
1.8915,0.3812,37.5600,92,90,98086
1.9208,0.3861,37.5600,92,90,98089
1.9844,0.3910,37.4300,92,90,98094
1.9795,0.4008,37.5300,92,90,98097
1.9550,0.3861,37.4300,92,90,98100
1.8524,0.3910,37.5600,92,90,98103
1.7986,0.3812,37.5300,92,90,98107
1.8035,0.3861,37.4300,92,90,98110
1.8133,0.3861,37.5300,92,90,98113
1.8280,0.3861,37.4000,92,90,98116
1.7937,0.3861,37.5600,92,90,98120
1.7009,0.4008,37.5600,92,90,98123
1.7009,0.3959,37.3700,92,90,98126
1.7009,0.3910,37.5300,92,90,98129
1.7595,0.4252,37.4000,92,90,98134
1.7546,0.3861,37.5600,92,90,98137
1.7302,0.3861,37.5600,92,90,98140
1.7009,0.3959,37.4600,92,90,98143
1.6520,0.3861,37.5300,92,90,98147
1.6862,0.3910,37.4000,92,90,98150
1.7204,0.3861,37.5600,92,90,98153
1.7449,0.3812,37.5600,92,90,98156
1.7498,0.3910,37.4900,92,90,98160
1.6960,0.3861,37.5600,92,90,98163
1.7107,0.3910,37.4000,92,90,98166
1.6960,0.3959,37.5600,92,90,98169
1.7449,0.3861,37.5900,92,90,98173
1.8035,0.3959,37.3700,92,90,98177
1.7595,0.3861,37.5600,92,90,98180
1.7351,0.3910,37.4000,92,90,98183
1.6764,0.3861,37.7400,92,90,98187
1.7058,0.3861,37.5600,92,90,98190
1.8231,0.3910,37.4300,92,90,98193
1.8182,0.3861,37.5900,92,90,98196
1.7937,0.3861,37.4900,92,90,98200
1.7107,0.3861,37.5600,92,90,98203
1.6960,0.3861,37.5600,92,90,98206
1.7937,0.4008,37.4900,92,90,98209
1.9404,0.3861,37.5900,92,90,98213
2.1505,0.3910,37.4000,92,90,98216
2.1848,0.3910,37.5600,92,90,98220
2.1652,0.3861,37.7700,92,90,98223
2.1114,0.3959,37.3700,92,90,98227
1.9599,0.3861,37.5300,92,90,98230
1.8231,0.3959,37.4300,92,90,98233
1.6325,0.3861,37.5300,92,90,98236
1.4761,0.3861,36.7600,92,90,98240
1.4321,0.3861,37.4000,92,90,98243
1.4712,0.3861,37.5300,92,90,98246
1.6031,0.3812,37.4000,92,90,98249
1.7400,0.3861,37.6500,92,90,98253
1.8328,0.3861,37.5600,92,90,98256
1.8964,0.3959,37.4300,92,90,98259
1.8524,0.3861,37.5600,92,90,98263
1.8328,0.3910,37.5600,92,90,98267
1.8280,0.3861,37.5600,92,90,98270
1.8719,0.3861,37.5600,92,90,98273
1.9453,0.3959,37.3400,92,90,98276
1.8671,0.3910,37.5300,92,90,98280
1.8231,0.3861,37.4000,92,90,98283
1.7840,0.3861,37.5600,92,90,98286
1.8182,0.3861,37.5300,92,90,98289
1.8866,0.4203,37.4000,92,90,98293
1.8964,0.3861,36.7000,92,90,98296
1.8866,0.3910,37.4300,92,90,98299
1.8328,0.3910,37.5300,92,90,98302
1.8133,0.4008,37.5600,92,90,98306
1.8622,0.3959,37.2500,92,90,98310
1.8671,0.3861,37.5600,92,90,98313
1.8964,0.3910,37.4300,92,90,98316
1.8866,0.3910,37.5600,92,90,98320
1.8231,0.3861,37.5900,92,90,98323
1.8280,0.4008,37.3700,92,90,98326
1.8280,0.3910,37.4900,92,90,98329
1.8671,0.3861,37.4600,92,90,98332
1.8915,0.3861,37.5600,92,90,98336
1.8768,0.3861,37.5600,92,90,98339
1.8866,0.3959,37.4000,92,90,98342
1.8426,0.3910,37.5600,92,90,98345
1.8573,0.3861,37.4900,92,90,98350
1.8866,0.3666,37.5600,92,90,98353
1.9453,0.3861,37.5600,92,90,98356
1.9501,0.4057,37.4000,92,90,98359
1.8671,0.3861,37.5300,92,90,98363
1.8328,0.3910,37.4600,92,90,98366
1.8524,0.3910,37.5300,92,90,98369
1.8964,0.3861,37.5900,92,90,98372
1.9795,0.3861,37.3400,92,90,98376
1.9404,0.3861,37.4600,92,90,98379
1.8817,0.3959,37.4600,92,90,98382
1.8524,0.3861,37.4600,92,90,98385
1.8671,0.3861,37.5600,92,90,98390
1.9795,0.4057,37.4300,92,90,98393
1.9795,0.4008,37.4600,92,90,98396
1.9648,0.3812,37.4900,92,90,98399
1.9404,0.3910,37.5600,92,90,98403
1.9062,0.3861,37.5600,92,90,98406
1.9892,0.4008,37.3700,92,90,98409
2.0039,0.3861,37.4900,92,90,98412
2.0235,0.3763,37.4900,92,90,98416
2.0283,0.3861,37.5300,92,90,98419
1.9892,0.3861,37.5600,92,90,98422
2.0332,0.4057,37.3100,92,90,98425
2.0283,0.3910,37.4300,92,90,98429
2.0626,0.3812,37.6500,92,90,98433
2.1114,0.3861,37.5300,92,90,98436
2.0919,0.3861,37.5600,92,90,98439
2.1212,0.4057,37.2800,92,90,98443
2.0528,0.4008,37.4000,92,90,98446
2.0528,0.3763,37.5600,92,90,98449
2.0919,0.3959,37.5300,92,90,98452
2.1163,0.3861,37.5900,92,90,98456
2.1505,0.4057,37.2500,92,90,98459
2.0674,0.3910,37.4600,92,90,98462
1.9844,0.3812,37.5600,92,90,98465
1.9795,0.3861,37.5300,92,90,98469
1.9844,0.3861,37.5600,92,90,98472
2.0381,0.4057,37.2500,92,90,98476
1.9453,0.3910,37.4600,92,90,98479
1.8475,0.3763,37.5300,92,90,98483
1.7840,0.3861,37.5300,92,90,98486
1.7498,0.3861,37.5600,92,90,98489
1.7986,0.3959,37.2500,92,90,98492
1.7791,0.3910,37.4300,92,90,98496
1.7058,0.3861,37.5300,92,90,98499
1.6471,0.3861,37.6200,92,90,98502
1.5836,0.3861,37.5600,92,90,98505
1.6080,0.4008,37.2500,92,90,98509
1.6178,0.3910,37.4300,92,90,98512
1.6276,0.3861,37.5600,92,90,98515
1.6178,0.3861,37.5300,92,90,98519
1.5591,0.3861,37.5600,92,90,98523
1.5738,0.3959,37.2500,92,90,98526
1.5934,0.4008,37.3700,92,90,98530
1.5591,0.3861,37.4900,92,90,98534
1.5787,0.3910,37.4600,92,90,98537
1.6325,0.3861,37.4300,92,90,98540
1.6667,0.3861,37.6200,92,90,98543
1.6960,0.4008,37.4300,92,90,98547
1.6373,0.3812,37.4900,92,90,98550
1.6080,0.3861,37.1900,92,90,98553
1.6276,0.3861,37.6200,92,90,98556
1.6764,0.3861,37.5600,92,90,98561
1.7498,0.4008,37.3700,92,90,98564
1.7107,0.4008,37.4900,92,90,98567
1.6569,0.3861,37.4600,92,90,98570
1.6227,0.3910,37.5600,92,90,98574
1.6373,0.3910,37.5300,92,90,98577
1.7253,0.4008,37.4000,92,90,98580
1.7351,0.3861,37.4900,92,90,98583
1.7009,0.3812,37.4600,92,90,98587
1.6618,0.3959,37.5900,92,90,98590
1.6325,0.3861,37.5600,92,90,98593
1.7009,0.4008,37.3700,92,90,98596
1.7253,0.3910,37.4600,92,90,98600
1.7498,0.3861,37.4600,92,90,98604
1.7449,0.3861,37.5900,92,90,98607
1.7107,0.3861,37.5600,92,90,98610
1.7693,0.3959,37.3400,92,90,98614
1.7742,0.3910,37.4600,92,90,98617
1.7937,0.3812,37.5600,92,90,98620
1.8524,0.3861,37.5600,92,90,98623
1.8524,0.3812,37.5600,92,90,98627
1.8622,0.4008,37.3700,92,90,98630
1.7889,0.3959,37.4600,92,90,98633
1.7742,0.3910,37.4900,92,90,98636
1.8133,0.3910,37.5600,92,90,98640
1.8182,0.3812,37.5600,92,90,98643
1.8426,0.4057,37.3100,92,90,98647
1.7546,0.3910,37.4600,92,90,98650
1.7009,0.3812,37.4900,92,90,98654
1.7107,0.3959,37.5300,92,90,98657
1.7351,0.3861,37.5300,92,90,98660
1.8035,0.4057,37.3400,92,90,98663
1.7351,0.3910,37.4300,92,90,98667
1.6716,0.3812,37.4900,92,90,98670
1.6471,0.3861,37.4900,92,90,98673
1.6569,0.3861,37.5600,92,90,98676
1.7546,0.4106,37.3100,92,90,98680
1.7302,0.3910,37.4600,92,90,98683
1.7058,0.3861,37.5300,92,90,98686
1.6667,0.3861,37.6200,92,90,98690
1.6373,0.3861,37.6500,92,90,98694
1.7009,0.3861,37.3400,92,90,98697
1.7155,0.3959,37.4600,92,90,98700
1.7351,0.3812,37.5300,92,90,98703
1.7253,0.3861,37.5300,92,90,98707
1.6813,0.3861,37.5600,92,90,98710
1.7009,0.4057,37.3100,92,90,98713
1.6862,0.3910,37.4300,92,90,98716
1.7204,0.3812,37.4600,92,90,98720
1.7595,0.3861,37.5300,92,90,98723
1.7693,0.3861,37.5600,92,90,98726
1.7644,0.4252,37.2800,92,90,98729
1.7009,0.3959,37.4000,92,90,98734
1.7009,0.3812,37.5300,92,90,98737
1.7498,0.3910,37.5300,92,90,98740
1.8133,0.3812,37.5600,92,90,98743
1.9404,0.4057,37.2800,92,90,98747
1.9892,0.3910,37.4600,92,90,98750
2.0430,0.3763,37.5300,92,90,98753
2.0919,0.3861,37.5300,92,90,98756
2.0772,0.3861,37.5600,92,90,98760
2.0577,0.4057,37.2500,92,90,98763
1.7986,0.3910,37.4300,92,90,98766
1.5396,0.3812,37.5300,92,90,98769
1.3636,0.3861,37.5300,92,90,98774
1.3148,0.3861,37.5600,92,90,98777
1.4712,0.3959,37.2500,92,90,98780
1.5982,0.3861,37.4300,92,90,98783
1.7009,0.3763,37.5300,92,90,98787
1.7644,0.3861,37.5300,92,90,98790
1.7937,0.3861,37.5600,92,90,98793
1.8817,0.4008,37.2800,92,90,98796
1.8915,0.4008,37.4900,92,90,98800
1.9062,0.3861,37.5900,92,90,98803
1.9013,0.3910,37.5300,92,90,98806
1.8377,0.3910,37.5600,92,90,98809
1.8426,0.4008,37.3100,92,90,98813
1.8133,0.3959,37.4600,92,90,98817
1.8475,0.3666,37.5600,92,90,98820
1.9159,0.3910,37.5300,92,90,98823
1.8573,0.4106,37.6200,92,90,98827
1.8573,0.4008,37.2800,92,90,98830
1.7791,0.3861,37.4600,92,90,98833
1.8133,0.3861,37.5900,92,90,98836
1.8328,0.3910,37.5300,92,90,98840
1.8524,0.4350,37.5300,92,90,98843
1.8866,0.3959,37.2800,92,90,98846
1.8133,0.3910,37.4600,92,90,98849
1.7644,0.3763,37.5600,92,90,98853
1.7937,0.3910,37.4900,92,90,98856
1.8280,0.3861,37.5600,92,90,98860
1.9110,0.3959,37.2500,92,90,98863
1.8671,0.3910,37.4600,92,90,98867
1.8182,0.3812,37.5900,92,90,98870
1.8035,0.4154,37.4900,92,90,98873
1.8035,0.3910,37.5600,92,90,98876
1.8964,0.4008,37.2500,92,90,98880
1.8866,0.3910,37.4900,92,90,98883
1.8768,0.3861,37.7400,92,90,98886
1.8475,0.3861,37.5300,92,90,98889
1.8084,0.3861,37.5900,92,90,98893
1.8622,0.4057,37.2500,92,90,98896
1.8964,0.3910,37.4300,92,90,98899
1.9159,0.3861,37.5600,92,90,98903
1.9257,0.3861,37.4900,92,90,98907
1.8964,0.3763,37.5600,92,90,98910
1.8915,0.4008,37.2800,92,90,98913
1.8866,0.3861,37.5600,92,90,98916
1.9355,0.3861,37.5600,92,90,98919
1.9892,0.3910,37.4900,92,90,98923
1.9599,0.3861,37.6500,92,90,98926
1.9697,0.3959,37.2800,92,90,98929
1.9062,0.3812,37.4900,92,90,98932
1.9306,0.3812,37.5600,92,90,98936
2.0039,0.3910,37.3700,92,90,98939
2.0332,0.3861,37.5600,92,90,98942
2.0723,0.4008,37.2800,92,90,98946
2.0137,0.3910,37.0700,92,90,98950
1.9844,0.3861,37.5600,92,90,98953
2.0283,0.3861,37.4600,92,90,98956
2.0577,0.3861,37.5900,92,90,98959
2.1408,0.3910,37.3100,92,90,98963
2.1065,0.3812,37.5300,92,90,98966
2.0674,0.3861,37.8000,92,90,98969
2.0626,0.3959,37.4300,92,90,98972
2.0577,0.3959,37.5600,92,90,98976
2.1408,0.3910,37.4000,92,90,98979
2.1359,0.3861,37.5600,92,90,98982
2.1212,0.3812,37.5600,92,90,98985
2.0870,0.4203,37.4900,92,90,98990
2.0186,0.3861,37.5600,92,90,98993
2.0430,0.4008,37.3400,92,90,98996
2.0283,0.3861,37.4000,92,90,98999
2.0235,0.3763,37.5300,92,90,99003
2.0039,0.3910,37.3700,92,90,99006
1.9062,0.3861,37.5600,92,90,99009
1.8573,0.3861,37.3400,92,90,99012
1.7986,0.3910,37.4900,92,90,99015
1.8035,0.3861,37.6200,92,90,99019
1.8133,0.3910,37.4300,92,90,99022
1.7595,0.3666,37.5600,92,90,99025
1.7107,0.3910,37.3400,92,90,99028
1.6325,0.3861,37.5300,92,90,99033
1.6178,0.3861,37.5600,92,90,99036
1.6618,0.3861,37.4600,92,90,99039
1.6716,0.3861,37.5600,92,90,99042
1.6667,0.3910,37.3700,92,90,99046
1.5982,0.3861,37.8300,92,90,99049
1.5591,0.3861,37.5600,92,90,99052
1.5787,0.3861,37.4000,92,90,99055
1.6080,0.3910,37.5600,92,90,99059
1.6716,0.3861,37.4000,92,90,99062
1.6569,0.3812,37.5300,92,90,99065
1.6129,0.3910,37.5900,92,90,99068
1.5934,0.3910,37.4900,92,90,99073
1.5885,0.3861,37.5600,92,90,99076
1.6618,0.3910,37.4000,92,90,99079
1.6764,0.3812,37.5600,92,90,99082
1.6813,0.3861,37.5600,92,90,99086
1.6716,0.3959,37.4300,92,90,99089
1.6227,0.3910,37.5600,92,90,99092
1.6569,0.3959,37.4000,92,90,99095
1.6764,0.3812,37.4600,92,90,99099
1.7204,0.3861,37.5600,92,90,99102
1.7351,0.3910,37.4300,92,90,99105
1.6813,0.3910,37.5600,92,90,99108
1.6667,0.3910,37.4600,92,90,99112
1.6471,0.3910,37.5900,92,90,99116
1.6960,0.3861,37.5600,92,90,99119
1.7449,0.3959,37.4600,92,90,99122
1.7351,0.3861,37.5600,92,90,99126
1.7253,0.3910,37.4600,92,90,99129
1.6569,0.3861,37.5600,92,90,99132
1.6618,0.3812,37.5600,92,90,99135
1.7302,0.3910,37.4000,92,90,99139
1.7009,0.3959,37.4600,92,90,99143
1.7400,0.4203,37.5600,92,90,99147
1.8133,0.3910,37.3400,92,90,99150
1.7937,0.3861,37.4600,92,90,99153
1.7546,0.3763,37.5600,92,90,99156
1.7449,0.4301,37.4300,92,90,99161
1.7449,0.3861,37.5600,92,90,99164
1.8182,0.3910,37.3400,92,90,99167
1.8280,0.3861,37.5900,92,90,99170
1.8426,0.3763,37.5900,92,90,99174
1.7986,0.3959,37.4600,92,90,99177
1.7498,0.3861,37.5300,92,90,99180
1.7840,0.3910,37.3400,92,90,99183
1.8035,0.3910,37.4300,92,90,99187
1.8280,0.3861,37.5900,92,90,99190
1.8377,0.3910,37.4300,92,90,99193
1.7791,0.3910,37.5600,92,90,99196
1.7644,0.4008,37.3400,92,90,99201
1.7498,0.3861,37.4900,92,90,99204
1.7937,0.3861,37.5600,92,90,99207
1.8426,0.3910,37.4000,92,90,99210
1.8182,0.3861,37.5600,92,90,99213
1.7986,0.3910,37.3700,92,90,99217
1.7449,0.3861,37.5600,92,90,99220
1.7498,0.3861,37.5600,92,90,99223
1.8182,0.4008,37.4000,92,90,99226
1.8377,0.3861,37.5900,92,90,99230
1.8524,0.3910,37.3700,92,90,99233
1.8231,0.3666,37.4600,92,90,99236
1.7546,0.3861,37.6200,92,90,99239
1.7791,0.4008,37.4000,92,90,99244
1.8035,0.3861,37.5600,92,90,99247
1.8573,0.3910,37.3700,92,90,99250
1.8328,0.3812,37.6200,92,90,99253
1.7986,0.3861,37.5900,92,90,99257
1.7840,0.3910,37.4300,92,90,99260
1.7791,0.3861,37.4600,92,90,99263
1.8475,0.3910,37.3700,92,90,99266
1.8573,0.3861,37.5600,92,90,99270
1.8573,0.3763,37.5900,92,90,99273
1.8426,0.3959,37.4300,92,90,99276
1.7889,0.3861,37.5600,92,90,99279
1.8182,0.3861,37.4000,92,90,99283
1.8377,0.3861,37.4900,92,90,99287
1.8719,0.3910,37.5600,92,90,99290
1.8768,0.3910,37.4000,92,90,99293
1.8231,0.3861,37.5600,92,90,99297
1.8035,0.3910,37.4000,92,90,99300
1.7937,0.3812,37.5300,92,90,99303
1.8377,0.3861,37.3100,92,90,99306
1.8817,0.3910,37.4600,92,90,99310
1.8671,0.3910,37.5600,92,90,99313
1.8524,0.3910,37.4900,92,90,99316
1.7791,0.3861,37.0100,92,90,99319
1.7889,0.3861,37.5900,92,90,99323
1.8573,0.3959,37.4300,92,90,99326
1.8573,0.3861,37.5600,92,90,99330
1.8915,0.3910,37.4000,92,90,99333
1.8377,0.3812,36.8500,92,90,99337
1.8280,0.3910,37.6800,92,90,99340
1.8915,0.3910,37.4300,92,90,99343
1.9355,0.3861,37.5300,92,90,99346
2.0137,0.3910,36.7600,92,90,99350
1.9795,0.3861,37.5600,92,90,99353
1.9257,0.3910,37.5600,92,90,99356
1.9110,0.3910,37.4900,92,90,99359
1.9062,0.3861,37.5600,92,90,99363
1.9844,0.4008,37.4300,92,90,99366
1.9501,0.3861,37.5600,92,90,99369
1.9208,0.3910,37.5600,92,90,99373
1.8964,0.3959,37.4300,92,90,99377
1.8133,0.3861,37.5600,92,90,99380
1.8280,0.4008,37.4600,92,90,99383
1.8231,0.3861,37.5300,92,90,99386
1.8377,0.3861,37.2200,92,90,99390
1.8280,0.3910,37.5300,92,90,99393
1.7595,0.3763,37.5600,92,90,99396
1.7400,0.3959,37.3100,92,90,99399
1.7351,0.3861,37.5900,92,90,99403
1.7889,0.3861,37.5600,92,90,99406
1.8475,0.3861,37.4900,92,90,99409
1.8328,0.3910,37.5600,92,90,99412
1.8133,0.3959,37.4000,92,90,99417
1.7449,0.3861,37.5900,92,90,99420
1.7400,0.3861,37.5900,92,90,99423
1.8084,0.4057,37.4000,92,90,99426
1.8182,0.3861,37.5300,92,90,99430
1.8280,0.3910,37.4300,92,90,99433
1.7937,0.3666,37.5600,92,90,99436
1.7253,0.4106,37.5600,92,90,99439
1.7498,0.3959,37.4000,92,90,99443
1.7742,0.3910,37.5300,92,90,99446
1.8280,0.3910,37.4000,92,90,99449
1.8035,0.3861,37.6200,92,90,99452
1.7693,0.3861,37.5900,92,90,99457
1.7595,0.3910,37.5300,92,90,99460
1.7449,0.4154,37.5600,92,90,99463
1.8133,0.3910,37.4000,92,90,99466
1.8328,0.3861,37.5900,92,90,99470
1.8377,0.3861,37.5600,92,90,99473
1.8426,0.4008,37.3700,92,90,99476
1.7693,0.3812,37.5600,92,90,99479
1.7889,0.3910,37.4000,92,90,99483
1.8182,0.3861,37.5600,92,90,99486
1.8768,0.3861,37.5600,92,90,99489
1.9257,0.3910,37.4000,92,90,99492
1.8475,0.3861,37.4300,92,90,99496
1.8231,0.3861,37.4300,92,90,99500
1.8182,0.3861,37.5600,92,90,99503
1.9159,0.3861,37.5900,92,90,99506
2.0674,0.3959,37.4900,92,90,99510
2.1457,0.3861,37.6200,92,90,99513
2.1603,0.3910,37.4300,92,90,99516
2.0723,0.3861,37.5900,92,90,99519
1.9746,0.4106,37.5600,92,90,99523
1.8964,0.3959,37.4000,92,90,99526
1.7204,0.3861,37.5600,92,90,99529
1.5445,0.3910,37.4300,92,90,99532
1.3930,0.3861,37.5900,92,90,99535
1.3783,0.3910,37.7100,92,90,99539
1.5005,0.3959,37.4000,92,90,99543
1.6373,0.4106,37.5600,92,90,99546
1.7840,0.3910,37.4300,92,90,99549
1.8426,0.3861,37.5600,92,90,99553
1.8426,0.3910,37.5600,92,90,99556
1.8475,0.4008,37.4300,92,90,99559
1.8377,0.3861,37.5300,92,90,99562
1.8915,0.3910,37.4300,92,90,99566
1.9110,0.3763,37.5600,92,90,99569
1.9013,0.3861,37.5900,92,90,99572
1.8915,0.3861,37.3700,92,90,99575
1.8280,0.3861,37.4900,92,90,99579
1.8231,0.3861,37.4000,92,90,99582
1.8426,0.3861,37.5600,92,90,99586
1.8768,0.3910,37.5600,92,90,99589
1.9013,0.3910,37.4000,92,90,99593
1.8426,0.3861,37.5300,92,90,99596
1.7986,0.3861,37.4300,92,90,99599
1.7840,0.3861,37.5600,92,90,99602
1.8280,0.3910,37.5600,92,90,99606
1.8964,0.3959,37.4300,92,90,99609
1.8671,0.3910,37.4300,92,90,99612
1.8280,0.3910,37.4600,92,90,99615
1.7791,0.3910,37.5600,92,90,99619
1.7693,0.3910,37.5600,92,90,99622
1.8328,0.3959,37.4000,92,90,99625
1.8622,0.3910,37.4900,92,90,99629
1.8573,0.3910,37.4300,92,90,99633
1.8084,0.3861,37.5300,92,90,99636
1.7644,0.3861,37.5900,92,90,99639
1.8035,0.3959,37.4000,92,90,99642
1.8328,0.4203,37.5600,92,90,99646
1.8671,0.3861,37.4600,92,90,99649
1.8671,0.3861,37.5600,92,90,99652
1.8328,0.3861,37.5600,92,90,99655
1.8719,0.3959,37.4000,92,90,99659
1.8133,0.3861,37.5300,92,90,99662
1.8524,0.3861,37.4600,92,90,99665
1.9013,0.3861,37.5600,92,90,99668
1.9306,0.3861,37.5600,92,90,99673
1.9062,0.3959,37.3700,92,90,99676
1.8524,0.3959,37.4900,92,90,99679
1.8475,0.3861,37.4600,92,90,99682
1.8866,0.3861,37.5600,92,90,99686
1.9306,0.3763,37.5600,92,90,99689
1.9844,0.4008,37.4000,92,90,99692
1.9208,0.3910,37.4900,92,90,99695
1.8817,0.3812,37.4600,92,90,99699
1.8866,0.3861,37.5300,92,90,99702
1.9404,0.3861,37.5900,92,90,99705
2.0381,0.4008,37.3700,92,90,99708
2.0088,0.3910,37.5600,92,90,99713
1.9697,0.3812,37.4900,92,90,99716
1.9404,0.3861,37.5600,92,90,99719
1.9501,0.3812,37.5600,92,90,99722
2.0528,0.4057,37.3700,92,90,99726
2.0674,0.3959,37.4300,92,90,99729
2.0626,0.3666,37.5300,92,90,99732
2.0528,0.4057,37.5300,92,90,99735
2.0235,0.3861,37.5900,92,90,99739
2.1114,0.4154,37.3100,92,90,99742
2.0919,0.3861,37.4300,92,90,99745
2.1163,0.3812,37.5300,92,90,99748
2.1261,0.3861,37.5600,92,90,99751
2.0528,0.4154,37.5600,92,90,99756
2.0332,0.3861,37.7100,92,90,99759
1.9941,0.3959,37.3700,92,90,99763
1.9013,0.3910,37.5300,92,90,99766
1.8622,0.3812,37.4000,92,90,99769
1.8475,0.3861,36.9500,92,90,99772
1.8377,0.3861,37.5900,92,90,99776
1.8328,0.3959,37.4000,92,90,99779
1.7351,0.3861,37.4900,92,90,99782
1.6667,0.3910,37.6200,92,90,99785
1.6276,0.3910,37.5600,92,90,99789
1.6422,0.3910,37.5600,92,90,99792
1.6764,0.3959,37.4600,92,90,99795
1.6471,0.3861,37.5300,92,90,99799
1.5934,0.3861,37.4600,92,90,99803
1.5396,0.3861,37.6200,92,90,99806
1.5543,0.3861,37.5600,92,90,99809
1.6276,0.3959,37.3700,92,90,99812
1.6373,0.3763,37.5300,92,90,99816
1.6276,0.3861,37.4900,92,90,99819
1.5738,0.3861,37.5300,92,90,99822
1.5347,0.3861,37.5600,92,90,99825
1.5640,0.3959,37.4000,92,90,99829
1.5934,0.4008,37.5600,92,90,99832
1.6373,0.3861,36.7600,92,90,99835
1.6276,0.3861,37.5600,92,90,99838
1.5934,0.3910,37.5600,92,90,99843
1.6031,0.4008,37.4600,92,90,99846
1.5836,0.3910,37.4000,92,90,99849
1.6227,0.3861,37.4600,92,90,99852
1.6569,0.3861,37.5600,92,90,99856
1.6667,0.3666,37.5600,92,90,99859
1.6569,0.4008,37.3400,92,90,99862
1.6080,0.3910,37.4600,92,90,99865
1.6227,0.3910,37.4300,92,90,99869
1.6471,0.3812,37.5600,92,90,99872
1.6862,0.3861,37.4900,92,90,99875
1.7351,0.3959,37.4000,92,90,99878
1.6813,0.3861,37.5300,92,90,99883
1.6422,0.3861,37.4600,92,90,99886
1.6471,0.3910,37.5600,92,90,99889
1.6960,0.4203,37.5900,92,90,99892
1.7889,0.4008,37.4300,92,90,99896
1.7791,0.3861,37.4900,92,90,99899
1.7351,0.3861,37.5600,92,90,99902
1.6960,0.3861,37.5300,92,90,99905
1.6862,0.3910,37.5900,92,90,99909
1.8035,0.3959,37.3700,92,90,99912
1.7889,0.3959,37.4900,92,90,99915
1.7742,0.3861,37.4300,92,90,99918
1.7302,0.3861,37.5600,92,90,99922
1.6911,0.3861,37.5600,92,90,99926
1.7449,0.3959,37.4300,92,90,99929
1.7498,0.4057,37.4900,92,90,99932
1.7742,0.3861,37.4900,92,90,99936
1.7644,0.3861,37.5600,92,90,99939
1.7302,0.3861,37.5900,92,90,99942
1.7351,0.4154,37.3700,92,90,99945
1.7058,0.4008,37.4600,92,90,99949
1.7351,0.3861,37.4900,92,90,99952
1.7791,0.3861,37.5300,92,90,99955
1.7742,0.3910,37.5600,92,90,99958
1.7840,0.4008,37.3700,92,90,99962
1.7107,0.3959,37.4900,92,90,99965
1.7107,0.3861,37.4900,92,90,99969
1.7498,0.3910,37.5600,92,90,99972
1.7840,0.3910,37.5900,92,90,99976
1.8328,0.4057,37.3700,92,90,99979
1.7840,0.3959,37.4600,92,90,99982
1.7009,0.3812,37.4600,92,90,99985
1.7058,0.3861,37.5600,92,90,99989
1.7400,0.3910,37.5900,92,90,99992
1.8280,0.4008,37.3100,92,90,99995
1.7937,0.3861,37.4900,92,90,99998
1.7546,0.3812,37.5300,92,90,100002
1.7155,0.3910,37.5300,92,90,100005
1.7302,0.3666,37.5600,92,90,100008
1.7937,0.3959,37.3700,92,90,100012
1.8084,0.3910,37.4600,92,90,100016
1.7889,0.3910,37.4600,92,90,100019
1.7253,0.3861,37.6800,92,90,100022
1.6862,0.3812,37.5600,92,90,100026
1.7107,0.3910,37.4300,92,90,100029
1.7498,0.3861,37.4300,92,90,100032
1.8035,0.3812,37.4000,92,90,100036
1.7791,0.3666,37.5900,92,90,100039
1.7351,0.3861,37.5600,92,90,100042
1.7155,0.3861,37.4900,92,90,100045
1.7204,0.3959,37.6200,92,90,100049
1.7889,0.4203,37.4300,92,90,100052
1.7986,0.3861,37.5600,92,90,100056
1.7889,0.3861,37.5600,92,90,100060
1.7693,0.3910,37.4300,92,90,100063
1.7107,0.3861,37.6200,92,90,100066
1.7693,0.3910,37.3400,92,90,100070
1.7693,0.3861,37.4300,92,90,100073
1.7889,0.3861,37.7400,92,90,100076
1.7937,0.3861,37.4600,92,90,100080
1.7302,0.3861,37.6800,92,90,100083
1.7546,0.3910,37.2800,92,90,100086
1.7693,0.3812,37.4900,92,90,100089
1.8231,0.3910,37.6200,92,90,100093
1.8719,0.3910,37.5300,92,90,100097
1.8475,0.3861,37.7700,92,90,100100
1.8426,0.4008,37.2500,92,90,100104
1.7693,0.3861,37.9000,92,90,100107
1.7742,0.4008,37.5600,92,90,100110
1.8231,0.3910,37.5600,92,90,100114
1.8328,0.3861,37.5600,92,90,100117
1.8426,0.4008,37.4000,92,90,100120
1.7644,0.3910,37.5300,92,90,100123
1.7302,0.3861,37.5300,92,90,100127
1.7400,0.3861,37.5600,92,90,100130
1.7791,0.3861,37.1300,92,90,100133
1.8622,0.3959,37.3700,92,90,100137
1.7840,0.3861,37.6500,92,90,100141
1.7546,0.3910,37.4000,92,90,100144
1.7400,0.3763,37.5600,92,90,100148
1.7449,0.3861,37.5900,92,90,100151
1.8182,0.3959,37.4600,92,90,100154
1.8377,0.3910,37.5600,92,90,100157
1.7889,0.3959,37.4900,92,90,100161
1.7155,0.3910,37.5600,92,90,100164
1.6960,0.3763,37.5900,92,90,100167
1.7351,0.3910,37.4000,92,90,100171
1.7644,0.3812,37.5600,92,90,100174
1.7937,0.3910,37.3400,92,90,100177
1.7302,0.4203,37.5600,92,90,100182
1.7155,0.3861,37.5600,92,90,100185
1.6960,0.3910,37.4900,92,90,100188
1.7302,0.3861,37.5600,92,90,100192
1.8182,0.3959,37.2800,92,90,100195
1.8084,0.4106,37.4600,92,90,100198
1.7693,0.3763,37.5600,92,90,100201
1.7449,0.4008,37.5600,92,90,100205
1.7351,0.3861,37.5900,92,90,100208
1.8280,0.4008,37.2800,92,90,100211
1.8426,0.3959,37.4000,92,90,100215
1.8377,0.3666,37.5300,92,90,100218
1.8133,0.3861,37.5300,92,90,100221
1.7937,0.3812,37.5900,92,90,100226
1.8573,0.4057,37.4600,92,90,100229
1.8573,0.3910,37.5300,92,90,100232
1.8768,0.3910,37.4600,92,90,100235
1.9013,0.3861,37.5600,92,90,100239
1.9501,0.3812,37.5600,92,90,100242
2.0577,0.3861,37.4900,92,90,100245
2.1163,0.3861,37.6500,92,90,100249
2.1896,0.3910,37.4300,92,90,100252
2.1554,0.3861,37.4900,92,90,100255
2.0381,0.3959,37.5900,92,90,100259
1.8671,0.3959,37.4300,92,90,100262
1.6373,0.3959,37.5600,92,90,100265
1.5103,0.3861,37.4300,92,90,100270
1.5005,0.3812,37.5300,92,90,100273
1.6080,0.3861,37.5600,92,90,100276
1.7253,0.3861,37.4600,92,90,100279
1.7693,0.4008,37.5600,92,90,100283
1.8377,0.4008,37.3400,92,90,100286
1.8768,0.3861,37.4900,92,90,100289
1.9257,0.3861,37.5900,92,90,100293
1.9990,0.3959,37.4600,92,90,100296
1.9306,0.3861,37.4900,92,90,100299
1.9257,0.3910,37.2800,92,90,100303
1.8524,0.3861,37.4000,92,90,100306
1.8719,0.3861,37.6200,92,90,100310
1.9257,0.3861,37.5300,92,90,100313
1.9257,0.3910,37.5600,92,90,100317
1.9404,0.4057,37.2800,92,90,100320
1.8475,0.3959,37.3400,92,90,100323
1.8035,0.4008,37.4900,92,90,100327
1.8231,0.3910,37.5600,92,90,100330
1.8573,0.3861,37.5300,92,90,100333
1.9257,0.3959,37.3700,92,90,100337
1.8719,0.3959,37.4600,92,90,100340
1.8328,0.3910,37.4300,92,90,100343
1.8084,0.3861,37.5900,92,90,100347
1.8377,0.3861,37.5900,92,90,100350
1.9062,0.3959,37.4300,92,90,100354
1.9062,0.3861,37.2500,92,90,100357
1.8866,0.3910,37.4000,92,90,100361
1.8133,0.3861,37.5600,92,90,100364
1.8622,0.3861,37.6800,92,90,100368
1.8328,0.4106,37.5600,92,90,100371
1.8426,0.3910,37.4900,92,90,100374
1.8719,0.4203,37.5600,92,90,100378
1.9599,0.3959,37.2800,92,90,100381
1.9501,0.3910,37.4600,92,90,100384
1.8964,0.3861,37.5600,92,90,100388
1.8768,0.3910,37.5300,92,90,100391
1.8671,0.3861,37.5600,92,90,100395
1.9844,0.3959,37.2500,92,90,100399
1.9697,0.3959,37.4900,92,90,100402
1.9550,0.3666,37.5300,92,90,100405
1.9208,0.3861,37.5300,92,90,100408
1.8817,0.3812,37.5600,92,90,100412
1.9453,0.4008,37.4000,92,90,100415
1.9697,0.3861,37.5300,92,90,100418
2.0137,0.3861,37.4600,92,90,100422
2.0430,0.3666,37.5600,92,90,100425
1.9844,0.3861,37.5600,92,90,100428
2.0137,0.3959,37.4900,92,90,100432
1.9892,0.3910,37.5600,92,90,100435
2.0626,0.3959,37.4000,92,90,100439
2.0821,0.3861,37.5600,92,90,100442
2.0772,0.3861,37.5600,92,90,100446
2.0821,0.3959,37.5600,92,90,100449
2.0381,0.3910,37.5300,92,90,100452
2.0821,0.3959,37.4600,92,90,100456
2.1163,0.3812,37.1300,92,90,100459
2.1505,0.3861,37.5900,92,90,100462
2.1408,0.3910,37.3700,92,90,100466
2.0772,0.3861,37.5300,92,90,100469
2.0674,0.3910,37.4000,92,90,100472
2.0528,0.3666,37.5300,92,90,100475
2.1065,0.3861,37.5900,92,90,100480
2.1408,0.3910,37.4900,92,90,100483
2.0772,0.3812,37.5900,92,90,100486
2.0430,0.4008,37.3100,92,90,100490
1.9599,0.3861,37.5600,92,90,100493
1.9550,0.3910,37.5600,92,90,100496
1.9795,0.3861,37.4900,92,90,100500
1.9355,0.4106,37.5600,92,90,100503
1.9208,0.3959,37.2800,92,90,100506
1.8133,0.3910,37.4900,92,90,100509
1.7546,0.3861,37.5900,92,90,100513
1.7498,0.3910,37.4900,92,90,100516
1.7595,0.3763,37.5600,92,90,100519
1.8133,0.4057,37.4000,92,90,100524
1.7351,0.3910,37.4600,92,90,100527
1.6569,0.3861,37.4900,92,90,100530
1.6129,0.4057,37.5600,92,90,100534
1.6227,0.3861,37.5600,92,90,100537
1.6960,0.3959,37.4000,92,90,100540
1.6911,0.3910,37.5300,92,90,100544
1.6618,0.3910,37.4300,92,90,100547
1.6080,0.3861,37.5600,92,90,100550
1.5934,0.3861,37.5600,92,90,100553
1.6373,0.4252,37.4900,92,90,100557
1.6911,0.3861,37.5600,92,90,100560
1.7009,0.3959,37.3700,92,90,100563
1.6520,0.3861,37.6200,92,90,100568
1.6129,0.3910,37.5600,92,90,100571
1.6276,0.4008,37.4000,92,90,100574
1.6471,0.3861,37.5600,92,90,100578
1.7058,0.3910,37.3700,92,90,100581
1.7009,0.3959,37.4600,92,90,100584
1.6813,0.3861,37.5600,92,90,100587
1.6471,0.4008,37.4300,92,90,100591
1.6227,0.3910,37.5900,92,90,100594
1.6862,0.3959,37.3100,92,90,100597
1.7155,0.3910,37.4900,92,90,100601
1.7107,0.3812,37.5900,92,90,100604
1.6911,0.4203,37.5300,92,90,100608
1.6520,0.3763,37.5900,92,90,100612
1.6960,0.3861,37.2500,92,90,100615
1.7107,0.3763,37.4900,92,90,100618
1.7498,0.3812,37.5600,92,90,100622
1.7546,0.3861,37.5300,92,90,100625
1.7155,0.3861,37.6500,92,90,100628
1.7253,0.4057,37.3700,92,90,100631
1.6960,0.3959,37.4900,92,90,100635
1.7204,0.3861,37.4600,92,90,100638
1.7400,0.3910,37.5600,92,90,100641
1.7302,0.3861,37.5900,92,90,100645
1.7204,0.3959,37.3700,92,90,100648
1.6716,0.3861,37.5300,92,90,100652
1.6911,0.3910,37.4300,92,90,100656
1.7546,0.3763,37.5600,92,90,100659
1.7595,0.3861,37.5900,92,90,100662
1.7742,0.4008,37.4600,92,90,100666
1.7302,0.3910,37.5600,92,90,100669
1.7204,0.3959,37.4600,92,90,100672
1.7155,0.3861,37.5900,92,90,100675
1.7693,0.3861,37.5900,92,90,100679
1.8084,0.3861,37.4300,92,90,100682
1.7742,0.4154,37.5600,92,90,100685
1.7449,0.3861,37.4000,92,90,100689
1.7009,0.3861,37.5600,92,90,100692
1.7253,0.3910,37.5900,92,90,100696
1.7986,0.3959,37.4600,92,90,100700
1.8084,0.3861,37.5600,92,90,100703
1.8377,0.3959,37.3100,92,90,100706
1.7644,0.3910,37.4600,92,90,100709
1.7253,0.3959,37.5600,92,90,100713
1.7644,0.3910,37.4900,92,90,100716
1.7937,0.3861,37.5600,92,90,100719
1.8671,0.4057,37.2500,92,90,100723
1.8133,0.3861,37.4000,92,90,100726
1.7595,0.3812,37.5300,92,90,100729
1.7351,0.3861,37.5600,92,90,100733
1.7595,0.4252,37.5600,92,90,100737
1.8573,0.4057,37.3700,92,90,100740
1.8426,0.3910,37.4600,92,90,100744
1.7986,0.3861,37.4600,92,90,100747
1.7449,0.3861,37.5900,92,90,100750
1.7351,0.3910,37.5900,92,90,100753
1.7937,0.3959,37.4900,92,90,100757
1.8182,0.4008,37.5300,92,90,100760
1.8817,0.3910,37.4600,92,90,100763
1.8035,0.3861,37.5600,92,90,100767
1.7791,0.3763,37.5900,92,90,100770
1.8182,0.4008,37.4900,92,90,100773
1.8426,0.3910,37.5600,92,90,100777
1.9110,0.3910,37.5300,92,90,100781
1.8866,0.4106,37.4900,92,90,100784
1.8475,0.3861,37.5600,92,90,100787
1.7986,0.3910,37.3700,92,90,100791
1.7644,0.3763,37.5300,92,90,100794
1.8084,0.3910,37.3400,92,90,100797
1.8231,0.3861,37.4600,92,90,100801
1.8035,0.3910,37.5600,92,90,100804
1.7595,0.3910,37.4900,92,90,100807
1.6960,0.3861,37.5900,92,90,100811
1.7204,0.3959,37.2800,92,90,100814
1.7253,0.3812,37.5300,92,90,100817
1.7742,0.3861,37.7700,92,90,100822
1.8133,0.3910,37.5300,92,90,100825
1.7449,0.3861,37.5600,92,90,100828
1.7498,0.4008,37.3100,92,90,100831
1.7204,0.3861,37.4900,92,90,100835
1.7449,0.3812,37.5600,92,90,100838
1.7889,0.3910,37.5600,92,90,100841
1.7791,0.3861,37.8000,92,90,100845
1.7840,0.3910,37.3400,92,90,100848
1.7155,0.3861,37.4900,92,90,100851
1.7009,0.3910,37.4600,92,90,100855
1.7351,0.4154,37.5600,92,90,100858
1.7644,0.3861,37.5600,92,90,100861
1.7889,0.3959,37.4000,92,90,100865
1.7302,0.3910,37.5300,92,90,100869
1.7107,0.3861,37.4300,92,90,100872
1.7155,0.3861,37.6200,92,90,100875
1.7644,0.3861,37.5600,92,90,100879
1.8231,0.3910,37.5600,92,90,100882
1.8377,0.3910,37.5600,92,90,100885
1.7840,0.3959,37.4000,92,90,100889
1.7351,0.3910,37.5600,92,90,100892
1.7449,0.3861,37.5900,92,90,100895
1.8231,0.3959,37.4300,92,90,100899
1.8524,0.3861,37.5900,92,90,100902
1.8768,0.3910,37.3400,92,90,100905
1.8133,0.3910,37.4300,92,90,100909
1.7693,0.3861,37.5900,92,90,100913
1.8377,0.3959,37.4600,92,90,100916
1.8817,0.3812,37.5900,92,90,100919
2.0381,0.4399,37.3100,92,90,100923
2.1114,0.3812,37.4900,92,90,100926
2.1359,0.3861,37.7100,92,90,100929
2.1359,0.3910,37.5300,92,90,100933
2.0919,0.3861,37.5600,92,90,100936
2.0674,0.4008,37.2500,92,90,100939
1.8622,0.3910,37.4300,92,90,100942
1.6325,0.3910,37.5900,92,90,100946
1.4516,0.3861,37.5600,92,90,100950
1.3978,0.3861,37.5900,92,90,100953
1.5298,0.4008,37.4000,92,90,100957
1.6569,0.3910,37.5300,92,90,100960
1.7791,0.3812,37.4600,92,90,100963
1.8231,0.3812,37.5300,92,90,100967
1.8231,0.3861,37.5600,92,90,100970
1.8622,0.3959,37.3700,92,90,100973
1.8426,0.3910,37.4300,92,90,100977
1.8084,0.3861,37.5900,92,90,100980
1.8768,0.3910,37.3400,92,90,100984
1.9257,0.3666,37.4900,92,90,100987
1.9013,0.3861,37.5900,92,90,100990
1.8768,0.3959,37.4600,92,90,100994
1.8084,0.3861,37.5600,92,90,100998
1.8377,0.3959,37.4300,92,90,101001
1.8475,0.3812,37.5300,92,90,101004
1.8817,0.3861,37.7700,92,90,101008
1.8866,0.3910,37.5600,92,90,101011
1.8328,0.3861,37.6800,92,90,101014
1.8426,0.4008,37.2800,92,90,101018
1.8182,0.3910,37.4900,92,90,101021
1.8475,0.3812,37.6200,92,90,101024
1.8964,0.3861,37.5300,92,90,101028
1.8768,0.3861,36.8200,92,90,101031
1.8817,0.4008,37.3400,92,90,101035
1.8133,0.3910,37.6200,92,90,101038
1.8084,0.3910,37.4600,92,90,101042
1.8377,0.3861,37.5600,92,90,101045
1.8671,0.3861,37.5900,92,90,101048
1.8768,0.3861,37.4300,92,90,101052
1.8182,0.3910,37.5300,92,90,101055
1.7937,0.3910,37.4900,92,90,101058
1.7937,0.3812,37.5900,92,90,101062
1.8524,0.3861,37.5600,92,90,101065
1.9062,0.3910,37.4900,92,90,101068
1.9257,0.3861,37.5600,92,90,101071
1.8768,0.3959,37.4600,92,90,101075
1.8231,0.3910,37.5900,92,90,101079
1.8524,0.3861,37.5900,92,90,101082
1.9208,0.3959,37.4600,92,90,101086
1.9306,0.3861,37.5600,92,90,101089
1.9453,0.3910,37.7700,92,90,101092
1.8866,0.3910,37.4600,92,90,101096
1.8622,0.3861,37.5900,92,90,101099
1.9062,0.3959,37.4600,92,90,101102
1.9355,0.3861,37.5900,92,90,101106
2.0186,0.3959,37.3400,92,90,101109
1.9844,0.3861,37.4600,92,90,101112
1.9306,0.3861,37.5900,92,90,101115
1.9404,0.3910,37.5300,92,90,101120
1.9648,0.3910,37.5900,92,90,101123
2.0674,0.4008,37.2800,92,90,101126
2.0577,0.3861,37.4300,92,90,101130
2.0332,0.3910,37.5600,92,90,101133
2.0088,0.3861,37.5600,92,90,101136
1.9990,0.3861,37.5900,92,90,101140
2.0968,0.4106,37.4300,92,90,101143
2.1065,0.3910,37.5300,92,90,101146
2.1163,0.3861,37.4900,92,90,101149
2.0772,0.3910,37.5600,92,90,101153
2.0283,0.3861,37.5600,92,90,101156
2.0479,0.3959,37.3400,92,90,101159
2.0479,0.3910,37.5300,92,90,101164
2.0821,0.3910,37.4300,92,90,101167
2.0430,0.3861,37.6500,92,90,101170
1.9746,0.3861,37.7700,92,90,101174
1.9257,0.3959,37.4300,92,90,101177
1.8328,0.3910,37.4000,92,90,101180
1.8524,0.3959,37.3700,92,90,101183
1.8328,0.3861,37.5900,92,90,101187
1.7937,0.3812,37.5900,92,90,101190
1.7302,0.3959,37.4600,92,90,101193
1.6471,0.3861,37.5900,92,90,101197
1.6373,0.3910,37.4000,92,90,101200
1.6227,0.3861,37.5600,92,90,101203
1.6520,0.3861,37.8000,92,90,101208
1.6667,0.4301,37.4600,92,90,101211
1.6031,0.3861,37.5900,92,90,101214
1.5885,0.3959,37.3100,92,90,101217
1.5640,0.4008,37.4600,92,90,101221
1.5934,0.3861,37.5900,92,90,101224
1.6422,0.3861,37.4900,92,90,101227
1.6178,0.3910,37.5900,92,90,101231
1.6178,0.3959,37.3100,92,90,101234
1.5640,0.3910,37.4600,92,90,101237
1.5347,0.3861,37.5600,92,90,101241
1.5885,0.3861,37.5900,92,90,101244
1.6227,0.3812,37.5600,92,90,101248
1.6667,0.4057,37.3400,92,90,101251
1.5982,0.3959,37.4900,92,90,101255
1.5640,0.3861,37.4900,92,90,101258
1.5738,0.3861,37.5900,92,90,101261
1.6227,0.3666,37.5900,92,90,101265
1.7009,0.3959,37.5300,92,90,101268
1.6764,0.4008,37.5300,92,90,101271
1.6471,0.3910,37.4600,92,90,101275
1.6080,0.3861,37.6200,92,90,101278
1.6276,0.3812,37.5900,92,90,101281
1.7009,0.3959,37.4300,92,90,101285
1.7058,0.3812,37.5600,92,90,101288
1.7107,0.3959,37.4300,92,90,101292
1.6422,0.3861,37.5600,92,90,101295
1.6129,0.3861,37.5900,92,90,101299
1.6520,0.3910,37.4300,92,90,101302
1.6862,0.3910,37.5600,92,90,101305
1.7302,0.3910,37.3700,92,90,101309
1.6862,0.3861,37.5300,92,90,101312
1.6520,0.3861,37.5600,92,90,101315
1.6373,0.3910,37.5900,92,90,101319
1.6471,0.3959,37.5600,92,90,101322
1.7204,0.3959,37.3400,92,90,101325
1.7155,0.3812,37.5900,92,90,101329
1.7009,0.3959,37.5600,92,90,101332
1.6764,0.3910,37.4900,92,90,101336
1.6422,0.3959,37.5900,92,90,101339
1.7107,0.3959,37.2800,92,90,101343
1.7302,0.3910,37.4900,92,90,101346
1.7302,0.3763,37.5600,92,90,101349
1.7155,0.3910,37.5300,92,90,101353
1.6618,0.3861,37.5600,92,90,101356
1.6960,0.4057,37.3700,92,90,101359
1.7009,0.4008,37.4600,92,90,101363
1.7351,0.3861,37.4900,92,90,101366
1.7498,0.3861,37.5600,92,90,101369
1.7253,0.3861,37.5300,92,90,101372
1.7302,0.4057,37.4300,92,90,101377
1.6960,0.3910,37.5600,92,90,101380
1.7400,0.3861,37.4000,92,90,101383
1.7742,0.3861,37.6200,92,90,101387
1.7937,0.3861,37.5900,92,90,101390
1.7840,0.4008,37.5300,92,90,101393
1.7253,0.3910,37.5600,92,90,101397
1.7400,0.3910,37.4300,92,90,101400
1.7546,0.3812,37.5600,92,90,101403
1.8084,0.3861,37.5900,92,90,101406
1.8426,0.3959,37.5900,92,90,101410
1.7791,0.3812,37.5900,92,90,101413
1.7595,0.3910,37.4000,92,90,101416
1.7400,0.3812,37.4900,92,90,101421
1.7840,0.3861,37.5900,92,90,101424
1.8426,0.4106,37.4300,92,90,101427
1.8328,0.3861,37.5900,92,90,101431
1.8328,0.3910,37.3700,92,90,101434
1.7693,0.4008,37.5600,92,90,101437
1.7742,0.3861,37.5900,92,90,101441
1.8377,0.3910,37.5300,92,90,101444
1.8719,0.3861,37.5600,92,90,101447
1.9110,0.3959,37.2800,92,90,101450
1.8377,0.3910,37.4600,92,90,101454
1.8084,0.3812,37.5600,92,90,101457
1.8231,0.3861,37.5900,92,90,101460
1.8573,0.3861,37.5900,92,90,101465
1.9404,0.4057,37.3400,92,90,101468
1.8719,0.4008,37.4900,92,90,101471
1.7986,0.3861,37.5300,92,90,101475
1.7498,0.3812,37.5600,92,90,101478
1.7546,0.3910,37.5900,92,90,101481
1.8231,0.3959,37.3700,92,90,101485
1.8231,0.3861,37.5600,92,90,101488
1.7986,0.3861,37.4300,92,90,101491
1.7253,0.3910,37.5600,92,90,101494
1.6862,0.3861,37.5900,92,90,101498
1.7009,0.3910,37.4900,92,90,101501
1.7449,0.3910,37.5600,92,90,101505
1.8084,0.3959,36.6700,92,90,101509
1.7742,0.3861,37.5600,92,90,101512
1.7400,0.3861,37.7700,92,90,101515
1.7351,0.4106,37.4600,92,90,101519
1.7595,0.3861,37.5600,92,90,101522
1.8280,0.3910,37.4000,92,90,101525
1.8280,0.3812,37.5600,92,90,101528
1.7986,0.3861,37.5900,92,90,101532
1.7644,0.3959,37.4600,92,90,101535
1.7204,0.3910,37.5600,92,90,101538
1.7693,0.3959,37.2800,92,90,101542
1.7986,0.3910,37.4600,92,90,101545
1.7937,0.3861,37.5900,92,90,101549
1.7889,0.3910,37.5300,92,90,101553
1.7155,0.3861,37.5900,92,90,101556
1.7351,0.4008,37.2800,92,90,101559
1.7351,0.3861,37.4900,92,90,101563
1.7742,0.3812,37.5600,92,90,101566
1.8035,0.3861,37.5600,92,90,101569
1.7693,0.3861,37.5900,92,90,101572
1.7742,0.4106,37.4000,92,90,101576
1.7400,0.3861,37.5300,92,90,101579
1.7742,0.3861,37.4900,92,90,101582
1.8328,0.4057,37.6200,91,90,101586
1.8915,0.3910,37.5900,91,90,101590
2.0332,0.3666,37.5900,91,90,101594
2.1750,0.3959,37.3400,91,90,101597
2.1603,0.3861,37.5600,91,90,101600
2.1065,0.3910,37.4000,91,90,101604
1.9795,0.3861,37.4600,91,90,101607
1.8573,0.3763,37.5900,91,90,101610
1.7009,0.3910,37.4300,91,90,101614
1.5103,0.4057,37.5600,91,90,101617
1.4321,0.3910,37.3400,91,90,101620
1.4174,0.3861,37.5600,91,90,101623
1.5298,0.3666,37.5900,91,90,101627
1.7058,0.3861,37.5300,91,90,101630
1.8182,0.3715,37.5600,91,90,101634
1.9306,0.4008,37.3100,91,90,101638
1.8817,0.3910,37.4600,91,90,101641
1.8719,0.3763,37.5900,91,90,101644
1.8768,0.3861,37.5900,91,90,101648
1.9159,0.3666,37.5900,91,90,101651
2.0039,0.4057,36.5800,91,90,101654
1.9404,0.3910,37.5300,91,90,101657
1.8817,0.3763,37.5300,91,90,101661
1.8475,0.3861,37.5900,91,90,101664
1.8524,0.3861,37.5900,91,90,101667
1.9306,0.3959,37.4000,91,90,101671
1.9355,0.3959,37.5300,91,90,101675
1.9257,0.3861,37.4300,91,90,101678
1.8622,0.3861,37.5900,91,90,101682
1.8475,0.3910,37.5600,91,90,101685
1.8622,0.3910,37.4600,91,90,101688
1.8915,0.3910,37.6800,91,90,101692
1.9355,0.3959,37.4300,91,90,101695
1.8915,0.3861,37.5900,91,90,101698
1.8377,0.3861,37.5900,91,90,101701
1.8231,0.3861,37.3700,91,90,101705
1.8280,0.3812,37.5600,91,90,101708
1.8964,0.3910,37.3700,91,90,101711
1.8915,0.3910,37.5900,91,90,101715
1.8719,0.3861,37.5900,91,90,101719
1.8328,0.3959,37.5300,91,90,101722
1.8084,0.3763,37.5600,91,90,101726
1.8524,0.3959,37.3700,91,90,101729
1.8719,0.4203,37.4600,91,90,101732
1.8964,0.3861,37.5600,91,90,101736
1.8768,0.4008,37.5300,91,90,101739
1.8182,0.3910,37.5900,91,90,101742
1.8524,0.3861,37.2500,91,90,101745
1.8573,0.3910,37.4600,91,90,101749
1.9062,0.3812,37.5600,91,90,101752
1.9306,0.3861,37.5600,91,90,101755
1.9062,0.3666,37.5600,91,90,101760
1.9062,0.4057,37.4900,91,90,101763
1.8671,0.4008,37.5600,91,90,101766
1.8964,0.3910,37.4900,91,90,101770
1.9453,0.3861,37.5900,91,90,101773
1.9550,0.3910,37.5900,91,90,101776
1.9599,0.3959,37.4600,91,90,101779
1.9062,0.3861,37.5600,91,90,101783
1.9257,0.3910,37.4300,91,90,101786
1.9501,0.3861,37.6800,91,90,101789
2.0039,0.4057,37.5600,91,90,101793
2.0821,0.3910,37.4300,91,90,101796
2.0088,0.3861,36.7600,91,90,101799
1.9990,0.4008,37.4600,91,90,101804
1.9795,0.3910,37.5600,91,90,101807
2.0332,0.3861,37.5900,91,90,101810
2.0919,0.3910,37.4900,91,90,101813
2.0968,0.3861,37.5600,91,90,101817
2.0821,0.3910,37.3700,91,90,101820
2.0283,0.3861,37.5600,91,90,101823
2.0381,0.3812,37.5900,91,90,101827
2.1359,0.3910,37.6800,91,90,101830
2.1261,0.3861,37.5900,91,90,101833
2.1505,0.3910,37.3100,91,90,101837
2.0674,0.3910,37.5600,91,90,101840
2.0186,0.3861,37.6200,91,90,101843
2.0235,0.3910,37.4600,91,90,101847
2.0235,0.3861,37.5900,91,90,101851
2.0821,0.3959,37.2500,91,90,101854
2.0088,0.3910,37.4600,91,90,101857
1.9062,0.3763,37.5900,91,90,101861
1.8475,0.3861,37.5900,91,90,101864
1.7986,0.3910,37.5900,91,90,101867
1.8671,0.4057,37.3100,91,90,101871
1.8035,0.4154,37.4300,91,90,101874
1.7400,0.3763,37.5300,91,90,101877
1.6764,0.3861,37.6200,91,90,101880
1.6129,0.3861,37.5900,91,90,101884
1.6325,0.4008,37.4300,91,90,101888
1.6373,0.3910,37.7400,91,90,101891
1.6422,0.3812,37.4300,91,90,101895
1.6080,0.3861,37.5600,91,90,101898
1.5591,0.3910,37.5600,91,90,101901
1.5445,0.3959,37.4900,91,90,101905
1.5445,0.3861,37.5600,91,90,101908
1.6080,0.3910,37.4000,91,90,101911
1.6129,0.3861,37.5900,91,90,101914
1.5982,0.3861,37.5900,91,90,101918
1.5836,0.3959,37.4300,91,90,101921
1.5445,0.3861,37.5600,91,90,101924
1.5982,0.3910,37.4000,91,90,101928
1.6178,0.3861,37.4900,91,90,101932
1.6520,0.3861,37.6500,91,90,101935
1.6422,0.3910,37.4300,91,90,101939
1.5934,0.3861,37.5600,91,90,101942
1.6031,0.3910,37.3700,91,90,101945
1.6080,0.3861,37.5600,91,90,101949
1.6667,0.3861,37.5900,91,90,101952
1.7155,0.3959,37.4900,91,90,101955
1.6813,0.3910,37.5900,91,90,101958
1.6813,0.3959,37.1900,91,90,101962
1.6373,0.3861,37.4900,91,90,101965
1.6716,0.3861,37.7400,91,90,101968
1.7302,0.3910,37.5600,91,90,101972
1.7400,0.3861,37.5300,91,90,101976
1.7546,0.4008,37.3100,91,90,101979
1.6911,0.3910,37.4600,91,90,101983
1.6569,0.3812,37.4900,91,90,101986
1.6911,0.3910,37.5600,91,90,101989
1.7253,0.3861,37.5900,91,90,101993
1.7693,0.3959,37.3700,91,90,101996
1.7155,0.3910,37.5900,91,90,101999
1.6764,0.3812,37.4300,91,90,102002
1.6569,0.3861,37.5900,91,90,102006
1.6960,0.3861,37.5900,91,90,102009
1.7644,0.3910,37.4600,91,90,102012
1.7742,0.3861,37.5600,91,90,102017
1.7742,0.3910,37.4000,91,90,102020
1.7400,0.3910,37.5900,91,90,102023
1.7351,0.3861,37.5600,91,90,102027
1.7937,0.3910,37.4600,91,90,102030
1.8426,0.3861,37.5900,91,90,102033
1.8915,0.3910,37.4000,91,90,102036
1.8573,0.3861,37.5600,91,90,102040
1.8133,0.3861,37.5900,91,90,102043
1.8328,0.3959,37.4300,91,90,102046
1.8426,0.3861,37.6200,91,90,102050
1.8915,0.4008,37.3400,91,90,102053
1.8573,0.3910,37.4600,91,90,102056
1.7791,0.3861,37.8000,91,90,102061
1.7400,0.3959,37.4900,91,90,102064
1.7302,0.3861,37.5900,91,90,102067
1.7986,0.4008,37.2500,91,90,102071
1.7791,0.3861,37.4900,91,90,102074
1.7546,0.3861,37.6500,91,90,102077
1.7107,0.3910,37.5600,91,90,102080
1.6716,0.3861,37.5900,91,90,102084
1.7253,0.4448,37.3400,91,90,102087
1.7400,0.3959,37.5600,91,90,102090
1.7644,0.3861,37.4900,91,90,102094
1.7546,0.3861,37.5600,91,90,102097
1.7058,0.3812,37.5900,91,90,102100
1.7058,0.3861,37.4600,91,90,102105
1.6960,0.3861,37.5300,91,90,102108
1.7498,0.3910,37.4300,91,90,102111
1.7595,0.3861,37.5600,91,90,102115
1.7400,0.3861,37.5900,91,90,102118
1.7204,0.3959,37.4300,91,90,102121
1.6764,0.3861,37.5600,91,90,102124
1.7155,0.3959,37.4300,91,90,102128
1.7498,0.3861,37.5600,91,90,102131
1.7742,0.3861,37.5900,91,90,102134
1.7742,0.3861,37.4600,91,90,102138
1.7302,0.3861,37.5300,91,90,102141
1.7595,0.3910,37.3700,91,90,102145
1.7155,0.3861,37.5900,91,90,102149
1.7595,0.3910,37.5900,91,90,102152
1.8426,0.3910,37.4900,91,90,102155
1.8768,0.3861,37.5900,91,90,102158
1.9795,0.4008,37.3400,91,90,102162
2.0137,0.3812,37.5600,91,90,102165
2.0577,0.3861,37.5600,91,90,102168
2.0577,0.3910,37.5300,91,90,102172
1.9306,0.3861,37.5900,91,90,102175
1.7644,0.3959,37.2500,91,90,102178
1.4956,0.3861,37.4600,91,90,102182
1.3294,0.3812,37.5900,91,90,102185
1.3441,0.3861,37.5600,91,90,102189
1.4712,0.3861,37.6200,91,90,102193
1.6813,0.4057,37.4000,91,90,102196
1.9404,0.3910,37.4000,91,90,102200
1.9404,0.3861,37.3100,91,90,102203
1.9208,0.3910,37.4300,91,90,102206
1.8622,0.3861,37.5900,91,90,102209
1.8524,0.3861,37.5600,91,90,102213
1.8964,0.3910,37.4600,91,90,102216
1.9208,0.3861,37.5900,91,90,102219
1.9404,0.3910,37.4000,91,90,102223
1.8622,0.3861,37.5900,91,90,102226
1.8231,0.3910,37.6200,91,90,102230
1.8426,0.3910,37.4600,91,90,102234
1.8622,0.3861,37.5600,91,90,102237
1.9355,0.3959,37.3700,91,90,102240
1.9110,0.3910,37.4600,91,90,102244
1.8524,0.3910,37.6800,91,90,102247
1.8328,0.3910,37.5300,91,90,102250
1.8328,0.3861,37.5600,91,90,102253
1.9208,0.4008,37.2800,91,90,102257
1.9159,0.3861,37.4900,91,90,102260
1.9062,0.3861,37.5300,91,90,102263
1.8719,0.3910,37.5300,91,90,102267
1.8280,0.3861,37.5900,91,90,102270
1.8915,0.4057,37.3400,91,90,102274
1.9062,0.3861,37.4900,91,90,102278
1.9306,0.3812,37.4600,91,90,102281
1.9257,0.3910,37.5900,91,90,102284
1.8768,0.3861,37.6500,91,90,102287
1.8817,0.4008,37.4600,91,90,102291
1.8768,0.3861,37.5300,91,90,102294
1.9355,0.3861,37.4300,91,90,102297
1.9453,0.3861,37.5600,91,90,102301
1.9257,0.3861,37.5900,91,90,102304
1.9208,0.3959,37.4000,91,90,102307
1.8719,0.3861,37.5900,91,90,102311
1.9208,0.3910,37.4900,91,90,102315
1.9453,0.3812,37.5600,91,90,102318
1.9746,0.3812,37.5600,91,90,102322
1.9746,0.3910,37.4900,91,90,102325
1.9306,0.3861,37.5900,91,90,102328
1.9746,0.3910,37.3700,91,90,102331
1.9550,0.3861,37.5600,91,90,102335
2.0088,0.3812,37.5900,91,90,102338
2.0626,0.3959,37.4900,91,90,102341
2.0283,0.3861,37.5900,91,90,102345
2.0332,0.3959,37.3700,91,90,102348
1.9941,0.3812,37.5300,91,90,102351
2.0430,0.3861,37.5900,91,90,102355
2.1114,0.3910,37.5300,91,90,102359
2.1310,0.3861,37.7700,91,90,102362
2.1652,0.3959,37.2500,91,90,102366
2.1017,0.3910,37.5300,91,90,102369
2.0821,0.3812,37.5900,91,90,102372
2.1310,0.3861,37.5600,91,90,102375
2.1750,0.3861,37.4300,91,90,102379
2.2483,0.4154,37.3700,91,90,102382
2.1799,0.3910,37.4600,91,90,102385
2.1114,0.3861,37.4600,91,90,102389
2.1114,0.3910,37.5900,91,90,102392
2.1017,0.3861,37.5900,91,90,102395
2.1554,0.4008,37.4300,91,90,102400
2.1408,0.3910,37.5300,91,90,102403
2.0381,0.3959,37.4300,91,90,102406
1.9453,0.3861,36.9500,91,90,102409
1.8964,0.3861,37.5600,91,90,102413
1.9062,0.4154,37.5300,91,90,102416
1.8964,0.3910,37.5600,91,90,102419
1.8719,0.3959,37.4300,91,90,102423
1.7644,0.3812,37.5600,91,90,102426
1.6960,0.3910,37.5900,91,90,102429
1.6862,0.3959,37.4600,91,90,102433
1.6813,0.3959,37.5600,91,90,102436
1.7204,0.3910,37.4000,91,90,102439
1.6862,0.3861,37.4900,91,90,102443
1.6373,0.3861,37.1300,91,90,102447
1.6129,0.3861,37.4300,91,90,102450
1.6031,0.3861,37.5900,91,90,102453
1.6716,0.3959,37.3100,91,90,102457
1.6813,0.3861,37.5900,91,90,102460
1.6764,0.3861,37.5900,91,90,102463
1.6569,0.3910,37.5300,91,90,102467
1.6031,0.3910,37.5600,91,90,102470
1.6520,0.3959,37.2800,91,90,102473
1.6569,0.3861,37.4900,91,90,102477
1.6960,0.3812,37.5900,91,90,102480
1.7009,0.3763,37.5600,91,90,102483
1.6569,0.3861,37.5900,91,90,102487
1.6813,0.4252,37.3100,91,90,102491
1.6667,0.3959,37.4900,91,90,102494
1.6960,0.3861,37.6500,91,90,102497
1.7449,0.3861,37.5900,91,90,102501
1.6960,0.3861,37.7100,91,90,102504
1.6862,0.4008,37.3700,91,90,102507
1.6422,0.3910,37.5600,91,90,102511
1.6618,0.3910,37.4600,91,90,102514
1.6960,0.3910,37.5900,91,90,102517
1.7253,0.3861,37.5900,91,90,102520
1.7400,0.3910,37.4600,91,90,102524
1.6911,0.3910,37.5900,91,90,102528
1.6862,0.3910,37.4300,91,90,102531
1.6813,0.3861,37.5900,91,90,102535
1.7302,0.4008,37.6800,91,90,102538
1.7840,0.3910,37.4900,91,90,102541
1.7449,0.3861,37.5900,91,90,102545
1.7302,0.3910,37.4300,91,90,102548
1.6960,0.3861,37.5900,91,90,102551
1.7302,0.3861,37.5900,91,90,102554
1.7986,0.3910,37.4600,91,90,102558
1.8035,0.3861,37.5600,91,90,102561
1.8035,0.3910,37.3100,91,90,102564
1.7400,0.3910,37.4600,91,90,102568
1.7009,0.3910,37.5900,91,90,102572
1.7449,0.3959,37.7400,91,90,102575
1.7693,0.4203,37.5600,91,90,102579
1.8280,0.3959,37.3100,91,90,102582
1.7693,0.3812,37.5300,91,90,102585
1.7498,0.3666,37.6200,91,90,102588
1.7253,0.3910,37.0100,91,90,102592
1.7449,0.3812,37.5900,91,90,102595
1.8377,0.4057,37.2200,91,90,102598
1.8084,0.3861,37.4900,91,90,102602
1.7498,0.3763,37.5300,91,90,102605
1.7107,0.3861,37.5900,91,90,102608
1.7009,0.3763,37.5600,91,90,102612
1.7889,0.4008,37.4300,91,90,102616
1.7986,0.3910,37.6200,91,90,102619
1.8035,0.3861,37.4600,91,90,102622
1.7546,0.3861,37.5900,91,90,102626
1.7058,0.3861,37.5300,91,90,102629
1.7302,0.4008,37.4000,91,90,102632
1.7498,0.3910,37.5600,91,90,102636
1.8084,0.3910,37.4000,91,90,102639
1.7889,0.3959,37.5900,91,90,102642
1.7498,0.3861,37.5600,91,90,102646
1.7253,0.4252,37.5600,91,90,102649
1.7155,0.3861,37.5600,91,90,102652
1.7840,0.3910,37.4000,91,90,102657
1.7986,0.3812,37.5600,91,90,102660
1.8035,0.3861,37.6200,91,90,102663
1.7791,0.3861,37.4600,91,90,102666
1.7498,0.3763,37.5900,91,90,102670
1.7644,0.3861,37.3700,91,90,102673
1.7840,0.3910,37.5900,91,90,102676
1.8328,0.3666,37.5900,91,90,102680
1.8426,0.3959,37.5600,91,90,102683
1.7889,0.3763,37.5900,91,90,102686
1.7937,0.3959,37.3700,91,90,102690
1.8133,0.3812,37.4900,91,90,102693
1.8133,0.3910,37.5900,91,90,102696
1.8573,0.3910,37.5300,91,90,102700
1.8377,0.3861,37.5900,91,90,102704
1.8231,0.4057,37.3100,91,90,102707
1.7546,0.3910,37.4900,91,90,102710
1.7595,0.3812,37.5300,91,90,102714
1.8182,0.3861,37.5600,91,90,102717
1.8426,0.3910,37.5900,91,90,102720
1.8768,0.4008,37.4000,91,90,102724
1.7986,0.4057,37.4900,91,90,102727
1.7595,0.3910,37.4600,91,90,102730
1.7693,0.3910,37.5600,91,90,102733
1.8133,0.3861,37.5300,91,90,102737
1.9013,0.4008,37.4900,91,90,102740
1.8280,0.3910,37.5600,91,90,102744
1.7986,0.3910,37.4300,91,90,102748
1.7693,0.3861,37.6200,91,90,102751
1.7742,0.3861,37.5900,91,90,102754
1.8475,0.4008,37.4300,91,90,102758
1.8524,0.3861,37.5600,91,90,102761
1.8573,0.3910,37.5600,91,90,102764
1.7840,0.3812,37.5300,91,90,102767
1.7937,0.3959,37.5900,91,90,102771
1.8084,0.3861,37.5300,91,90,102774
1.8524,0.4399,37.5600,91,90,102777
1.9013,0.3910,37.4000,91,90,102781
1.8524,0.3861,37.5900,91,90,102785
1.8133,0.4008,37.5600,91,90,102788
1.8084,0.3959,37.4900,91,90,102792
1.8328,0.3861,37.5900,91,90,102795
1.9257,0.3910,37.2800,91,90,102798
1.9159,0.3812,37.4600,91,90,102802
1.8964,0.3910,37.5900,91,90,102805
1.8573,0.3910,37.5600,91,90,102808
1.8377,0.3861,37.5900,91,90,102812
1.7840,0.3910,37.5600,91,90,102815
1.8035,0.3861,37.3700,91,90,102818
1.8035,0.3910,37.5900,91,90,102822
1.8426,0.3861,37.4300,91,90,102825
1.8280,0.3666,37.5900,91,90,102829
1.7840,0.3861,37.4300,91,90,102833
1.7937,0.3959,37.4900,91,90,102836
1.7351,0.3910,37.6200,91,90,102839
1.7986,0.3959,37.4000,91,90,102843
1.8426,0.3910,37.5900,91,90,102846
1.8182,0.3861,37.5900,91,90,102849
1.7889,0.3861,37.4300,91,90,102852
1.7351,0.3861,37.5600,91,90,102856
1.7498,0.3861,37.4000,91,90,102859
1.7693,0.3861,37.5900,91,90,102862
1.8084,0.3861,37.5900,91,90,102866
1.8231,0.3861,37.4900,91,90,102870
1.7644,0.3861,37.5900,91,90,102873
1.7644,0.3959,37.3700,91,90,102877
1.7595,0.3959,37.4600,91,90,102880
1.7889,0.3861,37.6200,91,90,102883
1.8426,0.3910,37.5600,91,90,102887
1.8133,0.3861,37.5600,91,90,102890
1.8133,0.3959,37.2800,91,90,102893
1.7498,0.3861,37.5300,91,90,102896
1.7644,0.3812,37.5300,91,90,102900
1.8182,0.3861,37.5600,91,90,102903
1.8426,0.3861,37.5600,91,90,102906
1.8866,0.4057,37.4300,91,90,102910
1.8377,0.3959,37.4900,91,90,102914
1.8231,0.3861,37.4900,91,90,102917
1.8573,0.3910,37.5900,91,90,102921
1.8817,0.3861,37.5600,91,90,102924
1.9501,0.3959,37.4600,91,90,102927
1.9550,0.3861,37.5600,91,90,102931
2.0235,0.3910,37.8700,91,90,102934
2.0919,0.3861,37.5900,91,90,102937
2.1799,0.3861,37.5900,91,90,102940
2.2581,0.3959,37.6200,91,90,102944
2.1848,0.3910,37.5900,91,90,102947
2.0626,0.3959,37.4600,91,90,102950
1.8231,0.3812,37.6200,91,90,102955
1.5982,0.3861,37.5900,91,90,102958
1.4858,0.3861,37.4600,91,90,102961
1.5152,0.3861,37.5900,91,90,102965
1.5934,0.3910,36.6400,91,90,102968
1.6618,0.3861,37.5600,91,90,102971
1.7107,0.3861,37.6500,91,90,102974
1.7840,0.3861,37.4900,91,90,102978
1.8475,0.3861,37.5900,91,90,102981
1.9355,0.3959,37.4000,91,90,102984
1.9404,0.3812,37.4900,91,90,102988
1.8671,0.3861,37.6200,91,90,102991
1.8280,0.3910,37.5300,91,90,102994
1.8035,0.3861,37.5900,91,90,102999
1.8817,0.4008,37.2800,91,90,103002
1.8866,0.3812,37.5600,91,90,103005
1.8866,0.3666,37.5900,91,90,103009
1.8475,0.3861,37.5600,91,90,103012
1.8084,0.3861,37.5900,91,90,103015
1.8426,0.4057,37.3700,91,90,103018
1.8475,0.3910,37.5300,91,90,103022
1.8866,0.3910,37.4900,91,90,103025
1.8817,0.3861,37.5900,91,90,103028
1.8426,0.3861,37.6200,91,90,103032
1.8280,0.3959,37.4600,91,90,103035
1.7986,0.3910,37.6500,91,90,103038
1.8426,0.3910,37.4300,91,90,103043
1.8768,0.3861,37.5900,91,90,103046
1.8719,0.3861,37.5900,91,90,103049
1.8475,0.3910,37.5300,91,90,103052
1.7986,0.3861,37.5900,91,90,103056
1.8280,0.3959,37.4300,91,90,103059
1.8475,0.3861,37.5900,91,90,103062
1.8866,0.3861,37.3400,91,90,103066
1.9110,0.3959,37.5300,91,90,103069
1.8524,0.3861,37.6200,91,90,103072
1.8377,0.4154,37.4000,91,90,103076
1.8280,0.3910,37.4900,91,90,103079
1.8719,0.3861,37.5900,91,90,103083
1.9306,0.4008,37.4600,91,90,103086
1.9208,0.3763,37.5900,91,90,103090
1.9110,0.3861,37.3100,91,90,103093
1.8475,0.3910,37.6200,91,90,103096
1.8817,0.3812,37.5900,91,90,103100
1.9306,0.3910,37.5600,91,90,103103
1.9550,0.3910,37.5300,91,90,103106
1.9941,0.3910,37.2800,91,90,103110
1.9159,0.3861,37.4600,91,90,103113
1.8866,0.3861,37.5900,91,90,103116
1.9159,0.3910,37.5600,91,90,103119
1.9648,0.3959,37.5600,91,90,103123
2.0577,0.4106,37.3400,91,90,103127
2.0088,0.3861,37.5300,91,90,103130
1.9746,0.3861,37.4600,91,90,103134
1.9599,0.3861,37.5600,91,90,103137
1.9844,0.3861,37.5900,91,90,103140
2.0968,0.3959,37.4000,91,90,103144
2.0870,0.3861,37.6500,91,90,103147
2.0870,0.3910,37.5300,91,90,103150
2.0283,0.3861,37.5600,91,90,103153
2.0088,0.3812,37.5900,91,90,103157
2.0674,0.3861,37.4900,91,90,103160
2.1017,0.3910,37.5900,91,90,103163
2.1457,0.3910,37.4000,91,90,103168
2.0919,0.3763,37.5900,91,90,103171
2.0626,0.3861,37.5900,91,90,103174
2.0430,0.3861,37.5300,91,90,103178
2.0528,0.3959,37.5900,91,90,103181
2.1310,0.3910,37.4600,91,90,103184
2.0919,0.3861,37.6200,91,90,103187
2.0528,0.3715,37.5900,91,90,103191
2.0137,0.3861,37.4600,91,90,103194
1.9501,0.3861,37.6200,91,90,103197
1.9746,0.3910,37.3400,91,90,103201
1.9648,0.3861,37.4900,91,90,103204
1.9306,0.3861,37.6200,91,90,103207
1.8768,0.3861,37.4900,91,90,103212
1.7742,0.3861,37.5900,91,90,103215
1.7546,0.3910,37.3100,91,90,103218
1.7155,0.3812,37.5300,91,90,103221
1.7253,0.3763,37.6200,91,90,103225
1.7204,0.3910,37.5600,91,90,103228
1.6520,0.3861,37.8300,91,90,103231
1.6276,0.4203,37.2800,91,90,103235
1.5689,0.3910,37.2500,91,90,103238
1.5836,0.3812,37.5600,91,90,103241
1.6227,0.3861,37.5600,91,90,103245
1.6227,0.3861,37.6200,91,90,103248
1.6276,0.4008,37.4300,91,90,103251
1.5543,0.3910,37.7400,91,90,103256
1.5445,0.3959,37.4300,91,90,103259
1.5738,0.3861,37.4600,91,90,103262
1.6178,0.3959,37.5600,91,90,103265
1.6618,0.3861,37.4300,91,90,103269
1.6031,0.3959,37.5900,91,90,103272
1.5836,0.3763,37.4300,91,90,103275
1.5689,0.3861,37.5900,91,90,103279
1.6227,0.3861,37.5900,91,90,103282
1.6813,0.3910,37.4900,91,90,103285
1.6716,0.3861,37.5600,91,90,103289
1.6520,0.4106,37.4600,91,90,103292
1.5982,0.3861,37.5900,91,90,103296
1.6031,0.3861,37.5600,91,90,103299
1.6569,0.3910,37.4900,91,90,103303
1.6813,0.3861,37.5900,91,90,103306
1.7009,0.3910,37.4000,91,90,103309
1.6422,0.3910,37.5600,91,90,103313
1.6129,0.3861,37.5900,91,90,103316
1.6520,0.3959,37.4600,91,90,103319
1.6813,0.3666,37.5900,91,90,103323
1.7595,0.3959,37.4000,91,90,103326
1.7302,0.4106,37.4900,91,90,103329
1.6764,0.3959,37.5900,91,90,103332
1.6569,0.3910,37.5600,91,90,103336
1.6569,0.3861,37.5600,91,90,103340
1.7889,0.3959,37.2800,91,90,103343
1.7498,0.4252,37.4900,91,90,103347
1.7351,0.3763,37.5600,91,90,103350
1.6862,0.3861,37.7400,91,90,103353
1.6520,0.3812,37.5900,91,90,103357
1.7204,0.4008,37.4000,91,90,103360
1.7400,0.3910,37.5300,91,90,103363
1.7546,0.3861,37.5300,91,90,103366
1.7498,0.4057,37.5600,91,90,103370
1.7107,0.3861,37.6200,91,90,103373
1.7107,0.3910,37.4600,91,90,103376
1.7204,0.3910,37.5900,91,90,103380
1.7742,0.3861,37.4300,91,90,103384
1.7937,0.3910,37.5900,91,90,103387
1.7449,0.3861,37.5900,91,90,103391
1.7351,0.3959,37.4000,91,90,103394
1.6960,0.3861,37.5600,91,90,103397
1.7449,0.3959,37.4900,91,90,103401
1.7595,0.3666,37.5600,91,90,103404
1.7889,0.3861,37.5900,91,90,103407
1.7840,0.3910,37.4600,91,90,103410
1.7253,0.3861,37.5900,91,90,103414
1.7351,0.3910,37.3400,91,90,103417
1.7693,0.4008,37.2800,91,90,103421
1.7351,0.3910,37.4900,91,90,103425
1.7742,0.3812,37.5600,91,90,103428
1.8280,0.3959,37.5600,91,90,103432
1.8377,0.3861,37.5900,91,90,103435
1.8524,0.4252,37.3700,91,90,103438
1.7791,0.3910,37.5300,91,90,103442
1.7595,0.3861,37.5300,91,90,103445
1.7889,0.3861,37.5900,91,90,103448
1.8182,0.3861,37.4600,91,90,103452
1.8719,0.4008,37.4000,91,90,103455
1.7840,0.3861,37.5900,91,90,103458
1.7595,0.3910,37.4000,91,90,103461
1.7546,0.3910,37.5600,91,90,103465
1.8280,0.3666,37.6200,91,90,103469
1.8719,0.4057,37.5900,91,90,103472
1.8524,0.4203,37.5600,91,90,103476
1.8133,0.3959,37.4300,91,90,103479
1.7449,0.3861,37.5600,91,90,103482
1.7449,0.3861,37.5600,91,90,103486
1.7889,0.3910,37.4000,91,90,103489
1.8084,0.3861,37.4600,91,90,103492
1.8084,0.3910,37.4000,91,90,103495
1.7302,0.3861,37.5900,91,90,103499
1.6764,0.3861,37.7100,91,90,103502
1.6911,0.3861,37.4900,91,90,103505
1.7107,0.3861,36.8200,91,90,103510
1.7840,0.3910,37.3400,91,90,103513
1.7791,0.3910,37.4600,91,90,103516
1.7204,0.3861,37.5900,91,90,103520
1.7009,0.3910,37.5600,91,90,103523
1.7253,0.3861,37.5900,91,90,103526
1.7937,0.3959,37.3100,91,90,103529
1.7937,0.3812,37.4900,91,90,103533
1.7889,0.3861,37.5600,91,90,103536
1.7546,0.3861,37.6200,91,90,103539
1.7204,0.3910,37.5900,91,90,103543
1.7889,0.4057,37.3400,91,90,103546
1.7937,0.3910,37.5300,91,90,103549
1.8231,0.3910,37.4900,91,90,103554
1.7937,0.3861,36.8500,91,90,103557
1.7351,0.3861,37.5900,91,90,103560
1.7546,0.4008,37.4600,91,90,103564
1.7498,0.3861,37.0100,91,90,103567
1.8035,0.3910,37.4600,91,90,103570
1.8133,0.3861,37.5900,91,90,103573
1.7889,0.3861,37.6500,91,90,103577
1.7986,0.3959,37.4000,91,90,103580
1.7400,0.3861,37.5900,91,90,103583
1.7840,0.4057,37.4000,91,90,103587
1.8280,0.3861,37.5900,91,90,103590
1.8671,0.3861,37.5900,91,90,103593
1.8817,0.3959,37.4900,91,90,103598
1.8377,0.3861,37.6200,91,90,103601
1.8328,0.3910,37.4600,91,90,103604
1.8426,0.3910,37.5900,91,90,103607
1.9306,0.3910,37.5900,91,90,103611
2.0430,0.3861,37.4300,91,90,103614
2.1065,0.3812,37.5900,91,90,103617
2.1750,0.3910,37.3700,91,90,103621
2.1163,0.3861,37.7100,91,90,103624
2.0772,0.3959,37.5900,91,90,103627
2.0039,0.3959,37.4900,91,90,103630
1.8133,0.3861,37.6500,91,90,103634
1.6178,0.4106,37.3100,91,90,103638
1.4174,0.3910,37.4600,91,90,103641
1.3734,0.3861,37.5600,91,90,103645
1.4956,0.3910,37.5600,91,90,103648
1.6422,0.3910,37.5900,91,90,103651
1.8035,0.4008,37.0400,91,90,103655
1.8133,0.3910,37.4600,91,90,103658
1.8182,0.3861,37.5600,91,90,103661
1.8377,0.4252,37.5300,91,90,103665
1.8817,0.3861,37.5900,91,90,103668
1.9795,0.4008,37.4300,91,90,103671
1.9550,0.3959,37.5300,91,90,103674
1.9110,0.3861,37.4600,91,90,103678
1.8622,0.3910,37.5900,91,90,103682
1.8573,0.3861,37.6200,91,90,103685
1.9208,0.3959,37.4300,91,90,103689
1.9355,0.3861,37.5600,91,90,103692
1.9355,0.3910,37.4300,91,90,103695
1.8768,0.3861,37.6200,91,90,103699
1.8328,0.3763,37.6500,91,90,103702
1.8573,0.4008,37.4600,91,90,103705
1.8671,0.3910,37.6200,91,90,103708
1.9257,0.3959,37.4600,91,90,103712
1.8866,0.3812,37.5600,91,90,103715
1.8475,0.3910,37.6200,91,90,103718
1.8280,0.3910,37.5900,91,90,103723
1.8231,0.4252,37.5900,91,90,103726
1.8866,0.3910,37.3700,91,90,103729
1.8866,0.3861,37.7100,91,90,103733
1.8719,0.3861,37.5900,91,90,103736
1.8475,0.3861,37.4900,91,90,103739
1.7937,0.3861,37.6200,91,90,103743
1.8475,0.4008,37.3400,91,90,103746
1.8573,0.3812,37.5300,91,90,103749
1.8964,0.3910,37.6200,91,90,103752
1.9013,0.3910,37.5600,91,90,103756
1.8524,0.3861,37.4900,91,90,103759
1.8817,0.4057,37.3100,91,90,103762
1.8768,0.3910,37.4900,91,90,103767
1.9159,0.3812,37.5300,91,90,103770
1.9550,0.3861,37.5900,91,90,103773
1.9355,0.3861,37.6800,91,90,103777
1.9453,0.3910,37.3700,91,90,103780
1.9013,0.3861,37.5300,91,90,103783
1.9159,0.3861,37.4600,91,90,103786
1.9795,0.3910,37.5600,91,90,103790
1.9941,0.3861,37.6200,91,90,103793
2.0039,0.3959,37.4900,91,90,103796
1.9404,0.3910,37.5600,91,90,103800
1.9404,0.3910,37.4300,91,90,103803
1.9501,0.3861,37.5600,91,90,103806
2.0039,0.3910,37.6200,91,90,103811
2.0479,0.3861,37.4900,91,90,103814
2.0186,0.4203,37.6200,91,90,103817
2.0186,0.3959,37.4600,91,90,103820
1.9795,0.3861,37.5900,91,90,103824
2.0186,0.3861,37.5900,91,90,103827
2.1065,0.3959,37.4900,91,90,103830
2.1065,0.3959,37.5600,91,90,103834
2.1114,0.3910,37.3700,91,90,103837
2.0577,0.3861,36.9500,91,90,103840
2.0381,0.3812,37.5900,91,90,103844
2.1017,0.3959,37.5300,91,90,103847
2.1310,0.3861,37.6200,91,90,103851
2.2092,0.3910,37.3100,91,90,103854
2.1212,0.3861,37.5300,91,90,103858
2.0772,0.3812,37.6200,91,90,103861
2.1065,0.3910,37.5300,91,90,103864
2.0919,0.3861,37.5900,91,90,103868
2.1701,0.4008,37.2800,91,90,103871
2.1065,0.3910,37.4600,91,90,103874
2.0283,0.3812,37.5600,91,90,103878
1.9550,0.3861,37.6500,91,90,103881
1.9355,0.3861,37.6200,91,90,103884
1.9501,0.4057,37.3700,91,90,103887
1.9062,0.3959,37.4900,91,90,103891
1.8524,0.3763,37.4900,91,90,103895
1.7742,0.3861,37.6200,91,90,103898
1.7253,0.3666,37.6200,91,90,103902
1.6960,0.3959,37.3700,91,90,103905
1.6960,0.3910,37.5600,91,90,103908
1.7155,0.3910,37.4900,91,90,103912
1.6862,0.3861,37.5900,91,90,103915
1.6764,0.3861,37.6200,91,90,103918
1.6080,0.3910,37.5300,91,90,103922
1.5934,0.3861,37.5600,91,90,103925
1.6569,0.3959,37.4600,91,90,103928
1.6764,0.3861,37.5600,91,90,103931
1.6716,0.3666,37.5900,91,90,103936
1.6373,0.3910,37.4600,91,90,103939
1.5885,0.3910,37.5900,91,90,103942
1.6276,0.3910,37.4000,91,90,103946
1.6471,0.3861,37.5600,91,90,103949
1.7204,0.3763,37.5900,91,90,103952
1.6960,0.3861,37.4600,91,90,103956
1.6471,0.3812,37.5900,91,90,103959
1.6520,0.3959,37.3400,91,90,103962
1.6422,0.3910,37.5900,91,90,103966
1.6813,0.3861,37.5900,91,90,103969
1.7400,0.3861,37.5300,91,90,103972
1.7204,0.3861,37.4600,91,90,103975
1.7302,0.4106,37.3100,91,90,103980
1.6764,0.3910,37.4900,91,90,103983
1.6960,0.3861,37.5900,91,90,103986
1.7498,0.3959,37.5600,91,90,103990
1.7693,0.3861,37.5900,91,90,103993
1.7937,0.4008,37.6800,91,90,103996
1.7107,0.3959,37.4900,91,90,104000
1.6764,0.3861,37.4900,91,90,104003
1.6911,0.4008,37.6200,91,90,104006
1.7351,0.3861,37.6500,91,90,104009
1.7937,0.4301,37.4900,91,90,104013
1.7742,0.3910,37.5600,91,90,104016
1.7155,0.3861,37.4600,91,90,104019
1.6764,0.3959,37.5900,91,90,104024
1.7107,0.3910,37.6200,91,90,104027
1.7840,0.3959,37.4000,91,90,104030
1.7546,0.3910,37.4600,91,90,104034
1.7937,0.3959,37.5900,91,90,104037
1.8426,0.3910,37.3700,91,90,104041
1.7840,0.3959,37.5900,91,90,104044
1.7595,0.3861,37.5900,91,90,104047
1.7498,0.3959,37.5300,91,90,104050
1.7595,0.3861,37.5300,91,90,104054
1.8377,0.4008,37.2800,91,90,104057
1.8084,0.3861,36.7900,91,90,104060
1.7693,0.3861,37.6200,91,90,104065
1.7400,0.3861,37.5600,91,90,104068
1.7253,0.3812,37.5900,91,90,104071
1.8182,0.3861,37.3400,91,90,104075
1.8231,0.3910,37.6200,91,90,104078
1.8133,0.4057,37.5600,91,90,104081
1.7840,0.3861,37.7400,91,90,104085
1.7400,0.3959,37.5600,91,90,104088
1.7840,0.3959,37.3700,91,90,104091
1.7937,0.3910,37.4900,91,90,104094
1.8328,0.3910,37.4600,91,90,104098
1.8182,0.3910,37.5900,91,90,104101
1.7840,0.3861,37.5900,91,90,104104
1.7791,0.3959,37.4600,91,90,104109
1.7595,0.3910,37.5600,91,90,104112
1.8035,0.3861,37.4300,91,90,104115
1.8280,0.3861,37.5600,91,90,104118
1.8280,0.3763,37.5900,91,90,104122
1.7889,0.3861,37.4900,91,90,104125
1.7449,0.3861,37.6200,91,90,104128
1.7791,0.3910,37.4300,91,90,104132
1.7986,0.3861,37.6200,91,90,104135
1.8328,0.3910,37.5600,91,90,104138
1.8426,0.3861,37.4900,91,90,104142
1.7986,0.3910,37.5600,91,90,104145
1.8084,0.3910,37.3700,91,90,104148
1.8182,0.3910,37.4600,91,90,104153
1.8622,0.3861,37.6200,91,90,104156
1.9110,0.3959,37.4900,91,90,104159
1.8719,0.3861,37.5900,91,90,104162
1.8524,0.4008,37.3100,91,90,104166
1.7791,0.3812,37.5600,91,90,104169
1.7889,0.3861,37.6500,91,90,104172
1.8475,0.3959,37.5600,91,90,104176
1.8377,0.3910,37.6200,91,90,104179
1.8475,0.4057,37.3100,91,90,104182
1.7498,0.3861,37.4600,91,90,104186
1.7009,0.3812,37.5900,91,90,104189
1.7204,0.3959,37.6200,91,90,104193
1.7742,0.3861,37.5900,91,90,104196
1.8524,0.4008,37.4000,91,90,104200
1.8035,0.4008,37.5600,91,90,104203
1.7498,0.3910,37.4900,91,90,104206
1.7253,0.3861,37.4900,91,90,104210
1.7546,0.4106,37.5900,91,90,104213
1.8475,0.3959,37.4000,91,90,104216
1.8475,0.3861,37.6200,91,90,104220
1.8231,0.3959,37.4600,91,90,104223
1.7546,0.3861,37.5900,91,90,104226
1.7302,0.3861,37.6500,91,90,104229
1.8133,0.3910,37.5600,91,90,104233
1.8084,0.3861,37.5600,91,90,104237
1.8426,0.3959,37.4600,91,90,104240
1.7986,0.3763,37.6200,91,90,104244
1.7449,0.3861,37.5900,91,90,104247
1.7546,0.3910,37.4600,91,90,104250
1.7742,0.3861,37.5900,91,90,104254
1.8475,0.3910,37.3700,91,90,104257
1.8328,0.3861,37.5900,91,90,104260
1.7986,0.3861,37.4900,91,90,104264
1.8133,0.3910,37.4900,91,90,104267
1.7546,0.3861,36.8500,91,90,104270
1.8280,0.3959,37.3100,91,90,104273
1.8622,0.3861,37.4900,91,90,104278
1.8719,0.3861,37.8300,91,90,104281
1.8573,0.3861,37.5600,91,90,104284
1.7889,0.3861,37.1000,91,90,104288
1.8231,0.4057,37.2800,91,90,104291
1.8622,0.3861,37.5300,91,90,104294
1.9599,0.3812,37.6200,91,90,104298
2.0674,0.3910,37.5900,91,90,104301
2.0919,0.3861,37.6500,91,90,104304
2.1017,0.4057,37.3400,91,90,104307
2.0039,0.3959,37.5300,91,90,104311
1.9062,0.3910,37.4600,91,90,104314
1.7742,0.3861,37.5900,91,90,104317
1.5885,0.3861,37.6200,91,90,104322
1.4321,0.3959,37.6200,91,90,104325
1.3636,0.3959,37.5600,91,90,104328
1.4614,0.3861,37.4900,91,90,104332
1.6129,0.3910,37.6200,91,90,104335
1.7693,0.3861,37.6200,91,90,104338
1.8915,0.4008,37.4900,91,90,104342
1.8964,0.3910,37.5900,91,90,104345
1.9110,0.3959,37.4600,91,90,104348
1.8964,0.3812,37.4600,91,90,104351
1.9355,0.3812,37.5600,91,90,104355
1.9746,0.3910,37.4900,91,90,104358
1.9453,0.3910,37.5900,91,90,104361
1.9355,0.3910,37.4300,91,90,104366
1.8622,0.3861,37.5900,91,90,104369
1.8719,0.3910,37.6200,91,90,104372
1.9355,0.3861,37.4600,91,90,104376
1.9453,0.3861,37.5600,91,90,104379
1.9746,0.4008,37.3100,91,90,104382
1.8817,0.3812,37.5300,91,90,104385
1.8426,0.3763,37.5900,91,90,104389
1.8671,0.3910,37.6500,91,90,104392
1.9062,0.3861,37.5900,91,90,104395
1.9892,0.4008,37.3100,91,90,104399
1.9306,0.4008,37.4600,91,90,104402
1.8719,0.3959,37.5300,91,90,104406
1.8426,0.3861,37.5600,91,90,104410
1.8524,0.3812,37.5900,91,90,104413
1.9501,0.4008,37.3700,91,90,104416
1.9501,0.3910,37.5300,91,90,104420
1.9257,0.3959,37.4600,91,90,104423
1.8768,0.3861,37.5600,91,90,104426
1.8475,0.4008,37.5900,91,90,104429
1.8964,0.3959,37.4600,91,90,104433
1.9257,0.3910,37.5900,91,90,104436
1.9599,0.3910,37.3700,91,90,104439
1.9110,0.3910,37.5900,91,90,104443
1.8671,0.3861,37.5900,91,90,104446
1.8622,0.3910,37.5300,91,90,104450
1.8817,0.3861,37.6200,91,90,104454
1.9648,0.3959,37.4900,91,90,104457
1.9599,0.3812,37.5900,91,90,104460
1.9404,0.3910,37.6200,91,90,104463
1.9257,0.3959,37.3400,91,90,104467
1.8964,0.3861,37.5900,91,90,104470
1.9599,0.3910,37.5900,91,90,104473
1.9941,0.3959,37.4900,91,90,104477
1.9941,0.3861,37.6200,91,90,104480
1.9844,0.4008,37.4900,91,90,104483
1.9257,0.3910,37.5900,91,90,104487
1.9746,0.3959,37.3400,91,90,104491
1.9795,0.3959,37.5600,91,90,104494
2.0332,0.3861,37.5900,91,90,104497
2.0723,0.3861,37.5300,91,90,104501
2.0381,0.3861,37.5900,91,90,104504
2.0626,0.4008,37.2500,91,90,104507
2.0332,0.3910,37.5300,91,90,104511
2.0723,0.3861,37.6500,91,90,104514
2.1261,0.3910,37.5900,91,90,104517
2.1310,0.3861,37.6200,91,90,104521
2.1603,0.4057,37.4300,91,90,104524
2.0772,0.3910,37.5300,91,90,104527
2.0821,0.3861,37.4900,91,90,104530
2.1212,0.3910,37.5600,91,90,104535
2.1554,0.3861,37.6200,91,90,104538
2.1994,0.3959,37.3700,91,90,104541
2.1310,0.3861,37.5900,91,90,104545
2.0870,0.3910,37.5300,91,90,104548
2.0577,0.3861,37.6200,91,90,104551
2.0772,0.3812,37.5900,91,90,104555
2.1114,0.3910,37.4900,91,90,104558
2.0528,0.3861,37.8000,91,90,104561
1.9892,0.3910,37.3700,91,90,104564
1.8866,0.3812,37.5900,91,90,104568
1.8524,0.3861,37.6200,91,90,104571
1.8573,0.3861,37.5600,91,90,104574
1.8328,0.3861,37.5900,91,90,104579
1.8084,0.3910,37.1600,91,90,104582
1.7058,0.3910,37.5600,91,90,104585
1.6471,0.3861,37.8000,91,90,104589
1.6520,0.4301,37.5600,91,90,104592
1.6569,0.3861,37.5900,91,90,104595
1.6960,0.3910,37.3700,91,90,104599
1.6813,0.3910,37.4900,91,90,104602
1.5885,0.3861,37.5900,91,90,104605
1.5591,0.4008,37.5600,91,90,104608
1.5640,0.3666,37.5900,91,90,104612
1.6471,0.3959,37.3100,91,90,104615
1.6471,0.3910,37.5300,91,90,104619
1.6471,0.3861,37.6200,91,90,104623
1.6227,0.3861,37.6200,91,90,104626
1.5982,0.3861,37.5900,91,90,104629
1.6764,0.4057,37.4300,91,90,104633
1.6960,0.3910,37.4900,91,90,104636
1.7058,0.3910,37.5600,91,90,104639
1.7009,0.3861,37.5900,91,90,104642
1.7595,0.3861,37.6200,91,90,104646
1.7498,0.3910,37.5900,91,90,104649
1.7351,0.3861,37.4300,91,90,104653
1.7058,0.3861,37.5900,91,90,104656
1.7644,0.3910,37.4600,91,90,104659
1.7840,0.3812,37.5600,91,90,104664
1.7986,0.3861,37.6200,91,90,104667
1.7791,0.3910,37.5300,91,90,104670
1.7302,0.3910,37.5900,91,90,104674
1.7546,0.3910,37.4300,91,90,104677
1.7546,0.3861,37.7100,91,90,104680
1.7937,0.4203,37.6200,91,90,104683
1.8133,0.3959,37.5300,91,90,104687
1.7546,0.3861,37.5600,91,90,104690
1.7546,0.3959,37.3100,91,90,104693
1.7107,0.3861,37.4600,91,90,104697
1.7546,0.3861,37.6200,91,90,104700
1.8133,0.3910,37.1000,91,90,104704
1.8231,0.3861,37.6200,91,90,104708
1.8231,0.4057,37.0400,91,90,104711
1.7546,0.3910,37.4900,91,90,104714
1.7449,0.3861,37.5300,91,90,104718
1.7889,0.3861,37.5600,91,90,104721
1.8133,0.3861,37.5900,91,90,104724
1.8524,0.3861,37.4000,91,90,104727
1.7840,0.3910,37.5300,91,90,104731
1.7400,0.3910,37.4600,91,90,104734
1.7253,0.3910,37.6200,91,90,104737
1.7595,0.3861,37.5300,91,90,104741
1.8035,0.3861,37.4300,91,90,104744
1.7840,0.3861,37.5300,91,90,104748
1.7449,0.4008,37.4000,91,90,104752
1.6911,0.3666,37.5900,91,90,104755
1.7009,0.3861,37.5900,91,90,104758
1.7595,0.3861,37.5600,91,90,104761
1.7889,0.3910,37.5600,91,90,104765
1.8133,0.3910,37.6200,91,90,104768
1.7498,0.3910,37.5600,91,90,104771
1.7204,0.3861,37.6500,91,90,104775
1.7595,0.3910,37.4300,91,90,104778
1.7791,0.3861,37.4600,91,90,104781
1.8328,0.3910,37.3400,91,90,104785
1.7986,0.3910,37.4900,91,90,104788
1.7351,0.3910,37.6200,91,90,104792
1.7253,0.4008,37.5900,91,90,104796
1.7302,0.3861,37.6200,91,90,104799
1.8182,0.3959,37.2800,91,90,104802
1.8182,0.3910,37.4900,91,90,104805
1.7986,0.3910,37.6200,91,90,104809
1.7644,0.3910,37.6200,91,90,104812
1.7351,0.3812,37.5900,91,90,104815
1.8084,0.4008,37.3100,91,90,104819
1.8182,0.3861,37.4600,91,90,104822
1.8475,0.3812,37.5600,91,90,104825
1.8328,0.3861,37.5900,91,90,104829
1.7986,0.3910,37.5900,91,90,104833
1.8231,0.4057,37.4000,91,90,104836
1.8231,0.3910,37.5600,91,90,104839
1.8524,0.3812,37.5600,91,90,104843
1.8524,0.3861,37.5900,91,90,104846
1.8182,0.3959,37.5900,91,90,104849
1.8035,0.3959,37.4000,91,90,104853
1.7546,0.3812,37.5600,91,90,104856
1.7791,0.3910,37.4300,91,90,104859
1.7889,0.3861,37.6200,91,90,104863
1.8182,0.3861,37.5900,91,90,104866
1.7742,0.3959,37.4600,91,90,104869
1.7058,0.3812,37.5600,91,90,104873
1.7253,0.3910,37.4600,91,90,104877
1.7351,0.3812,37.6200,91,90,104880
1.7937,0.3910,37.5900,91,90,104883
1.8280,0.3861,37.4900,91,90,104887
1.7840,0.3861,37.5900,91,90,104890
1.7644,0.4008,37.3700,91,90,104893
1.7253,0.3861,37.5900,91,90,104897
1.7595,0.3861,37.6500,91,90,104900
1.8475,0.4008,37.4900,91,90,104903
1.8035,0.3861,37.6200,91,90,104907
1.8084,0.4008,37.3100,91,90,104910
1.7498,0.3910,37.4900,91,90,104913
1.7351,0.3910,37.6200,91,90,104916
1.7791,0.3910,37.5600,91,90,104921
1.8133,0.3861,37.6200,91,90,104924
1.8768,0.4106,37.3100,91,90,104927
1.8084,0.3861,37.4300,91,90,104931
1.7546,0.3812,37.6800,91,90,104934
1.7595,0.3959,37.5900,91,90,104937
1.7986,0.3861,37.5900,91,90,104941
1.8915,0.4008,37.4600,91,90,104944
1.8915,0.3910,37.5600,91,90,104947
1.8084,0.3861,37.4900,91,90,104950
1.7644,0.3861,37.5900,91,90,104954
1.7937,0.3861,37.6200,91,90,104957
1.8671,0.3959,37.5300,91,90,104961
1.9013,0.3910,37.5900,91,90,104965
1.8719,0.3910,37.4300,91,90,104968
1.8035,0.3910,37.5900,91,90,104971
1.8133,0.3861,37.5900,91,90,104975
1.9306,0.4008,37.4600,91,90,104978
2.0723,0.3861,37.5300,91,90,104981
2.2141,0.3959,37.4600,91,90,104984
2.1896,0.3812,37.5600,91,90,104988
2.1017,0.3959,37.6200,91,90,104991
1.9892,0.3861,37.4600,91,90,104994
1.8231,0.3861,37.4300,91,90,104998
1.7009,0.3959,37.3700,91,90,105001
1.5640,0.3861,37.5300,91,90,105005
1.4956,0.3861,37.5300,91,90,105009
1.5200,0.4008,37.4900,91,90,105012
1.5787,0.3861,37.5900,91,90,105015
1.7302,0.3861,37.3100,91,90,105018
1.8133,0.3763,37.5300,91,90,105022
1.9013,0.3861,37.6200,91,90,105025
1.9159,0.3861,37.5900,91,90,105028
1.8671,0.3861,37.5900,91,90,105032
1.8817,0.4057,37.2800,91,90,105035
1.8768,0.3910,37.5600,91,90,105038
1.8768,0.3812,37.5900,91,90,105042
1.8964,0.3861,37.5900,91,90,105046
1.8573,0.3861,37.6200,91,90,105049
1.8573,0.4057,37.4000,91,90,105053
1.8084,0.3959,37.4900,91,90,105056
1.8182,0.3910,37.4900,91,90,105059
1.8671,0.3861,37.5900,91,90,105062
1.8817,0.3861,37.6200,91,90,105066
1.9110,0.4008,37.4300,91,90,105069
1.8133,0.3910,37.5300,91,90,105072
1.8035,0.4154,37.4300,91,90,105076
1.8182,0.3910,37.5900,91,90,105079
1.8573,0.3861,37.5900,91,90,105082
1.8964,0.3959,37.5600,91,90,105086
1.8426,0.3812,37.5900,91,90,105090
1.8280,0.3959,37.4900,91,90,105093
1.7986,0.3861,37.5900,91,90,105096
1.8328,0.3861,37.5300,91,90,105100
1.9355,0.3910,37.4900,91,90,105103
1.8866,0.3861,37.7100,91,90,105106
1.8671,0.4008,37.4000,91,90,105110
1.8280,0.3910,37.5300,91,90,105113
1.7937,0.3861,37.6200,91,90,105116
1.8671,0.3959,37.4600,91,90,105120
1.8866,0.3861,37.6200,91,90,105123
1.9306,0.3959,37.3100,91,90,105126
1.8768,0.3910,37.5300,91,90,105131
1.8377,0.3861,37.5900,91,90,105134
1.8524,0.3910,37.5600,91,90,105137
1.8768,0.3666,37.6200,91,90,105140
1.9795,0.4008,37.2200,91,90,105144
1.9550,0.3910,37.4900,91,90,105147
1.9110,0.3812,37.6200,91,90,105150
1.8768,0.3861,37.5900,91,90,105154
1.8866,0.3861,37.5900,91,90,105157
1.9892,0.4057,37.3700,91,90,105160
2.0283,0.3910,37.5600,91,90,105164
2.0039,0.3861,37.4900,91,90,105167
1.9697,0.3910,37.5900,91,90,105170
1.9404,0.3910,37.6800,91,90,105174
1.9990,0.3959,37.4000,91,90,105178
2.0283,0.3910,37.4600,91,90,105181
2.0821,0.3861,37.4900,91,90,105184
2.0723,0.3910,37.6200,91,90,105188
2.0528,0.3910,37.6200,91,90,105191
2.0528,0.3959,37.4300,91,90,105194
2.0430,0.3910,37.5900,91,90,105198
2.1114,0.3959,37.4300,91,90,105201
2.1310,0.3861,37.5900,91,90,105204
2.1359,0.3812,37.5900,91,90,105207
2.1163,0.3910,37.4900,91,90,105211
2.0821,0.3861,37.8000,91,90,105214
2.1261,0.3861,37.4600,91,90,105218
2.1457,0.3861,37.6200,91,90,105222
2.1701,0.3861,37.5900,91,90,105225
2.1945,0.3959,37.4900,91,90,105228
2.0919,0.3861,37.7100,91,90,105232
2.0674,0.3910,37.3700,91,90,105235
2.0381,0.3959,37.4900,91,90,105238
2.0381,0.3861,37.5900,91,90,105241
2.0577,0.4008,37.4900,91,90,105245
1.9795,0.3861,37.6200,91,90,105248
1.9355,0.3959,37.3400,91,90,105251
1.7791,0.4057,37.4300,90,90,105255
1.6813,0.3959,37.5600,90,90,105259
1.6422,0.3910,37.4900,90,90,105263
1.6520,0.3861,37.5900,90,90,105266
1.6862,0.3812,37.5900,90,90,105269
1.7204,0.3959,37.4900,90,90,105273
1.6667,0.3861,37.5900,90,90,105276
1.6178,0.3812,37.4300,90,90,105279
1.5885,0.3861,37.6800,90,90,105282
1.6129,0.4301,37.6200,90,90,105286
1.6911,0.3959,37.4300,90,90,105289
1.6862,0.3910,37.6500,90,90,105292
1.6862,0.3959,37.4600,90,90,105296
1.6129,0.3812,37.6200,90,90,105299
1.6080,0.3910,37.5900,90,90,105303
1.6618,0.3910,37.4600,90,90,105307
1.6960,0.3861,37.6200,90,90,105310
1.7302,0.3910,37.4300,90,90,105313
1.6813,0.3861,37.5300,90,90,105316
1.6373,0.3861,37.5900,90,90,105320
1.6520,0.3959,37.4900,90,90,105323
1.6764,0.3861,37.6200,90,90,105326
1.7595,0.3861,37.3400,90,90,105330
1.7351,0.3812,37.5600,90,90,105333
1.7009,0.3812,37.6200,90,90,105336
1.6813,0.3910,37.5600,90,90,105340
1.6667,0.3910,37.5900,90,90,105344
1.7644,0.4008,37.3100,90,90,105347
1.7693,0.3910,37.5600,90,90,105351
1.7546,0.4008,37.5600,90,90,105354
1.7253,0.3861,37.5900,90,90,105357
1.6813,0.3861,37.6200,90,90,105360
1.7204,0.4057,37.4300,90,90,105364
1.7449,0.3959,37.7100,90,90,105367
1.7742,0.3812,37.4900,90,90,105370
1.7693,0.3861,37.5900,90,90,105374
1.7155,0.3861,37.6500,90,90,105377
1.7155,0.4008,37.4300,90,90,105380
1.7107,0.3910,37.5900,90,90,105384
1.7546,0.3910,37.4900,90,90,105388
1.7742,0.3812,37.5900,90,90,105391
1.7693,0.3861,37.6200,90,90,105394
1.7351,0.3910,37.5300,90,90,105398
1.7204,0.3910,37.6200,90,90,105401
1.7204,0.3959,37.4600,90,90,105404
1.7644,0.3910,37.5900,90,90,105408
1.7840,0.3861,37.6200,90,90,105411
1.8035,0.3959,37.4900,90,90,105414
1.7400,0.3910,37.5900,90,90,105418
1.7400,0.3861,37.4000,90,90,105421
1.7302,0.3861,37.4900,90,90,105424
1.7791,0.3959,37.6200,90,90,105427
1.8182,0.3959,37.5300,90,90,105432
1.7742,0.4008,37.6200,90,90,105435
1.7595,0.3910,37.3400,90,90,105438
1.7107,0.3959,37.6500,90,90,105442
1.7253,0.3910,37.6200,90,90,105445
1.7840,0.3861,37.5600,90,90,105448
1.8035,0.3861,37.5900,90,90,105452
1.8280,0.3959,37.3100,90,90,105455
1.7498,0.3910,37.5300,90,90,105458
1.7204,0.3861,37.5900,90,90,105462
1.7546,0.3910,37.5600,90,90,105465
1.7937,0.3861,37.6500,90,90,105468
1.8964,0.3959,37.3700,90,90,105472
1.8182,0.3910,37.5600,90,90,105476
1.7644,0.3910,37.5300,90,90,105479
1.7449,0.3861,37.6200,90,90,105482
1.7742,0.3861,37.5900,90,90,105486
1.8671,0.3959,37.4000,90,90,105489
1.8573,0.3959,37.5600,90,90,105492
1.8377,0.3910,37.4600,90,90,105496
1.7791,0.3861,37.5900,90,90,105499
1.7693,0.3861,37.5900,90,90,105502
1.8426,0.3910,37.4600,90,90,105505
1.8768,0.3910,37.5600,90,90,105509
1.9257,0.3959,37.4900,90,90,105512
1.8817,0.3763,37.6200,90,90,105516
1.8426,0.3861,37.6200,90,90,105520
1.8377,0.3861,37.4900,90,90,105523
1.8671,0.3910,37.6200,90,90,105526
1.9013,0.3861,37.5300,90,90,105530
1.8817,0.3666,37.6200,90,90,105533
1.8377,0.3861,37.6200,90,90,105536
1.8035,0.3910,37.4900,90,90,105540
1.7693,0.3861,37.5900,90,90,105543
1.8328,0.3959,37.3400,90,90,105546
1.8426,0.3959,37.4900,90,90,105549
1.8133,0.3861,37.6200,90,90,105553
1.7937,0.3910,37.5300,90,90,105556
1.7253,0.3910,37.5900,90,90,105560
1.7693,0.4008,37.2800,90,90,105564
1.7840,0.3861,37.4900,90,90,105567
1.8035,0.3812,37.6500,90,90,105570
1.8084,0.4057,37.5900,90,90,105574
1.7546,0.3861,37.6200,90,90,105577
1.7742,0.4057,37.4000,90,90,105580
1.7498,0.3959,37.4900,90,90,105583
1.7791,0.3861,37.5300,90,90,105587
1.8133,0.3812,37.5900,90,90,105590
1.8035,0.3861,37.6200,90,90,105593
1.7889,0.4008,37.4900,90,90,105597
1.7253,0.3910,37.5900,90,90,105601
1.7546,0.3910,37.4600,90,90,105604
1.7840,0.3812,37.5600,90,90,105608
1.8231,0.3861,37.6200,90,90,105611
1.8475,0.3910,37.4000,90,90,105614
1.7840,0.3861,37.5900,90,90,105618
1.7693,0.3959,37.6200,90,90,105621
1.7498,0.3812,37.5900,90,90,105624
1.7986,0.3861,37.6200,90,90,105627
1.8426,0.3910,37.4600,90,90,105631
1.8280,0.3861,37.6200,90,90,105634
1.8035,0.3910,37.4600,90,90,105637
1.7742,0.3910,37.5300,90,90,105641
1.8084,0.3861,37.6200,90,90,105645
1.8768,0.3959,37.3400,90,90,105648
1.8768,0.3812,37.5900,90,90,105652
1.9110,0.3959,37.3700,90,90,105655
1.8817,0.3715,37.5300,90,90,105658
1.9599,0.3861,37.6200,90,90,105661
2.0919,0.3910,37.6200,90,90,105665
2.1701,0.3763,37.5900,90,90,105668
2.2336,0.4008,37.3100,90,90,105671
2.0870,0.3910,37.4900,90,90,105675
1.8768,0.3861,37.5900,90,90,105678
1.6716,0.3910,37.5900,90,90,105681
1.4907,0.3861,37.6200,90,90,105686
1.4809,0.4057,37.3700,90,90,105689
1.4956,0.3959,37.6500,90,90,105692
1.5689,0.4203,37.4900,90,90,105695
1.6422,0.3910,37.5900,90,90,105699
1.7253,0.3861,37.5900,90,90,105702
1.8622,0.3959,37.4000,90,90,105705
1.9306,0.3910,37.5600,90,90,105709
1.9648,0.3910,37.4600,90,90,105712
1.9208,0.3861,37.6800,90,90,105715
1.8817,0.3861,37.6200,90,90,105719
1.8671,0.3959,37.5600,90,90,105722
1.8817,0.3910,37.6800,90,90,105725
1.9550,0.3910,37.4300,90,90,105729
1.9355,0.3861,37.6800,90,90,105733
1.9013,0.3812,37.5900,90,90,105736
1.8817,0.3959,37.4900,90,90,105739
1.8426,0.3910,37.5900,90,90,105743
1.9062,0.3910,37.4300,90,90,105746
1.9110,0.3861,37.5300,90,90,105749
1.9208,0.3861,37.6200,90,90,105753
1.9062,0.3910,37.4600,90,90,105756
1.8377,0.3861,37.5900,90,90,105759
1.8719,0.3910,37.3400,90,90,105763
1.8768,0.3861,37.6200,90,90,105766
1.9110,0.3959,37.5900,90,90,105769
1.9404,0.3910,37.5300,90,90,105773
1.8817,0.3861,37.6200,90,90,105777
1.8866,0.4008,37.3400,90,90,105780
1.8377,0.3910,37.5300,90,90,105783
1.8768,0.3861,37.6200,90,90,105787
1.9208,0.3910,37.5600,90,90,105790
1.9159,0.3861,37.6200,90,90,105793
1.9306,0.4301,37.3700,90,90,105797
1.8475,0.3910,37.5600,90,90,105800
1.8524,0.3861,37.5600,90,90,105803
1.9110,0.3910,37.5900,90,90,105806
1.9501,0.3861,37.6500,90,90,105810
1.9844,0.3959,37.4000,90,90,105814
1.9257,0.3910,37.5600,90,90,105817
1.8915,0.3910,37.4600,90,90,105821
1.8817,0.3910,37.5900,90,90,105824
1.9306,0.3861,37.6200,90,90,105827
1.9990,0.3959,37.4300,90,90,105831
1.9746,0.3910,37.5900,90,90,105834
1.9550,0.3910,37.4300,90,90,105837
1.9062,0.3861,37.6200,90,90,105840
1.9257,0.3910,37.6200,90,90,105844
1.9892,0.3861,37.4900,90,90,105847
2.0186,0.3910,37.6200,90,90,105850
2.0577,0.3910,37.4600,90,90,105854
1.9844,0.3861,37.6200,90,90,105858
1.9648,0.4203,37.5900,90,90,105861
2.0528,0.3910,37.5300,90,90,105865
2.0528,0.3910,37.5600,90,90,105868
2.0772,0.3861,37.5900,90,90,105872
2.1945,0.4008,37.3100,90,90,105875
2.1896,0.3910,37.4600,90,90,105878
2.1799,0.3763,37.5900,90,90,105881
2.1212,0.3861,37.5900,90,90,105885
2.0919,0.3861,37.5900,90,90,105888
2.1701,0.4154,37.4300,90,90,105891
2.1701,0.3910,37.6200,90,90,105895
2.1652,0.3861,37.4900,90,90,105899
2.1212,0.3910,37.5900,90,90,105902
2.0479,0.3861,37.5600,90,90,105906
2.0577,0.3959,37.4600,90,90,105909
2.0088,0.3861,37.5600,90,90,105912
2.0283,0.3910,37.4900,90,90,105915
1.9844,0.3812,37.5900,90,90,105919
1.9110,0.3861,37.6200,90,90,105922
1.8622,0.3861,37.4000,90,90,105925
1.7742,0.3861,37.5900,90,90,105929
1.7889,0.3959,37.4600,90,90,105932
1.7791,0.3812,37.5900,90,90,105935
1.7595,0.3861,37.6200,90,90,105939
1.7204,0.3910,37.4600,90,90,105943
1.6471,0.3861,37.5900,90,90,105946
1.6373,0.3910,37.4000,90,90,105950
1.6569,0.3763,37.5300,90,90,105953
1.6667,0.3861,37.6500,90,90,105956
1.6813,0.4008,37.4900,90,90,105959
1.6227,0.3910,37.5900,90,90,105963
1.6178,0.3959,37.3400,90,90,105966
1.5836,0.3763,37.5900,90,90,105969
1.6178,0.3861,37.6200,90,90,105973
1.6764,0.3959,37.5300,90,90,105976
1.6667,0.3861,37.5900,90,90,105979
1.6716,0.4008,37.3100,90,90,105984
1.6080,0.3910,37.4900,90,90,105987
1.6080,0.3812,37.6200,90,90,105990
1.6667,0.3959,37.5600,90,90,105993
1.7058,0.3861,37.6200,90,90,105997
1.7546,0.4057,37.4000,90,90,106000
1.7009,0.3959,37.4900,90,90,106003
1.6422,0.3861,37.4900,90,90,106007
1.6471,0.4008,37.5900,90,90,106010
1.7009,0.3812,37.6200,90,90,106013
1.7644,0.3959,37.4300,90,90,106017
1.7351,0.4154,37.5600,90,90,106020
1.7058,0.3910,37.4600,90,90,106023
1.6520,0.3861,37.6200,90,90,106027
1.6618,0.3812,37.6200,90,90,106031
1.7253,0.3861,37.5600,90,90,106034
1.7498,0.3910,37.6200,90,90,106037
1.7595,0.3959,37.4600,90,90,106041
1.7009,0.3861,37.6500,90,90,106044
1.6764,0.4203,37.5900,90,90,106047
1.7253,0.3959,37.4600,90,90,106051
1.7595,0.4203,37.5900,90,90,106054
1.8231,0.3910,37.4000,90,90,106057
1.7791,0.3861,37.5300,90,90,106061
1.7351,0.3910,37.5900,90,90,106064
1.7253,0.3861,37.4600,90,90,106067
1.7155,0.3861,37.5300,90,90,106071
1.8035,0.3910,37.3400,90,90,106075
1.8084,0.3959,37.5600,90,90,106078
1.7742,0.3861,37.6200,90,90,106081
1.7400,0.3959,37.5300,90,90,106085
1.6911,0.3861,37.6200,90,90,106088
1.7546,0.4008,37.2800,90,90,106091
1.7595,0.3910,37.5300,90,90,106095
1.7840,0.3861,37.6200,90,90,106098
1.7693,0.3959,37.5600,90,90,106101
1.7253,0.3861,37.6200,90,90,106104
1.7546,0.4350,37.3400,90,90,106108
1.7498,0.3959,37.4900,90,90,106112
1.7889,0.3861,37.5300,90,90,106115
1.8035,0.3910,37.5900,90,90,106119
1.7644,0.3861,37.6200,90,90,106122
1.7546,0.4008,37.4000,90,90,106125
1.7204,0.3910,37.5600,90,90,106129
1.7644,0.3861,37.4900,90,90,106132
1.7986,0.3910,37.5900,90,90,106135
1.8133,0.3861,37.6200,90,90,106139
1.8035,0.3959,37.4300,90,90,106142
1.7351,0.3910,37.5900,90,90,106145
1.7498,0.3959,37.5300,90,90,106148
1.7595,0.4057,37.6200,90,90,106152
1.8084,0.3812,37.6200,90,90,106156
1.8280,0.3910,37.4600,90,90,106159
1.7840,0.3861,37.6200,90,90,106163
1.7644,0.3910,37.4300,90,90,106166
1.7400,0.3910,37.6200,90,90,106169
1.7889,0.3861,37.5900,90,90,106173
1.8475,0.3861,37.7400,90,90,106176
1.8280,0.3861,37.6200,90,90,106179
1.8280,0.3959,37.3400,90,90,106182
1.7742,0.3959,37.4900,90,90,106186
1.7644,0.3861,37.5900,90,90,106189
1.8377,0.3861,37.5300,90,90,106192
1.8964,0.3861,37.5900,90,90,106196
1.9306,0.4008,37.2500,90,90,106200
1.8866,0.3910,37.4600,90,90,106203
1.8133,0.3861,37.6200,90,90,106207
1.8084,0.4008,37.6200,90,90,106210
1.8280,0.3861,37.5900,90,90,106213
1.9110,0.4057,37.3700,90,90,106216
1.8573,0.3959,37.4900,90,90,106220
1.7937,0.3861,37.5300,90,90,106223
1.7498,0.3861,37.6500,90,90,106226
1.7400,0.3861,37.6500,90,90,106230
1.8084,0.3959,37.5900,90,90,106233
1.8035,0.3861,37.5900,90,90,106236
1.7889,0.3910,37.4600,90,90,106241
1.7400,0.3861,37.5600,90,90,106244
1.7155,0.3910,37.6200,90,90,106247
1.7595,0.3959,37.6800,90,90,106251
1.7840,0.4154,37.5900,90,90,106254
1.8671,0.3959,37.4600,90,90,106257
1.8035,0.3861,37.5900,90,90,106260
1.7644,0.3861,37.6200,90,90,106264
1.7693,0.3910,37.4600,90,90,106267
1.7546,0.3861,37.6200,90,90,106270
1.8133,0.3910,37.4600,90,90,106274
1.8182,0.3763,37.5600,90,90,106277
1.8035,0.3861,37.6200,90,90,106280
1.7742,0.3910,37.4600,90,90,106285
1.7302,0.3861,37.6200,90,90,106288
1.7791,0.3910,37.4900,90,90,106291
1.8035,0.3861,37.5900,90,90,106294
1.8182,0.3861,37.6200,90,90,106298
1.8133,0.3910,37.4600,90,90,106301
1.7546,0.3861,37.6200,90,90,106304
1.7742,0.4008,37.3100,90,90,106308
1.7742,0.3910,37.4900,90,90,106311
1.8133,0.3861,37.5900,90,90,106314
1.8475,0.3861,37.5300,90,90,106318
1.8182,0.3812,37.5900,90,90,106321
1.8426,0.4057,37.3400,90,90,106324
1.8133,0.4008,37.4900,90,90,106329
1.8377,0.3861,37.5300,90,90,106332
1.8671,0.3861,37.6500,90,90,106335
1.8866,0.3861,37.5900,90,90,106338
1.9404,0.3959,37.4300,90,90,106342
1.9746,0.3910,37.5900,90,90,106345
2.0332,0.3910,37.4900,90,90,106348
2.0870,0.3910,37.6200,90,90,106352
2.1017,0.3861,37.6200,90,90,106355
2.0479,0.3959,37.5300,90,90,106358
1.8573,0.3910,37.5900,90,90,106361
1.6471,0.3910,37.4300,90,90,106365
1.4418,0.4008,37.6200,90,90,106369
1.3734,0.3812,37.6200,90,90,106372
1.4663,0.3959,37.4000,90,90,106376
1.5738,0.3910,37.5900,90,90,106379
1.6813,0.3910,37.4600,90,90,106382
1.7155,0.3861,37.5300,90,90,106386
1.7840,0.3910,37.5900,90,90,106389
1.8915,0.3910,37.4600,90,90,106392
1.9355,0.3861,37.5900,90,90,106395
1.9795,0.3910,37.4000,90,90,106399
1.9257,0.3910,37.4900,90,90,106402
1.8768,0.3861,37.6200,90,90,106405
1.8915,0.3959,37.4900,90,90,106409
1.9110,0.3910,37.6200,90,90,106413
1.9844,0.3861,37.3400,90,90,106416
1.9404,0.3861,37.5600,90,90,106420
1.8964,0.3861,37.6200,90,90,106423
1.8524,0.4252,37.5900,90,90,106426
1.8426,0.3910,37.6200,90,90,106430
1.9306,0.4008,37.3100,90,90,106433
1.9306,0.3910,37.5300,90,90,106436
1.9159,0.3812,37.5600,90,90,106439
1.8768,0.3910,37.5900,90,90,106443
1.8377,0.3861,37.6200,90,90,106446
1.8915,0.4008,37.4000,90,90,106449
1.9453,0.3959,37.5300,90,90,106454
1.9404,0.3910,37.5300,90,90,106457
1.9208,0.3861,37.6200,90,90,106460
1.9062,0.3763,37.6200,90,90,106464
1.8524,0.3959,37.4900,90,90,106467
1.8426,0.3959,37.6200,90,90,106470
1.9013,0.3910,37.4600,90,90,106473
1.9110,0.3861,37.5900,89,90,106477
1.9257,0.3861,37.4900,89,90,106480
1.9697,0.3812,37.5900,89,90,106484
1.9795,0.3910,37.5300,89,90,106487
1.9257,0.3861,37.6200,89,90,106490
1.9648,0.4008,37.3400,89,90,106494
1.9501,0.3910,37.5300,89,90,106498
1.9795,0.3861,37.6200,89,90,106501
2.0235,0.3959,37.5300,89,90,106505
1.9795,0.3861,37.6500,89,90,106508
1.9892,0.3959,37.3100,89,90,106511
1.9355,0.3910,37.4600,89,90,106515
1.9501,0.3959,37.5900,89,90,106518
2.0137,0.3910,37.5600,89,90,106521
2.0235,0.3861,37.6200,89,90,106524
2.0577,0.4057,37.2800,89,90,106528
1.9746,0.3959,37.5300,89,90,106531
1.9599,0.3861,37.7100,89,90,106534
2.0039,0.3812,37.5900,89,90,106539
2.0577,0.3861,37.6200,89,90,106542
2.1212,0.4350,37.4600,89,90,106545
2.0674,0.3910,37.5900,89,90,106548
2.0577,0.3910,37.4900,89,90,106552
2.0381,0.3861,37.5900,89,90,106555
2.0772,0.3763,37.6200,89,90,106558
2.1701,0.3861,37.4300,89,90,106562
2.1652,0.3861,37.5900,89,90,106565
2.1603,0.3910,37.4300,89,90,106568
2.0821,0.3910,37.6200,89,90,106572
2.0723,0.3861,37.6800,89,90,106575
2.1261,0.3910,37.4600,89,90,106578
2.1310,0.3910,37.5600,89,90,106582
2.1505,0.3910,37.4600,89,90,106586
2.0577,0.3812,37.6500,89,90,106589
1.9844,0.4106,37.5900,89,90,106592
1.9404,0.3910,37.4900,89,90,106596
1.9257,0.3861,37.5600,89,90,106599
1.9453,0.4057,37.4000,89,90,106602
1.8768,0.3910,37.5900,89,90,106606
1.8084,0.3861,37.0700,89,90,106609
1.7498,0.4057,37.5600,89,90,106612
1.6911,0.3861,37.6200,89,90,106615
1.7351,0.4106,37.3400,89,90,106619
1.7253,0.3910,37.4900,89,90,106622
1.6813,0.3861,37.6800,89,90,106626
1.6422,0.3910,37.5600,89,90,106630
1.5689,0.3861,37.6500,89,90,106633
1.6031,0.4008,37.3100,89,90,106636
1.6129,0.3861,37.4300,89,90,106640
1.6325,0.3812,37.6500,89,90,106643
1.6325,0.3910,37.5900,89,90,106646
1.5836,0.3861,37.6500,89,90,106649
1.5982,0.4154,37.4300,89,90,106653
1.5787,0.3861,37.5600,89,90,106656
1.6325,0.3861,37.4600,89,90,106659
1.6667,0.3910,37.5900,89,90,106663
1.6520,0.3861,37.5300,89,90,106667
1.6569,0.3910,37.5300,89,90,106670
1.5934,0.3910,37.5600,89,90,106674
1.6227,0.3910,37.4300,89,90,106677
1.6520,0.3861,37.6200,89,90,106680
1.6911,0.3861,37.8300,89,90,106684
1.7058,0.4203,37.4600,89,90,106687
1.6471,0.3910,37.5900,89,90,106690
1.6373,0.3910,37.6200,89,90,106693
1.6373,0.3910,37.5600,89,90,106697
1.6911,0.3861,37.5900,89,90,106700
1.7351,0.3910,37.4300,89,90,106703
1.6960,0.3861,37.6200,89,90,106707
1.6862,0.3910,37.3700,89,90,106711
1.6520,0.3910,37.4900,89,90,106714
1.6764,0.3861,37.6200,89,90,106718
1.7498,0.3861,37.5600,89,90,106721
1.7595,0.3861,37.5900,89,90,106724
1.7791,0.4057,37.3400,89,90,106728
1.6862,0.3861,37.5300,89,90,106731
1.6618,0.4203,37.6200,89,90,106734
1.6960,0.3910,37.5600,89,90,106737
1.7351,0.3861,37.6200,89,90,106741
1.7986,0.4057,37.3400,89,90,106744
1.7449,0.3910,37.4900,89,90,106747
1.6911,0.3812,37.6500,89,90,106752
1.6911,0.3861,37.5900,89,90,106755
1.7204,0.3861,37.6800,89,90,106758
1.8133,0.4008,37.4000,89,90,106762
1.8133,0.3910,37.5600,89,90,106765
1.7791,0.3861,37.7100,89,90,106768
1.7351,0.3910,37.6200,89,90,106771
1.7204,0.3861,37.6200,89,90,106775
1.7840,0.4203,37.4000,89,90,106778
1.8133,0.3959,37.5900,89,90,106781
1.8426,0.3910,37.4300,89,90,106785
1.7791,0.3861,37.8300,89,90,106788
1.7302,0.3666,37.6200,89,90,106791
1.7302,0.3861,36.8500,89,90,106796
1.7546,0.3861,37.6200,89,90,106799
1.8133,0.3910,37.4600,89,90,106802
1.7986,0.3959,37.6200,89,90,106806
1.7595,0.3861,37.6200,89,90,106809
1.7351,0.3959,37.4600,89,90,106812
1.7155,0.3861,37.6200,89,90,106815
1.7791,0.3910,37.3400,89,90,106819
1.8231,0.3910,37.4900,89,90,106822
1.7889,0.3861,37.6200,89,90,106825
1.7693,0.3910,37.5300,89,90,106829
1.6960,0.3861,37.6200,89,90,106832
1.7351,0.4008,37.2800,89,90,106835
1.7498,0.3861,37.4900,89,90,106840
1.7889,0.3861,37.6200,89,90,106843
1.7937,0.3959,37.5600,89,90,106846
1.7449,0.3861,37.6200,89,90,106850
1.7644,0.4057,37.3100,89,90,106853
1.7498,0.3910,37.4900,89,90,106856
1.7840,0.3861,37.4900,89,90,106859
1.8328,0.3910,37.6200,89,90,106863
1.8280,0.3861,37.6200,89,90,106866
1.8231,0.4057,37.4600,89,90,106869
1.7742,0.3910,37.5900,89,90,106873
1.7986,0.3861,37.6200,89,90,106876
1.8622,0.3910,37.5900,89,90,106880
1.8768,0.3861,37.6200,89,90,106884
1.8915,0.3959,37.4300,89,90,106887
1.8084,0.3910,37.5900,89,90,106890
1.7742,0.3910,37.4900,89,90,106893
1.7546,0.3861,37.5300,89,90,106897
1.7986,0.3763,37.6200,89,90,106900
1.8524,0.3910,37.1300,89,90,106903
1.8084,0.3812,37.5900,89,90,106907
1.7791,0.3910,37.4600,89,90,106910
1.7253,0.3812,37.7100,89,90,106913
1.7400,0.3812,37.6200,89,90,106917
1.7986,0.3861,37.4600,89,90,106920
1.8133,0.3861,37.6200,89,90,106924
1.8280,0.3910,37.4000,89,90,106927
1.7449,0.3861,37.2200,89,90,106931
1.7155,0.3812,37.6200,89,90,106934
1.7498,0.3910,37.5600,89,90,106937
1.7937,0.3666,37.6200,89,90,106941
1.8377,0.3959,37.3400,89,90,106944
1.7791,0.4154,37.4900,89,90,106947
1.7107,0.3861,37.6200,89,90,106951
1.7058,0.4106,37.5600,89,90,106954
1.7204,0.3910,37.6200,89,90,106957
1.8084,0.4057,37.3400,89,90,106961
1.7986,0.3959,37.4600,89,90,106964
1.7595,0.3861,37.5300,89,90,106968
1.7253,0.3861,37.6500,89,90,106971
1.7155,0.3715,37.6200,89,90,106975
1.7937,0.3959,37.4300,89,90,106978
1.8182,0.4008,37.5600,89,90,106981
1.8524,0.3910,37.4900,89,90,106985
1.7889,0.3861,37.6200,89,90,106988
1.7400,0.3861,37.6200,89,90,106991
1.7644,0.3959,37.5600,89,90,106995
1.8035,0.4154,37.5900,89,90,106998
1.8671,0.3910,37.4300,89,90,107001
1.8426,0.3861,37.5900,89,90,107004
1.8280,0.3959,37.6200,89,90,107009
1.8524,0.3959,37.4900,89,90,107012
1.9159,0.3910,37.6200,89,90,107015
2.1017,0.3910,37.4300,89,90,107019
2.1945,0.3861,37.5300,89,90,107022
2.2287,0.3861,37.5900,89,90,107025
2.1408,0.3910,37.3700,89,90,107029
1.9550,0.3861,37.5900,89,90,107032
1.8133,0.3959,37.3700,89,90,107035
1.6422,0.3861,37.5300,89,90,107039
1.5298,0.4106,37.5900,89,90,107042
1.5200,0.3910,37.5300,89,90,107045
1.5298,0.3861,37.6200,89,90,107048
1.6520,0.3959,37.3100,89,90,107053
1.7253,0.3861,37.5300,89,90,107056
1.8426,0.3861,37.5900,89,90,107059
1.9257,0.3910,37.5900,89,90,107063
1.9257,0.3861,37.5300,89,90,107066
1.9355,0.4106,37.3400,89,90,107069
1.8524,0.3910,37.5300,89,90,107073
1.8377,0.3861,37.5300,89,90,107076
1.8768,0.3861,37.5900,89,90,107079
1.9013,0.3910,37.6200,89,90,107083
1.9208,0.3959,37.4300,88,90,107086
1.9208,0.3910,37.4900,88,90,107090
1.8817,0.3861,37.5900,88,90,107094
1.8817,0.3910,37.4600,88,90,107097
1.8084,0.3812,37.5900,88,90,107100
1.8328,0.3861,37.5900,88,90,107104
1.9013,0.3910,37.4900,88,90,107107
1.9062,0.3861,37.6200,88,90,107110
1.9110,0.3910,37.3700,88,90,107114
1.8377,0.3861,37.6200,88,90,107117
1.8084,0.3861,37.6500,88,90,107120
1.8426,0.3910,37.5600,88,90,107124
1.8817,0.3861,37.5900,88,90,107127
1.9453,0.3910,37.3400,88,90,107130
1.8964,0.3861,37.5300,88,90,107133
1.8328,0.3861,37.6200,88,90,107138
1.8280,0.3910,37.5900,88,90,107141
1.8377,0.3861,37.8300,88,90,107144
1.9355,0.4106,37.3100,88,90,107148
1.9257,0.3861,37.5300,88,90,107151
1.8866,0.3715,37.5600,88,90,107154
1.8524,0.3861,37.5900,88,90,107158
1.8328,0.3861,37.6200,88,90,107161
1.9159,0.4106,37.4300,88,90,107164
1.9355,0.3910,37.5600,88,90,107168
1.9550,0.3910,37.4900,88,90,107171
1.9208,0.3861,37.6200,88,90,107174
1.8817,0.3910,37.6200,88,90,107177
1.9110,0.3959,37.5600,88,90,107182
1.9306,0.3861,37.5900,88,90,107185
1.9941,0.3910,37.4600,88,90,107188
1.9844,0.3861,37.6200,88,90,107192
1.9599,0.3861,37.8300,88,90,107195
1.9697,0.4008,37.4600,88,90,107198
1.9404,0.3861,37.6800,88,90,107202
2.0088,0.3910,37.4600,88,90,107205
2.0283,0.3812,37.5600,88,90,107208
2.0381,0.3861,37.6200,88,90,107211
2.0381,0.3910,37.4600,88,90,107215
1.9892,0.3861,37.6200,88,90,107218
2.0723,0.3959,37.4000,88,90,107222
2.0723,0.3861,37.5300,88,90,107226
2.1163,0.3861,37.6200,88,90,107229
2.1505,0.3959,37.5600,88,90,107232
2.0919,0.3861,37.5900,88,90,107236
2.0968,0.3959,37.2800,88,90,107239
2.0626,0.3812,37.5600,88,90,107242
2.1065,0.3861,37.6200,88,90,107245
2.1554,0.3910,37.5900,88,90,107249
2.1359,0.3861,37.6200,88,90,107252
2.1359,0.4008,37.2800,88,90,107255
2.0626,0.3910,37.5300,88,90,107259
1.9892,0.3812,37.5900,88,90,107262
1.9990,0.3812,37.5900,88,90,107266
1.9795,0.3763,37.6200,88,90,107270
1.9892,0.4057,37.4600,88,90,107273
1.8817,0.4008,37.4900,88,90,107276
1.7986,0.3910,37.5300,88,90,107279
1.7546,0.3861,37.6500,88,90,107283
1.7546,0.4106,37.6200,88,90,107286
1.7791,0.3959,37.4300,88,90,107289
1.7155,0.3910,37.6200,88,90,107293
1.6667,0.3959,37.4600,88,90,107296
1.5885,0.3861,37.6200,88,90,107299
1.6129,0.3910,37.5900,88,90,107303
1.6325,0.3910,37.5600,88,90,107307
1.6471,0.3861,37.6200,88,90,107310
1.6569,0.3959,37.4900,88,90,107313
1.5934,0.3861,37.5600,88,90,107317
1.5689,0.3910,37.6200,88,90,107320
1.6080,0.3959,37.4900,88,90,107323
1.6276,0.3861,37.5900,88,90,107327
1.7009,0.3910,37.4300,88,90,107330
1.6471,0.3861,37.4900,88,90,107333
1.6031,0.3861,37.5300,88,90,107337
1.6031,0.4008,37.4600,88,90,107340
1.6178,0.3910,37.6200,88,90,107343
1.6960,0.3959,37.3400,88,90,107347
1.7058,0.3959,37.5300,88,90,107351
1.6716,0.3861,37.6200,88,90,107354
1.6471,0.3910,37.5300,88,90,107357
1.6227,0.3861,37.6200,88,90,107361
1.6960,0.4106,37.2800,88,90,107364
1.7155,0.3861,37.5300,88,90,107367
1.7302,0.3910,37.5900,88,90,107371
1.7351,0.3910,37.6200,88,90,107374
1.6667,0.3861,37.5900,88,90,107377
1.7155,0.4057,37.4300,88,90,107381
1.7107,0.3861,37.5600,88,90,107384
1.7498,0.4203,37.5300,88,90,107387
1.7546,0.3861,37.1300,88,90,107392
1.7302,0.3812,37.6800,88,90,107395
1.7204,0.3959,37.4300,88,90,107398
1.6911,0.3910,37.5600,88,90,107401
1.7400,0.3910,37.4600,88,90,107405
1.7595,0.3861,37.6200,88,90,107408
1.7693,0.3861,37.6200,88,90,107411
1.7644,0.4057,37.5300,88,90,107415
1.7058,0.3861,37.5900,88,90,107418
1.7204,0.4008,37.4900,88,90,107421
1.7302,0.3666,37.6200,88,90,107425
1.7840,0.3861,37.6500,88,90,107428
1.7986,0.3959,37.4900,88,90,107431
1.7595,0.3861,37.6200,88,90,107435
1.7351,0.3910,37.4000,88,90,107439
1.7107,0.3861,37.6200,88,90,107442
1.7498,0.3861,37.5900,88,90,107445
1.8084,0.3959,37.4600,88,90,107449
1.7889,0.3861,37.6500,88,90,107452
1.7889,0.4008,37.3400,88,90,107455
1.7351,0.3910,37.4900,88,90,107459
1.7155,0.3861,37.4600,88,90,107462
1.7791,0.3861,37.5600,88,90,107465
1.8084,0.3861,37.5900,88,90,107469
1.8524,0.4106,37.3100,88,90,107472
1.7791,0.3910,37.5900,88,90,107475
1.7351,0.3861,37.6200,88,90,107479
1.7595,0.3910,37.5900,88,90,107483
1.7937,0.3861,37.4900,88,90,107486
1.8817,0.3959,37.4300,88,90,107489
1.8426,0.3910,37.5600,88,90,107493
1.7840,0.3861,37.4900,88,90,107496
1.7693,0.3910,37.6200,88,90,107499
1.7546,0.3861,37.6800,88,90,107503
1.8328,0.4008,37.4900,88,90,107506
1.8475,0.3959,37.5900,88,90,107509
1.8524,0.3910,37.5300,88,90,107512
1.7889,0.3910,37.5900,88,90,107516
1.7644,0.3910,37.5900,88,90,107520
1.8084,0.3959,37.4900,88,90,107523
1.8280,0.3861,37.6200,88,90,107527
1.8768,0.3910,37.4900,88,90,107530
1.8280,0.3812,37.5600,88,90,107533
1.7840,0.3861,37.6200,88,90,107537
1.7742,0.3910,37.4600,88,90,107540
1.8182,0.3666,37.5900,88,90,107543
1.8622,0.3910,37.4000,88,90,107547
1.8719,0.4057,37.5600,88,90,107550
1.8573,0.3666,37.6200,88,90,107553
1.8524,0.3959,37.4900,88,90,107556
1.8133,0.3763,37.6200,88,90,107560
1.8768,0.3959,37.3700,88,90,107564
1.8768,0.3715,37.5600,88,90,107567
1.8866,0.3861,37.5900,88,90,107571
1.8524,0.3910,37.5900,88,90,107574
1.7889,0.3861,37.6200,88,90,107577
1.8133,0.4008,37.2800,88,90,107581
1.7986,0.3910,37.5300,88,90,107584
1.8084,0.3812,37.5600,88,90,107587
1.8182,0.3910,37.5900,88,90,107590
1.8035,0.3763,37.5900,88,90,107594
1.7693,0.4008,37.4300,88,90,107597
1.7302,0.3959,37.5300,88,90,107600
1.7840,0.3910,37.5300,88,90,107604
1.8084,0.3861,37.6200,88,90,107608
1.8182,0.3861,37.6200,88,90,107611
1.8475,0.3959,37.4900,88,90,107615
1.7498,0.3861,37.7100,88,90,107618
1.7498,0.3959,37.4600,88,90,107621
1.7742,0.3861,37.6200,88,90,107624
1.8084,0.3861,37.6200,88,90,107628
1.8475,0.3910,37.5300,88,90,107631
1.7595,0.3861,37.6800,88,90,107634
1.7351,0.3959,37.4900,88,90,107638
1.6960,0.3861,37.6800,88,90,107641
1.7400,0.3861,37.5900,88,90,107644
