ecg,gsr,temp,hr,spo2,timest
1.8768,0.3128,37.7100,39,97,299915
1.9013,0.3275,37.5600,39,97,299919
1.8719,0.3128,37.7700,39,97,299922
1.8817,0.3226,37.8700,39,97,299925
1.8475,0.3177,37.7400,39,97,299929
1.8475,0.3128,37.7400,39,97,299932
1.8573,0.3226,37.6800,39,97,299935
1.8475,0.3275,37.7100,39,97,299939
1.8719,0.3177,37.5600,39,97,299942
1.8475,0.3128,37.6800,39,97,299945
1.8475,0.3128,37.8300,39,97,299950
1.8671,0.3177,37.7100,39,97,299953
1.8377,0.3421,37.7100,39,97,299956
1.8622,0.3275,37.4300,39,97,299959
1.8182,0.3226,37.6500,39,97,299963
1.7840,0.3177,37.7400,39,97,299966
1.7840,0.3226,37.6800,39,97,299969
1.7595,0.3128,37.7100,39,97,299973
1.8035,0.3324,37.4000,39,97,299976
1.7644,0.3079,37.6500,39,97,299979
1.7595,0.3128,37.7100,39,97,299983
1.7693,0.3177,37.7100,39,97,299986
1.7693,0.3128,37.7400,39,97,299990
1.8182,0.3275,37.5300,39,97,299994
1.7840,0.3226,37.7100,39,97,299997
1.7986,0.3128,37.6800,39,97,300000
1.8035,0.3128,37.7100,39,97,300003
1.8035,0.3177,37.5600,39,97,300007
1.8328,0.3324,37.6200,39,97,300010
1.8182,0.3128,37.7100,39,97,300013
1.8475,0.3177,37.5900,39,97,300017
1.8524,0.3324,37.7400,39,97,300020
1.8817,0.3128,37.7400,39,97,300023
1.9306,0.3226,37.6200,39,97,300027
1.9208,0.3128,37.8000,39,97,300030
1.9550,0.3226,37.5900,39,97,300034
1.9306,0.3128,37.6800,39,97,300038
1.9355,0.3177,37.6800,39,97,300041
1.9648,0.3226,37.5900,39,97,300044
1.9404,0.3128,37.7100,39,97,300047
1.9746,0.3177,37.4900,39,97,300051
1.9453,0.3226,37.6200,39,97,300054
1.9404,0.3177,37.7400,39,97,300057
1.9453,0.3372,37.7100,39,97,300061
1.9355,0.3128,37.7400,39,97,300064
1.9795,0.3324,37.4300,39,97,300067
1.9355,0.3128,37.7700,39,97,300071
1.9550,0.3128,37.7400,39,97,300075
1.9501,0.3226,37.7700,39,97,300078
1.9404,0.3177,37.7100,39,97,300082
2.0039,0.3372,37.4600,39,97,300085
1.9599,0.3275,37.5900,39,97,300088
1.9453,0.3128,37.7100,39,97,300091
1.9404,0.3177,37.7100,39,97,300095
1.9355,0.3177,37.7100,39,97,300098
1.9795,0.3275,37.5300,39,97,300101
1.9453,0.3226,37.6800,39,97,300105
1.9453,0.3177,37.6500,39,97,300108
1.9306,0.3177,37.7700,39,97,300111
1.9257,0.3177,37.7700,39,97,300115
1.9550,0.3226,37.5600,39,97,300119
1.9208,0.3226,37.7100,39,97,300122
1.9453,0.3226,37.5600,39,97,300126
1.9110,0.3177,37.7400,39,97,300129
1.8915,0.3177,37.8000,39,97,300132
1.9062,0.3128,37.6800,39,97,300135
1.8915,0.3177,37.7100,39,97,300139
1.9110,0.3177,37.5900,39,97,300142
1.8768,0.3177,37.7700,39,97,300145
1.8964,0.3275,37.7400,39,97,300149
1.8915,0.3079,37.8000,39,97,300152
1.8671,0.3177,37.7400,39,97,300155
1.8915,0.3617,37.4600,39,97,300160
1.8622,0.3226,37.6500,39,97,300163
1.8377,0.3372,37.7100,39,97,300166
1.8426,0.3226,37.7700,39,97,300170
1.8231,0.3226,37.7400,39,97,300173
1.8768,0.3275,37.4900,39,97,300176
1.8280,0.3177,37.6200,39,97,300179
1.8182,0.3128,37.7400,39,97,300183
1.8084,0.3177,37.7400,39,97,300186
1.7937,0.3177,37.9300,39,97,300189
1.8426,0.3324,37.5300,39,97,300193
1.7889,0.3177,37.7400,39,97,300196
1.7840,0.3128,37.6200,39,97,300199
1.7840,0.3177,37.7400,39,97,300204
1.7742,0.3177,37.7400,39,97,300207
1.8035,0.3372,37.6200,39,97,300210
1.7840,0.3226,37.6800,39,97,300214
1.7840,0.3177,36.7600,39,97,300217
1.7693,0.3226,37.7100,39,97,300220
1.7644,0.3226,37.7100,39,97,300223
1.7889,0.3275,37.5300,39,97,300227
1.7546,0.3177,37.7100,39,97,300230
1.7693,0.3275,37.5900,39,97,300233
1.7351,0.3128,37.7100,39,97,300237
1.7351,0.3079,37.7100,39,97,300240
1.7595,0.3226,36.7600,39,97,300243
1.7400,0.3177,37.7100,39,97,300248
1.7742,0.3226,37.6200,39,97,300251
1.7889,0.3177,37.7100,39,97,300254
1.7546,0.3079,37.9300,39,97,300258
1.7840,0.3177,37.6800,39,97,300261
1.7840,0.3079,37.7400,39,97,300264
1.8328,0.3275,37.4300,39,97,300267
1.8084,0.3128,37.7700,39,97,300271
1.8280,0.3177,37.7100,39,97,300274
1.8524,0.3226,37.7400,39,97,300277
1.8671,0.3177,37.7400,39,97,300281
1.9404,0.3372,37.4900,39,97,300284
1.9208,0.3226,37.6800,39,97,300288
1.9257,0.3079,37.7700,39,97,300292
1.9404,0.3177,37.7100,39,97,300295
1.9404,0.3079,37.7700,39,97,300298
2.0186,0.3177,37.5300,39,97,300302
1.9648,0.3177,37.7100,39,97,300305
1.9599,0.3177,37.6200,39,97,300308
1.9501,0.3226,37.8300,39,97,300311
1.9501,0.3128,37.7400,39,97,300315
1.9795,0.3226,37.6800,39,97,300318
1.9550,0.3177,37.7100,39,97,300321
1.9746,0.3177,37.6200,39,97,300325
1.9404,0.3177,37.7400,39,97,300328
1.9453,0.3128,37.7100,39,97,300332
1.9550,0.3226,37.6800,39,97,300336
1.9404,0.3226,37.7100,39,97,300339
1.9746,0.3177,37.5900,39,97,300342
1.9501,0.3177,37.7400,39,97,300346
1.9404,0.3177,37.7700,39,97,300349
1.9648,0.3324,37.5900,39,97,300352
1.9355,0.3226,37.7400,39,97,300355
1.9648,0.3226,37.5300,39,97,300359
1.9404,0.3226,37.5900,39,97,300362
1.9208,0.3177,37.7400,39,97,300365
1.9404,0.3324,37.6500,39,97,300369
1.9208,0.3177,37.7700,39,97,300372
1.9697,0.3470,37.4600,39,97,300376
1.9257,0.3177,37.6800,39,97,300380
1.9110,0.3324,37.7400,39,97,300383
1.9110,0.3177,37.8700,39,97,300386
1.8964,0.3324,37.7400,39,97,300390
1.9550,0.3372,37.4900,39,97,300393
1.8915,0.3226,37.7100,39,97,300396
1.8866,0.3128,37.6500,39,97,300399
1.8817,0.3177,37.7100,39,97,300403
1.8719,0.3079,37.7400,39,97,300406
1.9062,0.3275,37.6200,39,97,300409
1.8719,0.3226,37.6800,39,97,300413
1.8719,0.3177,37.6500,39,97,300417
1.8426,0.3226,37.7400,39,97,300420
1.8377,0.3177,37.7100,39,97,300424
1.8622,0.3275,37.5600,39,97,300427
1.8280,0.3226,37.7100,39,97,300430
1.8475,0.3275,37.6200,39,97,300434
1.8133,0.3128,37.7100,39,97,300437
1.8133,0.3177,37.7400,39,97,300440
1.8377,0.3226,37.6500,39,97,300443
1.7986,0.3177,37.7400,39,97,300447
1.8573,0.3226,37.5600,39,97,300450
1.8084,0.3372,37.4000,39,97,300454
1.7546,0.3177,37.6800,39,97,300457
1.7644,0.3128,37.7400,39,97,300461
1.7742,0.3177,37.6800,39,97,300465
1.8035,0.3177,37.7100,39,97,300468
1.9110,0.3372,37.5300,39,97,300471
1.9599,0.3226,37.6500,39,97,300475
2.0430,0.3128,37.6200,39,97,300478
2.1163,0.3177,37.7100,39,97,300481
2.1848,0.3177,37.7400,39,97,300485
2.2532,0.3275,37.5900,39,97,300488
2.1848,0.3177,37.6800,39,97,300491
2.0870,0.3177,37.5900,39,97,300495
1.9453,0.3226,37.7700,39,97,300498
1.8231,0.3177,37.7400,39,97,300502
1.7742,0.3324,37.6800,39,97,300505
1.6764,0.3177,37.7100,39,97,300509
1.6667,0.3275,37.6200,39,97,300512
1.6178,0.3177,37.7100,39,97,300515
1.6373,0.3177,37.7700,39,97,300519
1.6471,0.3226,37.6500,39,97,300522
1.6031,0.3128,37.7100,39,97,300525
1.5689,0.3226,37.5300,39,97,300529
1.4614,0.3177,37.7100,39,97,300532
1.3832,0.3128,37.7400,39,97,300535
1.3343,0.3226,37.7400,39,97,300539
1.2854,0.3177,37.7400,39,97,300542
1.3099,0.3275,37.4000,39,97,300546
1.3294,0.3177,37.6200,39,97,300549
1.3832,0.3177,37.7700,39,97,300553
1.4663,0.3226,37.6800,39,97,300556
1.5445,0.3177,37.7400,39,97,300559
1.6716,0.3275,37.4900,39,97,300563
1.7351,0.3177,37.6200,39,97,300566
1.7889,0.3128,37.7100,39,97,300569
1.8719,0.3177,37.7100,39,97,300573
1.8817,0.3177,37.7400,39,97,300576
1.9550,0.3275,37.5600,39,97,300579
1.9355,0.3177,37.6800,39,97,300583
1.9892,0.3177,37.6500,39,97,300587
1.9501,0.3177,37.6800,39,97,300590
1.9550,0.3177,37.7400,39,97,300593
1.9795,0.3421,37.6500,39,97,300597
1.9599,0.3177,37.7100,39,97,300600
1.9795,0.3470,37.6200,39,97,300603
1.9501,0.3177,37.7700,39,97,300607
1.9550,0.3226,37.7700,39,97,300610
1.9844,0.3079,37.7400,39,97,300613
1.9550,0.3177,37.7400,39,97,300617
1.9746,0.3177,37.5300,39,97,300620
1.9501,0.3177,37.6800,39,97,300623
1.9453,0.3177,37.7400,39,97,300627
1.9599,0.3079,37.6500,39,97,300631
1.9355,0.3177,37.7100,39,97,300634
1.9844,0.3226,37.4600,39,97,300637
1.9501,0.3324,37.6800,39,97,300641
1.9306,0.3128,37.7400,39,97,300644
1.9257,0.3324,37.7100,39,97,300647
1.9062,0.3177,37.7400,39,97,300651
1.9404,0.3275,37.4000,39,97,300654
1.8768,0.3079,37.6800,39,97,300657
1.8622,0.3128,37.7400,39,97,300661
1.8524,0.3177,37.7100,39,97,300664
1.8622,0.3177,37.7100,39,97,300667
1.8817,0.3372,37.6800,39,97,300672
1.8426,0.3177,37.6800,39,97,300675
1.8328,0.3128,37.5900,39,97,300678
1.8231,0.3177,37.7100,39,97,300681
1.8182,0.3177,37.7400,39,97,300685
1.8573,0.3275,37.5600,39,97,300688
1.8328,0.3226,37.7100,39,97,300691
1.8426,0.3226,37.7400,39,97,300695
1.8475,0.3177,37.7700,39,97,300698
1.8231,0.3079,37.8300,39,97,300701
1.8817,0.3324,37.6200,39,97,300705
1.8280,0.3226,37.7100,39,97,300708
1.8573,0.3275,37.5900,39,97,300711
1.8231,0.3128,37.7100,39,97,300716
1.8182,0.3177,37.8000,39,97,300719
1.8231,0.3421,37.6500,39,97,300722
1.8084,0.3177,37.7700,39,97,300725
1.8280,0.3226,37.5300,39,97,300729
1.7937,0.3177,37.7400,39,97,300732
1.7791,0.3177,37.7100,39,97,300735
1.7937,0.3275,37.6800,39,97,300739
1.7742,0.3128,37.7400,39,97,300742
1.8231,0.3275,37.5300,39,97,300745
1.8084,0.3177,37.6500,39,97,300749
1.8035,0.3079,37.7400,39,97,300752
1.8231,0.3226,37.6800,39,97,300755
1.8084,0.3177,37.8000,39,97,300760
1.8671,0.3421,37.4300,39,97,300763
1.8377,0.3226,37.6200,39,97,300766
1.8768,0.3128,37.6800,39,97,300769
1.8622,0.3177,37.5600,39,97,300773
1.8866,0.3177,37.7400,39,97,300776
1.9404,0.3275,37.5600,39,97,300779
1.9208,0.3177,37.7100,39,97,300783
1.9550,0.3177,37.6200,39,97,300786
1.9648,0.3177,37.7400,39,97,300789
1.9746,0.3177,37.7100,39,97,300793
2.0137,0.3275,37.6500,39,97,300796
2.0039,0.3226,37.7100,39,97,300800
2.0332,0.3226,37.5600,39,97,300804
2.0039,0.3128,37.7400,39,97,300807
2.0039,0.3177,37.7400,39,97,300810
2.0332,0.3079,37.4300,39,97,300813
2.0235,0.3226,37.7100,39,97,300817
2.0235,0.3177,37.5900,39,97,300820
1.9990,0.3226,37.6500,39,97,300823
2.0235,0.3177,37.7400,39,97,300827
2.0626,0.3177,37.5900,39,97,300830
2.0430,0.3177,37.7700,39,97,300833
2.0772,0.3470,37.5600,39,97,300837
2.0528,0.3177,37.6500,39,97,300840
2.0381,0.3177,37.7400,39,97,300844
2.0430,0.3177,37.6800,39,97,300847
2.0088,0.3177,37.7400,39,97,300851
2.0332,0.3079,37.5300,39,97,300854
1.9648,0.3128,37.7400,39,97,300857
1.9453,0.3128,37.7100,39,97,300861
1.9355,0.3226,37.6800,39,97,300864
1.9110,0.3226,37.7400,39,97,300867
1.9648,0.3324,37.4300,39,97,300871
1.9257,0.3177,37.6800,39,97,300874
1.9159,0.3128,37.7100,39,97,300877
1.9257,0.3226,37.7400,39,97,300880
1.9159,0.3177,37.9300,39,97,300884
1.9648,0.3275,37.5300,39,97,300888
1.9257,0.3226,37.7700,39,97,300891
1.9208,0.3177,37.6500,39,97,300895
1.9013,0.3177,37.6500,39,97,300898
1.9159,0.3177,37.7400,39,97,300901
1.9257,0.3275,37.6200,39,97,300905
1.8964,0.3177,37.7400,39,97,300908
1.9159,0.3226,37.5300,39,97,300911
1.8866,0.3079,37.7400,39,97,300915
1.9110,0.3177,37.7700,39,97,300918
1.8866,0.3226,37.7100,39,97,300921
1.9013,0.3177,37.7100,39,97,300924
1.8915,0.3177,37.5300,39,97,300929
1.8524,0.3177,37.7400,39,97,300932
1.8377,0.3372,37.8000,39,97,300935
1.8573,0.3226,37.5900,39,97,300939
1.8377,0.3226,37.7100,39,97,300942
1.8475,0.3226,37.6200,39,97,300945
1.8231,0.3275,37.6200,39,97,300949
1.7937,0.3177,37.9900,39,97,300952
1.8084,0.3226,37.6800,39,97,300955
1.7937,0.3177,37.7700,39,97,300959
1.8377,0.3275,37.4300,39,97,300962
1.8035,0.3177,37.6200,39,97,300965
1.7889,0.3177,37.7400,39,97,300969
1.7840,0.3275,37.7400,39,97,300973
1.7791,0.3177,37.7400,39,97,300976
1.8328,0.3421,37.4900,39,97,300979
1.7840,0.3226,37.7100,39,97,300983
1.7840,0.3128,37.6800,39,97,300986
1.7644,0.3177,37.9000,39,97,300989
1.7400,0.3177,37.7700,39,97,300993
1.7546,0.3275,37.6200,39,97,300996
1.7155,0.3177,37.7100,39,97,300999
1.7155,0.3372,37.5900,39,97,301003
1.7009,0.3177,37.7400,39,97,301006
1.7155,0.3226,37.7400,39,97,301009
1.7644,0.3226,37.5600,39,97,301014
1.7449,0.3177,37.7100,39,97,301017
1.7791,0.3275,37.6200,39,97,301020
1.7595,0.3128,37.7100,39,97,301023
1.7693,0.3177,37.8000,39,97,301027
1.7986,0.3226,37.6200,39,97,301030
1.7889,0.3275,37.7400,39,97,301033
1.8377,0.3226,37.5300,39,97,301037
1.8377,0.3226,37.6800,39,97,301040
1.8573,0.3128,37.7100,39,97,301043
1.8817,0.3226,37.6800,39,97,301047
1.8866,0.3177,37.7400,39,97,301050
1.9355,0.3324,37.4300,39,97,301053
1.8964,0.3177,37.6800,39,97,301058
1.9062,0.3128,37.7400,39,97,301061
1.9208,0.3226,37.6500,39,97,301064
1.9208,0.3177,37.8000,39,97,301068
1.9208,0.3421,37.7700,39,97,301071
1.9648,0.3275,37.5300,39,97,301074
1.9404,0.3177,37.6800,39,97,301078
1.9501,0.3226,37.6200,39,97,301081
1.9208,0.3421,37.7400,39,97,301084
1.9208,0.3177,37.7400,39,97,301088
1.9404,0.3324,37.5900,39,97,301091
1.9159,0.3177,37.7100,39,97,301094
1.9404,0.3226,37.6200,39,97,301099
1.9013,0.3177,37.8000,39,97,301102
1.9110,0.3177,37.7400,39,97,301105
1.9110,0.3177,37.7100,39,97,301109
1.9159,0.3177,37.7400,39,97,301112
1.9257,0.3079,37.5600,39,97,301115
1.8964,0.3177,37.7400,39,97,301118
1.8915,0.3177,37.7100,39,97,301122
1.9159,0.3275,37.6500,39,97,301125
1.9208,0.3128,37.7700,39,97,301128
1.9208,0.3275,37.4300,39,97,301132
1.8915,0.3519,37.6200,39,97,301135
1.8719,0.3128,37.7400,39,97,301138
1.8768,0.3226,37.6800,39,97,301143
1.8573,0.3177,37.9600,39,97,301146
1.9013,0.3372,37.4600,39,97,301149
1.8622,0.3226,37.5900,39,97,301153
1.8573,0.3128,37.6800,39,97,301156
1.8524,0.3177,37.7100,39,97,301159
1.8475,0.3226,37.7400,39,97,301162
1.8768,0.3421,37.5900,39,97,301166
1.8231,0.3079,37.7100,39,97,301169
1.8231,0.3128,37.6200,39,97,301172
1.8084,0.3226,37.7400,39,97,301176
1.8377,0.3177,37.7400,39,97,301179
1.8573,0.3275,37.6500,39,97,301182
1.8866,0.3226,37.7100,39,97,301187
1.9746,0.3226,37.5900,39,97,301190
2.0430,0.3177,37.7100,39,97,301193
2.1408,0.3470,37.7400,39,97,301197
2.2581,0.3275,37.5900,39,97,301200
2.2630,0.3128,37.7100,39,97,301203
2.2727,0.3177,37.5900,39,97,301206
2.1505,0.3128,37.6500,39,97,301210
2.0137,0.3128,37.7700,39,97,301213
1.8964,0.3275,37.5600,39,97,301216
1.7351,0.3177,37.7100,39,97,301220
1.6471,0.3226,37.4600,39,97,301223
1.5445,0.3226,37.7100,39,97,301227
1.5005,0.3128,37.7400,39,97,301231
1.4712,0.3226,37.7100,39,97,301234
1.4467,0.3128,37.7400,39,97,301237
1.4614,0.3275,37.4900,39,97,301241
1.3734,0.3177,37.7100,39,97,301244
1.3148,0.3177,37.7400,39,97,301247
1.2414,0.3177,37.7400,39,97,301250
1.1681,0.3128,37.7400,39,97,301254
1.1584,0.3372,37.4600,39,97,301257
1.0899,0.3177,37.6500,39,97,301260
1.0948,0.3177,37.6800,39,97,301264
1.1388,0.3226,37.7100,39,97,301267
1.2121,0.3128,37.6800,39,97,301271
1.3441,0.3275,37.5300,39,97,301275
1.4370,0.3226,37.6500,39,97,301278
1.5591,0.3177,37.5900,39,97,301281
1.6471,0.3177,37.7400,39,97,301285
1.7449,0.3177,37.7700,39,97,301288
1.8573,0.3372,37.6800,39,97,301291
1.8915,0.3177,37.6800,39,97,301294
1.9697,0.3275,37.6200,39,97,301298
1.9697,0.3177,37.7400,39,97,301301
1.9892,0.3226,37.7400,39,97,301304
2.0137,0.3226,37.9000,39,97,301308
2.0039,0.3226,37.8000,39,97,301312
2.0381,0.3177,37.5600,39,97,301315
1.9990,0.3177,37.7700,39,97,301319
1.9990,0.3128,37.7100,39,97,301322
2.0137,0.3275,37.5300,39,97,301325
1.9941,0.3177,37.7400,39,97,301329
2.0283,0.3177,37.4900,39,97,301332
2.0039,0.3275,37.6200,39,97,301335
1.9844,0.3226,37.8000,39,97,301338
1.9990,0.3226,37.6800,39,97,301342
1.9746,0.3079,37.7700,39,97,301345
2.0235,0.3372,37.4000,39,97,301348
1.9844,0.3177,37.6200,39,97,301352
1.9746,0.3324,37.7100,39,97,301356
1.9697,0.3177,37.8300,39,97,301359
1.9599,0.3226,37.7400,39,97,301363
2.0088,0.3372,37.5600,39,97,301366
1.9501,0.3275,37.7100,39,97,301369
1.9501,0.3128,37.6800,39,97,301372
1.9453,0.3128,37.7100,39,97,301376
1.9404,0.3177,37.7700,39,97,301379
1.9746,0.3275,37.6200,39,97,301382
1.9501,0.3275,37.7400,39,97,301386
1.9746,0.3226,37.5900,39,97,301389
1.9355,0.3226,37.7400,39,97,301392
1.9355,0.3177,37.7700,39,97,301396
1.9892,0.3275,37.5900,39,97,301400
1.9208,0.3177,37.7400,39,97,301403
1.9501,0.3226,37.5900,39,97,301407
1.9110,0.3128,37.7100,39,97,301410
1.9159,0.3177,37.7100,39,97,301413
1.9355,0.3226,37.6200,39,97,301416
1.9159,0.3177,37.7100,39,97,301420
1.9599,0.3177,37.4900,39,97,301423
1.9110,0.3177,37.6200,39,97,301426
1.8915,0.3177,37.7400,39,97,301430
1.8964,0.3226,37.7700,39,97,301433
1.8817,0.3128,37.7400,39,97,301436
1.9159,0.3275,37.4000,39,97,301441
1.8671,0.3177,37.7700,39,97,301444
1.8719,0.3177,37.7400,39,97,301447
1.8622,0.3177,37.7100,39,97,301451
1.8671,0.3177,37.7400,39,97,301454
1.9110,0.3372,37.4600,39,97,301457
1.8671,0.3226,37.6800,39,97,301460
1.8573,0.3128,37.6800,39,97,301464
1.8622,0.3226,37.7400,39,97,301467
1.8573,0.3177,37.7100,39,97,301470
1.8915,0.3275,37.5300,39,97,301474
1.8671,0.3226,37.6800,39,97,301477
1.8671,0.3177,37.7100,39,97,301480
1.8524,0.3177,37.7700,39,97,301485
1.8426,0.3177,37.7700,39,97,301488
1.8671,0.3275,37.4900,39,97,301491
1.8328,0.3177,37.7100,39,97,301495
1.8524,0.3275,37.6500,39,97,301498
1.8133,0.3275,37.8000,39,97,301501
1.8133,0.3177,37.7700,39,97,301505
1.8182,0.3128,37.6800,39,97,301508
1.8133,0.3079,37.7400,39,97,301511
1.8475,0.3177,37.5600,39,97,301514
1.8231,0.3177,37.7100,39,97,301518
1.8280,0.3177,37.7700,39,97,301521
1.8426,0.3275,37.6500,39,97,301524
1.8231,0.3177,37.8000,39,97,301529
1.8719,0.3324,37.3700,39,97,301532
1.8622,0.3226,37.6500,39,97,301535
1.8524,0.3226,37.7400,39,97,301539
1.8817,0.3226,37.7400,39,97,301542
1.8866,0.3128,37.7400,39,97,301545
1.9453,0.3275,37.3700,39,97,301549
1.9208,0.3226,37.9300,39,97,301552
1.9404,0.3128,37.7100,39,97,301555
1.9355,0.3079,37.8300,39,97,301558
1.9355,0.3275,37.7100,39,97,301562
1.9892,0.3324,37.6800,39,97,301565
1.9746,0.3226,37.7100,39,97,301569
1.9453,0.3177,37.6200,39,97,301573
1.9306,0.3226,37.7400,39,97,301576
1.9159,0.3177,37.8000,39,97,301579
1.9404,0.3275,37.6500,39,97,301583
1.9208,0.3470,37.7400,39,97,301586
1.9355,0.3177,37.5900,39,97,301589
1.9013,0.3177,37.7400,39,97,301593
1.9013,0.3177,37.7400,39,97,301596
1.9257,0.3177,37.6200,39,97,301599
1.8866,0.3470,37.7400,39,97,301603
1.9306,0.3177,37.5900,39,97,301606
1.8817,0.3177,37.6500,39,97,301609
1.9159,0.3177,37.7400,39,97,301613
1.9013,0.3226,37.5900,39,97,301617
1.8768,0.3177,37.7100,39,97,301620
1.9062,0.3226,37.4900,39,97,301623
1.8817,0.3177,37.6500,39,97,301627
1.8671,0.3372,37.7100,39,97,301630
1.8768,0.3226,37.1600,39,97,301633
1.8817,0.3177,37.7700,39,97,301637
1.9159,0.3275,37.4300,39,97,301640
1.8768,0.3177,37.6800,39,97,301643
1.8768,0.3177,37.7100,39,97,301647
1.8719,0.3177,37.7100,39,97,301650
1.8622,0.3177,37.7400,39,97,301654
1.8915,0.3372,37.4600,39,97,301657
1.8377,0.3226,37.6800,39,97,301661
1.8133,0.3128,37.6500,39,97,301664
1.7986,0.3177,37.7400,39,97,301667
1.7937,0.3275,37.7100,39,97,301671
1.8328,0.3275,37.5300,39,97,301674
1.7937,0.3226,37.6500,39,97,301678
1.7693,0.3226,37.8000,39,97,301681
1.7889,0.3177,37.5600,39,97,301684
1.7595,0.3519,37.7100,39,97,301688
1.7644,0.3177,37.7700,39,97,301691
1.7644,0.3226,37.6800,39,97,301694
1.7449,0.3177,37.7700,39,97,301699
1.7693,0.3226,37.4300,39,97,301702
1.7204,0.3177,37.7400,39,97,301705
1.7204,0.3177,37.7100,39,97,301709
1.7351,0.3226,37.6800,39,97,301712
1.7449,0.3079,37.8300,39,97,301715
1.8426,0.3324,37.4300,39,97,301718
1.8964,0.3079,37.7400,39,97,301722
1.9697,0.3128,37.7100,39,97,301725
2.0674,0.3226,37.6500,39,97,301728
2.1359,0.3177,37.7100,39,97,301732
2.2434,0.3079,37.6200,39,97,301735
2.1799,0.3226,37.6800,39,97,301739
2.0723,0.3177,37.6500,39,97,301743
1.9159,0.3177,37.7100,39,97,301746
1.7595,0.3177,37.7700,39,97,301749
1.6422,0.3177,37.5900,39,97,301752
1.5103,0.3177,37.6500,39,97,301756
1.4809,0.3226,37.6200,39,97,301759
1.4076,0.3177,37.7100,39,97,301762
1.4027,0.3177,37.7400,39,97,301766
1.4223,0.3421,37.6500,39,97,301769
1.4125,0.3079,37.8700,39,97,301772
1.4027,0.3470,37.6200,39,97,301776
1.3245,0.3177,37.7700,39,97,301779
1.2708,0.3177,37.7700,39,97,301783
1.2268,0.3226,37.6500,39,97,301787
1.1730,0.3226,37.7400,39,97,301790
1.1730,0.3177,37.4900,39,97,301793
1.1926,0.3177,37.5900,39,97,301797
1.2512,0.3079,37.7700,39,97,301800
1.3539,0.3226,37.6500,39,97,301803
1.4370,0.3177,37.7700,39,97,301806
1.5934,0.3275,37.4000,39,97,301810
1.6520,0.3177,37.6500,39,97,301813
1.7351,0.3177,37.7100,39,97,301816
1.8182,0.3177,37.7100,39,97,301820
1.8817,0.3177,37.7400,39,97,301824
1.9795,0.3372,37.4300,39,97,301827
1.9550,0.3177,37.7100,39,97,301831
1.9941,0.3128,37.7100,39,97,301834
1.9892,0.3128,37.7100,39,97,301837
1.9990,0.3079,37.7400,39,97,301841
2.0528,0.3372,37.5600,39,97,301844
2.0283,0.3079,37.7400,39,97,301847
2.0283,0.3177,37.6500,39,97,301850
2.0137,0.3177,37.7100,39,97,301854
2.0088,0.3128,37.7700,39,97,301857
2.0528,0.3275,37.5300,39,97,301860
1.9990,0.3470,37.7400,39,97,301864
2.0039,0.3177,37.5900,39,97,301868
1.9648,0.3079,37.7400,39,97,301871
1.9501,0.3128,37.7400,39,97,301875
1.9746,0.3226,37.5900,39,97,301878
1.9404,0.3177,37.7100,39,97,301881
1.9648,0.3226,37.5900,39,97,301884
1.9257,0.3128,37.7400,39,97,301888
1.9208,0.3177,37.7400,39,97,301891
1.9257,0.3324,37.7100,39,97,301894
1.9159,0.3177,37.7400,39,97,301898
1.9453,0.3177,37.4600,39,97,301901
1.9013,0.3128,37.9300,39,97,301904
1.8964,0.3177,37.7100,39,97,301908
1.9257,0.3226,37.5900,39,97,301912
1.9013,0.3177,37.8000,39,97,301915
1.9453,0.3275,37.4300,39,97,301919
1.9208,0.3177,37.6800,39,97,301922
1.9013,0.3226,37.8000,39,97,301925
1.9062,0.3079,37.7100,39,97,301928
1.8915,0.3128,37.7100,39,97,301932
1.9453,0.3372,37.4900,39,97,301935
1.8964,0.3226,37.6800,39,97,301938
1.8915,0.3128,37.7100,39,97,301942
1.8915,0.3128,37.7100,39,97,301945
1.8915,0.3079,37.8000,39,97,301948
1.9306,0.3275,37.5600,39,97,301953
1.8915,0.3079,37.7100,39,97,301956
1.9062,0.3128,37.6200,39,97,301959
1.8915,0.3128,37.6800,39,97,301962
1.8817,0.3128,37.7400,39,97,301966
1.9013,0.3226,37.7100,39,97,301969
1.8719,0.3275,37.7100,39,97,301972
1.8915,0.3177,37.5900,39,97,301976
1.8671,0.3177,37.7400,39,97,301979
1.8671,0.3177,37.8000,39,97,301982
1.8866,0.3226,37.6200,39,97,301986
1.8573,0.3079,37.7100,39,97,301989
1.8768,0.3177,37.5900,39,97,301992
1.8768,0.3128,37.6200,39,97,301997
1.8475,0.3128,37.7400,39,97,302000
1.8622,0.3275,37.6200,39,97,302003
1.8280,0.3177,37.7400,39,97,302007
1.8671,0.3226,37.4300,39,97,302010
1.8328,0.3177,37.6800,39,97,302013
1.8280,0.3079,37.7400,39,97,302016
1.8426,0.3177,37.6800,39,97,302020
1.8524,0.3128,37.7400,39,97,302023
1.8964,0.3275,37.4300,39,97,302026
1.8622,0.3128,37.5600,39,97,302030
1.8817,0.3128,37.7400,39,97,302033
1.8768,0.3079,37.0400,39,97,302036
1.8866,0.3128,37.7700,39,97,302041
1.9453,0.3275,37.5300,39,97,302044
1.9159,0.3177,37.6800,39,97,302047
1.9306,0.3128,37.6500,39,97,302051
1.9355,0.3177,37.7100,39,97,302054
1.9404,0.3177,37.7400,39,97,302057
1.9795,0.3226,37.5900,39,97,302060
1.9550,0.3177,37.7400,39,97,302064
1.9599,0.3079,38.0200,39,97,302067
1.9355,0.3177,37.7400,39,97,302070
1.9355,0.3128,37.8000,39,97,302074
1.9550,0.3275,37.6200,39,97,302077
1.9306,0.3079,37.8000,39,97,302081
1.9550,0.3275,37.6200,39,97,302085
1.9257,0.3128,37.6800,39,97,302088
1.9208,0.3372,37.7400,39,97,302091
1.9306,0.3177,37.6800,39,97,302094
1.9062,0.3128,37.9600,39,97,302098
1.9453,0.3177,37.5300,39,97,302101
1.8719,0.3079,37.7400,39,97,302104
1.8768,0.3128,37.7400,39,97,302108
1.8866,0.3226,37.6200,39,97,302111
1.8671,0.3079,37.7100,39,97,302114
1.9013,0.3128,37.4600,39,97,302118
1.8768,0.3177,37.6200,39,97,302121
1.8475,0.3226,37.7400,39,97,302125
1.8475,0.3177,37.6500,39,97,302129
1.8280,0.3177,37.7100,39,97,302132
1.8817,0.3275,37.4300,39,97,302135
1.8524,0.3177,37.5900,39,97,302138
1.8426,0.3079,37.6500,39,97,302142
1.8426,0.3177,37.7400,39,97,302145
1.8377,0.3177,37.7400,39,97,302148
1.9110,0.3324,37.5300,39,97,302152
1.8328,0.3226,37.6500,39,97,302155
1.8377,0.3128,37.6500,39,97,302158
1.8182,0.3128,37.7100,39,97,302162
1.8084,0.3079,37.7400,39,97,302166
1.8280,0.3226,37.6800,39,97,302169
1.8133,0.3177,37.7100,39,97,302173
1.8280,0.3226,37.5600,39,97,302176
1.8182,0.3128,37.9000,39,97,302179
1.8231,0.3128,37.7400,39,97,302182
1.8475,0.3226,37.6200,39,97,302186
1.8035,0.3128,37.7700,39,97,302189
1.8084,0.3177,37.5600,39,97,302192
1.7595,0.3128,37.6500,39,97,302196
1.7546,0.3079,37.7700,39,97,302199
1.7693,0.3226,37.5900,39,97,302202
1.7400,0.3275,37.7400,39,97,302206
1.7644,0.3177,37.4900,39,97,302210
1.7351,0.3177,37.6200,39,97,302213
1.7253,0.3128,37.7400,39,97,302217
1.7351,0.3372,37.6800,39,97,302220
1.7302,0.3128,37.7100,39,97,302223
1.7693,0.3226,37.4000,39,97,302226
1.7351,0.3079,37.6800,39,97,302230
1.7351,0.3128,37.7400,39,97,302233
1.7351,0.3177,37.7100,39,97,302236
1.7302,0.3128,37.7400,39,97,302240
1.7840,0.3421,37.4600,39,97,302243
1.7449,0.3177,37.6800,39,97,302246
1.7204,0.3079,37.6500,39,97,302251
1.7058,0.3177,37.7100,39,97,302254
1.6911,0.3470,37.7100,39,97,302257
1.7204,0.3226,37.5300,39,97,302261
1.7107,0.3177,37.7100,39,97,302264
1.7253,0.3128,37.6500,39,97,302267
1.7498,0.3128,37.7400,39,97,302270
1.8280,0.3128,37.9600,39,97,302274
1.9550,0.3226,37.5900,39,97,302277
2.0283,0.3128,37.5900,39,97,302280
2.1408,0.3226,37.5900,39,97,302284
2.1554,0.3128,37.7700,39,97,302287
1.7937,0.3128,37.7700,39,97,302291
1.7449,0.3128,37.7700,39,97,302295
1.7204,0.3226,37.7100,39,97,302298
1.7058,0.3079,37.6200,39,97,302302
1.7595,0.3226,37.4000,39,97,302305
1.7302,0.3177,37.6800,39,97,302308
1.6764,0.3128,37.6500,39,97,302311
1.6080,0.3079,37.7400,39,97,302315
1.5054,0.3128,37.7400,39,97,302318
1.4565,0.3324,37.4900,39,97,302321
1.3392,0.3177,37.5900,39,97,302325
1.2805,0.3128,37.7100,39,97,302328
1.2708,0.3079,37.7400,39,97,302331
1.2903,0.3128,37.7100,39,97,302336
1.3930,0.3275,37.7100,39,97,302339
1.4516,0.3177,37.7100,39,97,302342
1.5445,0.3128,37.6200,39,97,302346
1.6227,0.3128,37.7400,39,97,302349
1.6960,0.3079,37.7400,39,97,302352
1.7937,0.3177,37.6800,39,97,302355
1.8328,0.3275,37.7100,39,97,302359
1.9013,0.3079,37.5600,39,97,302362
1.9306,0.3128,37.7700,39,97,302365
1.9355,0.3079,37.9900,39,97,302369
1.9941,0.3226,37.6200,39,97,302372
1.9501,0.3324,37.8000,39,97,302375
1.9844,0.3128,37.6200,39,97,302380
1.9501,0.3128,37.6800,39,97,302383
1.9550,0.3128,37.7700,39,97,302386
1.9697,0.3226,37.5900,39,97,302390
1.9404,0.3128,37.7700,39,97,302393
1.9648,0.3470,37.4600,39,97,302396
1.9306,0.3177,37.6800,39,97,302399
1.9159,0.3226,37.8000,39,97,302403
1.9257,0.3128,37.7100,39,97,302406
1.9208,0.3128,37.8000,39,97,302409
1.9697,0.3226,37.4300,39,97,302413
1.9159,0.3177,37.6500,39,97,302416
1.9110,0.3079,37.7400,39,97,302419
1.9208,0.3226,37.7100,39,97,302424
1.9159,0.3128,37.7100,39,97,302427
1.9697,0.3275,37.4900,39,97,302430
1.9208,0.3079,37.9300,39,97,302434
1.9013,0.3128,37.6500,39,97,302437
1.8915,0.3128,37.9300,39,97,302440
1.8817,0.3128,37.7400,39,97,302443
1.9110,0.3079,37.5600,39,97,302447
1.8964,0.3128,37.6800,39,97,302450
1.8768,0.3128,37.6800,39,97,302453
1.8671,0.3128,37.7100,39,97,302457
1.8475,0.3079,37.7700,39,97,302460
1.8622,0.3177,37.5600,39,97,302464
1.8475,0.3079,37.7100,39,97,302468
1.8719,0.3226,37.5900,39,97,302471
1.8377,0.3275,37.7400,39,97,302474
1.8426,0.3128,37.7400,39,97,302477
1.8475,0.3177,37.6800,39,97,302481
1.8475,0.3128,37.7700,39,97,302484
1.8622,0.3177,37.5300,39,97,302487
1.8328,0.3079,37.7700,39,97,302491
1.8377,0.3079,37.7100,39,97,302494
1.8524,0.3079,37.7400,39,97,302497
1.8231,0.3128,37.7400,39,97,302501
1.8573,0.3177,37.8700,39,97,302504
1.8377,0.3177,37.6200,39,97,302508
1.8133,0.3128,37.7100,39,97,302512
1.8133,0.3079,37.7400,39,97,302515
1.7840,0.3128,37.8000,39,97,302518
1.8231,0.3226,37.4300,39,97,302521
1.7986,0.3128,37.6200,39,97,302525
1.7986,0.3079,37.7100,39,97,302528
1.8133,0.3128,37.7700,39,97,302531
1.8231,0.3128,37.7400,39,97,302535
1.8866,0.3421,37.5600,39,97,302538
1.8524,0.3079,37.7700,39,97,302541
1.8719,0.3177,37.6500,39,97,302545
1.8817,0.3079,37.7400,39,97,302548
1.9013,0.3128,37.7700,39,97,302552
1.9599,0.3226,37.4000,39,97,302556
1.9550,0.3128,37.6800,39,97,302559
1.9844,0.3128,37.5900,39,97,302562
2.0039,0.3128,37.7100,39,97,302565
1.9990,0.3128,37.7400,39,97,302569
2.0430,0.3226,37.5600,39,97,302572
2.0039,0.3128,37.7100,39,97,302575
2.0235,0.3177,37.7400,39,97,302579
1.9795,0.3030,37.6800,39,97,302582
1.9746,0.3128,37.7400,39,97,302585
2.0137,0.3177,37.5900,39,97,302589
1.9648,0.3128,37.7700,39,97,302593
1.9990,0.3128,37.5600,39,97,302596
1.9795,0.3128,37.6500,39,97,302599
1.9844,0.3177,37.7400,39,97,302603
1.9941,0.3079,37.6500,39,97,302606
1.9746,0.3030,37.7100,39,97,302609
2.0039,0.3177,37.4600,39,97,302613
1.9648,0.3226,37.7400,39,97,302616
1.9746,0.3128,37.7700,39,97,302619
1.9795,0.3177,37.6800,39,97,302623
1.9550,0.3079,37.9900,39,97,302626
1.9990,0.3324,37.4300,39,97,302629
1.9550,0.3079,37.7700,39,97,302633
1.9355,0.3030,37.7100,39,97,302637
1.9306,0.3128,37.6800,39,97,302640
1.9208,0.3177,37.7400,39,97,302643
1.9844,0.3275,37.5300,39,97,302647
1.9355,0.3177,37.6500,39,97,302650
1.9110,0.3177,37.6500,39,97,302653
1.8964,0.3128,37.7100,39,97,302657
1.8915,0.3079,37.6200,39,97,302660
1.9257,0.3177,37.5600,39,97,302663
1.8866,0.3372,37.7100,39,97,302667
1.8915,0.3128,37.5900,39,97,302670
1.8573,0.3030,37.7400,39,97,302673
1.8524,0.3128,37.7400,39,97,302678
1.8573,0.3128,37.7400,39,97,302681
1.8426,0.3079,37.8300,39,97,302684
1.8671,0.3226,37.6800,39,97,302687
1.8231,0.3128,37.7700,39,97,302691
1.8133,0.3128,37.7400,39,97,302694
1.8231,0.3177,37.5900,39,97,302697
1.7937,0.3079,37.8700,39,97,302701
1.8133,0.3226,37.5600,39,97,302704
1.7986,0.3128,37.6200,39,97,302707
1.7889,0.3079,37.7700,39,97,302711
1.8133,0.3177,37.5900,39,97,302714
1.8182,0.3128,37.7400,39,97,302717
1.8280,0.3226,37.5600,39,97,302722
1.7840,0.3128,37.6200,39,97,302725
1.7693,0.3079,37.8700,39,97,302728
1.7742,0.3128,37.7400,39,97,302731
1.7644,0.3079,37.8000,39,97,302735
1.8084,0.3568,37.4300,39,97,302738
1.7546,0.3079,37.4900,39,97,302741
1.7449,0.2981,37.6800,39,97,302745
1.7498,0.3079,37.7100,39,97,302748
1.7449,0.3128,37.7400,39,97,302751
1.7791,0.3275,37.5900,39,97,302755
1.7449,0.3177,37.6800,39,97,302758
1.7351,0.3079,37.7700,39,97,302761
1.7204,0.3128,37.7100,39,97,302765
1.7155,0.3079,37.7400,39,97,302769
1.7449,0.3226,37.5600,39,97,302772
1.7449,0.3128,37.7100,39,97,302775
1.7351,0.3177,37.6200,39,97,302779
1.7546,0.3128,37.7400,39,97,302782
1.7400,0.3128,37.6500,39,97,302785
1.7693,0.3177,37.5900,39,97,302789
1.7498,0.3128,37.7700,39,97,302792
1.7840,0.3128,37.5600,39,97,302795
1.7498,0.3079,37.7400,39,97,302799
1.7937,0.3128,37.7100,39,97,302802
1.7937,0.3128,37.7100,39,97,302806
1.8035,0.3177,37.7400,39,97,302809
1.8524,0.3177,37.3700,39,97,302813
1.8377,0.3128,37.7400,39,97,302816
1.8524,0.3079,37.7400,39,97,302819
1.8817,0.3177,37.6800,39,97,302823
1.8866,0.3128,37.7100,39,97,302826
1.9501,0.3226,37.5300,39,97,302829
1.9306,0.3226,37.6200,39,97,302833
1.9257,0.3079,37.7400,39,97,302836
1.9306,0.3128,37.7400,39,97,302839
1.9208,0.3128,37.8000,39,97,302843
1.9795,0.3275,37.5300,39,97,302846
1.9306,0.3275,37.7400,39,97,302850
1.9257,0.3128,37.6500,39,97,302853
1.9110,0.3128,37.6800,39,97,302857
1.9110,0.3128,37.7400,39,97,302860
1.9599,0.3177,37.5300,39,97,302863
1.9257,0.3128,37.7100,39,97,302867
1.9501,0.3177,37.5900,39,97,302870
1.9306,0.3128,37.7400,39,97,302873
1.9306,0.3079,37.7100,39,97,302877
1.9501,0.3177,37.6800,39,97,302880
1.9306,0.3226,37.8000,39,97,302883
1.9648,0.3177,37.6200,39,97,302887
1.9257,0.3128,37.7400,39,97,302891
1.9208,0.3079,37.7700,39,97,302894
1.9501,0.3372,37.6200,39,97,302897
1.9306,0.3177,37.7400,39,97,302901
1.9062,0.3128,37.7400,39,97,302904
1.9550,0.3226,37.4300,39,97,302908
1.9110,0.3128,37.6500,39,97,302911
1.9013,0.3079,37.7700,39,97,302914
1.8964,0.3128,37.7100,39,97,302918
1.8915,0.3079,37.7400,39,97,302921
1.9550,0.3324,37.4600,39,97,302924
1.8964,0.3177,37.7400,39,97,302928
1.9013,0.3128,37.6800,39,97,302931
1.8964,0.3128,37.7100,39,97,302935
1.8817,0.3079,37.0100,39,97,302939
1.9062,0.3226,37.6500,39,97,302942
1.8622,0.3079,37.7100,39,97,302945
1.8719,0.3128,37.6200,39,97,302948
1.8524,0.3079,37.7100,39,97,302952
1.8573,0.3128,37.7700,39,97,302955
1.8817,0.3177,37.5600,39,97,302958
1.8524,0.3128,37.7400,39,97,302962
1.8671,0.3177,37.6500,39,97,302965
1.8328,0.3128,37.7400,39,97,302968
1.8377,0.3079,37.7100,39,97,302972
1.8524,0.3079,37.6500,39,97,302976
1.8280,0.3128,37.8000,39,97,302979
1.8475,0.3128,37.5300,39,97,302983
1.8182,0.3079,37.6200,39,97,302986
1.8182,0.3128,37.7400,39,97,302989
1.8280,0.3030,37.6800,39,97,302992
1.8133,0.3177,37.7700,39,97,302996
1.8475,0.3177,37.4900,39,97,302999
1.8035,0.3079,37.8300,39,97,303002
1.7986,0.3372,37.7100,39,97,303006
1.8035,0.3128,37.7100,39,97,303009
1.7889,0.3128,37.7400,39,97,303012
1.8377,0.3226,37.5600,39,97,303016
1.7937,0.3177,37.6800,39,97,303020
1.7937,0.3030,37.5300,39,97,303023
1.7986,0.3128,37.7400,39,97,303027
1.7986,0.3079,37.7400,39,97,303030
1.8573,0.3177,37.5300,39,97,303033
1.8231,0.3128,37.7100,39,97,303036
1.8133,0.3128,37.6800,39,97,303040
1.8133,0.3226,37.7400,39,97,303043
1.8328,0.3079,37.8000,39,97,303046
1.8866,0.3128,37.5600,39,97,303050
1.8817,0.3079,37.7400,39,97,303053
1.9208,0.3470,37.6200,39,97,303056
1.9159,0.3128,37.7100,39,97,303060
1.9355,0.3128,37.7400,39,97,303064
1.9648,0.3079,37.6800,39,97,303067
1.9648,0.3079,37.7100,39,97,303070
1.9990,0.3226,37.6200,39,97,303074
1.9746,0.3372,37.7400,39,97,303077
1.9746,0.3128,37.7400,39,97,303080
1.9844,0.3177,37.6800,39,97,303084
1.9453,0.3079,37.8300,39,97,303087
1.9550,0.3128,37.4600,39,97,303090
1.9257,0.3128,37.6200,39,97,303094
1.9013,0.3030,37.7400,39,97,303097
1.9110,0.3226,37.6800,39,97,303100
1.8915,0.3128,37.8000,39,97,303105
1.9306,0.3177,37.4900,39,97,303108
1.9062,0.3128,37.6800,39,97,303111
1.9013,0.3079,37.7700,39,97,303114
1.9062,0.3079,37.6800,39,97,303118
1.8964,0.3128,37.7400,39,97,303121
1.9404,0.3226,37.3700,39,97,303124
1.8964,0.3128,37.6800,39,97,303128
1.8817,0.3079,37.6500,39,97,303131
1.8866,0.3128,37.7400,39,97,303134
1.8719,0.3079,37.7400,39,97,303138
1.9257,0.3226,37.5600,39,97,303141
1.8817,0.3177,37.7100,39,97,303144
1.8866,0.3128,37.6500,39,97,303149
1.8866,0.3128,37.7400,39,97,303152
1.8817,0.3128,37.7400,39,97,303155
1.9110,0.3177,37.5900,39,97,303158
1.8768,0.3128,37.8000,39,97,303162
1.8866,0.3177,37.5900,39,97,303165
1.8573,0.3079,37.6500,39,97,303168
1.8573,0.2884,37.7100,39,97,303172
1.8768,0.3128,37.5900,39,97,303175
1.8475,0.3128,37.7400,39,97,303178
1.8719,0.3079,37.5600,39,97,303182
1.8426,0.3030,37.7100,39,97,303185
1.8377,0.3470,37.7400,39,97,303188
1.8573,0.3128,37.6500,39,97,303192
1.8328,0.3079,37.8000,39,97,303196
1.8475,0.3226,37.5600,39,97,303199
1.8084,0.3079,37.7700,39,97,303202
1.8084,0.3177,37.7400,39,97,303206
1.8182,0.3177,37.1300,39,97,303209
1.8035,0.3079,37.7700,39,97,303212
1.8426,0.3177,37.4300,39,97,303216
1.8035,0.3177,37.7100,39,97,303219
1.7889,0.3079,37.7400,39,97,303222
1.7937,0.3079,37.7100,39,97,303226
1.7791,0.3177,37.7400,39,97,303229
1.8328,0.3324,37.4300,39,97,303233
1.7840,0.3128,37.6200,39,97,303236
1.7742,0.3079,37.6800,39,97,303240
1.7889,0.3275,37.8000,39,97,303243
1.8231,0.3128,37.7400,39,97,303246
1.9306,0.3226,37.5600,39,97,303250
1.9844,0.3128,37.7100,39,97,303253
2.0870,0.3275,37.6200,39,97,303256
2.1457,0.3128,37.7400,39,97,303260
2.2092,0.3128,37.7400,39,97,303263
2.2434,0.3177,37.6500,39,97,303266
2.1505,0.3128,37.7700,39,97,303269
2.0674,0.3226,37.5900,39,97,303273
1.9208,0.3079,37.7400,39,97,303277
1.7986,0.3079,37.7400,39,97,303280
1.7351,0.3079,37.8300,39,97,303284
1.6373,0.3128,37.7400,39,97,303287
1.6178,0.3666,37.6200,39,97,303290
1.5738,0.3128,37.6500,39,97,303294
1.5787,0.3324,37.7400,39,97,303297
1.5836,0.3177,37.5900,39,97,303300
1.5249,0.3128,37.7400,39,97,303304
1.5005,0.3128,37.4600,39,97,303307
1.4125,0.3128,37.6500,39,97,303310
1.3245,0.3079,37.8300,39,97,303313
1.3099,0.3128,37.6800,39,97,303318
1.2512,0.3030,37.7700,39,97,303321
1.2903,0.3421,37.4300,39,97,303324
1.3050,0.3079,37.7100,39,97,303328
1.3832,0.3128,37.7400,39,97,303331
1.4663,0.3128,37.7400,39,97,303334
1.5640,0.3128,37.7400,39,97,303338
1.6764,0.3275,37.5300,39,97,303341
1.7253,0.3128,37.6800,39,97,303344
1.7840,0.3079,37.6800,39,97,303348
1.8475,0.3128,37.7400,39,97,303351
1.8964,0.3079,37.8300,39,97,303354
1.9599,0.3177,37.5300,39,97,303357
1.9550,0.3079,37.7400,39,97,303362
1.9746,0.3128,37.6200,39,97,303365
1.9599,0.3421,37.7400,39,97,303368
1.9990,0.3079,37.7400,39,97,303372
1.9990,0.3177,37.5600,39,97,303375
2.0039,0.3128,37.7100,39,97,303378
1.9941,0.3177,37.5900,39,97,303382
1.9599,0.3079,37.7400,39,97,303385
1.9599,0.3079,37.8000,39,97,303388
1.9697,0.3177,37.6500,39,97,303391
1.9550,0.3128,37.7400,39,97,303395
1.9746,0.3128,37.5600,39,97,303398
1.9404,0.3079,37.7100,39,97,303401
1.9355,0.3275,37.7100,39,97,303406
1.9550,0.3177,37.5300,39,97,303409
1.9355,0.3128,37.7400,39,97,303412
1.9697,0.3177,37.6500,39,97,303416
1.9355,0.3128,37.5900,39,97,303419
1.9159,0.3079,37.8000,39,97,303422
1.9257,0.3177,37.7100,39,97,303426
1.8964,0.3275,37.7400,39,97,303429
1.9550,0.3177,37.4300,39,97,303432
1.8964,0.3128,37.6200,39,97,303435
1.8866,0.3128,37.7700,39,97,303439
1.8866,0.3079,37.7400,39,97,303442
1.8817,0.3079,37.7400,39,97,303446
1.9355,0.3275,37.4900,39,97,303450
1.8866,0.3128,37.6800,39,97,303453
1.8817,0.3079,37.7100,39,97,303456
1.8719,0.3128,37.7400,39,97,303460
1.8573,0.3128,37.7700,39,97,303463
1.8915,0.3079,36.8200,39,97,303466
1.8671,0.3177,37.7400,39,97,303470
1.8719,0.3128,37.5900,39,97,303473
1.8524,0.3079,37.7100,39,97,303476
1.8426,0.3275,37.7400,39,97,303479
1.8719,0.3226,37.6200,39,97,303483
1.8280,0.3128,37.7100,39,97,303486
1.8573,0.3177,37.5900,39,97,303490
1.8328,0.3128,37.7400,39,97,303494
1.8280,0.3079,37.6200,39,97,303497
1.8377,0.3177,37.5900,39,97,303500
1.8133,0.3177,37.7700,39,97,303504
1.8231,0.3128,37.5300,39,97,303507
1.8084,0.3226,37.4300,39,97,303511
1.7595,0.3128,37.7100,39,97,303514
1.7595,0.3079,37.7400,39,97,303517
1.7644,0.3079,37.7400,39,97,303521
1.7546,0.3128,37.7700,39,97,303524
1.8084,0.3275,37.4900,39,97,303527
1.7693,0.3177,37.6500,39,97,303531
1.7693,0.3079,37.6500,39,97,303535
1.7791,0.3079,37.7400,39,97,303538
1.7840,0.3128,37.8000,39,97,303541
1.8280,0.3177,37.5300,39,97,303545
1.8231,0.3079,37.7100,39,97,303548
1.8573,0.3128,37.5900,39,97,303551
1.8524,0.3177,37.7400,39,97,303555
1.8768,0.3128,37.7400,39,97,303558
1.9306,0.3421,37.6200,39,97,303561
1.9257,0.3079,37.7400,39,97,303565
1.9697,0.3177,37.5600,39,97,303568
1.9648,0.3128,37.7400,39,97,303571
1.9697,0.3079,37.7700,39,97,303575
1.9941,0.3226,37.6800,39,97,303579
1.9990,0.3128,37.8300,39,97,303582
2.0235,0.3324,37.5600,39,97,303585
1.9941,0.3079,37.7400,39,97,303589
2.0283,0.3128,37.7400,39,97,303592
2.0235,0.3177,37.5300,39,97,303595
1.9990,0.3128,37.7400,39,97,303599
2.0430,0.3177,37.4900,39,97,303602
2.0137,0.3128,37.6200,39,97,303605
1.9990,0.3128,37.8300,39,97,303608
2.0235,0.3177,37.6800,39,97,303612
1.9990,0.3128,37.7700,39,97,303616
2.0528,0.3275,37.4000,39,97,303619
2.0137,0.3128,37.6800,39,97,303623
1.9990,0.3079,37.7400,39,97,303626
2.0039,0.3128,37.7400,39,97,303629
1.9941,0.3079,38.0200,39,97,303633
2.0479,0.3324,37.4900,39,97,303636
1.9990,0.3079,37.6500,39,97,303639
1.9941,0.3079,37.6500,39,97,303642
1.9990,0.3128,37.7100,39,97,303646
1.9892,0.3128,37.7100,39,97,303649
2.0430,0.3226,37.5900,39,97,303652
2.0186,0.3177,37.6500,39,97,303656
2.0137,0.3128,37.6200,39,97,303660
1.9844,0.3128,37.7400,39,97,303663
1.9697,0.3079,37.7100,39,97,303667
1.9892,0.3177,37.5300,39,97,303670
1.9453,0.3079,37.7100,39,97,303673
1.9550,0.3128,37.5900,39,97,303677
1.9257,0.3079,37.5900,39,97,303680
1.9159,0.3128,37.7400,39,97,303683
1.9306,0.3128,37.7100,39,97,303686
1.8964,0.3177,37.7400,39,97,303690
1.9159,0.3128,37.5900,39,97,303693
1.8719,0.3079,37.7100,39,97,303696
1.8622,0.3079,37.5900,39,97,303700
1.8622,0.3128,37.6800,39,97,303704
1.8328,0.3079,37.6800,39,97,303707
1.8573,0.3128,37.4600,39,97,303711
1.8133,0.3079,37.7700,39,97,303714
1.8133,0.3079,37.7400,39,97,303717
1.8280,0.3128,37.5300,39,97,303720
1.7986,0.3079,37.8000,39,97,303724
1.8328,0.3177,37.4000,39,97,303727
1.7986,0.3128,37.6200,39,97,303730
1.7791,0.3079,37.7400,39,97,303734
1.7840,0.3079,37.7400,39,97,303737
1.7791,0.3079,37.7400,39,97,303740
1.8328,0.3275,37.4900,39,97,303745
1.7889,0.3079,37.6800,39,97,303748
1.7791,0.3079,37.6500,39,97,303751
1.7693,0.3079,37.7400,39,97,303755
1.7742,0.3128,37.7700,39,97,303758
1.7986,0.3177,37.6500,39,97,303761
1.7498,0.3128,37.7100,39,97,303764
1.7546,0.3128,37.5300,39,97,303768
1.7302,0.3128,37.7700,39,97,303771
1.7155,0.3128,37.8000,39,97,303774
1.7253,0.3177,37.7100,39,97,303778
1.7155,0.3177,37.7100,39,97,303781
1.7400,0.3079,37.6200,39,97,303784
1.7253,0.3128,37.7400,39,97,303789
1.7302,0.3079,37.8700,39,97,303792
1.7937,0.3128,37.6200,39,97,303795
1.7400,0.3079,37.6800,39,97,303799
1.7791,0.3128,37.5300,39,97,303802
1.7595,0.3079,37.5900,39,97,303805
1.7693,0.3128,37.8000,39,97,303808
1.8133,0.3177,37.7700,39,97,303812
1.8182,0.3079,37.7400,39,97,303815
1.8768,0.3177,37.5900,39,97,303818
1.8768,0.3177,37.6800,39,97,303822
1.8768,0.3079,37.7400,39,97,303825
1.9062,0.3128,37.7100,39,97,303828
1.9062,0.3079,37.7100,39,97,303833
1.9648,0.3226,37.4600,39,97,303836
1.9306,0.3226,37.7400,39,97,303839
1.9404,0.3030,37.7100,39,97,303842
1.9501,0.3079,37.6800,39,97,303846
1.9355,0.3079,37.7100,39,97,303849
1.9941,0.3275,37.4900,39,97,303852
1.9550,0.3177,37.6800,39,97,303856
1.9453,0.3079,37.6500,39,97,303859
1.9404,0.3079,37.7400,39,97,303862
1.9404,0.3324,37.7100,39,97,303866
1.9795,0.3177,37.5900,39,97,303869
1.9697,0.3128,37.6800,39,97,303873
1.9550,0.3079,37.6800,39,97,303877
1.9306,0.3177,37.7400,39,97,303880
1.9306,0.3079,37.7400,39,97,303883
1.9501,0.3128,37.5900,39,97,303886
1.9257,0.3079,37.7100,39,97,303890
1.9501,0.3177,37.6200,39,97,303893
1.9159,0.3128,37.7400,39,97,303896
1.9159,0.2981,37.7100,39,97,303900
1.9257,0.3079,37.7100,39,97,303903
1.9062,0.3079,37.8000,39,97,303906
1.9257,0.3128,37.5300,39,97,303910
1.9110,0.2981,37.6800,39,97,303913
1.9159,0.3128,37.9600,39,97,303917
1.9355,0.3177,37.6200,39,97,303920
1.9062,0.3079,37.7100,39,97,303924
1.9404,0.3128,37.4300,39,97,303927
1.9013,0.3128,37.5900,39,97,303930
1.8768,0.3128,37.7400,39,97,303934
1.8866,0.3226,37.6800,39,97,303937
1.8719,0.3079,37.7700,39,97,303940
1.9208,0.3568,37.4000,39,97,303944
1.8817,0.3128,37.6200,39,97,303947
1.8671,0.3128,37.7400,39,97,303950
1.8719,0.3079,37.7100,39,97,303954
1.8622,0.3079,37.7400,39,97,303958
1.9110,0.3275,37.5300,39,97,303961
1.8475,0.3177,37.7100,39,97,303964
1.8475,0.3128,37.7400,39,97,303968
1.8280,0.3079,37.7400,39,97,303971
1.8182,0.3079,37.7400,39,97,303974
1.8475,0.3177,37.6200,39,97,303978
1.8182,0.3079,37.8000,39,97,303981
1.8231,0.3128,37.5900,39,97,303984
1.7986,0.3079,37.8000,39,97,303988
1.7986,0.3128,37.7400,39,97,303991
1.8231,0.3226,37.5300,39,97,303994
1.7937,0.3079,37.7100,39,97,303998
1.8182,0.3177,37.6200,39,97,304002
1.7840,0.3079,37.6800,39,97,304005
1.7840,0.3079,37.7400,39,97,304008
1.7986,0.3226,37.5900,39,97,304012
1.7693,0.3079,37.7400,39,97,304015
1.7937,0.3177,37.5300,39,97,304018
1.7644,0.3079,37.1900,39,97,304022
1.7498,0.3177,37.7400,39,97,304025
1.7546,0.3128,37.6500,39,97,304028
1.7302,0.2981,37.7100,39,97,304032
1.7693,0.3177,37.4600,39,97,304035
1.7302,0.3079,37.7100,39,97,304038
1.7400,0.3079,37.7400,39,97,304041
1.7693,0.3128,37.7100,39,97,304046
1.7937,0.3324,37.7400,39,97,304049
1.9110,0.3275,37.4300,39,97,304052
1.9697,0.3568,37.6500,39,97,304056
2.0723,0.3030,37.6800,39,97,304059
2.1799,0.3177,37.6800,39,97,304062
2.2630,0.2884,37.7400,39,97,304066
2.3558,0.3177,37.9900,39,97,304069
2.2776,0.3128,37.6800,39,97,304072
2.1750,0.3128,37.6200,39,97,304076
2.0626,0.3079,37.7700,39,97,304079
1.9257,0.3079,37.7100,39,97,304082
1.8524,0.3372,37.6200,39,97,304086
1.7546,0.3128,37.7400,39,97,304090
1.7302,0.3128,37.6200,39,97,304093
1.6960,0.3079,37.7700,39,97,304096
1.7009,0.3079,37.7700,39,97,304100
1.7058,0.3128,37.6500,39,97,304103
1.6569,0.3079,37.7700,39,97,304106
1.6129,0.3128,37.6200,39,97,304110
1.5103,0.3128,37.7400,39,97,304113
1.4272,0.3128,37.1000,39,97,304116
1.3783,0.3177,37.6500,39,97,304119
1.4614,0.3128,37.6500,39,97,304123
1.5347,0.3079,37.7100,39,97,304126
1.6618,0.3715,37.4900,39,97,304131
1.7155,0.3079,37.6200,39,97,304134
1.7791,0.3128,37.7400,39,97,304137
1.8475,0.3128,37.7700,39,97,304141
1.8915,0.3128,37.7100,39,97,304144
1.9892,0.3275,37.8700,39,97,304147
1.9648,0.3128,37.6500,39,97,304151
1.9795,0.3079,37.6200,39,97,304154
1.9844,0.3128,37.7100,39,97,304157
1.9795,0.3079,37.8000,39,97,304161
2.0137,0.3177,37.6200,39,97,304164
1.9892,0.3128,37.6500,39,97,304167
1.9892,0.3128,37.5900,39,97,304171
1.9599,0.3128,37.7100,39,97,304175
1.9550,0.3079,37.7400,39,97,304178
1.9844,0.3372,37.5600,39,97,304181
1.9501,0.3079,37.8300,39,97,304185
1.9697,0.3226,37.5900,39,97,304188
1.9355,0.3030,37.6500,39,97,304191
1.9306,0.3177,37.7400,39,97,304195
1.9453,0.3128,37.5900,39,97,304198
1.9110,0.3128,37.7400,39,97,304201
1.9355,0.3128,37.5600,39,97,304205
1.9062,0.3128,37.6500,39,97,304208
1.8866,0.3079,37.7100,39,97,304211
1.8964,0.3128,37.6800,39,97,304215
1.8719,0.3079,37.7700,39,97,304219
1.9013,0.3177,37.4600,39,97,304222
1.8573,0.3177,37.6500,39,97,304225
1.8573,0.3128,37.7400,39,97,304229
1.8524,0.3128,37.7100,39,97,304232
1.8377,0.3079,37.8300,39,97,304235
1.8964,0.3275,37.4300,39,97,304239
1.8475,0.3128,37.8000,39,97,304242
1.8377,0.3079,37.6800,39,97,304245
1.8475,0.3079,37.6800,39,97,304249
1.8377,0.3128,37.7400,39,97,304252
1.8817,0.3177,37.5300,39,97,304256
1.8475,0.3177,37.7100,39,97,304259
1.8377,0.3079,37.5900,39,97,304263
1.8231,0.3128,37.7400,39,97,304266
1.8182,0.3079,37.4600,39,97,304269
1.8524,0.3177,37.6200,39,97,304273
1.7986,0.3079,37.7100,39,97,304276
1.8182,0.3128,37.5900,39,97,304279
1.7937,0.3079,37.7100,39,97,304283
1.7986,0.3079,37.7400,39,97,304286
1.8084,0.3226,37.7100,39,97,304289
1.8035,0.3128,37.7400,39,97,304293
1.8377,0.3128,37.5900,39,97,304296
1.8133,0.3079,36.8500,39,97,304300
1.8573,0.3128,37.7400,39,97,304303
1.8524,0.3177,37.6800,39,97,304307
1.8377,0.3128,37.7400,39,97,304310
1.8866,0.3128,37.4600,39,97,304313
1.8866,0.3128,37.6500,39,97,304317
1.8915,0.3079,37.8000,39,97,304320
1.9208,0.3177,37.6800,39,97,304323
1.9257,0.3079,37.7100,39,97,304327
2.0186,0.3324,37.4300,39,97,304330
1.9746,0.3128,38.0500,39,97,304333
1.9795,0.3079,37.7400,39,97,304336
1.9941,0.3128,37.7100,39,97,304340
1.9941,0.3275,37.7400,39,97,304344
2.0577,0.3275,37.4600,39,97,304347
2.0137,0.3177,37.6800,39,97,304351
2.0137,0.3030,37.7100,39,97,304354
2.0235,0.3079,37.7100,39,97,304357
2.0235,0.3128,37.7400,39,97,304361
2.0674,0.3226,37.5600,39,97,304364
2.0381,0.3128,37.6800,39,97,304367
2.0332,0.3128,37.6500,39,97,304370
2.0186,0.3177,37.7700,39,97,304374
2.0088,0.3079,37.7700,39,97,304377
2.0479,0.3177,37.4600,39,97,304380
2.0137,0.3128,37.7100,39,97,304385
2.0235,0.3128,37.6500,39,97,304388
1.9892,0.3324,37.7400,39,97,304391
1.9844,0.3079,37.9000,39,97,304395
2.0088,0.3226,37.5900,39,97,304398
1.9941,0.3128,37.7400,39,97,304401
1.9990,0.3177,37.5600,39,97,304404
1.9648,0.3128,37.6800,39,97,304408
1.9550,0.3079,37.7700,39,97,304411
1.9599,0.3128,37.6500,39,97,304414
1.9501,0.3079,37.7100,39,97,304418
1.9844,0.3128,37.4900,39,97,304421
1.9404,0.3128,37.7100,39,97,304424
1.9404,0.3079,37.7700,39,97,304429
1.9501,0.3275,37.6800,39,97,304432
1.9110,0.3079,37.8300,39,97,304435
1.9453,0.3226,37.4600,39,97,304439
1.9159,0.3128,37.7400,39,97,304442
1.8964,0.3030,37.7400,39,97,304445
1.9013,0.3128,37.6800,39,97,304448
1.9062,0.3128,37.7100,39,97,304452
1.9355,0.3226,37.4600,39,97,304455
1.8915,0.3128,37.6200,39,97,304458
1.8719,0.3030,37.7100,39,97,304462
1.8671,0.3128,37.7400,39,97,304465
1.8475,0.3079,37.8000,39,97,304468
1.8768,0.3226,37.5900,39,97,304473
1.8328,0.3275,37.6500,39,97,304476
1.8280,0.3128,37.6500,39,97,304479
1.8133,0.3079,37.8300,39,97,304482
1.8035,0.3079,37.7400,39,97,304486
1.8231,0.3177,37.6200,39,97,304489
1.7937,0.3128,37.7400,39,97,304492
1.7986,0.3128,37.6200,39,97,304496
1.7693,0.3128,37.7700,39,97,304499
1.7693,0.3128,37.7700,39,97,304502
1.8035,0.3177,37.5300,39,97,304506
1.7742,0.3128,37.7400,39,97,304509
1.7889,0.3128,37.5300,39,97,304513
1.7644,0.3079,37.6500,39,97,304517
1.7595,0.3079,37.7700,39,97,304520
1.7742,0.3177,37.5900,39,97,304523
1.7498,0.3079,37.7400,39,97,304526
1.7791,0.3177,37.4900,39,97,304530
1.7302,0.3128,37.6800,39,97,304533
1.7253,0.3128,37.7400,39,97,304536
1.7253,0.3275,37.6800,39,97,304540
1.7155,0.3128,37.7100,39,97,304543
1.7595,0.3568,37.4300,39,97,304546
1.7155,0.3079,37.6500,39,97,304550
1.7155,0.2981,37.7100,39,97,304553
1.7253,0.3177,37.6800,39,97,304557
1.7204,0.3128,37.7400,39,97,304561
1.7791,0.3372,37.4300,39,97,304564
1.7595,0.3177,37.7100,39,97,304567
1.7595,0.3079,37.7400,39,97,304570
1.7840,0.3128,37.7100,39,97,304574
1.8035,0.2933,37.7100,39,97,304577
1.8622,0.3079,37.4600,39,97,304580
1.8573,0.3128,37.7100,39,97,304584
1.8768,0.3128,37.5900,39,97,304587
1.9013,0.2981,37.7400,39,97,304590
1.8866,0.3079,37.9000,39,97,304594
1.9257,0.3177,37.5600,39,97,304598
1.9110,0.3079,37.8300,39,97,304601
1.9453,0.3226,37.6800,39,97,304605
1.9208,0.3079,37.7400,39,97,304608
1.9208,0.3128,37.7100,39,97,304611
1.9306,0.3079,37.7100,39,97,304614
1.9208,0.3079,37.7100,39,97,304618
1.9550,0.3128,37.5600,39,97,304621
1.9404,0.3128,37.7400,39,97,304624
1.9355,0.3079,37.7400,39,97,304628
1.9550,0.3421,37.4900,39,97,304631
1.9257,0.3079,37.7100,39,97,304634
1.9892,0.3177,37.4600,39,97,304638
1.9306,0.3079,37.5900,39,97,304642
1.9159,0.3226,37.7400,39,97,304645
1.9257,0.3177,37.6200,39,97,304649
1.8964,0.3128,37.7400,39,97,304652
1.9501,0.3226,37.3700,39,97,304655
1.9110,0.3128,37.6500,39,97,304658
1.9013,0.3128,37.7100,39,97,304662
1.9062,0.3128,37.7100,39,97,304665
1.9013,0.3226,37.7400,39,97,304668
1.9599,0.3275,37.4900,39,97,304672
1.9159,0.3128,37.7100,39,97,304675
1.9110,0.3079,38.1500,39,97,304678
1.9110,0.3128,37.7400,39,97,304683
1.8964,0.3079,37.7700,39,97,304686
1.9257,0.3226,37.6500,39,97,304689
1.8866,0.3128,37.7400,39,97,304692
1.8964,0.3177,37.5900,39,97,304696
1.8719,0.3079,37.6500,39,97,304699
1.8622,0.3128,37.7700,39,97,304702
1.8964,0.3226,37.6200,39,97,304706
1.8622,0.3128,37.7100,39,97,304709
1.8866,0.3421,37.5900,39,97,304712
1.8622,0.3030,37.7100,39,97,304716
1.8426,0.3079,37.7700,39,97,304719
1.8573,0.3128,37.5900,39,97,304722
1.8280,0.3079,37.9600,39,97,304727
1.8719,0.3128,37.5300,39,97,304730
2.1554,0.3275,37.4300,39,97,304734
2.1945,0.3128,37.7100,39,97,304737
2.2678,0.3177,37.7700,39,97,304740
2.3021,0.3079,37.7400,39,97,304743
2.2336,0.3128,37.7100,39,97,304747
2.1799,0.3079,37.5600,39,97,304750
1.9844,0.3128,37.6500,39,97,304753
1.8133,0.3128,37.6800,39,97,304757
1.6716,0.3128,37.7400,39,97,304760
1.5543,0.3079,37.7400,39,97,304763
1.5103,0.3177,37.6200,39,97,304768
1.4809,0.2884,37.7100,39,97,304771
1.4467,0.3079,37.6800,39,97,304774
1.4174,0.3177,37.7400,39,97,304778
1.3881,0.3128,37.7400,39,97,304781
1.3636,0.3226,37.5900,39,97,304784
1.2659,0.3079,37.7400,39,97,304787
1.2170,0.3177,37.6500,39,97,304791
1.1388,0.3128,37.7700,39,97,304794
1.0948,0.3079,37.7400,39,97,304797
1.0753,0.3128,37.6500,39,97,304801
1.0948,0.3079,37.1900,39,97,304804
1.1632,0.3177,37.4900,39,97,304807
1.2366,0.3079,37.7100,39,97,304812
1.3490,0.3079,37.7400,39,97,304815
1.4809,0.3079,37.7100,39,97,304818
1.5787,0.3128,37.7700,39,97,304822
1.7204,0.3177,37.4300,39,97,304825
1.8035,0.3128,37.6200,39,97,304828
1.8719,0.3079,37.7700,39,97,304831
1.9453,0.3128,37.6800,39,97,304835
1.9697,0.3079,37.7700,39,97,304838
2.0528,0.3226,37.4000,39,97,304841
2.0381,0.3128,37.6200,39,97,304845
2.0381,0.3030,37.7100,39,97,304848
2.0528,0.3128,37.7400,39,97,304851
2.0479,0.3079,37.7400,39,97,304856
2.1310,0.3372,37.4900,39,97,304859
2.0430,0.3079,37.7100,39,97,304862
2.0332,0.3177,37.8000,39,97,304865
2.0283,0.3128,37.7100,39,97,304869
2.0235,0.3128,37.7700,39,97,304872
2.0626,0.3226,37.5900,39,97,304875
2.0283,0.3128,37.6800,39,97,304879
2.0283,0.3128,37.6500,39,97,304882
2.0088,0.3177,37.7400,39,97,304885
2.0186,0.3128,37.7100,39,97,304889
2.0381,0.3177,37.6200,39,97,304892
2.0039,0.3128,37.7100,39,97,304896
2.0186,0.3128,37.5900,39,97,304899
1.9844,0.3324,37.7100,39,97,304903
1.9795,0.3079,37.7100,39,97,304906
2.0088,0.3128,37.5600,39,97,304909
1.9795,0.3128,37.7400,39,97,304913
2.0088,0.3128,37.5300,39,97,304916
1.9697,0.3030,37.7100,39,97,304919
1.9697,0.3079,37.7400,39,97,304923
1.9892,0.3177,37.6800,39,97,304926
1.9697,0.3128,37.7100,39,97,304929
1.9990,0.3226,37.4900,39,97,304932
1.9599,0.3079,37.7400,39,97,304936
1.9599,0.3030,37.7100,39,97,304940
1.9648,0.3177,37.7100,39,97,304943
1.9599,0.2981,37.7400,39,97,304947
1.9941,0.3177,37.6200,39,97,304950
1.9697,0.3128,37.6500,39,97,304953
1.9501,0.3128,37.7100,39,97,304957
1.9599,0.3079,37.6800,39,97,304960
1.9453,0.3275,37.7400,39,97,304963
1.9990,0.3324,37.4300,39,97,304966
1.9453,0.3226,37.6800,39,97,304970
1.9208,0.3128,37.6800,39,97,304973
1.9159,0.3079,37.7400,39,97,304976
1.9257,0.2884,37.7700,39,97,304980
1.9501,0.3226,37.5300,39,97,304984
1.9355,0.3128,37.7100,39,97,304987
1.9159,0.3128,36.9800,39,97,304991
1.8915,0.3128,37.7400,39,97,304994
1.8915,0.3079,37.7700,39,97,304997
1.9110,0.3177,37.6800,39,97,305001
1.8964,0.3372,37.7400,39,97,305004
1.9159,0.3128,37.5900,39,97,305007
1.8915,0.3128,37.7700,39,97,305010
1.8915,0.3079,37.8300,39,97,305014
1.9208,0.3128,37.5900,39,97,305017
1.8866,0.3079,37.6800,39,97,305020
1.9110,0.3128,37.5600,39,97,305025
1.8768,0.3128,37.6500,39,97,305028
1.9062,0.2981,37.7400,39,97,305031
1.8866,0.3177,37.5900,39,97,305035
1.8573,0.3128,37.7400,39,97,305038
1.8866,0.3128,37.4600,39,97,305041
1.8573,0.3128,37.7100,39,97,305045
1.8426,0.3470,37.7700,39,97,305048
1.8573,0.3128,37.6800,39,97,305051
1.8475,0.3079,37.7400,39,97,305054
1.8964,0.3226,37.4600,39,97,305058
1.8524,0.3079,37.6800,39,97,305061
1.8573,0.3128,37.7400,39,97,305064
1.8671,0.3128,37.7100,39,97,305069
1.8622,0.3079,37.7700,39,97,305072
1.9208,0.3324,37.4600,39,97,305075
1.8915,0.3079,37.7100,39,97,305079
1.8866,0.3128,37.6500,39,97,305082
1.8964,0.3079,37.7100,39,97,305085
1.9062,0.3128,37.7700,39,97,305089
1.9599,0.3226,37.5300,39,97,305092
1.9501,0.3128,37.7100,39,97,305095
1.9648,0.3470,37.5900,39,97,305098
1.9550,0.3079,37.8000,39,97,305102
1.9599,0.3079,37.7100,39,97,305105
1.9892,0.3128,37.5900,39,97,305108
1.9599,0.3128,37.7700,39,97,305113
1.9746,0.3177,37.5600,39,97,305116
1.9404,0.3079,37.8700,39,97,305119
1.9648,0.3128,37.7400,39,97,305123
1.9306,0.3079,37.7100,39,97,305126
1.9110,0.3177,37.7400,39,97,305129
1.9306,0.3128,37.5900,39,97,305132
1.8866,0.3128,37.7400,39,97,305136
1.8817,0.3079,37.7100,39,97,305139
1.8915,0.3177,37.6200,39,97,305142
1.8573,0.3275,37.8000,39,97,305146
1.8915,0.3177,37.4900,39,97,305149
1.8719,0.3177,37.6200,39,97,305153
1.8622,0.3128,37.7100,39,97,305157
1.9013,0.3226,37.6500,39,97,305160
1.8573,0.3128,37.8700,39,97,305163
1.9404,0.3226,37.5900,39,97,305167
1.8622,0.3128,37.5900,39,97,305170
1.8866,0.2884,37.7400,39,97,305173
1.8524,0.3079,37.6200,39,97,305176
1.8475,0.3128,37.7100,39,97,305180
1.8964,0.3275,37.5900,39,97,305183
1.8426,0.3128,37.6800,39,97,305186
1.8426,0.3079,37.6500,39,97,305190
1.8231,0.3128,37.7100,39,97,305193
1.8133,0.3128,37.7400,39,97,305197
1.8426,0.3177,37.6500,39,97,305201
1.8573,0.3128,37.6800,39,97,305204
1.8280,0.3128,37.6500,39,97,305207
1.8084,0.3128,37.7400,39,97,305211
1.8035,0.3079,37.7400,39,97,305214
1.8328,0.3226,37.5600,39,97,305217
1.8035,0.3079,37.8300,39,97,305220
1.8182,0.3226,37.6200,39,97,305224
1.7840,0.3030,37.7400,39,97,305227
1.7840,0.3470,37.7400,39,97,305230
1.8035,0.3079,37.6200,39,97,305234
1.7791,0.3079,37.7400,39,97,305238
1.8035,0.3128,37.5600,39,97,305241
1.7742,0.3372,37.6500,39,97,305245
1.7644,0.3128,37.7400,39,97,305248
1.7742,0.3177,37.6800,39,97,305251
1.7693,0.3128,37.7700,39,97,305254
1.8182,0.3128,37.4600,39,97,305258
1.8182,0.3128,37.7100,39,97,305261
1.8915,0.3128,37.7400,39,97,305264
1.9941,0.3177,37.7100,39,97,305268
2.0821,0.3079,37.8300,39,97,305271
2.2239,0.3617,37.4000,39,97,305274
2.2434,0.3128,37.6200,39,97,305278
2.2190,0.3030,37.7400,39,97,305282
2.1310,0.3128,37.7100,39,97,305285
1.9746,0.3079,37.6800,39,97,305289
1.8475,0.3177,37.5300,39,97,305292
1.6520,0.3177,37.6500,39,97,305295
1.5054,0.3128,37.6200,39,97,305298
1.4076,0.3079,37.7100,39,97,305302
1.3636,0.3079,37.7400,39,97,305305
1.3832,0.3079,37.4000,39,97,305308
1.3734,0.3030,37.7100,39,97,305312
1.3832,0.3128,37.6200,39,97,305315
1.3294,0.3030,37.7100,39,97,305318
1.2708,0.3128,37.7700,39,97,305323
1.2268,0.3128,37.6500,39,97,305326
1.1632,0.3128,37.7100,39,97,305329
1.1535,0.3079,37.6200,39,97,305332
1.1241,0.3079,37.7400,39,97,305336
1.1584,0.3128,37.7100,39,97,305339
1.2512,0.3177,37.6800,39,97,305342
1.7791,0.3177,37.6800,39,97,305346
1.8524,0.3079,37.7700,39,97,305349
1.9844,0.3324,37.4600,39,97,305353
1.9844,0.3226,37.6200,39,97,305356
2.0039,0.3079,37.7400,39,97,305359
2.0186,0.3128,37.6200,39,97,305363
2.0283,0.3030,37.8000,39,97,305367
2.1065,0.3275,37.4300,39,97,305370
2.0528,0.3128,37.6800,39,97,305374
2.0821,0.3128,37.6800,39,97,305377
2.0528,0.3079,37.7700,39,97,305380
2.0723,0.3128,37.7400,39,97,305383
2.0772,0.3226,37.4900,39,97,305387
2.0381,0.3177,37.6800,39,97,305390
2.0381,0.3128,37.6500,39,97,305393
2.0186,0.3177,37.7700,39,97,305397
2.0186,0.3079,37.8000,39,97,305400
2.0430,0.3177,37.5300,39,97,305403
2.0137,0.3128,37.7400,39,97,305408
2.0235,0.3177,37.6800,39,97,305411
1.9892,0.3128,37.7400,39,97,305414
1.9892,0.3128,37.4900,39,97,305417
2.0137,0.3226,37.6200,39,97,305421
1.9892,0.3128,37.6800,39,97,305424
2.0186,0.3226,37.5900,39,97,305427
1.9892,0.3079,37.6800,39,97,305431
1.9892,0.3128,37.7400,39,97,305434
1.9990,0.3128,37.6500,39,97,305437
1.9795,0.3128,37.7100,39,97,305441
2.0088,0.3177,37.4600,39,97,305444
1.9648,0.3128,37.7400,39,97,305447
1.9648,0.3079,37.7400,39,97,305451
1.9844,0.3226,37.6800,39,97,305455
1.9599,0.3128,37.8300,39,97,305458
2.0039,0.3275,37.4300,39,97,305461
1.9648,0.3177,37.6800,39,97,305465
1.9404,0.3079,37.7400,39,97,305468
1.9453,0.3128,37.7700,39,97,305471
1.9257,0.3128,37.8000,39,97,305475
1.9844,0.3275,37.7400,39,97,305478
1.9355,0.3226,37.6200,39,97,305481
1.9208,0.3079,37.6500,39,97,305485
1.9306,0.3128,37.6500,39,97,305488
1.9159,0.3079,37.9600,39,97,305491
1.9648,0.3177,37.5300,39,97,305495
1.9159,0.3079,37.6500,39,97,305499
1.9355,0.3128,37.6200,39,97,305502
1.9208,0.3079,37.8300,39,97,305505
1.9257,0.3128,37.7700,39,97,305509
1.9404,0.3275,37.6500,39,97,305512
1.9159,0.3128,37.7100,39,97,305515
1.9355,0.3128,37.6200,39,97,305519
1.9013,0.3079,37.9600,39,97,305522
1.9013,0.3128,37.7400,39,97,305525
1.9257,0.3177,37.5300,39,97,305528
1.8915,0.3128,37.7400,39,97,305532
1.9013,0.3128,37.5900,39,97,305536
1.8817,0.3128,37.6200,39,97,305539
1.8671,0.3079,37.7100,39,97,305543
1.8817,0.3177,37.6200,39,97,305546
1.8622,0.3079,37.7400,39,97,305549
1.9013,0.3177,37.4600,39,97,305553
1.8817,0.3226,37.6500,39,97,305556
1.8817,0.3128,37.7100,39,97,305559
1.8915,0.3177,37.6800,39,97,305563
1.8866,0.3128,37.7100,39,97,305566
1.9355,0.3226,37.4000,39,97,305569
1.8866,0.3128,37.6500,39,97,305572
1.9257,0.3128,37.7100,39,97,305576
1.9013,0.3079,37.7400,39,97,305580
1.9013,0.3128,37.7700,39,97,305583
1.9599,0.3275,37.5600,39,97,305587
1.9306,0.3177,37.6800,39,97,305590
1.9257,0.3128,37.6500,39,97,305593
1.9257,0.3079,37.7400,39,97,305597
1.9306,0.3128,37.7400,39,97,305600
1.9648,0.3226,37.7100,39,97,305603
1.9355,0.3128,37.7400,39,97,305607
1.9453,0.3128,37.5900,39,97,305610
1.9208,0.3128,37.7100,39,97,305613
1.9306,0.3079,37.8300,39,97,305617
1.9550,0.3275,37.6200,39,97,305620
1.9159,0.3128,37.7100,39,97,305624
1.9257,0.3226,37.6200,39,97,305627
1.8866,0.3079,37.8700,39,97,305631
1.9062,0.3128,37.7400,39,97,305634
1.8915,0.3128,38.0200,39,97,305637
1.8817,0.3128,37.7700,39,97,305641
1.8915,0.3128,37.5300,39,97,305644
1.8573,0.3128,37.7100,39,97,305647
1.8622,0.3128,37.7100,39,97,305651
1.8817,0.3226,37.6500,39,97,305654
1.8768,0.3128,37.7100,39,97,305657
1.9013,0.3226,37.4900,39,97,305660
1.8719,0.3079,37.5900,39,97,305665
1.8573,0.3128,37.7100,39,97,305668
1.8622,0.3275,37.7100,39,97,305671
1.8475,0.3079,37.7700,39,97,305675
1.8915,0.3617,37.5600,39,97,305678
1.8475,0.3128,37.6200,39,97,305681
1.8426,0.3128,37.6800,39,97,305685
1.8377,0.3128,37.7100,39,97,305688
1.8231,0.3128,37.7400,39,97,305691
1.8671,0.3617,37.5600,39,97,305695
1.8328,0.3128,37.7700,39,97,305698
1.8377,0.3324,37.6200,39,97,305701
1.8182,0.3079,37.6800,39,97,305704
1.8084,0.3128,37.8000,39,97,305709
1.8133,0.3177,37.7100,39,97,305712
1.8133,0.3128,37.6800,39,97,305715
1.8084,0.3128,37.5300,39,97,305719
1.7840,0.3128,37.7100,39,97,305722
1.7791,0.3079,37.6500,39,97,305725
1.7986,0.3177,37.5900,39,97,305729
1.7595,0.3128,37.7700,39,97,305732
1.7644,0.3128,37.6500,39,97,305735
1.7449,0.3128,37.6200,39,97,305739
1.7449,0.3128,37.7400,39,97,305742
1.7644,0.3177,37.6200,39,97,305745
1.7449,0.3324,37.6500,39,97,305750
1.7791,0.3177,37.4600,39,97,305753
1.7546,0.3177,37.6500,39,97,305756
1.7449,0.3128,37.7400,39,97,305759
1.7449,0.3324,37.7100,39,97,305763
1.7351,0.3079,37.9000,39,97,305766
1.7840,0.3226,37.3400,39,97,305769
1.7400,0.3128,37.8000,39,97,305773
1.7351,0.3079,37.7700,39,97,305776
1.7400,0.3128,37.6800,39,97,305779
1.7302,0.3079,37.6800,39,97,305783
1.7937,0.3275,37.4900,39,97,305786
1.7840,0.3177,37.6200,39,97,305789
1.8182,0.3128,37.6800,39,97,305793
1.9062,0.3079,37.7400,39,97,305797
1.9941,0.3128,37.7100,39,97,305800
2.1065,0.3275,37.6200,39,97,305803
2.1310,0.3079,37.7400,39,97,305807
2.1359,0.3177,37.6200,39,97,305810
2.0528,0.3128,37.7400,39,97,305813
1.9501,0.3079,37.7700,39,97,305817
1.8524,0.3177,37.5900,39,97,305820
1.7009,0.3128,37.7100,39,97,305823
1.6227,0.3177,37.6200,39,97,305827
1.5200,0.3079,37.7100,39,97,305830
1.4809,0.3128,37.7400,39,97,305833
1.4956,0.3128,37.5900,39,97,305837
1.5103,0.3128,37.7700,39,97,305841
1.5249,0.3079,37.5900,39,97,305844
1.4712,0.3128,37.7700,39,97,305847
1.4076,0.3128,37.6200,39,97,305851
1.3490,0.3177,37.6800,39,97,305854
1.2903,0.3421,37.7400,39,97,305857
1.2805,0.3226,37.4300,39,97,305861
1.2512,0.3177,37.6200,39,97,305864
1.2659,0.3128,37.7100,39,97,305867
1.3294,0.3128,37.6800,39,97,305871
1.4027,0.3079,37.9600,39,97,305874
1.5347,0.3128,37.3700,39,97,305878
1.5934,0.3470,37.6500,39,97,305881
1.6813,0.2981,37.7700,39,97,305885
1.7595,0.3128,37.7700,39,97,305888
1.8328,0.3128,37.7400,39,97,305891
1.9550,0.3275,37.5300,39,97,305895
1.9599,0.3128,37.6800,39,97,305898
1.9941,0.3372,37.6200,39,97,305901
1.9990,0.3128,37.7400,39,97,305905
2.0381,0.3128,37.7700,39,97,305908
2.0430,0.3226,37.7400,39,97,305911
2.0186,0.3128,37.6500,39,97,305914
2.0283,0.3128,37.5900,39,97,305918
1.9941,0.3079,37.7400,39,97,305922
1.9844,0.3128,37.7400,39,97,305925
2.0235,0.3226,37.5600,39,97,305929
1.9941,0.3079,37.7400,39,97,305932
2.0235,0.3324,37.6800,39,97,305935
2.0039,0.3030,37.7100,39,97,305939
2.0088,0.3128,37.7400,39,97,305942
2.0332,0.3128,37.6200,39,97,305945
2.0039,0.3128,37.7400,39,97,305948
2.0137,0.3128,37.6500,39,97,305952
1.9795,0.3226,37.4600,39,97,305955
1.9355,0.3128,37.6800,39,97,305960
1.9453,0.3079,37.8300,39,97,305964
1.9746,0.3177,37.7400,39,97,305967
1.9404,0.3226,37.7100,39,97,305971
1.9892,0.3324,37.4600,39,97,305974
1.9404,0.3079,37.6500,39,97,305977
1.9062,0.2981,37.7100,39,97,305981
1.9110,0.3226,37.7400,39,97,305984
1.9062,0.3128,37.7700,39,97,305987
1.9453,0.3226,37.4900,39,97,305990
1.9110,0.3079,37.6800,39,97,305994
1.9110,0.3128,37.6500,39,97,305997
1.8964,0.3128,37.8000,39,97,306000
1.8964,0.3079,37.9300,39,97,306004
1.9208,0.3177,37.5900,39,97,306008
1.8817,0.3079,37.7400,39,97,306011
1.8915,0.3128,37.5900,39,97,306015
1.8622,0.3128,37.8000,39,97,306018
1.8671,0.3128,37.7400,39,97,306021
1.8719,0.3128,37.5900,39,97,306025
1.8671,0.3128,37.5900,39,97,306028
1.8866,0.3079,37.5900,39,97,306031
1.8622,0.3128,37.7700,39,97,306034
1.8671,0.3079,37.7100,39,97,306038
1.8915,0.3177,37.6200,39,97,306041
1.8524,0.3226,37.7100,39,97,306044
1.8671,0.3079,37.5300,39,97,306049
1.8231,0.3226,37.6200,39,97,306052
1.7937,0.3079,37.7400,39,97,306055
1.8084,0.3177,37.6800,39,97,306059
1.8035,0.3128,37.9000,39,97,306062
1.8768,0.3128,37.4600,39,97,306065
1.8622,0.3079,37.6200,39,97,306068
1.8622,0.3079,37.7400,39,97,306072
1.8768,0.3128,37.7100,39,97,306075
1.8768,0.3079,37.7400,39,97,306078
1.9404,0.3324,37.4600,39,97,306082
1.9159,0.3128,37.6800,39,97,306085
1.9257,0.3079,37.6200,39,97,306088
1.9355,0.3128,37.7100,39,97,306093
1.9404,0.3372,37.7400,39,97,306096
1.9892,0.3226,37.6200,39,97,306099
1.9697,0.3177,37.8000,39,97,306103
1.9844,0.3128,37.6500,39,97,306106
1.9990,0.3128,37.8000,39,97,306109
1.9795,0.3128,37.7700,39,97,306112
2.0186,0.3226,37.5600,39,97,306116
1.9892,0.3128,37.1300,39,97,306119
2.0088,0.3226,37.5900,39,97,306122
1.9795,0.3079,37.7700,39,97,306126
1.9746,0.3128,37.7100,39,97,306129
1.9892,0.3177,37.8000,39,97,306132
1.9648,0.3128,37.7100,39,97,306137
1.9795,0.3128,37.5600,39,97,306140
1.9550,0.3128,37.6800,39,97,306143
1.9257,0.3030,37.9900,39,97,306147
1.9208,0.3128,37.6500,39,97,306150
1.9013,0.3128,37.7100,39,97,306153
1.9208,0.3226,37.4600,39,97,306156
1.8817,0.3079,37.7700,39,97,306160
1.8817,0.3128,37.8000,39,97,306163
1.9013,0.3177,37.7100,39,97,306166
1.8719,0.3177,37.7100,39,97,306170
1.9159,0.3226,37.4300,39,97,306173
1.8719,0.3519,37.6200,39,97,306177
1.8622,0.3128,37.7100,39,97,306181
1.8671,0.3128,37.7100,39,97,306184
1.8622,0.3079,37.7400,39,97,306187
1.9208,0.3275,37.5300,39,97,306191
1.8915,0.3177,37.6800,39,97,306194
1.8622,0.3079,37.6500,39,97,306197
1.8573,0.3177,37.7700,39,97,306200
1.8573,0.3128,37.8300,39,97,306204
1.8866,0.3128,37.5600,39,97,306207
1.8524,0.3079,37.8300,39,97,306210
1.8622,0.3128,37.6200,39,97,306214
1.8426,0.3079,37.7400,39,97,306217
1.8377,0.3128,37.7400,39,97,306221
1.8524,0.3177,37.7100,39,97,306225
1.8328,0.3226,37.7100,39,97,306228
1.8475,0.3226,37.8300,39,97,306231
1.8035,0.3128,37.7700,39,97,306235
1.7986,0.3275,37.8000,39,97,306238
1.8133,0.3177,37.6200,39,97,306241
1.7889,0.3128,37.7700,39,97,306244
1.8084,0.3128,37.4600,39,97,306248
1.7840,0.3128,37.6200,39,97,306251
1.7742,0.3079,37.9000,39,97,306254
1.7840,0.3177,37.6200,39,97,306258
1.7546,0.3079,37.7700,39,97,306262
1.8231,0.3275,37.4300,39,97,306265
1.7644,0.3128,37.6200,39,97,306269
1.7546,0.3128,37.7400,39,97,306272
1.7546,0.3128,37.7100,39,97,306275
1.7498,0.3128,37.7400,39,97,306279
1.7937,0.3275,37.4000,39,97,306282
1.7400,0.3128,37.6800,39,97,306285
1.7302,0.3079,37.6500,39,97,306288
1.7595,0.3177,37.7400,39,97,306292
1.7204,0.3177,37.7400,39,97,306295
1.7546,0.3275,37.5600,39,97,306298
1.7155,0.3128,37.6500,39,97,306302
1.7204,0.3128,37.6200,39,97,306306
1.7107,0.3128,37.7400,39,97,306309
1.7058,0.3079,37.8300,39,97,306313
1.7498,0.3324,37.5300,39,97,306316
1.7351,0.3177,37.7400,39,97,306319
1.7595,0.3177,37.5900,39,97,306323
1.7449,0.3030,37.7100,39,97,306326
1.7498,0.3128,37.7400,39,97,306329
1.7791,0.3226,37.5900,39,97,306332
1.7693,0.3128,37.7400,39,97,306336
1.8084,0.3128,37.5900,39,97,306339
1.8133,0.3128,37.6800,39,97,306342
1.8231,0.3128,37.7400,39,97,306347
1.8524,0.3177,37.6800,39,97,306350
1.8671,0.3079,37.7400,39,97,306353
1.9159,0.3177,37.5600,39,97,306357
1.9013,0.3128,37.7700,39,97,306360
1.9208,0.3079,37.7100,39,97,306363
1.9453,0.3177,37.6500,39,97,306366
1.9306,0.3079,37.7100,39,97,306370
1.9795,0.3324,37.4300,39,97,306373
1.9501,0.3177,37.5300,39,97,306376
1.9355,0.3177,37.7400,39,97,306380
1.9453,0.3128,37.7400,39,97,306383
1.9404,0.3128,37.7100,39,97,306386
1.9941,0.3324,37.5300,39,97,306391
1.9501,0.3177,37.4900,39,97,306394
1.9599,0.3177,37.6500,39,97,306397
1.9306,0.3079,37.7100,39,97,306401
1.9306,0.3128,37.7400,39,97,306404
1.9697,0.3226,37.5300,39,97,306407
1.9355,0.3128,37.7400,39,97,306411
1.9404,0.3079,37.7400,39,97,306414
1.9208,0.3128,37.7100,39,97,306417
1.9110,0.3079,37.8700,39,97,306420
1.9355,0.3226,37.6800,39,97,306424
1.9110,0.3079,37.8000,39,97,306427
1.9257,0.3177,37.8300,39,97,306430
1.9013,0.3128,37.7400,39,97,306435
1.9062,0.3226,37.7100,39,97,306438
1.9355,0.3226,37.6200,39,97,306441
1.9159,0.3128,37.7400,39,97,306445
1.9306,0.3128,37.5300,39,97,306448
1.9110,0.3128,37.6800,39,97,306451
1.8866,0.3128,37.8000,39,97,306454
1.8964,0.3177,37.6200,39,97,306458
1.8719,0.3079,37.7400,39,97,306461
1.9062,0.3177,37.4600,39,97,306464
1.8719,0.3177,37.6800,39,97,306468
1.8719,0.3128,37.7400,39,97,306471
1.8622,0.3128,37.7400,39,97,306475
1.8524,0.3128,37.7700,39,97,306479
1.8915,0.3226,37.3400,39,97,306482
1.8475,0.3128,37.7400,39,97,306485
1.8426,0.3128,37.7400,39,97,306489
1.8377,0.3128,37.7100,39,97,306492
1.8573,0.3128,37.7100,39,97,306495
1.8768,0.3275,37.4900,39,97,306498
1.8377,0.3226,37.6800,39,97,306502
1.8328,0.3079,37.5900,39,97,306505
1.8280,0.3128,37.7400,39,97,306508
1.8182,0.3128,37.7400,39,97,306512
1.8475,0.3226,37.5600,39,97,306515
1.8035,0.3226,37.7700,39,97,306519
1.8084,0.3079,37.6500,39,97,306523
1.7840,0.3128,37.7400,39,97,306526
1.7742,0.3128,37.7400,39,97,306529
1.7937,0.3177,37.6800,39,97,306533
1.7644,0.3128,37.7400,39,97,306536
1.7840,0.3666,37.6200,39,97,306539
1.7644,0.3128,37.7100,39,97,306542
1.7937,0.3128,37.7400,39,97,306546
1.8426,0.3079,37.8000,39,97,306549
1.9062,0.3128,37.7400,39,97,306552
2.0186,0.3177,37.5300,39,97,306556
2.0723,0.3128,37.7400,39,97,306560
2.1261,0.3128,37.9300,39,97,306563
2.1652,0.3177,37.6500,39,97,306567
1.6276,0.3372,37.7100,39,97,306571
1.5640,0.3128,37.7700,39,97,306575
1.5787,0.3275,37.4900,39,97,306578
1.5396,0.3177,37.6800,39,97,306581
1.5494,0.3324,37.6200,39,97,306585
1.5396,0.3128,37.7100,39,97,306588
1.5152,0.3128,37.7700,39,97,306591
1.4907,0.3226,37.6800,39,97,306594
1.3978,0.3128,37.7400,39,97,306598
1.3441,0.3128,37.5900,39,97,306601
1.2757,0.3128,37.7700,39,97,306605
1.2512,0.3079,37.8000,39,97,306609
1.2805,0.3128,37.6800,39,97,306612
1.3050,0.3079,37.7400,39,97,306615
1.3881,0.3226,37.6500,39,97,306619
1.4516,0.3128,37.8300,39,97,306622
1.5347,0.3128,37.7400,39,97,306625
1.6520,0.3177,37.9300,39,97,306629
1.7155,0.3128,37.7100,39,97,306632
1.8084,0.3177,37.5600,39,97,306635
1.8475,0.3128,37.6500,39,97,306638
1.8817,0.3079,37.7100,39,97,306642
1.9306,0.3226,37.9000,39,97,306646
1.9306,0.3079,37.7400,39,97,306649
1.9844,0.3226,37.4900,39,97,306653
1.9599,0.3226,37.6500,39,97,306656
1.9501,0.3128,37.7700,39,97,306659
1.9550,0.3275,37.7100,39,97,306663
1.9501,0.3128,37.7400,39,97,306666
2.0039,0.3372,37.4300,39,97,306669
1.9501,0.3128,37.6800,39,97,306673
1.9404,0.3079,37.6800,39,97,306676
1.9404,0.3128,37.7100,39,97,306679
1.9355,0.3128,37.7400,39,97,306682
1.9892,0.3079,37.5600,39,97,306686
1.9501,0.3324,37.6800,39,97,306690
1.9501,0.3128,37.6500,39,97,306693
1.9355,0.3128,37.7100,39,97,306697
1.9208,0.3079,37.7700,39,97,306700
1.9453,0.3275,37.5600,39,97,306703
1.9013,0.3079,37.6800,39,97,306707
1.9404,0.3177,37.5900,39,97,306710
1.8915,0.3128,37.7400,39,97,306713
1.8915,0.3128,37.8000,39,97,306716
1.9159,0.3079,37.6200,39,97,306720
1.8915,0.3079,37.7400,39,97,306723
1.9013,0.3177,37.6200,39,97,306726
1.8671,0.3079,37.9300,39,97,306731
1.8622,0.3128,37.7100,39,97,306734
1.8622,0.3128,37.6500,39,97,306737
1.8426,0.3128,37.7700,39,97,306741
1.8671,0.3226,37.5300,39,97,306744
1.8328,0.3079,37.8000,39,97,306747
1.8719,0.3128,37.6800,39,97,306751
1.8524,0.3079,37.8300,39,97,306754
1.8426,0.3128,37.7400,39,97,306757
1.8622,0.3226,37.4300,39,97,306760
1.8328,0.3177,37.6200,39,97,306764
1.8182,0.3079,37.9000,39,97,306767
1.8328,0.3177,37.7100,39,97,306770
1.8231,0.3079,37.7100,39,97,306775
1.9062,0.3324,37.4300,39,97,306778
1.8328,0.3177,37.6200,39,97,306781
1.8133,0.3079,37.7100,39,97,306785
1.8133,0.3177,37.7700,39,97,306788
1.8133,0.3128,37.9300,39,97,306791
1.8524,0.3177,37.5600,39,97,306795
1.7986,0.3128,37.7100,39,97,306798
1.7889,0.3128,37.6200,39,97,306801
1.7693,0.3128,37.6800,39,97,306804
1.7595,0.3128,37.7400,39,97,306808
1.7742,0.3128,37.6800,39,97,306811
1.7595,0.3128,37.7100,39,97,306814
1.7791,0.3226,37.5600,39,97,306819
1.7644,0.3128,37.7400,39,97,306822
1.7742,0.3128,37.7400,39,97,306825
1.8084,0.3226,37.6200,39,97,306829
1.7937,0.3128,37.8300,39,97,306832
1.8231,0.3617,37.5600,39,97,306835
1.8182,0.3079,37.6200,39,97,306839
1.8280,0.3128,37.7100,39,97,306842
1.8671,0.3275,37.6200,39,97,306845
1.8622,0.3128,37.7400,39,97,306848
1.9110,0.3177,37.5900,39,97,306852
1.8964,0.3177,37.6800,39,97,306855
1.9062,0.3128,37.7700,39,97,306859
1.9306,0.3226,37.7100,39,97,306863
1.9404,0.3079,37.2800,39,97,306866
2.0039,0.3275,37.4000,39,97,306869
1.9648,0.3079,37.8300,39,97,306873
1.9990,0.3128,37.8700,39,97,306876
1.9795,0.3079,37.7100,39,97,306879
1.9844,0.3128,37.7100,39,97,306883
2.0235,0.3324,37.4300,39,97,306886
1.9844,0.3226,37.6500,39,97,306889
1.9697,0.3079,37.7400,39,97,306892
1.9550,0.3128,37.7400,39,97,306896
1.9599,0.3079,37.7700,39,97,306899
1.9990,0.3275,37.5600,39,97,306903
1.9697,0.3372,37.7400,39,97,306907
1.9844,0.3128,37.5900,39,97,306910
1.9599,0.3128,37.7400,39,97,306913
1.9550,0.3128,37.7400,39,97,306917
1.9795,0.3324,37.6200,39,97,306920
1.9501,0.3128,37.7400,39,97,306923
1.9746,0.3226,37.6200,39,97,306927
1.9404,0.3079,37.7400,39,97,306930
1.9355,0.3128,37.7400,39,97,306933
1.9404,0.3177,37.6800,39,97,306936
1.9257,0.3421,37.8000,39,97,306940
1.9453,0.3177,37.5300,39,97,306944
1.9159,0.3226,37.7700,39,97,306947
1.9208,0.3128,37.7700,39,97,306951
1.9453,0.3324,37.5900,39,97,306954
1.9062,0.3177,37.7400,39,97,306957
1.9404,0.3177,37.4600,39,97,306961
1.9062,0.3177,37.5900,39,97,306964
1.8768,0.3128,37.7100,39,97,306967
1.8817,0.3128,37.6800,39,97,306971
1.8671,0.3128,37.7400,39,97,306974
1.9110,0.3324,37.4300,39,97,306977
1.8671,0.3177,37.5300,39,97,306980
1.8768,0.3128,37.7100,39,97,306984
1.8524,0.3177,37.6500,39,97,306988
1.8426,0.3128,37.7700,39,97,306991
1.8768,0.3275,37.5900,39,97,306995
1.8280,0.3128,37.7400,39,97,306998
1.8231,0.3128,37.6500,39,97,307001
1.8035,0.3128,37.7100,39,97,307005
1.8280,0.3128,37.7400,39,97,307008
1.8182,0.3177,37.9000,39,97,307011
1.7986,0.3177,37.6800,39,97,307015
1.8035,0.3079,37.5600,39,97,307018
1.7742,0.3128,37.7400,39,97,307021
1.7644,0.3128,37.9000,39,97,307024
1.8035,0.3177,37.5600,39,97,307028
1.7595,0.3128,37.8000,39,97,307032
1.7791,0.3128,37.5600,39,97,307035
1.7498,0.3128,37.6500,39,97,307039
1.7546,0.3128,37.7400,39,97,307042
1.7644,0.3275,37.5600,39,97,307045
1.7449,0.3128,37.7700,39,97,307049
1.7742,0.3421,37.5600,39,97,307052
1.7400,0.3128,37.6800,39,97,307055
1.7155,0.3372,37.7400,39,97,307059
1.7155,0.3177,37.9900,39,97,307062
1.6960,0.3128,37.7400,39,97,307065
1.7351,0.3226,37.4300,39,97,307068
1.6960,0.3128,37.7100,39,97,307073
1.6960,0.3079,37.7400,39,97,307076
1.7107,0.3128,37.7100,39,97,307079
1.7058,0.3226,37.7400,39,97,307083
1.7644,0.3275,37.5300,39,97,307086
1.7253,0.3226,37.6500,39,97,307089
1.7253,0.3128,37.6500,39,97,307093
1.7302,0.3128,37.7400,39,97,307096
1.7498,0.3079,37.7700,39,97,307099
1.8133,0.3177,37.5600,39,97,307103
1.7986,0.3177,37.7100,39,97,307106
1.8328,0.3128,37.6200,39,97,307109
1.8328,0.3128,37.8000,39,97,307112
1.8475,0.3128,37.7700,39,97,307117
1.8915,0.3372,37.5900,39,97,307120
1.8817,0.3128,37.7400,39,97,307123
1.9257,0.3177,37.6200,39,97,307127
1.9110,0.3079,37.8000,39,97,307130
1.9501,0.3177,37.7400,39,97,307133
1.9208,0.3177,37.7100,39,97,307137
1.9208,0.3128,37.7100,39,97,307140
1.9306,0.3177,37.6500,39,97,307143
1.8964,0.3128,37.7700,39,97,307147
1.9013,0.3079,37.7400,39,97,307150
1.9208,0.3177,37.7100,39,97,307153
1.8915,0.3128,37.7400,39,97,307156
1.9404,0.3079,37.5300,39,97,307161
1.9159,0.3226,37.6200,39,97,307164
1.8915,0.3128,37.7700,39,97,307167
1.9159,0.3177,37.6800,39,97,307171
1.8915,0.3079,37.8700,39,97,307174
1.9550,0.3324,37.4300,39,97,307177
1.9013,0.3226,37.5600,39,97,307182
1.8817,0.3128,37.7700,39,97,307185
1.8964,0.3177,37.5900,39,97,307189
1.8768,0.3128,37.7400,39,97,307192
1.8866,0.3128,37.7400,39,97,307195
1.9013,0.3128,36.8800,39,97,307200
1.9062,0.3128,37.7400,39,97,307203
1.9062,0.3226,38.0800,39,97,307206
1.8719,0.3128,37.7100,39,97,307210
1.8622,0.3128,37.7100,39,97,307213
1.8768,0.3226,37.6500,39,97,307216
1.8475,0.3128,37.7400,39,97,307219
1.8719,0.3177,37.5300,39,97,307223
1.8524,0.3128,37.5900,39,97,307226
1.8377,0.3128,37.7700,39,97,307229
1.8573,0.3177,37.6800,39,97,307233
1.8231,0.3128,37.7400,39,97,307236
1.8573,0.3324,37.4300,39,97,307239
1.8133,0.3128,37.5900,39,97,307244
1.7937,0.3128,37.7700,39,97,307247
1.7986,0.3226,37.8300,39,97,307250
1.8035,0.3128,37.7400,39,97,307254
1.8768,0.3324,37.4300,39,97,307257
1.8768,0.3128,37.6800,39,97,307260
1.9453,0.3079,37.6800,39,97,307263
2.0479,0.3128,37.7100,39,97,307267
2.1261,0.3128,37.7100,39,97,307270
2.2483,0.3275,37.5900,39,97,307273
2.2532,0.3177,37.6500,39,97,307277
2.2141,0.3128,37.6200,39,97,307280
2.1114,0.3177,37.7700,39,97,307283
1.9599,0.3079,37.7700,39,97,307288
1.8377,0.3421,37.5300,39,97,307291
1.6764,0.3079,37.9000,39,97,307294
1.5787,0.3177,37.6200,39,97,307297
1.4858,0.3128,37.7400,39,97,307301
1.4370,0.3079,37.7100,39,97,307304
1.4467,0.3177,37.6500,39,97,307307
1.4174,0.3470,37.7100,39,97,307311
1.4272,0.3128,37.6200,39,97,307314
1.3636,0.3421,37.7400,39,97,307317
1.3099,0.3079,37.8300,39,97,307321
1.2463,0.3079,37.6800,39,97,307324
1.1730,0.3128,37.7100,39,97,307328
1.1437,0.3177,37.6500,39,97,307332
1.0997,0.3128,37.7400,39,97,307335
1.1144,0.3079,37.7400,39,97,307338
1.1730,0.3177,37.6500,39,97,307341
1.2463,0.3226,37.7700,39,97,307345
1.3881,0.3226,37.4600,39,97,307348
1.4809,0.3177,37.6500,39,97,307351
1.5885,0.3128,37.7700,39,97,307355
1.7058,0.3226,37.7100,39,97,307358
1.7986,0.3128,37.7700,39,97,307361
1.9306,0.3275,37.4900,39,97,307365
1.9501,0.3079,37.5900,39,97,307368
1.9746,0.3128,37.6500,39,97,307372
1.9941,0.3128,37.7400,39,97,307375
2.0137,0.3128,37.6800,39,97,307379
2.1017,0.3177,37.5600,39,97,307382
2.0283,0.3177,37.7100,39,97,307385
2.0430,0.3128,37.6500,39,97,307389
2.0235,0.3128,37.7100,39,97,307392
2.0137,0.3372,37.7400,39,97,307395
2.0381,0.3226,37.6500,39,97,307399
2.0137,0.3128,37.7100,39,97,307402
2.0283,0.3128,37.5900,39,97,307405
2.0039,0.3079,37.8700,39,97,307408
1.9990,0.3519,37.7400,39,97,307412
2.0332,0.3226,37.5600,39,97,307416
1.9990,0.3372,37.7100,39,97,307419
2.0235,0.3226,37.6200,39,97,307423
1.9844,0.3079,37.7100,39,97,307426
1.9844,0.3128,37.7700,39,97,307429
1.9941,0.3226,37.6200,39,97,307433
1.9648,0.3079,37.7400,39,97,307436
1.9844,0.3177,37.5300,39,97,307439
1.9550,0.3128,37.6800,39,97,307442
1.9355,0.3128,37.7100,39,97,307446
1.9453,0.3177,37.6800,39,97,307449
1.9306,0.3177,37.9000,39,97,307452
1.9697,0.3226,37.4600,39,97,307457
1.9208,0.3079,37.6800,39,97,307460
1.9159,0.3128,37.7100,39,97,307463
1.9110,0.3177,37.7100,39,97,307467
1.9110,0.3128,37.7400,39,97,307470
1.9648,0.3275,37.4300,39,97,307473
1.9306,0.3177,37.6500,39,97,307477
1.9208,0.3079,37.9000,39,97,307480
1.9257,0.3128,37.7100,39,97,307483
1.9159,0.3128,37.8000,39,97,307486
1.9795,0.3372,37.5600,39,97,307490
1.9159,0.3226,37.7100,39,97,307493
1.9062,0.3128,37.6200,39,97,307496
1.8768,0.3079,37.7700,39,97,307501
1.8671,0.3128,37.7400,39,97,307504
1.8866,0.3226,37.5900,39,97,307507
1.8573,0.3128,37.7700,39,97,307511
1.8817,0.3079,37.6200,39,97,307514
1.9062,0.3128,37.7700,39,97,307517
1.8719,0.3128,37.7100,39,97,307520
1.8768,0.3177,37.6800,39,97,307524
1.8622,0.3079,37.8300,39,97,307527
1.8817,0.3177,37.6500,39,97,307530
1.8475,0.3177,37.7400,39,97,307534
1.8475,0.3128,37.7700,39,97,307537
1.8671,0.3226,37.6500,39,97,307540
1.8328,0.3128,37.3400,39,97,307545
1.8573,0.3275,37.5600,39,97,307548
1.8377,0.3177,37.6200,39,97,307551
1.8328,0.3177,37.7700,39,97,307555
1.8426,0.3275,37.6500,39,97,307558
1.8231,0.3128,37.7400,39,97,307561
1.8719,0.3226,37.4600,39,97,307564
1.8426,0.3128,37.6500,39,97,307568
1.8524,0.3079,37.7100,39,97,307571
1.8671,0.3128,37.7400,39,97,307574
1.8768,0.3128,37.7700,39,97,307578
1.9550,0.3372,37.4600,39,97,307581
1.8964,0.3128,37.7100,39,97,307585
1.9110,0.3128,37.6800,39,97,307589
1.9208,0.3128,37.5600,39,97,307592
1.9355,0.3128,37.7700,39,97,307595
1.9941,0.3275,37.5900,39,97,307599
1.9648,0.3177,37.7100,39,97,307602
1.9746,0.3128,37.7100,39,97,307605
1.9697,0.3128,37.7100,39,97,307608
1.9746,0.3372,37.7400,39,97,307612
2.0137,0.3226,37.5600,39,97,307615
1.9795,0.3177,37.7100,39,97,307618
1.9892,0.3079,37.5900,39,97,307622
1.9599,0.3226,37.7400,39,97,307625
1.9550,0.3128,37.7700,39,97,307629
1.9990,0.3177,37.5900,39,97,307633
1.9404,0.3128,37.7100,39,97,307636
1.9648,0.3128,37.6200,39,97,307639
1.9355,0.3128,37.7100,39,97,307642
1.9208,0.3128,37.7400,39,97,307646
1.9208,0.3177,37.6500,39,97,307649
1.9062,0.3079,37.8300,39,97,307652
1.9306,0.3226,37.4900,39,97,307656
1.8964,0.3128,37.8300,39,97,307659
1.8915,0.3128,37.7400,39,97,307662
1.9110,0.3226,37.6500,39,97,307666
1.8817,0.3128,37.7700,39,97,307670
1.9306,0.3177,37.4300,39,97,307673
1.9110,0.3177,37.5900,39,97,307677
1.8866,0.3079,37.7400,39,97,307680
1.8866,0.3079,37.6800,39,97,307683
1.8671,0.3079,37.7400,39,97,307686
1.9404,0.3324,37.4600,39,97,307690
1.8719,0.3275,37.6200,39,97,307693
1.8622,0.3128,37.6800,39,97,307696
1.8524,0.3177,37.7100,39,97,307700
1.8328,0.3128,37.7400,39,97,307703
1.8671,0.3812,37.5600,39,97,307706
1.8231,0.3079,37.3400,39,97,307710
1.8328,0.3128,37.6200,39,97,307714
1.8182,0.3128,37.7700,39,97,307717
1.8133,0.3128,37.7400,39,97,307721
1.8280,0.3372,37.6500,39,97,307724
1.8133,0.3177,37.7100,39,97,307727
1.8328,0.3275,37.5600,39,97,307730
1.8035,0.3079,37.6500,39,97,307734
1.8035,0.3128,37.8000,39,97,307737
1.8231,0.3226,37.6200,39,97,307740
1.7742,0.3128,37.7400,39,97,307744
1.7840,0.3128,37.6800,39,97,307747
1.7546,0.3128,37.6500,39,97,307750
1.7546,0.3128,37.7700,39,97,307755
1.7791,0.3177,37.6200,39,97,307758
1.7546,0.3128,37.9000,39,97,307761
1.7889,0.3226,37.4900,39,97,307765
1.7546,0.3226,37.6500,39,97,307768
1.7351,0.3128,37.7400,39,97,307771
1.7351,0.3177,37.5900,39,97,307774
1.7302,0.3128,37.7400,39,97,307778
1.7693,0.3226,36.8800,39,97,307781
1.7253,0.3079,37.6800,39,97,307784
1.7253,0.3128,37.7400,39,97,307788
1.7302,0.3177,37.6800,39,97,307791
1.7204,0.3128,37.7100,39,97,307796
1.7155,0.3079,37.8300,39,97,307800
1.7351,0.3275,37.5300,39,97,307803
1.7058,0.3226,37.7400,39,97,307807
1.7302,0.3177,37.5900,39,97,307810
1.6960,0.3128,37.7100,39,97,307813
1.7155,0.3128,37.7400,39,97,307817
1.7595,0.3226,37.5900,39,97,307820
1.7253,0.3128,37.7400,39,97,307823
1.7595,0.3030,37.5300,39,97,307826
1.7400,0.3128,37.6800,39,97,307830
1.7400,0.3128,37.7700,39,97,307833
1.7498,0.3128,37.6800,39,97,307836
1.7595,0.3128,37.7700,39,97,307841
1.8133,0.3177,37.4600,39,97,307844
1.7986,0.3128,37.7400,39,97,307847
1.8182,0.3128,37.7700,39,97,307851
1.8475,0.3275,37.6800,39,97,307854
1.8475,0.3128,37.7100,39,97,307857
1.9257,0.3324,37.3700,39,97,307861
1.8915,0.3177,37.6200,39,97,307864
1.8866,0.3128,37.7400,39,97,307867
1.9062,0.3226,37.6800,39,97,307870
1.9062,0.3128,37.7400,39,97,307874
1.9746,0.3666,37.4900,39,97,307877
1.9404,0.3177,37.7400,39,97,307880
1.9355,0.3030,37.6200,39,97,307885
1.9257,0.3128,37.7400,39,97,307888
1.9159,0.3470,37.7400,39,97,307891
1.9404,0.3226,37.5900,39,97,307895
1.9159,0.3128,37.7400,39,97,307898
1.9306,0.3177,37.5900,39,97,307901
1.9110,0.3128,37.7100,39,97,307905
1.9159,0.3079,37.8300,39,97,307908
1.9257,0.3372,37.6800,39,97,307911
1.9159,0.3128,37.7100,39,97,307914
1.9404,0.3226,37.5900,39,97,307918
1.9110,0.3128,37.7100,39,97,307921
1.9159,0.3519,37.7400,39,97,307924
1.9355,0.3226,37.5900,39,97,307929
1.9013,0.3128,37.7400,39,97,307932
1.9208,0.3128,37.4900,39,97,307935
1.9062,0.3128,37.6200,39,97,307939
1.8866,0.3128,37.8000,39,97,307942
1.9013,0.3226,37.6800,39,97,307945
1.8866,0.3079,37.8000,39,97,307948
1.9306,0.3519,37.4600,39,97,307952
1.8964,0.3177,37.6500,39,97,307955
1.8768,0.3177,37.8000,39,97,307958
1.8817,0.3177,37.6800,39,97,307962
1.8719,0.3128,37.7700,39,97,307965
1.9257,0.3226,37.4300,39,97,307969
1.8671,0.3177,37.6800,39,97,307973
1.8719,0.3128,37.7400,39,97,307976
1.8768,0.3177,37.7400,39,97,307979
1.8671,0.3324,37.7400,39,97,307983
1.9208,0.3275,37.6500,39,97,307986
1.8817,0.3275,37.6500,39,97,307989
1.8671,0.3128,37.6500,39,97,307992
1.8377,0.3177,37.7400,39,97,307996
1.8182,0.3128,37.8300,39,97,307999
1.8524,0.3177,37.5900,39,97,308002
1.8084,0.3421,37.6800,39,97,308006
1.8280,0.3177,37.6200,39,97,308009
1.7986,0.3079,37.6800,39,97,308013
1.8035,0.3128,37.7700,39,97,308017
1.8231,0.3226,37.9600,39,97,308020
1.8084,0.3177,37.7700,39,97,308023
1.8182,0.3079,37.5900,39,97,308027
1.7840,0.3030,37.8000,39,97,308030
1.7791,0.3128,37.7400,39,97,308033
1.7889,0.3177,37.6200,39,97,308036
1.7840,0.3128,37.7400,39,97,308040
1.7986,0.3079,37.6800,39,97,308043
1.7742,0.3128,37.7400,39,97,308046
1.7742,0.3128,37.9000,39,97,308050
1.8524,0.3226,37.6500,39,97,308054
1.8426,0.3275,37.8000,39,97,308057
1.9648,0.3226,37.4600,39,97,308061
2.0283,0.3177,37.6200,39,97,308064
2.1163,0.3128,37.7700,39,97,308067
2.1848,0.3421,37.6500,39,97,308070
2.1896,0.3128,37.7400,39,97,308074
2.1945,0.3275,37.4300,39,97,308077
2.0528,0.3177,37.5900,39,97,308080
1.9159,0.3079,37.7400,39,97,308084
1.7986,0.3128,37.7400,39,97,308087
1.7009,0.3079,37.7700,39,97,308090
1.6813,0.3568,37.5600,39,97,308094
1.6031,0.3079,37.5300,39,97,308098
1.6031,0.3226,37.6800,39,97,308101
1.6129,0.3128,37.7700,39,97,308104
1.6520,0.3128,37.7100,39,97,308108
1.6080,0.3226,37.6500,39,97,308111
1.5347,0.3226,37.6800,39,97,308114
1.4663,0.3177,37.7100,39,97,308118
1.3734,0.3128,37.7400,39,97,308121
1.3196,0.3128,37.7400,39,97,308124
1.3099,0.3226,37.5900,39,97,308128
1.2952,0.3372,37.7400,39,97,308131
1.3539,0.3177,37.5900,39,97,308134
1.3930,0.3324,37.7400,39,97,308139
1.4761,0.3128,37.7700,39,97,308142
1.6178,0.3226,37.6200,39,97,308145
1.6569,0.3079,37.7100,39,97,308148
1.7693,0.3519,37.5600,39,97,308152
1.8182,0.3128,37.6200,39,97,308155
1.8719,0.3177,37.7400,39,97,308158
1.9306,0.3177,37.6800,39,97,308162
1.9501,0.3128,37.5900,39,97,308165
2.0137,0.3226,37.4300,39,97,308168
1.9746,0.3128,37.6800,39,97,308172
1.9746,0.3128,37.7700,39,97,308175
1.9990,0.3177,37.6800,39,97,308178
1.9892,0.3177,37.7400,39,97,308183
2.0479,0.3421,37.4600,39,97,308186
1.9990,0.3177,37.7100,39,97,308189
1.9844,0.3079,37.6800,39,97,308192
1.9892,0.3128,37.7400,39,97,308196
1.9892,0.3079,37.7400,39,97,308199
2.0381,0.3226,37.5600,39,97,308202
2.0039,0.3177,37.6800,39,97,308206
2.0137,0.3128,37.6200,39,97,308209
1.9697,0.3128,37.5900,39,97,308212
1.9599,0.3128,37.7400,39,97,308216
1.9795,0.3226,37.5300,39,97,308219
1.9404,0.3177,37.7100,39,97,308222
1.9599,0.3177,37.6500,39,97,308226
1.9257,0.3128,37.7100,39,97,308230
1.9208,0.3226,37.7400,39,97,308233
1.9306,0.3177,37.6500,39,97,308236
1.9110,0.3079,37.7100,39,97,308240
1.9355,0.3177,37.6500,39,97,308243
1.8964,0.3128,37.7700,39,97,308246
1.8866,0.3079,37.7700,39,97,308250
1.8964,0.3226,37.6800,39,97,308253
1.8768,0.3128,37.7700,39,97,308256
1.8964,0.3177,37.4600,39,97,308260
1.8817,0.3128,37.5900,39,97,308263
1.8671,0.3128,37.7400,39,97,308267
1.8866,0.3226,37.7100,39,97,308270
1.8671,0.3128,37.7700,39,97,308274
1.9062,0.3226,37.4900,39,97,308277
1.8573,0.3079,37.7400,39,97,308280
1.8475,0.3177,37.7400,39,97,308284
1.8524,0.3079,37.8700,39,97,308287
1.8426,0.3177,37.8000,39,97,308290
1.8915,0.3324,37.4900,39,97,308294
1.8426,0.3128,37.7100,39,97,308297
1.8426,0.3079,37.6500,39,97,308300
1.8426,0.3226,37.7100,39,97,308304
1.8426,0.3079,37.7100,39,97,308307
1.8768,0.3324,37.6200,39,97,308311
1.8328,0.3177,37.7100,39,97,308314
1.8377,0.3177,37.5900,39,97,308318
1.8035,0.3079,37.7400,39,97,308321
1.7986,0.3128,37.9300,39,97,308324
1.8231,0.3226,37.5600,39,97,308328
1.7937,0.3177,37.6500,39,97,308331
1.8133,0.3177,37.5900,39,97,308334
1.7986,0.3079,37.7100,39,97,308338
1.8084,0.3324,37.7700,39,97,308341
1.8377,0.3177,37.6200,39,97,308344
1.8377,0.3128,37.7100,39,97,308348
1.8524,0.3079,37.5600,39,97,308352
1.8328,0.3128,37.6500,39,97,308355
1.8426,0.3128,37.7100,39,97,308358
1.8622,0.3177,37.7100,39,97,308362
1.8768,0.3128,37.6800,39,97,308365
1.9355,0.3226,37.4600,39,97,308368
1.9159,0.3568,37.7400,39,97,308372
1.9404,0.3128,37.7400,39,97,308375
1.9697,0.3226,37.6800,39,97,308378
1.9697,0.3128,37.9600,39,97,308382
2.0430,0.3226,37.4000,39,97,308385
2.0039,0.3177,37.6500,39,97,308388
1.9892,0.3079,37.7400,39,97,308392
1.9990,0.3177,37.7100,39,97,308396
1.9892,0.3177,37.7100,39,97,308399
2.0479,0.3275,37.5300,39,97,308402
2.0088,0.3177,37.5900,39,97,308407
1.9844,0.3079,37.7100,39,97,308410
2.0088,0.3177,37.5600,39,97,308414
1.9746,0.3128,37.7400,39,97,308417
1.9648,0.3226,37.7400,39,97,308420
1.9746,0.3177,37.6800,39,97,308424
1.9599,0.3128,37.7100,39,97,308427
1.9795,0.3128,37.5600,39,97,308430
1.9501,0.3128,37.7400,39,97,308434
1.9404,0.3128,37.7400,39,97,308438
1.9599,0.3226,37.6500,39,97,308441
1.9257,0.3226,37.7400,39,97,308445
1.9599,0.3226,37.4600,39,97,308448
1.9355,0.3177,37.6200,39,97,308451
1.9208,0.3128,37.7700,39,97,308454
1.9306,0.3128,37.6500,39,97,308458
1.9013,0.3079,37.7400,39,97,308461
1.9453,0.3324,37.4000,39,97,308464
1.8964,0.3177,37.6500,39,97,308468
1.8964,0.3128,37.7100,39,97,308471
1.8817,0.3079,37.8700,39,97,308474
1.8719,0.3177,37.7100,39,97,308478
1.9208,0.3324,37.5900,39,97,308482
1.8671,0.3128,37.7100,39,97,308485
1.8719,0.3128,37.5900,39,97,308489
1.8671,0.3128,37.7100,39,97,308492
1.8622,0.3177,37.7400,39,97,308495
1.8768,0.3226,37.6200,39,97,308498
1.8475,0.3470,37.7100,39,97,308502
1.8475,0.3177,37.6200,39,97,308505
1.8133,0.3177,37.7100,39,97,308508
1.8133,0.3128,37.9600,39,97,308512
1.8475,0.3177,37.5600,39,97,308515
1.8035,0.3421,37.7100,39,97,308518
1.8280,0.3177,37.6200,39,97,308523
1.7889,0.3324,37.6800,39,97,308526
1.7840,0.3128,37.7400,39,97,308529
1.7986,0.3177,37.6200,39,97,308533
1.7742,0.3079,37.7400,39,97,308536
1.7937,0.3226,37.4900,39,97,308539
1.7644,0.3128,37.6500,39,97,308542
1.7498,0.3128,37.7700,39,97,308546
1.7546,0.3177,37.6800,39,97,308549
1.7400,0.3128,37.7400,39,97,308552
1.7693,0.3177,37.4300,39,97,308556
1.7107,0.3030,37.7100,39,97,308559
1.7058,0.3128,37.7400,39,97,308562
1.7107,0.3226,37.6800,39,97,308567
1.6960,0.3128,37.8000,39,97,308570
1.7498,0.3324,37.4300,39,97,308573
1.7204,0.3177,37.6200,39,97,308576
1.7155,0.3079,37.6500,39,97,308580
1.7204,0.3128,37.7400,39,97,308583
1.7155,0.3128,37.7100,39,97,308586
1.7644,0.3275,37.5300,39,97,308590
1.7498,0.3177,37.7100,39,97,308593
1.7595,0.3128,37.6800,39,97,308596
1.7644,0.3226,37.7700,39,97,308600
1.7889,0.3128,37.8000,39,97,308603
1.8719,0.3177,37.6800,39,97,308606
1.8377,0.3128,37.7100,39,97,308611
1.8817,0.3372,37.6200,39,97,308614
1.8817,0.3079,37.7400,39,97,308617
1.8915,0.3128,37.7400,39,97,308620
1.9110,0.3128,37.8000,39,97,308624
1.9110,0.3177,37.8000,39,97,308627
1.9550,0.3226,37.5900,39,97,308630
1.9159,0.3177,37.7400,39,97,308634
1.9208,0.3128,37.7400,39,97,308637
1.9404,0.3226,37.6500,39,97,308640
1.9208,0.3128,37.7400,39,97,308644
1.9404,0.3177,36.6100,39,97,308647
1.9306,0.3128,37.6500,39,97,308651
1.9110,0.3079,37.8300,39,97,308654
1.9355,0.3226,37.6200,39,97,308658
1.9062,0.3128,37.7100,39,97,308661
1.9550,0.3177,37.4300,39,97,308664
1.9110,0.3275,37.6500,39,97,308668
1.8964,0.3128,37.7400,39,97,308671
1.9062,0.3177,37.7400,39,97,308674
1.8964,0.3128,37.7100,39,97,308678
1.9453,0.3617,37.4300,39,97,308681
1.8915,0.3128,37.5600,39,97,308684
1.8915,0.3128,37.6800,39,97,308688
1.8915,0.3079,37.1300,39,97,308691
1.8817,0.3128,37.7400,39,97,308695
1.9306,0.3275,37.6200,39,97,308698
1.9062,0.3177,37.7100,39,97,308702
1.9062,0.3128,37.5900,39,97,308705
1.8964,0.3128,37.7100,39,97,308708
1.8915,0.3128,37.7100,39,97,308712
1.9208,0.3226,37.5600,39,97,308715
1.8915,0.3128,37.7100,39,97,308718
1.8915,0.3177,37.5900,39,97,308722
1.8622,0.3030,37.7400,39,97,308725
1.8622,0.3128,37.7400,39,97,308728
1.8866,0.3226,37.6200,39,97,308732
1.8524,0.3128,37.8000,39,97,308736
1.8817,0.3177,37.6200,39,97,308739
1.8524,0.3128,37.6800,39,97,308742
1.8475,0.3128,37.7700,39,97,308746
1.8426,0.3177,37.6800,39,97,308749
1.8377,0.3128,37.7100,39,97,308752
1.8671,0.3177,37.4900,39,97,308756
1.8328,0.3128,37.7400,39,97,308759
1.8328,0.3128,37.7400,39,97,308762
1.8426,0.3177,37.6800,39,97,308766
1.8133,0.3324,37.7400,39,97,308769
1.8622,0.3226,37.4300,39,97,308772
1.8328,0.3519,37.6500,39,97,308776
1.8377,0.3128,37.7100,39,97,308780
1.9062,0.3128,37.7700,39,97,308783
1.9746,0.3079,37.7700,39,97,308786
2.1310,0.3275,37.4900,39,97,308790
2.1799,0.3177,37.7100,39,97,308793
2.2336,0.3177,37.6500,39,97,308796
2.2532,0.3128,37.8000,39,97,308800
2.1896,0.3128,37.7400,39,97,308803
2.1114,0.3226,37.5900,39,97,308806
1.9306,0.3177,37.6800,39,97,308810
1.7889,0.3030,37.6200,39,97,308813
1.6373,0.3128,37.7400,39,97,308816
1.5591,0.3128,37.7100,39,97,308819
1.4761,0.3226,37.5900,39,97,308824
1.4223,0.3128,37.7100,39,97,308827
1.4370,0.3177,37.5900,39,97,308830
1.4223,0.3128,37.7100,39,97,308834
1.4125,0.3177,37.8000,39,97,308837
1.3978,0.3226,37.5900,39,97,308840
1.3441,0.3128,37.7400,39,97,308844
1.2610,0.3079,37.7100,39,97,308847
1.1877,0.3128,37.6500,39,97,308850
1.1486,0.3128,37.7400,39,97,308854
1.1681,0.3177,37.6500,39,97,308857
1.1779,0.3128,37.9000,39,97,308860
1.2659,0.3519,37.5600,39,97,308864
1.3441,0.3079,37.6800,39,97,308868
1.4467,0.3324,37.8000,39,97,308871
1.5689,0.3177,37.7100,39,97,308874
1.6716,0.3128,37.6800,39,97,308878
1.8182,0.3177,37.4600,39,97,308881
1.8573,0.3128,37.7400,39,97,308884
1.9257,0.3128,37.7400,39,97,308888
1.9746,0.3226,37.7100,39,97,308891
1.9941,0.3128,37.7400,39,97,308894
2.0821,0.3324,37.4900,39,97,308898
2.0430,0.3226,36.8200,39,97,308901
2.0479,0.3128,37.6500,39,97,308904
2.0528,0.3177,37.7100,39,97,308908
2.0528,0.3128,37.7400,39,97,308912
2.0919,0.3226,37.5300,39,97,308915
2.0528,0.3177,37.7100,39,97,308918
2.0528,0.3177,37.6200,39,97,308922
2.0235,0.3470,37.7400,39,97,308925
2.0186,0.3128,37.7400,39,97,308928
2.0430,0.3226,37.5600,39,97,308932
2.0137,0.3226,37.7400,39,97,308935
2.0235,0.3177,37.5900,39,97,308938
1.9844,0.3177,37.7100,39,97,308941
1.9795,0.3128,37.8300,39,97,308945
1.9697,0.3177,37.6500,39,97,308948
1.9648,0.3079,37.7100,39,97,308952
1.9941,0.3128,37.5600,39,97,308956
1.9550,0.3470,37.7400,39,97,308959
1.9599,0.3128,37.7400,39,97,308962
1.9844,0.3177,37.6500,39,97,308966
1.9599,0.3079,37.7400,39,97,308969
1.9990,0.3275,37.4600,39,97,308972
1.9746,0.3177,37.6200,39,97,308975
1.9501,0.3128,37.7700,39,97,308979
1.9648,0.3079,37.6800,39,97,308982
1.9404,0.3128,37.8000,39,97,308985
1.9941,0.3177,37.4300,39,97,308989
1.9550,0.3226,37.6200,39,97,308993
1.9453,0.3128,37.7700,39,97,308996
1.9404,0.3226,37.7100,39,97,309000
1.9355,0.3128,37.7400,39,97,309003
1.9892,0.3568,37.4600,39,97,309006
1.9355,0.3177,37.6800,39,97,309010
1.9257,0.3030,37.6500,39,97,309013
1.9208,0.3177,37.7700,39,97,309016
1.8866,0.3128,37.7400,39,97,309021
1.8817,0.3128,37.7400,39,97,309024
1.9306,0.3177,37.7100,39,97,309027
1.8719,0.3177,37.7400,39,97,309031
1.8964,0.3128,37.5900,39,97,309035
1.8719,0.3128,37.6500,39,97,309038
1.8768,0.3128,37.7100,39,97,309042
1.9013,0.3226,37.6200,39,97,309045
1.8719,0.3128,37.7400,39,97,309048
1.9013,0.3324,37.4900,39,97,309052
1.8719,0.3079,37.6800,39,97,309055
1.8573,0.3128,37.7400,39,97,309058
1.8622,0.3177,37.7100,39,97,309062
1.8426,0.3226,37.7700,39,97,309065
1.8817,0.3226,37.4300,39,97,309068
1.8377,0.3128,37.6500,39,97,309071
1.8328,0.3079,37.7100,39,97,309075
1.8524,0.3128,37.7100,39,97,309079
1.8328,0.3226,37.7400,39,97,309082
1.8964,0.3275,37.5300,39,97,309086
1.8622,0.3226,37.6500,39,97,309089
1.8573,0.3128,37.6500,39,97,309092
1.8622,0.3177,37.7400,39,97,309096
1.8719,0.3128,37.9300,39,97,309099
1.9257,0.3177,37.5300,39,97,309102
1.8964,0.3372,37.7100,39,97,309106
1.9208,0.3177,37.5900,39,97,309109
1.9159,0.3128,37.7700,39,97,309112
1.9257,0.3177,37.7400,39,97,309115
1.9697,0.3226,37.7700,39,97,309120
1.9746,0.3177,37.7400,39,97,309123
1.9844,0.3226,37.6800,39,97,309126
1.9892,0.3128,37.7700,39,97,309130
1.9550,0.3079,37.7700,39,97,309133
1.9697,0.3177,37.6800,39,97,309136
1.9550,0.3128,37.7100,39,97,309140
1.9746,0.3128,37.5600,39,97,309143
1.9404,0.3226,37.8000,39,97,309146
1.9404,0.3128,37.7100,39,97,309150
1.9599,0.3226,37.5900,39,97,309153
1.9257,0.3128,37.7100,39,97,309156
1.9599,0.3275,37.4900,39,97,309159
1.9306,0.3177,37.6200,39,97,309164
1.9159,0.3128,37.7700,39,97,309167
1.9257,0.3177,37.7100,39,97,309170
1.9013,0.3128,37.7400,39,97,309174
1.9501,0.3275,37.4300,39,97,309177
1.9062,0.3128,37.6200,39,97,309180
1.8817,0.3421,37.7100,39,97,309184
1.8817,0.3177,37.7100,39,97,309187
1.8768,0.3226,37.8000,39,97,309190
1.9257,0.3372,37.5600,39,97,309194
1.8866,0.3372,37.6800,39,97,309197
1.8964,0.3128,37.6500,39,97,309200
1.8817,0.3226,37.7400,39,97,309203
1.8768,0.3128,37.8000,39,97,309208
1.9306,0.3177,37.6800,39,97,309211
1.8817,0.3177,37.7400,39,97,309214
1.8866,0.3519,37.5900,39,97,309218
1.8573,0.3128,37.7100,39,97,309221
1.8426,0.3128,37.7400,39,97,309224
1.8622,0.3226,37.5600,39,97,309228
1.8377,0.3177,37.6800,39,97,309231
1.8622,0.3177,37.5900,39,97,309234
1.8280,0.3128,37.6800,39,97,309238
1.8280,0.3324,37.7400,39,97,309241
1.8377,0.3177,37.6500,39,97,309244
1.8084,0.3226,37.8000,39,97,309248
1.8280,0.3177,37.4900,39,97,309252
1.7986,0.3421,37.6500,39,97,309255
1.7889,0.3128,37.7400,39,97,309258
1.7937,0.3177,37.6500,39,97,309262
1.7791,0.3128,37.7400,39,97,309265
1.8182,0.3226,37.4900,39,97,309268
1.7693,0.3128,37.7400,39,97,309272
1.7693,0.3128,37.7400,39,97,309275
1.7742,0.3079,37.8300,39,97,309278
1.7498,0.3128,37.7400,39,97,309282
1.7889,0.3324,37.4000,39,97,309285
1.7498,0.3128,37.6500,39,97,309288
1.7302,0.3079,37.7100,39,97,309292
1.7400,0.3128,37.7100,39,97,309296
1.7400,0.3079,37.9000,39,97,309299
1.7840,0.3275,37.5600,39,97,309302
1.7449,0.3177,37.6800,39,97,309306
1.7351,0.3226,37.6200,39,97,309309
1.7204,0.3079,37.9300,39,97,309312
1.7155,0.3324,37.7400,39,97,309316
1.7546,0.3177,37.8300,39,97,309319
1.7498,0.3128,37.7100,39,97,309322
1.8035,0.3177,37.6200,39,97,309325
1.8475,0.3128,37.7400,39,97,309329
1.9355,0.3177,37.7700,39,97,309332
2.0332,0.3177,37.8300,39,97,309336
2.1017,0.3372,37.7100,39,97,309340
2.1701,0.3128,37.5900,39,97,309343
2.1017,0.3177,37.7700,39,97,309346
2.0186,0.3128,37.7400,39,97,309350
1.9159,0.3275,37.6800,39,97,309353
1.7644,0.3128,37.7100,39,97,309356
1.6862,0.3226,37.4900,39,97,309360
1.5885,0.3177,37.6200,39,97,309363
1.5298,0.3128,37.7400,39,97,309366
1.5396,0.3226,37.7100,39,97,309369
1.5396,0.3079,37.7400,39,97,309373
1.5982,0.3226,37.4900,39,97,309377
1.5494,0.3128,37.6200,39,97,309380
1.4956,0.3372,37.7400,39,97,309384
1.4223,0.3128,37.7400,39,97,309387
1.3587,0.3128,37.7400,39,97,309390
1.3539,0.3275,37.5300,39,97,309394
1.2757,0.3177,37.7100,39,97,309397
1.2757,0.3128,37.7400,39,97,309400
1.3050,0.3128,37.7400,39,97,309404
1.3636,0.3128,37.7700,39,97,309407
1.4761,0.3275,37.6200,39,97,309410
1.5543,0.3421,37.7700,39,97,309413
1.6667,0.3128,37.6200,39,97,309417
1.7449,0.3128,37.7400,39,97,309421
1.8280,0.3128,37.7100,39,97,309424
1.9306,0.3275,37.5600,39,97,309428
1.9501,0.3128,37.7100,39,97,309431
2.0088,0.3177,37.6200,39,97,309434
1.9941,0.3079,37.8300,39,97,309438
2.0088,0.3128,37.7100,39,97,309441
2.0235,0.3177,37.5900,39,97,309444
1.9990,0.3470,37.7100,39,97,309448
2.0186,0.3128,37.5600,39,97,309451
1.9844,0.3226,37.6500,39,97,309454
1.9892,0.3079,37.8000,39,97,309457
2.0039,0.3177,37.6500,39,97,309462
1.9990,0.3128,37.7400,39,97,309465
2.0381,0.3226,37.4600,39,97,309468
2.0186,0.3128,37.7100,39,97,309472
1.9892,0.3079,37.7400,39,97,309475
1.9941,0.3226,37.7100,39,97,309478
1.9648,0.3079,37.7400,39,97,309482
2.0381,0.3226,37.4300,39,97,309485
1.9599,0.3177,37.6200,39,97,309488
1.9404,0.3030,37.8000,39,97,309491
1.9501,0.3177,37.6800,39,97,309495
1.9453,0.3177,37.7100,39,97,309498
2.0088,0.3079,37.4900,39,97,309501
1.9599,0.3177,37.6800,39,97,309506
1.9501,0.3128,37.6800,39,97,309509
1.9355,0.3128,37.7100,39,97,309512
1.9257,0.3128,37.7700,39,97,309516
1.9550,0.3177,37.6200,39,97,309519
1.9110,0.3079,37.7400,39,97,309522
1.9257,0.3128,37.5900,39,97,309525
1.9110,0.3177,37.7400,39,97,309529
1.9013,0.3128,37.7100,39,97,309532
1.9208,0.3079,37.7700,39,97,309535
1.9013,0.3030,37.7400,39,97,309539
1.9159,0.3226,37.5900,39,97,309542
1.8768,0.3128,37.7700,39,97,309545
1.8768,0.3079,37.7400,39,97,309550
1.9013,0.3275,37.5900,39,97,309553
1.8768,0.3128,37.7100,39,97,309556
1.9355,0.3128,37.5600,39,97,309560
1.8915,0.3128,37.6500,39,97,309563
1.9013,0.3128,37.7700,39,97,309566
1.9306,0.3177,37.6200,39,97,309569
1.9062,0.3079,37.7400,39,97,309573
1.9404,0.3226,37.4300,39,97,309576
1.8964,0.3177,37.6500,39,97,309579
1.8719,0.3128,37.8000,39,97,309583
1.8671,0.3177,37.7100,39,97,309586
1.8475,0.3421,37.7100,39,97,309590
1.8866,0.3275,37.5900,39,97,309594
1.8377,0.3128,37.6800,39,97,309597
1.8377,0.3079,37.7100,39,97,309600
1.8475,0.3177,37.7100,39,97,309604
1.8475,0.3275,37.7100,39,97,309607
1.9062,0.3275,37.5600,39,97,309610
1.8817,0.3421,37.6800,39,97,309613
1.8915,0.3128,37.6200,39,97,309617
1.8964,0.3128,37.7100,39,97,309620
1.9013,0.3128,37.5900,39,97,309623
1.9501,0.3177,37.5900,39,97,309627
2.0235,0.3177,37.6200,39,97,309632
2.0186,0.3079,37.7700,39,97,309636
2.0479,0.3177,37.5300,39,97,309639
2.0186,0.3128,37.6800,39,97,309642
2.0137,0.3079,37.7100,39,97,309646
2.0381,0.3128,37.6800,39,97,309649
1.9795,0.3079,37.5600,39,97,309652
2.0088,0.3177,37.4300,39,97,309656
1.9501,0.3128,37.6500,39,97,309659
1.9550,0.3128,37.7100,39,97,309662
1.9648,0.3079,37.7400,39,97,309665
1.9404,0.3128,37.7400,39,97,309669
1.9990,0.3275,37.4000,39,97,309672
1.9550,0.3177,37.6200,39,97,309676
1.9306,0.3128,37.7700,39,97,309680
1.9355,0.3177,37.7100,39,97,309683
1.9110,0.3128,37.7100,39,97,309686
1.9501,0.3324,37.5300,39,97,309690
1.9013,0.3079,37.6500,39,97,309693
1.8768,0.3128,37.6500,39,97,309696
1.8622,0.3128,37.7100,39,97,309700
1.8524,0.3128,37.7400,39,97,309703
1.8915,0.3226,37.5900,39,97,309706
1.8671,0.3128,37.7400,39,97,309709
1.8817,0.3177,37.5600,39,97,309713
1.8671,0.3128,37.7400,39,97,309716
1.8671,0.3177,37.8000,39,97,309720
1.8817,0.3177,37.6800,39,97,309724
1.8573,0.3226,37.7100,39,97,309727
1.8671,0.3226,37.6200,39,97,309730
1.8231,0.3128,37.7700,39,97,309734
1.8182,0.3128,37.7400,39,97,309737
1.8377,0.3226,37.6200,39,97,309740
1.8280,0.3128,37.7400,39,97,309744
1.8328,0.3079,37.5600,39,97,309747
1.8084,0.3128,37.6200,39,97,309750
1.7986,0.3128,37.8000,39,97,309753
1.8182,0.3177,37.6500,39,97,309757
1.7937,0.3128,37.7100,39,97,309761
1.8426,0.3177,37.4600,39,97,309764
1.7889,0.3421,37.6200,39,97,309768
1.7693,0.3128,37.7400,39,97,309771
1.7644,0.3079,37.7100,39,97,309774
1.7595,0.3128,37.7400,39,97,309778
1.8133,0.3324,37.4300,39,97,309781
1.7742,0.3177,37.9600,39,97,309784
1.7742,0.3030,37.6800,39,97,309788
1.7693,0.3128,37.7400,39,97,309791
1.7546,0.3128,37.7100,39,97,309794
1.7742,0.3275,37.4600,39,97,309797
1.7546,0.3177,37.6800,39,97,309801
1.7498,0.3079,37.5900,39,97,309805
1.7253,0.3128,37.7400,39,97,309808
1.7253,0.3128,37.7100,39,97,309812
1.7498,0.3226,37.5600,39,97,309815
1.7253,0.3128,37.7700,39,97,309818
1.7498,0.3177,37.5900,39,97,309822
1.7204,0.3324,37.8000,39,97,309825
1.7204,0.3128,37.7400,39,97,309828
1.7351,0.3177,37.5900,39,97,309832
1.7155,0.3128,37.7700,39,97,309835
1.7351,0.3128,37.7100,39,97,309838
1.7058,0.3128,37.6800,39,97,309841
1.7107,0.3128,37.7700,39,97,309846
1.7302,0.3177,37.6800,39,97,309849
1.7204,0.3079,37.7400,39,97,309852
1.7400,0.3177,37.4900,39,97,309856
1.7107,0.3617,37.7100,39,97,309859
1.7204,0.3128,37.7700,39,97,309862
1.7498,0.3519,37.6800,39,97,309866
1.7498,0.3128,37.7700,39,97,309869
1.8377,0.3177,37.4300,39,97,309872
1.7889,0.3177,37.6800,39,97,309876
1.7889,0.3128,37.7100,39,97,309879
1.8133,0.3177,37.6800,39,97,309882
1.8280,0.3128,37.7400,39,97,309885
1.9208,0.3324,37.5300,39,97,309890
1.8964,0.3177,37.6500,39,97,309893
1.9013,0.3128,37.6500,39,97,309896
1.9013,0.3128,37.7400,39,97,309900
1.9110,0.3128,37.8000,39,97,309903
1.9648,0.3226,37.5600,39,97,309906
1.9501,0.3470,37.6800,39,97,309910
1.9648,0.3128,37.5900,39,97,309913
1.9501,0.3128,37.7400,39,97,309916
1.9404,0.3128,37.7700,39,97,309920
1.9453,0.3226,37.6500,39,97,309923
1.9208,0.3128,37.7100,39,97,309926
1.9404,0.3470,37.6200,39,97,309929
1.9062,0.3079,37.7400,39,97,309934
1.9013,0.3177,37.7400,39,97,309937
1.9306,0.3226,37.6200,39,97,309940
1.9013,0.3128,37.7400,39,97,309944
1.9208,0.3128,37.7100,39,97,309947
1.9013,0.3128,37.6200,39,97,309950
1.8915,0.3128,37.8700,39,97,309954
1.9159,0.3226,37.6200,39,97,309957
1.8915,0.3372,37.7400,39,97,309960
1.9306,0.3177,37.4900,39,97,309963
1.9013,0.3177,37.6500,39,97,309967
1.8915,0.3128,37.7400,39,97,309970
1.8964,0.3226,37.7100,39,97,309974
1.8817,0.3128,37.7400,39,97,309978
1.9355,0.3226,37.4000,39,97,309981
1.8817,0.3128,37.7100,39,97,309984
1.8768,0.3079,37.6800,39,97,309988
1.8719,0.3128,37.7400,39,97,309991
1.8719,0.3128,37.7700,39,97,309994
1.9110,0.3275,37.6200,39,97,309998
1.8719,0.3128,37.6800,39,97,310001
1.8622,0.3128,37.6500,39,97,310004
1.8475,0.3128,37.7400,39,97,310007
1.8328,0.3128,37.6800,39,97,310011
1.8524,0.3226,37.5900,39,97,310014
1.8231,0.3226,37.6800,39,97,310018
1.8377,0.3177,37.5900,39,97,310022
1.8035,0.3177,37.7400,39,97,310025
1.8084,0.3128,37.7400,39,97,310028
1.8231,0.3226,37.6200,39,97,310032
1.7889,0.3128,37.7700,39,97,310035
1.8133,0.3177,37.5900,39,97,310038
1.7840,0.3128,37.6800,39,97,310042
1.7840,0.3177,37.7400,39,97,310045
1.7889,0.3128,37.6800,39,97,310048
1.7791,0.3079,37.6800,39,97,310051
1.8084,0.3128,37.5600,39,97,310055
1.7840,0.3128,37.7700,39,97,310059
1.7791,0.3128,37.7700,39,97,310062
1.8035,0.3177,37.5900,39,97,310066
1.7791,0.3128,37.7400,39,97,310069
1.8133,0.3177,37.4000,39,97,310072
1.7889,0.3177,37.6200,39,97,310076
1.7644,0.3128,37.8300,39,97,310079
1.7644,0.3177,37.6800,39,97,310082
1.7449,0.3226,37.7400,39,97,310086
1.7840,0.3275,37.4300,39,97,310089
1.7449,0.3128,37.6200,39,97,310092
1.7351,0.3128,37.7100,39,97,310095
1.7400,0.3177,37.7400,39,97,310099
1.7449,0.3128,37.7400,39,97,310103
1.7937,0.3617,37.5600,39,97,310106
1.7644,0.3177,37.9600,39,97,310110
1.7742,0.3177,37.6200,39,97,310113
1.7546,0.3128,37.8000,39,97,310116
1.7791,0.3128,37.7400,39,97,310120
1.8035,0.3226,37.8300,39,97,310123
1.8133,0.3128,37.7400,39,97,310126
1.8475,0.3177,37.5900,39,97,310129
1.8426,0.3128,37.7700,39,97,310133
1.8622,0.3079,37.8000,39,97,310136
1.9159,0.3226,37.5600,39,97,310139
1.8915,0.3128,37.7400,39,97,310144
1.9257,0.3128,37.6200,39,97,310147
1.9110,0.3079,37.6500,39,97,310150
1.9257,0.3128,37.7400,39,97,310154
1.9501,0.3421,37.5900,39,97,310157
1.9306,0.3128,37.7400,39,97,310160
1.9648,0.3177,37.5600,39,97,310164
1.9404,0.3128,37.6500,39,97,310167
1.9257,0.3079,37.7100,39,97,310170
1.9306,0.3079,37.7100,39,97,310173
1.9257,0.3079,37.7400,39,97,310177
1.9941,0.3177,37.4600,39,97,310180
1.9257,0.3128,37.6800,39,97,310183
1.9355,0.3128,37.7400,39,97,310188
1.9355,0.3421,37.7100,39,97,310191
1.9208,0.3079,37.8300,39,97,310194
1.9746,0.3226,37.4600,39,97,310198
1.9355,0.3177,37.6500,39,97,310201
1.9257,0.3324,37.6500,39,97,310204
1.9257,0.3128,37.8300,39,97,310208
1.9208,0.3128,37.7700,39,97,310211
1.9501,0.3226,37.5300,39,97,310214
1.9159,0.3177,37.6800,39,97,310217
1.9110,0.3079,37.8300,39,97,310221
1.8964,0.3128,37.7700,39,97,310224
1.8866,0.3079,37.7400,39,97,310227
1.9355,0.3177,37.5600,39,97,310232
1.8768,0.3079,37.7400,39,97,310235
1.8964,0.3177,37.5900,39,97,310238
1.8719,0.3128,37.7700,39,97,310242
1.8524,0.3128,37.7400,39,97,310246
1.8475,0.3324,37.7400,39,97,310250
1.8671,0.3177,37.6800,39,97,310253
1.8573,0.3128,37.7400,39,97,310256
1.8817,0.3226,37.4600,39,97,310260
1.8573,0.3177,37.6200,39,97,310263
1.8280,0.3079,37.9300,39,97,310266
1.8231,0.3177,37.7400,39,97,310269
1.8231,0.3079,37.7700,39,97,310274
1.8768,0.3275,37.4600,39,97,310277
1.8426,0.3177,37.6500,39,97,310280
1.8182,0.3128,37.6800,39,97,310284
1.8084,0.3079,37.7100,39,97,310287
1.8035,0.3128,37.7400,39,97,310290
1.8377,0.3372,37.5600,39,97,310294
1.8035,0.3128,37.7100,39,97,310297
1.8084,0.3226,37.6200,39,97,310300
1.7937,0.3128,37.7400,39,97,310304
1.7889,0.3177,37.7100,39,97,310307
1.8084,0.3177,37.9000,39,97,310310
1.7937,0.3177,37.7100,39,97,310313
1.8084,0.3177,37.5900,39,97,310318
1.7986,0.3128,37.7400,39,97,310321
1.7791,0.3079,38.0200,39,97,310324
1.8328,0.3226,37.6200,39,97,310328
1.8475,0.3079,37.6500,39,97,310331
1.9697,0.3128,37.5600,39,97,310334
2.0235,0.3128,37.6500,39,97,310338
2.0968,0.3128,37.7700,39,97,310341
2.1896,0.3177,37.5900,39,97,310344
2.1848,0.3128,37.7100,39,97,310347
2.1848,0.3177,37.5600,39,97,310351
2.0528,0.3177,37.6800,39,97,310354
1.9355,0.3079,37.7100,39,97,310358
1.8231,0.3177,37.7100,39,97,310362
1.7204,0.3128,37.8000,39,97,310365
1.6862,0.3177,37.4000,39,97,310368
1.6031,0.3079,37.7100,39,97,310372
1.5934,0.3666,37.7700,39,97,310375
1.6080,0.3079,37.7700,39,97,310378
1.6031,0.3128,37.7400,39,97,310382
1.6227,0.3275,37.4600,39,97,310385
1.5249,0.3226,37.6800,39,97,310388
1.4418,0.3079,37.6500,39,97,310391
1.3881,0.3128,37.7100,39,97,310395
1.3148,0.3079,37.7700,39,97,310398
1.3196,0.3226,37.5300,39,97,310402
1.2854,0.3128,37.6800,39,97,310406
1.3294,0.3128,37.5900,39,97,310409
1.3783,0.3177,37.7400,39,97,310412
1.4663,0.3128,37.7400,39,97,310416
1.5738,0.3226,37.5900,39,97,310419
1.6422,0.3128,37.7400,39,97,310422
1.7498,0.3275,37.6200,39,97,310426
1.7986,0.3079,37.7400,39,97,310429
1.8622,0.3421,37.7700,39,97,310432
1.9208,0.3079,37.8300,39,97,310435
1.9355,0.3128,37.7100,39,97,310439
1.9844,0.3128,37.5600,39,97,310443
1.9648,0.3128,37.7400,39,97,310446
1.9746,0.3079,37.5900,39,97,310450
2.0186,0.3128,37.6500,39,97,310453
1.9795,0.3079,37.7700,39,97,310456
2.0528,0.3177,37.4000,39,97,310460
1.9892,0.3177,37.6500,39,97,310463
1.9648,0.3079,37.7400,39,97,310466
1.9795,0.3177,37.6800,39,97,310469
1.9599,0.3079,37.8000,39,97,310473
1.9990,0.3226,37.4300,39,97,310476
1.9599,0.3275,37.6200,39,97,310479
1.9453,0.3128,37.7100,39,97,310483
1.9355,0.3128,37.7400,39,97,310487
1.9257,0.3128,37.7100,39,97,310490
1.9795,0.3324,37.5300,39,97,310494
1.9159,0.3079,37.8000,39,97,310497
1.9110,0.3128,37.6200,39,97,310500
1.8964,0.3128,37.7700,39,97,310504
1.8964,0.3128,37.7400,39,97,310507
1.9208,0.3079,37.6800,39,97,310510
1.8915,0.3177,37.7400,39,97,310513
1.9013,0.3128,37.6500,39,97,310517
1.8768,0.3128,37.7400,39,97,310520
1.8622,0.3079,37.7700,39,97,310523
1.8768,0.3226,37.5900,39,97,310528
1.8475,0.3128,37.7100,39,97,310531
1.8719,0.3226,37.6200,39,97,310534
1.8328,0.3128,37.6800,39,97,310538
1.8328,0.3128,37.7400,39,97,310541
1.8377,0.3226,37.6200,39,97,310544
1.8182,0.3079,37.8300,39,97,310548
1.8475,0.3128,37.4900,39,97,310551
1.8231,0.3128,37.6500,39,97,310554
1.8182,0.3128,37.7400,39,97,310557
1.8231,0.3177,37.7100,39,97,310561
1.8084,0.3128,37.8000,39,97,310564
1.8475,0.3226,37.4600,39,97,310567
1.8035,0.3079,37.6200,39,97,310572
1.8084,0.3177,37.8000,39,97,310575
1.8084,0.3128,37.6800,39,97,310578
1.7889,0.3128,37.7100,39,97,310582
1.8377,0.3324,37.4300,39,97,310585
1.7840,0.3030,37.6500,39,97,310588
1.7986,0.3128,37.7100,39,97,310592
1.7644,0.3226,37.7100,39,97,310595
1.7546,0.3128,37.7400,39,97,310598
1.8035,0.3324,37.5600,39,97,310601
1.7791,0.3177,37.6800,39,97,310605
1.7791,0.3666,37.5900,39,97,310608
1.7791,0.3128,37.7400,39,97,310611
1.7840,0.3177,37.8000,39,97,310616
1.8182,0.3177,37.6500,39,97,310619
1.8035,0.3177,37.7400,39,97,310622
1.8377,0.3177,37.5900,39,97,310626
1.8280,0.3030,37.7400,39,97,310629
1.8524,0.3079,37.7100,39,97,310632
1.8817,0.3128,37.6800,39,97,310636
1.8915,0.3128,37.7100,39,97,310639
1.9355,0.3177,37.5900,39,97,310642
1.9257,0.3079,37.7700,39,97,310645
1.9404,0.3177,37.7100,39,97,310649
1.9746,0.3177,37.6500,39,97,310652
1.9599,0.3128,37.7100,39,97,310656
1.9892,0.3177,37.4900,39,97,310660
1.9844,0.3128,37.6200,39,97,310663
1.9648,0.3079,37.7100,39,97,310666
1.9844,0.3177,37.6800,39,97,310670
1.9648,0.3177,37.7100,39,97,310673
2.0235,0.3226,37.4600,39,97,310676
1.9746,0.3128,37.6800,39,97,310680
1.9648,0.3128,37.7400,39,97,310683
1.9844,0.3177,37.7100,39,97,310686
1.9599,0.3079,37.7700,39,97,310689
2.0186,0.3421,37.4600,39,97,310693
1.9697,0.3128,37.6500,39,97,310696
2.0039,0.3128,37.6500,39,97,310700
1.9697,0.3079,37.7400,39,97,310704
1.9550,0.3128,37.7700,39,97,310707
1.9990,0.3226,37.5900,39,97,310710
1.9746,0.3226,37.6800,39,97,310714
1.9697,0.3128,37.5900,39,97,310717
1.9453,0.3128,37.7400,39,97,310720
1.9453,0.3079,37.8300,39,97,310723
1.9697,0.3128,37.5300,39,97,310727
1.9404,0.3226,37.7400,39,97,310730
1.9550,0.3177,37.5900,39,97,310733
1.9306,0.3079,37.8300,39,97,310737
1.9355,0.3128,37.7400,39,97,310740
1.9306,0.3617,37.6200,39,97,310744
1.9013,0.3128,37.7100,39,97,310748
1.9208,0.3128,37.5300,39,97,310751
1.8915,0.3128,37.6800,39,97,310754
1.8866,0.3079,37.7100,39,97,310758
1.8964,0.3128,37.6500,39,97,310761
1.8817,0.3079,37.7400,39,97,310764
1.9062,0.3226,37.4600,39,97,310767
1.8622,0.3324,37.7100,39,97,310771
1.8573,0.3128,37.7400,39,97,310774
1.8622,0.3030,37.6800,39,97,310777
1.8280,0.3079,37.7400,39,97,310781
1.9062,0.3226,37.4300,39,97,310785
1.8328,0.3128,37.6500,39,97,310788
1.8084,0.3421,37.7700,39,97,310792
1.8133,0.3128,37.6800,39,97,310795
1.8035,0.3128,37.7400,39,97,310798
1.8524,0.3275,37.3700,39,97,310802
1.8035,0.3177,37.6800,39,97,310805
1.7937,0.3079,37.6500,39,97,310808
1.7889,0.3128,37.7100,39,97,310811
1.7840,0.3128,37.7700,39,97,310815
1.8084,0.3226,37.5600,39,97,310818
1.7791,0.3128,37.7400,39,97,310821
1.7889,0.3128,37.6200,39,97,310825
1.7644,0.3128,37.7400,39,97,310829
1.7595,0.3177,37.7400,39,97,310832
1.7693,0.3177,37.6500,39,97,310836
1.7400,0.3128,37.7100,39,97,310839
1.7546,0.3226,37.7400,39,97,310842
1.7253,0.3128,37.7100,39,97,310845
1.7155,0.3079,37.9300,39,97,310849
1.7351,0.3177,37.5900,39,97,310852
1.7498,0.3226,37.6800,39,97,310857
1.7253,0.3079,37.7400,39,97,310860
1.7840,0.3275,37.4300,39,97,310863
1.7644,0.3177,37.6200,39,97,310867
1.7742,0.3079,37.7400,39,97,310871
1.7937,0.3421,37.7400,39,97,310874
1.8133,0.3177,37.7400,39,97,310878
1.8915,0.3275,37.5300,39,97,310881
1.8622,0.3128,37.6800,39,97,310884
1.8768,0.3372,37.6800,39,97,310888
1.8866,0.3128,37.7100,39,97,310891
1.9159,0.3128,37.7100,39,97,310894
1.9355,0.3226,37.6500,39,97,310898
1.9208,0.3128,37.7100,39,97,310901
1.9355,0.3128,37.5900,39,97,310904
1.9110,0.3128,37.7100,39,97,310907
1.9110,0.3079,37.7700,39,97,310912
1.9453,0.3177,37.5600,39,97,310915
1.9110,0.3177,37.7400,39,97,310918
1.9404,0.3177,37.5900,39,97,310922
1.9062,0.3128,37.7100,39,97,310925
1.9062,0.3079,37.7400,39,97,310928
1.9257,0.3177,37.5900,39,97,310932
1.9013,0.3079,36.8500,39,97,310935
1.9306,0.3177,37.4900,39,97,310938
1.9062,0.3079,37.6200,39,97,310942
1.9013,0.3177,37.7400,39,97,310945
1.9062,0.3177,37.2200,39,97,310948
1.8964,0.3128,37.7400,39,97,310951
1.9355,0.3177,37.4300,39,97,310956
1.8817,0.3128,37.7400,39,97,310959
1.8866,0.3177,37.7400,39,97,310962
1.8915,0.3128,37.7100,39,97,310966
1.8915,0.3128,37.7400,39,97,310969
1.9306,0.3275,37.4300,39,97,310972
1.9013,0.3128,37.6800,39,97,310976
1.8817,0.3079,37.9000,39,97,310979
1.8866,0.3128,37.7100,39,97,310982
1.8719,0.3079,37.7700,39,97,310986
1.9110,0.3226,37.4900,39,97,310989
1.8719,0.3226,37.6800,39,97,310992
1.8671,0.3128,37.6500,39,97,310995
1.8524,0.3128,37.7100,39,97,311000
1.8524,0.3128,37.7400,39,97,311003
1.8719,0.3226,37.5600,39,97,311006
1.8426,0.3079,37.7400,39,97,311010
1.8622,0.3226,37.5900,39,97,311013
1.8328,0.3128,37.7400,39,97,311016
1.8524,0.3128,37.7400,39,97,311020
1.8280,0.3079,37.5600,39,97,311023
1.8133,0.3226,37.7400,39,97,311026
1.8377,0.3128,37.5900,39,97,311030
1.8084,0.3128,37.7400,39,97,311033
1.8035,0.3079,37.7700,39,97,311036
1.8475,0.3177,37.6200,39,97,311040
1.7986,0.3470,37.7100,39,97,311044
1.8231,0.3177,37.4600,39,97,311047
1.7937,0.3177,37.6200,39,97,311050
1.7840,0.3079,37.7400,39,97,311054
1.7937,0.3324,37.6800,39,97,311057
1.7742,0.3128,37.7400,39,97,311060
1.8182,0.3226,37.7100,39,97,311064
1.7791,0.3079,37.6500,39,97,311067
1.7693,0.3128,37.7100,39,97,311070
1.7693,0.3128,37.7100,39,97,311074
1.7595,0.3128,37.7400,39,97,311077
1.8133,0.3275,37.4900,39,97,311080
1.7498,0.3128,37.7100,39,97,311084
1.7498,0.3079,37.6800,39,97,311088
1.7351,0.3128,37.7100,39,97,311091
1.7253,0.3079,37.7700,39,97,311094
1.7840,0.3226,37.6500,39,97,311098
1.7449,0.3128,37.7100,39,97,311101
1.7595,0.3128,37.5900,39,97,311104
1.7400,0.3128,37.8000,39,97,311108
1.7498,0.3128,37.7400,39,97,311111
1.7840,0.3177,37.4900,39,97,311114
1.7644,0.3128,37.7400,39,97,311117
1.7986,0.3177,37.5900,39,97,311121
1.7937,0.3128,37.7700,39,97,311124
1.8035,0.3079,37.7700,39,97,311128
1.8475,0.3177,37.6200,39,97,311132
1.8426,0.3079,37.8000,39,97,311135
1.8768,0.3128,37.5600,39,97,311138
1.8719,0.3079,37.6200,39,97,311142
1.8866,0.3079,37.7400,39,97,311145
1.9062,0.3128,37.6500,39,97,311148
1.9110,0.3128,37.7400,39,97,311152
1.9550,0.3177,37.4900,39,97,311155
1.9208,0.3128,37.7100,39,97,311158
1.9257,0.3079,37.7100,39,97,311161
1.9355,0.3177,37.7400,39,97,311165
1.9257,0.3128,37.7700,39,97,311169
1.9648,0.3226,37.4000,39,97,311172
1.9306,0.3177,37.6800,39,97,311176
1.9208,0.3079,37.8000,39,97,311179
1.9599,0.3128,37.7100,39,97,311182
1.9159,0.3079,37.8300,39,97,311186
1.9697,0.3177,37.5300,39,97,311189
1.9306,0.3177,37.6500,39,97,311192
1.9159,0.3128,37.6500,39,97,311196
1.9013,0.3128,37.9000,39,97,311199
1.9306,0.3128,37.7400,39,97,311202
1.9257,0.3177,37.6500,39,97,311205
1.8964,0.3128,37.7100,39,97,311209
