ecg,gsr,temp,hr,spo2,timest
1.6813,0.0440,39.8300,76,98,63638
1.6960,0.0391,39.7700,76,98,63642
1.7302,0.0733,39.6400,76,98,63645
1.7107,0.0440,39.7300,76,98,63648
1.7400,0.0489,39.6700,76,98,63651
1.7107,0.0391,39.7300,76,98,63655
1.7155,0.0440,39.8000,76,98,63659
1.7351,0.0489,39.7000,76,98,63662
1.7253,0.0440,39.9600,76,98,63665
1.7889,0.0440,39.7000,76,98,63668
1.7302,0.0440,39.7700,76,98,63672
1.7351,0.0440,39.7700,76,98,63675
1.7595,0.0440,39.7000,76,98,63678
1.7595,0.0440,39.8600,76,98,63681
1.8182,0.0440,39.6700,76,98,63685
1.7644,0.0489,39.7700,76,98,63688
1.7693,0.0440,39.7700,76,98,63691
1.8084,0.0538,39.6400,76,98,63694
1.7840,0.0489,39.7700,76,98,63698
1.8084,0.0489,39.6700,76,98,63702
1.7937,0.0440,39.8000,76,98,63705
1.7889,0.0440,39.7700,76,98,63708
1.8182,0.0538,39.6700,76,98,63712
1.7937,0.0733,39.7300,76,98,63715
1.8133,0.0440,39.6700,76,98,63718
1.7986,0.0440,39.8000,76,98,63721
1.7986,0.0880,39.8300,76,98,63725
1.8231,0.0538,39.8000,76,98,63728
1.7986,0.0489,39.7300,76,98,63731
1.8280,0.0440,39.5700,76,98,63734
1.8035,0.0440,39.8000,76,98,63738
1.8084,0.0489,39.7700,76,98,63741
1.8426,0.0538,39.6400,76,98,63745
1.8133,0.0342,39.7700,76,98,63748
1.8182,0.0440,39.6700,76,98,63752
1.7937,0.0440,39.8000,76,98,63755
1.7937,0.0489,39.8300,76,98,63758
1.8231,0.0538,39.6400,76,98,63761
1.8133,0.0489,39.7700,76,98,63764
1.8182,0.0489,39.7000,76,98,63768
1.7986,0.0440,39.8300,76,98,63771
1.7986,0.0342,39.8000,76,98,63774
1.8328,0.0831,39.6700,76,98,63777
1.8133,0.0489,39.7700,76,98,63781
1.8573,0.0440,39.7000,76,98,63784
1.8182,0.0538,39.8300,76,98,63788
1.8133,0.0440,39.8000,76,98,63791
1.8475,0.0587,39.6400,76,98,63795
1.8182,0.0489,39.7300,76,98,63798
1.8280,0.0440,39.7000,76,98,63801
1.8377,0.0587,39.7700,76,98,63804
1.8133,0.0440,39.9600,76,98,63808
1.8426,0.0489,39.6400,76,98,63811
1.8280,0.0440,39.7000,76,98,63814
1.8231,0.0391,39.7000,76,98,63817
1.8231,0.0440,39.8000,76,98,63821
1.8231,0.0391,39.7700,76,98,63824
1.8671,0.0733,39.6400,76,98,63827
1.8426,0.0489,39.7300,76,98,63831
1.8377,0.0391,39.7300,76,98,63835
1.8622,0.0440,39.7700,76,98,63838
1.8328,0.0489,39.8000,76,98,63841
1.8817,0.0538,39.6000,76,98,63844
1.8671,0.0440,39.7300,76,98,63848
1.8475,0.0391,39.8000,76,98,63851
1.8426,0.0440,39.7700,76,98,63854
1.8475,0.0391,39.7700,76,98,63857
1.9062,0.0587,39.7000,76,98,63861
1.8866,0.0440,39.7000,76,98,63864
1.8719,0.0782,39.7000,76,98,63867
1.8768,0.0489,39.8600,76,98,63870
1.8866,0.0440,39.7700,76,98,63875
1.9404,0.0635,39.6000,76,98,63878
1.9159,0.0538,39.7000,76,98,63881
1.9159,0.0391,39.7300,76,98,63884
1.9208,0.0342,39.7700,76,98,63888
1.9110,0.0538,39.8000,76,98,63891
1.9697,0.0635,39.6000,76,98,63894
1.9404,0.0587,39.7300,76,98,63897
1.9062,0.0440,39.7000,76,98,63901
1.9013,0.0489,39.7700,76,98,63904
1.8817,0.0489,39.8000,76,98,63907
1.9208,0.0587,39.5700,76,98,63910
1.8573,0.0342,39.6700,76,98,63913
1.8328,0.0880,39.7700,76,98,63918
1.8280,0.0489,39.9600,76,98,63921
1.8182,0.0440,39.7700,76,98,63924
1.8622,0.0587,39.5400,76,98,63927
1.8133,0.0587,39.6700,76,98,63931
1.7986,0.0342,39.7700,76,98,63934
1.7840,0.0489,39.7700,76,98,63937
1.7889,0.0489,39.7700,76,98,63940
1.8377,0.0587,39.5400,76,98,63944
1.7986,0.0440,39.7000,76,98,63947
1.7889,0.0391,39.7300,76,98,63950
1.7986,0.0489,39.7300,76,98,63953
1.7937,0.0391,39.8300,76,98,63958
1.8475,0.0538,39.7000,76,98,63961
1.8133,0.0440,39.6700,76,98,63964
1.8084,0.0391,39.8000,76,98,63967
1.8182,0.0489,39.7700,76,98,63971
1.8035,0.0440,39.8000,76,98,63974
1.8573,0.0538,39.4800,76,98,63977
1.8328,0.0489,39.7300,76,98,63980
1.8182,0.0342,39.8000,76,98,63984
1.8231,0.0440,39.7700,76,98,63987
1.7937,0.0440,39.7300,76,98,63990
1.7986,0.0489,39.5100,76,98,63993
1.7302,0.0489,39.7300,76,98,63997
1.7155,0.0440,39.7700,76,98,64001
1.7937,0.0489,39.7000,76,98,64004
1.9306,0.0489,39.7700,76,98,64007
2.2239,0.0489,39.6400,76,98,64011
2.4927,0.0440,39.7000,76,98,64014
2.8201,0.0635,39.8300,76,98,64017
3.1525,0.0489,39.7300,76,98,64020
3.4115,0.0440,39.8000,76,98,64024
3.6266,0.0538,39.5400,76,98,64027
3.5288,0.0489,39.7000,76,98,64030
3.2796,0.0391,39.8300,76,98,64033
2.9717,0.0489,39.7300,76,98,64037
2.6051,0.0440,39.7700,76,98,64040
2.3412,0.0489,39.5400,76,98,64044
2.0430,0.0489,39.7000,76,98,64047
1.8475,0.0538,39.7700,76,98,64050
1.7546,0.0538,39.7700,76,98,64054
1.6520,0.0391,39.7700,76,98,64057
1.6422,0.0489,39.5100,76,98,64060
1.5787,0.0391,39.7700,76,98,64063
1.5591,0.0440,39.7700,76,98,64067
1.5640,0.0587,39.7300,76,98,64070
1.5396,0.0440,39.9300,76,98,64073
1.6080,0.0489,39.5700,76,98,64076
1.5543,0.0440,39.6700,76,98,64080
1.5591,0.0440,39.7700,76,98,64083
1.5738,0.0684,39.8300,76,98,64087
1.5738,0.0440,39.7700,76,98,64090
1.6031,0.0391,39.5700,76,98,64094
1.5885,0.0587,39.6700,76,98,64097
1.5934,0.0440,39.8000,76,98,64100
1.6227,0.0391,39.6700,76,98,64103
1.6080,0.0440,39.8000,76,98,64107
1.6325,0.0440,39.6000,76,98,64110
1.6178,0.0440,39.8600,76,98,64113
1.6276,0.0440,39.8000,76,98,64116
1.6618,0.0587,39.6700,76,98,64120
1.6618,0.0489,39.7300,76,98,64123
1.6911,0.0440,39.5700,76,98,64126
1.6813,0.0440,39.7000,76,98,64130
1.6862,0.0440,39.7700,76,98,64133
1.7155,0.0342,39.7000,76,98,64137
1.7107,0.0391,39.7700,76,98,64140
1.7449,0.0440,39.6400,76,98,64143
1.7449,0.0391,39.6700,76,98,64146
1.7449,0.0440,39.8000,76,98,64150
1.7595,0.0440,39.7000,76,98,64153
1.7498,0.0440,39.7700,76,98,64156
1.7791,0.0440,39.6400,76,98,64159
1.7595,0.0440,39.7700,76,98,64163
1.7693,0.0538,39.8000,76,98,64166
1.8035,0.0538,39.7000,76,98,64169
1.8035,0.0440,39.7700,76,98,64173
1.8231,0.0440,39.6000,76,98,64177
1.8084,0.0391,39.7700,76,98,64180
1.8231,0.0391,39.8300,76,98,64183
1.8573,0.0489,39.6000,76,98,64186
1.8475,0.0342,39.7700,76,98,64190
1.8719,0.0538,39.6700,76,98,64193
1.8573,0.0440,39.8000,76,98,64196
1.8622,0.0342,39.7700,76,98,64199
1.8866,0.0587,39.6700,76,98,64203
1.8866,0.0440,39.8000,76,98,64206
1.9208,0.0587,39.6700,76,98,64209
1.9013,0.0440,39.7700,76,98,64212
1.9159,0.0440,39.8000,76,98,64217
1.9550,0.0733,39.6700,76,98,64220
1.9355,0.0440,39.7300,76,98,64223
1.9746,0.0489,39.6400,76,98,64226
1.9550,0.0538,39.7700,76,98,64230
1.9648,0.0440,39.8000,76,98,64233
1.9990,0.0538,39.6700,76,98,64236
1.9844,0.0489,39.7300,76,98,64239
2.0088,0.0489,39.6400,76,98,64242
1.9941,0.0489,39.7700,76,98,64246
2.0186,0.0342,39.8000,76,98,64249
2.0283,0.0440,39.8000,76,98,64253
2.0528,0.0440,39.7000,76,98,64257
2.0283,0.0489,39.8900,76,98,64260
2.0430,0.0440,39.6700,76,98,64263
2.0137,0.0440,39.7700,76,98,64267
2.0283,0.0440,39.7700,76,98,64270
2.0088,0.0538,39.7000,76,98,64273
1.9697,0.0440,39.7700,76,98,64276
1.9697,0.0489,39.6700,76,98,64279
1.9110,0.0440,39.8000,76,98,64283
1.8915,0.0342,39.7700,76,98,64286
1.8817,0.0440,39.8000,76,98,64289
1.8426,0.0489,39.7700,76,98,64292
1.8328,0.0489,39.6400,76,98,64296
1.7791,0.0440,39.8600,76,98,64300
1.7546,0.0440,39.8000,76,98,64303
1.7693,0.0538,39.7700,76,98,64306
1.7302,0.0391,39.8000,76,98,64310
1.7351,0.0489,39.7000,76,98,64313
1.6960,0.0440,39.8600,76,98,64316
1.6813,0.0342,39.8000,76,98,64319
1.6960,0.0489,39.6700,76,98,64323
1.6764,0.0440,39.7300,76,98,64326
1.6862,0.0489,39.7000,76,98,64329
1.6618,0.0440,39.8300,76,98,64332
1.6569,0.0440,39.8000,76,98,64336
1.6764,0.0978,39.7700,76,98,64339
1.6667,0.0489,39.7300,76,98,64343
1.6813,0.0489,39.7000,76,98,64346
1.6667,0.0440,39.7300,76,98,64349
1.6667,0.0440,39.8000,76,98,64353
1.7058,0.0538,39.6000,76,98,64356
1.6764,0.0489,39.8000,76,98,64359
1.6911,0.0440,39.7000,76,98,64362
1.6764,0.0489,39.8000,76,98,64366
1.6862,0.0440,39.8000,76,98,64369
1.7155,0.0587,39.7300,76,98,64372
1.7058,0.0489,39.7300,76,98,64375
1.7107,0.0489,39.6700,76,98,64379
1.7058,0.0489,39.8300,76,98,64382
1.7107,0.0440,39.8000,76,98,64386
1.7546,0.0684,39.6400,76,98,64389
1.7400,0.0489,39.7300,76,98,64393
1.7400,0.0440,39.7000,76,98,64396
1.7351,0.0489,39.7300,76,98,64399
1.7400,0.0440,39.7700,76,98,64402
1.7937,0.0587,39.5700,76,98,64406
1.7693,0.0489,39.3200,76,98,64409
1.7693,0.0391,39.7000,76,98,64412
1.7693,0.0538,39.7300,76,98,64415
1.7644,0.0440,39.8000,76,98,64418
1.8133,0.0587,39.6000,76,98,64422
1.7889,0.0538,39.7700,76,98,64425
1.7986,0.0391,39.7300,76,98,64429
1.7791,0.0489,39.8000,76,98,64432
1.7742,0.0440,39.7700,76,98,64436
1.8475,0.0538,39.6000,76,98,64439
1.7889,0.0538,39.6700,76,98,64442
1.7742,0.0391,39.7300,76,98,64445
1.8084,0.0489,39.7700,76,98,64449
1.7791,0.0440,39.7300,76,98,64452
1.8328,0.0635,39.5700,76,98,64455
1.7889,0.0489,39.7300,76,98,64458
1.7742,0.0391,39.8300,76,98,64462
1.7840,0.0489,39.7700,76,98,64465
1.7791,0.0489,39.7700,76,98,64468
1.8377,0.0635,39.6000,76,98,64472
1.7986,0.0440,39.6700,76,98,64476
1.7840,0.0880,39.7700,76,98,64479
1.7889,0.0489,39.7700,76,98,64482
1.7840,0.0440,39.8000,76,98,64485
1.8328,0.0538,39.5400,76,98,64489
1.8035,0.0489,39.7300,76,98,64492
1.7840,0.0391,39.7700,76,98,64495
1.7889,0.0684,39.8300,76,98,64498
1.7742,0.0440,39.8000,76,98,64502
1.8328,0.0587,39.5100,76,98,64505
1.7986,0.0538,39.6700,76,98,64508
1.7937,0.0440,39.8000,76,98,64512
1.8035,0.0489,39.7300,76,98,64516
1.7889,0.0440,39.8600,76,98,64519
1.8377,0.0587,39.5400,76,98,64522
1.7986,0.0635,39.6700,76,98,64525
1.7986,0.0440,39.8000,76,98,64528
1.8084,0.0440,39.7300,76,98,64532
1.7986,0.0391,40.0000,76,98,64535
1.8377,0.0342,39.5400,76,98,64538
1.8084,0.0929,39.6700,76,98,64541
1.7986,0.0440,39.7700,76,98,64545
1.8182,0.0489,39.7700,76,98,64548
1.8035,0.0440,39.8000,76,98,64551
1.8573,0.0489,39.5400,76,98,64555
1.8231,0.0538,39.7000,76,98,64559
1.8035,0.0440,39.7700,76,98,64562
1.8231,0.0587,39.7300,76,98,64565
1.8084,0.0538,39.8300,76,98,64568
1.8426,0.0489,39.5700,76,98,64572
1.7986,0.0391,39.7700,76,98,64575
1.7986,0.0391,39.7700,76,98,64578
1.8182,0.0538,39.6000,76,98,64581
1.7986,0.0440,39.8000,76,98,64585
1.8377,0.0538,39.5400,76,98,64588
1.8133,0.0489,39.7000,76,98,64591
1.8231,0.0391,39.7700,76,98,64594
1.8084,0.0489,39.7300,76,98,64599
1.7986,0.0440,39.8000,76,98,64602
1.8377,0.0391,39.6000,76,98,64605
1.8182,0.0440,39.6700,76,98,64608
1.8231,0.0342,39.8000,76,98,64612
1.8475,0.0831,39.6700,76,98,64615
1.8328,0.0440,39.8000,76,98,64618
1.8671,0.0440,39.5700,76,98,64621
1.8426,0.0440,39.7700,76,98,64624
1.8573,0.0440,39.7700,76,98,64628
1.8866,0.0538,39.7300,76,98,64631
1.8768,0.0489,39.7700,76,98,64634
1.9110,0.0440,39.6000,76,98,64637
1.8964,0.0440,39.7000,76,98,64642
1.8964,0.0440,39.8000,76,98,64645
1.9159,0.0440,39.6700,76,98,64648
1.9062,0.0440,39.6700,76,98,64651
1.9404,0.0489,39.6000,76,98,64655
1.8964,0.0391,39.8000,76,98,64658
1.8964,0.0440,39.7700,76,98,64661
1.8915,0.0538,39.6400,76,98,64664
1.8671,0.0440,39.8600,76,98,64668
1.8866,0.0440,39.6400,76,98,64671
1.8280,0.0489,39.7700,76,98,64674
1.8133,0.0440,39.8000,76,98,64677
1.8426,0.0538,39.6700,76,98,64681
1.7986,0.0489,39.7700,76,98,64685
1.8133,0.0440,39.6700,76,98,64688
1.7840,0.0391,39.7300,76,98,64691
1.7742,0.0440,39.7700,76,98,64695
1.7840,0.0538,39.5700,76,98,64698
1.7937,0.0440,39.7700,76,98,64701
1.7840,0.0440,39.6400,76,98,64704
1.7595,0.0440,39.7700,76,98,64708
1.7644,0.0489,39.7700,76,98,64711
1.7791,0.0440,39.6700,76,98,64714
1.7693,0.0440,39.7700,76,98,64717
1.7937,0.0489,39.6700,76,98,64720
1.7693,0.0440,39.8000,76,98,64724
1.7742,0.0440,39.7700,76,98,64728
1.8035,0.0538,39.6000,76,98,64731
1.7742,0.0440,39.7300,76,98,64734
1.7937,0.0538,39.6700,76,98,64738
1.7644,0.0440,39.9300,76,98,64741
1.7644,0.0440,39.8000,76,98,64744
1.7937,0.0587,39.6700,76,98,64747
1.7693,0.0489,39.7000,76,98,64751
1.7449,0.0538,39.6000,76,98,64754
1.6911,0.0440,39.8300,76,98,64757
1.6813,0.0440,39.6400,76,98,64760
1.7449,0.0440,39.7300,76,98,64764
1.8817,0.0538,39.8300,76,98,64768
2.1457,0.0489,39.6400,76,98,64771
2.4194,0.0440,39.8600,76,98,64774
2.7566,0.0489,39.8000,76,98,64778
3.1134,0.0538,39.6400,76,98,64781
3.3431,0.0489,39.8000,76,98,64784
3.5484,0.0489,39.6400,76,98,64787
3.4995,0.0489,39.8600,76,98,64791
3.3382,0.0391,39.8000,76,98,64794
3.0401,0.0831,39.6000,76,98,64797
2.6540,0.0489,39.7700,76,98,64800
2.3412,0.0489,39.6400,76,98,64804
2.0479,0.0440,39.7700,76,98,64807
1.8622,0.0489,39.7700,76,98,64811
1.7546,0.0538,39.7700,76,98,64814
1.6520,0.0489,39.7700,76,98,64818
1.6129,0.0440,39.6700,76,98,64821
1.5640,0.0440,39.7700,76,98,64824
1.5396,0.0440,39.7700,76,98,64827
1.5591,0.0587,39.6700,76,98,64830
1.5298,0.0782,39.7300,76,98,64834
1.5396,0.0440,39.6700,76,98,64837
1.5200,0.0391,39.8300,76,98,64840
1.5298,0.0440,39.7700,76,98,64843
1.5640,0.0635,39.6400,76,98,64847
1.5543,0.0538,39.7700,76,98,64850
1.5591,0.0440,39.6700,76,98,64854
1.5494,0.0489,39.7700,76,98,64857
1.5885,0.0440,39.7700,76,98,64862
1.6080,0.0929,39.8300,76,98,64865
1.6471,0.0538,39.6700,76,98,64869
1.6325,0.0489,39.7700,76,98,64872
1.6667,0.0538,39.6700,76,98,64875
1.6569,0.0587,39.7700,76,98,64878
1.6667,0.0440,39.7700,76,98,64882
1.6862,0.0342,39.7000,76,98,64885
1.6813,0.0489,39.9600,76,98,64888
1.7253,0.0342,39.6400,76,98,64891
1.6960,0.0391,39.8300,76,98,64896
1.7058,0.0440,39.8600,76,98,64899
1.7253,0.0587,39.7300,76,98,64902
1.7204,0.0538,39.7300,76,98,64905
1.7449,0.0489,39.6400,76,98,64908
1.7302,0.0489,39.8000,76,98,64912
1.7400,0.0440,39.7700,76,98,64915
1.7840,0.0538,39.6000,76,98,64918
1.7693,0.0440,39.7700,76,98,64921
1.7937,0.0440,39.7300,76,98,64925
1.7840,0.0342,39.8000,76,98,64928
1.7840,0.0440,39.8000,76,98,64931
1.8280,0.0538,39.6400,76,98,64934
1.8182,0.0587,39.8300,76,98,64939
1.8426,0.0489,39.6700,76,98,64942
1.8280,0.0489,39.8000,76,98,64945
1.8377,0.0440,39.7700,76,98,64948
1.8817,0.0538,39.7000,76,98,64952
1.8915,0.0489,39.7700,76,98,64955
1.8915,0.0440,39.8600,76,98,64958
1.8817,0.0489,39.7700,76,98,64961
1.8915,0.0489,39.7700,76,98,64965
1.9306,0.0538,39.6400,76,98,64968
1.9062,0.0489,39.6000,76,98,64971
1.9306,0.0440,39.6700,76,98,64974
1.9257,0.0489,39.6400,76,98,64978
1.9355,0.0440,39.8000,76,98,64982
1.9844,0.0684,39.6400,76,98,64985
1.9697,0.0489,39.8000,76,98,64988
1.9746,0.0440,39.7000,76,98,64992
1.9746,0.0635,39.7700,76,98,64995
1.9844,0.0440,39.8000,76,98,64998
2.0381,0.0587,39.6700,76,98,65001
2.0137,0.0489,39.8000,76,98,65004
2.0137,0.0391,39.7000,76,98,65008
2.0088,0.0538,39.7700,76,98,65011
2.0186,0.0440,39.7700,76,98,65014
2.0723,0.0635,39.5700,76,98,65017
2.0332,0.0489,39.8000,76,98,65021
2.0186,0.0440,39.7000,76,98,65025
2.0137,0.0489,39.8000,76,98,65028
1.9941,0.0489,39.8000,76,98,65031
2.0430,0.0635,39.6400,76,98,65035
1.9844,0.0538,39.6700,76,98,65038
1.9501,0.0391,39.7300,76,98,65041
1.9306,0.0489,39.6700,76,98,65044
1.9013,0.0440,39.7700,76,98,65048
1.9306,0.0684,39.5700,76,98,65051
1.8719,0.0489,39.7000,76,98,65054
1.8280,0.0440,39.7300,76,98,65057
1.8084,0.0489,39.7700,76,98,65061
1.7742,0.0440,39.8000,76,98,65064
1.8035,0.0635,39.4800,76,98,65068
1.7449,0.0489,39.6700,76,98,65071
1.7253,0.0342,39.7700,76,98,65075
1.7155,0.0489,39.7700,76,98,65078
1.6911,0.0440,39.8000,76,98,65081
1.7204,0.0342,39.5100,76,98,65084
1.6716,0.0538,39.7000,76,98,65087
1.6569,0.0440,39.8000,76,98,65091
1.6667,0.0538,39.7300,76,98,65094
1.6471,0.0587,39.7700,76,98,65097
1.6911,0.0538,39.6000,76,98,65100
1.6569,0.0342,39.7000,76,98,65104
1.6422,0.0489,39.6700,76,98,65107
1.6471,0.0538,39.7700,76,98,65111
1.6471,0.0440,39.7700,76,98,65114
1.6960,0.0587,39.5100,76,98,65118
1.6667,0.0391,39.6700,76,98,65121
1.6618,0.0440,39.8000,76,98,65124
1.6764,0.0538,39.7300,76,98,65127
1.6667,0.0489,39.6700,76,98,65131
1.7204,0.0342,39.5400,76,98,65134
1.6862,0.0440,39.7000,76,98,65137
1.6862,0.0440,39.8900,76,98,65140
1.7107,0.0538,39.7300,76,98,65144
1.7009,0.0342,39.7700,76,98,65147
1.7400,0.0538,39.5100,76,98,65150
1.7204,0.0489,39.6700,76,98,65154
1.7155,0.0782,39.7300,76,98,65158
1.7302,0.0684,40.0000,76,98,65161
1.7253,0.0440,39.7700,76,98,65164
1.7644,0.0587,39.5400,76,98,65167
1.7400,0.0489,39.8000,76,98,65171
1.7400,0.0440,39.8000,76,98,65174
1.7644,0.0538,39.7300,76,98,65177
1.7791,0.0440,39.7700,76,98,65180
1.7840,0.0489,39.5100,76,98,65184
1.7449,0.0391,39.7700,76,98,65187
1.7889,0.0489,39.8000,76,98,65190
1.7840,0.0538,39.6700,76,98,65193
1.7693,0.0440,39.8000,76,98,65198
1.8035,0.0489,39.5700,76,98,65201
1.7840,0.0489,39.7700,76,98,65204
1.7693,0.0440,39.8000,76,98,65207
1.7840,0.0538,39.7300,76,98,65210
1.7742,0.0440,39.7700,76,98,65214
1.8084,0.0440,39.5400,76,98,65217
1.7840,0.0440,39.7000,76,98,65220
1.7791,0.0489,39.8300,76,98,65223
1.7986,0.0538,39.7000,76,98,65227
1.7840,0.0440,39.7700,76,98,65230
1.8084,0.0440,39.6400,76,98,65233
1.7889,0.0440,39.8000,76,98,65236
1.7889,0.0440,39.7700,76,98,65241
1.8084,0.0538,40.0000,76,98,65244
1.7840,0.0440,39.7700,76,98,65247
1.8133,0.0684,39.6000,76,98,65250
1.7937,0.0440,39.7300,76,98,65254
1.7937,0.0489,39.8300,76,98,65257
1.8133,0.0440,39.7300,76,98,65260
1.7986,0.0440,39.8300,76,98,65263
1.8182,0.0635,39.6000,76,98,65267
1.7937,0.0440,39.7700,76,98,65270
1.7986,0.0342,39.7700,76,98,65273
1.8084,0.0587,39.6400,76,98,65276
1.8035,0.0440,39.7700,76,98,65280
1.8280,0.0489,39.6700,76,98,65284
1.7986,0.0733,39.7700,76,98,65287
1.7937,0.0440,39.8000,76,98,65290
1.8182,0.0733,39.6700,76,98,65293
1.7937,0.0489,39.7700,76,98,65297
1.8182,0.0440,39.6700,76,98,65300
1.7840,0.0342,39.7300,76,98,65303
1.7791,0.0440,39.8000,76,98,65306
1.8084,0.0440,39.6700,76,98,65310
1.7840,0.0489,39.5700,76,98,65313
1.8084,0.0538,39.7000,76,98,65316
1.7889,0.0587,39.8000,76,98,65319
1.7937,0.0440,39.9300,76,98,65324
1.8084,0.0440,39.7000,76,98,65327
1.7937,0.0489,39.6700,76,98,65330
1.8182,0.0538,39.6700,76,98,65333
1.7986,0.0489,39.7700,76,98,65337
1.7937,0.0440,39.8000,76,98,65340
1.8280,0.0538,39.6400,76,98,65343
1.7937,0.0440,39.8000,76,98,65346
1.8231,0.0489,39.6400,76,98,65350
1.8084,0.0489,39.7700,76,98,65353
1.8035,0.0538,39.8000,76,98,65356
1.8377,0.0538,39.6700,76,98,65359
1.8377,0.0440,39.7700,76,98,65363
1.8280,0.0489,39.7700,76,98,65367
1.7986,0.0489,39.7700,76,98,65370
1.7986,0.0342,39.8000,76,98,65373
1.8231,0.0538,39.0600,76,98,65376
1.8133,0.0489,39.7700,76,98,65380
1.8280,0.0440,39.7000,76,98,65383
1.8035,0.0489,39.8000,76,98,65386
1.7986,0.0489,39.8000,76,98,65389
1.8475,0.0587,39.6400,76,98,65393
1.8231,0.0489,39.7300,76,98,65396
1.8426,0.0489,39.6700,76,98,65399
1.8182,0.0391,39.8000,76,98,65402
1.8133,0.0440,39.8000,76,98,65406
1.8475,0.0440,39.6700,76,98,65410
1.8280,0.0489,39.6700,76,98,65413
1.8426,0.0440,39.6700,76,98,65416
1.8182,0.0635,39.8300,76,98,65420
1.8182,0.0440,39.5400,76,98,65423
1.8426,0.0538,39.6700,76,98,65426
1.8231,0.0489,39.7700,76,98,65429
1.8328,0.0440,39.6400,76,98,65433
1.8182,0.0489,39.8000,76,98,65436
1.8182,0.0440,39.7700,76,98,65439
1.8524,0.0587,39.7300,76,98,65442
1.8182,0.0489,39.7700,76,98,65446
1.8280,0.0440,39.6700,76,98,65449
1.8084,0.0489,39.8000,76,98,65453
1.8084,0.0440,39.7700,76,98,65456
1.8426,0.0538,39.5700,76,98,65460
1.8133,0.0538,39.7300,76,98,65463
1.8133,0.0489,39.7000,76,98,65466
1.8084,0.0489,39.7300,76,98,65469
1.8475,0.0391,39.8300,76,98,65474
1.8622,0.0440,39.8000,76,98,65477
1.9062,0.0587,39.6400,76,98,65480
1.8915,0.0635,39.8300,76,98,65484
1.9306,0.0489,39.6400,76,98,65487
1.9110,0.0489,39.8000,76,98,65490
1.9159,0.0440,39.7700,76,98,65494
1.9404,0.0538,39.6700,76,98,65498
1.9159,0.0538,39.7000,76,98,65501
1.9306,0.0489,39.6700,76,98,65504
1.8964,0.0440,39.8000,76,98,65507
1.8866,0.0440,40.0000,76,98,65511
1.8964,0.0587,39.7300,76,98,65514
1.8524,0.0831,39.7300,76,98,65517
1.8524,0.0489,39.6700,76,98,65520
1.8182,0.0489,39.8000,76,98,65524
1.8035,0.0440,39.8000,76,98,65527
1.8328,0.0538,39.6400,76,98,65530
1.7986,0.0342,39.7700,76,98,65533
1.7937,0.0489,39.6700,76,98,65538
1.7693,0.0489,39.8000,76,98,65541
1.7644,0.0391,39.8000,76,98,65544
1.7937,0.0538,39.7300,76,98,65547
1.7791,0.0489,39.7700,76,98,65551
1.7791,0.0489,39.6700,76,98,65554
1.7644,0.0489,39.7700,76,98,65557
1.7644,0.0440,39.8000,76,98,65560
1.7986,0.0782,39.6700,76,98,65563
1.7742,0.0489,39.7700,76,98,65567
1.7791,0.0440,39.7000,76,98,65570
1.7644,0.0489,39.7700,76,98,65573
1.7644,0.0440,39.8000,76,98,65576
1.8035,0.0635,39.6000,76,98,65581
1.7791,0.0489,39.9600,76,98,65584
1.7889,0.0342,39.7000,76,98,65587
1.7840,0.0440,39.7700,76,98,65590
1.7742,0.0440,39.8000,76,98,65594
1.8133,0.0733,39.6400,76,98,65597
1.7595,0.0733,39.7000,76,98,65600
1.7058,0.0440,39.7000,76,98,65603
1.6862,0.0538,39.7300,76,98,65607
1.7204,0.0440,39.8000,76,98,65610
1.8964,0.0635,39.6000,76,98,65613
2.0821,0.0489,39.6700,76,98,65616
2.3803,0.0391,39.7000,76,98,65620
2.7077,0.0538,39.7300,76,98,65624
3.0303,0.0440,39.7700,76,98,65627
3.3920,0.0929,39.5700,76,98,65630
3.4995,0.0538,39.6000,76,98,65634
3.5044,0.0391,39.7300,76,98,65637
3.3578,0.0782,39.7700,76,98,65640
3.0547,0.0440,39.7700,76,98,65643
2.7810,0.0880,39.5700,76,98,65646
2.3851,0.0489,39.7000,76,98,65650
2.0919,0.0489,39.7700,76,98,65653
1.8817,0.0489,39.7300,76,98,65656
1.7400,0.0489,39.8000,76,98,65659
1.7009,0.0587,39.4800,76,98,65664
1.5982,0.0489,39.7000,76,98,65667
1.5591,0.0440,39.8000,76,98,65670
1.5396,0.0440,39.7700,76,98,65673
1.5152,0.0440,39.8000,76,98,65677
1.5445,0.0587,39.5100,76,98,65680
1.5103,0.0489,39.7300,76,98,65683
1.5054,0.0440,39.7300,76,98,65686
1.5200,0.0489,39.7700,76,98,65690
1.5103,0.0440,39.7700,76,98,65693
1.5494,0.0538,39.5100,76,98,65696
1.5249,0.0489,39.7000,76,98,65699
1.5396,0.0440,39.8000,76,98,65703
1.5787,0.0440,39.7700,76,98,65707
1.5591,0.0440,39.8300,76,98,65710
1.5982,0.0538,39.5100,76,98,65713
1.5982,0.0342,39.7300,76,98,65717
1.5885,0.0440,39.8000,76,98,65720
1.6080,0.0538,39.7700,76,98,65723
1.6129,0.0440,39.7700,76,98,65726
1.6667,0.0489,39.5400,76,98,65729
1.6471,0.0489,39.7300,76,98,65733
1.6373,0.0391,39.8300,76,98,65736
1.6667,0.0538,39.8000,76,98,65739
1.6764,0.0391,39.8000,76,98,65742
1.7009,0.0489,39.8000,76,98,65746
1.6764,0.0391,39.7300,76,98,65750
1.6813,0.0489,39.7700,76,98,65753
1.6960,0.0538,39.7700,76,98,65756
1.6862,0.0440,39.8000,76,98,65760
1.7351,0.0489,39.5400,76,98,65763
1.7302,0.0538,39.7000,76,98,65766
1.7302,0.0440,39.8000,76,98,65769
1.7449,0.0538,39.7700,76,98,65773
1.7400,0.0440,39.8000,76,98,65776
1.7791,0.0489,39.5400,76,98,65779
1.7644,0.0489,39.7000,76,98,65782
1.7693,0.0391,39.7700,76,98,65786
1.8084,0.0538,39.6000,76,98,65789
1.7986,0.0440,39.7700,76,98,65793
1.8328,0.0489,39.5700,76,98,65796
1.8084,0.0489,39.2200,76,98,65800
1.8573,0.0440,39.8000,76,98,65803
1.8426,0.0538,39.6400,76,98,65806
1.8328,0.0489,39.8000,76,98,65809
1.8671,0.0440,39.5700,76,98,65813
1.8524,0.0440,39.9600,76,98,65816
1.8573,0.0440,39.7700,76,98,65819
1.9110,0.0538,39.7000,76,98,65822
1.8817,0.0538,39.8900,76,98,65825
1.9159,0.0587,39.6400,76,98,65829
1.8964,0.0489,39.8300,76,98,65832
1.9110,0.0440,39.7300,76,98,65836
1.9453,0.0489,39.6700,76,98,65839
1.9355,0.0538,39.7700,76,98,65843
1.9697,0.0440,39.6400,76,98,65846
1.9501,0.0489,39.8000,76,98,65849
1.9550,0.0489,39.8000,76,98,65852
1.9892,0.0538,39.7000,76,98,65856
1.9697,0.0489,39.8000,76,98,65859
2.0088,0.0440,39.6400,76,98,65862
1.9844,0.0440,39.7300,76,98,65865
1.9892,0.0440,39.7000,76,98,65869
2.0088,0.0538,39.6700,76,98,65872
1.9892,0.0489,39.7700,76,98,65875
2.0235,0.0489,39.7000,76,98,65879
1.9892,0.0635,39.8000,76,98,65883
1.9892,0.0440,39.8000,76,98,65886
1.9941,0.0440,39.7000,76,98,65889
1.9746,0.0489,39.9600,76,98,65892
1.9941,0.0440,39.6700,76,98,65896
1.9404,0.0489,39.7700,76,98,65899
1.9257,0.0440,39.8300,76,98,65902
1.9355,0.0538,39.6700,76,98,65905
1.8866,0.0440,39.8000,76,98,65909
1.8768,0.0538,39.8000,76,98,65912
1.8182,0.0489,39.8000,76,98,65915
1.7986,0.0635,39.9300,76,98,65918
1.8035,0.0538,39.7000,76,98,65922
1.7595,0.0684,39.7000,76,98,65926
1.7546,0.0489,39.6400,76,98,65929
1.7155,0.0489,39.8000,76,98,65932
1.6911,0.0538,39.7700,76,98,65935
1.6911,0.0635,39.8000,76,98,65939
1.6716,0.0440,39.7700,76,98,65942
1.6716,0.0684,39.6700,76,98,65945
1.6422,0.0489,39.8000,76,98,65948
1.6471,0.0440,39.7700,76,98,65952
1.6618,0.0831,39.6700,76,98,65955
1.6373,0.0489,39.7700,76,98,65958
1.6520,0.0489,39.6700,76,98,65961
1.6325,0.0489,39.7700,76,98,65966
1.6325,0.0440,40.0000,76,98,65969
1.6471,0.0538,39.6400,76,98,65972
1.6422,0.0489,39.7300,76,98,65975
1.6569,0.0489,39.8300,76,98,65979
1.6520,0.0342,39.7700,76,98,65982
1.6520,0.0440,39.8000,76,98,65985
1.6764,0.0538,39.7300,76,98,65988
1.6764,0.0538,39.7700,76,98,65992
1.6716,0.0440,39.6400,76,98,65995
1.6618,0.0489,39.7700,76,98,65998
1.6667,0.0489,39.8000,76,98,66001
1.7107,0.0587,39.7000,76,98,66006
1.6911,0.0489,39.7700,76,98,66009
1.7058,0.0440,39.7000,76,98,66012
1.6911,0.0635,39.8600,76,98,66015
1.6960,0.0489,39.9600,76,98,66019
1.7302,0.0538,39.6000,76,98,66022
1.7155,0.0635,39.7000,76,98,66025
1.7204,0.0440,39.7000,76,98,66028
1.7107,0.0635,39.6700,76,98,66031
1.7107,0.0440,39.8300,76,98,66035
1.7595,0.0587,39.6700,76,98,66038
1.7302,0.0489,39.7300,76,98,66041
1.7253,0.0440,39.7300,76,98,66044
1.7351,0.0489,39.8000,76,98,66049
1.7253,0.0489,39.8000,76,98,66052
1.7644,0.0538,39.6400,76,98,66055
1.7351,0.0342,39.7300,76,98,66058
1.7400,0.0489,39.7000,76,98,66062
1.7400,0.0489,39.7700,76,98,66065
1.7449,0.0538,39.8000,76,98,66068
1.7937,0.0635,39.6700,76,98,66071
1.7693,0.0538,39.7000,76,98,66075
1.7546,0.0538,39.7700,76,98,66078
1.7546,0.0489,39.7700,76,98,66081
1.7400,0.0733,39.7700,76,98,66086
1.7351,0.0489,39.7700,76,98,66089
1.8084,0.0587,39.6400,76,98,66093
1.7498,0.0538,39.7700,76,98,66097
1.7644,0.0489,39.6000,76,98,66100
1.7449,0.0489,39.7700,76,98,66103
1.7449,0.0489,39.8000,76,98,66106
1.7791,0.0538,39.2500,76,98,66109
1.7595,0.0587,39.7700,76,98,66113
1.7742,0.0635,39.6000,76,98,66116
1.7498,0.0489,39.7700,76,98,66119
1.7498,0.0489,39.8000,76,98,66122
1.7791,0.0587,39.7300,76,98,66126
1.7644,0.0489,39.7700,76,98,66129
1.8035,0.0489,39.6700,76,98,66132
1.7546,0.0489,39.7700,76,98,66136
1.7546,0.0489,39.8000,76,98,66140
1.8035,0.0587,39.4800,76,98,66143
1.7644,0.0489,39.7700,76,98,66146
1.7791,0.0440,39.6700,76,98,66149
1.7840,0.0440,39.8600,76,98,66153
1.7644,0.0440,39.8300,76,98,66156
1.8035,0.0538,39.5700,76,98,66159
1.7791,0.0538,39.8000,76,98,66162
1.7693,0.0489,39.7000,76,98,66166
1.7595,0.0733,39.8300,76,98,66169
1.7595,0.0489,39.0000,76,98,66172
1.8231,0.0538,39.6400,76,98,66176
1.7693,0.0489,39.7700,76,98,66180
1.7693,0.0440,39.7300,76,98,66183
1.7595,0.0489,39.7700,76,98,66186
1.7595,0.0440,39.8300,76,98,66189
1.8084,0.0538,39.6000,76,98,66193
1.7791,0.0538,39.8000,76,98,66196
1.7742,0.0538,39.7000,76,98,66199
1.7742,0.0489,38.9600,76,98,66202
1.7693,0.0489,39.8000,76,98,66206
1.8084,0.0831,39.6000,76,98,66209
1.7791,0.0538,39.7000,76,98,66212
1.7889,0.0489,39.7300,76,98,66215
1.7693,0.0489,39.8000,76,98,66219
1.7644,0.0489,39.8300,76,98,66223
1.8231,0.0342,39.6400,76,98,66226
1.7889,0.0440,39.7300,76,98,66229
1.7840,0.0391,39.7700,76,98,66232
1.7937,0.0489,39.8000,76,98,66236
1.7986,0.0440,39.7700,76,98,66239
1.8622,0.0635,39.6000,76,98,66242
1.8182,0.0538,39.7300,76,98,66245
1.8182,0.0538,39.7300,76,98,66249
1.8328,0.0489,39.8600,76,98,66252
1.8475,0.0489,39.7300,76,98,66255
1.9013,0.0635,39.5400,76,98,66258
1.8719,0.0538,39.9600,76,98,66263
1.8817,0.0440,39.7300,76,98,66266
1.8866,0.0587,39.7700,76,98,66269
1.8817,0.0489,39.8600,76,98,66272
1.9501,0.0538,39.5400,76,98,66276
1.8964,0.0489,39.7300,76,98,66279
1.8817,0.0391,39.7700,76,98,66282
1.8671,0.0342,39.7700,76,98,66285
1.8475,0.0489,39.8000,76,98,66289
1.8817,0.0635,39.5100,76,98,66292
1.8231,0.0489,39.7000,76,98,66295
1.7986,0.0293,39.7700,76,98,66298
1.7937,0.0538,39.8000,76,98,66302
1.7742,0.0440,39.7700,76,98,66306
1.8231,0.0587,39.4800,76,98,66309
1.7742,0.0489,39.6700,76,98,66312
1.7546,0.0440,39.7700,76,98,66316
1.7498,0.0538,39.7300,76,98,66319
1.7302,0.0440,39.8000,76,98,66322
1.7742,0.0538,39.5100,76,98,66325
1.7351,0.0538,39.7000,76,98,66329
1.7253,0.0440,39.7000,76,98,66332
1.7351,0.0489,39.7700,76,98,66335
1.7302,0.0440,39.7700,76,98,66338
1.7840,0.0538,39.5400,76,98,66342
1.7498,0.0489,39.7300,76,98,66345
1.7498,0.0489,39.8000,76,98,66349
1.7498,0.0538,39.7300,76,98,66352
1.7449,0.0489,39.7700,76,98,66356
1.7840,0.0587,39.5100,76,98,66359
1.7644,0.0489,39.7000,76,98,66362
1.7546,0.0489,39.8000,76,98,66365
1.7644,0.0538,39.7700,76,98,66369
1.7498,0.0489,39.7700,76,98,66372
1.7742,0.0538,39.6000,76,98,66375
1.7058,0.0538,39.7300,76,98,66378
1.6569,0.0440,39.8000,76,98,66382
1.6667,0.0538,39.0000,76,98,66385
1.7351,0.0489,39.7700,76,98,66388
1.9501,0.0782,39.5400,76,98,66392
2.1701,0.0489,39.5100,76,98,66396
2.4633,0.0440,39.7700,76,98,66399
2.8055,0.0538,39.6000,76,98,66402
3.0743,0.0489,39.8000,76,98,66405
3.3724,0.0538,39.6400,76,98,66408
3.4115,0.0440,39.7300,76,98,66412
3.3627,0.0440,39.8000,76,98,66415
3.1672,0.0538,39.7300,76,98,66418
2.8348,0.0489,39.8000,76,98,66421
2.5611,0.0880,39.5100,76,98,66425
2.2336,0.0538,39.8000,76,98,66428
1.9892,0.0440,39.8000,76,98,66432
1.8084,0.0538,39.6400,76,98,66435
1.6813,0.0489,39.8000,76,98,66439
1.6764,0.0440,39.5400,76,98,66442
1.5689,0.0489,39.7300,76,98,66445
1.5249,0.0440,39.8000,76,98,66448
1.5347,0.0538,39.6700,76,98,66452
1.5054,0.0489,39.8000,76,98,66455
1.5200,0.0782,39.5700,76,98,66458
1.4858,0.0489,39.8300,76,98,66461
1.5249,0.0489,39.7700,76,98,66465
1.5103,0.0733,39.7000,76,98,66468
1.5103,0.0489,39.8000,76,98,66471
1.5347,0.0489,39.5700,76,98,66475
1.5347,0.0489,39.7700,76,98,66479
1.5396,0.0489,39.8000,76,98,66482
1.5640,0.0538,39.7000,76,98,66485
1.5591,0.0489,39.8000,76,98,66488
1.6080,0.0489,39.6400,76,98,66491
1.5885,0.0440,39.6700,76,98,66495
1.6031,0.0440,39.8300,76,98,66498
1.6227,0.0538,39.6400,76,98,66501
1.6129,0.0489,39.8000,76,98,66504
1.6422,0.0489,39.6700,76,98,66508
1.6276,0.0929,39.8000,76,98,66511
1.6422,0.0489,39.8000,76,98,66514
1.6667,0.0587,39.6700,76,98,66518
1.6569,0.0489,39.8000,76,98,66522
1.6862,0.0489,39.7000,76,98,66525
1.6716,0.0489,39.7300,76,98,66528
1.6862,0.0489,39.8600,76,98,66531
1.7107,0.0538,39.7000,76,98,66535
1.7009,0.0684,39.8300,76,98,66538
1.7351,0.0489,39.6700,76,98,66541
1.7155,0.0440,39.7700,76,98,66544
1.7253,0.0489,39.8000,76,98,66548
1.7449,0.0489,39.7000,76,98,66551
1.7449,0.0587,39.8000,76,98,66554
1.7742,0.0538,39.7000,76,98,66557
1.7498,0.0342,39.8000,76,98,66562
1.7546,0.0489,39.8000,76,98,66565
1.7937,0.0538,39.7000,76,98,66568
1.7791,0.0489,39.7700,76,98,66571
1.8084,0.0538,39.6700,76,98,66575
1.7937,0.0489,39.8000,76,98,66578
1.8035,0.0440,39.8300,76,98,66581
1.8426,0.0587,39.5700,76,98,66584
1.8280,0.0489,39.7700,76,98,66587
1.8622,0.0538,39.6000,76,98,66591
1.8475,0.0489,39.7700,76,98,66594
1.8622,0.0489,39.8300,76,98,66597
1.8768,0.0538,39.6700,76,98,66600
1.8768,0.0489,39.7700,76,98,66605
1.9110,0.0684,39.6700,76,98,66608
1.8964,0.0733,39.8000,76,98,66611
1.9110,0.0489,39.8000,76,98,66614
1.9501,0.0538,39.5400,76,98,66618
1.9306,0.0489,39.7700,76,98,66621
1.9648,0.0489,39.6400,76,98,66624
1.9453,0.0489,39.8000,76,98,66627
1.9550,0.0489,39.8300,76,98,66631
1.9990,0.0587,39.6400,76,98,66634
1.9941,0.0538,39.7000,76,98,66637
2.0088,0.0489,39.6700,76,98,66640
1.9892,0.0489,39.7700,76,98,66644
1.9941,0.0489,40.0300,76,98,66648
2.0332,0.0538,39.7000,76,98,66651
2.0137,0.0538,39.9600,76,98,66654
2.0381,0.0440,39.6700,76,98,66658
1.9990,0.0538,39.7700,76,98,66661
1.9892,0.0489,39.7700,76,98,66664
2.0186,0.0538,39.6400,76,98,66667
1.9746,0.0391,39.8300,76,98,66671
1.9697,0.0489,39.6700,76,98,66674
1.9648,0.0587,39.7700,76,98,66677
1.9062,0.0489,39.7700,76,98,66680
1.9208,0.0538,39.6700,76,98,66683
1.8671,0.0587,39.7300,76,98,66688
1.8475,0.0489,39.7000,76,98,66691
1.8133,0.0342,39.7700,76,98,66694
1.6862,0.0489,40.0000,76,98,66699
1.6813,0.0440,39.8000,76,98,66702
1.6911,0.0733,39.6400,76,98,66705
1.6520,0.0489,39.8000,76,98,66709
1.6618,0.0342,39.6700,76,98,66712
1.6276,0.0538,39.8000,76,98,66715
1.6178,0.0489,39.8000,76,98,66718
1.6520,0.0440,39.6700,76,98,66722
1.6276,0.0489,40.0000,76,98,66725
1.6422,0.0489,39.6400,76,98,66728
1.6178,0.0929,39.7700,76,98,66732
1.6227,0.0489,39.6400,76,98,66736
1.6471,0.0538,39.7300,76,98,66739
1.6471,0.0538,39.7700,76,98,66742
1.6569,0.0489,39.8600,76,98,66745
1.6373,0.0489,39.8300,76,98,66749
1.6422,0.0342,39.8000,76,98,66752
1.6764,0.0587,39.6000,76,98,66755
1.6618,0.0538,39.9600,76,98,66758
1.6813,0.0342,39.6700,76,98,66762
1.6716,0.0489,39.7700,76,98,66765
1.6764,0.0489,39.8000,76,98,66768
1.6960,0.0538,39.6400,76,98,66771
1.6960,0.0782,39.7700,76,98,66775
1.7155,0.0489,39.6700,76,98,66779
1.7058,0.0587,39.7700,76,98,66782
1.7107,0.0489,39.8000,76,98,66785
1.7400,0.0538,39.7000,76,98,66788
1.7302,0.0440,39.7700,76,98,66792
1.7449,0.0489,39.6700,76,98,66795
1.7351,0.0489,39.7700,76,98,66798
1.7498,0.0538,39.7700,76,98,66801
1.7840,0.0538,39.7700,76,98,66805
1.7546,0.0489,39.7700,76,98,66808
1.7644,0.0538,39.7000,76,98,66811
1.7546,0.0538,39.8900,76,98,66814
1.7595,0.0489,39.8000,76,98,66819
1.7986,0.0489,39.6400,76,98,66822
1.7840,0.0538,39.8300,76,98,66825
1.7986,0.0489,39.7000,76,98,66828
1.7791,0.0489,39.8600,76,98,66832
1.7791,0.0489,39.7300,76,98,66835
1.8182,0.0635,39.6400,76,98,66838
1.7937,0.0782,39.7000,76,98,66841
1.7986,0.0440,39.7000,76,98,66845
1.7937,0.0587,39.8000,76,98,66848
1.7840,0.0489,39.8900,76,98,66851
1.8280,0.0538,39.6000,76,98,66854
1.7937,0.0538,39.7300,76,98,66859
1.7937,0.0440,39.7300,76,98,66862
1.7889,0.0489,39.7700,76,98,66865
1.7840,0.0831,39.8300,76,98,66868
1.8280,0.0635,39.6000,76,98,66872
1.8084,0.0587,39.7000,76,98,66875
1.7840,0.0440,39.7700,76,98,66878
1.7840,0.0489,39.7700,76,98,66881
1.7840,0.0489,39.8000,76,98,66884
1.8377,0.0635,39.6000,76,98,66888
1.7986,0.0587,39.7000,76,98,66891
1.7889,0.0440,39.7300,76,98,66894
1.7986,0.0538,39.7700,76,98,66897
1.7937,0.0538,39.7700,76,98,66902
1.8475,0.0635,39.0000,76,98,66905
1.7986,0.0538,39.7300,76,98,66908
1.7840,0.0489,39.8300,76,98,66911
1.7986,0.0538,39.8000,76,98,66915
1.7937,0.0440,39.8300,76,98,66918
1.8524,0.0635,39.2800,76,98,66921
1.8133,0.0489,39.6400,76,98,66924
1.7986,0.0440,39.7700,76,98,66928
1.8035,0.0538,39.7700,76,98,66931
1.7986,0.0489,39.6400,76,98,66934
1.8573,0.0342,39.5400,76,98,66937
1.8231,0.0489,39.7000,76,98,66941
1.8084,0.0440,39.8000,76,98,66945
1.8133,0.0489,39.7700,76,98,66948
1.8084,0.0489,39.7700,76,98,66951
1.8622,0.0587,39.5100,76,98,66955
1.8231,0.0538,39.7300,76,98,66958
1.8328,0.0538,39.8300,76,98,66961
1.8524,0.0538,39.6000,76,98,66964
1.8426,0.0489,39.8000,76,98,66968
1.9013,0.0587,39.5100,76,98,66971
1.8622,0.0489,39.7300,76,98,66974
1.8671,0.0489,39.8000,76,98,66977
1.8817,0.0587,39.7700,76,98,66981
1.8817,0.0587,39.7700,76,98,66984
1.9404,0.0538,39.8900,76,98,66988
1.9062,0.0587,39.7300,76,98,66991
1.9062,0.0538,39.8000,76,98,66995
1.9159,0.0538,39.8300,76,98,66998
1.9110,0.0489,39.7700,76,98,67001
1.9550,0.0587,39.5100,76,98,67004
1.9013,0.0831,39.7700,76,98,67008
1.8768,0.0489,39.8900,76,98,67011
1.8915,0.0538,39.7700,76,98,67014
1.8328,0.0489,39.7700,76,98,67017
1.8671,0.0538,39.5400,76,98,67021
1.8035,0.0440,39.6700,76,98,67024
1.7986,0.0538,39.8000,76,98,67027
1.7986,0.0538,39.7700,76,98,67031
1.7742,0.0489,39.8000,76,98,67035
1.8182,0.0538,39.5400,76,98,67038
1.7840,0.0538,39.7300,76,98,67041
1.7986,0.0489,39.8000,76,98,67044
1.7644,0.0489,39.7700,76,98,67048
1.7546,0.0489,39.8000,76,98,67051
1.7937,0.0587,39.5700,76,98,67054
1.7644,0.0440,39.7000,76,98,67057
1.7546,0.0489,39.8000,76,98,67060
1.7742,0.0489,39.7300,76,98,67064
1.7595,0.0489,39.8000,76,98,67067
1.7986,0.0587,39.5400,76,98,67070
1.7693,0.0440,39.8300,76,98,67074
1.7840,0.0489,39.7700,76,98,67078
1.8133,0.0538,39.7000,76,98,67081
1.7889,0.0440,39.7700,76,98,67084
1.8280,0.0538,39.5700,76,98,67087
1.8035,0.0587,39.7000,76,98,67091
1.7889,0.0489,39.8000,76,98,67094
1.7889,0.0538,39.7300,76,98,67097
1.7498,0.0489,39.7700,76,98,67100
1.7302,0.0538,39.6700,76,98,67104
1.6911,0.0489,39.7000,76,98,67107
1.7400,0.0538,39.8000,76,98,67110
1.9159,0.0587,39.7000,76,98,67113
2.1652,0.0440,39.8000,76,98,67118
2.4780,0.0489,39.6000,76,98,67121
2.7713,0.0489,39.8000,76,98,67124
3.0743,0.0489,39.8000,76,98,67127
3.3529,0.0538,39.7000,76,98,67131
3.4604,0.0489,39.7700,76,98,67134
3.4848,0.0489,39.5400,76,98,67137
3.2551,0.0489,39.7000,76,98,67140
2.9277,0.0489,39.8000,76,98,67143
2.6149,0.0538,39.7300,76,98,67147
2.2825,0.0489,39.7700,76,98,67150
2.0577,0.0489,39.5400,76,98,67153
1.8426,0.0440,39.7300,76,98,67156
1.7302,0.0538,39.8000,76,98,67161
1.6716,0.0489,39.7000,76,98,67164
1.6520,0.0440,39.7700,76,98,67167
1.5982,0.0489,39.6400,76,98,67170
1.5640,0.0489,39.8000,76,98,67174
1.5543,0.0733,39.8300,76,98,67177
1.5689,0.0587,39.6000,76,98,67180
1.5494,0.0489,39.8000,76,98,67183
1.5689,0.0489,39.6700,76,98,67187
1.5445,0.0440,39.7300,76,98,67190
1.5445,0.0489,39.8000,76,98,67193
1.5982,0.0342,39.7000,76,98,67196
1.5787,0.0489,39.8300,76,98,67201
1.6373,0.0440,39.6700,76,98,67204
1.5982,0.0489,39.7700,76,98,67207
1.6129,0.0440,39.8600,76,98,67210
1.6520,0.0342,39.7000,76,98,67214
1.6325,0.0489,39.7300,76,98,67217
1.6716,0.0538,39.7000,76,98,67220
1.6569,0.0489,39.8000,76,98,67223
1.6569,0.0489,39.8000,76,98,67227
1.6960,0.0587,39.7000,76,98,67230
1.6911,0.0489,39.8000,76,98,67233
1.7155,0.0733,39.7000,76,98,67236
1.7058,0.0489,39.8000,76,98,67240
1.7107,0.0489,39.7700,76,98,67244
1.7400,0.0635,39.6400,76,98,67247
1.7302,0.0342,39.7700,76,98,67250
1.7546,0.0538,39.6400,76,98,67253
1.7400,0.0489,39.7700,76,98,67257
1.7498,0.0342,39.8000,76,98,67260
1.7791,0.0635,39.6700,76,98,67263
1.7742,0.0489,39.7700,76,98,67266
1.8035,0.0782,39.6400,76,98,67270
1.7889,0.0733,39.7700,76,98,67273
1.7986,0.0489,39.8000,76,98,67276
1.8719,0.0587,39.6400,76,98,67279
1.8182,0.0538,39.8300,76,98,67283
1.8475,0.0489,39.6700,76,98,67287
1.8573,0.0538,39.7700,76,98,67290
1.8377,0.0489,39.9300,76,98,67293
1.8719,0.0538,39.7300,76,98,67297
1.8573,0.0489,39.7700,76,98,67300
1.8866,0.0489,39.7000,76,98,67303
1.8719,0.0489,39.8000,76,98,67306
1.9062,0.0489,39.8000,76,98,67311
1.9355,0.0440,39.8000,76,98,67314
1.9501,0.0587,39.7300,76,98,67317
1.9355,0.0538,39.8000,76,98,67321
1.9746,0.0391,39.6700,76,98,67324
1.9550,0.0440,39.6700,76,98,67328
2.0039,0.0489,39.7700,76,98,67331
2.0039,0.0684,39.6700,76,98,67335
1.9941,0.0489,39.8000,76,98,67338
2.0283,0.0538,39.6700,76,98,67341
2.0088,0.0489,39.8000,76,98,67344
2.0137,0.0538,39.7700,76,98,67348
2.0381,0.0489,39.7000,76,98,67351
2.0283,0.0538,39.7700,76,98,67354
2.0626,0.0538,39.6700,76,98,67357
2.0332,0.0538,39.8000,76,98,67361
2.0283,0.0489,39.7700,76,98,67364
2.0626,0.0538,39.6400,76,98,67367
2.0283,0.0538,39.7700,76,98,67371
2.0381,0.0489,39.4800,76,98,67375
2.0039,0.0538,39.7700,76,98,67378
1.9795,0.0489,39.8000,76,98,67381
1.9892,0.0587,39.6700,76,98,67384
1.9795,0.0587,39.7300,76,98,67388
1.9404,0.0489,39.7000,76,98,67391
1.8964,0.0587,39.7700,76,98,67394
1.8622,0.0440,39.8000,76,98,67397
1.8573,0.0587,39.8300,76,98,67400
1.8475,0.0538,39.8000,76,98,67404
1.8133,0.0489,39.7300,76,98,67407
1.7742,0.0489,39.7700,76,98,67410
1.7498,0.0538,39.8000,76,98,67414
1.7595,0.0587,39.6700,76,98,67418
1.7155,0.0538,39.7700,76,98,67421
1.7498,0.0489,39.6700,76,98,67424
1.6911,0.0538,39.9300,76,98,67427
1.6813,0.0489,39.8900,76,98,67431
1.7009,0.0538,39.6400,76,98,67434
1.6764,0.0538,39.7300,76,98,67437
1.6764,0.0489,39.6700,76,98,67440
1.6716,0.0440,39.7700,76,98,67444
1.6667,0.0489,39.8000,76,98,67447
1.7009,0.0587,39.7000,76,98,67450
1.6862,0.0587,39.7300,76,98,67453
1.6911,0.0489,40.1300,76,98,67458
1.6764,0.0538,39.8600,76,98,67461
1.6813,0.0489,39.8000,76,98,67464
1.7253,0.0587,39.6400,76,98,67467
1.7009,0.0538,39.8000,76,98,67471
1.7155,0.0440,39.6700,76,98,67474
1.6911,0.0489,39.8000,76,98,67477
1.6862,0.0489,39.8000,76,98,67480
1.7253,0.0733,39.6400,76,98,67484
1.7107,0.0538,39.6700,76,98,67487
1.7107,0.0489,39.7000,76,98,67490
1.7058,0.0489,39.7700,76,98,67493
1.7107,0.0489,39.6700,76,98,67497
1.7595,0.0635,39.6400,76,98,67501
1.7449,0.0587,39.7300,76,98,67504
1.7449,0.0489,39.8300,76,98,67507
1.7449,0.0489,39.7700,76,98,67511
1.7595,0.0489,39.7700,76,98,67514
1.8035,0.0587,39.6000,76,98,67517
1.7693,0.0538,39.0900,76,98,67520
1.7595,0.0440,39.7300,76,98,67524
1.7693,0.0538,39.7300,76,98,67527
1.7693,0.0489,39.8000,76,98,67530
1.8182,0.0684,39.6000,76,98,67533
1.7937,0.0538,39.7000,76,98,67536
1.8182,0.0391,39.7300,76,98,67540
1.7889,0.0538,39.7700,76,98,67544
1.7937,0.0489,39.8300,76,98,67547
1.8475,0.0635,39.6000,76,98,67550
1.8182,0.0538,39.6700,76,98,67554
1.8035,0.0440,39.7300,76,98,67557
1.8182,0.0538,39.8000,76,98,67560
1.8035,0.0489,39.8300,76,98,67563
1.8671,0.0538,39.5700,76,98,67567
1.8133,0.0440,39.7300,76,98,67570
1.8084,0.0440,39.7700,76,98,67573
1.8426,0.0538,39.7700,76,98,67576
1.8035,0.0489,39.7300,76,98,67580
1.8573,0.0684,39.5400,76,98,67584
1.8231,0.0489,39.6700,76,98,67587
1.8084,0.0440,39.7300,76,98,67590
1.8133,0.0538,39.7700,76,98,67594
1.7986,0.0489,39.8000,76,98,67597
1.8524,0.0635,39.5400,76,98,67600
1.8231,0.0538,39.7000,76,98,67603
1.8231,0.0391,39.7700,76,98,67607
1.8524,0.0440,39.8000,76,98,67610
1.8084,0.0489,39.8000,76,98,67613
1.8573,0.0587,39.5100,76,98,67616
1.8133,0.0587,39.7000,76,98,67620
1.8084,0.0489,39.7700,76,98,67623
1.8328,0.0587,39.7300,76,98,67627
1.8133,0.0489,39.8000,76,98,67630
1.8671,0.0342,39.5100,76,98,67634
1.8182,0.0342,39.7000,76,98,67637
1.8133,0.0782,39.8000,76,98,67640
1.8231,0.0538,39.7700,76,98,67643
1.8133,0.0440,39.8000,76,98,67647
1.8622,0.0587,39.5100,76,98,67650
1.8280,0.0538,39.6400,76,98,67653
1.8133,0.0489,39.8000,76,98,67656
1.8182,0.0538,39.7700,76,98,67660
1.8084,0.0733,39.7700,76,98,67663
1.8622,0.0587,39.5100,76,98,67666
1.8231,0.0489,39.7700,76,98,67670
1.8231,0.0342,39.8000,76,98,67674
1.8377,0.0831,39.7700,76,98,67677
1.8182,0.0489,39.8000,76,98,67680
1.8622,0.0587,39.5100,76,98,67683
1.8133,0.0538,39.7000,76,98,67687
1.8182,0.0489,39.9300,76,98,67690
1.8328,0.0538,39.7700,76,98,67693
1.8231,0.0489,39.8000,76,98,67696
1.8719,0.0538,39.4800,76,98,67700
1.8426,0.0538,39.7000,76,98,67703
1.8524,0.0440,39.8000,76,98,67706
1.8328,0.0831,39.7300,76,98,67709
1.8231,0.0489,39.8000,76,98,67714
1.8622,0.0587,39.5700,76,98,67717
1.8231,0.0538,39.7300,76,98,67720
1.8231,0.0489,39.7300,76,98,67723
1.8426,0.0587,39.9600,76,98,67727
1.8573,0.0489,39.8000,76,98,67730
1.8671,0.0538,39.5400,76,98,67733
1.8182,0.0440,39.6700,76,98,67736
1.8182,0.0342,39.8000,76,98,67740
1.8377,0.0587,39.7300,76,98,67743
1.8280,0.0489,39.8000,76,98,67746
1.8964,0.0538,39.5400,76,98,67749
1.8573,0.0538,39.6700,76,98,67752
1.8426,0.0489,39.8300,76,98,67757
1.8573,0.0587,39.7700,76,98,67760
1.8573,0.0538,39.8000,76,98,67763
1.9110,0.0538,39.5700,76,98,67766
1.9062,0.0440,39.7700,76,98,67770
1.8768,0.0489,39.1200,76,98,67773
1.9159,0.0342,39.7000,76,98,67776
1.8964,0.0440,39.8000,76,98,67779
1.9501,0.0538,39.5700,76,98,67783
1.9404,0.0440,39.7700,76,98,67786
1.9306,0.0489,39.7300,76,98,67789
1.9550,0.0538,39.7000,76,98,67792
1.9257,0.0489,39.8300,76,98,67796
1.9648,0.0538,39.5400,76,98,67800
1.9306,0.0538,39.7000,76,98,67803
1.9013,0.0440,39.8000,76,98,67806
1.9013,0.0538,39.3200,76,98,67810
1.8671,0.0489,39.8000,76,98,67813
1.8719,0.0733,39.6400,76,98,67816
1.8182,0.0489,39.7300,76,98,67819
1.8084,0.0489,39.8000,76,98,67823
1.8231,0.0587,39.6700,76,98,67826
1.7986,0.0489,39.8000,76,98,67829
1.8182,0.0440,39.6000,76,98,67832
1.7986,0.0440,39.8300,76,98,67836
1.7742,0.0489,39.8300,76,98,67840
1.7791,0.0538,39.7000,76,98,67843
1.7742,0.0684,39.7700,76,98,67846
1.8084,0.0489,39.6000,76,98,67850
1.7889,0.0587,39.7000,76,98,67853
1.7791,0.0489,39.8300,76,98,67856
1.7889,0.0538,39.7300,76,98,67859
1.7791,0.0440,39.7700,76,98,67863
1.8035,0.0489,39.7300,76,98,67866
1.7791,0.0440,39.7700,76,98,67869
1.7889,0.0538,39.7700,76,98,67872
1.8035,0.0538,39.6700,76,98,67875
1.7889,0.0489,39.8000,76,98,67879
1.8182,0.0489,39.6400,76,98,67883
1.7937,0.0489,39.8000,76,98,67886
1.7889,0.0538,39.8000,76,98,67889
1.7937,0.0587,39.7000,76,98,67893
1.7595,0.0342,39.8000,76,98,67896
1.7107,0.0489,39.6400,76,98,67899
1.6716,0.0489,39.7300,76,98,67902
1.7253,0.0440,39.8000,76,98,67906
1.8964,0.0684,39.7700,76,98,67909
2.1310,0.0489,39.8000,76,98,67912
2.4633,0.0587,39.7000,76,98,67915
2.7664,0.0489,39.5700,77,98,67919
3.2796,0.0489,39.8000,77,98,67923
2.9619,0.0489,39.8000,77,98,67927
2.6246,0.0538,39.7700,77,98,67931
2.2776,0.0489,39.0000,77,98,67934
2.0870,0.0440,39.6000,77,98,67937
1.8524,0.0489,39.7000,77,98,67940
1.7253,0.0538,39.8000,77,98,67944
1.6618,0.0538,39.6700,77,98,67947
1.6031,0.0489,39.8000,77,98,67950
1.5934,0.0635,39.7000,77,98,67953
1.5494,0.0489,39.6700,77,98,67957
1.5396,0.0489,39.8000,77,98,67960
1.5396,0.0587,39.6400,77,98,67963
1.5200,0.0489,39.8300,77,98,67966
1.5396,0.0538,39.6700,77,98,67971
1.5249,0.0440,39.8300,77,98,67974
1.5396,0.0489,39.8000,77,98,67977
1.5591,0.0587,39.7000,77,98,67980
1.5543,0.0489,39.7300,77,98,67984
1.5836,0.0489,39.6400,77,98,67987
1.5738,0.0342,39.7000,77,98,67990
1.5836,0.0489,39.8000,77,98,67993
1.6080,0.0538,39.6400,77,98,67997
1.6373,0.0489,39.7700,77,98,68000
1.6325,0.0489,39.6000,77,98,68003
1.6178,0.0489,39.7300,77,98,68006
1.6325,0.0538,39.8300,77,98,68011
1.6520,0.0489,39.7000,77,98,68014
1.6618,0.0587,39.7700,77,98,68017
1.6911,0.0587,39.6700,77,98,68020
1.6716,0.0440,39.8300,77,98,68024
1.6862,0.0489,39.8300,77,98,68027
1.7107,0.0587,39.6700,77,98,68030
1.7107,0.0538,39.8000,77,98,68033
1.7498,0.0489,39.6700,77,98,68037
1.7498,0.0489,39.7300,77,98,68040
1.7400,0.0538,39.7700,77,98,68043
1.7546,0.0538,39.6400,77,98,68046
1.7449,0.0489,39.7700,77,98,68050
1.7840,0.0440,39.6700,77,98,68054
1.7644,0.0489,39.8900,77,98,68057
1.7742,0.0342,39.8000,77,98,68060
1.7889,0.0489,39.6700,77,98,68063
1.7889,0.0489,39.8000,77,98,68067
1.8231,0.0880,39.6700,77,98,68070
1.8035,0.0538,39.8000,77,98,68073
1.8182,0.0489,39.8000,77,98,68076
1.8573,0.0635,39.6400,77,98,68080
1.8377,0.0489,39.7300,77,98,68083
1.8719,0.0538,39.7000,77,98,68086
1.8573,0.0684,39.8000,77,98,68089
1.8671,0.0489,39.8000,77,98,68093
1.8964,0.0342,39.7300,77,98,68097
1.8915,0.0489,39.7700,77,98,68100
1.9208,0.0538,39.6400,77,98,68103
1.8964,0.0440,39.8000,77,98,68107
1.9110,0.0489,39.8000,77,98,68110
1.9453,0.0538,39.7700,77,98,68113
1.9404,0.0440,39.7700,77,98,68116
1.9697,0.0489,39.7300,77,98,68120
1.9550,0.0489,39.8000,77,98,68123
1.9648,0.0587,39.8000,77,98,68126
2.0088,0.0538,39.6000,77,98,68129
2.0039,0.0440,39.8000,77,98,68133
2.0186,0.0489,39.6700,77,98,68136
2.0039,0.0587,39.8300,77,98,68140
2.0137,0.0489,39.8000,77,98,68143
2.0479,0.0587,39.6700,77,98,68146
2.0381,0.0538,39.7300,77,98,68150
2.0479,0.0587,39.7000,77,98,68153
2.0381,0.0489,39.8000,77,98,68156
2.0430,0.0440,39.8000,77,98,68159
2.0772,0.0635,39.5700,77,98,68163
2.0674,0.0538,39.7300,77,98,68166
2.0283,0.0489,39.6400,77,98,68169
2.0137,0.0538,39.8000,77,98,68172
2.0039,0.0489,39.8000,77,98,68176
2.0381,0.0587,39.6000,77,98,68179
1.9746,0.0587,39.8300,77,98,68183
1.9501,0.0440,39.7300,77,98,68186
1.9159,0.0538,39.7700,77,98,68189
1.8866,0.0489,39.7700,77,98,68193
1.9110,0.0635,39.6000,77,98,68196
1.8671,0.0587,39.7000,77,98,68199
1.8084,0.0440,39.7700,77,98,68202
1.7889,0.0538,39.7700,77,98,68206
1.7595,0.0489,39.8000,77,98,68209
1.7889,0.0635,39.6400,77,98,68212
1.7351,0.0587,39.7000,77,98,68215
1.7009,0.0440,39.7300,77,98,68219
1.6862,0.0538,39.8000,77,98,68222
1.6716,0.0489,39.8300,77,98,68226
1.7155,0.0684,39.6000,77,98,68229
1.6716,0.0538,39.7700,77,98,68233
1.6716,0.0440,39.7700,77,98,68236
1.6667,0.0635,39.7700,77,98,68239
1.6569,0.0489,39.8000,77,98,68242
1.7009,0.0684,39.5700,77,98,68246
1.6667,0.0489,39.5700,77,98,68249
1.6716,0.0440,39.7700,77,98,68252
1.6764,0.0489,39.7700,77,98,68255
1.6716,0.0489,39.2500,77,98,68259
1.7253,0.0635,39.5400,77,98,68262
1.7204,0.0635,39.7000,77,98,68265
1.6764,0.0440,39.8000,77,98,68269
1.6911,0.0342,39.7700,77,98,68273
1.6911,0.0391,39.8300,77,98,68276
1.7449,0.0587,39.4800,77,98,68279
1.7009,0.0489,39.8000,77,98,68282
1.7009,0.0489,39.7700,77,98,68286
1.7155,0.0538,39.8000,77,98,68289
1.7058,0.0342,39.8000,77,98,68292
1.7644,0.0538,39.5400,77,98,68295
1.7351,0.0489,39.7000,77,98,68299
1.7351,0.0440,39.8300,77,98,68302
1.7498,0.0929,39.7300,77,98,68305
1.7449,0.0489,39.8900,77,98,68308
1.8035,0.0587,39.5100,77,98,68313
1.7791,0.0489,39.6700,77,98,68316
1.7693,0.0489,39.8000,77,98,68319
1.7742,0.0538,39.7700,77,98,68322
1.7693,0.0538,39.8000,77,98,68326
1.8133,0.0587,39.5700,77,98,68329
1.7742,0.0489,39.7000,77,98,68332
1.7937,0.0440,39.8000,77,98,68335
1.7937,0.0538,39.7300,77,98,68338
1.7840,0.0489,39.8000,77,98,68342
1.8182,0.0538,39.6000,77,98,68345
1.7791,0.0440,39.7300,77,98,68348
1.7840,0.0391,39.7700,77,98,68352
1.7937,0.0538,39.9600,77,98,68356
1.7937,0.0489,39.8000,77,98,68359
1.8328,0.0831,39.5700,77,98,68362
1.8035,0.0538,39.7000,77,98,68365
1.8133,0.0538,39.7700,77,98,68369
1.8084,0.0587,39.8300,77,98,68372
1.7937,0.0489,39.7700,77,98,68375
1.8377,0.0538,39.5700,77,98,68378
1.7986,0.0440,39.7700,77,98,68382
1.7937,0.0489,39.8000,77,98,68385
1.8133,0.0587,39.7000,77,98,68388
1.7937,0.0489,40.0000,77,98,68391
1.8231,0.0538,39.5700,77,98,68396
1.8231,0.0489,39.8000,77,98,68399
1.7937,0.0489,39.8300,77,98,68402
1.8133,0.0538,39.7300,77,98,68405
1.7889,0.0440,39.7700,77,98,68409
1.8280,0.0538,39.6400,77,98,68412
1.8084,0.0538,39.7300,77,98,68415
1.7986,0.0440,39.8300,77,98,68418
1.8084,0.0538,39.7700,77,98,68422
1.7986,0.0489,39.8000,77,98,68425
1.8280,0.0587,39.6000,77,98,68428
1.7937,0.0489,39.7300,77,98,68431
1.7937,0.0489,39.7700,77,98,68435
1.8133,0.0587,39.7000,77,98,68439
1.7937,0.0489,39.5400,77,98,68442
1.8182,0.0489,39.6000,77,98,68445
1.8133,0.0587,39.8000,77,98,68449
1.7937,0.0489,40.0000,77,98,68452
1.8182,0.0538,39.7000,77,98,68455
1.7986,0.0440,39.8000,77,98,68458
1.8182,0.0489,39.6000,77,98,68461
1.7986,0.0489,39.7000,77,98,68465
1.7986,0.0489,39.8000,77,98,68468
1.8182,0.0538,39.7000,77,98,68471
1.8084,0.0489,39.8000,77,98,68474
1.8377,0.0489,39.6400,77,98,68478
1.7986,0.0489,39.8300,77,98,68482
1.7986,0.0489,39.8600,77,98,68485
1.8133,0.0538,39.6700,77,98,68488
1.8035,0.0489,39.8300,77,98,68492
1.8328,0.0489,39.6700,77,98,68495
1.8084,0.0489,39.8000,77,98,68498
1.8084,0.0489,39.8000,77,98,68501
1.8426,0.0342,39.7000,77,98,68505
1.8084,0.0489,39.8000,77,98,68508
1.8426,0.0489,39.6700,77,98,68511
1.8475,0.0391,39.7300,77,98,68514
1.8182,0.0489,39.8000,77,98,68518
1.8280,0.0587,39.7300,77,98,68521
1.8133,0.0538,39.7700,77,98,68525
1.8426,0.0538,39.7000,77,98,68528
1.8182,0.0489,39.8300,77,98,68532
1.8133,0.0489,39.7000,77,98,68536
1.8328,0.0440,39.8000,77,98,68539
1.8573,0.0587,39.6700,77,98,68543
1.8524,0.0538,39.8000,77,98,68546
1.8817,0.0342,39.6400,77,98,68549
1.8622,0.0489,39.7000,77,98,68552
1.8622,0.0489,39.7700,77,98,68556
1.8817,0.0538,39.7300,77,98,68559
1.8817,0.0489,39.8000,77,98,68562
1.9208,0.0489,39.6400,77,98,68566
1.8964,0.0489,39.7700,77,98,68570
1.9110,0.0684,39.8000,77,98,68573
1.9355,0.0538,39.6700,77,98,68576
1.9208,0.0538,39.8000,77,98,68579
1.9453,0.0489,39.6400,77,98,68582
1.9208,0.0342,39.8000,77,98,68586
1.9062,0.0489,39.8000,77,98,68589
1.9208,0.0538,39.6400,77,98,68592
1.8768,0.0489,39.7700,77,98,68595
1.8817,0.0489,39.6000,77,98,68599
1.8377,0.0489,39.7300,77,98,68602
1.8231,0.0489,39.8300,77,98,68605
1.8231,0.0538,39.7700,77,98,68609
1.8084,0.0489,39.8000,77,98,68613
1.8231,0.0733,39.6700,77,98,68616
1.7889,0.0489,39.7700,77,98,68619
1.7791,0.0489,39.7700,77,98,68622
1.7791,0.0391,39.6700,77,98,68626
1.7644,0.0489,39.8000,77,98,68629
1.8035,0.0587,39.6700,77,98,68632
1.7546,0.0391,39.8000,77,98,68635
1.7595,0.0489,39.8000,77,98,68639
1.7986,0.0635,39.6400,77,98,68642
1.7644,0.0440,39.8000,77,98,68645
1.7840,0.0538,39.7000,77,98,68648
1.7546,0.0684,39.8000,77,98,68653
1.7595,0.0489,39.8000,77,98,68656
1.7840,0.0587,39.7300,77,98,68659
1.7742,0.0538,39.6700,77,98,68662
1.7986,0.0538,39.6700,77,98,68666
1.7937,0.0489,39.8000,77,98,68669
1.7742,0.0587,39.7700,77,98,68672
1.7889,0.0538,39.8300,77,98,68675
1.7595,0.0538,39.7700,77,98,68679
1.7449,0.0538,39.6400,77,98,68682
1.6862,0.0635,39.8000,77,98,68685
1.6813,0.0489,39.8000,77,98,68688
1.7644,0.0587,39.7000,77,98,68692
1.8915,0.0538,39.7700,77,98,68696
2.1603,0.0538,39.7000,77,98,68699
2.4682,0.0538,39.7700,77,98,68702
2.7761,0.0489,39.6700,77,98,68706
3.1232,0.0538,39.7300,77,98,68709
3.3480,0.0538,39.7700,77,98,68712
3.5386,0.0684,39.6400,77,98,68715
3.4800,0.0489,39.8000,77,98,68719
3.2845,0.0489,39.8000,77,98,68722
2.9912,0.0587,39.7000,77,98,68725
2.6149,0.0538,39.7700,77,98,68728
2.3069,0.0489,39.6400,77,98,68731
2.0137,0.0538,39.8000,77,98,68736
1.8280,0.0587,39.8000,77,98,68739
1.7351,0.0587,39.6700,77,98,68742
1.6325,0.0538,39.7700,77,98,68745
1.5885,0.0489,39.7000,77,98,68749
1.5396,0.0538,39.8900,77,98,68752
1.5152,0.0489,39.8000,77,98,68755
1.5298,0.0635,39.7000,77,98,68758
1.5054,0.0538,39.8000,77,98,68762
1.5103,0.0342,39.7000,77,98,68765
1.4907,0.0440,39.8300,77,98,68768
1.4956,0.0489,39.8000,77,98,68771
1.5591,0.0538,39.7000,77,98,68775
1.5103,0.0489,39.7300,77,98,68779
1.5298,0.0489,39.7000,77,98,68782
1.5298,0.0489,39.8000,77,98,68785
1.5396,0.0489,39.8000,77,98,68789
1.5787,0.0587,39.6400,77,98,68792
1.5640,0.0538,39.8000,77,98,68795
1.5787,0.0489,39.7300,77,98,68798
1.5836,0.0538,39.8000,77,98,68802
1.5934,0.0440,39.8000,77,98,68805
1.6422,0.0635,39.6400,77,98,68808
1.6569,0.0538,39.7300,77,98,68811
1.6325,0.0489,39.7300,77,98,68815
1.6373,0.0538,39.8000,77,98,68818
1.6618,0.0342,39.8000,77,98,68822
1.7058,0.0978,39.6000,77,98,68825
1.6862,0.0342,39.7300,77,98,68828
1.6813,0.0391,39.7000,77,98,68832
1.6813,0.0489,39.7000,77,98,68835
1.6911,0.0489,39.8000,77,98,68838
1.7498,0.0635,39.5700,77,98,68841
1.7204,0.0538,39.8300,77,98,68845
1.7498,0.0489,39.7300,77,98,68848
1.7302,0.0538,39.7700,77,98,68851
1.7302,0.0489,39.8000,77,98,68854
1.7889,0.0733,39.5700,77,98,68858
1.7693,0.0538,39.8300,77,98,68861
1.7546,0.0440,39.7700,77,98,68865
1.7644,0.0782,39.8300,77,98,68868
1.7693,0.0489,39.7700,77,98,68872
1.8328,0.0684,39.5700,77,98,68875
1.7986,0.0684,39.7700,77,98,68878
1.8035,0.0440,39.7700,77,98,68881
1.8182,0.0538,39.8000,77,98,68885
1.8182,0.0489,39.6700,77,98,68888
1.8768,0.0635,39.5700,77,98,68891
1.8280,0.0440,39.7300,77,98,68894
1.8426,0.0489,40.2000,77,98,68898
1.8671,0.0538,39.7700,77,98,68901
1.8622,0.0538,39.8300,77,98,68904
1.9208,0.0635,39.8300,77,98,68908
1.8915,0.0489,39.7000,77,98,68912
1.8915,0.0489,39.7700,77,98,68915
1.9110,0.0538,39.6700,77,98,68918
1.9257,0.0489,39.8000,77,98,68921
2.0088,0.0587,39.5400,77,98,68925
1.9550,0.0538,39.7300,77,98,68928
1.9795,0.0440,39.8000,77,98,68931
1.9599,0.0587,39.7700,77,98,68934
1.9697,0.0489,39.7700,77,98,68938
2.0528,0.0587,39.5100,77,98,68941
1.9941,0.0489,39.7700,77,98,68944
1.9990,0.0489,40.0300,77,98,68947
2.0186,0.0587,39.7300,77,98,68951
2.0039,0.0538,39.8000,77,98,68955
2.0577,0.0587,39.5100,77,98,68958
2.0088,0.0489,39.7300,77,98,68961
2.0039,0.0538,39.8000,77,98,68964
2.0137,0.0538,39.8000,77,98,68968
1.9844,0.0489,39.8000,77,98,68971
2.0186,0.0684,39.5100,77,98,68974
1.9697,0.0538,39.7000,77,98,68977
1.9404,0.0587,39.8000,77,98,68981
1.9257,0.0538,39.9300,77,98,68984
1.8915,0.0489,39.7700,77,98,68987
1.9013,0.0635,39.6400,77,98,68990
1.8328,0.0538,39.6700,77,98,68995
1.8084,0.0489,39.8000,77,98,68998
1.8035,0.0538,39.7000,77,98,69001
1.7546,0.0489,39.8000,77,98,69004
1.7595,0.0440,39.5700,77,98,69008
1.7058,0.0489,39.6700,77,98,69011
1.6862,0.0489,39.8000,77,98,69014
1.6911,0.0635,39.7000,77,98,69017
1.6569,0.0489,39.8300,77,98,69020
1.6862,0.0538,39.6000,77,98,69024
1.6422,0.0489,39.7000,77,98,69027
1.6276,0.0489,39.8000,77,98,69030
1.6276,0.0538,39.7300,77,98,69033
1.6178,0.0489,39.8000,77,98,69038
1.6422,0.0489,39.6000,77,98,69041
1.6178,0.0587,39.8300,77,98,69044
1.6178,0.0489,39.8600,77,98,69047
1.6422,0.0440,39.6400,77,98,69051
1.6227,0.0635,39.8000,77,98,69054
1.6520,0.0489,39.6400,77,98,69057
1.6422,0.0489,39.8000,77,98,69060
1.6422,0.0489,39.7300,77,98,69064
1.6569,0.0538,39.6700,77,98,69067
1.6422,0.0489,39.8000,77,98,69070
1.6667,0.0538,39.6000,77,98,69073
1.6520,0.0587,39.7300,77,98,69078
1.6764,0.0489,39.8000,77,98,69081
1.6813,0.0587,39.7300,77,98,69084
1.6764,0.0489,39.7700,77,98,69087
1.7107,0.0342,39.6700,77,98,69091
1.6911,0.0684,39.7300,77,98,69094
1.7009,0.0489,39.8300,77,98,69097
1.7204,0.0342,39.6700,77,98,69100
1.7155,0.0489,39.7300,77,98,69104
1.7400,0.0342,39.6700,77,98,69107
1.7107,0.0489,39.8000,77,98,69110
1.7155,0.0489,39.8300,77,98,69113
1.7449,0.0587,39.6700,77,98,69117
1.7204,0.0587,39.8000,77,98,69121
1.7546,0.0489,39.8900,77,98,69124
1.7253,0.0440,39.7700,77,98,69127
1.7693,0.0538,39.8000,77,98,69131
1.7449,0.0587,39.7300,77,98,69134
1.7351,0.0538,39.9600,77,98,69137
1.7693,0.0342,39.6700,77,98,69140
1.7449,0.0489,39.5700,77,98,69144
1.7498,0.0489,39.8000,77,98,69148
1.7546,0.0489,39.8300,77,98,69151
1.7840,0.0587,39.7000,77,98,69155
1.7595,0.0440,39.8000,77,98,69158
1.7937,0.0538,39.5700,77,98,69161
1.7693,0.0489,39.7000,77,98,69165
1.7644,0.0489,39.8000,77,98,69169
1.7693,0.0538,39.7700,77,98,69172
1.7595,0.0489,39.8300,77,98,69175
1.7889,0.0489,39.6400,77,98,69178
1.7693,0.0440,39.7700,77,98,69182
1.7644,0.0489,39.8600,77,98,69185
1.7889,0.0342,39.6400,77,98,69188
1.7693,0.0587,39.7700,77,98,69191
1.7986,0.0538,39.8000,77,98,69195
1.7644,0.0489,39.8000,77,98,69198
1.7644,0.0440,39.8000,77,98,69201
1.7840,0.0587,39.7000,77,98,69204
1.7693,0.0538,39.8000,77,98,69209
1.7889,0.0489,39.7000,77,98,69212
1.7742,0.0489,39.7300,77,98,69215
1.7840,0.0489,39.8000,77,98,69218
1.7840,0.0587,39.7000,77,98,69221
1.7742,0.0538,39.8000,77,98,69225
1.8035,0.0587,39.6700,77,98,69228
1.7742,0.0489,39.8300,77,98,69231
1.7937,0.0440,39.8000,77,98,69234
1.7840,0.0538,39.7700,77,98,69238
1.7693,0.0587,39.7700,77,98,69241
1.7937,0.0538,39.6700,77,98,69244
1.7644,0.0538,39.8000,77,98,69248
1.7693,0.0489,39.8000,77,98,69252
1.7986,0.0538,39.6700,77,98,69255
1.7693,0.0489,39.8600,77,98,69258
1.7986,0.0342,39.7000,77,98,69261
1.7644,0.0538,39.7300,77,98,69265
1.7693,0.0489,39.8000,77,98,69268
1.8182,0.0538,39.7300,77,98,69271
1.7742,0.0880,39.7700,77,98,69274
1.8035,0.0538,39.7000,77,98,69278
1.7693,0.0538,39.8300,77,98,69281
1.7742,0.0489,39.8300,77,98,69284
1.7889,0.0587,39.7300,77,98,69287
1.7742,0.0538,39.8300,77,98,69292
1.7986,0.0538,39.8000,77,98,69295
1.7693,0.0489,39.8000,77,98,69298
1.7693,0.0489,39.8300,77,98,69301
1.8035,0.0635,39.6000,77,98,69305
1.7889,0.0489,39.8000,77,98,69308
1.8231,0.0538,39.6400,77,98,69311
1.8035,0.0538,39.7300,77,98,69314
1.8084,0.0489,39.8000,77,98,69317
1.8377,0.0635,39.7700,77,98,69321
1.8328,0.0538,39.7700,77,98,69324
1.8573,0.0538,39.6400,77,98,69327
1.8475,0.0538,39.8000,77,98,69330
1.8622,0.0489,39.8000,77,98,69335
1.8817,0.0587,39.7700,77,98,69338
1.8768,0.0782,39.7300,77,98,69341
1.9013,0.0538,39.6700,77,98,69344
1.8768,0.0538,39.8000,77,98,69348
1.8768,0.0489,39.8000,77,98,69351
1.9013,0.0587,39.6400,77,98,69354
1.8573,0.0342,39.8000,77,98,69357
1.8573,0.0538,39.6000,77,98,69361
1.8133,0.0538,39.8000,77,98,69364
1.7986,0.0489,39.8000,77,98,69367
1.8133,0.0587,39.6700,77,98,69370
1.7889,0.0538,39.7700,77,98,69374
1.8084,0.0538,39.7000,77,98,69378
1.7595,0.0538,39.8000,77,98,69381
1.7546,0.0489,39.8000,77,98,69384
1.7840,0.0635,39.7000,77,98,69388
1.7498,0.0587,39.8000,77,98,69391
1.7595,0.0489,39.7000,77,98,69394
1.7400,0.0538,39.8000,77,98,69397
1.7351,0.0489,39.7700,77,98,69401
1.7644,0.0538,39.6000,77,98,69404
1.7400,0.0538,39.8000,77,98,69407
1.7449,0.0489,39.7000,77,98,69410
1.7400,0.0538,39.7700,77,98,69414
1.7351,0.0489,39.7300,77,98,69417
1.7742,0.0635,39.6400,77,98,69421
1.7595,0.0538,39.7700,77,98,69424
1.7498,0.0489,39.7300,77,98,69428
1.7351,0.0538,39.7700,77,98,69431
1.7351,0.0489,39.8300,77,98,69434
1.7742,0.0635,39.7000,77,98,69437
1.7498,0.0538,39.7700,77,98,69441
1.7546,0.0489,39.7000,77,98,69444
1.7253,0.0538,39.8000,77,98,69447
1.6716,0.0489,39.7700,77,98,69450
1.6862,0.0587,39.6400,77,98,69454
1.6764,0.0538,39.7700,77,98,69457
1.7889,0.0782,39.7000,77,98,69460
1.9844,0.0538,39.7700,77,98,69464
2.2532,0.0342,39.8000,77,98,69468
2.6491,0.0635,39.6700,77,98,69471
2.9423,0.0587,39.7700,77,98,69474
3.2063,0.0440,39.7000,77,98,69477
3.3627,0.0538,39.8000,77,98,69480
3.3969,0.0489,39.8000,77,98,69484
3.3480,0.0831,39.6000,77,98,69487
3.0303,0.0538,39.7300,77,98,69490
2.6979,0.0489,39.7300,77,98,69493
2.3851,0.0538,39.8000,77,98,69497
2.1114,0.0538,39.8000,77,98,69500
1.9453,0.0635,39.6000,77,98,69504
1.7449,0.0635,39.7300,77,98,69507
1.6471,0.0440,39.7700,77,98,69511
1.5934,0.0587,39.7700,77,98,69514
1.5445,0.0489,39.6700,77,98,69517
1.5689,0.0684,39.5700,77,98,69520
1.5200,0.0587,39.7000,77,98,69524
1.4956,0.0489,39.7000,77,98,69527
1.5054,0.0342,39.8000,77,98,69530
1.4956,0.0538,39.8000,77,98,69533
1.5445,0.0684,39.5400,77,98,69537
1.5152,0.0635,39.7300,77,98,69540
1.5005,0.0489,39.8000,77,98,69543
1.5152,0.0538,39.7700,77,98,69547
1.5200,0.0538,39.8300,77,98,69551
1.5836,0.0684,39.5700,77,98,69554
1.5640,0.0538,39.7300,77,98,69557
1.5689,0.0440,39.8000,77,98,69560
1.5836,0.0538,39.9600,77,98,69564
1.5934,0.0342,39.8000,77,98,69567
1.6422,0.0587,39.5700,77,98,69570
1.6178,0.0489,39.6700,77,98,69573
1.6276,0.0489,39.8300,77,98,69577
1.6618,0.0538,39.7700,77,98,69580
1.6422,0.0587,39.8300,77,98,69583
1.6911,0.0587,39.6000,77,98,69586
1.6667,0.0538,39.7300,77,98,69591
1.6618,0.0587,39.8300,77,98,69594
1.6716,0.0635,39.8000,77,98,69597
1.6764,0.0489,39.8000,77,98,69600
1.7595,0.0635,39.5100,77,98,69604
1.6960,0.0489,39.8300,77,98,69607
1.7107,0.0489,39.8000,77,98,69610
1.7400,0.0538,39.7300,77,98,69613
1.7351,0.0489,39.8000,77,98,69616
1.7840,0.0587,39.5400,77,98,69620
1.7498,0.0489,39.7700,77,98,69623
1.7595,0.0440,39.8300,77,98,69626
1.7791,0.0587,39.7300,77,98,69629
1.7840,0.0684,39.8000,77,98,69634
1.8377,0.0538,39.5400,77,98,69637
1.8133,0.0489,39.7300,77,98,69640
1.8035,0.0538,39.8000,77,98,69643
1.8231,0.0538,39.7700,77,98,69647
1.8182,0.0538,39.8000,77,98,69650
1.8719,0.0587,39.5400,77,98,69653
1.8426,0.0342,39.7700,77,98,69656
1.8475,0.0538,39.7700,77,98,69660
1.8768,0.0587,39.7300,77,98,69663
1.8768,0.0440,39.8000,77,98,69666
1.9159,0.0587,39.6000,77,98,69669
1.8817,0.0440,39.7700,77,98,69673
1.8915,0.0587,39.8300,77,98,69677
1.9159,0.0587,39.9300,77,98,69680
1.9110,0.0538,39.1600,77,98,69683
1.9648,0.0342,39.5400,77,98,69687
1.9550,0.0538,39.7000,77,98,69690
1.9501,0.0489,39.8000,77,98,69693
1.9746,0.0538,39.7700,77,98,69696
1.9648,0.0538,39.7700,77,98,69700
2.0088,0.0538,39.5700,77,98,69703
1.9990,0.0440,39.7700,77,98,69706
1.9941,0.0489,39.8600,77,98,69709
2.0235,0.0342,39.7000,77,98,69713
1.9990,0.0538,39.6400,77,98,69716
2.0381,0.0342,39.6000,77,98,69720
2.0039,0.0684,39.8000,77,98,69723
2.0137,0.0440,39.8000,77,98,69726
2.0332,0.0587,39.9300,77,98,69730
2.0137,0.0538,39.8000,77,98,69733
2.0332,0.0538,39.7000,77,98,69736
1.9990,0.0489,39.7300,77,98,69739
1.9795,0.0440,39.8000,77,98,69743
1.9746,0.0733,39.7000,77,98,69746
1.9404,0.0538,39.8000,77,98,69749
1.9404,0.0587,39.6700,77,98,69752
1.8817,0.0538,39.1200,77,98,69756
1.7546,0.0440,39.7700,77,98,69761
1.7351,0.0440,39.8300,77,98,69764
1.7302,0.0587,39.7300,77,98,69768
1.6862,0.0538,39.8300,77,98,69771
1.7155,0.0587,39.5700,77,98,69774
1.6862,0.0538,39.6400,77,98,69777
1.6764,0.0489,39.8000,77,98,69781
1.6716,0.0538,39.7700,77,98,69784
1.6520,0.0538,39.8000,77,98,69787
1.6862,0.0587,39.5700,77,98,69790
1.6471,0.0587,39.7700,77,98,69794
1.6520,0.0489,39.8300,77,98,69797
1.6716,0.0342,39.7000,77,98,69800
1.6520,0.0538,39.7300,77,98,69804
1.6862,0.0538,39.6000,77,98,69808
1.6520,0.0342,39.8300,77,98,69811
1.6618,0.0489,39.8000,77,98,69814
1.6862,0.0635,39.7000,77,98,69817
1.6716,0.0587,39.7700,77,98,69821
1.7009,0.0587,39.6000,77,98,69824
1.6813,0.0342,39.6700,77,98,69827
1.6764,0.0587,39.8000,77,98,69830
1.6911,0.0538,39.7700,77,98,69834
1.6960,0.0538,39.8900,77,98,69837
1.7302,0.0440,39.6000,77,98,69840
1.7107,0.0538,39.7700,77,98,69843
1.7155,0.0489,39.8300,77,98,69848
1.7693,0.0587,39.5700,77,98,69851
1.7253,0.0538,39.7300,77,98,69854
1.7595,0.0538,39.6400,77,98,69857
1.7449,0.0538,39.8000,77,98,69861
1.7449,0.0489,39.8000,77,98,69864
1.7644,0.0587,39.6700,77,98,69867
1.7498,0.0538,39.8000,77,98,69870
1.7742,0.0538,39.6700,77,98,69874
1.7644,0.0489,39.7000,77,98,69877
1.7889,0.0440,39.8000,77,98,69880
1.7840,0.0538,39.7700,77,98,69883
1.7742,0.0538,39.8000,77,98,69888
1.7937,0.0538,39.6700,77,98,69891
1.7791,0.0538,39.7300,77,98,69894
1.7840,0.0489,39.8000,77,98,69897
1.7986,0.0782,39.6700,77,98,69900
1.7889,0.0538,39.8000,77,98,69904
1.8133,0.0587,39.6400,77,98,69907
1.7889,0.0587,39.7700,77,98,69910
1.7937,0.0489,39.8600,77,98,69913
1.8231,0.0342,39.7000,77,98,69917
1.7986,0.0440,39.7700,77,98,69920
1.8231,0.0489,39.6000,77,98,69923
1.7986,0.0489,39.7300,77,98,69926
1.7986,0.0538,39.8300,77,98,69931
1.8133,0.0538,39.0600,77,98,69934
1.8133,0.0440,39.8000,77,98,69937
1.8377,0.0538,39.7000,77,98,69940
1.8084,0.0538,39.8000,77,98,69944
1.8328,0.0440,39.8300,77,98,69947
1.8084,0.0538,39.6700,77,98,69950
1.8133,0.0538,39.8000,77,98,69953
1.8328,0.0587,39.7000,77,98,69957
1.8084,0.0538,39.8300,77,98,69960
1.8084,0.0489,39.8000,77,98,69963
1.8377,0.0489,39.7000,77,98,69966
1.8084,0.0538,39.8000,77,98,69970
1.8377,0.0342,39.7000,77,98,69974
1.8084,0.0635,39.8000,77,98,69977
1.8133,0.0342,39.7700,77,98,69980
1.8280,0.0587,39.7300,77,98,69984
1.8133,0.0538,39.7700,77,98,69987
1.8280,0.0538,39.6700,77,98,69990
1.7986,0.0538,39.8000,77,98,69993
1.8084,0.0538,39.8000,77,98,69997
1.8280,0.0587,39.7300,77,98,70000
1.8231,0.0587,39.7700,77,98,70003
1.8328,0.0538,39.6700,77,98,70006
1.8084,0.0587,39.8300,77,98,70010
1.8133,0.0538,39.8300,77,98,70013
1.8573,0.0587,39.7000,77,98,70017
1.8182,0.0489,39.7700,77,98,70020
1.8426,0.0538,39.6400,77,98,70024
1.8280,0.0538,39.8000,77,98,70027
1.8133,0.0587,39.7700,77,98,70030
1.8377,0.0587,39.7000,77,98,70033
1.8280,0.0587,39.7700,77,98,70037
1.8377,0.0538,39.6700,77,98,70040
1.8133,0.0538,39.8000,77,98,70043
1.8280,0.0489,39.8000,77,98,70046
1.8524,0.0635,39.7300,77,98,70049
1.8524,0.0538,39.8000,77,98,70053
1.8768,0.0587,39.6700,77,98,70056
1.8671,0.0440,39.8000,77,98,70060
1.8768,0.0342,39.8300,77,98,70063
1.9110,0.0684,39.6000,77,98,70067
1.8915,0.0538,39.7700,77,98,70070
1.9208,0.0538,39.7000,77,98,70073
1.9062,0.0587,39.8000,77,98,70076
1.9159,0.0489,39.8600,77,98,70080
1.9844,0.0538,39.7000,77,98,70083
1.9355,0.0635,39.7700,77,98,70086
1.9453,0.0538,39.7300,77,98,70089
1.9306,0.0587,39.8300,77,98,70093
1.9159,0.0538,39.7700,77,98,70096
1.9355,0.0635,39.7000,77,98,70099
1.8915,0.0538,39.7300,77,98,70103
1.8866,0.0538,39.7300,77,98,70107
1.8475,0.0538,39.7700,77,98,70110
1.8328,0.0538,39.8000,77,98,70113
1.8573,0.0880,39.6000,77,98,70116
1.8231,0.0538,39.7000,77,98,70120
1.8231,0.0440,39.6700,77,98,70123
1.7986,0.0489,39.8300,77,98,70126
1.7889,0.0538,39.8300,77,98,70129
1.8328,0.0635,39.6700,77,98,70133
1.7986,0.0635,39.7700,77,98,70136
1.7889,0.0489,39.7000,77,98,70139
1.7742,0.0538,39.7700,77,98,70142
1.7742,0.0538,39.7700,77,98,70147
1.8035,0.0929,39.6400,77,98,70150
1.7742,0.0538,39.7300,77,98,70153
1.7840,0.0489,39.7300,77,98,70156
1.7791,0.0538,39.8000,77,98,70160
1.7791,0.0538,39.8900,77,98,70163
1.8231,0.0635,39.6400,77,98,70166
1.7889,0.0538,39.7700,77,98,70169
1.7986,0.0684,39.7000,77,98,70173
1.7986,0.0538,39.7700,77,98,70176
1.7937,0.0489,39.8300,77,98,70179
1.8328,0.0684,39.6700,77,98,70182
1.7986,0.0587,39.7300,77,98,70187
1.7595,0.0587,39.7300,77,98,70190
1.7204,0.0538,39.6400,77,98,70193
1.6960,0.0538,39.8000,77,98,70196
1.7742,0.0684,39.6400,77,98,70200
1.8475,0.0538,39.7000,77,98,70203
2.0430,0.0489,39.7300,77,98,70206
2.3314,0.0587,39.8300,77,98,70209
2.6393,0.0538,39.8300,77,98,70213
3.0352,0.0635,39.6000,77,98,70216
3.2698,0.0587,39.7300,77,98,70219
3.4653,0.0538,39.7300,77,98,70222
3.5142,0.0538,39.7700,77,98,70226
3.3822,0.0538,39.8000,77,98,70230
3.1916,0.0684,39.6400,77,98,70233
2.8055,0.0635,39.7000,77,98,70236
2.4438,0.0538,39.7300,77,98,70239
2.1603,0.0538,39.8600,77,98,70243
1.9306,0.0538,39.8000,77,98,70246
1.8377,0.0733,39.5700,77,98,70249
1.7058,0.0587,39.7700,77,98,70252
1.6422,0.0489,39.7700,77,98,70256
1.5982,0.0587,39.8000,77,98,70259
1.5689,0.0538,39.8000,77,98,70262
1.5934,0.0635,39.5700,77,98,70265
1.5445,0.0587,39.7300,77,98,70269
1.5200,0.0489,39.8300,77,98,70273
1.5445,0.0538,39.7700,77,98,70276
1.5347,0.0635,39.7700,77,98,70279
1.5787,0.0684,39.5700,77,98,70283
1.5543,0.0538,39.6400,77,98,70286
1.5494,0.0489,39.7700,77,98,70289
1.5591,0.0538,39.7700,77,98,70292
1.5689,0.0538,39.6700,77,98,70296
1.6227,0.0684,39.5700,77,98,70299
1.5982,0.0929,39.7000,77,98,70302
1.6031,0.0489,39.8000,77,98,70305
1.6178,0.0587,39.8000,77,98,70309
1.6227,0.0635,39.8300,77,98,70312
1.6862,0.0684,39.4800,77,98,70316
1.6520,0.0538,39.7700,77,98,70319
1.6618,0.0342,39.8000,77,98,70323
1.6764,0.0538,39.7300,77,98,70326
1.6813,0.0538,39.8000,77,98,70329
1.7302,0.0635,39.5400,77,98,70332
1.7107,0.0538,39.7000,77,98,70336
1.7155,0.0489,39.7700,77,98,70339
1.7253,0.0538,39.7700,77,98,70342
1.7204,0.0538,39.8000,77,98,70345
1.7791,0.0635,39.4800,77,98,70349
1.7595,0.0538,39.7700,77,98,70352
1.7546,0.0538,39.8000,77,98,70355
1.7742,0.0782,39.8000,77,98,70359
1.7791,0.0538,39.8000,77,98,70363
1.8328,0.0587,39.5100,77,98,70366
1.8622,0.0635,39.7000,77,98,70371
1.8475,0.0587,39.7300,77,98,70374
1.8475,0.0489,39.6700,77,98,70377
1.8426,0.0538,39.8000,77,98,70380
1.8573,0.0538,39.8300,77,98,70384
1.9013,0.0880,39.6700,77,98,70387
1.8719,0.0538,39.7700,77,98,70390
1.8768,0.0489,39.7000,77,98,70393
1.8817,0.0538,39.7700,77,98,70396
1.8915,0.0538,39.8000,77,98,70401
1.9599,0.0538,39.6000,77,98,70404
1.9208,0.0587,39.7300,77,98,70407
1.9306,0.0489,39.7300,77,98,70410
1.9404,0.0635,39.7700,77,98,70414
1.9404,0.0538,39.8000,77,98,70417
2.0039,0.0684,39.6000,77,98,70420
1.9795,0.0635,39.6700,77,98,70423
1.9746,0.0489,39.7300,77,98,70427
1.9844,0.0587,39.8000,77,98,70430
1.9892,0.0489,39.8000,77,98,70433
2.0577,0.0684,39.6000,77,98,70436
2.0235,0.0489,39.7300,77,98,70440
2.0186,0.0489,39.7700,77,98,70444
2.0235,0.0342,39.7700,77,98,70447
2.0186,0.0587,39.8000,77,98,70450
2.0723,0.0684,39.5700,77,98,70454
2.0235,0.0587,39.7700,77,98,70457
2.0186,0.0489,39.8000,77,98,70460
2.0332,0.0587,39.7300,77,98,70463
2.0088,0.0538,39.8000,77,98,70467
2.0674,0.0587,39.5100,77,98,70470
1.9844,0.0489,39.6700,77,98,70473
1.9501,0.0489,39.8300,77,98,70476
1.9355,0.0635,39.7300,77,98,70479
1.8964,0.0538,39.8300,77,98,70483
1.9257,0.0587,39.8000,77,98,70487
1.8671,0.0587,39.7000,77,98,70490
1.8231,0.0538,39.8600,77,98,70493
1.8035,0.0538,39.7300,77,98,70497
1.8084,0.0538,39.7700,77,98,70500
1.8035,0.0538,39.5400,77,98,70503
1.7449,0.0538,39.8300,77,98,70506
1.7204,0.0342,39.8000,77,98,70510
1.7155,0.0587,39.7700,77,98,70513
1.6862,0.0538,39.8000,77,98,70516
1.7204,0.0538,39.5400,77,98,70519
1.6862,0.0538,39.6700,77,98,70523
1.6716,0.0538,39.8000,77,98,70526
1.6862,0.0587,39.7300,77,98,70530
1.6667,0.0342,39.8300,77,98,70533
1.7009,0.0635,39.5100,77,98,70537
1.6764,0.0538,39.7300,77,98,70540
1.6569,0.0587,39.8000,77,98,70543
1.6716,0.0587,39.7700,77,98,70546
1.6667,0.0538,39.8000,77,98,70550
1.7107,0.0587,39.5700,77,98,70553
1.6813,0.0489,39.7700,77,98,70556
1.6813,0.0538,39.8600,77,98,70559
1.7009,0.0587,39.7300,77,98,70563
1.6862,0.0587,39.8300,77,98,70566
1.7253,0.0587,39.5700,77,98,70569
1.6862,0.0489,39.8000,77,98,70573
1.6911,0.0440,39.8300,77,98,70577
1.7155,0.0587,39.6700,77,98,70580
1.7107,0.0538,39.8000,77,98,70583
1.7595,0.0587,39.5700,77,98,70586
1.7400,0.0587,39.6700,77,98,70590
1.7253,0.0489,39.8000,77,98,70593
1.7400,0.0587,39.7700,77,98,70596
1.7302,0.0489,39.8000,77,98,70599
1.7742,0.0587,39.6000,77,98,70603
1.7595,0.0635,39.7300,77,98,70606
1.7546,0.0538,39.8000,77,98,70609
1.7742,0.0635,39.7000,77,98,70612
1.7644,0.0831,39.8300,77,98,70617
1.7937,0.0587,39.6700,77,98,70620
1.7595,0.0489,39.8900,77,98,70623
1.7742,0.0440,39.8000,77,98,70626
1.7889,0.0635,39.7700,77,98,70630
1.7742,0.0538,39.8000,77,98,70633
1.8084,0.0635,39.5700,77,98,70636
1.7937,0.0538,39.7700,77,98,70639
1.7889,0.0342,39.8000,77,98,70643
1.8084,0.0538,39.7000,77,98,70646
1.7889,0.0538,39.9300,77,98,70649
1.8133,0.0538,39.6000,77,98,70652
1.7889,0.0587,39.7000,77,98,70657
1.7840,0.0391,39.8000,77,98,70660
1.8035,0.0587,39.7000,77,98,70663
1.7889,0.0587,39.8000,77,98,70666
1.8133,0.0538,39.6400,77,98,70669
1.7840,0.0538,39.8000,77,98,70673
1.7986,0.0538,39.8000,77,98,70676
1.8035,0.0587,39.7700,77,98,70679
1.7937,0.0538,39.8000,77,98,70682
1.8182,0.0587,39.7000,77,98,70686
1.7937,0.0538,39.8300,77,98,70689
1.7840,0.0538,39.8000,77,98,70692
1.7937,0.0538,39.7000,77,98,70695
1.7791,0.0538,39.8000,77,98,70700
1.8084,0.0538,39.6000,77,98,70703
1.7889,0.0391,39.7300,77,98,70706
1.7937,0.0538,39.8000,77,98,70709
1.8084,0.0342,39.6700,77,98,70713
1.7937,0.0587,39.8000,77,98,70716
1.8231,0.0538,39.6700,77,98,70719
1.8035,0.0538,39.8000,77,98,70722
1.8084,0.0587,39.8300,77,98,70726
1.8280,0.0587,39.7300,77,98,70729
1.8084,0.0538,39.8000,77,98,70732
1.8231,0.0489,39.6700,77,98,70735
1.7937,0.0538,39.7300,77,98,70739
1.7986,0.0538,39.8000,77,98,70743
1.8231,0.0587,39.7000,77,98,70746
1.8035,0.0538,39.8900,77,98,70749
1.8622,0.0440,39.7000,77,98,70753
1.7986,0.0489,39.7300,77,98,70756
1.7986,0.0538,39.8000,77,98,70759
1.8035,0.0587,39.6700,77,98,70762
1.7986,0.0538,39.8900,77,98,70766
1.8280,0.0538,39.6700,77,98,70769
1.7937,0.0635,39.8000,77,98,70772
1.7937,0.0538,39.8900,77,98,70775
1.8231,0.0635,39.7000,77,98,70779
1.7986,0.0587,39.8000,77,98,70782
1.8231,0.0587,39.6700,77,98,70786
1.7986,0.0489,39.8900,77,98,70789
1.7986,0.0538,39.7700,77,98,70793
1.8182,0.0635,39.6700,77,98,70796
1.7937,0.0538,39.7300,77,98,70799
1.8231,0.0635,39.7000,77,98,70802
1.7986,0.0489,39.8000,77,98,70806
1.8035,0.0538,39.8600,77,98,70809
1.8231,0.0440,39.7300,77,98,70812
1.8084,0.0538,39.7000,77,98,70815
1.8524,0.0587,39.6700,77,98,70818
1.8328,0.0538,39.8000,77,98,70822
1.8426,0.0538,39.8900,77,98,70825
1.8768,0.0635,39.6700,77,98,70829
1.8475,0.0538,39.8000,77,98,70832
1.8719,0.0587,39.6400,77,98,70836
1.8622,0.0538,39.8300,77,98,70839
1.8719,0.0587,39.8000,77,98,70842
1.9208,0.0733,39.7000,77,98,70845
1.9062,0.0538,39.8000,77,98,70849
1.9306,0.0587,39.6400,77,98,70852
1.9062,0.0538,39.7300,77,98,70855
1.9062,0.0538,39.8300,77,98,70858
1.9257,0.0587,39.7700,77,98,70862
1.9062,0.0587,39.8000,77,98,70865
1.9110,0.0538,39.6700,77,98,70868
1.8817,0.0538,39.7700,77,98,70872
1.8622,0.0440,39.8000,77,98,70876
1.8719,0.0635,39.0000,77,98,70879
1.8231,0.0538,39.7700,77,98,70882
1.8280,0.0342,39.6700,77,98,70885
1.7986,0.0684,39.8000,77,98,70889
1.7937,0.0538,39.8000,77,98,70892
1.8084,0.0684,39.6400,77,98,70895
1.7840,0.0587,39.7000,77,98,70898
1.7889,0.0538,39.6700,77,98,70902
1.7644,0.0587,39.8000,77,98,70905
1.7595,0.0635,39.8000,77,98,70908
1.7840,0.0635,39.7300,77,98,70912
1.7644,0.0489,39.7300,77,98,70916
1.7742,0.0538,39.7000,77,98,70919
1.7546,0.0538,39.8000,77,98,70922
1.7546,0.0587,39.8300,77,98,70925
1.7889,0.0635,39.7000,77,98,70929
1.7546,0.0538,39.8000,77,98,70932
1.7693,0.0587,39.7000,77,98,70935
1.7595,0.0587,39.7700,77,98,70938
1.7693,0.0538,39.8000,77,98,70942
1.8035,0.0489,39.7000,77,98,70945
1.7937,0.0587,39.9600,77,98,70948
1.8035,0.0538,39.7000,77,98,70951
1.7742,0.0538,39.8000,77,98,70956
1.7400,0.0489,39.8000,77,98,70959
1.7693,0.0684,39.7000,77,98,70962
1.6911,0.0538,39.8600,77,98,70965
1.7302,0.0538,39.7000,77,98,70968
1.8426,0.0587,39.7700,77,98,70972
2.0626,0.0538,39.8300,77,98,70975
2.4047,0.0684,39.6400,78,98,70978
3.5533,0.0635,39.6700,78,98,70983
3.3529,0.0538,39.8000,78,98,70986
3.0645,0.0587,39.6400,78,98,70989
2.6686,0.0538,39.7700,78,98,70993
2.3314,0.0538,39.8000,78,98,70996
2.0723,0.0831,39.7300,78,98,71000
1.8524,0.0538,39.8000,78,98,71003
1.7449,0.0587,39.7000,78,98,71007
1.6471,0.0538,39.7700,78,98,71010
1.6031,0.0538,39.8300,78,98,71013
1.5836,0.0587,39.6400,78,98,71016
1.5396,0.0587,39.7300,78,98,71020
1.5396,0.0538,39.6700,78,98,71023
1.5103,0.0538,39.8000,78,98,71026
1.5103,0.0538,39.8000,78,98,71029
1.5396,0.0587,39.6000,78,98,71033
1.5249,0.0538,39.7700,78,98,71036
1.5396,0.0635,39.7000,78,98,71040
1.5249,0.0538,39.8600,78,98,71043
1.5298,0.0538,39.7700,78,98,71047
1.5591,0.0635,39.7300,78,98,71050
1.5591,0.0538,39.7000,78,98,71053
1.5836,0.0538,39.6700,78,98,71056
1.5689,0.0342,39.8000,78,98,71060
1.5836,0.0538,39.7700,78,98,71063
1.6227,0.0635,39.6400,78,98,71066
1.6080,0.0538,39.7700,78,98,71069
1.6325,0.0489,39.6700,78,98,71073
1.6276,0.0538,39.8000,78,98,71076
1.6276,0.0538,39.8000,78,98,71079
1.6911,0.0635,39.7000,78,98,71083
1.6618,0.0635,39.8300,78,98,71086
1.6911,0.0587,39.7000,78,98,71090
1.6813,0.0587,39.7700,78,98,71093
1.6911,0.0587,39.8300,78,98,71096
1.7302,0.0635,39.7700,78,98,71099
1.7155,0.0587,39.8000,78,98,71103
1.7302,0.0538,39.6700,78,98,71106
1.7253,0.0538,39.8000,78,98,71109
1.7400,0.0538,39.8000,78,98,71112
1.7742,0.0831,39.6400,78,98,71116
1.7546,0.0587,39.8000,78,98,71119
1.7693,0.0342,39.7000,78,98,71122
1.7644,0.0929,39.7700,78,98,71126
1.7742,0.0538,39.8000,78,98,71130
1.8426,0.0587,39.7000,78,98,71133
1.8133,0.0635,39.8000,78,98,71136
1.8182,0.0538,39.7000,78,98,71139
1.8328,0.0538,39.8000,78,98,71143
1.8231,0.0782,39.8300,78,98,71146
1.8719,0.0635,39.7300,78,98,71149
1.8573,0.0538,39.8000,78,98,71152
1.8719,0.0587,39.7000,78,98,71156
1.8671,0.0489,39.6400,78,98,71159
1.8719,0.0538,40.0000,78,98,71162
1.9453,0.0538,39.6400,78,98,71165
1.9013,0.0538,39.7700,78,98,71170
1.9110,0.0489,39.6400,78,98,71173
1.9159,0.0538,39.8000,78,98,71176
1.9208,0.0635,39.8300,78,98,71179
1.9795,0.0635,39.7000,78,98,71183
1.9648,0.0587,39.7300,78,98,71186
1.9746,0.0587,39.7000,78,98,71189
1.9648,0.0538,39.8000,78,98,71192
1.9746,0.0538,39.8000,78,98,71196
2.0235,0.0538,39.6400,78,98,71199
1.9990,0.0587,39.7700,78,98,71202
2.0039,0.0489,39.7300,78,98,71205
2.0235,0.0587,39.8000,78,98,71209
2.0137,0.0538,39.8000,78,98,71213
2.0674,0.0733,39.7000,78,98,71216
2.0235,0.0587,40.0000,78,98,71219
2.0137,0.0440,39.7300,78,98,71223
2.0088,0.0587,39.8000,78,98,71226
1.9990,0.0587,39.8300,78,98,71229
2.0528,0.0733,39.2500,78,98,71232
2.0088,0.0587,39.7000,78,98,71235
1.9844,0.0440,39.8000,78,98,71239
1.9746,0.0587,39.8000,78,98,71242
1.9453,0.0538,39.8000,78,98,71245
1.9795,0.0929,39.5400,78,98,71248
1.9208,0.0587,39.7000,78,98,71252
1.8817,0.0391,39.7700,78,98,71256
1.8573,0.0587,39.7700,78,98,71259
1.8280,0.0538,39.8300,78,98,71262
1.8524,0.0684,39.5100,78,98,71266
1.8035,0.0538,39.7000,78,98,71269
1.7595,0.0489,39.8600,78,98,71272
1.7546,0.0587,39.8000,78,98,71275
1.7204,0.0587,39.8300,78,98,71279
1.7498,0.0635,39.5400,78,98,71282
1.6960,0.0538,39.7000,78,98,71285
1.7009,0.0587,39.8300,78,98,71288
1.6862,0.0587,39.7000,78,98,71292
1.6618,0.0538,39.8000,78,98,71296
1.7009,0.0880,39.5700,78,98,71299
1.6667,0.0342,39.7000,78,98,71302
1.6471,0.0489,39.8300,78,98,71306
1.6520,0.0684,39.8300,78,98,71309
1.6520,0.0538,39.8000,78,98,71312
1.6960,0.0538,39.5400,78,98,71315
1.6716,0.0782,39.7300,78,98,71319
1.6618,0.0538,39.8000,78,98,71322
1.6813,0.0587,39.7700,78,98,71325
1.6764,0.0587,39.8300,78,98,71328
1.7155,0.0587,39.5400,78,98,71332
1.6813,0.0489,39.8000,78,98,71335
1.7058,0.0538,39.8000,78,98,71339
1.7058,0.0635,39.7300,78,98,71342
1.6862,0.0538,39.8300,78,98,71346
1.7302,0.0587,39.5400,78,98,71349
1.7058,0.0587,39.6700,78,98,71352
1.7009,0.0538,39.8600,78,98,71355
1.7155,0.0587,39.7700,78,98,71359
1.7058,0.0587,39.8000,78,98,71362
1.7546,0.0587,39.5400,78,98,71365
1.7351,0.0538,39.7000,78,98,71368
1.7302,0.0587,39.8000,78,98,71372
1.7595,0.0635,39.7300,78,98,71375
1.7449,0.0538,39.8000,78,98,71378
1.7889,0.0587,39.5400,78,98,71382
1.7546,0.0489,39.6400,78,98,71385
1.7595,0.0538,39.8300,78,98,71389
1.7840,0.0733,39.7300,78,98,71392
1.7693,0.0538,39.7000,78,98,71395
1.8084,0.0587,39.5700,78,98,71398
1.7742,0.0587,39.7700,78,98,71402
1.7595,0.0538,39.8000,78,98,71405
1.7742,0.0635,39.7300,78,98,71408
1.7595,0.0635,39.8000,78,98,71411
1.7986,0.0538,39.6000,78,98,71415
1.7791,0.0538,39.7000,78,98,71418
1.7644,0.0782,39.8000,78,98,71421
1.7742,0.0684,39.7000,78,98,71425
1.7644,0.0489,39.8000,78,98,71429
1.8035,0.0538,39.5700,78,98,71432
1.7644,0.0538,39.8000,78,98,71435
1.7742,0.0440,39.8000,78,98,71438
1.7937,0.0635,39.4400,78,98,71442
1.7791,0.0538,39.8000,78,98,71445
1.8084,0.0782,39.6000,78,98,71448
1.7840,0.0538,39.7000,78,98,71451
1.7791,0.0489,39.8000,78,98,71455
1.7937,0.0587,39.7700,78,98,71458
1.7791,0.0587,39.8300,78,98,71461
1.8328,0.0538,39.6400,78,98,71464
1.7840,0.0489,39.7000,78,98,71469
1.7840,0.0538,39.7700,78,98,71472
1.7986,0.0587,39.6400,78,98,71475
1.7791,0.0587,39.8000,78,98,71478
1.8084,0.0538,39.6000,78,98,71482
1.7840,0.0538,39.8300,78,98,71485
1.7840,0.0538,39.8000,78,98,71488
1.8133,0.0587,39.7300,78,98,71491
1.7937,0.0538,39.7700,78,98,71495
1.8280,0.0538,39.6400,78,98,71498
1.7937,0.0587,39.7300,78,98,71501
1.7889,0.0538,39.8000,78,98,71504
1.8084,0.0587,39.7300,78,98,71508
1.7889,0.0880,39.8300,78,98,71512
1.8133,0.0538,39.6400,78,98,71515
1.7840,0.0489,39.7300,78,98,71518
1.7889,0.0587,39.8300,78,98,71522
1.7937,0.0538,39.7000,78,98,71525
1.7889,0.0538,39.8000,78,98,71528
1.8084,0.0587,39.7000,78,98,71531
1.7840,0.0538,39.8000,78,98,71534
1.7840,0.0489,39.8000,78,98,71538
1.8084,0.0635,39.6700,78,98,71541
1.7889,0.0538,39.8900,78,98,71544
1.8231,0.0587,39.6700,78,98,71547
1.7889,0.0587,39.7300,78,98,71552
1.7937,0.0538,39.8000,78,98,71555
1.8133,0.0587,39.7000,78,98,71558
1.7937,0.0587,39.8300,78,98,71561
1.8182,0.0538,38.9000,78,98,71565
1.7889,0.0538,39.8000,78,98,71568
1.7937,0.0587,39.8000,78,98,71571
1.8084,0.0538,39.7000,78,98,71574
1.8084,0.0538,39.8000,78,98,71578
1.8280,0.0880,39.7300,78,98,71581
1.7986,0.0538,39.8300,78,98,71584
1.7889,0.0538,39.8000,78,98,71587
1.8280,0.0635,39.6700,78,98,71591
1.8084,0.0635,39.7300,78,98,71596
1.7986,0.0538,39.4800,78,98,71600
1.8377,0.0538,39.6000,78,98,71603
1.8133,0.0635,39.7000,78,98,71606
1.8035,0.0538,39.7300,78,98,71609
1.8280,0.0635,39.6700,78,98,71613
1.8035,0.0538,39.8000,78,98,71616
1.8377,0.0538,39.6000,78,98,71619
1.8182,0.0538,39.9300,78,98,71622
1.8280,0.0538,39.8300,78,98,71626
1.8573,0.0635,39.7300,78,98,71629
1.8426,0.0635,39.8300,78,98,71632
1.8817,0.0587,39.7000,78,98,71635
1.8719,0.0538,39.7000,78,98,71640
1.8719,0.0587,39.8000,78,98,71643
1.8964,0.0635,39.7000,78,98,71646
1.8915,0.0538,39.8000,78,98,71649
1.9257,0.0587,39.6400,78,98,71653
1.9110,0.0489,39.7700,78,98,71656
1.9159,0.0538,39.8000,78,98,71659
1.9306,0.0587,39.7000,78,98,71662
1.9062,0.0538,39.8000,78,98,71665
1.9208,0.0440,39.6000,78,98,71669
1.8817,0.0538,39.7300,78,98,71672
1.8719,0.0538,39.8000,78,98,71675
1.8768,0.0635,39.7000,78,98,71678
1.8328,0.0538,39.7000,78,98,71683
1.8377,0.0342,39.6700,78,98,71686
1.8084,0.0489,39.7000,78,98,71689
1.7986,0.0587,39.8000,78,98,71692
1.8035,0.0635,39.7000,78,98,71696
1.7889,0.0538,39.9300,78,98,71699
1.8084,0.0538,39.6700,78,98,71702
1.7644,0.0440,39.7700,78,98,71705
1.7546,0.0538,39.8000,78,98,71709
1.7595,0.0538,39.7000,78,98,71712
1.7498,0.0684,39.8000,78,98,71715
1.7742,0.0538,39.6700,78,98,71718
1.7498,0.0538,39.8000,78,98,71723
1.7449,0.0635,39.8300,78,98,71726
1.7693,0.0635,39.7300,78,98,71729
1.7449,0.0538,39.8600,78,98,71732
1.7742,0.0635,39.6700,78,98,71736
1.7546,0.0489,39.7300,78,98,71739
1.7595,0.0342,39.8300,78,98,71742
1.7986,0.0635,39.7000,78,98,71745
1.7693,0.0538,39.8000,78,98,71749
1.7986,0.0587,39.6700,78,98,71752
1.7693,0.0538,39.8000,78,98,71755
1.7595,0.0538,39.8000,78,98,71758
1.7302,0.0489,39.7300,78,98,71762
1.6862,0.0538,39.8600,78,98,71766
1.7009,0.0538,39.7000,78,98,71769
1.7595,0.0587,39.8000,78,98,71772
1.9013,0.0538,39.8000,78,98,71775
2.1945,0.0587,39.6700,78,98,71779
2.4731,0.0489,39.7700,78,98,71782
2.8446,0.0538,39.6700,78,98,71785
3.1232,0.0538,39.8000,78,98,71788
3.3627,0.0538,40.0000,78,98,71792
3.5582,0.0587,39.6700,78,98,71795
3.5044,0.0587,39.7700,78,98,71798
3.3089,0.0538,39.8000,78,98,71801
2.9521,0.0587,39.8000,78,98,71805
2.5904,0.0587,39.8000,78,98,71809
2.2923,0.0635,39.7300,78,98,71812
2.0039,0.0587,39.8000,78,98,71815
1.8377,0.0538,39.7000,78,98,71819
1.7009,0.0587,39.8000,78,98,71822
1.6178,0.0538,39.9600,78,98,71825
1.5982,0.0635,39.6400,78,98,71828
1.5298,0.0538,39.8000,78,98,71832
1.5249,0.0538,39.6400,78,98,71835
1.5005,0.0538,39.8300,78,98,71838
1.4907,0.0440,39.8300,78,98,71841
1.5152,0.0587,39.7000,78,98,71845
1.5054,0.0587,39.7700,78,98,71848
1.5103,0.0635,39.6700,78,98,71852
1.5054,0.0538,39.8000,78,98,71855
1.5103,0.0587,39.8000,78,98,71859
1.5591,0.0978,39.6700,78,98,71862
1.5494,0.0538,39.7700,78,98,71865
1.5640,0.0440,39.7000,78,98,71868
1.5543,0.0929,39.8000,78,98,71871
1.5689,0.0538,39.8000,78,98,71875
1.6422,0.0587,39.6400,78,98,71878
1.5982,0.0635,39.8300,78,98,71881
1.6080,0.0489,39.7000,78,98,71884
1.6080,0.0635,39.8000,78,98,71888
1.6178,0.0538,39.8300,78,98,71891
1.6618,0.0635,39.6700,78,98,71895
1.6569,0.0635,39.7700,78,98,71898
1.6520,0.0489,39.7300,78,98,71902
1.6520,0.0538,39.7700,78,98,71905
1.6569,0.1026,39.8000,78,98,71908
1.7009,0.0684,39.6400,78,98,71911
1.6764,0.0587,39.7300,78,98,71915
1.6862,0.0489,39.6400,78,98,71918
1.6960,0.0538,39.8000,78,98,71921
1.7009,0.0538,39.8300,78,98,71924
1.7595,0.0684,39.5400,78,98,71928
1.7302,0.0587,39.7700,78,98,71931
1.7400,0.0489,39.7700,78,98,71934
1.7546,0.0538,39.8000,78,98,71938
1.7644,0.0538,39.8000,78,98,71942
1.8231,0.1026,39.6000,78,98,71945
1.7889,0.0587,39.7000,78,98,71948
1.7840,0.0440,39.7700,78,98,71951
1.7889,0.0635,39.8000,78,98,71955
1.7937,0.0538,39.7300,78,98,71958
1.8573,0.0684,39.5700,78,98,71961
1.8475,0.0538,39.7300,78,98,71964
1.8231,0.0489,39.8000,78,98,71968
1.8328,0.0538,39.7700,78,98,71971
1.8377,0.0587,39.8000,78,98,71974
1.9013,0.0684,39.5700,78,98,71977
1.8719,0.0538,39.7300,78,98,71982
1.8622,0.0440,39.7700,78,98,71985
1.8866,0.0538,39.7300,78,98,71988
1.8866,0.0538,39.8000,78,98,71991
1.9453,0.0587,39.5700,78,98,71994
1.9159,0.0635,39.6700,78,98,71998
1.9208,0.0489,39.8000,78,98,72001
1.9355,0.0587,39.8300,78,98,72004
1.9404,0.0538,39.3500,78,98,72007
2.0039,0.0342,39.5100,78,98,72011
1.9697,0.0587,39.7000,78,98,72014
1.9648,0.0342,39.8000,78,98,72017
1.9990,0.0538,39.7700,78,98,72020
1.9697,0.0538,39.7700,78,98,72025
2.0332,0.0587,39.5100,78,98,72028
1.9990,0.0538,39.7300,78,98,72031
1.9892,0.0538,39.8000,78,98,72034
2.0088,0.0587,39.7700,78,98,72038
1.9990,0.0489,39.8000,78,98,72041
2.0528,0.0587,39.5400,78,98,72044
1.9941,0.0489,39.7300,78,98,72047
1.9844,0.0538,39.8000,78,98,72051
1.9892,0.0587,39.7700,78,98,72054
1.9648,0.0342,39.8300,78,98,72057
1.9892,0.0733,39.5400,78,98,72060
1.9355,0.0538,39.7000,78,98,72065
1.9257,0.0489,39.8000,78,98,72068
1.8768,0.0587,39.7700,78,98,72071
1.8426,0.0538,39.8000,78,98,72074
1.8817,0.0538,39.5400,78,98,72078
1.8133,0.0831,39.7700,78,98,72081
1.7742,0.0489,39.9300,78,98,72084
1.7644,0.0587,39.7300,78,98,72087
1.7204,0.0538,39.8000,78,98,72091
1.7351,0.0587,39.5400,78,98,72094
1.6813,0.0489,39.7700,78,98,72097
1.6716,0.0587,39.8000,78,98,72100
1.6862,0.0587,39.7300,78,98,72104
1.6520,0.0538,39.8600,78,98,72108
1.7058,0.0587,39.6000,78,98,72111
1.6471,0.0538,39.5700,78,98,72114
1.6373,0.0538,39.8300,78,98,72118
1.6422,0.0587,39.7700,78,98,72121
1.6276,0.0489,39.8300,78,98,72124
1.6618,0.0538,39.6700,78,98,72127
1.6373,0.0587,39.7300,78,98,72131
1.6618,0.0587,39.8000,78,98,72134
1.6520,0.0587,39.7300,78,98,72137
1.6373,0.0538,39.8000,78,98,72140
1.6667,0.0880,39.6400,78,98,72143
1.6373,0.0489,39.8000,78,98,72147
1.6471,0.0342,39.8000,78,98,72151
1.6667,0.0782,39.7000,78,98,72154
1.6471,0.0538,39.8600,78,98,72157
1.6960,0.0587,39.5700,78,98,72161
1.6716,0.0489,39.7000,78,98,72164
1.6667,0.0489,39.8300,78,98,72167
1.6862,0.0587,39.7700,78,98,72170
1.6764,0.0587,39.7700,78,98,72174
1.7204,0.0538,39.0300,78,98,72177
1.7058,0.0489,39.7000,78,98,72180
1.7107,0.0538,39.8000,78,98,72183
1.7351,0.0538,39.6700,78,98,72187
1.7155,0.0587,39.8300,78,98,72190
1.7498,0.0538,39.6400,78,98,72194
1.7253,0.0538,39.8300,78,98,72197
1.7351,0.0489,39.8300,78,98,72201
1.7498,0.0929,39.6700,78,98,72204
1.7449,0.0538,39.8000,78,98,72208
1.7400,0.0538,39.7000,78,98,72211
1.7889,0.0538,39.5700,78,98,72214
1.7546,0.0587,39.7300,78,98,72217
1.7400,0.0489,39.8300,78,98,72221
1.7498,0.0587,39.7700,78,98,72224
1.7449,0.0538,39.8300,78,98,72227
1.7889,0.0587,39.0600,78,98,72230
1.7449,0.0489,39.7300,78,98,72233
1.7498,0.0440,39.8300,78,98,72238
1.7644,0.0587,39.7000,78,98,72241
1.7546,0.0538,39.8000,78,98,72244
1.7937,0.0684,39.5400,78,98,72247
1.7644,0.0538,39.7000,78,98,72251
1.7498,0.0538,39.8300,78,98,72254
1.7595,0.0587,39.7300,78,98,72257
1.7498,0.0538,39.8000,78,98,72260
1.7889,0.0587,39.5700,78,98,72264
1.7644,0.0587,39.7300,78,98,72267
1.7546,0.0489,39.8000,78,98,72270
1.7742,0.0684,39.7000,78,98,72273
1.7546,0.0538,39.2500,78,98,72278
1.7889,0.0538,39.5700,78,98,72281
1.7595,0.0440,39.7700,78,98,72284
1.7546,0.0489,40.0000,78,98,72287
1.7742,0.0587,39.7300,78,98,72291
1.7498,0.0538,39.8000,78,98,72294
1.7937,0.0538,39.5400,78,98,72297
1.7693,0.0538,39.7000,78,98,72300
1.7546,0.0440,39.8000,78,98,72304
1.7693,0.0733,39.7300,78,98,72307
1.7546,0.0538,39.8000,78,98,72310
1.7791,0.0538,39.5700,78,98,72313
1.7546,0.0489,39.6000,78,98,72317
1.7498,0.0489,39.8000,78,98,72321
1.7742,0.0929,39.6700,78,98,72324
1.7546,0.0538,39.8000,78,98,72327
1.7840,0.0538,39.6400,78,98,72331
1.7498,0.0587,39.7700,78,98,72334
1.7449,0.0489,39.8000,78,98,72337
1.7693,0.0587,39.7000,78,98,72340
1.7498,0.1026,39.8000,78,98,72344
1.7840,0.0489,39.6700,78,98,72347
1.7693,0.0489,39.7300,78,98,72350
1.7595,0.0489,39.8300,78,98,72353
1.7791,0.0587,39.7000,78,98,72356
1.7644,0.0489,39.8300,78,98,72360
1.7937,0.0489,39.6700,78,98,72364
1.7791,0.0538,39.7700,78,98,72367
1.7742,0.0489,39.8300,78,98,72370
1.7840,0.0538,40.1300,78,98,72374
1.7644,0.0342,39.8000,78,98,72377
1.7937,0.0489,39.6700,78,98,72380
1.7742,0.0538,39.8900,78,98,72383
1.7791,0.0587,39.8000,78,98,72387
1.8084,0.0880,39.7000,78,98,72390
1.7937,0.0538,39.8000,78,98,72393
1.8231,0.0538,39.6700,78,98,72396
1.7937,0.0489,39.7700,78,98,72400
1.8084,0.0342,39.8000,78,98,72403
1.8426,0.0587,39.6700,78,98,72407
1.8328,0.0538,39.7300,78,98,72410
1.8719,0.0489,39.6700,78,98,72414
1.8524,0.0587,39.8000,78,98,72417
1.8622,0.0489,39.8300,78,98,72420
1.8866,0.0538,39.7000,78,98,72423
1.8866,0.0538,39.8000,78,98,72427
1.9208,0.0587,39.7000,78,98,72430
1.8817,0.0342,39.8300,78,98,72433
1.8768,0.0733,39.7700,78,98,72436
1.8915,0.0587,39.6700,78,98,72440
1.8524,0.0538,39.8000,78,98,72443
1.8671,0.0684,39.7700,78,98,72446
1.8182,0.0489,39.7700,78,98,72450
1.7986,0.0489,39.8000,78,98,72454
1.8084,0.0587,39.7000,78,98,72457
1.7742,0.0538,39.8300,78,98,72460
1.7889,0.0538,39.6700,78,98,72463
1.7742,0.0587,39.7700,78,98,72467
1.7498,0.0538,39.8000,78,98,72470
1.7546,0.0489,39.7700,78,98,72473
1.7351,0.0440,39.8000,78,98,72476
1.7498,0.0635,39.6700,78,98,72480
1.7253,0.0538,39.8000,78,98,72483
1.7302,0.0587,39.8300,78,98,72486
1.7742,0.0587,39.7000,78,98,72489
1.7302,0.0538,39.7700,78,98,72494
1.7498,0.0538,39.6700,78,98,72497
1.7253,0.0489,39.8300,78,98,72500
1.7302,0.0489,39.8900,78,98,72503
1.7644,0.0587,39.6700,78,98,72506
1.7498,0.0587,39.8300,78,98,72510
1.7742,0.0538,39.7300,78,98,72513
1.7449,0.0538,39.8000,78,98,72516
1.7498,0.0489,39.8000,78,98,72519
1.7742,0.0587,39.7700,78,98,72523
1.7595,0.0538,39.8000,78,98,72526
1.7546,0.0489,39.6700,78,98,72529
1.6960,0.0489,39.8300,78,98,72532
1.6618,0.0440,39.8000,78,98,72537
1.6960,0.0587,39.7700,78,98,72540
1.7498,0.0538,39.8000,78,98,72543
1.9355,0.0587,39.7000,78,98,72546
2.1603,0.0538,39.8900,78,98,72550
2.4633,0.0440,39.8300,78,98,72553
2.8299,0.0587,39.6000,78,98,72556
3.0938,0.0538,39.8000,78,98,72559
3.3236,0.0489,39.6700,78,98,72563
3.3920,0.0538,39.7000,78,98,72566
3.3284,0.0489,39.8000,78,98,72569
3.1623,0.0538,39.8300,78,98,72572
2.8250,0.0538,39.8000,78,98,72577
2.5220,0.0489,39.7000,78,98,72580
2.2287,0.0489,39.8000,78,98,72583
1.9941,0.0489,39.8000,78,98,72586
1.8475,0.0587,39.5700,78,98,72590
1.7058,0.0538,39.6700,78,98,72593
1.6373,0.0440,39.7000,78,98,72596
1.5787,0.0635,39.8000,78,98,72599
1.5543,0.0489,39.8000,78,98,72602
1.5787,0.0684,39.7000,78,98,72606
1.5494,0.0538,39.8000,78,98,72609
1.5347,0.0440,39.7300,78,98,72612
1.5298,0.0538,39.8600,78,98,72615
1.5298,0.0489,39.8300,78,98,72620
1.5738,0.0684,39.6400,78,98,72623
1.5543,0.0538,39.8300,78,98,72626
1.5494,0.0342,39.7300,78,98,72629
1.5689,0.0489,39.8000,78,98,72633
1.5591,0.0489,39.8000,78,98,72636
1.6178,0.0635,39.6000,78,98,72639
1.6031,0.0538,39.7300,78,98,72642
1.6031,0.0440,39.7300,78,98,72646
1.6178,0.0538,39.8000,78,98,72649
1.6227,0.0440,39.8000,78,98,72652
1.6764,0.0635,39.6000,78,98,72655
1.6618,0.0538,39.7300,78,98,72659
1.6520,0.0489,39.7300,78,98,72663
1.6667,0.0538,39.8300,78,98,72666
1.6716,0.0489,39.8000,78,98,72669
1.7253,0.0733,39.6000,78,98,72673
1.6960,0.0538,39.7700,78,98,72676
1.6960,0.0391,39.7700,78,98,72679
1.7107,0.0782,39.8000,78,98,72682
1.7204,0.0489,39.8000,78,98,72686
1.7791,0.0733,39.5700,78,98,72689
1.7546,0.0635,39.7700,78,98,72692
1.7498,0.0440,39.8000,78,98,72695
1.7937,0.0538,39.7700,78,98,72699
1.7644,0.0489,39.8000,78,98,72702
1.8231,0.0538,39.5400,78,98,72706
1.8084,0.0489,39.7000,78,98,72709
1.7937,0.0440,39.8000,78,98,72712
1.8084,0.0538,39.8000,78,98,72716
1.8084,0.0489,39.8000,78,98,72719
1.8768,0.0538,39.5100,78,98,72722
1.8426,0.0538,39.7300,78,98,72725
1.8377,0.0489,39.8300,78,98,72729
1.8573,0.0538,39.7700,78,98,72732
1.8475,0.0831,39.8000,78,98,72735
1.9013,0.0538,39.5400,78,98,72738
1.8817,0.0587,39.7300,78,98,72742
1.8768,0.0635,39.7300,78,98,72745
1.9013,0.0538,39.7700,78,98,72749
1.8915,0.0489,39.8300,78,98,72752
1.9453,0.0538,39.5400,78,98,72756
1.9110,0.0489,39.6700,78,98,72759
1.9257,0.0489,39.8000,78,98,72762
1.9404,0.0733,39.7700,78,98,72765
1.9404,0.0440,39.8300,78,98,72769
2.0235,0.0538,39.5700,78,98,72772
1.9795,0.0538,39.9300,78,98,72775
1.9697,0.0489,39.8000,78,98,72778
1.9941,0.0342,39.7700,78,98,72782
1.9892,0.0587,39.8300,78,98,72785
2.0430,0.0538,39.7000,78,98,72788
2.0137,0.0489,39.7300,78,98,72792
2.0039,0.0489,39.8000,78,98,72796
2.0381,0.0538,39.7300,78,98,72799
2.0088,0.0489,39.5100,78,98,72802
2.0577,0.0538,39.5700,78,98,72805
2.0137,0.0587,39.7700,78,98,72809
2.0186,0.0489,39.8000,78,98,72812
2.0332,0.0587,39.7300,78,98,72815
1.9550,0.0342,39.8000,78,98,72819
1.9306,0.0489,39.9600,78,98,72822
1.9648,0.0587,39.5400,78,98,72825
1.8866,0.0440,39.7300,78,98,72828
1.8573,0.0440,39.8300,78,98,72833
1.8377,0.0538,39.7700,78,98,72836
1.8035,0.0538,39.8000,78,98,72839
1.8280,0.0538,39.5700,78,98,72842
1.7644,0.0489,39.7300,78,98,72846
1.7400,0.0440,39.8000,78,98,72849
1.7351,0.0538,39.7700,78,98,72852
1.7058,0.0489,39.8300,78,98,72855
1.7351,0.0684,39.5100,78,98,72859
1.6862,0.0538,39.7000,78,98,72862
1.6569,0.0342,39.8000,78,98,72865
1.6716,0.0440,39.7700,78,98,72868
1.6520,0.0489,39.8900,78,98,72872
1.6960,0.0538,39.5400,78,98,72876
1.6813,0.0440,39.7300,78,98,72879
1.6569,0.0489,39.8000,78,98,72882
1.6911,0.0587,39.7700,78,98,72885
1.6618,0.0489,39.8000,78,98,72889
1.7058,0.0538,39.5700,78,98,72892
1.6813,0.0440,39.7300,78,98,72895
1.6764,0.0489,40.0300,78,98,72898
1.6911,0.0538,39.7300,78,98,72902
1.6764,0.0440,39.8000,78,98,72905
1.7253,0.0538,39.5700,78,98,72908
1.7155,0.0440,39.7000,78,98,72911
1.7058,0.0489,39.8600,78,98,72915
1.7253,0.0538,39.7700,78,98,72919
1.7155,0.0489,39.8000,78,98,72922
1.7546,0.0538,39.5700,78,98,72925
1.7351,0.0587,39.6400,78,98,72929
1.7351,0.0587,39.8300,78,98,72932
1.7644,0.0587,39.8300,78,98,72935
1.7449,0.0489,39.4400,78,98,72938
1.7889,0.0587,39.5700,78,98,72942
1.7498,0.0440,39.8000,78,98,72945
1.7595,0.0489,39.7300,78,98,72948
1.7840,0.0587,39.7300,78,98,72951
1.7644,0.0342,39.8000,78,98,72955
1.7937,0.0538,39.5700,78,98,72958
1.7693,0.0538,39.7000,78,98,72962
1.7595,0.0538,39.8000,78,98,72965
1.7742,0.0635,39.7700,78,98,72969
1.7693,0.0489,39.8300,78,98,72972
1.8377,0.0440,39.6000,78,98,72975
1.7791,0.0538,39.7700,78,98,72978
1.7742,0.0489,39.8900,78,98,72982
1.7937,0.0587,39.6700,78,98,72985
1.7840,0.0489,39.6700,78,98,72988
1.8182,0.0342,39.6000,78,98,72991
1.8084,0.0538,39.8300,78,98,72995
1.7986,0.0489,39.8600,78,98,72998
1.8182,0.0538,39.7000,78,98,73001
1.8035,0.0440,39.8000,78,98,73005
1.8328,0.0489,39.6400,78,98,73009
1.8084,0.0489,39.7000,78,98,73012
1.8084,0.0489,39.8900,78,98,73015
1.8280,0.0538,39.7000,78,98,73018
1.8035,0.0733,39.8000,78,98,73021
1.8231,0.0489,39.6400,78,98,73025
1.7937,0.0489,39.7300,78,98,73028
1.8084,0.0391,39.8300,78,98,73031
1.8231,0.0538,39.7000,78,98,73034
1.8035,0.0538,39.7700,78,98,73038
1.8231,0.0489,39.6000,78,98,73041
1.7986,0.0489,39.8300,78,98,73044
1.7986,0.0489,39.8300,78,98,73048
1.8280,0.0538,38.9300,78,98,73052
1.8035,0.0489,39.8300,78,98,73055
1.8280,0.0391,39.6700,78,98,73058
1.7937,0.0440,39.7300,78,98,73061
1.8035,0.0391,39.8000,78,98,73065
1.8182,0.0538,39.6700,78,98,73068
1.8035,0.0489,39.8000,78,98,73071
1.8280,0.0489,39.6700,78,98,73074
1.7986,0.0489,39.8000,78,98,73078
1.8328,0.0440,39.8300,78,98,73081
1.8084,0.0489,39.7700,78,98,73084
1.8084,0.0342,39.8000,78,98,73088
1.8377,0.0538,39.7700,78,98,73092
1.8182,0.0489,39.8000,78,98,73095
1.8280,0.0440,39.8000,78,98,73098
1.8426,0.0587,39.6700,78,98,73101
1.8084,0.0489,39.8000,78,98,73105
1.8280,0.0587,39.6700,78,98,73108
1.8084,0.0489,39.8900,78,98,73111
1.8084,0.0489,39.8000,78,98,73114
1.8328,0.0684,39.6700,78,98,73117
1.8084,0.0489,39.7700,78,98,73121
1.8280,0.0587,39.6400,78,98,73124
1.8035,0.0489,39.8000,78,98,73127
1.8133,0.0440,39.8000,78,98,73131
1.8328,0.0587,39.8300,78,98,73135
1.8182,0.0489,39.8000,78,98,73138
1.8475,0.0489,39.6700,78,98,73141
1.8133,0.0684,39.8300,78,98,73144
1.8133,0.0489,39.8300,78,98,73148
1.8573,0.0342,39.6400,78,98,73151
1.8328,0.0440,39.7700,78,98,73154
1.8573,0.0489,39.7000,78,98,73157
1.8426,0.0489,39.8000,78,98,73161
1.8524,0.0489,39.8000,78,98,73164
1.8915,0.0538,39.6400,78,98,73167
1.8817,0.0342,39.7700,78,98,73170
1.8964,0.0489,39.8900,78,98,73175
1.8866,0.0489,39.8000,78,98,73178
1.8915,0.0489,39.8300,78,98,73181
1.9306,0.0587,39.9300,78,98,73184
1.9208,0.0538,39.8000,78,98,73188
1.9404,0.0684,39.6700,78,98,73191
1.9355,0.0489,39.6700,78,98,73194
1.9404,0.0440,39.8000,78,98,73197
1.9746,0.0538,39.6400,78,98,73201
1.9355,0.0489,39.8000,78,98,73204
1.9453,0.0440,39.7000,78,98,73207
1.9110,0.0587,39.8000,78,98,73210
1.9062,0.0489,39.8000,78,98,73213
1.9159,0.0489,39.6000,78,98,73218
1.8671,0.0538,39.7300,78,98,73221
1.8377,0.0538,39.8300,78,98,73224
1.8133,0.0440,39.8300,78,98,73227
1.8035,0.0440,39.8300,78,98,73231
1.8524,0.0587,39.7000,78,98,73234
1.8084,0.0489,39.7000,78,98,73237
1.7937,0.0391,39.7300,78,98,73240
1.8035,0.0440,39.8000,78,98,73244
1.7742,0.0489,39.8000,78,98,73247
1.8377,0.0587,39.6000,78,98,73250
1.7986,0.0538,39.7700,78,98,73253
1.7937,0.0440,39.8000,78,98,73257
1.8035,0.0440,39.8000,78,98,73261
1.7791,0.0489,39.7700,78,98,73264
1.8231,0.0635,39.6400,78,98,73267
1.8035,0.0587,39.7700,78,98,73271
1.7937,0.0440,39.7700,78,98,73274
1.7937,0.0489,39.8000,78,98,73277
1.7937,0.0440,39.8000,78,98,73280
1.8524,0.0635,39.6400,78,98,73284
1.8133,0.0342,39.7700,78,98,73287
1.7986,0.0587,39.8300,78,98,73290
1.7937,0.0684,39.8000,78,98,73293
1.7693,0.0440,39.8000,78,98,73297
1.7840,0.0635,39.6400,78,98,73300
1.7107,0.0538,39.5100,78,98,73304
1.7107,0.0342,39.8000,78,98,73307
1.7986,0.0587,39.8300,78,98,73311
1.9795,0.0489,39.8600,78,98,73314
2.3069,0.0538,39.5400,78,98,73317
2.5806,0.0733,39.6400,78,98,73320
2.8886,0.0440,39.8000,78,98,73323
3.1916,0.0489,39.7700,78,98,73327
3.4213,0.0440,39.0900,78,98,73330
3.6266,0.0684,39.5700,78,98,73333
3.4702,0.0538,39.8000,78,98,73336
3.2063,0.0440,39.8000,78,98,73340
2.8788,0.0587,39.8000,78,98,73344
2.5220,0.0489,39.8000,78,98,73347
2.2727,0.0538,39.5100,78,98,73350
1.9892,0.0489,39.7300,78,98,73354
1.8133,0.0342,39.8300,78,98,73357
1.7155,0.0538,39.7300,78,98,73360
1.6276,0.0489,39.7700,78,98,73363
1.6276,0.0538,39.5400,78,98,73367
1.5640,0.0342,39.7000,78,98,73370
1.5445,0.0538,39.7700,78,98,73373
1.5347,0.0489,39.8000,78,98,73376
1.5249,0.0489,39.8000,78,98,73380
1.5591,0.0733,39.6400,78,98,73383
1.5347,0.0538,39.7700,78,98,73387
1.5494,0.0489,39.8000,78,98,73390
1.5494,0.0587,39.7700,78,98,73394
1.5494,0.0489,39.8000,78,98,73397
1.6031,0.0538,39.5400,78,98,73400
1.5836,0.0489,39.7300,78,98,73403
1.5836,0.0489,39.8900,78,98,73407
1.6178,0.0538,39.7700,78,98,73410
1.6129,0.0538,39.8300,78,98,73413
1.6667,0.0538,39.4800,78,98,73416
1.6325,0.0440,39.7700,78,98,73420
1.6520,0.0342,39.8300,78,98,73423
1.6618,0.0733,39.8000,78,98,73426
1.7009,0.0538,39.8000,78,98,73431
1.7009,0.0489,39.9600,78,98,73434
1.7742,0.0635,39.6000,78,98,73437
1.7351,0.0538,39.7300,78,98,73440
1.7351,0.0342,39.2800,78,98,73444
1.7498,0.0538,39.8000,78,98,73447
1.7449,0.0440,39.8300,78,98,73450
1.8084,0.0538,39.6000,78,98,73453
1.7742,0.0489,39.7000,78,98,73457
1.7693,0.0391,39.8000,78,98,73460
1.7840,0.0489,39.8000,78,98,73463
1.8035,0.0440,39.8000,78,98,73466
1.8524,0.0635,39.6000,78,98,73470
1.8280,0.0538,39.8300,78,98,73474
1.8280,0.0489,39.8000,78,98,73477
1.8426,0.0489,39.8300,78,98,73480
1.8426,0.0489,39.8000,78,98,73484
1.8964,0.0538,39.5400,78,98,73487
1.8622,0.0684,39.7700,78,98,73490
1.8573,0.0440,39.8300,78,98,73493
1.8817,0.0440,39.7700,78,98,73497
1.8817,0.0489,40.0300,78,98,73500
1.9648,0.0587,39.5100,78,98,73503
1.9306,0.0440,39.7000,78,98,73506
1.9110,0.0440,39.8600,78,98,73510
1.9257,0.0342,39.8000,78,98,73513
1.9257,0.0489,39.8300,78,98,73517
1.9892,0.0538,39.6000,78,98,73520
1.9648,0.0489,39.7700,78,98,73524
1.9599,0.0391,39.8300,78,98,73527
1.9795,0.0538,39.7700,78,98,73530
1.9697,0.0440,39.8900,78,98,73533
2.0528,0.0538,39.4100,78,98,73537
2.0137,0.0489,39.7000,78,98,73540
2.0039,0.0440,39.8000,78,98,73543
2.0283,0.0880,39.7700,78,98,73546
2.0430,0.0440,39.8000,78,98,73549
2.0626,0.0538,39.5700,78,98,73553
2.0235,0.0440,39.7700,78,98,73556
2.0235,0.0538,39.8000,78,98,73560
2.0430,0.0538,39.7700,78,98,73563
2.0235,0.0440,39.8000,78,98,73567
2.0577,0.0489,39.5400,78,98,73570
2.0186,0.0538,39.7000,78,98,73573
1.9892,0.0489,39.8300,78,98,73576
1.9990,0.0635,39.7700,78,98,73580
1.9599,0.0440,39.8000,78,98,73583
1.9697,0.0782,39.5700,78,98,73586
1.9159,0.0489,39.7700,78,98,73589
1.8817,0.0440,39.8000,78,98,73593
1.8671,0.0587,40.0000,78,98,73596
1.8231,0.0342,39.8000,78,98,73600
1.8280,0.0538,39.5400,78,98,73603
1.7693,0.0489,39.8000,78,98,73607
1.7449,0.0440,39.8000,78,98,73610
1.7400,0.0782,39.7000,78,98,73613
1.7058,0.0489,39.8000,78,98,73616
1.7107,0.0538,39.6400,78,98,73619
1.6813,0.0440,38.9600,78,98,73623
1.7009,0.0440,39.8300,78,98,73626
1.6716,0.0440,39.7000,78,98,73629
1.6471,0.0489,39.8000,78,98,73632
1.6716,0.0440,39.6400,78,98,73636
1.6373,0.0440,39.8000,78,98,73639
1.6471,0.0342,39.8000,78,98,73643
1.6618,0.0635,39.7000,78,98,73646
1.6520,0.0342,39.8000,78,98,73650
1.6716,0.0440,39.6400,78,98,73653
1.6520,0.0733,39.8300,78,98,73656
1.6569,0.0489,39.8300,78,98,73659
1.6862,0.0587,39.6400,78,98,73663
1.6667,0.0733,39.8000,78,98,73666
1.6960,0.0440,39.6700,78,98,73669
1.6764,0.0391,39.8300,78,98,73672
1.6862,0.0440,39.8300,78,98,73676
1.7058,0.0587,39.7000,78,98,73679
1.7009,0.0831,39.8000,78,98,73682
1.7302,0.0440,39.7000,78,98,73686
1.7058,0.0489,39.8000,78,98,73690
1.7107,0.0440,39.8300,78,98,73693
1.7253,0.0440,39.7000,78,98,73696
1.7253,0.0489,39.8300,78,98,73699
1.7595,0.0538,39.7000,78,98,73702
1.7302,0.0489,39.8300,78,98,73706
1.7351,0.0440,39.8300,78,98,73709
1.7791,0.0538,39.6700,78,98,73712
1.7498,0.0587,39.8000,78,98,73715
1.7840,0.0538,39.7300,78,98,73719
1.7644,0.0342,39.8000,78,98,73722
1.7644,0.0440,39.8000,78,98,73725
1.7840,0.0342,39.7000,78,98,73729
1.7693,0.0538,39.8000,78,98,73733
1.7889,0.0489,39.6700,78,98,73736
1.7693,0.0440,39.8000,78,98,73739
1.7742,0.0489,39.7300,78,98,73742
1.7937,0.0538,39.7700,78,98,73746
1.7742,0.0587,39.7700,78,98,73749
1.7937,0.0489,39.6700,78,98,73752
1.7742,0.0489,39.8000,78,98,73755
1.8084,0.0391,39.8000,78,98,73759
1.8133,0.0538,39.6700,78,98,73762
1.7840,0.0489,39.8000,78,98,73765
1.8084,0.0391,39.6700,78,98,73768
1.7937,0.0489,39.0300,78,98,73773
1.8280,0.0489,39.7700,78,98,73776
1.8328,0.0831,39.6000,78,98,73779
1.8182,0.0489,39.8600,78,98,73782
1.8280,0.0489,39.6700,78,98,73786
1.8035,0.0587,39.8300,78,98,73789
1.7986,0.0440,39.8300,78,98,73792
1.8475,0.0538,39.7000,78,98,73795
1.8035,0.0538,39.8000,78,98,73798
1.8133,0.0391,39.7000,78,98,73802
1.7937,0.0440,39.8000,78,98,73805
1.7889,0.0440,39.8300,78,98,73808
1.8280,0.0587,39.6400,78,98,73811
1.7986,0.0880,39.7700,78,98,73816
1.8084,0.0342,39.7000,78,98,73819
1.7937,0.0538,39.8000,78,98,73822
1.7889,0.0489,39.8000,78,98,73825
1.8231,0.0489,39.6700,78,98,73829
1.7986,0.0538,39.7000,78,98,73832
1.7937,0.0440,39.7300,78,98,73835
1.7840,0.0489,39.8000,78,98,73838
1.7889,0.0440,39.0300,78,98,73842
1.8280,0.0587,39.6700,78,98,73845
1.8084,0.0391,39.7700,78,98,73848
1.7889,0.0440,39.7300,78,98,73851
1.7889,0.0489,39.8000,78,98,73856
1.7937,0.0391,39.8300,78,98,73859
1.8426,0.0538,39.2200,78,98,73862
1.8084,0.0489,39.8300,78,98,73865
1.8328,0.0440,39.7300,78,98,73869
1.7986,0.0489,39.7700,78,98,73872
1.7986,0.0440,39.8000,78,98,73875
1.8524,0.0587,39.6400,78,98,73878
1.8231,0.0538,39.8900,78,98,73882
1.8035,0.0342,39.7300,78,98,73885
1.8035,0.0489,39.8000,78,98,73888
1.7986,0.0440,39.8000,78,98,73891
1.8671,0.0538,39.6000,78,98,73895
1.8133,0.0538,39.7300,78,98,73899
1.8084,0.0391,39.8000,78,98,73902
1.8084,0.0440,39.8000,78,98,73905
1.8084,0.0440,39.8000,78,98,73908
1.8622,0.0684,39.5400,78,98,73912
1.8231,0.0489,39.7700,78,98,73915
1.8182,0.0391,39.8000,78,98,73918
1.8524,0.0538,39.8000,78,98,73921
1.8133,0.0440,39.8000,78,98,73925
1.8573,0.0635,39.5700,78,98,73928
1.8426,0.0391,39.7000,78,98,73931
1.8084,0.0391,39.8900,78,98,73934
1.8182,0.0342,39.8000,78,98,73938
1.8377,0.0489,39.8000,78,98,73942
1.8622,0.0538,39.5700,78,98,73945
1.8231,0.0489,39.7300,78,98,73948
1.8133,0.0489,39.8300,78,98,73952
1.8182,0.0489,39.8000,78,98,73955
1.8231,0.0440,39.8000,78,98,73958
1.8768,0.0489,39.5100,78,98,73961
1.8426,0.0440,39.7300,78,98,73965
1.8377,0.0440,39.8300,78,98,73968
1.8524,0.0440,39.7700,78,98,73971
1.8475,0.0440,39.8000,78,98,73974
1.9062,0.0587,39.5100,78,98,73978
1.8671,0.0391,39.7300,78,98,73981
1.8719,0.0587,39.8000,78,98,73985
1.8866,0.0489,39.7700,78,98,73988
1.9159,0.0440,39.8000,78,98,73992
1.9501,0.0538,39.6000,78,98,73995
1.9257,0.0538,39.7300,78,98,73998
1.9159,0.0587,39.8000,78,98,74001
1.9306,0.0489,39.7700,78,98,74005
1.9159,0.0440,39.8300,78,98,74008
1.9599,0.0489,39.5400,78,98,74011
1.9208,0.0831,39.7000,78,98,74014
1.8964,0.0440,39.8000,78,98,74018
1.9013,0.0733,39.7700,78,98,74021
1.8622,0.0440,39.8600,78,98,74024
1.8817,0.0440,39.5700,78,98,74028
1.8182,0.0391,39.8000,78,98,74031
1.8133,0.0440,39.8300,78,98,74035
1.8231,0.0440,39.7300,78,98,74038
1.7742,0.0489,39.8300,78,98,74042
1.7742,0.0391,39.8000,78,98,74045
1.8328,0.0635,39.6000,78,98,74048
1.7937,0.0489,39.7700,78,98,74051
1.7791,0.0342,39.7700,78,98,74055
1.7840,0.0489,39.8000,78,98,74058
1.7791,0.0440,39.8000,78,98,74061
1.8280,0.0635,39.5400,78,98,74064
1.7937,0.0440,39.6700,78,98,74068
1.7840,0.0391,39.8000,78,98,74072
1.7840,0.0489,39.8900,78,98,74075
1.7840,0.0440,39.8300,78,98,74078
1.8377,0.0684,39.5700,78,98,74082
1.8035,0.0489,39.7300,78,98,74085
1.7937,0.0391,39.8000,78,98,74088
1.7791,0.0587,39.8300,78,98,74091
1.7351,0.0440,39.8300,78,98,74095
1.7644,0.0440,39.5400,78,98,74098
1.7155,0.0489,39.7300,78,98,74101
1.7791,0.0440,39.8300,78,98,74104
1.9453,0.0489,39.7700,78,98,74107
2.1945,0.0391,39.8300,78,98,74112
2.5806,0.0538,39.6000,78,98,74115
2.8592,0.0440,39.7300,78,98,74118
3.1574,0.0440,39.8000,78,98,74121
3.4164,0.0587,39.8000,78,98,74125
3.5484,0.0440,39.8000,78,98,74128
3.5826,0.0489,39.5700,78,98,74131
3.3333,0.0587,39.7700,78,98,74134
2.9619,0.0440,39.7000,78,98,74138
2.6246,0.0489,39.7700,78,98,74141
2.2874,0.0440,39.8000,78,98,74144
2.0821,0.0489,39.5700,78,98,74147
1.8573,0.0440,39.7300,78,98,74151
1.7302,0.0391,39.8900,78,98,74155
1.6716,0.0538,39.7700,78,98,74158
1.6178,0.0391,39.8000,78,98,74161
1.6031,0.0489,39.6000,78,98,74165
1.5494,0.0342,39.7700,78,98,74168
1.5298,0.0489,39.8300,78,98,74171
1.5396,0.0489,39.8000,78,98,74174
1.5249,0.0440,40.0000,78,98,74178
1.5934,0.0538,39.5700,78,98,74181
1.5445,0.0587,39.7000,78,98,74184
1.5445,0.0440,39.8300,78,98,74187
1.5689,0.0489,39.7700,78,98,74191
1.5591,0.0489,39.8300,78,98,74194
1.6080,0.0489,39.5700,78,98,74198
1.5885,0.0342,39.7000,78,98,74201
1.6031,0.0440,39.8300,78,98,74205
1.6373,0.0538,39.7300,78,98,74208
1.6227,0.0342,39.8000,78,98,74211
1.6618,0.0440,39.8000,78,98,74214
1.6373,0.0440,39.8600,78,98,74217
1.6422,0.0440,39.8000,78,98,74221
1.6667,0.0489,39.6400,78,98,74224
1.6667,0.0440,39.8000,78,98,74227
1.7009,0.0489,39.6000,78,98,74230
1.6911,0.0391,39.7300,78,98,74234
1.7253,0.0391,39.8000,78,98,74237
1.7155,0.0489,39.7300,78,98,74241
1.7107,0.0440,39.8600,78,98,74244
1.7644,0.0391,39.6000,78,98,74248
1.7253,0.0391,39.7300,78,98,74251
1.7302,0.0391,39.0300,78,98,74254
1.7449,0.0489,39.6700,78,98,74257
1.7449,0.0440,39.8000,78,98,74261
1.8035,0.0440,39.6400,78,98,74264
1.7644,0.0391,39.8300,78,98,74267
1.7693,0.0391,39.7300,78,98,74270
1.7986,0.0489,39.7700,78,98,74274
1.7937,0.0440,39.8300,78,98,74277
1.8182,0.0391,39.6400,78,98,74280
1.8133,0.0391,39.7700,78,98,74284
1.8182,0.0342,39.8300,78,98,74288
1.8573,0.0440,39.7300,78,98,74291
1.8475,0.0391,39.6700,78,98,74294
1.8817,0.0391,39.6400,78,98,74297
1.8768,0.0342,39.7300,78,98,74301
1.8719,0.0440,39.8000,78,98,74304
1.8964,0.0440,39.7000,78,98,74307
1.8866,0.0489,39.8000,78,98,74310
1.9208,0.0391,39.6700,78,98,74314
1.9013,0.0342,39.8000,78,98,74317
1.9110,0.0440,39.8000,78,98,74320
1.9501,0.0342,39.7000,78,98,74323
1.9648,0.0391,39.8300,78,98,74328
1.9746,0.0391,39.6700,78,98,74331
1.9550,0.0342,39.7700,78,98,74334
1.9599,0.0489,39.8300,78,98,74337
1.9990,0.0489,39.7000,78,98,74341
1.9941,0.0342,39.8000,78,98,74344
2.0235,0.0440,39.7000,78,98,74347
2.0039,0.0391,39.8300,78,98,74350
2.0039,0.0391,39.7000,78,98,74353
2.0381,0.0440,39.7300,78,98,74357
2.0186,0.0391,39.8000,78,98,74360
2.0479,0.0587,39.6700,78,98,74363
2.0283,0.0391,39.7700,78,98,74366
2.0381,0.0342,39.8000,78,98,74371
2.0723,0.0440,39.6400,78,98,74374
2.0381,0.0391,39.8000,78,98,74377
2.0577,0.0342,39.6700,78,98,74380
2.0235,0.0391,39.8000,78,98,74384
2.0137,0.0391,39.8000,78,98,74387
2.0332,0.0440,39.5100,78,98,74390
1.9892,0.0440,39.8000,78,98,74393
1.9697,0.0391,39.7000,78,98,74396
1.9355,0.0342,39.8000,78,98,74400
1.9013,0.0391,39.8300,78,98,74403
1.9062,0.0489,39.2800,78,98,74406
1.8964,0.0489,39.7700,78,98,74409
1.8426,0.0342,39.8000,78,98,74414
1.7937,0.0391,39.8300,78,98,74417
1.7742,0.0391,39.8000,78,98,74420
1.7840,0.0489,39.6400,78,98,74423
1.7351,0.0391,39.7700,78,98,74427
1.7498,0.0391,39.7000,78,98,74430
1.7009,0.0391,39.8300,78,98,74433
1.6764,0.0391,39.8000,78,98,74436
1.7204,0.0440,39.6700,78,98,74440
1.6813,0.0440,39.7300,78,98,74443
1.6716,0.0391,39.7300,78,98,74446
1.6716,0.0391,39.8300,78,98,74449
1.6667,0.0391,39.8300,78,98,74454
1.6960,0.0489,39.6700,78,98,74457
1.6862,0.0440,39.7700,78,98,74460
1.6862,0.0587,39.7000,78,98,74463
1.6813,0.0391,39.7700,78,98,74467
1.6862,0.0391,39.8000,78,98,74470
1.7204,0.0440,39.6000,78,98,74473
1.6911,0.0391,39.7300,78,98,74476
1.6960,0.0342,39.7300,78,98,74480
1.6911,0.0391,39.7700,78,98,74483
1.6960,0.0342,39.8900,78,98,74486
1.7400,0.0489,39.6700,78,98,74489
1.7204,0.0440,39.7300,78,98,74493
1.7155,0.0293,39.7300,78,98,74497
1.7107,0.0391,39.8300,78,98,74500
1.7204,0.0391,39.8300,78,98,74503
1.7693,0.0489,39.6700,78,98,74507
1.7498,0.0440,39.7700,78,98,74510
1.7400,0.0293,39.7300,78,98,74513
1.7351,0.0342,39.8900,78,98,74516
1.7400,0.0342,39.8300,78,98,74520
1.7937,0.0684,39.6000,78,98,74523
1.7644,0.0391,39.9600,78,98,74526
1.7595,0.0293,39.7300,78,98,74529
1.7693,0.0733,39.8000,78,98,74533
1.7644,0.0342,39.8000,78,98,74536
1.8182,0.0587,39.6000,78,98,74540
1.7889,0.0538,39.7000,78,98,74543
1.7840,0.0293,39.7700,78,98,74546
1.7889,0.0342,39.8000,78,98,74550
1.7840,0.0293,39.8000,78,98,74553
1.8328,0.0538,39.6000,78,98,74556
1.8035,0.0391,39.7000,78,98,74559
1.7937,0.0293,39.8000,78,98,74563
1.7986,0.0391,39.8000,78,98,74566
1.7937,0.0293,39.8300,78,98,74569
1.8475,0.0489,39.6400,78,98,74572
1.8035,0.0391,39.7300,78,98,74576
1.7937,0.0293,39.8000,78,98,74579
1.8084,0.0391,39.8600,78,98,74583
1.8035,0.0342,39.8300,78,98,74586
1.8475,0.0538,39.5400,78,98,74590
1.8084,0.0342,39.7300,78,98,74593
1.7986,0.0147,39.8300,78,98,74596
1.8035,0.0635,39.7700,78,98,74599
1.7986,0.0342,39.7300,78,98,74603
1.8524,0.0440,39.5400,78,98,74606
1.8182,0.0391,39.7000,78,98,74609
1.8084,0.0293,39.7300,78,98,74612
1.8035,0.0391,39.8300,78,98,74616
1.8035,0.0293,39.8000,78,98,74619
1.8524,0.0342,39.5400,78,98,74622
1.8182,0.0342,39.7300,78,98,74626
1.8035,0.0342,39.8000,78,98,74630
1.8133,0.0342,39.7700,78,98,74633
1.7937,0.0342,39.8000,78,98,74636
1.8426,0.0391,39.5400,78,98,74639
1.7986,0.0391,39.7000,78,98,74643
1.8035,0.0342,39.8000,78,98,74646
1.8133,0.0342,39.7700,78,98,74649
1.8035,0.0342,39.8000,78,98,74653
1.8084,0.0293,39.8300,78,98,74656
1.8573,0.0489,39.6400,78,98,74659
1.8133,0.0342,39.6700,78,98,74662
1.8035,0.0293,39.7700,78,98,74667
1.8133,0.0391,39.8000,78,98,74670
1.8084,0.0293,39.8000,78,98,74673
1.8719,0.0489,39.6000,78,98,74676
1.8182,0.0342,39.7700,78,98,74680
1.7986,0.0244,39.7700,78,98,74683
1.8084,0.0391,39.8000,78,98,74686
1.8035,0.0244,39.8300,78,98,74689
1.8573,0.0489,39.5700,78,98,74693
1.8084,0.0391,39.7300,78,98,74696
1.8035,0.0244,39.7300,78,98,74699
1.8084,0.0342,39.8600,78,98,74702
1.8182,0.0244,39.8000,78,98,74706
1.8573,0.0489,39.5700,78,98,74710
1.8231,0.0342,39.7300,78,98,74713
1.8426,0.0196,39.7700,78,98,74716
1.8182,0.0440,39.8300,78,98,74720
1.8133,0.0293,39.8300,78,98,74723
1.8671,0.0440,39.5400,78,98,74726
1.8231,0.0244,39.7000,78,98,74729
1.8133,0.0244,39.8900,78,98,74733
1.8231,0.0342,39.8000,78,98,74736
1.8084,0.0391,39.8300,78,98,74739
1.8524,0.0587,39.5400,78,98,74742
1.8182,0.0342,39.7000,78,98,74746
1.8084,0.0293,39.8000,78,98,74749
1.8328,0.0391,39.8000,78,98,74753
1.8280,0.0293,39.8300,78,98,74756
1.8866,0.0635,39.5700,78,98,74759
1.8573,0.0440,39.7300,78,98,74763
1.8573,0.0293,39.8300,78,98,74766
1.8817,0.0391,39.7700,78,98,74769
1.8768,0.0342,39.8900,78,98,74772
1.9404,0.0342,39.5700,78,98,74776
1.9013,0.0147,39.7000,78,98,74779
1.9062,0.0293,39.8600,78,98,74782
1.9257,0.0391,39.8000,78,98,74785
1.9208,0.0293,39.8000,78,98,74789
1.9697,0.0391,39.5700,78,98,74792
1.9648,0.0391,39.7000,78,98,74796
1.9110,0.0293,39.8600,78,98,74799
1.9110,0.0342,39.7700,78,98,74803
1.9159,0.0244,39.8300,78,98,74806
1.9159,0.0342,39.5400,78,98,74809
1.8719,0.0342,39.7300,78,98,74812
1.8377,0.0147,39.8300,78,98,74816
1.8377,0.0440,39.8600,78,98,74819
1.8084,0.0293,39.8300,78,98,74822
1.8524,0.0391,39.5400,78,98,74825
1.8035,0.0293,39.8300,78,98,74829
1.8035,0.0293,39.8300,78,98,74832
1.8133,0.0391,39.7700,78,98,74835
1.7840,0.0293,39.7700,78,98,74839
1.8133,0.0342,39.5700,78,98,74843
1.7791,0.0391,39.7000,78,98,74846
1.7693,0.0342,39.8000,78,98,74849
1.7840,0.0342,39.7300,78,98,74852
1.7644,0.0293,39.8300,78,98,74856
1.7986,0.0587,39.5700,78,98,74859
1.7693,0.0342,39.8300,78,98,74862
1.7693,0.0293,39.8300,78,98,74865
1.7889,0.0293,39.7700,78,98,74869
1.7693,0.0293,39.8300,78,98,74872
1.8084,0.0147,39.5700,78,98,74875
1.7742,0.0293,39.8300,78,98,74878
1.7791,0.0293,39.8900,78,98,74883
1.7937,0.0342,39.7700,78,98,74886
1.7840,0.0293,39.8000,78,98,74889
1.7889,0.0342,39.6400,78,98,74892
1.7253,0.0293,39.7000,78,98,74896
1.7058,0.0244,39.8300,78,98,74899
1.6862,0.0391,39.7700,78,98,74902
1.7449,0.0293,39.7000,78,98,74905
1.9550,0.0293,39.6000,78,98,74909
2.1945,0.0440,39.6700,78,98,74912
2.5073,0.0293,39.8000,78,98,74915
2.8690,0.0196,39.6700,78,98,74918
3.1378,0.0293,39.8300,78,98,74921
3.4311,0.0391,39.6400,78,98,74926
3.4946,0.0391,39.8000,78,98,74929
3.4409,0.0244,39.8300,78,98,74932
3.2502,0.0391,39.7300,78,98,74935
2.8935,0.0293,39.8000,78,98,74939
2.5855,0.0244,39.6000,78,98,74942
2.2434,0.0293,39.7700,78,98,74945
1.9892,0.0293,39.8300,78,98,74948
1.8328,0.0342,39.7300,78,98,74952
1.7058,0.0244,39.8000,78,98,74955
1.6471,0.0244,39.6400,78,98,74958
1.5738,0.0244,39.8000,78,98,74961
1.5445,0.0293,39.8000,78,98,74966
1.5347,0.0293,39.7000,78,98,74969
1.5103,0.0293,39.8300,78,98,74972
1.5249,0.0244,39.6700,78,98,74975
1.4956,0.0293,39.8300,78,98,74979
1.5054,0.0196,39.8000,78,98,74982
1.5200,0.0342,39.6000,78,98,74985
1.5005,0.0293,39.7700,78,98,74988
1.5347,0.0342,39.6700,78,98,74992
1.5249,0.0244,39.7700,78,98,74995
1.5347,0.0147,39.8300,78,98,74998
1.5787,0.0391,39.7000,78,98,75001
1.5591,0.0293,39.0300,78,98,75005
1.5982,0.0293,39.7000,78,98,75009
1.5836,0.0342,39.8300,78,98,75012
1.5982,0.0244,39.1900,78,98,75015
1.6178,0.0293,39.7300,78,98,75019
1.6227,0.0391,39.7700,78,98,75022
1.6569,0.0342,38.9000,78,98,75025
1.6422,0.0293,39.8000,78,98,75028
1.6520,0.0244,39.8000,78,98,75031
1.6960,0.0342,39.6700,78,98,75035
